33.633
-28.065
-32.116
19.332
-20.798
-3.7864
-126.26
-11.312
259.55
34.971
-132.58
-6.8276
-75.234
200.77
45.461
-237.4
33.596
94.228
-33.636
-168.29
53.849
78.127
49.774
-83.435
-18.411
207.46
-1.2662
14.752
-5.149
-269.96
68.227
200.99
16.795
-117.02
-271.99
154.94
29.122
-112.66
60.528
38.969
261.54
-105.91
-58.283
72.915
70.467
-80.313
-79.045
45.663
-141.52
-69.776
46.301
65.867
-216.19
9.3096
190.19
65.831
19.442
6.4037
-12.606
79.087
65.564
-103.27
-17.395
122.72
-84.194
79.037
-59.518
-119.29
-2.5957
172.26
-85.79
-108.78
-91.261
-36.558
94.311
41.711
155.5
2.2359
-168.04
40.134
94.086
-84.428
-104.62
42.678
-97.467
73.85
111.71
-11.052
30.33
-308.83
-51.938
120.28
142.04
-39.041
-99.739
109.41
31.863
8.907
-58.405
86.874
103.71
175.59
-239.98
-169.52
227.47
64.277
-62.759
-120.68
71.917
90.4
-19.778
-47.147
2.2389
42.733
6.1509
-35.655
-40.835
10.953
-3.2693
-5.2993
-21.973
12.444
-9.7062
-38.873
-35.821
40.211
31.143
-11.384
-56.068
-8.4021
37.279
-95.07
21.604
-15.645
28.213
72.07
96.597
1.3151
-256.21
162.85
360.1
-317.72
-118
66.806
203.88
-81.833
-30.277
-4.7671
-6.3468
-25.404
-2.492
25.177
71.853
-67.934
-122.58
-76.985
-49.531
118.51
85.897
51.241
-63.843
-131.12
-23.344
64.858
-11.74
-45.341
83.933
70.38
55.3
6.1682
-51.133
47.298
8.6554
-15.494
73.266
-57.712
-168.75
-67.475
9.2563
111.79
38.738
-40.513
-99.988
-42.148
-63.351
-18.314
-6.1074
104.73
-7.8255
-0.6217
-53.282
114.21
239.72
26.185
-16.079
-149.72
47.388
154.68
-62.809
-128.46
78.627
208.12
-9.5594
-261.47
-58.786
111.47
66.183
-8.8818
-112.61
45.745
24.969
-67.241
32.239
-23.157
-77.633
-114.07
59.301
68.802
-1.0558
-82.528
14.395
56.682
7.2002
-49.794
-51.502
59.615
41.528
-31.496
-90.025
66.002
71.858
36.371
-26.76
-59.365
23.163
-24.688
122.08
-97.396
146.85
-11.949
48.516
-96.416
-253.94
126.46
30.479
158.06
-84.222
-101.2
-9.7809
16.639
56.616
-89.289
-46.815
73.888
86.106
-24.848
-103.52
176.69
109.13
-63.909
-225.79
-84.133
269.4
-10.877
-147.56
91.349
153.78
-17.589
58.316
-79.987
27.301
11.519
30.273
-29.736
-170.23
-40.884
53.67
-100.12
-31.99
242.84
190.98
-166.35
-79.407
-108.01
13.052
-25.144
92.662
1.1334
30.844
-163.3
-26.348
92.854
120.3
-153.88
-77.532
51.666
20.599
54.139
-31.173
102.32
164.82
-29.575
-243.17
-29.464
63.519
111
-53.856
-343.86
209.76
250.87
-70.137
-103.83
-44.561
-3.6637
64.311
42.297
-72.449
50.636
52.764
-84.461
-33.33
-8.9158
93.386
66.058
39.386
-79.876
-215.34
192.83
258.92
-50.733
-364.57
142.27
216.66
-279.46
-23.24
-10.721
-27.63
-49.958
93.154
172.54
80.037
-88.289
18.057
-132.5
-157.65
65.746
84.958
140.5
-39.533
-205.97
-6.2822
204.52
25.018
-185.44
81.27
91.391
45.443
-138.1
-250.31
77.627
98.464
14.484
1.195
162.26
-36.857
-47.551
27.809
-135.93
237.89
56.331
-184.81
-9.5202
21.21
10.322
118.44
-28.073
-93.348
-32.353
25.924
32.499
-25.346
-160.78
63.792
237.11
122.35
-90.792
-137.43
-93.021
-121.21
-117.7
89.592
155.32
-4.4934
-191.22
80.858
-17.824
69.07
46.447
-14.447
36.299
13.147
135.2
-58.119
-86.493
-2.9025
86.663
-60.724
-20.778
-40.201
-168.72
111.05
190.49
88.741
-268.56
13.75
305.58
-35.008
145.37
-315.64
30.25
133.66
16.056
59.912
-240.06
-185.13
89.681
74.516
108.52
133.54
-127.59
-268.38
-40.142
322
-106.5
-196.14
108.42
105.56
-73.967
150.96
-80.867
-114.91
-39.726
-158.26
164.57
179.45
84.412
-94.014
-62.135
-11.943
-19.914
85.151
-52.601
-69.318
-44.788
67.622
130.85
-107.1
3.5825
52.89
-15.775
-136.12
9.9331
185.4
16.506
-193.94
-91.283
23.79
125.77
151.38
39.41
-226.93
72.845
210.14
-149.11
-41.935
49.291
-12.861
10.183
-85.351
43.529
75.732
26.642
-11.314
-115.64
-40.246
82.144
35.241
13.084
92.93
37.081
98.326
-295.59
-139.26
230.18
-45.333
-77.471
-52.582
53.055
38.609
-0.30601
-16.74
-34.891
64.429
20.941
-88.782
-7.4496
46.019
46.864
13.437
32.786
7.5771
-177.29
51.533
40.173
-73.07
12.047
124.02
-65.358
-17.738
397.01
65.118
-302.25
-99.282
60.131
-82.01
-69.918
-15.125
-84.183
-54.872
10.807
98.065
52.291
155.61
-53.899
-73.244
17.067
-28.663
3.7165
-56.052
-13.318
-42.999
14.45
-126.31
137.12
0.7492
-229.87
-19.085
-147.73
20.156
192.82
156.18
-35.602
-221.88
35.195
333.21
282.59
-70.167
-103.04
96.693
222.21
188.75
-225.46
-76.473
-0.39602
19.187
-85.161
-106.3
-30.052
-36.549
-25.522
-25.895
30.686
18.041
79.964
52.376
-65.372
-69.622
-162.21
15.638
59.993
-34.872
-88.561
41.666
101.97
-7.0299
-36.24
-300.37
-231.34
277.62
320.14
-3.5856
-31.082
-12.529
2.5569
220.47
98.997
-301.77
123
10.783
-44.654
29.693
-79.951
21.595
27.527
-137.01
40.57
85.027
-39.112
-68.482
-131.37
146.16
-78.173
-137.77
0.084846
79.81
199.88
24.134
128.91
13.855
-60.388
-22.943
-265.46
16.444
291.73
42.184
-261.2
-65.888
-104.33
83.921
79.741
116.46
172.61
-57.212
-238
0.24954
48.887
75.481
83.597
-6.7248
-102.36
33.218
109.92
141.82
-69.926
-90.029
-215.67
-77.512
65.805
82.174
20.954
-79.928
34.608
31.985
13.515
-55.607
33.696
47.152
-2.6839
-91.034
-7.4133
44.522
2.4899
-86.188
-21.064
103.08
34.65
-153.2
-43.692
155.85
42.388
-105.97
0.41785
69.188
10.785
-4.1677
12.163
12.112
-183
-78.196
64.386
234.57
-41.548
106.66
433.77
106.69
-33.459
-231.01
-189.76
-136.7
-123.78
-37.749
28.441
-18.33
-12.632
-57.126
45.664
63.694
27.53
-53.023
57.797
122.27
121.49
-139.21
-112.93
7.4542
6.223
-52.891
-45.609
-11.638
-18.504
-39.342
-33.304
-26.692
-25.278
15.784
-83.439
40.031
120.25
73.003
-22.266
-54.564
136.29
111.55
133.23
1.559
-99.773
-53.424
-3.152
-11.833
-7.3323
4.1373
-6.7336
-13.49
-32.245
-43.829
-205.33
-119.77
196.15
79.82
4.6844
-211.97
-178.02
10.188
176.88
-25.422
135.02
323.89
159.31
256.35
-190.71
-334.53
200.03
-41.779
-143.24
167.56
135.58
-138.08
-208.81
82.83
191.92
-62.997
-191.76
-43.824
119.32
33.351
-67.394
-28.56
50.72
-96.056
-169.73
49.173
22.743
-91.631
10.568
129.57
59.323
-46.209
-125.99
70.516
97.676
82.388
-93.09
-34.028
114.52
5.2868
-15.843
-114.52
60.918
105.3
51.412
-74.708
8.5133
51.743
1.1916
-115.2
-3.1582
86.42
25.992
-94.573
-18.448
55.198
9.048
-95.701
-18.084
63.012
27.871
-58.427
-52.44
54.366
-79.054
-177.6
151.47
214.49
-38.607
55.811
-18.525
-17.693
-8.8317
-79.295
-53.437
60.806
52.864
152.29
201.62
-284.45
-121.67
-100.59
-194.24
78.546
162.84
111.39
-14.748
-167
-85.814
-30.338
120.66
87.958
15.063
22.007
-34.433
-34.794
114.2
9.838
55.887
69.673
-22.913
-372.19
16.112
83.062
75.145
94.762
-45.495
-135.64
53.296
62.832
-2.8549
-55.558
-8.484
-21.672
-5.9299
97.697
16.807
-27.789
14.643
4.1708
-33.346
50.323
45.287
-36.837
-111.96
46.807
71.283
18.61
-57.078
-17.928
49.768
18.005
-28.312
-68.999
6.1421
69.916
49.894
57.736
-183.44
85.313
433.56
-64.126
-195.87
-32.992
-34.673
-92.689
-80.554
-357.13
126.22
132.72
1.7882
44.792
-44.016
122.42
90.987
-107.96
-63.082
-153.92
72.283
169.24
12.475
-54.334
11.508
-87.726
-36.557
-50.812
2.1181
110.34
72.946
-85.063
-80.022
-11.024
102.97
-9.9104
-204.41
-144.08
59.102
-75.293
186.35
-3.1177
53.176
123.17
102.5
140.22
-58.955
-70.335
-31.059
24.435
221.1
56.868
51.595
-62.823
-14.867
-16.064
-79.059
-53.727
68.979
-29.939
-50.23
35.048
-32.414
48.029
-68.499
-87.64
-43.689
80.12
-16.46
-257.96
58.147
206.88
83.725
-131.51
128.43
-21.477
-198.57
-95.429
152.83
126.8
-88.165
-122.99
-69.114
59.228
182.71
-146.57
-101.9
74.135
87.319
28.198
-73.816
3.2969
191.29
129.37
-138.76
-56.261
-22.852
-64.711
-70.054
25.012
150.37
123.08
-58.104
-40.519
38.289
-126.7
-78.158
210.93
134.04
-74.554
-28.052
-17.792
2.6059
-64.101
-56.609
-68.181
72.592
-85.228
54.645
57.804
-180.64
-24.984
51.301
47.371
-15.316
80.273
52.622
-83.698
-51.406
38.434
93.177
-41.871
29.078
-87.631
-131.59
-198.02
208.91
15.612
-93.644
148.82
131.74
87.304
-13.91
120.23
-99.717
-109.7
-163.01
-52.186
148.85
-40.414
3.7876
-25.401
52.034
107.83
-107.86
16.38
7.4569
118.43
-57.117
84.359
121.57
-26.217
117.84
-84.853
-232.68
119.79
-12.907
-45.563
-46.723
-27.775
61.018
-30.789
-49.753
-29.789
97.822
-16.441
-138.77
-8.8736
-19.325
43.41
-4.0542
-38.296
9.7369
152.49
-45.893
62.807
-60.773
-101.98
96.837
23.472
-6.4492
120.07
-32.48
-177.3
20.263
27.623
-98.654
6.0634
147.34
-156.81
-15.557
21.629
22.818
15.727
20.856
250.73
63.129
-111.64
-102.26
-86.506
69.081
66.024
-173.29
-19.111
198.01
153.01
-190.05
-18.925
57.939
66.044
-5.3721
-99.962
-38.336
19.97
33.828
-10.873
-33.896
23.546
-32.811
-26.673
-53.382
1.3245
152.11
194.31
-15.195
-163.95
-50.246
-18.368
-82.452
13.436
104.79
-207.47
-23.185
207.29
63.594
-82.773
-93.413
-63.187
25.621
4.8922
-62.552
-110.71
168.47
143.28
46.438
-262.52
-69.082
199.79
172.99
-51.588
-95.3
147.81
5.1472
-23.613
-23.235
114.97
-46.528
0.92073
21.465
-178.28
163.2
85.496
-37.288
-123.96
-24.832
-59.973
134.82
-19.478
-118.39
-14.373
-5.7607
-5.8044
108.58
-75.269
-69.201
-35.604
48.179
132.65
33.307
-52.126
-58.45
-146.33
-195.65
-12.033
89.293
101.49
2.6982
-66.053
150.74
90.688
-68.086
51.287
108.41
40.808
48.787
-96.759
-112.46
23.206
86.158
-36.757
94.752
186.6
25.849
-91.358
-121.91
-68.6
24.73
0.25946
-245.25
-17.856
124.48
79.518
44.161
-89.45
-12.864
87.571
57.418
8.9532
-81.179
-20.094
-65.342
0.27203
64.49
-67.524
-58.399
49.207
21.458
-15.199
-38.485
51.207
-1.6184
31.452
29.903
-158.72
-3.8065
88.342
14.479
11.787
-53.389
63.281
57.129
-89.957
-4.5305
39.107
40.821
29.897
1.061
-54.625
-61.963
37.738
1.2749
-33.714
-22.507
31.136
81.514
20.434
-59.178
-114.71
112.44
81.43
23.547
-59.239
-89.332
109.72
67.797
47.161
-8.3918
-248.49
48.003
42.423
13.618
-41.243
-23.365
53.186
36.136
-10.033
-30.908
31.984
27.744
-10.433
-47.545
-43.094
-18.192
-38.953
105.19
22.761
-37.818
45.007
6.8654
-252.36
210.22
229.66
-293.49
9.1395
52.304
19.017
303.05
149.11
-209.24
-109.23
-110.58
-83.776
-65.067
-4.1159
-38.646
-37.814
-40.287
72.359
0.86607
149.62
-133.8
-115.09
11.285
-27.85
-64.882
64.223
143.98
150.41
22.877
6.7682
-75.334
-53.332
28.089
-18.377
-50.795
40.572
58.818
18.311
-100.2
59.846
154.66
94.023
-30.554
-366.24
-87.191
157.71
261.88
126.41
-54.312
-91.934
-15.426
-61.358
-15.078
30.978
43.488
-36.477
-72.307
-8.9083
-168.06
67.709
88.963
-158.2
-139.2
106.42
203.55
34.592
77.61
9.2904
-117.92
75.946
-124.41
-153.85
193.25
47.2
-103.98
-101.88
135.36
85.15
58.351
60.888
-194.53
75.998
-37.061
-124.47
21.408
8.8601
58.736
62.359
-101.91
51.304
96.079
-50.918
-45.586
-29.255
-86.313
3.566
59.248
214.26
-81.638
13.23
-9.0138
-113.45
-101.11
91.09
119.13
-217.49
107.12
198.46
-83.019
-233.55
-7.8123
133.22
132.4
39.23
-23.129
-7.6701
-73.329
32.628
-172.4
-69.693
23.865
160.95
-110.81
-177.68
210.09
158.35
-89.707
8.7553
195.88
-83.802
-47.653
-67.192
-149.03
-139.44
192.26
126.29
-102.32
-238.24
108.7
121.05
31.768
-1.6634
12.057
55.258
-5.2285
-32.842
-70.703
166.36
-96.115
2.1395
-7.0681
-29.574
127.86
37.343
1.1877
-90.554
-58.969
109.32
-12.565
12.313
-110.7
-57.367
141.66
59.208
8.3591
-235.57
1.1086
292.08
-67.928
-122.12
18.774
24.75
-10.412
-293.77
222.27
106.65
-155.78
33.106
-19.755
94.621
1.8231
15.375
-100.24
-215.15
197.64
262.08
-129.46
-108.51
-86.716
-1.195
42.737
65.453
104.88
-5.9626
102.5
-115.34
9.6277
86.209
-135.14
95.244
83.603
-181.08
-51.403
13.326
-135.26
103.18
151.43
-63.998
84.006
-0.070401
25.36
38.62
-62.192
-109.8
2.3892
-18.624
-12.793
-64.103
-31.085
84.745
-170.04
26.824
104.9
79.781
-163.71
-140.61
188.3
141.26
67.745
-74.424
37.696
-60.798
-117.14
-137.25
263.93
95.059
5.2805
-1.4822
87.226
-68.593
-33.781
-77.197
-125.11
141.32
141.28
-40.516
-180.03
-10.739
-3.4307
-34.812
86.595
18.684
-97.844
93.346
-65.459
-43.174
61.714
-2.3665
83
-68.748
-67.768
-154.98
145.46
223.23
73.013
-247.93
12.69
199.44
20.898
-118.78
-109.23
212.66
-9.5059
-84.851
17.257
-28.341
-77.24
-42.195
115.53
-37.349
2.2118
53.705
107.23
-92.449
-67.058
-20.805
24.844
166.65
-28.792
-128.65
17.166
75.468
-89.822
-114.48
-32.642
10.014
-23.483
-71.325
-26.767
99.051
70.964
-127.96
75.654
153.67
1.0675
-43.162
-109.85
122.94
-38.332
71.439
11.576
-4.1533
-14.96
48.487
12.205
-83.614
-36.441
18.208
66.241
4.6458
153.47
-49.225
-145.89
6.8924
-49.791
71.352
25.091
37.328
-59.964
-43.056
-32.642
9.9544
34.406
30.831
-6.9831
108.47
-126
108.31
52.267
-0.46216
164.94
-98.985
-123.19
-226.35
-37.102
-124.61
67.547
139.08
-112.9
64.469
-108.03
-34.533
96.358
246.84
-41.383
-187.36
9.4637
48.781
44.502
-46.036
130.21
218.6
-86.762
-116.39
-70.776
-14.749
-168.04
-65.461
-108.9
-99.863
134.57
222.21
110.61
-143.79
23.301
221.1
184.26
-145.45
-161.76
91.068
155.27
-37.139
-237.1
-29.249
138.96
-21.9
-150.92
-44.413
179.91
151.1
-157.6
93.78
-7.0801
-169.71
3.448
120.06
-20.222
-76.246
126.51
-28.049
36.242
-141.71
-42.984
202.93
-28.577
112.57
-282.15
-115.2
177.09
142.71
-169.35
-97.449
-1.6695
52.766
-1.0858
-85.369
67.619
-70.17
-83.543
167.42
77.161
27.475
-35.505
142.79
10.017
-70.837
38.809
19.307
-205.77
-6.5099
35.979
73.835
-144.85
-43.348
-7.155
151.78
-8.488
-88.806
157.63
6.6853
-51.262
57.836
252.31
-193.04
-2.7953
-95.007
-302.3
154.47
73.734
158.89
-206.7
212.48
102.3
-258.75
-16.894
28.761
99.464
5.9638
-22.612
-235.98
138.41
77.797
1.9166
63.228
71.672
45.472
-224.37
-182.68
-25.081
65.194
306.19
3.9762
-208.03
-70.077
167.88
151.33
-176.82
-216.46
149.25
108.92
-14.077
-43.431
-79.777
132.89
-88.711
-135.87
-126.86
158.39
115.35
260.62
-106.87
-51.236
64.011
-221.64
-49.561
46.737
25.582
-13.526
-20.266
150.94
-33.404
-156.4
273.57
140.76
-103.57
7.5837
-146.52
-10.395
-28.441
40.333
78.001
-116.11
130.09
92.509
-97.511
-203.49
29.869
-21.875
161.44
-25.462
3.0506
28.397
-111.74
-73.675
-68.788
26.662
-50.981
46.36
52.049
-61.411
71.206
-66.794
-167.33
206.59
180.41
57.336
-77.178
-122
185.85
95.072
-45.811
-159.27
0.65555
-74.687
28.454
-13.443
-24.149
62.651
-2.6445
54.875
10.302
-100.77
-78.243
40.25
86.852
40.879
-32.441
-9.4809
39.143
-113.74
21.331
-89.021
-9.7357
15.806
1.7198
55.046
-10.881
-79.501
-64.512
124.07
193.03
114.34
-67.094
-79.088
91.185
39.092
-247.1
-87.009
163.55
110.64
-114.1
-88.006
168.85
43.161
-28.092
50.235
-65.527
67.876
-35.428
-92.679
-83.127
143.31
69.034
-121.27
-85.116
226.43
-201.5
-77.449
164.47
-77.087
-34.036
35.452
71.651
-142.39
35.831
149.44
-149.02
-249.04
-79.877
288.55
138.16
48.287
-55.025
-80.974
7.8464
-52.682
57.955
52.834
37.536
-138.58
12.371
75.598
122.48
-215.26
-77.735
59.387
131.32
55.72
-113.8
235.56
-112.64
80.473
-80.932
17.674
3.9609
-95.265
-113.53
60.365
47.228
-132.34
-39.969
57.761
69.897
-89.863
-82.889
15.557
93.989
46.515
90.135
109.76
11.493
-19.482
-144.91
-0.18139
-130.02
85.618
21.161
-46.273
142.13
103.59
-175.83
-98.718
125.7
-103.88
23.692
-23.833
-15.489
173.44
-87.09
-46.95
67.279
-48.325
-34.871
-162.11
207.06
96.648
-145.25
-2.8137
252.42
56.045
-292.38
-74.876
-62.868
102.27
141.92
-9.7566
198.17
-49.737
-343.15
-55.629
214.9
26.727
-172.63
-66.823
171.41
17.423
1.3506
238.21
-68.031
-79.887
54.67
-75.231
50.691
-52.889
-314.36
89.321
200.17
171.87
-284.16
-165.63
75.318
291.35
-36.594
-245.03
285.25
-13.033
-49.055
-26.755
-0.38468
-40.869
36.119
19.381
87.521
11.342
-10.309
1.1717
40.767
-44.818
-67.152
-35.306
-22.503
-29.635
-27.966
-46.573
2.6406
79.11
-23.556
-74.978
-51.766
3.418
-26.196
39.794
193.36
19.949
-54.465
-9.937
-22.893
-128.88
-44.662
81.651
-4.7397
-74.851
39.664
51.939
-78.462
-144.83
269.02
154.11
-31.619
67.117
54.356
-18.137
202.8
67.914
-313.17
-68.493
2.2094
73.115
-72.85
-43.605
5.671
-73.814
-42.623
28.504
18.809
-204.56
-143.24
311.13
269.78
158.7
-71.006
-84.937
-189.11
-111.91
39.648
160.03
-130.58
-101.29
159.5
55.27
22.056
-153.01
-191.29
-147.34
147.89
130.96
-51.117
-15.287
217.32
137.9
-299.45
-103.98
176.93
48.989
21.859
-76.47
76.02
34.655
108.72
-21.237
-110.9
125.71
223.68
-109.18
-265.03
-78.454
3.8127
103.71
-3.2248
-37.35
74.623
36.868
-52.085
-24.57
22.772
-9.1296
23.759
-30.3
-21.718
3.5217
-27.269
-39.301
6.4398
35.883
28.265
-14.943
-49.275
90.215
-13.679
-62.002
-50.353
-21.772
36.855
-15.38
-49.101
9.3669
96.819
63.634
-8.5221
-52.649
13.451
28.365
36.688
-72.717
34.084
71.179
6.487
-41.601
-70.843
120.72
89.917
-135.5
-56.381
21.287
-9.2207
12.525
-42.819
-58.796
16.925
60.21
18.165
-36.567
12.367
96.199
60.905
-9.059
-73.96
-25.519
-5.0192
-15.515
-57.873
-3.0228
19.246
-54.649
-89.31
-47.593
52.213
106.57
64.976
-54.972
-78.419
49.542
81.388
48.961
-66.902
-65.064
43.019
84.908
119.16
67.096
26.067
-93.336
-216.08
-76.459
-77.198
60.538
67.808
28.129
-68.458
-10.322
91.449
55.932
-57.684
-65.209
74.855
75.001
21.799
-100.67
22.1
100.03
-40.915
-118.4
-25.345
73.397
56.239
-26.475
-38.882
49.395
38.491
11.679
-22.543
22.001
20.833
-55.344
-41.476
-15.374
40.074
36.388
-21.247
-37.691
26.029
-16.526
-8.0811
-59.1
-11.969
24.161
43.596
-30.357
-42.659
35.024
24.455
-15.323
-38.271
56.905
29.48
-65.573
-111.51
65.819
45.763
13.192
-72.707
6.8942
67.678
5.8091
-31.524
-11.714
66.078
38.028
-6.7659
24.656
134.57
-111.15
-138.63
50.037
56.708
-25.05
-55.61
185.15
260.22
-271.95
-181.52
-91.948
135.76
139.08
-22.828
-87.152
20.277
15.371
-216.4
-6.0362
125.41
192.74
-58.129
-115.32
58.696
99.22
-196.8
-148.88
62.349
26.258
162.3
-90.201
-114.89
42.538
175.82
-104.56
28.512
84.108
-9.5372
32.425
-21.87
-117.91
49.488
-74.296
-33.387
-72.866
168.31
81.677
-143.47
-17.301
65.536
46.829
-304.4
24.077
95.488
47.637
-4.7889
-114.52
122.56
86.161
141.91
-173.26
17.823
-23.299
-99.648
-135.04
49.192
154.04
201.98
97.75
104.07
16.373
-102.75
-98.47
-102.4
-91.669
58.737
-41.339
175.53
-13.985
-88.535
11.914
-174.58
59.426
132
63.339
15.083
-357.09
131.5
133.22
36.119
-13.756
-261.23
66.177
7.1466
2.5987
-85.75
12.037
-72.252
188.53
99.996
-201.78
101.66
138.5
69.332
-39.425
-3.993
139.73
122.84
-263.03
-169.49
108.6
9.1539
186.66
-142.36
-68.861
132.06
-154.4
26.792
6.1557
57.689
79.399
-151.49
56.175
-108.09
-13.711
-66.002
27.436
-28.517
-70.853
197.43
177.75
-285.98
25.586
62.751
-52.893
-89.925
147.49
80.276
-142.59
2.9625
99.282
-14.361
-4.5092
-128.79
-57.98
105.6
149.43
-7.62
-206.23
90.604
105.5
88.422
-122.68
-166.31
-30.279
69.327
56.036
-85.63
-74.416
181.55
261.77
51.913
-92.171
-67.891
91.058
55.411
-77.43
-202.08
141.24
-112.05
11.921
24.333
-112.64
-69.206
15.542
159.09
2.8608
-41.004
-107.2
-58.887
-169.59
120.17
147.82
146.68
-69.7
-71.804
134.64
-9.6847
38.285
-11.234
-93.417
88.264
44.732
-239.25
-61.924
169.65
7.6036
-83.156
-200.11
-82.317
284.94
227.51
-64.582
-100.5
-7.3162
-11.263
-49.911
69.766
-24.883
165.48
73.142
-282.46
101.74
-36.98
-50.796
-39.401
149.22
4.1295
-148.17
14.607
110.8
-69.21
81.442
-89.55
-152.45
304.44
131.24
-67.815
-259.42
-240.73
125.58
250.02
135.36
-147.62
22.792
134.58
-206.62
-10.723
11.264
14.328
18.65
-219.63
-58.044
149.38
241.39
-162.52
-163.91
-1.1677
199.61
179.15
-266.4
108.6
60.985
-147.9
-136.89
-144.25
175.38
83.117
132.52
-29.892
42.754
141.94
3.9581
-141.82
-225.6
97.351
79.28
-39.085
-26.887
137.06
154.99
-57.365
-106.42
-82.788
22.869
40.862
5.9574
-7.9571
-71.596
-27.35
53.597
-101.63
35.397
70.106
48.248
-42.821
-34.586
25.948
11.821
-6.5768
-31.999
22.852
14.331
-14.266
-19.619
16.956
6.6394
11.632
-9.5408
-15.935
35.863
3.814
-0.97909
-144.82
34.492
165.12
136.42
-106.3
-195.48
243.08
-60.439
-167.1
226.17
-127.82
-64.674
10.791
-44.6
101.8
42.738
-36.016
53.057
7.5766
-102.92
-49.383
-33.793
12.73
17.681
14.55
-9.5343
0.014329
57.161
44.644
119.67
-18.334
-60.885
-63.878
-143.03
78.533
105.09
175.17
-167.33
-245.74
21.609
-6.3603
49.911
-24.434
-1.5832
8.1407
-120.26
121.3
79.673
-49.145
-47.607
-6.3219
15.65
36.81
12.446
-353.81
-82.413
118.9
31.929
74.58
180.48
96.528
112.62
115.1
43.498
143.05
-164.56
-43.591
19.763
-114.67
-68.39
-22.722
-52.54
-17.218
100.66
-175.99
-20.696
119.73
332.06
1.7342
-44.534
10.35
-229.59
-165.17
75.24
-46.933
59.332
-91.956
148.6
-12.838
-118.63
4.1571
25.168
16.223
7.8633
-5.7062
-100.43
-54.526
103.68
-11.779
85.856
115.63
26.851
-55.505
-80.616
-31.954
-2.0813
-9.6001
-37.808
111.81
-19.922
-89.281
45.956
122.43
-75.93
-20.589
-95.043
44.167
119.68
-26.354
22.987
221.39
-298.79
-49.375
278.44
-41.089
-163.99
-168.5
154.01
214.1
30.809
-235.82
-68.667
-46.628
0.099325
117.38
-82.601
25.069
142.93
33.999
-137.73
-68.595
169.85
224.58
-108.48
-41.491
-205.21
-87.551
378.95
-55.12
-92.263
12.421
110.86
19.618
-128.81
-42.68
-56.083
-41.452
-112.27
-6.7347
1.6917
-82.527
242.75
283.02
-4.4242
-138.02
-161.99
22.835
-10.559
-80.193
-15.267
91.782
38.138
-64.614
-50.638
-4.3532
-237.41
119.23
544.46
93.858
-138.7
-189.39
15.837
46.943
-97.46
14.369
-109.09
-184.64
-38.475
274.48
126.18
-54.402
-81.323
38.256
65.363
-138
81.288
-74.066
-69.645
-124.8
-12.293
165.68
185.59
-5.2739
-127.73
-113.38
29.768
208.78
-86.368
-130.78
109.27
17.514
-66.214
24.962
33.498
-98.351
-7.6874
-123.35
-72.002
252.51
60.434
-31.881
-15.394
118.7
-62.724
11.814
-51.095
-169.87
136.51
96.928
-33.314
-39.419
37.39
88.635
58.117
-58.844
-227.65
95.744
105.66
-3.8897
-155.12
106.18
128.72
-7.0246
-26.002
-180.34
-15.702
-79.404
169.82
116.68
-84.298
-59.674
16.609
30.641
-51.298
46.06
-57.81
-41.238
65.352
-111.48
126.87
142.94
-117.6
-326.83
71.612
241.14
-4.9402
35.925
-12.876
149.54
-125.85
-15.384
11.126
-47.99
-0.94484
31.295
-69.515
-218.33
173.87
57.241
-37.051
15.27
-88.618
32.866
0.70845
50.156
-85.224
-143.75
111.39
202.11
57.387
-55.83
-153.9
55.042
12.103
-25.125
-4.8377
177.59
-2.5546
18.573
-138.59
-50.391
372.4
65.75
-11.886
-47.769
-116.81
-75.23
-93.713
106.48
-25.69
-220.92
-28.433
348.9
-47.181
-134.48
-17.53
7.9943
-101.85
35.184
-165.69
87.92
53.814
33.843
53.274
-65.46
-217.82
-198.43
100.38
142.03
-33.417
31.688
180.18
-10.545
3.1168
-26.319
99.327
72.844
-39.179
-126.33
47.573
121.5
106.5
79.919
-200.07
-170.3
117.11
88.397
-34.766
-14.202
39.296
15.136
-48.635
-23.65
15.078
26.86
84.606
-107.03
-43.478
8.9884
-10.504
31.845
-25.026
-35.841
-9.7521
33.791
-52.295
-1.9506
63.667
66.322
-2.4469
-74.647
-35.954
23.568
-6.784
-87.754
-35.529
34.795
74.266
89.694
123.61
-409.45
-0.78592
200.9
-23.327
-26.618
-49.881
76.554
134.71
75.741
-61.84
-57.469
85.675
-4.9921
-133.77
-45.663
32.686
-5.2942
-4.1405
17.177
51.073
-34.54
12.329
-13.801
-10.615
17.186
-27.716
-57.285
17.874
68.579
-14.495
-56.955
-0.41419
54.014
39.307
73.658
-28.551
-34.606
-20.091
-53.961
-85.299
143.97
107.19
-102.64
-96.368
-20.777
84.073
113.1
-64.509
-115.26
5.1632
31.02
-5.1697
-67.907
2.8068
-33.387
-87.142
-66.415
-203.6
51.847
434.74
154.06
22.319
22.967
-75.834
-143.95
-125.29
-59.533
251.23
119.55
-54.431
-98.255
59.799
79.886
-243.42
-217.05
131.21
214.31
199.81
101.48
-147.72
-55.322
-62.46
58.981
43.335
-149.25
-72.079
198.38
-78.302
-75.615
124.51
-142.05
-81.488
125.88
-106.73
-1.8507
73.499
-133.66
-92.929
29.384
84.005
-59.552
-48.149
72.342
278.74
57.988
-150.12
-147.06
227.08
0.39455
-113.85
55.813
-17.012
-58.455
-93.373
-22.425
-10.565
25.494
173.43
-55.571
-95.211
18.407
-29.908
-55.786
8.5218
358.06
-82.839
-94.967
61.99
-62.273
117.6
-165.3
35.432
70.613
23.873
-134.99
-6.3431
45.742
27.486
53.177
-239.15
6.0016
242.57
-25.344
-79.459
158.05
-11.483
-4.5375
-108.34
-68.961
16.987
60.756
26.156
16.365
3.7819
-39.866
-75.318
145.67
3.9958
-94.962
-182.1
-108.35
14.759
2.3235
268.2
100.3
-54.512
-39.201
-138.17
162.84
14.24
-121.03
-30.952
105.26
5.627
-29.831
-165.07
13.053
113.5
35.932
-79.559
28.054
44.787
-75.367
-162.57
182.63
230.79
16.057
-152.87
-104.66
119.08
8.087
104.56
12.303
-82.724
-20.762
-103.15
-168.83
170.99
118.47
-70.034
94.472
-81.697
24.885
150.98
-10.384
-229.09
-146.73
357.48
45.163
-78.51
-139.14
-49.36
-169.97
130.77
87.955
25.324
56.46
-111.26
-101.53
-96.362
-6.3756
138.99
-3.93
-270.04
54.497
-24.619
-51.075
59.557
262.98
179.89
140.88
-127.37
-29.306
178.05
134.74
-6.7869
-69.836
-119.44
-129.43
25.241
-30.342
74.711
70.282
-145.43
-108.59
41.546
86.057
65.532
78.042
-167.04
-102.24
161.15
-47.157
31.029
-58.091
-106.06
-143.17
-22.16
162.77
-27.704
34.712
-21.428
-92.267
-28.426
140.45
75.1
-267.01
53.08
21.523
61.703
-44.612
180.62
-229.8
109.35
174.81
128.57
44.808
-76.587
-49.372
-275.76
42.089
131.76
147.17
-110.5
-49.944
52.637
-27.149
-91.956
5.2279
94.188
12.748
-6.5335
-240.64
-127.52
36.717
268.17
208.08
-66.819
-91.697
9.4592
-24.155
182.26
-142.15
-1.4753
106.4
16.816
-193.15
-99.406
58.927
18.53
0.21492
-58.054
18.71
58.742
-17.603
109.04
35.345
-38.342
54.755
-3.9209
-31.389
-121.41
-44.901
22.718
20.697
-209.43
2.4871
168.06
23.391
140.11
-6.1007
-3.749
-92.526
-121.25
-76.222
-104.02
32.225
154.11
-67.312
45.01
95.458
43.939
-26.824
30.185
62.297
144.93
-47.267
-219.84
93.488
73.241
-88.494
-147.67
164.05
82.141
-44.71
-43.713
-4.8483
50.844
31.562
-21.477
-64.533
6.8336
36.247
21.035
-12.819
-16.463
-47.288
17.872
24.821
21.739
-30.452
-50.971
-20.565
-66.28
54.973
68.629
99.006
-136.19
-114.05
94.731
3.7865
-24.7
-23.957
65.182
59.937
-11.976
-100.03
6.3856
68.965
19.639
-24.332
-39.429
41.216
23.246
-6.7478
-65.81
20.431
56.904
20.625
-43.08
-46.67
71.368
-38.438
-85.449
28.705
55.023
43.421
14.19
-67.351
-27.39
66.626
140.72
-125.17
101.61
100.08
-291.82
128.37
-135.4
-31.887
106.84
235.12
-78.768
-166.24
-49.965
150
131.74
-89.693
-131.62
-53.698
88.436
0.39025
-43.958
-1.34
-59.607
-17.141
-12.435
-9.3602
-38.658
-4.1627
-80.402
-100.38
19.966
-1.2661
-73.646
153.92
423.18
-56.803
-168.18
-88.486
91.939
-22.021
-108.64
-49.646
176.28
15.338
-62.464
-53.411
109.28
59.092
-42.017
-142.45
-106.18
169.29
-69.65
-302.22
212.3
396.55
322.69
-42.443
-345.21
-86.456
139.09
155.43
81.543
-177.85
-219.53
-73.306
176.5
-104.86
-36.963
18.642
6.3448
-122.89
-96.268
108.87
81.735
-9.3155
1.5587
85.235
54.561
-250.04
-91.745
-16.901
38.164
10.064
-101.69
220.14
140.56
114.33
-9.9233
-155.43
-12.164
144.24
-24.82
-100.8
3.03
-6.0814
-95.945
79.793
405.01
-223.61
-173.86
61.776
72.309
-19.742
-51.683
-7.0133
-55.623
46.324
-193.98
-146.28
174.03
-11.23
-30.696
69.466
182.76
142.87
-137.09
121.89
-89.416
120.3
35.67
-108.93
-192.43
-48.822
270.93
-44.411
-113.16
-82.794
-6.6195
53.868
-24.947
-51.874
28.683
18.115
-38.42
-57.518
39.97
45.629
-15.144
-47.826
50.836
46.076
-18.478
-93.997
-20.274
24.083
-5.1942
-43.814
43.12
64.744
-58.005
-72.756
-126.7
-20.345
-44.846
224.92
398.3
-161.75
-58.252
38.691
14.757
-39.486
39.044
39.851
-54.412
-13.253
59.732
18.605
-48.23
-5.0324
41.362
11.147
47.28
66.221
65.879
10.206
-147.12
-236.13
-387.49
72.854
274.72
216.62
48.474
65.187
65.813
63.141
-263.46
-245.61
-264.27
182.91
-163.47
-294.17
412.64
432.42
-177.76
-208.07
43.318
162.69
74.908
-48.416
39.178
45.06
72.005
86.265
147.77
77.816
-301.69
-239.73
130.65
206.57
-9.5404
-102.9
-112.01
-6.9155
-304.95
-113.09
182.38
346.86
165.99
-127.3
-331.62
-38.897
482.53
-58.011
-433.38
-231.19
415.32
113.55
-396.09
-101.56
332.95
293.17
-72.514
-225.68
-76.707
317.15
-60.383
-65.465
-55.136
-37.615
111.53
-59.947
-33.927
74.577
95.342
-111.64
-45.029
95.437
166.54
-25.375
-114.04
-93.737
45.507
113.34
-59.783
-10.238
-41.859
-15.627
15.211
-4.8635
-29.71
-27.964
13.578
12.118
-4.7427
7.4276
-20.124
1.7171
3.579
-6.825
-35.978
-10.24
25.658
29.398
-17.024
-47.789
-58.843
-60.282
118.08
69.092
-64.613
-9.3305
51.276
11.655
-30.239
-51.928
87.47
19.988
-25.131
-138.59
-12.17
97.002
58.007
-82.289
-74.549
-101.78
-131.56
77.148
-12.357
296.27
134.57
12.775
72.163
173.71
-58.19
-121.63
-199.05
-162.63
288.74
42.041
-269.78
-16.985
55.046
-123.59
-3.4339
-82.725
71.816
78.453
23.215
125.98
24.449
-16.891
88.857
49.576
-72.251
-17.264
27.966
20.619
68.164
133.71
-28.643
-144.29
-86.387
9.7938
29.102
-5.019
-46.498
-22.981
42.087
10.027
-36.378
-51.403
32.235
16.26
-13.654
-36.82
20.265
23.539
-2.9432
-49.67
-52.911
91.962
90.38
62.242
-18.422
-193.11
19.822
31.696
-20.32
65.432
47.448
193.94
-101.02
-207.87
13.456
-160.14
-7.3551
4.2635
290.96
-6.0028
-264.94
-77.595
130.66
-34.843
-69.988
105.48
151.36
-8.2194
-203.36
133.04
219.46
121.56
-270.11
-173.89
-54.215
29.265
97.105
-149.11
14.552
159.08
71.572
-45.186
-137.14
92.082
142.22
-8.5438
-68.348
-95.545
-39.14
88.385
-31.068
-25.744
74.172
89.849
4.505
-239.57
326.1
117.13
-274.12
-62.91
4.2511
106.25
-41.708
-48.061
20.747
-45.829
64.13
-33.989
18.785
37.294
-52.208
-101.63
21.883
73.223
-62.392
88.3
87.906
-46.264
-76.746
-24.693
98.339
32.507
-110.2
-41.153
-32.373
84.582
109.2
-34.991
-137.42
-8.5966
30.439
22.103
-0.40828
-137.85
-37.766
-68.004
-42.785
-7.4564
181.32
217.13
136.3
8.6162
-250.47
-44.016
10.356
6.7476
35.551
139.69
137.44
-132.6
-94.151
130.92
66.422
-96.569
-51.899
-54.213
21.075
80.66
-171.04
-97.886
24.932
89.44
16.935
-68.856
134.54
61.367
-60.758
24.633
138.2
-186.92
9.2903
-90.18
-29.566
142.89
-72.531
-32.227
-26.248
58.015
-100.94
162.26
59.447
-204.74
185.56
1.8325
-142.15
-66.394
-47.205
239.92
-55.224
107.88
59.839
-113.07
-76.916
-47.698
149.81
-63.384
-29.74
-63.133
19.477
15.382
-129.47
224.04
28.467
-91.097
39.288
62.886
-111.92
90.464
-29.225
-112.63
-20.869
-171.52
69.809
203.07
71.749
99.28
-130.52
-59.379
-130.46
-111.88
346.23
49.209
-28.396
-29.38
-197.47
-58.835
-36.029
111.59
-6.9593
2.8702
136.18
-110.61
89.758
65.542
-78.165
-41.243
-17.241
-48.588
38.634
4.9677
45.258
116.73
-5.952
-104.23
-198.34
35.396
255.62
-41.253
90.155
-51.336
-91.403
-88.081
40.228
-97.687
236.39
-56.297
-189.96
102.77
205.75
-138.42
-21.429
129.85
-38.82
-217.83
-67.837
288.64
40.433
-297.88
-88.429
104.97
220.83
-130.76
166.13
-99.147
37.19
94.231
100.68
-255.94
2.6062
43.59
-3.3424
29.556
23.923
-117.59
-49.353
138.65
212.67
-83.598
-210.53
44.492
34.511
24.009
-14.706
-199.25
-36.053
72.781
115.35
-41.85
-24.002
30.237
203.21
-74.323
-206.85
-10.552
11.462
68.597
-142.53
104.24
251.27
-48.021
-200.58
-144.18
76.236
218.01
-3.4623
-205.46
-89.411
93.778
44.124
108.62
19.748
-167.73
18.838
239.94
-46.994
-95.733
57.891
145.96
61.124
-51.979
-134.51
-33.623
-66.732
94.368
21.096
-143.06
-18.356
-42.258
-17.837
216.28
6.6438
-45.623
-31.012
-46.969
18.145
162.28
-166.64
-125.81
-220.43
-51.999
281.25
41.383
-110.66
67.009
71.794
36.747
140.61
57.272
-73.883
113.68
85.417
-83.473
-135.54
-47.44
-31.798
-189.68
54.438
276.57
5.3647
-183.43
39.793
311.25
143.01
-130.92
-301.51
74.654
-276.64
44.99
207.56
132.56
-64.029
-273.93
-76.486
61.625
125.61
120.79
42.034
-141.42
-87.7
47.52
-90.155
-87.43
100.37
67.998
-41.804
-102.09
54.665
-78.059
111.26
-10.103
-122.7
182.75
245.08
-31.666
-141.89
68.7
147.15
-36.842
-296.92
92.415
23.472
36.924
7.5097
212.98
-243.1
-38.971
40.732
-379.37
185.86
376.69
-62.581
-128.85
47.176
184.92
-137.71
-156.93
-217.16
22.649
115.39
126.33
-25.492
96.084
-70.688
-22.98
-187.21
80.825
154.53
-4.8309
16.907
-84.171
-106.09
65.033
399.49
-82.958
-255.9
-216.31
-16.63
312.55
75.908
178.37
-298.97
-169.41
167.3
-104.49
-91.057
-36.846
77.965
204.27
319.11
-6.368
-339.36
-110.49
45.468
55.427
7.9284
-163.36
59.463
-13.932
163.16
-158.49
-77.346
79.439
151.35
-66.995
15.484
18.225
-93.78
-9.887
68.735
-3.1812
-56.077
67.242
-24.872
45.969
12.791
-108.5
-122.33
102.22
137.28
97.093
-27.766
-280.65
88.713
172.35
-88.133
102.43
-205.23
54.977
149.53
-12.323
130.8
-21.431
-169.02
-24.986
-75.314
-1.8449
231.42
-199.94
-130.14
110.18
48.383
-167.21
-8.9605
54.073
131.23
146.42
-141.62
5.1627
-52.263
5.1865
-118.55
139.87
228.82
-131.09
36.391
-94.536
-215.12
10.192
-31.44
71.358
202.53
-202.93
110.39
-100.03
124.27
56.882
-77.141
157.01
-18.368
8.7536
-18.561
-192.26
33.291
121.72
87.454
-164.22
-113.41
-161.77
149.33
288.55
-48.419
-53.269
75.431
61.343
-71.443
-224.14
-357.79
120.36
163.08
-74.768
-21.339
132.27
127.22
-40.984
13.372
125.74
115.88
-290.58
-35.27
165.71
6.595
-58.592
55.053
42.699
7.5773
-33.181
48.607
19.582
-45.624
-46.091
42.411
34.589
-11.58
-42.071
27.225
4.6169
-43.036
-27.197
9.8428
11.868
-39.174
-36.486
37.419
43.778
9.738
-54.782
11.737
18.956
-24.014
-54.036
-0.73769
37.458
3.1239
-23.673
9.1407
142.72
-94.478
7.3488
62.109
-188.75
14.614
112.62
25.392
-109.05
79.051
154.27
-9.5161
-128.46
-24.347
68.522
-123.16
-121.44
-36.454
57.228
170.37
-90.144
-144.54
68.965
16.136
119.3
188.3
-131.81
22.341
55.467
-165.77
22.83
-79.402
52.831
-73.533
-39.282
-3.4414
62.745
79.05
-39.372
164.5
39.311
236.07
-128.19
-212.36
34.129
-16.871
-66.096
-38.563
52.91
4.5282
-32.219
-5.2896
5.6057
-36.012
-59.581
-93.871
-31.67
-99.04
179.69
93.96
-54.85
72.72
-5.1405
-80.233
-15.164
92.623
75.482
-64.648
-110.79
85.778
54.819
-8.2543
-129.65
4.5545
160.95
87.384
-75.603
-91.442
87.553
18.809
-51.125
-95.063
60.494
85.006
-7.4809
-107.61
-86.514
95.567
69.032
9.0076
-95.811
-12.725
98.899
29.474
10.395
-54.901
66.647
44.38
-31.821
-97.74
-91.233
103.26
28.96
-24.624
-125.18
-20.703
94.991
13.889
-13.933
-111.68
25.822
119.48
23.103
-63.366
-206.77
131.77
153.78
28.966
-100.95
-152.99
75.511
79.54
76.622
-138.73
-24.231
129.44
66.562
-18.129
-165.52
82.362
-62.719
-252.49
-67.693
347.47
241.88
83.894
39.49
-82.593
11.033
-11.877
10.464
-106.72
-164.2
-65.665
337.82
180.21
-84.252
-313.57
177.2
-43.575
-159.27
-84.537
136.17
-47.593
238.54
-17.565
-288.35
61.313
-34.968
46.585
-18.86
20.067
-6.6645
-53.718
-241.02
164.34
102.14
87.98
237.96
-143.64
-353.14
29.957
12.666
159.32
89.802
-171.06
-25.485
17.95
62.342
-10.32
173.74
74.825
-85.248
-138.17
140.16
139.88
-78.348
-168.38
-78.217
-26.701
-54.552
-15.188
173.43
-186.55
-6.4942
113.42
63.727
105.62
-238.07
-7.5181
218.87
-27.871
-121.57
-178.88
174.94
153.58
-15.98
100.72
3.3124
-138.06
28.571
21.097
-64.617
-20.011
-95.302
138.52
262.9
-165.3
-126.43
-152.11
173.97
114.92
-113.67
86.638
-196.68
179.1
71.237
-92.322
-107.84
-7.751
105.58
-179.53
201.05
-63.785
-236.21
68.177
26.476
102.39
1.9711
-72.576
-11.146
161.64
-16.537
40.326
-136.76
-8.3431
131.48
71.216
-132.1
-40.967
112.47
54.596
-87.358
-75.333
-116.2
103.5
30.593
-41.674
105.99
54.022
-205.33
130.07
-45.387
50.33
157.56
-220.92
-191.11
154.08
69.163
-93.112
171.66
102.2
-188.36
-51.149
51.497
44.438
-75.574
30.265
0.36441
-14.567
-35.036
53.712
-6.6572
37.346
-62.397
-1.7305
-32.351
-96.535
226.28
39.54
-91.408
-74.336
24.005
-86.309
-118.82
360.58
23.439
-68.906
-177.2
170.18
32.738
-85.747
-64.128
-32.179
-34.675
121.12
-27.032
-143.31
100.33
75.711
0.53391
-161.06
-12.989
127.62
90.709
16.918
-52.952
167.57
-245.75
-66.754
176.68
18.333
190.61
-86.806
-187.7
-184.32
189.26
23.91
-196.87
149.14
73.481
111.71
-76.136
-14.768
-91.225
17.819
-4.7909
55.662
-69.84
-194.7
129.15
437.11
-138.29
-173.74
-54.811
-147.28
122.61
25.214
-76.871
47.123
103.38
-42.04
-113.35
38.46
108.14
8.3679
-123.72
27.331
118.23
23.841
-50.066
-148.5
71.085
93.939
-52.477
-271.13
-49.476
193.19
118.56
67.326
-114.67
113.05
88.152
-38.699
-113.8
-29.741
68.568
24.764
-26.129
-100.08
90.621
82.958
15.007
-102.7
-83.839
54.549
50.317
-55.72
-38.096
59.56
-5.9738
-39.908
-124
70.041
98.651
31.525
-136.54
-80.38
-119.12
-165.18
92.553
-69.881
239.83
214.9
107.12
114.36
-1.675
-6.7147
8.6097
-180.34
41.818
-34.052
-52.093
269.72
94.31
-187.64
-110.61
62.243
18.603
-117.95
24.405
52.349
13.912
-31.737
-16.334
131.59
174.21
-40.178
-277.93
-72.317
-33.485
45.264
-15.204
-56.61
-8.9939
-7.1372
-26.811
-1.5089
44.629
5.6365
-54.447
-55.521
17.717
10.875
-25.112
-46.738
168.95
16.326
-35.448
-122.78
-48.179
55.494
82.513
-56.008
-79.721
141.01
101.29
56.583
-47.893
-36.258
98.282
63.121
-3.1655
-120
36.38
139.9
-36.412
-64.118
-102.78
29.459
58.82
27.032
-81.39
-129.19
-10.381
11.238
-2.9747
-3.1677
80.566
-101.02
99.708
183.04
-118.96
-114.02
35.63
22.089
-116.17
-5.483
-127.83
6.0639
380.39
-20.569
15.772
79.738
24.265
-162.59
-84.764
-13.609
-73.89
-99.74
-60.119
216.78
134.96
15.915
-100.85
-20.06
111.89
48.113
-23.435
-97.228
23.437
39.138
21.584
-19.919
-78.412
28.056
97.848
-75.374
-2.3944
129.74
37.143
-22.581
-84.135
146.34
-122.37
-122.63
138.32
11.919
-106.83
-91.901
19.575
-28.376
-39.219
-29.82
-68.246
70.463
42.702
-26.704
-122.84
-32.411
-111.19
-183.54
-70.693
247.08
253.3
268.37
163.57
-89.453
19.417
-213.24
-92.734
171.31
48.251
-88.154
-47.209
-97.676
64.714
153.49
-241.42
94.796
163.82
62.593
-14.773
-55.368
-158.67
111.26
4.7307
-87.573
-229.23
96.709
269.26
-197.03
21.872
-154.52
90.703
90.943
189.81
-230.62
-23.802
158.58
55.741
-4.9841
-42.497
-128.9
54.903
5.3117
-166.99
-98.128
5.3796
-23.056
-161.93
-12.704
149.22
64.433
295.56
50.465
-6.577
-106.25
-135.58
103.84
144.95
68.753
-108.42
6.73
-100.97
-229.18
91.205
100.98
63.309
-8.4541
-30.579
185.09
-53.135
-208.79
56.345
82.435
-131.85
-94.758
57.925
52.895
47.985
-50.685
46.368
105.01
45.061
-10.42
-83.176
19.748
69.19
28.026
-82.292
-60.554
39.084
2.3801
-26.652
-59.934
27.843
41.655
-6.9197
-73.324
-46.817
-87.908
-39.031
45.755
-166.32
-199.87
139.06
374.24
-30.14
31.398
50.929
173.1
19.779
-360.42
27.96
21.285
63.817
-129.77
102.61
32.013
31.694
9.3383
57.083
-82.355
57.733
-1.2368
-51.663
87.266
92.249
-14.614
-76.301
27.814
10.378
-38.166
-45.381
14.142
47.333
29.731
-65.363
-24.055
-5.2685
-23.839
-36.588
-10.084
32.1
24.163
-4.2784
-20.005
73.382
32.361
-161.2
-79.839
47.566
94.272
103.04
152.71
-146.09
-195.43
-3.1413
398.21
-22.607
-239.73
169.79
93.236
-204.59
-146.2
-80.766
-16.844
-120.95
-373.53
87.059
257.72
108.93
73.205
-78.718
118.33
-154.5
282
121.46
-188.75
118.25
20.652
-41.931
-108.32
-112.39
93.637
65.56
1.9968
-78.746
65.75
51.128
166.67
87.744
-204.93
-206.11
25.024
-12.635
-115.35
84.164
61.054
34.729
-30.728
-58.071
45.836
38.78
70.428
-15.811
-146.88
-25.534
57.944
98.606
19.345
-39.575
-50.291
-36.84
10.328
141.75
-7.8597
-67.622
-95.066
21.961
212.63
-111.47
-122.19
-175.65
195.89
115.91
-132.6
-31.024
291.47
-132.06
134.21
-79.521
-131.17
70.809
-20.897
24.782
-87.303
182.39
-151.27
-58.291
-55.256
164.5
19.221
-67.072
-100.35
29.921
294.25
-249.15
59.119
7.3615
-4.2924
-9.9826
44.063
-149.25
-5.4736
99.814
-58.694
-6.0055
-182.16
244
134.49
-345.11
-223.9
265
207.13
143.19
190.61
-390.94
-10.8
35.03
-94.237
28.619
-18.16
-79.31
-56.784
131.36
184.99
-14.979
22.353
-131.93
77.047
-12.867
-62.824
9.0342
-44.653
51.605
69.227
1.0477
15.235
-162.44
69.482
209.32
-22.939
-291.52
-83.132
-143.45
312.56
189.22
82.972
-14.033
-382.52
198.36
103.63
-33.638
-34.544
-11.837
12.761
-150.38
-138.64
195.83
-150.63
37.351
436.39
-40.189
-424.55
-15.544
177.95
-95.714
185.16
-77.024
-86.33
65.4
-103.05
39.311
16.24
-52.554
-62.662
-181.94
173.51
179.01
151.49
-25.852
133.47
123.04
-275.86
-28.802
-156.22
45.178
-32.984
6.596
60.44
-191.46
16.321
44.892
-27.766
66.445
16.514
63.123
-23.915
37.452
-57.578
-207.55
7.5413
314.08
7.5277
-123.62
-26.36
55.711
-11.745
-118
-26.106
294.62
100.3
-215.92
-163.04
143.46
254.83
2.9431
-108.24
-57.241
-157.17
-63.235
73.422
128.08
147.13
-134.18
-18.606
219.98
-82.671
-173.89
18.679
-17.157
29.654
28.759
48.266
-257.84
79.441
11.735
-106.73
238.42
-42.367
80.223
-128.79
-225.5
140.5
23.242
-0.18912
167.36
-106.09
-18.477
-107
130.83
-35.479
-109.58
40.411
-9.1833
77.515
236.43
85.695
-209.31
-145.9
223.93
154.07
-228.01
-151.11
20.165
80.635
-215
-76.413
58.06
352.83
179.96
-267.28
-28.232
-26.289
-191.27
138.27
87.28
-36.223
17.408
-33.891
-125.03
-44.071
54.621
18.76
189.46
-137.46
2.8434
103.84
32.369
-266.96
-3.8743
220.29
-26.915
-41.555
-51.823
-11.381
98.837
172.15
-148
72.704
-11.048
-57.628
8.8768
-135.5
114.95
-18.704
9.1472
207.1
-168.58
-188.47
139.61
-86.142
35.647
103.84
43.826
-114.07
-53.468
89.84
85.763
-172.83
56.112
64.697
-48.174
-60.431
-140.18
52.714
-17.549
307
-63.721
-193.06
139.97
70.504
15.476
-184.84
5.2198
107.77
25.89
-65.188
-20.566
-348.03
115.67
276.29
52.877
-26.525
-80.55
38.549
20.743
-114.85
-34.204
73.969
143.33
-15.913
-113.45
-83.262
-23.597
-142.66
225.29
111.19
332.66
411.47
-197.89
-239.76
-496.17
-291.88
229.62
119.16
-46.63
36.054
19.895
25.016
10.902
71.181
112.11
-48.821
-110.31
33.309
0.034509
-97.567
17.909
71.001
-68.687
44.154
123.12
-63.572
-243.47
-1.6569
118.65
75.426
179.72
54.634
-142.06
-70.332
35.057
-71.227
-3.467
57.413
-12.19
-40.144
-0.74245
1.4347
-21.276
15.129
-0.5782
-10.823
15.55
-7.058
-25.465
20.055
0.45675
-23.555
24.351
9.8236
-23.686
21.291
25.868
-15.242
-16.582
25.535
13.755
-18.755
-17.913
28.208
12.092
-6.3074
-26.597
13.933
14.226
0.5884
-29.34
4.435
21.29
4.543
-36.102
-13.164
25.82
6.8732
-18.54
-39.269
34.374
22.647
28.091
9.674
200.91
37.473
-204.29
13.082
148.96
29.724
-204.12
-117.15
185.81
231.88
-301.59
-376.38
54.259
53.555
15.653
-21.948
-43.789
49.555
48.077
-108.04
94.947
89.056
103.59
-11.799
-175.76
9.9776
75.059
-18.45
55.323
74.127
23.06
-43.809
-6.8247
38.098
7.558
-35.168
15.529
26.113
-10.829
-35.428
19.13
25.919
-4.3996
-25.1
11.985
15.718
-7.843
-7.6469
16.425
11.049
-0.7336
-29.112
5.5238
7.882
-8.002
-16.09
13.972
13.335
1.9672
-20.113
-9.8117
9.4751
5.9084
-8.5507
-15.758
11.108
6.6468
5.8633
-11.615
-14.775
10.91
3.7899
-10.961
-24.917
20.323
16.238
4.2764
-7.5863
-23.772
10.777
8.6087
3.1003
-23.257
-6.6895
21.758
9.3026
-2.2785
-18.662
12.156
14.285
-1.2425
-13.718
-16.242
13.621
18.338
0.51335
-27.951
5.7069
13.985
-4.6693
-21.017
-2.58
15.651
3.159
0.93826
-12.489
9.9477
17.821
-3.5035
-12.973
-15.204
1.242
15.152
-3.2393
21.89
45.146
304.4
258.51
-15.625
-39.735
-94.83
-267.98
-223.03
-118.28
-22.308
-43.295
-108.18
-41.171
4.5874
15.164
162.08
59.351
-298.8
-171.48
261.11
240.66
-139.54
-127.27
78.103
91.119
-21.519
6.2704
85.228
-11.474
-22.129
12.197
111.47
64.248
-13.65
-46.204
26.402
42.966
2.8105
-40.206
13.6
33.776
1.3867
-35.994
-38.397
11.662
81.994
-102.11
12.659
77.062
23.535
130.37
211.92
94.475
-7.0203
-303.9
-449.43
-278.91
261.1
208.7
38.545
-45.278
-11.89
275.96
13.342
-204.91
-319.51
-40.804
260.45
-187.59
79.024
150.53
74.429
27.599
-46.427
-52.198
-24.991
12.295
-62.599
4.7284
60.621
-54.314
-17.479
42.649
-22.918
-51.544
21.966
60.328
6.8269
-35.928
33.576
23.808
-29.039
-7.0863
29.418
14.499
-25.766
9.4019
28.689
-11.697
-32.124
28.398
7.7544
-82.996
-21.571
30.806
-3.2881
-53.413
13.97
52.715
24.346
-64.336
20.691
58.252
21.108
-66.416
-0.75487
59.93
28.232
-67.241
-21.955
72.756
35.973
-48.599
-74.22
66.615
59.45
22.312
-67.435
-4.5121
69.187
36.602
-54.809
-59.101
37.476
29.181
18.584
-56.231
-53.094
32.086
31.951
8.1623
-40.091
-20.961
-34.765
18.627
-9.0627
-66.185
7.9976
17.861
33.271
60.116
11.64
76.636
132.66
44.139
-230.74
-121.14
21.595
46.779
-55.199
-115.39
36.107
95.294
104.5
80.016
-45.004
-127.85
16.942
11.313
34.359
85.198
-7.8597
28.868
10.995
15.526
6.4089
-24.401
9.2418
-30.169
-79.491
-40.429
39.624
30.803
-36.113
-14.596
-11.499
-96.503
-17.352
-0.35779
44.542
-13.603
-38.347
62.668
56.765
32.3
0.76972
-36.051
-11.608
-45.794
-128
164.3
75.404
105.46
34.801
-80.333
-68.821
-39.831
-3.7689
-6.337
-46.468
-68.305
114.04
109.2
-13.744
-18.623
-18.11
-13.493
-19.444
-40.757
-8.068
43.989
12.262
-36.716
-59.534
18.399
65.521
139.14
45.865
-55.697
-79.324
-67.668
-73.708
5.4368
-108.22
-126.01
124.06
47.55
51.392
113.02
-43.035
-41.099
111.75
27.477
-188.34
-182.84
-14.948
93.925
130.54
-10.265
-7.2975
111.99
73.417
-12.235
-106.18
66.024
67.582
-23.184
-73.558
51.287
44.699
-35.77
-81.606
71.954
52.817
-7.5254
-66.619
-7.4832
42.352
11.923
-10.115
6.9256
-21.934
-21.311
29.977
20.769
-29.347
-42.187
15.838
18.794
-48.789
-10.901
32.635
19.708
-63.251
-2.9705
42.982
10.119
-44.849
1.0354
50.793
8.1875
-41.47
-27.01
55.84
36.949
-26.665
-48.635
47.857
27.034
-0.24618
-52.371
-26.318
51.776
20.159
-9.6609
-54.319
4.6461
46.167
21.975
-23.777
-50.144
0.17055
17.223
13.605
-15.855
-23.807
32.536
24.262
1.2795
-22.858
-25.237
16.824
18.629
0.43956
-37.746
10.134
6.0949
-9.7409
-16.307
-25.766
35.996
46.363
-7.6592
-59.525
6.0864
33.546
12.396
-49.45
-3.7519
37.927
14.034
-6.5587
-39.009
19.022
50.566
16.341
-50.882
-22.02
28.663
-5.8356
-21.302
-40.736
34.075
56.262
-5.3662
-1.311
-58.35
-10.364
49.61
5.4626
-16.763
-42.454
14.651
27.701
-1.5482
-3.8588
-9.4959
22.015
6.8028
-24.531
-23.991
4.8627
21.075
17.197
-1.2029
-36.519
17.394
7.6701
7.2052
47.089
-60.298
-27.115
25.537
5.0325
-34.837
-30.108
65.492
49.466
-15.32
-51.077
-3.677
39.868
15.81
-29.835
-25.653
18.848
32.454
-3.3726
-16.744
-36.347
3.2508
32.042
49.777
-27.51
-48.63
12.99
-14.421
17.413
-20.041
8.9857
22.101
-13.842
-5.6103
-11.667
30.083
13.318
-11.396
-44.689
-7.2814
58.525
19.986
-21.068
-74.443
24.235
46.479
10.949
-23.853
-53.318
30.699
35.027
14.466
-21.605
-12.953
43.964
-11.384
-12.078
-55.006
11.416
53.758
21.199
-8.8497
-64.159
5.4201
46.56
16.948
-49.896
-18.781
34.827
0.99949
-16.249
-23.279
7.24
42.92
7.2084
-27.011
-17.682
22.458
-0.59358
7.1067
-25.349
-31.277
34.276
17.653
-1.6873
-31.064
1.0838
33.109
11.392
-2.8553
-30.64
1.93
22.826
20.896
-21.038
-34.744
16.72
24.341
4.5591
-31.56
-5.7493
32.855
20.207
-11.378
-43.024
18.232
16.459
-30.173
-23.281
20.721
41.973
-16.812
-17.107
-14.926
3.3957
36.797
9.963
-30.426
-16.432
11.774
15.974
-24.415
-29.371
40.643
28.951
-6.0926
-49.023
13.797
31.392
3.581
-45.096
7.6453
36.92
19.056
-32.448
-24.056
34.903
43.855
-2.8015
-88.501
-2.3643
64.725
1.313
-47.007
-10.896
24.956
41.404
-22.899
-61.34
24.744
44.732
-4.8192
-34.488
-19.747
33.617
-5.4995
-2.2162
-95.42
259.24
196.27
-211.25
-91.737
94.512
139.4
77.854
-152.49
-340.44
60.368
55.309
120.16
-155.51
-131.96
50.031
29.318
50.13
-34.282
-55.628
-49.023
25.712
83.375
20.008
-22.248
-59.3
28.744
116.15
12.413
-157.78
-26.131
135.19
24.361
-47.571
-219.02
132.88
14.097
41.102
-85.522
-67.853
398.26
248.55
-123.45
-121.7
282.42
-169.71
-173.5
-11.414
-18.421
-84.963
-105.36
-16.594
15.657
24.633
-119.29
10.226
69.916
22.707
97.348
96.005
-310.3
-38.085
6.8807
-143.64
103.07
120.68
62.708
13.379
26.71
200.96
130.85
-148.38
-102.63
104.02
91.749
-105.2
-34.087
37.43
132.62
-24.643
-141.27
103.14
-53.979
57.479
206.05
-212.38
-111.04
83.623
-49.284
-38.296
-89.704
-89.449
131.93
57.017
-129.44
42.732
-84.652
-225.68
-71.218
175.47
33.01
-52.608
112.22
135.01
108.72
67.643
15.456
114.42
114.18
29.633
-122.2
-360.13
-61.564
95.651
-1.5037
-90.473
3.6511
0.76019
-14.472
31.353
-42.166
-18.427
-74.357
-241.52
84.637
186.47
63.748
58.602
30.577
16.494
12.532
24.773
86.528
44.75
68.162
-101.95
22.437
77.493
-97.802
-62.367
-181.12
153.21
276.04
-39.315
-151.94
-51.907
-18.404
-525.57
54.458
553.14
-13.638
-190.14
65.888
7.8516
-26.911
37.979
12.331
-19.416
-60.436
28.815
49.54
15.587
-41.104
-23.88
46.281
20.381
3.2018
-40.376
-15.426
30.34
11.832
-1.283
-31.326
2.4143
21.451
0.041462
-16.746
-31.107
33.269
25.979
2.0992
-37.66
-25.135
19.971
13.941
6.6487
-42.451
18.553
23.868
1.8461
-37.173
-35.879
54.464
36.855
17.226
-32.34
-33.665
45.479
32.347
4.0805
-28.424
-36.876
22.105
22.302
17.868
-9.2628
-43.802
4.6746
7.6547
-5.0467
-20.313
-13.151
27.696
6.6666
14.937
-38.679
-20.041
34.995
9.8051
-2.1311
-46.078
14.457
12.534
8.5479
-37.23
-24.818
53.929
14.762
2.3366
-29.27
-14.994
48.406
22.098
-1.6322
-41.548
21.871
25.246
2.5781
-31.792
-12.608
32.961
11.514
-5.8769
-51.349
11.504
29.085
9.9997
-31.378
-4.0669
19.72
3.0574
-31.345
-6.8683
31.427
8.0965
-6.3653
-35.874
16.442
19.85
-6.173
-27.6
-5.8752
26.23
15.798
-10.054
-29.834
13.033
45.676
10.464
-92.377
340.86
57.303
-144.65
-91.729
-45.958
44.41
39.236
-148.79
-62.664
-47.986
-4.1147
15.648
75.914
37.551
185.45
-252.46
-81.461
123.96
15.702
-12.902
-213.96
53.564
88.61
21.676
-41.322
-7.4634
-21.887
38.953
-106.75
58.309
70.631
-82.678
-46.27
44.492
68.772
7.7824
-33.193
-93.951
93.46
64.214
-63.923
-129.37
-67.82
164.27
75.303
-57.241
-115.88
78.759
71.65
-15.8
105.71
161.3
63.862
-62.658
-40.913
-18.661
-112.62
-131.37
-6.9975
162.23
71.835
-42.302
17.425
34.87
-15.462
23.359
197.5
-26.668
-28.118
178.08
-48.096
-82.861
38.276
-192.99
-87.035
-78.274
-54.042
8.6347
-31.317
-166.32
15.097
107.58
49.763
-11.167
-49.572
40.329
-49.383
-86.235
-101.04
48.167
235.74
-25.614
5.0282
123.87
-31.686
-101.75
141.13
45.351
-110.23
-55.216
57.185
-9.4694
-40.537
41.532
26.122
-28.714
8.7962
71.169
-29.595
11.798
238.89
182.38
91.838
-0.42926
-100.34
-289.44
-201.81
-25.188
-33.386
34.822
-5.9678
-19.103
22.461
-24.929
-35.087
13.065
19.684
-28.361
-168.86
-53.425
107.8
40.437
-38.91
-198.8
89.964
173.6
96.738
-66.163
-2.1019
131.75
75.91
-59.364
-12.793
109.54
59.281
-48.003
-68.183
57.497
34.158
-58.967
-31.841
58.903
29.927
-44.066
-58.996
43.711
14.191
-29.344
-84.865
21.618
51.181
4.4965
-10.121
4.4139
39.518
155.56
-8.5076
-83.231
-87.694
-93.483
242.68
68.516
-584.18
-40.937
209.14
185.54
66.36
-165.61
-45.738
39.482
-1.1801
121.21
94.605
-125.48
-93.086
-135.17
-87.572
143.4
-58.217
145.66
162.33
77.317
-26.187
-81.633
-63.995
-0.40305
-16.311
-90.037
12.987
57.066
154.56
-197.36
-171.98
173.39
170.59
-76.124
-198.52
46.332
42.139
43.595
4.6182
152.51
-94.634
-55.096
-96.274
97.372
46.098
-24.818
-94.213
64.731
125.51
-71.194
45.127
-15.672
49.376
-150.01
-101.61
105.93
126.9
-49.869
-200.82
128.51
154.49
28.152
-73.518
-104.54
55.06
51.04
-38.911
-69.17
45.765
42.888
-50.416
-37.984
104.65
75.78
-24.231
-90.926
-6.5376
44.164
-46.208
-83.448
26.557
51.65
1.3888
-54.915
24.287
26.405
-8.6362
-84.908
-48.484
-206.75
-102.99
164.23
145.83
100.03
26.606
-33.404
22.844
58.297
-0.7762
-6.6052
38.843
6.287
-17.227
19.505
12.843
-26.883
-0.013784
23.351
-16.118
-9.5795
20.792
-9.066
-16.186
17.858
7.6456
-23.041
-2.4678
12.967
-7.2808
-18.123
3.4387
-0.14932
-6.2889
-7.8418
39.604
46.625
253.34
40.467
-93.386
-13.838
21.183
30.318
-334.44
-144.38
71.478
89.12
-227.31
18.426
87.984
-48.789
-68.696
2.5953
33.192
-50.401
-14.424
18.623
-74.371
69.949
11.442
115.96
82.183
-164.29
230.65
93.775
-40.187
-76.689
-10.462
22.039
-20.794
-6.1977
70.433
-0.62368
-80.4
-50.332
23.601
27.493
-4.039
-34.044
24.937
-13.84
-154.66
44.371
128.02
-43.274
-0.51313
-27.067
26.749
68.026
-141.42
31.098
-31.063
-11.002
-11.943
-100.01
8.4285
224.91
98.921
-36.859
-56.507
111.74
95.275
43.537
128.82
76.025
-228.27
-219.2
125.16
72.423
-388.04
-341.29
331.22
36.275
-24.365
64.166
29.094
-66.047
-1.8649
199.64
35.978
-68.793
119.43
-48.022
-94.993
-140.71
-36.119
60.103
6.9423
162.33
4.4744
39.74
-142.09
46.355
7.5782
-43.165
-10.084
-47.748
33.291
51.924
57.04
-9.284
-60.372
31.937
-14.829
-89.028
37.568
116.3
-24.689
6.3218
-70.554
27.126
72.087
21.905
-51.139
-59.348
-55.035
22.693
45.434
-14.983
-2.6239
21.754
0.61665
-27.27
3.656
22.918
44.892
-3.3418
6.346
67.701
-105.54
-31.902
-55.404
2.483
69.278
-25.867
-55.865
-19.901
36.36
34.42
-11.089
-12.384
52.586
4.7075
45.31
-30.99
-14.28
48.545
33.411
-54.824
-99.296
45.972
-15.443
44.409
-23.627
-19.887
10.969
20
-22.325
-7.4636
96.262
62.749
-10.864
-78.049
-54.345
20.971
57.131
14.569
-53.869
-27.986
-8.6893
26.705
5.6449
-23.186
-22.679
29.658
33.916
2.4147
-3.2496
-32.479
41.382
15.393
-36.952
-32.769
12.228
-35.439
-15.51
100.27
-35.228
-88.495
28.12
41.583
-11.593
15.558
-22.367
-45.602
123.6
39.916
-87.101
38.783
-44.715
-44.45
9.8048
17.628
-14.415
-42.454
72.215
-11.625
-38.985
71.919
9.3673
33.22
-44.871
-36.38
-69.576
34.109
49.471
-18.779
70.901
-9.28
6.1359
-72.698
-126.03
61.911
162.44
8.3587
-32.967
65.745
0.61282
-61.871
-43.434
-38.398
31.026
-27.537
40.154
52.871
43.994
15.707
-63.544
-53.643
-37.948
11.274
26.049
62.133
-2.3399
0.81157
50.275
-55.494
-47.71
-18.243
20.338
30.269
-86.953
-29.076
82.563
58.584
-31.428
-78.15
1.5965
25.279
17.5
-57.807
6.4422
101.71
60.443
-10.209
-56.061
-35.384
-0.65042
22.683
-73.169
-69.046
89.358
82.796
-38.943
-150.91
-9.0992
100.19
80.879
6.5245
-23.441
51.027
25.839
-32.441
-85.223
-12.106
128.83
-65.955
-139.34
19.645
98.727
-6.9598
-32.184
-100.19
121.91
115.82
-101.47
-121.62
-60.816
91.323
68.627
-150.3
-17.672
79.403
96.038
20.682
-73.177
41.805
200.57
-63.573
-32.557
78.759
-10.372
-110.93
-19.483
24.766
-76.473
25.542
-68.926
106.44
93.141
-76.247
-74.095
18.959
-54.052
3.4178
14.869
44.733
152.79
-98.69
-134.27
31.302
142.01
25.363
-136.77
-103.22
9.4928
57.96
37.88
24.636
5.967
109.7
-136.36
-221.89
22.694
47.388
43.452
11.523
-16.977
98.147
-41.381
-80.15
86.553
78.124
-72.11
-30.861
92.835
26.26
-12.871
55.328
-127.8
-26.834
58.213
-86.257
-5.6014
153.84
149.8
69.658
26.254
-23.134
-82.227
-15.222
-30.904
-24.106
-76.953
-93.679
-22.548
-51.399
49.268
16.982
6.9529
-2.2243
24.365
42.152
4.9133
-3.2023
17.402
-25.973
-110.59
1.1732
43.448
1.0834
52.276
-50.738
38.957
31.449
-67.712
-57.095
45.257
8.7514
7.8671
-78.066
38.554
97.073
29.892
41.701
-112.76
-34.145
43.406
-52.237
-1.2209
-29.524
29.976
79.442
-187.03
-10.29
321.61
-3.9592
-17.07
-56.993
-73.146
50.038
30.54
-33.712
-30.506
68.164
25.527
-24.157
-53.668
37.207
20.293
-29.091
-40.244
60.855
14.909
-20.251
-40.394
-30.629
141.69
102.97
-97.327
-103.42
50.489
205.82
-110.69
-20.391
12.945
-88.695
-96.182
-17.211
85.44
5.2343
-39.318
-48.794
-2.308
48.977
-78.747
-116.08
-191.36
-23.474
115.42
-28.478
-241.95
-41.366
352.09
295.14
12.474
59.33
62.03
13.669
-66.684
-56.614
60.232
31.989
-11.571
-78.414
-16.578
-69.234
-128.68
148.15
-14.216
76.006
256.62
50.474
-212.75
-263.63
9.1743
187.94
-63.259
-233.36
186.55
154.96
-56.542
-90.528
-9.6918
51.97
-12.511
-42.149
-74.393
41.024
70.277
1.6577
-43.412
-20.107
28.52
25.685
4.2105
-21.724
-71.332
165.64
161.16
-188.67
-48.626
-256.82
172.39
-47.037
-144.7
-46.882
263
103.95
96.682
115.98
224.18
-211.18
-162.22
-74.598
-4.2963
7.1835
8.0548
8.1411
-26.878
-106.27
-196.91
32.49
190.44
63.451
-35.924
93.384
11.546
-27.752
-20.531
-40.575
-77.275
-46.517
48.96
-42.242
-108.94
24.671
51.914
98.16
117.81
41.283
-105.63
-103.44
45.673
54.099
32.296
-22.504
-78.599
7.8603
-17.148
12.471
51.161
-76.726
54.458
124.29
-55.096
-0.5987
15.748
-71.076
31.155
21.926
2.7301
-66.979
-89.982
-53.749
131.75
34.329
-15.528
52.46
75.136
-159.91
46.126
24.722
-132.2
4.4373
110.25
-44.367
52.542
19.888
54.75
24.089
-2.0789
-75.64
-69.671
51.139
19.926
-29.355
-166.55
30.75
169.49
62.194
84.202
-74.853
-158.95
-55.221
80.582
-8.4879
93.841
44.319
-35.806
2.4697
-2.0875
-37.044
-85.762
13.765
10.791
-64.171
-29.91
-18.215
69.196
239.06
37.345
-140.27
-97.312
45.462
-18.205
-86.091
8.9674
70.026
140.59
8.1112
-66.048
-113.01
-37.449
107.53
26.448
-71.895
125.25
8.3332
-20.939
-7.8931
-13.049
-62.854
-55.504
50.343
25.1
-25.102
-137.18
13.597
73.778
155.55
49.803
-107.81
-35.655
15.001
4.8315
-48.242
-123.52
33.347
35.492
136.08
35.661
-68.977
-6.0774
0.51618
18.612
-24.803
-64.878
0.83495
42.074
14.397
-22.733
-83.154
44.533
71.946
-100.88
107.58
49.372
-25.86
-37.593
-106.72
60.26
24.879
42.871
4.8558
-32.215
-162.6
73.966
69.167
5.0346
95.369
-45.4
-13.531
2.5839
41.167
-47.784
-28.545
-12.283
69.126
-25.174
-187.88
52.969
178.95
25.164
-49.403
-7.0163
28.796
-28.91
-25.892
-62.481
-25.266
42.158
-72.736
-47.219
-161.77
-84.662
244.59
196.06
-33.125
-195.48
-4.5469
103.96
83.348
35.659
19.403
-28.399
-6.7288
-15.35
-24.022
60.382
52.484
-7.9681
-67.376
157.92
222.05
-13.857
-130.46
11.493
-116.79
45.413
-99.582
-62.09
42.89
-8.4984
-63.037
-52.276
203.57
-35.008
-217.4
4.7577
181.05
225.37
-295.43
132.71
34.836
-266.58
-222.79
-117.13
68.774
217.38
156.95
-188.21
-64.604
-153.04
332.41
206.09
-82.147
13.56
-42.198
32.511
5.9129
-48.756
13.171
168.69
113.75
-229.51
-200.05
0.50417
-62.174
-80.777
379.03
-6.6452
-129.41
169.05
158.96
-124.14
-4.1598
-122.15
-268.66
-102.96
118.52
-6.8316
-8.1012
44.053
-5.9294
2.1118
239.73
23.707
116.59
-53.659
-112.85
-98.704
-75.514
35.696
30.648
-47.976
-51.15
4.7472
-38.2
51.992
33.37
157.32
148.26
98.938
-298.5
-278.02
321.19
67.769
-55.026
224.01
84.556
-538.08
-49.802
507.52
-86.776
-298.87
-101.58
267.57
158.08
4.4379
-5.2575
-190.69
-106.56
154.37
-23.868
-102.66
10.89
-107.57
-36.991
72.11
-62.227
53.138
33.169
-152.35
-142.23
159.74
109.11
60.892
-56.377
63.206
47.888
-66.818
66.568
34.571
173.23
177.95
-104.58
-266.01
-171.43
-58.773
242.78
53.803
-110.11
45.493
39.213
61.596
-42.544
-44.673
-10.549
-65.867
-40.982
45.692
11.467
-43.667
4.9108
37.762
-36.436
-12.261
236.56
-22.982
-266.58
-43.445
-82.952
3.6769
101.29
147.41
-6.6319
13.713
177.23
-170.3
-57.031
89.31
-84.093
-393.93
291.34
16.099
-65.777
162.78
30.673
63.883
3.6568
-21.41
-1.5219
-51.794
24.275
-12.514
-32.283
33.359
20.273
-87.779
8.4254
198.27
-213.44
121.78
57.431
-238.64
10.994
84.737
29.247
-50.846
-35.03
54.608
28.913
7.3153
-76.095
-14.459
69.923
40.418
-14.493
-85.106
42.284
35.338
30.186
-41.113
-50.759
57.689
54.583
-1.4646
59.922
171.4
-123.26
-60.875
154.37
-7.6578
-194.09
1.5957
0.663
-92.953
103.69
72.627
-224
-11.901
-68.755
166.38
60.949
-77.888
-20.546
-111.72
77.206
-158.58
108.12
-34.218
51.066
54.362
91.922
33.92
-7.4145
-29.276
-156.57
52.219
44.641
-18.251
26.806
-7.5553
75.065
58.969
-13.804
-79.832
-19.505
40.886
-119.68
-38.682
-1.3965
74.792
226.3
-82.18
-117.83
-211.45
127.56
215.86
-90.173
-99.142
34.854
69.085
-48.891
-216.83
82.1
150.4
2.5532
12.684
-115.43
116.68
-115.52
-69.053
88.647
47.385
-139.3
94.222
178.5
20.157
-17.84
-62.615
-53.536
86.615
-69.307
-115.71
25.164
102.62
39.16
77.855
-133.57
-26.571
2.7125
57.392
92.101
-47.426
-76.247
79.557
-20.046
-43.838
-40.692
-144.7
76.741
22.462
-12.164
210.02
-16.487
-117.37
17.484
25.345
20.558
-186.81
-20.913
57.754
41.96
53.043
-37.302
20.03
65.493
-126.65
108.49
71.161
-131.38
5.1186
70.737
-92.736
-34.592
-1.4529
8.6945
54.726
65.182
-43.701
-112.02
45.376
53.402
122.76
77.671
-143.73
-120.35
-86.832
6.8865
124.89
125.79
-67.277
-187.52
169.08
124.92
-120.74
16.513
-86.57
-176.22
57.712
141.8
67.107
108.52
-15.516
-180.97
152.83
175.31
-179.68
-363.42
5.7571
221.6
67.674
-36.746
-93.057
-150.9
98.331
97.537
94.359
37.157
-91.074
67.967
-9.1397
-33.618
95.546
0.35962
-148.43
6.6863
112.68
30.592
41.339
-53.709
72.513
-66.583
-56.992
-109.01
9.0751
34.091
9.3224
52.858
59.466
-52.213
-163.71
36.41
80.42
35.133
-101.46
28.597
91.667
20.201
-57.06
-144.06
-53.297
91.072
104.15
47.552
-3.1024
-95.032
-63.978
50.462
92.704
-62.592
-50.298
39.817
-19.214
38.102
25.389
-80.101
-24.409
77.531
-19.661
-127.49
-98.998
-2.1926
109.35
179.35
30.568
51.763
-45.324
-11.727
-62.066
-34.204
34.195
107.06
23.093
-75.579
52.383
-39.329
-42.545
30.93
74.828
-45.08
2.6948
-33.827
-141.41
79.923
93.276
-113.71
-17.274
-20.848
0.84233
114.02
47.084
-108.05
-141.75
19.245
45.697
112.06
-70.653
-25.502
46.075
76.867
4.3061
-14.145
-113.13
58.134
-116.58
126.3
238.53
-55.909
-147.87
-76.748
64.183
18.675
-127.45
3.5565
128.57
95.958
126.39
-50.356
-157.48
-194.31
27.399
3.2777
-12.137
-23.055
66.574
6.447
60.983
-70.742
3.6342
38.012
10.706
7.4039
6.6581
34.098
152.55
-5.1782
-71.313
-100.9
-55.537
113.33
-16.11
-32.236
-35.436
-76.132
59.766
-26.97
-67.403
-24.558
-77.754
24.792
151.94
84.415
78.531
51.845
-104.75
41.373
70.821
-115.56
-8.8034
-52.404
32.235
29.006
-7.2874
-74.149
7.9107
50.773
22.056
0.73394
-48.793
-41.597
-68.266
51.305
151.77
83.699
-174.95
27.122
138.96
-119.28
-184.49
-65.089
296.6
92.063
-65.917
-61.931
-218.57
151.83
140.84
-104.1
-44.288
2.7729
62.873
96.064
-95.137
-8.4882
-121.02
-15.751
-29.007
73.597
99.878
-31.993
-90.49
147.61
132.27
-17.287
3.493
-131.31
-68.989
-35.558
-40.297
66.314
-21.907
48.137
16.606
112.06
-18.201
-242.3
-19.885
45.691
43.316
182.99
-53.486
-26.719
-64.875
12.897
43.742
-65.444
-143.79
196.27
4.664
17.893
11.003
-23.485
-109.87
84.7
39.061
-28.407
86.387
-52.057
-67.292
108.68
-36.22
-169.53
-73.452
37.776
174.68
150.58
-110.52
-151.57
-31.165
-14.558
101.27
131.82
-2.5348
-9.089
-44.108
-71.575
-37.032
-0.73928
-85.33
33.409
145.98
17.898
-113.62
49.57
-39.339
-77.27
150.73
110.8
-132.33
-215.43
153.13
94.49
41.902
-84.698
-52.782
204.25
48.42
-108.68
-40.925
-94.147
-108.82
105.81
52.973
6.6164
38.125
-57.385
91.042
11.109
-104.44
-101.76
-150.58
75.961
232.28
38.323
-64.639
-70.601
61.112
49.865
56.005
-32.139
