79.48
-58.28
-230.62
289.76
67.718
-211.23
-195.93
-27.989
-206.01
-10.039
51.768
34.227
-33.184
-90.405
-51.728
36.157
-133.12
-178.43
170.73
223.69
6.9382
8.7376
135.45
66.834
-71.639
-87.864
45.818
66.198
-24.24
-27.556
63.421
29.967
-53.593
-23.014
61.775
26.838
-50.193
-24.562
53.012
4.9946
0.41214
18.642
-59.906
-14.133
-56.216
20.824
39.534
11.546
-52.735
-4.9485
29.814
15.138
-48.169
-25.135
46.531
30.507
-22.715
-66.726
45.603
52.593
27.779
-78.467
-26.91
61.533
38.948
-16.258
-62.875
42.477
52.53
20.64
-70.004
-17.875
59.631
25.957
-16.179
-70.126
29.454
45.529
19.692
-48.448
-18.546
44.461
15.92
-15.552
-62.726
19.918
28.926
4.3485
-42.91
-20.399
40.123
25.021
-13.992
-49.925
28.554
26.58
6.0978
-53.732
-22.812
37.925
17.728
-12.011
-50.966
30.929
37.303
15.235
-52.709
-16.635
45.734
22.781
-15.922
-60.905
28.043
42.019
26.801
-37.423
-20.085
39.865
18.473
-20.336
-49.821
22.265
10.9
1.0635
-28.827
21.025
31.065
-28.942
-49.76
-15.934
50.975
76.7
-37.263
-110.84
18.437
14.033
8.5282
-55.244
1.7298
52.966
25.517
-38.48
-11.464
61.099
30.078
-23.861
-87.922
18.901
36.954
11.894
-44.876
20.738
49.904
15.191
-52.6
-33.47
40.771
24.663
-15.225
-66.797
19.606
52.829
34.244
-61.558
15.587
48.995
40.256
-37.93
-30.91
0.12979
21.473
-65.216
-119.85
346.07
317.84
-69.801
-177.59
-118.46
-74.838
-170.31
95.278
-49.958
-236.76
-68.018
16.308
198.37
196
-207.9
-146.46
359.63
72.633
-124.13
-62.329
34.021
35.339
-16.988
21.532
-299.68
12.27
182.72
48.733
44.889
24.956
-34.794
65.309
-46.574
-143.25
209.43
18.699
-111.51
-181.86
91.577
98.908
-17.302
-305.81
-42.181
-73.895
249.04
165.28
-40.073
43.266
84.053
-50.391
68.955
77.316
-165.02
-129.24
138.85
96.616
-3.1517
-12.428
-75.679
7.7702
62.411
161.23
-202.29
82.928
-45.394
-38.824
-22.211
20.749
-14.818
8.2794
-29.968
21.373
39.618
-6.7864
-9.8549
-2.0636
-26.481
-108.97
-83.208
116.01
115.11
24.035
-114.43
-73.459
-6.5431
102.67
54.119
-78.812
-16.741
-9.5058
-37.513
-52.656
142.67
6.483
-15.57
-42.509
-67.595
169.52
119.35
-76.36
-142.99
19.745
4.4268
-7.9717
-75.743
123.25
81.93
-89.311
-36.92
-94.719
50.588
61.815
-91.89
-83.702
243.22
62.628
-25.742
-101.78
-70.783
-2.0517
154.18
-16.386
-55.17
-39.958
49.291
143.84
-56.643
-161.38
91.663
108.97
-92.226
-97.593
-59.693
123.26
43.537
-24.383
-6.9592
35.934
41.232
6.9115
23.341
-125.58
-134.69
183.44
14.889
-144.08
20.001
210.47
-121.73
-80.416
-64.092
18.683
54.189
48.385
80.093
-210.61
-81.065
136.13
76.324
-3.0698
-96.355
88.667
84.466
170.56
-130.54
-170.08
27.537
175.37
14.852
-23.305
-64.113
65.236
-133.14
-207.83
67.406
114.68
14.68
96.067
-0.04799
-112.45
28.78
23.657
-109.36
-130.95
183.53
64.677
-79.311
-55.612
-45.283
74.524
8.5881
32.856
121.58
-115.19
-29.999
-84.956
99.874
121.84
-188.75
37.394
62.942
2.9409
-18.441
22.253
49.524
-87.411
-95.817
33.986
72.599
130.05
-20.052
-211.88
18.113
43.361
0.66519
-26.176
231.79
-23.146
-141.46
-59.616
-50.06
90.756
67.94
27.274
34.367
-59.687
52.506
130.74
-36.757
-45.077
-87.001
-30.825
82.053
-137.92
25.929
128.52
-12.954
-94.073
-189.88
95.14
52.369
-3.9598
-40.547
8.5181
50.38
30.785
-51.91
-50.608
49.446
-65.857
-84.863
-145.66
22.931
119.31
82.929
-24.343
-2.604
162.6
118.85
-7.1871
-102.91
110.87
242.82
46.504
-183.97
-15.03
97.857
-213.92
-120.65
-18.696
177.42
-71.156
-76.247
-25.276
90.375
-39.892
-89.828
51.841
-34.316
83.245
-52.626
-165.04
91.762
-11.372
-28.337
-81.893
-38.067
106.8
167.66
-94.006
-147.41
21.385
79.623
38.81
106.41
83.524
-15.916
38.156
-82.916
20.346
-2.0025
74.465
-107.08
57.196
-14.107
70.844
-168.5
80.872
-83.536
-99.064
154.57
-99.773
108.51
-157.35
7.4589
34.451
53.659
112.78
-5.7101
-215.89
-134.16
96.138
54.684
-26.168
164.65
132.87
-132.41
-122.41
-12.359
79.509
77.741
13.097
-4.6865
-151.92
-55.125
-42.475
-85.56
84.888
115.18
39.708
43.175
108.1
-4.4654
-35.37
-31.444
56.647
169.39
46.718
-125.05
-0.45333
-120.29
54.907
-174.56
2.77
14.62
57.47
-70.599
-12.56
-18.201
24.409
63.028
-123.39
37.544
76.935
4.2062
-69.133
-88.29
-51.657
0.51764
38.461
112.44
69.772
27.805
-31.804
-82.986
-43.761
81.645
94.455
-191.63
-59.959
77.469
31.012
-25.409
97.208
87.562
82.949
9.6311
-73.771
-24.611
74.566
-36.845
41.152
34.268
-136.41
-97.086
-57.224
146.61
43.976
-47.027
-187.57
-59.829
41.166
32.673
-8.1213
57.357
86.832
28.636
-37.553
12.001
61.486
34.887
71.711
-8.5671
-67.673
20.581
-96.938
61.993
-76.575
-12.27
-42.434
-263.25
34.524
46.645
49.378
54.918
82.923
55.682
19.561
-55.558
-78.296
122.66
103.19
-98.083
-3.6648
125.64
47.701
-90.613
-62.266
55.453
-15.825
-23.671
-44.273
-13.589
27.032
-22.591
22.765
-79.287
40.106
84.429
-109.87
-54.581
9.1803
-219.66
-87.092
143.42
123.6
100.56
-60.07
-71.95
80.508
83.985
-85.542
-43.002
83.64
62.705
-77.09
-85.147
126.94
52.684
7.088
-75.382
43.68
66.002
8.6562
-102.42
-16.561
68.844
30.397
-20.658
-6.3242
111.52
-3.6447
-88.717
-49.676
-10.256
49.816
23.368
105.88
-128.55
-61.305
54.272
69.243
151.91
177.34
-51.941
-225.96
-142.95
-42.527
38.692
-64.682
-59.823
25.767
73.922
-27.316
-193.49
-206.9
280.37
220.43
-131.61
-37.692
-94.693
24.567
81.296
31.721
-42.468
36.64
4.186
71.591
-125.11
-67.279
143.88
21.557
-46.897
-113.24
80.852
23.295
33.09
1.2627
-44.556
8.1738
81.517
82.752
-70.853
8.4945
-25.427
-44.165
-125.54
58.674
192.54
36.827
33.874
-174.58
-53.084
88.247
-19.282
5.6128
-124.44
80.332
47.672
-6.7671
-2.1067
3.4221
-5.0101
77.497
-75.713
-32.362
119.33
-9.2481
-7.6401
-119.06
-82.653
-4.9827
100.73
120.87
-195.19
-135.46
169.96
69.255
-67.757
13.571
118.2
22.61
-136.24
-162.69
203.09
185.12
17.069
-39.407
-1.1403
-0.57115
-46.243
-102.26
28.302
68.871
-34.124
-72.41
-7.4912
2.71
-4.2513
-78.552
5.1583
54.639
27.783
-33.232
7.3782
6.2449
-31.259
-98.327
59.017
106.72
-48.1
-82.844
-38.422
62.152
59.708
-19.238
-161.52
-4.4154
106.18
33.699
64.956
-36.766
-46.231
49.001
-11.218
-59.514
60.348
58.268
199.02
-76.473
-73.406
-19.597
-19.896
60.81
62.784
-81.957
-52.958
-22.67
-18.28
95.783
198.03
36.25
-208.58
-154.42
-78.303
29.976
95.176
101.85
27.282
-123.87
117
-17.944
-158.13
-8.5072
215.23
-1.2684
-82.335
-132.98
-6.8109
-91.508
157.62
111.5
-178.5
16.789
8.0788
-34.21
91.517
29.343
-72.702
192.29
-79.318
-160.12
-91.604
164.77
144.81
-111.46
-0.22528
-5.6556
55.008
-32.885
85.787
-122.68
-0.69082
75.373
112.15
-243.03
89.222
133.86
-52.482
-51.185
-117.81
131.59
17.273
-166.59
-207.84
240.38
125.12
-33.501
-63.685
-144.53
234.17
142.56
-207.36
-27.599
-39.804
79.829
74.989
-29.255
-55.057
-40.222
-278.12
73.799
311.02
161.92
-145.52
-86.968
-0.76826
-51.167
61.074
-24.226
-110.04
25.364
125.75
24.711
42.147
-28.12
-53.331
45.558
-8.4493
-50.827
-25.54
-52.841
31.825
36.947
139.15
155.77
-48.452
-157.49
-246.88
127.71
30.216
-5.4017
64.775
58.956
-18.375
-154.44
4.6482
200.66
89.014
-200.83
-86.549
8.5131
26.43
-122.52
41.348
40.979
-77.806
21.243
225.41
32.231
-207.48
121.24
-79.642
83.446
2.6084
-3.8872
-58.111
-29.124
89.813
-44.472
42.314
40.164
-57.552
-37.335
-314.88
61.281
173.59
215.67
-136.14
-20.382
1.1588
-73.997
-30.209
21.932
35.51
129.52
202.07
-104.86
-32.294
-121.76
24.496
-115.83
-65.871
-5.2004
45.798
-1.1706
-4.2538
34.542
265.58
54.863
-46.509
56.777
-268.38
-120.23
118.63
68.946
63.511
-152.5
12.362
108.43
-34.049
-24.051
181.12
31.72
-125.84
-77.026
-126.68
-90.997
100.25
81.479
52.984
39.302
-20.827
-25.908
14.117
2.761
-20.542
-53.883
24.445
23.961
-40.284
-83.417
14.857
69.907
59.211
-49.732
-33.632
31.185
70.683
1.6612
-91.404
-27.537
2.6217
-38.386
36.769
35.454
53.389
37.027
-62.846
16.966
41.739
61.79
-0.32785
111.64
120.63
-376.49
-7.9021
-122.78
-194.2
-32.134
87.588
-10.259
97.669
305.79
91.29
-45.639
-158.37
97.038
-84.392
-249.79
26.193
114.8
143.73
42.827
-67.28
-6.1599
191.97
156.12
-67.786
-127.7
-128.26
-6.2511
53.78
-36.507
14.046
-13.909
-24.906
0.73231
-50.309
-78.619
-153.71
-23.869
73.617
-102.53
40.6
155.23
111.92
-70.505
-8.443
145.85
75.889
-55.654
-46.029
67.083
28.932
-84.2
-35.295
66.933
-2.5506
-109.74
-0.28696
78.007
19.014
-73.767
2.4952
59.687
14.054
-45.086
-6.2232
19.517
-40.776
-109.11
22.664
53.399
-0.57464
-49.282
-4.9144
47.539
-9.5175
-59.4
43.207
55.946
-55.324
-24.528
82.173
52.36
-73.109
-13.614
170.5
223.04
180.84
30.653
-5.198
-99.347
-315.64
-311.49
-116.12
-196.54
-19.175
156.01
115.44
32.902
-82.263
194.1
168.08
16.959
-53.169
27.14
50.143
-33.398
-150.51
-17.507
104.4
51.547
-26.038
-119.16
54.456
107.73
30.16
-118.51
-22.736
33.408
66.782
-83.751
-90.133
98.55
44.027
-80.8
-83.734
95.841
30.881
-71.699
-111.57
34.519
85.288
33.787
-94.813
27.422
299.32
170.76
2.1283
-110.84
-192.66
-33.624
-6.4491
-9.1042
11.411
-45.072
-54.218
-38.917
-4.3359
-21.328
-206.57
102.8
86.978
-5.509
-119.96
86.254
188.71
91.863
-116.99
-141.66
115.3
89.806
0.70143
-95.231
76.999
75.679
24.68
-95.339
-1.5507
41.723
2.3112
-45.88
-70.245
56.892
35.473
-19.599
-77.732
43.38
54.393
39.747
-81.371
-1.012
64.35
-12.14
-92.447
-83.677
45.635
104.59
-119.49
-127.31
122.44
181.05
97.975
-80.409
-42.917
2.2465
76.222
22.664
-48.272
-104.51
-51.186
2.4453
216.82
8.7657
-224.1
68.507
-202.2
-57.212
-137.43
309.13
197.53
-281.55
-39.44
-20.334
12.784
77.398
217.62
32.707
-283.13
-147.36
184.43
119.14
61.88
-95.339
-136.03
118.58
193.14
-75.712
-143.81
14.919
74.701
83.48
-37.914
-53.999
-25.313
-24.581
-53.023
-78.986
-34.383
-35.479
-39.681
-31.634
92.48
132.11
83.681
16.56
112.39
13.791
-97.681
-92.548
9.1361
25.359
65.671
-9.7132
60.795
20.149
-33.135
-94.316
-64.918
58.801
21.938
-9.1633
-79.618
54.88
-8.0261
150.5
-70.101
-327.34
227.26
39.056
66.462
218.21
178.5
10.708
-294.12
-178.34
9.6179
19.254
-10.842
-104.98
30.525
68.389
123.07
-16.546
-12.949
162.23
-328.56
-56.005
-20.209
46.667
8.5558
108.53
-98.407
-139.28
134.52
-5.9717
21.06
-121.6
56.766
-17.911
-43.426
58.631
-14.231
195.41
-46.368
20.031
-106
-109.54
160.07
100.99
-77.145
-52.975
52.161
104.6
40.722
-190.59
-52.563
122.79
99.713
201.07
-4.8179
-534.1
-104.8
213.87
-1.3065
-48.524
50.924
203.71
32.87
-87.342
-61.694
9.8387
-28.354
-78.269
19.821
30.327
11.609
7.6066
-87.427
60.955
75.875
40.389
-77.697
-49.831
98.076
43.59
2.2224
-45.685
22.819
57.357
1.6135
-106.17
-39.363
69.724
32.79
-28.495
-93.924
42.323
70.661
34.256
0.074059
-8.8268
11.806
257.98
-128.04
-348.59
-29.355
108.68
36.678
-23.76
-75.625
75.371
57.779
76.159
-61.497
-83.9
38.812
51.401
-56.551
-153.42
8.5373
94.282
78.979
39.365
-59.427
1.9352
81.406
-36.102
-53.169
-84.196
56.796
305.7
208.66
-122.15
-284.13
-62.992
19.413
75.726
-75.803
-86.067
2.2911
-10.639
21.516
7.6522
-28.276
5.6622
8.1831
-4.1993
-29.319
50.452
22.875
-16.457
6.2221
-22.929
5.1205
-5.1056
0.70541
-5.0131
-7.5025
-10.41
-1.328
-12.501
29.257
-46.534
26.804
38.208
15.094
15.738
-54.602
14.487
23.17
34.635
-84.456
-23.068
76.79
-36.711
71.262
-11.241
-30.324
83.944
-69.674
-119.21
-221.82
-76.861
197.06
282.68
56.795
-203.73
69.438
167.92
3.2036
0.80711
118.96
-11.794
53.992
-269.64
-254.65
158.24
100.31
44.842
-100.18
-34.703
194
147.51
-65.666
-55.184
78.975
-31.174
-77.872
19.383
-214.69
83.469
-80.826
-51.223
121.45
-158.1
-18.476
20.919
194.93
91.715
-113.28
-40.889
-85.505
27.912
136.7
0.81168
-125.86
-73.714
70.738
-16.476
-3.3123
-173.7
208.42
-235.28
242.43
-106.7
-79.923
281.23
118.63
-16.269
-91.587
-207.8
-12.191
55.214
84.614
0.73741
103.3
154.18
14.208
-76.96
-78.78
-169.38
-91.101
32.117
168.37
67.889
-100.5
-55.296
198.23
38.825
-221.84
9.135
-25.113
-4.2991
52.266
13.324
42.327
35.898
-1.9849
-91.14
-4.856
48.595
11.36
-94.267
-199.3
-50.526
214.36
81.409
-59.366
-5.1944
41.254
52.622
-71.901
82.181
66.045
15.878
-39.339
1.1767
40.986
-45.264
-201.6
-261.26
113.93
248.98
68.93
-96.625
-4.7331
79.349
17.183
-112.68
59.363
45.559
-29.724
-91.233
46.844
72.114
-33.127
-4.4815
42.64
-9.5893
22.175
-109.12
-40.749
89.525
59.734
75.099
99.833
19.111
-85.355
-142.77
-135.37
-145.2
186.08
188.41
-50.174
-47.537
-56.303
27.74
107.83
99.875
83.582
-133.24
-415.55
-35.973
91.153
99.801
96.524
16.813
-81.115
41.962
47.898
40.229
-41.419
90.033
166.36
28.622
-130.61
-109.31
48.359
78.345
-421.09
-88.938
92.22
151.83
165.75
-74.171
-48.272
6.2391
50.448
81.462
-132.86
124.95
48.426
-195.38
65.063
-73.875
-51.553
110.03
-15.052
-21.357
14.197
-12.044
-51.09
-103.08
-33.731
162.29
92.729
11.631
36.897
-102.93
179.12
-205.91
-111.72
53.157
51.31
25.676
-57.497
-126.65
113.76
53.744
81.671
172.6
55.29
3.914
-131.55
-152.07
-43.961
59.398
35.266
-22.845
-29.676
-67.262
4.947
110
146.92
-149.02
-94.128
56.78
20.826
18.014
-91.429
-26.989
77.768
68.186
-39.435
-245.04
176.53
23.356
27.697
34.877
-170.23
103.32
79.123
36.166
-163.72
-75.23
39.535
53.887
398.62
-43.109
-185.27
-89.843
-12.77
-54.561
30.694
21.008
5.7267
73.908
-327.58
179.76
117.18
-37.68
88.599
-132.82
-3.9159
-51.753
152.69
264.54
-205.22
46.283
-72.864
-53.773
-140.47
18.705
-18.367
94.613
-54.89
-121.63
50.678
58.361
169.35
-77.761
-277.94
292.94
88.191
-5.1421
-176.02
2.2628
34.482
93.5
-116.69
-159.35
180.17
48.047
-66.243
-37.891
72.855
139.73
-16.944
-60.54
81.024
-166.59
169.65
-69.898
-121.07
-149.5
89.584
34.708
111.35
-8.6399
61.297
177.06
-44.121
-118.14
-77.615
-138.79
17.907
123.85
33.737
-25.825
-25.84
60.862
-79.943
-126.48
46.585
65.934
68.867
-167.82
-105.62
65.337
22.206
57.911
-18.895
92.118
31.033
147.02
-27.345
-55.279
24.181
-141.69
-186.73
45.443
154.44
21.836
257.72
89.189
-77.568
-149.03
-132.49
-28.579
78.95
19.541
64.908
22.322
-63.634
-28.338
-54.691
-46.642
-95.708
44.282
56.66
50.554
-32.33
-27.907
83.635
-26.95
-55.293
-82.8
51.529
20.519
-15.296
220.11
-105.46
-108.73
-4.5043
-30.857
-122.25
38.997
130.58
29.513
-41.151
8.4849
32.177
114.44
9.8474
-178.83
-29.62
100.05
56.743
46.984
-1.2329
76.274
-56.025
-76.994
-192.19
-78.858
120.37
122.38
-25.645
-135.63
0.80663
163.86
139.14
-73.395
-70.841
76.921
97.157
44.078
-46.38
74.793
-1.5473
-73.117
-171.34
-49.879
24.245
2.3877
-115.68
-37.959
249.67
252.93
-152.19
-215.63
-28.339
-21.763
4.7614
84.382
-152.17
-19.182
139.47
100.61
-23.046
-165.27
66.165
27.264
-12.285
-78.087
56.959
82.851
3.6677
-151.13
50.837
102.38
-56.036
-117.63
-105.88
146.25
106.26
-26.29
-74.395
37.7
22.699
-232.41
131.13
178.55
55.956
62.843
-134.05
-58.858
83.306
89.617
-40.099
-145.03
-0.94616
120.73
198.11
-194.63
37.2
67.252
-148.53
-14.737
-70.856
84.74
-59.267
40.625
7.2169
81.919
-22.882
-2.5292
-22.767
-89.048
-105.41
0.64083
180.22
-19.127
-43.382
-116.93
113.3
137
-119.05
-183.88
-57.065
115.31
148.23
56.713
-48.578
-257.33
198.82
-10.882
-39.026
-57.174
143.25
104.64
122.91
-58.709
-365.94
0.56642
200.53
138.22
33.37
-232.11
38.071
144.42
65.54
-21.189
-154.37
-24.81
198.26
-71.407
-221.16
7.3001
169.91
36.452
31.925
-91.896
-118.12
-21.581
31.312
-17.751
55.308
177.26
2.6614
-12.497
-76.865
12.083
-17.799
-13.11
-65.528
27.553
140.68
-197.03
78.927
63.131
-61.149
-59.428
-5.9638
-40.962
-74.963
17.588
108.1
24.925
-97.066
-83.911
71.539
34.479
-85.373
-310.99
-181.85
89.524
361.5
154.01
-86.403
61.477
115.76
106.47
-18.619
20.252
109.16
-60.514
-46.846
-262.07
9.8421
206.2
16.239
-105.33
-52.629
111.45
34.026
-47.104
-54.688
33.469
38.32
9.0527
-2.6387
12.27
111.52
-113.83
-88.211
-31.22
-42.783
49.562
43.883
37.531
-39.019
-43.57
57.336
44.289
4.5815
-50.674
-51.281
33.353
24.512
31.965
-17.158
-77.078
9.847
24.114
12.774
-42.646
-45.865
43.713
28.643
9.3944
-54.341
-53.104
41.568
32.634
37.467
18.323
-14.774
97.695
134.15
-100.58
-362.11
-178.44
209.9
240.21
72.582
-21.218
-46.479
-32.657
-51.728
-40.066
208.39
82.919
-121.98
-264.6
199.04
-147.77
-302.99
345.7
58.924
87.055
160.42
-193.5
-105.1
21.835
73.714
-234.31
79.961
174.04
-99.544
-11.754
151.45
-13.827
-285.78
13.86
201.09
90.688
-38.538
-190
6.4361
-87.671
-100.45
75.825
146.07
118.87
-59.125
-24.111
146.71
74.912
-75.797
-135.17
-62.227
2.1976
38.039
-85.516
43.687
89.86
172
10.11
-223.33
20.587
44.865
41.707
-92.247
-44.16
71.319
5.6156
-73.86
-83.185
69.812
10.304
-27.264
-183.85
-81.87
215.7
183.53
-49.954
-325.98
99.653
219.77
91.875
-93.445
-80.151
143.64
54.964
-6.8383
-131.47
-35.299
128.99
41.625
-52.559
-135.12
73.46
52.688
19.957
-117.14
-70.94
133.65
42.963
13.48
-127.76
-20.622
111.37
22.085
-39.794
-145.56
40.507
104.81
37.378
-48.933
-142.9
71.931
98.463
41.44
-59.226
-131.92
89.464
90.358
42.56
-85.406
-158.14
55.918
85.219
67.945
-96.693
-55.49
113.27
77.824
18.602
-156.14
3.3127
209.34
174.96
-52.628
-243.8
-148.2
-62.33
151.17
-20.979
-60.08
65.448
36.467
-10.816
-141.25
51.304
103.25
46.697
-83.453
-66.469
96.337
104.18
5.1819
-165.38
-123.99
179.04
303.03
-37.75
-239.59
-122.42
176.86
-54.824
-2.9424
-194.33
148.18
116.44
-23.327
-37.655
-178.34
73.458
-56.926
42.099
-59.933
51.145
77.3
137.98
-257.73
-290.93
196.95
160.26
91.597
-157.75
10.336
80.513
182.62
110.69
-252.14
-29.15
37.383
5.7515
-188.89
211.09
235.26
149.88
-71.437
-260.03
-171.92
20.021
112.29
83.995
-23.087
-233.85
-22.33
91.793
178.1
-3.1302
-29.516
-11.042
-171.05
-111.67
-66.619
244.73
208.52
101.57
-436.18
-87.809
376.56
8.9758
-81.048
-40.452
-91.565
11.901
62.82
-39.469
-56.413
20.311
24.887
58.688
-39.024
60.064
51.671
17.857
-65.436
-110.22
66.978
33.373
-29.57
-130.09
59.151
78.022
29.637
-91.923
-79.744
115.37
52.78
25.032
-105.58
-62.498
86.786
47.166
-7.4438
-81.707
95.677
41.539
-47.909
-116.98
-101.58
105.14
64.432
27.298
-96.876
-38.199
101.32
37.857
-44.359
-184.23
35.327
89.096
69.42
-62.007
-29.998
150.82
54.173
44.323
-28.362
-17.416
-55.599
-13.885
-51.383
-157.09
96.666
353.91
112.68
-54.966
-187.99
-106.98
63.888
7.7288
-314.16
88.511
165.29
-152.5
-150.46
309.85
217.88
-218.53
-120.64
-77.798
-120.41
105.31
86.561
66.903
-134.39
-78.934
76.087
109.68
-92.362
-138.04
166.65
230.66
10.404
83.134
-42.809
-16.609
138.79
-162.5
-29.982
-54.885
-162.9
194.04
73.953
-15.739
106.75
-65.667
-65.571
-56.294
-120.2
-218.11
7.0359
141.74
185.81
194.78
32.988
-95.458
-119.45
-194.37
53.218
43.11
-75.893
-51.715
18.368
-32.821
-92.565
-130.15
72.635
95.416
36.624
-87.03
111.67
200.38
58.179
22.409
166.36
75.309
-150.4
50.194
-250.85
31.584
66.786
-106.06
-67.338
122.1
192.8
-118.42
-28.274
-126.15
69.831
24.299
-35.976
-168.09
39.864
114.74
-26.574
-33.737
77.403
56.939
-107.26
85.326
-50.972
-22.57
-4.103
-69.535
-119.54
57.819
155.12
25.461
4.6721
-98.814
-54.115
28.518
-8.216
-66.657
242.89
97.592
-171.24
-42.5
90.068
-15.773
-19.492
12.279
-199.98
58.059
109.74
62.862
-113.61
-63.258
13.895
5.6894
-25.422
-1.7201
133.39
51.131
-244.06
-58.605
61.847
128.64
92.963
-12.34
56.222
70.897
-146.01
-133.23
115.71
86.955
38.833
-56.26
-3.8243
88.493
68.919
37.244
102.41
-135.44
-139.13
-280.64
62.595
139.31
-0.029174
-67.358
-3.7668
28.433
16.339
2.2047
31.688
-15.309
-0.028064
10.431
-4.5508
-24.244
6.779
5.0307
-5.9991
-26.181
74.378
-177.2
-4.0588
91.399
163.74
138.28
153.74
-235.59
-232.08
-208.73
256.82
223.51
-344.54
-25.407
118.77
124.44
13.638
-141.54
-85.826
-1.8998
22.383
182.33
220.58
-152.48
-31.978
-49.436
-132.65
-52.331
98.125
99.217
46.866
341.98
-87.694
-366.54
-264.06
162.99
220.43
-61.215
-172.57
66.686
54.411
-227.43
-185.75
148.12
68.585
66.581
20.78
-193.31
-122.88
5.3879
-41.861
255.93
110.81
-15.013
247.02
46.768
-15.787
-86.231
-82.669
-39.969
268.91
50.978
-34.215
114.67
-78.067
-167.03
-41.931
19.136
82.195
21.131
-186.11
-141.09
-25.763
2.0755
27.455
64.806
13.769
-48.544
1.1685
26.04
-41.508
-227.54
-66.071
307.07
336.56
-72.329
-146.77
2.1793
-88.766
117.92
-18.273
-166.45
37.188
4.4381
145.23
137.7
-29.752
36.749
-284.65
-272.69
102.64
126.78
46.055
-86.992
68.152
163.04
101.16
-184.54
-64.89
48.14
-0.34103
90.905
-34.834
-124.82
80.418
-13.704
-19.154
63.957
63.705
166.13
-152.97
-83.702
-101.77
-35.364
-33.815
90.095
145.79
62.907
-47.061
-378.39
130.2
220.25
-50.36
-60.377
-54.362
121.42
-3.6457
177.74
-16.68
-87.884
73.441
-16.435
-262.39
46.719
145.92
40.839
-13.922
-111.23
68.485
-76.219
49.437
209.87
23.816
-81.18
-170.43
236.16
115.99
-205.99
-130.55
-111.64
4.8073
144.05
-39.704
-109.74
16.21
-17.376
61.512
-0.53966
-191.93
99.684
109.64
-54.546
-180.74
33.639
177.18
79.263
83.116
-167.62
29.047
11.215
-51.586
34.192
-17.676
103.8
-127.79
-146.64
48.461
17.935
-5.0476
25.882
63.607
43.067
260.22
-131.96
-144.02
-29.656
123.52
-161.6
73.571
-64.592
228.56
-75.488
-140.07
133.51
-197
5.426
101.22
202.82
-76.31
-125.27
-111.55
42.366
67.125
136.12
79.294
-230.37
42.988
71.356
-16.501
-81.397
27.101
240.56
-67.163
-312.85
-92.91
146.64
207.74
-85.475
-90.366
82.361
33.428
-140.43
13.874
0.96195
4.9519
17.384
-1.3404
64.747
24.233
56.407
-83.359
84.252
-85.204
153.01
-223.13
-13.677
-186.67
23.622
139.73
-150.85
270.64
19.879
93.597
154.97
-179.88
-190.27
-28.403
70.393
21.259
-66.583
3.3847
88.489
30.196
-32.845
50.236
98.502
36.907
-196.2
-20.802
-21.619
63.593
-9.639
-47.034
38.845
-14.015
16.228
-35.386
60.111
125.08
110.16
-124.55
-119.21
-38.046
-23.692
-61.847
5.2974
24.857
34.455
-46.442
-37.675
93.658
143.47
-30.434
-164.77
-29.405
44.624
71.142
-268.79
128.09
147.77
38.822
-8.2915
19.702
-0.93932
-61.829
-79.971
-38.34
109.32
-37.992
-57.44
79.307
39.126
-42.659
-54.187
-48.933
146.14
133.74
-26.039
-84.692
21.056
62.536
-26.088
-90.989
-47.446
78.203
99.582
-120.76
-136.02
-37.473
96.182
57.056
-36.686
-183.62
-2.3228
166.4
85.262
-5.9486
-3.5082
39.113
15.401
-10.247
-95.192
35.218
73.242
0.59841
-103.57
-14.168
126.24
14.898
-90.37
-76.692
30.684
31.669
48.533
-4.0271
39.193
64.896
8.3725
-66.96
-30.558
-2.644
-8.3511
-49.938
-85.171
54.839
53.168
-6.1669
-50.895
-7.1714
4.234
51.37
-21.834
17.301
181.44
233.12
-116.16
-397.79
-170.21
77.862
80.375
78.718
-35.113
-26.218
31.154
51.451
-60.817
-93.717
111.02
84.265
43.449
-81.973
-57.04
64.138
42.986
-7.5936
-14.66
-1.4825
3.1333
-32.212
-22.25
39.659
55.752
67.156
-82.687
-131.64
13.926
125.39
-80.347
-77.568
45.814
111.32
5.9348
-127.48
-28.783
73.232
93.652
-64.274
-13.195
-29.897
-8.8811
-22.992
128.18
-45.366
-90.083
50.612
82.776
22.43
-24.81
-30.402
162.78
237.02
-51.002
-479.34
-253.54
413.33
-79.62
-37.741
101.71
-110.8
-65.263
66.616
-72.381
37.817
221.24
-10.443
-104.41
10.977
-33.523
-92.017
-1.8287
103.8
175.67
-131.06
127.73
-169.21
-50.171
28.583
-30.449
49.266
-26.783
-12.404
-43.591
-29.285
112.28
42.371
-49.368
-141.97
66.054
67.729
-22.808
254.26
-175.6
-191.79
241.31
-16.459
-127.02
-36.672
-50.966
-78.536
44.188
251.56
28.573
-109.17
-57.827
-135.25
-5.3812
136.98
7.0809
-196.45
154.02
176.29
21.067
-53.402
-43.334
49.99
4.6735
-60.13
-11.411
2.3363
73.901
24.971
-178.87
-0.40172
129.69
2.7374
-37.193
-154.73
-30.066
201.56
61.3
-112.55
-7.126
32.81
58.964
36.411
-15.433
-29.671
-2.3865
25.998
-21.191
137.66
60.256
-53.353
-142.83
-211.66
-62.096
189.18
207.11
-159.03
-60.74
73.464
56.183
-44.075
-172.55
66.088
297.62
118.72
-288.8
-79.066
49.473
54.179
-2.3315
-205.16
98.199
-86.821
-57.787
73.279
59.667
49.77
-29.074
-36.605
-26.617
82.736
55.271
86.936
-108.36
-4.8772
-13.093
112.16
-38.695
9.1151
-23.829
10.569
-106.05
65.4
74.043
-93.892
-29.23
-108.89
-70.947
274.97
-3.3114
-42.683
-205.7
44.478
214.35
-71.688
-196.63
89.573
167.87
59.925
-187.4
-62.694
-3.486
92.779
65.779
-255.72
13.837
114.02
103.36
-34.551
-82.485
184.55
166.6
-24.245
29.79
71.389
-216.92
63.056
-120.17
-28.326
44.038
-194.49
-35.324
108.59
116.84
-130.33
-111.69
22.447
72.698
97.411
-26
-126.33
47.252
104.06
48.482
11.193
-121.68
-56.583
144.55
-101.32
22.945
52.242
-3.97
-99.587
21.032
32.026
217.39
1.209
-138.6
-32.121
-4.6374
-157.29
-123.11
104.46
157.6
25.772
-177.98
66.561
148.2
91.219
-81.745
-125.49
41.723
-126.54
-24.174
93.401
176.46
201.26
56.465
-214.8
-110.76
48.839
-78.357
-52.657
-24.93
156.39
-98.641
57.609
-58.936
-178.79
209.51
210.5
-221.14
-81.435
262.64
-90.828
-185.88
81.583
-3.0367
-10.831
76.63
-72.314
-46.903
-50.269
206.28
-70.956
-171.03
85.724
285.1
60.004
-294.38
-47.053
94.801
-25.022
-82.812
-143.01
68.069
-58.51
-88.169
223.31
238.21
-74.994
-112.48
-142.63
5.9663
192.86
57.34
-50.404
-5.9081
26.992
89.585
-38.098
62.791
71.804
-31.601
30.98
-126.56
-249.15
-47.318
55.845
92.554
97.704
56.98
-75.4
41.361
40.419
-103.79
-57.433
-16.613
53.336
-69.941
-61.079
47.313
67.621
63.941
-135.62
-51.052
69.624
-0.94367
38.09
-231.98
234.42
-19.632
-148.45
236.17
-18.641
-54.574
79.389
100.57
116.79
14.05
41.395
-307.46
-166.99
116.91
26.613
34.447
99.703
55.539
-9.704
-30.454
-64.85
138.58
-28.94
-319.43
5.8682
33.647
66.856
-13.457
-43.472
-45.495
90.324
-26.457
13.208
97.715
-102.78
-59.817
-161.65
35.836
132.48
53.654
-12.962
-33.237
103.46
65.558
10.388
-57.898
90.498
60.996
-131.63
-128.84
-216.33
14.757
150.62
-78.881
106.5
475.03
-57.89
2.8205
-83.755
-102.05
-45.949
-29.484
-46.338
4.3629
55.116
-14.506
-24.869
-25.553
-23.913
5.7576
15.363
-6.8047
55.824
-25.997
-63.644
4.4984
20.919
-32.732
-54.329
-111.65
-88.753
104.87
87.064
200.67
-59.964
-237.12
35.085
68.008
6.1897
-31.206
87.396
-31.004
-49.415
-27.974
167.17
187.76
-60.8
29.526
300.56
223.44
-67.299
-533.84
-229.8
83.44
93.485
-19.749
38.566
4.3909
-64.023
77.743
113.75
-93.298
-154.13
2.6935
87.44
8.2856
-72.802
-106.59
-27.081
45.728
9.4576
2.1044
22.247
31.81
47.892
18.604
-21.779
277.67
115.16
-249.91
-244.4
203.82
50.849
-15.685
-95.051
-62.748
235.36
-129.24
-93.013
-28.261
-36.039
43.399
-47.299
221.22
-53.763
-223.99
105.84
12.348
120.68
81.207
-81.912
-174.52
-162.37
97.348
-170.11
325.97
160.39
-24.08
-60.814
-64.468
-22.193
-65.292
-85.014
71.53
103.77
24.359
-86.547
52.203
-1.1254
-87.25
-203.99
-259.85
178.02
252.35
34.073
-128.75
51.459
106.56
56.501
-53.814
74.09
130.53
53.999
-51.466
-102.02
57.984
62.658
1.53
-87.201
-170.7
-33.339
74.95
109.66
-100.09
114.44
40.93
-49.406
22.475
35.326
32.358
-87.37
-62.313
-66.824
-36.142
82.298
45.571
-86.313
15.524
30.787
-6.2049
-103.52
-1.8908
84.12
28.958
-76.994
-1.3588
82.241
39.211
-68.899
-25.409
79.413
37.333
-36.643
-60.553
69.327
49.085
-2.084
-82.238
21.902
43.979
10.979
-65.608
-16.785
51.606
19.212
-22.669
-53.638
33.018
2.6139
4.9821
-28.256
53.14
90.289
113.19
-91.543
-26.21
201.55
-114.52
-95.346
114.16
-233.13
-141.67
11.202
-9.7474
-137.45
24.742
67.679
-24.252
27.011
39.359
18.054
46.276
-163.89
96.576
148.97
-77.489
-26.3
58.889
52.721
-36.871
-31.524
95.716
-14.317
-144.89
29.946
111.65
24.797
-27.741
-41.381
16.46
63.996
-33.237
-115.32
-34.551
102
82.945
-139.82
-90.101
334.25
134.06
37.518
-115.77
-84.768
-207.68
-182.64
-104.76
12.426
-48.124
200.98
153.79
-82.278
-34.037
-12.87
34.037
149.57
11.652
-36.538
-42.621
48.537
161.84
172.97
-153.58
-149.96
-13.461
-45.345
48.979
-95.682
-42.521
175.86
-23.218
-48.106
-49.619
-1.3384
-160.72
50.951
109.69
59.904
26.022
20.899
28.568
-58.199
-89.52
70.18
65.572
-52.636
-46.169
7.343
-48.402
73.156
-133.2
-34.797
189.44
0.91525
-91.7
-66.327
184.13
159.83
-27.755
-107.24
-21.654
-14.606
-45.781
-49.249
52.65
-12.279
140.04
33.203
-91.702
-141.7
-16.581
-27.25
-55.884
15.107
-25.847
14.386
-91.021
67.729
57.419
105.81
-27.116
-46.537
28.099
103.53
-39.731
-46.24
49.109
-14.21
-37.483
-12.29
88.651
61.45
-99.621
39.232
87.623
-38.852
-64.157
50.677
14.033
-55.905
-59.791
69.681
76.16
23.68
-15.121
49.968
-14.987
-59.026
-86.366
-92.847
33.065
51.496
27.871
-46.198
-20.593
201.03
243.85
-350.53
-158.4
64.731
4.245
143.98
-108.39
-115.23
12.82
-73.862
-103.9
155.64
118.56
68.957
21.337
-12.745
-74.781
9.6038
106.94
-43.694
-114.55
25.656
138.12
47.601
-116.17
-91.29
125.43
161.3
-100.52
-250.85
73.534
66.981
25.539
-83.937
-45.647
62.782
47.902
-29.65
-16.251
57.726
44.657
-44.304
-146.94
34.192
75.488
-13.152
-101.34
-109.46
120.44
80.806
67.887
-45.947
-5.0531
93.873
-63.096
-91.465
-62.66
63.256
18.311
27.2
-65.17
36.485
74.917
46.73
-61.436
100.06
29.677
-87.843
-43.592
-54.577
64.902
4.9067
-7.0247
-111.91
8.3278
58.254
47.836
-24.423
-74.4
41.707
41.345
16.826
-75.417
40.215
37.661
-104.98
19.147
100.6
0.13037
-83.623
62.966
33.323
264.38
-29.277
-114.63
-75.502
-271.82
-85.253
54.198
80.198
-8.0793
-57.654
170.55
92.215
-98.346
-27.678
130.94
-38.69
-62.887
-45.917
86.526
47.878
-28.703
85.94
-120.54
-40.665
15.234
74.368
38.218
-105.72
25.223
5.9683
13.974
-339.6
130.41
326.85
-159.32
37.18
-56.938
-130.67
28.847
67.644
9.8902
146.1
71.902
-86.397
-226.33
-54.325
162.61
96.581
110.4
-202.45
-213.76
136.62
118.39
-3.237
82.796
18.796
185.47
-236.62
-223.46
267.55
103.46
7.9502
-44.362
-114.85
89.989
-156.31
41.94
21.098
190.49
-130.69
-200.67
-141.98
-125.31
374.71
-106.45
-345.53
144.84
281.91
-135.32
-118.62
-106.59
143.55
105.38
-31.188
220.35
-5.8939
-146.15
101.91
-46.467
56.241
69.493
-6.0546
-39.536
81.421
40.026
-35.954
-256.85
128.98
279.41
25.4
-254.37
107.94
-73.047
-53.79
-77.459
-52.979
127.01
-66.73
-62.768
200.74
-100.03
33.874
-98.737
24.192
71.084
-154.54
-96.443
87.305
119.15
-85.483
-75.98
75.434
190.36
-11.16
-123.58
-145.48
28.277
161.45
-66.334
-44.099
105.29
123.79
-121.39
-31.997
14.242
85.035
-64.38
112.86
-12.102
81.466
-41.138
-259.53
85.889
-105.73
-27.936
337.74
-57.23
-279.82
25.006
181.21
26.773
91.652
62.962
-206.45
-131.09
37.731
-87.722
-30.138
127.44
326.1
-115.08
-79.77
-284.58
24.983
228.51
-62.294
99.478
-82.324
37.234
109.8
74.617
-188.56
-248.5
35.739
145.42
100.34
-113.18
-22.531
1.8099
-21.427
-197.96
137.88
184.45
-165.7
-9.1562
-4.2855
226.47
56.555
-258.89
190.26
14.785
-42.406
-131.89
99.81
139.66
-28.204
-109.14
-134.94
303.93
-0.91591
-137.03
4.7056
76.531
-221
112.76
62.127
-48.592
152.15
-157.9
-136.91
-14.84
355.63
81.539
-184.09
8.8652
-122.46
-104.61
7.7524
21.474
-62.834
77.835
89.784
23.678
-168.4
-12.021
162.89
-10.112
11.262
-116.76
6.6534
-108.51
85.234
208.89
-43.363
280.67
-192.27
-295.56
120.1
22.88
-39.697
-249.43
164.59
182.33
67.739
119.26
-266.3
-101.72
145.9
8.0134
-139.31
248.86
-143.25
-196.65
-48.916
167.99
220.77
-116.1
6.4792
-115.91
-15.09
9.0258
48.237
-80.623
-6.3516
110.82
-25.052
-1.7635
-45.571
-17.336
74.13
77.35
-119.23
34.145
49.52
-80.067
-258.65
310.21
205.76
-16.303
35.703
-98.382
105.4
-64.27
-178.58
-181.37
92.939
188.22
111.59
21.819
-37.914
165.23
-209.56
-105.79
-102.66
101.88
-50.155
-38.664
-22.582
-56.813
55.273
-102.01
-137.75
192.55
171.9
19.116
-157.75
-112.96
116.62
48.918
-8.6362
17.477
112.76
10.843
-77.495
11.066
22.325
107.16
49.224
-200.44
18.907
122.77
-28.344
-221.61
-56.829
257.79
64.559
-122.69
-90.042
39.774
123.31
121.97
-54.486
-165.77
-18.675
122.49
-52.034
-96.513
-26.343
134.18
11.711
-37.915
-76.293
-8.6828
35.016
-113.84
-77.096
64.112
142.46
-63.128
-103.18
31.891
62.512
29.814
76.094
-10.604
-47.699
100.62
-47.094
-67.599
-76.293
-67.21
135.62
8.4416
-4.2454
-68.332
52.821
-21.671
71.406
-36.437
-61.565
14.31
-103.07
-46.92
120.42
119.32
115.84
41.604
-104.25
14.124
176.24
-66.5
35.826
-155.23
-56.111
26.201
-45.922
69.287
59.946
-4.431
-56.924
-107.19
-40.553
-36.008
-50.42
155.52
186.68
-82.235
56.196
-32.4
-252.25
149.56
38.345
-68.377
-70.171
131.74
12.4
-54.525
35.518
13.617
16.111
21.989
-62.501
-170.67
218.49
271.07
-240.21
-314.95
-36.327
29.297
247.43
44.897
62.124
240.66
-128.05
-110.29
-260.38
-85.179
254.63
-123.84
-145.26
-67.384
329.21
-100.37
74.517
77.459
-16.526
41.461
-83.981
-196.05
-109.32
135.39
49.715
61.913
-38.25
143.57
77.634
-124.92
-36.231
-103.51
78.883
70.022
127.76
48.866
-126.66
19.751
-97.528
-117.76
-90.553
-23.674
95.825
113.52
75.147
1.188
75.3
261.7
58.611
-176.63
-242.43
-19.199
-124.33
-109.62
377.76
119.16
-32.556
-156.52
63.095
-36.551
-338.55
87.648
193.75
109.11
-56.745
-215.25
-30.539
16.722
166.88
-170.34
65.337
121.09
-93.372
-110.07
-68.196
91.407
-43.45
-8.5486
-30.94
91.414
77.636
62.97
162.01
-98.575
-206.39
73.638
78.116
-238.13
1.9437
169.5
0.46043
-8.1231
103.43
124.23
-82.81
-51.706
-153.59
-82.464
-39.487
139.62
-9.7714
76.756
187.6
-50.85
-99.86
-156.38
-10.639
115.3
63.847
1.2489
-73.611
21.768
63.049
26.57
-51.268
-53.694
53.357
51.933
66.442
50.44
-22.383
-36.731
-37.153
-70.565
-41.093
-27.729
13.404
-34.697
-89.595
1.4889
39.638
48.999
-66.581
-62.755
81.694
75.911
-20.379
-57.059
78.764
62.607
-21.34
-73.071
81.474
70.364
24.696
-78.88
-26.739
83.639
34.245
-16.173
-87.724
16.227
41.643
13.164
-63.408
-51.697
46.295
23.7
-30.16
-51.252
70.085
14.048
-5.1311
-70.644
-18.615
272.4
162.88
-234.59
-253.94
7.3472
74.503
38.599
-211.16
-239.81
-42.937
160.51
165.37
59.724
-148.16
7.972
172.52
147.34
26.114
-125.09
135.51
155.9
-99.859
-141.77
-39.178
42.936
17.716
6.0796
-21.692
56.97
1.7971
-15.42
-59.605
-55.784
22.376
-3.184
27.583
-1.4924
-13.257
34.664
5.4885
-12.023
-60.009
3.1127
-24.247
-17.963
38.886
-13.451
42.501
22.089
14.366
-83.621
-26.85
48.058
3.6945
4.8357
-58.515
0.13669
40.626
36.036
-33.027
-91.891
30.269
82.349
55.661
18.101
-76.51
16.923
38.259
7.6929
-11.72
-46.781
-79.309
29.231
180.09
243.46
-241.75
-474.01
116.52
550.92
108.45
-300.53
-44.678
-14.206
-96.832
-94.273
171.07
120.5
-6.9939
-126.78
-163.75
116.35
-50.58
-48.642
-16.658
-0.48312
39.331
15.029
-32.249
-92.77
-209.09
140.19
21.013
-230.83
24.485
232.75
186.95
0.85735
-45.785
80.359
368.45
-92.757
-155.57
12.814
20.14
-4.8074
-167.82
-150.99
84.964
237.73
74.831
-107.98
11.737
91.822
-41.703
5.4034
54.347
-104.2
-65.71
-34.533
93.311
-190.02
-143.61
-45.627
96.929
52.331
-13.049
61.932
93.381
-16.668
-59.746
-1.1867
-29.33
-25.335
-185.41
-27.892
86.791
176.76
-65.493
-56.628
88.957
14.253
97.892
10.465
14.35
-68.231
-81.729
98.262
-38.618
128.92
15.467
-54.498
45.773
144.02
-114.7
-216.24
19.838
25.71
216.87
130.79
-330.93
-165.61
-87.605
21.879
-75.648
106.55
352.31
25.916
-117.56
-64.821
-23.001
50.603
7.2906
8.4384
3.3595
-6.2739
-9.3566
-149.16
61.672
73.252
-28.487
-6.9846
-15.662
-40.259
-17.042
104.6
26.415
-98.333
-31.77
8.6852
115.56
-64.597
148.11
27.927
-77.745
39.489
2.1296
-139.65
107.37
-40.071
-40.121
-14.418
-65.246
111.34
226.31
-163.77
19.651
-21.675
-163.52
85.4
-145.76
188.71
28.861
-57.259
-90.791
73.129
67.329
49.173
85.477
-98.046
-97.555
-37.902
-5.337
-11.365
-26.104
61.969
126.19
-18.223
-210.04
-11.821
111.72
-23.101
-42.06
58.838
-208.38
-57.39
310.31
0.50101
131.99
-50.679
-107.64
-15.204
31.783
160.04
-39.194
-11.42
-37.964
-290.33
20.609
236.36
183.28
-88.194
-142.67
-152.98
-80.756
237.53
20.279
257.26
-24.179
-149.14
-47.25
-108.09
149.37
-167.33
-72.425
40.632
10.487
32.494
-8.2923
-11.343
-35.79
88.518
20.242
-192.68
52.731
-5.8393
76.434
-110.89
51.088
24.278
106.34
59.994
-75.032
158.97
-140.77
49.983
-25.715
-71.03
-62.857
-38.821
190.84
142.76
113.64
-280.88
61.237
26.057
-58.336
-5.7094
-26.52
-47.809
-156.37
128.66
57.905
145.33
-204.94
-7.2301
206.56
80.797
-192.68
-180.22
40.992
-3.2579
153.35
147.42
-43.526
-40.408
-2.4812
-5.871
22.195
-63.017
-166.85
-7.4626
-54.681
113.95
28.149
29.201
-0.49218
-131.96
61.835
-14.284
16.876
-145.98
-157.53
156.85
114.35
22.078
-15.15
235.06
-72.672
-104.85
-67.645
91.926
103.29
79.851
-10.74
-67.021
139.05
79.784
-224.02
-142.78
72.33
-12.079
125.34
-33.531
27.719
-104.22
-87.389
54.535
-63.535
-55.777
28.049
59.453
64.279
91.588
-9.9239
-118.93
-11.19
-174.1
36.968
190.75
30.926
27.623
18.807
-69.883
-77.551
18.716
-120.69
35.365
-16.39
178.13
48.062
-118.05
68.552
-33.234
-2.2681
-38.277
40.574
248.23
16.157
-312.59
-24.148
82.296
211.37
-108.14
-311.02
128.55
198.08
-80.959
-100.51
32.821
57.486
-144.99
-4.6785
-23.553
-14.589
252.72
-43.629
-129.86
-225.8
134.06
146.43
52.318
31.108
-19.356
314.18
-109.3
-395.92
57.863
11.31
-31.984
129.45
206.77
-76.712
-230.48
-66.083
78.489
19.74
-70.779
-56.445
137.69
94.187
-7.395
27.286
-73.368
-267.23
102.27
99.973
135.06
-68.13
-179.85
42.589
103.4
-6.9328
107.46
247.73
13.722
-325.05
-263.38
-5.844
178.15
165.15
-97.343
-147.95
27.757
187.44
-50.173
-53.506
12.746
34.06
-26.791
12.316
9.4314
-61.61
116.02
93.054
-115.4
-41.19
80.368
-1.1359
-124.53
-51.131
174.29
119.53
-157.03
-106.2
-65.992
115.92
104.33
9.1884
5.3611
-142.6
57.397
14.837
-116.38
24.071
104.56
11.519
-72.184
68.3
116.4
-190.82
8.8795
-164.68
53.582
52.246
7.8831
-32.757
9.2799
117.82
-7.5497
-105.53
100.92
174.54
-122.07
-141.05
25.861
-1.324
29.257
37.078
-109.45
189.2
103.28
94.12
-208.41
32.861
-147.37
-157.01
61.554
-134.37
155.42
169.2
-175.27
-124.55
214.65
149.42
15.045
-16.264
17.899
1.8722
36.278
-75.181
-16.683
86.777
-43.706
-212.41
-26.352
-17.418
-145.97
62.005
-69.964
-3.0455
130.47
169.36
-89.937
-5.8088
121.77
-15.003
-65.538
-230.48
211.3
276.24
-42.778
-147.48
-88.109
-64.399
-70.41
28.202
191.89
189.97
106.29
-175.7
-93.104
-75.775
-127.92
105.66
103.4
137.38
-53.975
-51.015
-33.087
49.381
108.85
-177.14
-83.102
-30.847
-132.88
128.72
-84.548
-60.758
69.431
15.431
164.75
73.794
80.347
-133.39
-208.84
172.52
-57.074
-154.55
66.032
34.595
14.731
29.817
-124.45
175.02
-116.64
167.46
-67.786
-119.34
171.05
-178.63
171.19
199.56
-34.057
-101.85
142.25
70.155
-109.4
-166.93
-159.92
42.005
30.245
2.1551
-22.749
71.426
-27.513
7.7159
-55.77
-15.185
-204.23
76.6
-9.787
75.828
133.97
17.046
1.4768
39.789
-31.029
122.39
158.59
-102.55
9.3335
-216.32
-119.1
151.64
61.122
-16.164
-70.903
99.026
-6.478
-81.427
-17.664
141.56
93.368
-79.12
-47.12
24.312
133.04
-57.31
-203.12
-24.428
82.992
59.328
-106.38
-20.559
45.427
-6.0956
-39.751
-7.8079
58.997
37.681
66.467
-33.418
-119.03
13.991
-89.308
-70.772
56.119
65.509
17.226
5.5469
-4.8056
80.911
-25.463
-120.35
38.328
107.89
-9.6296
-70.339
6.6955
48.008
25.761
-28.899
-31.561
31.79
56.662
18.45
-84.132
10.854
30.911
6.2093
-64.934
-21.272
70.3
38.359
-30.213
-57.059
-3.1712
39.545
14.538
-48.174
11.884
30.97
7.8203
-43.604
-19.04
33.667
15.337
-17.58
-38.531
41.572
15.376
-158.67
69.315
73.634
4.8841
24.11
-40.309
3.9773
43.227
3.446
-73.95
-14.81
40.802
16.25
-35.272
-48.932
43.135
29.19
6.9288
-45.044
28.627
67.551
31.795
-85.292
-42.495
26.816
16.816
-15.013
-30.252
47.02
28.452
7.3775
-46.943
-24.077
30.459
-54.26
-37.232
54.465
2.9967
28.43
31.52
10.208
161.5
124.12
-264.29
164.76
-335.4
-235.63
227.65
115.85
-209.23
-82.508
299.96
197.12
-84.906
7.1301
16.254
-61.54
79.307
-88.772
-96.883
2.1549
218.59
-254.58
-108.83
70.759
-169.54
163.57
-201.64
196.59
396.87
-132.98
-99.18
-3.1624
-56.883
-208.52
-67.597
177.81
77.189
-87.362
44.227
35.861
-47.788
21.979
-1.744
-9.7682
20.4
-164.34
-68.045
158.7
-70.918
-2.1988
54.735
198.47
-133.27
-69.392
249.51
37.889
-15.788
64.095
-11.722
-331.34
-58.936
146.1
147.61
42.881
-148.63
-94.066
61.327
309.97
-175.75
-101.53
70.989
-52.276
-206.33
108.62
325.8
53.102
-202.29
-426.6
153.79
256.79
-33.426
-149.18
9.8178
144
-93.582
-71.056
17.052
55.391
146.19
-51.764
-263.11
92.504
-63.001
81.383
273.45
12.46
-172.42
-13.207
-44.409
-47.658
81.45
134.02
-182.98
-55.402
25.581
165.14
-19.196
-134.39
-51.685
44.592
22.345
-86.331
3.0217
125.93
235.93
60.488
-172.26
70.76
8.2733
162.53
-396.89
-155.78
233.14
98.876
109.62
-37.144
-58.354
-107.41
-61.716
171.12
-66.108
-62.568
-39.686
-176.79
125.94
29.944
66.723
-98.333
39.399
-33.673
146.63
-112.88
-32.445
-42.215
-130.61
35.493
13.028
322.75
38.178
-170.75
107
-62.543
-6.4159
125.15
67.599
-134.16
-165.93
-75.688
205.89
-24.964
-81.275
-39.21
-93.984
151.19
192.26
-55.624
-59.5
-126.01
2.1545
119.03
202.88
-73.757
-229.74
-96.758
0.013521
182.03
96.36
46.299
13.233
-323.21
64.157
280.21
-12.562
-92.536
-293
73.698
198.52
-87.871
-55
94.064
84.299
62.546
-50.227
-80.639
-95.916
7.6488
-26.132
-109.53
8.5043
89.435
51.802
175.94
-165.38
50.862
179.37
-178.06
48.313
36.097
-116.45
-31.658
-107.81
150.12
-32.822
-80.254
-165.27
243.31
79.881
-37.487
43.847
-74.803
55.519
-154.21
-32.534
15.718
94.115
210.49
38.579
-66.759
-152.49
32.343
114.42
-167.09
-264.64
116.97
190.1
-41.925
-107.74
79.051
75.74
32.933
54.426
202.1
-11.917
-99.413
-9.1143
-43.377
24.803
-67.997
-106.63
-274.29
61.068
244.04
-154.89
60.866
-3.0289
51.45
11.238
-67.624
24.682
18.929
45.335
-55.243
-12.096
57.866
26.43
-65.555
-18.77
59.643
49.016
-40.204
0.4715
68.707
45.551
-49.016
-43.451
-23.058
11.079
39.336
-51.851
15.062
27.502
33.232
-33.816
-18.065
28.926
-4.0973
-30.799
-40.93
41.532
1.7609
8.3353
-15.49
26.861
26.14
-42.134
-45.585
-51.964
52.523
14.298
-0.90304
-73.33
-13.428
94.328
22.737
26.015
-62.085
-97.734
69.858
103.41
-32.818
-13.989
70.185
222.01
62.228
-373.29
-172.94
213.77
91.45
-52.005
-133.94
169.15
415.89
-192.64
-246.24
-125.71
96.502
4.218
-9.6372
18.971
-78.784
1.6846
13.237
-122.59
-38.713
23.185
-27.526
14.915
-9.2848
149.69
-24.322
-125.04
-58.597
28.743
85.78
0.35412
-68.875
26.024
25.946
37.831
4.1136
-102.99
81.087
-33.363
-19.595
-164.12
-8.9042
147.86
94.079
-34.265
28.642
94.217
36.202
-24.472
-65.854
48.643
37.211
-171.47
-44.329
186.19
189.43
4.8221
-133.15
-7.2941
147.69
99.637
-7.1265
-107.37
-110.43
163.33
-46.774
-84.511
111.93
26.053
-92.2
-180.12
-10.522
42.65
90.576
-174.69
-73.802
13.078
-30.512
-68.805
138.91
81.459
-57.167
-77.793
-34.723
-144.89
217.04
39.175
-80.151
54.976
-91.038
66.281
-99.095
184.67
39.619
44.095
-49.138
-28.073
-8.8451
21.663
15.546
-11.689
-4.9051
-3.1089
17.933
30.963
-32.147
-67.369
47.725
-32.679
71.914
79.249
-77.926
-131.35
-7.5234
245.82
-92.26
-1.0097
2.0196
-7.1266
41.15
-67.252
-130.62
272.98
-94.09
-63.651
104.62
-63.789
-119.9
7.7613
60.355
30.832
-66.504
53.544
69.188
-78.76
96.479
48.791
-274.64
-43.727
103.88
293.36
-180.76
-278.45
176.34
100.2
143.59
-21.252
-135.71
-104.43
12.843
-56.846
46.308
-73.402
130.59
79.331
-85.214
-47.475
1.0214
96.968
-111.26
-21.007
-58.488
-29.24
244.9
28.898
-28.406
-60.617
57.709
52.194
-246.85
16.214
110.88
49.677
-3.2562
-79.151
44.464
104.34
-184.04
-10.937
322.94
187.67
-34.593
-137.86
-341.84
-146.36
-150.04
68.756
79.384
153.26
189.55
36.791
48.041
70.776
-90.13
-40.09
-131.03
-122.26
53.639
11.59
27.752
69.86
83.987
13.206
16.285
97.179
13.338
-86.929
-95.787
-2.7497
4.2556
113.42
100.99
-261.33
-73.031
0.52873
37.482
23.32
-13.626
9.1743
-24.788
-65.361
-21.04
33.657
5.943
-15.152
-11.089
16.497
7.952
-19.513
39.046
48.946
-53.361
-41.98
44.693
10.014
-14.786
92.117
85.206
-63.678
-47.175
-58.646
-23.578
-23.524
-5.214
106.39
39.522
-8.1915
-229.56
-299.24
148.9
109.53
6.3599
116.29
158.43
-5.2609
-236.28
-96.463
-173.97
111.89
536.12
309.93
-232.44
-21.917
111.3
-517.48
-164.73
180.67
148.23
734.69
452.17
-798.21
-281.56
-6.8455
-192.34
-28.423
222.52
120.14
23.743
-147.56
-50.24
-32.401
-20.207
-51.358
-8.8155
28.358
3.3257
-55.286
-6.0742
37.872
16.993
-39.875
-26.437
45.325
26.39
-41.051
-30.605
45.604
24.709
-44.668
-44.381
71.59
51.415
-19.101
-82.852
52.756
63.447
0.80847
-72.116
38.869
65.213
-5.2147
-95.789
36.148
69.726
14.256
-80.525
-22.948
76.025
29.085
-64.438
-16.297
66.957
26.554
-66.89
-36.936
65.535
28.634
-70.07
-3.0125
74.104
-19.674
-74.23
29.178
44.814
29.996
-39.967
-27.706
8.4217
-40.651
10.241
45.152
-17.924
-61.755
96.169
50.157
-87.795
-18.709
-18.158
1.9437
8.1415
-72.013
22.12
68.588
27.107
-62.043
-13.715
55.806
21.391
-39.744
-24.032
39.954
16.486
-32.89
-37.835
57.032
4.9948
-47.285
-246.99
64.734
296.61
152.2
214.14
68.074
20.074
2.9002
-10.434
-117.74
-319.76
-298.45
-85.49
41.544
43.235
-6.471
-47.638
27.751
51.537
32.934
-10.873
17.973
30.84
18.656
-5.8762
14.883
67.414
-3.5327
-70.389
-9.9023
28.386
-27.228
0.79118
52.879
29.164
-18.45
-84.255
-31.091
31.764
38.901
-33.094
-50.725
-6.8337
242.38
-11.597
-56.828
26.378
-53.92
-120.41
-26.868
82.752
73.686
-81.916
-19.096
98.807
66.511
-1.4443
-70.889
63.925
40.633
4.5659
-103.83
-32.043
66.326
13.008
-1.1804
-82.751
47.732
68.444
52.67
-34.294
-57.302
49.812
25.5
-43.396
-107.69
38.043
43.457
20.652
-47.265
5.9217
42.548
1.6163
-59.671
-66.558
77.513
47.761
-51.32
-67.703
15.099
27.891
-18.948
-117.63
44.444
69.983
6.0962
-57.595
-5.5228
100.47
57.179
-46.719
-57.913
86.977
32.613
-38.432
-222.97
175.26
231.89
-67.395
-78.105
-118.71
73.525
64.277
-36.784
-108.45
68.784
28.928
25.007
-56.48
-75.558
68.369
37.079
-34.678
-64.332
48.686
13.663
2.8832
-55.96
41.885
41.696
19.274
39.472
-110.66
-169.09
221.74
50.769
79.749
-110.5
-190.88
-55.649
104.69
73.895
-39.581
-57.201
77.58
46.333
-65.814
-17.234
87.419
14.373
-64.999
32.981
50.004
-50.321
-39.6
70.493
21.071
-88.406
-51.29
87.184
39.919
-58.793
-12.837
61.139
6.9874
-79.356
-14.171
76.703
20.927
-72.26
-77.494
72.072
21.578
9.4439
-74.23
36.336
86.999
6.8611
-97.209
-38.48
25.8
19.149
151.82
-184.91
41.849
61.786
-1.7558
-115.96
11.114
79.774
16.974
-62.685
-82.407
110.6
44.265
-6.1607
-88.279
69.205
97.098
27.724
-117.89
-44.471
106
27.34
-34.033
-134.21
82.723
71.345
21.323
-110.35
-16.938
63.02
-16.53
-35.45
-74.638
87.394
36.401
-1.3032
-110.21
9.9061
70.275
-3.7593
-15.459
-30.084
94.985
43.244
-51.211
-199.6
51.039
90.704
-6.0381
-99.997
20.496
91.385
45.332
-114.7
-47.487
110.88
51.634
-75.762
-7.9133
92.828
27.685
-80.107
-65.619
79.451
26.96
-44.504
-74.439
98.173
57.367
-47.541
-87.191
112.34
41.504
-28.662
-95.722
17.335
60.119
2.5809
-59.527
-9.7064
62.585
12.259
-71.693
-154.06
91.202
-59.534
105.97
0.10882
-4.5682
79.186
-32.413
-82.388
21.581
103
-17.147
-109.04
49.328
35.184
-84.72
-20.295
101.66
77.005
-86.591
-36.947
90.167
21.857
-80.457
-41.54
109.15
60.316
-47.246
-120.56
81.542
49.806
-31.167
-109.5
54.163
51.43
6.8472
-117.05
28.213
87.342
37.557
-83.626
-160.4
109.45
73.013
-6.1471
-118.47
59.957
80.84
12.251
-114.63
-8.7383
98.102
51.124
-41.971
-124.9
82.509
80.687
29.843
-120.46
-62.504
114.68
45.964
-31.718
-142.58
28.561
97.088
24.782
-87.751
-84.343
98.193
44.948
-22.78
-97.139
81.035
93.699
13.743
-146.46
-72.653
80.773
58.468
-4.7922
-85.39
97.439
52.374
-27.279
-142.76
49.958
96.981
40.404
-103.02
-26.681
70.458
8.375
-22.672
-126.94
76.496
79.462
34.85
-77.968
-52.38
86.29
39.607
-27.916
-129.14
40.455
70.763
36.119
-69.756
-159.99
68.828
79.496
35.805
-97.858
-121.04
-116.72
-193
-29.883
82.591
194.05
331.57
167.73
-126.43
21.982
215.15
97.542
-402.21
-269.34
110.25
161.69
52.343
-74.975
-3.1556
74.903
27.201
-41.664
5.4819
75.67
22.408
123.11
7.1849
-138.83
-153.28
-124.53
55.931
78.968
35.955
-6.3773
-22.838
-7.2876
6.9101
-62.283
11.849
61.625
-9.3157
-79.887
-2.0188
57.84
0.82425
-54.081
8.2589
64.69
20.536
-55.38
-26.953
54.788
32.683
-46.557
-64.646
45.765
30.056
-10.574
-51.323
34.036
11.258
10.76
-53.436
-26.847
72.285
23.168
-1.9292
-79.97
31.273
60.563
12.172
-56.632
-58.037
63.842
17.896
-2.9682
-68.606
-15.979
73.286
20.231
-21.744
-90.251
14.584
-30.372
-90.135
-28.132
118.38
213.48
32.187
17.716
141.63
-82.812
-39.887
-25.569
-192.77
-57.455
54.906
129.22
-87.52
-46.226
85.879
-57.098
-47.426
-67.58
45.663
57.006
-14.624
-121.56
-61.569
136.04
91.344
34.39
-209.72
-25.418
99.401
62.743
-66.039
-60.262
103.11
48.273
0.5888
-76.387
88.618
55.706
-15.944
-118.69
-27.261
109.85
124.47
-53.2
-165.17
26.557
-2.3676
-78.186
27.058
107.57
31.415
-49.374
124.19
291.01
56.061
-264.72
-411.87
148.31
150
3.8324
-198.88
-154.26
108.48
202.37
-28.358
-169.12
-42.318
120.93
106.83
50.134
127.92
-66.812
-156.26
-93.609
-47.626
31.11
56.697
12.411
57.266
-7.6678
-98.748
-79.307
62.56
68.642
30.763
-28.301
46.824
52.063
-131.86
-4.1553
138.19
94.073
-80.677
-65.29
-54.373
-211.1
-143.8
334.05
303.52
-19.414
-98.467
18.404
-24.898
-74.384
50.414
135.99
44.907
-260.75
-7.789
-0.9473
16.891
-62.81
17.081
82.383
56.114
113.72
-16.713
-104.39
-90.74
-92.606
-201.32
109.73
173.91
-106.24
-11.312
117.91
45.302
-93.951
-219.26
51.282
151.77
88.948
-39.737
63.634
100.41
-175.01
-195.9
100.42
144.33
38.071
-108.65
-17.88
68.361
11.234
-81.035
56.447
70.866
-13.061
-58.878
53.339
44.192
-32.712
-43.791
75.607
41.021
-23.048
-87.721
14.809
88.37
-17.075
23.398
69.669
-58.715
-58.473
-139.36
38.989
51.537
-35.387
-82.59
64.67
70.019
15.449
-111.52
-85.795
136.05
35.628
-23.037
-85.428
54.733
55.726
17.909
-65.992
-41.273
95.053
29.055
8.4743
-121.68
24.449
441.43
149.69
-32.112
-39.455
-292.72
-247.72
62.135
-59.551
39.965
-31.432
-58.402
-134.19
-16.087
-151.37
-126.98
68.903
-28.209
202.66
234.81
102.7
-114.16
173.08
302.43
-97.576
-592.2
157.73
284.26
162.08
-150.53
-265.28
2.2023
-50.278
-183.24
-76.038
212.14
214.09
-48.025
-121.36
131.04
-58.645
-79.812
-148.36
48.14
160.32
48.752
-122.87
29.784
157.03
56.863
-74.034
-92.607
109.95
58.099
-52.398
-98.553
96.602
54.949
-9.7632
-114.94
31.089
74.882
19.549
-62.508
-46.182
75.457
32.866
-11.437
-61.997
29.092
-1.5344
-27.503
-83.058
7.2367
83.748
36.119
-12.783
-41.199
55.32
23.938
-3.6075
-51.04
-20.67
48.707
19.491
-41.092
-19.603
39.785
22.172
4.4444
-15.603
53.222
-169.3
59.946
20.477
-53.156
-6.6015
33.987
-46.51
39.03
149.37
47.231
-6.3833
148.03
-207.63
-168.83
55.096
264.1
175.11
-28.457
-56.134
14.67
7.2326
-35.552
-83.095
-228.82
-229.25
-74.09
-15.464
25.56
23.937
7.2882
-24.562
-32.145
-13.192
2.9863
4.1013
-13.738
27.781
40.199
6.5343
-47.461
62.669
54.849
15.584
-61.052
-58.669
103.2
44.735
-0.16787
-92.381
15.916
128.71
-100.11
-349.7
-103.48
15.297
44.89
52.203
59.573
134.11
299.29
185.55
-63.718
-152.48
167.42
108.84
-23.803
-158.77
64.834
83.755
-8.6878
-129.8
31.454
98.207
-18.57
-124.61
40.621
74.229
-41.557
-90.079
246.47
51.403
-170.13
-217.64
-49.337
194.03
100.39
14.683
5.9604
-36.222
-66.035
-57.753
-6.2202
12.106
-21.238
-83.195
60.554
53.104
-11.245
-170.7
-32.188
262.64
344.61
-16.741
-392.39
12.851
36.908
-158.59
-97.896
73.34
21.721
-25.744
-119.31
26.649
97.263
47.417
-112.43
-70.035
69.159
-143.07
-75.24
127.01
182.74
28.711
-73.793
-159.5
-51.085
246.73
202.41
-123.3
-95.193
111.01
58.145
-89.808
-75.911
138.04
79.968
-84.79
-93.582
140.83
-4.0592
-127.58
-67.586
171.48
88.268
-5.9919
-132.2
35.033
84.823
-1.2743
-93.198
-104.88
94.115
56.845
4.2884
-127.1
2.8721
95.679
1.8974
-69.231
-87.222
85.098
65.117
30.753
-126.27
-83.71
93.951
45.637
-43.743
-136.06
75.205
88.737
19.594
-130.19
-85.292
156.9
84.552
-8.6137
-175.09
-4.3872
107.9
44.312
-80.356
-67.887
138.11
67.872
2.6589
-197.58
-13.599
136.91
89.424
-33.228
-129.52
79.317
50.932
6.5557
-132.18
16.733
95.401
39.622
-60.739
-130.79
83.491
63.21
-0.31051
-141.11
6.5369
106.55
57.559
-86.377
-107.2
7.3697
44.338
-64.695
24.767
123.58
-11.603
38.688
4.5184
70.849
54.425
21.17
100.81
-348.08
-51.806
137.29
105.8
-297.51
-30.045
321.46
244.86
-380.73
-209.33
144.68
115.18
-139.42
-83.432
79.913
-5.2317
25.22
-49.425
35.671
-14.954
7.0819
-10.976
28.364
90.673
-0.72992
-75.974
-38.816
164.88
48.765
-28.184
-270.48
18.302
235.67
149.86
22.453
-144.8
-36.182
-146.74
-133.29
-73.103
135.06
194.05
-178.03
-109.49
393.03
-43.12
-127.42
5.9705
72.157
-75.277
-7.1491
91.995
26.065
-105.77
-18.056
88.738
27.45
-77.707
-30.828
61.772
9.218
-69.435
-51.405
83.286
26.241
-16.156
-110.18
47.199
55.198
23.117
-74.606
-20.232
68.251
23.062
-62.176
-77.59
78.917
40.94
31.622
-91.222
-15.686
72.964
33.661
-56.718
-69.403
43.169
27.131
53.051
-84.574
10.877
81.823
4.36
-22.312
-104.19
33.756
65.362
15.819
-73.438
-42.024
87.475
55.327
22.834
70.775
206.75
-26.228
-474.14
-229.54
269.59
365.89
-191.45
-213.88
-96.641
153.57
99.295
-128.1
-36.775
57.261
2.8293
62.319
-27.984
52.452
28.134
19.173
93.777
44.51
-256.16
96.916
181.22
-161.95
75.139
-71.69
-131
-206.93
76.905
41.753
68.752
-49.458
-68.04
38.762
21.213
63.872
4.8175
82.965
-77.704
4.1417
-73.771
-0.99328
118.12
61.21
-39.58
-92.196
105.51
82.804
19.416
-113.55
-21.274
102.37
27.152
-25.132
-90.228
60.649
48.051
64.296
41.127
100.37
183.06
-32.829
-263.9
-457.7
-183.91
236.13
80.799
-15.44
-231.7
-61.861
215.74
112.93
-76.65
31.815
47.52
71.343
-33.448
72.158
209.03
67.325
-83.748
-19.274
-18.226
-13.182
35.949
-76.934
117.13
124.05
81.889
151.14
-94.232
-339.03
-285.37
-137.78
89.348
150.33
0.51739
9.948
-25.002
66.902
164.26
-24.952
-183.81
1.7754
11.645
4.4776
-84.142
47.993
27.233
13.992
-74.765
-4.8096
88.578
28.733
-35.597
-63.031
45.22
26.925
3.6686
-75.672
28.683
84.882
70.133
-163.36
-73.518
90.295
111.58
-130.52
-141.55
53.539
-79.46
-85.076
-3.1991
74.107
198.34
52.713
-214.57
54.866
183.83
133.08
-165.7
-52.682
239.4
34.446
-115.99
-178.15
98.495
123.6
-69.434
-68.771
54.294
1.2792
-48.472
-109.16
115.96
115.4
16.564
1.009
-11.291
-71.269
-152.82
-52.186
159.55
73.457
91.474
-159.05
63.239
142.71
-135.13
-54.798
59.982
1.7002
6.5336
114.62
58.823
-90.06
-214.9
36.093
-65.498
-108.48
-47.327
-28.954
219.8
-12.501
-129.37
-21.406
138.63
75.6
-76.833
-82.508
51.288
53.999
-116.62
2.1533
248.55
128.38
-243.53
-183.95
84.667
111.46
-44.066
-89.783
97.211
78.044
-42.38
-99.646
69.932
56.886
15.38
-86.848
-56.88
77.672
41.643
-13.159
-79.598
18.647
22.867
-102.04
-265.54
-73.004
450.04
140.19
-264.8
-44.996
175.94
139.07
-42.671
-40.68
-191.29
411.11
126.51
-115.67
-76.093
-31.33
49.902
-2.2375
-130.46
-121.88
39.316
18.059
-62.265
-54.407
-5.8011
-22.152
-23.653
-98.565
2.4098
-83.321
35.465
92.104
26.807
140.19
11.305
-3.4743
-41.463
-44.454
61.354
24.994
-24.679
-27.398
-34.642
72.181
33.498
-4.3962
-104.03
-44.389
35.645
146.06
-30.241
-62.465
116.23
51.707
-26.476
-27.643
-119.63
64.467
63.631
-2.7452
-55.376
-81.381
60.5
45.118
29.965
-76.357
-52.669
27.248
32.026
-157.67
-127.24
163.53
145.47
217.64
-103.54
-120.51
32.085
43.095
-8.4673
-101.62
-58.121
79.512
33.525
-30.303
-173.37
-11.085
229.02
110.8
-49.85
-184.45
-67.063
177.58
88.497
-39.91
-145.62
4.3818
-8.5254
19.114
155.9
-25.692
47.642
-27.87
-53.321
-98.017
-2.7574
54.64
13.235
-76.434
-63.084
68.88
10.842
-54.7
-310.93
130.58
221.6
101.54
128.65
-75.195
-102.61
77.927
75.847
-79.015
-28.276
53.608
9.1581
-14.717
-82.287
-47.019
-88.99
-37.108
86.123
126.59
65.444
-12.56
-15.509
-137.56
-62.871
-64.3
229.81
121.95
-81.36
-59.111
5.2926
-0.030084
-23.54
-59.826
4.0248
56.118
16.834
-39.201
-60.272
66.582
37.041
-16.943
-164.48
-157.23
246.81
-46.144
6.4576
132.78
49.168
74.502
9.052
-91.181
-122.2
0.59333
49.813
32.699
-70.613
-55.354
-4.0947
79.069
43.059
-223.97
152.55
273.06
-69.549
-24.663
-111.21
-23.859
65.524
11.801
-58.37
-64.087
64.223
26.835
-0.60143
-140.08
-133.39
128.11
21.438
183.99
0.29425
-13.647
-41.175
-2.826
-46.876
-68.487
54.677
19.539
-14.11
-180.52
-61.088
149.24
53.302
-65.14
-69.724
261.66
125.13
-86.456
-113.16
-59.978
126.89
27.96
-2.5481
-84.444
-5.9547
50.23
12.283
-41.801
-53.645
50.996
-75.025
-33.88
-32.276
-147.63
299.33
117.77
-75.794
-98.504
23.071
52.531
-31.644
-105.17
32.048
94.117
22.145
-71.978
-212.48
33.33
205.88
-65.814
-21.933
109.14
118.31
-17.253
-119.99
-55.344
102.88
36.262
-0.010453
-107.56
-30.198
-77.392
43.948
-6.7227
-54.578
223.45
38.813
-135.02
-112.35
-73.822
61.727
234.22
13.753
-66.681
-42.971
46.178
40.898
-86.407
29.472
39.652
11.166
-78.611
-27.489
40.662
1.1864
-118.14
-30.438
-74.146
43.61
238.52
-47.165
-13.98
73.102
18.498
-31.657
-101.28
-0.78289
8.5421
-24.329
-161.41
-120.39
193.94
26.452
-67.517
-23.766
55.741
75.081
-51.114
-31.296
82.226
187.44
342.02
-15.727
-266.23
-28.777
54.339
-129.3
-193.71
117.53
105.76
2.4288
-101.59
-154.57
68.14
84.616
4.0655
-67.577
13.203
12.724
-12.019
-96.811
14.063
98.014
37.993
-27.371
-121.89
-30.925
20.503
36.95
-67.738
-97.172
211.62
139.71
-17.498
-73.238
-1.9629
68.39
15.592
-88.821
-101.68
-22.442
65.47
73.059
-38.051
44.451
16.748
-20.149
-62.148
-52.775
-70.938
19.61
-4.2658
-184.42
243.84
232.49
57.984
-54.641
-4.1742
94.979
30.742
-79.175
-344.22
215.13
100.01
-119.84
-160.34
68.82
143.17
3.2489
-44.424
-93.237
52.15
57.707
22.015
-80.118
-79.647
-66.445
50.271
130.13
-293.42
70.579
218.61
76.321
8.4838
-11.633
-24.948
-44.709
-1.6577
-61.311
22.255
-47.148
-46.281
8.8112
81.561
37.091
-101.68
0.43508
66.35
-44.485
-59.511
219.18
-9.9139
-162.73
8.717
177.97
-80.701
-119.65
54.975
73.209
21.331
-41.705
-56.01
63.212
37.703
-110.06
67.488
176.92
-225.82
5.6671
135.57
-45.636
-26.208
-31.94
-146.96
-30.938
-22.777
-68.724
-6.1954
124.82
-54.785
19.981
111.11
73.085
-16.812
-19.515
185.4
105.59
-185.32
-170.57
189.28
179.82
-215.34
-96.081
-54.34
121.05
51.525
-32.946
34.907
12.26
-86.045
9.3174
72.978
-6.9121
-36.217
-41.879
-120.19
121.34
9.2349
-14.777
14.693
-40.454
11.519
21.762
28.278
-53.044
88.447
84.41
-108.33
-87.125
4.4978
66.689
63.034
-18.311
-212.54
61.169
82.08
-28.012
-10.121
87.004
62.791
-81.882
-143.46
53.67
20.789
-2.9201
-48.575
30.934
-29.162
-0.59676
71.691
46.453
-91.542
-34.667
87.15
21.847
-71.018
12.193
86.361
74.495
120.93
105.38
-430.41
-486.42
228.64
462.99
226.06
-401.82
-241.62
154.33
163.43
-12.972
-48.78
131.77
64.542
-49.792
94.459
121.9
-121.75
-403.3
-341.97
112.27
105.71
217.31
79.132
-6.5241
27.78
-94.42
-62.058
30.739
109.7
129.64
13.241
55.212
-63.553
-50.111
-91.287
-89.281
98.075
13.607
111.8
-121.79
17.788
118.1
-210.21
29.125
85.257
51.641
31.704
12.747
8.6312
-125.25
19.052
45.699
-0.39912
253.41
152.85
-245.23
-227.37
-51.845
16.086
0.67019
-40.468
-89.428
18.993
54.755
16.815
-78.993
-118.69
88.592
125.9
49.033
-53.94
34.321
83.401
-80.303
-164.42
-167.3
109.56
138.73
28.642
-126.86
-173.78
155.87
275.31
-108.32
17.871
-19.845
-77.031
358.74
308.71
108.94
-59.972
-208.26
-369.32
-389.84
-281.91
111.72
254.91
229.04
-170.47
17.633
125.6
30.354
93.543
-97.553
-42.152
31.765
113.79
18.466
-48.759
13.536
66.244
1.7578
-114.73
-5.0364
30.447
66.071
49.115
-33.255
-90.581
83.092
43.033
62.789
-22.248
-125.81
-29.138
-10.927
-10.609
-84.589
-5.7936
54.637
117.49
-0.24531
-120.34
-51.025
241.14
31.343
7.9394
-72.141
-30.261
75.501
-48.827
-103.68
-29.608
84.178
-8.7653
-18.13
-40.019
34.727
20.492
-56.48
-41.439
-21.971
50.848
21.9
5.77
-90.191
-100.73
-41.417
66.929
78.654
-16.798
59.169
27.322
21.67
-69.121
-4.212
82.205
50.066
-6.542
-73.307
87.523
35.968
24.081
-67.364
-76.636
31.751
45.681
-23.215
-74.161
-30.207
211
257.49
-77.214
-386.01
-74.224
-3.3333
104.97
99.741
-9.289
13.534
60.431
-85.558
-117.96
-17.468
32.589
73.929
47.729
-39.415
-12.967
15.735
13.069
-78.18
-0.63159
150.9
122.37
-130
-109.43
114.43
76.158
174.09
-229.63
-138.63
264.12
-136.15
-132.14
-69.074
120.05
17.476
-198.47
4.8521
142.65
5.0056
37.258
-14.99
55.958
125.09
-166.92
-188.7
58.109
107.82
-134.11
-91.196
167.45
33.084
213.73
-313.95
-302.46
197.5
91.971
-48.026
-96.777
67.095
139.67
350.75
84.986
-247.11
-141.9
-92.426
45.491
-7.614
48.313
-38.888
14.774
-95.72
-11.528
35.704
25.587
75.758
-32.889
-38.362
-15.139
37.019
-43.756
23.892
39.168
33.126
-95.888
-85.9
-105.73
-60.505
292.63
40.432
50.445
-2.4294
-27.758
27.786
-16.316
-7.5297
-25.646
-116.51
42.244
173.04
111.49
-15.449
-187.57
-43.955
35.597
55.536
101.46
-64.328
-124.64
-29.594
43.179
30.921
-38.222
10.71
24.804
-46.464
7.1309
-23.252
-104.05
29.016
27.213
-30.857
78.186
76.217
12.641
-148.92
-85.391
-7.4116
135.1
141.73
-20.536
3.132
71.845
28.125
-59.567
-83.427
66.059
58.596
-2.7289
-71.283
18.298
63.675
34.737
-61.706
-28.483
167.12
9.1182
-99.391
86.311
19.005
-79.872
-128.53
-69.375
-34.402
-1.9531
-188.14
29.275
280.85
63.959
-12.321
-293.34
-65.007
233.21
47.854
-83.832
-166
187.09
4.5881
40.982
-102.97
-23.028
38.474
-216.6
116.27
116.24
57.459
-81.331
12.357
19.667
-122.94
59.093
135.73
50.845
-32.454
-52.959
45.119
91.502
157.56
-86.918
-152.57
30.159
78.077
-94.86
45.641
92.997
-137.97
-122.31
38.478
-7.7027
63.251
99.745
-129.05
92.836
-35.611
-153.11
58.277
75.563
9.9776
-76.669
13.421
-45.663
-96.283
-5.7097
-61.347
221.59
-94.921
179.23
74.022
-76.78
-43.568
-104.52
-230.72
-22.955
209.42
75.379
-81.353
78.421
-19.616
-14.372
105.98
38.906
-12.646
-113.35
-61.397
13.031
130.1
123.32
96.967
34.766
-114.8
-43.03
-89.894
-15.262
-104.27
153.57
55.782
-130.74
-31.8
-10.811
-35.056
32.718
27.749
22.912
61
-105.43
21.596
-7.6029
-9.2786
