10.226
-51.173
64.834
57.055
-41.419
-90.898
37.107
143.53
-30.458
-139.76
-119.59
-64.102
12.185
144.1
47.421
-2.5631
27.35
-90.499
-22.907
-6.9103
48.114
-21.242
6.9108
114.1
98.497
-13.624
-73.696
2.2382
26.392
82.877
-90.416
-145.08
-152.5
-50.613
203.31
71.259
24.106
107.48
-21.037
-184.42
-62.642
62.231
-13.939
-116.69
181.89
144.2
-98.659
-27.3
-89.082
76.467
95.409
-152.11
157.84
-44.951
-74.831
28.557
-47.445
123.29
34.085
-125.52
-93.621
-17.593
60.337
-23.697
-95.703
145.85
43.522
-34.809
67.016
-97.712
17.371
79.599
-45.358
-55.728
3.5034
-11.504
38.705
68.857
-11.274
-82.077
40.412
41.499
-37.619
-21.16
-110.6
16.72
178.5
18.185
-3.6164
-18.961
-59.223
48.113
-46.406
-60.351
123.75
93.534
-139.03
-16.374
-58.305
62.555
-44.939
20.004
117.72
-98.045
11.433
47.909
-183.38
64.315
100.96
-25.001
4.8153
-154.28
59.648
40.7
-74.663
167.45
-40.526
-117.8
174.39
-58.432
-63.505
-54.348
80.7
120.98
-58.221
-122.56
6.1534
66.372
-3.2794
11.435
16.733
-4.8592
-55.132
103.91
226.8
-154.48
13.756
-75.955
-70.779
-31.143
80.241
-38.412
-40.436
-12.131
-2.8331
44.833
-106.56
-147.5
66.167
122.92
125.66
-0.98503
-122.2
-14.833
146.64
12.324
-116.38
-164.61
-42.516
135.91
211.59
123.56
-90.905
-39.273
-81.339
16.108
56.071
-83.654
10.559
-21.215
-2.4645
-9.4125
96.712
-117.7
-52.767
148.03
76.937
-67.83
-29.8
-114.53
-62.364
43.921
199.4
-81.089
-31.744
-57.837
-25.467
111.83
50.682
-132.03
50.991
52.554
8.352
-83.067
-51.172
-26.13
98.774
75.21
-71.369
6.5267
-21.194
-28.975
6.0702
136.32
-143.23
-58.162
56.634
62.017
32.385
-74.321
-23.237
14.3
72.932
58.483
-58.007
-67.347
119.64
-76.591
-18.237
7.1809
-47.95
-64.092
11.949
238.89
-54.037
-142.34
-5.1163
74.183
91.364
3.8132
-125.82
-182.23
30.001
219.59
16.422
-105.65
-3.6218
74.191
-9.8778
-63.716
12.443
62.503
-23.684
-56.78
169.45
-72.184
-109.02
-0.85723
-29.576
23.489
0.36307
23.921
134.46
185.06
7.6896
-143.66
-92.002
-39.313
-58.519
-12.282
35.77
45.229
-9.9803
-11.55
52.871
-31.429
-155.52
-124.58
165.2
153.29
-27.077
-32.805
-92.868
-44.641
83.191
49.898
95.5
-175.22
3.1113
169.75
69.556
3.6772
-143.77
-179.14
57.199
92.272
119.15
116.89
-163.14
-92.188
-7.2132
139.58
-71.743
-115.3
5.3897
49.254
15.419
72.445
25.576
-69.85
-36.59
102.27
77.41
-61.879
-85.882
-11.544
-87.57
36.363
70.525
142.97
186.9
-185.18
-160.51
-64.432
-114.52
33.024
98.449
-77.359
102.69
-32.833
-210.63
102.4
115.69
55.481
103.58
22.438
-130.41
-45.551
44.207
19.125
-16.664
-69.942
12.774
39.516
42.698
-36.547
-57.31
51.512
107.85
36.525
-76.29
-111.14
67.735
-31.36
91.42
-63.365
-60.774
89.187
3.1357
-8.1645
-14.97
109.02
-124.33
-90.344
88.691
9.675
-35.231
23.248
-118.41
137.22
30.018
-66.711
-10.51
-16.321
-52.37
-18.379
48.328
152.04
-98.29
18.923
-133.56
-123.75
159.77
107.24
34.948
-23.777
66.972
204.54
-18.559
-315.97
-35.17
164.85
10.419
-163.25
110.28
59.794
-79.344
21.755
-7.568
-39.95
-56.322
16.294
40.487
17.426
14.17
-36.475
-47.641
24.801
16.978
3.3639
-89.081
-69.046
107.29
167.09
101.6
-49.847
-144.81
51.371
-58.766
18.317
-9.3766
-55.077
69.085
-56.611
30.137
84.302
-186.11
27.573
55.141
-35.236
-113.14
-44.081
147.37
90.301
-6.1433
-56.459
69.93
-99.515
-15.027
45.469
-3.3361
-113.6
10.166
276.04
-53.472
52.237
-138.1
-50.051
169.82
-81.444
-21.311
-22.97
-59.156
71.822
84.541
-18.31
-70.933
13.583
-10.363
0.18439
-179.49
210.44
171.95
-25.299
-56.407
-200.1
6.5583
-34.668
-40.279
65.25
138.85
17.323
-14.11
8.3929
-69.482
-42.942
17.002
-72.218
-32.84
37.389
247.14
137.71
-162.06
-151.89
-163.28
86.143
73.897
11.233
-29.572
106.67
48.123
-81.555
-63.231
49.97
-131.56
-95.281
16.383
74.184
58.985
58.709
-111.88
106.7
41.331
49.596
46.204
-204.61
-103.62
149.13
129.3
89.006
-177.05
-73.34
65.569
-42.337
88.074
43.847
-54.572
7.3843
52.906
50.66
-173.56
-88.774
7.4603
128.41
67.701
12.206
-132.78
-84.095
108.95
38.229
-34.71
46.964
-51.393
54.244
40.897
-32.583
-34.752
-48.969
-45.468
-7.9589
69.42
23.414
-127.18
-54.171
418.46
140.41
-372.69
-183.5
-42.963
49.499
25.088
61.734
133.16
-42.943
77.172
-67.864
-52.198
76.859
-20.828
-87.54
-41.848
116
84.476
-144.29
-134.02
44.85
200.19
55.534
-201.73
-63.707
124.08
0.18868
33.539
70.667
-129.56
60.334
13.21
-16.918
179.58
-56.544
13.752
-171.84
-30.388
97.503
-23.807
-145.25
36.141
88.467
-42.129
84.708
-52.636
-17.036
35.645
-11.676
23.029
-91.552
19.575
102.17
26.113
17.241
-120.56
-89.386
41.344
38.224
39.724
-26.829
69.85
24.564
-3.8636
-40.178
-103.94
-53.599
-20.898
64.959
176.64
-114.79
-65.336
124.47
7.8626
-22.871
180.32
-104.69
-164.79
-93.491
127.78
39.269
-46.086
66.942
1.5348
91.714
-231.98
-108.83
179.68
118.41
99.687
-164.4
-210.35
85.736
151.62
45.229
-134.94
-85.275
60.816
109.89
23.551
103.73
-142.79
-11.721
39.631
-9.7376
-79.214
-78.922
138.26
46.67
-50.574
12.392
-22.055
-83.137
-3.9488
7.4557
33.341
-54.919
85.319
40.437
13.114
-23.612
-44.344
-33.726
27.654
-34.474
-19.467
304.35
180.51
-107.02
-210.93
-109.06
-80.872
9.8001
34.994
-6.4809
-24.163
-89.945
108.39
31.904
-36.863
-133.42
76.875
104.78
177.29
-35.24
-61.521
-67.35
-200.06
117.14
256.45
107.23
-86.526
-169.02
-20.251
53.978
76.104
47.286
-117.66
-82.566
52.761
1.6133
121.86
-112.41
1.3079
26.209
-29.982
42.383
-76.918
-107.17
100.49
105.24
-81.103
-53.384
-13.143
26.733
-13.972
-6.4051
-14.179
18.141
-36.327
-19.198
-21.159
53.561
-1.5822
6.2144
-43.423
75.891
-105.52
-105.14
199.22
94.555
39.836
-37.564
-5.2276
200.86
-132.37
-101.53
-43.33
43.852
39.567
37.596
-16.752
-177.96
178.51
157.42
13.825
-270.74
-18.271
-4.1203
80.273
169.12
-248.47
-21.786
18.423
-29.813
91.341
-74.076
-70.784
-11.58
147.68
-73.588
-115.77
-136.13
148.35
310.72
111.03
-174.62
-45.699
-47.406
-44.944
71.623
-17.807
-71.208
28.383
59.252
-27.433
51.33
-78.902
-14.498
246.03
71.232
-161.45
-126.84
-30.025
-1.9734
9.3027
-37.405
4.9688
9.327
91.789
53.878
78.237
-27.439
-158.37
93.532
-66.265
-37.89
-119.96
42.574
-142
104.31
314.03
-24.016
-202.1
-36.82
64
74.402
-75.462
-47.085
171.93
82.181
7.2464
-101.58
-52.258
-65.117
193.32
-79.434
49.367
-5.4015
-118.68
17.004
132.99
1.1775
65.305
82.06
-241.21
-161.24
30.155
54.406
-52.228
-99.223
160.13
110.84
58.118
-223.67
-145.25
36.373
108.12
54.777
86.134
-0.60256
-24.711
-119.93
-9.6666
200.04
4.27
-12.854
-79.319
41.261
-57.49
20.868
-294.74
0.95241
371.12
-107.81
68.816
-147.05
125.68
50.507
-43.978
44.061
-154.62
-56.482
132.05
5.5978
154.69
4.6053
-177.39
-82.561
-3.0939
34.015
16.899
70.505
-23.969
-68.126
40.717
50.394
29.2
-159.45
-11.74
85.446
38.999
-67.843
-13.557
164.39
-12.024
-101.37
23.931
71.294
94.987
28.944
-34.679
-218.19
29.594
197.41
-90.826
-239.8
101.92
-72.693
55.73
111.1
-32.173
68.7
-38.326
-33.122
22.45
0.6117
117.24
-147.98
-183.29
-57.376
143.24
110.86
69.103
-257.95
36.622
228.33
18.866
-33.691
34.61
-31.977
21.831
-120.26
-90.222
35.504
189.86
11.014
-195.83
7.9282
-27.348
14.062
40.721
43.43
15.766
-11.22
-13.629
-99.208
-119.6
241.4
188.22
54.503
-111.22
-45.216
-87.61
-181.3
4.3437
213.75
97.991
-25.683
-318.17
-40.521
154.45
72.687
-58.598
-1.9771
21.417
96.344
12.898
-130
14.591
93.281
43.857
-37.721
-112.19
20.794
98.414
13.609
101.83
-59.981
-96.05
-26.016
-1.9422
19.675
-101.12
-4.6412
173.8
-106.85
34.635
-63.085
-16.622
287.13
-14.105
-290.92
122.01
69.497
-67.993
69.288
-63.597
-59.255
-133.5
9.4923
33.694
-37.571
48.82
-70.654
15.676
80.3
5.5881
66.479
76.728
-142.14
-65.57
147.28
-29.914
158.58
25.097
-113
4.1028
39.274
-8.7012
-11.872
-21.168
45.984
-26.046
-5.6203
42.356
-87.335
-42.02
70.21
13.021
-13.353
1.1012
-34.263
57.297
-49.398
-58.976
52.971
-64.069
49.906
32.437
-41.854
-49.938
18.715
71.841
-27.975
-24.596
-48.28
-133.87
43.024
140.6
170.53
-167.93
-147.26
155.54
78.717
10.3
-163.16
8.0793
130.73
-0.55544
-140.65
-61.343
227.95
84.986
-22.067
-18.009
-68.154
-33.934
137.65
-101.97
-146.86
90.189
42.469
36.566
24.793
-55.176
-117.26
-61.335
199.71
-33.708
-90.949
97.158
26.294
-60.353
45.458
-90.253
-147.84
-3.5887
-3.8107
86.227
222.77
-192.5
-306.71
69.844
245.61
97.135
-33.379
-29.567
23.822
30.636
1.4814
-44.483
-65.646
75.119
87.041
44.415
-69.123
-57.413
23.067
24.445
51.712
-12.32
23.928
-153.27
-89.255
-7.3711
164.43
145.2
-45.229
-29.378
-114.33
-45.959
-16.055
-160.2
-71.129
217.1
128.7
37.583
-27.06
-13.225
9.4125
6.8176
-40.968
14.148
116.16
91.712
-51.608
-80.247
-57.918
-22.575
-53.697
-24.447
35.668
16.205
-36.526
0.94685
13.97
-0.055532
-38.312
-7.1708
57.662
5.8554
-76.28
-19.567
57.177
-2.7252
-34.269
24.026
32.468
-17.08
-36.301
27.795
28.491
-29.714
-6.0293
48.576
7.5933
-42.176
32.362
40.627
1.7303
-46.129
21.467
41.955
13.482
86.81
66.403
173.21
124.1
-134.66
-125.13
-4.1281
-6.9312
-130.63
-47.126
29.145
-140.81
61.882
55.717
-258.96
24.266
17.487
-32.958
104.15
27.703
45.881
74.676
84.449
-35.876
-17.305
-49.95
-139.68
-4.7868
26.468
32.315
-21.646
160.34
-172.58
-155.5
168.18
-1.6178
-13.89
-6.0345
22.226
75.118
63.459
-123.45
-159.64
-123.75
-32.044
127.64
150.71
-43.928
-42.616
90.823
91.595
-21.775
-52.385
77.216
49.704
11.264
-69.773
44.04
-28.768
125.37
174.49
-135.41
2.6483
-76.707
-55.067
-20.686
16.439
-36.073
-90.577
-52.677
75.084
40.196
-3.9438
-79.227
-5.269
-29.686
35.155
52.936
-60.341
9.3824
187.91
-22.177
-116.44
32.913
51.563
5.4363
-50.698
17.462
26.614
20.911
-38.867
2.4972
9.1183
-58.52
-216.75
-220.26
146.17
360.95
91.076
-94.862
25.938
2.5188
31.666
-23.294
99.907
145.77
-249.75
-16.589
-103.2
-72.971
159.78
5.0737
-159.82
18.132
180.71
-19.17
-191.81
186.13
15.084
-119.95
80.993
46.319
48.852
-57.638
-31.898
-33.34
42.024
-7.9031
-32.976
32.177
-55.321
-3.307
-6.0066
110.58
55.508
-96.015
-39.82
-126.33
29.773
62.738
66.198
79.593
64.25
-147.28
-97.791
63.347
-26.9
2.1284
58.459
-1.2789
-127.08
-18.61
90.621
39.968
-111.41
-6.8203
75.155
-36.714
148.6
-24.547
-14.56
-27.772
28.296
119.08
-203.23
89.639
-39.728
-65.614
-193.45
96.95
107.94
43.184
-42.545
-77.886
-46.817
117.71
166.81
8.9832
-328.42
-35.198
-9.7596
57.441
37.971
4.8341
108.74
126.41
18.056
-85.351
-42.533
89.075
66.246
34.019
-148.08
146.19
91.033
-334.94
187.37
-7.4131
-80.824
-36.81
79.129
-113.34
-217.3
94.728
124.12
30.317
-60.194
-34.187
127.24
81.259
-14.246
-66.868
-30.841
64.7
10.772
-10.904
-45.778
16.338
35.669
-32.622
-9.9997
-34.577
32.12
71.627
-17.005
-16.727
-56.069
-40.493
34.7
20.587
-27.766
-37.952
6.6222
37.944
-16.964
15.983
-11.055
-40.997
55.398
-34.516
47.351
36.815
-27.794
-20.99
77.282
15.908
-69.998
-85.969
-37.261
73.084
66.031
-35.794
-66.848
48.877
72.095
28.886
-21.468
-84.106
-74.353
29.787
146.2
97.318
-146.08
-66.714
312.86
-0.26586
-256.11
-43.177
-79.777
-18.665
195.15
-21.823
-210.24
2.7346
119.31
65.031
55.697
-151.44
-32.444
132.41
47.528
-118.47
12.548
-60.793
126.29
90.166
-34.844
-83.146
-82.18
125.27
30.455
55.327
-93.145
-137.73
2.6999
53.174
-9.2375
126.16
-66.523
-173.97
106.19
151.25
-146.94
-58.378
144.84
6.7646
3.5326
-86.941
-52.668
4.264
18.02
51.421
93.874
82.461
-89.422
-78.859
-40.775
36.671
-120.47
-27.081
94.17
42.622
34.662
-17.159
26.557
-19.36
150.53
-1.0692
-84.592
-81.593
21.171
7.7785
44.275
-119.56
-41.854
45.518
41.728
-40.693
-69.472
171.2
52.304
-124.83
102.85
-123.83
-273.9
310.01
92.505
33.137
-79.269
-42.162
-179.58
62.197
52.736
76.584
78.424
127.69
-65.679
-89.574
54.348
-22.873
-23.22
-64.618
-96.627
7.8294
12.33
102.14
58.446
-68.314
-68.646
130.56
141.87
-122.88
-207.13
-59.96
23.403
157.15
-9.5158
-89.408
-84.311
141.46
140.63
25.291
-64.682
-128.44
-99.129
10.015
131.86
132.99
65.895
-207.81
42.838
54.506
-50.158
-63.432
55.095
45.623
-143.8
22.416
54.221
4.0796
18.456
26.388
51.031
94.936
-250.89
16.862
-38.376
-188.46
156.64
270.02
-73.677
-67.917
54.186
-7.0542
-75.55
-69.678
-39.713
-13.994
82.344
-80.769
-138.44
83.016
142.72
78.292
35.834
-23.227
4.2251
95.712
-11.035
-27.822
-102.99
39.452
51.203
37.059
-53.973
-41.561
9.871
56.08
41.259
-76.088
-4.2606
29.85
-0.31021
-31.634
-78.976
45.897
-25.719
-1.4839
-38.788
77.183
28.266
-33.954
-11.604
-33.619
0.091461
-9.5301
8.6213
86.262
-78.703
-128.42
2.5787
64.887
62.288
1.9261
-8.8354
-3.1926
74.268
-16.186
25.657
-16.867
-46.23
19.971
37.574
11.291
-72.584
-8.4914
53.309
184.24
-21.459
-161.86
15.185
-48.164
-32.141
29.747
-25.332
-45.048
51.708
-2.6804
-6.4896
81.96
-31.623
38.8
-8.7091
-138.77
17.799
-48.142
9.8327
84.067
-12.006
51.94
-336.94
112.61
428.99
112.56
-175.08
-265.82
-270.34
82.284
132.57
156.17
-42.711
-71.988
12.642
49.942
103.42
-108.81
15.186
172.67
74.157
48.824
-54.868
-123.64
-125.44
79.931
79.629
-58.392
-93.537
43.969
88.16
-12.712
-63.527
-211.44
87.384
235.08
-56.083
-134.8
32.42
115.64
-137.68
-31.025
58.428
46.831
-31.268
-20.875
12.529
68.025
-42.409
-27.685
15.331
-32.287
-1.6434
-39.427
18.735
0.65432
-3.8487
84.252
-21.725
-188.61
186.48
158.6
-157.63
-37.885
-18.45
14.063
151.8
1.6127
-3.0974
-52.851
-79.853
96.744
75.328
-44.343
-1.4017
-51.114
-15.726
81.355
-77.26
-91.346
-44.898
-14.496
58.627
-73.46
59.286
179.45
45.185
-221.91
-21.606
227.92
29.911
-226.5
7.8581
9.7175
123.67
-98.425
-117.68
161.9
-47.757
0.038804
-63.336
11.978
187.78
-5.2027
-156.29
-62.802
115.68
18.466
30.451
58.635
28.636
-164.11
-17.401
86.193
43.805
-50.723
-142.77
90.669
89.478
-55.15
63.791
83.359
-129.98
-58.322
106.61
4.7721
-161.59
-57.882
8.9976
96.459
18.357
-67.142
-29.976
-42.354
208.82
29.6
-28.006
-72.44
-106.31
126.98
23.747
10.891
57.197
-123.23
-27.124
-6.448
84.085
-88.632
-26.239
-45.154
95.107
69.083
-42.317
18.502
44.075
128.2
-149.07
-115.73
-210.9
122.95
129.86
86.135
-118.13
116.97
43.378
-152.9
111.69
-39.793
-5.1823
-49.965
53.592
-34.516
-9.9939
-27.819
-7.0004
61.564
133.68
-55.048
-136.82
8.97
129.36
14.939
41.359
-84.33
-152.96
40.478
101.74
-49.311
-120.4
73.61
195.75
74.731
-51.09
33.359
-130.55
-65.147
-75.77
-30.871
111.15
-137.63
-57.379
101.05
91.381
75.579
-52.88
27.228
-96.58
27.99
-35.939
36.451
21.431
51.847
13.855
-96.482
93.419
-136.34
-20.905
-53.559
-78.243
110.23
264.4
60.301
-135.36
-98.419
-72.897
39.565
151.6
42.918
-64.69
-106.82
29.861
65.591
120.48
-119.87
-79.399
74.468
154.17
-194.69
-156.72
280.85
-23.418
-77.194
35.845
-111.46
-80.996
65.932
80.513
-42.377
-27.1
88.052
-95.97
3.2591
-41.299
15.406
140.51
-79.057
-163.77
-124.13
15.6
208.23
167.93
-85.835
-153.86
17.996
215.63
163.21
-208.83
-107.31
181.08
50.48
69.732
-28.7
-245.04
45.005
47.55
18.391
46.177
-45.659
-47.866
-58.644
193.68
-13.504
-121.32
-76.665
85.068
-83.417
9.0367
-155.95
-28.914
207.93
29.054
25.818
32.768
-126.34
-29.58
62.658
0.55013
12.503
-50.239
51.103
45.964
20.641
-47.094
-164.34
112.35
132.43
-0.93889
-90.832
9.4249
79.511
48.089
-82.952
-190.2
-23.393
176.51
46.821
67.254
29.642
-107.53
30.218
-153.51
35.915
37.99
-92.031
-37.45
139.58
51.354
-44.487
29.864
-96.016
83.922
-40.623
-37.97
89.906
-155.88
-36.511
126.19
146.82
-39.476
-143.88
-21.333
73.104
35.485
-23.041
-24.024
63.444
33.234
-6.8607
-63.927
6.1305
-97.23
-85.362
104.96
-96.659
46.56
170.79
-62.017
-146.84
148.58
-7.3441
-0.82419
41.534
59.366
-39.853
-149.02
43.579
152.54
-32.48
-139.47
-276.13
30.074
84.067
153.39
198.67
26.754
-102.44
113.69
68.135
-115.04
-167.69
-91.815
71.337
207.9
109.11
-21.48
-94.17
-90.838
162.69
-141.35
-120.39
-73.907
182.24
-16.003
-114.1
91.115
39.642
-43.016
-95.71
0.28213
89.612
-86.688
-1.1756
125.82
92.896
-57.519
-315.94
143.85
183.17
-44.462
-28.5
-139.68
-22.393
274.21
130.51
-79.984
-65.228
-41.706
-14.968
-183.53
-10.934
-80.014
141.43
209.98
55.035
-58.274
-171.59
19.774
76.549
120.34
18.894
-163.94
23.7
21.881
-80.308
-56.754
-85.327
13.837
160.52
97.222
-27.878
-111.24
100.27
-35.392
-30.754
8.0615
-113.92
79.671
57.523
-116.5
33.258
-71.301
95.685
29.477
-18.884
11.628
-175.12
184.01
129.71
-17.417
-76.653
-92.488
-114.91
66.408
7.7535
-66.332
95.642
-20.038
-2.0193
86.542
116.61
77.773
-202.3
143.21
20.673
-76.024
17.282
-43.738
-149.91
-59.055
96.945
-72.748
96.757
-98.168
31.352
72.283
100.66
51.532
-43.19
-73.801
71.479
-16.513
12.304
78.069
-205.56
-42.899
13.772
147.62
-92.312
-77.119
-8.8305
167.17
-5.164
-184.98
61.846
28.655
66.617
26.469
-2.1285
-39.332
-94.702
156.38
-37.458
-131.96
-135.55
-117.46
143.38
146.67
83.114
75.865
-55.515
-111
139.22
45.443
-81.635
-125.86
-23.776
137.24
35.17
107.56
-0.34678
-116.96
-2.4255
12.819
-14.545
-35.243
64.938
5.6834
-19.128
-59.949
-53.701
62.358
42.373
-47.137
-35.75
-28.622
47.55
16.529
18.359
-83.304
-105.97
54.67
63.872
32.073
-19.012
-12.864
38.503
42.154
74.935
-65.093
-16.327
176.83
-93.005
-165.77
-0.54496
31.333
-24.655
-77.239
62.238
96.16
-59.325
-85.62
94.514
34.561
-88.855
118.78
21.876
-109.69
61.958
-20.617
33.494
122.69
127.27
62.612
-401.39
-202.98
180.39
6.4391
66.224
-80.621
-4.4216
191.69
21.453
-54.698
-84.503
81.821
-64.392
-97.55
97.598
-64.312
-25.158
-36.056
85.727
69.895
-66.202
-179.8
41.715
184.52
26.694
118.57
-5.9963
-87.576
-33.703
-118.46
69.524
65.39
-22.103
15.249
-14.499
-53.461
-154.62
248.92
-12.513
-59.222
-66.466
-41.585
77.687
75.867
-75.755
19.554
39.511
-4.0823
-54.143
-27.972
16.683
41.093
19.951
-4.1939
-15.216
118.29
78.463
-145.67
-174.26
58.83
26.52
-60.897
38.175
5.872
114.15
60.149
-42.838
-73.718
41.77
106.43
-175.14
-107.32
48.699
20.677
118.99
51.411
-1.8047
-153.67
80.119
53.783
-231.66
152.43
-47.698
-30.022
123.69
-38.428
-96.024
-19.224
93.693
77.442
54.745
-119.17
-129.6
142.87
88.85
-36.678
-37.176
-17.393
106.46
-16.291
-39.467
-76.892
-66.368
125.31
-23.94
57.429
-73.514
-134.53
93.616
232.58
3.2012
-171.16
-172.2
-46.472
102.44
77.652
89.483
48.012
-161.63
-122.62
90.618
63.091
-25.635
-86.838
-25.786
9.8177
143.17
78.885
-85.999
-60.054
23.997
16.759
19.818
-22.173
15.292
23.246
-18.268
-2.6272
49.547
-11.05
-21.035
35.972
45.495
-52.79
-66.62
29.771
4.8706
9.9476
110.92
22.335
-219.75
-77.616
71.182
26.729
49.69
-92.254
-78.235
38.844
73.41
71.543
-8.7323
-17.762
52.459
-48.88
17.376
21.179
-116.64
101.92
67.865
-7.2274
12.626
-228.82
22.958
76.142
-5.4437
73.266
48.534
-143.23
-4.0708
34.155
23.578
-27.88
-20.252
49.954
54.719
19.303
-3.9993
41.642
171.17
-65.563
-250.51
67.981
8.5207
13.114
8.5135
-55.856
-12.558
-97.136
53.647
24.096
120.81
-23.713
-72.298
30.918
-192.78
75.692
22.765
-86.228
-8.688
96.876
27.41
-0.87337
-49.684
91.052
111.23
-103.68
-86.377
49.67
-38.986
75.63
139.25
-133.38
-12.505
67.621
103.11
-183.95
-35.154
133.33
-144.32
-11.279
95.847
-98.022
6.9713
-87.609
189.22
95.594
-49.895
-43.156
-49.83
12.553
-23.484
31.288
-42.523
-98.077
209.48
74.506
-217.67
-70.164
36.733
97.612
-96.341
1.06
115.4
-103.66
14.764
50.045
15.798
114.21
-63.586
-172.06
79.526
-32.921
35.119
26.224
-28.32
77.928
64.388
-15.906
-179.2
1.5733
88.258
62.306
4.972
-53.131
-109.5
-12.038
15.475
227.03
82.053
-135.61
-80.589
-14.103
-5.935
1.3168
64.171
138.92
14.779
-161.74
-47.57
-50.711
-25.959
53.623
95.448
-41.889
-68.222
-56.112
-6.3908
104.25
-33.961
-3.0783
-36.549
67.717
72.045
-53.95
-112.31
151.21
110.35
-122.7
40.664
-89.403
27.223
84.663
-74.966
-70.885
19.427
33.302
4.2581
26.779
-25.784
-63.042
51.708
-32.491
63.453
110.47
-117.87
-90.449
55.896
-4.9323
195.52
-182.26
-93.991
-11.21
35.205
59.238
-105.13
13.966
95.233
10.153
5.2608
-179.29
150.1
-30.762
-24.209
10.09
3.7387
220.3
-69.95
-27.602
5.6276
95.45
90.878
-111.14
-194.87
92.055
-54.459
89.323
40.497
-46.888
-46.167
-120.91
47.267
60.177
19.925
-52.834
14.52
41.961
-2.6262
-96.262
56.317
-11.666
54.447
111.12
-72.91
-166.4
-45.688
60.347
232.36
48.976
-89.745
-59.119
-149.84
-32.235
71.025
120.58
99.693
-218.7
-46.291
66.41
-59.574
109.93
45.521
29.647
29.04
-101.4
-242.98
-24.841
147.03
76.8
-9.2097
-24.261
69.139
55.695
-14.088
58.699
60.09
-113.87
30.286
148.09
-59.76
-227.16
-25.082
98.374
26.139
16.129
-48.037
-46.393
-54.938
43.812
71.394
104.77
-30.203
-50.215
48.916
-56.626
7.8158
7.4532
10.79
-28.799
-88.731
-14.411
45.67
12.099
1.0847
-97.894
-28.97
126.55
-39.914
45.398
-114.42
21.18
110.83
56.892
-111.92
-7.212
102.33
8.2395
56.186
-113.53
-138.47
80.618
58.167
45.432
-20.039
46.923
75.897
-88.734
-74.163
-46.924
54.808
70.634
-64.42
-76.114
66.702
85.141
63.412
-94.38
-114.75
102.02
61.002
-43.368
-45.506
-66.681
-12.073
144.49
-21.302
-90.658
-18.888
-71.203
58.305
62.875
-4.8474
-19.36
-76.905
38.828
16.389
38.205
29.811
-35.842
0.7628
-7.0961
28.52
23.586
-52.888
46.984
11.047
60.741
157.16
-59.136
-112.58
-104.46
213.1
1.7417
-140.85
21.379
-58.539
-16.532
-113.89
-5.0835
26.305
31.767
129.96
-77.839
-154.73
-29.641
56.746
126.71
157.11
-275.91
12.123
88.512
85.576
151.49
-139.15
-23.58
114.45
58.987
-22.616
-217
-11.951
-7.4002
-45.955
113.43
-55.114
28.63
129.36
-9.8835
-230.45
-20.028
126.2
13.04
-95.673
32.669
46.815
-52.569
-2.5436
71.269
100.64
6.2727
-16.759
-16.532
-11.878
-2.9552
-36.023
-33.489
-34.501
-12.006
23.076
16.448
-93.678
-19.548
64.715
76.813
-41.293
-40.093
12.416
46.639
22.36
-5.4282
105.07
-174.08
-27.295
31.891
-117.84
-22.803
56.421
60.981
113.15
21.294
-5.706
21.16
-68.977
-43.641
78.58
12.437
-63.201
-2.5405
-48.006
-73.179
-44.885
176.29
165.23
-20.724
-43.371
116.83
5.328
-288.26
-97.986
53.821
-41.854
74.394
144.96
7.1655
33.466
49.13
-63.741
-91.666
153.96
-89.072
-168.34
35.465
115.54
-1.4105
-1.4873
-80.413
29.369
38.964
128.02
-51.962
-99.266
-23.51
132.2
72.482
-11.728
-69.548
-182.7
75.587
-19.881
34.224
-24.866
5.2631
40.728
40.103
-121.63
-108.23
-14.448
141.3
145.49
-170.27
-120.6
113.96
-7.2349
74.111
185.74
-34.537
-236.22
205.86
-82.604
-71.988
79.792
-107.46
-11.349
48.413
-45.669
-0.56984
243.36
20.458
-105.15
-175.36
14.406
-5.0307
21.671
45.524
19.863
63.222
-45.696
-126.52
-87.231
22.545
169.41
-74.758
28.829
127.76
-147.81
13.279
81.103
-51.898
4.2895
60.489
-163.29
23.325
66.524
14.139
-99.136
47.716
7.7103
65.687
101.27
26.306
-38.42
-26.737
-23.596
77.682
-91.479
-98.625
-22.436
-89.494
112.79
211.88
-71.643
-106.6
-0.95453
74.437
-25.871
37.557
-94.198
-62.092
92.391
130.45
-84.904
-166.69
-135.48
45.31
138.52
235.05
51.405
-126.05
-48.654
70.184
-29.634
-104.23
-40.875
84.232
146.59
-138.59
-285.36
-3.0126
158.54
21.496
-73.242
-125.29
133.02
180.69
44.469
11.757
-24.76
89.161
-47.342
66.654
5.3109
-23.031
27.719
-177.46
65.488
82.584
-140.17
25.242
104.83
-127.8
-88.524
10.402
123.32
-64.434
-43.038
33.073
40.817
117.96
-118.02
-77.256
-125.96
88.904
246.06
-142.47
-57.867
78.358
-9.221
-23.928
-135.19
92.903
140.53
-83.331
-36.292
-46.328
57.804
37.212
6.4959
36.306
-126.85
36.637
152.72
-42.353
12.058
-100.93
-16.785
67.598
-12.806
-5.3026
-136.43
-44.113
103.82
7.5714
-181.9
120.03
-68.878
115.1
150.22
8.2056
-73.578
-29.491
-24.502
-67.94
-93.331
185.49
53.594
40.143
-189.96
-124.01
70.424
156.89
110.01
-201
3.4509
94.3
19.995
149.19
-128.62
-91.744
146.16
18.087
-116.76
-108.24
-17.598
87.949
169.23
-92.741
51.072
-110.12
-140.34
153.06
3.0924
63.284
47.29
-26.721
59.565
-36.39
-152.91
-90.437
109.68
31.626
40.678
-54.154
-50.713
-30.566
33.167
0.22277
-104.4
-25.569
135.4
31.655
17.503
53.057
-68.955
-30.035
36.987
6.2093
43.204
-67.284
82.163
24.758
-0.69074
-39.06
-19.903
75.212
-46.726
61.653
-136.75
-142.59
-5.4487
146.6
77.857
-86.848
130.8
-89.099
-32.944
36.994
-12.746
-51.678
-20.026
7.5471
73.358
155.85
-272.8
-46.986
171.73
-2.1029
28.937
-48.841
-56.086
79.072
40.514
-1.197
-52.058
-10.678
93.558
-83.573
-80.272
-2.986
162.19
48.184
-70.391
-71.804
-123.14
90.189
58.684
-41.772
-66.887
-54.825
42.949
176.54
-1.1032
-23.941
27.079
85.861
-19.518
-126.77
-102.48
-9.2903
171.88
-43.635
-103.56
-107.18
157.81
137.27
65.654
-155.77
-83.743
-111.47
97.638
28.093
9.4596
71.41
-14.858
-221.17
227.43
272.25
-298.17
-55.466
-2.5294
33.087
63.159
75.3
-243.5
-184.99
158.79
13.986
35.054
138.86
41.511
68.626
-43.356
-66.185
-34.98
-48.044
18.285
-37.023
-4.4616
85.134
56.77
0.98802
-65.91
17.244
64.126
41.071
-49.014
-4.4456
35.285
-13.527
-67.457
-111.66
135.63
264.5
-107.82
-19.376
0.062513
-185.9
17.229
119.54
-172.92
81.311
44.303
-69.783
-34.637
-33.482
-41.549
-2.6521
24.424
-14.46
-34.626
12.712
32.313
-3.7142
-39.844
29.98
46.131
5.6132
-38.673
12.238
40.026
0.57099
-27.469
15.708
23.024
-17.836
-25.755
27.883
22.999
-32.034
-17.639
28.383
-0.90837
-82.836
-7.3529
3.2305
197.54
136.89
17.089
-70.548
-141.92
20.61
72.592
-109.12
33.722
-85.639
-50.132
132.66
-62.382
-29.196
-126.94
63.095
18.274
14.405
45.057
116.76
-34.367
-140.95
52.475
42.349
221.49
78.74
-159.95
-198.88
35.548
-23.01
-25.267
25.794
-41.408
-46.746
28.74
47.818
43.793
-30.814
-12.359
45.115
43.505
-2.2032
47.973
173.49
-245.5
-95.015
11.155
51.83
23.379
-45.505
15.401
306.34
71.158
-157.46
-145.77
27.468
20.655
10.778
-71.816
-64.855
-22.921
-6.8908
58.418
-27.948
22.651
3.094
203.88
-62.08
-58.533
15.694
-251.97
-13.739
-78.767
135.03
142.15
53.947
-135.68
-198.39
96.811
78.97
-140.59
-2.9719
183.95
172.5
-75.313
-62.647
87.675
92.147
-116.34
-84.791
-8.8391
74.845
25.848
-64.821
-14.307
18.481
-4.2377
-30.01
-17.891
7.2622
2.6888
-29.767
36.003
85
-50.765
-91.434
11.69
43.37
-7.7941
-34.327
2.5559
120.64
11.496
47.119
-112.64
-89.9
39.605
7.7524
7.0224
-3.1726
131.01
8.5925
-37.598
-99.747
116.53
-22.864
-136.1
15.739
160.97
-111.35
-60.552
75.849
63.202
70.707
-153.78
-13.66
79.506
-87.706
22.297
22.119
-17.878
34.267
66.763
-75.538
69.402
-83.224
-7.8487
-87.503
-59.679
238.86
11.294
-235.04
74.378
91.989
3.5669
-121.02
-9.3502
39.006
13.129
-6.5492
92.847
-20.06
-60.942
19.023
14.055
37.369
-41.799
-71.678
37.64
21.758
58.434
-89.467
-154.51
122.1
173.62
67.949
-159.05
-48.772
42.382
185.68
72.584
-135.43
-230.84
-23.449
133.72
10.463
22.664
46.196
-41.405
65.672
69.001
-233.51
-38.17
127.16
146.86
8.3581
103.85
-44.571
-178.34
-258.84
-55.183
117.52
35.222
154.27
13.815
-167.5
164.47
78.567
-118.57
-21.716
29.962
0.7851
31.596
13.122
-72.705
79.852
-81.859
-31.334
17.073
53.522
27.727
-202.01
-15.058
107.01
48.635
-55.72
78.796
-133.48
-83.657
248.2
105.07
-153.64
-173.12
76.323
-6.2956
64.018
50.28
-23.141
-6.5738
42.616
-21.853
-69.57
35.311
183.77
-3.0552
-82.014
2.888
0.8906
-100.26
-180.91
-59.033
390.05
37.882
-36.581
-85.833
27.088
-97.352
-158.93
108.71
152.56
-1.1351
-47.46
-45.487
46.059
76.717
15.093
17.511
-40.065
-71.888
-78.172
97.128
18.089
-86.168
-63.431
87.675
94.552
-52.337
-50.595
-76.261
92.488
40.583
-55.846
-131.1
30.849
177.18
-39.117
5.4148
-88.848
9.235
10.745
-27.995
28.96
-42.032
18.926
104.63
0.28802
-90.015
80.579
79.607
-118.4
17.204
-59.452
-130.14
91.148
234.65
41.645
-128.09
-122.85
2.1166
43.282
59.045
44.016
-112.32
-3.7414
24.119
18.127
-60.3
-111.34
33.611
134.71
-59.317
113.58
81.664
-155.95
-105.22
30.586
204.56
-70.592
-238.95
47.152
199.65
-4.2401
-44.303
-140.88
-81.938
-2.829
397.93
93.226
-100.56
-281.41
-58.021
259.62
54.104
-85.755
-74.133
92.827
-43.704
-61.164
19.304
-105.82
47.705
63.534
-73.511
62.746
57.682
56.602
-9.3278
-24.661
-95.008
-24.587
20.863
12.204
-0.5666
-30.017
-121.86
-100.45
143.73
142.68
17.061
10.984
-62.803
21.981
20.665
-1.4344
-80.222
-155.45
106.03
220.07
61.54
-206.64
49.952
210.23
-30.634
-167.62
78.607
-27.286
-156.11
-27.885
-100.8
225.11
-57.457
-144.4
172.56
148.38
-64.258
-155.97
-117.94
137.27
110.7
6.987
35.616
-73.298
-35.79
51.671
-27.558
68.31
67.198
-93.39
10.153
75.887
-17.084
9.6468
31.44
-43.525
36.526
-192.73
22.746
-25.127
-66.551
7.6913
118.96
14.912
-12.516
-98.213
46.804
-91.973
-163.95
218.65
189.18
-43.277
-75.967
-63.18
-39.645
26.347
-10.27
14.589
-62.171
41.031
81.381
-20.83
12.059
-149.66
113.74
17.883
49.778
-18.359
-50.519
124.78
-7.7424
34.39
-70.122
-55.006
83.367
-54.89
-18.838
-57.639
4.2275
-19.656
-32.47
84.226
69.979
-43.203
141.29
50.259
-91.567
-95.597
-104.3
109.91
114.83
-69.468
-102.15
-68.83
87.053
170.41
25.294
-47.759
-139.83
-10.627
276.86
-121.35
-199.86
-178.07
127.03
133.32
-47.383
13.937
-56.427
125.73
148.11
-186.33
-6.0231
38.217
-27.622
24.743
12.551
61.468
40.023
-168.12
-19.064
183.64
-81.106
-17.81
-58.51
141.95
16.613
67.875
-35.211
-219.51
-112.37
-22.664
114.84
93.7
90.427
-91.609
-94.859
35.32
62.677
-25.523
-35.969
26.324
194.06
-9.4428
-261.13
59.76
102.04
81.292
-343.94
70.104
-18.575
11.417
25.553
85.309
45.024
-5.9684
-117.87
38.396
69.264
57.113
58.97
-207.21
-54.596
11.957
138.18
16.363
-59.308
76.61
43.887
8.7048
64.576
13.955
-83.755
-184.59
-93.178
134.26
117.8
-28.07
60.98
-44.214
-90.799
-82.061
4.588
275.43
-73.489
-167.39
-48.135
37.835
193.13
60.722
-135.52
-49.639
-62.128
23.902
-36.144
37.593
18.681
32.982
10.522
20.898
28.008
-20.664
-121.39
73.437
42.236
51.361
-45.773
-289.46
226.32
159.09
-111.47
71.026
-233.96
-80.829
125.98
-45.262
86.904
-6.7726
-36.079
103.35
41.707
73.059
-94.667
-46.546
16.979
114.18
15.101
-57.618
-89.302
-38.287
124.07
27.537
-10.393
-21.398
-36.059
19.36
17.858
37.714
-119.28
-16.374
64.801
-69.549
-23.182
-82.436
-5.069
217.08
33.819
29.382
-70.002
-62.697
30.756
12.105
-38.802
90.931
-165.56
3.7981
67.564
-13.653
11.721
-130.49
-70.849
155.85
49.908
-50.605
-79.504
70.392
28.695
-54.836
-124.39
269.87
3.9696
-60.849
138.02
19.081
-157.67
-188.16
14.047
124.74
48.017
-32.501
0.95735
171.7
91.477
8.3315
-84.703
-239.59
-21.987
28.907
151.42
31.687
-168.78
142.19
-49.239
-13.364
-28.734
-65.913
14.836
22.495
33.831
96.445
-83.056
-151.1
13.945
67.932
94.727
24.977
-25.206
-165.01
35.369
99.883
67.351
-76.971
-109.31
1.3152
180.03
89.72
-49.452
-58.578
-149.62
124.86
47.521
39.289
-73.078
-114.01
46.764
65.121
-53.307
-175.08
79.868
36.52
7.1341
-9.0129
62.71
181.05
-145.48
-83.323
135.46
31.909
97.463
-36.413
-120.01
-41.748
-122.8
137.51
76.432
-9.574
-98.289
-118.19
158.18
-28.618
23.186
193.3
63.013
-203.45
-203.21
-40.234
92.478
48.659
1.3368
-130.29
60.919
98.617
-0.1121
141.61
-248.71
-100.49
56.609
246.92
85.974
-289.07
-47.88
150.16
-7.8835
-85.918
-29.177
226.65
-35.66
-112.89
-63.155
-22.944
41.079
142.95
135.26
31.487
-113.55
-24.278
37.25
-7.5385
-84.251
-33.125
-37.726
16.984
93.992
26.278
-52.76
14.846
17.222
-3.5062
-82.462
-29.933
43.412
51.708
-58.289
-145.68
113.25
69.699
92.19
-13.55
-88.603
-20.116
142.16
30.379
-170.24
-34.157
-71.132
103.84
92.702
-238.79
-140.87
62.591
175.02
67.072
30.442
4.9968
-25.003
-66.927
-136.28
60.941
203.95
7.5207
-128.72
40.664
43.855
-39.338
-178.4
73.53
105.62
188.98
22.777
-141.13
-119.06
-61.48
190.86
3.9502
-10.265
-78.228
19.21
-72.836
-107.19
-18.91
126.18
-68.545
10.164
234.37
73.235
-80.985
-224.27
17.981
-52.093
55.579
69.365
71.365
-141.07
-28
65.666
4.9535
13.531
-48.934
67.782
238.08
-198.42
-27.761
-23.521
-159.69
141.18
156.48
-16.787
-10.739
-92.094
-129.99
181.1
90.981
-17.673
-234
20.075
154.93
44.475
-118.71
-115.63
-49.452
105.88
97.3
-116.99
3.4252
-31.794
119.1
-12.727
34.515
38.103
-10.901
63.373
47.455
-0.43854
-80.699
-93.846
23.951
41.453
-14.988
-49.022
-15.944
-61.918
50.332
2.702
53.823
-51.577
-13.14
3.095
-2.7391
141.53
11.761
-142.52
34.05
-13.553
-48.158
86.778
26.921
-190.53
-63.718
185.64
80.392
54.735
-132.3
-168.32
10.037
163.29
91.279
-15.658
-116.33
-240.11
189.8
215.01
-162.55
10.352
-43.34
17.388
122.93
-61.538
-5.6862
106.02
63.979
-36.664
-29.204
-13.466
-215.7
96.6
64.978
-92.482
73.032
86.435
-0.749
0.11827
-170.47
-52.214
69.831
76.872
-50.738
8.1621
80.205
-150.18
-64.129
198.84
73.083
-79.568
-6.4067
-37.335
34.333
-75.073
150.42
-88.314
-73.652
-212.65
35.715
151.67
220.96
-133.43
-36.165
28.529
46.328
265.48
-109.44
-264.99
-106.5
192.45
74.497
85.152
-63.563
-119.09
-61.899
-13.628
209.6
104.84
-168.34
67.198
-24.732
-67.568
-135.81
-62.403
134.69
115.83
55.321
-118.26
-119.32
1.8344
108.93
28.443
-91.874
-39.693
-21.306
115.7
92.109
-192.99
-36.594
4.5637
79.556
77.17
-88.613
104.43
-77.552
29.295
-35.233
-25.228
27.507
47.137
47.635
-52.027
30.542
-63.508
11.665
-138.2
-34.526
55.197
209.53
48.599
-159.94
3.3867
-4.9535
-6.4302
51.75
3.7063
12.039
-135.98
164.7
-139.87
21.298
250.22
-23.482
-212.97
-19.307
-9.6443
4.9381
69.928
40.258
61.955
-83.666
-219.61
65.422
109.4
-60.614
116.5
65.233
49.004
74.192
-208.91
-27.522
5.8146
-106.41
-15.812
51.537
110.83
-40.279
-136.55
187.39
57.094
41.636
-8.2453
-119.78
-53.006
185.13
-26.778
-8.9268
-50.685
-120.38
89.615
123.2
-48.365
-173.76
47.093
-92.229
98.186
-21.273
-94.945
120.54
77.109
-162.5
23.714
-128.09
14.515
257.28
59.418
-98.455
23.145
-119.17
82.137
-149.26
147.3
188.44
-108.58
-198.93
45.81
3.6765
-8.2106
-8.1064
-16.082
225.36
-12.582
-40.607
19.155
-197.85
36.452
-19.578
56.414
112.04
-184.36
-88.85
140.71
82.595
78.961
-18.078
-14.172
-59.072
-107.22
-21.235
72.145
133.88
115.8
-62.015
-188.46
-118.87
-28.54
172.34
-22.749
-24.805
-64.06
-28.711
135.07
189.2
-28.982
-129.47
85.022
27.412
-104.95
1.4504
-26.594
-130.11
-96.316
57.852
136.46
99.272
-151.75
68.586
105.87
-113.71
149.77
-99.168
10.444
-14.164
-4.1076
60.751
-42.111
41.774
-77.941
28.935
20.995
-129.15
110.66
-47.737
5.4937
10.316
5.806
-164.12
-15.401
101.32
29.746
71.659
108.87
62.517
-85.7
-55.197
-121.34
-41.395
18.527
35.196
46.734
113.39
-25.808
-143.63
197.89
64.085
-39.975
-224.8
-48.957
26.283
38.552
-3.2992
-36.354
30.873
71.974
-66.456
-71.696
85.99
25.14
-11.517
-42.351
55.917
120.73
-81.934
17.752
89.876
-176.83
-12.116
162.94
28.627
-183.48
-77.313
81.396
-94.896
172.7
-18.609
49.065
-20.243
-169.81
-47.329
139.5
35.631
53.57
-70.626
14.042
-42.341
81.747
40.078
-11.449
-65.724
-84.656
-14.039
-7.2461
-87.454
286.98
201.37
-198.82
-187.99
-17.358
98.665
58.078
-31.366
-85.292
-73.748
-39.993
22.172
241.8
-63.379
-51.205
6.0354
38.735
-131.06
-210.58
172.79
139.4
45.849
-9.5986
-84.817
96.55
95.617
-56.357
-101.52
38.91
41.302
6.9683
-12.945
-25.695
-1.3577
42.479
-60.901
-41.689
122.79
6.18
-45.113
-32.925
42.203
124.45
-14.377
-126.97
123.47
-64.957
-212.06
-180.39
83.798
168.52
-55.891
70.402
-44.747
-67.178
169.09
81.244
-102.17
-173.8
161.83
41.863
-222.66
248.83
145.4
-38.053
-65.294
-16.435
-156.83
-136.87
35.671
20.619
135.33
25.054
-109.48
-90.016
17.745
133.03
181.07
-108.57
-50.702
83.592
13.352
7.7511
-62.018
116.61
-95.797
-6.0826
61.137
-67.907
-51.417
12.769
58.809
-14
109.08
-126.71
-105.14
107.29
22.186
32.8
31.018
-119.81
-54.91
-29.773
70.518
-51.986
-6.7454
-162.66
141.15
291.6
-50.909
-81.751
-208.51
176.62
-76.122
7.9178
-47.589
27.233
169.31
11.36
-194.55
-116.99
110.31
33.308
20.519
97.841
-22.973
-166.05
-311.99
205.2
181.38
0.39826
93.997
-27.63
-48.679
59.109
133.5
-10.112
63.552
-168.85
-36.369
100.01
-64.505
-64.791
-24.812
99.09
-13.04
-169.11
138.56
48.15
-90.011
88.121
-22.359
-42.514
-239.2
149.23
197.36
-36.921
-66.29
-43.659
113.51
-28.672
-10.927
8.9676
5.7605
-83.283
-58.63
65.02
80.397
73.593
-127.2
-75.327
6.6975
115.98
-136.86
-5.3518
-27.756
-54.995
-166.17
230.77
143.36
-39.4
96.331
54.664
-148.75
-25.524
143.46
28.946
-66.069
-163.77
23.951
246.97
-13.306
-29.913
-69.689
53.598
-41.649
62.689
-87.411
-63.177
-50.932
22.567
41.931
39.5
-108.88
-130.23
50.859
78.06
125.98
-7.1996
-126.18
-72.787
13.543
128.35
-93.523
34.456
225.44
-14.662
130.87
-417.26
-151.12
113.6
60.581
-4.489
53.188
55.909
167.19
-137.69
-8.8589
34.125
-1.0459
50.256
-23.483
-64.897
6.15
81.96
-37.169
64.536
-181.56
51.981
32.355
11.716
-63.716
-77.99
52.135
93.512
94.168
-42.741
-95.805
-37.875
-2.2325
67.967
21.765
35.844
4.2584
-19.173
-124
19.473
301.31
-119.22
-26.052
-334.57
71.008
122.84
59.203
-124.39
-41.413
-34.667
155.09
107.69
-46.941
-151.45
-48.586
50.83
-3.0263
-88.193
105.72
155.37
16.516
26.754
-69.745
-128.33
2.283
105.8
138.1
-55.882
-116.02
-92.14
83.494
135
44.008
-143.22
130.67
91.898
-222.11
-38.341
14.13
30.546
40.439
-57.278
67.435
-21.08
-88.442
-2.659
26.768
-100.17
100.99
-123.75
-51.107
65.018
148.69
-56.103
-175.65
2.166
152.45
64.37
6.3621
-45.231
-18.691
33.606
0.065996
67.996
56.115
-106.97
-110.02
51.392
25.919
189.29
-100.61
-43.122
-45.281
44.452
218.19
-159.84
-111.34
20.402
210.54
23.241
-92.793
19.446
78.067
-93.508
-156.9
-60.01
20.245
14.393
-63.898
112.71
24.039
-282.55
58.679
387.35
57.189
-157.87
68.917
-119.87
-94.938
53.356
-67.817
50.223
-4.2366
-37.979
15.67
-6.0851
66.271
-4.8071
-127.34
-8.9067
248.89
-60.926
-157.3
-65.836
87.908
46.034
0.54451
-49.925
-115.81
1.8522
-53.343
187.35
277.76
-164.17
-13.116
178.86
-90.285
-79.458
-48.258
64.795
67.708
-44.087
-157.2
-66.032
138.61
19.956
-81.961
-36.453
5.418
52.315
136.58
81.259
-61.311
-55.26
-71.435
-25.86
-33.645
8.1304
73.058
-24.472
-61.917
-161.16
248
-262.84
94.088
394.04
46.62
-110.13
-162.48
-151.36
-52.925
-0.89145
88.808
16.081
25.355
3.6004
30.184
18.428
6.3743
76.524
-12.005
-53.965
16.315
0.081704
56.528
41.396
-39.169
0.52084
-23.95
26.742
-5.5982
-12.459
-71.413
-85.219
96.596
90.198
-6.8741
-73.893
-18.577
125.48
142.41
-69.401
-137.98
-68.49
-112.48
88.15
18.033
89.216
-120.09
176.5
64.23
-146.14
-80.262
-125.59
153.46
-1.659
-75.942
-41.638
-30.732
49.19
22.268
35.939
-7.3492
8.2175
-84.37
42.103
139.85
22.931
-129.83
-174.82
246.78
245.35
-183.98
-154.82
68.559
-35.478
-33.836
172.97
13.797
-60.546
-215.73
-51.106
179.68
348.52
-70.962
-249.76
35.322
-72.361
168.54
-140.95
-182.67
96.686
202.66
7.952
-54.282
19.69
-185.24
40.152
29.581
35.68
-1.3289
-77.416
57.03
-131.41
-24.166
20.542
-51.031
73.96
163.89
100.34
120.78
-266.39
-214.8
174.68
233.86
-244.75
117.06
86.604
-83.088
-22.891
122.16
-22.955
-84.748
-81.576
189.55
87.548
-62.033
-218.95
-28.278
198.11
-51.328
-78.219
86.919
-13.008
-74.997
27.309
-83.688
44.122
58.737
-6.0038
-43.866
-28.48
122.67
-81.645
-129.91
90.265
-87.979
-40.452
146.05
-82.965
-47.789
84.33
98.574
-49.036
-58.414
103.94
14.102
-137.53
51.163
32.75
-1.1834
-46.31
2.8545
-20.793
9.8039
-177.04
-15.572
202.37
217
105.73
-101.71
-175.99
-111.11
112.58
212.66
130.05
-266.24
-137.91
186.38
-1.6974
-38.902
-58.667
20.258
-64.973
-6.9983
80.435
26.265
-31.873
-58.762
-28.572
52.387
16.825
45.715
-78.094
65.007
88.295
63.984
-286.47
-67.163
185.59
-86.626
-66.091
-28.98
98.174
143.1
5.646
-7.754
-9.6976
-144.8
6.5398
48.846
-24.739
75.828
-92.478
-115.66
89.385
-2.4418
22.554
36.86
33.405
-123.62
122.38
-50.421
-32.273
220.08
13.658
-275.01
114.77
10.979
14.267
71.482
-68.865
-243.17
70.745
50.595
50.552
-38.841
55.904
136.4
-97.313
-10.457
125.56
-178.66
-193.06
83.164
173.3
-19.624
43.082
24.291
79.517
-30.653
10.462
28.349
-179.04
59.832
-35.473
30.947
33.089
-101.7
-72.115
163.75
110.42
-42.751
-29.974
-13.26
-110.96
-80.811
93.605
-13.569
-0.067206
42.025
-20.035
-50.011
39.973
71.93
-214.96
-65.887
81.482
188.6
-101.1
-65.681
202.97
149.96
-169.43
-51.446
-23.362
-116.57
-133.13
113.39
182.58
126.99
-233.87
159.59
58.44
-21.601
-7.8626
115.68
-270.69
21.42
218.45
-178.23
-126.52
66.264
181
-58.895
29.989
41.575
-282.99
-20.179
-9.2506
88.121
75.102
3.4829
24.663
279.69
-71.28
-185.54
-155.83
-233.88
351.24
129.52
31.007
-104.88
-148.44
-25.32
94.257
-57.046
49.103
50.392
-99.205
118.75
46.649
-192.58
-58.705
69.413
105.28
-86.545
115.97
-19.47
-123.41
52.634
85.81
-24.364
-10.642
-78.615
47.12
84.41
-82.808
-22.035
162.03
-2.3882
-224.08
-33.419
14.714
273.49
16.912
-30.982
-114.9
-55.343
81.939
-221.09
-41.684
134.04
88.586
-44.73
-5.9171
110.59
-4.383
-26.654
-43.848
-103.76
34.36
125.04
160.77
-56.165
-211.12
37.095
238.8
27.311
-197.86
33.159
-85.999
236.61
-145.28
-148.47
17.375
-90.531
215.7
-34.871
14.417
-75.857
18.671
-26.898
-12.668
26.025
13.76
-1.28
-166.91
-115.48
59.316
341.43
-53.428
-118.81
-123.76
-65.718
101.33
117.94
49.349
-154.72
-7.2362
80.348
-61.752
45.919
150.01
101.68
-64.736
98.077
-24.395
-182.51
-44.083
162
-79.626
-65.393
-76.376
-66.202
60.153
16.084
-72.725
305.42
44.409
-202.01
-156.4
32.447
76.672
55.537
53.914
-37.63
23.092
17.294
-18.63
-18.716
-25.522
-75.982
-6.3007
204.51
-10.579
-49.277
-0.13457
-43.001
32.188
4.0892
17.229
-33.413
-45.585
-39.006
75.512
106.95
-13.324
-112.97
32.257
11.405
18.24
37.164
68.098
92.826
-135.38
-204.25
-144.02
113.9
110.13
6.0268
21.765
-89.583
-91.513
121.54
41.814
32.601
-46.519
-42.051
-61.012
43.42
78.813
-97.423
-48.436
25.356
115.59
78.934
64.717
53.434
233.72
-51.135
-326.83
-62.358
-143.48
-31.22
-0.70203
74.75
330.84
-88.225
-256.91
254.67
-57.414
-30.835
-209.77
-110.7
244.14
32.115
-24.906
12.427
-68.38
-45.504
37.153
155.67
-94.398
-21.374
-28.515
-8.0008
1.9037
141.32
-140.56
-194.88
66.543
120.75
34.708
45.095
-70.277
77.19
81.443
-110.11
-98.517
129.45
281.3
46.049
-147.43
-183.5
-90.358
33.252
163.67
-76.672
-47.699
44.329
-118.96
42.881
30.144
158.01
79.422
-167.8
-144.41
-127.65
429.44
-92.422
-201.63
-76.446
100.35
27.287
-113.71
-64.549
173.93
51.556
27.403
178.59
-128.91
-158.56
117.44
52.034
-44.444
-0.72327
-64.041
-33.337
52.819
97.129
47.654
-63.33
-73.586
40.332
66.156
-167.24
18.113
51.791
10.927
-197.64
155.55
-28.144
-28.976
-28.03
-80.819
59.029
70.245
6.1614
-99.08
177.72
12.051
-83.028
25.078
-194.38
-16.712
89.532
7.216
252.1
-28.358
-17.522
-10.25
-114.37
-64.669
25.475
131.89
128.05
-19.927
-20.869
-105.72
48.178
67.488
-314.87
156.72
99.01
-132.52
-128.75
19.142
166.09
105.07
-109.75
-44.559
-41.99
100.52
2.7918
-71.672
-29.425
20.074
-11.036
151.74
13.81
-93.955
-6.649
-9.5503
-33.31
-67.395
-34.382
-209.72
327.62
141.04
-226.69
19.388
33.704
66.632
130.64
-29.243
-204.32
79.347
-29.97
36.746
10.974
-40.813
-201.53
-73.641
391.08
159.43
-65.089
-93.732
89.072
-3.0654
-71.736
-16.46
-126.27
18.005
-9.573
77.663
29.759
-32.029
19.903
-100.49
21.614
-22.099
-174.53
27.574
203.93
241.84
-81.268
-18.115
-262.88
-34.316
116.21
42.545
-40.216
2.2649
26.831
41.815
0.43551
-47.469
10.999
61.22
-93.701
-110.22
-25.407
-78.322
30.376
149.4
96.968
37.682
6.4054
-93.262
-102.13
-96.765
70.898
144.7
2.6281
25.364
113.62
-27.549
-238.58
78.12
110.71
58.043
-203.17
-30.519
44.919
1.772
6.3597
173.14
-9.8769
-174.08
-55.028
91.305
137.42
-0.60854
-66.596
-12.812
-72.184
1.0586
70.479
55.871
-108.81
-6.5221
-101.34
57.104
137.36
-56.351
212.09
-103.11
-95.642
-10.252
-172.74
146.82
-25.727
93.752
-82.858
-89.912
54.316
25.344
-44.547
21.146
-35.236
4.8899
30.753
-32.56
-52.015
143.83
-70.875
23.036
32.902
-6.4219
-40.742
123.25
111.48
-63.182
13.429
-246.29
-105.86
140.99
231.16
46.316
-78.151
-202.98
111.65
18.264
-53.82
61.243
-30.259
50.417
38.362
-75.835
-82.552
-236.43
194.68
328.27
-176.91
48.278
-11.978
-5.4384
125.63
-217.62
-85.56
49.881
-35.037
105.31
93.641
-62.463
8.3157
-79.564
-52.348
36.759
68.289
2.1599
-46.041
-93.072
-90.456
-3.9445
284.5
7.1056
-202.77
18.06
118.66
-20.326
-110.61
-48.034
61.84
10.363
98.897
23.118
7.2143
29.974
-188.52
100.21
136.79
48.831
-95.905
2.5879
55.555
-188.96
11.145
-35.906
93.96
-5.8128
7.1862
-2.4428
58.608
-101.36
-45.306
-18.697
-80.719
-122.82
315.95
178.17
-178.53
-146
-5.6401
52.736
86.932
-27.684
-65.561
-271.28
221.69
308.04
-26.296
-103.07
-44.659
-28.084
98.708
-1.3303
-27.921
-120.29
26.92
29.699
27.97
26.247
-230.79
-9.863
190.15
-76.684
21.093
253.44
-6.1563
-14.842
-91.756
-188.07
11.313
163.4
94.961
-13.97
-106.89
-26.51
-98.792
63.253
119.36
-48.647
-59.466
-21.762
-8.7463
94.974
-84.373
-25.566
0.50406
80.873
101.55
-73.218
-117.53
-18.535
44.868
-98.144
-13.476
-35.118
305.41
26.802
-112.45
-52.903
29.383
-200.23
-132.55
177.86
-9.9064
34.942
-3.1117
-11.092
-7.4304
231.04
38.14
128.02
90.996
-18.29
-130.01
-127.37
-76.435
-7.1108
108.67
85.96
-156.86
-243.26
101.28
72.722
-135.75
-10.379
99.204
107.79
46.675
-95.377
150.59
-142.88
-301.5
202.35
382.22
168.02
-409.54
57.023
-9.1706
-53.899
-4.9491
31.84
-31.673
56.137
-243.33
-48.868
248.78
108.64
106.28
-52.095
-35.213
-90.94
-57.919
-22.114
-2.5838
-20.09
-37.841
14.891
22.173
10.918
-22.895
10.737
-3.9631
-37.196
-135.02
193.3
69.178
-44.545
132.59
-66.207
27.621
-26.613
158.82
-371.01
39.595
100.65
38.737
-49.027
-31.907
55.076
38.687
-134.4
-103.58
135.36
82.096
30.864
-18.904
36.791
37.045
-11.224
16.11
-36.415
-57.654
-5.245
28.745
20.967
-28.668
-0.79542
27.316
192.44
156.72
-106.09
-431.95
-186.9
78.321
-15.776
107.47
165.08
1.7477
-82.135
21.205
-5.8824
-38.717
-7.8652
60.879
48.821
-23.231
11.843
-10.348
36.064
11.873
-113.31
101.42
183.33
46.655
-1.2494
-158.4
-63.953
33.149
19.015
-47.162
-53.558
-27.056
-24.571
-49.238
138.77
-16.861
-107.78
-110.5
13.651
143.56
33.817
31.243
-7.5178
-85.912
23.928
-13.002
72.741
-101.37
-191.36
135.65
177.07
19.425
-19.604
34.105
52.748
1.4422
-44.31
-106.85
-93.57
38.15
35.236
-34.619
18.585
51.47
139.63
35.235
-91.584
-48.344
35.336
6.6757
5.1789
-25.708
-135.87
-69.51
54.987
-33.028
133.49
31.172
9.9061
83.357
14.58
-24.063
-85.327
2.47
28.559
-63.232
-99.526
-144.24
5.0989
212.8
92.808
60.597
-32.341
-38.392
16.834
12.756
-60.572
-120.48
43.195
-37.626
42.82
33.154
46.029
19.324
32.621
6.26
-157.72
-50.914
124.19
127.95
21.999
-40.178
-78.964
-19.838
82.447
-87.144
-66.129
21.995
97.426
40.504
-16.966
-21.94
-94.809
-3.6141
86.664
-162.5
42.948
117.03
-2.4204
33.695
-42.908
39.683
-80.36
-70.418
61.871
38.828
-6.5931
3.8089
-133.46
-80.721
199.89
146.32
-117.4
-131.85
169.87
38.054
-22.583
-61.66
-50.258
31.05
-56.137
100.87
-171.33
-71.984
241.22
92.252
-23.425
-132.79
30.957
36.103
12.258
-9.2459
-112.63
40.047
15.899
-98.229
154.27
41.075
2.7663
-30.932
-24.123
-85.13
-116.89
153.69
-77.942
98.416
156.96
-124.46
-75.292
74.26
-9.4121
-44.422
-42.174
44.295
57.51
4.5339
-10.989
-176.69
7.5419
248.53
30.145
-76.027
-116.14
38.439
69.63
14.87
-36.609
-93.323
-53.075
42.797
-92.544
101.13
112.97
40.381
-267.34
15.408
58.148
-52.866
43.099
72.363
60.662
12.918
-81.212
32.73
-71.895
31.208
123.68
-36.531
9.4675
-8.0762
30.121
-13.946
19.603
-74.544
-1.1353
72.945
82.204
131.44
36.038
196.52
-1.3433
-185.29
-533.41
-82.035
255.71
-150.85
63.486
241.62
41.011
11.691
-64.007
-71.317
-82.151
-90.186
30.205
25.697
-31.57
-112.12
-10.134
87.45
-15.436
-41.911
5.2094
-8.4758
279.66
3.0056
-91.338
-34.848
65.709
42.772
34.157
33.805
96.853
-65.321
-115.3
-228.56
182.31
115.32
-122.27
-101.31
-24.989
55.906
-29.714
37.318
-13.35
-30.164
10.003
20.96
60.541
-30.917
-40.482
13.942
34.923
12.787
4.8028
39.543
17.701
-36.661
-2.5042
46.44
37.129
-11.864
-38.446
6.3016
-13.262
-29.868
30.062
14.483
-10.202
-37.018
-0.017984
18.613
5.1614
-33.816
-10.072
26.165
5.0048
-45.76
-4.7017
20.225
14.853
-36.78
-21.374
66.63
80.959
76.874
50.387
-94.566
-63.367
-109.73
-43.892
-4.6777
71.679
-15.534
55.918
20.436
69.886
-9.7819
-127.41
-26.802
26.954
43.017
-29.126
1.1732
108.61
2.5269
92.711
25.016
18.027
-55.145
-128.23
182.74
-70.23
-290.41
64.75
-47.007
-3.7735
327.46
-236.42
-404.69
38.319
214.92
540.18
72.084
-123.61
-182.94
