-0
-0
-0
-0
-0
-0
-0
-0
-0
-0
0
0.01
0.01
-0
-0.03
-0.05
-0.05
0
0.13
0.36
0.66
1.01
1.37
1.72
2.06
2.4
2.79
3.24
3.8
4.42
5.06
5.65
6.19
6.68
7.17
7.73
8.37
9.17
10.01
10.78
11.38
11.79
12.13
12.57
13.35
14.58
16.45
18.73
21.13
23.38
25.36
27.2
29.24
31.89
35.4
40.07
45.45
51
56.19
60.78
64.98
69.33
74.51
80.85
88.67
97.24
105.69
113.27
119.72
125.41
131.19
138.31
145.15
153.46
163.39
174.9
187.05
197.49
202.58
198.06
180.52
148.51
103.58
48.86
-11.58
-74.1
-136.32
-197.05
-255.78
-312.2
-365.96
-416.41
-463.47
-507.27
-547.83
-584.34
-614.43
-633.87
-637.05
-618.78
-576.02
-509.98
-425.99
-332.12
-236.76
-146.33
-64.3
8.34
71.68
125.79
170.06
203.87
227.41
242.04
250.11
254.09
255.72
255.57
253.25
247.97
239.28
227.52
213.74
199.39
185.67
173.16
161.69
150.64
139.36
127.51
115.19
102.85
91.04
80.14
70.29
61.33
52.95
44.88
37
29.5
22.55
16.35
11.04
6.62
2.98
-0.06
-2.7
-4.97
-6.86
-8.33
-9.38
-10.14
-10.77
-11.41
-12.06
-12.62
-12.93
-12.91
-12.6
-12.15
-11.69
-11.29
-10.91
-10.5
-10.02
-9.54
-9.21
-9.16
-9.43
-9.94
-10.53
-11.04
-11.39
-11.58
-11.71
-11.85
-12.04
-12.19
-12.18
-11.9
-11.31
-10.52
-9.74
-9.21
-9.11
-9.51
-10.38
-11.59
-13.03
-14.56
-16.11
-17.64
-19.12
-20.47
-21.6
-22.39
-22.71
-22.69
-22.37
-21.83
-21.09
-20.18
-19.07
-17.77
-16.32
-14.78
-13.25
-11.77
-10.35
-8.99
-7.73
-6.59
-5.65
-4.96
-4.54
-4.35
-4.29
-4.27
-4.19
-4
-3.66
-3.15
-2.47
-1.62
-0.64
0.45
1.62
2.89
4.28
5.83
7.57
9.48
11.5
13.48
15.28
16.72
17.68
18.05
17.8
16.97
15.64
13.94
12.03
10.06
8.18
6.46
4.99
3.82
2.96
2.44
2.27
2.49
3.15
4.3
5.99
8.22
10.92
13.98
17.21
20.47
23.64
26.65
29.54
32.37
35.23
38.13
41
43.67
45.96
47.68
48.76
49.25
49.27
49.01
48.6
48.08
47.27
45.8
43.13
38.79
32.6
24.91
16.56
8.74
2.58
-1.26
-2.7
-2.28
-0.81
0.98
2.66
4.2
5.78
7.64
9.79
11.94
13.53
13.89
12.44
8.82
3.05
-4.48
-12.96
-21.26
-28.12
-32.43
-33.58
-31.73
-27.78
-23.08
-18.9
-15.97
-14.3
-13.36
-12.57
-11.64
-10.74
-10.28
-10.55
-11.46
-12.59
-13.44
-13.77
-13.68
-13.49
-13.49
-13.73
-13.97
-13.9
-13.34
-12.33
-11.17
-10.24
-9.79
-9.9
-10.4
-11
-11.44
-11.56
-11.41
-11.14
-11
-11.09
-11.36
-11.59
-11.5
-10.93
-9.89
-8.54
-7.13
-5.82
-4.62
-3.41
-2.06
-0.51
1.19
2.87
4.39
5.64
6.62
7.37
7.96
8.39
8.61
8.57
8.26
7.8
7.38
7.22
7.4
7.9
8.58
9.22
9.6
9.62
9.33
8.91
8.59
8.53
8.86
9.53
10.31
10.89
10.97
10.47
9.55
8.5
7.69
7.61
8.62
10.68
13.27
15.54
16.67
16.11
13.7
9.72
5.29
1.69
-0.19
-0.36
0.51
1.74
2.75
3.25
3.19
3.52
5.33
9.2
14.49
19.95
24.61
27.81
29.42
29.86
31.16
35.83
45.4
59.19
74.59
88.18
95.98
94.3
76.7
40.32
-12.35
-73.24
-132.12
-182.8
-220.15
-240.12
-237.35
-211.21
-165.36
-106.89
-42.71
17.63
66.34
99.8
117.23
118.86
105.2
79.28
46.88
15.13
-10.32
-26.51
-33.46
-33.73
-30.81
-27.54
-24.56
-20.86
-15.57
-9.14
-2.63
3.08
7.27
9.54
9.61
7.88
4.98
1.3
-3.29
-8.87
-15.07
-21.26
-26.48
-29.58
-28.96
-22.97
-10.73
7.13
28.43
49.85
67.71
79.33
82.33
76.79
65.48
52.4
40.58
30.83
22.31
13.84
5.18
-2.63
-8.75
-12.87
-15.52
-17.86
-20.96
-25.11
-30.04
-35.12
-38.66
-39.59
-37.62
-33.28
-27.64
-22.68
-18.85
-15.98
-13.6
-11.38
-9
-6.59
-4.55
-3.26
-2.96
-3.4
-4.21
-4.97
-5.32
-5.17
-4.53
-3.55
-2.46
-1.51
-0.81
-0.44
-0.44
-0.71
-1.13
-1.57
-1.88
-1.98
-1.87
-1.55
-1.17
-0.87
-0.77
-0.91
-1.25
-1.64
-1.96
-2.13
-2.15
-2.09
-1.99
-1.89
-1.76
-1.6
-1.42
-1.26
-1.17
-1.16
-1.19
-1.22
-1.19
-1.09
-0.94
-0.79
-0.69
-0.69
-0.83
-1.13
-1.55
-2.02
-2.42
-2.66
-2.68
-2.48
-2.07
-1.52
-0.89
-0.26
0.26
0.61
0.76
0.77
0.74
0.79
0.98
1.28
1.6
1.85
2
2.02
1.97
1.84
1.65
1.41
1.19
1.08
1.16
1.44
1.86
2.3
2.64
2.83
2.9
2.87
2.8
2.67
2.44
2.1
1.71
1.37
1.18
1.14
1.17
1.1
0.8
0.25
-0.48
-1.22
-1.84
-2.28
-2.55
-2.69
-2.7
-2.55
-2.21
-1.69
-1.08
-0.48
0.02
0.41
0.71
1
1.32
1.64
1.93
2.15
2.25
2.23
2.07
1.77
1.32
0.79
0.28
-0.11
-0.3
-0.31
-0.18
0.02
0.23
0.42
0.61
0.75
0.85
0.88
0.84
0.77
0.68
0.62
0.58
0.55
0.53
0.52
0.51
0.44
0.28
-0.01
-0.4
-0.81
-1.09
-1.17
-1.01
-0.71
-0.44
-0.31
-0.38
-0.58
-0.76
-0.76
-0.52
-0.12
0.29
0.51
0.46
0.19
-0.14
-0.31
-0.21
0.16
0.66
1.12
1.38
1.43
1.31
1.14
1.03
1.04
1.18
1.39
1.62
1.79
1.86
1.78
1.57
1.26
0.91
0.62
0.44
0.42
0.53
0.71
0.88
0.97
0.92
0.75
0.51
0.29
0.2
0.32
0.69
1.24
1.86
2.43
2.86
3.14
3.32
3.48
3.71
4.1
4.71
5.64
6.93
8.58
10.5
12.53
14.5
16.33
18.03
19.62
21.12
22.4
23.25
23.46
22.94
21.85
20.59
19.69
19.67
20.86
23.35
26.91
31.11
35.32
38.83
40.96
41.16
39.15
35.02
29.24
22.48
15.48
8.84
2.85
-2.5
-7.44
-12.23
-17.04
-21.81
-26.3
-30.12
-32.91
-34.45
-34.79
-34.15
-32.88
-31.28
-29.58
-27.88
-26.34
-25.22
-24.85
-25.52
-27.35
-30.16
-33.56
-37.03
-40.18
-42.82
-44.91
-46.5
-47.52
-47.85
-47.3
-45.84
-43.62
-40.96
-38.15
-35.35
-32.5
-29.42
-26.03
-22.51
-19.22
-16.54
-14.61
-13.15
-11.61
-9.45
-6.4
-2.68
1.23
4.82
7.85
10.44
12.91
15.53
18.29
20.94
23.06
24.33
24.65
24.22
23.35
22.39
21.56
20.96
20.61
20.44
20.38
20.33
20.17
19.82
19.26
18.61
18.03
17.7
17.5
17.1
16.01
13.83
10.41
6.03
1.2
-3.56
-7.87
-11.8
-15.56
-19.44
-23.69
-28.46
-33.78
-39.4
-44.64
-48.26
-48.95
-45.62
-38.05
-27.18
-14.89
-3.29
5.99
12.33
16.24
18.64
20.59
22.81
25.55
28.63
31.67
34.16
34.87
34.31
32.15
28.34
23.05
16.65
9.87
3.72
-0.68
-2.51
-1.53
1.37
4.88
7.88
10.08
12.24
15.7
21.41
29.15
37.33
43.36
44.99
41.25
32.76
21.33
9.15
-2.07
-11.44
-18.68
-23.97
-27.53
-29.68
-30.79
-31.28
-31.35
-30.72
-28.73
-24.71
-18.61
-11.23
-4.01
1.66
5.11
6.6
6.94
6.76
5.99
3.95
-0.08
-6.1
-13.08
-19.3
-23.09
-23.65
-21.35
-17.5
-13.62
-10.74
-8.97
-7.63
-5.73
-2.58
1.87
7.17
12.73
18.16
23.43
28.63
33.63
37.95
40.82
41.49
39.6
35.34
29.4
22.69
16.16
10.59
6.56
4.42
4.17
5.49
7.69
9.85
11.06
10.64
8.34
4.35
-0.8
-6.37
-11.6
-15.88
-18.74
-19.98
-19.6
-17.87
-15.22
-12.25
-9.56
-7.61
-6.69
-6.74
-7.46
-8.35
-8.83
-8.43
-6.94
-4.51
-1.66
0.91
2.59
3.1
2.55
1.43
0.31
-0.36
-0.52
-0.44
-0.58
-1.32
-2.72
-4.51
-6.16
-7.18
-7.28
-6.47
-5.02
-3.26
-1.45
0.32
2.07
3.87
5.73
7.6
9.35
10.77
11.68
11.96
11.75
11.41
11.48
12.4
14.26
16.64
18.76
19.69
18.67
15.31
9.68
2.36
-5.43
-12.01
-15.62
-15.2
-11.09
-5.2
-0.28
1.31
-1.22
-6.62
-12.38
-15.98
-16.16
-13.39
-9.32
-5.79
-3.97
-3.97
-5.19
-6.79
-8.22
-9.34
-10.28
-11.19
-12.06
-12.62
-12.5
-11.42
-9.44
-7.01
-4.85
-3.67
-3.79
-5.13
-7.12
-8.95
-9.52
-7.48
-1.46
9.29
24.04
40.09
53.19
58.99
55.03
42
23.8
5.95
-6.72
-11.97
-10.69
-5.9
-0.98
1.88
2.37
1.52
0.72
0.86
1.91
3.22
4.03
3.95
3.09
1.89
0.84
0.16
-0.15
-0.2
-0.19
-0.43
-1.4
-3.82
-8.39
-15.37
-24.31
-33.96
-42.7
-49.08
-52.23
-51.88
-48.1
-41.04
-30.94
-18.45
-4.92
7.55
16.85
21.7
22.46
21.01
19.93
21.35
26.01
33.27
41.63
49.63
56.4
61.7
65.59
67.9
68.01
64.72
56.73
43.08
23.72
-0.07
-25.69
-49.84
-69.5
-82.82
-89.5
-90.3
-86.44
-79.15
-69.4
-58.05
-46.02
-34.3
-23.8
-15.11
-8.06
-2.06
3.33
8.48
13.71
19.44
26.12
33.73
41.64
48.83
54.21
56.64
55.34
49.73
39.05
23.25
3.35
-20.34
-46.6
-71.92
-93.17
-108.35
-116.99
-119.81
-117.81
-111.73
-102
-88.85
-73.08
-56.4
-40.76
-27.49
-16.82
-7.97
0.1
7.98
15.77
23.07
29.23
33.79
36.82
38.73
40.12
41.37
42.54
43.53
44.16
44.19
43.54
42.28
40.59
38.6
36.35
33.78
30.92
27.93
25.14
22.99
21.9
22.11
23.52
25.66
27.86
29.48
30.11
29.52
27.65
24.52
20.18
14.73
8.44
1.75
-4.75
-10.52
-15.18
-18.65
-21.02
-22.44
-23.06
-22.95
-22.25
-21.12
-19.82
-18.53
-17.27
-15.86
-13.99
-11.45
-8.27
-4.8
-1.62
0.72
1.86
1.87
1.13
0.21
-0.38
-0.32
0.39
1.54
2.76
3.73
4.25
4.28
3.93
3.37
2.77
2.24
1.85
1.62
1.59
1.84
2.42
3.34
4.52
5.8
6.98
7.95
8.68
9.26
9.83
10.46
11.11
11.66
11.92
11.79
11.24
10.39
9.43
8.53
7.83
7.37
7.1
6.96
6.85
6.71
6.44
5.96
5.22
4.2
2.98
1.68
0.46
-0.56
-1.37
-2.05
-2.68
-3.31
-3.92
-4.44
-4.8
-5.01
-5.14
-5.22
-5.2
-4.98
-4.42
-3.49
-2.33
-1.17
-0.22
0.44
0.89
1.27
1.67
2.03
2.18
1.97
1.41
0.61
-0.19
-0.87
-1.37
-1.75
-2.06
-2.3
-2.4
-2.29
-2.01
-1.66
-1.37
-1.23
-1.2
-1.14
-0.9
-0.36
0.47
1.46
2.41
3.11
3.41
3.32
3
2.75
2.85
3.55
4.94
6.97
9.45
12.11
14.68
16.91
18.57
19.57
19.91
19.71
19.19
18.51
17.73
16.88
15.91
14.85
13.86
13.11
12.69
12.55
12.44
12
10.91
9.03
6.43
3.38
0.24
-2.61
-4.91
-6.5
-7.38
-7.65
-7.49
-7.1
-6.65
-6.26
-6.02
-5.94
-6.02
-6.22
-6.5
-6.82
-7.17
-7.55
-7.97
-8.39
-8.75
-8.98
-9.08
-9.06
-9.05
-9.1
-9.23
-9.39
-9.44
-9.3
-8.97
-8.55
-8.21
-8.07
-8.12
-8.21
-8.09
-7.57
-6.62
-5.38
-4.08
-2.95
-2.07
-1.34
-0.57
0.36
1.42
2.37
2.95
3.01
2.6
1.97
1.4
1.06
0.96
0.96
0.88
0.66
0.32
-0.01
-0.23
-0.29
-0.24
-0.17
-0.17
-0.29
-0.59
-1.07
-1.76
-2.64
-3.67
-4.76
-5.8
-6.73
-7.53
-8.2
-8.75
-9.19
-9.54
-9.8
-10.01
-10.19
-10.31
-10.32
-10.11
-9.61
-8.83
-7.86
-6.83
-5.87
-5.04
-4.35
-3.78
-3.32
-3.01
-2.89
-2.94
-3.11
-3.27
-3.28
-3.07
-2.68
-2.19
-1.74
-1.41
-1.21
-1.07
-0.88
-0.51
0.07
0.82
1.66
2.5
3.34
4.25
5.33
6.6
7.97
9.21
10.07
10.4
10.18
9.58
8.82
8.09
7.46
6.93
6.42
5.83
5.13
4.3
3.39
2.47
1.61
0.88
0.31
-0.11
-0.4
-0.57
-0.69
-0.8
-0.95
-1.18
-1.47
-1.76
-1.94
-1.93
-1.72
-1.36
-0.96
-0.58
-0.24
0.1
0.51
0.98
1.48
1.93
2.25
2.39
2.37
2.21
1.99
1.74
1.48
1.24
1.02
0.79
0.55
0.28
-0.01
-0.3
-0.57
-0.84
-1.13
-1.47
-1.85
-2.21
-2.43
-2.46
-2.3
-2.05
-1.88
-1.93
-2.24
-2.76
-3.34
-3.86
-4.27
-4.53
-4.67
-4.66
-4.49
-4.14
-3.68
-3.18
-2.76
-2.46
-2.31
-2.22
-2.11
-1.91
-1.6
-1.2
-0.77
-0.37
-0.07
0.12
0.16
0.11
0.02
-0.05
-0.06
-0.02
0.01
-0.04
-0.26
-0.66
-1.2
-1.82
-2.44
-3.03
-3.56
-4.06
-4.53
-4.97
-5.35
-5.63
-5.73
-5.53
-4.95
-3.92
-2.47
-0.77
0.94
2.38
3.33
3.7
3.53
2.94
2.02
0.87
-0.5
-1.99
-3.5
-4.81
-5.74
-6.2
-6.23
-6.03
-5.86
-5.95
-6.35
-6.94
-7.43
-7.55
-7.09
-6.08
-4.73
-3.33
-2.16
-1.39
-1.07
-1.15
-1.52
-2
-2.4
-2.51
-2.2
-1.44
-0.32
1.02
2.48
4.07
5.87
7.89
10.01
11.95
13.35
14.02
13.94
13.34
12.53
11.79
11.24
10.84
10.49
10.07
9.46
8.6
7.46
6.06
4.53
3.1
2.08
1.69
2.03
2.97
4.19
5.32
5.98
6
5.36
4.25
2.97
1.8
0.98
0.58
0.6
0.92
1.43
2.01
2.57
3
3.21
3.16
2.86
2.41
1.91
1.44
1.05
0.71
0.37
0.02
-0.32
-0.53
-0.52
-0.25
0.08
0.01
-1.02
-3.51
-7.56
-12.77
-18.38
-23.51
-27.47
-29.92
-30.71
-29.76
-26.86
-21.85
-14.77
-6.19
2.84
11.04
17.32
21.16
22.63
22.29
20.85
18.9
16.81
14.75
12.84
11.18
9.93
9.18
8.88
8.9
9.02
9.08
9.08
9.16
9.49
10.21
11.24
12.33
13.04
12.95
11.8
9.59
6.56
3.14
-0.24
-3.31
-6
-8.41
-10.73
-13.12
-15.56
-17.86
-19.68
-20.6
-20.28
-18.57
-15.61
-11.86
-7.93
-4.43
-1.77
-0.06
0.88
1.34
1.59
1.78
1.95
2.04
2.06
2.05
2.09
2.2
2.36
2.47
2.46
2.29
2.01
1.75
1.64
1.77
2.14
2.68
3.24
3.68
3.84
3.66
3.19
2.58
2.02
1.66
1.56
1.64
1.73
1.7
1.51
1.22
0.94
0.75
0.65
0.54
0.35
0.03
-0.35
-0.72
-0.99
-1.18
-1.34
-1.56
-1.86
-2.17
-2.42
-2.51
-2.41
-2.18
-1.92
-1.74
-1.71
-1.88
-2.23
-2.71
-3.27
-3.81
-4.24
-4.5
-4.61
-4.62
-4.57
-4.49
-4.3
-3.9
-3.2
-2.27
-1.26
-0.42
0.09
0.28
0.27
0.26
0.4
0.68
1.01
1.3
1.48
1.6
1.7
1.8
1.86
1.78
1.52
1.12
0.7
0.44
0.46
0.78
1.34
1.99
2.59
2.98
3.09
2.87
2.37
1.71
1.04
0.5
0.17
0.02
-0.07
-0.19
-0.43
-0.75
-1.09
-1.39
-1.67
-1.98
-2.38
-2.89
-3.41
-3.84
-4.09
-4.19
-4.2
-4.22
-4.27
-4.27
-4.14
-3.81
-3.31
-2.71
-2.13
-1.6
-1.12
-0.63
-0.1
0.5
1.09
1.59
1.93
2.08
2.1
2.08
2.13
2.31
2.59
2.89
3.08
3.1
2.95
2.7
2.44
2.21
1.98
1.71
1.35
0.94
0.57
0.36
0.36
0.55
0.8
0.95
0.93
0.73
0.46
0.25
0.2
0.26
0.34
0.28
0
-0.48
-1.07
-1.6
-1.96
-2.08
-2.02
-1.87
-1.78
-1.85
-2.08
-2.4
-2.66
-2.7
-2.49
-2.08
-1.63
-1.26
-1.03
-0.86
-0.62
-0.21
0.38
1.07
1.76
2.38
2.94
3.51
4.08
4.6
4.94
5.02
4.8
4.35
3.84
3.38
3.06
2.87
2.73
2.54
2.22
1.74
1.11
0.4
-0.36
-1.09
-1.81
-2.53
-3.33
-4.25
-5.29
-6.34
-7.31
-8.1
-8.68
-9.11
-9.47
-9.82
-10.16
-10.42
-10.53
-10.48
-10.32
-10.11
-9.89
-9.55
-8.87
-7.61
-5.61
-2.88
0.33
3.59
6.45
8.63
10.06
10.95
11.63
12.38
13.34
14.44
15.5
16.31
16.75
16.81
16.57
16.14
15.65
15.12
14.52
13.79
12.87
11.78
10.65
9.66
8.96
8.57
8.37
8.11
7.59
6.73
5.64
4.52
3.55
2.8
2.23
1.69
1.07
0.37
-0.36
-1.06
-1.69
-2.29
-2.92
-3.6
-4.3
-4.9
-5.31
-5.46
-5.38
-5.18
-4.98
-4.89
-4.99
-5.31
-5.88
-6.74
-7.93
-9.48
-11.35
-13.46
-15.62
-17.63
-19.29
-20.44
-21.01
-21.02
-20.52
-19.57
-18.22
-16.51
-14.52
-12.37
-10.21
-8.17
-6.34
-4.74
-3.33
-2.05
-0.87
0.25
1.35
2.49
3.71
5.05
6.43
7.75
8.86
9.69
10.29
10.78
11.33
12.04
12.91
13.86
14.81
15.66
16.38
16.94
17.33
17.52
17.49
17.24
16.76
15.99
14.83
13.14
10.81
7.88
4.51
1.02
-2.24
-4.99
-7.11
-8.59
-9.53
-10.01
-10.12
-9.96
-9.69
-9.51
-9.65
-10.24
-11.22
-12.39
-13.47
-14.25
-14.65
-14.73
-14.65
-14.53
-14.42
-14.29
-14.04
-13.6
-12.92
-11.95
-10.7
-9.17
-7.43
-5.6
-3.87
-2.43
-1.46
-0.99
-0.92
-0.99
-0.86
-0.18
1.22
3.3
5.79
8.23
10.07
10.84
10.25
8.34
5.46
2.25
-0.62
-2.6
-3.39
-2.97
-1.52
0.68
3.28
5.9
8.09
9.41
9.56
8.54
6.68
4.57
2.82
1.84
1.66
2.08
2.74
3.39
4.01
4.72
5.72
7.06
8.61
10.06
11.06
11.3
10.68
9.24
7.16
4.66
1.98
-0.65
-3.05
-5
-6.38
-7.13
-7.31
-7.07
-6.62
-6.15
-5.72
-5.29
-4.73
-3.92
-2.8
-1.41
0.1
1.56
2.82
3.79
4.48
4.94
5.23
5.42
5.55
5.64
5.67
5.56
5.2
4.52
3.46
2.06
0.45
-1.21
-2.74
-4
-4.89
-5.34
-5.35
-4.98
-4.38
-3.7
-3.12
-2.73
-2.54
-2.45
-2.33
-2.07
-1.63
-1.05
-0.39
0.3
0.99
1.69
2.39
3.06
3.57
3.82
3.74
3.35
2.76
2.16
1.73
1.53
1.53
1.62
1.65
1.53
1.26
0.85
0.37
-0.2
-0.84
-1.54
-2.26
-2.95
-3.53
-4.01
-4.38
-4.63
-4.72
-4.59
-4.21
-3.66
-3.04
-2.5
-2.08
-1.71
-1.23
-0.54
0.34
1.24
1.99
2.43
2.59
2.58
2.57
2.65
2.81
2.99
3.15
3.3
3.51
3.85
4.3
4.78
5.13
5.2
4.96
4.43
3.73
2.96
2.19
1.45
0.74
0.07
-0.49
-0.92
-1.16
-1.27
-1.32
-1.4
-1.62
-1.98
-2.45
-2.93
-3.28
-3.38
-3.19
-2.72
-2.11
-1.52
-1.1
-0.91
-0.88
-0.91
-0.88
-0.71
-0.42
-0.04
0.34
0.66
0.85
0.87
0.7
0.37
-0.06
-0.48
-0.76
-0.81
-0.61
-0.2
0.36
0.99
1.62
2.2
2.68
3.05
3.29
3.46
3.56
3.64
3.7
3.77
3.86
4.03
4.33
4.8
5.43
6.12
6.7
7
6.84
6.17
5.02
3.56
1.99
0.51
-0.79
-1.9
-2.89
-3.81
-4.69
-5.47
-6.09
-6.47
-6.59
-6.48
-6.18
-5.77
-5.27
-4.71
-4.09
-3.44
-2.81
-2.26
-1.83
-1.51
-1.24
-0.96
-0.63
-0.26
0.1
0.4
0.62
0.8
0.96
1.12
1.25
1.32
1.31
1.27
1.22
1.15
1.03
0.77
0.33
-0.23
-0.83
-1.32
-1.61
-1.67
-1.51
-1.21
-0.85
-0.46
-0.09
0.24
0.52
0.77
0.98
1.16
1.31
1.39
1.38
1.21
0.85
0.32
-0.31
-0.92
-1.37
-1.56
-1.53
-1.34
-1.11
-0.85
-0.55
-0.14
0.43
1.13
1.86
2.5
2.98
3.34
3.62
3.9
4.19
4.43
4.56
4.59
4.59
4.7
5.04
5.65
6.41
7.13
7.62
7.75
7.56
7.14
6.64
6.13
5.57
4.88
3.98
2.9
1.76
0.71
-0.14
-0.84
-1.56
-2.55
-3.93
-5.66
-7.51
-9.19
-10.46
-11.27
-11.67
-11.8
-11.78
-11.63
-11.28
-10.67
-9.77
-8.64
-7.33
-5.94
-4.54
-3.19
-1.97
-1
-0.35
-0.06
-0.09
-0.33
-0.66
-0.98
-1.24
-1.4
-1.46
-1.42
-1.28
-1.03
-0.68
-0.27
0.13
0.46
0.7
0.81
0.79
0.68
0.47
0.17
-0.22
-0.71
-1.25
-1.78
-2.21
-2.46
-2.55
-2.53
-2.48
-2.45
-2.42
-2.35
-2.2
-1.98
-1.75
-1.57
-1.47
-1.41
-1.3
-1.07
-0.7
-0.22
0.31
0.8
1.23
1.59
1.91
2.21
2.49
2.75
2.96
3.09
3.13
3.07
2.95
2.85
2.85
3.01
3.29
3.54
3.57
3.23
2.49
1.48
0.39
-0.53
-1.12
-1.29
-1.01
-0.27
0.85
2.25
3.71
4.96
5.73
5.87
5.39
4.46
3.29
2.13
1.1
0.28
-0.31
-0.7
-0.92
-1.05
-1.22
-1.57
-2.22
-3.16
-4.29
-5.41
-6.35
-7.01
-7.39
-7.58
-7.73
-8.01
-8.58
-9.56
-10.96
-12.62
-14.26
-15.51
-16.08
-15.79
-14.59
-12.5
-9.53
-5.69
-1.08
3.98
8.9
12.99
15.62
16.52
15.86
14.11
11.86
9.59
7.51
5.62
3.82
2.06
0.33
-1.28
-2.73
-3.99
-5.07
-5.96
-6.59
-6.88
-6.78
-6.31
-5.55
-4.54
-3.23
-1.51
0.7
3.38
6.39
9.5
12.53
15.41
18.14
20.66
22.8
24.25
24.71
24.04
22.44
20.31
18.09
16.02
13.99
11.7
8.79
5.13
0.9
-3.48
-7.49
-10.73
-13.03
-14.47
-15.27
-15.68
-15.91
-16.05
-16.07
-15.87
-15.28
-14.12
-12.3
-9.83
-6.94
-4
-1.43
0.4
1.32
1.37
0.82
0.02
-0.68
-1.1
-1.18
-0.98
-0.62
-0.18
0.29
0.77
1.27
1.72
2.05
2.13
1.87
1.28
0.45
-0.41
-1.11
-1.47
-1.48
-1.22
-0.86
-0.57
-0.42
-0.4
-0.42
-0.38
-0.26
-0.12
-0.05
-0.17
-0.51
-1.03
-1.59
-2.05
-2.32
-2.35
-2.2
-1.97
-1.76
-1.6
-1.52
-1.5
-1.55
-1.69
-1.98
-2.44
-3.02
-3.65
-4.21
-4.63
-4.9
-5.04
-5.05
-4.93
-4.59
-3.98
-3.09
-2.04
-0.99
-0.1
0.53
0.93
1.2
1.45
1.71
1.96
2.16
2.28
2.34
2.43
2.59
2.87
3.22
3.58
3.85
3.98
3.98
3.91
3.88
3.96
4.17
4.46
4.68
4.7
4.46
4.01
3.5
3.1
2.93
2.99
3.15
3.21
2.98
2.35
1.38
0.22
-0.88
-1.7
-2.13
-2.2
-2.09
-2.04
-2.23
-2.67
-3.22
-3.6
-3.54
-2.97
-2.03
-1.1
-0.62
-0.91
-2
-3.62
-5.3
-6.47
-6.77
-6.22
-5.28
-4.64
-4.93
-6.4
-8.73
-11.02
-11.98
-10.24
-4.86
4.25
16.14
28.84
39.51
45.15
43.57
34.49
19.97
3.89
-9.54
-17.32
-18.8
-15.85
-11.74
-9.63
-11.22
-16.33
-23.49
-30.95
-37.15
-40.35
-38.85
-31.66
-19.37
-4.19
10.91
23.85
33.02
37.59
37.85
34.31
28.58
22.5
17.62
14.81
14.09
14.7
15.65
16.14
15.63
14.07
11.66
8.8
6.03
3.78
2.19
1.19
0.63
0.27
-0.1
-0.68
-1.59
-2.75
-3.96
-5.01
-5.7
-5.92
-5.74
-5.36
-5.04
-4.97
-5.16
-5.44
-5.66
-5.66
-5.45
-5.16
-4.99
-5.11
-5.61
-6.36
-7.13
-7.64
-7.67
-7.19
-6.35
-5.42
-4.65
-4.19
-3.99
-3.93
-3.87
-3.76
-3.71
-3.86
-4.27
-4.85
-5.37
-5.56
-5.21
-4.29
-2.9
-1.27
0.4
1.89
3.11
4.07
4.94
5.99
7.47
9.41
11.55
13.29
13.82
12.28
8.06
0.96
-8.59
-19.41
-29.74
-37.5
-40.95
-39.24
-32.77
-23.14
-12.6
-3.33
3.14
6.3
6.43
4.32
0.92
-2.91
-6.42
-9.02
-10.35
-10.34
-9.23
-7.55
-5.89
-4.71
-4.18
-4.21
-4.49
-4.67
-4.46
-3.67
-2.25
-0.21
2.34
5.29
8.57
12.1
15.88
19.87
23.95
27.9
31.4
34.16
35.97
36.73
36.47
35.29
33.37
30.92
28.26
25.69
23.42
21.45
19.62
17.69
15.53
13.22
11.02
9.23
7.97
7.08
6.24
5.13
3.64
1.91
0.24
-1.13
-2.14
-2.97
-3.95
-5.36
-7.35
-9.88
-12.78
-15.77
-18.58
-20.92
-22.56
-23.34
-23.25
-22.4
-21
-19.31
-17.45
-15.47
-13.29
-10.81
-8.05
-5.1
-2.21
0.35
2.38
3.85
4.95
6.01
7.34
9.08
11.16
13.25
14.9
15.66
15.31
13.93
11.86
9.61
7.57
5.92
4.52
2.96
0.69
-2.72
-7.43
-13.2
-19.4
-25.11
-29.04
-29.74
-26.15
-18.19
-7.21
4.07
12.44
15.45
12.56
5.62
-1.83
-6.12
-5.03
1.41
11.28
21.69
30.71
36.43
37.49
33.33
24.14
10.7
-5.51
-22.33
-37.31
-48.47
-55.01
-57.35
-56.75
-54.59
-51.84
-48.77
-45.24
-41.2
-37.15
-34
-32.62
-33.2
-35.08
-37.01
-37.8
-36.76
-34.04
-30.71
-28.09
-27.47
-29.85
-35.86
-45.48
-57.29
-67.99
-72.78
-68.01
-51.26
-24.17
7.88
37.83
59.86
71.61
73.83
70.65
66.19
62.56
59.39
55.45
50.19
44.59
40.56
39.64
41.94
45.91
49.27
49.89
47.15
42.05
36.7
33.31
33.17
36.27
41.61
47.65
52.85
55.93
55.71
51.26
42.3
30.18
16.82
4.98
-3.07
-6.68
-7.11
-6.77
-7.8
-10.89
-15.09
-18.68
-20.29
-19.81
-18.32
-17.19
-17.18
-18.06
-18.94
-18.95
-17.77
-15.7
-13.44
-11.63
-10.62
-10.42
-10.63
-10.84
-10.69
-10.03
-8.89
-7.49
-6.15
-5.19
-4.82
-5
-5.54
-6.1
-6.42
-6.32
-5.86
-5.21
-4.58
-4.17
-4.1
-4.47
-5.28
-6.49
-7.96
-9.54
-11.02
-12.18
-12.9
-13.2
-13.32
-13.58
-14.34
-15.66
-17.5
-19.57
-21.38
-22.35
-21.97
-19.99
-16.45
-11.67
-6.14
-0.37
5.15
10.01
13.85
16.43
17.63
17.59
16.68
15.5
14.68
14.69
15.64
17.17
18.72
19.67
19.72
18.97
17.86
16.91
16.52
16.81
17.58
18.49
19.2
19.5
19.34
18.78
17.88
16.68
15.18
13.4
11.46
9.51
7.74
6.27
5.06
3.93
2.61
0.89
-1.29
-3.77
-6.2
-8.16
-9.28
-9.37
-8.54
-7.09
-5.47
-4.16
-3.53
-3.7
-4.51
-5.55
-6.3
-6.38
-5.64
-4.38
-3.22
-3.02
-4.42
-7.45
-11.34
-14.68
-16.11
-14.89
-11.52
-7.62
-5.29
-6.05
-9.96
-15.45
-20.02
-21.49
-18.8
-12.52
-4.61
2.5
6.92
8
6.41
3.45
0.21
-2.56
-4.42
-5.17
-5.05
-5.44
-8.89
-18.07
-33.95
-54.45
-73.77
-84.32
-80.41
-61.2
-31.87
-1.62
20.12
29.21
26.17
15.46
3.18
-5.71
-8.5
-4.9
3.75
15.29
27.05
35.65
38.88
37.6
33.26
27.62
22.41
18.76
17.12
17.4
19.4
22.86
27.83
34.02
40.97
47.99
54.54
60.38
65.3
68.42
67.59
59.6
41.25
11.75
-25.66
-63.89
-94.28
-110.1
-109.23
-94.81
-73.32
-51.43
-33.18
-19.12
-7.65
2.87
12.43
19.58
22.33
19.6
11.88
1.2
-9.78
-18.66
-23.99
-25.49
-22.94
-16.4
-6.53
5.44
18.17
30.41
40.81
48.81
52.99
52.33
46.99
38.48
29.18
21.4
16.09
13.36
12.46
12.11
11.41
9.96
7.8
5.29
2.83
0.73
-0.87
-2.09
-3.31
-4.77
-6.6
-8.74
-10.94
-12.88
-14.23
-14.74
-14.4
-13.44
-12.14
-10.82
-9.79
-9.22
-9.17
-9.55
-10.16
-10.85
-11.56
-12.21
-12.75
-13.05
-12.87
-11.9
-9.89
-6.81
-2.99
0.83
3.76
5.1
4.62
2.78
0.6
-0.7
-0.27
2.01
5.45
8.94
11.47
12.72
13.15
13.87
16.01
20.2
26.32
33.63
40.98
46.93
49.83
47.95
39.93
25.52
6.17
-14.97
-34.15
-48.38
-56.81
-60.9
-63.36
-66.48
-70.71
-74.37
-74.71
-69.57
-58.63
-43.63
-27.55
-13.22
-2.26
5.24
10.24
13.97
17.07
19.5
20.76
20.52
18.99
16.95
15.41
15.07
15.93
17.33
18.28
18.03
16.45
14.07
11.77
10.35
10.09
10.7
11.47
11.67
10.9
9.26
7.3
5.67
4.82
4.79
5.25
5.68
5.64
4.98
3.85
2.59
1.51
0.73
0.18
-0.33
-0.99
-1.81
-2.67
-3.37
-3.78
-3.88
-3.8
-3.7
-3.71
-3.86
-4.06
-4.19
-4.15
-3.92
-3.56
-3.18
-2.86
-2.62
-2.4
-2.11
-1.69
-1.13
-0.52
0.02
0.37
0.54
0.6
0.69
0.9
1.22
1.56
1.8
1.89
1.8
1.59
1.33
1.06
0.79
0.54
0.37
0.36
0.58
1.07
1.76
2.48
3.04
3.3
3.23
2.88
2.39
1.89
1.46
1.08
0.73
0.39
0.08
-0.13
-0.21
-0.18
-0.13
-0.15
-0.31
-0.58
-0.87
-1.07
-1.09
-0.95
-0.72
-0.53
-0.5
-0.69
-1.07
-1.56
-2.09
-2.55
-2.86
-2.95
-2.78
-2.35
-1.74
-1.09
-0.55
-0.21
-0.07
-0.03
-0.01
0.04
0.09
0.05
-0.11
-0.36
-0.59
-0.7
-0.64
-0.47
-0.29
-0.19
-0.2
-0.25
-0.24
-0.14
0.04
0.2
0.24
0.12
-0.13
-0.43
-0.7
-0.9
-1.05
-1.14
-1.19
-1.12
-0.89
-0.5
-0.02
0.4
0.62
0.52
0.12
-0.49
-1.16
-1.75
-2.18
-2.46
-2.63
-2.71
-2.69
-2.54
-2.23
-1.8
-1.36
-1.03
-0.86
-0.82
-0.72
-0.41
0.22
1.1
2.03
2.79
3.21
3.29
3.14
2.94
2.77
2.65
2.52
2.29
1.92
1.42
0.88
0.38
0.01
-0.17
-0.17
-0.02
0.24
0.55
0.86
1.09
1.2
1.15
0.91
0.51
0.01
-0.5
-0.94
-1.29
-1.59
-1.91
-2.32
-2.82
-3.35
-3.81
-4.14
-4.32
-4.35
-4.24
-3.97
-3.53
-2.92
-2.19
-1.43
-0.77
-0.26
0.13
0.46
0.81
1.21
1.64
2.07
2.45
2.77
3.04
3.24
3.32
3.23
2.97
2.55
2.05
1.55
1.1
0.73
0.42
0.15
-0.07
-0.21
-0.22
-0.11
0.08
0.27
0.34
0.24
-0.06
-0.53
-1.09
-1.67
-2.16
-2.49
-2.63
-2.62
-2.52
-2.43
-2.46
-2.65
-2.98
-3.37
-3.71
-3.91
-3.89
-3.63
-3.12
-2.39
-1.53
-0.65
0.13
0.74
1.15
1.42
1.63
1.83
2.04
2.18
2.2
2.07
1.8
1.49
1.21
1.03
0.94
0.9
0.88
0.84
0.82
0.84
0.93
1.07
1.22
1.3
1.26
1.07
0.77
0.46
0.23
0.16
0.23
0.39
0.55
0.66
0.72
0.74
0.73
0.68
0.55
0.29
-0.07
-0.5
-0.91
-1.24
-1.46
-1.55
-1.5
-1.31
-1.02
-0.68
-0.36
-0.11
0.05
0.21
0.46
0.9
1.52
2.2
2.75
3.02
2.98
2.73
2.47
2.37
2.43
2.54
2.53
2.28
1.83
1.34
0.98
0.82
0.8
0.78
0.65
0.39
0.12
-0.02
0.04
0.25
0.48
0.55
0.38
-0.03
-0.57
-1.1
-1.54
-1.85
-2.1
-2.34
-2.64
-2.97
-3.26
-3.48
-3.6
-3.68
-3.79
-4.01
-4.32
-4.67
-4.94
-5.06
-4.99
-4.75
-4.37
-3.88
-3.25
-2.47
-1.53
-0.49
0.58
1.55
2.33
2.88
3.2
3.35
3.38
3.36
3.31
3.24
3.16
3.02
2.81
2.5
2.13
1.78
1.52
1.45
1.58
1.83
2.07
2.17
2.08
1.82
1.5
1.2
0.95
0.74
0.53
0.29
0.06
-0.07
-0.08
0.03
0.13
0.08
-0.23
-0.8
-1.51
-2.15
-2.55
-2.67
-2.61
-2.58
-2.78
-3.22
-3.78
-4.21
-4.32
-4.06
-3.52
-2.88
-2.24
-1.64
-1.04
-0.38
0.32
1.01
1.6
2.06
2.35
2.5
2.54
2.51
2.46
2.44
2.46
2.51
2.55
2.51
2.4
2.24
2.06
1.89
1.73
1.58
1.47
1.45
1.58
1.81
2.05
2.13
1.97
1.58
1.06
0.56
0.21
0.04
-0
0.02
0.04
0.02
-0.06
-0.21
-0.46
-0.81
-1.23
-1.66
-2.03
-2.28
-2.39
-2.41
-2.41
-2.46
-2.6
-2.8
-2.98
-3.03
-2.85
-2.41
-1.75
-0.95
-0.15
0.55
1.07
1.45
1.76
2.06
2.41
2.76
3.01
3.05
2.83
2.42
1.97
1.65
1.57
1.74
2.03
2.3
2.44
2.42
2.32
2.25
2.25
2.31
2.34
2.26
2.04
1.71
1.36
1.05
0.8
0.56
0.31
0.04
-0.19
-0.28
-0.23
-0.08
0.03
-0.03
-0.34
-0.84
-1.4
-1.89
-2.21
-2.4
-2.56
-2.81
-3.19
-3.68
-4.17
-4.53
-4.63
-4.44
-4
-3.42
-2.82
-2.23
-1.69
-1.13
-0.54
0.06
0.65
1.16
1.58
1.92
2.19
2.41
2.58
2.68
2.69
2.6
2.42
2.16
1.88
1.61
1.42
1.34
1.4
1.56
1.75
1.89
1.91
1.82
1.64
1.45
1.28
1.17
1.07
0.97
0.83
0.63
0.39
0.13
-0.16
-0.46
-0.76
-1.01
-1.18
-1.21
-1.14
-1
-0.89
-0.89
-1.04
-1.32
-1.7
-2.12
-2.51
-2.85
-3.08
-3.17
-3.1
-2.88
-2.55
-2.16
-1.77
-1.42
-1.12
-0.86
-0.59
-0.23
0.27
0.93
1.68
2.39
2.88
3.05
2.87
2.44
1.92
1.48
1.23
1.19
1.33
1.58
1.85
2.09
2.21
2.2
2.06
1.83
1.56
1.29
1.07
0.91
0.83
0.82
0.82
0.76
0.56
0.19
-0.29
-0.74
-1.04
-1.09
-0.91
-0.62
-0.34
-0.13
-0.01
0.03
0.03
-0.05
-0.26
-0.65
-1.19
-1.8
-2.38
-2.79
-2.98
-2.96
-2.79
-2.54
-2.29
-2.04
-1.77
-1.44
-1.03
-0.54
0.01
0.57
1.1
1.58
2
2.34
2.57
2.62
2.46
2.08
1.55
1
0.59
0.42
0.53
0.86
1.28
1.68
1.96
2.1
2.09
1.95
1.71
1.38
0.99
0.59
0.23
-0.07
-0.29
-0.45
-0.54
-0.58
-0.57
-0.52
-0.44
-0.33
-0.17
-0.01
0.13
0.17
0.05
-0.23
-0.65
-1.12
-1.57
-1.98
-2.33
-2.64
-2.86
-2.94
-2.83
-2.55
-2.18
-1.83
-1.56
-1.33
-1.08
-0.72
-0.25
0.29
0.83
1.33
1.75
2.07
2.24
2.19
1.92
1.48
1.03
0.69
0.55
0.6
0.78
1.02
1.27
1.48
1.58
1.53
1.3
0.93
0.54
0.29
0.27
0.49
0.8
1.02
1
0.7
0.27
-0.15
-0.41
-0.49
-0.45
-0.4
-0.4
-0.43
-0.43
-0.37
-0.31
-0.35
-0.59
-1.03
-1.56
-1.99
-2.2
-2.17
-2.04
-1.96
-2.04
-2.25
-2.47
-2.55
-2.41
-2.09
-1.67
-1.26
-0.93
-0.68
-0.45
-0.22
0.06
0.36
0.66
0.92
1.12
1.28
1.41
1.53
1.61
1.59
1.41
1.04
0.54
0.07
-0.2
-0.17
0.15
0.61
1.01
1.2
1.17
1.04
0.96
1.04
1.29
1.61
1.84
1.86
1.66
1.28
0.84
0.43
0.13
-0.02
0
0.23
0.66
1.24
1.8
2.14
2.06
1.53
0.66
-0.31
-1.13
-1.64
-1.85
-1.91
-1.93
-1.99
-2.05
-2.02
-1.85
-1.56
-1.23
-0.94
-0.73
-0.59
-0.46
-0.3
-0.1
0.16
0.45
0.73
0.98
1.17
1.33
1.49
1.71
1.99
2.31
2.57
2.67
2.57
2.29
1.9
1.54
1.32
1.29
1.42
1.63
1.8
1.87
1.79
1.57
1.27
0.94
0.64
0.38
0.16
-0.05
-0.29
-0.57
-0.91
-1.32
-1.79
-2.27
-2.69
-3.01
-3.2
-3.31
-3.41
-3.58
-3.87
-4.24
-4.62
-4.88
-4.94
-4.75
-4.33
-3.76
-3.12
-2.48
-1.88
-1.34
-0.85
-0.43
-0.07
0.2
0.41
0.59
0.77
0.97
1.2
1.46
1.72
1.98
2.21
2.4
2.51
2.54
2.47
2.37
2.27
2.22
2.22
2.24
2.2
2.05
1.79
1.46
1.16
0.96
0.9
0.93
0.97
0.92
0.74
0.44
0.11
-0.14
-0.25
-0.26
-0.25
-0.33
-0.59
-1.01
-1.5
-1.94
-2.23
-2.33
-2.32
-2.32
-2.41
-2.64
-2.91
-3.11
-3.09
-2.79
-2.26
-1.6
-0.94
-0.35
0.16
0.62
1.02
1.34
1.51
1.5
1.37
1.23
1.18
1.26
1.4
1.5
1.48
1.38
1.3
1.35
1.56
1.85
2.05
2.06
1.89
1.64
1.46
1.43
1.55
1.71
1.77
1.64
1.32
0.91
0.52
0.26
0.15
0.16
0.16
0.1
-0.08
-0.32
-0.53
-0.66
-0.71
-0.74
-0.85
-1.06
-1.32
-1.58
-1.77
-1.91
-2.05
-2.22
-2.43
-2.61
-2.67
-2.57
-2.34
-2.04
-1.73
-1.41
-1.04
-0.57
0.02
0.65
1.19
1.54
1.64
1.53
1.32
1.13
1.04
1.07
1.17
1.25
1.26
1.21
1.18
1.25
1.5
1.88
2.31
2.65
2.82
2.84
2.8
2.79
2.86
2.96
3
2.93
2.76
2.57
2.47
2.49
2.58
2.67
2.64
2.46
2.15
1.75
1.36
1.03
0.78
0.61
0.45
0.24
-0.13
-0.71
-1.56
-2.62
-3.76
-4.78
-5.48
-5.71
-5.43
-4.73
-3.78
-2.8
-1.93
-1.21
-0.6
-0.03
0.54
1.12
1.66
2.18
2.67
3.15
3.64
4.1
4.48
4.73
4.81
4.7
4.38
3.85
3.15
2.34
1.58
0.99
0.66
0.55
0.54
0.48
0.29
-0.05
-0.45
-0.82
-1.08
-1.23
-1.29
-1.33
-1.4
-1.52
-1.7
-1.89
-2.06
-2.17
-2.26
-2.38
-2.61
-2.99
-3.45
-3.87
-4.08
-4.05
-3.83
-3.6
-3.49
-3.53
-3.64
-3.69
-3.54
-3.17
-2.66
-2.14
-1.74
-1.56
-1.58
-1.77
-2
-2.14
-2.1
-1.82
-1.36
-0.81
-0.29
0.15
0.49
0.72
0.86
0.89
0.78
0.57
0.35
0.26
0.41
0.84
1.44
2.05
2.48
2.63
2.53
2.26
1.92
1.57
1.2
0.77
0.31
-0.12
-0.44
-0.6
-0.61
-0.52
-0.42
-0.32
-0.22
-0.09
0.05
0.16
0.18
0.1
-0.07
-0.24
-0.37
-0.4
-0.35
-0.26
-0.21
-0.24
-0.37
-0.6
-0.87
-1.11
-1.23
-1.2
-1.05
-0.87
-0.75
-0.73
-0.76
-0.76
-0.65
-0.44
-0.19
-0.01
0.03
-0.07
-0.22
-0.37
-0.46
-0.55
-0.7
-0.96
-1.29
-1.63
-1.93
-2.19
-2.45
-2.78
-3.18
-3.55
-3.74
-3.64
-3.28
-2.77
-2.29
-1.92
-1.65
-1.38
-1.01
-0.53
-0.01
0.44
0.79
1.08
1.39
1.81
2.3
2.78
3.14
3.28
3.22
3.01
2.73
2.49
2.34
2.3
2.38
2.5
2.56
2.48
2.24
1.87
1.46
1.1
0.81
0.6
0.44
0.33
0.31
0.4
0.54
0.66
0.65
0.47
0.17
-0.16
-0.41
-0.57
-0.66
-0.74
-0.85
-0.98
-1.1
-1.21
-1.31
-1.43
-1.57
-1.68
-1.73
-1.67
-1.56
-1.49
-1.54
-1.71
-1.89
-1.97
-1.84
-1.49
-0.99
-0.46
-0.02
0.27
0.43
0.52
0.61
0.73
0.89
1.04
1.13
1.16
1.17
1.24
1.43
1.74
2.12
2.45
2.68
2.82
2.93
3.06
3.17
3.18
3
2.63
2.15
1.7
1.39
1.19
1.01
0.73
0.3
-0.18
-0.57
-0.73
-0.62
-0.34
-0.04
0.15
0.17
0.07
-0.13
-0.39
-0.71
-1.07
-1.47
-1.83
-2.12
-2.32
-2.46
-2.59
-2.72
-2.81
-2.78
-2.57
-2.18
-1.65
-1.08
-0.53
-0.04
0.4
0.76
1.02
1.14
1.08
0.91
0.74
0.7
0.9
1.33
1.87
2.36
2.64
2.67
2.53
2.33
2.2
2.17
2.2
2.23
2.21
2.12
1.99
1.87
1.77
1.69
1.62
1.55
1.5
1.48
1.45
1.38
1.21
0.94
0.62
0.3
0.05
-0.1
-0.18
-0.23
-0.29
-0.36
-0.46
-0.57
-0.73
-0.95
-1.22
-1.5
-1.71
-1.8
-1.78
-1.73
-1.7
-1.73
-1.81
-1.84
-1.77
-1.6
-1.37
-1.14
-0.95
-0.76
-0.48
-0.09
0.41
0.9
1.28
1.46
1.49
1.51
1.65
1.99
2.44
2.85
3.02
2.88
2.47
1.96
1.52
1.26
1.15
1.11
1.04
0.93
0.85
0.87
1.03
1.26
1.44
1.46
1.29
1
0.71
0.48
0.32
0.17
-0.04
-0.32
-0.64
-0.88
-0.97
-0.88
-0.68
-0.51
-0.53
-0.83
-1.38
-2.03
-2.54
-2.75
-2.64
-2.34
-2.04
-1.88
-1.88
-1.95
-1.98
-1.9
-1.71
-1.49
-1.29
-1.09
-0.85
-0.48
0.02
0.58
1.11
1.54
1.82
1.96
1.99
1.97
1.94
1.9
1.84
1.7
1.46
1.16
0.86
0.68
0.66
0.78
0.95
1.05
1.01
0.85
0.66
0.52
0.47
0.46
0.44
0.37
0.25
0.14
0.09
0.1
0.16
0.22
0.23
0.17
0.02
-0.2
-0.46
-0.72
-0.93
-1.07
-1.14
-1.15
-1.17
-1.27
-1.49
-1.84
-2.27
-2.67
-2.93
-2.94
-2.71
-2.33
-1.96
-1.71
-1.61
-1.6
-1.54
-1.33
-0.97
-0.51
-0.08
0.26
0.49
0.67
0.88
1.12
1.37
1.55
1.56
1.37
0.99
0.53
0.12
-0.1
-0.07
0.17
0.52
0.82
0.97
0.92
0.7
0.35
-0.04
-0.42
-0.72
-0.87
-0.82
-0.57
-0.16
0.31
0.73
1.02
1.15
1.14
0.99
0.72
0.31
-0.19
-0.7
-1.09
-1.25
-1.2
-1.04
-0.95
-1.04
-1.36
-1.83
-2.3
-2.64
-2.76
-2.67
-2.41
-2.04
-1.61
-1.14
-0.67
-0.21
0.17
0.4
0.45
0.33
0.13
-0.03
-0.02
0.2
0.54
0.88
1.08
1.09
0.92
0.68
0.46
0.28
0.18
0.13
0.11
0.13
0.14
0.12
0.06
-0.05
-0.15
-0.19
-0.14
-0.03
0.08
0.1
0.01
-0.17
-0.35
-0.47
-0.49
-0.43
-0.37
-0.37
-0.45
-0.55
-0.59
-0.53
-0.39
-0.24
-0.2
-0.37
-0.73
-1.22
-1.72
-2.11
-2.32
-2.32
-2.11
-1.73
-1.26
-0.8
-0.43
-0.23
-0.17
-0.2
-0.2
-0.11
0.09
0.34
0.58
0.77
0.93
1.1
1.3
1.48
1.54
1.4
1.07
0.64
0.26
0.09
0.19
0.53
1.01
1.48
1.85
2.03
2.02
1.81
1.44
0.96
0.46
0.02
-0.3
-0.49
-0.59
-0.64
-0.64
-0.59
-0.47
-0.28
-0.08
0.02
-0.05
-0.31
-0.66
-0.94
-1.04
-0.93
-0.72
-0.58
-0.64
-0.94
-1.38
-1.8
-2.1
-2.25
-2.27
-2.21
-2.07
-1.81
-1.41
-0.87
-0.32
0.14
0.41
0.48
0.39
0.26
0.19
0.21
0.28
0.31
0.24
0.08
-0.1
-0.16
-0.02
0.28
0.64
0.87
0.91
0.78
0.61
0.54
0.62
0.81
0.95
0.96
0.81
0.58
0.38
0.25
0.18
0.12
0.02
-0.11
-0.27
-0.41
-0.55
-0.71
-0.9
-1.13
-1.32
-1.45
-1.49
-1.51
-1.57
-1.71
-1.9
-2.06
-2.15
-2.15
-2.14
-2.21
-2.43
-2.75
-3.04
-3.11
-2.84
-2.2
-1.28
-0.27
0.64
1.3
1.67
1.77
1.71
1.58
1.47
1.44
1.49
1.59
1.7
1.75
1.71
1.54
1.27
0.98
0.77
0.69
0.73
0.82
0.88
0.84
0.72
0.57
0.45
0.4
0.45
0.61
0.86
1.14
1.34
1.38
1.21
0.85
0.41
0.05
-0.15
-0.16
-0.09
-0.03
-0.05
-0.18
-0.34
-0.51
-0.68
-0.91
-1.23
-1.67
-2.15
-2.54
-2.7
-2.56
-2.12
-1.52
-0.93
-0.47
-0.22
-0.11
-0.07
0.02
0.22
0.51
0.85
1.18
1.46
1.68
1.81
1.87
1.82
1.7
1.54
1.39
1.31
1.31
1.35
1.37
1.32
1.14
0.87
0.54
0.17
-0.24
-0.7
-1.19
-1.65
-1.96
-2.03
-1.89
-1.7
-1.69
-2.08
-2.89
-3.95
-4.94
-5.54
-5.63
-5.35
-5.02
-4.99
-5.46
-6.39
-7.53
-8.52
-9
-8.73
-7.64
-5.81
-3.48
-0.98
1.34
3.15
4.22
4.36
3.51
1.58
-1.39
-5.29
-9.81
-14.41
-18.38
-20.93
-21.36
-19.26
-14.68
-8.19
-0.86
5.97
10.98
13.3
12.81
10.19
6.73
3.91
2.82
3.83
6.52
9.99
13.31
15.98
17.98
19.66
21.29
22.86
24.02
24.36
23.7
22.24
20.52
19.14
18.42
18.32
18.5
18.53
18.05
16.78
14.5
10.91
5.78
-0.79
-8.25
-15.56
-21.6
-25.57
-27.35
-27.41
-26.46
-24.99
-23.09
-20.53
-17.18
-13.22
-9.22
-5.77
-3.18
-1.32
0.21
1.76
3.32
4.51
4.85
4.09
2.4
0.32
-1.47
-2.47
-2.48
-1.72
-0.72
-0.24
-0.96
-3.21
-6.74
-10.65
-13.71
-14.79
-13.35
-9.76
-5.01
-0.26
3.68
6.64
8.94
11.04
13.22
15.43
17.28
18.06
17.05
13.94
9.11
3.54
-1.8
-6.62
-11.26
-16.57
-22.8
-29.2
-34.27
-36.37
-34.55
-29.04
-21.21
-12.58
-4.95
0.59
3.94
5.79
7.09
8.46
9.99
11.4
12.4
12.92
13.31
14.02
15.35
17.19
19.08
20.41
20.78
20.1
18.57
16.59
14.51
12.54
10.73
9.07
7.52
6.08
4.79
3.65
2.7
1.94
1.32
0.74
0.04
-0.89
-2.05
-3.3
-4.4
-5.07
-5.17
-4.78
-4.16
-3.61
-3.33
-3.25
-3.13
-2.66
-1.61
0.08
2.29
4.78
7.31
9.69
11.74
13.33
14.37
14.76
14.41
13.23
11.11
7.92
3.64
-1.63
-7.52
-13.39
-18.41
-21.72
-22.69
-21.17
-17.66
-13.18
-8.98
-6.17
-5.25
-5.99
-7.47
-8.45
-7.92
-5.51
-1.75
2.19
4.92
5.37
3.3
-0.59
-4.87
-7.98
-8.83
-7.3
-4.19
-0.82
1.64
2.64
2.41
1.58
0.8
0.38
0.25
0.18
0.07
0.04
0.25
0.73
1.27
1.46
1.02
-0.05
-1.44
-2.71
-3.49
-3.67
-3.37
-2.8
-2.2
-1.67
-1.21
-0.76
-0.28
0.23
0.69
0.99
1.03
0.78
0.29
-0.32
-0.91
-1.36
-1.59
-1.57
-1.24
-0.59
0.34
1.42
2.44
3.15
3.39
3.2
2.7
2.16
1.76
1.6
1.67
1.84
2
2.03
1.85
1.44
0.83
0.12
-0.52
-0.91
-0.93
-0.62
-0.12
0.34
0.6
0.63
0.56
0.57
0.79
1.21
1.74
2.24
2.6
2.84
2.99
3.07
3.07
2.97
2.81
2.69
2.75
3.04
3.49
3.87
3.93
3.55
2.77
1.81
0.88
0.05
-0.8
-1.91
-3.5
-5.62
-8.13
-10.7
-12.91
-14.39
-14.84
-14.09
-12.12
-9.07
-5.2
-0.89
3.41
7.26
10.29
12.27
13.1
12.83
11.6
9.63
7.22
4.73
2.55
1.08
0.61
1.22
2.77
4.81
6.75
7.98
8.09
6.95
4.81
2.15
-0.43
-2.43
-3.67
-4.25
-4.49
-4.74
-5.18
-5.74
-6.23
-6.47
-6.43
-6.23
-6.07
-6.05
-6.17
-6.26
-6.2
-5.91
-5.44
-4.91
-4.47
-4.19
-4.1
-4.12
-4.15
-4.07
-3.85
-3.58
-3.41
-3.49
-3.88
-4.46
-5.04
-5.5
-5.94
-6.63
-7.8
-9.43
-11.12
-12.22
-12.17
-10.71
-8.01
-4.51
-0.7
3.05
6.5
9.47
11.76
13.1
13.35
12.53
10.91
8.91
6.98
5.42
4.4
3.92
3.91
4.28
4.96
5.88
6.99
8.17
9.29
10.14
10.55
10.43
9.79
8.75
7.45
6.02
4.53
3.05
1.61
0.32
-0.69
-1.31
-1.51
-1.37
-1.05
-0.78
-0.76
-1.1
-1.76
-2.61
-3.41
-3.94
-4.09
-3.95
-3.82
-4.03
-4.83
-6.18
-7.76
-9.09
-9.75
-9.55
-8.62
-7.24
-5.65
-3.93
-2.03
0.11
2.41
4.63
6.51
7.84
8.61
8.88
8.74
8.21
7.27
5.95
4.41
2.85
1.42
0.16
-1.05
-2.31
-3.63
-4.8
-5.53
-5.55
-4.77
-3.29
-1.34
0.87
3.13
5.28
7.11
8.45
9.12
9.11
8.55
7.7
6.9
6.34
6.09
6.02
5.98
5.83
5.49
5
4.43
3.89
3.47
3.23
3.14
3.07
2.83
2.25
1.31
0.22
-0.58
-0.63
0.39
2.39
4.93
7.28
8.77
9
8
6.13
3.93
1.91
0.42
-0.45
-0.74
-0.63
-0.34
-0.03
0.17
0.19
0.03
-0.29
-0.79
-1.55
-2.65
-4.11
-5.84
-7.56
-8.89
-9.47
-9.14
-7.98
-6.33
-4.59
-3.13
-2.15
-1.66
-1.47
-1.29
-0.85
-0.01
1.17
2.44
3.52
4.19
4.5
4.72
5.35
6.89
9.66
13.73
18.8
24.24
29.15
32.42
33.02
30.36
24.6
16.73
8.27
0.59
-5.57
-10.39
-14.53
-18.63
-22.7
-26.22
-28.56
-29.51
-29.56
-29.49
-29.85
-30.4
-30.25
-28.41
-24.54
-19.35
-14.3
-10.93
-9.99
-11.18
-13.31
-15.01
-15.38
-14.43
-12.96
-12.04
-12.5
-14.51
-17.61
-20.91
-23.53
-24.8
-24.49
-22.77
-20.07
-16.87
-13.58
-10.53
-8.03
-6.56
-6.42
-7.78
-10.47
-13.96
-17.3
-19.3
-18.81
-15.02
-7.92
1.92
13.19
24.04
32.53
37.46
38.82
37.81
36.46
36.59
39.59
45.79
54.31
63.29
70.43
73.47
70.61
61
43.13
18.18
-9.49
-33.92
-50.54
-58.13
-58.36
-55.16
-50.2
-43.91
-35.92
-26.14
-15.33
-4.92
3.69
9.44
12.13
12.6
11.9
11.24
11.32
12.02
12.43
11.44
8.19
2.45
-5.27
-14.07
-22.61
-29.44
-33.47
-34.33
-32.42
-28.68
-24.26
-20.01
-16.54
-14.07
-12.69
-12.6
-14.09
-17.28
-21.68
-25.95
-28.11
-26.3
-19.41
-7.59
7.75
24.5
40.55
54.37
65.15
72.61
76.54
76.73
72.99
65.52
55.06
42.92
30.6
19.42
10.2
3.2
-1.73
-4.91
-6.68
-7.37
-7.33
-6.95
-6.62
-6.65
-7.08
-7.7
-8.13
-8
-7.17
-5.84
-4.46
-3.54
-3.36
-3.86
-4.7
-5.4
-5.64
-5.33
-4.67
-3.96
-3.44
-3.19
-3.11
-3.09
-3.05
-3
-3.01
-3.15
-3.39
-3.65
-3.83
-3.86
-3.72
-3.47
-3.16
-2.83
-2.5
-2.15
-1.74
-1.28
-0.76
-0.24
0.23
0.57
0.72
0.67
0.44
0.1
-0.22
-0.42
-0.4
-0.14
0.35
0.96
1.57
2.06
2.37
2.52
2.54
2.48
2.38
2.2
1.93
1.55
1.12
0.71
0.4
0.24
0.19
0.15
0.02
-0.27
-0.74
-1.3
-1.86
-2.3
-2.57
-2.67
-2.66
-2.6
-2.55
-2.53
-2.52
-2.46
-2.32
-2.1
-1.79
-1.43
-1.05
-0.69
-0.37
-0.15
-0.04
-0.06
-0.16
-0.28
-0.33
-0.24
-0.05
0.18
0.37
0.44
0.37
0.18
-0.1
-0.43
-0.81
-1.18
-1.52
-1.79
-1.94
-1.98
-1.92
-1.76
-1.48
-1.11
-0.67
-0.21
0.21
0.59
0.99
1.51
2.24
3.2
4.26
5.25
6.01
6.49
6.7
6.75
6.68
6.41
5.79
4.64
2.87
0.6
-1.86
-4.11
-5.75
-6.47
-6.15
-4.78
-2.54
0.27
3.2
5.65
7
6.8
4.96
1.84
-1.81
-5.12
-7.38
-8.27
-7.9
-6.69
-5.15
-3.69
-2.57
-1.89
-1.69
-1.96
-2.69
-3.88
-5.51
-7.48
-9.68
-11.8
-13.48
-14.23
-13.76
-12.02
-9.35
-6.28
-3.34
-0.75
1.52
3.64
5.63
7.17
7.81
7.2
5.47
3.21
1.26
0.33
0.59
1.7
3.02
3.98
4.32
4.18
3.95
4.03
4.62
5.64
6.84
7.87
8.47
8.54
8.17
7.58
6.98
6.51
6.1
5.64
4.97
4.05
2.94
1.77
0.64
-0.48
-1.61
-2.77
-3.83
-4.6
-4.94
-4.88
-4.65
-4.6
-4.99
-5.82
-6.87
-7.76
-8.16
-7.94
-7.18
-6.1
-4.93
-3.81
-2.74
-1.71
-0.69
0.3
1.15
1.78
2.1
2.07
1.78
1.35
0.94
0.67
0.56
0.52
0.42
0.17
-0.26
-0.78
-1.23
-1.48
-1.49
-1.32
-1.11
-0.92
-0.78
-0.61
-0.34
0.05
0.53
1.01
1.41
1.71
1.94
2.15
2.33
2.44
2.44
2.29
2.07
1.88
1.83
1.94
2.14
2.29
2.28
2.09
1.8
1.51
1.31
1.22
1.16
1.04
0.83
0.57
0.37
0.28
0.31
0.42
0.51
0.5
0.4
0.25
0.14
0.12
0.2
0.29
0.28
0.07
-0.39
-1.04
-1.72
-2.29
-2.62
-2.71
-2.63
-2.48
-2.33
-2.2
-2.05
-1.85
-1.6
-1.34
-1.1
-0.86
-0.57
-0.17
0.34
0.93
1.48
1.87
2.03
1.96
1.74
1.49
1.31
1.23
1.22
1.18
1.03
0.78
0.48
0.26
0.22
0.37
0.63
0.86
0.96
0.89
0.7
0.48
0.29
0.17
0.09
0.04
-0.02
-0.08
-0.15
-0.26
-0.43
-0.65
-0.88
-1.06
-1.14
-1.14
-1.12
-1.17
-1.33
-1.61
-1.94
-2.27
-2.55
-2.75
-2.87
-2.91
-2.85
-2.67
-2.35
-1.9
-1.35
-0.7
0.05
0.91
1.87
2.86
3.71
4.32
4.63
4.73
4.77
4.91
5.21
5.49
5.5
5.01
3.97
2.58
1.22
0.27
-0.1
0.1
0.68
1.38
1.9
2.03
1.62
0.63
-0.88
-2.69
-4.46
-5.86
-6.64
-6.74
-6.3
-5.56
-4.73
-3.97
-3.3
-2.67
-2.02
-1.36
-0.75
-0.32
-0.19
-0.46
-1.1
-1.97
-2.85
-3.53
-3.85
-3.8
-3.49
-3.11
-2.8
-2.61
-2.49
-2.36
-2.14
-1.82
-1.4
-0.94
-0.44
0.07
0.6
1.08
1.46
1.72
1.91
2.1
2.36
2.7
3.05
3.32
3.43
3.38
3.19
2.91
2.57
2.19
1.82
1.51
1.34
1.29
1.3
1.25
1.02
0.6
0.04
-0.53
-0.99
-1.26
-1.32
-1.18
-0.87
-0.49
-0.13
0.1
0.13
-0.08
-0.47
-0.98
-1.49
-1.94
-2.3
-2.57
-2.75
-2.82
-2.78
-2.58
-2.2
-1.65
-1
-0.34
0.2
0.55
0.73
0.84
1
1.3
1.72
2.16
2.52
2.7
2.66
2.47
2.21
2.01
1.95
2.05
2.3
2.59
2.78
2.75
2.46
1.96
1.4
0.91
0.59
0.43
0.33
0.21
-0.01
-0.33
-0.7
-1.09
-1.43
-1.71
-1.89
-2
-2.06
-2.12
-2.24
-2.43
-2.66
-2.85
-2.9
-2.75
-2.4
-1.93
-1.41
-0.95
-0.57
-0.33
-0.22
-0.28
-0.47
-0.76
-1.08
-1.37
-1.7
-2.14
-2.81
-3.68
-4.55
-5.06
-4.79
-3.41
-0.82
2.8
7.03
11.31
15.08
17.85
19.33
19.42
18.24
16.05
13.2
10.06
6.92
4.01
1.47
-0.63
-2.27
-3.47
-4.27
-4.7
-4.74
-4.41
-3.66
-2.49
-0.99
0.66
2.17
3.23
3.6
3.28
2.52
1.7
1.19
1.18
1.62
2.24
2.76
2.92
2.65
1.92
0.81
-0.56
-2.02
-3.32
-4.18
-4.44
-4.09
-3.32
-2.45
-1.74
-1.34
-1.2
-1.24
-1.33
-1.43
-1.53
-1.59
-1.53
-1.26
-0.79
-0.24
0.19
0.28
-0.04
-0.7
-1.51
-2.26
-2.83
-3.16
-3.29
-3.2
-2.91
-2.41
-1.77
-1.12
-0.64
-0.48
-0.72
-1.31
-2.07
-2.8
-3.31
-3.49
-3.38
-3.13
-2.94
-3.01
-3.43
-4.14
-4.99
-5.78
-6.35
-6.7
-6.91
-7.17
-7.61
-8.24
-8.9
-9.32
-9.21
-8.37
-6.76
-4.53
-1.96
0.59
2.77
4.32
5.15
5.33
5.09
4.73
4.52
4.61
4.98
5.46
5.83
5.9
5.54
4.73
3.51
1.99
0.34
-1.28
-2.7
-3.78
-4.46
-4.77
-4.8
-4.81
-5.15
-6.13
-7.86
-10.07
-12.08
-12.95
-11.89
-8.54
-3.27
3.01
9.17
14.34
18.11
20.53
21.83
22.13
21.35
19.3
15.94
11.58
6.85
2.5
-0.9
-3.16
-4.5
-5.31
-5.95
-6.55
-6.98
-7.03
-6.58
-5.73
-4.79
-4.07
-3.75
-3.79
-3.92
-3.83
-3.31
-2.33
-1.07
0.18
1.18
1.76
1.91
1.73
1.4
1.08
0.95
1.1
1.53
2.22
3.07
3.94
4.68
5.17
5.4
5.46
5.5
5.7
6.1
6.64
7.09
7.23
6.9
6.14
5.13
4.14
3.35
2.83
2.46
2.06
1.47
0.65
-0.34
-1.42
-2.54
-3.77
-5.14
-6.63
-8.06
-9.15
-9.68
-9.6
-9.09
-8.49
-8.07
-7.94
-7.97
-7.91
-7.54
-6.76
-5.65
-4.35
-3.02
-1.78
-0.69
0.18
0.74
0.98
0.94
0.71
0.38
-0.04
-0.56
-1.21
-1.9
-2.48
-2.76
-2.64
-2.17
-1.52
-0.88
-0.36
0.02
0.33
0.6
0.8
0.87
0.72
0.38
-0.08
-0.56
-0.97
-1.29
-1.53
-1.74
-1.9
-2.02
-2.05
-1.97
-1.81
-1.6
-1.43
-1.32
-1.28
-1.28
-1.25
-1.14
-0.9
-0.52
-0.02
0.52
1.04
1.48
1.83
2.1
2.35
2.55
2.67
2.63
2.44
2.18
1.97
1.94
2.07
2.26
2.33
2.18
1.83
1.46
1.25
1.31
1.6
1.97
2.28
2.43
2.45
2.4
2.32
2.17
1.94
1.61
1.24
0.9
0.68
0.57
0.52
0.43
0.24
-0.03
-0.33
-0.57
-0.73
-0.85
-0.99
-1.2
-1.46
-1.69
-1.81
-1.8
-1.7
-1.61
-1.61
-1.7
-1.8
-1.84
-1.76
-1.58
-1.34
-1.1
-0.84
-0.49
-0.02
0.58
1.24
1.82
2.21
2.32
2.21
1.97
1.73
1.59
1.63
1.8
1.98
2.07
1.97
1.73
1.45
1.26
1.23
1.34
1.44
1.38
1.11
0.67
0.23
-0.05
-0.13
-0.07
0
-0.01
-0.11
-0.18
-0.13
0.09
0.36
0.54
0.48
0.15
-0.35
-0.85
-1.17
-1.23
-1.07
-0.81
-0.57
-0.48
-0.53
-0.68
-0.86
-0.97
-0.98
-0.85
-0.61
-0.32
-0.05
0.13
0.2
0.18
0.14
0.17
0.31
0.54
0.77
0.88
0.71
0.16
-0.82
-2.16
-3.71
-5.14
-6.04
-6.01
-4.83
-2.51
0.62
3.99
7.03
9.31
10.69
11.3
11.38
11.17
10.75
10.08
9.03
7.58
5.87
4.13
2.65
1.56
0.84
0.31
-0.21
-0.81
-1.45
-2.02
-2.43
-2.69
-2.87
-3.07
-3.3
-3.53
-3.7
-3.8
-3.85
-3.9
-3.98
-4.11
-4.26
-4.45
-4.68
-4.95
-5.16
-5.18
-4.86
-4.2
-3.39
-2.69
-2.34
-2.41
-2.75
-3.13
-3.29
-3.12
-2.63
-1.87
-0.87
0.34
1.7
3.06
4.17
4.78
4.81
4.39
3.79
3.27
3
2.9
2.84
2.68
2.43
2.24
2.31
2.72
3.42
4.25
5.02
5.62
6.05
6.31
6.39
6.2
5.6
4.51
3
1.25
-0.45
-1.81
-2.7
-3.1
-3.11
-2.84
-2.43
-2
-1.65
-1.53
-1.74
-2.4
-3.5
-4.93
-6.45
-7.75
-8.55
-8.65
-8.05
-6.87
-5.36
-3.79
-2.47
-1.63
-1.5
-2.16
-3.46
-5.03
-6.28
-6.7
-6.02
-4.41
-2.42
-0.71
0.26
0.41
0.04
-0.43
-0.67
-0.6
-0.36
-0.17
-0.11
-0.17
-0.25
-0.27
-0.28
-0.34
-0.56
-0.92
-1.35
-1.67
-1.71
-1.38
-0.66
0.35
1.46
2.46
3.17
3.52
3.55
3.36
3.03
2.58
2.01
1.32
0.56
-0.16
-0.75
-1.18
-1.51
-1.81
-2.14
-2.47
-2.71
-2.81
-2.78
-2.74
-2.8
-3.05
-3.4
-3.69
-3.69
-3.24
-2.34
-1.15
0.09
1.15
1.91
2.39
2.73
3.07
3.53
4.1
4.71
5.24
5.64
5.89
6.04
6.14
6.27
6.45
6.67
6.93
7.22
7.51
7.79
8.02
8.13
8.04
7.67
6.99
6.01
4.89
3.77
2.81
2.09
1.52
0.95
0.19
-0.85
-2.1
-3.39
-4.49
-5.26
-5.63
-5.64
-5.34
-4.74
-3.77
-2.37
-0.61
1.35
3.17
4.54
5.21
5.12
4.42
3.35
2.19
1.07
0.06
-0.88
-1.77
-2.53
-3.01
-3.1
-2.78
-2.2
-1.59
-1.12
-0.86
-0.77
-0.75
-0.75
-0.77
-0.88
-1.1
-1.37
-1.58
-1.62
-1.44
-1.06
-0.58
-0.11
0.24
0.4
0.33
0.02
-0.47
-1.02
-1.52
-1.89
-2.14
-2.34
-2.58
-2.88
-3.2
-3.43
-3.45
-3.22
-2.84
-2.43
-2.14
-2.01
-1.96
-1.84
-1.54
-1.05
-0.49
-0.04
0.17
0.11
-0.13
-0.39
-0.48
-0.34
0.04
0.54
1.04
1.44
1.7
1.84
1.86
1.82
1.7
1.52
1.3
1.07
0.89
0.8
0.83
0.93
1.03
1.04
0.88
0.55
0.12
-0.31
-0.65
-0.87
-0.99
-1.06
-1.13
-1.19
-1.19
-1.07
-0.82
-0.48
-0.14
0.09
0.12
-0.06
-0.44
-0.93
-1.46
-1.95
-2.3
-2.48
-2.48
-2.37
-2.27
-2.3
-2.51
-2.86
-3.2
-3.36
-3.21
-2.73
-2.03
-1.31
-0.73
-0.42
-0.42
-0.66
-1.04
-1.44
-1.76
-1.93
-1.97
-1.96
-2.03
-2.3
-2.81
-3.48
-4.08
-4.29
-3.81
-2.44
-0.16
2.84
6.21
9.51
12.29
14.23
15.17
15.13
14.27
12.85
11.11
9.23
7.34
5.53
3.85
2.36
1.12
0.12
-0.65
-1.26
-1.77
-2.26
-2.76
-3.25
-3.72
-4.13
-4.42
-4.54
-4.45
-4.17
-3.73
-3.22
-2.69
-2.17
-1.69
-1.25
-0.86
-0.58
-0.4
-0.33
-0.38
-0.48
-0.6
-0.67
-0.62
-0.44
-0.13
0.26
0.65
0.96
1.17
1.26
1.24
1.16
1.03
0.88
0.76
0.7
0.7
0.78
0.89
1.02
1.14
1.22
1.25
1.2
1.05
0.78
0.42
-0.01
-0.47
-0.93
-1.35
-1.71
-1.95
-2.04
-1.98
-1.84
-1.71
-1.68
-1.79
-2.02
-2.3
-2.51
-2.6
-2.51
-2.27
-1.94
-1.55
-1.19
-0.88
-0.65
-0.46
-0.29
-0.06
0.28
0.75
1.3
1.9
2.46
2.88
3.09
3.01
2.64
2.06
1.4
0.84
0.54
0.54
0.76
1.08
1.36
1.53
1.61
1.64
1.65
1.62
1.54
1.38
1.17
0.94
0.72
0.49
0.2
-0.15
-0.54
-0.88
-1.11
-1.2
-1.17
-1.07
-0.95
-0.83
-0.72
-0.58
-0.4
-0.22
-0.1
-0.16
-0.47
-1.03
-1.73
-2.38
-2.78
-2.87
-2.74
-2.6
-2.64
-2.93
-3.37
-3.73
-3.79
-3.41
-2.58
-1.4
0.02
1.58
3.15
4.59
5.74
6.49
6.8
6.72
6.39
5.97
5.57
5.26
5
4.66
4.11
3.24
1.98
0.39
-1.38
-3.13
-4.64
-5.76
-6.44
-6.76
-6.87
-6.88
-6.85
-6.74
-6.5
-6.09
-5.54
-4.93
-4.39
-3.98
-3.67
-3.34
-2.86
-2.19
-1.4
-0.66
-0.18
-0.11
-0.43
-0.98
-1.5
-1.77
-1.67
-1.28
-0.82
-0.52
-0.52
-0.78
-1.11
-1.27
-1.08
-0.55
0.2
0.91
1.43
1.7
1.83
1.96
2.17
2.44
2.63
2.64
2.45
2.18
1.98
1.98
2.13
2.26
2.22
1.94
1.49
1.1
0.96
1.15
1.56
1.98
2.21
2.15
1.85
1.46
1.13
0.96
0.93
0.97
0.97
0.89
0.75
0.57
0.37
0.11
-0.22
-0.61
-0.96
-1.17
-1.14
-0.94
-0.73
-0.68
-0.9
-1.33
-1.76
-1.97
-1.88
-1.57
-1.23
-1.05
-1.09
-1.23
-1.28
-1.12
-0.75
-0.31
0.02
0.13
0.01
-0.23
-0.45
-0.52
-0.4
-0.09
0.32
0.74
1.06
1.19
1.1
0.81
0.43
0.09
-0.16
-0.33
-0.52
-0.82
-1.26
-1.71
-2.03
-2.07
-1.84
-1.47
-1.17
-1.08
-1.25
-1.6
-1.98
-2.32
-2.57
-2.73
-2.8
-2.74
-2.48
-1.95
-1.16
-0.15
0.99
2.14
3.17
3.96
4.4
4.44
4.08
3.42
2.57
1.71
0.94
0.38
0.07
0.04
0.27
0.67
1.15
1.59
1.93
2.16
2.33
2.48
2.67
2.88
3.05
3.12
3.07
2.88
2.6
2.28
1.94
1.61
1.27
0.93
0.64
0.44
0.4
0.54
0.8
1.06
1.19
1.1
0.83
0.49
0.22
0.1
0.11
0.18
0.21
0.15
0.01
-0.12
-0.22
-0.28
-0.36
-0.55
-0.89
-1.34
-1.8
-2.16
-2.36
-2.41
-2.4
-2.41
-2.49
-2.62
-2.71
-2.68
-2.51
-2.23
-1.98
-1.86
-1.9
-2.04
-2.11
-1.96
-1.54
-0.92
-0.25
0.26
0.5
0.51
0.41
0.39
0.54
0.84
1.17
1.4
1.43
1.3
1.1
0.92
0.84
0.85
0.94
1.05
1.16
1.28
1.42
1.56
1.69
1.74
1.66
1.44
1.09
0.66
0.26
-0.05
-0.21
-0.24
-0.2
-0.15
-0.12
-0.13
-0.14
-0.14
-0.14
-0.18
-0.28
-0.47
-0.72
-1.01
-1.33
-1.66
-1.97
-2.2
-2.26
-2.12
-1.8
-1.39
-0.99
-0.67
-0.44
-0.23
0.04
0.41
0.81
1.15
1.34
1.31
1.11
0.84
0.63
0.57
0.68
0.91
1.17
1.37
1.43
1.31
1.07
0.76
0.5
0.34
0.35
0.49
0.71
0.93
1.08
1.13
1.1
1.01
0.92
0.82
0.72
0.59
0.39
0.14
-0.16
-0.44
-0.68
-0.85
-0.93
-0.92
-0.85
-0.75
-0.68
-0.71
-0.88
-1.19
-1.55
-1.87
-2.03
-2
-1.81
-1.58
-1.41
-1.35
-1.34
-1.3
-1.17
-0.96
-0.74
-0.55
-0.41
-0.26
-0.05
0.27
0.67
1.06
1.35
1.49
1.49
1.39
1.25
1.06
0.83
0.61
0.45
0.42
0.56
0.83
1.13
1.37
1.49
1.53
1.54
1.56
1.59
1.58
1.47
1.24
0.96
0.68
0.46
0.3
0.16
0.01
-0.14
-0.26
-0.33
-0.34
-0.38
-0.5
-0.73
-1.04
-1.36
-1.6
-1.74
-1.78
-1.75
-1.68
-1.57
-1.43
-1.28
-1.2
-1.26
-1.48
-1.8
-2.12
-2.3
-2.24
-1.95
-1.47
-0.93
-0.41
0.02
0.38
0.72
1.09
1.5
1.89
2.16
2.2
2.01
1.66
1.3
1.09
1.06
1.14
1.17
1.03
0.72
0.34
0.03
-0.08
0
0.18
0.33
0.36
0.29
0.19
0.13
0.18
0.31
0.47
0.57
0.56
0.42
0.21
0.01
-0.12
-0.12
-0.06
-0.02
-0.1
-0.38
-0.8
-1.26
-1.64
-1.84
-1.88
-1.8
-1.67
-1.52
-1.34
-1.12
-0.87
-0.65
-0.5
-0.44
-0.42
-0.36
-0.21
0.03
0.32
0.56
0.7
0.73
0.68
0.6
0.52
0.47
0.4
0.27
0.06
-0.19
-0.39
-0.48
-0.41
-0.24
-0.03
0.13
0.2
0.2
0.15
0.06
-0.06
-0.26
-0.55
-0.86
-1.12
-1.26
-1.2
-0.95
-0.58
-0.19
0.11
0.19
-0.03
-0.51
-1.13
-1.72
-2.14
-2.34
-2.43
-2.56
-2.87
-3.38
-3.95
-4.34
-4.33
-3.83
-2.91
-1.78
-0.67
0.23
0.88
1.34
1.71
2.06
2.38
2.61
2.7
2.59
2.23
1.59
0.51
-1.11
-3.3
-5.85
-8.28
-9.95
-10.32
-9.12
-6.48
-2.89
1.08
4.88
8.17
10.78
12.63
13.65
13.84
13.29
12.22
10.94
9.72
8.7
7.83
6.96
5.94
4.67
3.23
1.73
0.27
-1.07
-2.3
-3.42
-4.4
-5.16
-5.63
-5.8
-5.71
-5.49
-5.31
-5.29
-5.42
-5.66
-5.85
-5.87
-5.67
-5.25
-4.65
-3.92
-3.02
-1.79
-0.07
2.24
5.03
7.99
10.66
12.61
13.6
13.72
13.34
12.93
12.91
13.4
14.16
14.73
14.64
13.6
11.66
9.16
6.57
4.32
2.55
1.17
-0.07
-1.48
-3.25
-5.5
-8.28
-11.58
-15.21
-18.77
-21.66
-23.21
-22.96
-20.9
-17.48
-13.41
-9.3
-5.5
-2.05
1.13
4.01
6.27
7.5
7.39
6.04
3.95
1.83
0.26
-0.57
-0.89
-1.25
-2.16
-3.81
-5.97
-8.13
-9.69
-10.19
-9.51
-7.81
-5.45
-2.82
-0.2
2.23
4.43
6.34
7.94
9.08
9.65
9.56
8.8
7.52
5.97
4.49
3.33
2.62
2.29
2.12
1.87
1.38
0.67
-0.08
-0.66
-0.93
-0.92
-0.81
-0.83
-1.13
-1.7
-2.4
-2.99
-3.29
-3.24
-2.88
-2.37
-1.84
-1.4
-1.07
-0.8
-0.54
-0.29
-0.12
-0.12
-0.36
-0.84
-1.46
-2.08
-2.54
-2.8
-2.85
-2.74
-2.52
-2.19
-1.76
-1.24
-0.69
-0.2
0.17
0.4
0.54
0.68
0.88
1.14
1.35
1.4
1.19
0.73
0.11
-0.5
-0.96
-1.17
-1.13
-0.93
-0.67
-0.46
-0.34
-0.33
-0.41
-0.57
-0.8
-1.1
-1.4
-1.68
-1.85
-1.89
-1.78
-1.6
-1.41
-1.32
-1.39
-1.58
-1.82
-2
-2.07
-2.05
-2.07
-2.24
-2.61
-3.09
-3.5
-3.69
-3.59
-3.27
-2.88
-2.49
-2.03
-1.3
-0.14
1.48
3.41
5.39
7.25
8.91
10.46
11.97
13.34
14.28
14.45
13.63
11.85
9.4
6.64
3.86
1.17
-1.43
-3.84
-5.83
-7.03
-7.12
-6.04
-4.12
-1.97
-0.31
0.34
-0.14
-1.47
-3.04
-4.24
-4.69
-4.41
-3.77
-3.29
-3.37
-4.11
-5.29
-6.46
-7.19
-7.2
-6.5
-5.28
-3.81
-2.36
-1.08
-0.06
0.65
1.01
0.98
0.56
-0.2
-1.14
-2.09
-2.84
-3.26
-3.33
-3.09
-2.68
-2.24
-1.89
-1.77
-1.94
-2.42
-3.16
-4
-4.78
-5.37
-5.72
-5.84
-5.79
-5.58
-5.24
-4.76
-4.15
-3.36
-2.32
-0.88
1.05
3.45
6.07
8.49
10.26
11.08
10.97
10.18
9.13
8.19
7.53
7.14
6.88
6.63
6.35
6.08
5.84
5.63
5.38
4.98
4.4
3.69
2.98
2.4
2.03
1.8
1.6
1.31
0.89
0.41
-0.01
-0.27
-0.31
-0.19
0.01
0.2
0.35
0.43
0.44
0.37
0.23
0.06
-0.07
-0.09
0.04
0.29
0.59
0.85
1.02
1.08
1.11
1.14
1.19
1.27
1.32
1.36
1.39
1.44
1.47
1.42
1.19
0.73
0.08
-0.64
-1.29
-1.74
-1.92
-1.85
-1.57
-1.15
-0.68
-0.27
-0.02
-0.03
-0.31
-0.76
-1.25
-1.63
-1.84
-1.89
-1.88
-1.89
-1.93
-1.98
-1.99
-1.91
-1.79
-1.64
-1.46
-1.23
-0.92
-0.48
0.07
0.69
1.29
1.82
2.25
2.64
3.01
3.38
3.71
3.92
3.91
3.68
3.29
2.9
2.64
2.61
2.8
3.11
3.44
3.71
3.88
3.92
3.84
3.62
3.32
3.02
2.86
2.9
3.1
3.31
3.33
3.01
2.33
1.4
0.4
-0.47
-1.1
-1.47
-1.62
-1.61
-1.53
-1.47
-1.51
-1.72
-2.1
-2.58
-3.04
-3.35
-3.47
-3.44
-3.39
-3.42
-3.53
-3.64
-3.58
-3.25
-2.67
-2.01
-1.5
-1.27
-1.32
-1.52
-1.71
-1.89
-2.16
-2.72
-3.67
-4.9
-6.11
-6.94
-7.15
-6.78
-6.05
-5.28
-4.65
-4.15
-3.56
-2.66
-1.32
0.38
2.24
4.07
5.76
7.29
8.74
10.12
11.38
12.39
13.05
13.33
13.32
13.21
13.13
13.12
13.07
12.72
11.77
9.99
7.33
3.93
0.11
-3.78
-7.42
-10.57
-13.09
-14.86
-15.8
-15.85
-15.11
-13.77
-12.16
-10.65
-9.46
-8.68
-8.23
-7.99
-7.87
-7.92
-8.22
-8.8
-9.56
-10.23
-10.5
-10.12
-9.07
-7.54
-5.79
-4.11
-2.63
-1.38
-0.36
0.42
0.88
1
0.87
0.73
0.89
1.54
2.69
4.14
5.64
7
8.21
9.33
10.41
11.33
11.8
11.49
10.22
8.13
5.65
3.37
1.8
1.18
1.44
2.16
2.86
3.09
2.6
1.39
-0.37
-2.38
-4.38
-6.13
-7.43
-8.18
-8.3
-7.8
-6.78
-5.41
-3.94
-2.64
-1.72
-1.35
-1.56
-2.25
-3.22
-4.24
-5.07
-5.53
-5.58
-5.27
-4.72
-4.12
-3.61
-3.24
-2.87
-2.26
-1.1
0.8
3.41
6.48
9.5
12.01
13.61
14.18
13.81
12.72
11.2
9.48
7.76
6.2
4.9
3.9
3.17
2.62
2.15
1.62
0.98
0.21
-0.63
-1.47
-2.19
-2.73
-3.09
-3.31
-3.51
-3.8
-4.21
-4.69
-5.12
-5.37
-5.37
-5.11
-4.67
-4.1
-3.44
-2.68
-1.83
-0.94
-0.1
0.59
1.09
1.42
1.67
1.95
2.3
2.68
3.02
3.23
3.23
3.05
2.73
2.34
1.92
1.54
1.23
1.06
1.04
1.15
1.35
1.51
1.52
1.34
0.97
0.49
0.02
-0.37
-0.6
-0.67
-0.58
-0.38
-0.12
0.12
0.3
0.37
0.36
0.29
0.22
0.14
0.01
-0.21
-0.57
-1.03
-1.52
-1.94
-2.23
-2.35
-2.3
-2.15
-1.92
-1.66
-1.38
-1.1
-0.86
-0.66
-0.52
-0.45
-0.45
-0.51
-0.62
-0.73
-0.81
-0.82
-0.75
-0.63
-0.53
-0.48
-0.51
-0.6
-0.65
-0.62
-0.48
-0.3
-0.15
-0.11
-0.18
-0.3
-0.43
-0.53
-0.6
-0.66
-0.68
-0.61
-0.41
-0.09
0.29
0.63
0.83
0.89
0.84
0.74
0.66
0.6
0.57
0.56
0.54
0.54
0.57
0.63
0.71
0.77
0.72
0.52
0.14
-0.38
-0.91
-1.33
-1.52
-1.47
-1.23
-0.89
-0.51
-0.15
0.14
0.35
0.45
0.49
0.57
0.81
1.27
1.91
2.59
3.12
3.43
3.58
3.77
4.19
4.92
5.85
6.73
7.34
7.58
7.51
7.33
7.23
7.34
7.69
8.2
8.75
9.17
9.29
8.95
8.12
6.87
5.39
3.83
2.25
0.46
-1.83
-4.83
-8.48
-12.38
-15.93
-18.52
-19.75
-19.51
-17.96
-15.47
-12.51
-9.6
-7.28
-5.95
-5.75
-6.5
-7.73
-8.94
-9.79
-10.31
-10.81
-11.62
-12.83
-14.07
-14.65
-13.87
-11.43
-7.58
-3.01
1.38
4.93
7.41
8.95
9.9
10.49
10.75
10.56
9.76
8.35
6.53
4.63
2.95
1.65
0.7
-0.06
-0.77
-1.47
-2.08
-2.5
-2.63
-2.5
-2.26
-2.04
-1.95
-1.96
-1.98
-1.93
-1.85
-1.83
-1.99
-2.39
-2.88
-3.21
-3.09
-2.4
-1.25
-0.03
0.81
0.99
0.52
-0.25
-0.79
-0.66
0.28
1.82
3.53
4.96
5.89
6.35
6.6
6.98
7.82
9.33
11.66
14.8
18.39
21.71
23.7
23.23
19.63
13.05
4.59
-4
-11.01
-15.33
-16.84
-16.23
-14.55
-12.7
-11.16
-9.94
-8.87
-7.77
-6.65
-5.58
-4.61
-3.69
-2.66
-1.41
-0.03
1.23
1.97
1.91
1.01
-0.43
-1.87
-2.74
-2.72
-1.82
-0.34
1.23
2.53
3.38
3.81
3.97
3.98
3.91
3.76
3.5
3.15
2.71
2.22
1.7
1.13
0.55
0.04
-0.32
-0.48
-0.44
-0.28
-0.08
0.05
0.1
0.09
0.06
0.08
0.15
0.25
0.31
0.28
0.16
0.01
-0.07
0
0.26
0.64
1.05
1.42
1.72
1.98
2.24
2.48
2.62
2.56
2.25
1.72
1.08
0.48
0.02
-0.24
-0.28
-0.12
0.17
0.5
0.75
0.79
0.53
0
-0.69
-1.4
-1.98
-2.36
-2.5
-2.35
-1.87
-1.03
0.1
1.35
2.47
3.27
3.72
3.94
4.15
4.54
5.13
5.82
6.45
6.93
7.28
7.61
8.04
8.59
9.23
9.87
10.43
10.84
10.98
10.68
9.76
8.06
5.64
2.71
-0.38
-3.29
-5.73
-7.54
-8.68
-9.15
-9.04
-8.56
-8
-7.69
-7.88
-8.62
-9.76
-10.98
-11.93
-12.38
-12.26
-11.66
-10.77
-9.8
-8.93
-8.29
-7.95
-7.9
-8.09
-8.37
-8.56
-8.48
-8.05
-7.26
-6.24
-5.19
-4.32
-3.77
-3.54
-3.47
-3.31
-2.84
-1.95
-0.72
0.61
1.75
2.48
2.76
2.72
2.6
2.59
2.78
3.1
3.38
3.45
3.2
2.55
1.49
0.01
-1.8
-3.66
-5.16
-5.75
-5.04
-2.92
0.25
3.77
6.84
8.84
9.56
9.24
8.41
7.57
7.02
6.73
6.48
6.04
5.35
4.56
3.87
3.43
3.15
2.74
1.91
0.55
-1.19
-2.94
-4.26
-4.87
-4.75
-4.13
-3.38
-2.85
-2.72
-2.94
-3.29
-3.45
-3.21
-2.55
-1.59
-0.6
0.2
0.73
1.07
1.38
1.8
2.37
3.05
3.76
4.4
4.92
5.27
5.4
5.31
4.98
4.48
3.95
3.58
3.49
3.7
4.05
4.24
4
3.13
1.65
-0.24
-2.2
-3.92
-5.26
-6.24
-7.03
-7.82
-8.69
-9.52
-10.03
-9.84
-8.62
-6.25
-2.88
1.05
4.94
8.22
10.56
11.87
12.31
12.17
11.66
10.89
9.85
8.52
6.97
5.38
3.96
2.87
2.08
1.47
0.83
0.07
-0.74
-1.4
-1.71
-1.55
-1.01
-0.34
0.21
0.49
0.54
0.49
0.53
0.75
1.13
1.53
1.83
1.94
1.85
1.61
1.24
0.79
0.27
-0.27
-0.74
-1.06
-1.19
-1.15
-1.01
-0.9
-0.9
-1.06
-1.38
-1.78
-2.19
-2.52
-2.74
-2.87
-2.97
-3.09
-3.3
-3.58
-3.88
-4.14
-4.37
-4.62
-4.96
-5.41
-5.88
-6.18
-6.1
-5.48
-4.36
-2.93
-1.48
-0.29
0.45
0.69
0.52
0.14
-0.26
-0.5
-0.46
-0.12
0.43
1.04
1.52
1.7
1.49
0.94
0.16
-0.65
-1.32
-1.73
-1.86
-1.71
-1.27
-0.49
0.7
2.36
4.45
6.8
9.16
11.27
12.87
13.8
13.95
13.34
12.12
10.59
9.09
7.95
7.34
7.22
7.34
7.32
6.81
5.62
3.74
1.38
-1.18
-3.65
-5.77
-7.41
-8.49
-9.04
-9.14
-8.97
-8.73
-8.69
-9.12
-10.18
-11.84
-13.82
-15.67
-16.83
-16.89
-15.63
-13.13
-9.7
-5.76
-1.75
1.95
5.06
7.48
9.18
10.25
10.77
10.79
10.33
9.41
8.11
6.57
4.97
3.49
2.2
1.14
0.27
-0.39
-0.78
-0.88
-0.66
-0.18
0.49
1.28
2.18
3.08
3.82
4.1
3.59
2.09
-0.34
-3.38
-6.49
-9.14
-10.92
-11.66
-11.4
-10.29
-8.49
-6.21
-3.58
-0.75
2.1
4.85
7.35
9.47
11.05
11.95
12.03
11.23
9.64
7.53
5.29
3.31
1.86
0.98
0.53
0.23
-0.22
-1
-2.22
-3.81
-5.65
-7.55
-9.27
-10.54
-11.13
-10.88
-9.74
-7.82
-5.27
-2.32
0.82
3.97
6.95
9.59
11.75
13.31
14.2
14.43
14.03
13.09
11.7
9.99
8.11
6.22
4.45
2.9
1.6
0.51
-0.45
-1.31
-2.1
-2.78
-3.33
-3.68
-3.83
-3.78
-3.6
-3.39
-3.25
-3.29
-3.52
-3.91
-4.33
-4.68
-4.87
-4.89
-4.79
-4.64
-4.48
-4.33
-4.2
-4.1
-4.04
-4.03
-4.07
-4.11
-4.08
-3.91
-3.57
-3.04
-2.36
-1.57
-0.78
-0.13
0.3
0.43
0.27
-0.07
-0.47
-0.77
-0.9
-0.85
-0.67
-0.41
-0.12
0.21
0.59
0.98
1.26
1.3
1.02
0.43
-0.35
-1.18
-1.89
-2.42
-2.73
-2.85
-2.79
-2.58
-2.24
-1.83
-1.43
-1.12
-0.92
-0.8
-0.66
-0.44
-0.09
0.35
0.81
1.2
1.49
1.69
1.86
2.05
2.26
2.44
2.49
2.37
2.09
1.75
1.45
1.29
1.25
1.28
1.3
1.26
1.13
0.9
0.57
0.16
-0.27
-0.63
-0.81
-0.75
-0.5
-0.19
-0.03
-0.18
-0.69
-1.52
-2.48
-3.4
-4.1
-4.48
-4.52
-4.29
-3.91
-3.51
-3.2
-2.97
-2.81
-2.64
-2.43
-2.21
-2.02
-1.92
-1.99
-2.22
-2.59
-3.03
-3.39
-3.5
-3.22
-2.47
-1.33
-0.01
1.24
2.16
2.62
2.62
2.26
1.68
1.03
0.44
0.04
-0.09
0.14
0.67
1.41
2.16
2.72
2.97
2.93
2.71
2.47
2.29
2.19
2.07
1.85
1.49
1.03
0.55
0.1
-0.32
-0.72
-1.13
-1.5
-1.7
-1.65
-1.3
-0.73
-0.08
0.51
0.91
1.08
0.99
0.67
0.17
-0.41
-0.92
-1.21
-1.21
-0.91
-0.42
0.1
0.54
0.84
1.01
1.1
1.17
1.26
1.4
1.57
1.79
2.08
2.4
2.71
2.93
2.95
2.74
2.32
1.78
1.29
0.94
0.78
0.74
0.74
0.72
0.67
0.64
0.68
0.77
0.89
0.93
0.87
0.72
0.54
0.41
0.39
0.46
0.57
0.62
0.53
0.28
-0.1
-0.51
-0.84
-1.06
-1.18
-1.31
-1.5
-1.77
-2.08
-2.34
-2.48
-2.48
-2.36
-2.16
-1.95
-1.76
-1.59
-1.42
-1.19
-0.87
-0.46
-0.03
0.32
0.53
0.58
0.55
0.52
0.55
0.63
0.69
0.69
0.63
0.52
0.45
0.46
0.51
0.57
0.57
0.45
0.24
0
-0.15
-0.1
0.23
0.78
1.42
1.94
2.15
2
1.57
0.99
0.45
0.06
-0.15
-0.23
-0.22
-0.18
-0.16
-0.18
-0.28
-0.47
-0.72
-1.02
-1.33
-1.62
-1.87
-2.09
-2.24
-2.3
-2.21
-1.98
-1.66
-1.32
-1.03
-0.83
-0.7
-0.58
-0.41
-0.16
0.14
0.46
0.73
0.89
0.94
0.87
0.72
0.51
0.28
0.06
-0.08
-0.11
0
0.23
0.49
0.74
0.92
1.03
1.08
1.09
1.04
0.93
0.72
0.45
0.15
-0.14
-0.43
-0.77
-1.2
-1.72
-2.29
-2.79
-3.14
-3.32
-3.37
-3.41
-3.55
-3.85
-4.26
-4.71
-5.07
-5.34
-5.57
-5.88
-6.41
-7.23
-8.3
-9.43
-10.36
-10.88
-10.83
-10.21
-9.12
-7.72
-6.19
-4.71
-3.43
-2.44
-1.72
-1.14
-0.49
0.44
1.79
3.55
5.61
7.78
9.93
12.02
13.99
15.76
17.13
17.88
17.88
17.17
15.97
14.63
13.46
12.6
12.07
11.7
11.38
10.99
10.53
10
9.4
8.7
7.86
6.86
5.74
4.57
3.47
2.54
1.84
1.4
1.18
1.11
1.06
0.94
0.67
0.26
-0.27
-0.85
-1.42
-1.98
-2.55
-3.18
-3.89
-4.64
-5.32
-5.82
-6.06
-6.04
-5.85
-5.57
-5.26
-4.91
-4.5
-4.04
-3.57
-3.19
-2.99
-2.99
-3.09
-3.17
-3.1
-2.82
-2.35
-1.78
-1.21
-0.7
-0.24
0.17
0.57
0.96
1.34
1.67
1.92
2.05
2.05
1.96
1.83
1.7
1.65
1.71
1.89
2.17
2.43
2.53
2.37
1.85
1.04
0.11
-0.72
-1.23
-1.28
-0.87
-0.14
0.72
1.5
2.07
2.39
2.52
2.57
2.64
2.82
3.16
3.69
4.44
5.4
6.49
7.56
8.38
8.78
8.65
8.06
7.24
6.42
5.74
5.16
4.49
3.54
2.2
0.59
-1.03
-2.37
-3.29
-3.85
-4.32
-4.96
-5.92
-7.16
-8.47
-9.56
-10.27
-10.53
-10.47
-10.26
-10.09
-10.01
-10
-9.92
-9.64
-9.14
-8.52
-7.97
-7.71
-7.87
-8.38
-9.07
-9.66
-9.94
-9.86
-9.52
-9.14
-8.93
-8.96
-9.16
-9.32
-9.25
-8.83
-8.1
-7.24
-6.45
-5.87
-5.56
-5.56
-5.94
-6.76
-8.01
-9.44
-10.5
-10.5
-8.82
-5.26
-0.13
5.79
11.56
16.39
19.82
21.79
22.44
22
20.69
18.68
16.17
13.4
10.68
8.28
6.38
5
4.04
3.28
2.5
1.56
0.47
-0.61
-1.45
-1.88
-1.82
-1.4
-0.88
-0.53
-0.5
-0.82
-1.35
-1.9
-2.32
-2.56
-2.68
-2.81
-3.03
-3.39
-3.82
-4.25
-4.59
-4.76
-4.74
-4.55
-4.23
-3.88
-3.56
-3.35
-3.26
-3.31
-3.47
-3.74
-4.09
-4.48
-4.83
-5.08
-5.15
-5.04
-4.79
-4.47
-4.18
-3.94
-3.79
-3.69
-3.61
-3.49
-3.26
-2.81
-2.05
-0.94
0.43
1.87
3.19
4.23
4.98
5.53
5.97
6.32
6.53
6.5
6.18
5.64
5.07
4.64
4.41
4.32
4.25
4.11
3.96
3.9
3.98
4.16
4.25
4.06
3.51
2.69
1.84
1.23
1.12
1.61
2.72
4.34
6.29
8.27
9.9
10.88
11.02
10.36
9.17
7.8
6.59
5.75
5.29
5.11
5.04
4.93
4.75
4.5
4.28
4.15
4.09
4.04
3.88
3.47
2.75
1.69
0.34
-1.2
-2.77
-4.16
-5.11
-5.46
-5.25
-4.75
-4.4
-4.66
-5.83
-7.9
-10.58
-13.42
-15.93
-17.64
-18.08
-16.83
-13.55
-8.16
-0.99
7.23
15.51
22.84
28.49
32.04
33.44
32.8
30.38
26.56
21.82
16.76
11.93
7.76
4.38
1.77
-0.18
-1.56
-2.43
-2.91
-3.23
-3.77
-4.81
-6.5
-8.74
-11.27
-13.8
-16.14
-18.14
-19.62
-20.29
-19.83
-18.08
-15.25
-11.93
-8.88
-6.73
-5.74
-5.66
-5.99
-6.2
-6.03
-5.52
-4.89
-4.36
-4.03
-3.84
-3.7
-3.56
-3.5
-3.65
-4.08
-4.73
-5.4
-5.88
-6.02
-5.81
-5.39
-4.96
-4.7
-4.74
-5.1
-5.68
-6.31
-6.81
-7.03
-6.95
-6.67
-6.39
-6.29
-6.46
-6.85
-7.35
-7.8
-8.11
-8.2
-8
-7.43
-6.36
-4.71
-2.48
0.2
3.06
5.8
8.13
9.87
11
11.65
12.02
12.28
12.49
12.56
12.35
11.73
10.68
9.36
8
6.81
5.9
5.24
4.74
4.28
3.84
3.44
3.15
3.01
2.98
2.98
2.94
2.85
2.73
2.65
2.6
2.54
2.38
2.01
1.39
0.55
-0.39
-1.29
-2.03
-2.52
-2.72
-2.63
-2.31
-1.81
-1.22
-0.64
-0.14
0.21
0.41
0.51
0.55
0.62
0.78
1.06
1.44
1.9
2.33
2.61
2.65
2.47
2.12
1.75
1.45
1.26
1.11
0.93
0.69
0.46
0.32
0.36
0.57
0.84
1.05
1.08
0.92
0.61
0.23
-0.14
-0.47
-0.72
-0.87
-0.92
-0.85
-0.69
-0.48
-0.29
-0.2
-0.28
-0.55
-0.95
-1.37
-1.67
-1.76
-1.66
-1.5
-1.42
-1.52
-1.81
-2.17
-2.48
-2.62
-2.59
-2.41
-2.13
-1.76
-1.3
-0.79
-0.32
0.01
0.1
-0.05
-0.35
-0.65
-0.81
-0.78
-0.59
-0.37
-0.22
-0.21
-0.31
-0.47
-0.65
-0.86
-1.12
-1.42
-1.7
-1.83
-1.73
-1.36
-0.84
-0.33
0
0.07
-0.09
-0.36
-0.58
-0.67
-0.64
-0.55
-0.47
-0.45
-0.51
-0.61
-0.72
-0.82
-0.91
-0.98
-1.07
-1.18
-1.34
-1.56
-1.82
-2.1
-2.36
-2.57
-2.69
-2.74
-2.71
-2.59
-2.36
-1.96
-1.39
-0.71
-0.01
0.6
1.04
1.3
1.43
1.52
1.62
1.72
1.77
1.7
1.49
1.18
0.85
0.61
0.51
0.56
0.7
0.86
0.98
1.04
1.07
1.09
1.13
1.18
1.2
1.14
0.94
0.61
0.18
-0.27
-0.67
-1
-1.3
-1.63
-2.03
-2.47
-2.82
-2.87
-2.47
-1.56
-0.29
1.05
2.11
2.62
2.47
1.8
0.88
0.03
-0.57
-0.85
-0.94
-0.94
-0.95
-0.97
-0.94
-0.79
-0.49
-0.07
0.44
1.01
1.63
2.28
2.92
3.48
3.86
4.03
4.01
3.88
3.76
3.68
3.62
3.52
3.34
3.11
2.93
2.9
3.03
3.22
3.31
3.16
2.76
2.28
1.91
1.8
1.93
2.13
2.18
1.94
1.42
0.75
0.12
-0.38
-0.78
-1.17
-1.63
-2.17
-2.7
-3.08
-3.22
-3.08
-2.68
-2.06
-1.27
-0.36
0.61
1.56
2.41
3.12
3.69
4.21
4.75
5.38
6.04
6.61
6.89
6.73
6.06
4.95
3.61
2.29
1.2
0.44
-0.01
-0.31
-0.62
-1.05
-1.59
-2.15
-2.61
-2.9
-2.98
-2.9
-2.76
-2.67
-2.77
-3.14
-3.77
-4.51
-5.15
-5.47
-5.32
-4.76
-3.98
-3.23
-2.63
-2.19
-1.77
-1.24
-0.62
-0.02
0.39
0.52
0.37
0.05
-0.38
-0.92
-1.65
-2.61
-3.72
-4.77
-5.55
-5.92
-5.97
-5.92
-5.98
-6.23
-6.52
-6.55
-6.03
-4.86
-3.16
-1.18
0.78
2.54
4
5.16
6.02
6.49
6.51
6.06
5.2
4.12
3.06
2.23
1.72
1.55
1.64
1.87
2.14
2.35
2.45
2.45
2.41
2.4
2.49
2.7
2.97
3.22
3.34
3.29
3.04
2.66
2.23
1.84
1.53
1.32
1.19
1.14
1.16
1.26
1.44
1.65
1.79
1.75
1.44
0.89
0.23
-0.38
-0.81
-1.06
-1.26
-1.56
-2.03
-2.65
-3.27
-3.73
-3.94
-3.91
-3.7
-3.37
-2.95
-2.46
-2.01
-1.76
-1.87
-2.4
-3.22
-4.09
-4.73
-5.01
-4.96
-4.71
-4.44
-4.22
-4.05
-3.91
-3.82
-3.85
-4.03
-4.34
-4.62
-4.68
-4.39
-3.78
-2.97
-2.18
-1.54
-1.08
-0.73
-0.4
-0.03
0.38
0.82
1.24
1.62
1.95
2.2
2.37
2.46
2.5
2.52
2.57
2.64
2.71
2.73
2.7
2.6
2.5
2.4
2.33
2.25
2.14
1.97
1.79
1.66
1.65
1.83
2.21
2.73
3.29
3.77
4.11
4.3
4.33
4.25
4.12
3.95
3.79
3.64
3.54
3.47
3.4
3.31
3.13
2.87
2.54
2.21
1.94
1.73
1.62
1.56
1.52
1.47
1.39
1.23
0.97
0.57
0.06
-0.51
-1.07
-1.54
-1.92
-2.3
-2.8
-3.49
-4.36
-5.22
-5.81
-5.92
-5.44
-4.5
-3.31
-2.14
-1.14
-0.39
0.13
0.43
0.52
0.4
0.09
-0.33
-0.73
-1.03
-1.21
-1.34
-1.55
-1.92
-2.42
-2.92
-3.16
-2.92
-2.02
-0.44
1.67
4.06
6.48
8.74
10.77
12.55
14.09
15.27
15.9
15.71
14.54
12.4
9.5
6.2
2.94
0.06
-2.25
-3.93
-5.06
-5.78
-6.18
-6.33
-6.31
-6.23
-6.23
-6.51
-7.12
-7.98
-8.82
-9.32
-9.23
-8.55
-7.54
-6.62
-6.16
-6.35
-7.11
-8.22
-9.42
-10.5
-11.37
-11.91
-11.99
-11.41
-10.06
-8.04
-5.64
-3.31
-1.4
-0.07
0.76
1.36
1.94
2.65
3.46
4.31
5.2
6.23
7.56
9.28
11.27
13.21
14.63
15.11
14.42
12.66
10.19
7.49
4.97
2.83
1.08
-0.38
-1.65
-2.69
-3.44
-3.82
-3.88
-3.77
-3.64
-3.49
-3.18
-2.48
-1.23
0.52
2.49
4.25
5.43
5.79
5.34
4.27
2.82
1.24
-0.31
-1.67
-2.69
-3.27
-3.41
-3.23
-2.95
-2.79
-2.91
-3.29
-3.75
-4.04
-4
-3.6
-2.97
-2.35
-1.95
-1.86
-2.04
-2.38
-2.72
-2.97
-3.02
-2.79
-2.19
-1.17
0.24
1.93
3.72
5.43
6.94
8.19
9.16
9.8
10.06
9.89
9.3
8.36
7.21
5.98
4.77
3.65
2.7
1.94
1.41
1.02
0.67
0.21
-0.45
-1.31
-2.27
-3.13
-3.72
-3.95
-3.83
-3.47
-3.04
-2.65
-2.38
-2.24
-2.19
-2.19
-2.22
-2.25
-2.25
-2.15
-1.89
-1.46
-0.92
-0.38
0.01
0.19
0.16
0.02
-0.12
-0.22
-0.32
-0.5
-0.83
-1.25
-1.64
-1.83
-1.74
-1.37
-0.86
-0.34
0.06
0.3
0.41
0.43
0.39
0.29
0.14
-0.04
-0.22
-0.32
-0.34
-0.29
-0.23
-0.25
-0.39
-0.63
-0.87
-1.03
-1.01
-0.81
-0.52
-0.24
-0.08
-0.02
-0.04
-0.05
-0.06
-0.07
-0.13
-0.25
-0.37
-0.38
-0.2
0.17
0.67
1.18
1.6
1.93
2.22
2.53
2.88
3.27
3.63
3.9
4.06
4.1
4.02
3.82
3.47
2.92
2.2
1.34
0.44
-0.38
-0.99
-1.3
-1.28
-1.01
-0.61
-0.28
-0.17
-0.32
-0.67
-1.06
-1.35
-1.45
-1.43
-1.39
-1.45
-1.67
-1.99
-2.26
-2.35
-2.15
-1.69
-1.05
-0.34
0.33
0.84
1.12
1.11
0.76
0.09
-0.82
-1.83
-2.78
-3.51
-3.91
-3.93
-3.6
-2.96
-2.11
-1.19
-0.31
0.39
0.86
1.08
1.05
0.79
0.31
-0.35
-1.11
-1.81
-2.3
-2.48
-2.35
-2.05
-1.73
-1.52
-1.45
-1.47
-1.48
-1.42
-1.32
-1.26
-1.31
-1.47
-1.68
-1.81
-1.78
-1.57
-1.25
-0.93
-0.71
-0.61
-0.62
-0.68
-0.75
-0.81
-0.88
-0.99
-1.15
-1.35
-1.56
-1.73
-1.82
-1.81
-1.75
-1.67
-1.62
-1.64
-1.74
-1.9
-2.08
-2.2
-2.19
-2.01
-1.69
-1.29
-0.93
-0.69
-0.63
-0.74
-0.94
-1.14
-1.24
-1.15
-0.86
-0.39
0.15
0.61
0.85
0.83
0.55
0.12
-0.41
-1.01
-1.68
-2.42
-3.16
-3.81
-4.26
-4.48
-4.46
-4.19
-3.58
-2.46
-0.64
1.91
5.03
8.33
11.36
13.72
15.18
15.7
15.36
14.32
12.77
10.89
8.86
6.86
5.01
3.41
2.06
0.96
0.04
-0.75
-1.47
-2.16
-2.82
-3.42
-3.87
-4.1
-4.08
-3.84
-3.49
-3.13
-2.86
-2.7
-2.62
-2.56
-2.48
-2.33
-2.1
-1.74
-1.24
-0.61
0.05
0.62
0.96
1.01
0.83
0.54
0.3
0.17
0.11
0.06
-0.05
-0.17
-0.22
-0.11
0.13
0.41
0.56
0.48
0.18
-0.24
-0.59
-0.74
-0.63
-0.32
0.06
0.35
0.47
0.38
0.16
-0.12
-0.39
-0.6
-0.73
-0.77
-0.75
-0.7
-0.69
-0.74
-0.88
-1.08
-1.29
-1.48
-1.64
-1.81
-1.99
-2.16
-2.22
-2.11
-1.82
-1.45
-1.09
-0.81
-0.6
-0.4
-0.15
0.17
0.49
0.75
0.9
0.94
0.91
0.89
0.94
1.12
1.44
1.88
2.33
2.67
2.79
2.64
2.25
1.7
1.12
0.6
0.2
-0.07
-0.2
-0.24
-0.24
-0.25
-0.3
-0.35
-0.35
-0.25
-0.03
0.26
0.5
0.64
0.63
0.54
0.45
0.43
0.46
0.49
0.41
0.17
-0.21
-0.61
-0.92
-1.06
-1.03
-0.92
-0.83
-0.83
-0.92
-1.04
-1.11
-1.04
-0.8
-0.42
0.05
0.51
0.88
1.08
1.09
0.94
0.69
0.45
0.32
0.32
0.45
0.61
0.73
0.76
0.7
0.6
0.52
0.46
0.44
0.44
0.49
0.59
0.72
0.84
0.84
0.69
0.42
0.15
0.03
0.16
0.49
0.87
1.07
0.97
0.57
0.04
-0.38
-0.53
-0.39
-0.06
0.24
0.35
0.23
-0.08
-0.48
-0.86
-1.2
-1.53
-1.84
-2.14
-2.38
-2.51
-2.5
-2.35
-2.07
-1.69
-1.28
-0.9
-0.6
-0.41
-0.28
-0.14
0.08
0.38
0.69
0.93
1.02
0.96
0.84
0.78
0.85
1.06
1.33
1.52
1.53
1.31
0.92
0.45
0.07
-0.1
-0
0.33
0.78
1.17
1.36
1.26
0.91
0.4
-0.1
-0.48
-0.66
-0.65
-0.51
-0.31
-0.1
0.05
0.11
0.03
-0.2
-0.57
-1.05
-1.57
-2.08
-2.52
-2.84
-3.01
-3.03
-2.94
-2.77
-2.56
-2.33
-2.07
-1.73
-1.31
-0.86
-0.47
-0.25
-0.19
-0.21
-0.15
0.11
0.57
1.12
1.59
1.84
1.86
1.72
1.54
1.41
1.36
1.35
1.36
1.38
1.43
1.54
1.69
1.82
1.83
1.67
1.32
0.87
0.44
0.16
0.09
0.22
0.47
0.71
0.88
0.94
0.92
0.83
0.67
0.45
0.17
-0.11
-0.31
-0.34
-0.17
0.14
0.45
0.62
0.54
0.16
-0.43
-1.13
-1.81
-2.39
-2.87
-3.26
-3.57
-3.75
-3.72
-3.38
-2.71
-1.75
-0.63
0.56
1.75
2.9
3.97
4.9
5.56
5.88
5.82
5.46
4.96
4.5
4.15
3.92
3.75
3.58
3.39
3.19
3.01
2.87
2.77
2.69
2.61
2.5
2.26
1.82
1.12
0.16
-0.9
-1.84
-2.47
-2.68
-2.53
-2.23
-2.01
-2.04
-2.32
-2.72
-3.09
-3.3
-3.34
-3.31
-3.35
-3.57
-3.98
-4.55
-5.17
-5.77
-6.32
-6.79
-7.17
-7.43
-7.52
-7.41
-7.07
-6.55
-5.94
-5.33
-4.79
-4.3
-3.76
-3.01
-1.92
-0.44
1.35
3.26
5.05
6.55
7.67
8.44
8.96
9.34
9.68
10.09
10.6
11.15
11.58
11.58
10.82
9.09
6.42
3.21
0.05
-2.41
-3.78
-4.08
-3.74
-3.41
-3.66
-4.71
-6.41
-8.29
-9.83
-10.62
-10.55
-9.71
-8.35
-6.78
-5.31
-4.22
-3.74
-4
-4.95
-6.38
-8.01
-9.57
-10.86
-11.82
-12.4
-12.48
-11.88
-10.41
-8.06
-5.06
-1.9
0.89
2.93
4.15
4.8
5.27
5.86
6.61
7.3
7.58
7.2
6.18
4.82
3.57
2.85
2.85
3.51
4.6
5.83
6.97
7.95
8.78
9.51
10.17
10.73
11.16
11.42
11.53
11.54
11.53
11.55
11.65
11.74
11.7
11.29
10.29
8.59
6.23
3.48
0.68
-1.81
-3.76
-5.16
-6.18
-7.03
-7.93
-8.94
-10.04
-11.05
-11.82
-12.2
-12.14
-11.71
-11.03
-10.23
-9.36
-8.44
-7.41
-6.28
-5.11
-4
-3.05
-2.3
-1.69
-1.13
-0.54
0.12
0.85
1.65
2.57
3.71
5.11
6.76
8.53
10.21
11.59
12.5
12.89
12.8
12.29
11.43
10.26
8.79
7.1
5.36
3.79
2.63
2.01
1.85
1.91
1.83
1.32
0.25
-1.31
-3.07
-4.67
-5.78
-6.23
-6.04
-5.42
-4.68
-4.13
-4
-4.31
-4.93
-5.67
-6.36
-6.97
-7.51
-8.01
-8.42
-8.6
-8.43
-7.96
-7.41
-7.1
-7.28
-7.93
-8.74
-9.27
-9.12
-8.2
-6.68
-4.95
-3.36
-2.08
-1.05
-0.12
0.82
1.76
2.54
2.97
2.95
2.51
1.86
1.18
0.6
0.15
-0.26
-0.69
-1.12
-1.46
-1.59
-1.47
-1.19
-0.93
-0.87
-1.07
-1.48
-1.95
-2.34
-2.58
-2.65
-2.54
-2.19
-1.5
-0.37
1.24
3.23
5.37
7.36
8.88
9.79
10.09
9.96
9.69
9.51
9.55
9.82
10.19
10.54
10.77
10.83
10.69
10.37
9.86
9.24
8.6
8.12
7.96
8.17
8.71
9.36
9.87
10.02
9.69
8.85
7.55
5.85
3.85
1.7
-0.38
-2.12
-3.31
-3.86
-3.89
-3.71
-3.72
-4.23
-5.36
-7.07
-9.22
-11.6
-14.02
-16.27
-18.13
-19.38
-19.91
-19.72
-18.94
-17.79
-16.46
-15.04
-13.58
-12.13
-10.79
-9.7
-9.03
-8.83
-9.04
-9.39
-9.51
-8.96
-7.43
-4.82
-1.31
2.6
6.32
9.36
11.48
12.71
13.3
13.48
13.38
13
12.24
11.11
9.72
8.31
7.14
6.38
6.05
6.01
6.03
5.94
5.66
5.27
4.95
4.87
5.1
5.51
5.89
5.95
5.56
4.77
3.79
2.88
2.25
1.95
1.85
1.79
1.63
1.36
1.08
0.92
0.96
1.16
1.4
1.55
1.54
1.41
1.22
1.03
0.8
0.47
-0.05
-0.77
-1.64
-2.52
-3.27
-3.81
-4.12
-4.29
-4.44
-4.67
-5
-5.36
-5.62
-5.65
-5.4
-4.89
-4.25
-3.64
-3.17
-2.92
-2.9
-3.07
-3.32
-3.55
-3.65
-3.56
-3.28
-2.88
-2.46
-2.07
-1.74
-1.42
-1.07
-0.67
-0.27
0.02
0.14
0.09
-0.06
-0.24
-0.37
-0.45
-0.53
-0.63
-0.74
-0.77
-0.65
-0.34
0.05
0.4
0.59
0.59
0.49
0.46
0.62
1.01
1.53
2.07
2.53
2.85
3.04
3.11
3.06
2.88
2.6
2.28
2.03
1.93
2.01
2.21
2.4
2.45
2.28
1.9
1.42
1.02
0.83
0.94
1.28
1.73
2.1
2.26
2.14
1.77
1.27
0.77
0.37
0.11
-0.04
-0.18
-0.39
-0.7
-1.06
-1.37
-1.56
-1.61
-1.61
-1.66
-1.86
-2.19
-2.52
-2.71
-2.65
-2.38
-2.03
-1.75
-1.62
-1.62
-1.63
-1.49
-1.11
-0.51
0.19
0.81
1.21
1.31
1.19
0.96
0.71
0.49
0.27
0
-0.3
-0.56
-0.65
-0.51
-0.2
0.11
0.23
0.07
-0.28
-0.59
-0.64
-0.32
0.28
0.92
1.32
1.35
1.07
0.65
0.32
0.2
0.25
0.33
0.25
-0.08
-0.7
-1.5
-2.38
-3.26
-4.11
-4.95
-5.77
-6.54
-7.14
-7.48
-7.5
-7.21
-6.65
-5.82
-4.65
-3.03
-0.92
1.6
4.31
6.92
9.19
10.98
12.23
12.92
12.99
12.38
11.08
9.2
6.99
4.79
2.88
1.39
0.31
-0.44
-0.98
-1.33
-1.48
-1.38
-1.05
-0.53
0.08
0.67
1.2
1.66
2.1
2.56
3.04
3.5
3.87
4.09
4.09
3.83
3.32
2.54
1.53
0.36
-0.89
-2.1
-3.16
-4.02
-4.68
-5.16
-5.54
-5.85
-6.13
-6.45
-6.87
-7.45
-8.2
-8.98
-9.59
-9.77
-9.33
-8.27
-6.75
-5.06
-3.45
-2.08
-0.95
0.02
0.92
1.77
2.51
3.04
3.31
3.32
3.17
2.95
2.72
2.49
2.24
1.97
1.72
1.52
1.37
1.19
0.89
0.42
-0.13
-0.54
-0.56
-0.07
0.86
1.99
3.03
3.81
4.38
5
5.99
7.58
9.78
12.39
14.98
17.09
18.32
18.45
17.43
15.43
12.68
9.5
6.19
3.06
0.39
-1.66
-3.02
-3.77
-4.1
-4.21
-4.28
-4.37
-4.5
-4.71
-4.99
-5.34
-5.7
-5.91
-5.85
-5.45
-4.8
-4.05
-3.39
-2.91
-2.62
-2.43
-2.29
-2.22
-2.27
-2.44
-2.67
-2.86
-2.9
-2.78
-2.61
-2.51
-2.6
-2.89
-3.24
-3.51
-3.61
-3.55
-3.4
-3.26
-3.17
-3.05
-2.83
-2.45
-1.95
-1.48
-1.19
-1.2
-1.48
-1.9
-2.29
-2.5
-2.53
-2.48
-2.55
-2.87
-3.42
-4.04
-4.47
-4.45
-3.81
-2.56
-0.84
1.09
2.95
4.47
5.46
5.77
5.43
4.52
3.26
1.91
0.71
-0.17
-0.66
-0.78
-0.66
-0.41
-0.15
0.05
0.18
0.26
0.31
0.36
0.39
0.38
0.32
0.22
0.15
0.16
0.29
0.55
0.9
1.3
1.67
1.97
2.13
2.15
2.02
1.8
1.54
1.29
1.08
0.92
0.77
0.61
0.46
0.33
0.26
0.22
0.19
0.1
-0.06
-0.28
-0.56
-0.87
-1.2
-1.55
-1.9
-2.24
-2.52
-2.72
-2.81
-2.81
-2.71
-2.5
-2.21
-1.86
-1.55
-1.36
-1.31
-1.31
-1.23
-0.99
-0.57
-0.14
0.13
0.07
-0.34
-0.98
-1.64
-2.17
-2.47
-2.55
-2.51
-2.38
-2.18
-1.87
-1.47
-1.06
-0.8
-0.85
-1.3
-2.09
-3.02
-3.83
-4.32
-4.42
-4.23
-3.9
-3.57
-3.21
-2.67
-1.73
-0.24
1.8
4.21
6.74
9.14
11.24
12.93
14.11
14.63
14.35
13.18
11.2
8.7
6.14
4.02
2.66
2.15
2.33
2.92
3.62
4.25
4.75
5.15
5.41
5.49
5.27
4.65
3.61
2.27
0.81
-0.52
-1.55
-2.21
-2.53
-2.63
-2.6
-2.5
-2.35
-2.12
-1.85
-1.62
-1.53
-1.63
-1.9
-2.18
-2.29
-2.1
-1.62
-0.99
-0.4
-0.03
0.03
-0.2
-0.63
-1.13
-1.54
-1.73
-1.63
-1.28
-0.82
-0.47
-0.44
-0.85
-1.64
-2.67
-3.67
-4.41
-4.73
-4.62
-4.19
-3.6
-3.04
-2.62
-2.36
-2.24
-2.23
-2.29
-2.42
-2.62
-2.87
-3.16
-3.47
-3.81
-4.22
-4.71
-5.24
-5.72
-6.05
-6.19
-6.16
-6.01
-5.81
-5.59
-5.3
-4.93
-4.45
-3.87
-3.23
-2.58
-1.98
-1.47
-1.15
-1.1
-1.38
-1.95
-2.71
-3.46
-4.01
-4.26
-4.22
-4.05
-3.91
-3.98
-4.28
-4.71
-5.04
-4.95
-4.19
-2.53
0.03
3.34
7.04
10.6
13.49
15.27
15.73
14.95
13.28
11.2
9.14
7.36
5.91
4.69
3.54
2.4
1.28
0.28
-0.48
-0.96
-1.2
-1.34
-1.46
-1.63
-1.82
-1.94
-1.9
-1.64
-1.17
-0.59
-0.01
0.48
0.8
0.93
0.9
0.78
0.62
0.49
0.42
0.4
0.36
0.27
0.12
-0.02
-0.05
0.1
0.42
0.79
1.02
0.95
0.53
-0.15
-0.92
-1.57
-1.96
-2.07
-1.96
-1.71
-1.44
-1.21
-1.09
-1.11
-1.26
-1.46
-1.6
-1.57
-1.31
-0.84
-0.26
0.28
0.66
0.82
0.79
0.66
0.56
0.61
0.85
1.25
1.71
2.11
2.37
2.46
2.39
2.2
1.95
1.67
1.41
1.25
1.26
1.48
1.86
2.31
2.66
2.81
2.72
2.44
2.09
1.77
1.58
1.53
1.56
1.58
1.47
1.19
0.74
0.21
-0.27
-0.59
-0.67
-0.55
-0.4
-0.37
-0.62
-1.16
-1.87
-2.58
-3.08
-3.28
-3.2
-2.93
-2.61
-2.36
-2.22
-2.15
-2.1
-2.01
-1.87
-1.7
-1.53
-1.34
-1.12
-0.8
-0.36
0.14
0.58
0.78
0.63
0.12
-0.55
-1.1
-1.32
-1.09
-0.53
0.17
0.77
1.14
1.27
1.2
1
0.74
0.45
0.21
0.08
0.16
0.43
0.81
1.13
1.19
0.89
0.28
-0.5
-1.21
-1.7
-1.91
-1.9
-1.78
-1.66
-1.55
-1.41
-1.22
-0.97
-0.73
-0.6
-0.59
-0.68
-0.78
-0.81
-0.73
-0.56
-0.37
-0.21
-0.12
-0.1
-0.11
-0.1
-0.01
0.2
0.54
0.97
1.36
1.6
1.62
1.42
1.09
0.71
0.37
0.1
-0.05
-0.01
0.26
0.73
1.31
1.79
2
1.9
1.59
1.27
1.1
1.12
1.25
1.38
1.44
1.5
1.66
1.99
2.48
3.01
3.49
3.91
4.3
4.74
5.21
5.63
5.85
5.75
5.27
4.47
3.42
2.21
0.9
-0.42
-1.7
-2.82
-3.71
-4.32
-4.63
-4.68
-4.51
-4.17
-3.7
-3.14
-2.58
-2.08
-1.69
-1.43
-1.26
-1.12
-0.94
-0.7
-0.4
-0.11
0.09
0.15
0.04
-0.21
-0.5
-0.77
-0.96
-1.06
-1.08
-1.06
-1.02
-0.96
-0.89
-0.83
-0.81
-0.87
-0.99
-1.09
-1.05
-0.8
-0.33
0.27
0.8
1.09
1.01
0.59
-0.04
-0.67
-1.1
-1.24
-1.12
-0.89
-0.7
-0.67
-0.79
-1.03
-1.28
-1.47
-1.57
-1.57
-1.5
-1.38
-1.23
-1.05
-0.86
-0.69
-0.53
-0.38
-0.18
0.12
0.56
1.17
1.91
2.72
3.49
4.11
4.51
4.66
4.59
4.37
4.07
3.75
3.42
3.04
2.61
2.11
1.6
1.18
0.96
0.99
1.24
1.61
1.99
2.3
2.49
2.55
2.42
2.01
1.25
0.17
-1.08
-2.25
-3.14
-3.65
-3.84
-3.89
-3.98
-4.21
-4.57
-5.03
-5.53
-6.03
-6.54
-7.03
-7.49
-7.86
-8.11
-8.19
-8.08
-7.76
-7.21
-6.44
-5.42
-4.15
-2.64
-0.9
0.97
2.79
4.38
5.56
6.26
6.55
6.58
6.48
6.3
6.02
5.59
5.02
4.38
3.79
3.36
3.07
2.85
2.57
2.14
1.58
0.99
0.49
0.19
0.09
0.13
0.16
0.08
-0.17
-0.54
-0.91
-1.14
-1.17
-1.03
-0.84
-0.72
-0.75
-0.9
-1.09
-1.21
-1.27
-1.34
-1.54
-1.91
-2.38
-2.77
-2.93
-2.79
-2.43
-2.01
-1.66
-1.44
-1.28
-1.07
-0.76
-0.37
0.03
0.38
0.68
0.96
1.26
1.55
1.76
1.81
1.69
1.47
1.27
1.21
1.32
1.53
1.7
1.73
1.57
1.3
1
0.79
0.74
0.81
0.89
0.87
0.61
0.09
-0.62
-1.38
-2
-2.39
-2.55
-2.63
-2.8
-3.21
-3.85
-4.57
-5.18
-5.53
-5.59
-5.46
-5.26
-5.12
-5.07
-5.15
-5.34
-5.68
-6.2
-6.9
-7.66
-8.29
-8.54
-8.19
-7.09
-5.28
-2.95
-0.42
1.98
3.95
5.36
6.26
6.83
7.32
7.93
8.75
9.74
10.77
11.64
12.13
12.08
11.45
10.3
8.83
7.28
5.87
4.74
3.85
3.08
2.24
1.24
0.08
-1.09
-2.11
-2.81
-3.17
-3.27
-3.24
-3.17
-3.04
-2.72
-2.05
-0.96
0.52
2.26
4.08
5.89
7.6
9.11
10.25
10.82
10.69
9.91
8.67
7.3
6.01
4.87
3.78
2.61
1.31
0.04
-1.02
-1.7
-1.99
-2.07
-2.16
-2.36
-2.65
-2.84
-2.74
-2.29
-1.55
-0.72
-0.01
0.41
0.44
0.06
-0.69
-1.75
-2.97
-4.11
-4.94
-5.25
-5.02
-4.39
-3.63
-3.02
-2.7
-2.66
-2.78
-2.95
-3.16
-3.44
-3.89
-4.48
-5.1
-5.52
-5.57
-5.13
-4.28
-3.18
-2.04
-1.07
-0.36
0.06
0.22
0.23
0.18
0.21
0.4
0.85
1.56
2.51
3.6
4.69
5.61
6.21
6.41
6.23
5.79
5.23
4.66
4.09
3.42
2.53
1.4
0.12
-1.07
-1.92
-2.31
-2.27
-2.05
-1.91
-2.05
-2.5
-3.11
-3.66
-4.03
-4.21
-4.32
-4.5
-4.83
-5.25
-5.59
-5.66
-5.34
-4.68
-3.85
-3.1
-2.64
-2.56
-2.8
-3.16
-3.39
-3.32
-2.89
-2.19
-1.38
-0.62
-0.02
0.42
0.76
1.06
1.33
1.56
1.75
1.91
2.09
2.37
2.82
3.43
4.15
4.91
5.6
6.1
6.31
6.16
5.68
5.01
4.38
4.01
4.04
4.45
5.1
5.8
6.42
6.9
7.21
7.35
7.24
6.77
5.87
4.56
2.98
1.4
0.05
-0.89
-1.42
-1.6
-1.58
-1.5
-1.47
-1.57
-1.91
-2.58
-3.67
-5.2
-7.1
-9.17
-11.2
-13
-14.47
-15.65
-16.57
-17.28
-17.67
-17.56
-16.75
-15.14
-12.82
-10.06
-7.3
-4.94
-3.29
-2.43
-2.28
-2.62
-3.27
-4.11
-5.11
-6.29
-7.57
-8.79
-9.65
-9.84
-9.14
-7.49
-5
-1.87
1.64
5.29
8.85
12.08
14.78
16.79
18.02
18.51
18.36
17.72
16.72
15.51
14.16
12.78
11.42
10.1
8.82
7.55
6.24
4.92
3.62
2.41
1.31
0.33
-0.5
-1.18
-1.66
-1.9
-1.91
-1.73
-1.48
-1.26
-1.13
-1.09
-1.09
-1.02
-0.79
-0.26
0.63
1.95
3.62
5.45
7.1
8.17
8.31
7.39
5.55
3.19
0.83
-1.07
-2.24
-2.69
-2.59
-2.2
-1.73
-1.33
-1.06
-0.94
-0.94
-1
-1.03
-0.92
-0.59
-0.03
0.7
1.5
2.26
2.89
3.35
3.63
3.67
3.47
3.01
2.36
1.63
0.95
0.44
0.14
0.06
0.14
0.29
0.39
0.36
0.1
-0.41
-1.15
-2.03
-2.91
-3.62
-4.04
-4.11
-3.9
-3.54
-3.22
-3.05
-3.1
-3.28
-3.46
-3.53
-3.47
-3.36
-3.32
-3.42
-3.63
-3.8
-3.77
-3.48
-3.01
-2.55
-2.26
-2.17
-2.17
-2.07
-1.73
-1.15
-0.47
0.12
0.48
0.65
0.75
0.93
1.24
1.64
1.98
2.15
2.1
1.86
1.52
1.16
0.84
0.57
0.36
0.22
0.12
0.03
-0.07
-0.22
-0.43
-0.65
-0.83
-0.89
-0.77
-0.49
-0.12
0.19
0.28
0.05
-0.47
-1.14
-1.72
-2.03
-2.04
-1.87
-1.73
-1.84
-2.28
-2.99
-3.84
-4.65
-5.31
-5.79
-6.06
-6.13
-6
-5.72
-5.34
-4.99
-4.74
-4.6
-4.46
-4.16
-3.55
-2.64
-1.54
-0.47
0.37
0.86
1.04
1.04
1.05
1.23
1.71
2.54
3.74
5.25
6.91
8.45
9.49
9.72
8.96
7.33
5.2
3.11
1.57
0.87
1.08
2.04
3.53
5.37
7.39
9.46
11.34
12.77
13.49
13.39
12.53
11.18
9.67
8.3
7.21
6.36
5.58
4.69
3.53
2.09
0.47
-1.16
-2.63
-3.89
-4.94
-5.89
-6.85
-7.9
-9.01
-10.09
-10.98
-11.57
-11.8
-11.65
-11.12
-10.15
-8.67
-6.59
-3.95
-0.96
2.04
4.68
6.68
7.99
8.73
9.1
9.21
8.97
8.22
6.81
4.74
2.26
-0.27
-2.47
-4.12
-5.16
-5.69
-5.83
-5.72
-5.43
-5.02
-4.53
-4.01
-3.47
-2.9
-2.25
-1.43
-0.41
0.73
1.77
2.4
2.31
1.4
-0.26
-2.33
-4.38
-6.03
-7.08
-7.58
-7.78
-7.98
-8.36
-8.85
-9.12
-8.73
-7.31
-4.76
-1.32
2.47
5.96
8.66
10.31
10.98
10.85
10.15
8.99
7.4
5.43
3.2
0.96
-0.98
-2.34
-3.05
-3.19
-2.99
-2.76
-2.72
-2.99
-3.51
-4.11
-4.55
-4.66
-4.37
-3.74
-2.94
-2.13
-1.41
-0.83
-0.39
-0.14
-0.2
-0.66
-1.56
-2.74
-3.93
-4.88
-5.45
-5.7
-5.81
-5.97
-6.3
-6.76
-7.27
-7.72
-8
-7.99
-7.52
-6.47
-4.8
-2.64
-0.28
1.94
3.74
5.01
5.79
6.24
6.53
6.79
7.07
7.39
7.72
7.99
8.15
8.14
7.94
7.6
7.24
6.94
6.75
6.63
6.45
6.09
5.48
4.65
3.7
2.81
2.07
1.56
1.25
1.12
1.17
1.43
1.95
2.79
3.93
5.3
6.72
7.97
8.79
8.95
8.36
7.08
5.31
3.38
1.57
0.09
-1.01
-1.84
-2.54
-3.21
-3.88
-4.45
-4.79
-4.76
-4.34
-3.64
-2.84
-2.14
-1.62
-1.21
-0.78
-0.2
0.59
1.51
2.43
3.23
3.84
4.23
4.38
4.27
3.87
3.2
2.36
1.46
0.66
0.03
-0.4
-0.71
-0.97
-1.25
-1.58
-1.91
-2.17
-2.22
-2.01
-1.52
-0.87
-0.29
0.01
-0.1
-0.62
-1.42
-2.34
-3.28
-4.23
-5.26
-6.38
-7.48
-8.32
-8.57
-7.97
-6.43
-4.09
-1.3
1.49
3.91
5.68
6.67
6.84
6.2
4.84
2.92
0.69
-1.47
-3.2
-4.27
-4.61
-4.38
-3.84
-3.22
-2.69
-2.29
-1.99
-1.76
-1.56
-1.4
-1.24
-1.02
-0.69
-0.22
0.33
0.82
1.1
1.07
0.78
0.37
0.06
0.02
0.26
0.69
1.12
1.37
1.37
1.14
0.78
0.38
-0.03
-0.47
-0.91
-1.33
-1.66
-1.84
-1.87
-1.79
-1.67
-1.57
-1.51
-1.49
-1.5
-1.53
-1.57
-1.61
-1.64
-1.66
-1.68
-1.73
-1.82
-1.92
-1.96
-1.86
-1.6
-1.25
-0.9
-0.67
-0.61
-0.67
-0.75
-0.73
-0.53
-0.17
0.27
0.68
0.95
1.04
0.99
0.88
0.76
0.68
0.61
0.51
0.34
0.11
-0.11
-0.21
-0.09
0.27
0.79
1.32
1.69
1.77
1.55
1.08
0.51
-0.03
-0.42
-0.63
-0.67
-0.55
-0.33
-0.06
0.15
0.2
0.02
-0.45
-1.15
-1.95
-2.71
-3.28
-3.58
-3.58
-3.33
-2.88
-2.3
-1.69
-1.14
-0.7
-0.39
-0.18
0.02
0.29
0.65
1.11
1.61
2.09
2.5
2.78
2.88
2.77
2.44
1.98
1.49
1.09
0.86
0.75
0.64
0.37
-0.12
-0.79
-1.47
-1.97
-2.16
-2.01
-1.59
-1.01
-0.36
0.31
0.98
1.63
2.23
2.79
3.36
4.06
4.96
6.03
7.1
7.89
8.14
7.72
6.75
5.51
4.32
3.41
2.81
2.37
1.88
1.18
0.21
-0.88
-1.88
-2.56
-2.78
-2.53
-1.95
-1.23
-0.58
-0.18
-0.03
-0.1
-0.27
-0.51
-0.79
-1.12
-1.5
-1.81
-1.93
-1.8
-1.48
-1.19
-1.15
-1.52
-2.25
-3.1
-3.77
-4.03
-3.84
-3.3
-2.62
-1.96
-1.45
-1.13
-1.04
-1.13
-1.37
-1.66
-1.88
-1.97
-1.9
-1.71
-1.46
-1.17
-0.84
-0.45
-0.03
0.4
0.79
1.11
1.37
1.61
1.82
1.98
2.02
1.89
1.59
1.19
0.8
0.55
0.51
0.73
1.18
1.76
2.33
2.75
2.92
2.83
2.6
2.37
2.32
2.51
2.9
3.34
3.65
3.66
3.32
2.71
2.01
1.46
1.28
1.52
2.09
2.75
3.21
3.29
2.93
2.22
1.29
0.25
-0.91
-2.16
-3.5
-4.84
-6.07
-7.08
-7.86
-8.47
-8.97
-9.35
-9.47
-9.15
-8.3
-7
-5.49
-4.13
-3.22
-2.89
-3.06
-3.55
-4.12
-4.65
-5.06
-5.32
-5.36
-5.04
-4.24
-2.96
-1.31
0.45
2.04
3.26
4.04
4.45
4.66
4.81
5.04
5.4
5.87
6.4
6.89
7.26
7.46
7.47
7.34
7.09
6.75
6.31
5.73
4.95
3.94
2.73
1.41
0.11
-1.05
-1.94
-2.53
-2.85
-2.97
-3.02
-3.07
-3.14
-3.18
-3.1
-2.77
-2.14
-1.25
-0.24
0.75
1.58
2.17
2.51
2.6
2.46
2.04
1.35
0.43
-0.62
-1.61
-2.38
-2.81
-2.84
-2.48
-1.87
-1.16
-0.54
-0.17
-0.11
-0.31
-0.64
-0.98
-1.21
-1.3
-1.25
-1.07
-0.83
-0.54
-0.26
-0.03
0.13
0.25
0.39
0.6
0.86
1.14
1.37
1.53
1.63
1.73
1.86
2.03
2.19
2.3
2.33
2.32
2.29
2.25
2.17
2.05
1.87
1.67
1.47
1.27
1
0.61
0.08
-0.53
-1.08
-1.46
-1.62
-1.6
-1.54
-1.54
-1.64
-1.82
-2.02
-2.18
-2.3
-2.39
-2.44
-2.42
-2.28
-1.97
-1.51
-0.94
-0.34
0.21
0.69
1.07
1.39
1.65
1.87
2.05
2.19
2.28
2.32
2.34
2.35
2.37
2.38
2.36
2.28
2.12
1.91
1.69
1.54
1.49
1.51
1.51
1.4
1.09
0.61
0.04
-0.53
-1.02
-1.46
-1.89
-2.38
-2.9
-3.39
-3.74
-3.87
-3.79
-3.56
-3.3
-3.11
-3.05
-3.15
-3.4
-3.75
-4.13
-4.43
-4.53
-4.4
-4.07
-3.61
-3.12
-2.67
-2.29
-1.99
-1.71
-1.42
-1.07
-0.65
-0.18
0.32
0.75
1.06
1.24
1.3
1.28
1.25
1.21
1.2
1.21
1.3
1.45
1.66
1.86
1.97
1.91
1.65
1.25
0.78
0.35
0.08
0
0.13
0.38
0.62
0.73
0.64
0.35
-0.02
-0.36
-0.61
-0.8
-1.04
-1.41
-1.93
-2.49
-2.97
-3.24
-3.25
-3.03
-2.68
-2.33
-2.07
-1.98
-2.04
-2.22
-2.4
-2.51
-2.51
-2.37
-2.11
-1.7
-1.05
-0.07
1.29
2.94
4.7
6.36
7.83
9.14
10.46
11.96
13.66
15.32
16.55
16.88
15.98
13.82
10.68
7.06
3.53
0.56
-1.65
-3.06
-3.8
-4.02
-3.89
-3.58
-3.24
-3.06
-3.17
-3.61
-4.25
-4.88
-5.26
-5.25
-4.87
-4.29
-3.71
-3.3
-3.11
-3.1
-3.2
-3.33
-3.45
-3.58
-3.69
-3.77
-3.82
-3.82
-3.82
-3.82
-3.86
-3.9
-3.89
-3.77
-3.48
-2.97
-2.23
-1.29
-0.22
0.86
1.77
2.38
2.61
2.48
2.07
1.54
1.05
0.7
0.54
0.54
0.65
0.82
1.02
1.25
1.5
1.75
1.98
2.16
2.24
2.25
2.18
2.08
1.94
1.77
1.59
1.4
1.22
1.06
0.91
0.74
0.49
0.18
-0.17
-0.47
-0.64
-0.66
-0.57
-0.5
-0.6
-0.98
-1.62
-2.4
-3.1
-3.53
-3.59
-3.3
-2.77
-2.17
-1.6
-1.14
-0.81
-0.56
-0.37
-0.21
-0.05
0.13
0.31
0.48
0.63
0.75
0.86
1.02
1.29
1.68
2.13
2.49
2.64
2.5
2.12
1.66
1.31
1.19
1.32
1.52
1.62
1.47
1.11
0.68
0.37
0.29
0.44
0.69
0.87
0.91
0.84
0.76
0.74
0.77
0.76
0.63
0.35
-0.03
-0.38
-0.61
-0.69
-0.67
-0.65
-0.75
-1
-1.36
-1.77
-2.12
-2.36
-2.48
-2.49
-2.44
-2.33
-2.12
-1.77
-1.25
-0.59
0.09
0.69
1.09
1.27
1.26
1.1
0.88
0.7
0.62
0.72
0.96
1.25
1.45
1.5
1.44
1.45
1.75
2.39
3.22
3.92
4.16
3.77
2.84
1.64
0.47
-0.48
-1.12
-1.49
-1.59
-1.4
-0.89
-0.11
0.8
1.65
2.31
2.7
2.84
2.78
2.5
1.91
0.95
-0.33
-1.72
-2.88
-3.5
-3.4
-2.59
-1.28
0.2
1.51
2.31
2.35
1.51
-0.11
-2.17
-4.13
-5.45
-5.75
-4.98
-3.43
-1.55
0.22
1.65
2.73
3.54
4.17
4.56
4.54
4.03
3.04
1.83
0.7
-0.08
-0.4
-0.41
-0.36
-0.47
-0.85
-1.41
-1.99
-2.48
-2.86
-3.21
-3.65
-4.2
-4.78
-5.24
-5.44
-5.34
-5.08
-4.88
-4.98
-5.52
-6.49
-7.7
-8.83
-9.54
-9.5
-8.51
-6.5
-3.62
-0.12
3.6
7.13
10.07
12.12
13.1
13
11.92
10.12
7.94
5.69
3.67
2.07
0.96
0.29
-0.06
-0.21
-0.28
-0.31
-0.31
-0.24
-0.04
0.26
0.59
0.82
0.83
0.54
0.01
-0.64
-1.21
-1.57
-1.69
-1.64
-1.57
-1.57
-1.68
-1.82
-1.91
-1.89
-1.81
-1.75
-1.78
-1.94
-2.16
-2.4
-2.61
-2.78
-2.91
-2.96
-2.87
-2.56
-2.05
-1.4
-0.77
-0.28
0.02
0.18
0.34
0.63
1.13
1.76
2.35
2.69
2.63
2.14
1.33
0.33
-0.73
-1.86
-3.1
-4.45
-5.82
-7.03
-7.89
-8.32
-8.33
-8
-7.33
-6.21
-4.43
-1.82
1.58
5.49
9.45
12.95
15.58
17.1
17.46
16.66
14.81
12.07
8.71
5.08
1.54
-1.61
-4.21
-6.23
-7.77
-9.02
-10.14
-11.29
-12.53
-13.85
-15.12
-16.12
-16.61
-16.44
-15.53
-14.02
-12.11
-10.02
-7.89
-5.74
-3.48
-0.94
2.04
5.45
9.09
12.56
15.4
17.19
17.75
17.08
15.4
12.9
9.75
6.11
2.24
-1.45
-4.41
-6.19
-6.62
-5.92
-4.63
-3.31
-2.34
-1.75
-1.32
-0.77
0.05
1.05
2.01
2.7
3.02
3.04
2.97
2.97
3.15
3.49
3.86
4.16
4.3
4.28
4.15
4.03
4.04
4.23
4.58
4.95
5.15
5.05
4.62
3.98
3.36
2.96
2.84
2.92
2.93
2.61
1.74
0.32
-1.5
-3.41
-5.07
-6.14
-6.43
-5.89
-4.61
-2.79
-0.72
1.28
2.9
3.87
4.01
3.32
1.94
0.19
-1.58
-3.09
-4.19
-4.88
-5.25
-5.43
-5.47
-5.42
-5.29
-5.11
-4.88
-4.62
-4.31
-3.94
-3.5
-3
-2.46
-1.9
-1.33
-0.74
-0.09
0.6
1.35
2.15
3.02
3.93
4.83
5.61
6.17
6.42
6.34
6.01
5.57
5.15
4.8
4.5
4.18
3.75
3.2
2.57
1.94
1.39
0.99
0.74
0.59
0.51
0.44
0.34
0.21
0.05
-0.11
-0.23
-0.33
-0.4
-0.45
-0.46
-0.37
-0.16
0.16
0.47
0.63
0.51
0.11
-0.43
-0.9
-1.14
-1.14
-1.02
-0.99
-1.16
-1.53
-1.95
-2.25
-2.34
-2.23
-2.05
-1.92
-1.88
-1.86
-1.77
-1.52
-1.13
-0.67
-0.26
0.05
0.25
0.38
0.49
0.53
0.44
0.13
-0.42
-1.13
-1.88
-2.54
-3.08
-3.52
-3.94
-4.33
-4.62
-4.63
-4.23
-3.39
-2.22
-0.98
0.09
0.86
1.4
1.93
2.69
3.83
5.32
7.01
8.72
10.27
11.56
12.47
12.92
12.91
12.57
12.23
12.26
12.82
13.79
14.65
14.78
13.78
11.67
8.93
6.23
4.15
2.88
2.27
2
1.75
1.39
0.87
0.18
-0.79
-2.19
-4.15
-6.64
-9.43
-12.08
-14.18
-15.44
-15.84
-15.54
-14.8
-13.78
-12.53
-11.05
-9.42
-7.86
-6.68
-6.21
-6.61
-7.79
-9.45
-11.17
-12.58
-13.43
-13.64
-13.25
-12.39
-11.15
-9.63
-7.88
-5.96
-3.96
-2.07
-0.48
0.63
1.23
1.42
1.44
1.48
1.65
1.92
2.19
2.34
2.37
2.35
2.36
2.44
2.56
2.62
2.56
2.39
2.24
2.27
2.58
3.17
3.9
4.52
4.84
4.75
4.28
3.59
2.86
2.28
1.93
1.84
1.95
2.19
2.47
2.73
2.91
2.99
2.96
2.85
2.68
2.46
2.19
1.85
1.43
0.94
0.39
-0.13
-0.58
-0.9
-1.05
-1.05
-0.94
-0.76
-0.56
-0.34
-0.1
0.19
0.52
0.86
1.17
1.4
1.54
1.58
1.56
1.51
1.46
1.45
1.49
1.6
1.79
2.04
2.29
2.49
2.58
2.51
2.3
1.97
1.6
1.25
1
0.88
0.93
1.13
1.4
1.64
1.72
1.57
1.2
0.72
0.3
0.03
-0.1
-0.23
-0.57
-1.23
-2.21
-3.35
-4.46
-5.36
-6.01
-6.41
-6.59
-6.58
-6.36
-5.92
-5.35
-4.76
-4.25
-3.87
-3.57
-3.28
-2.93
-2.49
-1.99
-1.47
-0.96
-0.5
-0.11
0.17
0.33
0.38
0.39
0.43
0.54
0.7
0.87
0.99
1.02
0.99
0.94
0.9
0.83
0.68
0.4
0.01
-0.41
-0.75
-0.93
-0.91
-0.71
-0.34
0.18
0.82
1.53
2.19
2.66
2.82
2.64
2.19
1.58
0.95
0.39
-0.09
-0.5
-0.84
-1.13
-1.35
-1.48
-1.52
-1.48
-1.35
-1.15
-0.89
-0.59
-0.29
-0.04
0.15
0.27
0.36
0.49
0.71
1.04
1.42
1.78
2.03
2.14
2.09
1.94
1.76
1.63
1.6
1.66
1.77
1.91
2.03
2.1
2.13
2.15
2.17
2.19
2.22
2.21
2.14
1.99
1.77
1.53
1.32
1.23
1.28
1.44
1.63
1.76
1.75
1.62
1.42
1.23
1.11
1.05
1
0.91
0.7
0.33
-0.22
-0.94
-1.74
-2.49
-3.04
-3.29
-3.27
-3.07
-2.88
-2.81
-2.86
-2.94
-2.93
-2.77
-2.51
-2.28
-2.22
-2.38
-2.71
-3.1
-3.39
-3.49
-3.38
-3.11
-2.79
-2.48
-2.19
-1.89
-1.5
-1.01
-0.46
0.05
0.4
0.57
0.6
0.66
0.9
1.41
2.15
3
3.78
4.33
4.54
4.41
4.02
3.49
2.92
2.41
2.02
1.76
1.61
1.55
1.53
1.49
1.36
1.14
0.82
0.45
0.1
-0.18
-0.39
-0.49
-0.52
-0.47
-0.37
-0.23
-0.05
0.12
0.24
0.23
0.06
-0.27
-0.69
-1.1
-1.37
-1.4
-1.21
-0.89
-0.6
-0.51
-0.7
-1.17
-1.77
-2.29
-2.42
-1.92
-0.65
1.32
3.73
6.23
8.49
10.31
11.71
12.84
13.89
14.99
16.14
17.23
18.09
18.6
18.7
18.45
17.95
17.31
16.64
15.98
15.33
14.67
13.84
12.63
10.78
8.13
4.74
1.03
-2.42
-5.02
-6.55
-7.22
-7.65
-8.48
-10.08
-12.41
-15.01
-17.35
-19.07
-20.06
-20.44
-20.36
-19.9
-19.04
-17.81
-16.35
-14.88
-13.65
-12.7
-11.89
-10.98
-9.78
-8.29
-6.69
-5.2
-3.97
-3.01
-2.26
-1.72
-1.46
-1.57
-2.09
-2.86
-3.59
-3.96
-3.79
-3.1
-2.1
-1.1
-0.41
-0.23
-0.66
-1.64
-2.97
-4.37
-5.5
-6.15
-6.24
-5.92
-5.48
-5.2
-5.25
-5.64
-6.22
-6.76
-7.11
-7.16
-6.98
-6.73
-6.71
-7.21
-8.44
-10.33
-12.37
-13.75
-13.5
-10.91
-5.9
0.95
8.51
15.57
21.17
24.89
26.78
27.16
26.36
24.64
22.15
19.07
15.66
12.25
9.1
6.37
4.08
2.15
0.51
-0.86
-1.91
-2.58
-2.87
-2.84
-2.65
-2.46
-2.41
-2.53
-2.77
-3
-3.11
-3.02
-2.7
-2.28
-1.93
-1.84
-2.2
-3.05
-4.22
-5.42
-6.24
-6.35
-5.6
-4.14
-2.29
-0.48
0.97
1.93
2.46
2.72
2.88
3
3.08
3.07
2.92
2.64
2.25
1.79
1.32
0.92
0.66
0.6
0.72
0.95
1.18
1.31
1.3
1.15
0.92
0.63
0.3
-0.03
-0.34
-0.56
-0.67
-0.69
-0.71
-0.86
-1.22
-1.79
-2.45
-3.05
-3.44
-3.53
-3.36
-3.03
-2.72
-2.55
-2.59
-2.82
-3.13
-3.39
-3.44
-3.22
-2.71
-2
-1.22
-0.57
-0.2
-0.21
-0.56
-1.13
-1.73
-2.17
-2.38
-2.37
-2.26
-2.19
-2.25
-2.44
-2.6
-2.5
-1.9
-0.62
1.36
3.87
6.62
9.25
11.43
12.95
13.7
13.74
13.16
12.06
10.51
8.61
6.45
4.2
2.11
0.41
-0.75
-1.37
-1.61
-1.72
-1.92
-2.28
-2.72
-3.06
-3.15
-2.94
-2.51
-2
-1.55
-1.2
-0.9
-0.6
-0.26
0.1
0.44
0.69
0.81
0.79
0.62
0.34
-0.01
-0.38
-0.67
-0.78
-0.63
-0.2
0.43
1.07
1.54
1.68
1.51
1.16
0.87
0.81
1.05
1.5
1.97
2.3
2.46
2.54
2.66
2.9
3.19
3.37
3.26
2.76
1.89
0.83
-0.19
-0.93
-1.25
-1.09
-0.49
0.43
1.56
2.75
3.87
4.82
5.47
5.76
5.64
5.1
4.17
2.94
1.57
0.25
-0.74
-1.19
-1
-0.26
0.76
1.66
2.08
1.84
0.99
-0.17
-1.28
-2.08
-2.46
-2.56
-2.61
-2.83
-3.27
-3.93
-4.68
-5.39
-6
-6.47
-6.81
-7.03
-7.18
-7.36
-7.71
-8.37
-9.37
-10.54
-11.51
-11.8
-11.01
-8.95
-5.75
-1.84
2.25
5.96
8.87
10.75
11.51
11.23
10.06
8.26
6.15
3.99
1.97
0.16
-1.42
-2.75
-3.72
-4.15
-3.88
-2.83
-1.06
1.24
3.76
6.16
8.12
9.34
9.67
9.06
7.63
5.63
3.37
1.14
-0.83
-2.38
-3.46
-4.06
-4.25
-4.11
-3.79
-3.43
-3.17
-3.09
-3.23
-3.59
-4.11
-4.73
-5.32
-5.77
-5.98
-5.92
-5.66
-5.36
-5.21
-5.34
-5.79
-6.47
-7.21
-7.79
-8.03
-7.87
-7.33
-6.55
-5.72
-4.99
-4.41
-3.92
-3.42
-2.79
-2.03
-1.23
-0.54
-0.05
0.24
0.41
0.53
0.65
0.75
0.82
0.88
1.01
1.33
1.9
2.72
3.68
4.65
5.49
6.11
6.49
6.66
6.67
6.61
6.59
6.64
6.74
6.83
6.78
6.54
6.1
5.59
5.16
4.94
4.92
4.99
4.97
4.72
4.23
3.61
3.05
2.67
2.5
2.47
2.45
2.4
2.34
2.32
2.4
2.55
2.72
2.83
2.87
2.9
3
3.27
3.7
4.23
4.72
5.03
5.02
4.68
4.06
3.35
2.74
2.38
2.31
2.43
2.6
2.71
2.79
2.88
3.02
3.13
3.05
2.58
1.61
0.16
-1.6
-3.53
-5.5
-7.45
-9.36
-11.19
-12.82
-14.17
-15.17
-15.87
-16.36
-16.78
-17.2
-17.6
-17.8
-17.53
-16.5
-14.53
-11.65
-8.17
-4.58
-1.41
0.96
2.42
3.09
3.23
2.99
2.36
1.26
-0.35
-2.34
-4.39
-6.07
-7.1
-7.43
-7.23
-6.77
-6.22
-5.55
-4.54
-3
-0.85
1.73
4.39
6.73
8.49
9.63
10.28
10.68
10.97
11.16
11.13
10.72
9.86
8.65
7.34
6.2
5.41
4.97
4.71
4.42
3.95
3.29
2.56
1.92
1.47
1.24
1.12
0.97
0.71
0.31
-0.12
-0.46
-0.61
-0.58
-0.47
-0.41
-0.44
-0.47
-0.29
0.35
1.6
3.37
5.39
7.28
8.66
9.33
9.24
8.53
7.44
6.2
4.98
3.84
2.77
1.74
0.74
-0.16
-0.87
-1.29
-1.31
-0.85
0.17
1.85
4.17
6.96
9.8
12.06
13.11
12.56
10.36
6.89
2.76
-1.4
-5.1
-8.09
-10.31
-11.79
-12.6
-12.83
-12.57
-11.94
-11.06
-10.08
-9.16
-8.46
-8.12
-8.18
-8.45
-8.64
-8.37
-7.35
-5.53
-3.08
-0.32
2.42
4.91
7.04
8.73
9.9
10.4
10.11
9
7.15
4.83
2.38
0.11
-1.76
-3.17
-4.16
-4.81
-5.19
-5.32
-5.21
-4.86
-4.31
-3.64
-2.95
-2.3
-1.77
-1.37
-1.08
-0.88
-0.72
-0.56
-0.38
-0.19
-0.01
0.16
0.31
0.46
0.6
0.72
0.78
0.75
0.62
0.43
0.25
0.13
0.12
0.21
0.38
0.56
0.7
0.77
0.76
0.67
0.53
0.38
0.24
0.14
0.08
0.07
0.1
0.15
0.19
0.2
0.2
0.19
0.21
0.24
0.28
0.26
0.17
0.01
-0.19
-0.37
-0.53
-0.7
-0.88
-1.08
-1.24
-1.27
-1.11
-0.79
-0.4
-0.12
-0.06
-0.24
-0.54
-0.82
-0.92
-0.83
-0.62
-0.43
-0.34
-0.39
-0.52
-0.66
-0.76
-0.82
-0.89
-1.01
-1.21
-1.47
-1.7
-1.83
-1.72
-1.33
-0.67
0.15
0.91
1.36
1.3
0.71
-0.31
-1.51
-2.65
-3.54
-4.12
-4.47
-4.74
-5.05
-5.46
-5.9
-6.17
-6.05
-5.39
-4.14
-2.39
-0.31
1.88
3.9
5.44
6.19
5.89
4.49
2.19
-0.56
-3.13
-4.96
-5.7
-5.31
-4.01
-2.11
0.06
2.25
4.3
6.06
7.41
8.21
8.39
7.95
6.99
5.72
4.33
3.01
1.86
0.9
0.16
-0.39
-0.71
-0.81
-0.7
-0.43
-0.12
0.12
0.24
0.29
0.37
0.62
1.12
1.79
2.45
2.83
2.74
2.12
1.08
-0.09
-1.1
-1.75
-2.02
-2.02
-1.97
-2.04
-2.28
-2.69
-3.16
-3.56
-3.75
-3.55
-2.82
-1.47
0.46
2.74
4.95
6.67
7.59
7.66
7.05
6.08
5.03
3.99
2.92
1.74
0.4
-1
-2.27
-3.21
-3.66
-3.55
-2.89
-1.72
-0.16
1.57
3.19
4.4
5.04
5.15
5
4.93
5.19
5.82
6.57
7.07
7
6.21
4.79
2.97
0.99
-0.98
-2.88
-4.67
-6.28
-7.56
-8.33
-8.48
-8.06
-7.27
-6.45
-5.92
-5.89
-6.35
-7.1
-7.86
-8.35
-8.45
-8.15
-7.53
-6.65
-5.46
-3.81
-1.57
1.25
4.43
7.51
9.93
11.29
11.45
10.57
8.99
7.07
5.04
2.98
0.86
-1.27
-3.28
-4.97
-6.17
-6.9
-7.29
-7.59
-7.9
-8.21
-8.36
-8.16
-7.57
-6.75
-5.96
-5.42
-5.23
-5.31
-5.45
-5.48
-5.31
-4.96
-4.48
-3.92
-3.25
-2.41
-1.35
-0.11
1.27
2.7
4.12
5.5
6.83
8.08
9.15
9.91
10.2
9.9
8.94
7.39
5.44
3.35
1.39
-0.26
-1.53
-2.45
-3.09
-3.52
-3.73
-3.7
-3.41
-2.88
-2.2
-1.48
-0.84
-0.33
0.03
0.27
0.46
0.72
1.16
1.9
3.02
4.55
6.48
8.78
11.39
14.2
16.99
19.43
21.1
21.59
20.63
18.17
14.45
9.91
5.14
0.7
-2.95
-5.56
-7.08
-7.66
-7.57
-7.1
-6.5
-5.92
-5.44
-5.09
-4.91
-4.95
-5.21
-5.61
-6
-6.23
-6.18
-5.91
-5.51
-5.12
-4.82
-4.58
-4.36
-4.1
-3.8
-3.5
-3.26
-3.1
-2.99
-2.89
-2.71
-2.38
-1.85
-1.09
-0.17
0.76
1.5
1.86
1.76
1.31
0.73
0.27
0.1
0.26
0.63
1.07
1.44
1.68
1.8
1.8
1.69
1.43
1.02
0.54
0.09
-0.2
-0.26
-0.12
0.14
0.4
0.57
0.61
0.52
0.33
0.08
-0.22
-0.53
-0.81
-1.01
-1.13
-1.18
-1.18
-1.16
-1.14
-1.13
-1.13
-1.11
-1.08
-1.01
-0.85
-0.62
-0.34
-0.05
0.19
0.36
0.49
0.61
0.77
1
1.24
1.47
1.66
1.85
2.1
2.45
2.85
3.17
3.26
3.01
2.45
1.7
0.96
0.41
0.13
0.13
0.35
0.72
1.12
1.49
1.74
1.83
1.74
1.52
1.27
1.06
0.97
0.98
1.04
1.04
0.89
0.55
0
-0.69
-1.45
-2.21
-2.88
-3.42
-3.78
-3.94
-3.94
-3.88
-3.9
-4.13
-4.63
-5.31
-5.97
-6.42
-6.56
-6.43
-6.18
-5.93
-5.76
-5.65
-5.54
-5.41
-5.24
-5.05
-4.82
-4.45
-3.85
-2.98
-1.91
-0.85
-0.01
0.43
0.45
0.13
-0.33
-0.74
-0.94
-0.84
-0.4
0.39
1.46
2.68
3.9
4.99
5.87
6.55
7.1
7.61
8.1
8.5
8.69
8.54
8.02
7.16
6.05
4.82
3.6
2.54
1.77
1.4
1.44
1.82
2.32
2.73
2.88
2.75
2.45
2.12
1.86
1.71
1.68
1.77
2.04
2.52
3.15
3.76
4.1
3.98
3.35
2.38
1.36
0.55
0.11
0.03
0.18
0.4
0.54
0.52
0.34
0.08
-0.15
-0.27
-0.25
-0.14
-0.05
-0.13
-0.48
-1.13
-2.01
-2.98
-3.83
-4.35
-4.38
-3.89
-2.97
-1.88
-0.97
-0.57
-0.86
-1.81
-3.17
-4.57
-5.66
-6.22
-6.22
-5.85
-5.38
-5.06
-5
-5.14
-5.35
-5.46
-5.45
-5.39
-5.44
-5.76
-6.37
-7.17
-7.83
-7.99
-7.32
-5.68
-3.14
0.02
3.42
6.63
9.3
11.16
12.01
11.79
10.54
8.45
5.84
3.12
0.66
-1.23
-2.41
-2.89
-2.84
-2.48
-2.09
-1.84
-1.83
-1.98
-2.15
-2.21
-2.08
-1.77
-1.37
-0.94
-0.5
-0.03
0.48
1
1.46
1.79
1.95
1.93
1.8
1.6
1.33
0.96
0.47
-0.1
-0.67
-1.16
-1.55
-1.84
-2.11
-2.37
-2.56
-2.55
-2.24
-1.65
-0.93
-0.29
0.1
0.23
0.21
0.24
0.44
0.84
1.34
1.82
2.18
2.38
2.42
2.36
2.24
2.17
2.25
2.54
3.03
3.59
4.03
4.22
4.16
3.95
3.77
3.71
3.78
3.88
3.9
3.83
3.7
3.54
3.38
3.14
2.74
2.13
1.35
0.48
-0.44
-1.38
-2.36
-3.35
-4.29
-5.08
-5.65
-6.05
-6.4
-6.82
-7.36
-7.91
-8.32
-8.44
-8.24
-7.81
-7.33
-6.9
-6.53
-6.16
-5.71
-5.19
-4.64
-4.04
-3.24
-2.04
-0.29
1.89
4.08
5.7
6.27
5.67
4.2
2.41
0.82
-0.33
-1.11
-1.69
-2.2
-2.54
-2.51
-1.91
-0.77
0.71
2.21
3.51
4.56
5.56
6.76
8.4
10.55
13.02
15.46
17.36
18.26
17.87
16.19
13.48
10.16
6.75
3.64
1.14
-0.61
-1.58
-1.85
-1.6
-1.14
-0.82
-0.97
-1.77
-3.16
-4.9
-6.6
-7.94
-8.72
-8.98
-8.93
-8.82
-8.83
-8.99
-9.18
-9.19
-8.86
-8.15
-7.14
-6.01
-4.96
-4.18
-3.76
-3.71
-3.96
-4.34
-4.7
-4.9
-4.94
-4.85
-4.69
-4.51
-4.25
-3.85
-3.31
-2.69
-2.14
-1.79
-1.69
-1.75
-1.79
-1.64
-1.2
-0.52
0.23
0.8
1.02
0.86
0.4
-0.14
-0.57
-0.78
-0.79
-0.7
-0.61
-0.55
-0.51
-0.45
-0.36
-0.26
-0.25
-0.32
-0.45
-0.51
-0.42
-0.16
0.22
0.6
0.92
1.19
1.48
1.84
2.26
2.66
2.94
3.03
2.97
2.88
2.88
3.03
3.3
3.58
3.75
3.72
3.52
3.21
2.91
2.72
2.66
2.7
2.76
2.75
2.65
2.48
2.29
2.13
2.04
2
2
2.03
2.04
2.02
1.93
1.74
1.44
1.07
0.66
0.26
-0.08
-0.35
-0.55
-0.72
-0.86
-0.96
-1.01
-0.98
-0.88
-0.76
-0.65
-0.63
-0.73
-0.91
-1.08
-1.11
-0.92
-0.5
0.08
0.68
1.22
1.62
1.94
2.24
2.57
2.89
3.14
3.23
3.09
2.78
2.36
1.92
1.5
1.11
0.75
0.44
0.25
0.25
0.45
0.82
1.25
1.61
1.81
1.81
1.64
1.39
1.14
0.95
0.82
0.71
0.56
0.34
0.1
-0.13
-0.27
-0.3
-0.2
-0.02
0.21
0.43
0.63
0.77
0.76
0.55
0.05
-0.71
-1.64
-2.56
-3.29
-3.68
-3.7
-3.42
-2.93
-2.36
-1.78
-1.22
-0.72
-0.26
0.12
0.41
0.65
0.85
1.06
1.31
1.58
1.84
2.03
2.11
2.05
1.88
1.66
1.44
1.28
1.21
1.24
1.32
1.39
1.39
1.28
1.06
0.78
0.52
0.36
0.3
0.33
0.36
0.34
0.29
0.25
0.24
0.27
0.23
0.04
-0.32
-0.77
-1.18
-1.37
-1.31
-1.04
-0.72
-0.5
-0.52
-0.8
-1.27
-1.85
-2.41
-2.87
-3.15
-3.22
-3.04
-2.62
-2.02
-1.33
-0.69
-0.19
0.15
0.39
0.61
0.88
1.19
1.47
1.64
1.65
1.55
1.42
1.33
1.3
1.3
1.26
1.15
1
0.87
0.87
0.99
1.15
1.19
0.92
0.22
-0.93
-2.39
-3.94
-5.27
-6.1
-6.19
-5.43
-3.8
-1.47
1.21
3.83
5.97
7.32
7.79
7.53
6.82
5.97
5.18
4.54
3.99
3.48
2.97
2.45
1.97
1.53
1.12
0.68
0.21
-0.25
-0.59
-0.72
-0.61
-0.35
-0.08
0.11
0.17
0.18
0.25
0.44
0.72
1.02
1.22
1.28
1.23
1.19
1.23
1.39
1.6
1.78
1.84
1.75
1.59
1.46
1.43
1.5
1.58
1.52
1.26
0.81
0.28
-0.23
-0.66
-1.06
-1.53
-2.1
-2.73
-3.26
-3.57
-3.57
-3.32
-2.92
-2.5
-2.14
-1.91
-1.84
-1.94
-2.21
-2.61
-3.07
-3.52
-3.91
-4.22
-4.46
-4.57
-4.53
-4.31
-3.96
-3.59
-3.33
-3.25
-3.31
-3.42
-3.44
-3.31
-3.04
-2.65
-2.18
-1.61
-0.91
-0.09
0.78
1.58
2.2
2.57
2.73
2.75
2.69
2.61
2.53
2.52
2.62
2.87
3.24
3.66
4.01
4.19
4.15
3.93
3.61
3.26
2.92
2.61
2.27
1.87
1.39
0.85
0.3
-0.16
-0.42
-0.45
-0.33
-0.18
-0.16
-0.33
-0.64
-0.94
-1.09
-1.06
-0.93
-0.86
-0.96
-1.24
-1.61
-1.93
-2.13
-2.19
-2.16
-2.07
-1.94
-1.74
-1.49
-1.21
-0.94
-0.65
-0.33
0.1
0.62
1.15
1.56
1.77
1.78
1.68
1.59
1.59
1.7
1.89
2.11
2.37
2.66
2.93
3.07
2.95
2.51
1.79
0.97
0.27
-0.12
-0.16
0.07
0.41
0.67
0.77
0.67
0.42
0.07
-0.33
-0.79
-1.33
-2.01
-2.85
-3.85
-4.99
-6.2
-7.4
-8.49
-9.34
-9.76
-9.62
-8.86
-7.57
-6
-4.42
-3.02
-1.88
-0.92
-0.06
0.72
1.29
1.49
1.23
0.6
-0.14
-0.65
-0.7
-0.31
0.31
0.85
1.09
1.02
0.84
0.83
1.21
2.04
3.19
4.41
5.46
6.17
6.48
6.38
5.98
5.45
5.05
5.06
5.7
6.97
8.64
10.28
11.47
11.92
11.59
10.63
9.31
7.85
6.41
5.08
3.93
3.06
2.53
2.37
2.42
2.45
2.13
1.25
-0.19
-1.97
-3.73
-5.11
-5.93
-6.23
-6.29
-6.41
-6.77
-7.39
-8.07
-8.58
-8.75
-8.52
-7.94
-7.08
-6.02
-4.79
-3.45
-2.12
-0.97
-0.17
0.14
-0.03
-0.55
-1.21
-1.77
-2.09
-2.13
-1.99
-1.82
-1.81
-2.07
-2.61
-3.33
-4.08
-4.74
-5.25
-5.6
-5.8
-5.87
-5.8
-5.58
-5.22
-4.74
-4.22
-3.72
-3.3
-2.98
-2.73
-2.47
-2.07
-1.41
-0.39
1.06
2.93
5.17
7.64
10.19
12.59
14.56
15.8
16.02
15.04
12.88
9.8
6.28
2.86
-0.02
-2.13
-3.51
-4.35
-4.87
-5.2
-5.37
-5.33
-5.07
-4.57
-3.9
-3.08
-2.1
-0.98
0.23
1.41
2.41
3.11
3.47
3.52
3.35
3.06
2.72
2.35
1.97
1.62
1.36
1.27
1.38
1.66
2.04
2.41
2.68
2.79
2.74
2.57
2.34
2.08
1.88
1.76
1.71
1.68
1.56
1.24
0.66
-0.11
-0.95
-1.69
-2.21
-2.49
-2.6
-2.63
-2.73
-3
-3.52
-4.33
-5.36
-6.5
-7.52
-8.2
-8.39
-8.06
-7.31
-6.32
-5.3
-4.39
-3.68
-3.18
-2.81
-2.43
-1.85
-0.92
0.33
1.61
2.46
2.34
0.98
-1.5
-4.56
-7.46
-9.57
-10.57
-10.5
-9.65
-8.26
-6.46
-4.19
-1.4
1.84
5.23
8.35
10.76
12.16
12.53
12.03
11
9.78
8.61
7.59
6.66
5.69
4.58
3.31
2.01
0.86
0.05
-0.36
-0.45
-0.38
-0.33
-0.39
-0.54
-0.64
-0.55
-0.2
0.4
1.18
2.08
3.11
4.3
5.65
6.98
8.02
8.41
7.93
6.59
4.64
2.44
0.36
-1.4
-2.73
-3.66
-4.24
-4.51
-4.54
-4.38
-4.11
-3.77
-3.35
-2.86
-2.3
-1.68
-1.07
-0.5
0.02
0.55
1.12
1.72
2.21
2.45
2.35
1.93
1.37
0.93
0.81
1.07
1.65
2.35
3
3.53
3.96
4.36
4.75
5.06
5.12
4.82
4.13
3.15
2.06
1
0.07
-0.74
-1.44
-2.04
-2.48
-2.7
-2.74
-2.68
-2.68
-2.85
-3.21
-3.67
-4.11
-4.4
-4.53
-4.51
-4.42
-4.32
-4.28
-4.32
-4.47
-4.73
-5.05
-5.33
-5.47
-5.41
-5.19
-4.91
-4.71
-4.69
-4.84
-5.07
-5.26
-5.34
-5.32
-5.27
-5.32
-5.53
-5.93
-6.42
-6.88
-7.13
-6.98
-6.28
-5
-3.21
-1.15
0.91
2.68
3.95
4.62
4.73
4.4
3.84
3.25
2.75
2.41
2.19
2.04
1.93
1.84
1.81
1.83
1.85
1.79
1.6
1.3
1
0.85
1.01
1.56
2.47
3.63
4.9
6.1
7.12
7.89
8.4
8.68
8.74
8.55
8.06
7.29
6.36
5.48
4.89
4.7
4.86
5.15
5.38
5.42
5.34
5.26
5.29
5.45
5.67
5.85
5.97
6.04
6.1
6.2
6.31
6.42
6.49
6.45
6.18
5.54
4.35
2.55
0.26
-2.19
-4.42
-6.09
-7.09
-7.5
-7.55
-7.49
-7.5
-7.66
-8
-8.52
-9.16
-9.88
-10.59
-11.19
-11.65
-12.02
-12.43
-12.99
-13.6
-13.95
-13.54
-11.92
-8.91
-4.7
0.22
5.21
9.75
13.49
16.24
17.8
18.02
16.76
14.1
10.43
6.37
2.61
-0.36
-2.38
-3.59
-4.29
-4.8
-5.36
-6.07
-6.92
-7.83
-8.62
-9.07
-8.95
-8.18
-6.84
-5.21
-3.68
-2.63
-2.31
-2.8
-4.01
-5.76
-7.86
-10.11
-12.33
-14.36
-16.03
-17.16
-17.59
-17.19
-15.83
-13.46
-10.12
-5.97
-1.26
3.64
8.4
12.76
16.63
20.01
22.98
25.53
27.56
28.84
29.11
28.17
25.98
22.62
18.34
13.46
8.38
3.52
-0.69
-3.88
-5.88
-6.75
-6.83
-6.62
-6.63
-7.16
-8.2
-9.47
-10.58
-11.21
-11.25
-10.84
-10.27
-9.83
-9.66
-9.75
-9.99
-10.22
-10.36
-10.36
-10.25
-10.1
-9.96
-9.87
-9.82
-9.7
-9.34
-8.55
-7.18
-5.17
-2.57
0.5
3.88
7.3
10.38
12.61
13.45
12.53
9.84
5.8
1.14
-3.29
-6.81
-9.03
-9.8
-9.21
-7.4
-4.61
-1.19
2.42
5.7
8.21
9.7
10.16
9.8
8.93
7.87
6.88
6.1
5.58
5.26
5.09
5
4.96
4.95
4.95
4.91
4.82
4.67
4.51
4.38
4.25
4.09
3.89
3.77
4.04
5.11
7.21
10.17
13.38
15.91
16.9
15.91
13.18
9.4
5.52
2.24
-0.12
-1.65
-2.65
-3.39
-4.01
-4.5
-4.79
-4.87
-4.83
-4.79
-4.86
-5.07
-5.35
-5.54
-5.5
-5.1
-4.33
-3.33
-2.36
-1.73
-1.62
-2.01
-2.65
-3.19
-3.35
-3.04
-2.42
-1.75
-1.27
-1.11
-1.2
-1.43
-1.69
-1.93
-2.13
-2.31
-2.41
-2.43
-2.39
-2.34
-2.36
-2.44
-2.55
-2.57
-2.46
-2.23
-1.97
-1.79
-1.74
-1.78
-1.8
-1.73
-1.56
-1.37
-1.27
-1.34
-1.54
-1.76
-1.84
-1.66
-1.2
-0.56
0.1
0.58
0.81
0.81
0.74
0.77
1.1
1.79
2.87
4.26
5.86
7.52
9.06
10.26
10.86
10.68
9.64
7.79
5.38
2.7
0.05
-2.38
-4.48
-6.22
-7.61
-8.63
-9.29
-9.65
-9.86
-10.14
-10.69
-11.57
-12.68
-13.77
-14.47
-14.5
-13.73
-12.25
-10.25
-7.99
-5.64
-3.26
-0.87
1.48
3.63
5.39
6.59
7.2
7.37
7.31
7.2
7.11
6.94
6.57
5.9
4.98
3.96
3.01
2.26
1.77
1.47
1.26
1.04
0.76
0.44
0.16
0.01
0.04
0.25
0.56
0.86
1.03
1.05
0.94
0.77
0.61
0.49
0.35
0.15
-0.18
-0.63
-1.09
-1.47
-1.7
-1.81
-1.91
-2.09
-2.34
-2.56
-2.56
-2.22
-1.58
-0.84
-0.23
0.13
0.27
0.4
0.69
1.24
1.97
2.69
3.23
3.52
3.56
3.48
3.36
3.25
3.15
3.06
2.97
2.9
2.87
2.89
2.94
2.96
2.9
2.67
2.25
1.69
1.09
0.62
0.4
0.47
0.71
0.95
0.97
0.7
0.18
-0.44
-1.01
-1.43
-1.72
-1.94
-2.11
-2.2
-2.18
-2.02
-1.8
-1.62
-1.58
-1.73
-1.99
-2.24
-2.38
-2.35
-2.19
-1.96
-1.69
-1.39
-1.04
-0.64
-0.2
0.21
0.56
0.83
1.01
1.13
1.2
1.23
1.18
1.08
0.95
0.87
0.88
1
1.17
1.29
1.29
1.18
1.02
0.89
0.84
0.86
0.9
0.88
0.8
0.68
0.54
0.4
0.22
-0.01
-0.3
-0.59
-0.76
-0.72
-0.34
0.4
1.43
2.5
3.32
3.57
3.09
1.99
0.55
-0.84
-1.91
-2.54
-2.78
-2.78
-2.64
-2.35
-1.88
-1.2
-0.38
0.44
1.11
1.55
1.77
1.85
1.91
1.99
2.09
2.12
2.01
1.72
1.32
0.92
0.63
0.54
0.66
0.94
1.31
1.67
1.93
2
1.85
1.52
1.07
0.62
0.29
0.15
0.18
0.3
0.37
0.32
0.08
-0.32
-0.81
-1.29
-1.71
-2.02
-2.23
-2.37
-2.45
-2.5
-2.52
-2.53
-2.56
-2.64
-2.78
-2.96
-3.13
-3.29
-3.42
-3.54
-3.62
-3.58
-3.33
-2.81
-2.01
-1.05
-0.06
0.84
1.6
2.23
2.78
3.26
3.65
3.92
4.07
4.15
4.25
4.4
4.58
4.69
4.68
4.56
4.44
4.47
4.73
5.2
5.69
5.97
5.9
5.43
4.72
3.98
3.44
3.24
3.37
3.76
4.23
4.58
4.66
4.35
3.66
2.69
1.61
0.62
-0.14
-0.6
-0.81
-0.91
-1.1
-1.59
-2.5
-3.83
-5.4
-6.97
-8.28
-9.19
-9.69
-9.87
-9.83
-9.59
-9.01
-7.96
-6.34
-4.3
-2.16
-0.36
0.72
0.87
0.12
-1.33
-3.23
-5.35
-7.55
-9.65
-11.51
-12.97
-13.96
-14.53
-14.85
-15.06
-15.15
-14.84
-13.71
-11.41
-7.83
-3.29
1.58
6.06
9.59
11.83
12.72
12.32
10.73
8.05
4.49
0.39
-3.75
-7.38
-10
-11.36
-11.45
-10.54
-9.03
-7.34
-5.77
-4.43
-3.22
-1.95
-0.43
1.38
3.37
5.36
7.18
8.75
10.08
11.2
12.07
12.61
12.73
12.39
11.68
10.77
9.87
9.09
8.47
7.97
7.48
6.94
6.31
5.67
5.12
4.77
4.72
4.91
5.25
5.59
5.81
5.82
5.59
5.05
4.15
2.89
1.37
-0.19
-1.5
-2.34
-2.66
-2.59
-2.36
-2.24
-2.37
-2.73
-3.15
-3.44
-3.48
-3.27
-2.94
-2.69
-2.66
-2.9
-3.32
-3.8
-4.2
-4.46
-4.56
-4.49
-4.24
-3.76
-3.06
-2.18
-1.26
-0.47
0.05
0.26
0.2
0.03
-0.13
-0.18
-0.13
-0.01
0.13
0.26
0.41
0.62
0.89
1.19
1.47
1.65
1.68
1.55
1.3
1.01
0.74
0.59
0.58
0.68
0.82
0.9
0.88
0.77
0.64
0.56
0.56
0.57
0.53
0.34
-0.01
-0.46
-0.89
-1.21
-1.35
-1.35
-1.26
-1.12
-0.99
-0.89
-0.84
-0.91
-1.14
-1.53
-2.01
-2.47
-2.76
-2.77
-2.51
-2.07
-1.58
-1.18
-0.89
-0.69
-0.48
-0.17
0.24
0.7
1.13
1.47
1.68
1.75
1.7
1.53
1.24
0.87
0.52
0.3
0.31
0.56
0.94
1.28
1.42
1.3
0.97
0.58
0.25
0.08
0.02
0.01
-0.04
-0.15
-0.29
-0.38
-0.35
-0.16
0.14
0.44
0.63
0.59
0.29
-0.2
-0.74
-1.19
-1.46
-1.59
-1.68
-1.86
-2.15
-2.51
-2.79
-2.84
-2.62
-2.2
-1.71
-1.27
-0.92
-0.66
-0.43
-0.24
-0.09
0
0.05
0.12
0.28
0.59
1.02
1.49
1.91
2.21
2.36
2.4
2.37
2.32
2.27
2.22
2.17
2.07
1.91
1.68
1.41
1.11
0.83
0.56
0.3
0.07
-0.09
-0.11
0.06
0.39
0.76
1.02
1.09
0.96
0.71
0.45
0.23
0.04
-0.18
-0.47
-0.8
-1.08
-1.25
-1.3
-1.29
-1.31
-1.4
-1.58
-1.81
-2.05
-2.24
-2.38
-2.44
-2.39
-2.24
-2.03
-1.81
-1.62
-1.46
-1.29
-1.06
-0.76
-0.45
-0.22
-0.14
-0.21
-0.34
-0.43
-0.42
-0.34
-0.24
-0.16
-0.11
-0.06
0.03
0.13
0.2
0.22
0.2
0.2
0.28
0.43
0.58
0.64
0.57
0.41
0.27
0.26
0.43
0.71
1
1.18
1.16
0.96
0.62
0.23
-0.16
-0.53
-0.87
-1.21
-1.51
-1.74
-1.84
-1.78
-1.56
-1.26
-0.96
-0.73
-0.63
-0.57
-0.46
-0.22
0.19
0.72
1.24
1.63
1.81
1.77
1.6
1.39
1.23
1.16
1.18
1.24
1.3
1.33
1.31
1.24
1.1
0.9
0.66
0.4
0.15
-0.07
-0.25
-0.38
-0.49
-0.58
-0.66
-0.7
-0.67
-0.51
-0.24
0.07
0.26
0.22
-0.12
-0.69
-1.35
-1.93
-2.32
-2.52
-2.6
-2.64
-2.7
-2.8
-2.91
-2.99
-3.04
-3.02
-2.93
-2.75
-2.49
-2.15
-1.77
-1.4
-1.12
-0.93
-0.83
-0.71
-0.47
-0.04
0.58
1.26
1.86
2.26
2.42
2.41
2.32
2.26
2.24
2.21
2.08
1.83
1.5
1.16
0.91
0.82
0.91
1.18
1.62
2.18
2.8
3.35
3.71
3.8
3.64
3.31
2.97
2.72
2.63
2.65
2.7
2.68
2.55
2.27
1.83
1.21
0.42
-0.5
-1.47
-2.33
-2.94
-3.25
-3.3
-3.23
-3.18
-3.26
-3.47
-3.74
-4
-4.23
-4.45
-4.66
-4.83
-4.89
-4.76
-4.42
-3.91
-3.33
-2.78
-2.31
-1.95
-1.74
-1.72
-1.92
-2.4
-3.12
-4
-4.82
-5.27
-5.01
-3.78
-1.51
1.61
5.14
8.53
11.3
13.15
14.05
14.13
13.61
12.71
11.61
10.44
9.35
8.44
7.79
7.39
7.13
6.88
6.47
5.8
4.87
3.77
2.67
1.76
1.14
0.82
0.67
0.51
0.18
-0.36
-1
-1.55
-1.82
-1.73
-1.33
-0.77
-0.24
0.13
0.3
0.33
0.26
0.16
0.03
-0.15
-0.37
-0.62
-0.81
-0.86
-0.7
-0.33
0.21
0.8
1.37
1.89
2.37
2.9
3.6
4.53
5.68
6.97
8.23
9.23
9.78
9.75
9.17
8.15
6.88
5.47
3.96
2.27
0.33
-1.82
-4.05
-6.09
-7.72
-8.78
-9.27
-9.28
-8.98
-8.51
-7.98
-7.45
-6.96
-6.54
-6.19
-5.91
-5.63
-5.32
-4.94
-4.5
-4.04
-3.63
-3.3
-3.04
-2.83
-2.61
-2.33
-1.97
-1.46
-0.76
0.17
1.26
2.33
3.15
3.5
3.32
2.71
1.96
1.35
1.05
1.06
1.22
1.39
1.48
1.54
1.7
2.03
2.48
2.92
3.19
3.23
3.07
2.83
2.63
2.48
2.33
2.12
1.8
1.42
1.07
0.82
0.7
0.66
0.63
0.53
0.32
-0
-0.42
-0.89
-1.37
-1.82
-2.17
-2.42
-2.58
-2.67
-2.7
-2.66
-2.51
-2.25
-1.89
-1.49
-1.12
-0.82
-0.59
-0.46
-0.45
-0.61
-0.97
-1.46
-1.94
-2.23
-2.18
-1.8
-1.22
-0.63
-0.19
-0.01
-0.05
-0.2
-0.31
-0.28
-0.07
0.27
0.66
0.98
1.13
1.08
0.82
0.4
-0.16
-0.86
-1.72
-2.78
-3.98
-5.2
-6.28
-7.02
-7.33
-7.26
-6.95
-6.59
-6.33
-6.18
-6.06
-5.85
-5.44
-4.82
-4.1
-3.46
-3.06
-2.97
-3.15
-3.49
-3.84
-4.1
-4.22
-4.22
-4.09
-3.81
-3.37
-2.74
-2.01
-1.28
-0.7
-0.35
-0.21
-0.22
-0.29
-0.37
-0.43
-0.45
-0.44
-0.38
-0.31
-0.26
-0.27
-0.32
-0.34
-0.26
-0.02
0.35
0.73
0.99
1.03
0.86
0.57
0.27
0.02
-0.2
-0.5
-0.94
-1.56
-2.25
-2.85
-3.22
-3.31
-3.19
-3
-2.86
-2.83
-2.87
-2.9
-2.83
-2.65
-2.39
-2.13
-1.89
-1.66
-1.39
-1.02
-0.54
0.03
0.58
1.03
1.29
1.35
1.26
1.11
0.99
0.92
0.89
0.89
0.89
0.9
0.97
1.11
1.3
1.46
1.49
1.34
0.99
0.53
0.07
-0.28
-0.46
-0.45
-0.25
0.09
0.53
1.02
1.46
1.77
1.93
1.95
1.94
1.99
2.19
2.51
2.86
3.11
3.17
3.04
2.8
2.58
2.47
2.48
2.57
2.66
2.69
2.66
2.62
2.61
2.66
2.76
2.87
2.99
3.12
3.3
3.55
3.79
3.95
3.95
3.77
3.5
3.25
3.14
3.15
3.2
3.15
2.92
2.54
2.14
1.85
1.73
1.76
1.81
1.82
1.74
1.59
1.38
1.15
0.88
0.56
0.25
-0.02
-0.2
-0.28
-0.3
-0.33
-0.4
-0.53
-0.69
-0.85
-0.96
-1.02
-1.04
-1.04
-1.07
-1.2
-1.47
-1.92
-2.49
-3.08
-3.56
-3.8
-3.76
-3.47
-3
-2.45
-1.87
-1.24
-0.57
0.14
0.8
1.31
1.62
1.71
1.66
1.61
1.64
1.8
2.05
2.32
2.54
2.65
2.62
2.43
2.13
1.79
1.5
1.32
1.27
1.31
1.34
1.3
1.15
0.91
0.63
0.37
0.18
0.08
0.05
0.04
0
-0.1
-0.28
-0.52
-0.76
-0.98
-1.13
-1.23
-1.32
-1.43
-1.61
-1.84
-2.11
-2.34
-2.48
-2.47
-2.28
-1.92
-1.44
-0.9
-0.41
-0.05
0.12
0.1
-0.02
-0.14
-0.15
0.02
0.34
0.74
1.12
1.42
1.63
1.79
1.92
2.01
1.99
1.78
1.39
0.89
0.48
0.3
0.42
0.7
0.95
0.98
0.75
0.37
0.04
-0.06
0.08
0.34
0.56
0.6
0.43
0.13
-0.18
-0.4
-0.46
-0.37
-0.2
-0.01
0.13
0.16
0.07
-0.15
-0.5
-0.95
-1.49
-2.05
-2.54
-2.87
-2.98
-2.86
-2.56
-2.15
-1.68
-1.19
-0.68
-0.18
0.27
0.58
0.73
0.72
0.61
0.53
0.56
0.75
1.05
1.33
1.48
1.4
1.13
0.77
0.49
0.41
0.58
0.93
1.29
1.54
1.57
1.43
1.21
1.04
0.98
1.06
1.24
1.44
1.58
1.63
1.53
1.3
0.94
0.53
0.14
-0.14
-0.27
-0.25
-0.17
-0.09
-0.11
-0.25
-0.5
-0.82
-1.17
-1.53
-1.88
-2.2
-2.47
-2.7
-2.88
-3.01
-3.05
-2.93
-2.59
-2.05
-1.36
-0.63
0.03
0.56
0.93
1.17
1.3
1.36
1.41
1.48
1.6
1.74
1.85
1.84
1.67
1.37
1.04
0.78
0.65
0.66
0.78
0.97
1.18
1.37
1.47
1.46
1.32
1.12
0.97
0.99
1.18
1.47
1.71
1.74
1.51
1.11
0.66
0.29
0.08
-0.02
-0.08
-0.14
-0.23
-0.3
-0.36
-0.42
-0.56
-0.89
-1.43
-2.14
-2.84
-3.36
-3.55
-3.38
-2.94
-2.41
-1.92
-1.58
-1.34
-1.1
-0.78
-0.35
0.13
0.52
0.74
0.79
0.71
0.6
0.54
0.55
0.62
0.72
0.86
1.06
1.36
1.72
2.05
2.27
2.29
2.11
1.79
1.45
1.19
1.09
1.16
1.32
1.47
1.53
1.48
1.34
1.17
1.02
0.88
0.7
0.44
0.14
-0.13
-0.28
-0.26
-0.12
0.02
0.03
-0.18
-0.55
-0.98
-1.37
-1.67
-1.9
-2.15
-2.45
-2.77
-2.99
-2.99
-2.71
-2.22
-1.67
-1.23
-0.97
-0.86
-0.8
-0.69
-0.47
-0.2
0.06
0.27
0.45
0.66
0.91
1.18
1.39
1.45
1.35
1.16
1
0.95
1.05
1.23
1.4
1.49
1.5
1.49
1.53
1.62
1.65
1.54
1.22
0.75
0.27
-0.09
-0.24
-0.22
-0.14
-0.14
-0.26
-0.49
-0.73
-0.88
-0.88
-0.74
-0.54
-0.37
-0.31
-0.35
-0.51
-0.72
-0.96
-1.22
-1.5
-1.77
-2.01
-2.18
-2.26
-2.26
-2.2
-2.1
-1.97
-1.75
-1.37
-0.82
-0.14
0.53
0.99
1.14
0.98
0.63
0.31
0.17
0.24
0.44
0.63
0.68
0.62
0.52
0.47
0.49
0.53
0.51
0.39
0.22
0.09
0.07
0.16
0.28
0.35
0.33
0.27
0.2
0.16
0.12
0.02
-0.15
-0.4
-0.65
-0.84
-0.95
-1
-1.06
-1.13
-1.23
-1.31
-1.38
-1.47
-1.63
-1.88
-2.18
-2.45
-2.63
-2.69
-2.66
-2.58
-2.49
-2.37
-2.19
-1.93
-1.57
-1.11
-0.53
0.15
0.88
1.56
2.09
2.37
2.41
2.27
2.05
1.82
1.61
1.41
1.24
1.16
1.2
1.37
1.6
1.78
1.8
1.61
1.27
0.9
0.62
0.48
0.49
0.57
0.66
0.72
0.77
0.81
0.88
0.93
0.91
0.76
0.47
0.07
-0.38
-0.84
-1.28
-1.69
-2.06
-2.35
-2.51
-2.51
-2.39
-2.24
-2.15
-2.19
-2.32
-2.44
-2.45
-2.31
-2.01
-1.63
-1.25
-0.91
-0.62
-0.32
0.01
0.39
0.75
1.02
1.1
0.96
0.68
0.39
0.26
0.4
0.8
1.33
1.78
1.95
1.76
1.29
0.68
0.13
-0.22
-0.34
-0.24
0.04
0.4
0.73
0.9
0.83
0.54
0.16
-0.16
-0.23
-0.02
0.35
0.71
0.86
0.76
0.43
0.01
-0.4
-0.76
-1.07
-1.37
-1.67
-1.94
-2.16
-2.33
-2.47
-2.63
-2.84
-3.06
-3.23
-3.23
-3.02
-2.58
-1.97
-1.3
-0.66
-0.08
0.41
0.83
1.22
1.58
1.87
2.07
2.13
2.09
2.02
2.01
2.09
2.23
2.34
2.32
2.15
1.89
1.69
1.65
1.77
1.98
2.11
2.08
1.88
1.63
1.41
1.3
1.26
1.2
1.05
0.78
0.44
0.1
-0.17
-0.35
-0.42
-0.42
-0.38
-0.34
-0.32
-0.32
-0.35
-0.39
-0.42
-0.46
-0.54
-0.7
-0.98
-1.37
-1.82
-2.25
-2.57
-2.76
-2.83
-2.78
-2.62
-2.33
-1.89
-1.28
-0.56
0.17
0.83
1.36
1.74
2.01
2.22
2.42
2.62
2.78
2.86
2.83
2.69
2.51
2.4
2.43
2.66
3.02
3.4
3.67
3.77
3.69
3.47
3.1
2.61
2.03
1.43
0.92
0.59
0.46
0.48
0.57
0.67
0.73
0.76
0.78
0.79
0.76
0.67
0.54
0.39
0.22
0.01
-0.3
-0.71
-1.17
-1.59
-1.88
-2.06
-2.17
-2.33
-2.61
-2.95
-3.25
-3.32
-3.08
-2.52
-1.77
-1
-0.34
0.12
0.4
0.58
0.72
0.87
1
1.07
1.08
1.02
0.93
0.84
0.76
0.68
0.56
0.33
-0.02
-0.46
-0.91
-1.27
-1.48
-1.54
-1.55
-1.61
-1.81
-2.14
-2.48
-2.67
-2.57
-2.09
-1.29
-0.31
0.64
1.31
1.49
1.1
0.14
-1.16
-2.49
-3.51
-3.98
-3.86
-3.33
-2.69
-2.21
-2.05
-2.18
-2.44
-2.65
-2.71
-2.61
-2.45
-2.35
-2.37
-2.53
-2.79
-3.1
-3.4
-3.7
-4.07
-4.58
-5.34
-6.35
-7.55
-8.71
-9.46
-9.38
-8.05
-5.17
-0.73
4.96
11.26
17.24
21.9
24.43
24.4
21.98
17.83
12.87
7.99
3.78
0.47
-1.99
-3.75
-4.88
-5.42
-5.41
-4.99
-4.42
-3.96
-3.75
-3.73
-3.72
-3.54
-3.15
-2.66
-2.29
-2.18
-2.33
-2.61
-2.8
-2.78
-2.55
-2.26
-2.12
-2.29
-2.79
-3.51
-4.23
-4.71
-4.8
-4.48
-3.85
-3.07
-2.3
-1.61
-0.98
-0.34
0.38
1.19
2.06
2.88
3.55
4.01
4.23
4.27
4.21
4.15
4.14
4.17
4.17
4.05
3.78
3.38
2.94
2.56
2.3
2.21
2.27
2.46
2.74
3.05
3.33
3.51
3.61
3.69
3.87
4.24
4.8
5.44
5.98
6.23
6.1
5.6
4.84
3.94
2.99
2.01
1
-0.02
-1.07
-2.13
-3.2
-4.29
-5.36
-6.3
-6.96
-7.19
-7
-6.49
-5.93
-5.55
-5.44
-5.56
-5.7
-5.71
-5.54
-5.25
-5
-4.93
-5.09
-5.42
-5.75
-5.86
-5.51
-4.51
-2.8
-0.54
1.96
4.3
6.11
7.23
7.67
7.58
7.1
6.34
5.36
4.2
2.99
1.87
0.98
0.38
0.01
-0.26
-0.52
-0.81
-1.05
-1.13
-1
-0.66
-0.25
0.09
0.23
0.13
-0.12
-0.42
-0.61
-0.65
-0.57
-0.45
-0.37
-0.36
-0.39
-0.42
-0.42
-0.4
-0.37
-0.27
-0.05
0.35
0.94
1.61
2.22
2.62
2.76
2.69
2.55
2.47
2.47
2.52
2.52
2.39
2.1
1.75
1.44
1.29
1.32
1.48
1.67
1.77
1.72
1.56
1.4
1.35
1.5
1.84
2.26
2.67
2.96
3.06
2.99
2.77
2.47
2.14
1.8
1.46
1.09
0.68
0.25
-0.17
-0.5
-0.71
-0.8
-0.85
-0.92
-1.09
-1.39
-1.78
-2.23
-2.69
-3.12
-3.51
-3.84
-4.06
-4.14
-4.02
-3.68
-3.11
-2.33
-1.43
-0.53
0.24
0.79
1.07
1.13
1.06
0.97
0.89
0.86
0.83
0.8
0.78
0.81
0.92
1.11
1.31
1.44
1.46
1.39
1.34
1.41
1.58
1.76
1.78
1.53
1.02
0.42
-0.05
-0.24
-0.11
0.2
0.53
0.71
0.69
0.52
0.29
0.1
-0.01
-0.06
-0.1
-0.19
-0.37
-0.68
-1.07
-1.46
-1.8
-2.01
-2.1
-2.16
-2.24
-2.43
-2.67
-2.89
-2.96
-2.8
-2.41
-1.87
-1.27
-0.67
-0.09
0.51
1.14
1.78
2.33
2.68
2.76
2.55
2.12
1.6
1.1
0.71
0.46
0.37
0.41
0.53
0.72
0.92
1.1
1.2
1.17
0.99
0.65
0.23
-0.17
-0.47
-0.64
-0.71
-0.72
-0.76
-0.83
-0.92
-1.01
-1.06
-1.06
-1.02
-0.95
-0.86
-0.79
-0.76
-0.85
-1.09
-1.48
-1.95
-2.38
-2.68
-2.82
-2.9
-3.04
-3.34
-3.75
-4.13
-4.26
-4.02
-3.43
-2.65
-1.88
-1.3
-0.95
-0.78
-0.7
-0.65
-0.66
-0.77
-1
-1.31
-1.59
-1.74
-1.65
-1.34
-0.88
-0.36
0.16
0.7
1.35
2.27
3.59
5.4
7.71
10.43
13.38
16.3
18.82
20.56
21.16
20.38
18.23
14.91
10.84
6.52
2.41
-1.15
-3.99
-6.09
-7.53
-8.43
-8.91
-9.09
-9.08
-8.96
-8.79
-8.55
-8.16
-7.55
-6.68
-5.61
-4.48
-3.45
-2.64
-2.07
-1.71
-1.5
-1.38
-1.33
-1.31
-1.27
-1.16
-0.98
-0.76
-0.62
-0.64
-0.84
-1.14
-1.4
-1.51
-1.42
-1.21
-0.99
-0.86
-0.87
-1.01
-1.24
-1.52
-1.79
-2.02
-2.1
-1.98
-1.61
-1.02
-0.3
0.45
1.1
1.54
1.67
1.4
0.73
-0.27
-1.41
-2.45
-3.2
-3.58
-3.64
-3.51
-3.29
-2.95
-2.37
-1.43
-0.06
1.67
3.63
5.61
7.34
8.54
8.93
8.35
6.8
4.55
2.04
-0.21
-1.82
-2.61
-2.63
-2.08
-1.22
-0.27
0.58
1.18
1.48
1.51
1.37
1.16
1
0.85
0.71
0.53
0.35
0.23
0.24
0.37
0.49
0.46
0.23
-0.17
-0.62
-0.97
-1.14
-1.16
-1.12
-1.1
-1.09
-1.04
-0.86
-0.52
-0.11
0.26
0.48
0.51
0.4
0.26
0.14
0.06
-0.05
-0.25
-0.59
-1.04
-1.53
-1.97
-2.26
-2.38
-2.31
-2.1
-1.83
-1.57
-1.38
-1.25
-1.14
-0.95
-0.63
-0.22
0.2
0.54
0.76
0.89
1
1.17
1.39
1.58
1.69
1.66
1.55
1.41
1.31
1.26
1.25
1.23
1.19
1.15
1.1
1.07
1.06
1.06
1.05
1.04
1.01
0.98
0.94
0.87
0.76
0.58
0.33
0.04
-0.23
-0.39
-0.39
-0.28
-0.16
-0.18
-0.41
-0.82
-1.28
-1.61
-1.75
-1.74
-1.72
-1.8
-1.99
-2.2
-2.31
-2.24
-2
-1.69
-1.38
-1.1
-0.79
-0.42
0.04
0.52
0.94
1.26
1.45
1.54
1.54
1.48
1.36
1.19
1.02
0.84
0.68
0.54
0.43
0.4
0.44
0.56
0.69
0.8
0.82
0.74
0.57
0.3
-0.05
-0.45
-0.84
-1.14
-1.23
-1.05
-0.64
-0.14
0.27
0.43
0.29
-0.07
-0.48
-0.8
-0.98
-1.07
-1.16
-1.36
-1.66
-2.01
-2.31
-2.52
-2.66
-2.78
-2.93
-3.08
-3.13
-2.98
-2.6
-2.07
-1.54
-1.15
-0.95
-0.89
-0.88
-0.79
-0.6
-0.32
-0.03
0.18
0.3
0.34
0.34
0.36
0.49
0.82
1.46
2.53
4.06
6.01
8.21
10.39
12.23
13.42
13.74
13.05
11.39
8.92
5.9
2.7
-0.33
-2.87
-4.68
-5.65
-5.81
-5.34
-4.5
-3.57
-2.76
-2.15
-1.75
-1.5
-1.33
-1.23
-1.21
-1.23
-1.28
-1.27
-1.21
-1.1
-1
-0.96
-0.99
-1.01
-0.98
-0.84
-0.61
-0.36
-0.15
-0.03
0.03
0.08
0.18
0.34
0.56
0.75
0.82
0.7
0.35
-0.2
-0.82
-1.39
-1.79
-1.96
-1.94
-1.77
-1.54
-1.27
-0.98
-0.67
-0.37
-0.13
-0.03
-0.09
-0.3
-0.59
-0.83
-0.92
-0.78
-0.41
0.13
0.73
1.24
1.56
1.63
1.47
1.13
0.71
0.27
-0.13
-0.46
-0.71
-0.94
-1.21
-1.6
-2.14
-2.84
-3.58
-4.22
-4.62
-4.71
-4.59
-4.42
-4.4
-4.62
-5.05
-5.51
-5.83
-5.87
-5.65
-5.26
-4.85
-4.52
-4.25
-3.96
-3.55
-2.95
-2.17
-1.31
-0.53
0
0.23
0.19
0.11
0.35
1.3
3.3
6.46
10.67
15.51
20.32
24.38
27.03
27.79
26.5
23.34
18.74
13.31
7.72
2.57
-1.7
-4.88
-7.03
-8.39
-9.3
-10.05
-10.76
-11.38
-11.72
-11.64
-11.1
-10.24
-9.28
-8.41
-7.74
-7.27
-6.9
-6.56
-6.21
-5.8
-5.34
-4.8
-4.17
-3.46
-2.74
-2.11
-1.66
-1.44
-1.41
-1.44
-1.38
-1.12
-0.63
-0.01
0.6
1.07
1.39
1.6
1.82
2.11
2.47
2.77
2.85
2.64
2.14
1.52
0.98
0.62
0.47
0.42
0.33
0.18
0.01
-0.08
0.01
0.26
0.56
0.78
0.86
0.81
0.71
0.67
0.7
0.73
0.68
0.5
0.21
-0.11
-0.4
-0.63
-0.8
-0.96
-1.09
-1.17
-1.16
-1.07
-0.93
-0.84
-0.82
-0.88
-0.91
-0.83
-0.54
-0.07
0.51
1.07
1.51
1.75
1.81
1.7
1.52
1.31
1.13
1.02
0.96
0.94
0.94
1.01
1.18
1.49
1.93
2.38
2.7
2.76
2.52
2.08
1.63
1.36
1.4
1.74
2.26
2.81
3.24
3.46
3.44
3.21
2.83
2.35
1.84
1.34
0.86
0.4
-0.02
-0.39
-0.71
-1
-1.28
-1.58
-1.93
-2.28
-2.58
-2.8
-2.92
-2.94
-2.89
-2.76
-2.58
-2.39
-2.3
-2.45
-2.94
-3.78
-4.85
-5.9
-6.67
-6.99
-6.78
-6.1
-5.08
-3.88
-2.65
-1.5
-0.53
0.22
0.77
1.15
1.39
1.52
1.49
1.29
0.91
0.43
0.02
-0.18
-0.07
0.27
0.63
0.8
0.64
0.15
-0.51
-1.12
-1.54
-1.75
-1.82
-1.91
-2.11
-2.44
-2.86
-3.28
-3.65
-3.9
-3.99
-3.89
-3.62
-3.23
-2.84
-2.57
-2.5
-2.64
-2.86
-2.98
-2.84
-2.34
-1.53
-0.58
0.31
0.99
1.41
1.62
1.72
1.82
1.97
2.17
2.33
2.3
1.95
1.21
0.19
-0.77
-1.15
-0.35
2.06
6.17
11.68
17.87
23.75
28.27
30.5
29.79
25.96
19.36
10.83
1.6
-6.98
-13.82
-18.25
-20.15
-19.88
-18.02
-15.23
-12.06
-8.93
-6.16
-3.97
-2.46
-1.56
-1.06
-0.69
-0.25
0.31
0.87
1.21
1.14
0.64
-0.17
-1.07
-1.85
-2.4
-2.67
-2.65
-2.35
-1.8
-1.05
-0.22
0.58
1.3
2.02
2.91
4.2
6.04
8.41
11.07
13.59
15.46
16.28
15.87
14.32
11.9
8.92
5.65
2.23
-1.23
-4.57
-7.52
-9.79
-11.16
-11.58
-11.24
-10.43
-9.45
-8.51
-7.71
-7.06
-6.52
-6.05
-5.58
-5.07
-4.48
-3.84
-3.23
-2.76
-2.48
-2.44
-2.59
-2.89
-3.23
-3.54
-3.72
-3.7
-3.45
-3
-2.44
-1.87
-1.36
-0.95
-0.64
-0.41
-0.27
-0.24
-0.31
-0.45
-0.56
-0.53
-0.32
0.05
0.51
0.94
1.26
1.45
1.54
1.57
1.59
1.59
1.58
1.59
1.63
1.71
1.8
1.89
1.98
2.11
2.35
2.74
3.24
3.7
3.95
3.85
3.38
2.67
1.93
1.35
1.05
0.97
0.97
0.9
0.71
0.4
0.09
-0.15
-0.25
-0.25
-0.19
-0.14
-0.12
-0.12
-0.07
0.06
0.27
0.49
0.63
0.64
0.52
0.38
0.32
0.42
0.69
1.04
1.36
1.54
1.57
1.51
1.41
1.33
1.28
1.23
1.12
0.93
0.67
0.38
0.14
0.02
0.09
0.35
0.75
1.14
1.39
1.38
1.1
0.64
0.18
-0.16
-0.33
-0.4
-0.47
-0.6
-0.76
-0.82
-0.67
-0.3
0.2
0.6
0.71
0.46
-0.08
-0.72
-1.26
-1.59
-1.72
-1.79
-1.89
-2.06
-2.19
-2.13
-1.78
-1.17
-0.47
0.14
0.53
0.73
0.85
1.04
1.35
1.72
2.02
2.14
2.04
1.8
1.53
1.36
1.35
1.49
1.68
1.82
1.79
1.56
1.16
0.67
0.22
-0.12
-0.34
-0.46
-0.54
-0.6
-0.63
-0.61
-0.49
-0.26
0.08
0.45
0.76
0.89
0.76
0.37
-0.21
-0.84
-1.38
-1.75
-1.9
-1.88
-1.76
-1.63
-1.57
-1.64
-1.81
-2
-2.12
-2.07
-1.85
-1.49
-1.09
-0.69
-0.33
0
0.31
0.59
0.82
0.98
1.09
1.19
1.33
1.52
1.73
1.9
1.98
1.93
1.77
1.53
1.26
0.97
0.7
0.46
0.26
0.11
0.04
0.06
0.17
0.4
0.75
1.19
1.67
2.1
2.43
2.63
2.67
2.6
2.43
2.15
1.77
1.25
0.59
-0.19
-0.99
-1.73
-2.31
-2.67
-2.85
-2.97
-3.14
-3.45
-3.89
-4.36
-4.75
-4.96
-4.94
-4.73
-4.39
-3.96
-3.48
-2.92
-2.3
-1.62
-0.94
-0.34
0.14
0.48
0.69
0.82
0.86
0.84
0.72
0.52
0.24
-0.08
-0.37
-0.6
-0.7
-0.66
-0.49
-0.21
0.09
0.34
0.47
0.45
0.32
0.16
0.02
-0.08
-0.15
-0.23
-0.3
-0.28
-0.09
0.3
0.84
1.36
1.7
1.73
1.46
1
0.53
0.21
0.13
0.27
0.53
0.74
0.79
0.61
0.19
-0.37
-0.94
-1.38
-1.57
-1.47
-1.1
-0.57
-0.03
0.42
0.72
0.89
1.01
1.17
1.43
1.75
2.02
2.11
1.95
1.57
1.06
0.6
0.29
0.17
0.2
0.27
0.3
0.24
0.09
-0.15
-0.44
-0.73
-0.92
-0.86
-0.39
0.6
2.09
3.87
5.66
7.19
8.32
9.04
9.44
9.6
9.53
9.16
8.42
7.28
5.79
4.07
2.23
0.39
-1.37
-2.94
-4.24
-5.22
-5.89
-6.32
-6.58
-6.7
-6.66
-6.44
-6.06
-5.59
-5.17
-4.86
-4.63
-4.4
-4.04
-3.48
-2.79
-2.05
-1.35
-0.69
-0.03
0.71
1.55
2.42
3.22
3.85
4.3
4.63
4.86
4.99
4.94
4.64
4.07
3.34
2.55
1.82
1.18
0.6
0.06
-0.41
-0.72
-0.76
-0.56
-0.27
-0.13
-0.35
-1
-1.97
-3.07
-4.09
-4.9
-5.43
-5.74
-5.88
-5.91
-5.88
-5.83
-5.76
-5.71
-5.69
-5.75
-5.89
-6.08
-6.22
-6.23
-6.01
-5.56
-4.91
-4.15
-3.33
-2.52
-1.77
-1.17
-0.81
-0.75
-0.96
-1.35
-1.76
-2.06
-2.2
-2.19
-2.02
-1.7
-1.22
-0.62
0.03
0.6
1.02
1.27
1.42
1.52
1.6
1.62
1.53
1.37
1.22
1.16
1.22
1.34
1.39
1.3
1.09
0.83
0.61
0.41
0.11
-0.41
-1.23
-2.23
-3.12
-3.52
-3.14
-1.86
0.17
2.57
4.9
6.76
7.94
8.42
8.34
7.87
7.19
6.37
5.47
4.56
3.74
3.13
2.85
2.9
3.16
3.46
3.62
3.58
3.39
3.18
3.07
3.1
3.21
3.3
3.34
3.32
3.34
3.42
3.53
3.54
3.3
2.74
1.91
1.01
0.25
-0.22
-0.41
-0.44
-0.48
-0.67
-0.99
-1.34
-1.53
-1.44
-1.01
-0.37
0.29
0.75
0.87
0.6
0.03
-0.69
-1.35
-1.77
-1.84
-1.57
-1.12
-0.74
-0.67
-1.07
-1.9
-2.98
-4.06
-4.94
-5.58
-6.06
-6.5
-6.92
-7.3
-7.53
-7.53
-7.36
-7.15
-7.12
-7.38
-7.94
-8.67
-9.38
-9.88
-10.05
-9.85
-9.32
-8.56
-7.69
-6.81
-6
-5.26
-4.55
-3.8
-2.91
-1.87
-0.75
0.34
1.26
1.93
2.35
2.61
2.86
3.2
3.65
4.16
4.61
4.94
5.14
5.3
5.54
5.98
6.64
7.5
8.47
9.47
10.38
11.08
11.4
11.15
10.18
8.45
6.11
3.43
0.74
-1.67
-3.57
-4.89
-5.63
-5.88
-5.76
-5.35
-4.75
-4.02
-3.21
-2.4
-1.68
-1.14
-0.84
-0.81
-1.01
-1.39
-1.85
-2.28
-2.56
-2.57
-2.24
-1.57
-0.71
0.15
0.81
1.18
1.33
1.41
1.58
1.89
2.25
2.48
2.47
2.27
2.12
2.39
3.37
5.2
7.75
10.67
13.56
16.01
17.75
18.59
18.43
17.24
15.12
12.36
9.38
6.74
4.85
3.89
3.65
3.66
3.36
2.34
0.47
-2.07
-4.92
-7.69
-10.09
-11.98
-13.31
-14.1
-14.39
-14.24
-13.77
-13.19
-12.69
-12.4
-12.29
-12.13
-11.6
-10.33
-8.13
-5.03
-1.29
2.56
5.91
8.13
8.77
7.7
5.14
1.56
-2.44
-6.29
-9.57
-11.99
-13.4
-13.72
-12.98
-11.37
-9.17
-6.73
-4.27
-1.77
0.96
4.17
7.91
11.95
15.71
18.53
19.89
19.55
17.65
14.61
10.95
7.15
3.6
0.56
-1.8
-3.33
-3.97
-3.76
-2.85
-1.56
-0.25
0.8
1.44
1.69
1.7
1.66
1.69
1.84
2.06
2.29
2.45
2.51
2.45
2.22
1.85
1.37
0.88
0.44
0.12
-0.09
-0.24
-0.39
-0.56
-0.72
-0.87
-0.99
-1.16
-1.44
-1.87
-2.43
-3.02
-3.51
-3.78
-3.8
-3.6
-3.29
-3.05
-3.01
-3.26
-3.79
-4.5
-5.23
-5.85
-6.25
-6.38
-6.24
-5.84
-5.21
-4.42
-3.59
-2.91
-2.49
-2.35
-2.41
-2.44
-2.26
-1.76
-0.94
0.03
0.94
1.54
1.62
1.16
0.29
-0.58
-0.97
-0.4
1.36
4.22
7.76
11.39
14.5
16.71
17.85
17.96
17.17
15.6
13.34
10.54
7.42
4.31
1.52
-0.7
-2.26
-3.23
-3.76
-4.03
-4.12
-4.09
-3.96
-3.77
-3.54
-3.32
-3.12
-2.95
-2.82
-2.75
-2.76
-2.85
-2.99
-3.12
-3.22
-3.28
-3.32
-3.31
-3.2
-2.9
-2.34
-1.53
-0.57
0.36
1.1
1.55
1.7
1.65
1.56
1.53
1.65
1.92
2.29
2.7
3.11
3.46
3.72
3.87
3.87
3.74
3.48
3.09
2.59
1.98
1.29
0.59
-0.05
-0.59
-0.97
-1.17
-1.16
-0.93
-0.53
-0.04
0.38
0.6
0.55
0.25
-0.22
-0.72
-1.13
-1.37
-1.36
-1.1
-0.6
0.01
0.55
0.77
0.5
-0.29
-1.45
-2.74
-3.92
-4.83
-5.41
-5.76
-5.95
-6.06
-6.06
-5.92
-5.6
-5.13
-4.58
-4.09
-3.72
-3.51
-3.4
-3.3
-3.17
-2.99
-2.81
-2.67
-2.55
-2.42
-2.18
-1.78
-1.24
-0.67
-0.29
-0.32
-0.87
-1.86
-2.95
-3.61
-3.3
-1.64
1.42
5.58
10.23
14.65
18.09
19.98
19.98
18.05
14.46
9.76
4.65
-0.18
-4.2
-7.14
-8.98
-9.91
-10.2
-10.09
-9.73
-9.23
-8.69
-8.15
-7.68
-7.27
-6.87
-6.37
-5.71
-4.86
-3.93
-3.06
-2.41
-2.08
-2.05
-2.17
-2.27
-2.16
-1.79
-1.23
-0.65
-0.24
-0.09
-0.2
-0.45
-0.7
-0.85
-0.86
-0.75
-0.51
-0.13
0.45
1.23
2.17
3.16
4.07
4.8
5.29
5.51
5.49
5.26
4.88
4.4
3.88
3.41
3.05
2.86
2.88
3.04
3.24
3.32
3.18
2.79
2.25
1.75
1.5
1.64
2.16
2.89
3.59
3.98
3.89
3.28
2.25
1.03
-0.19
-1.22
-1.96
-2.39
-2.51
-2.37
-2.02
-1.61
-1.31
-1.3
-1.68
-2.37
-3.15
-3.75
-3.98
-3.83
-3.45
-3.12
-3.01
-3.15
-3.4
-3.52
-3.35
-2.87
-2.27
-1.79
-1.68
-1.97
-2.52
-3.03
-3.14
-2.56
-1.1
1.3
4.53
8.37
12.41
16.09
18.8
20.02
19.49
17.27
13.76
9.55
5.25
1.33
-1.95
-4.55
-6.54
-8.08
-9.28
-10.17
-10.76
-11.01
-10.91
-10.51
-9.9
-9.2
-8.45
-7.69
-6.89
-6.06
-5.28
-4.67
-4.31
-4.19
-4.16
-4.03
-3.68
-3.15
-2.63
-2.35
-2.42
-2.76
-3.12
-3.24
-2.95
-2.26
-1.31
-0.27
0.7
1.53
2.17
2.6
2.83
2.89
2.92
3.06
3.43
4.04
4.81
5.58
6.19
6.54
6.58
6.33
5.77
4.96
3.94
2.83
1.8
1
0.52
0.32
0.28
0.22
0.07
-0.14
-0.28
-0.23
0.04
0.44
0.78
0.89
0.7
0.26
-0.31
-0.9
-1.43
-1.87
-2.15
-2.19
-1.94
-1.46
-0.88
-0.4
-0.17
-0.15
-0.17
0.01
0.51
1.26
2.01
2.52
2.68
2.64
2.69
3.11
4.11
5.7
7.76
10.09
12.38
14.28
15.42
15.43
14.14
11.59
8.06
4.02
-0.06
-3.77
-6.88
-9.26
-10.89
-11.8
-12.07
-11.85
-11.31
-10.68
-10.14
-9.77
-9.56
-9.34
-8.94
-8.21
-7.18
-6
-4.92
-4.18
-3.87
-3.95
-4.28
-4.63
-4.84
-4.8
-4.44
-3.75
-2.78
-1.64
-0.5
0.46
1.11
1.43
1.48
1.4
1.33
1.35
1.52
1.85
2.32
2.88
3.46
3.97
4.33
4.52
4.54
4.43
4.21
3.9
3.49
3
2.48
2.04
1.72
1.56
1.52
1.52
1.5
1.44
1.33
1.18
0.98
0.74
0.44
0.08
-0.33
-0.74
-1.13
-1.45
-1.68
-1.87
-2.08
-2.37
-2.73
-3.1
-3.35
-3.41
-3.23
-2.88
-2.46
-2.07
-1.75
-1.48
-1.24
-0.96
-0.63
-0.29
0.04
0.34
0.61
0.85
1.05
1.11
0.93
0.49
-0.1
-0.51
-0.3
0.91
3.21
6.37
9.9
13.21
15.83
17.47
18.04
17.53
15.98
13.53
10.41
6.96
3.6
0.7
-1.5
-2.95
-3.72
-3.99
-3.97
-3.86
-3.84
-3.95
-4.16
-4.32
-4.26
-3.92
-3.37
-2.81
-2.43
-2.33
-2.48
-2.72
-2.91
-2.97
-2.92
-2.85
-2.87
-3.01
-3.2
-3.32
-3.23
-2.84
-2.15
-1.27
-0.37
0.39
0.87
1.05
0.98
0.78
0.61
0.55
0.63
0.8
0.98
1.13
1.26
1.39
1.52
1.63
1.64
1.51
1.26
1.01
0.86
0.85
0.89
0.78
0.36
-0.39
-1.34
-2.33
-3.24
-4.08
-4.9
-5.71
-6.39
-6.69
-6.39
-5.41
-3.89
-2.13
-0.5
0.7
1.34
1.48
1.29
0.94
0.58
0.22
-0.24
-0.91
-1.85
-2.95
-3.98
-4.64
-4.74
-4.22
-3.24
-2.02
-0.76
0.41
1.46
2.37
3.19
3.93
4.6
5.19
5.73
6.23
6.71
7.2
7.65
7.98
8.04
7.73
7.02
6.01
4.93
4
3.35
3.02
2.89
2.84
2.78
2.7
2.59
2.41
2.09
1.51
0.66
-0.34
-1.25
-1.81
-1.88
-1.48
-0.83
-0.22
0.11
0.05
-0.4
-1.13
-2
-2.89
-3.71
-4.4
-4.92
-5.28
-5.54
-5.77
-6.01
-6.24
-6.4
-6.41
-6.22
-5.85
-5.38
-4.86
-4.33
-3.81
-3.31
-2.87
-2.59
-2.52
-2.6
-2.73
-2.7
-2.39
-1.78
-0.95
-0.06
0.79
1.52
2.13
2.64
3
3.17
3.13
2.95
2.72
2.57
2.53
2.53
2.46
2.23
1.84
1.36
0.88
0.47
0.17
-0.04
-0.19
-0.31
-0.43
-0.59
-0.8
-1
-1.09
-0.99
-0.66
-0.24
0.08
0.1
-0.25
-0.88
-1.56
-2.08
-2.35
-2.42
-2.42
-2.43
-2.45
-2.39
-2.13
-1.64
-0.97
-0.3
0.23
0.5
0.51
0.35
0.15
0.07
0.15
0.38
0.69
0.96
1.13
1.18
1.17
1.12
1.07
1.03
1.01
1
1.02
1.03
1.01
0.92
0.75
0.57
0.46
0.54
0.86
1.36
1.9
2.29
2.37
2.05
1.4
0.58
-0.18
-0.69
-0.82
-0.56
-0.01
0.61
1.04
1.08
0.57
-0.43
-1.74
-3.03
-3.96
-4.3
-4.04
-3.32
-2.37
-1.39
-0.47
0.44
1.47
2.77
4.47
6.63
9.23
12.14
15.01
17.34
18.53
18.12
15.96
12.37
8.04
3.82
0.4
-1.89
-3.13
-3.69
-3.96
-4.18
-4.37
-4.45
-4.33
-4.05
-3.78
-3.65
-3.75
-3.98
-4.21
-4.29
-4.19
-4.04
-4
-4.2
-4.68
-5.31
-5.88
-6.18
-6.12
-5.75
-5.27
-4.95
-4.97
-5.37
-6.05
-6.8
-7.42
-7.82
-8.02
-8.15
-8.33
-8.6
-8.9
-9.1
-9.09
-8.8
-8.26
-7.55
-6.78
-6.05
-5.39
-4.72
-3.93
-2.87
-1.49
0.15
1.85
3.33
4.37
4.89
4.96
4.77
4.52
4.33
4.24
4.19
4.11
3.94
3.67
3.33
2.95
2.6
2.33
2.17
2.1
2.1
2.15
2.25
2.39
2.56
2.69
2.74
2.62
2.33
1.91
1.44
1.01
0.67
0.46
0.34
0.3
0.31
0.35
0.39
0.4
0.34
0.19
-0.05
-0.35
-0.61
-0.75
-0.72
-0.5
-0.13
0.31
0.71
1.02
1.21
1.3
1.32
1.27
1.17
0.99
0.76
0.55
0.47
0.6
0.96
1.43
1.83
1.99
1.86
1.53
1.18
0.97
1
1.19
1.4
