1.7105
-2.1462
9.3132
16.09
111.53
120.22
-466.41
9.1846
170.67
22.059
11.951
-5.6931
3.6036
-1.0145
0.46144
-3.2952
4.1357
-1.5694
2.8369
2.9795
-9.252
4.5068
1.1195
3.2836
-0.41592
-12.543
-0.12569
1.2737
1.1671
-24.938
-14.753
115.6
-15.276
-40.754
-34.354
20.544
31.046
-6.5362
-27.407
-17.363
-12.236
5.2168
2.4393
20.879
3.899
-1.5129
-6.1221
0.29986
-31.77
-0.25088
133.37
-20.794
-107
-9.1975
62.251
-22.33
2.5244
-4.5969
1.253
-18.578
11.663
-2.3523
8.2744
-17.051
-0.48848
-45.82
55.444
69.83
-80.597
-10.023
41.988
-8.2722
16.197
7.495
2.1937
-22.729
-35.826
7.5831
16.128
-22.643
-8.8265
31.192
19.825
24.595
-9.3431
-9.9713
-31.232
-45.075
46.968
41.853
-5.2745
-8.1912
-1.2003
-17.645
-1.5266
17.628
8.4276
9.2647
3.148
30.82
56.692
-113.45
-11.149
53.596
-54.997
-26.091
15.906
4.7141
-7.832
4.561
-9.534
12.258
106.9
-88.352
-87.701
113.29
-17.832
-16.58
-9.6663
2.3307
77.077
-64.652
-69.805
151.61
10.289
-99.033
-67.36
-33.485
92.851
109.45
-38.981
-83.556
-80.811
58.913
61.04
-29.24
17.318
0.50057
2.5833
4.8941
-13.472
-8.9465
2.9976
1.6024
-2.1152
-40.078
42.869
10.042
3.6787
-16.397
-4.3347
66.182
18.012
-12.887
-42.394
-44.498
-36.076
24.799
25.472
8.8993
0.057052
4.3603
-6.9245
-16.313
22.518
22.944
-100.95
13.718
37.45
30.154
10.049
-15.562
72.094
88.923
-138.56
-102.2
16.192
82.373
-7.8998
56.202
47.056
-60.626
-122.34
-33.138
116.75
-19.471
-53.781
2.2524
34.178
22.423
-2.3611
85.27
47.358
-111.98
-45.711
-0.67989
-40.82
-43.347
110.81
16.131
-30.151
20.999
5.1105
-3.8809
-4.6155
-10.348
8.7243
1.907
6.3095
10.645
-12.007
-1.8907
-3.9397
14.301
99.377
-17.142
-144.46
16.534
65.422
-49.041
-14.715
-50.67
20.966
14.425
54.116
-17.252
174.87
65.009
-244.32
-3.1802
100.21
-13.114
-101.63
7.8713
-2.7276
9.3901
-9.4358
8.8424
5.5554
-1.0187
16.093
8.8056
54.813
-17.209
-77.272
50.606
7.4559
16.532
-30.11
-32.833
-20.14
-0.088491
18.123
-20.986
19.11
15.365
18.499
14.867
0.76349
-32.829
9.905
9.5486
-4.2211
-22.701
7.3416
-7.2286
-11.462
-7.6469
39.165
-6.3952
-22.291
6.0015
-17.249
24.127
37.94
-5.6179
-19.138
-10.135
10.268
1.6666
-12.767
5.7239
-1.5172
20.95
37.839
-62.125
-73.2
85.626
-6.4863
-5.7323
-5.5706
15.437
-19.109
6.8129
61.964
-13.545
-63.076
-45.807
0.25464
100.68
-19.804
-41.841
-0.39733
15.284
6.8571
19.049
28.54
-20.313
-44.492
60.828
-5.3327
-35.796
-28.886
-46.318
85.596
-30.536
-29.656
44.479
48.808
-38.078
-24.58
20.095
14.172
10.958
84.279
-19.137
-44.369
-56.82
-53.231
19.956
19.27
-15.894
16.838
22.873
-0.8371
14.435
3.6182
47.52
-10.68
-37.217
-12.623
-10.167
-16.454
27.392
1.4841
-59.987
38.116
43.012
-22.988
-15.648
-9.2015
-20.805
0.12149
22.901
2.6923
26.921
8.461
116.75
-34.566
-81.745
5.1742
-17.203
15.378
-80.459
26.147
0.3595
35.396
23.943
-26.666
-10.559
-3.4052
-1.1417
22.758
-18.829
55.36
2.1118
-40.962
-9.5884
2.6785
38.433
-59.624
4.1142
2.4863
16.763
-5.0601
8.6732
-12.934
38.701
-58.502
-3.0012
25.46
28.504
-16.95
18.372
20.046
-68.005
47.979
-42.696
14.038
5.9102
-43.238
24.998
0.7108
-10.266
21.514
38.212
-22.601
-2.6967
-1.8383
16.829
42.082
-19.753
2.7995
-120.64
-57.477
192.38
-50.121
-8.781
2.5339
-11.999
27.071
31.288
-32.042
-87.267
-61.415
122.99
23.465
-64.645
40.833
-0.73407
25.394
-3.1387
-6.6684
3.2217
18.264
25.963
28.165
-28.358
-4.1094
-102.89
-12.636
40.883
-3.7094
3.4687
-30.597
64.879
-7.503
-5.8737
-6.0641
-6.2946
-0.35018
2.1975
10.991
69.732
62.032
-93.625
-49.611
2.2258
12.856
-23.195
8.3166
-36.436
32.304
24.009
2.1807
-1.8584
-10.721
66.247
-0.51037
-69.667
11.905
58.567
-70.124
4.5811
-43.134
16.785
32.364
-5.3618
-39.108
37.7
30.302
-60.813
-7.0197
25.884
1.8696
77.21
21.386
-60.016
-46.783
-33.152
78.674
-54.15
2.643
-0.25017
44.473
64.471
-50.892
-44.841
-28.756
-38.572
43.181
162.41
-57.375
-80.291
-12.825
-21.44
42.743
34.459
-7.4828
-22.677
20.243
8.957
-37.447
-27.505
27.462
7.2862
17.863
-84.47
62.31
61.416
-19.489
18.945
8.7585
-63.208
-39.793
52.21
70.65
41.809
-151.13
-128.71
34.047
41.882
-2.5845
39.83
13.483
23.496
31.396
-15.33
-9.5292
-1.3377
-15.478
-2.3233
-25.68
64.615
136.89
-95.679
-51.526
-1.8541
-0.80827
22.574
-57.266
-6.8965
-25.213
41.376
24.47
-15.569
-2.6934
5.7201
26.376
83.103
9.0929
-42.63
-110.58
-19.023
27.953
8.7074
7.4726
-11.604
-0.53072
58.913
-12.062
-10.758
40.002
-42.48
-9.7885
-33.682
22.018
34.31
-70.226
23.497
31.542
46.053
54.912
-63.281
-45.38
15.692
-97.801
12.896
51.556
14.309
2.3577
-18.781
15.459
5.5687
9.3865
-8.2941
1.1191
16.697
-8.7056
6.8503
35.628
8.8262
9.6962
-14.696
-70.959
8.328
-5.1078
-1.4663
74.605
19.23
-62.407
-102.84
12.6
88.113
-11.269
3.038
-70.368
-53.487
76.919
-14.947
10.834
14.824
-13.937
26.162
55.684
3.8764
-43.891
20.837
-0.99458
-7.0874
-32.176
21.044
-6.0728
26.679
1.8579
-26.109
55.313
83.266
-92.5
-41.602
-59.187
19.268
-13.318
65.408
-12.548
-21.776
64.879
-31.266
-10.811
-12.257
1.7406
4.8379
5.2355
-14.131
6.3342
-0.069792
-1.7721
-0.7213
-14.148
4.5086
7.8765
7.751
15.712
0.74298
-16.975
20.044
-5.541
-11.221
10.145
-21.794
-25.241
30.577
28.782
2.6609
8.1286
-1.0133
-17.065
-12.183
-2.9462
-24.961
-5.0401
31.728
32.519
18.493
-7.012
-29.175
-23.126
6.2653
-1.4088
-25.281
-10.023
12.635
8.3855
29.456
18.606
-19.809
-27.456
10.849
22.034
6.0764
16.383
-8.1902
-11.975
-17.989
1.8937
22.056
15.715
-61.116
10.321
-8.6877
11.799
32.413
1.9605
-47.011
-7.1991
17.377
-26.742
15.109
-22.035
12.686
70.088
-24.9
-49.646
43.743
25.478
-67.337
-46.772
22.876
17.781
33.453
3.5759
-5.1169
17.246
0.34807
-20.505
15.523
22.42
-12.447
-11.546
13.899
-5.9648
-13.512
10.424
-1.8132
-1.1707
9.9829
-11.164
3.2796
5.665
-13.938
5.1507
11.66
-5.244
-16.588
7.6877
9.212
-13.736
1.5618
12.076
-6.0133
-16.454
8.6338
11.786
-14.679
-7.27
18.207
2.7049
-13.128
4.671
-0.37043
-8.1966
12.51
-2.7996
-11.264
15.161
-3.866
-6.4378
8.1564
-11.593
-11.959
16.424
0.95688
1.5552
9.9778
-5.5219
-17.963
16.659
-14.021
-8.2291
18.989
36.275
4.0249
-25.31
11.37
-19.275
-14.466
-10.814
23.204
36.367
-24.909
-18.518
-8.984
24.596
-15.726
-7.429
13.802
-18.698
8.9779
28.863
-22.415
-5.773
-0.74402
-0.7134
20.753
-11.388
-7.7959
14.274
-14.81
-7.6888
24.294
7.0681
-14.349
10.302
1.4747
-19.781
14.121
17.436
-15.591
-11.105
32.153
10.831
-26.026
-6.2364
10.258
-33.461
13.038
18.226
-4.2249
-13.445
-3.5527
-19.08
-0.57154
26.43
4.74
-26.929
-8.8217
10.339
-2.7341
-31.326
16.689
15.061
-7.3306
17.28
17.475
-17.278
-16.391
29.37
9.6881
-22.803
1.5746
7.6109
-8.469
14.249
23.82
1.8567
-30.976
2.7827
12.97
-12.241
-12.379
16.527
0.076861
-15.025
11.847
13.73
-10.194
-15.148
9.797
1.7213
-7.9378
1.4196
15.117
-11.655
-14.403
13.918
8.0708
-11.532
1.1996
16.752
-4.6147
-17.064
17.68
14.323
-14.224
-0.60887
5.2663
-11.652
-18.233
11.132
6.7799
-13.352
7.2088
15.022
-20.522
-7.4672
13.746
1.4896
-20.077
7.9389
11.985
-18.614
-3.495
18.549
-7.0232
11.639
18.026
-1.8318
-11.515
-4.8632
5.572
-15.651
6.5428
31.822
-15.048
-28.007
11.637
-5.915
10.729
12.374
-15.714
-12.619
36.926
-8.1464
-42.155
21.679
21.024
-18.419
0.79212
29.299
-12.312
-19.234
1.7716
-4.8309
1.4061
12.103
-5.7329
-22.325
8.2219
19.688
-18.37
0.3029
24.976
-6.9358
-6.4066
13.714
-2.548
-19.699
9.1405
11.327
-23.318
4.8487
13.799
-12.372
-1.8249
14.65
3.9976
-9.8935
-4.3242
24.179
5.3562
-11.814
-10.205
-6.0678
-8.5348
6.0605
17.409
-4.013
-20.19
6.5307
3.949
-12.35
9.3603
4.5154
-20.391
4.1277
16.734
-11.674
-22.154
24.148
13.537
-18.669
6.0453
10.795
-20.189
1.6809
21.137
1.3704
-22.204
8.2761
18.891
-10.924
-9.2641
16.511
-6.5612
-18.851
15.411
14.569
-5.0257
-17.673
12.031
10.646
-12.824
-10.753
14.067
0.12065
-17.939
5.4917
14.61
-9.2568
-16.977
13.883
5.0346
-14.748
10.564
13.477
-7.0507
-31.454
10.127
31.965
-5.9717
-35.072
18.401
15.113
-8.3207
1.6135
7.5317
-10.859
-4.5613
23.473
-12.207
-5.3423
11.788
5.7183
-5.8171
12.192
3.341
-12.35
-37.385
-2.0422
29.673
0.1092
45.912
-21.056
-16.472
16.331
-40.001
12.839
-11.786
47.006
2.6857
-107.97
49.988
19.055
10.073
3.448
-5.752
-11.104
-12.843
-7.7397
23.814
-0.8308
-16.683
33.928
-16.799
13.499
10.546
-19.815
2.3901
3.743
-3.4227
38.33
-38.576
51.338
36.566
-32.79
-57.262
-125.83
130
-27.642
-123.05
98.818
24.504
26.421
-27.681
-8.0931
16.76
-6.8121
-3.6233
7.541
-4.5749
-15.627
26.178
8.6448
-8.8884
6.0636
11.599
1.0121
1.5028
-1.5573
-3.9911
5.2753
14.489
3.8893
-26.542
2.3861
18.103
-23.25
-2.0362
18.207
-9.0519
-16.372
16.986
21.929
-14.886
-20.809
-4.7297
14.467
-5.0461
0.060519
7.2399
-4.4821
0.99555
11.808
2.3018
4.9239
-3.8117
-35.395
-10.305
24.794
13.399
-7.9384
-1.4135
1.9611
-5.6899
2.0724
4.106
-10.511
-21.299
12.217
10.821
-11.895
19.48
21.298
38.312
19.049
-32.231
-26.246
-27.963
19.637
-34.326
81.821
46.579
-63
-34.053
-7.2036
0.62303
-45.558
-156.43
92.358
160.78
-45.503
-39.841
-30.716
23.347
22.7
25.513
-19.751
47.972
-10.061
-64.607
6.4649
38.054
-18.983
-33.76
65.251
-33.85
68.576
24.938
-163.91
-15.29
17.755
66.713
5.1053
-29.333
48.926
-63.633
-36.893
24.034
90.846
26.427
-6.551
-44.854
-142.75
133.59
79.207
-92.587
-35.624
30.08
-28.962
3.355
76.162
1.9933
21.371
-40.512
-1.2744
119.58
14.672
-68.241
-15.254
25.354
-91.552
113.09
-23.387
-114.57
-41.519
-18.201
23.165
34.58
15.583
75.409
-75.83
-112.32
118.32
22.907
25.499
-62.999
49.26
32.544
-58.265
-41.284
29.501
22.698
11.484
0.17854
-9.3106
3.5316
8.3386
0.81673
-10.527
18.351
-4.1477
-6.6651
19.912
6.3103
-46.679
-24.507
31.461
27.648
3.6299
75.397
-50.763
-52.487
2.583
17.572
12.808
-65.637
29.328
54.647
-24.358
55.06
-82.994
-3.5829
-117.52
71.074
117.02
-51.203
-50.12
51.991
30.897
-60.325
-11.874
-15.62
-66.11
-8.0528
114.42
52.927
-29.513
-19.651
-81.14
-107.82
36.953
155.28
69.567
-1.7417
-55.939
-99.147
50.528
-16.432
22.427
-10.313
-4.5331
60.637
69.06
-30.521
-50.241
-10.123
4.0354
16.662
35.645
-48.697
52.988
64.241
-127.25
-79.623
-21.478
62.684
43.466
30.372
-54.169
0.79068
31.862
7.1953
-72.457
38.827
-5.6966
2.9591
52.5
-105.14
-3.9823
62.966
16.644
13.031
54.211
-51.221
-53.939
-6.5759
90.056
-3.5176
-91.449
107.68
-0.32715
-31.607
-49.037
-47.902
64.165
-22.422
39.3
72.697
-122.94
5.4009
45.905
15.099
-38.509
-94.513
62.221
98.047
-88.537
-48.992
77.512
34.584
42.788
-66.294
-13.185
9.9732
50.913
-39.744
-8.614
-20.565
-0.80218
-3.6335
8.4232
-35.539
42.244
59.823
-49.221
-63.737
71.24
-40.102
-49.021
81.719
37.462
-29.487
4.3178
-70.389
-9.7081
106.74
-18.249
-113.19
63.541
46.514
-75.147
65.393
4.3928
7.3738
-48.623
106.45
-130.01
14.543
-42.997
48.239
12.048
-54.962
83.081
77.628
-106.5
-52.224
49.156
-20.089
11.852
1.3647
35.973
18.598
-1.0712
6.494
-23.173
-86.208
48.837
33.936
72.143
-82.98
-120.24
84.188
58.521
27.705
-50.359
65.67
-33.743
-37.179
-8.1429
21.256
-1.2761
-23.361
-122.22
-70.497
205.48
-8.707
-66.32
94.866
90.623
-72.731
-86.301
64.74
-5.8112
-98.718
16.546
117.6
-50.677
-15.24
19.516
1.0367
-10.852
15.419
68.919
5.9267
-41.003
-37.018
-103.79
146.81
25.275
-100.49
46.736
-74.1
73.238
58.281
-130
3.2948
110.07
58.884
-32.639
-107.96
-24.696
19.214
25.788
43.978
-93.55
78.349
7.0682
-23.345
-29.499
22.459
28.635
21.829
-7.4088
-40.193
-106.22
60.111
33.562
15.976
2.6293
97.706
-31
-90.556
38.968
-108.45
-5.5537
29.163
16.006
104.93
-2.3812
-31.54
-2.4648
-3.8269
-63.871
17.365
74.491
9.3809
-68.894
32.8
20.452
-47.056
21.189
-42.127
-58.007
66.848
56.658
-18.16
-117.5
97.879
-6.1849
50.56
-46.151
12.156
-35.763
-27.063
46.672
-28.746
20.5
4.4508
-7.5197
15.755
12.426
42.572
-86.041
3.5987
105.11
-24.847
-4.8257
-76.589
-76.471
82.358
6.0939
67.664
-48.045
-84.455
102.37
-11.271
11.657
-38.297
31.011
28.665
31.307
-74.385
-132.82
67.514
128.99
-11.6
-70.219
-93.427
100.81
-22.675
-0.89256
12.448
36.225
67.612
-130.01
12.523
23.531
18.563
-27.365
5.5235
27.455
-20.544
32.396
9.4176
3.0716
-27.67
15.613
36.361
-37.609
-34.214
-31.562
-1.2181
44.91
7.2632
-4.0579
-15.915
27.717
-5.3117
54.033
17.094
-38.65
-11.669
-39.004
-47.452
-98.23
75.3
15.779
107.11
-64.314
25.892
0.99844
-15.818
4.5205
5.6438
21.165
-26.429
-1.0317
11.982
41.258
-87.498
21.035
30.38
67.317
66.344
-77.883
-22.457
-28.69
-163.41
85.519
37.028
-22.026
24.447
-0.48945
11.275
-13.844
27.505
-1.5388
-19.604
2.5484
3.2616
-16.833
0.69814
35.511
-12.571
-9.9418
21.483
-7.1659
3.8477
20.369
40.105
-35.792
-7.1123
-9.9408
-0.74893
-13.926
6.9972
19.578
-15.594
-16.949
17.58
3.4945
-15.117
5.1137
-2.2084
10.547
-15.805
87.643
-8.2596
-74.034
15.789
-16.255
0.548
35.331
-65.007
-2.2027
32.029
-2.0268
23.213
-53.124
18.755
51.302
-10.842
-60.639
50.154
0.85251
-4.6896
27.877
-91.927
45.917
-14.259
86.87
-81.773
-67.875
93.079
-55.737
30.752
4.1406
64.291
-82.255
-20.224
42.586
8.9118
-16.881
-1.3673
6.7301
31.538
52.389
-27.392
-68.618
-163.02
81.907
140.77
13.946
-49.297
-1.8616
-36.633
17.169
46.811
5.5503
-24.312
-16.37
32.032
-4.4987
-31.805
33.676
-24.266
-25.088
25.55
-31.223
50.968
-16.339
-11.375
-59.809
45.627
32.154
-0.466
10.874
12.445
22.18
16.085
-11.376
-58.198
-56.06
66.919
-15.149
33.439
19.461
6.9292
-50.623
-54.451
-109.77
121.09
-29.125
-28.366
91.295
44.151
21.414
-62.135
-67.84
39.6
30.011
30.537
111.11
-76.494
-128.49
-27.483
61.806
44.178
-0.29163
-56.64
55.293
112.95
-144.74
6.5858
-3.7547
4.1457
25.209
-37.784
16.569
-6.4536
-0.14223
23.532
-8.0366
-16.427
5.0953
7.994
-2.6604
6.9375
0.80342
6.8325
-8.1011
-4.4101
11.5
4.4533
0.083097
-24.751
37.957
4.7331
-64.049
39.915
-15.098
11.92
-17.153
34.744
-27.387
-4.827
17.182
28.944
18.444
-81.142
52.268
17.19
-39.498
-6.03
-0.18818
-77.14
-32.687
147.52
-78.477
22.902
42.37
26.823
-122.44
-18.598
77.044
13.319
-16.668
38.873
-32.115
-46.608
54.825
12.219
-7.0413
3.2344
19.377
-20.635
21.242
-11.718
34.652
-11.3
-16.565
52.754
-101.47
3.9021
41.188
-9.0282
-8.5016
12.388
30.623
-20.3
13.723
-6.904
-83.272
54.386
38.932
-17.686
-104.84
-100.99
108.69
104.8
-23.154
40.703
-56.923
-18.318
-8.3719
19.984
4.4734
6.5207
-16.129
139.03
4.5557
-173.88
25.55
-21.881
41.944
-7.3783
18.288
-9.9979
12.173
6.8508
83.04
-24.195
-116.7
6.798
68.046
8.5625
-90.767
133.69
41.049
-162.66
-41.088
-24.593
87.979
0.033398
10.855
-4.0448
-1.8447
20.506
-6.2426
-24.252
119.69
-82.176
-60.272
44.749
-23.747
38.193
-9.268
102.08
-9.6421
-202.56
68.288
76.729
-2.5528
-58.306
-66.24
-81.137
88.069
119.62
49.926
-54.904
-165.38
69.84
118.59
116.91
-170.39
-29.887
36.117
-37.537
8.9061
9.9582
17.41
-34.467
99.55
-74.384
6.5257
-41.879
-14.863
37.639
10.82
33.83
47.288
-98.77
-49.63
120.41
-51.6
-32.765
48.721
-1.2968
0.72031
-31.642
20.35
9.9078
45.129
-49.224
-104.31
66.665
-4.6855
4.6309
31.515
-8.0849
-13.324
7.3142
-19.82
53.957
1.6533
-1.2521
-5.018
-64.361
73.278
-9.6094
-2.7494
-10.505
19.336
91.707
-131.38
-39.164
40.357
16.592
34.543
-14.829
-22.173
-7.6671
28.584
-19.356
4.3482
2.0548
-27.905
3.529
9.7181
-0.11617
1.1368
18.299
15.895
-42.659
-41.481
-9.7901
-12.493
87.933
17.446
-8.9464
-35.423
70.313
-6.6752
-88.178
-2.5252
39.911
40.313
31.464
-129.45
59.021
13.779
-27.32
78.032
37.771
-48.96
-111.7
5.6607
7.42
43.622
-20.394
-28.519
95.072
-26.82
-23.345
30.244
13.336
-33.22
-3.8498
3.7452
-8.6692
-22.135
-27.017
-65.021
104.14
18.565
-80.854
-87.96
94.355
86.696
4.9423
-79.303
56.179
-58.101
-27.415
113.56
-16.57
-0.75866
10.943
30.968
-11.496
8.9796
20.147
-3.7972
-42.909
38.45
-8.6015
29.69
-13.474
-8.2206
27.961
-52.546
-25.661
40.724
-14.613
-111.58
63.675
39.655
-108.75
-30.358
146.87
-32.947
32.021
-32.486
21.803
-55.212
25.01
60.21
-139.51
53.028
62.122
-29.579
-18.42
19.378
-10.048
0.94164
8.5266
-8.0651
1.0162
12.208
2.5964
4.202
49.026
-22.049
-36.159
-7.2831
21.694
1.2451
-3.2882
1.0428
-6.4147
-3.4978
13.099
14.633
7.3882
-30.436
19.158
-22.533
0.44817
2.9384
-19.532
-2.7808
5.4472
28.434
-38.336
50.378
30.464
-27.48
-72.899
-17.457
46.416
-2.3003
-20.576
27.956
24.087
-32.499
1.2464
7.645
-4.3295
-0.23239
19.242
-29.134
19.533
10.861
-34.39
25.844
8.2258
14.885
-16.526
29.19
-4.126
-90.28
37.03
29.25
-14.8
37.815
-21.628
-81.151
101.03
-17.327
-35.052
23.259
0.94879
-25.95
-27.906
22.622
4.5227
-6.9205
12.746
12.395
8.1975
25.803
-17.303
-18.121
11.717
53.616
-90.004
-6.8644
31.466
8.7686
-44.64
25.792
2.7656
12.351
16.168
-17.057
-6.6202
5.8015
48.829
-8.5666
-79.291
95.464
66.5
-78.875
-24.236
4.5145
-8.9612
-176.73
-15.958
213.42
-31.407
-53.381
63.35
0.66662
-53.43
5.2937
11.653
-25.687
9.6937
30.619
17.44
-16.154
30.08
35.984
-96.758
40.877
-19.222
-23.221
57.253
16.579
-9.0467
79.476
-115.21
-80.628
89.403
6.6853
14.189
-6.099
1.4443
14.86
-4.2891
-9.4985
2.179
21.977
-7.0656
0.61883
6.7257
-74.84
-13.813
51.762
-28.826
39.008
-26.615
20.891
5.923
-31.949
0.84473
3.3875
2.3237
32.247
-19.544
7.9912
25.492
-65.917
25.063
58.889
-77.235
-17.742
38.975
-13.936
36.148
38.225
-22.082
-31.223
-87.927
64.439
37.995
27.409
1.1913
-120.42
43.893
23.176
25.512
5.7914
-32.125
-3.9528
-19.826
34.82
-14.357
0.48928
-19.168
32.589
-20.555
1.7241
43.43
-45.032
38.663
-44.087
6.1777
47.069
-72.769
74.329
-39.947
-9.6739
-14.944
30.526
-2.3538
-15.265
12.129
14.826
-31.612
65.644
-2.9459
-44.911
-38.205
40.646
14.802
-17.748
9.8498
41.188
4.0013
-39.871
8.9059
-11.888
-7.6752
14.754
71.248
-73.287
-61.048
-31.482
-7.5501
79.153
-20.348
51.055
-43.26
80.796
-37.762
-122.07
55.506
70.088
-105.7
25.478
102.04
14.587
-68.556
81.289
-97.646
29.614
14.433
-21.556
30.605
-23.557
30.2
30.081
-147.5
9.4288
55.447
10.818
25.454
32.404
-31.812
10.583
-38.615
7.0656
-15.585
11.494
41.063
-51.574
56.11
50.706
-62.121
-79.926
-32.692
92.221
12.029
9.5907
30.668
-147.11
78.56
6.2313
-93.909
75.03
-24.561
-13.063
54.134
18.19
25.996
35.873
-40.875
-11.964
-113.39
54.296
28.058
-2.9358
-12.895
31.71
-7.9306
-33.692
58.374
-3.8363
-12.486
15.969
4.2703
-8.9809
6.1149
66.028
-56.935
-73.699
61.861
29.908
-67.06
-38.567
84.439
-10.113
-57.511
25.118
66.644
-10.782
-73.933
-14.906
39.703
23.615
-40.828
-31.376
16.666
94.021
-17.527
-76.275
39.343
-24.029
10.358
12.927
15.784
-62.911
89.216
-10.397
-42.707
-97.12
-27.727
159.49
-10.468
62.806
-124.53
-38.258
100.17
-12.766
3.9229
-14.748
5.8444
16.366
-13.152
-31.186
31.438
-6.9625
-6.8483
22.773
19.106
12.542
-66.338
61.454
-7.2551
47.967
-14.654
-30.414
38.505
-153.7
66.993
4.9379
-5.8962
20.6
-10.89
1.3436
12.922
-1.3181
-27.852
-3.4218
10.139
-8.1547
-7.0512
20.627
5.1745
-13.201
41.538
-4.223
-15.428
33.128
-20.546
-17.714
12.322
29.423
2.8732
-111.11
58.938
24.928
58.384
9.8023
-99.802
-32.029
15.733
56.616
-29.607
13.008
-50.11
27.547
53.191
-26.749
30.518
-4.196
-9.029
-32.377
-37.912
1.3623
21.973
66.589
6.5503
-136.57
64.004
-17.553
1.7128
18.865
-6.4102
4.4777
-13.028
3.6642
3.1075
12.34
6.028
20.462
-38.396
20.046
9.0802
71.945
-26.678
-155.95
61.019
78.909
-8.7719
58.388
-55.987
-18.373
-75.554
-69.625
134.78
-5.6376
9.5246
6.1395
-6.0642
-11.133
-17.331
29.046
-36.257
16.939
-15.262
14.386
-9.5182
14.496
20.69
-2.8211
0.99674
5.186
5.8603
-7.2914
0.57804
-19.148
11.485
23.898
-2.4355
-43.091
18.135
30.853
-2.3651
-18.852
-13.816
12.972
5.3698
-14.457
-9.1433
26.196
3.0898
-20.305
41.113
-43.368
-12.825
6.7648
-3.3435
4.5461
-6.8175
1.6436
0.73014
39.853
-12.136
-37.243
22.637
-16.403
-0.52503
4.6728
14.98
8.2606
-11.556
5.2129
9.7409
46.304
-50.586
-101.64
70.759
-6.0047
6.8695
10.202
-3.2368
-11.908
19.734
-24.467
1.7966
44.577
49.76
-24.423
6.2072
-22.373
-15.028
-143.93
-70.299
194.7
22.123
-93.432
113.41
-49.665
-4.3089
86.639
-2.5827
-32.86
3.1141
-61.053
12.757
-18.074
6.5982
-12.737
8.8506
13.745
3.2263
-1.405
58.139
-27.127
12.324
-11.988
-67.745
51.408
-24.581
32.725
-21.472
19.194
1.399
-11.913
-15.938
10.831
12.787
-2.7562
14.841
75.064
-56.453
-45.627
-103.72
64.67
69.19
-17.973
2.1853
46.663
-86.96
-5.1667
37.919
-9.3911
14.187
-27.412
-2.0255
11.974
19.547
1.7529
2.731
-3.3473
-23.565
15.601
17.129
-0.068115
10.692
-42.379
12.742
26.051
27.901
-8.039
-72.8
-70.146
62.541
61.886
105.23
-37.63
-122.3
-54.031
6.2083
30.96
58.261
-0.46086
-27.988
-11.621
20.031
34.778
-21.785
-6.6581
-20.298
-7.4594
25.37
5.6824
-34.637
16.268
22.941
-16.562
6.0605
2.7432
-0.23137
9.9593
8.7255
-20.411
-10.961
17.04
-10.756
15.792
-2.8552
5.5435
4.507
-25.591
23.507
-12.353
-1.3907
41.62
42.827
-67.244
18.407
-49.184
-11.356
18.17
2.3607
0.86604
19.61
2.6292
-13.526
30.416
-23.726
-27.715
1.359
-15.505
-17.125
-26.426
96.016
-13.078
8.6345
-21.615
-15.621
6.4524
0.59227
4.8723
0.47593
-2.0911
17.804
14.691
-8.5292
-2.0036
-15.503
8.6937
21.485
10.301
2.5406
-23.286
-17.34
17.016
-15.09
-15.213
4.1893
-8.1361
-1.5579
9.0208
-41.753
-13.049
84.142
0.38797
-13.821
-22.078
-11.021
10.116
21.042
-13.464
-8.7645
19.887
-1.3729
15.003
-8.6792
-12.046
-4.0545
8.0763
4.1559
-11.097
13.563
-7.2538
-9.2591
13.324
4.6394
-22.279
8.4444
16.63
101.96
0.13009
-88.581
-37.581
-35.946
66.419
-11
11.349
-31.678
-4.999
-37.539
52.349
-4.1755
4.4573
-0.84283
-6.1345
59.96
17.763
-146.87
61.107
142.96
-149.45
-23.801
16.339
15.74
32.84
-12.148
-11.157
-13.285
11.323
112.31
5.1998
-129.09
-33.636
-21.134
86.515
-16.805
-18.212
47.901
16.031
-18.453
-161.34
128.65
38.45
3.5026
-8.9593
-39.237
75.962
0.40476
18.828
-62.682
-34.294
4.0858
-31.676
17.604
6.5259
0.95332
26.823
23.906
13.996
-51.306
29.558
3.2446
-16.944
-3.1299
5.1166
17.181
-19.976
10.32
-0.96783
42.317
-54.449
22.379
-44.491
-1.7588
-30.016
-22.889
59.463
59.12
-39.441
-23.287
44.585
-16.87
7.6857
-12.041
-9.8749
-10.66
-14.3
-2.7182
22.323
7.6588
-7.4542
9.4484
-3.2671
-4.8899
-3.9955
14.208
12.012
36.5
-12.17
-30.57
-144.73
69.146
48.771
26.347
-14.69
-11.361
0.89128
4.5031
-0.97227
21.259
8.6277
-11.394
-11.747
13.337
-22.321
34.173
-8.7043
0.20946
22.063
-32.183
-22.136
26.474
-5.3198
24.975
-0.81793
-7.0997
-5.7318
28.024
11.753
-31.68
-5.7204
17.84
-11.249
-9.2851
-20.729
34.797
9.9514
-8.6549
-4.3061
91.606
43.24
-145.17
-45.237
-59.284
27.684
35.182
30.5
9.7856
44.483
-86.369
-3.9497
10.486
-13.869
33.399
20.363
1.0552
5.0364
-4.7937
-2.118
-5.0791
-10.403
-3.3872
-3.4878
-7.2916
-27.607
31.221
4.012
-43.357
20.036
24.489
16.131
3.3477
10.541
2.4805
-1.6478
-3.7622
-9.2954
4.1269
7.5549
8.1655
23.227
18.37
-34.405
-25.233
-11.302
-1.9554
8.21
-10.16
-2.0142
11.396
-7.8482
-23.965
-17.59
43.428
-0.69586
-2.6751
-14.708
-40.472
-14.409
13.597
-9.2435
-45.625
85.386
45.645
19.304
-17.07
-5.0431
-1.0136
18.76
1.6377
-27.46
-5.7799
-9.5134
-3.5825
0.58609
61.905
73.917
-36.101
-88.378
-32.43
-48.121
47.962
6.3482
31.632
124.13
-14.442
-63.565
-76.661
-46.238
-5.2516
29.734
19.314
28.135
6.1828
-5.7842
3.9443
0.79929
-1.1004
12.601
-3.7578
23.831
-11.912
31.449
6.9818
-65.604
13.35
-20.144
16.214
-28.463
-41.056
53.329
47.492
-31.517
-16.179
19.646
68.622
-150.92
9.192
48.964
10.783
28.204
-5.7309
-3.6647
11.56
29.493
32.388
18.472
-121.13
-2.2261
19.456
-38.695
-49.837
-74.61
51.357
92.976
84.068
3.3207
-90.739
-120.14
40.871
165.28
22.099
2.9411
-118.68
19.679
116.35
-122.14
-65.475
-33.512
215.27
45.126
-159.22
-146.48
79.999
90.114
39.479
-15.798
16.278
-44.847
-140.98
12.947
93.978
54.926
-69.159
192.32
-112.56
-51.158
198.83
-272.66
13.03
49.427
-38.822
-28.451
49.725
-1.6983
28.63
19.21
-4.4004
-7.4765
-6.5421
5.2225
6.8845
-27.922
30.854
20.327
-11.681
7.3268
9.2954
-4.2053
-9.0392
13.038
2.8754
-14.884
-11.025
0.06529
-4.908
17.791
4.8985
10.189
-2.8365
16.284
-24.971
-8.1176
25.375
-24.198
3.608
21.698
-10.438
-17.127
12.937
-14.915
-17.403
40.004
106.13
-48.375
-53.45
3.1901
-15.207
-79.243
-0.67065
-14.256
-104.92
146.65
31.378
-10.957
-8.2237
15.455
-6.8625
0.30215
9.2201
8.4931
-8.3706
-11.487
15.437
9.678
-6.4225
26.433
-2.7728
26.691
-12.63
55.287
10.299
-252.92
44.461
82.26
-10.264
9.2003
17.871
-1.2848
-17.271
3.7772
-0.34085
-10.917
14.451
9.7539
-11.531
13.422
19.393
5.635
-20.362
-14.252
23.941
10.779
-8.0087
3.6115
11.215
0.50308
-17.246
-0.78396
-5.2762
-7.8197
-6.38
-1.8565
0.98588
-2.0348
5.9525
11.607
9.1098
-2.4945
-19.468
4.716
16.669
-11.264
-18.863
12.247
9.116
-3.9708
-1.7638
11.598
3.8214
-21.771
-24.839
27.697
13.35
0.28704
-13.87
4.6557
-5.8355
-22.11
-11.132
3.3845
51.253
28.396
-27.543
16.739
-33.228
-21.731
-92.828
23.04
114.21
-95.733
49.965
92.647
-124.05
40.682
74.728
-9.136
-123.35
71.149
-13.211
-19.781
-9.6425
34.052
-8.1356
-13.08
10.828
-28.308
6.2704
34.198
15.115
6.3004
-17.884
46.318
-43.819
-13.724
10.52
38.11
82.06
-125.7
-11.875
37.556
37.726
34.568
-133.93
-6.418
33.651
-40.028
70.227
-65.021
1.8147
85.795
-36.422
-32.094
23.074
46.279
-39.146
-73.809
62.435
14.265
22.715
-17.694
9.6593
37.888
-11.67
23.891
-135.41
-46.54
94.732
22.344
2.4596
8.9659
8.1137
-5.992
-0.22546
-105.23
15.311
80.294
13.78
-78.233
95.979
-25.296
-94.634
80.025
14.535
-4.8375
-45.367
15.552
-1.4373
14.005
22.328
5.8263
-15.175
-13.272
16.297
3.3258
-17.695
3.6538
18.103
-3.8892
-0.90434
0.88649
4.9283
11.952
9.7223
3.916
-28.938
-25.843
17.599
20.939
-5.3651
-1.7806
-0.80175
-11.89
10.896
21.913
-15.167
-43.147
-0.59771
19.571
12.41
23.17
26.128
-60.929
-35.921
-20.363
31.403
10.181
9.4121
8.3787
29.887
19.358
19.623
-54.021
-83.008
63.363
-60.376
123.61
26.366
-47.193
-123.98
23.575
91.477
-46.793
29.638
-43.72
-1.1551
32.806
56.503
-100.53
-30.141
3.2687
38.159
8.3403
-1.0384
11.223
-5.5085
7.4
-27.319
1.5141
15.779
37.996
19.04
-77.612
-13.077
68.941
51.799
-81.559
-20.499
34.386
-26.276
-24.913
1.5429
32.999
22.617
1.2217
-25.396
12.03
19.233
-18.866
57.571
-35.159
51.584
-26.525
-77.077
51.907
-52.071
32.654
-41.63
7.7216
-0.86941
-8.9059
30.801
19.512
6.6535
-34.225
1.6481
12.016
17.502
1.8363
-14.887
0.95808
15.334
-3.7417
2.1379
33.488
13.325
-18.276
-59.035
27.68
-0.88768
-3.0047
21.415
-18.259
26.71
-9.5563
-8.7432
-0.2754
15.064
27.558
-10.953
-29.441
-22.004
54.523
-64.353
-19.033
14.273
34.689
-35.224
2.1571
38.279
-39.126
17.384
5.6647
-10.081
-6.8908
-3.558
16.665
46.063
-74.469
13.144
9.771
-19.948
16.481
-9.9762
13.879
35.052
-29.214
59.623
-47.348
0.27276
21.05
-88.961
76.974
-18.252
51.524
-45.668
-56.45
44.91
-23.274
25.458
-11.682
-28.341
45.617
16.307
-38.746
5.2621
6.1956
2.5673
-10.658
6.7438
27.981
21.069
-115.14
52.661
63.749
-94.394
31.023
31.801
-30.114
-3.2786
18.385
114.05
-126.23
36.448
-57.144
-58.918
56.298
1.5453
46.396
4.5924
-25.241
-6.596
-8.3858
-7.9256
52.771
51.286
3.9473
-45.573
-14.487
4.3437
-41.274
26.101
10.803
-6.8107
-21.718
57.629
-0.9806
-38.577
-27.368
38.289
19.392
-39.277
14.965
-7.7298
-8.1699
-15.355
55.55
-52.481
-27.011
35.477
14.317
2.9392
-12.997
28.48
-9.7841
-62.218
45.538
-1.8746
-19.215
29.338
11.493
2.8169
-4.3879
-24.405
-9.3846
13.79
-1.2199
-6.3467
-0.72405
13.207
1.9775
-8.6643
1.4115
1.2761
20.765
-7.6572
39.195
-43.378
-19.997
10.644
51.611
-33.328
38.529
7.8656
-137.51
38.432
10.4
23.577
9.4614
-5.482
25.276
-16.04
0.030146
7.9323
22.208
21.448
-116.86
97.839
-16.16
-122.35
61.674
9.7368
50.93
-22.549
-44.043
11.503
44.979
2.1364
-101.91
68.093
5.1724
14.2
1.7401
-33.44
-30.489
47.719
-24.301
12.35
-0.28968
54.613
10.476
52.082
-67.884
-13.299
-48.457
21.305
7.3058
4.3081
18.367
8.9904
-42.051
20.431
2.9283
-11.224
-0.5184
23.444
-4.8561
-14.604
19.632
-7.2741
4.6076
-0.10943
-58.969
24.436
51.847
-4.1583
-48.714
33.639
-13.06
38.137
-23.239
-19.218
-57.266
-4.1889
133.57
-72.02
35.858
12.642
-25.071
-69.655
92.857
22.633
-122.99
-61.693
120.52
-8.055
17.871
-26.157
43.221
58.72
-118.14
-33.212
41.626
-18.661
11.267
11.275
30.628
-13.891
-8.9504
-28.93
16.041
18.458
-9.0775
-0.66555
28.402
6.4665
-12.622
0.46405
12.866
1.7305
-6.1714
-1.9316
-11.677
-19.96
10.163
15.28
9.901
-10.299
-7.3135
14.419
-6.2917
-2.4287
11.18
3.716
-18.199
-3.2279
16.227
2.9327
-17.394
-7.7083
13.469
-2.6278
-5.3223
17.094
4.609
-15.938
0.70274
14.433
9.6934
-10.212
-9.7744
12.435
3.1655
-17.556
-4.6332
6.79
9.0196
-14.151
2.551
17.005
-5.3285
-20.031
5.8502
8.3404
-27.224
18.498
22.399
-2.7166
-27.382
2.4918
18.2
12.624
-23.051
-5.6524
7.3346
-16.804
-5.8544
9.2088
13.75
4.4246
-25.7
4.0624
18.272
-9.8452
-13.111
19.614
7.375
-21.216
21.541
4.5705
-5.4044
-23.511
0.21324
12.887
-14.774
10.474
10.1
15.922
-24.061
-26.799
10.059
27.505
-2.6374
-12.082
7.5377
8.7467
-9.0405
-10.11
12.002
12.854
1.1038
-21.751
-0.78377
12.993
-7.9109
-5.8111
12.258
5.1716
-8.7491
-19.138
8.7382
7.4227
-7.8711
-26.267
-6.7347
26.821
-1.6839
-6.4549
24.151
-2.7936
-7.795
3.7669
30.607
-25.404
-6.6896
0.37015
-4.8027
-6.4597
8.4486
24.771
-0.83889
-2.9727
-17.155
7.5375
21.397
-20.128
-5.4385
30.359
19.223
-59.75
30.782
10.288
-16.179
-6.9729
-4.2395
26.075
-56.311
-15.397
13.877
45.154
34.194
-54.924
-10.906
19.627
-2.7022
-37.781
10.925
46.603
-87.541
-34.89
88.289
-31.431
-35.95
74.667
14.889
18.748
34.986
102.31
-102.62
-57.845
32.399
1.5582
-5.8587
-102.84
64.805
-15.17
69.975
-5.0145
-39.454
-39.596
-6.1439
40.773
-20.522
47.709
22.937
-98.349
9.4659
17.222
-12.412
-32.163
19.822
14.611
4.1713
21.836
31.824
-17.293
-14.606
3.759
-8.2548
7.8224
31.687
0.32785
14.585
48.602
-35.651
1.0837
74.037
-158.38
-99.027
175.31
-30.573
-51.005
36.07
-74.993
73.567
38.721
-94.967
1.1555
133.23
-80.403
-205.77
131.4
-29.025
89.259
-24.056
17.699
86.622
15.161
-86.399
-38.251
41.489
4.8994
-9.7006
49.816
-62.351
4.7053
169.75
-111.74
-93.311
52.727
-7.7276
100.61
-64.573
21.931
-18.747
-23.175
-67.176
-22.973
-1.2327
-41.266
101.82
14.253
-20.696
39.914
43.883
-127.31
70.63
-29.332
-44
44.669
19.297
-21.03
28.709
50.902
121.21
-20.301
-167.57
-0.56789
92.385
1.6677
-113.53
30.187
-33.676
60.52
-49.775
22.212
37.945
-42.733
-5.4334
26.847
-0.070133
-19.318
14.778
-1.1186
-22.31
-15.652
54.118
47.22
-14.431
-89.242
-15.142
83.729
22.186
-27.815
-47.975
16.957
-30.06
5.1081
20.078
11.686
-21.862
7.7865
3.5409
15.495
14.279
93.192
-115.29
-65.858
31.394
-11.097
41.784
5.3524
26.319
-84.275
13.217
21.54
-28.851
65.867
-13.565
-14.433
15.655
11.968
-15.448
-12.426
16.045
2.6012
-5.9867
12.734
15.176
-13.937
-30.491
19.873
17.215
1.3171
-5.1313
-16.738
14.963
-29.226
30.764
-6.4216
-5.2818
5.5469
13.676
59.924
-82.02
-60.702
68.787
-14.597
0.77444
-34.407
21.311
12.323
-5.1381
-7.6459
20.611
-20.204
20.027
7.5157
-10.8
-7.4446
1.7226
19.368
-35.033
-13.586
19.354
13.295
-9.8756
5.4131
46.277
-2.4934
26.23
-3.4473
13.022
-6.3611
-39.667
-17.38
-24.461
29.996
-0.29012
-9.6573
-9.3861
-20.511
-20.635
19.047
-24.968
28.525
4.3939
-7.7834
-11.58
25.772
4.3672
10.027
-6.7659
57.247
-89.953
-11.841
65.185
-23.881
-8.7097
-24.275
25.978
9.5682
27.351
-2.814
5.6677
-50.559
37.649
-16.691
-14.634
32.284
12.27
-33.211
99.75
-64.77
57.809
-81.65
-147.49
109.43
32.299
-8.5911
-25.494
20.289
47.254
15.063
-54.192
11.076
-34.037
86.656
-31.379
-86.415
-3.5416
49.227
18.198
21.516
-20.872
-16.231
27.564
18.476
-47.321
20.345
-9.8402
77.203
-38.914
-65.548
112.63
-45.355
-61.348
-80.06
99.278
4.844
0.33031
-18.331
5.1947
20.241
13.013
-7.6899
-15.491
-4.4912
6.0925
8.9061
-5.6495
-3.5838
7.7485
1.6947
-1.6585
-14.092
3.3109
1.012
-2.1277
-18.582
-6.7783
3.5592
19.881
-2.0706
-1.1677
12.825
-1.5258
-10.762
-8.6033
-0.26491
18.864
-2.1372
-2.966
4.6765
5.242
-6.9503
-16.712
35.616
18.82
-24.762
-21.2
14.779
6.4307
-12.515
-3.9848
-1.0217
-7.3105
16.848
32.376
-2.1615
-28.945
9.1324
16.943
-12.506
-20.87
0.95464
20.013
4.5909
-24.806
0.35694
14.115
-2.3793
-11.877
-2.0478
13.651
7.6381
-5.3608
1.9868
11.622
-7.0057
-25.576
15.315
16.028
-23.666
8.3901
17.212
-8.0908
-21.064
-12.477
10.231
7.0543
-5.56
-1.1736
7.3547
4.8115
-6.1332
-10.234
9.1268
-7.1862
0.16202
19.388
2.2201
-10.215
-21.118
12.311
12.468
0.7591
-11.944
-5.6431
4.7895
-8.0602
-4.4892
22.573
9.7698
-19.02
-4.2014
24.3
5.234
-10.636
-12.494
62.142
-13.142
-37.346
22.787
10.763
-19.797
-1.9567
6.3007
-24.038
-9.6157
-6.0379
-3.4426
5.2821
16.704
7.1896
-11.612
-19.126
12.477
9.3288
0.97096
-21.698
-22.787
-1.1087
-39.108
37.372
4.4706
-1.0214
13.197
11.809
7.1407
6.8839
2.175
-13.423
-2.2258
-7.9289
22.454
27.536
-14.883
-4.9871
19.985
-19.021
-13.779
20.41
-17.997
17.886
-3.6934
68.15
-65.783
15.184
-19.399
-10.24
1.2019
31.677
-72.353
35.779
46.118
-58.919
44.227
-104.43
124.58
16.889
-89.091
-72.879
41.71
43.881
-33.684
24.817
16.554
-9.3999
1.3519
27.733
8.2372
64.159
-74.176
11.284
44.8
-33.658
22.876
-70.408
-71.048
52.814
27.826
3.1224
-36.421
-18.814
40.197
5.705
6.9289
-23.099
51.685
3.4263
-3.7315
34.295
-4.1524
-76.055
-92.172
7.8714
133.2
-48.305
-35.224
112.55
-108.64
-15.567
17.56
11.761
43.464
26.4
-37.831
-6.1654
-1.9707
3.2585
9.9527
26.303
6.3187
-13.178
-2.5741
4.4632
21.771
-51.276
25.384
-19.496
20.241
4.9134
-23.924
9.9216
0.94507
-32.022
12.169
-9.6079
-4.3178
16.112
-15.967
-0.49742
2.9434
0.21961
56.523
25.661
-58.286
-10.998
25.353
4.4944
-0.67751
-11.034
32.761
53.484
-5.9201
-107.5
34.583
1.6123
-31.343
-3.0631
-18.547
33.18
-0.9229
45.607
-54.365
-52.263
29.117
-15.915
11.198
19.538
11.769
36.808
-62.79
30.956
25.407
-41.923
27.246
-25.467
-37.402
33.323
2.325
43.259
88.021
-66.862
-121.1
62.521
10.641
-1.4559
-93.651
22.052
78.128
60.62
88.952
-151.65
-112.78
57.212
145.74
24.289
-105.52
-61.313
-40.304
-3.9361
177.75
-6.3881
-230.91
51.965
85.64
63.588
110.86
-175.76
12.801
-6.6701
-26.835
60.554
-24.255
19.65
-3.0394
37.788
-63.608
-77.247
144.59
62.298
-91.208
-54.486
-3.2994
79.195
-76.157
-19.848
73.083
-36.046
-24.99
-8.815
23.772
23.657
0.032916
2.5146
-26.161
23.861
19.111
11.324
-28.085
-13.812
2.3642
1.9651
-12.423
-2.4025
-4.1079
-17.991
17.321
20.828
8.3174
-10.647
16.113
13.621
-9.0116
-14.73
-5.6293
9.303
-18.098
6.8153
41.056
-10.082
-18.338
-14.547
16.824
17.239
-5.6618
-28.772
6.5177
17.284
-1.1764
-14.264
9.6427
6.0438
5.7761
-11.211
-8.3044
7.3388
-4.6078
6.6407
-0.53329
5.4747
4.1687
-25.852
3.7681
29.941
-11.031
-27.737
-5.9229
6.7451
-1.1405
1.2623
5.3514
19.855
-3.493
-32.828
4.1705
8.5409
-7.7796
11.191
18.708
-1.9924
-25.831
5.9476
21.542
4.2407
-14.849
-11.19
7.1703
2.4715
2.5496
1.1604
23.069
-26.473
-13.945
9.7962
8.8471
-13.115
-18.851
17.871
10.738
-15.247
1.7238
17.193
14.436
-14.45
-12.462
17.941
8.6243
-9.6738
-11.023
22.707
2.0416
-9.5606
25.956
-20.846
-21.079
7.7178
-22.612
-18.168
-8.389
31.537
7.359
-28.175
36.175
60.727
28.689
-127.41
-51.8
105.56
2.2242
-1.1611
24.685
-46.61
-12.392
-64.27
-55.124
112.96
42.445
-5.7855
-40.524
7.9141
-16.838
27.211
-3.9809
11.074
-13.429
28.396
18.837
-48.171
-1.7992
-9.9865
3.0551
85.273
-28.493
-58.09
-12.996
12.289
34.221
2.6894
9.8461
14.533
4.8446
22.437
-9.8024
-20.219
15.7
1.8768
-38.147
-19.465
-8.7077
81.778
88.65
-53.064
-21.286
-31.337
-21.442
-15.946
-58.748
-19.013
27.045
45.466
-30.986
-35.235
-48.757
-199.55
-36.487
254.97
33.535
47.754
-27.072
3.8002
26.38
34.726
109.58
-28.353
-206.24
11.159
230.22
-97.36
-60.466
-13.613
-130.27
88.011
61.468
25.562
-2.3794
-20.493
15.473
18.907
-22.427
9.5946
-4.4969
-43.633
32.86
-3.89
8.3711
-12.506
32.311
-17.245
3.1012
6.163
3.1126
-64.614
50.91
-33.955
-11.528
22.297
-31.366
-11.141
30.629
14.117
14.274
-7.4856
-29.227
49.246
32.029
-11.698
-37.586
15.552
13.129
16.923
-5.8979
-1.65
-14.707
1.8608
-30.058
6.9476
14.188
7.1221
17.672
-44.025
-3.944
11.952
-7.9802
25.162
-34.13
-7.2046
-17.745
3.7363
-5.7828
13.912
39.349
4.8032
-9.2784
6.1049
74.735
-11.668
-150.46
28.594
13.645
-11.393
25.982
45.717
59.883
-48.195
33.972
-180.23
47.14
83.619
-44.74
-39.725
51.279
32.421
-21.412
7.553
-57.794
3.2308
-21.576
7.1458
68.192
14.527
-5.1842
-27.48
57.211
-17.432
-22.877
9.9814
-32.118
-4.0738
18.179
60.845
-17.278
-34.758
37.829
-35.834
-18.72
7.2599
-18.298
70.6
-67.917
-30.537
21.211
-49.663
102.09
-58.279
14.337
65.467
-8.4599
-70.437
18.167
39.245
8.9583
-41.261
22.458
-61.274
20.842
61.653
-55.262
5.6319
-32.413
39.42
32.664
-49.911
26.63
-33.312
55.902
-32.06
1.9342
-4.4279
4.8556
-11.399
-6.0587
10.25
22.946
3.8492
59.718
-119.29
-4.9498
91.626
15.11
-119.46
-6.2573
99.936
-45.462
41.256
-55.188
2.2257
32.193
4.0575
16.966
-57.417
13.024
-38.925
84.295
-38.332
17.929
-22.941
5.8507
-33.373
10.649
47.922
-23.515
-10.4
-1.267
-7.3955
21.351
13.559
-9.3738
69.128
6.429
-10.819
-1.3113
-92.821
-113.61
114.5
89.834
-4.5367
22.037
-193.17
-30.968
92.801
39.032
43.594
-13.064
-63.384
-47.885
28.3
60.145
-13.877
44.695
-10.891
27.972
15.79
-27.398
-12.91
62.219
-16.691
-167.43
25.45
45.264
41.081
-0.6201
-29.092
-3.2618
12.893
-2.8493
-3.7114
24.621
13.348
-1.9613
-22.421
-5.6916
22.98
15.084
-29.218
-9.052
10.703
-1.607
-5.9614
8.5039
7.1052
8.1878
-2.8176
-34.782
20.479
11.781
2.9461
-16.562
-16.001
12.942
-10.408
36.635
-9.7994
-42.366
0.78686
39.801
-24.376
-13.171
35.528
-0.62384
-18.162
4.9586
15.946
18.717
-22.284
-23.624
25.735
-4.4759
-9.8137
7.4026
-5.3182
7.8145
5.9066
-6.8491
3.9697
11.964
-34.076
7.4253
12.399
11.02
-17.755
2.944
2.2836
-17.725
28.598
-0.46789
-12.37
1.312
-6.0275
-12.113
13.378
1.4652
-10.688
12.374
7.9145
-8.901
7.6706
2.3176
9.593
13.438
-20.748
-8.7963
-2.4135
8.8251
10.576
-12.356
29.088
-12.861
-3.5853
-23.915
-3.7684
13.826
2.1655
1.0365
2.8376
-9.3726
-10.765
4.351
-14.693
-5.7602
-4.8328
-6.1467
1.0786
16.512
13.5
63.479
-105.46
-2.5481
35.161
-23.886
22.03
-39.503
-0.73907
2.0258
45.044
29.062
0.67295
23.984
33.85
80.46
-157.55
-120.82
67.098
-32.561
7.9864
9.269
37.632
41.768
-11.379
3.5554
-18.292
30.605
-22.356
-34.29
11.715
17.552
-2.1352
-11.06
7.3988
9.4739
-19.125
-11.058
51.489
-13.919
-18.879
8.5175
8.0362
-16.964
-8.2578
37.268
20.205
-13.97
-19.159
11.673
-5.9072
-8.9698
20.606
3.2676
2.7693
8.0335
15.23
-15.291
-26.163
-6.7808
5.0434
9.3025
6.3994
79.918
-42.113
-50.469
8.1776
16.563
-33.152
-16.601
42.659
68.826
-31.46
-62.772
31.948
-37.112
-41.798
-53.665
19.815
78.181
-40.568
11.288
3.6033
-13.127
-10.403
8.7289
-4.499
28.203
29.278
9.3647
-16.292
-1.2692
12.427
-10.419
3.5457
14.257
-13.161
15.287
9.5455
3.2729
-11.338
-4.7872
-2.5541
-28.178
4.3076
2.4527
-0.11032
21.593
69.556
-76.781
-4.7819
57.854
-51.619
-17.236
-12.53
-5.3964
72.759
-71.86
-217.85
164.96
127.61
10.227
-46.893
-16.177
-3.6283
62.046
-138.8
12.717
47.406
-29.57
88.42
38.805
117.28
-157.81
-312.68
210.19
72.861
-11.973
-67.993
73.109
34.081
23.632
-112.36
37.475
0.093764
32.089
53.333
-32.839
-35.196
-29.365
4.9181
-35.71
-16.363
26.975
32.287
27.943
-15.521
20.101
48.931
60.761
-47.667
-39.499
-53.484
-32.94
66.208
-5.9943
-81.274
11.448
36.419
52.543
90.293
-119.36
-133.49
-16.819
107.61
18.246
46.013
-1.4044
70.051
28.595
-77.318
-30.235
-50.285
-42.915
-42.559
164.27
56.047
-34.685
8.9621
-61.27
-6.9689
-20.086
11.863
-13.926
17.762
-16.527
-40.963
121.13
39.415
-111.62
7.3362
37.239
35.713
-3.2211
-28.061
-226.22
-24.192
125.57
13.632
37.51
11.419
54.726
-113.42
82.959
0.63122
18.757
90.746
138.22
-358.58
-0.54673
99.233
-25.039
-94.242
29.12
109.06
-63.242
42.976
33.737
8.4524
6.5572
-2.0516
-21.901
-8.9045
15.211
19.953
2.3388
-27.233
-8.3062
9.9058
10.819
-10.26
-19.951
18.411
-5.4397
14.775
-19.186
-0.13422
35.195
-27.834
-44.221
19.456
10.481
17.929
5.2915
-20.5
-32.33
24.142
31.197
-27.36
-18.134
11.841
18.852
1.8399
103.23
-90.714
-91.041
156.6
-42.102
-197.37
112.24
29.685
15.158
-31.671
4.2071
-23.258
22.265
41.344
40.576
-83.118
55.316
19.187
-109.35
75.459
92.494
-144.47
1.9542
32.653
-5.0312
3.7021
2.9333
23.068
18.735
-42.364
-21.456
-10.55
17.068
1.6639
-24.284
30.974
4.1902
-7.9117
22.011
32.149
-35.374
6.8457
-23.579
-15.45
-1.4927
28.31
43.841
-6.1103
-37.861
20.097
-25.627
-2.2689
34.689
-34.003
8.1756
28.851
-19.231
-37.744
9.9207
34.855
-36.636
19.489
21.407
-1.7807
-23.939
-25.332
20.879
19.001
42.86
32.831
-57.573
-101.76
9.1845
68.656
-17.022
17.592
56.329
-53.045
-14.908
-1.5161
-11.342
-20.174
-0.4475
51.523
-28.805
-36.49
-11.266
30.042
6.8688
3.8509
-7.6144
3.3833
12.988
46.592
-32.238
-49.425
20.122
22.783
-2.4109
16.422
-6.8261
5.5228
8.71
-14.082
7.861
-20.182
-19.435
25.987
12.157
6.7899
-17.328
8.0071
32.596
47.334
-78.747
-27.663
8.0862
0.095472
-18.652
53.203
62.442
-38.119
-90.508
-35.827
18.519
1.5501
9.9503
32.167
-2.6331
20.88
21.61
4.6235
-7.1224
-13.37
98.534
-100.76
-32.397
-6.3108
46.681
-30.292
-2.4526
26.23
-26.096
-29.007
37.907
-12.864
38.397
29.466
-69.312
-7.317
11.691
19.742
-24.364
-10.865
42.419
11.195
-13.53
16.494
28.085
-28.123
-42.347
22.347
24.865
21.561
-26.247
-3.2647
6.109
-42.194
-3.408
-5.1588
2.7467
35.894
13.582
7.1327
29.977
-6.4604
-42.982
91.478
-12.64
-98.004
-33.835
-2.846
8.4017
-58.569
101.17
101.09
-105.27
-142.24
-92.812
174.67
54.759
-14.113
-13.921
-12.711
27.432
-14.743
8.862
4.0539
-21.848
25.909
27.692
21.863
-23.19
16.592
10.618
-16.195
21.064
-18.831
-1.5512
6.5468
5.684
-1.6451
-2.1345
-18.068
-30.155
28.276
-13.436
10.363
-3.3872
-3.6433
-16.697
3.0416
4.3975
-9.8488
10.56
3.4291
-13.675
-10.225
26.301
13.647
54.674
15.44
-70.85
11.973
-32.698
20.022
27.536
-40.841
8.8571
20.056
2.5083
-87.464
47.15
-14.568
-20.187
5.9509
6.6646
-8.135
11.183
20.182
4.8106
-4.3952
-13.798
10.783
5.4739
2.1161
-4.0671
-0.8239
12.638
-6.1936
-4.0634
16.101
21.813
-20.095
-31.719
35.731
-11.144
-14.133
-4.3418
13.673
13.12
-19.189
-2.3231
10.605
20.498
36.238
21.587
34.91
-58.755
-53.87
-15.206
22.162
-10.241
-33.409
45.643
-19.471
-3.5503
-20.842
3.0249
-15.398
-1.0358
16.029
19.675
3.1354
-5.8128
18.268
4.2654
-11.216
-13.941
7.7016
9.6371
-1.5892
-6.6219
-2.8409
-6.7017
4.2263
41.251
1.7304
47.527
-2.0632
3.7358
-37.873
-65.226
60.294
-20.473
-40.132
-17.197
4.0537
4.2772
20.062
91.686
102.87
-104.77
-202.49
-69.596
105.83
23.924
8.8177
42.343
-45.809
-0.51058
30.911
3.0283
-10.686
-1.7113
18.426
-3.7558
-2.0525
17.25
-1.8181
-0.73599
14.615
10.298
-6.8961
-15.67
20.106
12.769
-7.2323
-9.7185
7.7978
1.4681
-10.797
3.5232
1.3397
-4.1754
-6.6018
13.337
19.223
-18.316
1.403
-11.997
-14.226
7.8841
17.086
-17.278
0.77861
21.769
-12.84
-4.9553
7.0499
4.0611
-15.959
4.7484
11.038
-8.5523
-17.27
0.07502
8.4058
11.985
-3.159
-5.3236
-5.5613
-10.466
5.4064
6.5524
-0.44125
-2.9099
15.159
0.50344
-18.901
9.9819
19.154
-23.21
-9.3127
13.176
-3.4314
-4.34
12.383
4.1663
-15.396
-2.5049
18.532
-12.947
-0.29051
2.8218
10.282
4.4041
48.455
-0.92113
-3.2315
-38.867
-20.375
24.046
-36.847
79.682
-50.14
8.5393
28.153
-71.64
-10.492
66.727
86.266
-158.13
-104.39
10.437
87.25
-44.595
30.141
-6.2962
-19.144
9.9396
58.993
48.072
-35.545
2.0269
-4.4468
-4.8458
-8.0693
16.706
47.794
-10.88
-20.696
11.292
-6.4118
-20.726
49.141
-12.666
-47.529
14.005
-9.0758
28.923
-9.2958
-48.004
18.11
29.095
112.93
-152.18
-51.696
41.165
-80.812
-4.2402
59.015
83.762
-7.799
-4.0825
-20.428
-27.806
14.099
18.168
12.249
-28.403
-7.5245
30.184
46.76
-0.20628
14.435
92.262
-98.84
-70.345
-36.68
71.641
-14.385
-24.804
-14.173
44.288
18.66
-16.171
-26.94
9.6983
5.7924
-27.071
2.9453
44.782
45.861
-46.643
-74.774
30.217
26.229
-10.303
32.821
32.163
-4.5148
-44.644
-22.985
8.6465
-79.326
47.656
39.463
38.643
-9.8767
33.222
19.078
-231.44
33.215
134.9
-17.202
0.62946
29.758
-44.629
-43.047
38.337
50.045
-30.603
-26.908
80.347
-31.017
28.351
86.719
-170.54
-82.27
58.372
-5.0258
-27.018
60.41
3.5479
3.6765
-8.7481
-1.8374
-3.6799
56.429
4.6186
-33.256
22.074
25.576
13.238
-24.656
76.791
-28.142
-64.273
-10.434
-26.014
26.299
31.212
17.833
-12.045
-34.126
-172.16
107.85
18.732
11.841
18.352
-41.028
37.829
38.914
-44.868
35.085
-31.216
-76.123
57.201
21.388
-19.274
-6.6506
31.093
14.273
3.2402
-14.03
33.903
-34.789
13.189
13.291
2.6984
-10.835
-31.089
68.449
49.298
69.957
-169.69
-20.33
42.166
-48.693
17.126
12.818
-5.4511
14.321
-12.175
12.485
-27.199
17.406
-4.4466
-20.222
15.442
19.532
-4.7891
-40.919
11.748
-15.142
-2.7314
4.3866
68.4
19.025
35.721
-80.251
-37.175
40.381
-71.804
44.99
1.1927
-13.597
34.834
48.229
-41.753
-12.069
0.014461
-24.076
29.624
16.432
-6.8261
-22.504
57.18
-44.47
-51.062
-5.1113
12.094
-5.3017
42.464
27.104
-15.658
-12.601
10.032
-40.491
-25.457
37.475
42.523
-11.446
-20.537
29.04
31.369
-40.431
-38.224
26.945
-3.5696
36.318
33.762
-52.216
-48.969
1.9595
39.577
-30.132
-29.478
54.787
-2.4922
-1.2907
-9.6364
-19.225
8.5487
18.403
0.0056303
-28.228
22.486
14.89
-21.89
26.215
26.399
-9.8148
1.4346
-1.9859
11.403
-31.994
-28.813
29.863
-26.044
-26.121
13.21
28.075
-9.3523
23.532
2.1033
-25.169
-1.3917
21.07
24.336
-14.359
-49.461
8.0638
4.9814
-14.225
19.26
-1.1563
27.932
-16.363
12.238
6.3777
-34.868
-4.5048
18.008
8.5943
-16.52
5.5211
19.872
-6.1984
-15.749
20.639
13.17
-21.543
-10.244
7.1904
-7.9168
-13.852
16.328
9.7054
-8.7729
-6.6764
19.279
-13.276
-7.8022
32.451
-5.7048
-31.331
12.857
14.413
-17.019
-23.752
30.5
8.0527
-10.128
9.8817
17.785
-12.1
2.8888
10.6
-1.5562
-25.047
2.1996
16.16
3.9851
-23.753
-14.191
19.168
-18.293
-16.593
15.16
14.81
-14.086
6.6591
5.4689
22.075
-19.114
9.8212
-24.613
-3.2465
27.953
2.0822
-12.042
-10.491
39.57
1.0853
-25.106
2.593
14.385
-34.894
57.276
-32.778
-79.416
45.212
-0.66403
18.254
-5.2568
10.674
3.9328
11.653
-21.348
-3.5289
-6.2736
17.762
-29.69
-16.391
27.693
40.939
-20.569
-6.0033
23.314
-12.206
31.005
-16.782
-17.371
13.907
-47.594
1.365
62.196
-11.837
-1.5798
-88.914
-38.161
118.26
-47.861
66.074
-33.43
-36.717
39.497
-11.157
-13.031
20.409
-20.273
8.7485
97.306
38.676
-154.3
28.217
25.328
-30.72
42.036
-46.183
-11.57
5.3985
-43.114
16.805
24.852
21.909
-6.9851
-5.538
19.857
-6.6585
-7.3969
6.8225
44.856
0.77613
22.114
-28.574
-13.447
-26.027
17.034
-1.4647
-41.235
47.378
-32.28
-21.672
-5.0103
22.331
9.7359
-26.558
9.3377
18.546
-11.359
-10.012
17.631
7.0419
-10.019
8.7591
16.798
12.388
-29.159
-10.946
14.998
34.289
-18.756
-19.986
-5.749
-35.997
54.62
106.01
-11.262
-82.05
4.4252
-52.055
-4.4331
68.266
52.481
-28.368
-294.86
112.62
82.719
17.336
9.0519
-12.545
-7.0205
-6.9373
32.242
10.888
1.8278
-13.527
-0.030487
16.012
5.4547
-17.191
-8.9153
9.7841
-2.8986
-15.307
-15.514
21.855
22.043
-13.973
-15.891
20.81
17.795
0.63284
-20.04
5.5969
13.468
-2.7837
-21.471
4.2087
16.688
5.4398
-19.094
6.6869
12.423
0.85553
-22.687
-2.5682
20.722
10.904
-2.5871
1.5915
60.998
-39.148
-71.131
-11.36
14.132
12.837
18.076
7.3808
51.74
20.44
-35.08
-120.82
-167.09
121.05
74.77
-24.738
4.9406
16.055
35.516
1.1121
10.755
9.1694
-4.8726
-21.587
18.517
5.3621
-16.989
1.0205
18.432
6.4138
0.80347
15.168
4.1374
-6.3774
-27.009
-1.2754
-3.6667
4.9235
-15.763
-7.4004
6.7342
-28.74
3.9561
25.16
25.567
-27.062
-22.557
24.322
6.7667
2.4706
-21.636
0.83603
18.167
-0.82291
-7.7034
4.9795
11.079
-11.968
-16.893
16.22
6.7364
-12.126
7.7833
-3.3742
-13.515
24.778
22.848
-11.223
-7.6056
5.8419
5.971
6.165
-25.263
14.771
9.4838
-6.8364
-0.28884
-9.5215
12.469
27.901
-13.204
-36.271
-14.449
-24.76
15.92
9.8547
-1.9396
2.7028
1.4093
-19.012
-0.77834
15.144
12.395
-20.37
-14.074
33.201
19.158
22.329
-26.545
-9.5285
20.699
-22.409
-18.306
8.4843
4.5391
-9.7103
17.044
22.872
-10.424
-10.55
30.884
41.582
-38.003
-35.87
-26.318
8.8728
-21.786
-32.047
20.406
12.138
-4.9517
-16.271
39.152
26.6
14.411
-30.18
6.6272
13.593
-4.3097
-47.853
1.7421
28.421
15.575
5.939
-4.5517
33.389
-16.301
-39.75
-18.221
7.8256
22.113
-0.2832
-14.809
34.88
23.629
-17.964
-41.736
-3.598
18.445
-24.81
23.793
22.214
-6.5109
-15.906
-2.6914
4.2142
7.9263
-20.287
35.226
-25.683
-13.517
23.235
-3.0059
-8.4701
19.404
23.8
-20.904
23.684
24.627
-29.98
-21.668
-22.162
22.723
29.56
-42.914
3.5727
0.88441
-27.748
32.974
-1.7737
-5.0512
-34.357
-36.676
28.203
23.351
7.8167
14.793
-3.2701
-18.613
19.64
2.1539
-10.484
8.8099
10.007
-11.841
4.5239
12.183
-2.6373
-11.724
-13.996
11.793
2.2364
-6.264
-12.657
45.552
36.27
-46.347
-40.982
-11.048
10.344
0.80942
-26.684
0.16165
59.22
-1.3994
-53.356
-25.455
29.252
44.289
-25.288
-29.057
-5.8606
-1.4561
16.814
20.644
23.644
32.748
-4.4254
-13.535
42.873
-21.393
-38.134
26.265
-5.2601
-2.2397
4.0331
-7.4923
-28.13
-0.23134
18.357
-2.3224
-8.0924
23.411
12.18
-47.728
-14.841
16.324
25.284
-2.8891
18.002
8.4915
-47.992
-28.764
10.764
17.784
-14.437
-7.3226
9.6576
-21.666
9.2145
31.745
-11.702
-8.4664
35.125
21.04
-16.312
-27.315
14.581
-1.6459
-2.6779
18.889
10.659
-20.158
-25.853
9.4677
12.601
1.7357
-3.3139
25.057
9.3055
2.5301
14.239
-0.75031
-6.1735
-5.1333
-14.472
-10.069
14.856
-32.046
-37.005
4.3036
-8.2696
-4.676
29.741
20.543
-56.057
-6.0965
37.762
20.837
-16.263
-24.721
-6.2373
-13.809
-7.2079
61.36
7.4841
-42.43
0.63251
5.5601
11.283
18.584
-11.826
35.05
-1.07
-26.653
27.934
-20.394
7.4882
36.168
-6.2211
-13.812
21.275
11.599
-15.216
-10.426
10.487
-1.3097
-5.7323
-15.51
9.1639
11.402
6.2857
-22.03
-15.339
9.6993
-4.4767
-15.821
-23.621
15.788
11.692
-3.3268
10.289
-27.702
-15.375
26.291
8.6231
-2.5496
10.794
-21.726
-5.6928
12.147
19.901
-16.107
-13.729
58.749
-4.9357
-49.538
7.4433
40.539
39.883
25.224
-34.823
-74.498
-43.168
10.344
52.646
1.2809
-3.3812
-2.7446
14.239
-14.708
7.5
11.834
-32.244
-14.917
-8.2564
53.071
-0.10023
81.687
-12.051
-78.533
-25.646
29.431
-3.4232
-61.405
-137.14
21.206
186.63
50.156
-119.42
-27.351
34.156
39.515
28.935
-70.292
6.0741
51.092
11.25
-81.303
26.1
30.65
-20.903
6.4603
37.642
-19.075
-23.579
7.7841
20.317
30.748
-16.425
-16.129
-18.474
-0.24385
17.39
48.909
-19.332
-34.263
1.5041
40.149
53.557
35.114
-149.1
-76.737
110.9
-61.344
-30.808
77.975
27.655
18.731
-40.014
-36.572
-8.3883
19.539
-17.761
13.313
-20.771
61.657
22.806
-62.661
20.348
4.5232
-16.966
-15.982
9.7384
-37.688
28.451
48.281
-32.917
9.0678
37.305
-33.605
-10.705
12.564
2.745
10.954
-10.224
10.97
2.5471
-18.657
6.496
32.333
19.522
-45.495
-18.718
23.208
-4.744
-24.667
25.205
-13.559
10.41
14.907
-22.286
-14.292
14.161
-9.6894
-3.0521
18.908
38.014
-43.624
-0.92171
21.519
-44.569
6.9532
16.439
-21.542
27.415
-8.1379
-9.3335
28.319
-17.663
0.12091
-2.1325
9.7137
6.7773
-15.328
9.2547
-2.9219
-5.022
8.2587
-12.293
15.383
-1.1383
26.05
11.394
-57.928
-0.69191
13.002
-17.607
23.251
19.754
7.1651
-21.741
-24.927
-2.873
0.75002
5.7086
-24.022
34.506
24.428
-44.194
-3.312
18.435
-24.157
-9.4495
21.312
18.755
-28.212
-13.72
14.963
-8.323
-4.4662
31.132
-14.489
-20.702
34.382
10.596
-20.43
5.8186
28.631
-5.1965
-12.613
8.2608
7.2277
3.0813
-10.245
-9.3782
-19.06
29.272
14.122
-29.979
-29.857
27.728
22.561
-27.34
-11.7
4.7908
32.245
-18.397
4.3019
4.3964
-27.72
14.96
1.6591
-16.955
13.36
-4.2492
-18.646
23.785
-9.7033
8.3958
38.359
0.39481
-23.624
-2.7739
6.4404
6.4825
6.2357
-3.4858
-26.333
15.554
18.336
-18.716
6.4342
1.7057
-2.1145
-12.271
-4.8914
12.378
-9.3924
-13.252
6.6542
12.378
-17.76
-1.7493
2.2555
-1.1232
-11.724
22.727
16.274
-31.473
-9.6206
11.741
-10.125
28.877
-2.0541
-40.935
24.779
25.494
-17.486
5.3177
15.467
12.981
-13.228
-9.6253
20.669
0.088649
-17.908
-4.7506
16.926
-11.271
2.1185
9.3724
-27.26
-4.2219
31.004
-2.8067
-21.422
-7.2248
20.28
4.5417
-35.742
17.86
11.585
-32.412
4.1224
17.596
-29.839
9.2658
29.896
8.0701
-21.482
-16.619
23.645
14.75
-9.5968
-23.422
15.357
10.921
-17.952
3.9303
21.474
7.9024
-14.853
-21.218
18.908
13.196
-3.7254
-24.627
4.2281
14.013
-10.477
-2.6689
10.645
-18.809
-5.9543
13.796
14.15
-20.013
-5.9461
20.957
8.1029
-17.032
-17.093
21.915
-9.7042
-4.6487
19.343
2.6934
-4.81
-9.6591
15.801
0.53981
-25.131
2.7338
18.788
-23.615
4.2144
27.242
-9.432
-11.697
42.049
39.773
-52.333
-37.062
37.087
-4.1908
-32.489
2.7716
16.237
-24.436
20.146
39.468
-14.928
-53.164
29.282
10.737
-2.8235
6.6586
-18.229
-12.887
23.648
56.299
-16.962
-61.889
-8.307
7.3259
12.093
13.943
2.6085
55.785
20.4
-78.625
-34.447
20.372
-98.67
-91.953
120.12
38.961
45.872
4.8165
3.6889
-29.957
27.259
-55.434
-17.38
51.834
-46.674
21.095
36.924
-1.1404
92.709
11.688
-66.193
-61.915
-69.668
23.309
-20.774
25.695
60.055
60.71
4.0272
8.4517
-26.847
-67.853
15.75
1.427
-10.381
10.857
4.6831
4.1949
-0.61081
-16.216
16.449
20.108
3.4727
-9.7846
-10.961
14.301
-2.2399
15.702
14.667
-27.167
-14.954
22.396
-17.42
-21.617
3.3208
-4.5642
-15.029
4.0303
12.278
-15.793
-14.437
15.272
-12.693
-17.703
27.635
26.797
-21.162
-29.829
32.899
29.923
-10.642
-28.366
21.414
7.6124
-16.012
13.471
18.039
-9.1698
-18.524
15.47
17.865
-7.4543
-18.189
13.858
11.945
-11.257
0.6007
9.9984
-19.903
-3.0432
12.791
2.8872
-15.324
-15.397
18.107
7.2518
-21.579
-5.3285
16.815
-9.814
1.9315
16.734
-13.373
-12.291
18.438
1.9312
-16.865
15.881
18.866
-11.087
21.402
10.065
-33.139
-30.137
11.187
22.01
34.975
29.91
14.733
22.492
-41.491
-39.729
-83.928
-18.493
51.067
63.367
66.967
-122.59
-253.46
81.753
155.57
5.1225
34.603
-9.8996
-29.875
-22.745
-15.247
47.735
38.713
-25.727
31.131
-17.889
0.83378
17.972
4.8665
1.6811
-16.128
-18.845
-10.816
17.671
32.661
73.852
-34.857
-224.48
2.5682
208.66
-55.907
-50.773
-45.304
-38.04
80.189
-38.795
42.702
30.194
48.21
-57.247
-0.67115
-12.455
6.701
9.9945
279.18
-39.721
-210.72
-38.69
48.193
-47.802
-4.2192
-62.381
1.6592
84.387
15.951
-2.3322
-9.3646
26.137
2.5244
-11.819
-15.098
19.904
-5.0619
7.2381
-11.662
-10.093
4.7984
-1.9986
9.522
-11.743
19.965
-6.1065
-26.111
14.496
3.8135
-1.6111
10.442
-26.512
0.21526
34.639
-26.336
-7.1704
-2.0267
-0.074414
17.363
-16.427
-1.6048
20.899
-6.5817
10.018
-8.2284
-20.329
22.923
44.437
109.75
-28.684
-77.018
-29.263
-43.821
-26.515
-69.271
24.269
83.943
22.453
3.4153
10.98
9.8785
26.706
-49.71
-39.776
8.3708
-9.0118
26.244
-8.8594
-16.133
-0.88688
4.2099
11.894
-8.418
-16.901
20.274
-4.4935
12.309
-4.6537
-2.7372
22.266
-13.225
3.4703
17.771
7.0363
13.574
3.636
-12.7
-8.6176
-61.86
-3.4137
26.41
23.112
-30.954
32.096
25.927
-67.051
28.305
-17.507
32.762
-0.88891
-30.543
-28.509
17.432
20.897
-29.848
25.22
-2.7042
-17.417
25.967
17.963
8.3616
1.5329
-7.6637
26.573
4.9102
-15.397
7.59
-3.1442
-11.975
-13.485
8.6606
7.6557
-14.753
8.7354
-1.7781
-1.0078
1.0805
9.1624
-12.557
-12.943
12.037
-24.097
1.7753
8.1654
-11.029
-6.6852
15.232
6.8181
-19.05
-3.4554
20.801
-5.5502
3.3574
26.389
-13.609
-34.862
3.6515
18.632
0.94581
-19.775
18.158
10.74
-12.375
16.803
14.536
-0.097419
-22.823
4.1945
19.928
4.5512
-16.263
-9.2463
11.481
-7.9819
-13.439
8.4459
10.672
-10.6
-17.74
12.3
0.70387
-14.191
14.818
-0.47452
-9.2283
15.576
15.505
-10.361
-7.9999
4.6397
-12.589
-3.6249
17.624
0.020939
-8.3603
17.333
0.28858
-6.6384
-19.811
8.5948
20.666
-27.848
4.5189
22.087
-12.436
-7.6003
19.463
3.0684
-21.008
-13.126
16.553
-1.512
-10.069
2.6158
4.995
-13.892
-7.2421
18.56
10.255
-20.137
5.7355
-9.4583
19.742
-13.43
-10.849
14.68
-4.7907
6.8338
21.791
-16.753
-3.6919
7.3541
-4.902
-5.554
1.8883
2.9639
-6.3718
20.505
6.9476
-1.3461
-26.958
-2.3799
4.6658
-7.7479
0.12566
13.317
-10.283
-4.677
12.895
-6.7644
-10.304
17.684
15.514
-1.4937
-22.655
7.5878
12.265
-23.176
11.455
15.943
9.3321
-9.7377
-32.882
4.8268
-39.27
27.581
28.125
19.027
-7.9485
-24.797
6.631
-2.7493
-15.919
12.523
14.98
-10.883
2.8852
10.056
-5.7184
8.7495
-10.406
9.6162
9.8634
-15.438
31.289
-12.369
-17.481
5.5944
-7.6187
-14.396
23.457
-13.139
69.705
-35.679
-122.34
45.607
14.554
7.6148
-7.2872
24.246
9.6387
14.494
-40.829
16.02
4.4024
-3.8288
-20.719
5.2787
21.034
-10.697
-8.5031
17.246
-13.448
-3.3638
11.907
-7.6798
-7.4813
19.789
-3.6045
17.29
11.954
6.1271
-4.5723
2.7252
-14.735
17.482
-1.3349
25.972
51.043
17.659
-150.09
-177.06
88.115
116.4
36.061
-35.847
-21.435
32.891
-12.385
-12.888
-28.484
-1.5865
21.146
-0.29132
-8.7293
7.7143
7.1648
-9.8429
11.862
5.8303
-11.004
31.396
36.154
-3.7385
-30.098
3.8013
12.027
-5.5629
9.018
-0.85612
-15.13
-5.8618
13.249
5.7797
-4.7251
8.7184
19.874
-5.6585
-12.911
-31.955
18.085
12.068
-53.162
13.665
14.861
4.6495
-16.021
-0.87301
13.78
26.873
-32.588
-54.685
30.114
-4.4517
6.1092
28.029
-8.1446
-6.1238
10.439
-15.993
2.3233
14.152
0.54936
-23.099
4.9634
25.182
-6.7769
14.535
3.4669
-17.236
2.8433
5.0676
-4.6548
-6.0202
7.1143
7.8172
-15.268
-6.2475
12.137
1.6764
-17.115
-0.21914
8.901
1.1848
-8.6365
2.4782
-6.7777
-2.5774
7.1755
-16.252
-9.3885
16.209
-12.062
-10.325
12.12
2.0435
8.5045
7.3845
-16.554
49.527
-18.377
-25.65
10.966
-7.1099
14.331
13.904
-9.4801
-9.9737
14.504
-1.3476
7.5727
1.0398
-11.355
8.7681
1.3706
-10.908
-9.4833
6.7918
12.64
-14.254
-34.202
20.192
19.087
-28.557
3.2689
10.084
-3.4205
16.961
-21.053
-14.732
17.814
-13.28
6.7734
10.379
-21.836
-5.8198
21.233
1.8
-25.854
25.556
9.7951
-16.343
25.093
11.779
-16.92
7.5688
16.013
-15.421
-3.412
11.934
-5.1126
-2.0607
-9.4929
-9.8671
33.748
-6.8425
-13.494
9.3869
-16.267
1.8883
10.661
-10.779
11.397
7.1923
-10.197
-4.0258
7.8738
8.0839
-13.145
-8.5958
12.066
-11.344
-8.9014
9.0911
11.478
-2.9396
-7.2347
5.8445
2.0392
0.023656
17.631
17.449
-22.778
-28.834
-22.024
9.4274
-11.049
6.0814
10.605
-8.9663
25.41
23.962
-12.406
-15.879
15.909
0.32559
-16.779
-0.49523
6.8283
-10.506
8.3214
17.214
9.2015
-34.87
-1.4184
23.644
6.4689
-13.959
-16.997
6.4224
7.0331
-13.825
-5.5153
11.564
-5.4589
-14.702
6.2747
9.542
7.9757
-19.43
1.3996
16.679
4.4796
-12.103
7.8064
2.6908
-18.46
2.3548
6.6156
8.9983
-14.334
13.422
22.287
-3.5364
-10.432
6.7869
20.093
-14.958
-42.115
-9.5279
11.381
3.3779
8.2743
-0.14522
-21.917
-12.406
22.903
3.1963
-1.5912
13.781
-3.7974
-12.629
11.922
1.4919
18.639
27.277
-3.5628
0.72543
-2.3823
-4.4402
-21.986
14.92
-9.5131
-17.34
15.875
0.90478
2.9582
-26.541
29.98
9.3618
-24.367
20.581
3.5536
-15.729
-3.2746
13.423
6.3004
-23.582
-11.734
9.1478
-14.609
9.53
13.949
-20.742
-0.58486
18.856
-15.275
-14.206
7.0474
-4.4916
20.442
0.8968
-31.517
14.639
-2.6676
-8.7081
26.777
5.6317
-15.801
13.14
17.496
-22.002
-8.299
25.055
4.7954
-20.783
0.46593
13.73
-8.1453
-9.9407
15.524
5.1027
-15.506
-3.2861
4.7427
-11.636
10.048
12.799
-19.248
-1.8257
2.3552
-17.499
9.8336
16.413
-17.185
-9.5114
24.85
-2.4694
-16.138
14.12
2.2321
-15.142
20.031
16.621
-3.7854
-35.439
12.071
26.643
-3.972
-17.333
4.0086
4.3229
-13.973
9.6745
13.022
2.109
-17.944
-4.0391
10.793
0.14866
-16.621
1.4541
16.057
-10.493
-16.458
3.8925
11.44
-19.025
-1.1488
22.963
5.5778
-29.97
3.9063
16.266
-11.915
13.319
9.4043
-22.798
7.4822
27.839
7.9733
-15.38
-22.857
11.584
13.75
-16.986
-0.30178
16.624
-12.378
7.395
16.07
-15.502
-14.714
21.932
9.7657
-21.911
-18.177
17.362
0.071042
-10.891
21.315
19.391
-1.3922
-29.825
-2.4254
7.608
-14.477
-6.133
17.901
-13.819
-0.090091
17.45
4.2472
-22.48
-2.8223
23.306
1.9012
-27.276
0.38791
22.375
2.6061
-14.512
10.27
0.99111
-17.041
9.6066
15.163
-2.7438
-33.901
3.2808
17.572
-0.74019
-18.232
22.031
16.776
-22.337
-18.834
17.513
-8.958
-2.4501
15.675
-16.457
3.6835
19.833
-21.164
-2.7092
28.897
-6.6426
-19.788
21.988
-3.2316
-7.9567
19.713
-15.932
-3.5554
26.603
-14.457
-16.446
25.165
-9.5686
2.6936
25.034
5.824
-28.357
-6.4939
10.557
-18.655
13.848
4.9303
-32.807
9.0571
16.014
-18.157
-8.2372
20.206
13.765
-5.8381
-25.98
13.471
15.604
-1.471
-24.212
1.8771
15.351
-15.164
-3.1098
20.408
5.1662
-25.196
-6.985
21.466
-1.5112
-18.854
12.028
7.1002
-12.112
16.918
6.373
-22.845
7.0838
23.087
4.4208
-23.911
-0.26543
8.1215
-13.066
17.566
21.375
-24.702
-14.741
23.105
8.3375
-11.711
-38.298
10.46
16.544
-6.0854
10.572
13.59
-7.0651
-29.469
15
19.01
-8.2864
-31.737
-2.544
28.354
-11.286
-18.375
22.443
15.424
-14.964
-34.757
17.251
29.775
-2.5626
-22.03
16.776
3.3685
-30.811
24.788
31.095
-16.026
-30.378
17.431
12.202
-17.05
5.5207
10.377
-18.737
16.612
13.633
-19.297
-17.037
28.41
9.9592
-29.022
1.004
4.6138
-10.904
23.459
16.243
-18.917
-31.162
20.145
17.741
-13.55
-28.366
22.177
-1.0229
-7.8803
23.022
11.053
-15.777
-36
19.615
22.894
2.6463
-23.812
6.0652
22.297
-20.585
-4.7697
22.778
-8.3694
-23.091
20.608
15.658
-20.518
-16.877
14.184
-16.148
-17.697
29.482
13.641
-3.4839
-31.494
13.827
7.8405
-6.763
17.478
1.3577
-32.362
9.5282
30.382
6.6316
-38.702
0.24309
25.082
-2.1867
-23.024
11.161
17.803
-8.9189
-26.201
2.9768
-49.21
14.745
42.453
14.859
8.6821
-36.236
3.0103
20.278
-31.684
-7.5197
38.459
18.774
-13.005
-22.803
32.748
18.383
-7.7284
-34.33
23.539
43.147
-7.2739
-31.431
10.122
15.101
-28.728
-21.318
40.854
8.1617
-33.347
-24.008
10.247
-18.988
-7.923
43.15
15.778
-8.109
-43.579
2.3808
15.396
4.0678
-23.46
-1.5299
30.109
-12.239
-24.127
26.866
19.01
4.6324
-37.547
-13.094
34.92
1.4752
-22.747
16.215
11.287
-12.734
-7.5755
30.612
13.757
-28.136
-18.106
27.552
-18.056
-10.243
26.667
17.168
-13.726
-45.15
25.678
34.548
-32.027
-7.1792
44.946
-26.398
5.8314
21.249
0.29187
-34.672
-31.198
37.106
-2.2383
-10.35
17.036
-13.761
-12.169
24.232
-13.608
-10.45
35.498
-1.122
-32.625
17.016
12.566
4.2611
-37.299
-14.338
25.267
5.9734
-28.122
27.931
26.997
-13.775
-40.258
10.279
23.013
10.178
-24.448
3.0256
19.579
3.7925
-14.893
-18.667
11.869
-11.012
-7.953
19.735
-9.0812
-22.621
13.815
19.12
-16.477
-12.561
31.725
14.598
-10.255
-41.256
28.434
2.0748
-9.1946
32.938
13.864
-14.787
-39.912
21.958
22.612
5.4362
-25.039
-10.686
24.385
9.7983
-33.945
0.38782
17.401
5.6694
-36.056
-19.61
41.52
23.897
-26.603
-8.2689
14.064
-26.619
2.8821
35.727
-10.912
-34.232
33.096
20.299
-6.1331
-40.556
4.3387
25.077
-14.591
4.2166
18.273
11
-24.549
-14.189
26.708
8.5385
-12.402
-42.456
11.986
12.292
-23.868
17.842
23.37
19.382
-26.471
-22.908
30.367
15.478
-17.391
-37.863
17.777
11.782
-29.173
3.6419
29.726
-3.8938
-35.332
28.241
30.657
7.2401
-35.001
-18.079
37.327
-13.87
-26.211
26.57
24.853
-26.521
-30.503
35.198
18.848
-11.817
-43.248
21.962
22.963
-24.471
-3.455
27.666
7.6808
-34.656
-0.93207
34.266
9.3453
-30.923
-29.949
30.463
21.048
-22.495
-18.679
26.59
-9.5112
-26.764
23.562
29.063
-17.021
-38.288
32.642
29.415
-18.581
-40.676
18.404
5.6804
-28.388
21.308
26.969
-21.342
-18.108
30.625
-5.5622
-32.466
25.339
26.075
-28.594
1.0058
8.9821
-4.6491
32.54
-7.9006
-24.668
29.519
-4.7935
-16.713
18.64
5.0083
-22.866
5.5028
19.949
-20.641
-2.1873
18.692
-20.602
-9.963
21.644
-17.67
-0.19924
10.222
-32.482
17.874
3.2087
-25.716
30.566
-1.0855
-27.78
25.397
-0.70517
-23.724
16.333
0.78332
-28.247
14.828
45.621
-11.795
-35.593
36.206
20.811
