-79.9
-81.89
-78.72
-71.15
-60.73
-49.65
-40.17
-33.79
-30.67
-29.55
-28.31
-24.88
-18.05
-7.94
4.04
15.74
24.93
29.99
30.39
26.92
21.5
16.67
14.8
17.44
25
36.72
51.17
66.82
82.53
97.66
111.99
125.37
137.57
148.16
156.7
162.97
167.17
169.84
171.7
173.36
174.95
176.1
176.02
173.98
169.62
163.32
155.98
148.66
142.05
136.11
130.06
122.79
113.37
101.38
87.03
70.86
53.49
35.52
17.66
1.01
-12.97
-22.96
-28.61
-31.3
-34.17
-41.18
-55.63
-78.67
-108.69
-141.78
-173.02
-197.92
-213.43
-218.29
-212.99
-199.31
-180.17
-159.3
-140.81
-128.32
-123.91
-127.35
-136.1
-146.26
-153.96
-156.75
-154.18
-147.6
-139.04
-129.85
-119.82
-107.2
-89.81
-66.76
-39.76
-13.28
6.88
15.92
12.17
-2.13
-21.72
-40.64
-54.68
-62.69
-66.17
-67.78
-69.48
-71.63
-73.29
-73.26
-71.18
-67.96
-65.31
-64.85
-67.14
-71.34
-75.43
-77.09
-74.62
-67.67
-57.4
-46.09
-36.45
-30.86
-30.98
-37.55
-50.51
-68.8
-90.21
-111.23
-127.49
-134.64
-129.71
-112.19
-84.21
-49.84
-13.6
20.95
52.01
79.46
104.13
127.07
149
170.42
191.7
213.24
235.12
256.75
276.66
292.61
302.23
303.8
297.12
283.63
266.02
247.38
230.08
215.17
202.3
190.14
177.05
161.76
143.77
123.59
102.61
82.68
65.53
51.91
41
30.63
18.29
2.52
-15.95
-34.25
-48.74
-57.19
-60.33
-62.11
-68.35
-84.3
-112.44
-151.41
-196.33
-240.24
-275.82
-296.91
-299.75
-283.77
-251.87
-210.1
-166.41
-128.71
-102.96
-91.74
-93.9
-105.36
-120.4
-133.22
-139
-134.73
-119.55
-95.07
-65.12
-35.1
-10.57
4.33
8.11
2.35
-9.03
-21.08
-29.59
-32.2
-28.78
-20.82
-10.41
0.51
10.52
18.59
23.6
24.28
19.52
9.07
-5.98
-23.2
-39.55
-52.52
-60.91
-65.1
-66.43
-66.28
-65.43
-63.9
-61.28
-57.35
-52.19
-46.03
-38.71
-29.27
-16
3
29.02
62.08
100.8
142.74
184.99
224.7
259.62
288.32
310.3
325.84
335.58
340.06
339.28
332.55
318.65
296.39
265.22
225.66
179.54
129.76
79.96
33.77
-5.86
-37.28
-60.35
-76.23
-86.77
-93.69
-98.17
-100.73
-101.74
-101.84
-102.09
-103.77
-107.91
-114.95
-124.63
-136.22
-148.9
-161.91
-174.58
-186.19
-195.91
-202.91
-206.55
-206.65
-203.65
-198.39
-191.71
-183.76
-173.6
-159.26
-138.47
-109.76
-73.54
-32.52
8.87
45.76
74.11
91.82
98.82
96.61
87.53
74.2
59.1
44.52
32.17
22.89
16.46
11.74
7.35
2.48
-2.6
-6.59
-7.75
-4.69
3.03
14.97
30.13
47.49
66.04
84.55
101.18
113.27
117.77
112.17
95.44
68.63
34.82
-1.42
-34.9
-60.77
-75.55
-78.22
-70.86
-58.65
-48.64
-47.57
-59.57
-84.74
-119.41
-157.86
-194.83
-227.33
-255.06
-279.33
-301.18
-320
-333.29
-337.66
-330.3
-310.3
-279.04
-239.52
-195.25
-149.24
-103.62
-59.81
-19.13
16.94
46.91
69.98
86.66
98.95
109.82
122.16
137.82
156.98
178.43
200.17
220.35
237.89
252.73
265.39
276.43
285.86
292.95
296.47
295.2
288.47
276.64
261.13
244.08
227.71
213.58
202.03
192.16
182.15
169.94
153.88
133.07
107.59
78.31
46.77
14.8
-15.87
-44.06
-69.4
-92.36
-113.82
-134.31
-153.33
-169.15
-179.21
-181.01
-173.03
-155.34
-129.63
-98.69
-65.67
-33.4
-3.88
21.93
44.04
63.1
79.89
94.95
108.34
119.75
128.85
135.67
140.67
144.54
147.87
150.85
153.21
154.47
154.21
152.25
148.63
143.64
137.88
132.51
129.3
130.24
136.63
147.91
161.11
171.27
173.02
162.66
139.58
106.44
67.95
28.95
-7.32
-39.76
-68.78
-95.24
-119.52
-141.1
-158.83
-171.12
-175.98
-171.09
-154.16
-123.93
-81.39
-30.42
22.73
71.17
109.65
136.17
151.93
159.93
162.81
161.3
154.05
138.83
113.98
79.52
37.21
-10.11
-59.33
-107.71
-153.08
-194.01
-229.94
-261.13
-288.48
-312.88
-334.65
-353.25
-367.48
-376.04
-377.99
-372.67
-359.56
-338.26
-309.16
-274.33
-238.17
-206.71
-185.9
-179.15
-185.9
-201.63
-219.67
-233.56
-239.16
-235.43
-224.01
-208.1
-191.16
-176.02
-164.28
-155.97
-149.4
-141.54
-128.78
-108.11
-78.08
-39.17
6.46
55.72
105.43
152.82
195.85
233.29
264.77
290.64
311.72
328.65
341.2
347.93
346.63
335.31
313.49
282.73
246.27
208.02
171.45
139.16
112.86
93.76
82.47
78.67
80.54
84.77
87.35
84.75
75.19
59.14
38.98
18.17
0.46
-10.9
-13.81
-8.25
2.96
14.23
18.48
9.5
-15.58
-55.23
-104.41
-157.06
-208.72
-257.8
-304.91
-350.65
-393.46
-428.93
-451.15
-455.09
-438.88
-404.74
-358.21
-306.13
-254.55
-207.29
-165.55
-128.51
-94.3
-60.97
-27.02
8.4
45.3
82.82
119.13
151.57
177.2
193.62
199.68
195.99
184.86
169.72
154.28
141.67
133.71
130.67
131.38
133.74
135.54
135.16
132.18
127.24
121.56
116.22
111.65
107.43
102.54
95.88
86.7
74.94
61.26
46.86
33.05
20.83
10.42
1.05
-8.69
-20.32
-34.44
-50.09
-64.55
-74.04
-74.89
-64.97
-44.68
-16.95
13.6
42.2
65.35
81.66
91.78
97.63
101.32
104.43
107.73
111.45
115.56
120.04
124.8
129.49
133.56
136.34
137.47
137.15
136.12
135.38
135.74
137.47
140.24
143.37
146.1
147.83
148
145.9
140.55
130.87
115.97
95.78
71.33
44.58
18
-6.09
-26.16
-41.68
-53.04
-61.39
-68.4
-75.99
-86.16
-100.61
-120.09
-143.82
-169.16
-191.7
-206.39
-208.94
-197.31
-172.45
-138.01
-99.03
-60.35
-25.29
4.88
30.47
52.46
71.53
87.55
99.72
106.97
108.64
104.96
97.16
87.28
77.73
70.6
67.28
68.11
72.47
79.02
86.07
92.05
95.74
96.54
94.57
90.55
85.55
80.51
75.65
70.19
62.49
50.64
33.32
10.43
-16.74
-45.98
-74.85
-101.55
-125.29
-146.32
-165.53
-183.86
-201.66
-218.26
-231.95
-240.35
-241.21
-233.37
-217.34
-195.22
-169.95
-144.2
-119.49
-96.02
-73.1
-50.07
-27.04
-5.21
13.47
27.07
34.44
35.73
32.39
26.8
21.43
18.34
18.77
23.19
31.78
44.78
62.71
86.12
115.09
148.42
183.18
214.79
237.72
246.86
239.06
214.23
175.6
128.71
79.82
34.11
-5.34
-37.63
-63.35
-83.76
-100.21
-114.16
-127.15
-140.68
-155.48
-170.85
-184.43
-192.74
-192.57
-182.36
-162.96
-137.42
-109.79
-83.68
-61.21
-42.86
-27.97
-15.59
-5.11
3.51
9.85
13.52
14.43
12.94
9.78
5.82
1.85
-1.56
-4.09
-5.66
-6.27
-5.99
-4.8
-2.64
0.52
4.58
9.22
13.86
17.7
19.86
19.66
16.81
11.56
4.66
-2.89
-10.17
-16.64
-22.29
-27.58
-33.23
-39.8
-47.35
-55.12
-61.62
-64.95
-63.35
-55.84
-42.62
-25.01
-5.07
15.1
33.93
50.57
64.88
77.02
87.22
95.55
101.92
106.18
108.2
107.87
105.24
100.56
94.35
87.32
80.31
74.01
68.95
65.37
63.24
62.3
62.07
61.8
60.64
57.77
52.67
45.3
36.21
26.32
16.62
7.82
0.08
-7.03
-14.35
-22.82
-33.06
-44.96
-57.57
-69.12
-77.47
-80.69
-77.76
-68.85
-55.28
-39.14
-22.49
-6.89
6.89
18.77
28.96
37.63
44.8
50.38
54.33
56.8
58.02
58.25
57.61
56.11
53.78
50.81
47.58
44.53
42.07
40.26
38.84
37.25
34.86
31.17
26.02
19.62
12.47
5.2
-1.75
-8.24
-14.41
-20.63
-27.3
-34.72
-42.98
-51.81
-60.41
-67.52
-71.5
-70.78
-64.41
-52.54
-36.47
-18.33
-0.29
16.01
29.86
41.36
51.03
59.32
66.33
71.85
75.56
77.31
77.23
75.74
73.42
70.82
68.37
66.3
64.65
63.31
62.09
60.8
59.32
57.56
55.41
52.62
48.82
43.53
36.31
26.99
15.89
3.88
-7.78
-17.81
-25.37
-30.24
-32.93
-34.39
-35.73
-37.88
-41.41
-46.35
-52.14
-57.63
-61.21
-61.16
-56.22
-46.04
-31.45
-14.28
3.2
19.01
31.94
41.68
48.63
53.43
56.59
58.33
58.58
57.18
54.03
49.24
43.18
36.34
29.3
22.57
16.58
11.63
7.9
5.42
4.08
3.52
3.2
2.52
1.02
-1.44
-4.63
-8.02
-11.04
-13.26
-14.55
-15.09
-15.21
-15.35
-15.87
-16.99
-18.75
-20.94
-23.24
-25.22
-26.56
-27.2
-27.44
-27.88
-29.16
-31.59
-34.85
-37.86
-38.99
-36.53
-29.26
-16.91
-0.29
18.98
38.98
58.05
75.16
89.99
102.72
113.68
123.09
130.95
137.17
141.71
144.89
147.3
149.74
152.92
157.34
163.2
170.6
179.73
190.88
204.2
219.25
234.54
247.66
255.77
256.51
248.85
233.5
212.65
189.28
166.35
146.48
131.83
124.28
125.19
134.7
150.93
169.75
185.48
192.59
187.51
169.93
142.56
109.9
76.43
45.06
16.74
-9.07
-33.52
-57.63
-82.09
-107.32
-133.48
-160.11
-185.77
-207.91
-223.48
-230.3
-228.36
-220.52
-211.98
-208.68
-215.41
-234.46
-265.23
-304.86
-349.28
-394.16
-435.58
-470.41
-496.32
-511.98
-516.99
-511.69
-496.86
-473.39
-442.08
-403.82
-359.72
-311.31
-260.56
-209.61
-160.52
-114.93
-73.87
-37.71
-6.19
21.39
45.89
68.09
88.55
107.46
124.69
139.97
153.04
163.96
173.3
182.21
192.09
204.17
218.8
234.81
249.41
258.86
259.81
250.94
234.02
213.68
195.9
185.81
185.72
194.36
207.58
220.07
227.18
226.21
216.81
200.88
181.85
163.73
149.94
141.92
138.51
136.02
129.62
115.09
90.31
55.82
14.5
-29.42
-71.48
-107.94
-136.47
-156.47
-169.12
-176.72
-181.55
-184.54
-184.47
-178.41
-163.08
-136.78
-100.57
-58.21
-14.99
23.98
54.94
75.9
86.29
86.4
76.99
59.21
34.69
5.38
-26.8
-60.58
-95.81
-133.34
-174.37
-219.07
-265.48
-308.87
-342.44
-359.39
-355.64
-332.19
-295.6
-256.24
-224.66
-207.74
-206.34
-215.66
-227.75
-234.9
-232.09
-217.78
-193.16
-160.87
-124.22
-86.73
-52.08
-23.48
-2.81
10.25
18.3
25.16
34.3
47.19
62.43
75.94
82.12
75.78
54.14
18.2
-27.06
-73.91
-114.13
-141.5
-153.4
-150.96
-137.98
-119.11
-98.32
-78.1
-59.53
-42.89
-28.4
-16.71
-9.21
-7.74
-14.03
-28.66
-50.17
-74.98
-98.15
-114.97
-122.45
-120.13
-109.64
-93.62
-74.41
-53.44
-31.38
-8.79
13.31
33.39
49.9
62.08
70.42
76.58
82.73
90.68
101.17
113.7
126.95
139.48
150.45
160.01
169.11
179.06
190.95
205.05
220.59
235.85
248.22
254.6
251.87
237.75
211.68
175.46
133.14
90.05
51.28
20.21
-2.23
-17.39
-28.03
-37.25
-47.68
-61.15
-78.79
-101.16
-128.17
-158.93
-191.37
-222.38
-248.19
-265.22
-271.03
-264.97
-248.59
-225.24
-199.1
-173.95
-152.07
-133.67
-116.96
-99.04
-77.07
-49.25
-15.67
21.69
59.31
93.22
120.04
137.96
147.05
148.96
146.29
141.71
137.56
135.74
137.83
145.16
158.43
177.08
198.77
219.35
233.74
237.5
228.44
207.57
178.73
147.01
116.65
89.27
63.3
34.82
-0.36
-44.44
-96.19
-150.84
-201.28
-239.94
-260.62
-259.9
-237.99
-199.03
-150.98
-104.5
-70.68
-58.05
-69.68
-101.66
-144.01
-183.67
-208.46
-210.7
-188.79
-146.75
-92.11
-33.41
21.93
68.81
104.68
129.25
143.91
151.12
153.92
155.31
157.8
162.96
171.15
181.66
193.2
204.59
215.22
224.97
233.56
239.89
241.99
237.63
225.63
206.91
184.72
163.95
149.64
145.31
151.75
166.5
184.35
198.61
202.65
191.75
164.33
122.68
72.6
22.07
-20.75
-49.85
-62.93
-62.01
-52.56
-41.49
-34.77
-35.69
-44.29
-58.18
-74.08
-89.22
-101.87
-111.29
-117.23
-119.73
-119.43
-117.74
-116.65
-117.98
-122.31
-128.3
-132.97
-132.91
-125.68
-110.85
-89.99
-66.03
-42.33
-21.77
-6.46
2.54
5.16
2.34
-4.13
-12.09
-19.71
-26.2
-32.14
-39.17
-49.1
-62.82
-79.58
-97.08
-112.33
-122.94
-128.14
-129.14
-128.62
-129.77
-135.24
-146.52
-163.75
-185.68
-209.8
-232.48
-249.41
-256.44
-250.77
-231.96
-202.21
-165.71
-127.28
-90.91
-58.84
-31.46
-7.86
13.27
32.91
51.24
67.61
80.84
89.76
93.61
92.43
87.11
79.2
70.57
62.98
57.67
55.11
54.94
56.16
57.44
57.57
55.81
52.04
46.71
40.53
34.17
28.15
22.54
17.08
11.18
4.05
-4.97
-16.05
-28.63
-41.54
-53.29
-62.62
-69.03
-73.12
-76.58
-81.85
-91.26
-106.07
-125.67
-147.27
-166.62
-179.45
-183.08
-177.42
-164.83
-148.84
-132.52
-117.38
-103.29
-89.4
-75.22
-61.27
-48.8
-38.99
-32.17
-27.52
-23.45
-18.34
-11.28
-2.29
7.92
18.53
29.02
39.48
50.57
63.13
77.85
94.77
113.04
130.98
146.44
157.34
162.34
161.37
155.63
147.45
139.6
134.65
134.42
139.68
150.17
164.66
181.22
197.5
211.09
219.91
222.67
219.23
210.76
199.64
188.81
180.97
177.7
179.09
183.88
190.15
196.28
201.5
206.23
211.58
218.53
226.92
235.06
239.86
237.89
226.71
205.91
177.46
145.1
113.2
85.55
64.77
52.21
48.29
52.71
64.37
81.2
100.02
117.07
128.84
132.96
128.79
117.26
100.38
80.48
59.61
39.17
19.72
1.14
-17.41
-37.32
-60.38
-88.3
-122.18
-161.69
-204.35
-245.41
-278.41
-296.69
-295.51
-273.94
-235.71
-188.63
-142.52
-106.45
-86.46
-84.48
-98.57
-123.97
-154.2
-181.99
-199.98
-201.78
-183.62
-146.02
-94.58
-39.1
9.21
41.27
52.72
44.66
22.19
-8.02
-39.95
-69.18
-92.88
-109.54
-118.92
-122.49
-123.57
-126.64
-135.78
-152.82
-176.16
-201.15
-221.67
-232.36
-230.48
-216.67
-194.69
-170.1
-148.88
-136.14
-135.2
-147.15
-170.63
-201.86
-235.06
-263.41
-280.51
-281.87
-266.04
-234.79
-192.21
-143.12
-91.66
-40.58
8.62
54.92
97.24
134.32
165.2
189.71
208.63
223.24
234.61
243.21
248.74
250.73
249.2
244.94
239.38
233.89
229.15
224.79
219.7
212.72
203.34
192.06
180.12
168.87
159.1
150.71
142.89
134.7
125.6
115.77
105.95
97.01
89.49
83.44
78.4
73.53
67.7
59.51
47.43
30.32
8.19
-17.14
-41.83
-60.85
-69.41
-64.77
-47.29
-20.38
10.76
41.03
67.06
87.85
104.4
118.45
131.23
142.66
151.36
155.38
153.16
144.11
128.81
108.79
86.38
64.7
47.75
39.9
44.5
61.93
88.12
114.87
132.34
133.02
115.16
83.76
48.43
19.04
1.35
-5.24
-6.81
-11.83
-27.56
-57.63
-101.51
-155.4
-213.35
-268.35
-313.24
-341.98
-351.31
-342.22
-320.19
-293.58
-270.65
-256.37
-250.68
-249.02
-244.83
-232.67
-210.4
-179.76
-145.29
-112.5
-86.03
-68.52
-60.23
-59.26
-62.33
-65.71
-66.21
-61.82
-51.84
-36.55
-16.86
5.94
30.16
53.67
74.08
89.27
98.08
100.64
98.23
92.64
85.44
77.5
69.06
60.03
50.49
40.87
31.81
23.85
17.14
11.34
5.8
-0.13
-6.87
-14.5
-22.78
-31.44
-40.38
-49.77
-60.01
-71.3
-83.21
-94.28
-102.12
-103.94
-97.55
-82.13
-58.66
-29.57
2.17
34.04
64.69
93.96
122.43
150.73
178.99
206.68
232.8
256.32
276.46
292.73
304.9
312.91
316.75
316.45
311.87
302.6
288.05
267.58
240.98
208.9
173.11
136.31
101.62
71.9
49.13
34.07
26.23
24.09
25.52
28.38
31.08
32.98
34.43
36.33
39.49
43.98
48.94
52.77
53.61
49.98
41.01
26.59
7.4
-15.11
-38.67
-60.37
-76.98
-85.89
-85.7
-76.66
-60.34
-38.81
-13.9
12.96
40.2
65.23
84.08
92.16
85.94
64.86
32.31
-5.01
-39.04
-63.05
-73.79
-72.25
-62.88
-51.86
-45.03
-46.26
-56.77
-75.1
-98.04
-121.67
-142.52
-158.26
-168.03
-172.24
-172.21
-169.73
-166.55
-163.68
-160.88
-156.26
-146.77
-129.39
-102.79
-68.71
-32.17
-0.17
20.73
26.59
17.19
-4.75
-35.24
-70.5
-107.37
-142.59
-171.97
-190.44
-193.58
-179.62
-151.12
-114.66
-79.03
-52.53
-40.7
-45.47
-65.41
-96.83
-134.78
-173.78
-208.41
-233.75
-246.04
-243.16
-225.01
-193.53
-152.42
-106.66
-61.58
-21.92
9.29
31.31
45.86
56.35
66.74
80.23
98.29
120.49
144.72
168.09
187.51
200.46
205.13
200.58
186.89
165.13
137.45
106.84
76.67
49.95
28.72
13.75
4.58
-0.01
-1.56
-1.66
-1.79
-3.11
-6.16
-10.36
-13.8
-13.6
-6.85
8.19
31.3
60.34
92.1
123.5
152.46
178
199.67
216.92
228.84
234.37
232.88
224.32
209.2
188.27
162.41
133.02
102.4
73.94
51.46
37.96
34.3
38.51
46.31
52.41
52.33
43.67
26.72
4
-20.74
-43.92
-63.28
-78.64
-91.74
-105.37
-121.89
-141.97
-164.08
-185.09
-201.53
-211.13
-213.81
-211.55
-207.57
-205.02
-205.82
-209.92
-215.3
-218.53
-215.94
-204.88
-184.68
-156.9
-124.99
-93.27
-65.84
-45.74
-34.48
-31.94
-36.44
-44.93
-53.54
-58.36
-56.53
-47.15
-31.49
-12.43
6.68
23.24
36.12
45.68
53.2
60.17
67.53
75.42
83.2
89.74
93.82
94.57
91.73
85.86
78.22
70.37
63.6
58.44
54.38
50
43.64
34.02
20.92
5.21
-11.57
-27.95
-43.28
-57.99
-73.42
-91.18
-112.42
-137.01
-163.04
-186.79
-203.31
-207.55
-195.86
-167.3
-124.31
-72.37
-18.44
30.92
71.32
101.28
121.92
135.7
145
151.04
153.67
151.9
144.83
132.5
116.37
99.06
83.72
73.01
68.44
70.06
76.78
86.9
98.73
111.19
123.84
136.79
150.19
163.96
177.2
188.11
194.07
192.17
180.19
157.53
125.77
88.41
49.98
14.73
-14.43
-36.34
-51.27
-60.35
-64.8
-65.69
-63.64
-58.97
-51.61
-41.24
-27.58
-10.89
7.46
24.86
38.11
44.61
43.49
36.23
26.14
17.25
12.81
14.46
21.93
33.52
46.75
59.11
68.63
74.23
75.98
74.98
73.11
72.4
74.25
78.96
85.53
91.95
95.8
94.79
87.43
73.46
54.09
31.86
10.15
-7.56
-18.5
-21.09
-15.28
-2.64
13.6
28.84
37.75
35.57
19.65
-9.45
-47.74
-89.16
-127.51
-158.59
-181.17
-196.73
-208.03
-217.4
-225.76
-232.38
-235.51
-233.25
-224.17
-207.59
-183.56
-152.78
-116.7
-77.65
-38.8
-3.78
24.13
42.72
51.36
51.02
43.72
32
18.37
5.11
-5.84
-13.07
-15.86
-14.36
-9.44
-2.32
6.04
15.32
25.84
38.13
52.47
68.57
85.62
102.57
118.42
132.49
144.52
154.46
162.33
167.86
170.46
169.24
163.41
152.81
138.4
122.39
107.69
97.18
92.54
93.54
97.79
101.28
99.58
89.45
70.18
44.09
15.88
-8.82
-25.2
-30.3
-23.21
-4.84
22.38
54.44
85.79
109.81
120.19
112.76
86.81
45.15
-7.31
-65.5
-125.54
-184.6
-239.89
-287.66
-323.42
-343.34
-346
-333.27
-309.72
-280.78
-250.86
-222.25
-195.32
-169.44
-144.04
-119.14
-95.25
-72.87
-52.29
-33.49
-16.26
-0.45
14.03
27.1
38.47
47.51
53.16
54.17
49.38
38.27
21.07
-1.4
-27.96
-57.25
-87.35
-115.46
-137.93
-150.97
-152.25
-142.25
-124.78
-105.87
-91.61
-85.62
-87.78
-94.51
-100.66
-101.73
-95.59
-82.78
-65.73
-47.38
-30.07
-15.06
-2.72
7
14.23
19.09
21.84
23.08
23.65
24.34
25.44
26.46
26.26
23.51
17.37
7.94
-3.7
-15.86
-26.93
-35.98
-43.01
-48.76
-54.23
-60.12
-66.47
-72.65
-77.62
-80.34
-80.25
-77.41
-72.52
-66.8
-61.57
-57.84
-55.72
-54.1
-50.57
-42.07
-25.72
0.02
34.76
76.25
120.88
164.5
202.98
232.52
249.94
253.14
241.69
217.45
184.52
148.53
115.32
89.66
74.37
70.32
76.79
92.06
113.79
139.24
165.58
190.25
211.48
228.62
241.91
251.98
259.08
262.38
259.89
248.91
227.11
193.88
151.38
104.73
60.83
26.27
4.78
-4.46
-6.65
-9.58
-20.84
-45.33
-84.09
-134.38
-190.8
-246.58
-294.73
-329.11
-345.42
-342.21
-321.37
-287.76
-247.66
-206.89
-169.4
-137.16
-110.87
-91.05
-78.3
-72.82
-73.53
-77.63
-81.15
-80.12
-71.88
-55.8
-33.39
-7.69
17.31
37.31
48.45
48.23
36.37
15.34
-10.09
-34.25
-52.32
-61.71
-62.42
-56.23
-45.45
-31.68
-15.42
3.5
25
47.99
70.15
88.56
100.63
105.05
102.27
94.16
83.14
71.27
59.85
49.49
40.21
31.26
20.72
5.49
-17.82
-51.19
-93.42
-139.53
-181.95
-213.14
-228.3
-226.72
-211.25
-186.33
-156.04
-123.15
-89.41
-56.48
-26.42
-1.29
17.85
31.78
42.99
54.77
69.83
89.22
112.12
136.33
159.36
179.4
195.81
209.03
220.03
229.74
238.54
246.08
251.23
252.3
247.43
235.18
215.11
188.25
157.1
125.21
96.22
72.9
56.5
46.46
40.77
36.77
32.05
25.33
16.97
8.79
3.59
4.16
12.3
28.3
50.93
77.75
105.5
130.5
149.03
158.02
155.84
142.76
121
93.92
64.93
36.47
9.73
-15
-37.52
-57.13
-72.67
-83.01
-87.54
-86.67
-81.61
-73.98
-65.32
-56.7
-48.49
-40.48
-32.05
-22.86
-13.34
-4.86
0.5
0.86
-4.49
-14.43
-26.26
-36.87
-44.2
-48.45
-52.16
-59.28
-73.58
-97.06
-128.81
-164.94
-199.51
-226.41
-241.28
-243.07
-234.15
-219.2
-203.15
-189.16
-177.72
-167.09
-154.97
-140.35
-124.58
-111.09
-103.77
-105.05
-114.47
-128.67
-142.5
-150.89
-150.53
-140.6
-122.64
-99.33
-73.38
-46.72
-20.59
3.87
25.24
41.64
51.5
54.25
50.93
43.87
35.88
29.21
24.69
21.63
18.4
13.34
5.57
-4.57
-15.76
-26.37
-35.17
-41.9
-47.39
-53.28
-61.27
-72.38
-86.28
-101.02
-113.43
-120.07
-118.37
-107.51
-88.76
-64.93
-39.38
-14.93
6.84
25.67
42.06
56.66
69.67
80.88
89.8
96.17
100.12
102.25
103.34
104.07
104.87
105.79
106.72
107.53
108.19
108.72
109.21
109.69
110.19
110.75
111.46
112.37
113.29
113.82
113.32
111.16
106.98
100.68
92.39
82.34
70.73
57.84
44.24
30.94
19.31
10.75
6.2
5.73
8.45
12.76
16.97
19.87
21.37
22.55
25.49
32.59
45.77
65.95
92.78
124.66
158.98
192.32
220.71
240.35
248.59
244.94
231.46
212.31
192.28
175.17
162.69
154.44
148.96
145.01
142.42
141.97
144.47
149.64
155.49
158.61
155.11
142
118.2
84.96
45.54
4.22
-34.82
-68.53
-95.46
-115.69
-130.43
-141.56
-151.13
-160.94
-172.03
-184.09
-194.97
-200.87
-197.36
-181.19
-152.23
-114.59
-75.93
-45.08
-28.99
-30.1
-45.65
-69.04
-92.58
-110.21
-119.2
-119.93
-114.65
-105.85
-95.18
-83.16
-69.58
-54.11
-36.77
-18.13
0.54
17.4
30.3
37.32
37.46
31.21
20.65
8.81
-1.43
-8.61
-13.01
-16.14
-19.37
-22.82
-25.02
-23.62
-16.79
-4.32
12.2
30.16
47.15
61.95
74.61
85.87
96.28
105.59
112.71
116.13
114.48
107.02
93.82
75.95
55.47
34.9
16.53
1.36
-11.3
-23.64
-38.16
-56.38
-77.87
-100.33
-120.62
-135.98
-145.03
-147.91
-145.85
-140.65
-134.2
-128.35
-124.7
-124.24
-126.9
-131.39
-135.58
-137.22
-134.63
-127.12
-114.95
-98.86
-79.89
-59.13
-37.76
-16.92
2.54
20.38
37.17
53.97
71.91
91.49
112.05
131.59
147.05
155.05
152.81
139.05
114.54
82.05
45.68
9.73
-22.51
-49.5
-71.59
-90.49
-108.27
-126.49
-145.37
-163.69
-179.06
-188.74
-190.4
-183.01
-167.24
-145.33
-120.5
-95.88
-73.61
-54.35
-37.29
-21.01
-4.41
12.35
27.74
39.35
45.07
44.13
37.63
28.38
19.84
15.04
15.63
21.76
32.35
45.83
60.68
75.62
89.61
101.61
110.7
116.3
118.43
117.72
115.1
111.35
106.58
100.06
90.55
77.03
59.34
38.56
16.76
-3.63
-20.61
-33.3
-42.14
-48.81
-55.6
-64.77
-77.57
-93.69
-111.01
-125.87
-133.87
-130.86
-113.93
-82.29
-37.81
15.03
69.69
118.99
156.97
180.66
190.95
192.12
189.87
188.8
190.39
192.36
189.84
177.66
152.63
114.89
67.84
17.23
-30.17
-67.92
-91.05
-97.28
-87.77
-67.37
-43.34
-23.17
-11.96
-10.69
-16.29
-23.57
-28.05
-28.14
-25.88
-25.61
-31.71
-46.61
-69.77
-98.22
-127.81
-154.63
-175.91
-190.42
-198.2
-200.12
-197.42
-191.17
-181.85
-169.14
-151.96
-128.99
-99.36
-63.39
-22.75
19.74
60.95
98.24
129.93
155.34
174.42
187.48
195.08
198.25
198.42
197.16
195.56
193.68
190.42
184.03
173
156.7
135.69
111.4
85.78
60.9
38.76
20.94
8.19
-0.27
-7.03
-16.02
-31.09
-54.14
-83.94
-116.36
-146.07
-168.84
-183.14
-190.33
-193.31
-194.66
-195.26
-194.18
-189.69
-180.54
-166.99
-150.72
-134.06
-118.85
-105.63
-93.53
-80.73
-65.4
-46.56
-24.6
-1.32
20.7
38.87
51.38
57.61
58.09
53.99
46.68
37.27
26.59
15.33
4.3
-5.54
-13.19
-17.95
-19.57
-18.37
-15.17
-11.03
-7.07
-4.21
-2.97
-3.41
-5.18
-7.69
-10.48
-13.47
-17
-21.62
-27.71
-35.12
-43.05
-50.36
-55.89
-58.85
-59.05
-56.88
-53.16
-48.94
-45.26
-42.93
-42.43
-43.93
-47.39
-52.64
-59.35
-66.73
-73.34
-77.14
-75.9
-67.85
-52.35
-30.06
-2.59
28.16
60.62
93.76
126.76
158.54
187.45
211.42
228.47
237.41
238.05
231.18
218.15
200.46
179.63
157.14
134.45
112.82
93.04
75.02
57.94
40.67
22.53
3.9
-13.65
-27.83
-36.43
-38.08
-32.64
-21.07
-4.97
13.74
33.2
51.69
67.85
81.05
91.59
100.6
109.51
119.14
128.68
135.3
134.56
122
95.02
54.51
5.42
-44.15
-84.81
-108.32
-109.67
-88.24
-47.96
3.66
57.2
103.47
135.64
150.87
150.81
140.65
126.91
114.86
106.64
100.8
93.58
81
60.98
34.39
4.77
-23.07
-44.8
-57.8
-61.65
-57.77
-48.64
-37.01
-25.29
-15.29
-8.25
-4.99
-5.92
-10.94
-19.19
-29.11
-38.9
-47.21
-53.86
-59.79
-66.4
-74.61
-84.1
-93.47
-101.03
-105.89
-108.49
-110.2
-112.44
-115.76
-119.75
-123.67
-127.32
-131.68
-138.65
-149.98
-166.2
-185.88
-205.55
-220.56
-226.08
-218.4
-195.93
-159.81
-113.68
-62.94
-13.48
29.6
62.87
84.83
95.67
96.77
90.26
78.87
65.67
53.78
45.68
42.57
43.95
47.94
52.12
54.69
55.3
55.15
56.39
61.21
70.78
84.84
101.61
118.32
131.86
139.59
139.9
132.53
118.45
99.41
77.35
54.03
30.77
8.75
-10.84
-26.56
-37.06
-41.63
-40.74
-36.12
-30.22
-25.41
-23.21
-24.11
-27.95
-34.6
-44.43
-58.03
-75.24
-94.19
-111.06
-121.03
-120.38
-108.46
-88.6
-67.28
-51.83
-47.58
-56.11
-74.89
-98.67
-121.62
-139.19
-149.08
-150.96
-145.66
-134.43
-118.58
-99.57
-79.29
-60.14
-44.57
-34.48
-30.45
-31.43
-34.98
-38.08
-38.08
-33.45
-24.02
-10.67
5.3
22.75
40.92
59.33
77.49
94.64
109.66
121.45
129.36
133.69
135.8
137.69
141.27
147.61
156.63
167.26
178.13
188.05
196.27
202.12
204.7
202.67
194.71
180.31
160.25
136.63
112.29
89.91
71.19
56.65
45.67
36.91
28.67
19.37
8.04
-5.28
-19.45
-32.57
-42.7
-48.84
-51.32
-51.57
-51.33
-51.83
-53.42
-55.9
-59.07
-63.21
-68.88
-76.27
-84.65
-92.28
-97.01
-97.14
-91.96
-81.87
-67.9
-51.32
-33.37
-15.25
1.72
16.21
27.32
35.2
41.41
48.79
60.68
79.76
107.11
141.76
180.99
221.03
258.04
288.89
311.55
325.22
330.02
326.69
316.38
300.5
280.54
257.9
233.41
207.12
178.24
146.02
111.12
77.03
50.16
38.17
46.56
75.29
117.41
160.84
192.87
205.18
196.72
173.06
142.84
113.28
87.43
64.17
40.44
14.1
-14.47
-42.62
-67.15
-86.15
-100.08
-111.57
-124.08
-140.54
-162.25
-188.67
-217.86
-247.16
-273.65
-294.46
-307.1
-310
-303.31
-289.31
-272.1
-256.35
-245.59
-240.73
-239.51
-237.37
-229.46
-212.96
-188.7
-161.27
-137.47
-123.73
-123.6
-136.68
-159.09
-185.34
-210.64
-232.17
-249.12
-261.64
-269.79
-273.18
-271.57
-265.55
-257.18
-249.5
-245.49
-246.78
-252.47
-258.84
-259.83
-248.98
-222.16
-180.31
-130.66
-85.31
-57.33
-55.73
-81.86
-129.04
-185.51
-239.3
-282.13
-310.95
-326.52
-330.88
-325.31
-310.04
-285.44
-253.35
-217.49
-182.49
-152.06
-127.65
-108.3
-91.28
-73.73
-53.82
-31.3
-7.25
16.8
39.59
60.79
81.04
101.67
124.13
149.17
176.33
203.77
228.68
248.34
261.14
267.34
268.85
268.35
267.94
268.17
268.11
266.09
260.94
252.58
241.79
229.34
215.05
197.7
175.74
148.64
117.72
86.14
57.76
35.55
20.47
11.21
4.97
-1.25
-9.49
-20.3
-33.03
-46.5
-59.72
-72.13
-83.53
-93.62
-101.73
-106.83
-107.81
-103.8
-94.53
-80.21
-61.27
-38.17
-11.38
18.29
49.19
78.63
103.29
119.98
126.73
123.5
112.17
96
78.63
63.14
51.59
44.87
42.97
45.28
50.77
58.25
66.46
74.35
81.26
87.05
91.89
96.05
99.6
102.26
103.46
102.64
99.52
94.27
87.64
80.82
75.27
72.47
73.53
79.11
89.14
102.82
118.61
134.44
148.1
157.95
163.65
166.62
170.1
178.44
195.92
225.43
267.48
319.9
378.02
435.39
484.86
519.75
535.24
529.38
503.61
462.39
411.96
358.67
307.5
261.2
220.3
183.64
149.18
114.89
79.44
42.68
5.81
-29.2
-60.45
-87.01
-109.47
-129.75
-150.27
-173.11
-199.34
-228.89
-260.78
-293.46
-324.98
-353.2
-376.06
-392.17
-401.39
-405.29
-406.55
-407.87
-410.36
-412.53
-410.56
-399.73
-376.5
-340.07
-292.5
-237.7
-179.77
-121.96
-66.74
-16.62
25.37
55.95
72.85
76.3
69.42
57.44
45.7
37.77
34.47
34.3
34.93
34.74
33.8
33.57
35.87
41.47
49.16
55.69
56.82
48.61
28.59
-3.66
-46.65
-97.3
-151.47
-204.52
-252.1
-291.14
-320.77
-342.54
-359.54
-374.74
-389.26
-401.57
-408.18
-405.31
-390.78
-364.97
-330.49
-290.84
-248.99
-206.59
-164.12
-121.57
-79.11
-37.2
3.78
44.04
84.26
125
165.66
203.99
236.49
259.8
272.29
274.95
271.08
264.7
258.82
254.42
250.64
245.9
239.11
230.2
219.61
207.61
193.94
178.17
160.39
141.65
123.51
107.21
92.81
79.14
64.63
48.51
31.49
15.54
2.77
-5.7
-10.36
-13
-15.79
-20.4
-27.44
-36.4
-45.79
-53.49
-57.07
-54.31
-43.82
-25.51
-0.51
29.19
61.53
94.92
128.39
161.28
192.74
221.48
245.9
264.42
275.94
280.06
277.18
268.45
255.71
241.4
228.25
218.88
215.22
218.13
227.32
241.63
259.49
279.43
300.2
320.63
339.31
354.39
363.62
364.91
356.95
339.77
314.82
284.56
251.67
218.42
186.37
156.4
128.96
104.15
81.61
60.41
39.08
16
-9.9
-38.67
-69.36
-100.4
-130.38
-158.72
-185.83
-212.95
-241.69
-273.49
-309.14
-348.1
-388.02
-424.76
-453.31
-469.49
-471.76
-462.31
-446.43
-430.5
-419.17
-413.47
-410.52
-405.24
-392.8
-370.64
-339.13
-300.79
-258.83
-215.89
-173.64
-133.17
-95.44
-61.69
-33.18
-10.62
6.38
19.3
30.21
40.88
51.99
62.87
71.73
76.42
75.47
68.77
57.69
44.67
32.27
22.25
14.88
8.99
2.52
-6.56
-19.39
-35.94
-55.07
-74.9
-93.16
-107.5
-115.79
-116.66
-110.01
-97.26
-81.01
-64.18
-48.95
-36.11
-25.07
-14.66
-3.87
7.59
19.54
31.69
44.02
56.62
69.12
80.23
87.7
89.03
82.42
67.85
47.29
24.31
2.99
-13.23
-22.33
-24.14
-20.01
-12.36
-3.88
2.97
6.56
6.35
2.84
-2.67
-8.61
-13.78
-17.71
-20.75
-23.68
-27.19
-31.42
-35.9
-39.71
-41.98
-42.22
-40.6
-37.98
-35.76
-35.53
-38.7
-46.25
-58.23
-73.5
-89.68
-103.43
-111.26
-110.55
-100.4
-82.03
-58.37
-33.06
-9.24
11.17
27.69
40.83
51.38
59.93
66.66
71.58
74.7
76.21
76.45
75.81
74.72
73.5
72.52
72.05
72.3
73.34
75.02
77.04
78.92
80.12
80.12
78.67
75.8
71.89
67.58
63.51
60.19
57.88
56.57
56.04
55.97
56.04
56
55.78
55.54
55.61
56.38
58.1
60.66
63.61
66.15
67.33
66.34
62.67
56.51
48.88
41.67
37.16
37.45
43.54
54.93
69.72
85.4
99.92
112.49
123.65
134.54
145.99
157.62
167.93
174.88
176.86
173.52
165.89
156
146.17
138.18
132.81
129.66
127.41
124.2
118.16
108.06
93.77
76.52
58.66
42.88
31.14
23.59
18.18
11.07
-2.13
-24.72
-57.49
-98.18
-142.17
-184.09
-219.89
-248.25
-270.67
-290.2
-309.52
-329.39
-348.19
-362.87
-370.57
-370.07
-362.17
-349.01
-332.89
-315.26
-296.37
-275.68
-252.33
-225.62
-195.06
-160.47
-121.93
-80.01
-35.9
8.61
51.33
89.98
122.52
147.43
164.06
172.71
174.77
172.33
167.63
162.33
156.94
150.93
143.17
132.85
120.14
106.46
94.1
85.33
81.44
81.92
84.26
84.42
78
61.81
35.26
0.94
-35.97
-69.2
-93.52
-106.34
-108.31
-102.6
-93.51
-84.81
-78.75
-75.88
-75.48
-76.38
-77.48
-78.08
-77.97
-77.35
-76.78
-77.06
-79.07
-83.46
-90.25
-98.45
-105.94
-109.89
-107.51
-96.93
-77.91
-52.02
-22.14
8.32
36.49
60.62
80.29
96.21
109.62
121.8
133.69
145.73
157.84
169.39
179.16
185.35
185.81
178.59
162.6
138.17
107.29
73.26
39.87
10.56
-12.34
-27.91
-36.56
-39.66
-39.02
-36.44
-33.41
-30.95
-29.55
-29.29
-30.02
-31.52
-33.62
-36.23
-39.27
-42.66
-46.32
-50.15
-54.01
-57.87
-61.78
-65.98
-70.91
-77.05
-84.5
-92.65
-99.9
-103.87
-102.11
-92.96
-76.21
-53.25
-26.54
1.18
27.69
51.62
72.39
89.91
104.32
115.87
124.93
131.94
137.2
140.69
142.12
141.11
137.53
131.8
124.82
117.78
111.82
107.7
105.71
105.53
106.18
106.09
103.44
96.73
85.31
69.67
51.19
31.5
11.7
-7.96
-28.13
-49.71
-73.17
-98.1
-122.87
-144.89
-161.01
-168.35
-165.29
-152.38
-132.73
-111.65
-95.41
-89.54
-97.3
-118.92
-151.56
-190.13
-228.36
-260.02
-279.98
-285.18
-275.13
-251.96
-219.85
-183.75
-148.19
-116.18
-88.91
-66.07
-46.64
-29.59
-14.49
-1.55
8.64
15.53
19
19.57
18.37
16.9
16.73
19.08
24.63
33.49
45.13
58.55
72.4
85.24
95.75
103.13
107.29
109.03
109.75
110.98
113.76
118.25
123.66
128.69
131.98
132.74
130.86
126.84
121.39
115.18
108.56
101.65
94.38
86.63
78.26
69.13
59.11
48.11
36.4
24.66
14.1
6.29
2.74
4.36
11.02
21.37
33.28
44.55
53.74
60.85
67.23
75.03
86.11
101.15
119.18
137.86
154.31
165.98
171.26
169.59
161.17
146.45
125.8
99.55
68.24
33.01
-4.17
-40.61
-73.29
-99.56
-117.61
-126.84
-127.8
-121.9
-111.07
-97.45
-83.25
-70.54
-61.16
-56.34
-56.42
-60.73
-67.79
-75.76
-82.91
-88.01
-90.36
-89.71
-86.16
-80.08
-72.2
-63.52
-55.12
-47.71
-41.08
-33.93
-24.2
-9.94
9.56
33.11
57.79
79.98
96.79
107.07
111.65
112.54
111.66
109.83
106.55
100.59
91.05
78.07
63.1
48.51
36.84
30.18
29.72
35.5
46.4
60.12
73.31
82.08
82.71
72.68
51.48
20.94
-15.14
-52.02
-85.28
-111.83
-130.39
-141.25
-145.74
-145.44
-141.82
-136.08
-129.23
-122.16
-115.6
-110
-105.44
-101.71
-98.43
-95.25
-92.02
-88.73
-85.26
-81.2
-75.74
-67.77
-56.24
-40.62
-21.17
0.99
24.14
46.5
66.61
83.62
97.23
107.52
114.63
118.71
120
119
116.37
112.94
109.45
106.39
104.05
102.52
101.92
102.36
103.89
106.39
109.46
112.42
114.45
114.79
112.85
108.4
101.61
93.01
83.43
73.84
65
57.19
50.06
42.74
34.23
23.93
11.94
-0.74
-12.51
-21.59
-26.62
-26.89
-22.54
-14.4
-3.73
8.16
20.28
32.13
43.73
55.42
67.51
79.97
92.42
104.13
114.39
122.66
128.65
132.12
132.62
129.29
120.83
105.83
83.25
52.83
15.52
-26.53
-70.19
-111.86
-148.18
-176.76
-196.64
-208.48
-214.37
-217.14
-219.52
-223.27
-228.71
-234.69
-239.14
-239.84
-235.15
-224.42
-208.06
-187.15
-163.15
-137.57
-111.77
-87.07
-64.75
-46
-31.82
-22.87
-19.13
-19.83
-23.48
-28.05
-31.54
-32.49
-30.41
-26.06
-21.09
-17.47
-16.82
-19.7
-25.35
-31.82
-36.5
-36.84
-31.07
-18.66
-0.42
21.85
46
70.2
93.36
115.36
136.66
157.57
177.51
194.55
205.75
208.12
200.11
182.56
158.82
133.89
112.7
98.64
92.8
94.18
100.7
110.21
121.21
132.84
144.63
156.06
166.49
175.21
181.62
185.31
185.95
183.22
176.79
166.46
152.36
135.06
115.42
94.14
71.35
46.45
18.31
-14.17
-51.34
-92.41
-135.37
-177.55
-216.26
-249.44
-276.03
-295.91
-309.6
-317.79
-320.87
-318.71
-310.71
-296.26
-275.26
-248.58
-218.03
-185.89
-154.25
-124.37
-96.63
-70.83
-46.86
-25.12
-6.55
7.93
18.03
24.59
29.4
34.6
41.86
51.72
63.5
75.61
86.33
94.57
100.3
104.53
108.86
114.72
122.65
131.9
140.53
146.07
146.32
140.11
127.71
110.89
92.53
75.91
63.81
57.71
57.07
59.36
60.61
56.58
44.23
22.91
-5.34
-36.21
-64.45
-85.47
-96.61
-97.52
-89.73
-75.6
-57.27
-36.25
-13.62
9.37
30.9
48.74
60.96
66.86
67.33
64.59
61.18
58.89
57.94
57.02
53.94
46.59
33.96
16.55
-3.7
-24.09
-42.07
-56.03
-65.62
-71.44
-74.31
-74.58
-71.68
-64.43
-51.79
-33.6
-11.09
13.38
36.97
57.29
72.93
83.91
91.58
98.19
106.22
117.29
131.22
145.6
156.25
158.65
149.81
129.58
100.65
67.52
34.44
3.89
-23.95
-50.64
-78.43
-109.31
-144.18
-182.27
-220.65
-254.31
-277.08
-283.72
-272.08
-244.65
-208.15
-171.28
-141.76
-123.86
-117.68
-120.12
-126.74
-133.47
-137.47
-137.35
-132.84
-124.62
-114.22
-103.69
-94.95
-88.98
-85.32
-82.09
-76.74
-67.11
-52.46
-33.67
-12.76
8.18
28.01
47.15
67.33
90.52
117.89
148.99
181.78
213.09
239.52
258
266.29
263.05
248
221.92
186.68
145.06
100.4
55.96
14.47
-22.23
-53.35
-79.05
-100.27
-118.42
-134.94
-150.94
-166.94
-182.76
-197.71
-210.92
-221.5
-228.71
-231.98
-230.79
-224.75
-213.76
-198.3
-179.74
-160.41
-143.1
-130.19
-122.55
-119.03
-116.57
-111.2
-99.42
-79.23
-50.59
-15.16
24.14
63.56
98.74
125.18
139.2
139.28
127.15
107.97
89.08
77.45
77.11
87.31
102.65
114.72
114.96
97.53
61.19
9.83
-48.74
-104.86
-149.64
-177.1
-185.39
-176.87
-156.97
-132.38
-109.1
-90.99
-79.45
-74.1
-74.23
-79.94
-92.32
-112.53
-140.52
-174.03
-208.6
-238.59
-258.75
-265.33
-256.53
-232.35
-194.25
-145.14
-89.28
-32.14
20.55
64.07
95.98
116.64
128.72
135.83
141.18
146.57
152.24
157.42
161.11
162.75
162.58
161.46
160.45
160.4
161.57
163.57
165.56
166.55
165.62
161.94
154.75
143.45
127.86
108.67
87.66
67.49
50.83
39.36
32.91
29.47
25.96
19.48
8.35
-7.39
-26.34
-46.53
-66.23
-84.19
-99.44
-110.74
-116.37
-114.48
-104.11
-85.95
-62.33
-36.28
-9.99
16.2
43.6
73.59
105.64
136.2
159.57
170.42
166.6
150.74
129.32
110.04
98.68
97.31
104.43
116.64
130.58
144.04
155.74
164.5
168.47
165.33
153.23
131.82
102.91
70.03
37.32
8.28
-15.39
-34.04
-49.6
-64.4
-79.97
-96.42
-112.74
-127.99
-142.33
-157.53
-176.41
-201.59
-234.2
-273.16
-315.38
-356.37
-390.98
-414.05
-421.13
-409.41
-378.94
-333.21
-278.84
-223.93
-175.76
-138.73
-113.34
-96.71
-83.88
-69.57
-49.68
-22.35
11.78
49.79
87.44
120.62
146.76
165.61
179.1
189.86
199.49
207.26
210.13
204.15
186.53
157.28
119.58
78.68
40.12
8.08
-15.27
-29.33
-34.17
-29.89
-16.77
4.17
30.5
58.46
83.92
103.65
116.4
123.11
126.27
128.56
131.81
136.4
141.56
146.08
149.07
150.29
150.06
148.9
147.18
145.03
142.47
139.52
136.38
133.22
129.98
126.17
120.81
112.55
99.99
82.07
58.53
30.23
-0.84
-31.99
-60.48
-84.15
-101.89
-113.67
-120.35
-123.3
-124.14
-124.46
-125.65
-128.57
-133.28
-139
-144.31
-147.71
-148.17
-145.35
-139.49
-130.92
-119.6
-104.96
-85.93
-61.44
-30.92
5.37
46.04
88.77
130.67
168.78
200.57
224.34
239.52
246.73
247.81
245.59
243.34
243.74
247.6
252.96
255.18
248.17
226.36
186.84
130.64
62.93
-8.08
-73.1
-123.96
-155.68
-167.69
-163.92
-151.54
-138.65
-131.61
-133.12
-141.83
-153.58
-163.76
-169.34
-169.72
-166.05
-159.68
-150.74
-137.91
-119.34
-94.15
-63.59
-31.03
-0.8
23.23
38.59
44.27
39.93
25.19
-0.43
-36.59
-80.92
-128.41
-171.97
-204.42
-220.78
-219.98
-205.04
-181.84
-156.9
-135.35
-119.75
-109.97
-103.89
-98.44
-90.5
-77.7
-59.02
-35.2
-8.86
16
35
44.72
43.81
33.37
16.46
-3
-21.42
-36.42
-47.04
-53.45
-56.46
-57.09
-56.4
-55.27
-54.25
-53.15
-50.92
-45.7
-35.42
-18.61
4.8
33.35
64.37
94.86
122.38
145.58
164.34
179.52
192.54
204.79
217.01
228.76
238.3
242.95
240.23
228.99
210.11
186.13
160.24
134.93
111.51
90.24
71.18
54.92
42.59
35.39
33.74
36.96
43.42
51.28
59.06
66.01
71.98
77.15
81.69
85.67
88.97
91.21
91.71
89.57
83.81
73.66
58.81
39.64
17.19
-6.98
-31.3
-54.54
-76.21
-96.53
-115.97
-134.73
-152.18
-166.9
-177.12
-181.64
-180.51
-175.2
-168.01
-161.1
-155.53
-150.96
-145.97
-138.8
-128.2
-113.74
-95.76
-74.98
-52.04
-27.39
-1.51
24.75
50.05
72.77
91.44
105.35
114.72
120.66
124.64
128.05
131.64
135.53
139.36
142.71
145.46
147.82
150.33
153.29
156.51
159.09
159.69
157.12
150.98
141.93
131.39
120.89
111.11
101.59
90.93
77.66
60.99
41.23
19.62
-2.47
-23.94
-44.3
-63.46
-81.45
-98.32
-114.33
-130.13
-146.61
-164.34
-182.76
-199.84
-212.41
-217.26
-212.48
-198.25
-176.81
-151.54
-125.72
-101.62
-80.17
-61.41
-45
-30.81
-18.94
-9.67
-3.12
1.01
3.47
5.43
8.18
12.85
20.01
29.63
41.05
53.4
65.94
78.23
90.12
101.35
111.37
119.24
123.91
124.64
121.34
114.66
105.7
95.63
85.23
74.7
63.73
51.81
38.6
24.3
9.88
-3
-12.29
-16.15
-13.65
-5.4
6.28
17.59
24.19
22.44
10.73
-9.59
-34.17
-56.59
-70.32
-70.76
-56.87
-31.52
-0.42
30.06
55.03
72.54
83.67
91.31
98.57
107.53
118.63
131.1
143.6
154.92
164.17
170.81
174.48
175.21
173.49
170.13
165.66
159.55
149.72
133.13
107.17
71.36
28.28
-16.96
-58.33
-90.87
-112.22
-122.89
-125.6
-124.06
-121.98
-122.27
-126.69
-135.56
-147.77
-161.09
-172.93
-181.1
-184.42
-182.9
-177.33
-168.77
-158.23
-146.56
-134.48
-122.67
-111.79
-102.56
-95.75
-92.15
-92.2
-95.46
-100.13
-103.09
-100.54
-89.38
-68.32
-38.54
-3.29
33.32
67.64
97.43
121.96
141.53
156.77
168.28
176.59
182.35
186.2
188.55
189.14
187.03
181.03
170.58
156.32
140.14
124.33
110.47
98.53
87.09
74.23
58.82
41.34
23.53
7.35
-6.19
-17.59
-28.37
-40.12
-53.45
-67.89
-82.21
-95.26
-106.36
-115.32
-122.04
-126.27
-127.7
-126.44
-123.44
-120.46
-119.53
-122.01
-127.84
-135.25
-141.2
-142.48
-136.89
-124.15
-106.02
-85.61
-66.12
-49.68
-36.76
-26.55
-17.97
-10.52
-4.77
-1.8
-2.32
-5.88
-10.65
-14.23
-14.58
-10.9
-3.8
5.09
13.89
21.2
26.38
29.63
31.56
32.8
33.69
34.14
33.72
31.97
28.74
24.22
18.93
13.34
7.62
1.44
-5.8
-14.61
-24.91
-35.68
-44.82
-49.31
-45.78
-31.38
-4.83
32.68
77.11
121.99
159.77
183.76
189.85
177.42
148.99
109
62.22
12.7
-36.39
-82.48
-123.14
-156.23
-180.32
-195.37
-203.03
-206.23
-208.26
-211.53
-216.68
-222.23
-225.11
-221.66
-209.04
-186.4
-155.31
-119.38
-83.05
-50.17
-22.93
-1.6
14.95
28.3
39.64
49.64
58.47
66.28
73.49
80.79
89.01
98.73
110.03
122.38
134.78
146.04
155.29
162.32
167.64
172.19
176.79
181.69
186.51
190.5
193.07
194.14
194.17
193.75
193.24
192.42
190.62
186.98
180.79
171.67
159.65
145.17
128.89
111.75
94.56
77.8
61.44
45
27.89
9.89
-8.67
-26.93
-43.79
-58.31
-69.83
-77.88
-81.98
-81.61
-76.36
-66.29
-52.09
-34.82
-15.46
5.53
28.19
52.45
77.2
99.72
116.09
122.48
116.92
100.49
77.28
52.97
32.7
19.38
13.08
11.8
12.81
14.03
14.47
14.12
13.57
13.67
15.52
20.17
28.15
38.71
49.32
55.91
53.97
39.94
12.45
-27.18
-75.23
-126.28
-174.16
-212.93
-237.85
-246.51
-239.39
-219.82
-192.99
-164.15
-137.16
-113.89
-94.91
-80.73
-72.82
-73.29
-83.8
-103.93
-130.52
-158.26
-181.47
-195.97
-200.29
-195.75
-185.44
-173.03
-161.7
-153.67
-149.9
-150.21
-153.37
-157.47
-160.49
-160.85
-157.76
-151.25
-141.8
-130.02
-116.77
-103.11
-90.55
-80.72
-74.86
-73.15
-74.45
-76.57
-76.96
-73.65
-65.82
-53.84
-38.98
-22.73
-6.34
9.44
24.35
38.37
51.6
64.19
76.35
88.25
99.83
110.36
118.31
121.56
118.16
107.24
89.77
68.52
47.33
29.87
18.42
13.2
12.53
13.5
13
8.68
-0.47
-13.83
-29.23
-43.45
-52.99
-55.04
-48.36
-33.66
-13.47
8.68
29.25
45.74
57.11
63.84
67.39
69.47
71.52
74.28
77.9
82.06
86.3
90.15
93.14
94.75
94.33
91.33
85.53
77.37
67.9
58.51
50.41
44.12
39.42
35.56
31.78
27.71
23.4
19.15
15.14
11.26
7.11
2.28
-3.43
-9.86
-16.63
-23.27
-29.4
-34.89
-39.74
-44
-47.69
-50.76
-53.11
-54.67
-55.46
-55.55
-55.09
-54.31
-53.58
-53.28
-53.56
-53.97
-53.36
-49.81
-41.21
-25.88
-3.24
25.86
59.36
94.38
127.92
157.32
180.74
197.31
207.26
211.87
213.35
214.36
217.55
224.71
236.17
250.21
263.25
270.52
267.53
251.64
223.21
185.66
144.2
103.81
67.27
34.43
2.91
-30.13
-66.21
-104.65
-142.91
-177.79
-206.83
-228.92
-244.3
-253.92
-258.78
-259.62
-256.96
-251.26
-243.05
-232.99
-221.76
-210.07
-198.65
-188.25
-179.7
-173.87
-171.5
-172.84
-177.25
-182.81
-186.41
-184.25
-172.94
-150.67
-118.03
-77.99
-34.99
6.36
42.65
72.3
95.47
113.51
128.01
140.18
150.58
159.24
165.94
170.63
173.58
175.39
176.79
178.4
180.54
183.2
186.17
189.21
192.22
195.09
197.65
199.57
200.29
199.23
195.89
189.82
180.58
167.68
150.61
129.04
103.22
74.15
43.56
13.58
-13.82
-37.15
-55.55
-68.54
-75.73
-76.65
-70.98
-58.89
-41.61
-21.53
-1.99
13.38
21.41
20.2
9.47
-9.23
-32.7
-56.57
-76.14
-87.41
-88.26
-79.08
-62.79
-43.84
-26.77
-14.77
-8.77
-7.58
-8.74
-9.79
-9.23
-6.83
-3.34
0.11
2.64
3.94
4.17
3.91
3.98
5.5
9.75
17.94
30.75
47.63
66.56
84.25
97.13
102.57
100.03
91.37
80.24
70.75
65.96
66.67
71.01
74.85
73.02
60.74
35.08
-4.12
-54.05
-109.27
-162.71
-207
-236.01
-246.41
-238.76
-217.72
-191.01
-167.24
-153.14
-151.39
-159.75
-172.21
-181.45
-181.8
-171.29
-152.14
-129.7
-110.36
-99.34
-99.18
-109.16
-125.83
-144.18
-159.1
-166.6
-164.56
-152.91
-133.27
-108.41
-81.54
-55.75
-33.54
-16.42
-4.73
2.36
6.48
9.54
13.18
18.23
24.71
31.92
38.83
44.53
48.5
50.68
51.41
51.25
50.78
50.52
50.77
51.52
52.44
52.88
52.1
49.53
45.07
39.22
32.97
27.35
22.98
19.81
17.08
13.65
8.4
0.57
-10.05
-23.04
-37.34
-51.17
-62.17
-67.82
-65.96
-55.58
-37.17
-12.65
15.24
43.79
70.92
95.48
116.92
134.88
148.9
158.37
162.75
161.91
156.32
147.08
135.73
123.8
112.62
103.03
95.46
90.05
86.64
84.89
84.14
83.37
81.26
76.45
67.84
54.93
38.19
19.12
0.2
-15.5
-25.18
-27.35
-22.73
-14.61
-8.03
-8.22
-18.62
-39.62
-68.52
-100.66
-131.31
-157.18
-177.01
-191.22
-201.06
-207.76
-212
-213.8
-212.37
-206.2
-193.17
-171.17
-139.06
-97.62
-49.95
-1.05
43.47
78.95
102.67
114.21
114.72
106.19
90.69
70.17
46.72
22.72
0.89
-16.17
-26.57
-29.59
-25.82
-16.77
-4.32
9.8
24.34
38.48
51.57
62.85
71.46
76.61
77.87
75.44
70.16
63.22
55.78
48.52
41.62
34.87
28.02
21.08
14.4
8.58
4.12
1.23
-0.24
-0.67
-0.42
0.33
1.48
2.84
3.83
3.43
0.33
-6.66
-18.24
-34.22
-53.26
-72.96
-90.03
-100.98
-102.87
-94.12
-75.12
-48.23
-17.17
13.97
41.71
63.85
79.56
89.06
93.27
93.41
90.92
87.37
84.3
83.01
84.29
88.27
94.39
101.69
109.17
116.2
122.79
129.46
136.91
145.44
154.64
163.26
169.57
171.82
168.88
160.51
147.47
131.41
114.62
99.57
88.29
81.71
79.14
78.28
75.76
68.2
53.29
30.62
1.75
-30.35
-62.27
-91.17
-115.61
-135.86
-153.74
-171.95
-193.16
-219.06
-249.53
-282.37
-313.51
-337.93
-350.77
-348.6
-330.35
-297.56
-254.03
-204.75
-154.71
-107.81
-66.3
-30.69
-0.17
26.79
51.74
75.79
99.33
122.02
142.97
161.23
176.1
187.55
196.3
203.62
210.93
219.29
229.11
239.96
250.84
260.65
268.73
275.14
280.81
287.12
295.35
305.93
317.89
328.74
335.11
333.76
322.92
303.14
277.47
250.54
227.06
210.1
200.13
194.97
190.91
184.21
172.58
155.72
134.77
111.39
86.62
60.32
31.52
-0.84
-37.28
-77.46
-120.18
-163.27
-203.4
-236.27
-257.51
-264.54
-258.33
-244.17
-230.27
-224.53
-231.1
-248.36
-269.64
-286.33
-291.67
-283.4
-263.95
-238.6
-212.78
-190.03
-171.45
-156.46
-144.05
-133.73
-125.91
-121.43
-120.79
-123.54
-128.18
-132.46
-134.11
-131.57
-124.38
-113.24
-99.59
-85.21
-71.79
-60.77
-53.22
-49.93
-51.38
-57.47
-67.37
-79.27
-90.55
-98.48
-101.16
-98.39
-91.89
-84.82
-80.47
-81.12
-87.22
-97.49
-109.58
-120.88
-128.98
-131.87
-127.83
-115.84
-96.06
-70.27
-41.79
-14.56
8.25
25.35
37.65
47.48
57.25
68.05
79.26
89.01
95.23
96.84
94.12
88.49
81.69
75.13
69.41
64.54
60.29
56.61
53.69
51.82
51.1
51.28
51.86
52.35
52.51
52.39
52.26
52.34
52.69
53.16
53.63
54.06
54.67
55.82
57.81
60.71
64.38
68.52
72.81
77.05
81.11
84.86
88.05
90.35
91.36
90.75
88.35
84.24
78.86
73.08
68.24
65.91
67.46
73.53
83.81
96.95
110.87
123.12
131.37
133.85
129.75
119.53
104.92
88.54
73.15
60.74
51.91
45.77
40.71
35.12
28.29
20.48
12.6
5.61
0.04
-4.22
-7.7
-11
-14.57
-18.49
-22.5
-26.28
-29.68
-32.9
-36.41
-40.73
-46.05
-52.11
-58.28
-63.85
-68.46
-72.28
-75.91
-80.12
-85.36
-91.55
-98.13
-104.35
-109.74
-114.48
-119.33
-125.4
-133.62
-144.35
-157.16
-171.01
-184.6
-196.7
-206.28
-212.51
-214.65
-212.17
-204.95
-193.48
-178.97
-163.14
-147.74
-133.9
-121.85
-110.94
-100.19
-88.85
-76.84
-64.68
-53.05
-42.23
-31.67
-20.1
-6.15
10.95
30.86
52.19
73.05
91.82
107.66
120.47
130.42
137.52
141.33
141.24
136.91
128.71
117.62
104.72
90.48
74.63
56.57
36.29
15.15
-4.24
-18.91
-26.86
-28.12
-24.86
-20.38
-17.69
-18.33
-22.04
-27.3
-32.42
-36.47
-39.83
-43.97
-50.87
-62.19
-78.45
-98.5
-119.36
-136.62
-145.57
-142.7
-127.08
-101.04
-69.69
-39.27
-15.13
0.01
6.64
7.84
7.67
9.57
15.31
24.83
36.88
49.84
62.3
73.18
81.7
87.34
89.93
89.91
88.39
86.97
87.05
89.1
92.24
94.3
92.5
84.33
68.27
44.26
13.72
-20.71
-55.53
-86.88
-111.2
-125.82
-129.54
-122.85
-107.71
-86.91
-63.43
-39.68
-17.27
3.01
20.78
35.7
47.11
54.05
55.49
50.88
40.74
26.93
12.38
0.45
-6.02
-5.55
1.66
14.03
29.26
45.27
60.69
75.03
88.43
101.17
113.39
125.03
136.05
146.4
155.81
163.36
167.26
165.18
155.2
136.96
112.3
84.96
59.34
38.96
25.46
18.42
16.11
16.59
18.2
19.79
20.41
19.13
15.23
8.49
-0.51
-10.6
-20.37
-28.75
-35.29
-40.1
-43.69
-46.65
-49.54
-52.77
-56.42
-60.11
-63.06
-64.5
-64.27
-63.4
-64.25
-69.79
-82.57
-103.48
-131.02
-161.45
-189.69
-210.72
-220.81
-218.42
-204.58
-182.62
-157.48
-134.59
-118.59
-112.33
-116.47
-129.63
-149.1
-171.53
-193.49
-211.76
-223.68
-227.43
-222.4
-209.37
-190.24
-167.48
-143.29
-119.11
-95.42
-72.02
-48.47
-24.51
-0.19
24.03
47.39
68.9
87.69
103.16
115.24
124.36
131.23
136.57
140.94
144.65
147.83
150.22
151.06
149.05
142.63
130.65
113.04
91.19
67.71
45.61
27.25
13.63
4.33
-2.02
-7.03
-11.92
-17.12
-22.16
-25.73
-25.92
-20.68
-8.33
11.86
39.32
72.34
108.42
144.99
179.95
212.03
240.89
266.99
291.4
315.46
340.24
365.97
391.49
414.28
430.89
437.97
433.24
416.28
388.56
352.99
312.99
271.5
230.51
190.92
152.81
115.92
80.04
45.02
10.71
-23.21
-57.22
-91.87
-127.59
-164.75
-203.63
-244.43
-286.87
-329.64
-369.9
-403.5
-425.99
-434.07
-426.93
-406.54
-376.9
-342.56
-307.23
-273.29
-242.14
-215.07
-193.66
-179.55
-173.48
-174.34
-178.68
-181.3
-176.58
-160.29
-130.96
-90.41
-43.12
5.16
49.11
85.12
111.83
129.78
140.57
145.92
147.03
144.47
138.53
129.7
119.05
108.2
98.83
92.01
87.6
84.13
79.34
71.16
58.82
43.4
27.54
14.56
7.1
6.15
10.73
18.36
25.88
30.4
29.89
23.48
11.44
-4.93
-23.52
-41.71
-56.82
-66.61
-69.8
-66.26
-57.14
-44.35
-30.18
-16.71
-5.5
2.53
7.04
8.13
6.38
2.89
-0.62
-1.97
1.03
9.86
24.72
44.24
65.84
86.53
103.69
115.79
122.41
124.03
121.57
116.12
108.8
100.86
93.67
88.51
86.35
87.55
91.83
98.4
106.24
114.5
122.75
131.11
140.08
150.09
161.02
171.83
180.64
185.46
184.88
178.86
168.73
156.58
144.41
133.4
123.64
114.4
104.67
93.59
80.69
66.1
50.44
34.83
20.5
8.55
-0.43
-6.36
-9.65
-11.06
-11.71
-13.22
-17.6
-26.93
-42.59
-64.53
-90.86
-118.34
-143.31
-162.83
-175.33
-180.71
-179.96
-174.51
-165.82
-155.02
-142.58
-128.05
-109.9
-85.84
-53.49
-11.55
39.33
96.25
154.56
208.88
254.28
287.15
305.42
308.63
297.56
274.07
240.97
201.74
160.18
119.64
82.47
49.47
19.92
-8.04
-36.59
-67.58
-101.93
-139.66
-179.95
-221.43
-262.19
-299.75
-331.39
-354.68
-368.69
-374.62
-375.78
-376.14
-378.33
-381.9
-383.34
-377.69
-361.24
-333.61
-297.93
-259.13
-221.19
-185.13
-148.67
-107.73
-58.75
-0.52
65.26
134.91
204.2
269.47
327.88
376.85
413.52
434.64
437.42
420.74
386.26
338.4
283.35
227.23
174.22
125.69
80.5
36.52
-7.72
-51.87
-93.67
-129.91
-157.66
-175.5
-183.88
-184.96
-181.91
-178.2
-176.8
-179.8
-187.95
-200.47
-215.28
-229.54
-240.72
-247.53
-250.62
-252.22
-255.34
-262.55
-274.93
-291.42
-308.72
-321.85
-325.15
-313.94
-286.37
-244.89
-196.45
-150.93
-117.95
-103.3
-106.48
-120.62
-134.94
-138.52
-124.05
-89.83
-39.75
18.57
76.25
125.44
160.9
180.73
186.42
182.18
173.77
167.06
166.41
173.56
187.46
204.85
221.69
234.96
244.02
251.08
260.43
276.56
301.72
333.95
366.77
390.84
397.24
381.11
343.84
292.76
238.45
190.71
155.08
131.38
114.77
98.66
77.84
50.33
17.28
-18.71
-55.79
-94.28
-136.37
-184.51
-239.31
-298.13
-355.12
-402.76
-433.97
-443.82
-430.48
-395.39
-343.31
-281.98
-221.22
-171.16
-139.62
-129.73
-138.87
-159.69
-182.93
-200.76
-209.03
-207.51
-198.56
-184.9
-168.27
-149.12
-127.11
-101.82
-73.13
-41.19
-6.35
30.38
66.92
99.55
123.2
132.57
124.01
97.32
56.74
10.31
-32.05
-61.34
-71.96
-63.18
-38.83
-5.78
28.42
57.71
78.79
91.28
96.95
98.26
97.23
94.74
90.58
83.9
73.76
59.45
40.63
17.58
-8.53
-35.31
-59.18
-76.07
-82.6
-77.3
-61.29
-37.88
-11.43
14.1
36.14
53.68
66.72
75.61
80.61
82.05
80.82
78.72
78.33
82.39
92.64
108.89
128.66
147.67
161.19
165.58
159.47
144.09
122.54
98.62
75.53
55.25
38.47
25.22
15.38
9.08
6.69
8.48
14.21
23
33.42
43.99
53.58
61.81
69.08
76.28
84.37
94.04
105.54
118.79
133.49
149.24
165.36
180.6
193
200.1
199.63
190.65
174.21
153.48
132.77
116.18
106.09
102.61
103.91
107.47
111.57
116.31
123.62
136.32
156.59
184.72
218.34
252.78
282.06
300.44
303.83
291.01
264.25
229.07
193.23
164.79
149.62
149.28
160.41
175.69
186.56
186.53
173.53
150.46
123.52
99.24
81.56
70.44
62.52
53.26
39.56
21.08
0.02
-20.61
-39.03
-55.88
-73.87
-96.12
-124.37
-158
-194.2
-229.13
-259.14
-281.48
-294.61
-298.39
-294.45
-286.32
-278.9
-277.03
-283.42
-297.04
-312.96
-324.19
-324.93
-313.51
-293.61
-272.93
-260
-260.66
-276
-302.31
-332.74
-359.68
-376.61
-379.05
-364.67
-332.98
-284.98
-223.12
-151.3
-75.26
-2.25
59.9
104.35
127.33
129.61
116.62
96.66
78.11
66.5
63.19
65.98
71.21
76.01
79.4
82.2
85.86
91.36
98.76
107.45
116.86
126.74
137.39
149.3
162.56
176.35
188.6
196.41
196.94
188.5
171.39
147.91
121.45
95.2
70.98
49.07
29.16
12.13
1.37
2.47
21.1
59.37
113.05
171.29
219.48
244.28
238.58
204.27
151.49
94.99
48.69
21.06
12.92
17.94
25.58
25.12
9.33
-22.98
-66.33
-110.04
-141.62
-151.03
-134.43
-95.88
-46.12
0.92
32.51
40.94
25.27
-8.98
-52.06
-93.24
-123.88
-139.59
-141.12
-133.57
-124.31
-120.08
-124.55
-137.24
-154.44
-171.48
-185.2
-195.01
-202.38
-209.41
-217.65
-227.77
-239.96
-254.05
-269.1
-282.59
-290.27
-287.23
-269.99
-238.81
-198.41
-156.87
-122.7
-101.71
-95.01
-98.73
-105.51
-106.64
-94.62
-65.6
-21.19
31.02
79.16
110.86
117.99
99.99
64.2
22.63
-13.08
-35.76
-44.11
-40.77
-29.16
-11.04
13.56
44.66
80.33
116.21
146.82
167.94
178.31
179.81
176.38
171.98
169.04
167.69
165.95
160.81
149.48
130.54
104.61
74.35
43.72
16.91
-2.88
-14.16
-17.21
-13.59
-5.32
5.42
16.6
26.33
32.97
35.29
32.83
26.14
16.63
6.17
-3.46
-11.18
-16.89
-21.25
-25.02
-28.42
-30.69
-30.46
-26.65
-19.58
-11.41
-5.59
-5.39
-12.33
-25.45
-41.76
-57.68
-70.65
-79.89
-86.24
-91.3
-96.56
-103.09
-111.86
-124.23
-141.79
-165.7
-195.62
-229.19
-262.13
-289.28
-306.09
-309.78
-300.02
-278.68
-249.28
-216.01
-182.68
-152.07
-125.45
-102.78
-83.37
-66.77
-53.31
-43.8
-38.77
-37.58
-38.01
-36.79
-30.82
-18.17
1.52
27.34
58.04
92.59
130.27
170.2
210.67
248.79
280.67
302.19
310
302.78
281.84
251.29
216.98
184.99
159.92
143.77
136
134.48
136.81
141.29
147.12
153.82
160.63
166.24
169.08
167.87
162.04
151.77
137.51
119.42
97.11
69.89
37.64
1.53
-35.82
-71.14
-101.81
-126.89
-147.32
-164.88
-180.88
-195.24
-206.87
-214.96
-220.35
-226.03
-235.95
-253.13
-277.82
-306.89
-334.71
-355.03
-362.74
-355.15
-332.15
-295.81
-249.47
-196.88
-141.51
-86.17
-32.92
16.91
62.57
103.92
141.63
177.22
212.65
249.25
286.53
321.72
350.26
367.64
371.36
362.23
344.05
322.04
300.76
282.8
268.59
257.29
247.61
238.4
228.23
214.92
195.53
167.26
128.96
82.32
32.01
-15.58
-54.44
-81.1
-95.74
-101.71
-104.08
-107.56
-115.03
-126.94
-141.68
-156.41
-167.99
-173.77
-172
-162.29
-145.67
-124.47
-101.59
-79.53
-59.38
-40.26
-19.7
5.2
36.14
72.16
109.13
140.67
160.09
162.76
147.74
118.1
79.75
39.53
3.56
-23.69
-39.63
-43.37
-35.8
-19.52
1.27
21.72
37.46
45.8
46.28
40.44
30.97
20.79
12.37
7.1
4.89
3.87
0.51
-9.51
-29.74
-61.31
-101.86
-145.8
-185.92
-215.52
-230.36
-229.5
-214.93
-190.33
-159.74
-126.44
-92.58
-59.29
-27.16
3.4
32.06
58.53
82.56
103.91
122.28
137.33
148.95
157.63
164.51
171.07
178.56
187.27
196.14
203.03
205.28
200.67
188.11
168
142.29
114.04
86.69
63.09
44.7
31.07
20.23
9.66
-2.51
-16.45
-30.63
-42.55
-50.09
-52.48
-50.8
-47.37
-44.91
-45.47
-49.86
-57.68
-67.72
-78.59
-89.2
-99.09
-108.63
-118.75
-130.49
-144.22
-158.95
-172.09
-179.97
-179.03
-167.25
-145.09
-115.52
-82.98
-51.78
-24.84
-3.01
14.6
29.7
43.96
58.44
73.5
89.1
104.95
120.76
136.24
151.09
165.01
177.8
189.49
200.39
211.06
222.04
233.59
245.49
256.95
266.79
273.95
277.91
279.1
278.74
278.39
279.09
280.48
280.5
275.6
262.06
237.34
201.44
157.35
110.29
66.24
30
3.88
-12.76
-22.86
-30.44
-39.13
-51.15
-66.75
-84.24
-100.5
-111.93
-115.51
-109.91
-96.13
-77.33
-57.93
-42.22
-32.96
-30.73
-34.2
-40.99
-48.87
-56.39
-62.85
-67.79
-70.59
-70.37
-66.58
-59.65
-51.34
-44.29
-40.92
-42.31
-47.54
-54.06
-58.84
-59.65
-55.95
-48.84
-40.31
-32.12
-25.04
-18.77
-12.35
-4.8
4.43
15.28
27.21
39.35
50.73
60.39
67.61
72.15
74.38
75.03
74.78
73.56
70.27
62.88
49.03
26.57
-5.73
-47.71
-97.11
-149.04
-196.19
-230.07
-243.5
-233.35
-202.33
-158.53
-112.84
-75.18
-51.34
-41.73
-42.52
-48.21
-54.11
-57.77
-58.9
-58.25
-56.56
-53.81
-49.05
-40.53
-26.08
-3.69
27.86
67.96
113.52
159.01
197.46
222.4
229.89
219.86
196.04
164.68
132.59
105.47
86.92
78.02
77.3
81.02
83.85
80.3
66.7
42.81
12.2
-19.11
-45.34
-63.63
-75.36
-85.39
-99.89
-123.71
-158.64
-202.93
-251.83
-298.73
-336.22
-357.45
-357.47
-334.7
-291.89
-235.88
-176.03
-121.68
-79.63
-52.63
-39.35
-35.66
-36.34
-36.87
-34.53
-28.79
-21.1
-14.13
-10.79
-13.1
-21.45
-34.46
-49.29
-62.54
-71.19
-73.26
-68.09
-56.27
-39.5
-20.31
-1.8
12.86
21.2
22.14
16.49
6.78
-3.47
-10.89
-13.27
-10.21
-3.22
4.8
10.17
9.44
0.31
-17.62
-42.52
-70.7
-97.62
-119.38
-133.86
-141.15
-142.96
-141.27
-137.19
-130.41
-119.84
-104.83
-86.34
-67.11
-50.75
-40.1
-35.95
-36.6
-38.72
-38.86
-34.75
-26.01
-13.78
0.22
14.48
28.15
40.91
52.66
63.26
72.49
80.18
86.29
90.95
94.48
97.43
100.53
104.62
110.3
117.65
125.98
133.99
140.15
143.36
143.43
141.18
138.11
135.82
135.35
136.96
140.06
143.62
146.71
148.85
150.21
151.64
154.32
159.51
168.1
180.1
194.16
207.27
214.99
212.37
195.28
161.89
113.43
54.16
-9.88
-72.39
-128.19
-174.05
-208.7
-232.49
-246.76
-253.31
-253.82
-249.34
-240.18
-225.93
-206.21
-181.44
-153.35
-124.89
-99.42
-79.54
-66.12
-57.87
-51.82
-44.37
-32.44
-14.33
9.93
38.73
69.32
98.49
123.25
141.53
152.8
158.25
160.36
161.76
163.92
166.24
166.37
161.35
149.32
130.53
107.29
82.79
59.67
39.23
21.62
6.87
-4.33
-10.47
-9.86
-1.84
12.52
30.49
48.57
63.71
74.23
80.05
82.28
82.33
81.09
78.53
73.77
65.64
53.29
36.58
16.11
-7.09
-31.64
-55.86
-77.37
-93.19
-100.18
-96.35
-82.11
-61.05
-39.35
-23.94
-20.16
-29.84
-50.96
-78.71
-107.39
-132.2
-150.09
-159.64
-160.5
-153.08
-138.56
-119.1
-97.71
-77.62
-61.4
-50.15
-43.34
-39.29
-36.05
-32.16
-27.11
-21.27
-15.54
-10.96
-8.53
-8.97
-12.74
-19.81
-29.47
-40.31
-50.3
-57.14
-58.72
-53.59
-41.23
-22.42
0.7
24.83
46.06
60.85
67.08
64.61
55.2
41.74
27.04
12.9
-0.23
-12.96
-26.28
-41.13
-58.1
-77.4
-98.59
-120.3
-139.96
-154.06
-159.07
-152.55
-134.08
-105.5
-70.31
-32.48
4.55
38.53
68.43
94.09
115.79
134.1
149.59
162.9
174.51
184.66
193.2
199.76
203.99
205.83
205.78
204.83
204.14
204.65
206.73
210.02
213.53
215.95
215.9
212.12
203.6
189.6
169.86
144.7
115.21
83.25
51.44
23.17
2.34
-7.09
-2.28
17.11
47.59
81.75
109.82
122.51
114.1
84.47
38.87
-14.22
-66.07
-110.33
-144.16
-167.72
-182.83
-191.75
-196.22
-197.35
-195.61
-190.92
-182.9
-171.25
-156.3
-139.44
-123.04
-109.84
-102.03
-100.54
-104.76
-112.91
-122.6
-131.41
-137.24
-138.62
-134.85
-126.37
-114.89
-103.17
-94.24
-90.38
-92.1
-97.91
-104.8
-109.27
-108.59
-101.62
-88.88
-72.05
-53.18
-33.88
-14.93
3.8
23.02
43.52
65.68
89.28
113.35
136.48
157.19
174.52
188.39
199.68
209.75
219.58
228.67
234.61
233.41
220.56
192.55
148.18
89.37
21.22
-48.68
-111.63
-159.71
-187.6
-194.03
-182.03
-157.87
-128.99
-101.69
-79.48
-62.91
-50.36
-39.55
-28.63
-16.61
-3.22
11.5
27.32
43.82
60.22
75.53
88.65
98.71
105.41
109.08
110.63
111.23
111.87
112.89
113.92
114.01
112.15
107.67
100.27
89.87
76.15
58.4
35.82
8.14
-23.82
-58.15
-92.29
-123.73
-150.47
-170.98
-183.97
-188.38
-184.01
-172.35
-157.18
-143.97
-138.29
-143.43
-158.85
-179.93
-199.58
-210.92
-209.87
-196.65
-175.74
-154.28
-139.6
-136.85
-147.18
-167.36
-190.94
-210.32
-219.18
-214.24
-195.86
-167.11
-132.37
-95.73
-60.15
-27.37
1.76
26.91
48.14
65.93
81.21
95.01
108.15
120.79
132.42
142.1
148.94
152.53
153.19
151.89
149.9
148.45
148.21
149.08
150.11
149.79
146.59
139.57
128.67
114.69
98.72
81.55
63.26
43.3
21.07
-3.43
-29.09
-53.83
-75.19
-91.14
-100.75
-104.43
-103.57
-99.79
-94.19
-86.88
-77.1
-63.7
-46
-24.41
-0.71
22.46
42.33
56.92
65.59
69.07
69.06
67.42
65.51
63.88
62.33
60.4
57.87
54.9
51.96
49.42
47.41
45.85
44.83
44.97
47.28
52.65
61.23
71.98
82.84
91.36
95.58
94.65
89.03
80.13
69.69
59.01
48.5
37.52
24.66
8.4
-12.14
-36.63
-63.32
-89.26
-110.92
-124.9
-128.59
-120.53
-100.59
-70.14
-31.96
9.91
50.78
86.06
112.27
127.87
133.58
132.16
127.49
123.53
123.21
127.89
137.2
149.43
162.16
172.95
179.89
181.87
178.82
171.63
161.94
151.76
142.75
135.61
129.49
122.14
110.67
92.93
68.85
41
14.1
-6.55
-17.07
-16.31
-6.04
10.22
28.79
47.31
65.22
83.24
102.33
122.85
144.07
164.41
181.89
194.57
200.75
199.23
189.56
172.26
148.92
121.83
93.34
65.01
37.34
9.97
-17.49
-44.68
-70.26
-92.5
-110.29
-123.95
-135.16
-146.15
-158.48
-172.35
-186.67
-199.9
-211.08
-220.35
-228.76
-237.66
-247.9
-259.51
-271.77
-283.45
-292.8
-297.37
-294.12
-280.02
-253.4
-215.55
-171.35
-128.71
-96.21
-80.41
-83.38
-102.02
-129.14
-155.92
-174.6
-180.48
-172.7
-153.84
-128.81
-103.45
-83
-71.02
-68.72
-74.98
-86.82
-100.26
-111.18
-116.16
-113.21
-102.23
-85.15
-65.34
-46.32
-29.93
-14.97
2.74
28.43
65.03
110.19
155.45
188.56
198.16
178.62
132.61
69.97
3.77
-54.68
-99.16
-129.21
-148.17
-160.33
-168.8
-174.89
-178.79
-180.6
-180.87
-180.2
-178.66
-175.37
-168.62
-156.62
-138.51
-114.99
-88.35
-61.94
-38.98
-21.68
-10.63
-4.84
-2.34
-1.06
0.49
2.89
5.85
8.73
11
12.54
13.83
15.72
19.22
25.4
35.13
49.01
67.25
89.44
114.66
141.63
169.1
196.2
222.55
248.13
273.05
297.26
320.57
342.81
363.92
383.84
402.35
418.86
432.36
441.42
444.34
439.1
423.58
396.07
356.08
305.24
247.51
188.47
133.72
87.14
49.72
19.84
-5.58
-29.25
-52.42
-74.52
-93.95
-109.1
-118.94
-123.29
-122.53
-117.52
-109.76
-101.85
-97.55
-100.94
-114.96
-139.85
-172.53
-207.42
-238.51
-261.53
-275.32
-281.57
-283.32
-283.08
-281.49
-277.29
-268.21
-252.36
-229.3
-200.35
-168.14
-135.7
-105.6
-79.27
-57.05
-38.64
-23.6
-11.78
-3.17
2.35
5.45
7.27
9.17
12.21
16.85
22.95
29.99
37.28
44.18
50.15
54.84
58.09
60.14
61.54
62.98
65.06
68.03
71.79
75.87
79.56
81.72
80.67
74.09
59.51
35.35
1.97
-37.59
-78.08
-113.44
-138.75
-151.77
-153.56
-147.71
-138.89
-131.36
-127.88
-129.42
-135.29
-143.52
-151.29
-155.56
-153.74
-144.42
-127.94
-106.19
-82.22
-59.29
-40.04
-25.91
-16.98
-12.26
-10.3
-9.91
-10.67
-13.07
-18.17
-26.97
-39.67
-55.4
-72.42
-88.76
-102.77
-113.28
-119.36
-119.95
-113.81
-99.87
-77.88
-48.82
-14.88
21.07
56.19
88.12
115.07
135.7
148.93
154.1
151.21
141.2
125.94
107.87
89.32
71.94
56.4
42.36
28.98
15.36
1.03
-13.94
-29.04
-43.51
-56.41
-66.58
-72.49
-72.26
-63.98
-46.31
-18.99
16.7
58.11
101.57
142.98
178.27
203.81
216.7
215.16
199.16
170.88
134.75
96.88
63.78
40.78
30.78
33.76
47.18
67.04
88.89
108.65
122.91
129.13
125.93
113.38
93.24
68.65
43.26
20.09
0.67
-15.21
-28.91
-41.94
-55.18
-68.55
-81.19
-92.08
-100.56
-106.55
-110.56
-113.45
-116.23
-119.84
-124.97
-131.73
-139.35
-146.06
-149.38
-146.8
-136.73
-119.05
-95.14
-67.34
-37.91
-8.31
20.93
49.71
77.45
102.53
122.49
134.96
138.89
135.37
127.28
118.34
111.59
108.23
107.52
107.52
106.21
102.63
97.18
91.08
85.68
82.08
80.98
82.96
88.53
97.74
109.77
122.68
133.67
140.04
140.18
134.12
123.38
110.09
96.09
82.38
69.26
56.83
45.49
36
28.97
24.42
21.39
18.08
12.38
2.48
-12.49
-32.09
-54.64
-77.62
-98.18
-113.81
-122.88
-124.92
-120.54
-111.05
-98.11
-83.26
-67.9
-53.21
-40.19
-29.55
-21.53
-15.81
-11.55
-7.76
-3.68
0.93
5.81
10.43
14.26
17.19
19.39
21.32
23.35
25.62
27.93
29.92
31.22
31.67
31.47
31.03
30.86
31.23
32.15
33.31
34.33
35.02
35.41
35.8
36.48
37.55
38.83
39.92
40.4
39.97
38.54
36.26
33.53
31.05
29.79
30.88
35.22
43.01
53.36
64.32
73.34
78.12
77.42
71.49
61.9
50.89
40.58
32.42
27.1
24.75
25.34
28.81
35.11
44.06
55.19
67.68
80.42
92.14
101.48
107.23
108.53
105.03
97.09
85.66
72.19
58.29
45.58
35.3
28.07
23.63
20.61
16.86
10.02
-1.53
-17.98
-37.82
-58.35
-76.74
-91.13
-101.47
-109.32
-117.06
-126.63
-138.49
-151.3
-162.43
-168.99
-168.92
-161.69
-148.19
-130.24
-109.8
-88.5
-67.64
-48.32
-31.58
-18.22
-8.54
-2.1
2.17
5.47
8.77
12.32
15.78
18.44
19.71
19.29
17.32
14.29
10.86
7.8
5.79
5.27
6.2
8.03
9.77
10.3
8.78
4.9
-1.08
-8.46
-16.4
-24.16
-31.16
-37.08
-41.78
-45.28
-47.78
-49.67
-51.55
-54.11
-57.91
-63.17
-69.51
-75.87
-80.63
-82.06
-78.86
-70.69
-58.31
-43.4
-27.98
-13.86
-2.13
6.97
13.8
19
23.07
26.22
28.38
29.42
29.33
28.4
27.11
25.92
25.09
24.56
24.09
23.36
22.27
21
19.93
19.49
19.94
21.23
23.05
24.94
26.4
27.1
26.92
26.06
24.9
23.98
23.79
24.66
26.58
29
30.9
30.87
27.36
19.23
6.07
-11.43
-31.54
-51.9
-70.19
-84.67
-94.53
-99.87
-101.32
-99.64
-95.39
-88.74
-79.62
-67.86
-53.43
-36.73
-18.65
-0.54
15.96
29.37
38.62
43.4
44.16
42.05
38.53
35.14
33.13
33.29
35.79
40.16
45.43
50.39
54.04
55.79
55.69
54.27
52.3
50.45
49.03
47.94
46.77
45.05
42.44
38.9
34.64
29.99
25.27
20.63
15.99
11.01
5.14
-2.24
-11.42
-22.1
-33.1
-42.48
-48.08
-48.21
-42.41
-31.62
-17.91
-3.66
9.19
19.69
27.82
34.08
38.98
42.65
44.87
45.31
43.92
41.08
37.59
34.44
32.38
31.75
32.35
33.56
34.82
35.9
37.07
38.97
42.29
47.4
54.24
62.34
70.97
79.26
86.17
90.43
90.61
85.45
74.31
57.6
36.95
14.77
-6.45
-24.84
-39.69
-51.28
-60.44
-67.82
-73.53
-77.06
-77.69
-75
-69.3
-61.58
-53.23
-45.54
-39.4
-35.21
-33.09
-33.01
-34.84
-38.19
-42.24
-45.83
-47.73
-47.15
-44.06
-39.28
-34.07
-29.68
-26.94
-26.1
-26.94
-28.95
-31.57
-34.25
-36.6
-38.39
-39.72
-40.9
-42.45
-44.83
-48.26
-52.63
-57.56
-62.65
-67.64
-72.51
-77.41
-82.63
-88.53
-95.4
-103.39
-112.35
-121.6
-130.01
-136.06
-138.19
-135.2
-126.57
-112.62
-94.38
-73.4
-51.38
-29.9
-10.08
7.5
22.91
36.7
49.59
62.26
75.04
87.89
100.36
111.69
120.88
126.92
128.96
126.78
121.04
113.24
105.43
99.54
96.87
97.67
101.38
106.89
113.02
118.79
123.46
126.6
128.16
128.55
128.66
129.57
132.16
136.69
142.62
148.68
153.38
155.45
154.2
149.6
142.11
132.38
121.04
108.78
96.46
85.36
76.97
72.62
72.76
76.53
81.71
85.43
85.24
80.1
70.74
59.1
47.12
35.63
23.79
9.42
-9.84
-35.47
-67.46
-104.55
-144.99
-187.11
-229.42
-270.23
-307.2
-337.41
-358.17
-368.04
-367.22
-357.27
-339.81
-315.47
-283.51
-242.76
-192.97
-136.02
-75.95
-17.83
33.85
76.41
109.08
132.12
145.78
149.78
143.68
127.87
104.46
77.28
50.95
29.56
15.51
9.34
10.35
17.69
31.07
50.64
76.19
106.2
137.49
165.73
186.59
197.01
196.03
184.98
166.92
145.98
126.51
112.39
106.17
108.18
116.09
125.25
129.98
125.32
108.68
80.33
42.7
-0.96
-47.69
-94.86
-139.55
-177.95
-205.57
-218.64
-215.78
-199.01
-173.2
-144.2
-116.59
-92.38
-71.13
-51.31
-32.11
-14.27
-0.02
8.29
9.42
4.1
-5.17
-15
-22.3
-25.19
-23.17
-16.94
-7.5
4.4
18.59
35.27
54.46
75.36
96.13
114.16
126.74
131.79
128.28
116.16
96.2
69.69
38.56
5.39
-26.87
-55.79
-80.58
-102.64
-125.21
-151.78
-184.19
-221.38
-259.57
-293.69
-319.54
-335.37
-342.17
-342.85
-340.79
-338.59
-337.54
-337.87
-339.36
-341.91
-345.69
-350.7
-356.16
-359.96
-358.81
-349.12
-328.51
-296.96
-257.2
-213.77
-171.12
-132
-96.56
-63.12
-29.71
4.37
38.1
69.54
97.13
120.78
141.47
160.23
176.72
188.81
193.33
187.71
171.47
146.69
117.31
87.75
61.49
40.51
25.4
16.08
12.3
13.7
19.65
29.09
40.58
52.84
65.15
77.5
90.25
103.61
117.06
129.17
137.98
141.56
138.67
129.14
113.87
94.7
74.11
55
40.4
32.94
34.14
43.83
59.9
78.69
96.02
108.43
114.17
113.48
107.98
99.65
89.97
79.68
69.34
60.08
53.91
53.04
58.69
69.86
83.24
94.34
99.45
97.2
88.98
77.89
66.86
57.21
48.29
38.42
26.39
12.43
-1.76
-13.91
-22.34
-26.54
-27.14
-25.41
-22.85
-21.09
-22.23
-28.89
-43.74
-68.42
-102.37
-142.16
-181.88
-214.52
-233.88
-236.24
-221.19
-191.41
-151.59
-107.03
-62.45
-21.22
14.89
45.41
70.72
91.57
108.6
122.06
131.83
137.59
139.15
136.8
131.4
124.33
117.18
111.36
107.81
106.85
108.36
111.93
117.15
123.65
131.06
138.99
147.01
154.85
162.46
170.16
178.5
188.04
199.19
211.98
225.94
239.93
252.02
259.61
259.83
250.34
230.28
200.85
165.25
127.65
91.86
60.35
33.97
12.58
-4.13
-16.08
-22.95
-24.7
-21.86
-15.39
-6.19
5.21
18.37
32.2
44.42
51.65
50.38
38.3
15.06
-17.79
-57.55
-101.13
-145.44
-187.34
-223.66
-251.84
-270.7
-281.17
-286.17
-289.39
-293.45
-298.43
-301.56
-298.32
-284.42
-257.72
-219.6
-175.01
-131.52
-97.51
-80.06
-83.04
-105.97
-144.24
-190.53
-237.12
-277.86
-309.45
-331.25
-344.14
-349.22
-346.86
-336.71
-318.33
-291.93
-258.58
-220
-177.94
-133.67
-87.94
-41.17
5.99
52.28
95.75
134.05
165.09
187.73
202.21
210.13
213.9
215.99
218.23
221.39
225.21
228.57
229.95
227.89
221.48
210.85
197.31
183.22
171.19
163.19
159.73
159.73
161.04
161.43
159.6
155.73
151.6
150.05
154.41
167.59
191.34
225.29
266.38
308.85
345.08
367.46
370.47
352.47
316.22
267.74
214.05
160.87
111.21
65.49
22.96
-16.7
-52.46
-82.38
-104.95
-120.39
-130.91
-139.83
-149.85
-161.61
-173.29
-181.72
-184.13
-179.97
-171.41
-162.78
-159.18
-164.77
-181.59
-209.07
-244.27
-282.67
-319.26
-349.44
-369.66
-377.67
-372.38
-353.68
-322.52
-281.1
-232.95
-182.71
-135.31
-94.66
-62.69
-38.99
-21.39
-7.24
5.29
16.66
26.07
32.22
34.31
32.58
28.45
24.25
22.63
25.93
35.64
52.09
74.38
100.66
128.46
155.18
178.41
196.2
207.37
211.62
209.64
202.78
192.64
180.42
166.59
150.94
132.94
112.32
89.45
65.29
41.23
18.87
-0.04
-13.57
-19.95
-18.27
-9.41
3.5
15.44
20.8
15
-4.21
-36.45
-79.11
-128.34
-179.77
-228.89
-271.22
-302.63
-319.93
-321.68
-308.73
-284.04
-251.95
-217.28
-184.34
-156.56
-136.06
-123.41
-117.28
-114.31
-109.56
-97.69
-74.49
-38.28
9.4
64.17
120.12
171.52
214.36
246.95
269.8
284.65
293.51
297.89
298.63
296.19
291.09
284.21
276.76
270.1
265.33
262.91
262.43
262.45
260.39
252.82
236.14
207.75
167.24
117.2
62.94
11.54
-29.81
-55.26
-61.55
-48.6
-19.82
18.28
57.03
87.23
101.13
94.56
68.15
27.28
-19.46
-62.96
-96.19
-116.04
-123.54
-122.43
-117.16
-110.81
-104.11
-95.98
-84.9
-70.5
-54.17
-38.46
-25.44
-15.39
-6.27
5.33
22.41
45.89
73.88
102.35
126.7
143.23
149.9
146.34
133.4
112.82
87.22
60.01
35.07
15.86
4.33
0.26
1.52
4.89
7.25
6.51
1.68
-7.39
-20.45
-37.2
-57.44
-81.05
-107.89
-137.62
-169.43
-201.75
-232.36
-259.02
-280.27
-296.07
-307.53
-315.96
-321.54
-322.63
-316.23
-299.49
-271.36
-233.54
-190.02
-145.56
-104
-67.16
-34.91
-6.15
20.04
43.67
63.95
80.04
91.83
100.41
107.75
116.07
126.86
140.3
155.33
170.26
183.53
194.28
202.34
207.72
210.11
208.61
201.88
188.75
168.72
142.22
110.53
75.4
38.63
1.69
-34.48
-69.42
-103.07
-135.47
-166.42
-195.22
-220.63
-241.25
-256.08
-264.85
-268.02
-266.07
-258.82
-245.19
-223.61
-193.18
-154.73
-111.22
-67.13
-27.1
5.3
28.19
41.19
44.72
39.37
25.76
4.83
-21.62
-50.74
-78.74
-101.53
-115.69
-119.38
-112.91
-98.69
-80.34
-61.36
-43.78
-27.74
-11.88
5.39
24.66
44.93
63.92
79.18
89.04
93.2
92.57
88.57
82.4
74.66
65.35
54.28
41.44
27.33
12.92
-0.59
-12.25
-21.79
-29.75
-37.25
-45.6
-55.82
-68.42
-83.48
-100.68
-119.19
-137.4
-152.72
-161.88
-161.79
-150.7
-129.05
-99.54
-66.15
-32.8
-2.16
24.69
47.82
67.53
83.77
96.04
103.89
107.51
107.92
106.72
105.56
105.56
107.18
110.33
114.64
119.67
124.86
129.39
132.01
131.3
126.05
115.77
101.04
83.38
64.92
47.77
33.52
22.95
15.94
11.49
7.98
3.54
-3.39
-13.5
-26.31
-40.26
-53.2
-63.18
-69.12
-71.16
-70.51
-68.94
-68.24
-69.67
-73.47
-78.57
-82.61
-82.44
-75.11
-58.95
-34.5
-4.59
26.44
54.1
75.23
88.87
96.25
100.02
103.03
107.3
113.55
121.37
129.63
137.17
143.13
147.25
149.88
152.15
155.86
163.16
175.79
193.99
215.81
237.15
252.99
259.22
254.35
240.14
220.7
200.54
182.36
165.91
148.19
124.95
92.66
49.77
-2.56
-60.84
-120.04
-174.78
-220.74
-256.21
-282.99
-305.9
-330.76
-361.35
-396.83
-431.21
-455.58
-461.81
-446.12
-410.51
-361.26
-305.84
-249.83
-195.65
-143.48
-93.13
-45.65
-3.6
30.04
53.2
65.61
68.67
64.51
54.94
40.85
22.27
-0.81
-27.6
-55.89
-82.27
-103.04
-115.59
-119.38
-116.24
-109.6
-103.16
-99.42
-98.86
-100.01
-100.34
-97.53
-90.42
-79.32
-65.6
-51.04
-36.97
-24.01
-12.15
-1.27
8.35
15.81
19.69
18.56
11.55
-1.14
-18.07
-36.67
-53.53
-64.99
-67.7
-59.51
-39.99
-10.66
25.4
64.49
103.35
140
173.69
204.45
232.29
256.76
277
292.2
302.06
306.95
307.84
305.92
302.45
298.64
295.82
295.37
298.36
305.08
314.56
324.58
332.09
334.03
327.97
312.55
287.5
253.64
212.83
167.89
122.33
79.73
42.85
13.01
-10.17
-28.32
-43.47
-57.42
-71.58
-87.27
-106.04
-129.53
-158.77
-193.25
-230.55
-266.51
-296.09
-314.44
-317.62
-303.17
-270.44
-221.05
-159.3
-92.08
-27.89
25.09
61.25
79.12
81.49
73.99
62.82
52.74
46.05
42.93
42.46
43.72
46.25
49.81
53.84
57.24
58.51
56.4
50.68
42.41
33.65
26.62
22.66
21.7
22.18
21.85
18.73
11.95
2.11
-9.17
-19.91
-28.63
-34.74
-38.5
-40.59
-41.52
-41.34
-39.58
-35.55
-28.7
-18.82
-6.29
8
22.7
36.02
45.91
50.2
46.99
35.34
15.89
-8.85
-34.64
-56.39
-69.47
-70.98
-60.55
-40.26
-13.85
14.61
41.77
65.69
85.76
102.26
115.76
126.79
135.8
143.31
150.02
156.68
163.93
172.03
180.83
189.97
198.98
207.44
214.76
220.06
222.12
219.7
211.98
198.98
181.52
160.74
137.33
110.96
80.25
43.38
-0.85
-51.97
-107.17
-161.26
-207.57
-239.4
-251.97
-244.03
-218.92
-184.26
-150.37
-127.62
-123.57
-140.74
-175.89
-220.86
-265.04
-298.22
-313.2
-307.07
-281.28
-240.45
-190.85
-138.91
-90.22
-49.23
-19.38
-3.11
-1.57
-14.14
-37.94
-67.79
-97.03
-119.05
-128.93
-124.58
-106.95
-79.18
-45.34
-9.2
26.4
59.56
89.07
114.22
134.92
151.69
165.45
177.05
186.74
193.97
197.71
196.9
191.12
180.83
167.11
151.14
133.72
114.86
93.89
69.61
40.85
6.96
-31.6
-72.49
-111.16
-141.19
-156.02
-151.37
-127.6
-90.44
-49.37
-14.23
8.47
17.63
16.89
11.9
7.24
4.66
3.48
2.38
1.26
1.73
6.16
16.08
31.1
48.83
65.79
78.39
83.52
78.79
62.61
34.52
-4.19
-49.91
-96.91
-138.37
-168.19
-182.72
-181.94
-169.27
-150.3
-130.78
-114.93
-104.59
-99.43
-97.82
-97.8
-97.7
-96.39
-93.3
-88.57
-83.36
-80.15
-82.37
-93.54
-115.83
-148.81
-189
-230.34
-265.62
-288.27
-293.87
-280.97
-251.22
-208.6
-158.41
-105.89
-55.16
-8.52
33.48
71.57
106.84
140.07
171.35
200.23
226.15
248.77
268.09
284.3
297.5
307.51
313.89
316.14
314.05
307.88
298.36
286.4
272.6
256.83
238.22
215.49
187.67
154.74
118.16
80.62
45.5
16.17
-4.72
-15.57
-16.17
-7.93
5.87
20.25
29.41
28.2
13.89
-12.84
-48.02
-85.87
-120.74
-148.81
-168.63
-180.48
-185.25
-183.36
-174.51
-158
-133.52
-101.67
-64.08
-23.24
17.97
56.46
89.16
113.05
125.43
124.17
108.34
78.73
38.4
-7.33
-51.64
-87.62
-110.1
-117.04
-110.11
-93.96
-74.58
-57.38
-45.8
-40.93
-41.9
-46.76
-53.1
-58.55
-61.03
-59.29
-53.37
-45.02
-37.38
-33.89
-37.01
-47.14
-62.38
-79.37
-94.64
-105.78
-112.12
-114.46
-114.37
-113.56
-113.46
-115.1
-119
-124.96
-131.66
-136.63
-136.68
-128.82
-111.55
-85.53
-53.57
-19.67
12.36
40.12
63.1
82.4
99.82
116.71
133.3
148.37
159.52
163.93
159.36
144.9
121.57
92.12
60.31
30.02
4.3
-15.06
-27.55
-33.66
-34.46
-31.29
-25.57
-18.73
-12.02
-6.42
-2.56
-0.7
-0.8
-2.68
-6
-10.31
-15.16
-20.18
-25.21
-30.4
-36.11
-42.79
-50.74
-59.78
-69.06
-77.04
-81.64
-80.75
-72.82
-57.32
-35.08
-8.05
21.18
50.08
76.78
100.31
120.61
138.07
153.24
166.51
178.08
188.05
196.53
203.63
209.49
214.2
217.88
220.93
224.05
228.19
234.13
241.84
249.97
255.79
255.64
246.09
225.14
193.04
152.51
108.09
65.1
28.23
0.45
-17.83
-28.84
-36.88
-47.01
-63.37
-87.58
-118.02
-150.45
-179.73
-202.1
-216.84
-226.48
-235.52
-248.27
-266.81
-290.07
-314.27
-334.26
-345.28
-344.25
-330.41
-305.16
-271.49
-233.03
-193.21
-154.81
-119.75
-89.35
-64.56
-46.21
-34.81
-30.19
-31.18
-35.35
-39.44
-40.1
-34.98
-23.49
-7.05
11.53
29.18
43.77
54.64
62.32
67.61
70.64
70.65
66.46
57.53
44.69
30.05
16.23
5.15
-2.6
-7.68
-11.39
-14.88
-18.79
-23.28
-28.33
-33.97
-40.4
-47.87
-56.61
-66.92
-79.17
-93.61
-109.95
-126.88
-141.85
-151.53
-152.75
-143.63
-124.42
-97.26
-65.4
-31.85
1.42
33.79
65.4
96.37
126.07
152.93
174.71
189.08
194.09
188.75
173.25
149.25
119.76
88.74
60.43
38.39
24.81
20.21
23.59
32.96
45.89
60.02
73.3
84.15
91.59
95.35
95.84
94
90.89
87.21
83.02
77.64
70.08
59.49
45.81
29.89
13.38
-1.79
-14.07
-22.73
-28.1
-31.45
-34.61
-39.44
-47.23
-58.17
-70.96
-82.96
-90.8
-91.39
-83.02
-65.98
-42.38
-15.35
12.05
37.7
60.61
80.66
97.98
112.61
124.47
133.48
139.91
144.3
147.36
149.7
151.78
153.95
156.68
160.7
166.77
175.41
186.5
199.06
211.31
221.12
226.72
227.31
223.43
216.77
209.46
202.95
197.12
189.92
177.85
157.29
125.82
83.19
31.48
-25.6
-83.57
-138.12
-185.72
-223.97
-251.91
-270.27
-281.27
-287.99
-293.13
-297.79
-300.73
-298.93
-288.93
-268.7
-238.68
-201.76
-162.08
-123.34
-87.65
-55.38
-25.88
1.41
26.19
47.37
63.84
75.4
83.2
89.44
96.42
105.45
116.32
127.45
136.69
142.4
144.1
142.62
139.62
136.91
135.75
136.54
138.94
142.23
145.85
149.57
153.64
158.51
164.54
171.71
179.47
186.62
191.53
192.29
187.11
174.72
154.71
127.55
94.53
57.42
18.03
-21.92
-61.04
-98.32
-133.34
-166.33
-198.05
-229.4
-260.89
-292.29
-322.5
-349.88
-372.49
-388.43
-395.73
-392.44
-376.86
-348.07
-306.7
-255.02
-196.52
-134.68
-71.71
-8.11
56.63
122.29
186.36
243.61
287.47
312.62
317.43
304.87
281.32
253.78
227.16
202.87
179.27
153.59
123.95
90.57
55.65
22.5
-5.61
-26.29
-38.48
-42.67
-40.84
-36.17
-32.38
-32.73
-39.1
-51.54
-68.39
-87.11
-105.28
-121.48
-135.58
-148.61
-162.06
-177.05
-193.58
-210.07
-223.34
-229.22
-223.59
-203.78
-169.8
-125.09
-76.09
-30.75
3.76
23.26
27.69
20.78
8.45
-3.45
-10.96
-12.84
-10.36
-6.3
-3.86
-5.82
-14.04
-29.31
-51.21
-78.27
-108.06
-137.65
-164.15
-185.12
-198.94
-204.88
-203.03
-194.04
-178.9
-158.72
-134.45
-106.88
-76.67
-44.68
-12.38
18.02
43.83
62.58
72.79
74.54
69.55
60.49
50.07
40.28
31.98
25.13
19.22
13.79
8.75
4.48
1.84
1.96
6.06
15.01
29.02
47.44
68.77
91.15
112.73
132.22
149.09
163.45
175.78
186.56
195.98
203.94
210.13
214.22
216.1
215.95
214.13
210.86
206.04
199.06
188.91
174.54
155.26
131.03
102.62
71.68
40.6
12.25
-10.57
-25.9
-33.4
-34.96
-34.47
-36.97
-46.94
-66.66
-95.06
-127.85
-158.82
-181.94
-193.43
-192.91
-183.47
-170.41
-159.51
-155.08
-158.76
-169.13
-182.27
-193.1
-196.79
-190.14
-172.33
-145.13
-112.23
-78.25
-47.43
-22.57
-4.41
8.24
17.75
26.44
35.35
43.5
47.95
44.81
30.89
5.19
-30.11
-70.09
-108.39
-139.23
-159.06
-167.31
-165.95
-158.24
-147.33
-135.27
-122.74
-109.52
-95.23
-79.8
-63.7
-47.7
-32.56
-18.77
-6.46
4.47
14.22
23.18
32.13
42.37
55.58
73.33
96.03
122.11
147.77
167.66
176.52
171.16
151.9
123.05
91.96
66.95
54.83
58.75
77.33
105.2
134.81
158.75
171.78
171.99
160.66
141.48
119.29
98.9
84.2
77.53
79.34
88.11
100.71
113.27
122.17
125.11
121.61
112.77
100.58
86.89
72.79
58.46
43.74
28.84
14.73
2.96
-5.07
-9.07
-10.18
-10.65
-12.7
-17.42
-23.99
-30.08
-32.85
-30.31
-22.19
-10.11
2.73
12.4
14.93
6.96
-13.48
-46.44
-89.48
-137.81
-184.96
-224.1
-249.52
-257.81
-248.4
-223.46
-187.15
-144.54
-100.5
-58.76
-21.6
9.92
35.14
53.01
61.8
59.65
45.72
21.11
-10.86
-45.49
-78.01
-104.88
-124.37
-136.31
-141.49
-140.97
-135.93
-127.44
-116.59
-104.22
-90.68
-75.74
-58.9
-39.87
-19.08
2.13
21.72
37.45
47.53
51
48.07
40
28.86
17.04
6.7
-0.62
-4.25
-4.28
-1.24
4.28
11.76
20.72
30.43
39.64
46.76
50.18
48.82
42.6
32.6
20.94
10.29
3.23
1.72
6.67
17.82
33.95
53.17
73.34
92.5
109.1
122.18
131.48
137.44
141.21
144.27
148.08
153.41
160.07
167
172.79
176.34
177.42
176.76
175.69
175.59
177.17
180.09
182.88
183.23
178.64
167.19
148.25
122.88
93.78
64.6
38.9
19.02
5.44
-3.35
-10.34
-18.96
-32.07
-50.92
-74.67
-100.42
-123.89
-140.65
-147.5
-143.44
-129.94
-110.46
-89.22
-69.88
-54.71
-44.36
-38.22
-34.91
-32.57
-29.05
-22.2
-10.45
6.44
26.87
47.6
64.84
75.75
79.59
77.96
73.69
69.27
65.68
62.21
57.36
50.05
40.57
30.64
22.73
19.31
22.2
32.4
49.96
73.94
102.08
130.77
155.48
171.96
177.63
172.61
159.67
142.89
125.93
110.51
95.93
79.88
60.01
35.3
6.53
-24.15
-54.22
-81.88
-106.56
-129.02
-151.32
-176.49
-207.9
-247.83
-295.92
-348.04
-396.71
-433.24
-450.89
-447.36
-425.52
-391.91
-353.89
-316.98
-283.69
-253.9
-226.32
-199.8
-173.8
-148.06
-122.24
-95.56
-67.22
-37.01
-5.67
25.19
53.4
77.04
95.19
108.07
116.78
122.46
125.44
124.88
119.16
106.88
87.98
64.23
38.88
15.67
-2.35
-13.63
-18.16
-17.04
-11.72
-3.59
6.19
16.52
26.24
34.08
38.97
40.36
38.42
34.01
28.4
22.85
18.18
14.67
12.04
9.72
7.08
3.76
-0.28
-4.71
-8.73
-11.19
-10.56
-5.19
6.38
24.93
50.33
81.36
115.97
151.91
187.25
220.83
252.27
281.55
308.22
331
347.67
355.73
353.32
340.12
317.69
289.05
257.9
227.75
201.34
180.61
166.65
159.54
157.99
159.09
158.48
151.24
133.25
102.69
60.97
12.83
-34.5
-73.23
-97.13
-103.68
-94.98
-77.19
-58.48
-46.37
-45.49
-56.92
-79.07
-109.3
-145.16
-184.48
-224.6
-261.75
-291.44
-309.92
-315.9
-311.16
-299.71
-285.73
-271.69
-257.56
-241.63
-222.19
-198.96
-173.53
-148.52
-126.21
-107.47
-91.56
-76.72
-61.34
-44.83
-28.11
-13.17
-2.31
3.04
3.06
-0.38
-4.39
-6.17
-4.06
2.14
11.36
22.01
32.67
42.5
51.2
58.84
65.59
71.66
77.14
82.1
86.63
90.98
95.51
100.58
106.34
112.54
118.59
123.78
127.63
129.92
130.41
128.45
122.59
110.73
90.69
61.12
22.27
-23.53
-72.06
-117.87
-155.31
-179.82
-188.72
-181.88
-161.47
-131.24
-95.6
-58.72
-24.1
5.66
28.79
44.36
52.23
53.18
48.82
41.2
32.35
23.82
16.4
10.15
4.82
0.28
-3.17
-4.94
-4.61
-2.49
0.24
1.93
1.22
-2.17
-7.31
-12.42
-15.76
-16.32
-14.15
-10.19
-5.84
-2.65
-1.98
-4.98
-12.3
-24
-39.46
-57.59
-77.23
-97.53
-117.86
-137.62
-155.87
-171.23
-182.37
-188.71
-190.92
-190.79
-190.22
-190.11
-189.61
-186.4
-177.86
-162.71
-141.94
-118.61
-96.66
-79.17
-67.24
-59.74
-54.17
-47.95
-39.32
-27.74
-13.6
2.33
19.19
36.17
52.33
66.66
78.17
86.14
90.45
91.54
90.25
87.57
84.46
81.69
79.78
78.9
78.79
78.82
78.11
75.86
71.72
65.99
59.53
53.45
48.59
45.25
43.05
41.28
39.32
37.11
35.31
35.14
38.02
45
56.22
70.68
86.06
99.08
106.2
104.55
92.92
72.23
45.39
16.39
-10.72
-32.87
-48.45
-57.25
-59.94
-57.37
-50.08
-38.24
-22.11
-2.67
17.94
36.47
49.39
54.13
50.22
39.67
26.3
14.38
7.04
5.48
9.06
16.31
25.88
37.16
50.07
64.42
79.36
93.14
103.48
108.24
106.28
97.83
84.47
68.63
52.78
38.65
26.75
16.46
6.47
-4.53
-17.17
-31.16
-45.5
-58.95
-70.55
-79.8
-86.49
-90.61
-92.39
-92.53
-92.37
-93.75
-98.36
-106.94
-118.82
-132.18
-144.82
-155.07
-162.1
-165.45
-164.33
-157.13
-141.61
-115.93
-79.62
-34.12
17.69
72.54
127.67
181.09
231.21
276.07
313.13
339.82
354.56
357.6
350.84
336.84
317.4
292.63
261.08
220.81
170.71
111.26
44.69
-25.44
-94.6
-157.73
-209.71
-246.45
-266.21
-270.72
-265.26
-257.3
-253.96
-259.62
-274.7
-296.2
-319.59
-340.83
-357.64
-369.43
-376.39
-378.34
-374.22
-362.33
-341.1
-310.07
-270.33
-224.32
-175.23
-126.11
-79.12
-35.15
6.15
45.91
85.27
124.61
163.26
199.59
231.76
258.49
279.58
295.91
308.91
320
330.1
339.66
348.97
358.36
368.04
377.69
385.77
389.34
384.53
367.73
337
293.14
239.79
182.36
126.55
76.79
35.77
4.81
-15.29
-23.74
-20.23
-6.03
14.98
36.53
51.38
53.59
40.39
12.88
-24.8
-67.06
-108.69
-145.69
-175.35
-195.68
-204.88
-201.46
-185.03
-157.35
-122.86
-88.18
-60.48
-45.01
-43.19
-52.14
-66.08
-78.97
-87.19
-90.74
-92.48
-95.98
-103.35
-114.06
-125.49
-134.18
-137.45
-134.16
-124.74
-110.78
-94.62
-79.18
-67.72
-63.04
-66.51
-77.22
-91.73
-105.1
-112.42
-110.54
-98.87
-79.22
-54.79
-28.84
-4.02
18.07
36.7
51.73
63.5
72.64
79.79
85.39
89.43
91.48
91.01
87.63
81.42
72.94
63.29
53.99
46.95
44.26
47.83
58.81
77.14
101.52
129.85
159.9
189.88
218.61
245.21
268.6
287.29
299.55
304.07
300.43
289.27
271.99
249.9
223.59
192.53
155.29
110.34
57.18
-2.4
-63.53
-118.33
-157.36
-172.04
-157.75
-116.14
-55.74
9.89
65.79
99.75
105.6
84.26
42.62
-9.23
-61.2
-105.64
-138.42
-158.76
-168.18
-169.24
-164.81
-157.61
-150.14
-144.62
-142.85
-145.93
-154.03
-166.32
-181.23
-196.98
-211.94
-224.99
-235.36
-242.59
-246.36
-246.5
-242.94
-235.75
-225.09
-211.22
-194.67
-176.31
-157.46
-139.69
-124.63
-113.57
-107.15
-105.1
-106.01
-107.38
-106.02
-98.61
-82.55
-56.58
-21.22
21.41
68.06
114.93
158.12
193.94
219.22
231.79
231
218.31
197.29
173
150.8
134.96
127.41
127.09
130.1
130.75
123.41
104.43
73.42
33.45
-9.92
-50
-80.57
-97.04
-97.35
-82.6
-57.17
-28.1
-3.28
11
12.39
3.12
-11.21
-24.44
-32.39
-33.95
-30.08
-21.73
-8.3
12.36
42.17
80.68
123.84
164.62
194.88
207.92
200.2
172.04
127.3
72.4
15.08
-36.94
-77.23
-101.74
-109.38
-101.99
-83.58
-59.39
-34.81
-14.56
-2.06
0.91
-5.47
-19.18
-36.8
-54.27
-67.87
-74.92
-74.26
-66.41
-53.46
-38.66
-25.71
-17.73
-16.35
-21.32
-30.91
-42.93
-55.85
-69.46
-84.66
-102.7
-124.24
-148.72
-174.24
-197.93
-216.49
-226.96
-227.43
-217.64
-199.13
-174.84
-148.27
-122.42
-99.05
-78.5
-60.03
-42.4
-24.44
-5.44
14.79
35.84
56.79
76.42
93.46
107.01
116.79
123.26
127.37
130.35
133.26
136.87
141.49
146.98
152.83
158.26
162.47
164.88
165.46
164.67
163.33
162.06
160.8
158.46
153.1
142.44
124.78
99.69
68.3
33.13
-2.54
-35.52
-63.33
-84.65
-99.34
-108.25
-112.8
-114.68
-115.52
-116.7
-119.34
-124.07
-130.81
-138.55
-145.31
-148.52
-145.77
-135.57
-118.08
-95.01
-69.12
-43.28
-19.6
0.9
18.41
33.65
47.5
60.51
72.82
84.31
94.83
104.36
113.12
121.42
129.52
137.55
145.5
153.41
161.53
170.33
180.37
191.94
204.85
218.29
231.16
242.41
251.6
259.1
266.07
274
283.95
295.81
307.72
316.31
317.37
307.17
283.78
247.88
202.75
153.32
104.76
61
23.93
-6.64
-32.15
-54.29
-74.22
-92.14
-107.33
-118.37
-123.61
-121.87
-113.11
-99.21
-83.92
-72.19
-68.58
-75.63
-92.75
-116.45
-141.72
-164.02
-180.72
-191.54
-197.85
-201.33
-203
-202.86
-200.29
-194.75
-186.28
-175.67
-164.08
-152.74
-142.44
-133.49
-125.82
-119.25
-113.67
-109.07
-105.31
-101.8
-97.37
-90.53
-80
-65.37
-47.51
-28.51
-11.01
2.66
11.47
16.07
18.58
21.84
28.36
39.16
53.11
66.92
75.99
75.91
64.06
40.66
8.86
-26.09
-58.37
-82.95
-96.5
-97.62
-86.69
-65.55
-37.1
-4.89
27.41
56.77
81.35
100.73
115.67
127.47
137.32
145.92
153.35
159.31
163.37
165.26
165.13
163.48
161.22
159.31
158.48
158.74
159.33
158.88
155.93
149.61
140.05
128.44
116.6
106.43
99.26
95.56
94.79
95.44
95.08
90.71
79.27
58.62
28.26
-10.03
-52.44
-93.99
-129.63
-155.4
-168.93
-169.62
-158.37
-137.43
-110.26
-81.37
-56.07
-39.54
-35.74
-46.09
-68.62
-97.99
-126.54
-146.37
-151.55
-140.07
-114.26
-79.98
-44.39
-13.41
10.2
27.16
40.49
53.21
66.12
76.99
81.3
74.5
54.37
22.4
-16.66
-56.56
-91.73
-118.53
-135.23
-141.11
-135.55
-118.12
-89.61
-53.18
-14.68
18.5
39.68
45.14
35.02
12.61
-17.47
-51.25
-86.22
-121.08
-154.7
-185.26
-210.16
-226.75
-233.06
-228.53
-213.9
-190.92
-161.78
-128.82
-94.32
-60.29
-28.31
0.56
25.68
46.57
62.57
72.82
76.52
73.44
64.44
51.7
38.64
29.39
27.81
36.31
54.76
80.06
106.72
128.63
141.01
142.28
134.43
122.16
110.8
104.23
103.45
106.47
109.41
108.1
99.61
83.01
59.28
30.57
-0.73
-32.73
-64.07
-93.67
-120.28
-142.27
-157.85
-165.77
-165.82
-159.15
-147.89
-134.47
-120.89
-108.27
-96.91
-86.64
-77.3
-68.94
-61.81
-56.08
-51.61
-47.76
-43.68
-38.64
-32.46
-25.76
-19.89
-16.58
-17.44
-23.49
-34.67
-49.72
-66.27
-81.28
-91.77
-95.48
-91.51
-80.49
-64.29
-45.34
-25.94
-7.61
9.02
24.03
37.75
50.31
61.53
70.92
77.99
82.54
84.79
85.38
85.15
84.89
85.05
85.68
86.54
87.35
87.99
88.66
89.81
91.84
94.87
98.5
101.94
104.2
104.59
103.02
100.14
97.15
95.29
95.35
97.36
100.6
103.92
106.36
107.59
108.16
109.25
112.22
117.95
126.4
136.61
146.93
155.67
161.65
164.67
165.7
166.83
170.87
180.61
197.88
222.42
251.38
279.57
300.85
310.09
304.91
286.45
258.46
225.64
191.68
158.25
125.09
91.26
56.6
22.45
-8.54
-33.74
-52.1
-65.01
-76.07
-89.8
-109.92
-137.9
-172.58
-210.51
-247.1
-277.81
-299.03
-308.59
-305.92
-292.02
-269.3
-241.06
-210.67
-180.65
-152.06
-124.71
-97.95
-71.58
-46.46
-24.34
-7.1
4.19
9.68
10.67
8.93
5.9
2.23
-2.25
-8.24
-16.57
-27.91
-42.69
-60.68
-80.66
-100.2
-116.01
-124.81
-124.65
-115.89
-101.57
-86.84
-77.93
-80.62
-98.92
-133.82
-182.62
-239.02
-294.24
-338.97
-365.71
-370.58
-353.86
-319.28
-272.3
-218.56
-162.86
-109.07
-60.13
-18.18
15.74
41.86
61.43
76.09
86.85
93.49
94.68
88.75
74.7
52.98
25.59
-4.31
-33.23
-58.05
-76.55
-87.5
-90.77
-87.2
-78.44
-66.8
-54.76
-44.46
-37.19
-33.1
-31.42
-31.01
-30.99
-31.18
-32.05
-34.49
-39.34
-47.13
-57.83
-70.76
-84.54
-97.02
-105.55
-107.48
-100.95
-85.65
-63.11
-36.38
-9.24
14.88
33.73
46.7
54.63
59.26
62.42
65.45
68.71
71.74
73.58
73.45
71.12
67.2
62.86
59.47
58.18
59.53
63.41
69.24
76.15
83.29
89.91
95.46
99.6
102.07
102.69
101.32
98.02
93.07
87.06
80.73
74.68
69.22
64.14
58.89
52.83
45.66
37.53
28.98
20.71
13.13
6.13
-0.91
-8.96
-18.91
-31.27
-45.82
-61.49
-76.37
-88.06
-94.16
-92.91
-83.79
-67.71
-46.78
-23.73
-1.05
19.64
37.81
53.72
67.97
80.87
92.26
101.61
108.39
112.41
114.08
114.31
114.22
114.83
116.73
120.06
124.59
129.93
135.71
141.63
147.49
153.13
158.35
162.91
166.56
169.03
170.14
169.85
168.32
165.84
162.82
159.58
156.34
153.08
149.65
145.78
141.15
135.48
128.66
120.86
112.6
104.56
97.21
90.45
83.29
74.08
61.18
43.81
22.67
0.09
-20.6
-36.03
-43.8
-43.3
-35.95
-25.13
-15.45
-11.72
-17.64
-34.51
-60.71
-91.96
-122.62
-147.46
-163.15
-168.89
-166.14
-157.49
-145.59
-132.35
-118.9
-105.76
-93.27
-81.7
-71.22
-61.79
-53.18
-45.07
-37.32
-30.09
-23.86
-19.18
-16.48
-15.83
-16.88
-18.87
-20.9
-22.08
-21.87
-20.17
-17.4
-14.32
-11.79
-10.53
-10.82
-12.58
-15.37
-18.58
-21.72
-24.55
-27.2
-30.11
-33.82
-38.77
-45.16
-52.93
-61.88
-71.77
-82.24
-92.59
-101.6
-107.59
-108.86
-104.37
-94.29
-80.11
-64.11
-48.56
-35.04
-24.11
-15.58
-8.99
-4.04
-0.62
1.26
1.82
1.57
1.05
0.68
0.56
0.49
0.25
-0.14
-0.32
0.3
2.23
5.65
10.21
15.17
19.49
22.2
22.61
20.57
16.81
13.02
11.72
15.64
26.65
44.79
67.82
91.51
110.84
121.7
122.07
112.59
96.13
76.48
57.22
40.81
28.39
20.04
15.34
13.6
13.98
15.48
16.94
17.5
16.99
16.33
17.4
22.2
31.75
45.16
59.48
70.63
74.95
70.67
58.51
41.28
22.59
5.54
-8.14
-18.12
-25
-29.58
-32.39
-33.63
-33.28
-31.35
-27.95
-23.26
-17.3
-9.78
-0.03
12.65
28.55
46.97
65.91
82.21
92.42
93.92
85.85
69.24
46.28
18.98
-11.91
-47.3
-88.77
-137.01
-190.13
-243.14
-288.94
-320.55
-333.59
-327.72
-306.42
-275.46
-240.69
-206.53
-175.58
-149.2
-128.27
-113.51
-105.01
-101.53
-100.27
-97.51
-90.06
-76.56
-58.14
-37.89
-19.43
-5.35
3.83
9.68
15.1
22.98
35.29
52.46
73.61
97.07
120.9
143.23
162.29
176.49
184.55
185.94
181.17
171.93
160.62
149.61
140.56
134.04
129.74
127.03
125.3
124.1
122.76
120.13
114.55
104.34
88.53
67.37
42.38
15.92
-9.58
-32.14
-50.56
-64.56
-74.75
-82.68
-90.84
-102.08
-118.86
-142.31
-171.38
-202.92
-232.27
-254.5
-265.64
-263.59
-248.37
-221.89
-187.34
-148.45
-108.76
-71.26
-38.05
-10.37
11.4
27.56
39.02
47.07
53.14
58.36
63.33
68.01
71.93
74.61
75.91
76.25
76.43
77.29
79.44
83.09
88.08
93.95
99.88
104.59
106.38
103.44
94.59
79.81
60.6
39.55
19.53
2.69
-10.02
-18.85
-24.68
-28.46
-30.81
-32.12
-32.66
-32.78
-32.77
-32.76
-32.64
-32.28
-31.79
-31.77
-33.19
-36.97
-43.31
-51.2
-58.34
-61.69
-58.4
-46.91
-27.49
-2.2
25.92
53.85
79.6
102.47
122.93
142.05
160.74
179.27
196.88
211.7
220.91
221.34
210.41
187.21
153.22
112.23
69.42
29.94
-2.36
-25.63
-39.8
-46.05
-46.05
-41.54
-34.12
-25.17
-15.67
-6.11
3.62
13.97
25.28
37.32
49.09
59.04
65.51
67.45
64.72
58.25
49.68
40.79
32.87
26.34
20.69
14.93
8.16
0.15
-8.35
-15.73
-19.9
-18.78
-10.79
4.65
26.79
53.43
81.14
105.95
124.39
134.48
136.25
131.65
123.65
115.15
108.25
104.21
104.08
109.38
122.11
143.95
174.72
211.21
247.11
274.55
286.69
280.25
256.57
220.74
179.34
137.76
98.68
61.9
25.66
-11.88
-51.67
-93.45
-136.21
-178.45
-218.22
-252.99
-279.72
-295.61
-299.32
-292.15
-278.41
-264.6
-257.49
-262.04
-279.93
-309.34
-345.98
-384.72
-420.99
-451.56
-474.46
-488.6
-493.47
-489.08
-476.2
-456.28
-431.15
-402.3
-370.46
-335.53
-297.04
-255.05
-210.69
-166.29
-124.78
-88.63
-58.92
-34.82
-13.9
6.93
30.32
57.61
88.62
121.91
155.5
187.46
216.34
241.17
261.45
277.06
288.23
295.41
298.95
298.67
293.73
282.94
265.48
241.76
213.66
184.19
156.57
133.22
115.29
102.75
95.01
91.49
91.86
96
103.68
114.38
127.27
141.17
154.86
167.3
178
187.27
196.09
205.52
215.91
226.31
234.76
239.08
237.82
230.83
218.75
202
179.98
151.25
114.76
71.36
24.64
-19.83
-56.23
-80.39
-90.84
-88.54
-75.99
-56.5
-34.02
-13.46
-0.32
0.49
-13.58
-41.19
-76.92
-112.8
-141.22
-157.66
-162.24
-159.23
-154.92
-154.91
-161.86
-174.72
-189.77
-202.48
-209.56
-210.08
-205.08
-196.46
-185.57
-172.68
-157.42
-139.9
-121.46
-104.62
-92.23
-86.2
-86.79
-92.64
-101.4
-110.4
-117.08
-118.99
-113.91
-100.36
-78.26
-49.47
-17.56
13.18
39.18
58.71
72
80.24
84.21
83.51
76.87
63.44
44.16
22.33
2.75
-9.88
-12.66
-5.45
9.56
28.84
48.84
66.84
81.05
90.15
93.07
88.84
76.84
57.49
32.73
6.4
-16.05
-28.74
-27.3
-10.9
16.59
47.2
71.22
80.52
71.48
45.9
9.86
-29.08
-64.66
-93.51
-115.17
-130.9
-142.3
-150.65
-156.86
-161.87
-166.56
-171.39
-175.85
-178.24
-176.27
-168.16
-153.58
-134.03
-112.29
-91.36
-73.31
-58.73
-46.92
-36.54
-26.42
-16.02
-5.45
4.81
14.33
22.92
30.67
37.91
45.02
52.32
60.09
68.51
77.69
87.73
98.57
110.07
121.98
133.95
145.65
156.72
166.84
175.8
183.42
189.6
194.17
196.87
197.27
194.78
188.78
178.77
164.66
146.96
126.88
106.26
87.13
71.16
59.07
50.54
44.61
40.54
38.65
40.5
48.45
64.58
89.64
122.51
160.35
199.34
235.55
265.58
286.81
297.54
296.95
285.26
263.79
234.72
200.71
164.22
126.91
89.39
51.51
13.17
-24.52
-58.8
-85.86
-102.47
-107.98
-105.4
-100.86
-101.56
-113.01
-137.09
-171.47
-210.89
-249.03
-280.51
-301.83
-311.46
-309.32
-296.36
-274.33
-245.75
-213.94
-182.58
-155.27
-134.66
-121.7
-115.36
-112.95
-111.27
-107.74
-101.39
-92.89
-83.82
-75.45
-67.89
-59.76
-48.7
-32.34
-9.27
20.33
54.63
90.46
124.04
151.94
171.8
183.05
186.93
185.94
182.8
179.41
176.24
172.55
167.2
159.59
149.95
138.96
126.89
112.93
95.43
72.99
45.84
16.91
-8.33
-23.2
-22.35
-4.01
28.52
67.22
101.49
121.35
120.3
96.88
54.51
0.11
-57.66
-110.01
-149.48
-171.29
-174.7
-163.78
-146.82
-133.96
-133.8
-150.44
-182.25
-223.15
-265.53
-303.03
-332.02
-351.48
-361.8
-363.58
-357.2
-342.88
-321.1
-292.81
-259.54
-223.04
-185.1
-147.34
-111.03
-76.94
-45.27
-15.65
12.63
40.29
67.9
95.94
124.96
155.55
187.8
220.42
250.02
271.19
277.68
264.37
229.29
174.78
107.21
35.34
-31.93
-87.57
-127.59
-151.21
-160.3
-158.45
-149.95
-138.88
-128.37
-120.34
-115.5
-113.76
-114.59
-117.41
-121.67
-126.96
-133
-139.64
-146.9
-154.9
-163.82
-173.71
-184.4
-195.5
-206.57
-217.34
-227.84
-238.29
-248.63
-258.1
-265.02
-267.04
-262.05
-249.03
-228.6
-202.97
-175.04
-147.52
-122.1
-99.37
-79.07
-60.64
-43.55
-27.32
-11.32
5.31
23.62
44.43
67.88
93.1
118.36
141.46
160.49
174.41
183.45
188.76
191.91
194.1
195.8
196.71
196.24
194.05
190.34
185.71
180.89
176.19
171.45
166.12
159.58
151.53
142.03
131.43
120.15
108.56
96.99
85.76
75.24
65.77
57.41
49.84
42.33
33.97
24.2
13.31
2.67
-5.38
-8.14
-3.42
9.68
30.42
56.76
85.98
115.65
144.12
170.77
195.7
219.46
242.6
265.46
288
309.58
328.97
344.44
354.22
357.15
353.17
343.54
330.53
316.86
304.79
295.61
289.24
284.44
279.27
271.85
261.04
246.83
230.18
212.55
195.2
178.79
163.26
148.08
132.52
115.93
97.63
77.03
53.63
27.32
-1.52
-32.05
-63.22
-94.02
-123.66
-151.64
-177.73
-201.98
-224.74
-246.53
-267.67
-287.81
-305.59
-318.88
-325.26
-322.85
-310.42
-287.39
-253.42
-208.72
-155.13
-97.26
-42.9
-1.64
18.02
11.9
-17.98
-63.77
-114.44
-159.19
-190.13
-203.44
-198.86
-178.53
-146.01
-105.67
-62.21
-20.17
16.77
46.4
67.96
81.86
89.1
90.77
87.81
80.9
70.58
57.22
41.34
23.75
5.69
-11.35
-26.18
-38.54
-49.31
-60.15
-72.79
-88.08
-105.62
-123.93
-141.15
-155.83
-167.42
-176.31
-183.35
-189.38
-194.59
-198.31
-199.19
-195.68
-186.75
-172.4
-153.8
-132.92
-111.95
-92.63
-75.89
-61.94
-50.42
-40.82
-32.64
-25.5
-19.25
-13.99
-9.97
-7.43
-6.33
-6.09
-5.7
-3.94
0.08
6.59
15.06
24.49
33.89
42.67
50.79
58.61
66.62
75.2
84.5
94.49
104.92
115.45
125.67
135.33
144.4
153.01
161.04
167.48
169.94
164.71
147.56
114.97
65.6
1.22
-73.01
-149.17
-218.05
-270.98
-301.77
-308.15
-292.08
-258.97
-215.83
-169.09
-123.1
-79.54
-38.14
2.07
41.59
79.92
115.8
147.88
175.2
197.45
214.87
228.06
237.89
245.53
252.47
260.26
269.87
281.08
292.02
299.55
300.14
291.2
272.11
244.43
211.23
175.82
140.61
106.44
72.9
38.94
3.93
-31.6
-65.58
-94.73
-115.33
-124.43
-121.19
-107.92
-90.17
-75.6
-71.83
-83.89
-112.26
-152.51
-196.6
-235.62
-262.43
-273.48
-269.1
-252.41
-227.65
-198.88
-169.21
-140.81
-115.23
-93.54
-76.28
-63.35
-53.86
-46.44
-39.66
-32.55
-24.81
-16.83
-9.24
-2.55
3.2
8.37
13.61
19.49
26.24
33.64
41.1
47.9
53.44
57.39
59.75
60.68
60.4
59.1
56.92
53.98
50.54
46.94
43.61
40.91
39
37.72
36.65
35.21
32.79
28.99
23.82
17.84
12.23
8.56
8.37
12.69
21.75
34.85
50.76
68.12
85.83
103.17
119.55
134.27
146.33
154.51
157.67
155.11
146.9
133.97
118.11
101.68
87.3
77.34
73.45
76.2
85.01
98.35
114.27
130.98
147.19
162.26
175.86
187.6
196.59
201.51
200.97
193.97
180.33
160.72
136.49
109.42
81.51
54.9
31.58
12.97
-0.77
-10.98
-20.08
-30.41
-42.74
-55.39
-64.49
-65.37
-54.71
-32.03
-0.36
34.55
65.84
87.53
95.98
90.64
73.82
49.83
23.67
-0.04
-17.98
-28.59
-32.05
-30.12
-25.65
-22
-22.26
-28.34
-40.52
-57.43
-76.61
-95.42
-111.97
-125.51
-136.2
-144.79
-152.09
-158.68
-164.88
-170.58
-175.37
-178.65
-179.74
-178.15
-173.79
-166.92
-158
-147.6
-136.19
-124.13
-111.59
-98.41
-84.04
-67.74
-49.13
-28.9
-9.21
6.62
15.07
13.72
2.17
-17.79
-42.8
-68.81
-92.01
-109.34
-118.78
-119.5
-112
-98.05
-80.27
-61.45
-43.66
-27.74
-13.26
0.94
16.18
33.24
52.17
72.3
92.41
111.12
127.21
139.89
148.88
154.44
157.23
158
157.49
156.15
154.02
150.79
145.88
138.87
129.71
118.95
107.47
96.14
85.4
75.14
65.11
55.59
47.78
43.82
45.9
55.29
71.64
92.88
115.93
137.8
156.19
169.65
177.3
178.32
172.02
158.28
138.08
113.67
88.11
64.24
43.56
26.01
10.37
-4.76
-20.08
-35.52
-50.87
-66.56
-83.95
-104.72
-129.4
-156.27
-181.39
-200.04
-209.21
-209.65
-206.35
-206.85
-218.16
-243.53
-280.98
-324.03
-364.36
-395.15
-413.33
-419.8
-417.61
-409.45
-395.77
-374.66
-343.35
-300.23
-246.12
-183.96
-117.58
-50.46
14.42
73.84
123.48
158.17
173.53
168.04
144.48
109.67
72.33
40.46
19.32
10.79
13.94
26.16
43.99
63.71
81.66
94.74
101.14
100.95
96.25
90.47
87.39
89.7
97.82
109.54
120.4
125.14
119.41
101.34
72.17
35.71
-3.05
-39.63
-71.25
-97.28
-118.7
-137.19
-154.09
-169.7
-183.12
-192.62
-196.36
-193.18
-183.03
-167.1
-147.24
-125.31
-102.48
-79.21
-55.42
-31.06
-6.42
17.77
40.65
61.51
79.98
95.91
109.22
119.79
127.59
132.91
136.42
139.23
142.46
146.84
152.32
158
162.45
164.18
162.27
156.57
147.63
136.27
123.07
108.24
91.59
73.03
52.82
31.82
11.38
-6.95
-21.72
-31.95
-37.35
-38.64
-37.58
-36.81
-39.29
-47.32
-61.54
-80.39
-100.21
-116.21
-124.01
-121.03
-107.39
-85.69
-60.02
-34.5
-12.05
6.05
19.91
30.2
37.63
42.83
46.56
50.04
54.73
61.9
71.85
83.7
95.7
106.04
113.77
119.14
123.25
127.18
131.03
133.48
131.98
123.38
104.86
74.88
33.81
-15.81
-69.39
-121.06
-164.81
-195.63
-210.39
-208.22
-190.38
-159.9
-121.06
-78.88
-38.46
-4.17
21.04
36.1
41.61
39.15
30.42
16.64
-1.25
-22.07
-43.69
-62.98
-76.49
-81.58
-77.5
-65.7
-49.41
-32.45
-17.96
-7.43
-0.45
4.83
10.78
19.34
31.37
46.43
63.23
80.13
95.74
109.23
120.23
128.69
134.63
138.13
139.37
138.65
136.25
132.38
126.92
119.56
110.02
98.29
84.65
69.45
52.71
33.94
12.3
-12.74
-40.83
-70.44
-99.29
-125.15
-146.68
-163.87
-177.69
-189.47
-200.24
-210.58
-220.64
-230.24
-238.55
-243.7
-242.68
-231.96
-209.07
-174.02
-129.99
-82.52
-37.47
1.17
32.51
58.4
81.72
104.44
126.5
146.05
160.61
168.51
169.68
165.61
158.7
151.68
147.08
147.22
154.06
168.84
191.45
219.78
249.59
275.36
291.93
296.25
288.54
271.98
251.21
230.16
210.39
190.48
167.02
136.41
96.8
49.25
-2.18
-51.62
-93.2
-122.91
-139.67
-145.39
-143.95
-139.82
-136.75
-137.33
-143.07
-154.84
-172.89
-196.53
-223.54
-250.15
-271.72
-284.02
-284.83
-274.71
-256.94
-236.55
-218.54
-206.37
-200.98
-200.6
-201.68
-200.43
-194.33
-182.93
-167.81
-151.6
-136.85
-125.16
-117.04
-112.3
-110.44
-110.91
-112.99
-115.57
-117.12
-115.95
-110.77
-101.08
-87.27
-70.3
-51.14
-30.35
-7.94
16.26
41.98
68.16
93.06
114.84
132.26
145.16
154.27
160.54
164.46
165.74
163.55
157.18
146.63
132.79
117.09
100.95
85.4
71.09
58.61
48.86
43.13
42.81
48.72
60.61
77.1
96.03
115.23
133.15
149.15
163.29
175.91
187.12
196.58
203.63
207.57
207.94
204.69
198.04
188.4
176.17
161.69
145.2
126.9
107.02
86.06
64.84
44.49
26.02
9.82
-4.72
-19.08
-35.03
-53.76
-74.99
-96.81
-116.01
-128.96
-132.52
-124.78
-105.46
-76.02
-39.46
0.23
38.55
71.16
94.47
105.96
104.34
89.65
63
26.21
-18.53
-68.83
-121.77
-173.44
-218.65
-251.17
-265.09
-256.74
-226.6
-179.8
-125.22
-72.96
-31.5
-5.48
4.92
3.04
-6
-17.36
-27.53
-34.64
-37.73
-35.97
-28.21
-13.05
10.3
41.24
77.31
114.51
148.18
174.19
189.99
195.16
191.53
182.91
174.5
171.63
178.22
195
218.48
241.48
255.13
251.7
227.22
182.68
123.48
57.64
-6.61
-62.85
-107.75
-141.49
-167.3
-190.18
-215.01
-244.33
-276.86
-307.57
-329.42
-336.08
-324.61
-296.46
-256.47
-210.9
-165.18
-123
-86.65
-58.06
-39.43
-32.98
-39.5
-56.93
-79.98
-101.32
-113.86
-113.23
-99.06
-74.52
-44.64
-14.12
14.22
39.79
63.43
86.25
108.49
129.07
145.89
156.63
159.64
154.46
141.89
123.44
100.62
74.48
45.62
14.73
-16.87
-47.13
-73.92
-96.12
-114.5
-131.61
-150.87
-174.8
-203.85
-236.08
-268.01
-295.91
-316.83
-328.89
-330.9
-322.15
-302.46
-272.77
-235.58
-194.74
-154.5
-118.2
-87.31
-61.38
-38.89
-18.35
0.89
18.58
34.1
47.18
58.15
67.77
76.63
84.68
91.16
95.01
95.46
92.63
87.53
81.73
76.71
73.31
71.62
71.19
71.48
72.19
73.42
75.48
78.71
83.28
89.1
95.76
102.57
108.65
113.05
115.08
114.48
111.59
107.17
102.06
96.88
91.87
87.06
82.34
77.77
73.53
69.87
67.07
65.46
65.42
67.47
72.15
79.63
89.64
101.4
113.82
125.87
136.8
146.21
153.86
159.68
163.62
165.8
166.55
166.29
165.37
163.9
161.65
158.21
153.36
147.53
142.19
139.89
143.7
156.23
178.19
207.29
238.05
262.73
273.58
265.26
236.68
191.49
136.92
81.6
33.14
-3.89
-28.67
-43.85
-54.21
-64.98
-80.26
-102.03
-129.98
-162.08
-195.6
-228.1
-258.03
-284.75
-308.22
-328.59
-345.74
-359.1
-367.67
-370.06
-364.79
-350.66
-327.18
-295.1
-256.71
-215.99
-177.95
-147.58
-128.31
-120.69
-122.15
-127.66
-131.5
-129.18
-118.72
-100.78
-77.74
-52.2
-25.78
1.19
29.26
58.99
90.23
121.83
151.9
178.32
199.34
214
222.32
225.21
224.05
220.23
214.63
207.4
197.98
185.49
169.27
149.37
126.83
103.67
82.78
67.42
60.27
62.16
70.88
80.81
84.09
73.16
43.84
-2.37
-57.94
-111.27
-150.3
-166.42
-157.18
-126.88
-85.05
-43.53
-13.19
-1.35
-10.35
-37.56
-76.51
-118.74
-155.92
-181.52
-191.92
-186.71
-168.29
-140.91
-109.48
-78.38
-50.63
-27.61
-9.2
5.62
18.09
29.06
38.58
46.01
50.32
50.91
48.05
43.13
38.23
35.51
36.36
41.01
48.56
57.37
65.67
72.01
75.38
75.1
70.62
61.47
47.33
28.34
5.28
-20.38
-46.65
-71.35
-92.26
-107.24
-114.37
-112.22
-100.34
-79.71
-52.66
-22.48
7.6
35.29
59.6
80.74
99.39
116.07
130.72
142.96
152.41
159.2
164.04
168.07
172.45
177.81
183.86
189.02
190.68
185.96
172.85
151.35
123.93
95.06
69.92
52.8
45.9
48.85
59.06
72.51
84.55
90.63
87.12
71.96
45.19
8.97
-32.88
-75.98
-116.39
-151.24
-178.9
-198.68
-210.5
-214.83
-212.75
-205.93
-196.43
-186.12
-176.02
-166.07
-155.2
-141.99
-125.65
-106.88
-88.27
-73.93
-68.22
-73.96
-91.08
-116.18
-143.24
-165.05
-175.02
-168.79
-145.19
-106.87
-59.97
-13.13
24.62
46.3
49.24
35.92
13.04
-10.82
-28.06
-34.04
-27.68
-10.69
13.81
42.35
71.83
99.7
124.13
144.09
159.42
170.73
179.13
185.73
191.25
195.79
198.6
198.11
192.18
178.81
157.05
127.74
93.66
58.87
27.47
2.18
-16.34
-29.44
-39.47
-48.61
-57.89
-66.9
-74.18
-77.64
-75.25
-65.3
-46.86
-20.24
12.75
48.74
83.23
111.54
129.99
136.66
131.87
118.01
99.01
79.72
65.1
59.39
64.78
80.42
102.02
122.77
135.39
134.73
119.54
92.65
59.47
25.55
-5.53
-32.93
-57.64
-80.97
-103.3
-123.96
-142.04
-157.43
-171.16
-184.97
-200.04
-216.01
-230.8
-241.45
-245.41
-241.75
-231.42
-216.6
-199.46
-180.98
-160.62
-136.88
-108.6
-76.12
-41.83
-9.63
16.63
34.86
46.09
54.43
65.86
86.06
118.32
162.13
213.08
263.94
306.54
333.88
341.84
330.02
301.35
260.91
214.05
164.72
114.63
63.73
11.61
-40.76
-90.03
-130.84
-157.63
-166.72
-158.25
-136.6
-109.36
-85.37
-72.49
-75.98
-97.67
-135.98
-186.33
-241.97
-295.13
-338.56
-367.13
-379.14
-376.66
-364.58
-348.62
-333.17
-319.73
-306.71
-290.77
-268.96
-240.57
-207.93
-175.81
-149.62
-133.4
-128.32
-132.24
-140.52
-147.56
-148.39
-139.81
-120.76
-92.17
-56.26
-15.88
26.15
67.42
106.13
141.21
172.21
199.09
221.97
240.83
255.45
265.43
270.39
270.24
265.43
256.89
245.92
233.87
221.88
210.59
200.08
189.88
179.08
166.67
151.85
134.44
115.13
95.34
76.93
61.45
49.67
41.25
35.02
29.42
23.19
15.7
7.01
-2.38
-11.99
-21.47
-30.72
-39.77
-48.67
-57.45
-66.21
-75.06
-84.12
-93.2
-101.54
-107.69
-109.75
-105.93
-95.25
-78.1
-56.25
-32.3
-8.92
11.95
29.41
43.47
54.62
63.45
70.31
75.38
78.71
80.36
80.42
79
76.38
72.95
69.24
65.72
62.62
59.8
56.83
53.23
48.83
43.88
38.93
34.53
30.91
27.85
24.86
21.47
17.44
12.88
8.15
3.51
-0.95
-5.41
-10.1
-15.13
-20.29
-25.12
-29.08
-31.83
-33.46
-34.55
-36.02
-38.9
-43.98
-51.46
-60.86
-70.86
-79.62
-85.1
-85.68
-80.52
-69.81
-54.64
-36.53
-17.02
2.74
21.95
39.99
56.25
70.02
80.59
87.47
90.6
90.4
87.75
83.67
79.15
74.85
70.97
67.31
63.45
59.1
54.27
49.28
44.58
40.47
36.9
33.52
29.9
25.74
20.95
15.54
9.46
2.52
-5.53
-14.69
-24.56
-34.29
-42.88
-49.52
-53.92
-56.39
-57.66
-58.59
-59.95
-62.17
-65.23
-68.73
-71.83
-73.47
-72.57
-68.31
-60.44
-49.38
-36.2
-22.21
-8.72
3.35
13.6
22.06
29
34.7
39.3
42.79
45.11
46.29
46.54
46.19
45.54
44.86
44.22
43.59
42.92
42.2
41.45
40.65
39.72
38.46
36.68
34.26
31.26
27.84
24.17
20.39
16.46
12.3
7.78
2.87
-2.34
-7.62
-12.68
-17.34
-21.54
-25.41
-29.31
-33.75
-39.26
-46.1
-54.05
-62.15
-68.87
-72.46
-71.57
-65.73
-55.62
-42.75
-28.96
-15.8
-4.09
6.07
15.02
23.18
30.73
37.53
43.28
47.67
50.61
52.26
52.98
53.15
53.01
52.71
52.29
51.85
51.58
51.71
52.38
53.51
54.67
55.21
54.46
51.95
47.58
41.69
34.93
27.96
21.25
14.9
8.6
1.82
-5.99
-15.13
-25.52
-36.62
-47.58
-57.54
-65.81
-72.15
-76.86
-80.57
-83.92
-87.07
-89.47
-89.85
-86.61
-78.42
-64.7
-45.87
-23.31
1.03
25.01
46.67
64.49
77.5
85.34
88.24
86.94
82.52
76.26
69.28
62.47
56.4
51.39
47.64
45.28
44.42
45.07
47.1
50.19
54
58.25
62.93
68.22
74.34
81.34
88.97
96.95
105.4
115.21
127.95
145.2
167.66
194.44
223.18
250.8
274.68
293.39
306.62
314.54
317.1
314.13
305.82
293.47
279.46
266.39
255.87
247.57
239.52
229.16
214.8
196.3
174.84
151.89
128.21
103.62
77.55
50
21.99
-4.72
-28.58
-49.29
-68.04
-87
-107.96
-131.11
-154.77
-176.14
-192.82
-204.18
-211.67
-217.98
-225.68
-235.83
-247.68
-259.15
-268.06
-273.02
-273.84
-271.36
-266.82
-261.35
-255.54
-249.48
-242.86
-235.4
-227.19
-218.94
-211.91
-207.41
-206.22
-208.08
-211.71
-215.15
-216.5
-214.65
-209.56
-202.07
-193.19
-183.35
-172.03
-158.03
-140.27
-118.69
-94.87
-72
-54.14
-45
-47
-60.6
-84.21
-114.35
-145.89
-172.56
-187.85
-186.55
-166.51
-129.89
-82.79
-33.31
11.53
48.6
79.3
108.07
139.08
173.07
206.04
230.63
239.48
228.57
199.26
157.9
113.65
75.69
50.79
41.84
47.58
63.45
83.02
99.93
109.32
108.44
96.61
74.47
43.15
3.76
-42.6
-94.19
-148.18
-201.03
-249.51
-291.76
-327.57
-357.91
-383.81
-405.28
-420.79
-426.98
-420.37
-399.23
-364.78
-320.87
-273.05
-227.5
-190.38
-166.95
-158.96
-164.76
-179.6
-197.06
-210.59
-215.38
-210.04
-196.9
-180.38
-162.32
-142.22
-118.25
-89.55
-56.63
-20.65
17.32
57.01
99.38
149.05
210.34
284.56
367.81
452.87
532.33
600.69
655.06
677.71
655.21
588.2
494.22
394.53
302.6
222.86
154.57
95.7
44.71
4.89
-22.37
-36.32
-39.04
-34.3
-25.71
-16.13
-7.89
-2.82
0.4
1.62
1.67
0.6
-1.8
-5.37
-9.76
-14.79
-20.34
-24.77
-26.23
-23.32
-16.81
-9.08
-2.73
0.46
0.08
-3.1
-7.05
-10.1
-11.45
-12.16
-14.35
-19.93
-29.74
-43.14
-58.19
-71.87
-81.22
-83.91
-79.25
-68.14
-52.59
-34.95
-17.29
-0.99
13.33
25.54
35.88
44.58
51.83
57.79
62.69
66.87
70.67
74.37
78.06
81.71
85.16
88.33
91.19
93.88
96.62
99.59
102.85
106.33
109.82
112.92
115.1
115.65
113.79
108.9
100.8
89.81
76.76
62.77
48.78
35.49
23.15
11.71
0.89
-9.61
-20.05
-30.46
-40.47
-49.24
-55.57
-58.21
-56.37
-50.01
-40
-27.85
-15.28
-3.77
5.76
12.94
17.83
20.68
21.78
21.47
20.12
18.16
16.04
14.12
12.62
11.67
11.31
11.59
12.51
13.95
15.58
16.9
17.35
16.48
14.09
10.31
5.45
-0.04
-5.79
-11.55
-17.21
-22.86
-28.66
-34.76
-41.06
-47.1
-51.99
-54.63
-54.05
-49.75
-41.94
-31.47
-19.55
-7.43
3.9
13.85
22.23
29.04
34.37
38.32
40.95
42.28
42.37
41.3
39.24
36.49
33.4
30.32
27.44
24.85
22.47
20.18
17.91
15.69
13.6
11.71
10.01
8.38
6.6
4.48
1.84
-1.36
-5.11
-9.34
-13.96
-18.81
-23.66
-28.31
-32.6
-36.59
-40.55
-44.95
-50.24
-56.57
-63.56
-70.28
-75.41
-77.57
-75.84
-69.99
-60.54
-48.58
-35.4
-22.15
-9.65
1.6
11.32
19.32
25.46
29.67
32.13
33.21
33.44
33.27
32.94
32.35
31.27
29.49
27.12
24.53
22.27
20.76
20.09
20.04
20.13
19.91
19.06
17.44
14.98
11.66
7.55
2.89
-1.83
-5.98
-8.99
-10.65
-11.25
-11.53
-12.38
-14.62
-18.59
-24.07
-30.39
-36.51
-41.31
-43.75
-43.08
-39.03
-31.96
-23.03
-14.08
-7.37
-4.92
-7.94
-16.23
-28.27
-41.56
-53.46
-61.92
-66.04
-66.04
-62.92
-58.03
-52.63
-47.68
-43.69
-40.57
-37.61
-33.6
-27.28
-17.82
-5.42
8.7
22.62
34.49
43.13
48.27
50.33
49.91
47.38
42.71
35.73
26.41
15.2
3.04
-8.81
-19
-26.39
-30.38
-31.09
-29.36
-26.65
-24.53
-24.17
-25.87
-28.91
-31.83
-32.97
-31.06
-25.65
-17.23
-7.05
3.23
12.07
18.35
21.64
22.13
20.33
16.86
12.15
6.45
-0.04
-6.95
-13.67
-19.47
-23.76
-26.3
-27.28
-27.15
-26.38
-25.33
-24.25
-23.38
-23.06
-23.77
-25.87
-29.35
-33.6
-37.46
-39.52
-38.63
-34.24
-26.62
-16.65
-5.52
5.64
16.06
25.32
33.33
40.05
45.45
49.51
52.33
54.19
55.54
56.82
58.2
59.56
60.44
60.34
58.95
56.32
52.8
48.88
44.92
41.06
37.31
33.62
30.11
27.05
24.74
23.39
22.88
22.73
22.22
20.49
16.92
11.37
4.39
-2.92
-9.11
-12.9
-13.58
-11.19
-6.5
-0.54
5.67
11.5
16.68
21.2
25.1
28.37
30.93
32.74
33.86
34.49
34.89
35.29
35.98
37.3
39.63
43.4
48.88
55.95
64.01
71.96
78.44
82.25
82.6
79.3
72.69
63.53
52.82
41.59
30.82
21.18
13
6.25
0.73
-3.61
-6.39
-6.74
-3.49
4.32
17.04
34.2
54.63
76.73
98.9
119.68
137.95
153.02
164.6
172.92
178.61
182.53
185.51
188.16
190.63
192.57
193.09
190.91
184.6
173.04
155.81
133.57
107.89
80.8
54.15
29
5.37
-17.57
-40.93
-65.47
-91.03
-116.54
-140.32
-160.71
-176.63
-187.77
-194.34
-196.56
-194.36
-187.36
-175.44
-159.35
-140.97
-123.01
-108.1
-97.98
-92.89
-91.88
-93.44
-96.35
-100.14
-105.16
-112.3
-122.48
-136.09
-152.64
-170.55
-187.18
-199.45
-204.41
-200.14
-186.24
-163.92
-135.58
-104.14
-72.34
-42.3
-15.29
8.24
28.51
46.22
62.14
76.52
88.69
96.8
98.15
90.05
70.76
40.44
1.49
-41.73
-83.79
-119.34
-144.32
-156.76
-157.07
-147.65
-132.06
-113.94
-96.04
-79.87
-65.64
-52.75
-40.45
-28.32
-16.57
-6.03
2.12
6.69
6.87
2.58
-5.47
-15.96
-27.33
-38.13
-47.26
-53.97
-57.89
-58.93
-57.35
-53.81
-49.25
-44.63
-40.61
-37.29
-34.23
-30.72
-26.23
-20.72
-14.76
-9.33
-5.39
-3.52
-3.53
-4.42
-4.41
-1.44
6.37
20.01
39.26
62.5
87.17
110.47
130.19
145.31
156.05
163.44
168.55
171.96
173.52
172.56
168.32
160.37
148.71
133.84
116.55
97.84
78.72
60.08
42.59
26.57
11.95
-1.5
-13.9
-25.04
-34.4
-41.51
-46.52
-50.46
-55.05
-61.66
-70.06
-77.71
-80.31
-73.51
-54.93
-25.55
10.31
46.27
75.87
94.19
98.83
90.08
70.65
45.23
19.69
-0.18
-10.31
-9.65
-0.57
11.99
22.47
26.6
22.31
9.8
-9.17
-32.2
-56.68
-80.09
-100.19
-115.21
-124.14
-127.08
-125.17
-120.3
-114.46
-109.17
-105.18
-102.43
-100.37
-98.43
-96.4
-94.55
-93.54
-93.99
-95.98
-98.78
-100.9
-100.46
-95.84
-86.32
-72.26
-54.99
-36.38
-18.23
-1.92
11.77
22.63
30.67
36
38.76
39.15
37.45
34.17
30
25.8
22.39
20.3
19.63
19.99
20.67
20.9
20.29
18.91
17.27
16.08
15.77
16.26
16.98
17.07
15.72
12.45
7.15
-0.01
-8.71
-18.46
-28.6
-38.09
-45.65
-49.91
-49.87
-45.21
-36.51
-25.06
-12.52
-0.45
10.03
18.34
24.34
28.19
30.13
30.46
29.59
28.02
26.36
25.2
24.92
25.62
27.09
29
31.01
32.91
34.62
36.1
37.26
37.95
38
37.32
35.9
33.85
31.44
29.07
27.17
26.12
25.84
25.66
24.4
20.81
14.42
6.07
-2.05
-7.01
-6.25
1.44
15.55
34.23
54.99
75.57
94.23
109.8
121.43
128.52
130.75
128.34
122.14
113.5
103.85
94.28
85.26
76.61
67.69
57.8
46.38
33.18
18.09
1.06
-17.93
-38.82
-61.19
-84.25
-106.92
-128.23
-147.58
-164.9
-180.46
-194.47
-206.74
-216.66
-223.41
-226.2
-224.51
-217.97
-206.23
-188.78
-165.07
-134.93
-98.94
-58.63
-16.28
25.64
65.14
100.99
132.75
160.37
183.72
202.41
215.81
223.42
225.14
221.53
213.81
203.61
192.76
182.9
175.22
170.28
167.85
167.11
167.03
166.65
165.46
163.41
160.73
157.65
154.13
149.81
144.17
136.84
127.77
117.38
106.35
95.33
84.65
74.21
63.61
52.48
40.77
28.95
17.96
9.01
3.17
1.19
3.24
9.03
17.89
29.07
42.11
57.08
74.7
96.02
121.94
152.48
186.34
220.78
252.1
276.41
290.5
292.68
283.12
263.93
238.51
210.61
183.22
157.72
133.81
109.98
84.5
56.29
25.26
-7.96
-42.64
-78.37
-114.98
-152.11
-188.6
-222.39
-250.95
-272.21
-285.35
-291.09
-291.38
-288.62
-284.74
-280.76
-276.86
-272.86
-268.73
-264.82
-261.51
-258.69
-255.28
-249.33
-238.74
-222.21
-200.13
-174.68
-149.15
-126.72
-109.38
-97.35
-89.41
-83.69
-78.61
-73.41
-68.08
-62.94
-58.16
-53.57
-48.73
-43.31
-37.35
-31.22
-25.38
-20.16
-15.56
-11.33
-7.2
-3.08
0.77
3.86
5.73
6.12
5.11
2.98
0.24
-2.72
-5.54
-8.09
-10.4
-12.64
-15.08
-17.97
-21.35
-24.97
-28.32
-30.72
-31.79
-31.49
-30.26
-28.57
-26.45
-23.26
-17.71
-8.52
4.97
22.26
41.77
61.38
79.17
93.95
105.4
113.8
119.66
123.45
125.51
126.07
125.36
123.55
120.78
117.12
112.59
107.17
100.83
93.38
84.42
73.35
59.36
41.66
19.55
-7.33
-38.75
-73.73
-110.41
-146.17
-178.05
-203.35
-220.21
-228.06
-227.6
-220.45
-208.61
-193.85
-177.4
-159.97
-141.99
-123.9
-106.31
-90.05
-75.98
-64.71
-56.44
-50.92
-47.29
-44.22
-40.01
-32.93
-21.68
-5.96
13.25
33.84
53.04
68.23
77.65
80.71
77.97
70.69
60.4
48.53
36.16
24.09
12.98
3.34
-4.4
-10.01
-13.43
-14.83
-14.49
-12.63
-9.41
-4.89
0.71
6.92
12.98
17.97
21.12
22.05
20.93
18.36
15.15
12.02
9.39
7.31
5.54
3.77
1.71
-0.7
-3.35
-6
-8.57
-11.11
-13.88
-17.25
-21.45
-26.56
-32.27
-37.94
-42.57
-44.99
-44.12
-39.33
-30.67
-18.97
-5.71
7.41
18.91
27.83
33.84
37.1
37.96
36.78
33.93
29.79
24.86
19.77
15.21
11.68
9.49
8.62
8.82
9.79
11.27
13.09
15.14
17.29
19.33
20.98
22.02
22.33
22
21.25
20.31
19.34
18.4
17.44
16.49
15.66
15.08
14.81
14.7
14.33
13.2
10.93
7.54
3.64
0.25
-1.39
-0.23
4.29
12.06
22.31
33.85
45.28
55.32
62.99
67.74
69.46
68.46
65.29
60.61
55.02
48.86
42.15
34.64
25.9
15.62
3.74
-9.47
-23.42
-37.31
-50.37
-61.93
-71.53
-78.96
-84.24
-87.48
-88.9
-88.67
-86.89
-83.6
-78.76
-72.33
-64.38
-55.02
-44.6
-33.58
-22.58
-12.42
-4.03
1.67
4.03
2.92
-0.92
-6.01
-10.38
-12.12
-10.11
-4.29
4.3
14
23.21
30.87
36.64
40.82
43.95
46.54
48.92
51.15
53.16
54.78
55.81
56.06
55.46
54.15
52.39
50.57
49.04
47.91
47.18
46.76
46.55
46.57
46.99
48.01
49.84
52.53
55.94
59.75
63.48
66.5
68
67.03
62.63
54.04
40.93
23.45
2.21
-22
-48.37
-76.18
-104.61
-132.51
-158.27
-179.98
-195.9
-205
-207.32
-204.01
-196.96
-188.3
-179.91
-173.05
-168.3
-165.6
-164.46
-164.14
-163.76
-162.35
-158.89
-152.48
-142.48
-128.8
-111.93
-92.89
-72.92
-53.14
-34.31
-16.86
-1
13.09
25.14
34.91
42.36
47.6
50.89
52.63
53.31
53.35
53.1
52.57
51.56
49.78
46.86
42.31
35.97
28.15
19.8
12.38
7.46
6.48
10.4
19.33
32.21
47.33
62.79
76.84
88.27
96.13
100.14
100.75
98.96
95.17
90.1
84.66
79.6
75.49
71.71
67.69
63.42
59.4
54.72
49.38
44.47
41.45
41.62
43.05
42.12
34.68
17.23
-14.49
-60.22
-114.81
-170.33
-218.49
-256.74
-286.16
-309.49
-329.31
-349.89
-371.07
-388.39
-395.57
-386.8
-363.39
-330.16
-292.86
-233.05
-146.99
-45.26
53.41
123.93
170.88
202.13
224.24
243.93
264.01
281.17
291.97
294.63
289.62
280.52
268.78
256.64
247.56
245.35
251.12
266.49
292.9
329.41
371.73
408.93
429.19
424.57
393.77
340.95
276.12
211.96
160.39
130.42
124.79
141.61
175.4
217.63
257.68
286.25
298.31
294.49
280.74
264.43
251.73
245.22
243
239.91
230.63
212.13
184.59
150.88
114.4
77.9
42.8
9.58
-21.59
-50.28
-75.81
-97.89
-117.09
-134.9
-153.22
-173.4
-195.66
-218.94
-241.47
-261.81
-279.73
-296.54
-314.43
-335.09
-358.17
-380.6
-397.16
-402.11
-391.14
-362.69
-318.27
-261.78
-198.53
-134.34
-74.78
-24.55
13.26
37.82
50.83
55.95
57.53
59.09
62.39
67.26
72.33
75.93
76.69
73.83
67.11
56.83
43.99
30.51
18.86
11.53
10.1
14.45
22.86
32.61
41.19
47.12
50.51
52.67
55.32
59.88
66.75
74.99
82.48
86.45
84.33
74.72
57.99
36.28
12.91
-8.79
-26.61
-40.1
-50.36
-59.3
-68.65
-79.23
-90.81
-102.3
-112.33
-119.72
-123.77
-124.38
-121.99
-117.39
-111.69
-106.24
-102.43
-101.45
-103.76
-108.81
-115.06
-120.47
-123.2
-122.17
-117.37
-109.5
-99.68
-88.89
-77.95
-67.58
-58.67
-52.4
-49.94
-52.09
-58.81
-69.15
-81.41
-93.66
-104.35
-112.7
-118.93
-123.99
-129.22
-135.81
-144.51
-155.47
-168.35
-182.56
-197.27
-211.58
-224.52
-235.11
-242.27
-244.97
-242.12
-232.56
-214.99
-188.35
-152.6
-109.82
-64.82
-24.73
2.59
11.11
-1.28
-31.77
-73.7
-118.78
-159.57
-191.08
-210.94
-218.61
-214.51
-199.7
-176.25
-147.57
-118.18
-92.44
-73.12
-60.43
-52.04
-44.37
-34.33
-20.72
-4.52
11.97
26.75
39.41
51.82
67.57
90.6
123.42
165.7
213.85
261.63
301.89
328.98
340.97
340.59
334.76
332.39
341.34
365.4
402.62
445.79
484.9
510.57
517.22
504.24
475.17
435.35
389.32
339.38
285.75
228.04
167.47
108.12
56.71
20.85
6.71
17.04
50.33
101.09
161.01
220.38
269.94
302.34
313.14
301.37
269.13
220.51
160.23
92.87
23.25
-42.5
-96.14
-128.31
-131.55
-104.69
-55.08
2.3
49.67
72.92
66.42
34.09
-13.49
-64.38
-109.94
-146.38
-173.49
-191.54
-198.95
-191.85
-166.22
-120.9
-60.21
5.42
61.9
95.59
97.67
66.91
9.45
-63.82
-140.84
-211.44
-268.8
-309.51
-333.1
-341.35
-337.39
-325.03
-307.49
-286.47
-262.01
-233.01
-198.15
-156.63
-108.61
-55.38
-0.12
51.75
92.88
115.6
114.52
88.89
43.29
-13.8
-72.99
-126.64
-170.27
-201.84
-220.34
-224.66
-213.71
-187.3
-146.94
-96.24
-40.81
12.19
54.83
79.72
82.12
61.5
22.24
-27.33
-77.26
-118.84
-146.75
-159.84
-160.28
-151.81
-138.06
-121.56
-103.44
-83.95
-62.87
-40.02
-15.42
10.71
38.45
68.73
103.12
142.6
185.84
227.98
261.1
276.68
269.16
238.71
191.66
138.18
88.22
47.9
18.14
-4.13
-22.84
-39.73
-53.49
-60.69
-58.12
-44.84
-22.52
5.98
38.66
75.29
116.82
162.74
208.93
247.21
267.69
262.53
229.46
172.85
102.31
29.4
-35.45
-84.6
-113.63
-120.72
-106.36
-73.18
-25.67
30.97
92.17
154.9
217.15
276.24
327.41
364.23
380.59
373.57
345.4
302.74
254.02
206.08
161.76
119.91
77.51
32.62
-13.76
-57.62
-93.78
-118.33
-130.39
-132.27
-128.21
-122.52
-117.94
-115.47
-115.11
-117.23
-123.24
-135.04
-153.45
-176.7
-200.18
-217.84
-224.57
-218.14
-200.06
-174.64
-147.45
-124.06
-109.17
-106.54
-118.46
-144.95
-182.9
-225.98
-266.04
-295.67
-310.61
-310.81
-299.58
-281.53
-260.47
-238.23
-214.83
-189.33
-160.59
-127.86
-90.7
-48.66
-1.29
51.71
109.92
171.23
231.17
282.91
318.12
329.26
312.44
269.97
210.88
148.42
95.54
60.36
43.88
41
43.65
44.42
38.46
23.37
-1.83
-37.13
-80.88
-128.54
-172.39
-203
-212.4
-197.16
-160.1
-109.23
-54.83
-6.24
30.08
50.77
54.69
42.07
14.6
-23.85
-66.64
-104.81
-129.15
-133.1
-115.29
-80.43
-37.61
3.11
34.16
52.51
59.18
56.88
47.4
30.61
5.38
-27.95
-65.53
-99.68
-121.13
-122.91
-104.07
-70.84
-34.36
-5.89
8.01
7.7
-1.11
-11.44
-19.3
-25.33
-33.03
-44.94
-59.63
-71.08
-71.25
-53.81
-17.29
34.57
94.58
155.22
210.72
257.58
293.86
317.94
328.38
324.94
310.3
290.67
274.63
270.06
280.66
304.32
334.08
361.7
381.33
391.57
394.67
393.94
391.01
384.7
372.05
350.29
318.57
278.32
232.59
185.25
140.3
101.51
71.49
50.88
37.56
27.19
14.37
-5.61
-35.52
-75.74
-124.5
-178.23
-231.68
-278.2
-310.34
-321.58
-308.31
-271.28
-215.83
-150.36
-84.14
-25.24
20.44
49.11
58.63
48.26
19.25
-24.55
-76.62
-128.78
-173.25
-204.67
-221.26
-224.46
-217.39
-203.12
-183.78
-160.75
-135.56
-110.65
-89.21
-73.99
-65.93
-63.7
-64.7
-66.8
-69.73
-75.19
-85.5
-101.79
-122.8
-145.11
-164.52
-177.92
-184.32
-184.71
-181.1
-175.35
-168.43
-160.36
-150.63
-138.52
-123.44
-104.94
-82.82
-57.44
-30
-2.68
21.78
40.79
52.73
57.45
56.17
50.69
42.64
32.86
21.52
8.62
-5.34
-19.2
-31.43
-40.71
-46.47
-49.08
-49.52
-48.85
-47.55
-45.17
-40.47
-32.08
-19.27
-2.64
15.98
34.19
50.04
62.79
72.92
81.5
89.2
95.67
99.69
99.87
95.43
86.53
74.15
59.63
44.3
29.36
15.95
5.16
-2.09
-5.35
-4.88
-1.6
3.25
8.67
14.27
20.35
27.65
36.76
47.68
59.6
71.13
80.8
87.63
91.53
93.15
93.57
93.7
93.89
93.79
92.69
89.97
85.58
80.24
75.21
71.9
71.27
73.49
77.94
83.45
88.68
92.44
93.9
92.57
88.14
80.47
69.54
55.4
38.22
18.34
-3.64
-26.67
-49.25
-69.52
-85.58
-95.98
-100.11
-98.34
-91.83
-81.98
-70.1
-57.11
-43.55
-29.93
-16.77
-4.73
5.59
13.75
19.59
23.15
24.68
24.53
23.17
21.17
19.16
17.76
17.38
18.22
20.21
23.14
26.67
30.42
33.91
36.62
38.06
37.89
36.09
32.9
28.73
24.02
19
13.7
7.95
1.55
-5.67
-13.76
-22.66
-32.12
-41.55
-50.02
-56.3
-59.22
-58.04
-52.84
-44.43
-34.12
-23.22
-12.66
-2.94
5.73
13.11
18.84
22.53
23.99
23.4
21.32
18.46
15.43
12.57
9.93
7.48
5.24
3.47
2.49
2.48
3.36
4.65
5.66
5.66
4.22
1.32
-2.68
-7.24
-11.83
-16.11
-20.03
-23.77
-27.74
-32.38
-38.02
-44.65
-51.7
-58.04
-62.18
-62.7
-58.82
-50.63
-39.14
-25.88
-12.38
0.2
11.18
20.29
27.38
32.32
35.01
35.54
34.28
31.8
28.8
25.83
23.19
20.98
19.09
17.4
15.84
14.4
13.18
12.18
11.32
10.34
8.83
6.41
2.78
-2.07
-7.91
-14.31
-20.77
-26.94
-32.68
-38.15
-43.66
-49.59
-56.07
-62.74
-68.69
-72.55
-72.86
-68.58
-59.54
-46.47
-30.87
-14.46
1.26
15.32
27.31
37.11
44.71
50.02
53.03
53.91
53.11
51.3
49.11
46.95
44.89
42.72
40.12
36.97
33.36
29.63
26.08
22.83
19.73
16.4
12.47
7.74
2.32
-3.47
-9.24
-14.68
-19.78
-24.72
-29.9
-35.67
-42.23
-49.53
-57.2
-64.49
-70.28
-73.35
-72.62
-67.57
-58.44
-46.26
-32.48
-18.62
-5.79
5.39
14.69
22.13
27.75
31.72
34.31
36
37.34
38.77
40.48
42.29
43.84
44.73
44.71
43.72
41.92
39.55
36.82
33.92
30.88
27.68
24.19
20.31
16.06
11.55
7
2.61
-1.53
-5.55
-9.74
-14.45
-19.84
-25.67
-31.17
-35.19
-36.51
-34.25
-28.21
-19.03
-8.03
3.18
13.2
21.11
26.58
29.77
31.04
30.72
29.02
26.04
21.89
16.87
11.5
6.46
2.45
-0.1
-1.14
-1.05
-0.5
-0.16
-0.47
-1.55
-3.2
-5.11
-7.04
-8.94
-10.88
-12.94
-15.05
-16.91
-18.23
-18.92
-19.23
-19.66
-20.46
-21.33
-21.19
-18.63
-12.66
-3.37
7.94
19.28
29
36.64
43.02
49.63
57.61
67.08
77.3
87.31
96.68
105.58
114.49
123.53
132.4
140.6
147.99
155.14
163.05
172.5
183.48
195.03
205.55
213.56
218.19
219.19
216.64
210.37
199.79
184.08
162.61
135.52
103.9
69.82
35.67
3.51
-25.74
-52.56
-78.58
-106.13
-137.73
-175.78
-222.04
-276.76
-337.39
-398.05
-450.31
-485.71
-498.88
-489.73
-463.32
-427.36
-388.69
-350.75
-313.25
-273.95
-231.11
-185.02
-138.01
-93.19
-53.2
-19.47
7.59
28.17
42.85
52.59
58.61
62.13
64.15
65.28
65.99
66.55
67.26
68.35
69.87
71.57
72.97
73.76
74
74.41
75.97
79.76
86.67
97.16
111.09
127.43
144.7
161.22
176.43
190.45
204.04
218.07
233.02
248.46
262.59
273.34
278.81
279.5
277.08
274.15
273.43
276.98
285.48
297.04
308.54
315.51
315.61
307.28
290.3
266.13
237.65
208.51
180.84
156.5
135.08
116.77
99.3
79.23
53.94
23.95
-5.92
-29.18
-37.84
-45.52
-60.92
-88.04
-124.93
-167.11
-211.29
-248.64
-282.9
-315.62
-345.66
-367.15
-375.41
-368.98
-350.55
-326.97
-306.42
-296.24
-297.9
-308
-317.63
-318.48
-306.99
-285.56
-259.65
-233.98
-213.62
-196.7
-180.56
-162.03
-139.59
-113.53
-85.32
-56.45
-28.64
-3.61
18.46
37.07
52.06
62.9
69.37
72.22
73.57
76.17
81.99
91.83
104.04
115.84
124.3
127.81
126.78
123.34
120.31
119.88
123.13
129.53
137.6
145.91
153.78
161.41
169.41
178
186.45
193.16
196.18
194.26
187.67
178.33
169.16
163.13
162.54
168.59
181.35
199.58
220.68
240.64
254.55
257.71
246.95
221.81
184.57
139.33
90.5
41.51
-5.75
-50.53
-92.6
-131.72
-167.67
-200.47
-230.74
-259.66
-288.55
-318.27
-348.57
-377.89
-403.5
-422.31
-432.02
-432.01
-423.72
-410.23
-395.19
-381.62
-371.11
-363.7
-358.29
-353.3
-346.99
-337.51
-322.73
-300.4
-268.7
-227.07
-176.99
-122.04
-67.27
-17.86
22.21
50.97
68.53
76.46
76.97
72.23
64.15
54.39
44.56
36.21
30.75
29.25
32.37
40.33
52.9
69.36
88.44
108.39
127.33
143.69
156.76
166.95
175.55
184.04
193.25
202.62
210.17
212.98
208.27
194.44
171.6
141.65
107.8
73.86
43.44
19.26
2.67
-6.64
-10.38
-11.1
-11.24
-12.39
-14.9
-18.24
-21.7
-25.1
-28.96
-34.14
-41.15
-49.61
-58.3
-65.69
-70.59
-72.6
-72.13
-70.03
-67.06
-63.64
-59.85
-55.59
-50.7
-45.09
-38.63
-31.14
-22.41
-12.39
-1.34
10.01
20.55
29.02
34.33
35.87
33.75
28.83
22.58
16.82
13.2
12.84
16.01
22.08
29.79
37.63
44.29
49.03
51.78
53
53.37
53.42
53.37
53.08
52.25
50.67
48.39
45.64
42.79
40.09
37.64
35.43
33.49
31.93
30.94
30.76
31.49
32.9
34.39
34.86
32.96
27.49
17.81
4.25
-11.94
-28.95
-44.93
-58.59
-69.36
-77.15
-82
-83.75
-82.15
-77.12
-69.1
-59.12
-48.52
-38.52
-29.75
-22.21
-15.43
-8.96
-2.71
2.94
7.33
9.94
10.69
10.14
9.25
8.96
9.82
11.8
14.37
16.91
19.11
21.25
24.21
29.06
36.58
46.65
57.92
67.9
73.63
72.64
63.85
48.06
27.65
5.79
-14.47
-30.89
-41.99
-46.95
-45.23
-36.77
-22.28
-3.62
16.37
34.55
48.43
56.91
60.41
60.55
59.26
58.07
57.67
58
58.47
58.31
56.82
53.49
48.08
40.63
31.51
21.45
11.45
2.59
-4.24
-8.56
-10.44
-10.48
-9.5
-8.31
-7.32
-6.54
-5.7
-4.52
-3.1
-2.1
-2.65
-6.06
-13.33
-24.77
-39.71
-56.56
-72.99
-86.41
-94.59
-96.23
-91.32
-81.17
-67.98
-54.22
-41.95
-32.32
-25.49
-20.87
-17.55
-14.76
-12.08
-9.48
-7.15
-5.37
-4.31
-4.15
-5.2
-7.91
-12.84
-20.31
-30.07
-41.15
-52.01
-61.08
-67.24
-70.33
-71.11
-70.83
-70.74
-71.49
-72.94
-74.36
-74.84
-73.77
-71.2
-67.75
-64.45
-62.13
-61.13
-60.96
-60.57
-58.6
-53.94
-46.12
-35.42
-22.87
-9.79
2.51
13.1
21.58
27.95
32.44
35.25
36.48
36.11
34.18
30.95
26.94
22.84
19.26
16.47
14.23
11.76
8.02
2.04
-6.64
-17.7
-30.07
-42.18
-52.4
-59.59
-63.44
-64.49
-64.03
-63.64
-64.74
-68.18
-74.07
-81.71
-89.94
-97.47
-103.43
-107.58
-110.33
-112.38
-114.14
-115.28
-114.56
-110.26
-100.82
-85.59
-65.18
-41.35
-16.41
7.5
29.11
48.24
65.78
83.27
102.46
124.78
150.82
179.54
207.75
230.25
240.79
234.11
208.12
165.13
111.52
55.79
5.82
-33.27
-59.8
-74.7
-79.92
-77.27
-68.09
-53.78
-36.39
-18.57
-2.88
9.23
18.01
25.19
32.94
42.73
54.45
66.48
76.43
82.31
83.42
80.63
75.93
71.49
68.81
68.37
69.72
72.07
74.83
77.88
81.58
86.4
92.49
99.38
105.79
109.89
109.77
104.15
92.99
77.76
61.16
46.3
35.68
30.4
29.98
32.84
37.25
42.02
46.86
52.07
57.86
63.82
68.74
70.94
68.86
61.73
49.78
34.06
16.09
-2.76
-21.56
-40.08
-58.72
-78.46
-100.44
-125.53
-153.68
-183.38
-211.57
-234.1
-246.78
-246.61
-232.65
-206.35
-171.03
-130.91
-90.03
-51.53
-17.28
11.88
35.85
54.83
69.14
79.04
84.82
86.91
85.91
82.61
77.86
72.31
66.31
59.9
52.91
45.24
37.01
28.56
20.37
12.7
5.48
-1.72
-9.52
-18.29
-27.95
-37.87
-47.1
-54.69
-60.05
-63.11
-64.35
-64.59
-64.84
-66.06
-68.82
-73.17
-78.42
-83.08
-85.22
-82.94
-74.95
-61.12
-42.62
-21.71
-1.26
16.02
28.33
35.29
37.9
38.18
38.25
39.58
42.58
46.69
50.86
54.23
56.4
57.52
57.89
57.68
56.72
54.73
51.54
47.3
42.47
37.62
33.12
29
24.95
20.45
15.09
8.65
1.24
-6.82
-15.19
-23.58
-31.86
-39.95
-47.85
-55.54
-63.1
-70.68
-78.48
-86.64
-94.97
-102.83
-109.14
-112.62
-112.13
-107.19
-98.04
-85.62
-71.13
-55.74
-40.17
-24.69
-9.24
6.27
21.68
36.51
49.96
61.24
69.78
75.54
79.09
81.43
83.67
86.74
91.13
96.78
103.25
109.74
115.28
118.74
118.97
115.01
106.39
93.3
76.62
57.65
37.74
17.97
-0.93
-18.58
-34.64
-48.76
-60.6
-69.96
-77.03
-82.46
-87.19
-92.11
-97.54
-102.83
-106.4
-106.02
-99.58
-85.9
-65.21
-39.17
-10.26
18.98
46.64
71.76
94.24
114.4
132.72
149.69
165.76
181.23
196.04
209.43
219.95
225.62
224.52
215.27
197.37
171.08
137.25
97.2
52.81
6.66
-38.04
-77.93
-110.19
-133.18
-146.86
-152.51
-152.23
-148.27
-142.56
-136.19
-129.31
-121.36
-111.85
-101.17
-90.94
-83.67
-81.64
-85.52
-93.66
-102.38
-107.34
-105.19
-94.7
-76.84
-54.07
-29.21
-4.66
17.93
37.56
53.62
65.86
74.23
79.01
80.6
79.48
76.19
71.17
64.78
57.27
49.06
40.68
32.88
26.49
22.39
21.21
23.35
28.94
37.75
49.15
62
74.64
85.05
91.28
91.77
85.65
72.94
54.59
32.39
8.88
-13.12
-31.05
-43.29
-49.75
-51.92
-52.49
-54.5
-60.4
-71.34
-86.86
-104.92
-122.39
-135.68
-141.62
-138.19
-125
-103.36
-75.81
-45.5
-15.48
11.67
34.13
50.75
61.13
65.63
65.34
61.98
57.44
53.28
50.37
48.75
47.85
47.04
45.97
44.8
43.99
43.98
44.87
46.3
47.68
