-334.85
-320.66
-41.91
187.45
130.3
99.794
83.156
156.12
225.95
67.505
-112
-310.54
-376.08
-192.08
118.18
157.74
40.349
4.6484
66.487
243.43
274.91
84.897
-76.671
-254.77
-323.97
-213.33
46.059
111.18
37.814
24.036
51.221
201
248.11
5.7093
-151.53
-253.35
-268.39
-55.805
154.75
97.096
59.881
60.22
63.841
243.36
226.79
-36.358
-236.21
-364.28
-287.83
-6.5472
184.44
132.58
104.03
127.71
201.87
249.43
22.959
-138.99
-287.24
-316.24
-78.545
107.35
91.339
-11.162
-3.5827
77.963
105.04
247.31
121.65
-131.29
-294.28
-268.2
-34.616
173.87
121.94
38.231
93.593
150.47
219.84
110.94
-91.157
-232.67
-283.4
-196.72
30.933
163.18
86.039
43.584
76.56
164.18
221.74
16.363
-158.37
-282.79
-304.15
-55.603
126.02
58.896
1.6686
33.606
27.483
162.68
176.19
-57.21
-160.31
-262.88
-300.05
-36.861
170.65
65.948
45.058
57.469
132.1
221.5
53.682
-95.65
-227.42
-328.34
-198.94
108.52
156.47
62.261
77.884
94.191
173.73
237.69
-8.5112
-251.55
-327.54
-306.98
-96.814
101.57
46.617
11.211
87.379
138.62
236.73
128.11
-113.64
-209.92
-289.18
-223.33
35.888
145.36
49.629
55.211
137.93
210.45
216.26
-30.317
-216.49
-250.89
-214.89
-80.436
101.43
82.588
28.042
16.277
61.555
254.5
231.45
-71.08
-236.78
-287.9
-219.38
42.668
233.77
142.2
80.226
49.397
134.79
210.38
22.586
-152.65
-288.82
-315.64
-127.57
94.131
126.7
81.315
66.761
138.67
279.22
184.33
-25.795
-141.42
-309.13
-327.61
-92.572
139
86.475
5.3284
12.095
103.98
302.12
285.05
-1.0668
-231.75
-343.71
-311.15
-80.576
210.82
187.07
113.04
159.46
202.09
224.47
35.839
-125.64
-212.58
-315.58
-203.05
66.381
152.19
79.057
46.456
80.418
163.8
241.33
102.91
-105.4
-268.4
-322.52
-135.83
134.12
127.98
56.737
35.346
38.148
195.77
156.19
-56.409
-168.59
-297.65
-265.92
14.795
148.07
51.08
8.8979
28.571
171.52
252.62
49.557
-117.5
-239.29
-325.65
-187.46
72.821
103.12
85.992
85
95.388
133.64
112.75
41.834
-134.71
-323.77
-253.48
13.231
94.684
34.181
2.1246
53.5
227.99
269.03
70.299
-62.77
-241.65
-335.72
-137.83
119.84
105.81
28.442
-4.3261
30.042
219.7
189.85
-56.948
-173.09
-305.03
-230.64
64.373
178.56
54.069
14.481
29.443
159.6
277.05
120.39
-57.811
-233.09
-359.42
-231.08
64.658
132.76
53.218
25.162
44.162
171.2
279.61
105.74
-111.21
-272.86
-327.66
-153.35
125.79
141.51
44.416
33.89
87.569
210.59
229.47
2.6372
-174.27
-281.18
-266.24
-58.342
126.44
101.68
27.015
34.415
148.05
259.82
86.499
-106.7
-174.9
-241.19
-192.43
49.053
120.97
51.718
34.222
58.637
181.36
207.22
-18.706
-144.88
-199.18
-282.16
-144.71
94.971
92.218
41.657
63.062
131.22
263.25
166.54
-94.691
-193.46
-276.05
-233.4
9.7
98.143
63.347
65.394
62.388
149.19
264.23
57.278
-148.31
-230.08
-278.82
-154.2
107.7
149.01
60.574
41.248
36.117
83.051
202.04
59.043
-122.61
-288.79
-348.66
-162.17
104.34
131.1
91.059
143.32
171.76
188.05
88.792
-58.378
-124.76
-262.04
-189.64
66.651
131.18
23.771
-3.8744
31.29
101
202.18
86.487
-79.872
-268.47
-323.78
-111.4
107.06
125.1
76.542
102.8
111.01
151.29
167.5
17.321
-168.65
-366.37
-307.09
-10.022
131.25
66.213
43.658
81.764
155.43
190.18
-20.526
-139.67
-157.91
-205.84
-108.83
47.413
9.6715
-24.516
-1.884
108.8
250.36
139.11
-0.10715
-113.51
-316.25
-248.16
35.988
155.05
68.707
-12.68
13.003
134.91
244.03
133.21
-38.88
-309.04
-414.98
-170.31
112.51
177.11
114.74
102.1
89.898
133.73
125.43
-73.161
-127
-219.06
-320.96
-190.61
80.999
140.52
63.024
67.484
143.95
207.14
176.71
-0.57491
-147.38
-312.51
-238.36
35.446
130.03
42.221
33.181
39.896
194.61
297.82
100.33
-68.783
-278.06
-393.76
-235.33
88.383
222.29
176.69
119.01
107.48
235.17
163.92
36.899
-81.365
-299.1
-273.14
-120.71
-43.872
46.101
85.291
68.633
178.07
211.12
13.866
-60.594
-166.39
-304.71
-156.2
113.43
113.53
36.05
8.5702
19.536
217.2
221
42.073
-67.943
-269.92
-298.72
-23.7
180.6
116.87
53.313
14.039
118.09
232.78
75.888
-37.182
-186.1
-343.27
-146.87
142
127.8
65.286
55.311
41.454
201.79
171.5
-22.986
-113.83
-305.95
-342.01
-25.487
132.72
66.814
103.24
40.336
69.203
176.54
25.605
-54.22
-173.09
-316.89
-154.49
123.93
147.41
113.2
80.077
108.64
152.18
74.132
6.8503
-61.037
-163.41
-120.23
-31.584
-33.234
45.717
92.228
35.833
-127.32
-239.61
-100.57
-21.223
-185.6
-245.49
-102.3
-64.037
-22.093
179.08
178.63
96.691
206.32
149.22
-10.861
-105.91
-275.47
-304.75
-99.285
103.85
147.56
126.71
45.997
147.97
218.63
58.353
-41.04
-238.89
-328.13
-144.43
62.101
119.18
147.99
90.182
39.21
185.05
148.58
5.2365
-154.59
-296.16
-232.49
32.118
190.9
143.53
74.899
35.575
133.79
220.86
72.951
-156.18
-328.92
-372.96
-163.96
149.05
183.42
85.506
45.739
114.72
263
237.1
61.255
-224.85
-394.97
-264.75
98.134
255.33
199.94
132.69
60.633
141.79
106.79
35.9
-142.45
-365.81
-262.65
51.884
167.27
136.4
119.95
37.157
68.502
59.544
21.803
-38.802
-279.65
-351.92
-102.07
183.09
195.31
155.17
108.17
25.972
84.784
105.17
-10.369
-223.95
-394.52
-288.89
15.194
177.91
118.69
84.415
32.499
106.07
268.98
158.34
-2.2403
-207.49
-424.88
-404.5
-73.873
168.32
138.67
117.24
65.192
35.696
229.07
210.18
-18.408
-213.13
-382.13
-288.29
18.681
194.5
166.42
105.67
73.837
129.43
215.03
122.42
-88.38
-304.77
-389.19
-172.89
96.932
130.02
38.431
-17.324
-16.216
143.12
296.84
165.59
-99.33
-376.93
-419.9
-194.36
124.11
214.52
118.8
87.003
116.8
181.42
139.67
27.186
-219.59
-408.72
-246.6
36.059
193.7
181.07
115.3
101.02
130.23
97.261
95.627
-42.9
-304.22
-369.1
-137.23
102.48
139.88
46.007
2.8493
93.815
271.25
256.02
49.566
-184.85
-367.26
-225.42
75.49
171.75
117.41
57.376
-40.01
-5.7759
165.29
86.188
-97.981
-214.12
-260.41
-108.39
89.534
138.03
79.24
29.868
48.502
196.44
223.9
91.46
-83.143
-322.72
-344.21
-103.3
96.38
70.986
-17.348
-70.253
3.5027
198.56
142.84
-33.288
-115.91
-270.75
-173.84
46.649
94.953
26.39
72.219
67.085
117.91
249.32
37.433
-182.71
-309.64
-273.5
-23.169
133.42
74.853
16.336
3.0342
152.39
336.41
188.05
-43.055
-279.58
-372.33
-194.64
92.782
196.03
141.97
140.67
116.92
87.166
100.28
2.016
-104.37
-300.88
-315
-89.386
54.489
162.89
183.17
127.35
104.6
196.62
79.951
-94.132
-183.11
-272.9
-181.12
28.866
66.441
85.265
104.65
95.141
191.82
178.99
-63.644
-151.35
-251.57
-331.38
-136.49
109.07
138.05
40.49
27.756
24.333
33.085
193.42
84.312
-131.61
-273.41
-250.2
-37.642
147.87
180.71
95.437
63.511
32.007
188.27
205.57
-15.528
-234.76
-338.41
-228.08
39.381
175.18
95.135
69.984
43.258
142.2
189.18
-20.694
-171.4
-372.45
-367.76
-84.152
164.36
141.12
66.002
48.414
138.06
298.18
184.65
-81.504
-278.69
-372.01
-185.07
83.41
145.61
73.729
41.876
63.819
188.08
254.48
29.567
-168.94
-320.77
-360.39
-145.5
133.46
171.32
92.518
106.52
103.5
140.96
163.86
10.584
-169.66
-354.98
-318.04
-48.35
183.44
131.46
70.196
126.5
240.48
276.25
117.7
-131.19
-378.33
-451.56
-260.97
6.7263
120.94
71.039
73.309
172.85
237.03
194.68
4.6351
-267.77
-368.33
-133.06
144.11
195.94
97.807
63.824
50.988
144.68
285
100.83
-127.48
-301.72
-377.88
-180.46
113.02
202.66
127.71
67.738
97.602
225.1
82.991
-143.33
-259.39
-362.52
-221.57
69.367
156.99
86.372
59.023
57.937
231.73
243.01
-24.713
-174.89
-250.83
-303.6
-87.887
150.19
128.91
73.38
34.591
153.21
277.44
72.487
-111.3
-246.08
-361.5
-170.8
108.53
158.35
84.622
38.64
47.807
215.4
286.94
33.13
-171.26
-272.84
-356.48
-252.85
42.526
198.9
103.1
21.199
111.41
183.33
290.73
193.19
-95.716
-255.95
-291.64
-294.81
-66.292
160.96
149.98
181.34
194.82
125.37
113.15
-63.399
-197.2
-223.95
-244.73
-87.521
75.799
50.141
15.868
120.21
176.14
235.15
149.06
-136
-261.13
-224.97
-180.64
18.822
100.24
36.282
71.782
148.04
167.63
248.51
111.52
-150.78
-178.27
-108.78
-202.55
-158.78
-19.034
47.384
114.61
105.43
19.311
36.764
39.481
-4.5981
49.767
52.711
12.626
32.739
20.023
-63.353
-53.366
-56.048
17.348
64.075
-34.904
-66.939
-201.23
-255.06
-117.03
71.64
139.32
160.92
110.78
76.475
153.31
-32.767
-92.469
-177.07
-270.8
-69.552
51.569
114.86
229.84
260.12
172.39
24.822
28.666
1.9449
-51.218
-48.709
-140.63
-281.17
-378.06
-322.96
-88.266
108.05
227.29
229.65
93.322
19.932
-152.08
-221.71
-33.167
155.98
177.64
127.47
17.07
42.291
195.85
67.194
-135.86
-131.1
-226.02
-265.36
-31.132
203.25
273.92
260.65
144.04
-69.556
-105.44
-63.958
-106.99
-230.11
-326.1
-287.68
-131.06
75.265
239.06
271.45
165.12
213.66
214.1
-45.174
-138.3
-279.32
-404.33
-253.47
62.956
197.38
186.13
143
149.77
323.88
247.5
-41.96
-170.94
-335.88
-372.38
-86.662
166.05
138.59
100.96
50.779
37.24
253.57
287.69
63.477
-160.71
-383.99
-409.3
-97.273
181.71
163.98
121.73
54.158
179.61
284.26
82.989
-50.935
-247.73
-402.25
-226.21
123.88
193.53
110.92
71.181
69.783
204.15
150.01
-47.346
-170.04
-374
-414.78
-119.67
186.53
233.9
182.2
111.5
142.41
224
70.964
-130.67
-328.49
-356.76
-95.481
152.73
122.86
77.518
65.712
52.769
166.79
83.211
-102.93
-170.1
-317.27
-234.72
73.602
154.8
56.071
26.169
64.258
285.19
270.3
-5.943
-136.42
-319.99
-389.06
-111.97
180.7
164.58
93.606
61.716
73.984
201.3
145.84
-86.262
-193.38
-326.2
-306.64
-14.199
160.21
108.37
41.821
34.633
192.75
300.07
151.56
-118.48
-272.77
-382.97
-260.62
51.177
102.23
59.889
50.908
74.35
302.2
272.92
0.58615
-184.17
-355.7
-311.12
5.7409
148.01
52.901
24.138
108.79
226.8
306.43
99.471
-196.11
-340.55
-359.81
-152.03
92.824
153.76
100.5
83.452
123.24
202.95
243.21
11.94
-178.44
-240.03
-252.29
-139.35
71.374
126.07
67.883
169.74
205.78
102.76
136.7
-49.635
-178.7
-203.07
-327.23
-214.3
-51.537
-8.93
86.795
176.25
132.35
250.21
154.19
-129.44
-249.86
-200.29
-39.255
49.33
39.931
55.773
145.96
113.08
75.584
151.33
55.18
-66.539
-204.17
-228.15
-80.035
47.33
51.827
134.65
219.62
83.134
114.62
32.915
-159.68
-194.14
-243.91
-134.51
42.242
105.48
132.35
164.1
99.648
183.86
74.084
-136.14
-140.24
-264.05
-283.12
-47.306
84.145
89.297
118.34
89.88
37.748
185.03
122.34
-77.673
-213.04
-334.14
-252.39
-35.031
162.76
240.65
238.59
132.47
211.08
203.11
-103.17
-214.23
-255.63
-368.94
-160.18
102.18
95.352
107.64
73.01
86.65
212.46
90.591
-56.963
-192.66
-302.68
-174.2
154.62
308.57
231.51
107.61
-53.176
-151.78
-121.18
-156.53
-216.88
-268.41
-321.26
-147.15
155.75
241.33
199.87
123.75
92.863
245.54
209.45
48.684
-199.09
-438.11
-417.24
-132.58
146.83
209.96
204.37
99.875
158.19
301.27
158.82
-135.09
-355.9
-396.28
-218.3
150.05
245.25
141.75
85.098
166.12
364.86
263.23
-17.88
-315.89
-500.46
-372.6
-20.397
224.59
262
198.39
111.45
260.97
223.72
-31.807
-284.75
-421.05
-347.5
-88.419
80.56
126.42
131.82
30.361
122.82
267.53
119.33
-101.98
-244.75
-334.88
-275.72
-12.318
170.2
140.94
81.25
142.6
297.45
308.13
78.362
-167.77
-374.44
-389.61
-184.46
45.853
92.381
43.865
113.31
228.52
218.54
154.75
-20.899
-236.7
-328.23
-213.64
-23.91
107.79
101.83
132.82
222.54
168.48
207.78
113.24
-133.25
-348.45
-405.64
-259.24
29.184
165.29
124.68
217.2
252.51
186.17
170.3
-12.144
-217.35
-325.21
-285.05
-46.399
101.93
55.175
71.327
154.9
167.11
185.76
83.15
-78.154
-147.52
-285.83
-322.93
-65.902
59.55
3.448
107.2
179.02
119.54
182.25
109.95
-58.231
-181.75
-322.97
-270.31
-20.847
63.689
144.43
263.85
215.89
143.59
119
-34.381
-239.39
-304.72
-244.4
-116.85
-13.242
60.43
144.83
170.95
118.62
123.1
10.955
-58.914
-137.92
-333.54
-322.96
-42.058
195.85
176.73
126.85
71.176
4.6099
177.32
211.11
3.1899
-202.82
-426.26
-444.1
-192.46
140.26
248.11
199.65
72.958
89.447
308.93
231.35
-19.143
-207.26
-375.45
-296.35
28.341
185.76
106.05
-2.0523
-26.515
42.364
156.24
238.68
70.96
-160.45
-344.76
-316.16
-69.655
175.75
109.04
37.803
103.92
176.46
305.17
149.44
-155.15
-214.11
-261.91
-283.03
-22.589
145.43
84.108
110.97
168.97
188.22
243.34
20.43
-199.12
-190.22
-251.33
-178.99
69.444
86.059
30.076
92.392
101.55
164.66
258.01
18.985
-177.73
-220.91
-319.5
-197.5
28.273
138.52
197.4
190.77
78.412
130.9
166.63
-43.354
-89.853
-195.26
-297.63
-118.69
76.297
103.52
85.67
60.731
27.735
138.1
217.66
50.706
-94.813
-287.53
-425
-296.74
-0.29125
207.9
185.24
104.88
8.2301
103.12
242.55
46.29
-104.39
-210.95
-339.65
-220.87
98.535
228.46
142.97
50.433
14.978
209.79
277.55
15.582
-159.12
-286.32
-405.29
-229.02
58.484
163.9
164.93
103.01
101.44
247.61
179.6
-38.437
-239.7
-368.01
-212.06
37.645
162.47
126.71
46.42
52.386
177.62
269.16
78.31
-141.52
-238.54
-328.62
-208.78
34.194
112.25
59.995
42.527
118.57
229.87
203.24
-13.979
-180.66
-285.04
-207.81
-2.7239
89.339
32.628
-4.9132
83.238
202.15
276.65
107.38
-120.89
-247.5
-296.42
-202.6
4.0529
104.36
66.844
75.534
171.16
260.49
217.67
-32.101
-168.37
-243.04
-242.9
-56.412
68.817
62.303
17.134
96.984
174.55
195.19
104.41
-99.226
-185.92
-232.28
-238.43
-68.009
93.792
85.348
116.55
195.72
156.89
143.63
6.8114
-168.06
-183.69
-237.91
-188.91
-5.9061
58.342
74.981
149.8
182.97
96.844
125.56
-13.556
-134.97
-132.28
-181.53
-101.46
26.156
59.928
94.028
196.91
169.24
131.02
109.6
-82.876
-193.32
-244.94
-266.23
-120.8
24.014
74.637
134.87
163.75
162.7
179.39
66.998
-103.64
-214.96
-261.39
-192.87
-6.3379
75.225
82.664
141.42
146.98
120.7
75.048
-49.697
-14.744
-125.9
-305.39
-200.98
-96.278
21.989
181.56
191.29
154.65
136.06
82.05
-19.567
-118.46
-198.44
-196.26
-188.94
-92.164
112.51
265.91
217.08
50.472
-71.132
2.5864
122.64
185.44
116.05
-19.91
-168.72
-182.56
-107.67
-69.011
-89.529
-78.97
-49.08
62.748
5.7893
-265.68
-183.22
46.531
117.37
152.1
145.11
93.61
97.259
192.18
89.783
-46.279
-241.73
-461.85
-401.67
-128.35
142.81
315.88
320.99
224.26
191.73
223.34
89.724
-98.824
-320.89
-372.25
-183.03
60.078
149.07
141.4
123.3
52.798
98.401
134.09
21.209
-175.53
-356.33
-286.32
-26.626
213.54
228.55
206.55
108.98
20.582
100.26
38.066
-113.73
-263.8
-333.09
-219.71
84.313
228.65
187.49
148.37
40.237
117.97
147.77
11.305
-142.62
-331.47
-330.16
-106.24
145.73
159.12
125.73
85.46
-33.041
91.257
198.6
1.3709
-211.67
-288.67
-187.11
85.658
193.7
129.88
93.374
5.5442
136.6
201.53
-12.635
-208.64
-316.45
-268.77
-15.712
203.77
187.56
157.96
65.29
54.966
223.5
103.95
-98.171
-260.93
-389.66
-314.99
-56.008
162.12
195.45
113.81
33.263
172.04
232.08
69.461
-116.76
-322.37
-308.72
-79.817
158.71
205.73
127.7
91.582
172.38
153.07
35.505
-61.353
-189.5
-296.28
-197.82
11.913
106.92
64.461
-55.889
-72.877
49.897
125.35
44.71
-13.177
-121.06
-181.96
-79.8
30.663
36.202
-38.814
-69.073
81.163
260.3
131.09
-40.103
-139.14
-254.38
-123.72
71.099
91.169
63.798
39.855
72.981
166.19
175.57
5.2866
-117.52
-230.79
-212.45
6.4523
97.702
95.983
105.02
135.72
295.16
207.69
38.555
-56.26
-234.61
-227.11
-161.47
-236.51
-251.8
-245.86
-134.13
92.349
174.56
227.67
331.77
108.4
-174.08
-51.855
-12.811
-32.894
193.98
217.63
114.45
80.66
2.6768
-81.537
-131.96
-247.52
-307.77
-246.41
-133.14
-116.1
6.6063
164.91
302.18
303.28
164.79
185.07
73.078
-69.289
-60.768
-83.114
49.88
92.844
-10.573
-32.645
46.45
80.832
-44.403
-185.24
-316.12
-244.99
-26.685
132.58
165.6
26.288
24.461
91.471
171.18
107.45
-83.668
-158.9
-220.58
-140.23
22.521
78.063
24.788
25.333
168.56
120.62
77.622
80.123
-104.91
-208.88
-233.56
-142.62
47.136
82.836
30.918
164.6
195.47
170.48
95.612
-115.47
-136.68
-181.63
-207.49
-34.785
47.294
32.176
82.729
151.55
109.13
132.67
70.114
-110.21
-201.56
-227.73
-108.73
-31.702
33.126
112.02
203.42
129.6
124.27
115.24
-64.504
-118.69
-188.41
-187.06
-17.666
89.743
25.903
25.4
24.96
-30.632
58.835
7.9878
-70.985
-143.59
-122.93
83.603
138.76
247.79
188.14
15.998
-72.672
3.8112
1.5302
-165.12
-90.663
-154.66
-202.9
-26.088
-1.8919
104.19
271.18
251.45
108.4
102.47
25.287
-104.02
-188.57
-359.13
-316.08
-110.1
80.631
220.45
231.07
112.48
47.659
121.97
15.791
-62.174
-136.77
-208.61
-122.04
-45.68
81.619
137.85
111.56
18.663
30.645
63.651
-3.8643
-76.499
-215.87
-214.64
-41.748
158.3
257.15
201.65
126.87
26.995
29.241
42.717
-43.964
-271.81
-344.94
-167.02
2.7171
205.59
191.06
118.22
28.308
5.9329
131.04
24.525
-76.102
-196.06
-211
-57.29
133.82
149.36
31.05
-9.5576
-100.7
-23.222
93.618
-26.239
-111.99
-167.96
-146.16
37.283
232.87
201
151.68
79.875
34.644
134.85
70.995
-48.468
-233.79
-356.84
-262.68
-33.47
119.55
84.307
36.917
-16.285
156.89
301.79
156.97
-29.427
-257.87
-342.32
-206.82
9.6026
160.89
165.29
72.151
6.0984
212.13
234.11
40.402
-162.52
-348.63
-313.58
-95.801
122.25
169.82
115.44
-2.3319
95.806
238.14
49.677
-115
-307.4
-400.01
-226.05
82.21
191.35
133.06
77.12
90.98
218.8
259.83
96.468
-166.13
-350.18
-220.97
66.16
186.51
122.21
95.25
-12.098
-0.60391
171.38
101.55
-43.412
-67.048
-102.93
-89.199
-61.325
-136.74
-121.66
-112.51
-12.787
182.16
187.05
98.492
84.947
56.4
-206.05
-294.95
-157.49
-103.9
11.219
78.796
164.82
270.62
49.598
-132.55
-256.39
-192.9
32.708
119.71
120.8
96.434
105.69
182.68
118.26
97.052
84.894
-112.13
-294.92
-90.722
209.99
318.21
241.82
92.498
-6.2479
-54.886
-17.875
-58.554
-204.63
-252.01
-99.723
32.979
-52.608
-96
6.0456
-126.12
-289.62
-156.71
-7.579
20.156
-111.24
-149.94
-81.87
-5.1724
-15.442
-10.255
26.392
117.11
282.71
324.05
161.72
-83.558
-198.61
-129.24
43.881
187.46
189.85
99.122
72.703
128.64
184.98
86.441
-116.36
-362.63
-459.15
-268.34
10.764
204.97
143.76
72.383
165.94
225.86
204.31
87.301
-111.49
-332.8
-356.05
-176.61
60.974
105.24
35.007
87.774
143.62
234.13
180.81
-66.935
-316.87
-309.05
-68.003
132.94
139.35
17.311
16.512
73.793
185.81
227.14
47.25
-173.78
-367.87
-325.01
-96.926
132.66
128.28
48.334
115.82
200.32
254.99
150.7
-66.11
-278.1
-367.18
-202.36
18.554
115.51
49.009
30.619
116.08
148.43
247.02
162.85
-51.43
-262.28
-306.61
-119.1
82.561
52.518
-30.753
67.821
161.2
247.88
145.86
-65.097
-269.79
-343.41
-148.94
50.851
103.08
60.227
60.468
125.98
190.17
188.54
-1.2085
-145.66
-301.87
-262.74
-34.156
87.06
52.682
36.35
83.085
159.69
221.39
113.54
-68.363
-283.68
-323.15
-91.722
90.639
100.78
43.725
38.991
152.64
269.98
102.18
-114.61
-290.47
-321.65
-99.518
86.214
116.6
56.822
-5.1945
50.435
230.2
219.24
-15.866
-141.47
-277.27
-266.49
-57.986
113.11
72.172
-70.699
-133.55
-1.804
146.16
20.681
-106.76
-139.7
-90.165
112.21
203.07
158.94
62.664
-41.544
-14.348
165.75
168.59
-55.826
-164.98
-199.18
-146.29
38.874
203.57
154.7
-11.252
-52.54
50.925
198.28
84.389
-79.676
-234.3
-352.65
-156.68
40.906
201.09
184.2
-4.3008
-15.249
155.21
177.99
39.251
-130.43
-332.13
-283.21
-48.742
159.05
236.62
144.47
80.967
96.212
158.54
147.09
-72.414
-212.23
-277.22
-206.02
-17.091
117.64
32.384
-53.408
-21.511
34.439
101.28
27.306
-115.09
-127.75
-162.47
-73.389
123.85
225.85
104.08
71.36
152.62
164.28
164.6
-5.5096
-214.35
-309.28
-230.91
-58.36
65.151
43.465
-36.972
35.741
125.24
176.17
168.26
-1.8778
-182.01
-250.77
-129.02
23.385
31.41
-7.2508
9.21
93.848
120.76
201.24
135.18
-103.68
-224.13
-234.4
-219.21
-74.981
64.767
112.77
119
169.27
116.59
174.79
87.486
-112.19
-121.75
-158.21
-146
85.465
238.84
176.92
3.9084
-93.887
-125.66
-129.1
56.951
57.04
-87.739
-114.33
-157.66
-74.055
126.73
252.57
192
73.145
-39.124
-43.715
80.456
4.5104
-82.936
-132.03
-247.57
-242.98
5.3784
191
159.93
119.06
32.265
62.509
156.4
32.846
-44.22
-178
-324.13
-186.51
68.774
136.4
119.84
35.635
-7.3265
152.24
86.116
15.091
-141.13
-301.99
-208.88
20.208
208.86
162.44
89.016
25.522
32.9
150.68
109.03
-34.476
-193.37
-274.84
-158.39
84.661
119.23
35.97
24.559
-51.201
87.397
225.48
59.939
-121.49
-275.87
-292.28
-100.39
124.26
177.43
108.65
45.577
169.96
267.56
85.664
-65.103
-214.58
-372.05
-224.18
104.86
286.44
197.96
51.467
-56.374
84.401
71.24
-73.143
-193.65
-366.27
-297.07
-85.542
116.48
208.44
109.56
41.657
224.99
323.37
133.8
-68.364
-242.64
-322.06
-167.06
70.047
98.752
34.161
-21.554
34.208
259.76
217.43
-0.75044
-163.97
-321.02
-252.3
-4.5118
130.27
94.717
8.7902
48.681
218.87
248.15
88.428
-81.434
-294.97
-310.04
-65.046
118.83
133.93
47.354
-5.3099
91.791
215.86
182.63
8.9323
-190.12
-293.98
-140.72
58.538
87.649
-15.9
-109.93
-11.268
178.08
181.63
-32.189
-111.47
-160.63
-129.88
67.684
135.89
48.207
-46.732
2.0756
56.871
83.81
109.5
-52.091
-169.96
-200.89
-88.004
9.0076
6.2945
-2.9023
36.055
177.46
201.26
166.71
25.862
-120.41
-200.9
-198.73
-81.683
64.385
22.221
-84.507
33.465
110.39
126.69
130.3
-93.818
-134.69
-158.69
-185.93
10.269
99.914
20.909
95.911
221.34
105.92
114.74
40.703
-133.59
-182.05
-205.59
-133.53
-10.668
37.705
10.609
74.813
92.731
78.84
151.46
-12.223
-105.05
-113.3
-263.36
-186.84
25.839
125.93
194.92
236.3
140.37
42.071
74.783
-24.982
-100.38
-262.21
-333.64
-138.12
86.706
206.45
181.32
167.93
17.252
17.992
148.9
79.062
-125.12
-307.3
-252.62
-55.273
118.47
138.45
91.873
130.91
79.433
-41.657
-52.97
18.358
-124.6
-350.35
-261.63
15.971
281.79
298.29
192.75
54.685
-24.3
176.69
171.42
-51.206
-255.92
-429.56
-343.37
4.6246
229.81
194.71
137.21
45.501
184.72
273.81
84.596
-175.57
-386.78
-303.06
-35.267
175.38
134.51
58.706
-45.377
5.1104
210.46
154.48
-122.43
-350.17
-345.27
-169.43
124.98
228.59
145.47
123.42
71.66
199.82
272.59
61.955
-182.08
-369.33
-223.78
56.486
204.13
201.73
112.77
52.457
28.172
2.8405
-42.832
-117.48
-141.31
-99.036
-22.005
47.463
-60.071
-195.57
-113.36
31.288
122.18
27.774
-56.788
-62.822
-15.112
53.137
34.255
-30.229
-140.2
-135.66
97.34
234.55
217.86
69.604
-202.79
-316.32
-240.53
-91.429
109.18
194.77
137.13
175.32
204.72
288.56
194.65
-97.658
-220.54
-327.97
-202.17
-13.177
-19.184
-20.805
87.293
146.91
144.12
157.04
-21.948
-104.35
-118.4
-290.37
-214.86
11.09
114.16
203.28
257.59
85.546
127.33
93.292
-144.65
-161.58
-239.69
-158.31
-2.6815
71.6
38.984
73.903
95.913
46.328
139.97
75.878
-24.826
-235.76
-255.38
-64.662
38.251
162.77
191.06
162.71
-15.341
60.02
132.17
6.7341
-108.33
-304.5
-304.16
-113.03
144.1
166.82
105.33
37.622
-3.7504
151.44
141.15
6.9911
-174.01
-341.16
-266.66
-6.8634
192.7
148.52
117.91
21.608
115.97
245.18
78.021
-106.79
-323.2
-352.77
-140.93
153.79
237.45
95.113
-10.514
47.934
280.1
228.97
4.0142
-195.69
-388.94
-351.12
-107.43
128
114.08
14.809
39.66
179.35
294.39
129.93
-79.457
-289.74
-339.43
-135.87
102.42
171.36
100.64
67.761
99.613
207.38
186.12
-12.665
-196.56
-371.57
-286.06
-34.613
127.91
94.871
116.06
188.78
230.67
193.26
-20.157
-202.39
-324.72
-276.6
-72.001
67.801
71.279
51.123
152.15
165.59
167.45
85.613
-151.95
-201.83
-229.5
-154.33
23.872
82.374
56.21
153.3
168.03
98.123
178.19
19.266
-143.58
-209.55
-351.05
-249.06
-28.654
97.221
192.13
199.09
121.35
70.562
74.823
31.425
-38.649
-202.6
-314.97
-288.46
-105.71
154.58
264.73
193.08
89.659
-0.54353
151.8
178.81
28.224
-169.33
-376.85
-336.16
-120.46
110.27
196.53
110.01
-16.178
90.131
281.44
168.8
-22.447
-243.98
-365.64
-223.84
21.248
144.56
57.28
-19.692
116.31
287.62
240.45
34.575
-161.51
-262.43
-224.13
-19.709
84.86
32.742
-29.425
29.684
127.49
212.54
158.93
-97.484
-195.84
-220.55
-228.42
-44.082
51.754
52.223
139.5
256.74
199.96
254.72
152.24
-99.17
-223.92
-287.96
-209.37
-30.571
55.085
95.491
221.07
167.88
115.33
159.87
-68.784
-108.76
-122.5
-284.71
-323.66
-112.19
76.831
140.42
201.12
164.63
144.52
133.34
33.381
-10.975
-97.693
-144.12
-106.36
54.342
222.86
244.4
120.48
-31.063
-49.27
17.811
-19.31
-115.48
-206.23
-118.71
52.234
51.385
34.84
-1.108
-68.429
17.346
113.91
2.3095
-135.01
-328.57
-517.44
-313.59
-176.35
-254.91
-116.14
-1.3706
82.212
269.46
304.48
149.44
-131.7
-311.03
-146
33.853
207.28
288.59
172.47
115.95
263.84
404.9
206.87
-64.47
-324.96
-445.64
-306.33
-69.094
169.49
206.08
205.57
242.36
247.92
220.82
9.2135
-226.58
-342.55
-252.66
-55.982
98.937
58.128
74.895
192.02
129.11
167.05
97.597
-149.37
-176.81
-226.49
-252.04
-57.118
28.166
76.528
244.21
238.5
125.15
195.38
77.855
-112.71
-270.96
-453.18
-371.47
-131.27
65.665
248.83
293.36
100.96
66.837
180.76
103.51
-12.957
-263.91
-300.53
-106.14
-101
61.705
184.83
122.62
12.651
110.19
233.29
131.22
-39.851
-286.33
-343.47
-174.92
83.101
196.97
140.12
57.939
30.159
253.8
350.58
71.753
-198.25
-139.06
69.267
140.52
127.8
-0.73494
-149.12
-310.16
-219.74
-58.113
-21.598
-63.936
-70.228
-77.03
-12.104
235.74
91.212
-182.1
-69.179
47.266
68.543
156.11
115.1
3.8479
-131.95
-239.47
-403.94
-470.27
-246.13
-7.4068
164.25
328.35
431.32
343.24
120.34
37.715
40.83
-39.545
-203.67
-229.26
-138.27
-160.33
-86.078
131.4
216.22
122.36
-78.178
-222.32
-78.944
106.22
175.64
178.66
197.43
182.86
99.295
131.17
55.935
-74.685
-263.41
-399.23
-237.1
1.2792
173.08
192.46
149.55
78.138
137.85
195.45
76.451
-49.491
-268.08
-364.98
-201.11
35.153
187.23
117.81
54.749
-14.427
59.394
195.8
34.712
-187.87
-352.78
-309.26
-74.182
120.22
231.41
244.53
75.656
50.536
253.06
169.72
-25.506
-192.33
-412.47
-387.09
-140.18
23.944
174.99
156.35
33.377
203.07
294.33
83.237
-122.32
-339.08
-312.44
-100.88
105.17
152.99
67.664
73.991
153.96
280.83
198.44
-67.066
-202.48
-284.56
-175.57
36.387
132.29
29.141
8.3712
68.715
121.51
172.93
51.952
-90.897
-281.43
-338.94
-145.35
79.311
62.799
46.84
123.1
54.681
121.26
32.3
-122.6
-82.552
-194.79
-128.37
70.116
93.266
139.97
206.02
129.54
12.555
124.79
85.089
-75.074
-244.11
-346.06
-251.42
-24.7
157.94
191.4
165.27
28.824
24.315
66.125
-106.25
-120.15
-123.94
-196.17
-86.926
158.05
208.77
109.14
59.491
20.495
150.12
123.22
-58.183
-153.36
-275.29
-336.62
-113.28
172.59
245.55
182.7
94.527
59.649
224.67
166.89
-84.341
-257.76
-370.62
-285.45
-1.309
162.85
140.24
102.62
107.85
210.01
255.96
52.596
-157.73
-323.92
-360.01
-140.91
105.41
93.569
26.298
113.76
168.35
171.62
151.41
-78.596
-257.94
-302.44
-288.59
-55.631
97.961
79.354
169.96
243.4
182.39
111.44
-13.776
-94.432
-219.63
-296.24
-130.57
47.106
62.141
71.176
187.76
153.67
67.257
52.851
-75.949
-122.37
-217.78
-281.1
-128.24
78.95
165.35
174.57
148.01
86.287
188.48
95.606
-80.584
-236.47
-399.96
-280.6
19.782
183.46
206.13
174.02
94.609
157.06
112.34
16.663
-126.63
-382.61
-399.32
-138.51
162.61
267.15
220.59
134.47
47.307
205.7
208.55
-32.911
-315.29
-494.31
-371.33
-69.59
191.34
264.66
198.03
68.919
187.16
275.63
34.264
-261.52
-422.79
-313.01
-28.996
230.68
204.04
79.885
74.889
288.97
342.92
83.332
-168.79
-437.03
-449.01
-208.69
104.65
295.12
180.57
137.06
139.61
153.01
240.15
49.441
-242.84
-408.39
-437.54
-213.48
126.28
142.41
122.78
203.12
254.98
296.93
88.506
-171.82
-307.47
-371.78
-267.28
13.131
115.49
129.87
216.88
175.76
136.88
196.29
-46.158
-228.4
-232.65
-348.97
-242.98
54.282
190.4
227.04
211.25
126.27
214.4
116.95
-127.19
-231.62
-375.09
-422.5
-199.38
106.18
217.2
183.16
130.32
138.58
285.45
182.9
-25.388
-231.82
-460.88
-459.52
-203.06
65.919
235.91
178.55
91.824
221.2
376.82
205
-54.899
-336.63
-461.86
-296.75
-22.453
190.76
144.66
99.383
181.03
228.68
279.91
118.89
-180.48
-379.95
-383.24
-234.7
40.885
167.38
160.73
273.3
252.35
220.39
159.77
-115.78
-277.99
-353.21
-403.31
-206.96
61.439
186.94
287.08
238.06
152.62
226.86
100.03
-103.96
-316.57
-395.89
-241.99
5.9877
182.24
291.8
260.77
134.15
208.68
83.43
-121.54
-312.23
-456.99
-358.37
-130.76
100.17
243.89
275.22
141.47
144.1
235.51
63.076
-125.77
-316.52
-365.35
-191.3
79.527
193.59
170.42
115.76
0.72904
147.86
262.98
83.085
-90.158
-296.24
-449.01
-284.03
-53.201
137.32
277.84
153.05
149.54
333.35
184.25
-24.794
-233.96
-410.05
-314.72
-52.92
151.23
137.71
119.29
201.3
299.7
163.93
-42.494
-214.29
-403.54
-325.72
-78.217
138.23
129.9
86.173
151.7
143.99
192.71
166.68
-22.706
-208.39
-363.89
-368.58
-150.77
92.236
156.75
182.61
159.77
172.95
246.25
84.367
-94.212
-227.81
-399.96
-356.41
-110.04
102.13
193.41
173.29
109.92
165.14
189.44
33.745
-53.926
-238.51
-364.95
-167.61
42.379
180.1
247.16
169.65
8.845
143.79
218.57
-12.639
-199.05
-383.45
-500.57
-356.45
-37.621
155.82
268.52
245.82
206.18
310.23
212.04
-23.14
-214.41
-364.62
-218.78
51.043
134.67
105.02
89.061
174.73
143.93
21.438
-91.987
-172.25
-65.944
112.66
105.03
24.951
-114.71
-198.38
-0.79608
158.52
68.352
-47.617
-117.56
-272.41
-109.25
152.52
84.022
-57.986
-14.47
186.34
145.69
0.15616
-80.247
-146.96
-49.84
107.82
60.111
-221.75
-432.59
-287.28
-7.8579
23.471
16.54
195.14
343.7
260.37
16.902
-239.23
-317.83
-161.49
84.493
316.83
343.71
227.06
59.004
133.19
186.88
4.7471
-294.49
-471.7
-332.05
-104.38
152.14
193.87
146.46
64.748
118.63
313.62
199.01
-6.3901
-240.93
-380.34
-248.57
-19.28
133.8
166.12
63.173
49.314
271.05
220.65
0.27339
-230.22
-410.46
-309.8
-113.29
90.551
115.17
63.563
107.83
245.37
244.6
99.35
-66.897
-307.27
-288.89
-92.635
145.8
185.44
55.293
132.06
200.68
211.93
108.99
-73.537
-265.6
-334.14
-201.74
-19.349
84.866
117.81
114.56
113.16
35.374
142.61
175.74
-7.3206
-180.42
-383.56
-365.92
-184.08
10.884
209.24
266.48
146.31
-14.757
146.27
428.18
221.77
-134.57
-181.15
-277.22
-368.66
-142.99
44.977
58.135
-20.592
49.403
143.26
11.247
-82.286
-152.66
-198.7
-46.668
148.86
216.91
121.73
53.623
62.338
158.54
7.3926
-90.166
-140.74
-323.85
-308.82
-68.587
148.91
219.61
105.93
88.522
140
225.97
108.55
-121.98
-323.46
-232.96
-33.125
112.84
92.528
-19.275
-29.947
-38.804
28.429
-18.179
-89.479
-111.43
-126.07
-19.193
149.68
171.98
74.735
72.148
114.74
122.89
63.978
-72.09
-115.69
-162.68
-194.77
-59.662
69.245
52.24
92.621
154.01
64.582
13.167
138.48
65.084
-47.211
-202.95
-378.82
-302.91
-85.79
63.975
222.01
260.93
92.123
122.14
184.98
8.5426
-131.47
-284.2
-266.68
-75.729
99.343
163.81
135.02
17.271
39.667
209.02
50.586
-131.52
-247.95
-251.33
-102.52
110.49
227.82
106.21
-1.1702
-38.626
138.13
279.04
25.275
-172.01
-246.19
-247.16
-101.27
65.511
151.28
93.993
71.666
139.46
221.89
71.538
-127.34
-220.47
-270.86
-141.04
55.399
181.19
98.541
65.607
82.479
68.448
97.756
-40.326
-138.19
-184.24
-222.01
-91.191
113.9
147.64
114.46
154.83
118.49
131.95
85.698
-92.207
-193.01
-257.48
-253.01
-67.743
60.316
57.8
97.605
91.461
54.217
96.845
-31.429
-85.487
-134.12
-236.06
-157.44
13.62
168.27
240.94
198.74
85.993
49.205
169.16
48.606
-111.38
-239.32
-310.16
-182.96
17.526
158.11
172.54
117.6
-6.8106
112.99
191.6
8.6764
-161.77
-268.1
-301.63
-147.11
107.52
181.23
138.22
60.972
91.166
268.47
142.82
-41.326
-250.85
-363.11
-233.2
-22.572
141.64
101.22
9.133
65.534
217.31
167.11
-40.648
-156.77
-199.65
-115.16
23.387
154.69
124.96
23.752
80.205
143.58
166.21
76.505
-94.925
-247.64
-301.52
-236.85
-43.536
58.644
29.248
88.939
134.26
82.422
86.698
-29.753
-115.19
-115.08
-117
-50.968
105.65
118.12
92.342
122.47
87.825
104.78
78.628
-82.195
-71.542
-199.57
-353.67
-214.17
18.443
206.43
244.93
204.39
104.32
88.501
116.53
-5.2911
-88.873
-258.36
-329.34
-190.73
8.6307
157.06
190.74
111.69
61.027
114.15
31.576
-0.15695
-97.964
-313.33
-327.04
-114.27
66.646
161.88
106.1
20.676
157.28
346.24
191.56
36.736
-143.21
-359.63
-235.37
-10.607
54.448
-18.341
-26.564
99.931
223.34
242.39
67.598
-74.835
-218.31
-251.93
-125.22
88.22
74.103
-49.174
54.287
108.17
111.7
7.8823
-100.43
-124.96
-130.37
-123.88
-10.39
157.1
175.51
137.42
107.52
37.113
70.884
2.5061
-102.28
-108.95
-142.9
-57.767
52.496
50.953
53.391
72.551
-50.616
-80.626
15.29
-90.309
-107.24
-121.34
-187.56
-95.677
105.91
222.21
285.67
225.04
43.911
28.901
74.445
-65.545
-154.45
-265.41
-257.57
-90.216
83.345
167.28
137.58
60.307
55.661
237.42
185.71
11.375
-178.51
-379.94
-325.57
-89.926
107.14
201.23
124.11
14.156
175.02
286.14
91.997
-58.612
-251.18
-372.08
-234.48
11.007
93.174
42.407
-48.157
31.144
265.49
213.19
41.278
-164.21
-292.59
-168.62
40.337
164.28
63.703
-31.829
44.13
236.38
259.19
12.115
-140.65
-221.15
-191.32
-23.118
124.01
70.758
-67.051
9.4205
67.394
75.517
21.468
-108.67
-140.55
-142.17
-91.261
36.37
149.61
99.164
89.878
104.52
68.07
77.366
-65.883
-152.31
-141.72
-142.48
-55.622
90.519
163.4
122.89
98.108
9.3483
-81.965
17.477
-29.014
-82.135
-116.68
-182.07
-91.73
107.1
236.5
214.54
143.38
38.898
67.561
26.456
-66.111
-65.815
-241.25
-331.16
-191.47
49.21
173.49
137.15
59.527
-64.125
-10.075
-27.821
-53.375
-79.623
-140.02
-125.57
60.805
201.66
189.38
150.43
43.839
123.37
145.24
32.469
-21.913
-224.69
-362.29
-232.43
-4.0232
135.41
151.68
52.914
51.704
216.16
101.67
-38.604
-84.566
-245.4
-261.39
-40.903
95.914
93.753
29.544
-34.599
125.83
140.58
-52.799
-114.05
-200.82
-197.35
-13.719
140.57
201.63
112.96
44.003
180.81
233.35
63.655
-80.952
-296.68
-326.74
-130.88
84.486
139.28
22.531
-10.749
61.923
210.28
153.17
-32.138
-202.04
-328.51
-238.98
-34.234
121.52
110.06
50.053
89.802
160.78
239.05
133.33
-78.863
-258.87
-268.76
-151.79
43.544
89.562
51.715
141.7
163.98
174.58
152.6
-54.574
-189.36
-228.88
-149.84
-3.1521
140.27
103.85
54.717
118.2
30.296
29.252
-40.021
-140.87
-80.267
-185.61
-186.33
-41.868
58.421
145.34
201.58
97.378
-42.821
99.913
55.745
-102.44
-163.3
-245.32
-203.11
-22.028
161.9
224.44
170.58
18.92
-12.615
154.76
119.91
-89.801
-270.65
-241.08
-75.952
132.07
203.56
94.6
40.889
-90.14
-4.1725
174.8
22.359
-155.55
-240.46
-189.72
-22.424
152.77
199.08
102.52
-36.793
-20.254
229.39
163.29
-60.01
-219.23
-316.01
-198.94
-6.1516
150.03
108.94
-10.005
27.703
229.49
194.22
-37.761
-174.35
-241.78
-122.02
70.178
193.86
61.506
-86.843
-71.442
96.112
183.82
15.581
-110.99
-181.04
-90.027
84.657
145.9
178.55
-15.448
-53.033
7.9797
-46.97
-81.077
-34.091
-107.53
-108.83
88.608
12.407
50.221
155
95.679
-12.684
-69.907
-37.649
-89.289
-56.566
-63.227
-39.543
87.443
12.487
16.107
98.163
61.428
-53.442
-50.459
-11.892
-95.143
-83.692
-103.22
-72.389
70.09
113.68
178.65
216.97
119.26
-40.533
-91.869
-45.663
-84.482
-98.158
-121.63
-87.478
82.638
220.25
144.49
-8.8893
-106.22
-173.03
-1.8136
38.52
-70.416
-66.189
-116.91
-112.41
43.856
158.75
195.27
156.87
-30.923
-84.389
150.78
121.29
-51.464
-142.33
-194.26
-71.618
61.01
105.92
-28.655
-82.806
28.41
183.78
184.03
44.292
-139.05
-290.69
-160.33
24.317
132.19
56.195
-69.244
-73.509
67.401
156.86
23.075
-57.043
-80.324
-14.624
78.407
94.286
-0.72158
-65.297
49.997
65.068
-43.483
-69.542
-123.98
-118.72
63.463
88.492
0.74324
-53.46
-70.67
34.212
178.41
202.89
104.26
-59.403
-322.92
-230.74
-11.06
57.579
36.501
-57.94
49.28
200.27
129.97
55.035
180.57
44.701
-99.385
-298.17
-386.52
-226.95
10.432
192.37
241.64
163.98
-4.9331
65.291
160.46
56.307
-153.95
-345.49
-253.62
-30.546
156.56
267.61
217.75
28.171
109.41
115.51
-86.285
-228.47
-302.68
-145.97
5.3286
157.6
205.06
148.64
-7.3222
-89.903
117.98
86.411
-118.2
-232.16
-202.43
-29.511
161.03
269.41
172.8
37.719
-110.54
48.673
198.53
29.131
-119.84
-306.32
-409.62
-231.68
28.07
197.56
116.94
66.641
199.41
262.97
158.01
10.775
-152.14
-251.14
-96.622
50.293
77.107
-63.426
-91.266
7.5052
57.963
82.966
-54.866
-139.82
-85.056
-80.773
-33.902
124.69
106.09
46.609
145.29
89.77
49.256
27.169
-107
-56.228
-70.605
-97.385
32.528
79.479
18.163
16.639
6.3394
-82.249
-61.065
-22.615
-18.288
-20.324
-125.51
-128.85
24.802
179.99
236.77
159
5.892
-121.87
-25.672
-35.543
-99.403
-130.09
-170.59
-78.47
89.156
235.55
215.82
86.575
-26.439
79.653
197.69
75.699
-49.566
-261.5
-348.17
-104.77
-1.0195
60.809
70.205
5.071
23.875
155.97
49.159
-95.899
-108.65
-214.32
-145.75
50.493
196.87
144.49
15.519
-8.4113
69.025
135.11
-17.502
-111.75
-140.4
-156.28
-24.645
115.76
114.86
56.013
94.435
106.68
50.545
21.386
-100.26
-130.51
-80.688
-63.335
22.997
68.355
48.45
67.086
6.9951
-2.3456
-102.3
-104.85
87.952
55.349
-59.271
-132.5
-101.81
24.528
111.33
123.14
74.87
-59.138
-95.789
101.26
-2.1985
-91.085
-114.85
-134.7
-12.711
209.46
307.48
132.83
-111.09
-161.08
91.607
170.08
-14.939
-47.654
-64.244
-104.19
49.882
132.68
35.673
-185.51
-240.61
62.94
139.08
97.59
101.01
65.39
-44.658
-163.63
-270.77
-463.73
-531.56
-214.62
39.667
91.046
201.1
279.4
136.21
130.2
50.676
5.1342
16.193
-135.84
-121.84
8.8517
172.32
320.4
309.24
93.554
-124.03
-251.02
-148.18
76.515
153.99
128.72
118.31
84.391
121.8
153.27
26.483
-61.631
-154.72
-129.86
39.792
184.13
313.49
142.34
-20.784
-168.96
-113.22
-38.4
-118.4
-182.74
-343.45
-438.49
-225.32
41.284
223.28
252.72
167.63
66.535
129.31
310.44
204.76
-72.333
-281.57
-244.61
-43.36
74.338
5.6988
-98.729
-76.187
-24.06
133.24
139.85
-18.722
-112.48
-141.91
-27.053
64.807
67.743
-27.831
-91.401
-97.944
85.788
189.13
16.576
-127.26
-191.78
-45.54
128.22
189.11
74.025
-59.015
-58.969
27.284
124.31
-15.345
-95.739
-127.9
-96.513
70.895
34.775
87.384
84.088
36.447
41.062
3.5972
-6.8739
-131.12
-138.87
-112.77
-22.836
103.76
131.26
66.584
48.948
74.696
-59.475
-42.845
-17.408
-87.623
5.2804
-47.56
-49.737
81.804
131.05
68.812
13.861
-76.269
-114.46
-67.837
-63.208
-53.367
-48.231
-12.14
-75.407
68.211
231.15
226.51
109
-26.603
-101.3
-77.421
-65.897
-160.89
-157.57
-57.693
-19.369
87.435
261.4
216.09
-38.959
-47.147
154.52
90.113
-137.21
-206.28
-255.98
-71.082
224.54
309.66
207.94
127.66
52.218
9.0154
-30.234
-117.18
-229.01
-371.5
-502.65
-345.25
-79.862
92.024
156.17
176.66
190.23
304.75
351.44
155.74
-109.16
-290.9
-175.3
20.156
223.97
93.099
-56.739
6.5635
37.421
35.909
-81.796
-90.311
-94.443
-61.374
36.674
74.648
61.472
-42.707
12.169
59.018
-3.4776
33.84
6.2757
-108.11
-238.62
-64.171
25.714
64.872
170.12
175.19
97.356
-21.375
23.555
-24.49
-86.916
-109.8
-162.56
-10.886
109.41
142.89
122.34
47.756
-71.377
-102.26
88.272
76.947
-36.939
-95.26
-209.65
-184.32
29.992
152.28
76.031
2.6743
-112.2
22.821
256.89
119.93
-63.097
-226.93
-289.71
-130.59
119.85
213.63
94.278
-17.741
-67.523
139.13
244.87
88.281
-144.95
-313.91
-161.18
65.765
169.43
63.856
-68.486
-14.072
142.78
252.54
107.59
-51.623
-235.53
-269.43
-88.852
-13.293
63.344
47.493
6.973
56.673
66.695
123.97
22.243
-87.018
-158.28
-82.602
81.579
124.84
75.089
35.256
34.02
-66.541
-23.788
-6.7215
-126.68
-143.02
-128.35
-84.674
35.517
131.74
162.53
162.73
93.395
-41.421
-13.59
-46.981
-36.356
-55.067
-174.54
-148.57
15.339
127.82
160.83
116.28
-25.896
-84.433
121.88
88.258
-43.492
-94.606
-93.044
-105.3
43.009
149.87
95.116
-14.374
-52.108
122.25
111.38
-78.883
-142
-212.84
-229.07
-63.052
135.16
137.64
-15.955
-119.37
5.6135
219.44
95.07
-67.771
-157.73
-123.77
41.571
173.55
189.79
65.408
-23.139
-35.901
69.669
112.02
-10.605
-181.27
-281.92
-127.61
73.555
111.63
18.433
-7.2308
74.892
88.447
75.092
17.052
-72.262
-101.53
-79.423
-19.5
125.48
143.94
-13.983
-18.967
14.067
-37.089
37.89
-21.726
-103.71
-42.452
-78.408
-185.58
-23.717
109.8
170.36
185.85
56.694
16.303
46.354
-94.477
-97.949
-158.57
-252.02
-125.31
100.19
212.58
160.13
100.69
56.147
-17.198
-63.749
-41.834
-84.927
-19.042
68.922
52.055
38.93
-36.301
-22.271
-58.035
-45.573
68.334
76.749
0.2183
-129.78
-235.06
-103.37
167.39
177.23
102.63
61.123
-101.55
17.172
164.15
5.2345
-101.77
-185.42
-169.13
-9.6861
97.784
126.09
69.106
-31.563
-2.5712
246.13
201.42
3.9744
-214.38
-326.48
-203.31
15.317
134.18
20.264
-17.839
114.42
253.67
223.03
33.367
-215.28
-259.3
-160.92
-60.894
58.124
26
-72.873
45.426
81.397
-52.932
-27.678
-59.119
-66.062
53.721
173.17
231.23
120.57
9.9464
27.953
68.253
6.5508
-132.24
-206.71
-143.18
-0.90206
-48.429
-246.31
-281.43
-81.945
117.32
230.16
314.8
443.81
214.31
-103.24
-99.023
-170.49
-283.96
-86.269
91.103
113.48
24.604
-131.78
-161.07
58.487
136.34
123.9
-45.77
-171.76
-114.97
27.404
184.32
100.44
-12.615
-98.545
-73.019
90.429
26.337
-97.482
-164.63
-131.55
36.38
243.13
290.73
86.301
-87.81
-133.96
120.93
190.11
31.292
-126.19
-335.37
-297.04
-92.099
138.64
159.34
46.93
-44.049
-14.411
191.73
158.97
-55.399
-162.3
-196.96
-56.853
120.62
198.61
84.464
-39.429
-66.685
72.695
155.26
-26.34
-164.64
-223.49
-90.393
115.14
164.78
56.425
16.132
70.661
112.52
200.38
55.325
-116.07
-238.68
-300.73
-108.09
41.03
72.885
99.842
54.669
17.559
-28.488
64.882
-70.898
-165.77
-170.43
-117.38
30.983
187.3
156.49
94.803
170.17
68.055
57.7
44.334
-109.05
-89.89
-119.66
-162.85
-21.739
35.363
43.23
134.58
84.607
4.5312
61.588
-39.183
-22.347
-107.04
-207.93
-91.538
48.41
99.078
84.745
8.5529
-86.574
-50.345
-52.471
31.732
-15.193
-102.72
6.7139
114.45
137.51
146.2
90.019
-23.901
-38.656
41.146
59.857
5.7586
-213
-300.64
-84.593
116
139.65
62.151
-5.8486
-122.1
28.602
94.193
-57.042
-148.66
-177.09
-76.774
91.584
260.79
222.19
68.346
-86.663
-36.119
188.74
120.27
-75.01
-248.96
-247.73
-72.274
147.28
172.63
7.1083
-83.71
-114.46
108.07
221.84
38.57
-139.09
-204.45
-86.069
93.069
266.05
139.17
-127.2
-116.64
22.754
136.79
45.397
-81.962
-146.55
-187.1
-40.676
131.99
132.63
-20.835
-74.837
63.47
60.383
108.77
82.592
-109.31
-80.409
-81.182
-145.25
2.8216
55.88
-20.26
26.018
107.64
29.992
56.002
-1.1536
-86.887
-82.855
-137.43
-75.952
71.213
161.29
182.02
119.2
-57.426
-61.741
-15.813
-99.852
-94.295
-174.54
-125.07
17.704
135.71
192.39
122.42
30.764
-84.655
21.278
113.42
-1.6858
-125
-205.88
-121.58
39.373
218.75
213.83
60.995
-70.672
-180.01
17.075
158.25
4.2
-110.54
-158.55
-82.65
87.237
150.08
60.205
-32.682
-141.84
-98.125
159.71
139.11
-30.636
-149.57
-138.16
13.744
96.462
90.001
-33.919
-121.44
-0.21597
205.86
67.655
-65.913
-102.58
-117.49
22.386
107.36
100.83
-33.11
-139.53
-52.045
100.2
135.21
-17.539
-97.839
-116.69
-33.777
119.24
151.21
64.439
-54.988
-55.312
80.242
46.648
14.744
-53.776
-94.106
-7.3704
-65.325
-125.93
-4.1971
-32.294
-3.6731
110.3
34.172
15.889
-11.987
-102.33
-48.327
-54.204
-79.325
36.852
137.56
156.64
122.83
65.06
4.0097
-19.202
-68.426
54.957
101.51
-123.67
-159.41
-62.65
-5.6412
91.047
66.542
-57.427
-67.344
109.24
114.73
82.329
-43.085
-235.94
-305.79
-92.504
123.51
150.52
80.923
-15.871
59.896
284.27
170.8
-47.843
-258.68
-377.93
-263.32
22.328
182.04
89.547
-26.193
-15.01
229.59
318.94
122.47
-69.752
-291.43
-318.94
-109.13
125.48
115.68
-41.933
-64.014
87.727
263.71
156.22
-65.649
-174.3
-160.84
22.558
114
117.36
-13.861
-115.03
1.5395
192.13
107.72
-72.618
-268.35
-300.71
-69.514
142.43
137.21
13.2
11.835
88.075
181.95
113.34
-61.782
-163.98
-126.18
-51.701
88.648
231.61
29.533
-91.908
16.998
-5.054
20.141
-76.455
-153.78
-178.63
-14.51
147.28
122.97
144.57
28.897
10.144
-63.838
-53.154
-13.329
-90.551
-115.52
-80.604
32.838
105.26
129.58
46.87
83.435
35.375
-75.333
-15.595
-94.672
-76.602
-45.76
-67.523
26.203
110.93
109.97
51.271
12.306
-66.198
-56.926
-32.543
-1.2988
6.3136
-136.52
-139.88
-0.54614
114.54
149.08
114.57
43.272
-53.916
2.332
30.36
4.038
-68.975
-135.12
-65.534
58.718
82.6
65.715
28.276
-114.87
-95.439
98.445
15.234
-81.866
-160.23
-129.05
8.1831
158.92
203.88
99.471
-24.323
-131.22
82.767
230.07
24.62
-136.73
-178.73
-147.54
36.44
231.75
72.163
-122.67
-141.75
19.378
227.35
106.79
-84.172
-155.34
-156.67
-13.884
195.47
105.4
-114.14
-81.305
16.361
156.63
68.804
-96.344
-140.42
-147.35
13.459
136.85
209.83
105.79
-23.549
-8.8145
-42.453
-43.263
-142.24
-138.25
-123.04
-38.894
75.381
174.95
104.06
-51.242
20.411
63.018
67.269
45.53
-95.75
-74.292
-11.653
-21.29
69.112
54.581
-92.138
-35.043
24.597
-25.173
57.268
-21.25
-95.068
-35.598
-57.458
-41.86
28.72
58.19
139.83
174.28
63.002
-15.594
32.086
-32.262
-48.956
-124.36
-224.3
-175.76
15.782
159.36
132.26
36.208
-72.397
-6.51
56.232
35.509
-26.58
-96.053
-51.412
65.893
200.73
142.79
-26.873
-101.44
-193.12
4.2942
192.27
59.951
-175.32
-319.65
-198.74
49.99
305.04
328
132.53
-106.74
-121.11
99.459
146.26
-21.322
-202.43
-338.88
-186.2
79.099
103.11
-24.308
-52.934
77.162
294.83
187.54
-20.189
-113.27
-145.01
-18.686
80.926
61.446
-34.321
-97.02
-60.257
113.13
72.892
-76.331
-103.32
-60.377
41.308
138.26
160.19
-21.873
-145.56
-86.074
37.627
72.221
-22.401
-55.799
-33.417
31.658
34.049
20.984
2.2069
-17.874
59.084
47.668
-31.543
-30.531
-41.582
-95.278
14.995
29.987
-100.92
-184.02
-152.23
29.299
146.73
120.14
82.143
34.195
-8.6352
-138.64
-152.33
0.16648
96.795
33.398
48.014
174.84
112.86
217.87
236.27
19.887
-150.93
-272.19
-145.78
87.776
146.93
175.38
122.92
-83.286
-61.315
-14.174
-167.53
-159.99
-139.33
-84.819
-8.1232
-5.8626
34.808
97.268
16.933
-25.924
-6.9364
-80.707
-54.873
-43.034
-21.284
61.257
120.84
110.08
90.269
22.92
-62.702
14.271
71.566
-31.22
-81.29
-136.8
-76.497
99.559
136.32
89.32
35.167
-113.79
-128.25
20.123
16.532
-11.346
-68.543
-52.659
34.845
87.243
137.4
70.933
-21.108
-146.64
-68.733
144.49
88.001
-111.24
-265.32
-178.53
-28.686
168.35
220.82
84.771
-47.123
-64.856
164.27
207.3
44.412
-154.02
-303.81
-208.35
63.263
215.12
60.841
-82.572
-83.717
181.39
287.86
97.619
-97.822
-321.06
-359.75
-137.82
122.85
176.68
2.4173
-109.99
70.773
329.03
247.5
60.912
-138.46
-290.41
-207.17
18.839
123.69
-45.19
-170.03
-55.545
206.79
193.31
16.16
-73.496
-133.59
-77.699
110.64
194.34
36.861
-125.4
-85.858
84.025
129.23
-26.832
-109.46
-151.19
-127.53
52.426
121.92
132.79
-8.2458
-51.931
46.392
80.62
113.46
-30.506
-98.165
-82.939
-61.813
17.953
69.008
-17.829
-78.648
39.16
15.408
77.377
46.919
-87.273
-73.398
-90.153
-50.662
63.612
76.594
27.067
127.84
61.634
-26.42
31.479
-96.191
-66.766
-87.18
-8.9196
78.045
30.574
49.447
57.645
-5.0927
-109.31
10.943
-41.848
-74.134
-24.471
-54.001
65.627
64.848
76.213
136.44
110.21
-44.037
-111.58
51.63
17.59
-55.404
-191.05
-245.91
-116.76
61.142
154.23
140.45
67.361
-71.486
25.1
41.899
-68.713
-109.03
-154.62
-64.774
62.675
146.94
197.11
152.18
8.574
-157.97
29.929
131.51
64.914
-99.007
-292.94
-233.98
3.8339
201.5
270.9
170.41
-33.737
26.358
95.287
37.626
-75.927
-247.25
-289.05
-191.07
17.006
171.7
83.226
-79.437
-69.376
195.8
256.24
105.64
-68.757
-224.51
-207.87
-42.915
151.01
119.74
5.8689
-79.19
-20.161
189.93
181.18
-7.6447
-215.39
-225.42
-80.794
99.568
153.89
-17.693
-116.8
-24.793
207.16
246.01
33.72
-166.71
-222.61
-59.394
89.816
116.85
48.157
-58.877
-13.785
101.36
173.37
30.713
-101.95
-175.16
-162.72
-82.138
81.202
88.45
-92.252
-57.398
68.36
112.19
88.95
-31.285
-77.342
-96.816
65.17
58.479
-5.2411
25.05
-4.0665
41.342
-9.8829
-7.035
-47.802
-82.283
-73.299
-21.586
38.165
66.997
2.147
-41.942
53.682
32.339
-23.649
37.126
-70.873
-91.631
-47.119
-33.836
69.911
86.654
76.855
91.899
64.266
-64.337
-5.6251
16.752
-68.937
-7.2842
-51.271
-82.275
15.228
63.711
46.757
42.174
-24.198
-96.387
28.05
51.555
17.235
-58.76
-97.676
10.295
97.547
143.43
32.049
-34.731
-126.01
-153.01
27.798
45.922
-28.63
-79.665
-52.251
18.948
134.42
137.68
26.127
-50.015
-149.93
55.011
163.36
7.3462
-126.04
-189.81
-101.58
107.62
218.38
73.264
-17.771
-130.16
-78.637
110.64
83.096
-65.66
-135.08
-125.73
-9.5536
159.95
150.82
-7.7105
-111.81
-53.207
200.97
151.3
-41.411
-143.91
-151.32
-21.404
141.66
202.87
-23.352
-174.16
-104.41
91.911
160.57
7.4235
-98.224
-129.23
-23.069
79.515
103.26
-38.295
-166.19
-35.545
87.164
102.33
-34.845
-74.653
-112.8
-70.341
95.673
77.623
93.77
-10.427
-43.672
106.31
124.16
45.071
-34.056
-19.521
-97.573
-136.26
-19.583
6.1303
-70.202
-6.5817
132.52
29.324
1.3936
6.3253
-45.32
-5.1915
-80.601
-59.142
65.984
119.71
39.85
42.582
-24.877
-101.15
9.3382
-55.59
-34.625
-26.044
-129.04
-69.72
46.666
119.83
186.62
105.01
-72.203
-55.742
67.088
73.485
-35.931
-152.72
-185.13
-59.4
137.87
184.04
101.59
36.702
-29.533
51.704
-2.0928
-81.174
-165.69
-274.04
-198.94
40.474
256.51
203.83
47.15
-67.657
-87.346
113
218.78
49.194
-148.87
-247.93
-99.522
186.14
217.18
138.61
54.154
-12.267
53.617
17.598
-46.26
-71.082
-192.5
-268.02
-50.27
169.28
145.01
-111.48
-6.5699
264.06
214.05
84.501
15.562
-95.974
-249.73
-183.46
-172.27
-161.72
71.473
235.52
139.04
-52.625
-196.17
-152.22
-34.247
177.71
326.29
170.71
6.3163
-162.82
-228.6
-370.59
-695.84
-345.59
148
213.89
200.76
400.84
378.67
94.208
26.835
198.87
265.44
7.2429
-201.02
-327.07
-298.94
-114.98
-3.3715
-82.756
-80.316
-49.587
-0.39917
86.941
182.52
289.69
162.47
82.011
81.677
-185.68
-354.17
-175.69
4.302
159.6
250.09
160.78
-6.6629
-2.5517
179.59
143.87
-10.308
-240.95
-317.52
-165.29
29.385
159.09
148.9
20.087
-87.513
133.36
255.87
160.65
-23.405
-214.06
-144.76
71.993
185.57
74.795
-98.648
-199.19
-39.363
156.48
80.704
-99.891
-298.43
-275.68
-53.279
171.88
124.74
-50.91
-101
70.178
270.29
136
-56.665
-202.67
-163.62
43.567
171.03
201.35
14.271
-4.2678
18.991
13.967
110.57
-27.512
-173.88
-223.27
-69.271
80.451
90.536
-38.633
-62.885
14.126
39.918
192.83
96.022
-81.818
-153.43
-226.66
-117.49
73.959
6.248
-18.704
85.106
6.0633
19.298
-29.964
-72.362
41.316
-36.83
-40.341
96.654
95.244
44.997
77.508
33.25
-89.288
56.457
142.88
2.8692
-105.17
-185.19
-133.34
42.989
185.78
87.729
-47.833
-122.33
-123.06
20.813
-41.691
-86.42
-89.565
-98.399
31.228
225.71
315.8
154.19
-63.51
-185.53
-54.729
153.82
47.386
-99.234
-178.85
-194.18
-49.979
169.51
217.47
37.04
-15.788
21.912
123.94
160.69
2.9548
-198.04
-295.95
-80.065
101.13
83.661
-49.7
-88.437
13.872
123.24
222.93
61.179
-125.81
-162.77
-128.31
19.591
95.096
-46.564
-88.387
47.204
121.87
191.57
49.048
-96.672
-106.68
-71.575
56.516
65.045
30.293
-44.472
-7.3827
-40.274
19.094
117.2
-75.439
-70.554
-55.343
-159.62
-41.312
84.427
127.58
172.3
83.417
-57.044
7.4958
-48.281
-66.817
-13.937
-122.69
-78.146
24.433
98.689
174.13
69.932
-36.72
-116.7
-10.482
144.71
74.769
-117.33
-154.97
-203.83
-76.92
48.462
59.305
100.19
-63.194
-14.875
151.18
22.742
-71.259
-105.41
-57.526
70.96
216.18
154.23
-57.259
-154.89
-120.33
123.91
63.476
-81.235
-136.42
-159.39
-52.237
135.49
230.3
116.25
-60.791
-93.417
116.2
229.79
63.211
-96.418
-251.78
-237.99
-42.712
133.86
77.111
-89.528
-72.559
96.042
207.82
97.52
-95.15
-205.41
-92.376
1.5571
74.401
64.217
-54.193
59.793
131.14
145.36
108.65
-85.54
-127.27
-147.94
-43.819
95.555
32.427
71.878
103.3
65.925
-38.436
52.582
-50.711
-123.74
-42.657
-139.51
-121.86
-39.923
17.623
94.086
124.5
0.94727
-59.463
21.417
-55.923
-94.046
-81.532
-154.58
-73.82
117.84
184.24
184.23
110.46
-78.727
-18.172
167.65
116.2
18.588
-162.23
-261.93
-128.26
108.77
123.25
20.212
-54.171
-147.89
46.387
190.96
74.786
-56.797
-137.34
-68.228
64.594
110.63
-9.3622
-89.139
-130.76
17.615
203.59
75.188
-54.192
-127.92
-71.714
42.181
105.8
30.886
-116.34
-71.494
65.19
154.87
17.778
-73.337
-78.994
-53.348
40.052
102.63
95.873
-41.389
-44.847
142.13
124.65
25.138
-75.634
-138.77
-102.09
-80.526
-62.113
12.911
-21.695
-86.964
16.674
28.685
63.391
30.29
-47.772
-0.76298
-18.574
-47.991
29.768
41.996
91.106
195.51
92.423
37.79
47.891
-112.53
-44.986
-44.386
-131.03
-73.529
15.368
48.876
41.927
44.181
-64.326
-22.884
16.555
10.505
24.407
-128.92
-152.78
-45.794
99.497
150.1
60.57
-116.23
-40.956
93.926
33.427
48.871
-96.893
-232.63
-123.04
128.35
222.5
92.642
-35.268
-160.17
-46.332
117.47
21.458
-111.71
-183.05
-134.27
8.2731
174.83
160.94
9.8222
-45.517
97.592
297.16
193.65
-44.561
-217.61
-187.32
2.6728
83.46
135.98
-13.693
-165.45
-52.354
50.372
141.92
35.057
-121.24
-151.56
-128.98
-23.206
72.993
89.653
73.76
89.465
56.894
-22.787
71.267
66.443
49.147
-20.277
-215.32
-222.27
-13.057
224.43
287.59
64.82
-55.943
-185.19
-21.176
95.415
0.5831
-83.356
-220.95
-274.94
-79.139
165.44
128.51
3.2741
-117.86
-77.395
153.19
118.98
-31.043
-122.7
-137.84
-9.9265
180.18
204.66
36.019
-27.506
53.287
232.69
182.82
-27.419
-166.29
-278
-176.04
37.463
129.99
-22.705
-85.223
-7.344
58.517
179.16
62.732
-120.78
-200.52
-92.068
64.924
61.98
-1.575
-18.376
76.476
5.4967
41.014
1.2616
-139.21
-75.813
-99.92
-10.844
113.72
147.98
101.89
117.8
26.194
-80.525
50.974
-38.422
23.682
-1.7852
-128.7
-129.06
-129.91
-15.542
137.35
157.53
14.636
62.339
68.329
-35.946
-71.365
-227.63
-301.64
-142.17
128.38
192.37
97.641
5.3736
-79.046
109.57
232.89
107.72
-122.73
-281.57
-189.82
47.05
218.61
114.43
-16.063
-138.17
-5.6866
210.14
104.41
-110.77
-224.77
-158.78
31.21
195.97
178.59
3.3873
-125.82
7.3591
216.85
102.22
-92.321
-239.81
-193.61
-36.904
168.15
191.31
-13.607
3.6181
73.829
151.21
107.28
-64.778
-205.09
-165.67
22.304
112.62
42.708
-161.21
-116.31
37.132
99.305
41.733
-120.08
-85.439
33.467
42.798
115.08
61.71
-104.23
-19.876
65.144
-26.515
106.21
11.036
-83.443
11.205
-111.37
-111.76
38.334
71.72
94.782
140.76
-1.3215
-66.111
55.505
-58.973
-85.881
-139.53
-207.66
-70.485
146.2
243.74
151.67
43.802
-129.19
-56.146
115.85
71.907
-22.193
-149.67
-237.06
-85.786
206.96
227.42
61.935
-74.701
-138.24
27.727
173.1
113.11
-93.966
-251.02
-200.88
35.92
186.94
68.007
-3.925
-90.406
38.041
211.5
93.199
-77.411
-243.09
-272.76
-50.267
158.01
29.807
-76.839
-14.755
163.23
271.52
107.74
-76.231
-244.03
-185.88
0.49398
95.09
62.166
-63.785
14.054
85.106
93.985
127.14
-55.898
-97.254
-68.334
-79.457
-5.372
31.61
-25.594
29.189
126.47
-22.804
51.531
91.415
-20.365
-49.602
-179.54
-225.7
-77.968
110.48
205.74
183.01
44.199
-91.086
71.893
148.38
22.222
-149.33
-269.7
-276.16
-72.458
184.63
200.88
55.431
-75.39
-78.559
155.51
222.61
58.515
-145.59
-312.31
-223.41
63.285
204.85
67.08
-51.728
-61.21
148.14
245.07
70.475
-158.62
-285.64
-113.17
105.69
114.71
3.9401
-29.073
120.71
198.22
185.22
33.743
-118.06
-186.72
-148.27
-30.813
78.881
22.373
-88.263
45.28
71.444
27.003
117.58
-43.404
-48.008
-59.11
-165.07
-67.843
-19.568
67.842
184.26
183.32
4.9858
-16.893
75.108
22.244
-55.644
-262.65
-336.25
-173.52
100.34
209.41
89.347
-23.207
-106.83
43.64
223.94
95.815
-28.652
-20.779
-20.008
117.03
98.666
-64.771
-133.28
-245.2
-210.71
21.566
88.85
-110.22
-268.91
-148.28
88.212
298.49
353.73
180.84
108.86
258.97
157.14
-54.539
-125.88
-160.51
-112.55
-127.32
-324.58
-365.9
-174.07
97.561
228.26
217.47
165.24
17.433
73.257
67.799
-135.35
-92.403
160.44
180.41
238.76
169.56
-43.044
-200.45
-261.15
-99.357
72.7
30.459
-181.12
-211.28
0.95837
121.79
105.38
2.6278
-91.138
-37.848
208.86
238.57
40.274
-146.22
-386.21
-356.25
-127.64
111.41
217.99
91.969
30.211
253.95
368.28
160.44
-2.8857
-238.97
-322.62
-181.9
53.875
139.45
-31.805
9.6041
85.176
168.59
79.918
-75.634
-149.96
-168.31
16.819
85.003
131.19
129.79
-3.3481
-53.245
-152.67
-55.839
50.75
17.176
-44.459
-154.73
-184.25
1.2275
212.89
267.29
144.43
-49.297
-184.43
-20.802
2.7025
-69.915
-135.01
-212.23
-118.71
78.753
253.05
166.09
-46.117
-133.19
36.947
294.11
173.94
-58.943
-171.35
-238.73
-29.234
184.63
126.77
-59.438
-106.18
51.895
166.29
136.52
-3.8537
-249.45
-260.87
15.54
38.154
130.86
-18.593
-78.661
66.086
46.904
23.585
-10.672
-93.873
-122.32
-40.123
-5.6089
113.82
217.43
63.095
-1.0034
-94.267
-44.636
-31.53
-86.093
-71.178
-72.969
69.962
116.86
88.63
252.69
315.31
98.142
-164.53
-205.94
-137.32
-199
-192.33
-186.7
-178.4
19.434
176.01
108.97
99.048
21.118
16.046
135.12
134.02
-3.5361
-190.95
-312.24
-173.33
66.51
243.12
161.53
12.045
15.186
191.74
239.36
27.203
-222.7
-362.81
-225.51
34.506
168.98
3.3141
-51.729
86.503
181.71
263.76
135.87
-111.72
-189.31
-88.935
-46.813
22.744
-21.967
-87.083
54.821
69.715
-61.947
-70.12
-31.884
98.496
127.13
12.171
-55.961
-91.556
-8.7127
49.549
-98.962
14.237
5.712
-198.81
-180.11
-218.76
-303.61
-110.59
88.97
158.77
296.24
288.03
177.91
200.9
227.31
274.17
120.21
-123.81
-166.77
79.251
86.858
-127.41
-214.07
-208.42
-92.713
147.68
45.062
-88.896
-123.79
-103.63
28.569
86.849
46.335
-67.165
-98.462
-22.471
185.09
248.17
65.41
-100.45
-271.6
-234.07
7.6308
171.4
48.429
-97.051
-47.658
117.09
270.82
169.73
-38.128
-216.81
-233.07
-108.82
60.977
41.323
-61.332
101.43
94.227
65.018
55.101
-82.808
-103.32
-75.637
-24.419
99.348
61.745
-1.2573
91.813
31.977
-51.329
38.875
-64.826
-0.59437
-34.181
-163.05
-63.743
105.39
166.26
117.76
53.992
-70.086
-55.489
68.382
-30.501
-83.693
-197.3
-260.83
-106.26
146.53
242.64
95.699
-20.687
-99.315
50.433
228.59
115.06
-64.367
-189.45
-239.81
-46.335
197.37
143.02
-51.564
-74.279
36.322
231.08
182.14
9.9622
-163.59
-258.92
-117.02
59.854
8.7018
-121.15
-36.552
71.247
182.16
184.68
14.719
-144.3
-110.9
-27.967
75.437
80.445
-37.946
11.116
85.558
62.061
115.39
-38.966
-150.9
-49.909
-95.632
-85.046
-1.0739
-104.63
-52.598
91.788
34.9
20.701
24.016
-6.7803
-37.817
-53.424
-156.18
-328.48
-241.2
-25.357
172.66
315.13
208.26
155.64
138.84
152.6
61.885
-178.49
-343.03
-177.9
-26.804
115.56
221.88
89.248
65.138
235.13
219.2
91.581
-100.74
-249.8
-128.3
98.441
159.76
-69.287
-189.67
-100.72
120.09
205.38
41.989
-117.2
-168.36
-42.946
54.571
71.768
-45.645
-176
-22.502
128.63
34.727
-32.076
-47.329
-72.087
-107.11
-152.98
30.346
106.68
56.421
194.87
296.92
263.72
126.63
-21.9
-230.57
-367.42
-311.64
-157.06
-105.41
-102.09
6.5428
57.421
102.95
137.79
93.571
179.01
216.95
50.471
-189.09
-235.68
-12.561
189.44
147.28
-91.155
-112.06
66.133
124.66
75.164
-28.606
-236.58
-217.7
17.005
119.21
122.59
-89.025
-121.6
81.086
93.656
30.088
-116.49
-279.36
-117.76
170.11
197.74
154.46
-2.5578
-33.222
185.76
131.3
-32.075
-130.79
-292.36
-294.47
-24.277
140.36
78.384
60.273
215.98
312.45
211.47
56.358
-125.5
-367.05
-299.21
-62.064
30.02
-8.941
51.515
228.59
180.13
59.237
-37.255
-185.25
-182.19
-55.662
-182.2
-195.04
-13.482
102.03
200.93
158.25
76.763
143.06
-53.692
-108.55
-142.15
-167.87
-85.095
27.592
110.72
117.73
85.719
-24.584
102.69
172.52
128.34
-59.888
-297.72
-267.09
-81.52
159.67
195.56
64.516
-65.974
-152.87
0.77911
222.95
195.46
-57.791
-236.4
-152.87
79.862
225.74
112.63
-29.865
-84.864
127.46
322.91
132.12
-181.75
-332.77
-261.59
-94.33
86.609
56.956
-60.141
20.46
180.51
226.7
32.437
-105
-199.16
-95.404
55.596
114.4
50.135
-95.109
0.40942
22.102
47.423
20.924
-85.556
-32.134
-63.209
15.273
52.408
58.976
68.49
55.017
-40.115
-98.468
55.661
-56.441
-1.3609
51.295
-130.67
-170.12
40.594
197.39
176.93
78.112
-109.14
-175.85
42.551
161.97
62.729
-100.92
-252.54
-191.95
66.532
147.2
-26.437
-153.39
-178.67
85.257
174.01
45.214
-20.17
-153.15
-95.298
119.23
169.68
30.07
-84.58
-126.87
-6.4281
177.85
72.889
-34.169
-100.05
-89.06
60.484
150.83
26.619
-62.572
44.433
23.801
83.713
64.22
-76.229
-38.576
-39.791
-44.128
48.666
-8.6702
-125.62
2.5723
-20.115
-18.274
128.83
32.198
-23.25
-105.68
-125.66
-34.648
68.524
135.89
172.36
79.28
-68.967
31.272
113.51
18.735
-18.771
-141.24
-209.36
-46.437
125.02
77.622
-15.691
-72.506
-159.74
-17.092
184.77
171.81
-20.428
-212.38
-237.41
-40.874
144.86
57.235
-61.376
-89.141
90.22
269.32
163.61
-20.361
-221.94
-219.98
-46.942
134.9
68.18
-36.819
87.07
149.57
233.13
138.15
-66.713
-154.04
-157.57
-23.952
35.081
15.797
-25.452
29.446
-31.259
-88.969
80.602
-35.452
-8.7822
30.036
-137.18
-130.89
16.026
138.38
144.42
63.767
-125.48
-136.87
58.043
37.834
-11.801
-88.087
-180.13
-115.09
114.98
232.8
120.95
-58.951
-135.56
91.728
263.45
146.72
-23.621
-244.69
-282.82
-47.697
162.27
74.746
-103.42
-109.59
70.049
272.5
202.07
13.328
-165.37
-196.6
-56.128
114.73
20.646
-166.18
-79.729
-9.0027
114.01
92.446
-97.006
-80.571
7.875
-15.078
-7.0123
77.984
81.696
116.86
-19.533
0.48423
119.92
-66.662
-12.653
-15.267
-204.49
-151.46
-6.4005
55.218
93.082
21.777
-99.868
45.278
134.06
125.73
21.343
-183.31
-226.76
-42.795
159.2
141.55
53.374
-104.04
-155.23
91.702
108.77
-44.962
-164.36
-181.18
-43.34
124.4
183.44
46.366
-58.286
9.804
256.17
254.96
64.099
-124.8
-236.67
-144.77
45.707
90.35
-87.76
-134.37
24.788
201.5
214.25
15.313
-141.17
-202.75
-84.76
38.997
48.867
-67.366
-51.411
63.508
15.37
134.39
81.511
-41.159
-52.423
-131.09
-74.133
51.499
114.33
80.767
22.426
-70.956
-9.6263
14.273
-28.786
67.252
-103.98
-219.38
-107.21
61.968
186.96
91.636
9.5214
-70.702
79.038
189.48
142.56
11.552
-205.56
-304.84
-181.01
69.403
106.02
-20.053
-86.35
39.332
249.83
179.08
-4.6948
-204
-248.06
-96.95
117.94
77.16
-97.531
-4.8467
133.19
295.91
246.6
55.59
-120.38
-269.3
-135.14
7.8602
-28.62
-63.886
74.968
138.79
104.83
28.425
-50.477
51.96
-12.764
-175.3
-136.89
-10.135
94.512
134.86
116.76
-45.303
25.928
170.99
63.796
-73.667
-263.39
-314.61
-91.994
193.86
221.22
132.48
-12.447
-128.69
29.659
162.28
70.677
-128.52
-324.06
-275.19
8.8762
121.66
-2.6921
-90.914
-29.306
245.33
279.27
60.923
-147.64
-293.89
-98.255
82.936
63.465
-36.746
-102.74
17.301
24.878
116.12
125.62
-96.085
-215.67
-249.75
-122.61
108.55
235.3
264.88
261.78
102.72
-44.019
41.579
45.279
17.29
-114.51
-315.15
-265.34
-31.521
128.91
71.177
-17.547
-103.12
13.746
206.73
217.4
66.466
-147.78
-277.26
-139.16
106.66
130.94
-38.804
-121.82
-7.7423
254.77
267.44
81.505
-143.85
-269.26
-187.12
20.529
129.38
-24.031
18.515
86.166
200.37
254.11
97.567
-92.989
-209.04
-120.23
39.153
122.24
-29.15
42.155
15.067
-59.538
71.127
-66.067
-19.081
-14.593
-153.3
-122.86
-24.102
72.257
108.53
77.447
-94.154
-13.597
100.77
36.877
-1.7576
-173.88
-256.94
-106.58
121.84
135.87
17.327
-98.203
-62.483
200.17
204.72
19.816
-114.05
-209.15
-149.43
56.621
128.42
-12.513
-110.47
-15.366
249.65
265.61
72.101
-143.23
-186.72
37.878
82.784
1.0019
-95.528
-126.76
-50.949
127.88
181.21
10.483
-98.874
-131.9
-37.304
55.357
40.303
-44
70.805
95.427
23.46
127.37
-26.978
-45.037
55.954
-100.31
-163.64
-64.598
59.556
78.555
5.6763
-99.586
-176.14
10.599
165.58
83.847
-100.2
-216.73
-126.06
114.61
223.69
82.18
-66.911
-122.24
86.69
243.23
87.209
-114.49
-218.98
-186.75
-2.3555
158.32
2.2586
-92.346
65.451
206
253.06
113.06
-94.833
-241.48
-65.881
68.042
47.532
-95.236
-117.73
39.058
36.018
155.87
112.31
-40.968
-135.87
-206.03
-112.7
3.3656
67.354
212.52
215.82
37.138
-1.9639
-35.302
-110.68
-83.154
-103.55
-216.91
-288.22
-6.743
176.7
69.426
42.151
25.313
85.604
238.64
198.36
-91.986
-255.22
-136.75
89.748
193.9
111.03
54.598
46.826
63.834
-37.231
-151.32
-228.16
-353.03
-303.42
-32.05
116.87
229.42
271.36
294.22
390.44
250.19
-8.0367
-174.2
-376.29
-458.89
-217.1
-98.189
-36.49
96.85
205.8
153.3
290.86
215.96
-10.435
-109.75
-284.44
-219.46
-13.973
99.446
90.468
79.48
-65.188
-0.44737
148.47
5.0946
-36.019
-71.413
-271.56
-238.8
-15.35
118.44
184.44
83.926
-61.248
86.295
302.24
189.1
10.835
-219.61
-347.73
-202.38
38.514
123.76
-49.827
-97.591
98.173
316.89
224.34
9.1788
-125.55
-138.23
-66.108
45.711
66.66
-49.182
-24.29
80.38
3.8342
88.941
68.462
-33.266
-51.024
-192.81
-257.31
-86.253
101.43
191.53
103.96
-37.685
-46.695
102.79
109.04
-41.332
-115.83
-199.99
-179.81
5.1831
168.72
171.04
18.058
-97.243
103.55
288.22
147.58
-13.693
-223.9
-284.15
-74.783
121.49
77.306
-67.248
-36.125
77.083
218.45
141.12
-13.596
-121.8
-205.56
-131.83
32.326
78.753
-28.946
60.88
27.916
27.933
115.61
-24.996
-24.76
-71.284
-164.49
-100.98
-5.529
133.99
117.32
27.527
-183.21
-149.68
5.3644
-20.221
-23.387
-96.617
-61.054
11.823
130.22
184.36
66.275
-80.211
-41.507
215
224.57
71.765
-123.22
-264.4
-184.34
23.839
132.96
-49.158
-151.96
-47.192
136.38
277.25
146.68
-28.989
-97.277
-109.66
27.885
29.486
64.124
82.107
15.57
-35.645
-123.86
-81.199
16.965
-43.459
-107.47
-116.55
19.167
155.76
149.16
-13.993
-72.218
-86.042
13.644
173.96
24.71
-81.798
-150.42
-125.57
1.08
162.83
131.74
-35.448
-141.36
-65.53
198.97
195.31
-8.8546
-159.91
-121.93
33.647
121.19
101.29
-95.371
-72.516
19.189
97.858
185.51
-10.74
-124.88
-129.33
-164.49
-70.446
44.269
4.38
70.806
131.35
4.8592
45.798
-27.398
-66.366
-44.45
-162.46
-123.67
8.6412
143.14
210.05
115.95
-33.506
-109.72
125.36
236.01
55.607
-131.54
-279.9
-272.24
-48.98
113.69
45.848
-49.16
-82.714
169.65
336.36
167.72
-23.373
-213.86
-236.13
-79.367
119.74
65.048
-87.694
-59.539
73.92
194.55
158.56
-3.9333
-164.51
-116.42
-71.015
54.221
13.519
-95.412
56.04
66.767
116.29
115.36
7.1748
4.6934
-102.38
-165.02
-15.979
-7.0718
-27.474
64.288
2.6327
-47.502
17.978
68.589
138.34
35.698
-167.56
-214.08
12.157
150.02
63.228
-24.794
-160.65
-46.422
128.46
103.28
20.359
-157.49
-256.09
-106.23
134.5
103.7
-68.099
-157.46
-93.645
139.49
135.88
-2.689
-100.87
-129.42
2.9507
172.86
154.54
-39.177
38.629
84.796
128.95
165.29
-20.856
-39.525
-88.264
-148.91
-30.715
41.281
-35.612
31.101
78.609
-1.2564
105.39
97.155
-3.8262
-55.113
-149.93
-234.68
-105.88
49.434
46.003
19.339
-49.732
-9.52
160.26
186.98
157.5
0.34215
-196.99
-206.31
16.3
183.76
141.55
81.836
-14.021
-18.823
-38.424
-193.79
-313.56
-300.62
-82.506
161.33
194.27
16.293
-15.701
103.76
251.74
285.57
44.077
-132.5
-167.27
-163.35
-30.651
-1.747
-57.254
30.742
169.02
94.963
107.87
55.153
3.7589
111.25
10.471
-215.15
-225.01
-32.526
53.079
56.359
17.569
-129.01
-24.386
137.17
146.13
123.2
-50.618
-248.83
-166
62.264
116.79
45.724
-122.2
-68.348
204.26
176.49
39.724
-151.66
-270.42
-190.08
22.4
135.91
-30.875
-28.684
127.24
231.44
117.78
-26.065
-105.54
-156.71
-99.217
31.733
35.324
-70.64
46.144
121.19
9.7439
84.964
-1.2905
-2.7732
38.589
-112.35
-139.69
-91.593
0.18086
106.26
81.933
-80.696
-12.214
205.11
158.75
-18.881
-170.2
-226.95
-79.143
75.836
115.55
66.226
-89.455
-188.5
89.873
206.71
22.147
-120.33
-219.77
-165.63
-8.4391
139.37
56.462
-62.078
42.61
266.72
303.38
134.29
-18.374
-236.19
-138.97
84.684
52.887
-45.291
-3.3561
66.185
-11.577
101.25
-43.604
-141.26
-5.5472
-66.881
-95.902
-7.7921
-37.977
-3.1817
84.289
-37.861
12.69
60.902
38.906
110.88
-24.511
-209.39
-158.84
79.142
184.89
71.287
-81.518
-201.3
-1.991
192.01
127.81
-9.3359
-155.94
-204.58
-30.409
108.79
27.388
-103.8
-77.931
135.32
318.13
173.08
4.9348
-173.38
-209.02
-28.769
116.11
13.033
-132.02
-107.28
-5.1865
202.73
149.77
-19.101
-74.818
-112.96
-50.846
45.019
38.296
18.073
119.06
54.951
26.273
106.83
27.113
-20.398
-115.12
-177.3
-97.554
3.132
65.747
66.487
13.54
-45.181
85.843
86.009
67.885
3.3621
-180.36
-273.05
-84.073
137.87
106.55
19.913
-117.26
-59.372
192.66
143.12
22.733
-158.05
-287.22
-211.24
11.863
126.44
-9.6544
-11.845
128.93
237.3
128.52
-19.709
-99.6
-96.436
-53.97
6.4722
39.778
-55.593
0.33313
75.851
30.165
84.984
-51.021
-28.198
54.319
-125.13
-170.9
-53.054
52.025
137.98
128.5
-13.29
45.953
71.066
61.497
87.249
-64.179
-225.75
-111.41
115.11
103.36
20.36
-112.29
-125.89
150.09
167.21
-13.258
-193.65
-238.59
-129.53
70.479
150.1
51.055
-100.86
-66.385
219.17
198.19
56.619
-102.02
-180.66
-36.908
92.481
102.17
-54.273
-12.445
109.36
239.7
214.39
-55.904
-145.6
-137.3
-98.877
-28.539
-26.369
-76.369
86.414
119.05
8.7692
39.527
-59.385
-46.165
-18.799
-154.74
-152.37
-52.272
71.64
153.34
110.57
-34.682
13.579
113.38
114.28
50.991
-97.348
-225.45
-105.88
108.8
78.767
-25.35
-163.64
-179.46
106.91
159.54
23.654
-110.87
-169
-48.842
151.51
153.2
4.5194
-75.094
27.756
228.15
146.09
5.167
-154.74
-171.22
-49.161
80.753
41.676
-120.69
-74.505
29.639
115.66
108.18
-5.3385
-19.797
-76.766
-88.428
38.453
68.461
-44.009
54.572
55.349
11.447
64.009
-30.588
4.863
-44.943
-218.58
-190.88
-12.258
131.07
125.59
34.848
-107.27
7.2581
188.9
170.44
46.287
-149.12
-291.95
-206.96
8.2498
66.685
-19.786
-136.06
-46.501
242.53
256.71
148.21
-63.303
-232.84
-164.19
26.109
159.93
15.303
-100.47
-1.0492
179.71
239.22
69.391
-105.08
-164.26
-106.54
5.1106
93.261
24.344
44.322
126.47
1.9646
44.946
-15.397
-62.237
-8.2926
-146.28
-191.04
-43.634
81.186
64.723
72.212
-28.979
-19.167
82.502
111.23
131.66
-33.222
-222.57
-190.22
38.139
165.97
69.996
-61.177
-188.66
-46.25
181.16
125.34
-44.737
-173.12
-125.7
36.9
119.47
1.9411
-103.57
-16.014
211.17
205.48
28.497
-107.5
-215.48
-80.502
39.134
100.14
-3.2778
-72.379
38.62
38.129
135.95
36.153
-92.447
16.216
-42.097
-118.13
4.5076
76.204
98.239
107.02
-72.256
-34.466
56.377
-36.728
-5.8219
-57.756
-192.65
-186.13
36.831
159.07
77.986
-69.971
-164.44
65.958
191.51
33.247
-56.35
-121.41
-86.331
87.615
193.29
34.638
-126.61
-98.575
158.22
197.51
48.894
-26.49
-88.818
3.3346
4.9153
-33.581
-69.142
-126.12
0.87836
104.56
41.032
40.77
37.721
60.444
72.986
-29.906
-142.59
-236.11
-106.48
88.611
-5.0364
72.059
116.82
-160.51
-134.67
-29.606
-150.01
-157.35
25.22
113.62
92.596
182.25
84.351
19.589
175.18
266.12
89.54
-160.15
-242.75
-59.686
70.703
12.641
-58.632
-115.45
-39.513
206.55
139.92
31.481
-45.928
-198.82
-143.86
69.03
132.19
-35.088
34.153
64.976
3.6226
22.133
-58.141
-74.465
-87.002
-62.25
16.446
57.527
11.146
25.755
16.946
-89.168
104.51
189.79
107.63
56.124
-129.73
-305.65
-117.83
91.118
72.064
5.4686
-101.61
-63.71
215.36
157.73
-13.944
-98.274
-180.14
-82.541
50.014
43.082
-33.139
-88.587
33.727
289.26
145.22
-60.806
-128.01
-179.9
-62.98
129.2
121.66
-44.735
-25.308
15.32
86.192
201.57
22.528
-3.5144
-21.338
-194.23
-164.95
-13.597
33.551
23.696
9.2574
-60.171
0.84699
-6.5393
-14.857
55.98
-38.608
-76.199
22.058
101.03
76.544
-9.8452
-120.63
-101.35
164.9
141.37
-17.553
-69.447
-125.23
-50.437
83.257
63.21
-42.045
-93.182
-26.838
215.33
175.85
-11.909
-96.26
-154.95
-94.591
21.536
84.407
-16.097
-56.716
42.046
36.129
107.91
45.43
-77.468
13.419
-41.108
-146.51
-55.362
24.409
117.7
133.12
0.030246
-109.98
15.601
174.75
149.33
-0.24255
-216.47
-306.12
-124.03
92.635
83.813
-51.242
-123.08
-19.629
290.87
264.5
16.963
-158.46
-153.38
8.0157
100.1
71.519
-108.97
-54.667
28.237
76.892
155.77
24.235
-63.136
-100.06
-218.17
-147.27
106.69
240.37
112.03
22.85
28.829
28.601
5.2194
10.294
-33.972
-69.4
-260.57
-261.78
53.011
247.42
386.37
247.13
136.22
168.29
71.292
-146.16
-265.41
-425.04
-577.62
-379.42
-209.52
-158.44
-64.619
60.703
180.17
383.65
443.79
145.73
-6.2769
50.075
53.582
-56.472
-180.01
-104.49
-65.47
63.098
229.5
68.45
54.751
212.93
15.448
-89.523
130.31
106.07
-34.972
-50.925
-136.85
-131.79
83.818
99.912
-17.384
-100.07
-208.27
-148.68
2.8219
24.703
67.793
120.46
-37.461
29.238
235.34
71.587
-70.715
-154.76
-164.1
-41.912
47.365
39.359
-16.729
81.897
105.89
83.884
-43.231
-88.581
-26.308
-65.793
-34.933
70.176
22.693
-58.241
68.425
44.904
-16.554
8.0399
-54.229
45.389
-6.7101
-120.74
-30.344
110.21
99.459
16.619
-33.052
-145.74
-55.826
101.41
35.358
-30.835
-89.083
-117.07
23.292
113.26
30.562
-38.493
-90.802
39.075
199.75
40.109
-46.104
-84.194
-83.472
42.835
118.2
24.204
-82.12
-10.393
16.64
49.561
73.439
-38.102
-75.122
-55.043
-20.923
25.071
23.994
5.204
85.119
104.85
21.271
-3.9546
-7.4106
33.452
-37.265
-140.88
-148.92
-41.986
39.916
0.60829
-34.1
-143.89
-73.799
165.2
108.45
20.297
-70.973
-81.453
24.54
93.682
64.309
-9.0344
-87.838
-43.101
191.32
184.08
8.0038
-125.86
-161.25
-52.997
49.969
48.901
-85.363
0.83222
79.385
75.278
97.78
-8.9256
-67.941
-48.234
-56.036
-4.8008
29.591
-10.663
9.4655
7.6985
-60.32
26.447
85.69
72.941
7.7353
-61.862
-167.31
-116.02
89.954
143.89
75.223
-5.5598
-90.034
90.542
125.3
38.783
-108.67
-295.72
-237.72
-37.966
158.62
84.424
-41.201
103.79
174.55
146.78
60.659
-61.539
-125.37
-49.474
88.16
147.73
82.485
79.879
211.36
124.97
3.0718
-160.34
-339.05
-168.52
19.656
-102.46
-270.01
-247.27
0.64323
199.72
82.698
-227.5
-314.56
-37.538
135.72
114.57
4.8207
54.061
248.36
297.7
105.76
32.944
-78.275
-44.327
197.89
179.61
-21.268
-253.94
-318.41
-157.16
10.501
91.986
-20.518
-36.298
132.35
288.21
117.52
-62.093
-132.93
-138.75
1.7991
77.686
93.15
-5.2995
-5.0713
-0.69333
21.397
60.776
-63.031
-73.252
-62.008
-153.28
-72.018
60.455
104.98
120.66
47.122
-52.655
37.301
58.94
4.9847
28.9
-89.221
-206.27
-81.329
66.636
71.033
38.909
-81.132
-72.625
169.28
105.84
-45.226
-77.761
-68.097
53.278
116.41
69.768
-78.273
-77.706
38.372
47.432
17.558
-42.217
-64.725
-35.064
-28.241
-14.614
82.091
64.553
34.672
35.707
-39.952
-70.792
-54.224
-33.086
49.961
-41.638
-132.26
-26.683
143.01
171.74
76.54
-12.885
-145.64
-54.261
157.36
92.56
-38.625
-166.44
-162.41
10.309
116.3
18.805
-59.336
-114.62
-10.781
171.35
13.877
-30.667
-74.932
-102.87
59.829
75.476
76.678
69.505
68.632
64.615
63.877
33.722
-83.359
-99.03
-100.68
-130.14
-18.477
82.335
53.837
32.579
42.886
-15.258
-30.418
-39.274
29.949
40.475
-84.472
-104.77
6.2162
78.151
61.337
-0.090232
-55.711
-126.3
91.277
147.44
-5.7809
-49.016
-94.232
-40.383
42.455
43.105
2.506
-53.724
-73.234
117.02
167.04
-20.349
-66.608
-106.99
-46.487
51.907
101
40.319
-55.494
41.98
57.339
59.91
-20.756
-91.557
-39.82
-72.122
-50.175
53.096
47.625
3.2269
39.848
42.966
-40.718
-45.531
-4.9839
42.364
1.5153
-103.48
-96.307
25.065
86.769
68.414
1.8055
-69.034
-134.16
91.741
146.27
-13.067
-109.38
-118.39
-26.866
170.06
274.1
48.658
-46.003
-52.685
-26.159
-43.486
-57.18
-83.785
-95.622
-79.382
-142.28
-239.01
-133.81
5.9552
133.14
310.15
464.12
340.74
94.947
21.088
-191.26
-318.36
-123.23
-27.367
-42.289
-15.988
8.8495
31.923
105.35
29.223
-3.7951
-42.309
-111.11
-41.86
28.022
32.245
25.404
-23.502
-91.991
74.935
214.44
26.896
-74.237
-171.96
-108.59
23.533
69.023
21.683
-112.42
-82.875
92.219
253.89
119.88
-46.755
-75.609
-105.44
-38.852
54.719
60.201
-45.773
-4.2469
33.491
-11.303
33.771
-64.336
-35.637
15.165
-66.421
-3.7648
77.477
54.857
10.635
-3.6818
-89.561
3.458
57.112
-15.703
15.384
-75.704
-104.42
19.098
96.396
49.166
-20.251
-112.81
-76.815
186.58
112.86
-26.512
-76.929
-80.857
10.867
89.04
47.206
-69.394
-17.612
1.1294
41.6
3.8126
-24.983
-4.7025
-72.72
30.076
184.81
64.916
-49.199
15.524
90.946
34.782
8.3245
-34.133
-153.96
-120.79
-7.2693
-61.769
-84.724
14.734
175.68
217.13
113.49
-4.8488
-118.64
-62.419
-7.4928
-237.12
-405.89
-341.96
-108.34
88.315
170.62
181.99
180.41
318.5
129.22
-49.772
-62.768
-82.088
-24.084
116.12
180.5
99.338
-109.21
-225.55
4.0052
87.802
-87.823
-199.11
-87.086
54.872
44.573
39.848
33.369
71.62
111.32
113.92
144.65
39.107
-121.86
-196.51
-198.43
-56.863
78.431
51.204
-0.10192
75.149
45.354
32.026
-18.8
-78.208
-29.199
-63.288
-9.1144
64.14
70.938
38.637
-8.8597
-55.695
-35.875
75.932
5.1815
10.366
-39.663
-97.549
-8.4371
63.7
47.588
3.4465
-52.676
-96.873
32.333
190.84
44.012
-58.401
-100.19
-52.099
41.659
76.544
-4.5486
-74.397
-5.5089
72.114
113.22
-40.658
-74.582
-78.246
-48.086
58.355
100.8
4.1376
-86.208
-3.1279
7.6805
42.026
52.413
-70.588
12.332
35.071
-82.43
-6.9999
79.291
59.493
-9.9238
-45.24
-80.94
6.771
41.584
-49.285
-32.281
-66.744
-26.728
63.122
64.125
31.785
-18.314
-75.42
1.1543
197
68.719
-57.131
-70.261
-109.38
-23.411
52.434
59.284
-29.164
-81.604
14.522
113.87
76.086
-71.982
-84.5
-76.105
-46.26
57.197
197.41
121.23
-15.171
-0.20996
-26.717
4.9486
7.133
-136.59
-102.26
-53.492
-127.35
4.4904
209.92
382.11
241.29
88.694
68.086
25.548
-44.9
-64.852
-112.15
-184.94
-370.21
-365.95
-144.66
-48.601
-213.08
-389.1
-38.089
166.28
157.6
155.85
40.961
-46.226
149.71
251.76
183.94
110.85
179.9
394.35
317.95
134.04
-76.872
-313.12
-160.85
-60.614
-202.23
-282.85
-263.05
-112.39
63.577
92.457
127.65
46.696
0.97228
111.16
83.437
-88.399
-155.22
-3.0021
53.066
4.7285
114.06
39.229
-7.1636
141.8
12.197
-158.75
-181.39
-60.572
149.94
206.08
121.06
65.531
-44.062
17.571
33.065
-31.272
-11.19
34.066
31.808
14.88
-13.041
-66.005
-220.63
-207.18
-118.38
-310.62
-270.3
-8.9778
35.26
16.588
72.812
186.78
195.63
214.73
281.59
163.22
178.78
239.92
14.091
-175.82
-275.15
-243.25
-71.793
5.3449
-12.419
94.261
25.792
-55.392
91.566
12.554
-24.156
-79.937
-115.52
-6.5479
62.006
47.873
46.332
-1.3167
-124.83
-30.165
138.92
7.1158
-62.522
-89.561
-38.108
54.875
65.613
21.075
-53.079
-15.793
95.043
129.78
-44.493
-88.032
-85.625
-30.169
66.72
94.347
19.051
-97.425
15.908
68.326
13.11
-11.174
-97.816
3.2513
9.472
-67.396
32.682
95.887
43.818
11.091
23.178
-72.665
-84.524
-32.068
-30.874
6.5332
-27.979
-28.62
76.94
132.8
58.53
-1.6524
-75.7
-133.09
53.874
24.761
-35.702
-48.598
-80.657
8.0156
113.29
102.23
-24.418
-84.706
-50.073
80.914
124.2
-31.385
-63.893
-75.873
-13.369
58.385
89.922
-21.607
-73.4
35.212
13.849
38.298
22.856
-79.491
45.603
10.407
-117.71
-2.1784
117.88
63.769
-2.1476
-31.78
-99.462
-44.159
-27.415
-29.11
24.193
-41.279
-63.068
42.671
73.475
47.687
1.1712
-71.445
-36.952
179.68
99.554
-47.561
-72.59
-101.58
-4.3681
76.955
68.762
-55.76
-93.22
10.424
122.77
57.984
-67.751
-66.363
-57.718
29.921
78.729
68.742
-28.912
10.329
45.891
-34.964
-12.979
-114.5
-42.017
54.767
-67.183
-12.367
83.796
65.096
77.152
54.268
-71.738
-45.38
-75.388
-66.777
48.934
-53.86
-77.284
60.313
106.94
66.888
13.03
-92.155
-117.78
114.19
101.71
-35.77
-73.341
-106.9
2.1097
136.76
101.59
-45.694
-146.95
-101.56
136.37
122.7
-59.008
-69.758
-81.059
39.761
141.71
115.68
-14.544
-80.859
-7.3216
48.547
41.792
-125.17
-83.806
4.4687
-34.979
49.804
100.97
-37.324
-14.164
66.905
-5.7057
-9.6164
-68.548
19.363
43.065
-98.517
-38.838
91.558
72.061
13.258
18.849
-71.018
-73.079
-2.2825
41.768
58.329
-67.574
-129.47
35.319
129.19
53.149
0.07751
-120.07
-88.621
87.876
18.865
-7.9089
-59.034
-90.501
33.345
113.46
54.352
-48.164
-106.39
10.327
197.33
54.309
-45.134
-73.654
-98.002
37.756
127.18
51.285
-118.01
-85.057
55.249
128.01
65.043
-90.361
-87.685
-16.351
-14.142
15.455
69.741
-23.669
27.37
98.062
11.64
11.551
-95.574
-74.94
-38.911
-136.01
-85.382
34.108
122.99
104.01
28.208
-74.716
-26.56
12.579
35.502
29.526
-95.72
-81.218
49.59
131.52
46.298
-55.192
-137.68
-78.486
158.02
66.241
-23.782
-65.718
-64.012
43.513
109.62
55.422
-52.52
-119.61
-59.632
175.74
94.376
-54.022
-90.549
-90.453
26.314
113.01
86.3
-44.803
-15.39
41.013
44.871
-28.74
-95.8
-32.816
-71.567
-23
71.565
78.512
43.784
41.185
-23.932
-47.577
-2.4422
-107.39
28.127
147.2
-44.037
-126.99
56.421
104.01
28.645
-59.296
-121.97
-29.923
32.886
-9.2699
32.017
-72.51
-134.72
6.787
89.4
96.297
50.493
-72.709
7.778
209.43
81.597
-31.339
-127.67
-207.27
-43.774
157.62
103.08
-71.976
-125.32
36.04
179.72
22.661
-62.096
-67.498
-66.506
42.433
102.26
-12.554
-105.63
-28.838
37.57
101.57
0.065075
-62.434
20.233
-41.896
-36.871
64.756
53.624
19.267
72.888
15.843
-5.9252
4.3386
-104.91
-20.446
10.37
-102.64
-99.147
-20.892
98.244
87.573
-31.115
-125.49
32.377
99.29
98.241
58.783
-110.32
-161.04
18.483
132.79
42.003
-59.814
-160.91
-36.374
178.76
42.614
-13.359
-75.247
-101.99
37.826
126.77
59.119
-83.432
-55.987
76.484
109.4
-50.563
-71.052
-55.727
-33.872
70.003
106.6
5.8589
-106.95
-26.179
25.621
68.545
-4.3558
-77.174
60.126
-12.391
-78.901
45.307
58.381
16.089
57.628
-5.4143
-37.37
7.5134
-74.618
11.896
35.131
-112
-76.158
92.906
118.98
21.131
-57.789
-143.93
-4.9912
139.5
8.4217
-29.19
-85.08
-111.41
55.921
174.46
62.72
-97.04
-147.14
47.28
176.6
-8.3106
-47.252
-67.826
-73.492
74.423
128.08
18.094
-95.323
-56.601
5.7761
86.599
7.8866
-91.399
33.379
-2.8006
-82.759
36.288
58.461
4.8616
54.024
21.508
-15.833
-20.538
-88.992
41.218
25.21
-76.716
-2.5525
16.26
59.423
72.959
-27.947
-121.4
-13.867
63.008
66.801
2.1199
-98.085
-125.45
41.622
102.55
63.288
16.587
-135.71
-139.49
135.44
147.94
43.853
-108.32
-164.93
25.078
151.11
47.577
-62.91
-26.94
57.482
78.645
-58.231
-57.048
-76.783
-50.996
56.361
92.024
-11.173
-71.858
52.623
75.009
71.962
-69.458
-59.481
69.93
-49.827
-66.881
54.811
26.913
30.016
100.68
-21.096
-27.14
-20.143
-105.89
31.985
-24.604
-155.69
-19.234
131.52
108.17
22.169
-75.351
-96.184
58.619
59.341
20.623
-50.544
-145.97
-52.688
109.03
125.23
4.8991
-70.105
-166.86
30.326
182.03
28.241
-22.441
-100.81
-69.393
61.89
109.08
11.74
-102.22
-70.938
111.14
101.33
-72.595
-85.307
-115.04
-72.621
73.131
170.8
64.938
-5.7549
89.043
89.43
87.904
-50.87
-122.37
-35.616
-95.23
-65.513
-13.776
32.14
74.31
62.598
-42.582
-16.673
-20.394
-27.325
74.421
-16.272
-125.32
-28.215
117.27
113.42
15.827
-119.19
-136.78
54.868
37.158
-10.269
-21.025
-95.952
-18.505
87.749
91.091
2.7732
-115.27
-73.155
190.64
184.91
-18.415
-81.448
-187.03
-88.592
105.73
161.44
17.324
-107.84
-38.96
41.363
91.077
-46.143
-60.826
35.711
-36.228
-0.0072663
86.711
-0.8736
-23.77
47.547
-14.514
-23.395
-30.976
-60.399
45.997
-0.94583
-117.87
-30.937
115.51
136.9
38.82
-55.641
-127.54
19.041
128.76
58.241
-6.6195
-178.03
-259.28
-93.384
102.81
154.4
50.723
-104.66
11.205
230.49
77.74
-44.863
-104.84
-105.24
56.006
133.19
56.758
-79.412
-80.677
49.111
90.478
67.853
-70.584
-131.04
-41.184
-64.29
22.903
34.393
-9.5262
121.6
184.99
-38.034
-123.79
19.664
-0.72031
-16.825
-138.54
-195.9
-79.452
132.01
124.34
27.399
-63.069
-40.802
160.28
50.174
-2.5861
-22.479
-118.76
-60.537
80.399
71.161
21.216
-98.01
-108.66
143.1
117.46
-36.408
-64.322
-64.073
44.756
71.546
60.896
-70.893
-57.216
68.252
62.018
4.4147
-88.803
-46.178
7.3997
-34.132
21.634
79.13
32.683
19.137
3.3343
-79.393
-40.821
-16.355
16.699
95.254
-12.119
-115.79
-44.876
77.984
80.223
33.896
-67.027
-152.32
10.004
137.97
5.414
-25.764
-92.621
-76.986
40.019
80.427
47.769
-64.69
-90.156
101.95
192.37
2.4627
-71.521
-72.472
-30.097
46.761
64.691
-36.429
-124.54
-0.69168
63.337
76.354
26.197
-94.324
64.207
72.389
-82.214
-7.0865
42.891
17.623
44.272
2.7777
-114.23
-48.517
-55.24
-18.271
69.816
-43.159
-60.556
59.023
118.92
56.958
-42.646
-135.08
-131.66
139.43
132.64
-14.501
-56.055
-91.971
-19.036
72.021
50.414
-73.839
-127.06
-64.409
182.97
225.64
32.177
-27.185
-84.575
-70.969
80.794
70.882
-92.599
-91.717
28.88
-12.287
24.891
17.408
-18.382
11.299
-40.711
-9.237
29.789
68.47
43.684
4.7499
-76.721
-62.348
-39.271
-5.809
85.593
4.3461
-102.15
-59.682
74.743
87.813
17.565
-53.678
-139.32
38.919
164.56
26.471
-27.279
-98.687
-75.021
77.804
92.693
-35.445
-102.68
-118.49
102.08
190.68
-2.1004
-41.762
-78.871
-16.553
88.314
95.095
-32.17
-166.57
-70.008
54.965
124.96
21.716
-63.039
33.773
-7.3336
-54.718
45.46
64.094
18.899
31.75
-25.3
-70.053
-28.612
-63.943
25.003
26.558
-100.27
-36.385
89.888
68.992
44.194
-44.296
-66.844
13.513
-4.3761
4.9224
17.554
-56.197
-18.078
69.265
40.97
29.019
4.1175
-55.922
53.921
158.16
-18.143
-69.993
-101.44
-145.94
-7.6117
132.71
53.748
-131.08
-64.513
61.898
126.35
78.857
-66.494
-71.471
-42.538
-40.137
66.803
70.045
-39.066
2.5162
27.033
-49.093
42.713
-35.573
29.788
102.12
-79.286
-133.03
38.024
147.26
73.632
-56.655
-154.79
-148.55
107.96
105.93
15.79
-26.781
-120.48
-57.868
75.538
85.952
-26.435
-125.87
-62.474
208.89
240.93
91.724
-36.533
-203.87
-147.75
29.948
124.63
-29.421
-115.03
48.577
58.747
52.27
-63.595
-76.916
13.123
-56.816
-59.362
35.121
60.504
20.909
50.414
-26.725
-19.333
31.549
7.1255
81.932
18.478
-151.75
-96.576
88.827
137.3
26.719
-93.793
-162.88
68.187
225.9
84.169
-29.327
-202.75
-270.98
-60.12
89.954
75.854
-81.902
-96.141
124.88
294.97
140.35
-54.252
-87.978
-47.974
27.834
101.79
29.02
-158.05
-109.26
-11.445
9.6285
81.246
-59.286
-20.083
65.213
-29.613
29.569
104
70.932
24.749
-56.968
-124.75
-24.532
41.466
72.634
75.035
-90.045
-229.76
-91.102
113.9
122.16
4.5018
-105.32
-121.51
139.91
155.33
4.5978
-70.146
-128.55
-12.892
102.18
101.07
-97.439
-156.4
-13.846
159.22
153.07
-31.495
-33.243
-0.17575
-48.079
36.745
89.286
-49.038
-81.641
7.3345
-33.857
24.603
-42.831
-64.954
54.015
-52.152
-118.29
5.3025
127.94
177.54
104.38
-27.911
-129.5
48.789
84.084
-5.7035
-63.899
-153.34
-91.292
72.946
93.148
-17.85
-121.57
-118.72
129.39
222.96
9.464
-49.143
-99.405
-27.175
56.945
71.619
-24.589
-123.49
-31.371
56.022
121.15
24.858
-80.273
0.61944
-3.1801
-24.152
75.662
70.937
-6.4507
23.297
-18.662
-28.186
-0.983
-64.599
34.123
-17.195
-130.53
-82.576
12.271
126.09
59.958
-47.508
-154.54
-64.168
178.21
95.013
-24.077
-82.499
-63.27
40.945
88.405
42.724
-54.247
-134.29
-24.283
229.44
153.12
-3.0468
-135.13
-128.91
10.14
105.22
32.604
-165.23
-66.128
71.478
67.817
13.296
-112.42
-58.071
22.315
22.469
54.629
26.295
45.88
79.618
25.425
-25.446
58.655
3.288
38.227
51.09
-156.39
-200.86
1.3075
100.3
65.69
-61.964
-130.81
-156.1
106.19
236.87
58.128
-43.1
-109.13
-37.212
80.778
95.909
-55.913
-186.76
-129.96
111.86
172.94
49.088
-79.926
-119.57
8.434
96.752
152.97
18.859
-113.05
1.2966
19.305
22.321
-41.695
-99.506
0.68809
-27.359
-5.1869
57.714
45.382
81.903
64.605
-12.845
-57.408
-5.8842
-3.2217
-35.736
-33.669
-32.701
-58.063
42.973
70.145
44.546
8.6315
-8.7651
-10.841
-14.888
-15.68
-21.601
-46.568
-92.685
-115.15
-187.61
-200.34
-87.763
2.8352
55.766
193.66
336.89
91.652
-105.3
25.285
164.92
123.97
-47.123
-153.03
-15.912
214.72
318.05
246.5
148.05
44.511
16.709
-65.285
-183.6
-324.76
-154.37
126.92
64.237
-159.54
-325.6
-199.51
13.572
47.334
-157.88
-373.14
-325.59
-174.22
-11.596
34.005
81.421
294.09
432.01
492.28
455.99
198.25
-28.045
131.21
106.63
-148.81
-195.38
-152.42
-133.16
-37.486
-42.506
-129.18
-90.319
-85.158
34.574
80.196
71.099
23.25
25.592
-6.1347
-80.264
-53.827
-75.767
-23.562
60.077
-15.276
-42.49
78.985
55.801
48.008
29.211
-80.053
-19.767
-8.1953
-65.954
-31.568
-62.347
32.401
97.947
82.484
49.06
-13.507
-72.454
-126.01
68.015
69.205
-56.521
-40.621
-50.677
-11.447
79.109
70.077
-5.8693
-67.66
-20.858
103.57
83.33
-83.532
-79.182
-37.327
8.4332
70.43
115.62
9.1195
-97.796
35.517
40.879
-16.573
-54.832
-138.61
-10.528
12.556
-12.719
88.867
115.57
53.288
-4.204
-23.561
-88.614
-22.386
-33.371
-70.345
-13.389
-34.566
4.8972
79.916
100.14
0.896
-71.091
-72.512
-29.964
158.68
54.346
-49.481
-57.227
-51.675
34.698
82.609
40.01
-85.005
-72.838
9.4259
73.613
100.47
-42.394
-134.97
-58.398
29.608
148.35
169.23
-51.258
-95.543
-9.4681
-39.583
25.207
-51.375
-62.377
-44.543
-30.969
77.232
91.644
59.287
4.3061
-33.052
-47.195
-71.275
31.345
55.593
-38.634
-50.24
-61.884
-58.808
115.66
212.46
116.04
-19.995
-92.77
-85.133
-23.128
-7.8446
-26.093
-24.167
88.165
192.82
49.419
-72.981
-99.403
-78.39
-77.938
-364.33
-434.74
-114.07
-1.3727
2.4207
118.13
262.48
216.63
143.34
197.01
180.11
212.04
217.68
-20.224
-166.86
-237.89
-353.31
-205.92
84.78
270.93
222.52
81.736
-67.778
-104.67
60.1
172.46
98.795
-75.993
-207.14
-76.535
31.083
21.379
-75.478
-158.09
-122.3
177.98
200.18
-33.56
-74.684
-119.5
-34.587
103.06
123.81
-43.076
-144.9
10.884
100.48
76.805
-38.51
-114.45
-16.555
7.2143
29.872
90.473
-15.768
-29.176
84.973
-3.2659
-107.83
-1.7533
-24.317
2.57
-13.54
-77.81
17.575
110.82
104.2
44.543
-4.1563
-46.998
-77.201
64.574
80.318
-7.3229
-50.909
-184.24
-131.18
44.084
107.43
73.668
-34.81
58.841
134.74
65.317
45.928
-1.5494
-164.06
-267.47
-381.11
-395.09
-226.63
-76.057
65.934
179.95
339.68
326.28
165.19
122.73
86.587
163
372.58
253.32
-72.388
-143.19
-204.9
-117.83
-150.69
-156.07
-60.846
-91.091
-27.332
101.94
74.215
20.091
-17.153
-73.106
-16.584
134.73
23.19
-57.307
-56.954
-81.61
6.6307
51.245
25.052
-7.563
-64.531
-111.47
88.44
220.73
14.416
-66.117
-88.518
-35.267
80.277
102.51
-34.923
-127.78
-45.19
89.766
129.35
-33.513
-91.095
-44.417
-8.6284
44.412
105.8
6.7368
-91.231
26.179
38.837
-11.608
-53.68
-101.82
-11.114
-14.181
-26.338
75.691
90.597
34.43
-37.613
-42.865
-65.694
18.693
105.46
34.501
-18.728
-72.885
-59.034
37.532
88.629
30.71
-64.116
-121.98
-94.748
151.49
117.18
-28.113
-61.89
-68.249
29.533
97.496
71.951
-88.921
-129.13
4.1488
152.99
57.759
-87.475
-65.491
-46.805
61.144
123.79
61.268
-97.686
-105.17
13.293
32.881
54.124
-57.093
-78.777
2.4763
-18.168
35.238
108.4
67.03
-20.846
-30.751
-41.859
-82.63
18.097
18.162
-14.154
-33.569
-45.973
45.976
87.368
59.723
-33.87
-69.585
-111.8
32.602
180.16
10.88
-48.814
-60.743
-49.554
30.785
70.276
-19.824
-108.71
-64.164
95.929
179.85
9.9775
-79.42
-53.2
-4.4571
47.732
100.5
10.253
-111.21
0.28639
40.394
-15.382
-28.389
-89.144
-35.574
15.461
-11.717
64.789
81.532
58.964
43.066
-13.544
-102.51
-57.515
-25.622
-22.757
34.276
-52.606
-61.444
67.43
170.21
114.27
-47.427
-130.46
-195.82
-4.6165
133.04
9.4725
-36.506
-58.161
11.492
120.7
127.32
-14.301
-136.52
-134.21
34.104
163.72
15.998
-102.64
-166.92
-46.362
101.07
152.13
88.76
-50.749
13.467
56.321
66.061
-13.934
-116.16
12.089
-18.605
-47.016
48.485
59.58
12.761
9.6891
-10.312
-87.861
-59.584
-27.118
3.5172
-4.9279
-67.791
-19.934
109.63
157.62
60.431
-66.983
-152.55
-152.91
100.91
80.283
-50.954
-90.165
-123.81
-34.306
145
220.3
54.603
-116.26
-95.385
143.97
187.73
-19.427
-106.43
-63.298
21.743
69.172
59.78
-90.461
-144.92
39.545
55.142
4.9744
-35.917
-81.798
-11.264
-55.668
0.049819
81.34
65.983
115.24
55.6
-60.163
-84.467
27.032
4.5592
30.094
22.275
-132.59
-110.47
51.952
109.38
32.707
-68.667
-141.04
-103.2
142.58
90.532
-39.823
-52.683
-73.177
-13.214
162.53
159.13
-37.538
-119.69
-31.622
146.42
58.119
-86.812
-65.838
-61.091
19.199
101.27
71.55
-80.61
-91.142
42.491
21.866
32.429
-22.035
-110.58
10.349
27.905
12.908
106.38
40.95
-10.441
13.224
-26.589
-86.473
-70.962
-14.196
72.611
7.7759
-69.076
-23.359
80.819
109.17
3.8277
-75.51
-136.26
-91.839
154.22
78.422
-27.796
-90.479
-116.95
-26.917
136.36
143.47
-50.044
-159.5
-83.848
208.23
203.54
-12.948
-83.569
-70.936
60.469
119.62
71.437
-123.7
-228.7
-89.876
67.875
102.65
-19.695
-91.417
23.387
74.799
41.077
129.09
27.44
-97.69
25.241
6.6912
-75.161
-39.693
-62.898
-29.326
2.4472
-1.1347
27.866
111.71
121.66
-3.5353
-72.521
-124.03
-34.063
102.64
37.274
-46.633
-124.83
-141.62
-62.492
130.77
162.59
21.361
-71.13
-95.324
144.81
214.66
13.23
-107.03
-96.534
38.648
115.07
40.455
-141.73
-170.98
-73.389
121.84
108.74
-38.765
-84.177
-44.583
88.584
160.44
98.453
-94.01
-139.76
36.846
30.747
3.3374
-32.156
-103.96
-54.254
35.02
22.358
62.12
88.258
17.576
-25.702
-38.915
-82.835
-34.158
42.025
56.702
11.711
-68.054
-42.736
45.231
66.421
0.088653
-72.793
-81.453
-37.03
180.12
110.55
-49.788
-50.927
-72.258
-20.23
61.642
36.52
-50.682
-98.42
-53.363
184.29
134.05
-71.063
-40.672
-95.485
-7.9936
77.411
1.8207
89.589
55.11
8.6695
13.687
-2.3853
-102.52
-113.65
-93.286
-88.824
44.273
146.44
107.33
-50.504
10.015
18.322
-32.558
-3.1552
-63.111
-18.933
-7.3967
-41.963
62.685
90.207
41.478
-1.4317
-38.568
-58.479
-19.194
21.299
12.984
18.018
-39.803
-58.49
22.064
64.08
60.926
-22.352
-60.328
-120.96
-11.489
206.97
72.571
-43.102
-85.577
-94.388
-2.0634
78.336
19.05
-132.13
-155.7
41.559
265.79
131.06
-51.309
-148.14
-110.41
65.152
201.26
177.94
-64.73
-82.902
17.628
-43.249
-48.516
-28.483
0.057846
-19.215
-22.719
73.268
123.07
131.09
84.918
53.601
73.151
78.554
26.724
-38.387
-95.357
-201.3
-217.8
-247.87
-340.23
-198.02
9.5834
25.23
-22.157
91.497
221.96
90.098
-89.902
-239.22
-327.49
-253.7
-105.34
-20.092
68.001
143.31
212.99
438.27
500.35
293.54
64.53
-58.542
123.89
386.12
152.26
-139.56
-180.72
-126.72
73.734
141.42
-22.948
-155.93
-278.57
-187.98
-32.72
5.375
-61.223
-130.85
-30.381
167.35
145.7
-75.969
-97.9
-80.695
15.584
93.273
105.19
-23.071
-55.169
64.896
32.053
-64.403
-163.73
-96.42
-21.191
-6.829
83.927
137.54
67.521
23.85
71.081
-6.4047
-69.983
-128.37
-120.98
45.801
12.735
-45.738
63.729
124.57
47.944
-23.461
-49.904
-122.02
-57.578
64.057
37.29
-0.40943
-48.964
-39.206
77.213
145.66
50.917
-48.973
-122.19
-143.41
94.183
83.457
-26.665
-43.245
-59.233
22.922
90.497
71.121
-32.965
-99.295
-94.557
113.94
132.87
-42.738
-59.728
-72.821
6.2907
93.872
117.42
-16.561
-156.53
-58.09
98.568
99.376
-88.373
-100.82
-56.779
36.56
127.72
123.45
-25.394
-127.77
0.88779
43.502
50.063
-44.081
-140.19
30.623
41.606
-10.038
81.688
76.76
-23.283
10.577
15.603
-73.198
-57.197
-98.891
-27.228
60.678
-37.854
-26.897
99.728
109.14
69.241
-7.3181
-89.241
-155.64
-6.5308
65.551
-2.0028
-38.012
-47.496
41.482
91.224
67.824
-12.026
-59.373
-98.728
98.934
134.61
-24.367
-17.577
-11.625
79.189
185.54
167.5
66.031
18.174
-56.807
-108.92
-215.19
-288.63
-169.57
-128.16
36.231
159.68
129.64
51.252
55.104
100.25
-24.969
-178.22
-285.32
-326.44
-258.01
-90.949
-77.993
-97.029
35.694
88.288
210.14
425.1
605.12
564
351.02
2.7967
-203.82
-95.295
-54.044
-86.291
-96.717
-82.701
-249.66
-355.6
-126.92
-45.123
-97.022
-47.601
24.539
135.01
258.15
130.4
56.612
6.6667
-96.858
-9.1687
34.18
-92.844
-50.004
-40.119
-47.257
63.316
70.831
27.633
48.583
-41.177
-67.418
71.771
-5.712
-72.047
-50.108
-81.285
18.385
114.25
92.869
41.35
-36.147
-124.52
25.377
141.87
-45.056
-74.414
-86.906
-50.722
109.29
181.87
47.67
-142.42
-180.38
44.257
167.3
-42.115
-107.45
-89.85
-10.557
143.99
212.86
67.304
-141.64
-118.63
14.011
97.548
-32.83
-118.03
-71.777
8.4755
126.09
125.38
49.884
-94.397
-7.2754
60.234
-54.058
-119.38
-131.31
-23.043
42.732
61.11
116.03
70.751
-47.56
1.2555
28.449
-56.86
-24.459
-80.296
41.434
83.865
-57.403
-41.418
111.75
130.03
23.401
-48.705
-138.09
-146.27
-48.486
-15.998
41.253
-26.74
-44.074
69.895
182.12
133.12
-4.7023
-112.05
-195.44
22.668
90.751
-27.303
-31.673
-47.328
4.3183
106.29
91.236
-53.484
-119.7
-111.77
95.202
169.42
-23.802
-73.269
-82.84
6.1312
164.26
154.26
-72.344
-146.12
-45.137
58.613
83.693
-49.097
-95.061
-64.515
66.995
159.17
103.67
-29.594
-98.001
29.465
18.944
-41.351
-123.07
-111.6
-16.614
28.24
93.793
122.85
52.945
-47.82
14.759
-24.556
-66.222
-27.105
-50.833
64.866
17.269
-74.628
-22.765
129.34
135.99
47.779
-43.396
-186.17
-120.12
-15.929
-11.099
-2.8763
-57.645
-33.969
76.994
154.6
127.36
40.634
-104.74
-106.86
115.49
29.296
-58.394
-77.56
-86.998
33.35
172.56
89.767
-90.269
-172.87
-95.816
143.73
109.37
-52.521
-95.463
-36.424
132.68
184.95
90.273
-130.61
-170.2
-48.69
37.911
51.476
-82.894
-86.886
4.5604
5.106
63.783
141.95
17.096
30.449
78.489
-48.614
-19.899
-113.03
-63.847
-15.135
-72.583
18.054
72.494
121.74
128.39
29.807
-127.58
-54.489
37.914
78.598
34.05
-114.26
-172.77
-14.024
149.8
110.72
-22.532
-148.74
-201.31
51.894
101.04
-5.7693
-24.663
-39.635
33.372
93.252
72.734
-58.926
-111.13
-134.39
49.919
196.01
40.959
-77.038
-101.49
-6.4127
114.2
188.67
45.829
-158.89
-75.615
28.752
123.43
14.075
-104.52
-58.937
-31.026
22.653
101.44
35.972
-32.643
22.295
-72.658
-57.069
8.1168
-71.055
13.114
-52.088
-68.997
23.088
109.26
241.28
136.75
-47.582
-48.538
-57.893
40.256
181.28
-18.616
-277.47
-249.77
2.1228
279.85
427.37
288.51
144.63
18.403
-103.23
-232.78
-394.17
-570.7
-565.55
-389.38
-195.08
-48.693
110.02
224.86
346.21
454.57
388.41
146.47
-90.764
1.6246
-9.4636
-200.8
-206.04
-164.82
-133.64
17.974
117.98
233.53
215.97
13.921
-87.414
-151.18
-66.29
110.05
231.63
251.63
166.1
-17.916
15.31
80.265
-38.1
-51.046
-189.21
-311.78
-186.39
112.03
289.13
194.82
61.268
-72.187
53.968
225.06
174.76
-17.545
-242.44
-260.46
-63.851
26.643
-61.958
-191.72
-174.71
15.997
224.61
131.7
-82.041
-127.53
-17.079
103.45
176.13
56.857
-136.58
-22.912
38.583
-17.406
5.7337
-93.053
-93.24
21.033
43.765
-25.266
18.327
113.67
152.94
76.146
-84.458
-183.78
-65.863
90.592
132.99
29.803
-119.37
-232.42
-58.921
120.67
80.778
20.65
-149.76
-272.08
-46.658
70.134
2.2165
0.25786
59.247
166.27
184.44
40.272
-86.701
-98.362
79.047
245.83
129.05
-180.1
-355.34
-235.25
-7.2438
206.22
86.112
-50.247
68.813
94.162
199.76
125.6
-94.268
-203.24
-188.97
-108.49
80.037
137.24
92.705
106.34
-25.251
39.129
29.6
-81.887
16.056
-74.856
-124.77
-69.868
29.443
129.04
113.57
-33.855
-133.6
56.629
106.39
-10.056
-130.96
-185.22
-107.11
103.77
257.65
157.74
3.2071
-154.77
4.6281
202.96
90.201
-67.262
-242.64
-282.51
-121.41
96.617
77.656
-86.258
-90.827
138.97
294.86
94.681
-65.226
-135.58
-46.216
109.56
163.81
54.415
-124.15
-65.671
1.7027
47.291
-19.969
-95.957
-51.144
-45.433
26.462
131.1
112.84
13.446
12.453
-85.209
-110.94
-40.557
-50.797
44.296
-7.8964
-62.862
46.857
116.79
94.921
-19.939
-123.87
-195.65
2.4889
171.2
61.136
-30.345
-112.28
-139.57
-1.6029
176.09
162.71
1.6866
-159.3
-100.89
154.91
95.644
-60.23
-154.95
-129.76
12.077
188.55
180.94
-84.899
-96.989
55.54
196.68
76.802
-72.921
-111.65
-63.276
68.751
101.6
22.465
-129.22
-42.393
-4.1871
-47.914
-5.9784
-53.356
28.218
7.7002
-37.249
39.474
91.856
81.351
32.715
-31.208
-169.15
-55.723
16.448
-54.188
-37.734
-69.738
-41.735
98.161
217.69
137.06
-9.4737
-150.23
-118.14
163.3
166.93
13.479
-164.97
-249.32
-149.02
100.03
153.18
-29.388
-13.456
2.0511
94.787
47.734
-74.982
-121.46
-34.22
119.15
190.29
125.02
-110.84
-90.622
5.2765
16.515
73.648
-94.93
-80.82
-5.0622
-90.485
-10.055
126.53
99.353
77.574
19.311
-93.214
7.4389
-13.015
-41.403
-18.438
-84.205
-75.985
-3.3341
109.06
109.11
-10.188
-158.14
-83.553
185.02
211.95
47.896
-110.52
-226.82
-152.01
54.786
150.58
2.8518
-129.98
-145.54
83.966
209.12
64.078
-135.82
-193.5
-20.048
162.06
204.7
8.9048
-52.701
59.689
128.75
121.8
-46.277
-198.71
-173.47
-80.085
-12.903
64.722
18.817
24.197
61.3
-25.13
64.224
11.851
-2.5281
98.309
-51.718
-116.72
-60.139
33.077
134.71
105.64
-99.987
-128.1
95.787
100.27
-3.3701
-133.96
-201.99
-104.81
122.32
195.47
4.5863
-131.6
-157.23
89.868
213.1
45.49
-102.88
-196.56
-70.226
144.11
187.21
8.6921
-135.08
-71.266
120.55
170.29
-35.812
-108.73
-50.866
13.58
107.49
112.37
-45.954
-32.746
24.835
-72.23
-22.761
-100.2
-76.77
10.012
-66.236
-24.512
93.47
172.13
132.58
46.57
-113.88
-108.28
45.667
9.1272
-36.169
-85.967
-130.77
-24.575
190.14
170.54
-10.658
-118.01
-216.46
-33.744
201.41
86.537
-84.843
-148.64
-77.572
100.11
192.64
20.899
-110.85
-63.299
119.7
165.45
11.28
-129.28
-173.84
-34.145
56.22
123.19
21.351
-51.811
35.953
25.008
79.991
-20.679
-42.406
38.298
-80.309
-84.83
41.585
80.13
66.418
50.311
-73.184
-108.36
17.797
85.837
68.924
-74.437
-215.29
-193.02
-9.565
142.78
99.091
-18.871
-132.59
44.414
225.01
112.23
-50.833
-211.54
-191.13
18.488
172.68
37.047
-111.22
-66.388
195.6
247.36
17.687
-137.73
-121.78
73.876
142.6
110.15
-75.14
-145.43
2.9134
20.963
72.563
-21.141
-148.37
-39.331
-18.107
-66.759
28.925
81.08
125.84
94.502
-66.686
-61.435
-26.866
-29.999
17.103
-113.84
-136.26
-2.4883
161.27
195.87
7.5741
-123.1
-195.01
7.7668
173.27
26.919
-83.961
-124.03
-62.273
104.39
225.62
40.903
-157.65
-157.26
77.243
211.15
24.669
-105.61
-132.59
11.38
140.62
130.97
1.8316
-61.517
58.591
-2.5432
-10.314
-60.09
-112.89
-40.117
-71.368
-43.8
57.921
93.677
70.469
25.603
-47.625
-34.58
79.097
90.383
78.664
-11.619
-155.56
-155.83
63.92
175.51
3.494
-112.62
-215.74
-81.262
167.61
128.6
-1.2154
-161.8
-162.87
1.6168
169.05
79.591
-126.14
-109.25
79.725
220.21
63.475
-79.915
-135.09
-67.508
60.866
143.04
74.534
-72.267
2.9437
28.981
26.518
58.255
-61.777
39.259
22.642
-103.51
-47.942
75.361
84.97
17.048
-68.625
-163.19
-50.643
23.704
-0.67172
0.52462
-93.909
-124.73
1.6086
150.63
170.06
19.902
-101.97
-122.77
139.73
196.27
-16.969
-143.55
-195.16
-112.88
62.053
203.83
24.831
-89.104
21.888
201.45
215.37
-7.6674
-123.62
-166.99
-102.33
48.651
158.49
26.377
-21.814
8.6132
-61.414
24.544
-26.18
-22.002
11.714
-103.17
-77.609
38.405
124.91
144.88
38.978
-122.66
-147.25
63.785
95.39
17.644
-85.94
-225.67
-177.08
18.595
175.38
116.91
-37.216
-122.75
22.405
234.27
94.265
-69.971
-110.76
-92.66
51.575
240.38
56.991
-197.46
-100.83
16.857
151.45
44.764
-88.448
-40.971
-52.557
-22.995
109.92
132.93
6.6271
39.711
-49.208
-42.235
36.462
-69.875
-46.552
-80.207
-199.11
-115.31
103.6
219.48
109
-43.152
-180.51
-23.989
186.01
63.034
-39.747
-126.09
-172.93
12.619
209.15
91.582
-115.47
-170.14
34.552
245.35
116.11
-44.387
-197.48
-150.93
58.641
145.79
98.12
-75.672
-44.379
7.9571
42.092
68.189
-100.52
-68.803
-38.276
-72.425
22.77
115.95
144.41
144.73
41.445
-124.07
-41.604
-51.262
-58.633
-65.008
-153.78
-94.898
72.657
225.34
202.39
12.373
-139.23
-157.73
104.95
183.13
4.0564
-94.93
-106.14
-4.0263
67.278
48.876
-121.51
-189.82
-70.654
175.99
148.31
-40.979
-102.28
-50.019
55.278
149.92
149.65
-79.001
-77.66
24.369
9.4128
8.9495
-97.424
-62.309
-22.45
-53.396
18.27
100.79
136.58
98.082
3.0644
-132.07
-88.099
49.904
43.563
-0.79685
-53.576
-112.05
-31.528
125.54
122.25
-25.431
-146.53
-199.85
26.298
211.85
74.361
-37.685
-113.3
-42.459
78.578
118.57
-50.603
-175.11
-66.742
116.32
145.12
-41.513
-84.598
-60.62
-4.1784
90.146
153.83
32.427
-38.937
73.158
-23.113
-40.283
-68.584
-81.52
20.057
-51.11
-49.691
61.86
143.88
64.888
-0.48764
-108.88
-158.94
65.143
88.044
-3.3336
-34.516
-79.55
-29.204
80.537
116.61
0.60603
-131.97
-189.27
-53.731
190.1
126.45
-48.659
-170.14
-96.332
87.659
213.11
109.77
-112.53
-47.982
74.325
110.04
31.62
-100.56
-90.294
-30.225
8.9121
87.489
96.5
-21.765
-3.9981
5.7494
-103.18
-31.061
-30.112
34.995
24.559
-130.87
-156.05
14.979
199.56
179.1
49.462
-120.75
-98.024
150.96
138.51
6.77
-155.76
-274.38
-204.97
5.6749
135.59
53.441
-64.382
-4.5814
245.06
201.53
-31.788
-167.14
-140.96
63.324
169.75
137.29
-71.374
-138.85
-7.0808
128.83
103.44
-96.378
-144.84
-30.95
-38.763
11.81
74.477
35.653
93.533
123.6
-21.098
3.8619
-32.408
-49.549
15.441
-98.799
-170.74
-80.896
98.291
156.39
18.834
-130.27
-223.01
8.8621
159.66
51.511
-68.771
-156.65
-108.01
71.586
214.49
86.85
-98.114
-132.96
82.84
209.06
30.086
-97.139
-147.5
-7.4341
142.91
154.5
-20.354
-90.726
22.766
81.951
51.572
-98.01
-134.18
-22.438
26.702
48.997
92.922
-20.945
-16.454
9.0634
-85.415
10.691
-16.733
-3.226
27.968
-68.169
-8.3683
82.665
125.96
65.777
-37.281
-165.13
-160.21
61.156
100.88
1.3918
-89.322
-169.27
-119.14
76.347
195.08
71.049
-86.88
-88.572
143.58
228.75
39.201
-91.833
-183.99
-140
41.711
197.13
41.907
-123.23
-22.255
86.091
161.69
-4.8649
-61.018
39.316
-32.59
-22.127
54.761
-13.933
-54.147
33.322
-19.341
-120.61
-28.645
58.226
72.641
-5.5466
-160.87
-144.96
41.374
116.3
86.719
-12.606
-187.46
-59.232
215.71
65.083
-55.682
-135.41
-149.21
11.6
165.91
157.65
-34.467
-108.61
60.124
237.3
95.48
-60.194
-129.55
-84.378
61.36
82.003
-36.627
-149.31
0.56454
-4.5556
7.7524
60.645
-59.094
30.632
11.117
-75.109
-30.514
43.589
155.21
138.18
-3.6701
-142.62
-77.169
-9.8719
2.2524
0.038777
-123.34
-181.74
-39.023
158.54
181.64
2.7585
-119.19
-126.96
126.86
222.35
51.676
-120.6
-226.95
-76.055
126.07
180.59
31.964
-87.971
67.238
95.928
-5.3889
29.604
-40.995
-17.808
-66.371
-54.778
27.271
73.523
35.327
-52.561
-68.758
-155.77
-9.8177
166.08
70.901
-20.86
-87.851
-106.98
18.513
106.86
51.894
-76.079
-175.5
-109.84
161.33
149.65
-15.554
-128.33
-101.75
64.663
168.64
176.48
-34.225
-40.656
43.116
6.0897
18.954
-98.221
-97.97
-47.017
-113.1
-48.125
56.715
148
169.64
70.242
-102.96
-141.37
72.946
201.52
47.753
-77.968
-142.37
-109.86
251.18
296.63
64.135
0.10682
-57.08
-180.13
-218.35
-168.15
-193.9
-210.77
-110.03
76.43
39.671
-94.063
-99.174
58.05
298.69
332.01
203.25
-47.362
-280.83
-270.64
-185.6
-90.737
23.536
185.12
314.27
243.12
0.70104
71.925
208.11
90.763
-59.126
-259.69
-301.29
-132.06
94.793
166.5
12.681
-159.53
-154.29
103.47
238.23
128.55
-98.549
-214.03
-74.551
149.82
208.94
2.8903
-155.5
-40.226
224.71
213.88
35.534
-144.9
-205.7
-89.471
67.144
94.211
-25.864
33.635
37.796
68.009
112.49
-59.897
-62.499
-101.37
-93.925
28.225
97.224
76.544
41.769
-50.997
-167.31
-8.0651
27.992
5.1273
-39.594
-188.98
-179.34
-3.5168
192.28
148.86
-30.68
-163.49
-124.72
131.9
115.65
-30.782
-84.105
-72.5
36.845
216.62
266.11
-35.86
-143.28
42.47
182.44
66.032
-114.48
-222.29
-207.58
-78.995
58.617
117.6
-1.5094
10.448
-39.697
-38.908
67.79
13.631
72.734
30.857
-95.521
-20.958
140.7
118.8
-22.075
-126.48
-250.73
-98.531
105.04
14.684
-33.829
-75.606
-66.88
77.231
249.24
164.08
-68.1
-192.4
-47.5
225.97
142.18
-37.683
-107
-153.21
-23.894
157.23
99.479
-108.53
-125.99
-40.597
112.91
93.396
-53.058
-69.818
14.067
100.56
81.939
5.473
-93.157
1.4798
-37.29
-16.298
38.682
-42.78
26.422
4.1375
-100.86
-16.073
122.76
71.014
-32.213
-154.12
-125.06
104.34
50.347
-5.9712
-9.0416
-59.963
5.7934
110.07
86.345
-30.664
-151.59
-184.73
101.63
245.01
87.602
-73.668
-204.08
-78.999
137.22
180.45
-32.817
-173.82
-131.95
75.698
188.86
58.301
-90.25
-100.36
15.13
99.614
102.99
-22.93
-21.818
32.666
-47.267
65.792
-16.828
-59.386
17.078
-66.383
-58.442
27.438
100.89
43.013
-33.452
-176.27
-114.75
151.92
114.88
7.6096
-56.299
-87.958
-2.2185
148.97
84.318
-92.842
-190.73
-177.56
119.66
183.73
24.819
-63.053
-78.653
31.407
118.11
54.876
-156.3
-150.25
19.128
199.91
99.112
-50.594
-82.251
-78.659
53.065
121.58
49.346
-68.438
12.358
-18.333
-49.182
52.132
-19.003
75.227
94.658
-82.826
-137.16
23.884
117.95
61.032
-57.958
-220.24
-61.224
162.77
111.39
24.274
-125.33
-204.58
-65.405
125.82
88.784
-50.102
-131.48
-7.0151
264.4
173.39
-2.622
-68.387
-104.24
17.064
86.932
-19.498
-59.814
125.47
136.39
55.147
-106.21
-287.34
-183.03
-75.975
-31.891
-72.371
-126.94
32.206
234.98
188.59
145.84
223.23
22.786
-6.8474
-116.85
-303.56
-234.57
-38.728
156.91
149.67
-41.034
-141.72
37.421
304.35
181.45
-43.761
-85.941
-145.87
-99.299
34.766
6.152
-136.74
-98.089
93.919
269.87
127.86
-65.159
-116.39
-119.98
-26.719
57.186
82.633
3.8423
40.392
24.416
32.036
80.714
-19.635
2.6725
-67.285
-100.54
-8.3717
66.179
46.711
-8.2489
-80.312
-136.73
35.711
68.81
-16.37
-21.378
-73.769
-29.771
50.768
53.574
17.051
-46.58
-112.26
55.335
253.61
71.712
-53.053
-104.36
-81.125
17.206
72.554
-41.989
-146.34
-39.09
97.247
204.25
39.364
-62.359
-65.287
-55.731
28.332
96.735
-7.6731
-57.886
5.2742
-46.858
30.038
-7.3945
-23.2
56.842
-22.763
-86
28.574
98.864
55.547
-42.54
-159.15
-116.97
126.86
78.086
-18.721
-16.084
-66.96
-32.034
124.22
108.29
-66.069
-170
-137.2
118.73
206.49
9.688
-37.647
-75.007
10.614
133.94
84.325
-84.741
-87.588
20.837
-19.084
10.862
-44.325
-32.503
-13.672
-36.178
41.281
116.32
83.761
26.006
-0.24617
-109.02
-83.612
50.718
75.387
44.37
-84.104
-192.53
-90.555
116.58
92.488
-25.499
-116.6
-156.75
148.3
213.07
16.54
-81.813
-143.26
-17.405
73.908
69.291
-57.504
-152.63
-5.5395
231.87
184.15
-2.6658
-133.21
-62.094
44.221
114.38
53.087
-95.887
-15.397
22.453
-30.928
5.8427
-56.722
0.92016
31.372
-81.858
-33.315
82.467
76.26
0.29284
-90.064
-120.83
26.22
97.831
49.568
-16.229
-98.931
-60.508
53.586
90.983
15.707
-85.883
-154.12
-8.4521
239.79
169.1
12.499
-177.66
-132.67
47.014
137.95
26.47
-183.53
-63.345
86.223
107.6
51.687
-55.832
-57.437
10.352
-43.697
18.255
60.524
49.639
38.59
-57.533
-80.597
4.3833
7.2858
70.756
29.995
-100.83
-126.29
42.951
128.19
45.331
-83.325
-171.53
0.1111
178.97
52.791
-25.892
-131.78
-104.82
53.301
109.97
3.9634
-114.68
-53.606
167.63
180.12
2.4348
-80.35
-116.79
5.9447
112.69
83.902
-97.894
-132.82
-31.559
22.956
61.878
-39.382
27.548
86.412
-26.191
-53.87
65.568
96.064
62.223
-9.474
-116.74
-35.948
-11.867
0.178
24.159
-128.48
-216.22
-32.426
113.74
93.111
2.3771
-100.04
47.701
273.76
153.33
7.6947
-161.63
-263.17
-145.16
43.274
90.133
-81.607
-138.79
67.381
264.01
156.28
-29.68
-91.568
-63.39
-7.1248
158.38
86.483
-74.825
34.389
40.073
86.154
39.911
-92.877
-11.542
-81.954
-129.09
15.48
117.17
101.68
0.35373
-128.94
-133.02
65.229
77.55
15.076
-49.435
-160.37
-112.2
71.676
103.45
26.926
-56.924
-135.9
99.35
240.55
69.006
-76.489
-151.5
-9.1581
124.41
108.96
-82.684
-123.46
-6.9547
103.96
88.975
-57.749
-97.136
-103.55
-121.35
-6.5
112.2
87.445
105.91
61.437
-0.64423
95.024
-7.4921
-11.752
-24.869
-160.95
-151.72
15.133
113.98
36.32
-55.605
-153.09
-6.9361
192.1
128.19
2.0494
-168.51
-306.14
-128
97.663
106.65
-10.616
-84.375
96.49
281.14
153.05
-28.395
-158.8
-118.36
60.854
136.84
-23.477
-103.14
70.54
91.156
107.1
22.162
-123.1
-58.261
-82.54
-170.71
-22.905
97.72
76.565
56.249
-63.41
-87.16
141.06
133
62.933
-61.286
-225.55
-201.52
-23.999
116.46
101.16
-1.9266
-123.31
70.905
253
157.44
-2.2937
-168.53
-118.42
37.92
100.34
-83.951
-134.87
10.429
101.9
77.877
-66.692
-3.8352
-8.654
-86.724
28.225
103.28
53.434
52.154
7.1303
-54.459
17.818
-0.35458
68.35
63.133
-127.8
-223.58
-95.967
99.85
113.09
1.636
-127.44
-157.27
112.78
179.97
40.334
-146.79
-230.37
-90.757
114.97
169.28
-5.8799
-39.045
121.86
221.87
105.09
-35.649
-149.2
-138.96
-102.47
26.476
64.834
-22.018
29.659
9.4474
-37.935
92.696
65.358
46.584
30.105
-136.46
-192.9
6.7195
93.892
88.251
-0.38644
-135.66
26.531
217.11
88.618
-39.413
-223.17
-265.41
-48.825
73.833
68.039
-35.424
-42.904
218.79
237.85
-11.121
-65.618
-111.49
-36.086
75.758
88.429
-39.235
-81.652
43.509
29.283
65.166
21.232
-91.095
0.99047
-38.623
-157.12
-22.481
88.526
92.188
51.03
-59.045
-82.769
119.88
145.63
14.273
-87.703
-236.58
-160.39
47.508
108.73
4.6359
-63.582
60.332
187.28
46.018
-55.571
-87.617
-138.19
62.1
179.94
108.51
-57.036
-130.39
-29.811
83.868
156.36
4.8418
-112.41
-89.814
-128.2
-96.282
46.727
90.769
102.35
81.129
-7.5653
34.93
40.434
19.981
5.5508
-169.26
-250.18
-91.362
112.8
105.6
13.368
-106.43
-127.76
160.98
239.41
93.375
-79.638
-206.94
-100.87
66.306
63.664
-60.173
-75.007
41.703
222.36
182.99
14.203
-82.783
-171.7
-131.54
53.702
81.72
-6.9046
8.7772
-9.2412
14.764
26.358
-37.311
46.712
-11.847
-119.7
-12.538
118.99
55.027
-30.14
-81.296
-153.38
61.681
165.55
93.633
30.663
-153.59
-208
-22.514
66.988
31.516
-66.762
-71.502
143.79
267.16
115.13
-53.206
-159.81
-124.98
19.389
121.99
-31.463
-82.155
15.733
33.041
89.124
-8.3463
-29.797
36.581
-70.907
-98.357
63.283
79.524
-20.261
-22.408
-100.22
-37.062
114.8
27.905
11.993
-48.444
-104.99
10.847
115.82
42.061
-36.429
-131.08
-78.352
197.47
132.53
-37.953
-69.838
-119.82
-27.431
103
48.427
-110.29
-46.104
94.74
171.43
48.819
-83.921
-44.072
-62.922
-91.663
59.958
49.909
-44.781
-0.66736
-49.137
-7.8013
138.78
21.623
45.886
17.23
-147.94
-150.41
44.537
81.24
-4.8338
-67.989
-99.246
131.39
226.86
20.156
-48.938
-135.97
-130.1
45.137
92.047
-53.195
-48.769
-6.549
94.703
96.26
-48.46
-43.794
-56.365
-60.304
41.136
100.73
2.8859
-47.827
23.829
-26.272
91.12
127.38
-16.64
-5.0675
-84.558
-188.1
-63.901
70.19
47.843
-17.277
-91.235
44.748
271.95
86.783
-45.202
-109.01
-203.81
-80.306
70.752
55.146
-22.963
-99.17
-6.028
247.27
156.6
-49.582
-80.409
-75.396
-30.33
78.259
74.028
-70.077
-9.5662
15.981
-9.0265
74.457
30.417
5.1402
-33.255
-170.21
-177.21
33.492
111.32
40.548
-13.999
-20.275
128.21
116.84
8.9505
-24.114
-149.19
-202.97
-1.4188
113.06
32.327
-61.021
-100.18
95.351
221.74
70.724
-65.65
-90.555
-19.724
-78.52
11.082
90.738
181.66
259.99
155.53
75.103
36.203
-105.03
-213.38
-180.05
-262.78
-392.51
-401.89
-104.58
127.02
81.223
139.32
259.14
220.85
165.31
-8.2102
-194.77
-80.652
48.752
-5.7468
12.762
35.314
-1.2978
208.15
230.74
-3.0285
-108.02
-213.44
-113.29
44.594
40.591
-29.854
-28.168
57.129
158.35
31.611
-87.093
-45.254
-79.203
-31.084
100.18
80.34
14.34
-2.4106
-70.602
-19.282
83.746
-32.541
4.8198
5.1951
-155.24
-105.78
67.617
59.26
26.259
-35.245
-58.048
159.38
151.63
-43.52
-46.462
-101.46
-111.46
32.237
82.121
-29.653
-73.285
1.7806
126.03
147.48
-28.525
-70.655
-28.798
-52.532
11.187
109.43
-32.428
-39.75
34.798
-15.095
69.266
51.008
-10.065
10.589
-84.769
-233.83
-83.667
111.52
69.012
-29.519
-70.051
26.954
198.74
84.456
-22.261
-95.813
-192.47
-75.718
120.53
107.86
-36.638
-125.61
-28.241
151.6
114.93
-34.097
-39.285
-4.4241
-38.294
22.543
101.61
-18
-21.306
-26.658
-77.85
36.517
17.437
-43.274
-12.845
-68.787
-48.515
93.559
82.364
22.41
-30.17
-72.181
29.693
234.83
61.398
-55.43
-79.938
-185.52
-104.45
67.856
68.213
-8.0536
-27.059
52.014
145.96
33.729
-71.899
-30.933
-51.629
-127.46
-3.4469
85.817
-5.9135
30.396
10.097
2.4693
98.653
17.305
45.592
55.68
-112.23
-237.16
-70.81
56.91
75.942
19.643
-53.621
123.3
174.77
39.718
-14.495
-172.61
-208.47
12.431
91.689
1.473
-69.635
17.579
189.26
89.151
-46.975
-75.97
-111.37
-46.82
86.686
113.24
-22.075
-62.741
19.144
12.395
41.195
-32.842
-33.342
55.898
-42.923
-165.44
-42.929
134.59
158.88
103.47
26.528
-2.4737
24.75
-6.5491
-73
-176.92
-249.17
-142.38
44.062
121.93
38.653
-45.062
87.769
231.44
58.669
-46.874
-92.177
-98.481
22.93
128.34
79.582
-34.394
-36.48
34.448
10.372
21.182
-34.554
-30.449
-3.0627
-141.02
-112.7
91.097
104.11
27.561
-6.9836
-63.525
-1.2039
65.316
8.4805
-3.6806
-67.876
-177.46
-21.714
87.005
68.88
22.075
-32.543
95.5
167.08
3.5872
-77.863
-128.6
-87.958
20.388
101.52
52.172
-61.103
-0.29276
42.31
3.832
26.142
-17.505
32.738
-2.3772
-134.62
-75.99
79.38
100.1
96.073
41.969
-96.657
-56.376
86.819
37.598
-38.427
-188.64
-268.86
-78.783
87.208
96.463
27.576
43.357
197.96
168.56
-6.069
-120.27
-188.86
-119.92
0.72975
127.23
66.755
-60.385
40.16
101.13
96.879
34.212
-52.197
46.827
2.8871
-158.63
-73.332
66.909
86.803
55.594
-6.5366
-41.733
65.509
55.034
-11.216
-73.444
-247.43
-178.62
64.972
92.474
24.489
-70.039
-1.1173
197.91
72.613
-38.387
-92.578
-81.623
84.531
151.1
21.777
-99.115
-24.524
47.352
93.03
63.674
-73.442
-96.656
-40.953
-129.16
-59.169
109.27
109.28
51.969
-6.3522
-25.29
42.83
45.848
9.6914
-37.544
-179.3
-208.33
24.573
134.86
34.158
-38.302
-73.254
96.262
137.69
2.2609
-50.303
-131.5
-9.2942
132.84
121.86
-28.169
-95.705
-10.276
61.407
97.68
35.587
-83.254
-83.043
-75.525
-137.6
2.1558
101.54
44.622
31.545
24.339
25.218
-5.6171
-21.862
17.237
-91.173
-170.05
-38.441
133.69
153.42
64.829
-30.179
-26.509
122.85
-1.4853
-52.662
-84.879
-104.11
5.228
68.176
74.048
-11.093
-59.309
20.647
142.59
112.77
-37.227
-120.21
-113.67
-99.738
15.087
90.925
2.659
55.829
44.572
-13.368
13.832
-40.704
15.206
4.0446
-140.36
-66.904
106.94
77.808
29.425
-18.49
-65.837
98.121
75.913
-8.8927
-61.817
-201.22
-133.51
79.938
97.902
0.48106
-25.405
19.52
155.26
119.93
-29.192
-111.95
-97.926
-80.591
-5.5428
106.95
5.0652
6.9276
91.048
67.109
77.55
-0.44934
-77.327
-41.433
-152.97
-208.55
20.216
114.83
22.222
-1.6877
-48.354
48.985
164.67
79.244
43.716
-92.483
-232.67
-66.121
98.876
14.998
-44.187
-47.642
32.784
186.19
127.16
5.1613
-64.681
-61.429
-110.54
-8.4877
70.03
37.39
22.203
-12.33
-23.824
8.7176
2.5338
66.838
21.23
-156.44
-164.8
19.876
80.996
44.953
10.979
-80.266
7.9696
192.99
106.47
10.669
-143.89
-173.92
1.7208
105.65
11.445
-64.798
56.072
133.28
123.44
5.1197
-92.37
-114.54
-175.08
-79.12
95.186
22.855
41.848
94.278
-0.9985
34.887
-22.718
-4.6141
84.608
-65.848
-202.01
-37.747
109.34
91.934
69.86
-53.051
-36.671
106.25
48.603
-10.087
-126.66
-222.83
-70.717
115.01
94.956
-24.201
-36.533
82.681
197.65
82.232
-53.132
-134.17
-147.2
-106.02
58.448
99.001
-4.8564
44.926
21.789
17.687
49.622
-43.569
26.812
7.6599
-140.38
-155.74
25.584
144.11
129.78
68.767
-43.341
6.6347
82.269
27.979
-73.179
-216.75
-202.23
8.9515
140.74
57.553
-68.087
24.759
167.97
130.44
34.462
-88.112
-149.8
-74.452
-107.33
35.629
74.667
19.136
58.697
6.9655
10.597
8.3271
1.8368
60.979
-36.407
-152.19
-120.18
57.911
134.18
85.916
-19.85
-105.51
34.253
113.58
14.223
-121.74
-222.09
-144.03
25.643
168.3
86.957
-0.013633
84.766
133.73
139.08
79.461
-88.868
-130.87
-86.101
-158.69
-47.663
53.734
76.16
113.15
61.943
18.92
9.0501
47.692
56.094
-70.81
-212.11
-128.21
42.499
56.49
101.16
10.757
-93.327
77.838
147.52
6.414
-138.81
-174.93
-52.397
89.387
123.09
-19.694
-59.055
77.901
93.266
41.257
-41.453
-118.93
-111.36
-107.65
-47.8
72.371
70.92
76.984
87.57
11.592
21.32
49.887
55.386
39.338
-105.91
-196.21
-63.264
98.326
92.461
33.903
-81.594
-109.51
99.632
161.95
37.73
-122.77
-131.11
-74.297
61.635
132.98
-21.258
-33.306
71.766
45.289
61.235
44.711
-87.383
-78.566
-86.397
-140.02
-24.683
61.428
108.03
50.06
-55.509
-38.791
99.013
103.31
7.2959
-85.806
-212.61
-193.87
43.414
113.29
42.323
-18.382
22.984
167.62
174.49
32.896
-126.03
-143.04
-103.79
21.699
82.428
-36.056
-6.408
45.059
64.72
62.922
-52.668
-29.946
5.8227
-107.51
-149.3
19.369
117.67
96.943
72.462
-4.1081
-6.4372
107.49
88.225
-32.41
-160.4
-207.61
-66.65
66.753
52.565
-15.476
-65.307
2.2667
214.4
152.69
-39.092
-70.904
-97.805
-51.446
51.866
71.622
3.7092
34.377
7.8085
-3.5317
35.759
-40.507
-2.584
-31.601
-148.91
-91.919
78.702
72.192
22.48
-2.4055
-53.819
38.915
150.22
71.385
-62.637
-150.46
-151.81
9.9356
109.53
43.156
-49.376
-62.149
61.492
174.18
76.548
-88.546
-144.92
-41.289
-15.708
98.704
64.854
-16.908
63.913
63.694
13.318
49.693
-2.4273
-85.503
-101.04
-215.29
-209.87
59.997
123.51
61.041
13.526
-28.157
114.91
101.18
-24.452
-13.434
-117.05
-101.26
99.739
117.83
8.2119
-48.005
-72.047
44.671
137.04
26.513
-82.745
-111.52
-12.435
-22.537
61.632
61.739
-14.391
26.49
3.0887
-9.8313
3.6144
-46.513
-15.396
-25.512
-68.505
35.344
107.56
38.087
12.878
-1.2727
-68.757
44.039
64.124
9.1545
-38.377
-158.2
-128.08
80.46
93.749
0.68711
-33.486
-54.484
85.39
150.13
38.864
-58.337
-124.2
-83.379
-9.8155
93.174
22.625
3.8413
76.64
17.955
-32.45
-36.182
-25.716
-7.1987
-53.26
-54.243
39.366
71.968
42.311
29.491
-30.646
-96.196
68.721
82.924
-4.3421
-80.16
-149.49
-30.089
110.15
64.023
3.8277
-38.01
-36.338
122.67
117.92
-15.271
-129.28
-102.94
-32.472
8.0053
94.812
-7.3157
-11.231
81.424
36.619
-1.6038
-35.575
-20.844
-6.1918
-89.41
-60.286
80.291
61.89
-1.5655
18.146
-61.95
-54.791
72.196
34.774
-22.838
-61.791
-80.268
37.828
101.28
28.764
-7.6584
-61.046
-11.12
122.52
26.12
-45.236
-91.892
-78.151
20.46
96.501
7.7102
-60.175
29.42
41.639
30.971
-30.135
-30.65
6.0577
-33.296
-42.676
79.786
73.171
2.8194
28.975
-21.161
-52.608
7.3532
-7.803
-38.197
-35.39
-60.429
-55.072
71.29
67.83
37.715
-4.01
-77.265
74.383
117.5
-16.494
-59.801
-137.72
-90.559
48.548
84.499
12.079
-35.714
-8.972
64.67
89.538
-48.66
-59.568
23.354
-9.049
-4.0907
94.484
19.262
6.7285
22.817
-62.86
-35.588
15.197
-13.077
-33.685
-63.611
-109.89
32.046
62.772
40.687
41.178
-53.544
11.989
101.85
-16.476
-22.858
-44.706
-79.821
36.866
47.005
17.167
11.592
-7.3995
74.738
12.335
-71.834
-23.06
-23.333
-45.571
43.92
52.22
8.0817
14.812
22.769
-33.129
-16.419
-25.103
-21.626
-16.181
-23.806
22.263
49.393
29.926
14.741
-1.6089
-36.24
-20.7
12.316
3.9353
0.086428
-24.09
-55.943
32.774
40.024
15.655
20.851
-59.845
6.6176
49.938
-22.331
-20.183
-33.971
-31.719
57.801
54.178
11.664
-2.0758
-21.576
-4.4084
13.179
-30.685
-23.385
-28.102
-22.76
32.877
47.358
10.04
17.66
-12.69
-30.337
38.379
-14.054
-30.212
-5.6265
-34.971
-7.9762
59.908
11.525
10.019
34.152
-51.538
11.515
32.729
-36.518
-18.132
-34.324
-43.036
51.276
23.809
11.683
25.559
-40.024
50.892
34.166
-49.719
-22.094
-36.795
-43.982
43.726
35.482
2.0548
23.062
13.626
-4.5204
9.5036
-25.563
-18.556
-9.8607
-35.508
13.856
57.623
42.26
58.245
25.807
-25.511
-21.857
-26.78
-51.549
2.7918
-15.461
-68.074
7.5143
54.507
16.843
-55.579
-48.621
75.491
104.29
4.3349
-80.387
-175.31
-307.21
-310.2
-74.061
74.911
59.572
77.888
195.66
384.7
368.85
193.23
3.0243
-93.289
49.525
-0.14255
-111.29
-111.49
-51.318
20.658
57.481
-64.611
-82.555
-51.119
-85.758
-121.19
16.856
47.893
2.4574
42.583
-39.113
-73.772
114.17
131.41
76.098
-42.746
-170.88
-59.316
84.722
22.438
-33.523
-17.939
-9.6147
107.22
28.254
-63.981
-55.244
-59.579
12.84
93.307
56.863
-15.713
27.95
1.8039
-61.688
-17.332
-7.1928
29.175
-18.187
-101.52
-38.957
94.947
65.632
49.506
11.721
-78.184
-19.219
85.326
33.761
-33.813
-146.42
-147.85
46.282
87.496
48.372
-7.1609
-18.701
83.019
57.161
-48.796
-68.506
-89.663
-29.484
56.619
82.398
-24.856
-33.204
70.063
59.525
55.812
3.677
-49.949
-34.924
-8.3567
-90.162
-26.254
64.462
20.763
41.334
-26.599
-64.047
54.605
29.94
-30.211
-17.205
-65.62
-27.945
71.981
32.944
16.716
11.18
20.691
35.902
-15.591
-53.762
-18.56
-27.394
-59.897
38.171
60.96
9.7731
37.86
13.522
-40.126
-2.2159
-18.477
-11.708
-20.43
-64.547
-7.3517
78.898
14.658
24.515
12.381
-45.112
32.698
22.524
-17.489
-33.104
-58.967
-44.757
76.869
40.226
4.9045
29.698
-31.714
20.581
22.084
-47.59
-44.423
-41.776
19.764
63.812
54.487
-10.133
14.612
4.9153
-20.584
-6.9571
-37.537
-20.011
-39.7
-37.53
33.993
64.211
14.596
18.938
23.374
-53.192
-18.577
35.058
9.6308
-18.323
-24.084
-62.728
7.5568
55.326
17.677
19.061
4.5152
-16.749
31.16
20.432
-52.817
-21.922
-40.597
-33.135
36.936
18.886
46.193
20.268
34.401
-2.0029
-77.557
26.002
7.6392
-29.831
2.9773
-86.403
-37.874
85.852
74.334
26.321
-91.578
-42.712
46.745
24.912
44.12
-4.2563
-0.8521
61.145
107.79
-9.1748
-91.189
-35.283
-89.781
-70.43
4.971
-82.591
-166.55
32.858
186.31
100.27
-30.065
-60.151
37.501
41.408
-28.452
-65.538
-48.723
45.399
89.813
23.538
-71.199
-72.212
17.485
45.83
38.057
27.47
-19.397
-4.3575
17.19
7.1186
-19.568
19.582
107.41
133.94
88.511
105.75
183.95
67.597
6.0263
52.524
84.683
80.426
58.495
11.4
-22.065
-34.163
-53.358
-76.763
-123.39
-160.63
-104.19
-69.939
-201.21
-366.45
-462.78
-511.57
-391.97
-200.28
-48.123
104.32
250.93
184.76
72.763
18.546
58.075
101.19
116.29
118.43
114.03
169.25
135.76
79.196
148.89
167.36
116.45
32.94
56.469
77.03
33.818
-58.724
-136.14
-53.019
88.744
71.795
0.77924
-71.919
-42.005
19.369
18.609
10.544
-71.249
-7.651
87.292
62.482
-18.523
-38.171
32.446
72.714
-17.291
-148.53
-69.8
116.3
135.03
34.798
-45.83
-88.504
-98.064
-70.253
9.2692
65.212
6.7078
26.86
45.311
-5.2308
-10.241
2.0333
70.106
36.883
-110.58
-61.518
44.384
70.515
88.254
32.998
-16.779
-60.699
-72.55
-70.163
-100.22
-71.978
-41.318
11.685
124.05
109.16
-10.777
-32.435
50.644
97.523
22.3
-48.616
-50.331
-140.62
-43.47
131.2
59.956
-59.06
-70.158
-8.9398
61.479
13.1
-104.09
-45.351
60.809
80.096
51.978
1.0786
0.84561
42.657
23.99
-13.361
-100.6
-126.44
-70.338
-80.226
-44.509
21.25
60.361
73.106
55.662
-2.5462
-23.34
51.021
138.53
112.1
29.077
-56.435
-79.942
-1.2875
24.901
-93.259
-162.08
-53.397
49.596
73.665
23.778
-45.397
-37.423
60.166
77.621
20.26
-30.85
-35.519
4.2818
65.921
76.722
29.765
-17.544
-22.462
-54.597
-65.771
-67.943
-54.385
28.586
53.925
19.723
-19.53
-20.544
21.718
17.562
-78.819
-157.44
-72.826
26.799
93.809
181.1
171.72
74.32
36.868
15.387
-70.152
-154.76
-102.21
39.949
94.385
45.551
-24.923
-61.199
41.29
133.54
54.939
-12.88
-86.181
-123.68
-129.69
-171.55
-33.377
59.846
34.79
11.593
-19.494
-58.501
31.909
86.565
72.841
53.709
15.759
-7.8875
44.538
91.506
53.437
54.213
10.135
-56.055
-54.531
-33.74
-33.103
6.2111
53.092
71.443
89.036
19.637
-231.39
-305.15
-40.523
137.35
138.23
93.909
28.136
-61.432
-55.569
-66.121
-162.84
-165.31
83.989
283.68
352.39
383.06
252.96
141.1
44.113
-44.022
-175.63
-308.41
-436.69
-663.53
-756.37
-649.89
-348.48
140.07
254.63
167.81
122.39
143.07
144.82
185.06
181.35
237.5
183.56
150.06
245.92
213.25
116.85
35.041
36.841
135.19
148.06
116.26
12.656
-145.54
-97.012
-63.626
-120.96
-171.35
-193.09
-85.746
51.757
34.41
1.1034
50.547
168.79
228.53
133.12
-8.7221
-112.27
-157.23
-163.91
-171.51
-182.34
-174.81
-69.848
60.636
70.222
15.73
-47.24
-57.836
6.9784
36.102
55.86
63.271
47.867
74.829
83.002
42.229
15.774
-0.57238
41.825
51.261
-9.645
-50.991
-72.281
-16.392
55.634
42.595
1.0736
-35.193
-8.0832
55.755
28.56
-36.854
-89.711
-70.207
28.549
77.93
110.37
81.563
1.0293
19.512
31.746
1.3694
-6.3669
-22.092
-12.371
-12.257
-49.568
-66.262
-62.417
-0.84383
81.237
68.298
9.8118
-36.813
-22.816
37.716
