-33.39
-35.14
-40.06
-46.77
-53.18
-57.05
-56.82
-52.34
-45.07
-37.68
-33.21
-34.03
-41.07
-53.71
-70.14
-88.06
-105.37
-120.46
-132.3
-140.29
-144.19
-144.09
-140.59
-134.74
-127.86
-121.16
-115.43
-110.85
-107.11
-103.8
-100.7
-98.04
-96.35
-96.1
-97.39
-99.74
-102.2
-103.7
-103.4
-100.99
-96.65
-90.91
-84.35
-77.49
-70.75
-64.67
-59.93
-57.35
-57.65
-61.14
-67.63
-76.37
-86.39
-96.66
-106.2
-113.87
-118.15
-117.17
-109.09
-92.84
-68.7
-38.58
-5.55
26.96
56.1
80.21
98.91
112.88
123.3
131.39
138.1
144.01
149.37
154.24
158.78
163.31
168.24
173.96
180.7
188.5
197.32
207.01
216.96
225.66
230.46
227.89
214.82
189.89
154.65
113.66
73.41
40.42
19.38
11.99
17.02
31.17
50.5
71.53
91.87
110.22
125.83
137.94
145.47
147.26
142.56
131.65
115.96
97.74
79.18
61.55
44.69
27.11
6.85
-17.82
-47.91
-83.71
-125.06
-171.7
-223.3
-279.09
-337.32
-394.62
-446.31
-487.48
-514.1
-523.89
-516.68
-494.35
-460.4
-419.18
-374.46
-329.14
-285.34
-244.52
-207.29
-173.45
-142.2
-112.65
-84.18
-55.79
-27.06
1
25.85
44.8
56.55
62.09
64.55
67.94
77.21
95.89
124.51
160.45
199.64
238.28
273.7
304.27
322.3
320.09
295.78
255.41
207.96
160.4
116.72
78.97
49.22
26.19
9.79
0.09
-3.85
-4.19
-3.19
-2.12
-2.06
-3.14
-5.21
-6.82
-6.46
-3.51
1.4
6.99
12.07
15.9
18.22
18.94
18.94
19.32
20.87
23.79
27.93
32.92
38.17
42.82
45.74
46.3
44.45
40.63
35.63
30.34
25.54
21.55
18.23
14.96
11.15
6.44
0.86
-5.26
-11.44
-17.42
-23.52
-30.67
-40.26
-53.61
-71.46
-93.71
-119.29
-146.29
-171.99
-193.05
-205.83
-207.1
-195.08
-170.23
-135.36
-95.06
-54.21
-16.79
15.05
40.89
61.39
77.53
90.11
99.67
106.67
111.58
114.9
116.95
117.76
117.16
114.99
111.33
106.59
101.35
96.15
91.33
86.9
82.68
78.45
74.02
69.31
64.3
58.99
53.45
47.9
42.6
37.81
33.6
29.76
25.86
21.49
16.48
11.02
5.59
0.67
-3.4
-6.59
-9.11
-11.28
-13.5
-16.2
-19.87
-24.86
-31.14
-38
-43.94
-47.03
-45.47
-38.34
-26.01
-10.07
7.15
23.38
37.05
47.57
55.12
60.33
63.76
65.77
66.46
65.88
64.18
61.74
59.05
56.58
54.58
53.03
51.7
50.31
48.72
46.98
45.28
43.69
42.1
40.21
37.63
34.16
29.8
24.83
19.63
14.52
9.69
5.12
0.72
-3.73
-8.45
-13.68
-19.53
-25.91
-32.44
-38.6
-43.93
-48.28
-51.95
-55.59
-60.02
-65.9
-73.39
-81.97
-90.38
-96.75
-98.97
-95.26
-84.71
-67.62
-45.56
-20.82
4.22
27.81
49.18
68.45
86.18
102.75
117.99
131.15
141.17
147.21
148.99
146.98
142.17
135.71
128.5
121.07
113.61
106.16
98.79
91.61
84.73
78.1
71.5
64.57
56.97
48.48
39.15
29.31
19.55
10.54
2.88
-3.16
-7.7
-11.3
-14.74
-18.75
-23.68
-29.44
-35.49
-41.14
-45.8
-49.25
-51.66
-53.47
-55.26
-57.55
-60.71
-64.76
-69.34
-73.65
-76.54
-76.79
-73.52
-66.55
-56.53
-44.8
-32.9
-22.13
-13.23
-6.29
-0.98
3.21
6.71
9.77
12.46
14.8
16.78
18.46
20.01
21.62
23.43
25.43
27.43
29.11
30.14
30.32
29.6
28.06
25.77
22.76
19
14.46
9.26
3.71
-1.72
-6.57
-10.49
-13.43
-15.64
-17.54
-19.61
-22.18
-25.32
-28.82
-32.22
-35.02
-36.79
-37.36
-36.84
-35.67
-34.49
-33.96
-34.61
-36.52
-39.3
-42.07
-43.69
-43.17
-39.95
-34.13
-26.39
-17.77
-9.35
-1.97
3.9
8.11
10.77
12.15
12.55
12.29
11.65
10.9
10.26
9.9
9.91
10.29
10.91
11.56
12.03
12.23
12.25
12.32
12.67
13.41
14.39
15.24
15.54
14.99
13.58
11.59
9.46
7.67
6.5
5.96
5.78
5.59
5.16
4.57
4.19
4.6
6.31
9.52
14.1
19.74
26.11
32.92
39.82
46.28
51.67
55.53
57.86
59.32
60.88
63.16
65.84
67.46
65.88
59.33
47.32
31.05
12.93
-4.45
-19.34
-31.33
-41.16
-50.01
-58.89
-68.49
-79.48
-92.85
-109.9
-131.53
-157.11
-183.53
-205.46
-216.88
-213.38
-194.18
-162.66
-125.18
-88.73
-58.67
-37.48
-24.97
-19.34
-18.48
-20.65
-24.51
-28.74
-31.9
-32.57
-29.89
-23.91
-15.69
-6.85
0.94
6.52
9.48
10.13
9.24
7.55
5.52
3.26
0.67
-2.28
-5.32
-7.88
-9.26
-8.89
-6.57
-2.58
2.39
7.53
12.13
15.71
17.94
18.41
16.58
11.96
4.51
-4.97
-14.76
-22.57
-26.26
-24.62
-17.88
-7.62
3.75
13.8
20.82
24.12
23.98
21.35
17.35
13.08
9.38
6.89
6.08
7.24
10.33
14.84
19.75
23.7
25.38
24
19.51
12.68
4.77
-2.89
-9.32
-14.05
-17.13
-18.86
-19.63
-19.67
-19.04
-17.62
-15.2
-11.48
-6.19
0.87
9.63
19.51
29.35
37.54
42.37
42.57
37.76
28.73
17.2
5.41
-4.45
-10.84
-13.03
-11.21
-6.17
0.96
9.1
17.43
25.44
32.94
39.91
46.35
52.22
57.36
61.57
64.6
66.23
66.29
64.62
61.19
56.07
49.55
42.03
34.01
25.92
18.07
10.61
3.6
-2.92
-8.87
-14.12
-18.62
-22.46
-25.88
-29.24
-32.83
-36.71
-40.54
-43.56
-44.71
-42.93
-37.5
-28.45
-16.64
-3.64
8.71
18.92
26.28
31.03
34.04
36.26
38.15
39.44
39.21
36.37
30.18
20.54
8.09
-5.99
-20.24
-33.19
-43.56
-50.39
-53.21
-52.19
-48.15
-42.45
-36.6
-31.89
-28.95
-27.67
-27.3
-26.86
-25.41
-22.42
-17.84
-12.1
-6
-0.55
3.31
4.95
4.26
1.74
-1.75
-5.18
-7.81
-9.31
-9.9
-10.11
-10.65
-12.1
-14.75
-18.37
-22.21
-25
-25.38
-22.37
-15.98
-7.47
0.88
6.56
7.76
4.13
-3.08
-11.6
-19.01
-23.67
-25.02
-23.54
-20.2
-16.05
-11.83
-8.08
-5.17
-3.42
-3.06
-4.09
-6.2
-8.76
-11.04
-12.38
-12.52
-11.64
-10.28
-9.21
-9.09
-10.22
-12.46
-15.31
-18.09
-20.24
-21.55
-22.2
-22.56
-23.04
-23.8
-24.68
-25.21
-24.88
-23.31
-20.44
-16.51
-11.98
-7.32
-2.9
1.03
4.38
7.16
9.59
12.07
15.18
19.43
25.05
31.82
39.08
45.93
51.55
55.39
57.31
57.42
55.99
53.28
49.56
45.14
40.38
35.66
31.33
27.54
24.3
21.49
18.99
16.82
15.2
14.48
14.99
16.86
19.82
23.2
26.17
28.01
28.48
27.91
27.05
26.75
27.53
29.31
31.54
33.38
34.22
33.91
32.87
31.93
31.9
33.31
36.15
39.91
43.75
46.74
48.05
47.16
43.94
38.74
32.53
26.67
22.53
20.83
21.13
21.85
20.82
16.34
8.05
-2.83
-14.06
-23.52
-30.22
-34.71
-38.57
-43.47
-50.33
-58.94
-68.31
-77.27
-85.01
-91.2
-95.76
-98.57
-99.21
-97.17
-92.1
-84.19
-74.22
-63.49
-53.34
-44.83
-38.37
-33.73
-30.26
-27.2
-23.94
-20.3
-16.47
-12.92
-10.23
-8.78
-8.62
-9.44
-10.67
-11.69
-12.11
-11.84
-11.1
-10.24
-9.59
-9.4
-9.79
-10.81
-12.34
-13.97
-14.9
-14.03
-10.33
-3.23
7
19.23
31.88
43.37
52.64
59.33
63.7
66.32
67.78
68.56
68.97
69.26
69.61
70.18
71.08
72.38
74.09
76.12
78.3
80.28
81.52
81.29
78.79
73.34
64.68
53.17
39.86
26.29
14.08
4.47
-2.03
-5.65
-7.25
-7.89
-8.47
-9.53
-11.18
-13.17
-15.03
-16.25
-16.37
-15.13
-12.58
-9.09
-5.39
-2.43
-1.1
-2.03
-5.38
-10.91
-18.05
-26.14
-34.47
-42.31
-48.84
-53.22
-54.86
-53.72
-50.48
-46.4
-42.94
-41.21
-41.7
-44.19
-48.06
-52.64
-57.41
-62.11
-66.58
-70.7
-74.25
-76.97
-78.56
-78.71
-77.18
-73.81
-68.61
-61.78
-53.74
-45.04
-36.34
-28.21
-21.11
-15.24
-10.61
-7.08
-4.45
-2.55
-1.23
-0.38
0.14
0.54
1.05
1.84
2.9
3.97
4.67
4.59
3.5
1.46
-1.17
-3.88
-6.2
-7.86
-8.77
-8.95
-8.34
-6.71
-3.69
1.05
7.53
15.33
23.67
31.54
38.08
42.72
45.3
46.02
45.22
43.27
40.49
37.1
33.32
29.38
25.52
21.99
19.01
16.75
15.23
14.34
13.8
13.2
12.19
10.58
8.44
6.11
3.96
2.27
1.03
0.06
-0.92
-2.02
-3.13
-3.88
-3.94
-3.2
-1.95
-0.8
-0.4
-1.15
-3.02
-5.51
-7.95
-9.72
-10.56
-10.64
-10.43
-10.53
-11.52
-13.78
-17.43
-22.16
-27.36
-32.11
-35.48
-36.83
-35.98
-33.24
-29.3
-24.93
-20.73
-17.05
-13.97
-11.4
-9.19
-7.2
-5.37
-3.63
-1.92
-0.03
2.43
5.97
11.04
17.78
26.04
35.51
46.07
58.02
71.95
88.45
107.71
129.3
152.4
176.14
199.97
223.7
247.2
269.98
290.91
308.17
319.64
323.23
317.43
301.55
276.04
242.6
204.04
163.93
125.93
93.09
67.31
49.14
37.82
31.6
28.1
24.82
19.7
11.72
1.23
-10.08
-19.8
-25.79
-27.09
-24.31
-19.46
-15.06
-13.2
-14.85
-19.84
-27.27
-36.2
-46.14
-56.99
-68.83
-81.49
-94.38
-106.57
-117.18
-125.68
-131.99
-136.34
-139.09
-140.58
-141.27
-141.8
-143.03
-145.79
-150.38
-156.31
-162.22
-166.36
-167.2
-163.93
-156.73
-146.53
-134.62
-122.3
-110.55
-100.11
-91.4
-84.73
-80.27
-78.11
-78.44
-81.53
-87.91
-97.94
-111.34
-126.76
-141.67
-152.77
-156.74
-151.51
-137.08
-115.93
-92.1
-69.74
-51.77
-39.02
-30.42
-23.75
-16.82
-8.3
1.61
12.13
22.68
33.3
44.53
56.95
70.69
85.14
98.98
109.52
114.88
114.95
111.38
106.67
103.25
102.84
105.93
111.39
114.36
109.82
94.21
66.19
26.39
-22.78
-77.07
-131.1
-179.89
-223.39
-262.27
-296.24
-323.73
-343.05
-353.2
-353.84
-345.28
-328.72
-310.06
-293.21
-278.46
-263.49
-246.55
-227.97
-209.05
-190.42
-143.97
-58.74
53.94
167.76
260.59
323.24
356.87
368.22
367.5
361.67
350.74
334.73
316
298.89
287.36
282.55
282.95
285.48
286.23
278.8
260.08
231.86
199.9
170.7
148.92
136.69
133.88
138.37
145.21
150.23
151.42
148.91
143.56
135.99
126.46
114.95
101.19
84
63.06
39.34
14.81
-8.49
-29.29
-47.02
-61.56
-73.09
-82.2
-89.55
-95.94
-102.4
-110.14
-120.38
-134.07
-151.95
-174.68
-202.51
-234.62
-268.24
-298.52
-319.34
-325.1
-312.62
-282.24
-237.81
-185.68
-133.15
-87.08
-52.71
-32.77
-27.12
-33.01
-45.99
-61.57
-76.78
-90.77
-104.19
-117.75
-130.69
-140.56
-144.19
-139.49
-126.91
-109.71
-92.48
-79.09
-70.78
-65.68
-60.08
-50.6
-36.11
-18.37
-1.18
11.45
17
15.18
7.72
-2.56
-12.71
-20.38
-24.24
-24.17
-21.2
-17.18
-13.95
-12.54
-12.76
-13.78
-15.18
-17.67
-22.96
-32.55
-46.45
-62.15
-75.23
-80.7
-75
-57.08
-28.49
7.63
47.64
88.12
126.06
158.68
183.77
199.93
207.28
208.11
206.93
209.38
220.18
241.1
269.67
300.17
324.75
335.88
328.94
303.96
265.37
219.92
174.7
134.75
103.76
82.63
69.79
62.39
57.74
53.98
49.5
43.66
36.17
29.76
27.49
30.98
39.21
48.83
55.51
54.83
46.18
32.61
23
25.83
44.65
76.51
114.65
152.62
186.13
216.01
225.84
206.62
160.73
99.76
34.67
-28.2
-79.59
-121.64
-154.64
-178.9
-193.17
-198.44
-197.27
-193.6
-190.65
-189.75
-191.78
-195.8
-201.4
-206.58
-210.18
-212.4
-214.38
-216.73
-218.88
-220.35
-219.8
-216.84
-210.61
-201.03
-188.93
-175.78
-162.73
-150.15
-138.2
-126.07
-112.98
-97.8
-80.09
-60.4
-40.18
-20.91
-3.26
12.84
28.4
44.32
60.89
77.31
91.9
102.93
109.59
112.5
113.44
114.67
117.81
123.16
129.52
134.71
136.47
133.32
125.12
112.99
98.69
83.95
69.89
56.98
45.31
34.97
26.21
19.35
14.43
10.89
7.65
3.46
-2.54
-10.41
-19.25
-27.64
-34.17
-38.11
-39.68
-40.01
-40.67
-42.95
-47.3
-52.95
-58.11
-60.43
-57.76
-48.93
-34.08
-14.71
6.8
27.87
46.43
61.33
72.4
80.14
85.28
88.34
89.5
88.6
85.43
79.96
72.58
64.04
55.4
47.63
41.42
36.93
33.86
31.55
29.28
26.51
22.94
18.52
13.23
7.11
0.31
-6.75
-13.16
-17.68
-19.01
-16.45
-10.31
-2.01
6.34
12.54
15.05
13.24
7.3
-2.12
-14.21
-28.04
-42.31
-55.27
-64.74
-68.72
-65.96
-56.5
-41.69
-23.71
-4.93
12.73
28.07
40.5
49.77
55.8
58.5
57.98
54.6
49.06
42.3
35.32
28.93
23.62
19.54
16.61
14.65
13.51
13.07
13.22
13.73
14.21
14.17
13.15
10.87
7.4
3.08
-1.49
-5.77
-9.38
-12.24
-14.58
-16.84
-19.59
-23.27
-28.08
-33.65
-39.07
-42.99
-44
-41.13
-34.22
-23.98
-11.8
0.71
12.17
21.7
28.95
33.96
36.96
38.25
38.11
36.86
34.81
32.26
29.49
26.67
23.84
21.04
18.28
15.63
13.27
11.39
10.07
9.23
8.53
7.51
5.75
3.06
-0.44
-4.34
-8.11
-11.34
-13.9
-15.95
-17.9
-20.23
-23.35
-27.34
-31.91
-36.35
-39.6
-40.53
-38.24
-32.44
-23.57
-12.81
-1.73
8.13
15.71
20.6
23.01
23.56
23
21.94
20.81
19.81
18.98
18.29
17.66
17.06
16.43
15.76
15.02
14.23
13.38
12.53
11.7
10.86
9.92
8.7
7.08
4.97
2.48
-0.18
-2.74
-5
-6.94
-8.78
-10.87
-13.53
-16.87
-20.65
-24.18
-26.52
-26.65
-23.91
-18.15
-9.97
-0.52
8.81
16.76
22.56
25.98
27.31
27.05
25.7
23.65
21.2
18.59
16.08
13.9
12.16
10.79
9.5
8.02
6.15
3.96
1.75
-0.12
-1.41
-2.2
-2.83
-3.83
-5.63
-8.39
-11.93
-15.81
-19.53
-22.74
-25.31
-27.36
-29.16
-31.03
-33.28
-36.03
-39.17
-42.27
-44.54
-45.02
-42.91
-37.89
-30.35
-21.33
-12.21
-4.2
1.93
6.06
8.52
9.86
10.59
10.97
11.13
11.08
10.9
10.71
10.61
10.66
10.76
10.77
10.56
10.09
9.42
8.69
7.92
7.07
5.98
4.47
2.5
0.17
-2.31
-4.7
-6.85
-8.7
-10.33
-11.89
-13.6
-15.69
-18.32
-21.5
-24.89
-27.86
-29.55
-29.17
-26.38
-21.43
-15.19
-8.87
-3.61
-0.16
1.25
0.86
-0.87
-3.45
-6.45
-9.52
-12.29
-14.44
-15.7
-15.97
-15.31
-13.92
-12.09
-10.14
-8.39
-7.1
-6.5
-6.64
-7.45
-8.68
-10.08
-11.42
-12.65
-13.84
-15.11
-16.55
-18.15
-19.85
-21.64
-23.62
-25.89
-28.44
-30.93
-32.69
-32.84
-30.64
-25.76
-18.46
-9.52
0.02
9.2
17.37
24.23
29.74
33.96
36.92
38.7
39.41
39.3
38.73
38.11
37.82
38.03
38.7
39.56
40.18
40.18
39.33
37.65
35.41
32.95
30.54
28.28
26.12
23.93
21.65
19.29
16.96
14.68
12.41
9.97
7.1
3.67
-0.27
-4.35
-7.94
-10.29
-10.75
-8.99
-5.15
0.22
6.26
12.07
16.88
20.2
21.85
21.87
20.49
18.07
15.07
12.03
9.44
7.64
6.69
6.38
6.36
6.25
5.84
5.13
4.31
3.58
3.05
2.64
2.12
1.26
-0.04
-1.69
-3.46
-5.03
-6.19
-6.89
-7.21
-7.4
-7.72
-8.43
-9.73
-11.69
-14.11
-16.51
-18.13
-18.1
-15.76
-10.98
-4.25
3.37
10.64
16.51
20.42
22.38
22.79
22.2
21.03
19.44
17.41
14.84
11.73
8.22
4.6
1.19
-1.7
-3.88
-5.25
-5.77
-5.5
-4.56
-3.24
-1.98
-1.3
-1.58
-2.98
-5.24
-7.87
-10.23
-11.81
-12.43
-12.2
-11.57
-11.09
-11.29
-12.53
-14.88
-18.01
-21.26
-23.72
-24.47
-22.87
-18.83
-12.91
-6.19
0.04
4.7
7.2
7.6
6.43
4.5
2.51
0.93
-0.09
-0.64
-0.93
-1.11
-1.32
-1.6
-1.96
-2.42
-2.97
-3.55
-4.05
-4.33
-4.31
-4.01
-3.53
-3.12
-2.95
-3.13
-3.63
-4.31
-5.02
-5.64
-6.18
-6.78
-7.68
-9.16
-11.33
-14.05
-16.79
-18.72
-18.97
-16.97
-12.71
-6.79
-0.25
5.81
10.62
13.85
15.61
16.2
15.92
14.95
13.35
11.19
8.66
6.02
3.61
1.68
0.33
-0.54
-1.13
-1.65
-2.19
-2.68
-2.95
-2.84
-2.34
-1.59
-0.83
-0.34
-0.3
-0.77
-1.7
-2.97
-4.44
-5.96
-7.4
-8.67
-9.75
-10.69
-11.65
-12.9
-14.65
-16.99
-19.68
-22.15
-23.6
-23.28
-20.81
-16.39
-10.73
-4.83
0.36
4.28
6.75
7.95
8.19
7.75
6.83
5.63
4.33
3.19
2.44
2.23
2.56
3.27
4.14
4.96
5.61
6.11
6.51
6.9
7.27
7.53
7.58
7.32
6.77
6.01
5.16
4.3
3.42
2.44
1.23
-0.31
-2.18
-4.25
-6.34
-8.19
-9.64
-10.6
-11.12
-11.33
-11.4
-11.54
-11.96
-12.83
-14.13
-15.61
-16.68
-16.62
-14.73
-10.72
-4.82
2.18
9.27
15.49
20.23
23.38
25.13
25.86
25.88
25.43
24.61
23.59
22.53
21.65
21.14
21.07
21.41
21.96
22.49
22.84
22.96
22.89
22.73
22.52
22.23
21.74
20.97
19.91
18.64
17.34
16.19
15.31
14.75
14.45
14.32
14.21
13.96
13.39
12.41
10.99
9.21
7.22
5.19
3.22
1.33
-0.59
-2.75
-5.32
-8.42
-11.98
-15.64
-18.79
-20.72
-20.84
-18.94
-15.32
-10.72
-6.16
-2.56
-0.54
-0.28
-1.57
-3.99
-7.01
-10.21
-13.24
-15.84
-17.82
-19.02
-19.39
-18.95
-17.91
-16.54
-15.15
-14.01
-13.24
-12.77
-12.44
-12.09
-11.62
-11.07
-10.59
-10.27
-10.13
-10.08
-9.96
-9.68
-9.24
-8.78
-8.45
-8.39
-8.66
-9.2
-9.91
-10.64
-11.25
-11.62
-11.69
-11.51
-11.21
-10.98
-11.02
-11.49
-12.41
-13.73
-15.21
-16.48
-16.97
-16.13
-13.58
-9.31
-3.81
2.08
7.39
11.41
13.83
14.77
14.61
13.75
12.49
11
9.38
7.72
6.22
5.05
4.35
4.11
4.21
4.47
4.67
4.7
4.56
4.31
4.06
3.82
3.55
3.1
2.36
1.26
-0.13
-1.62
-3.01
-4.13
-4.93
-5.52
-6.09
-6.82
-7.8
-9
-10.25
-11.42
-12.43
-13.27
-14.04
-14.83
-15.71
-16.74
-17.99
-19.55
-21.43
-23.46
-25.18
-25.94
-25.05
-22.15
-17.37
-11.34
-4.95
0.89
5.54
8.75
10.58
11.28
11.14
10.43
9.41
8.32
7.36
6.71
6.46
6.64
7.16
7.87
8.54
8.97
9.04
8.76
8.26
7.73
7.28
6.88
6.38
5.56
4.3
2.62
0.7
-1.22
-2.94
-4.37
-5.55
-6.56
-7.5
-8.45
-9.46
-10.59
-11.84
-13.19
-14.52
-15.69
-16.63
-17.38
-18.12
-19.17
-20.74
-22.83
-25.06
-26.77
-27.19
-25.7
-22.11
-16.67
-10.1
-3.3
2.83
7.65
10.88
12.59
13.12
12.91
12.39
11.84
11.41
11.13
11
11.03
11.24
11.64
12.19
12.72
13.07
13.14
12.96
12.67
12.44
12.36
12.34
12.16
11.56
10.41
8.73
6.75
4.76
3.02
1.6
0.4
-0.84
-2.4
-4.44
-6.91
-9.58
-12.14
-14.39
-16.28
-18
-19.81
-21.95
-24.61
-27.78
-31.3
-34.76
-37.52
-38.78
-37.85
-34.34
-28.48
-21.03
-13.1
-5.79
0.15
4.42
7.17
8.69
9.28
9.17
8.49
7.46
6.32
5.32
4.69
4.55
4.93
5.79
7.04
8.58
10.31
12.08
13.77
15.25
16.37
17
17.02
16.33
14.89
12.77
10.11
7.14
4.04
0.89
-2.38
-5.89
-9.73
-13.8
-17.8
-21.31
-23.97
-25.59
-26.32
-26.57
-26.9
-27.87
-29.81
-32.73
-36.27
-39.68
-41.95
-42
-39.01
-32.76
-23.77
-13.24
-2.68
6.49
13.41
17.95
20.53
21.87
22.61
23.19
23.8
24.53
25.55
27.1
29.44
32.67
36.67
41.11
45.55
49.58
52.94
55.57
57.58
59.09
60.23
61.1
61.75
62.27
62.76
63.33
64.04
64.88
65.77
66.63
67.38
68.01
68.51
68.89
69.07
68.91
68.2
66.77
64.48
61.31
57.31
52.66
47.67
42.71
38.13
34.18
30.86
27.96
25.13
22.03
18.47
14.43
10.04
5.42
0.61
-4.35
-9.33
-14.05
-18.09
-21.04
-22.69
-23.15
-22.83
-22.31
-22.08
-22.44
-23.41
-24.79
-26.37
-27.98
-29.64
-31.45
-33.56
-36.01
-38.74
-41.58
-44.31
-46.77
-48.97
-51.03
-53.16
-55.59
-58.46
-61.83
-65.56
-69.33
-72.59
-74.58
-74.48
-71.68
-66.07
-58.12
-48.86
-39.54
-31.23
-24.58
-19.67
-16.2
-13.73
-11.86
-10.36
-9.08
-7.92
-6.76
-5.47
-3.99
-2.37
-0.75
0.68
1.78
2.55
3.08
3.55
4.09
4.74
5.43
6.02
6.38
6.48
6.34
6.08
5.79
5.49
5.11
4.46
3.25
1.15
-2.05
-6.38
-11.44
-16.41
-20.17
-21.69
-20.4
-16.39
-10.5
-3.92
2.15
6.94
10.23
12.23
13.36
14
14.34
14.43
14.29
13.96
13.52
13.06
12.62
12.2
11.73
11.17
10.48
9.69
8.88
8.15
7.56
7.05
6.45
5.48
3.89
1.57
-1.39
-4.72
-8.04
-11.04
-13.58
-15.75
-17.81
-20.06
-22.75
-25.94
-29.45
-32.84
-35.42
-36.44
-35.23
-31.52
-25.58
-18.16
-10.4
-3.39
2.06
5.7
7.73
8.65
9
9.12
9.18
9.21
9.22
9.27
9.43
9.79
10.37
11.14
12.01
12.89
13.67
14.3
14.78
15.18
15.55
15.92
16.16
16.1
15.5
14.26
12.4
10.12
7.69
5.33
3.16
1.2
-0.63
-2.43
-4.32
-6.46
-8.98
-11.96
-15.3
-18.64
-21.4
-22.86
-22.45
-19.91
-15.46
-9.73
-3.61
2.04
6.59
9.77
11.6
12.32
12.26
11.79
11.23
10.8
10.62
10.67
10.82
10.9
10.78
10.46
9.95
9.34
8.67
7.95
7.19
6.41
5.58
4.64
3.44
1.84
-0.19
-2.49
-4.77
-6.68
-8.06
-8.93
-9.57
-10.32
-11.38
-12.73
-14.18
-15.4
-16.18
-16.44
-16.31
-16.1
-16.11
-16.62
-17.72
-19.23
-20.66
-21.34
-20.55
-17.83
-13.17
-7.07
-0.36
5.98
11.23
15.04
17.5
18.96
19.83
20.43
20.89
21.22
21.37
21.35
21.19
20.97
20.71
20.39
19.91
19.17
18.13
16.8
15.29
13.75
12.3
10.98
9.74
8.43
6.87
4.97
2.74
0.36
-1.91
-3.84
-5.3
-6.33
-7.14
-7.94
-8.87
-9.93
-10.95
-11.72
-12.08
-12.05
-11.82
-11.72
-12.12
-13.3
-15.39
-18.28
-21.56
-24.6
-26.67
-27.18
-25.86
-22.85
-18.75
-14.35
-10.44
-7.57
-5.96
-5.53
-6.08
-7.38
-9.28
-11.7
-14.54
-17.57
-20.45
-22.8
-24.34
-25.11
-25.4
-25.67
-26.23
-26.95
-27.28
-26.35
-23.34
-17.83
-9.97
-0.33
10.41
21.82
33.99
47.5
63.12
81.48
102.64
125.96
150.03
172.74
191.44
203.29
205.7
197.09
177.52
148.95
114.95
79.76
47.25
20.07
-0.51
-14.32
-21.69
-22.94
-18.33
-8.31
6.08
23.06
40.19
54.86
64.88
68.87
66.62
58.94
47.25
33.09
17.64
1.61
-14.67
-30.88
-46.49
-60.68
-72.54
-81.4
-87.09
-90.11
-91.41
-92.05
-92.66
-93.11
-92.43
-89.16
-81.97
-70.43
-55.42
-39.02
-23.85
-12.11
-4.86
-1.8
-1.7
-3.1
-4.94
-6.67
-8.13
-9.06
-8.95
-7.14
-3.26
2.46
9.14
15.62
21.04
25.31
29.11
33.57
39.58
47.1
54.92
60.98
63.05
59.65
50.7
37.52
22.42
7.73
-4.87
-14.78
-22.27
-27.95
-32.31
-35.36
-36.84
-36.52
-34.53
-31.4
-27.83
-24.33
-20.97
-17.45
-13.37
-8.66
-3.67
0.91
4.39
6.47
7.33
7.51
7.66
8.25
9.43
11.1
13.03
14.99
16.71
17.98
18.55
18.3
17.3
15.88
14.56
13.92
14.37
15.99
18.48
21.32
23.91
25.8
26.83
27.08
26.83
26.32
25.63
24.64
23.17
21.12
18.64
16.18
14.26
13.36
13.67
15.08
17.28
19.81
22.28
24.26
25.36
25.25
23.68
20.6
16.08
10.31
3.44
-4.48
-13.39
-23.1
-33.15
-42.72
-50.84
-56.69
-59.91
-60.8
-60.15
-59.05
-58.42
-58.65
-59.53
-60.38
-60.33
-58.67
-55.03
-49.44
-42.13
-33.45
-23.82
-13.71
-3.77
5.2
12.29
16.65
17.68
15.2
9.43
0.94
-9.51
-21.16
-33.3
-45.36
-56.81
-67.08
-75.52
-81.47
-84.53
-84.68
-82.35
-78.26
-73.08
-67.21
-60.66
-53.36
-45.36
-36.98
-28.75
-21.15
-14.51
-9.07
-5.25
-3.88
-6.13
-13.05
-24.99
-41.08
-59.08
-75.79
-87.63
-91.66
-86.27
-71.79
-50.42
-25.72
-1.75
18.11
31.92
39.45
41.8
40.59
37.35
33.16
28.82
25
22.43
21.6
22.56
24.75
27.27
29.28
30.34
30.46
29.85
28.63
26.71
23.93
20.26
15.99
11.72
8.11
5.74
5.02
6.14
8.94
12.87
16.91
19.77
20.26
17.7
12.21
4.68
-3.59
-11.34
-17.71
-22.43
-25.9
-28.92
-32.47
-37.23
-43.26
-49.76
-55.29
-58.25
-57.56
-53.17
-46.09
-37.89
-30.04
-23.35
-17.8
-12.84
-7.93
-2.84
2.24
6.96
11.02
14.37
17.15
19.56
21.75
23.87
26.04
28.25
30.33
31.85
32.28
31.3
28.99
25.85
22.65
20.02
18.27
17.5
17.82
19.7
23.88
31.13
41.69
54.95
69.34
82.69
92.78
97.95
97.45
91.5
81.17
67.94
53.3
38.36
23.63
9
-5.96
-21.6
-37.69
-53.25
-66.64
-76.09
-80.36
-79.2
-73.52
-65.02
-55.57
-46.74
-39.42
-33.98
-30.43
-28.67
-28.57
-29.85
-32.06
-34.62
-36.95
-38.69
-39.76
-40.38
-40.94
-41.81
-43.17
-44.86
-46.41
-47.12
-46.33
-43.6
-38.94
-32.7
-25.44
-17.69
-9.7
-1.46
7.21
16.39
25.83
34.92
42.83
48.77
52.33
53.58
53.03
51.39
49.26
46.91
44.31
41.18
37.14
31.97
25.65
18.57
11.53
5.64
2.04
1.46
3.84
8.15
12.62
15.35
14.89
10.71
3.36
-5.92
-15.57
-24.25
-31.08
-35.65
-37.96
-38.22
-36.74
-33.89
-30.14
-26.07
-22.34
-19.53
-17.96
-17.54
-17.84
-18.24
-18.25
-17.74
-17.01
-16.67
-17.31
-19.26
-22.33
-25.91
-29.11
-31.12
-31.41
-29.99
-27.32
-24.21
-21.54
-20.07
-20.18
-21.73
-23.97
-25.68
-25.46
-22.34
-16.26
-8.42
-1.08
3.06
1.69
-6.43
-21.23
-41.55
-65.62
-91.63
-117.89
-142.95
-165.46
-184.28
-198.62
-208.2
-213.31
-214.72
-213.38
-210.1
-205.36
-199.22
-191.34
-181.04
-167.39
-149.24
-125.38
-94.84
-57.36
-14.06
32.19
76.84
114.45
140.09
150.61
145.61
127.34
99.83
67.58
34.43
3.19
-24.32
-46.84
-63.51
-73.94
-78.35
-77.6
-72.85
-65.11
-54.88
-42.22
-26.99
-9.31
10.24
30.72
50.96
69.93
86.82
100.98
111.95
119.41
123.32
124.03
122.29
119.13
115.57
112.41
109.94
108.03
106.31
104.43
102.26
99.93
97.67
95.58
93.48
90.94
87.49
82.87
77.24
71.1
65.12
59.76
55.14
50.91
46.41
40.92
33.83
24.81
13.85
1.42
-11.53
-23.56
-32.93
-37.99
-37.65
-31.81
-21.44
-8.34
5.43
18.06
28.44
36.17
41.43
44.66
46.39
47.13
47.36
47.54
48.06
49.2
51.04
53.46
56.18
58.92
61.46
63.72
65.74
67.56
69.13
70.19
70.38
69.34
66.93
63.38
59.19
55.02
51.37
48.43
45.99
43.55
40.59
36.68
31.71
25.96
20.11
15.2
12.47
13.04
17.61
26.21
38.18
52.23
66.74
80.11
91.04
98.79
103.37
105.5
106.45
107.65
110.27
114.83
121.03
127.95
134.47
139.67
143.28
145.78
148.3
152.32
159.23
169.68
182.96
196.5
206.03
206.59
194.22
167.82
129.99
86.6
44.85
10.83
-12.49
-25.98
-33.46
-39.82
-49.13
-63.33
-82.02
-103.01
-123.35
-140.22
-151.69
-156.91
-156.08
-150.16
-140.49
-128.49
-115.57
-103.07
-92.1
-83.45
-77.36
-73.57
-71.37
-69.99
-68.73
-67.18
-65.1
-62.22
-58.16
-52.51
-45.15
-36.47
-27.41
-19.12
-12.31
-6.86
-1.93
3.25
8.5
12.21
12.04
6.41
-4.01
-15.95
-24.54
-25.49
-16.96
-0.25
21.15
43.24
62.81
77.7
86.01
85.56
74.18
51.17
18.91
-16.62
-47.2
-64.92
-64.88
-46.35
-12.35
31.99
81.02
129.45
172.36
204.99
223.04
223.5
205.7
171.76
126.07
74.12
21
-29.54
-75.22
-114.93
-148.09
-174.32
-193.31
-205.12
-210.3
-210.04
-206
-199.85
-192.66
-184.37
-173.75
-159.11
-139.34
-114.94
-88.38
-63.38
-43.34
-29.62
-20.74
-12.86
-1.65
15.62
38.78
64.9
89.99
111.06
127.59
141.49
155.6
171.77
189.42
205.45
215.34
214.97
202.3
178.07
145.47
108.94
72.96
41.04
15.33
-3.32
-15.05
-20.68
-21.49
-19.1
-15.3
-11.98
-10.9
-13.53
-20.73
-32.41
-47.44
-63.67
-78.37
-88.84
-93.23
-90.94
-82.85
-71.32
-60
-53.49
-56.47
-72.19
-100.88
-138.82
-178.72
-211.67
-229.86
-229.03
-209.49
-175.52
-133.46
-89.73
-49.3
-15.31
10.76
28.6
38.61
41.72
39.18
32.5
23.28
13.14
3.58
-4.22
-9.75
-13.12
-15.06
-16.66
-18.83
-22.12
-26.48
-31.41
-36.17
-40.14
-42.97
-44.72
-45.67
-46.17
-46.35
-46.13
-45.3
-43.93
-42.46
-41.82
-43.16
-47.31
-54.39
-63.57
-73.25
-81.47
-86.51
-87.23
-83.17
-74.47
-61.66
-45.45
-26.62
-5.99
15.62
37.43
58.75
78.93
97.26
112.79
124.32
130.68
131.07
125.49
114.9
101.05
85.99
71.57
59.07
49.08
41.64
36.46
33.08
30.85
29.04
26.82
23.47
18.56
12.14
4.85
-2.24
-7.87
-11.16
-11.9
-10.74
-9.04
-8.28
-9.54
-12.97
-17.76
-22.4
-25.25
-25.12
-21.57
-15.06
-6.66
2.16
10
15.7
18.62
18.68
16.37
12.63
8.53
5.06
2.8
1.83
1.78
2.04
1.97
1.14
-0.61
-3.24
-6.6
-10.45
-14.53
-18.6
-22.44
-25.96
-29.19
-32.25
-35.22
-38.02
-40.49
-42.38
-43.58
-44.16
-44.38
-44.54
-44.94
-45.72
-46.84
-48.12
-49.18
-49.49
-48.41
-45.43
-40.33
-33.42
-25.47
-17.48
-10.37
-4.67
-0.41
2.69
5.03
6.83
8.18
9.04
9.44
9.49
9.46
9.62
10.18
11.21
12.58
14.04
15.25
15.87
15.61
14.39
12.29
9.65
6.91
4.54
2.87
1.96
1.56
1.16
0.11
-2.17
-5.99
-11.25
-17.36
-23.31
-27.94
-30.22
-29.57
-26.09
-20.43
-13.71
-7.02
-1.26
3.16
6.29
8.48
10.19
11.74
13.17
14.24
14.52
13.58
11.28
7.87
3.92
0.12
-2.98
-5.19
-6.7
-7.96
-9.5
-11.69
-14.74
-18.57
-22.91
-27.28
-31.13
-33.91
-35.25
-35.09
-33.65
-31.43
-29.06
-27.12
-25.94
-25.4
-24.84
-23.13
-18.98
-11.34
0.2
15.17
32.34
50.06
66.8
81.47
93.57
102.94
109.5
113.01
113.05
109.32
101.91
91.53
79.36
66.79
54.97
44.5
35.52
27.83
21.25
15.68
11.05
7.15
3.48
-0.6
-5.68
-11.98
-19.26
-26.88
-33.97
-39.81
-44.01
-46.66
-48.26
-49.55
-51.31
-54
-57.5
-61.05
-63.44
-63.39
-60.1
-53.54
-44.52
-34.36
-24.43
-15.74
-8.73
-3.37
0.68
3.78
6.24
8.23
9.83
11.03
11.8
12.13
12.15
12.12
12.47
13.62
15.87
19.28
23.68
28.66
33.72
38.23
41.49
42.74
41.26
36.69
29.11
19.24
8.19
-2.81
-12.8
-21.34
-28.57
-34.96
-41.08
-47.33
-53.72
-59.87
-65.1
-68.52
-69.33
-67.07
-61.9
-54.6
-46.38
-38.51
-31.85
-26.61
-22.36
-18.38
-14.12
-9.48
-4.82
-0.72
2.39
4.42
5.64
6.44
7.09
7.6
7.78
7.49
6.83
6.22
6.16
6.98
8.59
10.49
11.96
12.43
11.74
10.25
8.69
7.85
8.35
10.45
13.95
18.28
22.56
25.75
26.92
25.57
21.85
16.71
11.63
8.18
7.54
10.13
15.57
22.91
31.08
39.16
46.55
52.84
57.7
60.72
61.51
59.88
55.94
50.28
43.72
37.13
31.13
25.93
21.42
17.3
13.34
9.5
5.87
2.54
-0.44
-3.2
-5.84
-8.43
-10.91
-13.11
-14.82
-15.91
-16.38
-16.44
-16.48
-17
-18.49
-21.29
-25.36
-30.2
-34.87
-38.15
-38.9
-36.46
-30.88
-22.95
-14.03
-5.62
1.02
5.16
6.71
6.09
4.09
1.57
-0.74
-2.44
-3.48
-4.14
-4.8
-5.82
-7.32
-9.23
-11.3
-13.23
-14.72
-15.52
-15.46
-14.48
-12.72
-10.55
-8.52
-7.19
-6.96
-7.91
-9.73
-11.88
-13.84
-15.32
-16.32
-17.18
-18.3
-19.92
-21.86
-23.42
-23.56
-21.18
-15.62
-6.87
4.27
16.47
28.26
38.45
46.38
52
55.7
57.99
59.27
59.71
59.21
57.58
54.66
50.47
45.25
39.47
33.62
28.13
23.28
19.11
15.52
12.26
9.14
5.99
2.76
-0.51
-3.7
-6.67
-9.35
-11.66
-13.67
-15.47
-17.26
-19.26
-21.59
-24.1
-26.32
-27.49
-26.77
-23.63
-18.06
-10.67
-2.48
5.41
12.14
17.31
20.95
23.37
24.94
25.95
26.57
26.85
26.83
26.53
25.97
25.2
24.23
23.07
21.69
20.03
18.04
15.68
12.95
9.91
6.7
3.47
0.34
-2.62
-5.47
-8.3
-11.22
-14.35
-17.74
-21.39
-25.21
-28.93
-32.09
-34.03
-34.04
-31.64
-26.82
-20.12
-12.56
-5.32
0.62
4.75
7.04
7.85
7.64
6.73
5.21
3
0.02
-3.72
-7.98
-12.37
-16.5
-20.08
-23.07
-25.69
-28.3
-31.34
-35.18
-40.01
-45.81
-52.31
-59.07
-65.63
-71.66
-77.09
-82.13
-87.23
-92.88
-99.37
-106.65
-114.09
-120.54
-124.38
-123.98
-118.18
-106.75
-90.5
-71.02
-49.99
-28.49
-6.65
16.34
41.56
69.71
100.4
132.07
162.15
187.72
206.24
216.21
217.52
211.47
200.28
186.4
171.84
157.68
144.13
130.82
117.23
103.11
88.51
73.77
59.35
45.74
33.42
22.86
14.42
8.19
3.88
0.75
-2.19
-5.8
-10.43
-15.71
-20.6
-23.79
-24.22
-21.53
-16.19
-9.34
-2.4
3.46
7.5
9.57
9.91
8.96
7.16
4.84
2.2
-0.64
-3.6
-6.6
-9.49
-12.13
-14.36
-16.08
-17.28
-18.03
-18.49
-18.82
-19.18
-19.64
-20.23
-20.94
-21.74
-22.68
-23.78
-25.1
-26.66
-28.55
-30.83
-33.59
-36.72
-39.83
-42.28
-43.25
-42.07
-38.43
-32.62
-25.36
-17.64
-10.4
-4.3
0.38
3.66
5.78
7.03
7.65
7.81
7.58
7.03
6.27
5.45
4.72
4.24
4.04
4.06
4.24
4.48
4.75
4.98
5.07
4.83
4.07
2.65
0.56
-2
-4.76
-7.43
-9.84
-11.99
-14.04
-16.2
-18.72
-21.71
-25.13
-28.69
-31.87
-33.98
-34.33
-32.41
-28.11
-21.79
-14.19
-6.25
1.12
7.26
11.87
14.99
16.83
17.72
17.92
17.66
17.12
16.44
15.76
15.18
14.76
14.45
14.13
13.7
13.1
12.31
11.43
10.52
9.59
8.63
7.54
6.28
4.88
3.38
1.86
0.33
-1.27
-3.05
-5.06
-7.33
-9.77
-12.25
-14.64
-16.85
-18.9
-20.87
-22.96
-25.37
-28.2
-31.3
-34.19
-36.1
-36.21
-33.94
-29.2
-22.52
-14.81
-7.16
-0.45
4.78
8.41
10.59
11.58
11.66
11.07
9.99
8.66
7.29
6.1
5.23
4.7
4.46
4.36
4.24
4.02
3.69
3.26
2.79
2.24
1.52
0.56
-0.73
-2.33
-4.13
-5.98
-7.73
-9.3
-10.71
-12.07
-13.52
-15.15
-16.99
-18.96
-20.9
-22.66
-24.07
-25.06
-25.65
-26.02
-26.42
-27.14
-28.41
-30.25
-32.44
-34.48
-35.71
-35.49
-33.33
-29.11
-23.07
-15.8
-8.06
-0.62
5.93
11.26
15.28
18.08
19.82
20.7
20.88
20.57
20.02
19.55
19.41
19.77
20.55
21.52
22.37
22.86
22.93
22.68
22.26
21.74
21.07
20.07
18.61
16.65
14.33
11.89
9.51
7.31
5.23
3.12
0.87
-1.57
-4.09
-6.5
-8.57
-10.19
-11.36
-12.28
-13.22
-14.52
-16.43
-19.01
-22.02
-24.93
-26.99
-27.45
-25.86
-22.15
-16.76
-10.46
-4.08
1.71
6.52
10.21
12.79
14.29
14.77
14.3
13.07
11.36
9.51
7.83
6.54
5.76
5.48
5.59
5.97
6.45
6.9
7.2
7.29
7.11
6.63
5.79
4.58
3.01
1.18
-0.77
-2.69
-4.45
-6
-7.37
-8.64
-9.89
-11.2
-12.64
-14.3
-16.2
-18.3
-20.39
-22.09
-22.87
-22.24
-19.89
-15.82
-10.42
-4.31
1.81
7.38
12.03
15.58
17.95
19.15
19.25
18.43
17.01
15.43
14.11
13.35
13.23
13.63
14.3
15.02
15.66
16.19
16.65
17.04
17.31
17.39
17.21
16.75
16.05
15.17
14.19
13.13
12.03
10.91
9.86
8.93
8.16
7.48
6.7
5.66
4.25
2.59
1.07
0.22
0.61
2.56
6.06
10.75
15.97
20.99
25.19
28.18
29.84
30.28
29.71
28.33
26.31
23.76
20.77
17.48
14.05
10.69
7.56
4.73
2.21
0.02
-1.79
-3.17
-4.05
-4.48
-4.61
-4.66
-4.8
-5.18
-5.81
-6.67
-7.72
-8.94
-10.27
-11.65
-12.93
-14.03
-14.93
-15.75
-16.74
-18.12
-20
-22.23
-24.44
-26.08
-26.66
-25.87
-23.7
-20.43
-16.46
-12.3
-8.38
-5.05
-2.56
-1.05
-0.56
-0.96
-2.01
-3.36
-4.69
-5.75
-6.37
-6.53
-6.25
-5.61
-4.71
-3.68
-2.67
-1.81
-1.22
-0.9
-0.78
-0.68
-0.49
-0.2
0.02
-0.09
-0.75
-2.02
-3.71
-5.49
-7.04
-8.21
-9.08
-9.92
-11
-12.51
-14.43
-16.68
-19.17
-21.8
-24.46
-26.91
-28.73
-29.43
-28.63
-26.2
-22.39
-17.72
-12.82
-8.22
-4.27
-1.14
1.15
2.59
3.2
3.07
2.35
1.28
0.13
-0.86
-1.56
-1.92
-1.99
-1.84
-1.52
-1.07
-0.51
0.11
0.74
1.26
1.57
1.62
1.41
1.03
0.59
0.15
-0.3
-0.86
-1.64
-2.68
-3.92
-5.17
-6.24
-6.99
-7.47
-7.82
-8.28
-9.05
-10.32
-12.2
-14.71
-17.68
-20.66
-22.9
-23.52
-21.79
-17.41
-10.67
-2.39
6.37
14.59
21.55
26.84
30.35
32.15
32.43
31.5
29.76
27.68
25.65
23.96
22.73
21.92
21.45
21.19
21.02
20.8
20.43
19.84
19.04
18.08
17.03
15.92
14.68
13.23
11.53
9.58
7.49
5.38
3.35
1.43
-0.37
-2.04
-3.54
-4.79
-5.76
-6.46
-7.02
-7.6
-8.4
-9.6
-11.25
-13.17
-14.98
-16.12
-16.07
-14.51
-11.47
-7.34
-2.72
1.78
5.61
8.43
10.01
10.25
9.19
7.03
4.12
0.9
-2.19
-4.86
-6.92
-8.34
-9.11
-9.17
-8.51
-7.11
-5.01
-2.43
0.35
2.98
5.17
6.78
7.86
8.58
9.16
9.75
10.38
10.96
11.37
11.5
11.27
10.72
9.89
8.89
7.83
6.84
6.01
5.4
4.98
4.6
4.01
2.97
1.46
-0.29
-1.69
-1.96
-0.44
3.19
8.69
15.32
22.1
28.13
32.84
36.09
38.03
38.97
39.17
38.79
37.92
36.61
35.01
33.31
31.74
30.51
29.69
29.23
28.98
28.72
28.31
27.66
26.76
25.69
24.53
23.36
22.3
21.48
21.09
21.27
22.02
23.15
24.27
24.86
24.45
22.86
20.23
17.08
14.06
11.77
10.53
10.27
10.61
11.06
11.26
11.23
11.38
12.45
15.21
20.2
27.51
36.77
47.26
58.16
68.73
78.42
86.91
94.16
100.35
105.89
111.11
116
119.84
121.22
118.45
110.26
96.49
78.45
58.48
39.15
22.3
8.55
-2.5
-11.77
-19.94
-27.2
-33.36
-38.2
-41.8
-44.54
-46.86
-48.99
-50.84
-52.16
-52.83
-53.08
-53.49
-54.66
-56.88
-60.01
-63.48
-66.57
-68.8
-70.11
-70.88
-71.79
-73.48
-76.28
-79.99
-83.81
-86.51
-86.68
-83.28
-75.99
-65.4
-52.9
-40.23
-28.93
-19.93
-13.44
-9.14
-6.46
-4.91
-4.13
-3.93
-4.03
-4.1
-3.81
-2.93
-1.44
0.46
2.38
4.01
5.14
5.78
6.07
6.17
6.17
6.01
5.5
4.42
2.64
0.22
-2.57
-5.35
-7.73
-9.46
-10.57
-11.31
-12.08
-13.23
-14.97
-17.25
-19.8
-22.27
-24.3
-25.75
-26.67
-27.34
-28.16
-29.6
-32.03
-35.57
-39.92
-44.3
-47.46
-48.09
-45.18
-38.49
-28.77
-17.49
-6.41
2.96
9.85
14.21
16.51
17.4
17.35
16.64
15.41
13.83
12.18
10.82
10.04
9.98
10.52
11.4
12.29
12.97
13.35
13.46
13.31
12.89
12.16
11.07
9.7
8.17
6.6
5.1
3.64
2.15
0.58
-1.09
-2.8
-4.5
-6.13
-7.68
-9.14
-10.5
-11.78
-13.08
-14.52
-16.15
-17.96
-19.77
-21.37
-22.63
-23.58
-24.49
-25.83
-28.06
-31.48
-35.95
-40.76
-44.65
-46.11
-43.87
-37.39
-27.21
-14.82
-2.22
8.73
16.88
21.95
24.32
24.66
23.56
21.43
18.58
15.43
12.47
10.21
8.96
8.7
9.11
9.77
10.33
10.68
10.85
10.96
11.05
11
10.61
9.69
8.18
6.19
3.99
1.85
-0.01
-1.52
-2.78
-3.94
-5.16
-6.54
-8.03
-9.51
-10.81
-11.81
-12.48
-12.97
-13.53
-14.47
-15.96
-18.02
-20.43
-22.84
-24.87
-26.32
-27.19
-27.79
-28.6
-30.15
-32.86
-36.74
-41.28
-45.39
-47.6
-46.53
-41.37
-32.27
-20.35
-7.41
4.64
14.37
21.09
24.9
26.35
26.17
24.99
23.28
21.36
19.48
17.91
16.8
16.25
16.22
16.54
17.03
17.48
17.74
17.72
17.39
16.72
15.71
14.38
12.78
10.94
8.92
6.77
4.54
2.28
0.04
-2.14
-4.22
-6.17
-7.91
-9.42
-10.71
-11.93
-13.29
-15.01
-17.18
-19.73
-22.41
-24.92
-27.02
-28.67
-30.08
-31.57
-33.58
-36.5
-40.51
-45.4
-50.47
-54.5
-56
-53.69
-46.99
-36.37
-23.32
-9.89
1.96
10.89
16.48
19.15
19.74
19.17
18.09
16.85
15.57
14.39
13.49
13.08
13.29
14.05
15.07
15.9
16.24
16
15.41
14.83
14.54
14.53
14.49
13.98
12.63
10.37
7.46
4.41
1.75
-0.2
-1.41
-2.18
-2.98
-4.28
-6.33
-9.07
-12.17
-15.17
-17.66
-19.47
-20.73
-21.82
-23.23
-25.46
-28.85
-33.48
-38.95
-44.34
-48.23
-49.04
-45.58
-37.54
-25.75
-12.02
1.47
12.85
21.14
26.33
29.11
30.37
30.79
30.66
29.99
28.75
27.08
25.33
23.9
23.06
22.78
22.8
22.77
22.42
21.71
20.82
19.98
19.27
18.59
17.61
15.96
13.39
9.91
5.81
1.55
-2.35
-5.58
-8.14
-10.29
-12.51
-15.24
-18.7
-22.78
-27.09
-31.15
-34.55
-37.13
-39.05
-40.74
-42.81
-45.86
-50.29
-56.08
-62.61
-68.61
-72.37
-72.17
-66.84
-56.3
-41.69
-25.1
-8.93
4.81
15.13
22.06
26.44
29.36
31.7
33.88
35.91
37.61
38.82
39.57
40.02
40.38
40.77
41.17
41.48
41.54
41.26
40.67
39.83
38.81
37.61
36.15
34.3
31.98
29.19
26.04
22.68
19.27
15.99
12.94
10.19
7.71
5.43
3.18
0.77
-1.93
-4.99
-8.3
-11.66
-14.86
-17.71
-20.14
-22.2
-23.97
-25.66
-27.52
-29.86
-32.92
-36.59
-40.21
-42.46
-41.63
-36.2
-25.5
-10.19
7.8
25.81
41.35
52.76
59.6
62.46
62.46
60.68
57.89
54.47
50.62
46.52
42.4
38.56
35.22
32.46
30.24
28.41
26.76
25.1
23.27
21.14
18.7
15.98
13.09
10.09
6.97
3.6
-0.24
-4.73
-9.9
-15.51
-21.12
-26.18
-30.19
-32.88
-34.24
-34.46
-33.9
-32.92
-31.82
-30.78
-29.87
-29.1
-28.46
-28.02
-27.96
-28.59
-30.3
-33.43
-38.11
-44.04
-50.37
-55.69
-58.21
-56.27
-48.89
-36.14
-19.37
-0.8
17.05
32.07
43.07
49.87
53.06
53.6
52.38
50.07
47.1
43.75
40.23
36.77
33.52
30.51
27.69
24.98
22.37
20.04
18.22
17.08
16.55
16.26
15.61
14.03
11.22
7.28
2.67
-1.97
-6.13
-9.54
-12.31
-14.86
-17.71
-21.34
-25.92
-31.25
-36.82
-41.97
-46.2
-49.4
-51.93
-54.52
-58
-63
-69.59
-77.02
-83.82
-87.97
-87.58
-81.39
-69.42
-53.02
-34.49
-16.44
-0.94
10.93
19.16
24.5
27.96
30.41
32.38
34.06
35.46
36.57
37.45
38.26
39.14
40.15
41.16
41.87
41.94
41.19
39.72
37.88
36.15
34.86
34
33.22
32.01
29.86
26.58
22.35
17.65
13.12
9.27
6.31
4.08
2.09
-0.2
-3.19
-6.92
-11.1
-15.2
-18.77
-21.61
-23.83
-25.8
-28.05
-31.08
-35.28
-40.8
-47.28
-53.79
-58.77
-60.41
-57.21
-48.7
-35.75
-20.39
-5.21
7.61
16.88
22.63
25.72
27.28
28.21
28.89
29.35
29.48
29.29
28.95
28.81
29.15
30.09
31.51
33.1
34.49
35.37
35.63
35.31
34.53
33.39
31.85
29.81
27.13
23.81
19.98
15.94
12.09
8.78
6.25
4.48
3.29
2.32
1.18
-0.41
-2.58
-5.21
-8.02
-10.68
-12.91
-14.67
-16.1
-17.55
-19.43
-22.17
-26.07
-31.21
-37.27
-43.46
-48.49
-50.86
-49.25
-43.06
-32.66
-19.43
-5.39
7.45
17.59
24.41
28.12
29.49
29.48
28.88
28.18
27.6
27.13
26.73
26.39
26.12
25.95
25.93
26.09
26.46
27.04
27.79
28.57
29.11
29.14
28.4
26.82
24.54
21.81
18.96
16.18
13.55
10.97
8.32
5.46
2.32
-1.01
-4.4
-7.68
-10.7
-13.48
-16.16
-19.08
-22.69
-27.34
-33.11
-39.51
-45.49
-49.53
-50.14
-46.35
-38.14
-26.52
-13.28
-0.43
10.41
18.41
23.56
26.46
27.94
28.67
29.09
29.36
29.53
29.68
29.89
30.24
30.68
31.05
31.12
30.78
30.09
29.29
28.67
28.4
28.4
28.41
28.08
27.16
25.59
23.46
20.95
18.23
15.43
12.65
10.02
7.69
5.83
4.58
4.01
4.1
4.68
5.38
5.66
4.87
2.47
-1.68
-7.13
-12.85
-17.45
-19.65
-18.69
-14.62
-8.31
-1.11
5.6
10.78
14.04
15.55
15.8
15.34
14.51
13.39
11.92
10.09
8.01
5.97
4.31
3.3
3.01
3.37
4.18
5.23
6.39
7.6
8.86
10.18
11.52
12.82
13.92
14.69
15.01
14.76
13.86
12.18
9.54
5.74
0.71
-5.42
-12.15
-18.77
-24.45
-28.58
-30.9
-31.67
-31.59
-31.59
-32.55
-35.04
-39.01
-43.69
-47.68
-49.35
-47.39
-41.25
-31.45
-19.31
-6.52
5.5
15.9
24.4
31.05
35.95
39.07
40.3
39.66
37.45
34.21
30.58
27.07
23.96
21.3
19.01
16.99
15.18
13.58
12.17
10.91
9.7
8.45
7.06
5.49
3.74
1.88
-0.01
-1.85
-3.63
-5.45
-7.49
-9.93
-12.81
-15.94
-18.88
-21.04
-21.91
-21.23
-19.17
-16.32
-13.57
-11.81
-11.61
-12.86
-14.77
-16.02
-15.32
-11.92
-6.02
1.29
8.49
14.2
17.68
18.9
18.37
16.78
14.62
12.17
9.54
6.85
4.28
2.02
0.17
-1.25
-2.32
-3.12
-3.7
-4.08
-4.28
-4.34
-4.43
-4.75
-5.53
-6.93
-9.01
-11.7
-14.82
-18.11
-21.32
-24.17
-26.48
-28.09
-29.02
-29.41
-29.49
-29.6
-30.02
-30.88
-32.26
-34.1
-36.32
-38.76
-41.03
-42.46
-42.21
-39.48
-33.95
-25.98
-16.6
-7.14
1.19
7.69
12.34
15.5
17.68
19.21
20.17
20.54
20.3
19.6
18.75
18.04
17.69
17.69
17.88
18.03
17.92
17.48
16.75
15.85
14.91
13.94
12.88
11.64
10.15
8.41
6.54
4.68
2.93
1.27
-0.38
-2.21
-4.32
-6.71
-9.23
-11.61
-13.62
-15.16
-16.35
-17.55
-19.29
-22.03
-26.01
-30.98
-36.13
-40.2
-41.77
-39.75
-33.79
-24.46
-13.2
-1.85
7.88
14.94
19.1
20.88
21.17
20.81
20.33
19.93
19.56
19.14
18.71
18.42
18.4
18.66
19.06
19.34
19.3
18.88
18.23
17.58
17.12
16.89
16.69
16.19
15.06
13.18
10.61
7.69
4.83
2.34
0.35
-1.23
-2.7
-4.37
-6.44
-8.96
-11.8
-14.68
-17.3
-19.42
-20.94
-21.97
-22.84
-24.02
-26.04
-29.28
-33.75
-38.96
-43.85
-47.04
-47.23
-43.69
-36.58
-26.99
-16.6
-7.15
0.11
4.69
6.85
7.28
6.79
6.01
5.37
5.1
5.38
6.29
7.77
9.65
11.55
13.06
13.8
13.59
12.5
10.78
8.8
6.89
5.23
3.79
2.4
0.78
-1.26
-3.74
-6.38
-8.71
-10.19
-10.4
-9.3
-7.23
-4.84
-2.93
-2.18
-3.02
-5.54
-9.48
-14.32
-19.45
-24.22
-28.21
-31.25
-33.41
-34.87
-35.7
-35.77
-34.77
-32.38
-28.61
-24.02
-19.67
-16.77
-16.24
-18.15
-21.6
-24.89
-26.19
-23.93
-17.18
-5.75
10.03
29.27
50.48
71.41
89.29
101.46
106.41
104.43
97.59
88.98
81.29
75.77
71.8
67.46
60.63
50.18
36.6
21.84
8.61
-0.72
-4.86
-4.06
0.02
4.91
8.07
7.7
3.08
-5.37
-16.68
-29.71
-43.44
-57.06
-69.92
-81.65
-92.34
-102.56
-113.1
-124.35
-135.5
-144.17
-146.8
-139.62
-120.1
-88.07
-46.03
1.4
48.79
91.25
125.45
149.97
165.06
171.93
172.04
166.64
156.81
143.84
129.56
116.28
106.24
100.7
99.49
101.08
103.36
104.66
104.36
102.9
101.23
100.08
99.68
99.72
99.79
99.6
99
97.73
95.35
91.24
85.03
76.92
67.73
58.56
50.16
42.41
34.27
24.25
11.23
-4.8
-22.42
-39.12
-52.16
-59.65
-61.34
-58.81
-54.93
-52.82
-54.72
-61.11
-70.64
-80.72
-88.58
-92.34
-91.58
-87.45
-82.15
-78.23
-77.82
-81.98
-90.17
-100.21
-108.76
-112.4
-109.12
-99.32
-85.98
-73.59
-66.5
-67.09
-75.15
-88.32
-103.39
-117.71
-129.74
-138.81
-144.57
-146.64
-144.86
-139.93
-133.68
-128.62
-127.01
-129.65
-135.32
-141.27
-144.4
-142.68
-135.98
-125.92
-114.83
-104.55
-95.54
-86.95
-77.28
-65.38
-51.15
-35.67
-20.66
-7.81
1.92
8.49
12.57
15.05
16.54
17.18
16.68
14.77
11.6
7.98
5.24
4.68
7
11.93
18.33
24.74
30.01
33.74
36.25
38.25
40.38
42.8
45.11
46.5
46.04
43.04
37.33
29.46
20.49
11.76
4.32
-1.44
-5.98
-10.33
-15.54
-22.12
-29.6
-36.73
-41.81
-43.45
-41.08
-35.15
-26.94
-17.97
-9.53
-2.27
3.69
8.56
12.48
15.41
17.2
17.76
17.2
15.77
13.82
11.63
9.48
7.6
6.22
5.47
5.19
4.99
4.46
3.45
2.4
2.21
3.88
7.93
14.17
21.61
28.94
35.01
39.22
41.64
42.79
43.32
43.63
43.62
42.64
39.59
33.29
22.81
7.75
-11.59
-34.17
-58.4
-82.3
-103.82
-121.1
-132.7
-137.67
-135.4
-125.55
-107.93
-82.91
-51.74
-16.92
17.97
49.13
73.64
90.32
99.99
104.91
107.77
110.92
115.9
123.53
134.03
146.98
161.23
174.72
184.82
189.12
186.38
177.09
163.47
148.69
135.92
127.46
124.48
127.08
134.56
145.56
158.05
169.33
176.36
176.36
167.72
150.55
126.73
99.29
71.54
46.1
24.53
7.22
-6.14
-16.18
-23.4
-28.07
-30.3
-30.25
-28.33
-25.21
-21.66
-18.38
-15.78
-13.99
-13.03
-12.99
-14.03
-16.3
-19.52
-22.68
-24.06
-21.69
-14.11
-1.16
15.7
33.76
49.94
61.89
68.56
70.24
68.02
63.03
55.94
47
36.34
24.32
11.56
-1.42
-14.51
-28.17
-43.02
-59.29
-76.2
-92.04
-104.56
-111.96
-113.61
-110.36
-104.2
-97.49
-92.11
-89
-88.1
-88.62
-89.45
-89.32
-86.91
-80.89
-70.05
-53.53
-31.22
-3.93
26.59
57.9
87.34
112.51
131.59
143.58
148.26
146.1
137.99
125.05
108.5
89.75
70.4
52.2
36.86
25.71
19.36
17.56
19.24
22.82
26.77
30
32.12
33.39
34.38
35.51
36.77
37.79
38.12
37.63
36.83
36.74
38.52
42.94
50
58.93
68.53
77.62
85.36
91.39
95.59
97.88
97.87
95.05
88.93
79.43
67.1
53.04
38.41
23.86
9.15
-6.65
-24.51
-44.64
-66.08
-87.01
-105.64
-121.18
-134.34
-146.81
-160.28
-175.16
-189.99
-201.75
-207.02
-203.44
-190.7
-170.82
-147.35
-124.05
-103.6
-86.87
-73.1
-60.79
-48.79
-36.93
-25.97
-16.97
-10.5
-6.18
-2.86
0.71
5.17
10.16
14.52
16.9
16.55
13.75
9.81
6.54
5.51
7.36
11.6
16.81
21.39
24.11
24.56
23.03
20.18
16.63
12.71
8.52
4.11
-0.43
-4.96
-9.28
-13.31
-17
-20.21
-22.55
-23.47
-22.41
-19.09
-13.67
-6.74
0.93
8.54
15.51
21.43
25.88
28.38
28.43
25.75
20.53
13.53
5.96
-0.79
-5.65
-8.13
-8.51
-7.69
-6.87
-7.12
-9.03
-12.54
-17.04
-21.67
-25.67
-28.61
-30.44
-31.44
-32
-32.53
-33.37
-34.74
-36.64
-38.89
-41.14
-43.07
-44.65
-46.23
-48.49
-52.19
-57.8
-65.26
-73.94
-82.69
-90.08
-94.64
-95.19
-91.06
-82.45
-70.31
-56.23
-41.87
-28.58
-17.08
-7.53
0.25
6.44
11.19
14.59
16.9
18.55
20.06
21.81
23.93
26.26
28.51
30.46
32.15
33.82
35.75
37.97
40
40.86
39.4
34.69
26.61
16.01
4.62
-5.6
-13.03
-16.88
-17.29
-15.04
-11.24
-6.96
-3.14
-0.47
0.66
0.3
-0.99
-2.24
-2.33
-0.22
4.7
12.51
22.75
34.47
46.43
57.19
65.4
70.02
70.45
66.59
58.73
47.56
34.04
19.39
5.04
-7.65
-17.57
-24.21
-27.61
-28.31
-27.01
-24.42
-21.02
-17.18
-13.1
-8.94
-4.85
-0.93
2.69
5.85
8.37
10.07
10.79
10.44
9.05
6.68
3.36
-0.92
-6.27
-12.83
-20.65
-29.64
-39.31
-48.78
-56.87
-62.34
-64.29
-62.5
-57.5
-50.4
-42.56
-35.13
-28.86
-24.04
-20.68
-18.73
-18.08
-18.57
-19.85
-21.37
-22.54
-22.92
-22.42
-21.27
-19.84
-18.45
-17.19
-15.96
-14.56
-12.89
-11.05
-9.26
-7.85
-7.12
-7.27
-8.38
-10.39
-13.09
-16.21
-19.47
-22.68
-25.82
-29.07
-32.8
-37.41
-43.19
-50.07
-57.45
-64.14
-68.62
-69.4
-65.6
-57.28
-45.5
-31.94
-18.35
-6.05
4.32
12.74
19.43
24.62
28.41
30.83
32.01
32.25
32.02
31.73
31.6
31.53
31.18
30.17
28.29
25.63
22.59
19.72
17.5
16.12
15.34
14.6
13.14
10.37
6.04
0.39
-5.97
-12.29
-17.97
-22.78
-26.91
-30.89
-35.38
-40.92
-47.76
-55.56
-63.34
-69.51
-72.28
-70.19
-62.67
-50.31
-34.76
-18.24
-2.77
10.25
20.32
27.61
32.71
36.23
38.6
40.08
40.84
41.01
40.77
40.31
39.84
39.46
39.17
38.84
38.29
37.37
36.09
34.53
32.94
31.47
30.14
28.79
27.07
24.56
20.98
16.27
10.68
4.68
-1.17
-6.4
-10.86
-14.74
-18.51
-22.79
-28.11
-34.76
-42.56
-50.77
-58.17
-63.25
-64.6
-61.29
-53.22
-41.14
-26.52
-11.07
3.57
16.23
26.28
33.64
38.6
41.72
43.55
44.55
44.97
44.86
44.21
43.09
41.74
40.53
39.76
39.57
39.78
40.04
39.97
39.37
38.22
36.66
34.81
32.69
30.18
27.14
23.45
19.13
14.27
9
3.48
-2.15
-7.7
-12.99
-17.88
-22.42
-26.83
-31.49
-36.85
-43.26
-50.74
-58.8
-66.32
-71.67
-73.12
-69.36
-60.1
-46.25
-29.83
-13.31
1.1
12.02
19.16
23.05
24.66
24.93
24.46
23.52
22.13
20.18
17.63
14.53
11.02
7.28
3.45
-0.51
-4.8
-9.8
-15.98
-23.77
-33.32
-44.41
-56.3
-67.86
-77.78
-84.97
-88.78
-89.28
-87.24
-83.98
-81.02
-79.67
-80.48
-82.76
-84.43
-82.44
-73.86
-57.15
-33.19
-5.26
22
44.25
59.01
66.22
67.68
65.9
62.95
60.08
57.94
57.13
58.34
62.04
67.98
74.99
81.42
86.02
88.65
90.48
93.36
98.8
107.04
116.83
125.92
132.04
133.88
131.49
126.1
119.4
112.81
107.05
102.19
98
94.41
91.68
90.23
90.36
91.91
94.25
96.5
97.91
98.07
96.99
94.83
91.71
87.6
82.37
76.06
69.02
61.87
55.21
49.24
43.6
37.36
29.37
18.7
5.05
-11.07
-28.37
-45.06
-59.33
-69.73
-75.58
-76.98
-74.69
-69.67
-62.72
-54.29
-44.6
-33.93
-22.94
-12.66
-4.21
1.64
4.85
6.09
6.44
6.86
7.81
9.1
10.18
10.55
10.15
9.51
9.63
11.52
15.77
22.02
28.86
34.04
35.11
30.32
19.34
3.66
-13.85
-29.69
-40.95
-46.18
-45.82
-42.08
-38.23
-37.6
-42.5
-53.39
-68.52
-84.52
-97.46
-104.16
-103.29
-95.6
-83.48
-70.05
-58.14
-49.59
-44.84
-42.92
-41.82
-39.28
-33.73
-25.02
-14.6
-4.79
2.43
6.44
8.31
10.12
13.73
19.9
28.09
37.1
45.94
54.32
62.59
71.13
79.87
88.28
95.89
102.97
110.87
121.61
136.72
155.98
176.83
195
206.35
208.98
204.43
197.17
192.74
195.35
206.33
223.93
244.41
263.48
277.53
284.05
281.69
270.13
250.01
223.01
191.54
158.29
125.69
95.42
68.39
44.8
24.29
6.07
-10.94
-27.72
-44.7
-61.5
-77.04
-90.1
-99.87
-106.36
-110.45
-113.43
-116.6
-120.79
-126.11
-132.05
-137.71
-142.21
-144.98
-145.98
-145.62
-144.55
-143.28
-141.98
-140.42
-138.17
-134.86
-130.46
-125.25
-119.66
-114.01
-108.39
-102.68
-96.72
-90.54
-84.38
-78.65
-73.82
-70.17
-67.73
-66.23
-65.16
-64.02
-62.4
-60.17
-57.51
-54.88
-52.76
-51.59
-51.62
-52.94
-55.5
-59.11
-63.35
-67.48
-70.5
-71.41
-69.55
-64.92
-58.26
-50.77
-43.68
-37.85
-33.59
-30.73
-28.89
-27.73
-27.03
-26.68
-26.6
-26.61
-26.49
-26.08
-25.37
-24.52
-23.8
-23.44
-23.49
-23.78
-24.01
-23.88
-23.28
-22.32
-21.33
-20.68
-20.59
-21.07
-21.93
-22.87
-23.64
-24.15
-24.43
-24.59
-24.81
-25.18
-25.74
-26.4
-27.06
-27.59
-27.99
-28.39
-29
-30.1
-31.83
-34.12
-36.6
-38.71
-39.79
-39.33
-37.11
-33.27
-28.26
-22.7
-17.24
-12.37
-8.38
-5.3
-2.96
-1.16
0.31
1.56
2.62
3.49
4.17
4.68
5.05
5.26
5.23
4.87
4.09
2.94
1.55
0.17
-0.91
-1.52
-1.67
-1.56
-1.55
-2.02
-3.16
-4.92
-6.97
-8.86
-10.26
-11.06
-11.49
-11.94
-12.8
-14.23
-16.19
-18.37
-20.43
-22.1
-23.34
-24.29
-25.26
-26.61
-28.59
-31.34
-34.66
-38.04
-40.68
-41.61
-40.04
-35.63
-28.67
-20.04
-10.91
-2.4
4.72
10.17
14
16.53
18.09
19.02
19.6
19.99
20.31
20.49
20.44
20.1
19.5
18.83
18.28
18.02
18.07
18.32
18.64
18.9
19.05
19.09
19
18.74
18.23
17.37
16.1
14.43
12.51
10.5
8.57
6.8
5.13
3.42
1.53
-0.64
-3.09
-5.73
-8.41
-10.99
-13.35
-15.36
-17.01
-18.4
-19.8
-21.61
-24.24
-27.84
-32.07
-36.06
-38.63
-38.62
-35.4
-29.11
-20.72
-11.65
-3.39
3.01
7.13
9.13
9.48
8.76
7.36
5.52
3.3
0.75
-2.03
-4.86
-7.53
-9.87
-11.92
-13.88
-16.1
-18.88
-22.35
-26.4
-30.72
-34.91
-38.65
-41.82
-44.55
-47.23
-50.35
-54.35
-59.34
-64.85
-69.76
-72.44
-71.3
-65.34
-54.72
-40.81
-25.8
-11.98
-0.96
6.79
11.87
15.51
18.97
23.07
27.92
33.1
37.85
41.29
42.64
41.44
37.91
33.29
29.83
30.23
36.63
49.48
67.07
85.86
101.7
111.36
113.54
108.94
99.54
87.47
74.15
60.12
45.48
30.51
16.11
3.63
-5.6
-11.06
-13.43
-14.56
-16.9
-22.46
-32.12
-45.16
-59.59
-72.81
-82.42
-86.8
-85.3
-78.18
-66.37
-51.18
-34.17
-16.83
-0.47
13.94
25.77
34.64
40.3
42.64
41.75
38.11
32.66
26.58
21.07
16.87
14.1
12.27
10.47
7.72
3.25
-3.27
-11.51
-20.29
-27.52
-30.35
-25.87
-12.03
11.31
41.9
75.35
106.42
130.61
145.58
151.53
150.62
145.69
139.02
131.72
123.96
115.53
106.54
97.44
88.68
80.33
71.74
61.96
50.28
36.82
22.7
9.58
-0.97
-8.24
-12.63
-15.4
-18.04
-21.57
-26.21
-31.36
-36.14
-39.81
-42.26
-43.92
-45.57
-47.95
-51.44
-55.98
-61.12
-66.26
-70.86
-74.6
-77.4
-79.46
-81.18
-83.06
-85.52
-88.75
-92.44
-95.71
-97.25
-95.67
-90.02
-80.15
-66.85
-51.62
-36.1
-21.64
-8.99
1.65
10.39
17.38
22.74
26.63
29.27
31.08
32.41
33.52
34.43
35.04
35.2
34.84
34.02
32.83
31.42
29.78
27.93
25.79
23.35
20.56
17.42
14
10.42
6.9
3.65
0.78
-1.75
-4.1
-6.53
-9.19
-12.13
-15.29
-18.57
-21.87
-25.13
-28.33
-31.5
-34.8
-38.51
-42.94
-48.21
-54.01
-59.49
-63.38
-64.4
-61.68
-55.12
-45.36
-33.51
-20.85
-8.4
3.12
13.28
21.82
28.63
33.63
36.91
38.69
39.34
39.28
38.92
38.54
38.29
38.2
38.19
38.19
38.09
37.8
37.16
36.02
34.25
31.78
28.65
24.94
20.72
16.01
10.88
5.51
0.23
-4.56
-8.56
-11.77
-14.45
-17.12
-20.22
-23.94
-28.13
-32.38
-36.17
-39.17
-41.35
-43.05
-44.92
-47.7
-52.03
-58.13
-65.65
-73.64
-80.52
-84.48
-83.82
-77.39
-65.07
-47.88
-27.83
-7.37
11.3
26.82
38.86
47.91
54.72
59.87
63.51
65.47
65.61
64.12
61.61
58.88
56.63
55.2
54.48
54.04
53.31
51.84
49.44
46.18
42.33
38.14
33.78
29.18
24.12
18.37
11.84
4.64
-2.9
-10.35
-17.36
-23.73
-29.54
-35.12
-40.94
-47.47
-55
-63.5
-72.53
-81.46
-89.65
-96.73
-102.85
-108.6
-114.89
-122.59
-132.16
-143.39
-155.16
-165.47
-171.57
-170.47
-159.67
-138.05
-106.41
-67.49
-25.28
16.17
53.88
86.42
113.78
136.57
155.21
169.62
179.37
184.25
184.71
181.88
177.09
171.29
164.68
156.75
146.69
133.98
118.69
101.51
83.48
65.57
48.27
31.3
13.58
-6.58
-30.9
-60.41
-94.8
-132.22
-169.69
-203.95
-232.29
-253.04
-265.42
-269.07
-263.64
-248.74
-224.39
-191.54
-152.41
-110.36
-69.24
-32.61
-2.93
19.11
34.78
47.08
59.93
76.89
99.88
128.52
160.28
191.49
218.67
239.55
253.33
260.34
261.32
257.07
248.36
236.11
221.53
205.95
190.55
176
162.45
149.63
137.17
124.84
112.75
101.26
90.94
82.26
75.33
69.71
64.26
57.33
47.26
33.02
14.76
-6.16
-27.43
-46.62
-61.93
-72.69
-79.42
-83.47
-86.36
-89.22
-92.41
-95.64
-98.25
-99.71
-99.94
-99.39
-98.85
-99.27
-101.43
-105.78
-112.23
-119.93
-127.02
-130.72
-127.86
-115.83
-93.75
-63.11
-27.67
7.7
38.49
61.96
77.59
86.67
91.27
93.16
93.27
91.86
88.93
84.7
79.76
74.83
70.44
66.65
63.13
59.36
55.06
50.35
45.73
41.81
38.98
37.15
35.74
33.93
30.94
26.37
20.34
13.41
6.36
-0.09
-5.55
-10.08
-14.11
-18.33
-23.31
-29.36
-36.33
-43.64
-50.51
-56.25
-60.54
-63.54
-65.92
-68.54
-72.3
-77.77
-84.95
-93.1
-100.71
-105.66
-105.69
-99.07
-85.2
-65
-40.79
-15.67
7.38
26.32
40.4
49.96
55.97
59.45
61.05
61.14
59.92
57.73
55.04
52.38
50.19
48.56
47.3
46.01
44.33
42.05
39.19
35.95
32.59
29.23
25.78
21.98
17.51
12.16
6.01
-0.58
-7.03
-12.8
-17.55
-21.29
-24.36
-27.26
-30.41
-34
-37.85
-41.49
-44.34
-45.84
-45.71
-44.07
-41.48
-38.82
-37.11
-37.28
-39.83
-44.56
-50.45
-55.77
-58.47
-56.74
-49.57
-37.17
-20.94
-3.09
14.01
28.44
39.15
45.99
49.47
50.29
49.12
46.44
42.59
38.01
33.25
28.91
25.51
23.26
22
21.3
20.67
19.78
18.55
17.12
15.66
14.22
12.72
10.95
8.75
6.09
3.15
0.18
-2.57
-5
-7.21
-9.49
-12.15
-15.44
-19.35
-23.61
-27.75
-31.33
-34.04
-35.9
-37.18
-38.37
-39.94
-42.23
-45.27
-48.66
-51.54
-52.75
-51.08
-45.67
-36.38
-23.93
-9.83
4.09
16.16
25.36
31.35
34.44
35.24
34.41
32.47
29.81
26.78
23.77
21.21
19.49
18.84
19.23
20.38
21.84
23.14
23.94
24.05
23.43
22.13
20.23
17.84
15.03
11.88
8.44
4.77
0.88
-3.14
-7.17
-11.05
-14.65
-17.92
-20.99
-24.03
-27.31
-31.11
-35.6
-40.8
-46.43
-51.81
-55.87
-57.32
-55.05
-48.53
-38.18
-25.33
-11.86
0.33
9.9
16.24
19.44
19.97
18.36
15.07
10.49
5.05
-0.73
-6.25
-11.04
-14.89
-17.94
-20.67
-23.67
-27.45
-32.19
-37.63
-43.21
-48.34
-52.76
-56.7
-60.88
-66.14
-72.97
-81.22
-90.07
-98.39
-105.27
-110.33
-113.71
-115.82
-116.94
-117.07
-115.83
-112.47
-105.84
-94.28
-75.9
-49.17
-13.73
28.75
74.48
118.29
154.99
180.86
194.54
197.05
190.86
178.7
162.44
142.68
118.99
90.73
57.97
21.92
-15.16
-50.61
-82.07
-107.93
-127.17
-138.86
-141.91
-135.28
-118.7
-93.53
-62.92
-31.17
-2.46
20.48
36.99
48.06
55.44
60.56
63.93
65.25
63.86
59.28
51.64
41.88
31.82
24.1
21.7
27.09
41.29
63.13
89.32
115.48
137.63
153.51
163.11
168.07
170.45
171.63
171.88
170.59
167.12
161.21
152.98
142.42
128.91
111.36
88.88
61.66
31.4
1.05
-26.3
-48.56
-65.42
-78.22
-89.09
-99.83
-111.11
-122.45
-132.65
-140.56
-145.6
-147.92
-148.19
-147.37
-146.36
-145.83
-146.12
-147.03
-147.82
-147.18
-143.47
-135.2
-121.49
-102.47
-79.42
-54.44
-29.9
-7.89
10.32
24.32
34.44
41.43
46.17
49.5
52.1
54.45
56.79
59.15
61.32
62.99
63.81
63.62
62.5
60.71
58.61
56.43
54.15
51.43
47.71
42.46
35.42
26.83
17.43
8.23
0.15
-6.35
-11.46
-16.01
-21.08
-27.63
-36.04
-45.91
-55.96
-64.26
-68.59
-67
-58.44
-43.21
-23
-0.62
20.84
38.8
51.78
59.52
62.73
62.5
59.91
55.82
50.91
45.85
41.31
37.92
36.02
35.48
35.73
35.96
35.46
33.92
31.52
28.74
26.06
23.65
21.18
17.98
13.34
6.95
-0.94
-9.53
-17.79
-24.87
-30.4
-34.63
-38.27
-42.2
-47.15
-53.46
-60.89
-68.6
-75.12
-78.6
-77.17
-69.49
-55.33
-35.84
-13.42
8.91
28.4
43.31
53.22
58.8
61.23
61.55
60.42
58.09
54.83
51.06
47.5
44.88
43.59
43.56
44.22
44.8
44.64
43.44
41.25
38.37
35.09
31.46
27.23
21.98
15.26
6.92
-2.71
-12.89
-22.57
-30.84
-37.24
-41.99
-45.94
-50.29
-56.15
-64.13
-74.02
-84.69
-94.18
-100.16
-100.42
-93.55
-79.43
-59.46
-36.29
-13.12
7.14
22.6
32.73
38.15
40.12
39.95
38.54
36.34
33.57
30.47
27.46
25.02
23.49
22.89
22.87
23
23.04
23.15
23.79
25.48
28.38
32.11
35.77
38.29
38.84
37.18
33.68
29.11
24.3
19.76
15.51
11.13
5.96
-0.6
-8.89
-18.76
-29.49
-39.76
-47.81
-51.74
-50.05
-42.19
-28.91
-12.21
5.19
20.66
32.46
40.05
44
45.48
45.62
45.09
44.01
42.2
39.46
35.83
31.55
27.03
22.57
18.33
14.35
10.66
7.32
4.51
2.37
0.89
-0.19
-1.23
-2.67
-4.71
-7.34
-10.33
-13.43
-16.49
-19.53
-22.67
-26.01
-29.5
-32.96
-36.11
-38.76
-40.89
-42.67
-44.43
-46.57
-49.47
-53.37
-58.15
-63.08
-66.81
-67.56
-63.65
-54.25
-39.83
-22.22
-4.03
12.23
24.9
33.52
38.66
41.34
42.48
42.58
41.8
40.2
37.96
35.46
33.14
31.32
29.99
28.85
27.48
25.52
22.93
19.94
16.93
14.22
11.86
9.62
7.06
3.79
-0.37
-5.25
-10.43
-15.38
-19.67
-23.17
-26.11
-29
-32.39
-36.61
-41.58
-46.83
-51.65
-55.47
-58.11
-59.86
-61.41
-63.62
-67.15
-72.24
-78.47
-84.72
-89.29
-90.31
-86.27
-76.6
-62.07
-44.66
-27.02
-11.61
-0.07
7.13
10.54
11.21
10.19
8.34
6.28
4.58
3.82
4.61
7.39
12.27
19.03
27.11
35.83
44.54
52.63
59.65
65.25
69.18
71.25
71.32
69.3
65.24
59.36
52.07
44.03
35.97
28.6
22.34
17.22
12.88
8.69
4.01
-1.55
-7.94
-14.67
-20.99
-26.18
-29.8
-31.87
-32.87
-33.6
-34.98
-37.79
-42.3
-48.13
-54.03
-58.09
-58.13
-52.42
-40.35
-22.8
-1.97
19.24
38.14
52.91
62.91
68.48
70.51
69.9
67.35
63.3
58.12
52.23
46.19
40.59
35.94
32.48
30.11
28.36
26.57
24.08
20.49
15.84
10.69
5.87
2.35
0.82
1.54
4.27
8.36
12.98
17.33
20.73
22.68
22.81
20.78
16.34
9.5
0.64
-9.37
-19.35
-28.09
-34.74
-39.12
-41.7
-43.48
-45.52
-48.65
-53.26
-59.3
-66.25
-73.13
-78.59
-81.02
-78.95
-71.59
-59.22
-43.28
-26
-9.67
4.1
14.74
22.63
28.61
33.43
37.35
40.23
41.75
41.77
40.49
38.44
36.22
34.32
32.94
32.07
31.51
31.01
30.34
29.29
27.74
25.7
23.32
20.87
18.62
16.72
15.13
13.66
12.02
9.97
7.38
4.25
0.71
-3.04
-6.78
-10.31
-13.57
-16.69
-20.04
-24.09
-29.24
-35.49
-42.26
-48.37
-52.27
-52.58
-48.62
-40.74
-30.26
-19.13
-9.23
-1.89
2.44
4.05
3.65
1.99
-0.38
-3.14
-6.17
-9.37
-12.66
-15.91
-19.05
-21.99
-24.68
-27.08
-29.19
-31.1
-33.03
-35.27
-38.21
-42.07
-46.91
-52.46
-58.24
-63.6
-67.86
-70.44
-70.89
-68.99
-64.77
-58.61
-51.26
-43.71
-37.03
-32.14
-29.6
-29.63
-32.15
-36.95
-43.66
-51.57
-59.34
-64.9
-65.6
-58.92
-43.28
-18.78
12.72
48.07
83.83
117.26
146.83
172.12
193.21
209.97
221.76
227.63
226.83
219.27
205.79
187.75
166.68
143.75
119.72
95.03
70.11
45.59
22.25
0.9
-17.89
-33.9
-47.24
-58.24
-67.35
-75.03
-81.7
-87.8
-93.71
-99.72
-105.95
-112.28
-118.36
-123.66
-127.75
-130.42
-131.97
-133.43
-136.56
-143.59
-156.62
-176.71
-203.12
-232.96
-261.67
-284.11
-295.97
-294.91
-281.01
-256.41
-224.47
-188.65
-151.86
-116.06
-82.25
-50.63
-20.92
7.42
34.82
61.31
86.5
109.6
129.72
146.02
157.9
165.11
167.64
165.77
160.08
151.54
141.38
130.97
121.59
114.13
108.95
105.81
103.85
101.77
98.13
91.78
82.39
70.69
58.23
46.84
37.74
31.11
25.99
20.88
14.62
7.52
1.33
-1.08
3.52
17.93
43.49
79.25
121.49
163.99
199.54
221.17
223.91
206.01
169.35
118.75
60.37
0.05
-57.69
-109.11
-151.89
-185.05
-208.85
-224.38
-233.31
-237.58
-238.72
-237.12
-229.74
-213.26
-186.36
-150.71
-109.72
-66.88
-24.6
16.05
55
96.33
141.83
188.5
229.65
259.21
275.14
279.44
276.21
269.43
268.03
276.69
293.09
309.92
321.14
325.91
327.89
331.98
341.85
367.49
413.85
477.47
548.21
615.86
674.25
720.32
751.69
714.81
584.25
379.95
157.65
-32.65
-170.44
-258.75
-310.48
-338.52
-355.66
-359.75
-348.07
-324.1
-297.82
-279.59
-275.55
-284.29
-302.4
-325.35
-341.66
-343.03
-328.48
-303.96
-277.31
-253.84
-235.59
-222.63
-213.7
-202.69
-185.52
-162.62
-138.56
-118.37
-104.6
-97.06
-94.16
-93.84
-92.18
-86.82
-77.97
-67.77
-58.45
-50.95
-44.96
-39.86
-35.06
-29.5
-22.82
-15.57
-8.95
-4.07
-1.39
-0.66
-1.26
-2.35
-3.18
-3.37
-2.94
-2.31
-1.95
-2.17
-2.96
-4.06
-5.11
-5.84
-6.16
-6.17
-6.01
-5.7
-5.21
-4.45
-3.36
-1.99
-0.48
1.01
2.32
3.39
4.16
4.5
4.27
3.27
1.45
-0.94
-3.35
-5.03
-5.34
-3.99
-1.2
2.36
5.86
8.66
10.48
11.47
11.95
12.26
12.59
12.91
13.05
12.79
11.96
10.47
8.34
5.73
2.86
0.01
-2.55
-4.63
-6.19
-7.33
-8.29
-9.34
-10.72
-12.52
-14.66
-16.94
-19.07
-20.81
-22.09
-23.02
-23.83
-24.77
-25.96
-27.18
-28.03
-27.86
-26.1
-22.41
-16.89
-10.06
-2.78
3.97
9.41
13.08
14.93
15.2
14.3
12.62
10.46
8.01
5.42
2.84
0.4
-1.78
-3.68
-5.36
-6.93
-8.51
-10.14
-11.76
-13.19
-14.25
-14.8
-14.85
-14.53
-14.07
-13.73
-13.68
-13.96
-14.47
-15.03
-15.52
-15.97
-16.55
-17.48
-18.87
-20.58
-22.11
-22.81
-22.09
-19.69
-15.83
-11.15
-6.47
-2.46
0.52
2.47
3.57
3.98
3.81
3.09
1.92
0.55
-0.66
-1.41
-1.63
-1.51
-1.41
-1.65
-2.3
-3.19
-4.03
-4.6
-4.89
-5.13
-5.59
-6.44
-7.68
-9.14
-10.54
-11.67
-12.41
-12.81
-13.03
-13.35
-14.11
-15.59
-17.84
-20.51
-22.79
-23.63
-22.08
-17.63
-10.55
-1.71
7.63
16.27
23.36
28.51
31.75
33.36
33.76
33.46
32.98
32.72
32.86
33.27
33.55
33.24
31.97
29.72
26.74
23.39
20
16.57
12.93
8.71
3.66
-2.23
-8.69
-15.25
-21.41
-26.87
-31.63
-35.89
-40.01
-44.29
-48.93
-53.83
-58.64
-62.66
-64.97
-64.63
-60.99
-54.01
-44.36
-33.33
-22.4
-12.86
-5.41
-0.05
3.68
6.45
8.75
10.83
12.68
14.23
15.47
16.58
17.78
19.25
20.98
22.75
24.23
25.18
25.5
25.27
24.56
23.26
21.06
17.56
12.51
6.08
-1.13
-8.26
-14.54
-19.62
-23.66
-27.25
-31.08
-35.71
-41.28
-47.5
-53.59
-58.41
-60.54
-58.74
-52.3
-41.48
-27.52
-12.4
1.86
13.77
22.78
29.19
33.68
36.89
39.14
40.47
40.9
40.62
40.09
39.8
40.05
40.83
41.78
42.44
42.46
41.76
40.52
39.05
37.61
36.21
34.66
32.58
29.61
25.5
20.16
13.78
6.68
-0.69
-7.87
-14.48
-20.3
-25.31
-29.63
-33.52
-37.3
-41.4
-46.18
-51.88
-58.21
-64.27
-68.49
-69.07
-64.67
-54.97
-40.91
-24.47
-7.93
6.86
18.96
28.26
35.18
40.22
43.71
45.85
46.88
47.15
47.13
47.19
47.45
47.8
47.89
47.47
46.42
44.9
43.14
41.39
39.73
38
35.94
33.25
29.82
25.7
21.18
16.53
11.91
7.31
2.5
-2.75
-8.6
-14.95
-21.53
-27.92
-33.73
-38.79
-43.16
-47.17
-51.27
-55.97
-61.63
-68.27
-75.29
-81.42
-84.91
-83.98
-77.53
-65.63
-49.64
-31.81
-14.59
0.22
11.75
20.09
25.91
29.96
32.8
34.81
36.21
37.27
38.29
39.52
41.11
43.03
45.07
46.86
48.05
48.41
47.96
47.04
46.07
45.39
44.97
44.44
43.21
40.76
37.03
32.38
27.53
23.12
19.4
16.08
12.52
8.09
2.6
-3.61
-9.74
-14.91
-18.62
-20.9
-22.44
-24.16
-27.03
-31.63
-37.94
-45.28
-52.26
-57.14
-58.19
-54.3
-45.38
-32.51
-17.64
-3.01
9.5
18.87
24.96
28.3
29.64
29.65
28.75
27.24
25.35
23.47
21.98
21.23
21.32
22.03
22.93
23.56
23.64
23.18
22.4
21.55
20.71
19.75
18.43
16.51
13.96
10.91
7.6
4.3
1.09
-2.11
-5.49
-9.25
-13.44
-17.92
-22.36
-26.38
-29.68
-32.17
-34.04
-35.75
-37.92
-41.12
-45.7
-51.51
-57.76
-63.08
-65.77
-64.31
-57.87
-46.66
-31.94
-15.66
0.08
13.61
23.95
30.76
34.25
34.88
33.24
29.99
25.86
21.57
17.78
14.88
12.92
11.69
10.76
9.75
8.42
6.7
4.7
2.57
0.39
-1.84
-4.21
-6.84
-9.8
-13.06
-16.44
-19.59
-22.05
-23.3
-22.91
-20.59
-16.38
-10.53
-3.52
4.23
12.48
21.31
30.95
41.48
52.49
62.93
71.37
76.48
77.62
75.05
69.86
63.34
56.61
50.18
44.12
38.32
32.76
27.34
21.57
14.22
3.48
-12.39
-34.08
-60.58
-89.08
-115.74
-136.77
-149.54
-153.05
-147.84
-135.43
-117.71
-96.59
-73.9
-51.39
-30.75
-13.43
-0.38
8.13
12.49
13.58
12.48
10.2
7.42
4.54
1.71
-1.03
-3.72
-6.5
-9.56
-13.1
-17.12
-21.2
-24.41
-25.42
-22.75
-15.35
-2.9
13.92
33.45
53.47
71.7
86.39
96.58
102.22
103.9
102.52
99.01
94.14
88.43
82.13
75.17
67.15
57.54
45.99
32.75
18.85
5.9
-4.42
-11.02
-13.77
-13.54
-11.72
-9.7
-8.4
-8.08
-8.47
-9.07
-9.48
-9.5
-9.32
-9.3
-9.97
-11.83
-15.25
-20.28
-26.49
-32.88
-37.93
-40.03
-37.91
-31.29
-21
-8.83
3.12
13.15
20.41
25
27.57
28.88
29.4
29.28
28.51
27.15
25.52
24.07
23.28
23.36
24.21
25.47
26.66
27.43
27.65
27.38
26.75
25.79
24.34
22.11
18.79
14.26
8.66
2.39
-4.02
-10.06
-15.37
-19.89
-23.78
-27.45
-31.39
-36.1
-41.85
-48.62
-55.86
-62.58
-67.38
-68.82
-65.83
-58.14
-46.51
-32.56
-18.33
-5.64
4.41
11.61
16.47
19.73
21.99
23.45
24.09
23.85
22.92
21.78
21
20.93
21.59
22.66
23.67
24.22
24.13
23.47
22.44
21.24
19.93
18.41
16.5
14
10.79
6.88
2.42
-2.36
-7.19
-11.86
-16.25
-20.39
-24.43
-28.59
-33.07
-38.06
-43.61
-49.58
-55.51
-60.61
-63.75
-63.74
-59.72
-51.48
-39.73
-25.95
-11.93
0.65
10.78
18.14
23.06
26.15
28.01
29.04
29.47
29.46
29.16
28.84
28.69
28.82
29.11
29.32
29.13
28.4
27.18
25.72
24.28
22.95
21.55
19.7
17.01
13.28
8.55
3.07
-2.91
-9.19
-15.68
-22.29
-28.88
-35.21
-41.08
-46.39
-51.24
-55.95
-60.94
-66.59
-73.12
-80.53
-88.5
-96.31
-102.87
-106.82
-106.85
-102.07
-92.37
-78.51
-61.87
-44.1
-26.57
-10.09
5.08
18.96
31.63
43.06
53.12
61.67
68.8
74.77
79.9
84.53
88.78
92.62
95.87
98.39
100.14
101.14
101.45
100.98
99.46
96.45
91.63
84.83
76.3
66.59
56.42
46.47
37.12
28.43
20.14
11.85
3.21
-5.9
-15.24
-24.33
-32.65
-39.84
-45.95
-51.5
-57.3
-64.2
-72.68
-82.52
-92.65
-101.27
-106.29
-105.9
-99.23
-86.67
-69.87
-51.24
-33.2
-17.61
-5.4
3.4
9.27
12.84
14.68
15.23
14.86
14.07
13.37
13.23
13.96
15.53
17.64
19.77
21.41
22.18
21.94
20.71
18.62
15.8
12.3
8.18
3.58
-1.28
-6.11
-10.72
-15.13
-19.51
-24.22
-29.52
-35.43
-41.68
-47.81
-53.35
-58.07
-62.16
-66.23
-71.1
-77.45
-85.39
-94.18
-102.19
-107.12
-106.65
-99.1
-83.99
-62.32
-36.42
-9.33
15.9
36.97
52.83
63.57
70.18
73.87
75.7
76.32
76.11
75.38
74.58
74.21
74.61
75.73
77.16
78.23
78.36
77.38
75.46
73
70.24
67.1
63.29
58.45
52.55
45.97
39.43
33.7
29.22
25.92
23.25
20.44
16.92
12.55
7.68
3.02
-0.8
-3.49
-5.28
-6.93
-9.49
-13.92
-20.69
-29.41
-38.58
-45.76
-48.1
-43.18
-30.01
-9.56
15.21
40.22
61.51
76.42
84.17
85.71
82.83
77.29
70.22
62.05
52.86
42.81
32.32
21.92
11.94
2.2
-7.92
-19.18
-32.02
-46.18
-60.69
-74.09
-84.98
-92.39
-96.05
-96.33
-93.88
-89.26
-82.7
-74.16
-63.59
-51.45
-38.83
-27.4
-18.87
-14.38
-14.05
-16.85
-21.04
-24.75
-26.64
-26.29
-24.17
-21.48
-19.66
-20.08
-23.54
-29.84
-37.23
-42.34
-40.74
-28.29
-2.97
33.74
76.73
118.54
151.79
171.57
176.71
169.44
153.81
133.83
112.32
90.76
69.95
50.67
33.95
20.67
11.06
4.35
-0.94
-6.32
-12.6
-19.54
-26.01
-30.76
-33.27
-34.22
-35.37
-38.8
-45.93
-56.86
-70.21
-83.59
-94.47
-100.96
-102.21
-98.42
-90.53
-79.86
-67.78
-55.58
-44.35
-34.94
-27.84
-23.14
-20.64
-20.08
-21.32
-24.4
-29.53
-36.69
-45.36
-54.27
-61.56
-65.18
-63.5
-55.75
-42.26
-24.32
-3.71
17.71
38.41
57.39
74.16
88.6
100.73
110.63
118.29
123.69
126.96
128.37
128.37
127.45
125.87
123.58
120.3
115.73
109.88
103.21
96.48
90.44
85.49
81.55
78.09
74.44
70.09
64.83
58.82
52.48
46.3
40.72
35.91
31.73
27.61
22.67
15.9
6.31
-6.75
-23.45
-43.23
-64.86
-86.62
-106.68
-123.59
-136.58
-145.54
-150.61
-151.65
-147.97
-138.48
-122.33
-99.66
-71.99
-42
-12.72
13.3
34.6
50.83
62.35
69.67
73.1
72.77
68.87
61.92
52.86
42.93
33.41
25.29
19.12
14.88
11.9
8.88
4.02
-4.57
-18.32
-37.49
-60.86
-85.85
-109.12
-127.42
-138.52
-141.57
-137.14
-126.78
-112.56
-96.66
-81.02
-67.33
-56.89
-50.53
-48.61
-50.95
-56.94
-65.44
-74.87
-83.11
-87.8
-86.76
-78.56
-62.98
-41.16
-15.2
12.5
39.87
65.61
89.04
109.78
127.36
141.19
150.76
156.04
157.77
157.25
155.88
154.56
153.31
151.31
147.41
140.78
131.47
120.47
109.37
99.64
92.07
86.48
81.89
77.04
70.9
63.02
53.59
43.1
32.03
20.62
8.75
-3.8
-17.14
-31.01
-44.87
-58.03
-69.97
-80.37
-88.95
-95.31
-98.8
-98.75
-94.86
-87.68
-78.63
-69.64
-62.45
-57.99
-56.14
-56.06
-56.69
-57.28
-57.6
-57.76
-57.84
-57.78
-57.21
-55.75
-53.17
-49.52
-45.16
-40.62
-36.43
-33.02
-30.59
-29.03
-27.92
-26.66
-24.71
-21.9
-18.57
-15.49
-13.53
-13.28
-14.72
-17.33
-20.33
-23.13
-25.6
-28.01
-30.86
-34.59
-39.34
-44.94
-50.84
-56.16
-59.69
-60.14
-56.42
-48.15
-35.91
-21.23
-6.17
7.35
18.08
25.73
30.68
33.66
35.25
35.83
35.6
34.84
33.98
33.53
33.92
35.29
37.48
40.1
42.66
44.73
46.02
46.39
45.83
44.43
42.38
39.85
36.91
33.53
29.53
24.73
19.04
12.61
5.84
-0.69
-6.37
-10.82
-13.88
-15.75
-16.89
-17.92
-19.41
-21.78
-25.06
-28.76
-31.82
-32.74
-30.03
-22.74
-10.93
4.13
20.25
35.01
46.46
53.65
56.73
56.52
54.12
50.42
45.97
41.09
36.04
31.19
26.95
23.64
21.27
19.55
18.01
16.26
14.14
11.8
9.57
7.77
6.5
5.58
4.65
3.29
1.18
-1.78
-5.49
-9.65
-13.86
-17.63
-20.6
-22.62
-23.84
-24.71
-25.82
-27.75
-30.91
-35.38
-40.9
-46.73
-51.68
-54.27
-53.07
-47.22
-36.85
-23.2
-8.37
5.37
16.22
23.36
26.92
27.63
26.33
23.58
19.74
15.09
10.09
5.42
1.78
-0.41
-1.15
-0.88
-0.23
0.25
0.29
-0.15
-0.99
-2.27
-4.15
-6.84
-10.42
-14.71
-19.31
-23.71
-27.5
-30.54
-33.06
-35.54
-38.58
-42.7
-48.12
-54.5
-60.89
-65.83
-67.63
-64.99
-57.39
-45.48
-30.92
-15.88
-2.45
7.98
14.92
18.7
20.09
19.98
19.24
18.68
19.1
21.22
25.55
32.1
40.33
49.24
57.77
65.16
71.2
76.15
80.46
84.28
87.26
88.67
87.79
84.28
78.45
71.18
63.53
56.35
49.93
44.01
37.91
30.82
22.14
11.61
-0.52
-13.36
-25.5
-35.18
-40.84
-41.68
-38.08
-31.55
-24.31
-18.41
-15.07
-14.41
-15.68
-18.09
-21.49
-26.72
-35.25
-48.48
-66.85
-89.41
-113.85
-137.09
-156.08
-168.56
-173.44
-170.88
-162.03
-148.69
-133.05
-117.39
-103.89
-94.43
-90.36
-92.23
-99.69
-111.63
-126.44
-142.55
-158.84
-174.94
-191.2
-208.33
-226.96
-247.17
-268.22
-288.47
-305.66
-317.43
-321.87
-318.19
-306.92
-289.93
-269.84
-249.37
-230.6
-214.71
-201.93
-191.95
-184.18
-178.06
-173.07
-168.66
-164.22
-159.11
-152.91
-145.48
-137.03
-128.04
-119.05
-110.47
-102.44
-94.87
-87.42
-79.66
-71.15
-61.52
-50.45
-37.77
-23.42
-7.51
9.64
27.59
45.81
63.73
80.87
96.89
111.51
124.58
135.99
145.62
153.46
159.65
164.6
168.94
173.44
178.87
185.74
194.21
204.06
214.81
225.93
237.07
248.23
259.89
272.99
288.63
307.53
329.44
352.68
374.26
390.48
397.99
394.78
380.72
357.5
327.98
295.29
262.14
230.36
200.95
174.27
150.34
129.05
110.34
94.36
81.54
72.36
67.1
65.46
66.35
68.16
69.33
69.08
67.83
67.17
69.09
75.16
85.77
100.12
116.62
133.63
149.89
164.57
177.01
186.41
191.86
192.66
188.87
181.42
171.97
162.39
154.01
147.24
141.57
135.97
129.55
121.99
113.65
105.3
97.6
90.81
84.58
78.19
70.79
61.73
50.61
37.42
22.48
6.48
-9.64
-24.83
-38.25
-49.44
-58.5
-66.05
-73.02
-80.34
-88.48
-97.12
-104.97
-109.92
-109.64
-102.48
-88.19
-68.32
-45.8
-24.02
-5.68
7.98
17.3
23.63
28.5
32.91
37.19
41.12
44.35
46.68
48.06
48.47
47.87
46.25
43.86
41.29
39.39
38.91
40.16
42.63
45.14
46.09
43.95
37.68
27.01
12.42
-4.84
-23.11
-40.56
-55.61
-67.07
-74.12
-75.99
-71.61
-59.61
-38.76
-8.92
28.19
68.8
107.74
139.76
161.03
170.03
167.65
156.49
139.76
120.53
101.32
84.01
69.98
60.05
54.39
52.46
53.14
55.14
57.51
59.98
63.06
67.75
74.96
84.88
96.64
108.31
117.23
120.68
116.65
104.29
84.19
57.97
27.51
-5.72
-41.02
-78.05
-116
-152.66
-184.33
-206.61
-215.94
-211.02
-193.4
-166.98
-136.82
-107.84
-84.13
-68.76
-63.65
-69.33
-84.49
-105.62
-127.54
-144.56
-152.2
-148.52
-134.46
-113.13
-88.45
-63.82
-41.37
-21.99
-5.75
7.51
17.91
25.52
30.55
33.38
34.39
33.59
30.4
23.85
13.27
-1.1
-17.61
-33.52
-45.87
-52.52
-52.91
-48.23
-40.85
-33.36
-27.7
-24.66
-23.97
-24.73
-26.1
-27.65
-29.42
-31.75
-34.94
-39.04
-43.87
-49.13
-54.66
-60.48
-66.71
-73.42
-80.46
-87.43
-93.73
-98.73
-101.89
-102.97
-102.1
-99.7
-96.44
-92.91
-89.47
-86.18
-82.89
-79.51
-76.17
-73.22
-71.02
-69.75
-69.18
-68.77
-67.77
-65.55
-61.78
-56.54
-50.28
-43.69
-37.54
-32.52
-29.05
-27.27
-26.96
-27.69
-28.97
-30.4
-31.75
-32.94
-33.92
-34.65
-35.08
-35.23
-35.2
-35.22
-35.44
-35.92
-36.48
-36.8
-36.53
-35.56
-34.03
-32.27
-30.76
-29.83
-29.61
-29.97
-30.66
-31.35
-31.77
-31.79
-31.39
-30.7
-29.99
-29.62
-29.89
-30.96
-32.56
-33.95
-34.06
-31.73
-26.23
-17.51
-6.4
5.72
17.24
26.91
34.07
38.72
41.29
42.33
42.33
41.53
40.13
38.33
36.38
34.55
32.97
31.58
30.14
28.44
26.39
24.19
22.17
20.6
19.47
18.44
16.94
14.47
10.85
6.29
1.33
-3.51
-7.92
-11.92
-15.78
-19.83
-24.32
-29.23
-34.38
-39.34
-43.47
-45.97
-45.9
-42.55
-35.62
-25.62
-13.76
-1.81
8.58
16.28
21.02
23.24
23.78
23.4
22.56
21.4
19.89
18.09
16.22
14.52
13.2
12.21
11.35
10.37
9.11
7.56
5.84
4.05
2.06
-0.3
-3.28
-6.93
-11.07
-15.28
-19.11
-22.24
-24.64
-26.56
-28.42
-30.69
-33.72
-37.6
-42.06
-46.35
-49.3
-49.57
-46.1
-38.55
-27.56
-14.63
-1.65
9.8
18.87
25.58
30.45
34.13
36.91
38.73
39.41
38.9
37.44
35.51
33.58
31.92
30.5
29.09
27.42
25.36
23.02
20.6
18.36
16.45
14.81
13.18
11.11
8.19
4.22
-0.64
-5.84
-10.68
-14.64
-17.55
-19.72
-21.73
-24.15
-27.25
-30.99
-34.99
-38.63
-41.16
-41.69
-39.4
-33.82
-25.07
-14.06
-2.25
8.76
17.8
24.4
28.74
31.33
32.61
32.8
31.96
30.21
27.91
25.57
23.66
22.48
21.96
21.82
21.68
21.17
20.08
18.35
16.12
13.61
11.11
8.78
6.58
4.23
1.3
-2.53
-7.28
-12.6
-17.83
-22.28
-25.51
-27.44
-28.4
-28.92
-29.55
-30.66
-32.41
-34.68
-37.05
-38.87
-39.4
-37.86
-33.83
-27.32
-18.9
-9.54
-0.25
8.19
15.37
21.23
25.91
29.48
31.97
33.33
33.58
32.88
31.48
29.73
27.91
26.26
24.84
23.63
22.5
21.32
20.02
18.64
17.25
15.84
14.27
12.23
9.42
5.68
1.16
-3.78
-8.67
-13.1
-16.83
-19.8
-22.12
-24
-25.72
-27.59
-29.85
-32.61
-35.71
-38.69
-40.84
-41.29
-39.27
-34.28
-26.37
-16.2
-4.94
6.02
15.44
22.56
27.23
29.75
30.59
30.17
28.71
26.39
23.47
20.44
17.85
16.2
15.61
15.79
16.19
16.24
15.62
14.36
12.72
10.99
9.29
7.53
5.44
2.78
-0.57
-4.5
-8.77
-13.02
-16.88
-20.09
-22.51
-24.15
-25.26
-26.25
-27.57
-29.58
-32.26
-35.15
-37.34
-37.69
-35.25
-29.58
-21.01
-10.57
0.31
10.19
18.08
23.54
26.66
27.85
27.6
26.34
24.48
22.4
20.51
19.19
18.65
18.81
19.34
19.76
19.62
18.76
17.26
15.44
13.58
11.85
10.09
8.01
5.29
1.8
-2.27
-6.45
-10.26
-13.38
-15.84
-17.98
-20.26
-23.04
-26.49
-30.45
-34.58
-38.28
-40.77
-41.19
-38.77
-33.11
-24.39
-13.49
-1.73
9.45
18.92
26.04
30.71
33.14
33.74
32.94
31.22
29.07
26.91
25.05
23.6
22.49
21.51
20.41
18.98
17.08
14.73
12.04
9.15
6.18
3.11
-0.25
-4.14
-8.74
-13.99
-19.54
-24.85
-29.43
-33.04
-35.87
-38.41
-41.33
-45.13
-49.84
-54.9
-59.15
-61.12
-59.5
-53.62
-43.76
-31.17
-17.69
-5.18
5.03
12.48
17.43
20.58
22.56
23.75
24.21
23.87
22.77
21.19
19.53
18.17
17.24
16.59
15.88
14.85
13.41
11.72
10.02
8.45
6.84
4.8
1.86
-2.26
-7.42
-13.13
-18.67
-23.47
-27.29
-30.37
-33.23
-36.53
-40.78
-46.11
-52.23
-58.32
-63.19
-65.47
-64.02
-58.27
-48.55
-36.03
-22.44
-9.57
1.25
9.47
15.18
18.96
21.48
23.2
24.37
25.01
25.1
24.65
23.84
22.91
22.16
21.89
22.31
23.68
26.25
30.27
35.9
43.09
51.49
60.41
68.97
76.31
81.77
85.07
86.37
86.15
85.07
83.74
82.54
81.47
80.17
77.94
73.91
67.15
57.04
43.43
27
9.28
-7.55
-21.38
-30.95
-36.55
-39.99
-43.96
-50.97
-62.41
-78.09
-96.3
-114.31
-128.98
-137.4
-137.45
-128.31
-110.68
-86.68
-59.37
-31.81
-6.47
15.28
33
46.92
57.56
65.61
71.89
77.29
82.64
88.46
94.79
101.23
107.1
111.65
114.15
113.99
110.68
103.94
93.88
81.06
66.51
51.5
37.27
24.75
14.36
5.97
-0.92
-7.07
-13.24
-20.1
-27.98
-36.82
-45.99
-54.28
-60.24
-62.6
-60.85
-55.56
-48.24
-40.81
-34.93
-31.39
-30.05
-30.08
-30.54
-30.86
-30.98
-31.16
-31.73
-32.81
-34.25
-35.79
-37.31
-38.84
-40.6
-42.71
-45.1
-47.4
-49.14
-49.94
-49.77
-48.99
-48.18
-47.99
-48.83
-50.77
-53.49
-56.47
-59.1
-60.96
-61.95
-62.31
-62.55
-63.31
-65.15
-68.4
-72.99
-78.31
-83.19
-85.97
-84.87
-78.52
-66.42
-49.27
-28.85
-7.46
12.7
30.08
44.04
54.65
62.31
67.44
70.34
71.27
70.58
68.85
66.75
64.88
63.6
62.83
62.23
61.34
59.87
57.78
55.25
52.51
49.65
46.54
42.97
38.73
33.91
28.84
24.02
19.92
16.71
14.17
11.77
8.9
5.1
0.33
-5.13
-10.72
-15.93
-20.49
-24.5
-28.43
-32.95
-38.7
-45.96
-54.4
-62.87
-69.61
-72.64
-70.39
-62.31
-49.16
-32.82
-15.71
0.02
13.03
22.96
30.25
35.64
39.76
42.99
45.49
47.32
48.63
49.62
50.44
51.15
51.65
51.78
51.34
50.25
48.58
46.49
44.26
42.17
40.41
38.96
37.55
35.74
33.07
29.31
24.59
19.35
14.14
9.43
5.4
1.92
-1.37
-4.91
-9.07
-14.07
-19.84
-26.07
-32.17
-37.46
-41.47
-44.1
-45.83
-47.6
-50.49
-55.32
-62.29
-70.68
-78.91
-84.88
-86.47
-82.24
-71.94
-56.69
-38.71
-20.57
-4.42
8.66
18.8
26.93
34.06
40.57
45.91
48.93
48.64
45.17
40.08
36.1
36.12
41.85
53.13
67.93
83.27
96.47
106.11
112.19
115.71
117.85
119.27
119.83
118.59
114.01
104.35
88.19
64.99
35.52
1.94
-32.52
-64.25
-89.95
-107.22
-114.8
-112.69
-102.04
-85.08
-64.76
-44.28
-26.56
-13.66
-6.61
-5.38
-9.02
-15.75
-23.05
-27.94
-27.6
-20.12
-5.25
15.43
38.85
61.4
79.9
92.36
98.21
98.02
92.99
84.61
74.26
63.2
52.52
43.01
35.02
28.37
22.47
16.53
10.01
2.79
-4.75
-12.02
-18.64
-24.65
-30.64
-37.46
-45.79
-55.77
-66.89
-78.1
-88.26
-96.5
-102.53
-106.65
-109.46
-111.63
-113.49
-115.1
-116.39
-117.43
-118.63
-120.63
-124.03
-129.16
-135.93
-143.78
-151.87
-159.09
-164.2
-166.01
-163.54
-156.46
-145.21
-131.01
-115.47
-100.08
-85.8
-72.71
-60.31
-47.8
-34.62
-20.67
-6.38
7.62
20.72
32.68
43.62
53.89
63.79
73.34
82.22
89.98
96.26
100.99
104.34
106.56
107.67
107.41
105.35
101.17
94.9
87.04
78.37
69.7
61.59
54.14
47.12
40.12
32.81
25.15
17.34
9.76
2.74
-3.62
-9.57
-15.73
-22.93
-31.78
-42.3
-53.62
-63.98
-71.08
-72.74
-67.61
-55.6
-38.04
-17.21
4.27
24.17
41.18
54.95
65.9
74.73
81.94
87.7
91.79
93.94
94.1
92.53
89.82
86.65
83.54
80.76
78.3
75.96
73.52
70.82
67.8
64.5
60.97
57.24
53.3
49.09
44.54
39.65
34.44
28.97
23.31
17.56
11.84
6.33
1.21
-3.39
-7.53
-11.47
-15.73
-20.9
-27.48
-35.52
-44.43
-52.9
-59.17
-61.51
-58.82
-51.05
-39.34
-25.56
-11.77
0.45
10.32
17.8
23.29
27.21
29.84
31.29
31.68
31.21
30.26
29.28
28.63
28.47
28.71
29.07
29.21
28.93
28.17
27.04
25.69
24.22
22.6
20.71
18.35
15.4
11.81
7.65
3.07
-1.7
-6.42
-10.86
-14.9
-18.55
-22
-25.56
-29.54
-34.25
-39.87
-46.41
-53.54
-60.54
-66.29
-69.45
-68.83
-63.79
-54.5
-41.93
-27.59
-13.13
0.08
11.19
19.93
26.49
31.31
34.84
37.44
39.19
40.05
39.97
39.07
37.65
36.07
34.63
33.36
32.09
30.54
28.54
26.06
23.25
20.23
16.98
13.36
9.19
4.43
-0.79
-6.18
-11.54
-16.91
-22.62
-29.12
-36.68
-45.18
-54.11
-62.8
-70.8
-78.09
-85.21
-92.96
-102.07
-112.79
-124.74
-137.02
-148.32
-157.19
-162.15
-161.88
-155.36
-142.06
-122.13
-96.38
-66.09
-32.7
2.49
38.36
73.81
107.45
137.52
162.02
179.25
188.34
189.6
184.41
174.81
162.94
150.57
138.99
128.95
120.82
114.51
109.4
104.17
97.01
86.08
70.18
49.4
25.23
0.23
-22.79
-41.7
-55.61
-65.03
-71.3
-75.87
-79.7
-83.01
-85.54
-87.04
-87.76
-88.61
-91.05
-96.64
-106.53
-120.74
-137.79
-154.45
-166.14
-167.97
-156.08
-129.13
-88.96
-40.36
10.39
57.33
96.46
126.29
147.38
161.15
168.88
171.21
168.43
161.05
150.2
137.47
124.5
112.41
101.54
91.61
82.12
72.75
63.58
54.96
47.31
40.87
35.56
30.99
26.55
21.69
16.02
9.5
2.42
-4.68
-11.27
-17.03
-22.01
-26.59
-31.31
-36.64
-42.83
-49.87
-57.55
-65.54
-73.41
-80.57
-86.18
-89.14
-88.28
-82.66
-71.98
-56.82
-38.63
-19.34
-0.82
15.6
29.37
40.59
49.71
57.13
62.98
67.22
69.79
70.81
70.66
69.85
68.81
67.74
66.64
65.3
63.48
61.05
58
54.41
50.38
45.99
41.29
36.29
30.97
25.29
19.2
12.6
5.5
-2.03
-9.75
-17.39
-24.64
-31.37
-37.61
-43.66
-49.93
-56.9
-64.93
-74.1
-84.04
-93.8
-101.91
-106.63
-106.43
-100.52
-89.12
-73.49
-55.54
-37.31
-20.33
-5.44
7.32
18.33
28.08
36.87
44.64
51.15
56.07
59.24
60.75
60.98
60.4
59.44
58.35
57.16
55.77
54.1
52.14
49.95
47.6
45.02
41.99
38.2
33.38
27.5
20.9
14.14
7.82
2.29
-2.5
-7
-11.81
-17.39
-23.86
-30.93
-38.06
-44.78
-50.84
-56.36
-61.76
-67.62
-74.49
-82.67
-92.04
-101.86
-110.81
-117.16
-119.19
-115.68
-106.36
-92.09
-74.64
-56.2
-38.67
-23.23
-10.09
1.31
11.94
22.59
33.65
44.98
56.14
66.79
76.81
86.41
95.82
105.07
113.81
121.49
127.53
131.64
133.88
134.53
133.82
131.7
127.84
121.87
113.59
103.24
91.44
79
66.66
54.84
43.62
32.84
22.26
11.78
1.48
-8.39
-17.55
-25.83
-33.25
-40.07
-46.63
-53.36
-60.62
-68.79
-78.25
-89.24
-101.67
-114.92
-127.8
-138.81
-146.6
-150.37
-149.9
-145.44
-137.25
-125.36
-109.62
-90.07
-67.36
-42.91
-18.66
3.42
21.93
36.31
46.85
54.36
59.84
64.19
68.01
71.58
74.91
77.85
80.15
81.6
81.98
81.14
78.95
75.38
70.5
64.42
57.25
48.99
39.47
28.43
15.78
1.82
-12.58
-26.23
-38.02
-47.39
-54.71
-61.18
-68.38
-77.68
-89.68
-103.86
-118.71
-132.05
-141.55
-145.37
-142.56
-133.41
-119.37
-102.71
-85.87
-70.75
-58.28
-48.3
-40.01
-32.42
-24.94
-17.51
-10.39
-3.94
1.79
7.04
12.2
17.46
22.67
27.42
31.27
34.02
35.87
37.18
38.26
39.02
39
37.59
34.45
29.81
24.43
19.32
15.18
12.12
9.56
6.53
2.18
-3.82
-11.18
-19.12
-26.73
-33.35
-38.77
-43.28
-47.57
-52.48
-58.73
-66.54
-75.34
-83.62
-89.2
-89.73
-83.56
-70.39
-51.54
-29.63
-7.68
11.78
27.41
39.12
47.68
54.02
58.75
62.03
63.81
64.17
63.54
62.6
61.98
61.93
62.29
62.55
62.28
61.27
59.73
57.99
56.34
54.67
52.64
49.74
45.67
40.47
34.52
28.38
22.51
17.11
12.08
7.18
2.16
-3.09
-8.5
-13.91
-19.13
-24.11
-28.91
-33.78
-39.06
-45.14
-52.25
-60.23
-68.32
-75.14
-78.89
-77.88
-71.14
-58.93
-42.76
-24.92
-7.8
6.88
18.41
26.98
33.24
37.77
40.81
42.29
42.14
40.55
38.11
35.64
33.8
32.88
32.63
32.46
31.66
29.81
26.89
23.25
19.46
15.97
12.92
10.08
6.96
3.12
-1.59
-6.81
-11.75
-15.4
-17.01
-16.34
-13.81
-10.3
-6.84
-4.26
-3.06
-3.4
-5.08
-7.55
-9.75
-10.12
-6.88
1.42
15.24
33.52
53.83
73
88.12
97.36
100.45
98.38
92.83
85.44
77.36
69.22
61.22
53.36
45.43
36.82
26.44
12.91
-4.97
-27.48
-53.4
-80
-103.66
-120.88
-129.44
-128.95
-120.91
-108.02
-93.33
-79.3
-67.45
-58.22
-51.31
-46.17
-42.28
-39.39
-37.48
-36.71
-37.32
-39.66
-44.08
-50.68
-58.71
-66.21
-69.94
-66.22
-52.25
-27.5
5.69
42.66
78.02
107.42
128.77
142.32
149.72
152.89
153.11
150.89
146.34
139.67
131.4
122.13
112.33
102.16
91.59
80.63
69.47
58.48
47.99
38.07
28.44
18.67
8.38
-2.48
-13.66
-24.75
-35.34
-45.3
-54.75
-64.02
-73.41
-83.16
-93.39
-104.14
-115.48
-127.53
-140.46
-154.47
-169.75
-186.39
-204.24
-222.51
-239.44
-252.15
-257.07
-250.99
-232.29
-201.81
-162.79
-119.91
-77.74
-39.42
-6.23
21.95
45.69
65.22
80.31
90.63
96.45
98.84
99.5
100.13
101.79
104.62
107.95
110.81
112.37
112.21
110.36
107.06
102.5
96.77
89.86
81.83
72.96
63.74
54.7
46.17
38.18
30.41
22.48
14.2
5.7
-2.62
-10.29
-17.08
-23.17
-29.07
-35.54
-43.39
-53.19
-64.99
-77.97
-90.11
-98.47
-99.9
-92.15
-74.93
-50.29
-22.08
5.38
28.73
46.51
59.12
68
74.57
79.52
82.75
83.92
83.03
80.69
77.98
75.93
75.01
74.93
74.87
73.92
71.62
68.18
64.31
60.78
57.96
55.57
52.8
48.69
42.66
34.81
25.99
17.42
10.2
4.73
0.56
-3.43
-8.5
-15.44
-24.1
-33.55
-42.44
-49.69
-55
-58.87
-62.42
-66.86
-73.07
-81.36
-91.41
-102.2
-112.02
-118.56
-119.37
-112.55
-97.57
-75.73
-49.95
-23.95
-1.07
16.64
28.77
36.17
40.15
41.8
41.74
40.28
37.93
35.64
34.79
36.75
42.34
51.42
62.87
75.01
86.24
95.67
103.29
109.69
115.46
120.57
124.2
124.98
121.7
113.92
102.29
88.31
73.75
59.92
47.33
35.64
24.16
12.29
-0.14
-12.74
-24.84
-35.8
-45.37
-53.69
-61.31
-68.85
-76.88
-85.67
-95.16
-104.88
-113.8
-120.32
-122.37
-117.91
-105.65
-85.77
-60.16
-32.09
-5.27
17.23
33.76
44.31
49.97
52.26
52.49
51.52
49.84
47.84
45.99
44.8
44.56
45.21
46.22
46.85
46.51
45.02
42.67
40.01
37.49
35.26
33.05
30.43
27.07
22.97
18.4
13.75
9.26
4.91
0.47
-4.34
-9.59
-15.15
-20.71
-25.94
-30.69
-35.01
-39.16
-43.52
-48.52
-54.47
-61.47
-69.24
-76.89
-82.97
-85.73
-83.57
-75.69
-62.44
-45.41
-26.91
-9.34
5.5
16.77
24.45
29.03
31.11
31.21
29.82
27.56
25.23
23.7
23.63
25.23
28.1
31.36
34.03
35.41
35.33
34.18
32.64
31.34
30.49
29.83
28.69
26.34
22.28
16.47
9.36
1.73
-5.61
-12.02
-17.18
-21.2
-24.6
-28.13
-32.64
-38.73
-46.44
-54.97
-62.71
-67.61
-67.76
-62.17
-51.23
-36.65
-20.97
-6.78
3.99
10.48
12.78
11.56
7.71
2.02
-4.81
-12.25
-20.07
-28.41
-37.91
-49.45
-63.81
-81.11
-100.46
-119.93
-136.9
-148.68
-153.26
-149.81
-138.98
-122.69
-103.7
-84.88
-68.44
-55.52
-46.12
-39.49
-34.73
-31.32
-29.26
-28.98
-30.99
-35.59
-42.66
-51.47
-60.48
-67.32
-69.05
-62.98
-47.63
-23.64
6.16
37.47
65.94
88.59
104.49
114.57
120.61
124.21
126.14
126.46
124.99
121.86
117.58
112.85
108.13
103.33
97.75
90.52
81
69.18
55.76
41.86
28.55
16.41
5.34
-5.33
-16.34
-28.05
-40.12
-51.65
-61.55
-69.05
-74.17
-77.7
-80.94
-85.28
-91.7
-100.55
-111.44
-123.3
-134.45
-142.82
-146.32
-143.46
-133.88
-118.68
-100.15
-81.03
-63.63
-49.1
-37.47
-28.03
-20.12
-13.52
-8.48
-5.26
-3.65
-2.73
-1.1
2.52
8.75
17.05
25.8
32.56
34.82
30.62
19.13
0.93
-22.11
-47.13
-70.9
-90.24
-102.62
-106.48
-101.47
-88.62
-70.1
-48.83
-27.9
-9.98
3.1
10.38
11.65
7.28
-1.72
-13.58
-25.71
-35.02
-38.65
-34.67
-22.67
-3.7
20.21
46.8
74.24
101.22
126.86
150.4
171.1
188.28
201.49
210.64
216
218.16
217.94
216.18
213.64
210.69
207.19
202.71
196.77
189.25
180.5
171.15
161.71
152.31
142.68
132.37
121.02
108.49
94.8
79.96
64.05
47.42
30.84
15.49
2.53
-7.4
-14.55
-20.02
-25.45
-32.53
-42.53
-55.91
-72.04
-89.03
-104.01
-113.83
-116.19
-110.59
-98.6
-83.27
-67.94
-54.95
-45.05
-37.63
-31.57
-26.05
-20.83
-15.96
-11.31
-6.2
0.4
9.29
20.51
33.03
45.01
54.48
60.03
61.4
59.48
55.98
52.67
50.65
49.81
48.85
45.83
39.06
28.03
13.79
-1.29
-14.51
-23.86
-28.87
-30.68
-31.48
-33.58
-38.63
-47.09
-58.2
-70.04
-79.89
-84.57
-81.22
-68.18
-45.81
-16.77
14.66
43.83
67.19
83.18
92.17
95.58
94.96
91.27
84.98
76.59
67.06
57.83
50.41
45.68
43.54
42.99
42.57
41.07
37.9
33.26
27.8
22.3
17.22
12.54
7.79
2.26
-4.65
-13.13
-22.8
-32.79
-41.99
-49.42
-54.6
-57.71
-59.53
-61.2
-63.83
-68.24
-74.62
-82.51
-90.67
-97.16
-99.64
-95.85
-84.38
-65.32
-40.51
-13.27
12.57
33.7
48.21
55.84
57.6
55.02
49.6
42.49
34.6
26.75
19.77
14.35
10.8
8.91
8.08
7.54
6.69
5.28
3.31
0.89
-2.05
-5.82
-10.89
-17.53
-25.53
-34.13
-42.2
-48.69
-53.16
-55.93
-58.05
-60.93
-65.77
-73.12
-82.5
-92.23
-99.58
-101.37
-94.96
-79.27
-55.47
-26.89
1.97
26.82
44.9
55.55
59.82
59.55
56.41
51.41
45.14
38.11
31.13
25.28
21.4
19.65
19.41
19.46
18.62
16.26
12.46
7.81
2.87
-2.34
-8.36
-16.05
-25.98
-38.05
-51.31
-64.29
-75.47
-83.78
-88.87
-91.14
-91.53
-91.24
-91.14
-91.2
-90.07
-85.19
-73.61
-53.33
-24.6
9.62
44.32
74.12
95.19
106.45
109.55
107.69
104.03
100.39
96.87
92.27
84.96
73.73
58.2
38.94
17.36
-4.52
-24.38
-39.94
-49.38
-51.72
-47.09
-36.78
-23.03
-8.57
3.89
12.23
15.35
13.3
7.25
-1
-9.49
-16.77
-22.19
-26.05
-29.31
-33.2
-38.75
-46.32
-55.22
-63.5
-68.2
-66.1
-54.9
-34.35
-6.78
23.43
51.13
72.17
84.62
88.95
87.3
82.18
75.42
67.86
59.69
51.06
42.58
35.28
30.26
28.15
28.9
31.7
35.4
38.86
41.29
42.41
42.35
41.41
39.85
37.61
34.33
29.44
22.43
13.14
2.06
-9.7
-20.67
-29.48
-35.36
-38.42
-39.61
-40.33
-41.97
-45.51
-51.38
-59.51
-69.32
-79.63
-88.56
-93.64
-92.42
-83.36
-66.67
-44.59
-20.86
0.6
17.05
27.61
33.22
35.52
35.83
34.47
30.99
24.93
16.71
7.83
0.46
-3.65
-4.06
-2
0.2
0.19
-3.2
-9.43
-16.56
-22.26
-25.09
-25.24
-24.38
-24.86
-28.39
-35.14
-43.64
-51.54
-56.8
-58.67
-58.04
-56.94
-57.56
-61.41
-68.85
-79.2
-90.96
-101.92
-109.34
-110.22
-102.01
-83.68
-56.46
-23.84
9.32
38.48
60.74
75.51
83.94
87.98
89.23
88.56
86.25
82.51
77.83
73.08
69.17
66.7
65.81
66.06
66.71
66.94
66.15
64.12
61
57.25
53.37
49.72
46.33
42.94
39.07
34.3
28.4
21.53
14.21
7.19
1.13
-3.72
-7.76
-11.92
-17.41
-25.4
-36.64
-51.4
-69.22
-88.77
-107.55
-121.97
-128.02
-122.45
-104.21
-75.2
-40.04
-4.64
25.73
47.98
61.68
68.41
70.49
69.82
67.47
63.83
59.12
53.81
48.58
44.02
40.39
37.53
34.99
32.36
29.43
26.24
22.84
19.09
14.56
8.69
1.07
-8.18
-18.32
-28.23
-36.89
-43.88
-49.58
-55.01
-61.25
-68.91
-77.78
-86.93
-95.15
-101.55
-105.93
-108.92
-111.72
-115.8
-122.46
-132.35
-144.98
-158.21
-168.2
-170.13
-159.64
-134.73
-96.94
-51.38
-5.11
35.21
65.5
85.11
96.16
101.88
104.88
106.37
106.33
104.53
101.21
97.33
94.1
92.21
91.5
90.99
89.44
86.08
81.01
75.17
69.77
65.73
63.1
61.09
58.4
53.86
47
38.31
28.98
20.44
13.72
9.08
5.89
2.96
-0.93
-6.51
-13.77
-22
-30.18
-37.4
-43.25
-47.87
-51.87
-56.02
-61.06
-67.51
-75.54
-84.75
-93.95
-101.11
-103.67
-99.24
-86.61
-66.43
-41.3
-15
8.78
27.6
40.83
49.33
54.64
58.01
59.97
60.51
59.52
57.24
54.32
51.56
49.44
47.95
46.64
45.02
42.83
40.23
37.66
35.52
33.88
32.39
30.37
27.16
22.4
16.24
9.35
2.66
-2.99
-7.19
-10.16
-12.7
-15.81
-20.3
-26.32
-33.26
-40.03
-45.51
-49.11
-51.04
-52.28
-54.17
-57.99
-64.56
-73.9
-85.1
-96.19
-104.35
-106.49
-100.15
-84.47
-60.76
-32.35
-3.58
21.51
40.47
52.82
59.61
62.61
63.29
62.47
60.43
57.38
53.73
50.18
47.49
46.1
45.95
46.58
47.26
47.36
46.47
44.46
41.33
37.23
32.28
26.63
20.52
14.21
7.98
2.03
-3.57
-8.99
-14.45
-20.22
-26.33
-32.57
-38.57
-43.95
-48.53
-52.48
-56.32
-60.75
-66.53
-74.16
-83.48
-93.31
-101.37
-104.63
-100.25
-86.66
-64.44
-36.36
-6.6
20.65
42.57
58.33
68.87
75.92
81.05
85
87.75
89
88.66
87.13
85.13
83.36
82.14
81.26
80.16
78.22
75.08
70.79
65.71
60.29
54.75
49.07
43.06
36.58
29.69
22.72
16.07
10.05
4.65
-0.37
-5.34
-10.45
-15.65
-20.74
-25.57
-30.26
-35.19
-40.99
-48.19
-57.02
-67.1
-77.31
-85.77
-90.15
-88.27
-78.89
-62.27
-40.42
-16.58
5.81
24.16
37.44
46.12
51.51
54.87
56.88
57.56
56.72
54.37
50.94
47.2
43.88
41.37
39.57
38.05
36.27
33.87
30.69
26.83
22.43
17.68
12.67
7.44
2.04
-3.55
-9.3
-15.2
-21.22
-27.28
-33.22
-38.79
-43.7
-47.76
-50.96
-53.61
-56.19
-59.29
-63.43
-68.87
-75.5
-82.6
-88.74
-91.89
-89.87
-81.08
-65.29
-43.97
-20.04
3
22.24
36.13
44.63
48.76
49.78
48.59
45.69
41.36
36.12
30.84
26.53
23.9
22.96
22.98
22.83
21.49
18.58
14.43
9.93
5.97
3.02
0.83
-1.41
-4.69
-9.63
-16.17
-23.5
-30.44
-35.92
-39.5
-41.49
-42.84
-44.74
-48.22
-53.88
-61.66
-70.8
-79.77
-86.33
-87.93
-82.44
-68.98
-48.54
-23.93
1.11
23.13
40.05
51.54
58.57
62.5
64.31
64.27
62.31
58.54
53.66
48.82
45.18
43.32
42.98
43.16
42.62
40.43
36.37
30.95
25.09
19.64
14.96
10.71
6.08
0.15
-7.63
-17.11
-27.47
-37.53
-46.23
-53.06
-58.27
-62.69
-67.44
-73.47
-81.42
-91.39
-102.87
-114.57
-124.34
-129.35
-126.8
-114.95
-93.95
-66.2
-35.71
-6.8
17.3
35.39
48.14
57.24
64.25
69.89
73.97
75.98
75.73
73.74
71.08
68.91
67.94
68.08
68.6
68.45
66.8
63.4
58.63
53.3
48.16
43.52
39.08
34.06
27.62
19.25
9.17
-1.8
-12.48
-21.86
-29.47
-35.55
-40.87
-46.38
-52.92
-60.99
-70.77
-82.1
-94.32
-105.93
-114.5
-117.11
-111.15
-95.58
-71.64
-42.78
-13.53
12.07
31.77
45.49
54.69
61.16
66.02
69.45
71.08
70.7
68.7
66.12
64.14
63.55
64.42
66.16
67.82
68.61
68.13
66.45
63.94
61.05
58.04
54.96
51.63
47.79
43.15
37.5
30.77
23.13
14.99
6.94
-0.43
-6.72
-11.92
-16.39
-20.77
-25.74
-31.89
-39.57
-48.85
-59.22
-69.46
-77.46
-80.6
-76.54
-64.18
-44.39
-20.02
5
26.92
43.46
54.17
60.13
62.9
63.66
62.83
60.33
56.17
50.93
45.73
41.79
39.81
39.64
40.31
40.47
38.98
35.37
29.94
23.48
16.92
10.88
5.45
0.23
-5.47
-12.27
-20.47
-29.86
-39.85
-49.65
-58.59
-66.38
-73.21
-79.68
-86.64
-94.89
-105.05
-117.32
-131.26
-145.59
-158.15
-166.04
-166.45
-157.57
-139.47
-114.48
-86.55
-60.09
-38.53
-23.37
-14.09
-8.78
-5.16
-1.38
3.6
10.32
19.06
30.07
43.43
58.77
75.09
90.84
104.42
114.62
121.1
124.27
124.91
123.65
120.52
114.93
106.12
93.7
78.12
60.79
43.63
28.33
15.58
4.5
-7.4
-23.52
-47.03
-79.47
-119.69
-163.41
-203.95
-233.75
-246.34
-238.19
-209.58
-164.54
-109.66
-52.37
0.91
45.89
80.93
106.52
124.4
136.56
144.56
149.46
152.06
153.32
154.33
156.15
159.32
163.58
167.89
170.93
171.7
169.93
166.05
160.88
155.09
148.91
141.96
133.58
123.11
110.31
95.52
79.57
63.44
47.84
32.84
17.82
1.77
-16.28
-36.68
-58.96
-81.96
-104.09
-123.69
-139.23
-149.38
-153.13
-150
-140.45
-126
-109.01
-92.1
-77.34
-65.72
-57.13
-50.8
-45.97
-42.38
-40.22
-39.8
-41.12
-43.63
-46.43
-48.68
-50.01
-50.71
-51.63
-53.71
-57.56
-63.18
-69.93
-76.89
-83.37
-89.31
-95.47
-103.1
-113.43
-126.98
-143.33
-161.29
-179.46
-196.9
-213.53
-230.01
-247.32
-266.27
-287.13
-309.54
-332.42
-353.8
-370.94
-380.59
-379.78
-366.75
-341.73
-306.98
-266.13
-223.02
-180.65
-140.71
-103.78
-69.9
-39.03
-11.27
13.29
34.82
53.77
70.77
86.35
100.79
114.1
126.2
137.29
148.11
159.92
174.05
191.16
210.53
229.93
246.09
255.87
257.39
250.69
237.62
220.99
203.44
186.75
171.51
157.42
143.74
129.65
114.4
97.44
78.6
58.44
38.6
21.77
11.17
9.66
18.65
37.47
63.31
92.08
119.59
142.71
159.97
171.44
178.08
180.97
180.85
178.11
173.15
166.69
159.82
153.76
149.46
147.17
146.35
145.9
144.58
141.41
135.96
128.35
119.08
108.77
97.92
86.73
75.15
63.08
50.5
37.74
25.43
14.33
5.06
-2.16
-7.68
-12.29
-16.96
-22.63
-29.89
-38.91
-49.29
-60
-69.36
-75.23
-75.49
-68.69
-54.66
-34.82
-11.82
11.14
31.27
46.91
57.8
64.75
69.05
71.79
73.53
74.27
73.79
71.95
68.89
65.05
60.97
57.11
53.71
50.83
48.43
46.41
44.62
42.71
40.15
36.4
31.27
25.14
19.08
14.48
12.45
13.18
15.62
17.74
17.22
12.58
3.47
-9.24
-23.77
-37.88
-49.52
-57.21
-60.54
-60.28
-57.74
-54.52
-51.93
-50.31
-48.63
-44.86
-36.61
-22.37
-2.37
21.95
47.66
71.06
88.71
98.61
100.37
95.45
86.06
74.4
64.05
57.61
55.87
58.11
63.09
69.36
76.54
83.84
89.94
96.96
106.4
117.81
129.23
139.27
147.13
155.03
164.61
175.96
193.37
218.56
248.61
277.1
298.26
308.12
309.02
304.35
296.82
295.38
305.94
327.84
354.91
380.37
398.22
409.5
416.08
374.13
264.34
102.32
-69.64
-213.19
-297.99
-340.39
-355.53
-353.35
-339.45
-312.5
-270.04
-214.81
-154.9
-99.2
-55.94
-26.08
-9.27
-5.06
-7.1
-9.85
-11.8
-15.09
-22.09
-34.77
-50.15
-65.43
-79.19
-87.72
-88.97
-84.31
-77.71
-73.25
-74.24
-80.11
-89.48
-101.08
-112.26
-121.12
-127.61
-133.32
-140.18
-150.03
-162.84
-177.97
-194.38
-210.02
-222.79
-231.47
-235.93
-236.83
-235.25
-231.76
-226.62
-219.84
-211.36
-201.21
-189.76
-177.58
-165.26
-153.25
-141.79
-130.97
-120.87
-111.62
-103.28
-95.85
-89.19
-83.05
-77.13
-71.16
-65.02
-58.73
-52.47
-46.56
-41.29
-36.86
-33.31
-30.5
-28.26
-26.44
-25.07
-24.28
-24.25
-25.05
-26.59
-28.54
-30.51
-32.13
-33.2
-33.77
-34.01
-34.09
-34.09
-33.93
-33.52
-32.84
-32.05
-31.43
-31.32
-31.92
-33.24
-35
-36.68
-37.5
-36.62
-33.27
-27.06
-18.24
-7.71
3.17
13
20.73
25.9
28.61
29.3
28.43
26.37
23.48
20.16
16.97
14.48
13.08
12.85
13.44
14.3
14.85
14.77
13.99
12.69
11.09
9.3
7.22
4.61
1.25
-2.86
-7.47
-12.12
-16.31
-19.7
-22.24
-24.2
-26.01
-28.11
-30.82
-34.1
-37.56
-40.45
-41.78
-40.58
-36.26
-28.85
-19.14
-8.52
1.46
9.5
14.88
17.57
17.97
16.73
14.42
11.47
8.19
4.87
1.82
-0.72
-2.6
-3.89
-4.82
-5.67
-6.75
-8.23
-10.21
-12.75
-15.86
-19.59
-23.91
-28.72
-33.8
-38.88
-43.71
-48.16
-52.25
-56.2
-60.36
-65.06
-70.39
-76.02
-81.1
-84.33
-84.24
-79.53
-69.42
-53.83
-33.41
-9.4
16.55
42.61
66.95
87.94
104.41
115.78
122.09
123.98
122.35
118.16
112.14
104.79
96.37
87.07
77.13
66.98
57.28
48.86
42.52
38.67
36.96
35.98
33.44
26.67
13.53
-6.64
-32.52
-60.88
-87.4
-107.82
-119.07
-119.98
-111.49
-96.17
-77.43
-58.58
-41.98
-28.61
-18.15
-9.38
-0.94
8.08
17.84
27.87
37.43
45.91
53.02
58.71
63.14
66.49
69.02
71.09
73.1
75.27
77.47
79.2
79.7
78.27
74.53
68.53
60.75
51.87
42.59
33.5
24.95
16.98
9.37
1.63
-6.73
-15.96
-25.91
-35.94
-45.21
-53.02
-59.16
-64
-68.28
-72.68
-77.32
-81.62
-84.36
-84.27
-80.57
-73.4
-63.84
-53.49
-43.87
-35.85
-29.47
-24.17
-19.25
-14.33
-9.6
-5.7
-3.25
-2.57
-3.44
-5.23
-7.21
-8.89
-10.12
-11.08
-12.06
-13.32
-14.98
-17.05
-19.46
-22.04
-24.46
-26.36
-27.34
-27.2
-26.01
-24.2
-22.41
-21.33
-21.54
-23.37
-26.79
-31.33
-36.08
-39.73
-40.86
-38.28
-31.46
-20.78
-7.47
6.74
20.08
31.2
39.48
44.95
48.1
49.52
49.68
48.84
47.09
44.5
41.21
37.44
33.49
29.59
25.9
22.52
19.48
16.75
14.29
12
9.73
7.31
4.61
1.6
-1.67
-5.06
-8.41
-11.57
-14.48
-17.23
-20.03
-23.13
-26.72
-30.71
-34.64
-37.78
-39.25
-38.32
-34.64
-28.4
-20.26
-11.25
-2.37
5.6
12.26
17.57
21.7
24.8
26.99
28.21
28.45
27.83
26.67
25.45
24.6
24.36
24.6
24.95
24.86
23.88
21.78
18.66
14.88
10.95
7.3
4.12
1.34
-1.4
-4.49
-8.26
-12.74
-17.7
-22.77
-27.56
-31.96
-36.09
-40.33
-45.07
-50.53
-56.64
-63
-68.97
-73.61
-75.88
-74.68
-69.2
-59.14
-45.02
-28.21
-10.57
6
20.19
31.53
40.28
47.07
52.37
56.31
58.69
59.34
58.4
56.42
54.13
52.16
50.74
49.63
48.34
46.41
43.66
40.22
36.44
32.59
28.78
24.95
20.96
16.75
12.41
8.18
4.25
0.7
-2.58
-5.77
-9.09
-12.57
-16.13
-19.55
-22.63
-25.35
-27.84
-30.45
-33.6
-37.65
-42.73
-48.55
-54.32
-58.72
-60.23
-57.53
-50.03
-38.16
-23.38
-7.7
6.95
19.3
28.93
36.12
41.44
45.24
47.68
48.72
48.47
47.29
45.74
44.35
43.4
42.8
42.25
41.39
40.03
38.16
36
33.76
31.63
29.61
27.59
25.36
22.74
19.66
16.21
12.65
9.25
6.18
3.45
0.85
-1.89
-4.97
-8.43
-12.08
-15.62
-18.75
-21.33
-23.45
-25.42
-27.63
-30.48
-34.19
-38.72
-43.74
-48.53
-52.09
-53.3
-51.21
-45.36
-35.99
-24.11
-11.22
1.1
11.7
19.99
26.05
30.29
33.22
35.23
36.49
37.08
37.09
36.67
35.98
35.19
34.35
33.48
32.52
31.49
30.5
29.67
29.06
28.56
27.88
26.62
24.44
21.25
17.3
13.09
9.13
5.8
3.13
0.84
-1.51
-4.25
-7.58
-11.4
-15.45
-19.43
-23.11
-26.4
-29.42
-32.42
-35.72
-39.61
-44.16
-49.12
-53.88
-57.52
-58.94
-57.12
-51.5
-42.14
-29.85
-16.02
-2.21
10.19
20.33
28.02
33.53
37.35
39.88
41.3
41.67
41.04
39.65
37.91
36.23
34.87
33.85
32.95
31.91
30.56
28.88
27.02
25.09
23.1
20.92
18.36
15.31
11.78
7.95
4.15
0.68
-2.3
-4.86
-7.32
-10.11
-13.64
-18.06
-23.14
-28.36
-33.09
-36.9
-39.83
-42.36
-45.34
-49.55
-55.42
-62.73
-70.52
-77.26
-81.15
-80.57
-74.53
-63.05
-47.17
-28.84
-10.27
6.59
20.58
31.51
39.92
46.65
52.34
57.22
61.17
63.98
65.67
66.51
66.93
67.31
67.74
68.09
68.12
67.68
66.85
65.89
65.08
64.56
64.2
63.67
62.61
60.81
58.3
55.34
52.22
49.13
46.04
42.71
38.8
34.01
28.22
21.57
14.39
7.19
0.48
-5.41
-10.37
-14.62
-18.61
-22.82
-27.62
-33.08
-38.88
-44.35
-48.51
-50.33
-49
-44.24
-36.52
-26.93
-16.98
-8.01
-0.91
4.12
7.39
9.43
10.63
11.19
11.18
10.68
9.88
9.04
8.31
7.65
6.79
5.4
3.22
0.2
-3.48
-7.56
-11.84
-16.31
-21.08
-26.35
-32.18
-38.45
-44.84
-50.88
-56.22
-60.75
-64.81
-69.18
-75.03
-83.63
-95.91
-111.93
-130.48
-149.05
-164.42
-173.54
-174.6
-167.73
-154.99
-139.72
-125.47
-114.96
-109.33
-107.83
-108
-106.09
-97.88
-79.63
-49.31
-7.33
43.18
97.17
149.06
194.29
230.36
256.83
274.66
285.11
289.01
286.6
278
263.58
244.23
221.22
195.8
168.96
141.39
113.79
87.02
62.24
40.55
22.71
8.73
-2.11
-11.07
-19.53
-28.42
-37.96
-47.55
-56.13
-62.62
-66.44
-67.75
-67.37
-66.43
-65.9
-66.31
-67.61
-69.44
-71.34
-73.04
-74.55
-76.07
-77.84
-79.8
-81.44
-81.86
-79.95
-74.91
-66.57
-55.55
-43.08
-30.56
-19.14
-9.42
-1.5
4.87
10.04
14.29
17.83
20.83
23.47
25.92
28.28
30.58
32.73
34.62
36.12
37.06
37.29
36.67
35.13
32.71
29.64
26.21
22.81
19.72
17.08
14.8
12.56
9.95
6.59
2.32
-2.73
-8.24
-13.77
-19
-23.83
-28.44
-33.2
-38.54
-44.8
-52.06
-60
-67.77
-73.97
-76.8
-74.51
-65.96
-51.18
-31.57
-9.66
11.67
29.98
43.94
53.46
59.27
62.37
63.46
62.86
60.66
57.18
53.08
49.24
46.36
44.56
43.32
41.71
38.86
34.42
28.72
22.57
16.89
12.27
8.79
6.1
3.66
1.04
-1.9
-5.03
-8.11
-10.92
-13.35
-15.48
-17.48
-19.66
-22.38
-25.95
-30.58
-36.1
-41.9
-46.91
-49.8
-49.33
-44.83
-36.46
-25.36
-13.41
-2.72
4.94
8.63
8.35
4.98
-0.19
-5.86
-10.98
-14.87
-17.13
-17.58
-16.26
-13.51
-10.04
-6.76
-4.55
-3.87
-4.64
-6.29
-8.18
-9.92
-11.68
-14.09
-17.89
-23.54
-30.91
-39.36
-48.03
-56.2
-63.59
-70.46
-77.35
-84.91
-93.6
-103.55
-114.42
-125.3
-134.55
-139.93
-138.92
-129.42
-110.58
-83.35
-50.49
-15.97
16.18
42.87
62.54
75.15
81.71
83.61
82.23
78.81
74.46
70.14
66.57
63.95
61.97
59.95
57.21
53.41
48.7
43.51
38.19
32.75
26.75
19.61
11.06
1.34
-8.75
-18.18
-26.16
-32.51
-37.81
-43.21
-50.06
-59.53
-72.01
-86.68
-101.23
-112.01
-114.84
-106.41
-85.7
-54.66
-17.92
18.82
50.68
75.13
92.23
103.72
111.55
116.71
119.1
118.21
114.04
107.68
100.95
95.54
92.08
89.79
86.94
81.8
73.63
63.05
51.73
41.5
33.35
26.96
20.91
13.41
3.27
-9.47
-23.62
-37.33
-49.01
-57.93
-64.49
-69.87
-75.55
-82.81
-92.41
-104.49
-118.35
-132.21
-143.09
-147.24
-141.21
-123.26
-94.45
-58.66
-21.4
12.12
38.76
58.16
72.09
82.9
92.14
99.86
105.16
107.14
105.8
102.33
98.53
95.98
95.47
96.77
98.98
101.05
102.26
102.26
100.85
97.87
92.96
85.79
76.24
64.57
51.38
37.43
23.34
9.52
-3.8
-16.46
-28.28
-39.09
-48.82
-57.57
-65.62
-73.33
-81.08
-89.2
-98.01
-107.59
-117.53
-126.49
-132.05
-131.28
-121.63
-102.27
-74.76
-42.81
-11.04
16.62
38.16
53.7
64.67
72.68
78.59
82.4
83.75
82.63
79.71
76.11
72.94
70.78
69.55
68.67
67.48
65.53
62.71
59.08
54.82
50
44.66
38.83
32.66
26.38
20.29
14.57
9.18
3.79
-2.03
-8.64
-16.07
-23.94
-31.61
-38.47
-44.24
-49.2
-54.08
-59.86
-67.4
-77.11
-88.62
-100.49
-110.17
-114.45
-110.33
-96.3
-73.19
-44.34
-14.56
11.5
30.99
43.59
51.07
55.98
60.31
64.74
68.82
71.72
72.98
72.64
70.98
68.14
63.92
58.11
50.91
43.27
36.7
32.71
32.12
34.67
39.1
43.76
47.3
49.02
49.02
47.78
45.81
43.39
40.43
36.7
31.93
25.98
18.91
10.96
2.53
-5.95
-14.16
-22
-29.62
-37.3
-45.31
-53.62
-61.7
-68.45
-72.32
-71.75
-65.66
-53.95
-37.67
-18.82
0.19
17.36
31.55
42.69
51.37
58.34
63.99
68.22
70.7
71.33
70.47
68.93
67.57
66.93
66.97
67.18
67
66.15
64.85
63.63
63.09
63.47
64.64
66.1
67.29
67.82
67.66
67.07
66.44
66.08
66
65.87
65.17
63.34
60.05
55.25
49.16
42.08
34.33
26.13
17.71
9.21
0.66
-8.23
-18.11
-29.86
-44.32
-61.89
-82.33
-104.66
-127.29
-148.09
-164.68
-174.74
-176.47
-169.14
-153.45
-131.46
-106.05
-80.2
-56.16
-35.2
-17.68
-3.47
7.73
16.3
22.75
27.93
32.84
38.41
45.02
52.35
59.4
64.98
68.14
68.48
66.17
61.64
55.26
47.17
37.5
26.57
15.15
4.34
-4.88
-12.04
-17.48
-22.15
-27.14
-33.04
-39.65
-46.02
-50.95
-53.53
-53.58
-51.62
-48.61
-45.56
-43.18
-41.87
-41.67
-42.42
-43.77
-45.14
-45.78
-44.97
-42.29
-37.89
-32.59
-27.52
-23.76
-21.84
-21.65
-22.6
-24.02
-25.48
-26.94
-28.58
-30.63
-33.14
-35.92
-38.65
-41.05
-42.93
-44.25
-45.06
-45.38
-45.29
-44.85
-44.2
-43.58
-43.25
-43.46
-44.33
-45.82
-47.8
-50.13
-52.72
-55.57
-58.73
-62.16
-65.73
-69.14
-72.06
-74.28
-75.78
-76.81
-77.81
-79.31
-81.7
-85.04
-88.91
-92.35
-94.09
-92.83
-87.69
-78.62
-66.41
-52.52
-38.52
-25.64
-14.42
-4.8
3.67
11.39
18.55
25.02
30.63
35.27
39.04
42.25
45.23
48.22
51.25
54.1
56.4
57.81
58.13
57.39
55.81
53.75
51.47
49.04
46.32
43.04
38.99
34.15
28.77
23.29
18.16
13.68
9.88
6.53
3.23
-0.49
-5.01
-10.55
-17.08
-24.18
-31.03
-36.49
-39.31
-38.56
-33.86
-25.65
-15.02
-3.39
7.88
17.82
25.92
32.14
36.62
39.62
41.33
41.96
41.7
40.77
39.44
38
36.64
35.47
34.46
33.48
32.4
31.14
29.69
28.07
26.33
24.42
22.22
19.58
16.36
12.5
8.1
3.4
-1.24
-5.51
-9.23
-12.44
-15.38
-18.42
-21.92
-26.13
-31.13
-36.76
-42.57
-47.77
-51.34
-52.25
-49.8
-43.93
-35.25
-24.85
-13.98
-3.67
5.45
13.13
19.35
24.2
27.75
30.11
31.45
32.02
32.1
31.91
31.53
30.9
29.95
28.64
27.02
25.29
23.6
21.98
20.28
18.22
15.51
12.05
7.99
3.65
-0.64
-4.69
-8.51
-12.27
-16.18
-20.45
-25.27
-30.8
-37.08
-43.92
-50.76
-56.68
-60.61
-61.61
-59.19
-53.48
-45.12
-35.1
-24.39
-13.78
-3.71
5.63
14.2
21.89
28.43
33.39
36.38
37.22
36.15
33.84
31.18
28.94
27.47
26.56
25.58
23.86
21.03
17.27
13.21
9.66
7.24
6.06
5.71
5.45
4.59
2.92
0.81
-0.89
-1.33
-0.1
2.44
5.22
6.81
5.9
1.74
-5.59
-15.01
-24.56
-31.67
-33.76
-29.15
-17.99
-2.59
13.01
24.43
28.59
24.98
15.75
4.76
-4.01
-7.91
-6.21
0.21
9.67
20.6
31.88
42.81
52.77
61.01
66.63
68.91
67.68
63.63
58.22
53.37
50.72
51.03
53.83
57.53
59.96
59.09
53.66
43.41
29.01
11.68
-7.27
-26.78
-46.13
-65.06
-83.58
-101.81
-119.78
-137.2
-153.35
-167.15
-177.38
-183.07
-183.79
-179.8
-172.01
-161.65
-150.03
-138.29
-127.35
-117.93
-110.6
-105.78
-103.65
-104
-106.24
-109.42
-112.48
-114.47
-114.75
-113.15
-109.86
-105.31
-99.96
-94.24
-88.44
-82.96
-78.38
-75.49
-75.06
-77.52
-82.65
-89.54
-96.74
-102.72
-106.41
-107.5
-106.54
-104.78
-103.77
-105.05
-109.63
-117.64
-128.02
-138.47
-146
-147.73
-141.86
-128.26
-108.42
-84.76
-59.69
-34.72
-10.25
14.25
39.49
65.76
92.38
117.8
139.93
156.75
166.99
170.49
168.31
162.37
154.84
147.51
141.45
136.97
133.89
131.81
130.32
128.99
127.22
124.26
119.22
111.44
100.71
87.49
72.83
58.05
44.21
31.7
20.13
8.49
-4.34
-19.19
-36.26
-55.02
-74.23
-92
-106.02
-113.94
-113.96
-105.39
-88.92
-66.38
-40.06
-11.96
16.78
45.73
74.8
103.62
131.3
156.57
178.14
195.11
207.12
214.42
217.64
217.71
215.64
212.36
208.54
204.45
200.02
194.95
188.98
182.07
174.41
166.35
158.16
149.84
141.08
131.35
120.18
107.41
93.4
78.93
65.02
52.48
41.71
32.47
24.02
15.34
5.46
-6.14
-19.16
-32.24
-42.91
-48.1
-45
-32.08
-9.87
19.02
50.64
80.91
106.86
127.24
142.4
153.6
162.18
168.99
174.38
178.48
181.5
183.83
185.88
187.7
188.73
187.89
184.07
176.7
166.16
153.75
141.14
129.66
119.75
110.81
101.57
90.73
77.46
61.8
44.56
27.04
10.48
-4.34
-17.51
-29.93
-43.14
-58.78
-78.07
-101.38
-127.84
-155.31
-180.44
-199.3
-208.19
-204.8
-189.04
-163.31
-131.89
-99.6
-70.47
-46.69
-28.63
-15.43
-5.92
0.69
4.72
6.26
5.59
3.3
0.22
-2.9
-5.62
-7.93
-10.1
-12.46
-15.22
-18.36
-21.71
-25.06
-28.31
-31.45
-34.56
-37.72
-40.92
-44.08
-47.03
-49.62
-51.87
-54.08
-56.82
-60.75
-66.21
-72.81
-79.2
-83.25
-82.77
-76.39
-64.3
-48.28
-31.1
-15.49
-3.18
5.52
11.5
16.17
20.73
25.77
31.18
36.44
41
44.5
46.93
48.57
49.82
51.09
52.58
54.25
55.96
57.55
59.01
60.37
61.55
62.08
61.08
57.55
50.81
40.94
28.95
16.44
5.07
-4.12
-11.06
-16.59
-22.02
-28.67
-37.41
-48.34
-60.71
-72.91
-82.75
-87.95
-86.87
-79.06
-65.6
-48.73
-31.19
-15.32
-2.4
7.38
14.64
20.15
24.45
27.73
29.93
31.09
31.36
31.03
30.33
29.35
27.98
26.09
23.59
20.55
17.13
13.42
9.38
4.81
-0.48
-6.53
-13.07
-19.59
-25.47
-30.33
-34.12
-37.26
-40.54
-44.84
-50.9
-58.92
-68.27
-77.44
-84.24
-86.38
-82.32
-71.78
-56
-37.31
-18.36
-1.27
12.79
23.57
31.41
36.76
40.06
41.68
42.13
42.11
42.3
43.14
44.67
46.52
48.14
49.12
49.38
49.28
49.38
50.19
51.88
54.19
56.48
58.12
58.74
58.46
57.79
57.39
57.66
58.65
60.07
61.52
62.57
62.74
61.41
57.94
51.93
43.68
34.23
25.09
17.47
11.74
7.37
3.5
-0.05
-2.31
-1.47
4.04
14.31
27.37
39.74
47.78
49.22
43.96
33.79
21.31
8.66
-3.27
-14.83
-26.81
-39.51
-52.28
-63.57
-71.71
-75.67
-75.59
-72.77
-69.15
-66.59
-66.28
-68.38
-72.1
-76.08
-78.92
-79.78
-78.85
-77.36
-77.31
-80.94
-90.1
-105.93
-128.5
-156.37
-186.23
-212.92
-230.36
-233.35
-219.8
-192.03
-156.29
-120.53
-91.29
-71.41
-59.7
-52.38
-45.49
-36.6
-25.26
-12.21
1.64
15.72
29.59
42.33
52.25
57.29
55.66
46.76
31.52
12.35
-7.47
-24.56
-36.29
-41.19
-39.05
-30.57
-16.95
0.37
19.74
39.13
56.13
68.33
74.14
73.32
67.19
58.04
48.04
38.31
28.51
17.21
2.91
-15.12
-36.31
-58.97
-80.78
-99.46
-113.27
-121.23
-123.17
-119.56
-111.41
-100.14
-87.41
-74.83
-63.7
-54.77
-48.15
-43.33
-39.47
-35.75
-31.6
-26.85
-21.64
-16.33
-11.25
-6.68
-2.87
-0.04
1.62
2.15
1.9
1.42
1.29
1.83
2.91
4.04
4.65
4.46
3.63
2.7
2.31
2.88
4.39
6.38
8.17
9.03
8.4
5.94
1.45
-5.09
-13.43
-22.92
-32.29
-39.75
-43.3
-41.46
-33.78
-21.24
-5.86
10.04
24.64
37.24
48.13
58.09
67.65
76.73
84.59
90.3
93.22
93.36
91.34
88.18
84.89
82.23
80.52
79.73
79.64
79.93
80.27
80.33
79.75
78.16
75.29
71
65.38
58.72
51.34
43.46
35.16
26.35
16.87
6.52
-4.89
-17.62
-31.96
-47.99
-65.27
-82.62
-98.09
-109.51
-115.14
-114.39
-108
-97.65
-85.23
-72.01
-58.27
-43.47
-26.86
-8.02
12.71
34.3
55.24
73.8
88.34
97.55
100.74
98.03
90.5
80.06
69.04
59.68
53.48
50.95
51.57
54.1
57.04
58.99
58.95
56.39
51.24
43.79
34.6
24.39
13.91
3.76
-5.73
-14.52
-22.84
-31.02
-39.36
-47.93
-56.54
-64.59
-71.06
-74.63
-74
-68.39
-57.93
-43.85
-28.16
-13.02
-0.07
10
17.44
23.01
27.42
30.99
33.57
34.8
34.47
32.72
30.12
27.43
25.27
23.9
23.13
22.46
21.37
19.6
17.21
14.59
12.12
10.02
8.12
6.01
3.14
-0.84
-5.94
-11.78
-17.72
-23.03
-27.16
-29.89
-31.42
-32.29
-33.25
-35.04
-38.2
-42.96
-49.06
-55.77
-61.88
-65.85
-66.2
-61.89
-52.76
-39.6
-23.99
-7.84
7.19
20.08
30.54
38.8
45.25
50.09
53.3
54.8
54.62
53.17
51.17
49.48
48.85
49.68
51.86
54.89
57.95
60.2
60.98
59.91
56.97
52.44
46.81
40.6
34.32
28.29
22.68
17.48
12.58
7.89
3.32
-1.08
-5.35
-9.58
-14.06
-19.25
-25.59
-33.32
-42.19
-51.39
-59.61
-65.33
-67.2
-64.43
-57.01
-45.82
-32.38
-18.52
-5.86
4.54
12.38
17.95
21.82
24.53
26.4
27.54
28.02
27.94
27.53
27
26.48
25.89
25.05
23.77
22
19.83
17.42
14.98
12.64
10.45
8.42
6.52
4.68
2.79
0.65
-1.95
-5.14
-8.94
-13.19
-17.6
-21.93
-26.03
-29.87
-33.59
-37.32
-41.22
-45.39
-49.8
-54.24
-58.16
-60.71
-60.83
-57.59
-50.58
-40.13
-27.42
-14.07
-1.73
8.47
16.07
21.27
24.54
26.41
27.16
26.87
25.55
23.35
20.64
17.89
15.58
14
13.17
12.87
12.78
12.59
12.11
11.29
10.17
8.87
7.43
5.85
3.98
1.62
-1.44
-5.34
-10.01
-15.22
-20.57
-25.62
-29.96
-33.38
-35.9
-37.81
-39.58
-41.75
-44.74
-48.63
-53.05
-57.17
-59.76
-59.56
-55.6
-47.6
-36.07
-22.3
-7.97
5.32
16.43
24.97
31.14
35.55
38.73
41.01
42.43
42.92
42.53
41.48
40.17
38.98
38.07
37.35
36.51
35.31
33.68
31.78
29.9
28.29
27.02
25.93
24.7
22.99
20.61
17.58
14.16
10.73
7.63
5.03
2.86
0.95
-0.9
-2.84
-4.9
-7.2
-9.92
-13.36
-17.79
-23.14
-28.86
-33.87
-36.81
-36.39
-31.84
-23.15
-11.14
2.73
16.65
28.95
38.45
44.74
48.24
50.02
51.42
53.53
56.82
60.85
64.47
66.24
65.14
61.11
55.29
49.69
46.44
47.04
51.79
59.72
68.89
76.92
81.42
80.49
73.2
59.97
42.76
24.77
9.56
-0.01
-2.61
1.48
10.91
24.28
40.76
60.17
82.28
105.81
127.79
143.87
149.49
141.65
120.4
89.09
53.43
19.37
-8.89
-30.05
-45.32
-57.05
-67
-75.51
-81.72
-84.5
-83.47
-79.37
-73.65
-67.76
-62.49
-57.75
-52.79
-46.66
-38.72
-28.9
-17.85
-6.8
2.73
9.33
12.01
10.22
3.83
-7.03
-22.04
-40.58
-61.67
-83.92
-105.73
-125.6
-142.56
-156.41
-167.62
-176.88
-184.28
-188.82
-188.37
-180.36
-163.13
-136.99
-104.67
-70.7
-39.96
-16.03
-0.22
8.44
12.29
13.91
15.15
16.9
19.24
21.93
24.7
27.38
29.8
31.85
33.4
34.42
35.1
35.72
36.52
37.55
38.53
38.94
38.24
36.1
32.6
28.22
23.61
19.42
15.91
12.98
10.14
6.64
1.73
-5.04
-13.46
-22.48
-30.22
-34.37
-32.91
-24.83
-10.65
7.63
27.18
45.24
59.9
70.61
77.94
83.09
87.24
91.15
95.09
99
102.77
106.33
109.52
111.98
113.02
111.83
107.81
100.9
91.74
81.33
70.51
59.52
47.92
34.92
20.06
3.54
-13.69
-30.46
-45.89
-59.76
-72.45
-84.5
-96.31
-107.96
-119.27
-129.77
-138.39
-143.16
-141.49
-130.94
-110.64
-82.34
-50.44
-20.79
1.37
13.28
15.34
10.4
2.1
-6.72
-14.79
-22.07
-28.92
-35.27
-40.51
-43.86
-44.94
-43.98
-41.63
-38.56
-34.94
-30.43
-24.41
-16.58
-7.38
1.98
9.86
14.75
15.79
13
7.15
-0.58
-8.97
-17.07
-24.28
-30.38
-35.42
-39.67
-43.42
-46.94
-50.27
-53.22
-55.36
-56.1
-55.06
-52.17
-47.82
-42.48
-36.37
-29.1
-19.68
-7.1
8.94
27.52
46.53
63.42
76.2
84.19
88.05
89.08
88.34
85.99
81.55
74.51
65.07
54.26
43.47
33.57
24.27
14.08
1.04
-16.34
-38.19
-63.16
-88.97
-113.34
-134.87
-153.49
-170.26
-186.69
-203.92
-222.03
-239.83
-255.12
-265.32
-268.42
-263.65
-251.93
-235.71
-218.07
-201.8
-188.47
-178.16
-169.92
-162.57
-155.48
-148.82
-143.39
-139.91
-138.36
-137.55
-135.15
-128.27
-114.29
-91.84
-61.36
-25.22
12.84
48.83
79.66
103.83
121.45
133.59
141.39
145.5
146
142.81
136.18
126.79
115.55
103.14
89.76
75.12
58.72
40.23
19.7
-2.31
-24.87
-46.78
-66.8
-83.87
-97.39
-107.4
-114.49
-119.39
-122.52
-123.59
-121.7
-115.9
-105.82
-92.15
-76.45
-60.56
-45.89
-33.01
-21.71
-11.34
-1.31
8.6
18.2
26.95
34.11
39.08
41.67
42.48
42.92
44.9
50.13
59.33
71.78
85.53
98.06
107.06
111.19
110.14
104.5
95.4
84.24
72.47
61.46
52.18
45.05
39.8
35.7
31.98
28.2
24.46
21.25
19.17
18.64
19.75
22.3
25.89
30.09
34.48
38.74
42.59
45.75
47.93
48.76
47.88
45.09
40.5
34.64
28.38
22.57
17.8
14.11
10.92
7.32
2.31
-4.8
-14.18
-25.35
-37.13
-47.83
-55.42
-58.13
-54.9
-45.83
-32.31
-16.71
-1.8
9.96
17.02
19.14
17.12
12.48
6.66
0.61
-5.33
-11.06
-16.27
-20.12
-21.39
-19.07
-12.99
-4.02
6.22
16.3
25.8
35.44
46.63
60.42
76.61
93.59
108.86
120.14
126.41
128.26
127.46
125.9
124.71
123.79
122.06
118.04
110.46
98.67
82.73
63.49
42.56
22.18
4.95
-6.65
-10.72
-6.38
6.13
25.5
49.57
75.74
101.11
122.94
139.07
148.34
150.85
147.76
140.73
131.32
120.49
108.46
94.96
79.73
62.87
45.11
27.53
11.19
-3.3
-15.99
-27.43
-38.25
-48.71
-58.65
-67.55
-75.01
-81.07
-86.3
-91.63
-97.98
-105.82
-115.02
-124.81
-134.15
-142.16
-148.57
-153.85
-159.07
-165.37
-173.26
-182.06
-189.75
-193.29
-189.4
-175.53
-150.7
-115.99
-74.29
-29.81
12.99
50.56
81.2
105.7
127.43
151.45
182.76
223.98
273.54
325.18
369.46
396.83
400.8
379.82
337.05
278.53
210.99
140.57
72.71
12.5
-35.36
-67.57
-83.6
-86.57
-82.55
-78.53
-79.83
-88.24
-101.75
-115.76
-125.18
-126.44
-118.68
-103.73
-85.19
-67.08
-52.47
-42.7
-37.25
-34.29
-31.41
-26.36
-17.62
-4.94
10.5
26.18
38.87
45.71
45.32
38.47
27.83
16.88
8.65
4.64
4.67
7.44
11.4
15.47
19.24
22.68
25.72
28.04
29.17
28.83
27.24
25.19
23.71
23.66
25.27
28.01
30.78
32.32
31.73
28.72
23.64
17.22
10.23
3.14
-3.88
-11.02
-18.55
-26.63
-35.17
-43.71
-51.38
-57.06
-59.53
-57.68
-50.8
-38.78
-22.28
-2.65
18.15
38.04
55.2
68.52
77.76
83.46
86.6
88.2
89.03
89.42
89.46
89.04
88.07
86.52
84.37
81.67
78.54
75.28
72.33
70.18
69.22
69.58
71.11
73.56
76.66
80.29
84.32
88.5
92.23
94.58
94.43
90.86
83.36
71.92
56.97
39.28
19.77
-0.55
-20.62
-39.51
-56.52
-71.1
-82.62
-90.16
-92.52
-88.57
-77.98
-61.79
-42.48
-23.34
-7.44
3.33
8.65
9.44
7.1
2.83
-2.78
-9.56
-17.39
-25.92
-34.41
-41.99
-48.02
-52.27
-55.03
-56.95
-58.7
-60.64
-62.69
-64.41
-65.23
-64.73
-62.88
-59.98
-56.64
-53.61
-51.67
-51.27
-52.16
-53.22
-52.65
-48.65
-40.31
-28.34
-15.09
-3.75
3.2
5.12
3.63
1.75
2.49
7.53
16.69
28.19
39.7
49.46
56.7
61.48
63.87
63.76
60.85
55.16
47.3
38.72
31.49
27.67
28.58
34.14
43.26
54.22
65.39
75.3
82.65
86.89
88.75
90.38
94.12
101.66
112.06
123.89
135.05
143.24
146.65
144.21
137.42
127.81
116.98
105.96
95.14
84.17
72.48
59.92
46.75
33.45
19.95
5.9
-9.17
-25.14
-41.31
-56.35
-68.74
-77.39
-82.04
-83.42
-82.53
-80.27
-77.16
-73.8
-71.36
-71.71
-77
-88.7
-106.74
-129.01
-151.77
-170.75
-182.55
-185.42
-179.45
-166.12
-147.69
-126.74
-105.82
-87.17
-72.45
-62.41
-56.86
-54.86
-55.3
-57.49
-61.38
-67.4
-75.86
-86.45
-97.99
-108.65
-116.32
-119.21
-116.22
-107.19
-93.1
-75.98
-58.62
-43.98
-34.44
-31.12
-33.53
-39.73
-47.04
-52.86
-55.47
-54.55
-51.19
-47.41
-45.3
-46.13
-49.53
-53.49
-54.85
-50.54
-38.73
-19.65
4.33
29.33
51.07
65.95
71.81
68.17
56.03
37.44
15.08
-8.11
-29.38
-46.58
-58.54
-65.36
-68.21
-68.8
-68.65
-68.45
-67.95
-66.35
-62.99
-57.92
-52.06
-46.75
-43
-41.03
-40.15
-39.2
-37.17
-33.64
-29.08
-24.83
-22.92
-25.87
-36.2
-55.7
-84.74
-121.63
-162.7
-203.04
-237.92
-264.15
-280.94
-289.7
-292.95
-292.96
-290.69
-285.55
-276.02
-260.57
-238.32
-209.25
-173.93
-133.08
-87.43
-37.78
14.78
68.91
123.22
176.56
227.97
276.27
319.71
355.82
382.03
396.5
398.91
390.53
373.67
350.96
324.69
296.8
269.11
243.32
220.72
201.69
185.57
171.08
157.25
144
132.06
122.22
114.44
107.57
99.9
90.2
78.47
65.89
53.92
43.33
33.81
24.24
13.63
1.71
-10.79
-22.57
-32.15
-38.35
-40.3
-37.52
-30.1
-18.82
-5.2
8.76
21.1
30.54
36.64
39.77
40.65
39.88
37.72
34.13
29.1
22.83
15.98
9.44
4.15
0.72
-0.7
-0.45
0.86
2.61
4.33
5.79
6.87
7.55
7.79
7.63
7.15
6.45
5.52
4.1
1.74
-2.18
-8.11
-16.18
-26.03
-36.88
-47.7
-57.51
-65.61
-71.76
-76.22
-79.66
-83.1
-87.54
-93.59
-100.97
-108.14
-112.46
-110.72
-100.32
-80.39
-52.34
-19.67
13.12
41.95
64.27
79.48
88.46
92.79
94
93.17
91.1
88.47
86.04
84.51
84.19
84.79
85.41
84.85
82.12
76.83
69.31
60.37
50.82
41.08
30.93
19.8
7.14
-7.13
-22.36
-37.32
-50.66
-61.41
-69.39
-75.24
-80.04
-84.82
-90.03
-95.41
-100.18
-103.61
-105.47
-106.29
-107.2
-109.57
-114.57
-122.82
-134.12
-147.33
-160.36
-170.31
-174.08
-169.15
-154.63
-131.75
-103.73
-74.88
-49.3
-29.71
-16.98
-10.4
-8.43
-9.6
-12.89
-17.71
-23.51
-29.41
-34.13
-36.18
-34.46
-28.67
-19.58
-8.85
1.48
9.68
14.8
16.83
16.48
14.61
11.79
8.05
3.08
-3.35
-10.9
-18.58
-24.95
-28.73
-29.33
-27.12
-23.33
-19.57
-17.35
-17.73
-21.18
-27.56
-36.02
-44.98
-52.07
-54.58
-50.2
-37.98
-18.91
4.16
27.38
47.17
61.28
69.22
71.93
71.01
67.89
63.42
57.97
51.72
44.99
38.27
32.09
26.73
22.11
17.89
13.7
9.43
5.28
1.62
-1.32
-3.7
-6.09
-9.1
-12.91
-16.83
-19.24
-18.09
-11.65
0.73
18.23
38.74
59.51
77.87
91.95
101.05
105.83
108.21
110.91
116.65
127.07
141.9
158.63
173.16
181.31
180.37
170.16
153.06
132.95
113.77
98.26
87.45
80.86
77.19
74.95
72.89
70.19
66.49
61.86
56.68
51.43
46.52
42.01
37.61
32.82
27.05
19.88
11.08
0.51
-11.96
-26.44
-42.98
-61.26
-80.43
-99.13
-115.87
-129.44
-139.43
-146.34
-151.47
-156.42
-162.72
-171.46
-183.04
-196.84
-210.84
-221.56
-224.59
-215.94
-193.66
-159.08
-116.79
-73.28
-34.74
-5.11
14.81
26.84
34.08
39.36
44.46
49.96
55.61
60.84
64.92
67.05
66.5
62.74
55.76
46.24
35.44
24.92
15.97
9.21
4.36
0.37
-4.11
-10.24
-18.52
-28.78
-40.35
-52.5
-64.66
-76.5
-87.72
-97.73
-105.46
-109.47
-108.34
-101.25
-88.4
-71.16
-51.83
-33.26
-18.31
-9.31
-7.38
-11.85
-19.95
-27.29
-28.98
-21.38
-3.49
22.54
52.18
80.27
102.78
117.9
125.99
128.6
127.45
123.74
118.21
111.58
104.92
99.66
97.22
98.41
103.11
110.31
118.54
126.55
133.8
140.58
147.61
155.44
163.84
171.71
177.43
179.61
177.64
171.91
163.44
153.27
141.9
129.13
114.23
96.46
75.56
52.06
27.26
2.84
-19.59
-39.03
-55.41
-69.51
-82.53
-95.52
-108.81
-121.85
-133.48
-142.53
-148.45
-151.62
-153.35
-155.53
-160.09
-168.37
-180.44
-194.39
-206.19
-210.24
-200.99
-175.02
-132.82
-79.2
-22.05
30.22
71.39
99
114.27
120.59
121.68
120.09
116.99
112.6
106.97
100.52
93.9
87.75
82.32
77.41
72.64
67.73
62.87
58.64
55.73
54.54
54.81
55.55
55.3
52.7
47.07
38.65
28.54
18.24
9.14
1.91
-3.6
-8.33
-13.55
-20.28
-28.91
-38.98
-49.28
-58.4
-65.22
-69.5
-72
-74.15
-77.5
-82.96
-90.28
-98.15
-104.66
-108.15
-107.95
-104.73
-100.32
-97.11
-97.38
-102.61
-112.92
-126.67
-140.3
-148.77
-146.68
-130.04
-98
-53.72
-3.72
44.06
82.87
109.08
122.73
126.55
124.15
118.36
110.48
100.56
88.22
73.64
57.89
42.89
30.71
22.99
20.41
22.58
28.27
35.92
44.05
51.57
57.72
61.93
63.71
62.61
58.41
51.38
42.36
32.65
23.66
16.5
11.55
8.4
5.99
3.06
-1.28
-7.2
-14.01
-20.53
-25.57
-28.52
-29.69
-30.24
-31.7
-35.38
-41.79
-50.39
-59.83
-68.43
-74.87
-78.64
-80.24
-80.96
-82.48
-86.45
-93.93
-105.01
-118.33
-130.82
-137.99
-134.99
-118.17
-86.77
-43.65
5.17
52.4
91.75
119.78
136.4
144.04
146
145.01
142.53
138.92
134.07
128.01
121.09
113.77
106.39
98.99
91.4
83.44
75.09
66.52
57.84
48.93
39.18
27.61
13.12
-5.13
-27.29
-52.63
-79.61
-106.25
-130.75
-152.13
-170.42
-186.56
-201.68
-216.34
-229.88
-240.35
-245.04
-241.59
-228.83
-207.29
-178.88
-146.01
-110.62
-73.57
-34.59
7.3
53.07
103.08
156.61
211.62
264.72
311.46
346.91
366.78
368.52
352.27
321.04
279.99
235.06
191.5
152.82
120.55
94.54
73.78
57.07
43.49
32.44
23.54
16.56
11.24
7.4
4.85
3.35
2.48
1.63
0.09
-2.73
-6.99
-12.27
-17.71
-22.27
-25.15
-26.12
-25.52
-24.17
-22.97
-22.63
-23.45
-25.29
-27.71
-30.16
-32.14
-33.35
-33.78
-33.64
-33.32
-33.15
-33.35
-33.98
-34.93
-36.06
-37.27
-38.52
-39.76
-40.93
-41.94
-42.7
-43.2
-43.56
-44.02
-44.77
-45.85
-47.09
-48.17
-48.81
-48.98
-49
-49.45
-51
-54.14
-59
-65.29
-72.45
-79.85
-87.08
-94.08
-101.18
-108.9
-117.9
-128.88
-142.62
-159.82
-180.9
-205.61
-232.69
-260.08
-285.42
-306.85
-323.25
-334.04
-338.44
-334.98
-321.72
-297.17
-261.55
-217.37
-168.93
-120.95
-77
-38.53
-5.04
25.11
53.88
83.21
114.92
150.48
190.21
232.32
272.39
304.16
321.27
319.47
298.08
259.88
209.72
152.5
91.74
29.49
-32.86
-93.73
-151.07
-203.14
-249.26
-289.95
-326.02
-357.24
-381.43
-394.95
-394.2
-377.66
-347.05
-306.96
-263.23
-220.88
-182.68
-148.97
-118.53
-89.72
-61.29
-32.49
-2.86
27.95
60.04
92.82
124.81
153.72
177.17
193.59
202.85
206.35
206.24
204.57
202.49
200.13
197.05
192.86
187.64
181.93
176.3
170.95
165.56
159.45
151.97
142.83
132.18
120.46
108.1
95.32
82.04
68.08
53.36
38.1
22.84
8.25
-5.19
-17.38
-28.78
-40.25
-52.8
-67.26
-83.89
-102.17
-120.67
-137.17
-149.09
-154.05
-150.58
-138.58
-119.42
-95.58
-70
-45.36
-23.56
-5.59
8.43
18.99
26.91
33.12
38.56
43.92
49.69
56.04
62.86
69.88
76.65
82.7
87.56
90.84
92.38
92.33
91.08
89.17
87.04
84.88
82.54
79.64
75.75
70.55
64.08
56.65
48.86
41.41
34.91
29.68
25.62
22.23
18.68
13.98
7.26
-1.94
-13.3
-25.44
-36.03
-42.17
-41.25
-31.83
-14.27
9.24
35.4
60.76
82.74
100.13
112.98
122.14
128.64
133.33
136.64
138.73
139.6
139.28
137.93
135.86
133.44
131.03
128.85
126.9
125.04
123.02
120.63
117.69
114.09
109.67
104.3
97.9
90.51
82.32
73.62
64.67
55.61
46.51
37.36
28.2
19.21
10.59
2.57
-4.9
-12.15
-19.88
-28.88
-39.65
-51.95
-64.45
-74.86
-80.5
-79.14
-69.9
-53.65
-32.77
-10.3
11.01
29.43
44.42
56.29
65.71
73.27
79.31
84.07
87.74
90.52
92.54
93.76
94
93.06
90.92
87.79
84.14
80.52
77.4
74.97
73.11
71.41
69.29
66.22
61.91
56.36
49.9
43.01
36.2
29.81
23.97
18.48
12.99
7.11
0.55
-6.72
-14.5
-22.36
-29.78
-36.37
-41.99
-46.82
-51.36
-56.34
-62.47
-70.23
-79.52
-89.47
-98.4
-104.1
-104.49
-98.29
-85.59
-67.86
-47.53
-27.17
-8.74
6.82
19.51
29.86
38.45
45.59
51.4
55.87
59.1
61.3
62.71
63.49
63.68
63.21
62.1
60.52
58.76
57.16
55.88
54.87
53.83
52.34
50.05
46.8
42.71
38.1
33.37
28.87
24.82
21.16
17.69
14.1
10.09
5.55
0.63
-4.34
-8.98
-13.01
-16.45
-19.63
-23.01
-27.04
-31.86
-37.31
-42.93
-48.19
-52.72
-56.45
-59.68
-62.96
-66.96
-72.27
-79.09
-87.05
-95.01
-101.18
-103.5
-100.3
-90.93
-76.11
-57.76
-38.4
-20.39
-5.24
6.59
15.49
22.27
27.67
32.16
35.89
38.85
40.99
42.31
42.84
42.6
41.61
39.94
37.77
35.44
33.49
32.54
33.11
35.44
39.33
44.15
48.97
52.78
54.77
54.54
52.18
48.14
43.11
37.67
32.22
26.92
21.72
16.57
11.46
6.5
1.8
-2.49
-6.36
-9.87
-13.23
-16.68
-20.44
-24.67
-29.36
-34.31
-39.17
-43.57
-47.26
-50.2
-52.66
-55.18
-58.36
-62.71
-68.32
-74.66
-80.6
-84.54
-84.89
-80.61
-71.66
-59.06
-44.65
-30.46
-18.09
-8.35
-1.21
3.89
7.66
10.67
13.24
15.49
17.42
19.04
20.34
21.34
22
22.32
22.31
22.01
21.52
20.99
20.6
20.44
20.5
20.61
20.47
19.8
18.4
16.34
13.85
11.3
9.02
7.12
5.51
3.94
2.11
-0.11
-2.68
-5.35
-7.84
-9.98
-11.79
-13.57
-15.66
-18.29
-21.41
-24.69
-27.69
-30.12
-31.96
-33.49
-35.15
-37.34
-40.28
-43.98
-48.18
-52.38
-55.79
-57.43
-56.31
-51.84
-44.14
-34.12
-23.27
-13.17
-4.91
1.16
5.35
8.3
10.57
12.41
13.8
14.66
14.98
14.95
14.87
15
15.46
16.14
16.83
17.33
17.55
17.57
17.55
17.62
17.74
17.7
17.22
16.06
14.23
11.93
9.5
7.19
5.12
3.2
1.25
-0.9
-3.32
-5.97
-8.75
-11.56
-14.3
-16.94
-19.45
-21.87
-24.23
-26.62
-29.12
-31.81
-34.8
-38.16
-41.88
-45.74
-49.22
-51.57
-52.01
-50.01
-45.53
-39.09
-31.62
-24.17
-17.52
-12.05
-7.76
-4.38
-1.59
0.74
2.63
3.95
4.6
4.62
4.24
3.77
3.48
3.48
3.69
3.9
3.94
3.74
3.39
3.06
2.88
2.83
2.75
2.4
1.58
0.21
-1.7
-3.98
-6.4
-8.7
-10.68
-12.28
-13.6
-14.89
-16.49
-18.69
-21.65
-25.33
-29.38
-33.16
-35.85
-36.6
-34.87
-30.6
-24.31
-16.98
-9.71
-3.41
1.45
4.86
7.12
8.63
9.69
10.47
10.97
11.15
10.93
10.33
9.43
8.48
7.72
7.32
7.26
7.35
7.31
6.97
6.31
5.51
4.77
4.16
3.5
2.48
0.77
-1.72
-4.81
-8.05
-10.98
-13.3
-14.99
-16.35
-17.76
-19.61
-22.15
-25.46
-29.43
-33.69
-37.62
-40.31
-40.88
-38.69
-33.7
-26.53
-18.34
-10.41
-3.68
1.43
5.05
7.58
9.5
11.07
12.41
13.49
14.25
14.68
14.8
14.66
14.35
13.95
13.56
13.23
12.95
12.67
12.32
11.81
11.14
10.33
9.38
8.28
6.97
5.36
3.39
1.06
-1.55
-4.26
-6.91
-9.34
-11.48
-13.37
-15.11
-16.9
-18.92
-21.37
-24.34
-27.83
-31.63
-35.28
-38.09
-39.26
-38.13
-34.4
-28.34
-20.73
-12.65
-5.18
0.92
5.35
8.23
9.96
11.04
11.84
12.65
13.53
14.43
15.24
15.82
16.12
16.17
16.06
15.86
15.63
15.33
14.94
14.47
13.97
13.51
13.06
12.54
11.78
10.62
9
7
4.86
2.83
1.1
-0.29
-1.49
-2.78
-4.42
-6.58
-9.18
-12.01
-14.73
-17.09
-19.04
-20.68
-22.27
-24.11
-26.4
-29.21
-32.45
-35.84
-38.89
-40.93
-41.22
-39.24
-34.81
-28.32
-20.6
-12.73
-5.63
0.1
4.37
7.39
9.56
11.23
12.62
13.81
14.82
15.66
16.32
16.82
17.16
17.37
17.52
17.69
17.96
18.36
18.86
19.36
19.75
19.88
19.7
19.15
18.21
16.91
15.3
13.49
11.65
9.95
8.47
7.23
6.09
4.87
3.42
1.71
-0.16
-2.01
-3.71
-5.28
-6.89
-8.76
-11.06
-13.76
-16.63
-19.32
-21.54
-23.22
-24.6
-26.11
-28.22
-31.19
-34.85
-38.56
-41.31
-42.04
-40.05
-35.2
-28.08
-19.73
-11.34
-3.88
2.1
6.51
9.57
11.63
13.02
14.02
14.83
15.58
16.37
17.2
18.02
18.72
19.21
19.44
19.46
19.38
19.27
19.24
19.3
19.46
19.66
19.84
19.89
19.67
19.07
18
16.53
14.85
13.23
11.87
10.81
9.85
8.7
7.13
5.1
2.82
0.64
-1.15
-2.46
-3.42
-4.36
-5.57
-7.31
-9.55
-12.13
-14.77
-17.21
-19.32
-21.17
-22.97
-25.08
-27.82
-31.36
-35.56
-39.87
-43.38
-45.02
-43.89
-39.63
-32.58
-23.8
-14.67
-6.47
0.05
4.75
7.96
10.19
11.84
13.11
14.03
14.59
14.89
15.05
15.23
15.48
15.77
16.03
16.21
16.36
16.57
16.94
17.51
18.2
18.87
19.27
19.24
18.66
17.58
16.16
14.62
13.13
11.78
10.55
9.3
7.95
6.45
4.88
3.33
1.84
0.37
-1.19
-2.97
-5
-7.21
-9.48
-11.7
-13.79
-15.8
-17.8
-19.89
-22.21
-24.88
-27.97
-31.48
-35.17
-38.52
-40.78
-41.13
-39.03
-34.45
-27.91
-20.36
-12.89
-6.34
-1.12
2.78
5.69
7.96
9.86
11.45
12.71
13.58
14.05
14.2
14.12
13.9
13.62
13.34
13.13
13.08
13.22
13.5
13.79
13.91
13.7
13.09
12.11
10.86
9.42
7.81
6.02
4.03
1.81
-0.56
-2.99
-5.35
-7.53
-9.49
-11.25
-12.91
-14.62
-16.54
-18.82
-21.52
-24.62
-27.85
-30.76
-32.69
-32.99
-31.21
-27.34
-21.81
-15.41
-8.97
-3.16
1.74
5.7
8.89
11.46
13.45
14.84
15.56
15.61
15.1
14.23
13.2
12.24
11.52
11.1
10.95
10.93
10.86
10.57
9.97
9.07
7.93
6.63
5.17
3.48
1.47
-0.92
-3.62
-6.47
-9.26
-11.83
-14.16
-16.38
-18.69
-21.32
-24.42
-28.05
-32.1
-36.27
-39.99
-42.56
-43.18
-41.28
-36.69
-29.82
-21.52
-12.9
-4.95
1.73
6.99
11.05
14.29
17.01
19.35
21.29
22.72
23.56
23.86
23.74
23.42
23.08
22.91
23
23.36
23.92
24.52
24.93
24.97
24.48
23.45
21.94
20.07
17.92
15.52
12.85
9.91
6.73
3.44
0.17
-2.95
-5.85
-8.56
-11.13
-13.7
-16.44
-19.61
-23.48
-28.13
-33.32
-38.29
-41.95
-43.16
-41.13
-35.81
-27.96
-18.85
-9.86
-2.02
4.26
9.1
12.97
16.34
19.49
22.45
25.12
27.32
28.96
30.01
30.6
30.86
30.9
30.78
30.51
30.11
29.62
29.17
28.86
28.78
28.86
28.94
28.75
28.03
26.62
24.51
21.85
18.93
16.08
13.57
11.51
9.8
8.16
6.24
3.78
0.74
-2.69
-6.17
-9.32
-11.96
-14.11
-16.01
-18
-20.43
-23.56
-27.46
-31.99
-36.69
-40.8
-43.37
-43.52
-40.72
-35.08
-27.32
-18.56
-9.96
-2.35
3.94
9
13.14
16.66
19.74
22.48
24.88
26.93
28.6
29.84
30.61
30.92
30.89
30.74
30.71
30.92
31.33
31.76
31.97
31.79
31.14
30.03
28.54
26.79
24.89
23
21.24
19.65
18.19
16.69
14.96
12.88
10.47
7.87
5.31
2.93
0.72
-1.47
-3.82
-6.46
-9.33
-12.25
-15
-17.42
-19.49
-21.31
-23.06
-24.93
-27.1
-29.75
-32.93
-36.55
-40.18
-43.07
-44.26
-42.95
-38.82
-32.2
-24.08
-15.72
-8.25
-2.3
2.07
5.28
7.86
10.25
12.62
14.88
16.82
18.24
19.03
19.23
19
18.52
17.97
17.46
17.03
16.67
16.31
15.94
15.57
15.17
14.7
14.05
13.07
11.69
9.94
7.97
6.01
4.25
2.78
1.59
0.54
-0.57
-1.91
-3.6
-5.62
-7.86
-10.13
-12.2
-13.93
-15.32
-16.53
-17.81
-19.45
-21.65
-24.44
-27.6
-30.61
-32.68
-32.99
-30.89
-26.28
-19.69
-12.11
-4.7
1.66
6.54
10.01
12.41
14.11
15.35
16.21
16.72
16.95
17.01
17.07
17.25
17.6
18.07
18.55
18.88
18.96
18.76
18.34
17.82
17.29
16.77
16.16
15.32
14.14
12.64
10.89
9.02
7.13
5.23
3.29
1.29
-0.73
-2.7
-4.55
-6.27
-7.95
-9.75
-11.86
-14.37
-17.26
-20.37
-23.49
-26.36
-28.8
-30.74
-32.27
-33.62
-35.11
-37.08
-39.75
-43
-46.31
-48.75
-49.2
-46.78
-41.2
-32.95
-23.25
-13.57
-5.14
1.39
6.13
9.61
12.5
15.21
17.89
20.39
22.52
24.08
25.01
25.33
25.12
24.59
23.96
23.45
23.2
23.2
23.34
23.46
23.48
23.46
23.59
24.03
24.83
25.77
26.51
26.67
26.08
24.97
23.92
23.74
25.04
28.03
32.23
36.69
40.35
42.59
43.56
44.18
45.68
48.99
54.3
61.05
68.33
75.54
82.69
90.45
99.72
111.32
125.85
143.87
165.81
191.56
219.68
246.86
268.23
278.6
274.28
254.65
222.4
182.44
139.95
98.53
59.68
23.46
-10.16
-40.16
-64.48
-81
-88.84
-88.95
-83.74
-75.84
-66.93
-57.22
-45.76
-31.44
-13.9
6.11
26.81
45.87
60.94
70.15
72.44
67.78
57.15
42.23
24.69
5.66
-14.56
-36.1
-58.85
-81.82
-103.31
-121.55
-135.54
-145.62
-153.24
-160.11
-167.42
-175.2
-182.52
-188.04
-190.7
-190.03
-185.98
-178.53
-167.35
-151.86
-131.72
-107.35
-80.27
-52.9
-27.91
-7.38
7.71
17.6
23.4
26.4
27.62
27.59
26.51
24.57
22.08
19.54
17.35
15.59
13.87
11.59
8.19
3.51
-2.13
-8.1
-13.82
-19.06
-24.03
-29.3
-35.38
-42.44
-50.13
-57.63
-64
-68.51
-70.96
-71.8
-71.92
-72.43
-74.26
-77.77
-82.59
-87.55
-90.9
-90.81
-85.9
-75.87
-61.66
-45.36
-29.57
-16.79
-8.7
-5.99
-8.38
-15
-24.76
-36.58
-49.49
-62.6
-75.19
-86.67
-96.72
-105.15
-111.8
-116.41
-118.49
-117.36
-112.26
-102.59
-88.16
-69.38
-47.36
-23.74
-0.49
20.56
38.12
51.64
61.34
68.06
72.93
77.09
81.48
86.6
92.5
98.65
104.22
108.45
111.07
112.55
113.95
116.33
120.15
124.8
128.72
129.99
127.25
120.26
110.06
98.45
87.22
77.52
69.58
62.94
56.85
50.78
44.53
38.18
31.85
25.55
19.09
12.18
4.58
-3.71
-12.48
-21.26
-29.53
-36.78
-42.7
-47.29
-50.8
-53.73
-56.56
-59.63
-63.03
-66.62
-70.21
-73.73
-77.19
-80.7
-84.34
-88
-91.46
-94.45
-96.83
-98.69
-100.26
-101.67
-102.75
-102.89
-101.2
-96.87
-89.59
-79.75
-68.37
-56.78
-46.15
-37.22
-30.19
-24.97
-21.55
-20.19
-21.43
-25.84
-33.71
-44.91
-58.78
-74.37
-90.64
-106.53
-120.97
-132.81
-140.84
-143.99
-141.64
-134.02
-122.23
-108.03
-93.27
-79.32
