-95.461
-50.136
18.143
-35.106
35.011
-18.39
32.704
-28.779
16.288
51.394
-98.952
92.465
-85.223
4.9506
-7.0475
9.548
6.0573
-112.73
105
35.501
39.771
6.4684
-63.289
21.303
-46.049
1.3295
57.608
13.422
-46.628
-7.6523
65.52
-78.332
-15.073
16.996
-46.873
84.761
28.114
4.0122
-8.2926
-74.547
16.451
10.269
22.493
4.4349
-23.955
-34.36
2.6326
22.731
-7.3178
-56.71
-46.001
109.9
222.9
-103.13
31.261
-303.56
-58.193
271.85
113.44
262.83
-317.47
-514.67
307.56
148.72
-28.482
-77.767
28.595
-39.374
35.811
63.118
-58.779
77.511
28.678
57.002
65.954
-391.44
135.84
-70.729
38.061
-33.765
-8.0704
198.64
95.409
-76.03
-10.723
-114.31
84.314
-25.118
-87.972
-4.5993
72.026
10.041
-28.245
99.303
-44.54
-92.834
2.6956
13.436
-2.516
29.359
68.875
-50.375
26.864
-42.964
8.4524
-102.38
95.084
56.478
-58.05
-39.905
-66.31
-185.87
-62.892
-33.1
60.667
356.68
199.11
37.003
-6.5242
283.64
64.815
-535.92
-71.313
-14.095
20.483
20
15.915
-22.255
-29.265
10.191
65.886
-29.607
-28.841
0.71094
-35.245
58.778
-95.289
12.012
141.27
-70.544
-37.686
-84.912
42.658
140.17
-27.483
-48.407
55.276
-67.358
-1.7082
46.658
-70.681
-36.165
89.234
-14.635
40.111
26.866
-42.773
94.884
-70.901
-102.08
-9.4227
25.817
40.134
-4.8946
87.511
-53.98
-31.195
-96.418
88.697
4.2268
5.8191
78.633
-110.98
2.1524
-93.384
77.822
61.904
8.7095
-16.845
20.023
29.339
-60.123
17.976
13.947
3.0124
98.689
-172.53
-47.617
40.987
33.447
21.473
-22.686
-9.4959
37.044
4.0464
21.344
14.505
-76.728
45.543
32.882
-43.065
5.3541
-32.213
-8.6372
15.797
23.295
-33.679
-92.976
134.73
49.438
-70.025
-60.06
-4.1523
119.94
-23.06
60.104
-130.52
-0.75123
-75.971
68.119
65.426
23.142
-14.767
-8.9471
27.826
-45.458
55.816
-88.878
9.2684
-34.572
13.493
92.443
4.1354
-25.884
-4.5868
24.602
-29.024
-21.396
-49.517
-72.893
84.996
72.917
-14.035
1.4785
20.914
-9.9015
-36.171
61.025
-20.965
-23.654
-18.456
-29.078
36.228
-16.65
-53.824
92.806
5.0928
-171.15
68.002
120.72
-9.1827
5.7019
-23.535
-40.981
29.179
73.454
-45.433
-49.152
7.0462
3.9382
-43.799
-9.9234
63.238
-3.3328
28.626
12.417
-21.755
-16.341
21.333
-20.365
0.80989
-23.53
8.019
-25.849
12.886
-12.443
72.925
42.51
-44.804
-80.864
67.804
25.203
-49.602
-11.826
-48.988
-3.9099
50.718
50.739
-6.4399
-10.975
-24.9
-5.616
12.963
-50.83
18.996
11.997
12.552
54.438
-25.798
-4.8139
10.597
-10.285
-28.197
3.106
13.233
48.968
-90.609
67.786
-14.625
-43.857
68.124
-15.389
-26.635
-60.772
30.87
-19.038
-44.16
100.26
3.7811
67.715
-46.455
-15.069
-17.557
4.9568
-18.215
-33.775
92.686
-5.4551
-28.589
-34.405
93.325
-38.806
-31.069
-48.122
76.957
-34.961
-12.867
-130.73
214.18
-38.633
-16.136
231.06
-1.6112
-56.46
-312.49
-279.97
232.84
191.68
-60.607
-77.212
99.628
54.621
4.5954
-38.769
-67.42
-134.72
-131.07
-27.154
94.098
77.299
531.66
382.36
-349.72
-265.16
-18.305
-63.381
12.45
194.64
-357.46
9.4288
243.34
-18.028
-93.757
-78.67
-24.064
43.676
-0.28284
26.259
-40.402
65.665
157.43
-161.22
-1.8605
-15.503
3.2484
-2.838
29.63
16.328
-22.184
-52.534
13.159
18.865
25.158
-2.1286
-22.337
-13.014
25.55
3.9327
0.29625
-37.092
25.251
71.187
-76.995
18.838
-2.8703
-25.525
10.557
6.3952
6.5933
-9.3257
6.2982
5.8084
5.0741
13.205
-18.664
-1.1916
-0.63794
-24.872
18.638
38.263
-9.0812
-38.944
-1.8842
26.275
56.453
-109.9
93.371
-132.27
9.6714
120.54
5.8673
-160.69
102.29
56.075
-40.516
-23.105
-7.5383
14.403
3.3154
3.1914
-0.52568
-0.38676
11.373
6.1024
-24.001
3.3663
-3.0572
7.0407
2.3513
-1.4194
-6.7893
5.5237
45.796
46.963
-120.63
-4.3617
-9.8525
39.248
-30.177
1.6032
79.238
-45.269
-66.826
59.885
41.269
-80.524
30.825
131.38
-228.18
30.138
90.107
1.1189
-40.612
121.43
-111.01
-26.979
47.85
-14.302
7.4547
-11.288
10.241
2.0791
-0.91526
-18.571
-10.98
79.488
-27.103
-3.9025
-48.927
7.1155
22.383
-27.746
49.447
11.138
-26.739
2.0002
30.987
-20.165
-29.731
9.3335
-27.723
28.882
29.422
-19.966
-18.059
-38.932
52.145
9.8295
4.745
-41.746
49.454
10.713
-66.527
36.79
-28.666
13.634
-26.836
33.087
27.493
-85.737
72.563
37.444
-40.492
-16.964
7.8239
-9.501
-4.7128
5.3264
11.248
-3.5802
8.917
14.843
-3.5625
6.1217
2.9845
45.874
-48.654
-76.817
70.829
-126.58
122.82
42.271
-70.623
2.8868
-10.3
7.8679
33.409
-34.676
20.464
-13.715
20.584
17.311
-61.663
70.317
-65.433
-72.599
138.78
-44.918
52.777
-77.612
-67.539
124.76
-6.4644
-2.9054
12.851
-59.036
45.914
-50.886
14.269
101.1
-115.6
37.877
-7.6683
102.64
-31.376
-99.109
-12.05
85.304
-110.12
-158.11
270.34
23.267
166.2
-193.64
-152.4
143.61
-94.177
91.094
-123.7
-57.297
171.03
-32.701
9.0483
63.462
-59.661
24.343
83.124
-60.613
-116.14
137.82
-77.033
9.1198
37.199
-21.461
-19.193
82.311
-191.18
187.78
-84.478
-41.977
-12.693
95.012
22.203
-75.3
14.174
-14.683
-12.174
-27.684
108.91
16.758
-25.931
-21.69
-66.514
24.629
33.586
7.6222
-7.0897
-74.605
69.091
50.99
-11.303
-4.259
-64.991
-18.865
43.371
22.919
-69.261
71.961
-53.061
57.936
-37.548
-23.772
5.7369
-3.1013
96.44
-75.697
4.2081
-70.221
109.46
-2.4785
8.3715
-20.998
-39.532
29.406
-3.9244
0.92332
-17.585
3.3806
-4.9132
18.268
56.528
-68.698
9.9202
16.15
-29.29
-12.279
83.02
-13.817
-65.007
-12.731
-4.1976
36.324
40.678
53.608
-80.93
-54.191
37.559
-18.839
-12.841
35.815
-25.354
-29.618
108.44
-5.7606
-49.637
17.792
-15.537
7.424
-63.018
118.22
-88.285
3.5676
56.811
-91.605
19.854
118.74
-86.509
-22.615
16.898
-7.7707
11.369
-5.0809
-10.217
28.283
45.255
-77.093
52.123
-27.053
0.14145
1.5494
-21.76
41.504
3.373
-26.826
-56.339
109.78
-29.819
-22.101
43.715
-29.981
-43.495
3.908
-5.3388
69.481
-14.563
3.9363
-26.303
-5.1199
-35.414
20.001
58.278
-12.042
-0.47969
30.356
-35.841
-130.62
73.129
16.047
51.88
-22.126
-10.467
16.606
10.543
-21.036
-26.008
-39.24
15.97
-51.126
79.501
48.103
-5.3297
-12.527
52.005
-49.772
5.4939
23.593
-24.94
-20.764
-65.779
-0.15097
72.899
36.849
-51.277
-68.173
70.099
13.291
29.038
33.203
-6.8795
-53.319
-29.387
-66.937
45.036
49.66
-87.686
121.86
-4.2814
-18.091
-0.64174
-69.736
-18.549
58.673
23.589
-37.707
-130.08
-132.47
-21.659
338.06
652.05
-471.44
-215.15
77.36
-43.663
-62.535
53.606
-66.875
32.942
-12.511
46.019
24.967
29.471
-40.47
-95.761
41.019
62.785
-16.117
-56.666
-15.239
-39.84
83.567
48.348
8.532
-59.405
12.678
5.88
-37.622
41.711
-26.439
3.1163
31.824
-12.109
-46.676
7.0581
5.2739
60.584
-23.689
16.232
-39.354
-22.957
-18.937
79.317
25.577
-17.811
-13.227
13.423
-24.02
-90.039
153
46.882
-256.98
-56.949
242.64
-47.63
-79.838
80.029
-113.81
167.35
-242.11
161.8
269.04
-333.53
18.901
136.5
11.701
-25.18
-102.11
-22.065
102.93
-12.52
3.3587
20.028
-33.922
26.259
-22.465
-77.057
47.575
-51.804
58.69
48.82
-1.0048
-22.365
-33.474
0.76995
28.217
11.409
5.339
-55.022
33.551
-37.283
44.215
-49.137
-28.859
105.82
-19.174
4.6742
-15.993
-15.613
61.956
-109.07
15.136
-2.9798
12.522
38.337
53.227
-90.991
-33.654
50.256
-33.341
80.669
15.762
-28.209
-9.4529
25.569
-84.168
10.018
13.24
-0.67834
17.529
26.891
-11.099
-2.9202
-74.791
18.375
99.605
-38.94
-9.5865
19.175
13.012
-46.64
-5.6991
-0.77726
-16.045
45.721
-1.5826
24.622
-40.606
8.4988
-15.703
14.087
-49.731
-69.719
122.08
68.782
4.0323
-26.197
-75.041
-44.404
-46.636
58.959
73.377
21.237
-33.625
39.632
-24.174
46.332
-52.05
-6.6094
-25.218
-4.7636
43.653
-115.21
109.91
-80.478
-34.365
96.36
47.028
-0.63357
0.19002
18.586
-23.258
-123.52
98.883
50.358
-82.325
-41.23
-35.656
69.92
120.5
-51.757
-106.18
19.388
-45.303
110.21
38.268
-156.72
53.252
119.29
-21.578
-69.064
-26.816
72.376
1.0866
-109.04
76.732
39.868
-61.025
-14.824
-46.765
141.59
-8.7861
-29.334
-49.218
-101.55
122.06
67.587
-53.756
28.282
18.158
-58.272
49.01
-5.6825
-86.316
14.447
46.532
-54.604
60.259
18.607
-13.148
-9.1899
31.226
-40.278
-95.671
12.498
83.339
-47.017
3.5578
92.424
-93.055
30.66
-32.296
52.066
29.216
-87.141
92.85
-60.22
29.175
-131.05
72.412
72.721
-14.712
23.426
-31.931
-4.1547
54.467
-50.816
23.795
12.943
-39.129
0.21866
-40.972
10.009
36.057
4.2253
-65.778
127.42
-78.966
-19.589
32.341
-98.797
129.86
-146.33
-186.57
-25.744
210.81
225.9
-32.578
234.16
-101.16
-217.48
-95.857
16.235
106.99
32.766
-56.828
-43.202
-13.772
19.306
36.587
0.97515
17.544
25.952
-76.662
-38.366
90.838
37.16
-59.42
-46.746
18.753
-14.665
-2.5458
65.475
94.535
89.14
-7.671
-277.35
48.414
18.619
-74.777
130.42
-61.935
11.185
40.87
-12.399
-24.669
16.813
0.88063
44.527
-19.254
-74.606
-30.62
58.292
-61.596
-3.9616
115.09
-20.053
-26.744
-13.04
51.981
-11.578
-21.85
-20.874
62.389
-31.526
-11.221
43.13
-12.986
-52.202
9.9059
-55.216
-49.091
2.7493
130.39
124.58
-86.19
-28.701
8.0269
1.1755
-39.392
-71.149
53.292
-71.048
75.094
38.13
-39.502
81.627
-19.597
-2.5193
-45.07
-14.461
78.994
-43.844
-43.375
34.108
-7.1587
-50.42
-24.787
62.305
63.393
-30.149
-91.431
31.975
-26.034
-21.881
142.5
63.116
-195.07
28.598
88.821
10.554
19.128
-59.008
57.205
-42.528
-17.301
-22.57
-29.842
-9.95
-20.672
91.474
-92.103
56.557
86.987
-33.493
-12.009
-78.867
34.894
80.345
-50.656
-10.075
58.311
-15.403
-38.354
-44.976
24.341
20.603
-39.814
15.393
-26.061
-0.29487
65.996
20.773
-18.527
-125.78
66.398
91.644
11.22
-43.499
-37.824
19.269
-6.2918
9.03
16.611
-19.439
-13.986
134.51
-167.79
4.2037
135.01
109.55
-245.85
-215.44
118.04
134.56
-7.2582
-158.13
153.29
238.97
-66.474
-116.79
-58.034
26.386
54.921
-271.57
113.85
113.5
-58.395
11.853
87.822
-58.067
-63.557
162.87
-149.71
5.3194
61.623
40.162
-58.153
-10.054
22.587
-13.524
3.5083
-14.525
2.9951
-31.45
93.987
-29.623
19.733
-24.486
-45.91
-14.215
-9.8942
58.6
-6.2431
35.34
-50.768
83.968
-73.958
-43.132
13.68
78.818
-5.5819
-97.607
1.1608
43.382
46.304
-0.35039
-40.54
-69.803
70.335
53.762
1.2878
20.226
-115.6
37.518
24.481
-84.33
78.928
-21.863
-50.9
90.12
-53.429
38.162
-26.427
22.494
-1.6748
48.081
34.227
-108.77
56.427
-3.1554
-70.051
30.901
-87.768
28.236
68.514
-36.255
77.967
14.672
-31.424
-98.996
91.197
-1.4263
-45.863
59.212
-80.958
-44.512
110.04
-6.1389
23.984
-1.7881
32.306
-73.72
11.335
5.749
-14.768
-8.9876
54.982
14.561
-46.655
-30.815
-33.122
-2.6042
44.267
57.483
-55.687
41.313
16.117
-128.52
-14.078
73.5
98.308
-81.313
16.095
-35.794
65.573
54.849
-93.966
-13.836
53.804
1.2516
-30.921
-5.0431
-19.777
-2.4135
-15.364
-36.097
-48.092
102.51
31.695
32.067
-59.862
-13.343
-85.414
223.38
3.0612
-77.002
-32.193
-51.737
46.349
-15.744
-19.436
50.021
-44.058
-25.695
-25.022
-159.4
260.33
94.331
-53.346
121.06
-182.97
-78.974
-18.505
84.865
254.56
-208.59
-13.823
32.623
-105.33
63.598
5.3444
-59.839
35.962
7.0556
8.5669
-2.3748
4.4204
24.574
-50.788
-9.2236
-1.7184
4.0198
-29.411
7.1147
35.444
-81.36
178.03
-25.385
-51.222
-3.8163
-90.703
75.103
-146.49
198.71
245.59
-287.19
-25.774
36.82
83.548
-180.47
105.08
62.323
-255.46
137.14
59.824
-21.654
30.655
-28.774
30.622
-11.4
-23.191
-42.939
-22.885
-16.26
55.23
94.766
-48.873
-12.386
10.471
-16.52
3.3618
-1.4588
-24.175
-7.3168
29.596
14.36
-25.492
-21.489
54.537
5.2619
-13.28
-18.784
-4.4716
-36.166
88.565
-20.9
-50.693
-37.636
100.45
-9.068
-40.079
7.189
-72.369
-5.1243
81.49
65.837
-0.042154
10.172
-93.8
-19.739
-40.593
46.383
22.361
-4.9505
-89.296
-139.2
-44.226
-98.298
11.403
185.34
363.48
111.34
168.56
347.82
-589.78
-165.67
-47.275
34.989
71.982
-201.71
39.381
-8.1643
83.514
-21.478
-4.8908
-9.1621
52.671
20.971
-150.13
101.16
21.76
201.3
-41.591
-131.09
-329.8
41.827
399.7
-252.87
54.983
31.996
-113.08
156.1
-68.626
23.519
22.54
-128.37
138.01
34.571
-49.953
4.8895
-1.9425
28.081
-37.964
-34.761
17.106
20.304
-24.062
99.226
-125.04
-124.92
191.5
-44.813
214.81
-261.71
-113.77
288.25
-82.684
75.157
-211.14
-21.222
54.298
99.94
-29.786
0.8532
-50.345
32.991
-6.7874
8.1989
-12.389
39.501
46.834
-58.572
61.941
-17.371
-92.989
189.72
28.933
-89.519
-205.55
24.594
156.34
-69.227
14.785
2.6891
36.584
10.22
-51.49
-7.1711
31.579
-31.845
55.722
58.35
211.25
6.9505
-234.67
-75.781
-130.26
-81.343
-6.018
67.241
-78.383
162.75
-239.97
190.57
177.05
-76.423
14.054
-101.96
151.34
-45.719
-98.132
-70.049
185.7
117.99
-189
-57.11
-20.324
308.08
-94.784
-168.82
22.194
-19.323
3.7018
52.857
15.64
-21.495
8.6124
6.2335
-1.5819
3.3055
10.169
-0.091734
-3.2043
3.4977
-2.8296
-0.68591
6.7907
-0.1046
-2.7695
3.8899
0.94794
-0.8114
1.5029
2.0821
-1.8196
-3.0938
6.4195
-4.7494
11.988
-8.6592
7.5672
-10.13
-27.318
17.162
-4.5256
8.1598
0.66233
0.30617
-0.25318
2.4048
-1.6477
-0.42249
0.13809
-3.2967
0.54218
2.4551
-1.9024
-0.30504
1.4074
-0.76522
-3.3344
0.21675
2.5046
-2.1857
-1.0308
1.913
0.35868
-5.2107
2.7884
6.1694
11.874
-2.1987
-25.158
7.6101
11.322
-1.7724
-6.9218
1.8857
-2.7926
0.10213
-2.0615
-4.4909
0.32864
0.81888
-2.9298
0.26799
1.4204
-0.88423
1.0682
2.774
-4.7428
-0.265
1.7878
-1.5439
0.054694
2.0614
-1.2052
-1.2167
0.50216
2.3638
-2.4284
-2.2524
0.67148
1.6666
0.44518
3.8702
1.675
-2.8584
4.4333
-4.68
-3.5468
-2.8029
16.159
-2.9495
2.9493
-13.643
-5.0112
18.469
12.764
-19.411
-10.177
-0.30789
-2.8507
-2.253
-7.2727
13.335
-9.0603
5.5143
-10.623
33.748
-42.972
143.79
-184.61
243.07
-57.245
-337.69
313.11
-191.9
60.732
155.06
-265.37
171.62
-48.495
-11.32
111.84
-114.45
124.61
-119.25
35.733
102.88
-162.02
-22.155
53.636
-33.723
143.79
-144.05
182.76
-180.56
22.239
168.21
-228.31
104.38
45.548
-168.3
65.333
168.24
-65.23
64.5
-104.23
-131.8
31.354
90.133
20.624
98.61
-171.81
82.314
27.812
-93.671
48.567
6.4151
-134.64
14.937
183.52
-96.779
-22.033
19.041
13.439
-151.95
112.66
78.272
-102.58
47.933
45.031
-49.016
-21.841
52.249
21.605
70.707
-111.18
-195.9
333.58
55.903
-25.576
-155.59
-119.98
167.35
-38.949
158.09
-119.05
-100.49
8.3825
-82.535
99.11
18.698
-10.224
-1.4388
-11.665
31.244
19.013
-37.055
75.695
-9.9759
-138.22
50.647
62.904
-5.8355
-0.84399
8.0615
-26.77
23.888
-17.562
-31.436
95.948
-31.313
50.259
-232.17
94.636
115.79
-60.38
36.11
-4.5182
-70.491
25.15
-116.82
154.03
14.988
-41.618
10.115
30.18
-6.3864
7.7525
-116.21
86.76
95.447
-108.1
91.916
-97
6.3681
-49.106
58.684
26.399
-11.054
-53.613
3.5419
-13.581
10.374
5.0169
16.55
-9.0776
11.918
0.067916
1.5678
0.47319
0.47028
3.2103
-0.65405
-0.71063
2.7292
2.2484
-14.725
6.0202
6.4695
-9.4311
4.9706
-2.6339
3.3566
-1.175
11.017
-9.5389
1.245
11.988
-12.156
0.43538
-9.773
-7.4943
9.1466
15.98
-8.1429
5.3955
-16.705
21.227
26.225
-70.895
-39.396
85.79
25.558
60.378
-134.06
-23.281
36.73
35.501
-9.6165
14.204
-9.8447
2.6657
6.0508
-0.10358
-5.5415
-24.213
-113.58
130.99
1.3339
-98.223
48.201
58.729
-53.83
15.828
12.242
20.922
-24.074
-39.48
-1.7711
12.172
2.0463
13.038
30.392
22.309
-6.0276
-49.011
31.98
17.282
-3.6166
3.3301
3.8301
-11.012
10.111
10.576
-9.4901
-8.3124
1.0498
11.972
-4.1911
-4.6154
-3.4345
-0.7977
-2.2135
1.8795
-0.44764
4.2531
-1.5408
-29.701
41.674
12.644
-28.401
1.6916
-16.44
14.974
-0.47274
25.364
15.888
5.5313
-128.32
97.187
53.398
-163.87
105.47
23.332
7.0873
-2.333
-35.284
-68.984
83.953
-70.583
-170.02
99.181
164.74
79.741
-153.9
59.181
-16.891
-214.15
47.546
277.31
-50.103
44.863
-201.51
-70.977
182.31
-88.518
19.167
0.91836
24.206
15.93
-5.953
10.274
-18.646
6.7176
1.2201
34.19
-93.605
45.01
10.549
29.332
-52.966
86.18
-183.96
152.01
141.71
-219.02
70.267
113.28
121.23
-362.8
-95.777
142.86
88.808
15.597
-53.69
-25.116
24.354
-3.0093
-0.9732
1.8235
-1.5808
6.6534
6.8062
-13.182
-6.5835
2.8252
5.5772
1.46
0.57358
2.2238
3.8188
0.2522
-0.74609
0.16801
-2.1941
9.2847
-3.4715
-0.80267
1.7426
2.6423
1.6218
-0.44176
-2.7207
1.2149
-14.564
57.442
-14.824
-77.409
63.094
-40.188
34.556
-0.19081
4.8728
-32.724
-7.0281
15.599
1.9637
-2.4833
-9.4368
29.579
30.76
-33.843
-52.845
33.7
-3.6592
18.082
-78.475
-0.038862
128.72
-12.587
82.9
-99.4
-22.08
-3.6499
91.055
-90.872
-163.48
214.62
-10.594
-63.714
-182.6
139.99
3.4892
111.57
16.965
-119.44
2.9393
84.735
-18.035
-81.243
39.983
9.2766
-22.902
-28.394
162.31
-62.588
-58.669
36.485
-71.883
25.32
91.088
31.453
-195.33
61.822
119.77
-132.18
-48.804
107.59
-42.167
5.895
36.239
-75.333
49.857
19.712
-21.026
15.318
103.51
217.57
-146.81
-174.15
36.48
-53.228
51.652
-36.411
88.701
-111.55
82.003
-94.717
75.558
-115.24
137.45
-92.961
9.3727
134.63
-125.97
-67.328
176.14
-126.78
28.101
-135.82
382.13
-234.97
-140.29
273.53
-194.46
101.02
-35.66
-136.95
221.08
70.285
-200.67
-6.3211
-8.6867
-19.82
216.72
-212.48
25.088
-25.032
-77.257
33.732
183.06
86.356
-89.24
1.5603
-235.56
305.83
-48.709
-93.941
46.966
-56.634
9.6635
-17.018
9.5503
-63.555
149.58
-8.2855
-134.13
91.3
-76.301
22.603
51.753
-50.654
-55.393
62.211
40.651
-87.283
37.123
122.21
84.842
-32.332
-116.42
-259.53
267.33
69.645
-136.56
93.288
72.587
-137.86
19.126
-24.454
104.81
44.451
-167.03
-59.054
15.064
107.37
60.745
-133.55
-69.805
66.418
-61.573
157.4
34.385
-91.324
1.7335
-34.399
40.674
-15.359
12.972
25.536
-14.627
-116.55
62.081
80.91
-71.447
-22.651
39.75
-7.6164
77.398
-34.912
22.347
-68.356
134.46
-19.058
-114.63
-2.8786
-117.03
196.21
-17.42
-44.27
-10.436
-8.7367
-0.23025
15.033
-11.886
11.052
9.2993
-8.6035
14.163
-11.964
23.772
19.48
4.3105
69.898
-104.94
35.793
-10.598
-24.908
29.278
-1.5087
-63.131
50.989
74.027
-109.88
38.589
35.896
-186.6
86.251
77.75
-61.548
-151.23
287.94
-53.348
-61.845
7.5565
79.263
-197.65
-20.361
262.69
157.67
-327.4
-139.65
243.7
-40.531
16.468
39.635
-19.036
-233.93
150.75
5.2102
28.912
-37.104
83.508
-44.499
-78.109
-25.135
217.93
-89.452
-72.994
8.4712
50.172
65.53
32.193
-146.98
-29.228
52.876
33.533
-78.744
101.33
34.888
-16.578
-105.95
-64.167
82.753
-10.866
90.091
34.627
-104.14
-99.854
126.09
-22.874
-105.81
89.833
213.97
-264.47
40.81
93.904
41.812
-68.894
-158.61
49.252
139.68
-13.617
-8.5869
9.6362
-130.54
61.941
78.954
0.02489
-121.19
31.614
-8.0671
13.183
-31.149
76.549
0.89394
-49.676
17.379
-39.063
4.2945
22.51
30.322
76.393
-68.489
-30.007
7.0292
-63.61
227.65
5.8395
-154.58
-24.571
-33.27
-36.371
28.347
49.714
-25.366
39.999
-3.1013
-4.3495
-8.6353
-3.7426
-21.598
32.833
27.597
91.064
-5.4685
-45.011
15.162
-101.04
144.79
-203.69
-84.701
224.99
-113.9
17.794
85.119
-92.91
18.997
64.16
-43.693
34.307
15.916
-90.11
37.041
111.2
-115.67
48.047
-112.2
-44.371
134.85
-21.228
-0.74216
-134.8
148.1
98.182
-207.13
-29.648
129.25
-69.641
35.731
86.697
-33.995
-15.183
37.005
-8.9214
-83.979
67.849
66.341
71.568
-115.49
64.656
61.84
116.53
-424.94
-264.32
401.15
-2.7016
18.495
228.64
-216.26
-41.465
-1.0646
-24.536
45.04
-15.68
10.033
-37.36
79.895
3.4265
-69.307
24.494
29.838
-14.187
-12.611
10.648
-19.62
9.549
20.178
61.662
-49.765
-130.01
63.208
-12.33
186.53
-82.477
-97.807
100.45
-49.265
-20.062
8.6527
85.98
67.284
-20.545
-176.14
-135
153.48
164.41
-112.21
-17.815
-18.876
-15.421
35.698
35.294
-109
-61.973
178.61
-47.669
-13.764
48.245
-32.342
-36.502
-27.233
2.5676
80.687
32.98
-23.553
-107.33
-55.523
78.315
-35.063
121.32
-140.41
78.163
128.26
-52.145
-101.37
7.5093
119.52
-63.5
-66.794
3.2725
8.5093
-8.4923
2.2253
15.274
5.572
-19.227
15.377
2.6723
34.413
31.924
-1.0792
11.46
2.4038
-13.391
-6.422
-12.042
17.909
-2.9407
1.6349
70.338
74.642
-137.9
31.744
-6.7048
1.5219
26.348
-92.521
-128.32
-16.502
112.21
111.66
-6.1066
-74.945
21.182
-16.354
-25.633
-19.002
5.4341
32.686
52.47
-37.149
-9.9103
-10.725
-0.97743
1.5584
-5.902
6.8334
-8.69
1.8861
2.6601
12.561
4.0774
-14.947
7.5632
1.8485
-4.0567
-1.4355
0.44593
0.9495
3.2619
1.9669
0.27266
2.2811
-1.6649
-1.5306
-3.2363
2.3819
2.4443
-2.4466
0.36308
6.5372
9.2731
-8.1445
-2.6051
-1.1606
20.67
-19.751
-47.741
32.589
16.683
9.0155
-5.1914
-10.561
-2.769
11.038
-32.657
7.2781
36.13
-15.599
31.101
-42.929
94.084
-51.234
-16.584
60.497
-161.9
125.43
-81.986
18.737
-40.901
55.443
17.058
30.506
-107
119.72
116.85
-243.76
83.424
-96.862
151.55
-169.89
95.251
44.524
10.258
-36.2
-27.605
-15.156
-2.9883
4.7141
-3.6431
14.94
24.691
10.255
3.8799
-10.063
-7.1475
5.8605
-1.0945
9.2656
-3.5148
-14.368
-2.2058
4.6114
10.794
10.097
-5.3386
-9.8776
-0.28478
2.7864
5.4633
3.3459
16.724
-5.1929
-49.323
9.0143
35.019
-4.316
-22.595
-3.9495
59.528
-34.326
-4.5621
-16.681
-1.7619
35.357
9.7332
56.021
-54.847
25.894
-73.47
-57.786
75.487
-51.092
77.34
3.4723
-83.525
158.39
-98.843
-105.2
96.075
-36.588
2.3667
21.343
-22.469
38.945
-59.112
127.25
24.691
-273.9
152.11
128.85
-117.1
-42.465
42.52
2.5033
31.033
2.0824
-63.479
13.227
12.705
10.926
5.4877
-15.729
-4.5522
41.373
4.8632
-20.746
1.1265
-12.225
88.248
-31.747
-6.2751
-107.75
-89.902
145.16
-66.108
29.446
-1.9837
16.732
3.6904
1.7307
2.288
9.833
5.76
0.40646
-3.085
1.5358
14.326
-2.2582
-4.7151
-1.3671
-1.3543
-1.5414
-16.475
52.011
4.8337
-20.272
-8.7599
-8.9349
-3.2381
4.8568
2.7158
-0.47709
3.7051
-0.60465
-5.1038
-11.617
-0.92296
20.153
-0.36875
6.3063
-6.1006
-1.4021
-1.4297
12.12
-6.0535
22.819
-84.548
49.506
44.153
-50.402
-14.243
13.75
16.322
0.19403
15.276
49.871
-141.55
164.47
-109.89
-93.872
248.18
-174.19
-45.728
88.504
10.238
-61.888
8.0775
-10.747
23.535
10.024
14.368
0.011878
5.5093
-12.446
-18.135
12.433
4.5595
7.6047
-3.3321
57.81
-47.041
37.06
1.5782
-15.235
-135
17.749
148.4
-128.02
78.051
-38.66
11.415
-3.6607
8.2235
-4.215
-0.31588
3.3911
-8.8688
-1.5777
15.027
-10.646
2.0284
28.09
-52.915
223.68
-193.99
-8.1095
-22.729
9.4078
8.0187
2.7584
65.687
-89.926
106.06
-189.94
211.59
-267.26
148.52
134.77
-151.97
57.299
-15.01
4.8971
-32.151
3.5034
15.499
20.822
3.1772
-40.076
5.4221
22.481
20.269
-38.301
71.341
-16.789
-77.715
106.3
-64.859
16.382
-23.211
12.057
-2.1333
7.4544
2.2059
18.486
-24.365
16.977
-28.203
-40.981
40.083
23.63
13.779
-19.864
-0.64284
-2.6705
-11.14
5.4208
8.0606
5.7819
-5.4137
-0.43219
10.368
-1.5419
9.8701
-23.906
-2.183
-24.336
-11.101
45.809
-14.165
89.415
-25.4
1.0804
-117.53
60.099
-4.5279
-7.9816
-41.794
50.044
-19.918
0.13901
-4.6371
6.6034
-2.2733
3.6838
4.592
0.85189
20.386
-1.87
-36.223
46.899
17.563
-23.759
81.43
17.27
-101
-1.4652
40.424
-44.818
-141.19
55.235
135.56
-171.86
130.73
20.916
-94.313
99.14
-44.89
-28.129
39.752
-4.2284
4.4768
-35.836
95.994
-83.343
-236.65
169.9
-45.914
84.275
53.76
59.233
-3.4115
-45.792
0.65541
-11.28
-0.9543
48.138
135.95
-49.2
-65.951
-58.006
-104.58
160.51
-71.435
-83.666
152.97
-110.62
31.662
-25.283
23.159
-7.1028
42.056
-17.843
-9.4345
147.3
-229.66
-58.142
171.88
-10.186
-48.865
164.48
-194.62
-11.953
78.817
8.5725
-37.754
50.255
-100.59
123.08
-48.49
-0.21524
-40.788
-19.941
129.96
-82.55
77.637
-132.59
49.839
87.501
-22.999
-56.104
-114.12
78.693
35.483
20.245
30.507
-17.061
-51.116
-1.6926
119.97
-113.09
23.995
22.706
30.768
-80.753
-39.623
30.446
-51.327
43.294
72.707
-81.599
28.347
158.29
-110.81
-66.82
5.851
30.256
-15.283
69.494
-25.202
49.483
-107.43
-37.651
70.191
5.4896
-6.4756
-20.533
-37.094
164.77
-152.59
23.185
85.592
19.858
57.167
-40.153
-55.767
-30.377
-12.806
-28.463
-168.4
-78.189
233.3
12.623
-6.3915
42.164
-79.786
21.99
22.864
-36.324
14.217
15.971
30.825
-14.676
11.518
-17.23
34.674
-7.5495
-25.449
65.471
-15.579
-15.63
-30.865
49.049
87.086
-63.226
-6.014
-4.315
-21.187
-4.6067
-9.8458
-6.1079
19.692
10.553
-19.09
19.212
-21.062
-14.979
-39.494
94.072
14.144
-6.1112
117
-329.03
131.89
113.79
-70.826
-63.261
11.315
17.594
-13.234
0.73665
4.6309
1.2603
2.4769
-12.492
23.353
0.31221
-8.7908
7.46
5.0195
2.0868
6.7207
-2.7594
-17.535
6.4573
3.0057
7.8649
-9.7793
32.526
-56.526
53.148
-59.635
72.928
94.615
-179.03
96.212
-78.476
15.665
-7.6739
10.433
-2.3409
18.208
27.26
-41.926
-37.943
67.563
0.29115
-22.848
-12.095
66.168
-67.872
-25.599
57.957
0.46494
-36.599
-7.1943
10.877
45.527
25.547
-6.8838
-61.782
-23.734
18.788
26.759
17.341
-8.0691
-77.593
27.539
22.86
18.037
-65.591
25.16
36.368
19.13
37.164
-52.635
-4.44
34.702
-53.747
32.625
-10.746
33.736
-74.212
16.526
3.9588
21.706
4.2062
-28.378
15.204
-0.17323
0.62614
-1.9869
2.104
0.54673
5.1209
-3.3273
-0.19205
-19.926
10.612
6.3198
2.5837
2.3624
-1.0276
0.93588
5.2346
-1.5828
-9.1745
12.146
15.776
18.115
-52.195
-35.486
55.522
-7.0362
-1.9219
2.1037
-3.2189
1.1567
6.7262
-6.4309
-7.8663
-0.043305
9.3167
8.7608
2.324
-8.6628
-5.0512
1.8753
-3.2365
0.74259
6.4908
15.61
37.635
-59.755
-50.461
55.708
0.085721
4.5868
-16.493
4.9476
6.3008
3.3279
2.2692
-4.0204
10.316
-19.943
1.8067
-10.033
-2.439
-6.013
11.016
-2.5191
-2.5712
9.6186
13.839
-3.6876
-3.1717
-3.5447
3.8469
7.0947
11.963
-27.543
0.57241
14.065
57.456
-84.27
-0.99183
-37.061
52.533
69.321
-71.944
-16.223
62.896
-97.07
-23.721
68.197
-3.5291
11.301
-3.7975
10.653
-12.087
-1.0363
8.7065
-0.040559
-25.913
34.36
-8.4554
14.356
-38.445
8.8617
18.38
31.955
-33.422
20.525
-1.9929
-4.1251
1.6096
-12.346
-4.2842
-1.7819
-0.50892
-0.57481
1.3608
1.3647
-0.74823
0.055812
-0.91895
-1.1531
2.6085
-0.91076
-4.0591
3.5496
7.2099
-23.187
10.7
8.0664
2.9859
-6.3372
4.3414
-17.023
18.447
14.069
-9.4887
-6.9509
17.512
-6.8274
-13.434
-17.387
12.647
2.1505
3.4079
-0.53924
7.2582
-4.2823
-2.1429
-3.1059
19.148
-1.2478
-17.234
3.1691
-9.0281
29.621
-13.288
-13.135
14.48
22.981
26.867
-73.572
-26.717
18.949
21.133
4.7694
26.563
-22.783
-56.208
20.65
76.863
-67.876
32.803
18.122
-13.676
-5.8018
-19.303
42.058
-40.655
5.4811
-9.7134
13.513
-4.4325
19.916
-53.65
73.046
-143.92
-35.853
249.53
-63.623
-63.521
-11.937
29.349
-69.409
19.578
-9.1646
-14.956
124.76
-1.2375
-53.75
-8.9576
21.436
-11.773
-79.387
57.309
-29.589
111.17
51.152
-145.71
-16.063
42.077
-9.5845
30.369
98.152
-75.059
6.2041
25.677
-46.751
-106.51
140.91
-103.73
123.77
-65.474
-62.805
19.004
81.135
-24.388
-140.92
67.707
79.847
-44.32
-37.667
15.362
50.155
-1.3156
2.1193
5.7634
-4.3822
-1.5127
0.48702
0.18537
2.343
2.3525
-4.8582
2.2505
2.8852
3.6742
8.851
-16.019
-4.2295
0.79751
3.0969
-3.138
12.551
14.097
72.945
-88.262
19.87
45.572
-119.78
-35.043
-20.286
-11.544
133.53
46.066
-2.5222
-11.988
-22.563
-87.373
63.143
-22.623
30.698
-32.152
-73.396
197.23
-214.37
115.46
37.556
-78.106
-2.2522
-18.557
19.963
2.5726
-1.9924
2.0946
6.9154
4.0316
2.5762
2.0226
2.1679
-0.92768
3.8987
3.2657
-0.86746
-0.17933
3.0293
1.1024
-1.1675
1.9974
3.7609
-1.2356
-2.6645
2.2055
2.8152
-3.1969
14.191
1.0956
-40.228
87.721
6.8859
-65.787
14.727
45.338
-46.06
30.396
-77.816
-33.995
71.579
-18.557
-23.777
-1.4722
7.3736
4.8753
1.8645
33.917
-43.089
-14.302
2.1166
100.17
21.715
-120.08
52.435
-23.053
-49.891
71.239
-31.491
-5.0023
13.555
3.9665
-10.12
-0.87603
1.6217
8.4881
-46.083
40.086
17.667
-10.114
-2.476
2.55
1.3395
0.14758
0.45386
-0.34614
-0.38303
5.9943
2.1225
2.1817
-3.611
-2.3552
4.0041
-0.38265
-1.0395
0.20178
-1.9841
-0.033801
0.50068
0.35591
-0.78021
5.3396
-2.7263
8.0792
11.915
10.967
-8.8294
-32.49
-10.466
14.722
-10.764
21.429
-36.825
14.773
13.813
-0.62076
13.661
11.444
2.1758
-52.89
-38.471
28.89
30.37
12.796
-8.9948
-12.069
0.7025
5.9129
9.9974
3.431
5.3038
24.115
-9.0712
-14.309
-27.643
4.5669
-1.563
3.3566
4.3952
-0.53075
-0.85403
1.1248
2.7026
1.0786
-1.3004
0.63557
-0.38358
-3.022
-1.2886
4.2621
2.7503
7.2029
6.3774
-28.046
27.9
12.656
-52.825
30.278
-30.375
14.247
-5.1703
16.427
-4.7337
1.326
-3.8346
3.753
-2.3903
-2.7094
7.5205
-3.996
8.9588
-9.7454
-5.1765
10.878
1.3348
-0.98425
-1.1461
-0.6451
2.7963
0.16637
-0.82791
-2.0426
-5.2926
-0.55725
6.6403
1.3642
-0.96587
-0.78077
1.4283
-2.1558
0.33768
-0.67615
-1.0307
0.78611
-5.1289
1.998
2.5912
1.4702
-0.73836
-0.37993
15.764
1.5589
-34.811
71.334
24.942
-34.964
-81.208
18.63
81.804
-66.493
10.068
-54.243
-23.695
24.294
99.069
-80.355
-37.033
106.62
35.637
-34.045
22.197
-9.7153
-37.489
-13.258
-13.831
-12.433
-12.916
-10.835
-5.3128
-97.078
135.27
45.284
-62.625
-17.714
6.5249
23.594
11.336
13.653
-97.809
75.111
102.86
-126.81
17.324
51.506
-19.079
24.784
-32.009
11.953
-10.111
-14.402
-9.1984
18.052
12.371
2.433
6.2319
-9.4198
-16.62
-10.401
-20.707
-4.1001
22.762
12.486
11.768
3.1346
-10.507
0.92407
22.214
-19.04
-3.65
55.824
28.914
-34.16
-28.672
8.3184
9.7573
-25.568
-29.203
0.88918
-3.7591
14.682
17.879
11.082
-21.83
-7.9927
-8.3451
-15.668
-5.4799
-5.5931
-6.8327
6.1136
10.647
-5.7752
-0.47447
8.8711
-3.8431
-4.5836
15.888
4.6982
-6.1669
11.358
3.2426
0.21078
4.8659
-1.3706
4.6859
17.784
-0.31158
-1.8824
-14.263
-38.254
-106.91
16.104
72.067
35.565
24.256
39.702
-6.1379
-70.138
-58.085
29.079
-27.317
-107.53
143.17
46.066
250.67
35.666
-316.6
-13.089
8.0051
73.017
-31.198
-63.479
93.75
150.24
-161.12
-38.621
59.817
-64.655
-9.1141
5.6039
12.908
-21.678
24.164
-0.077729
2.5698
5.8953
5.8642
2.0699
-2.835
9.2353
4.1765
2.3123
-57.59
118.68
-91.497
53.541
39.63
-113.75
91.32
-63.293
1.7423
-43.97
59.731
13.99
-14.5
0.24154
-7.6392
-7.3743
6.5873
-4.4129
-0.74576
-1.6494
-1.636
-1.898
2.4656
-0.60061
-2.1248
-1.3466
1.5513
-1.3245
1.6457
-1.2585
1.2835
-1.03
0.23843
2.4943
3.2192
-1.9511
-0.24353
-2.6425
-0.15046
0.50554
-3.3387
2.5443
-0.16672
-0.69788
-3.158
6.9133
2.6556
-1.3982
7.093
3.0129
-9.9268
-0.85409
-4.0033
13.029
15.376
-2.7066
4.7232
-5.4109
11.064
-22.437
-8.5267
-4.4856
-7.2993
-0.23177
9.146
10.661
5.2086
-6.3704
-7.6761
-4.5102
0.28972
0.090536
2.1821
-5.9129
35.583
60.38
-78.964
28.49
6.4229
-53.144
-50.51
47.076
34.081
-66.777
17.705
-191.79
235.43
-46.156
64.303
19.703
-28.404
6.9945
34.658
-6.9713
-54.01
-18.426
22.824
-17.047
-3.3034
-18.348
-15.388
-132.81
71.991
136.55
-89.957
78.891
-7.9366
18.248
-31.074
-33.751
8.4948
-5.7287
-23.406
17.915
14.503
26.524
22.676
-4.4515
-9.5479
10.513
-7.1323
-15.822
16.136
8.2507
-1.9943
0.9649
-2.1615
-2.7215
12.422
-7.5262
-12.524
6.3331
-0.61388
-20.854
5.9825
3.0172
11.994
-20.596
15.859
-76.19
-32.45
68.788
-105.44
84.09
12.719
94.793
54.873
-111.3
-5.356
49.257
-126.41
163.81
-116.4
23.249
58.369
-14.019
-28.383
28.639
-32.311
-31.082
140.58
-85.973
-127.78
80.118
-58.892
130.28
-37.317
-30.35
-29.317
4.6669
1.6485
17.443
-8.7172
27.099
3.5661
1.1869
14.98
-26.811
9.4995
-1.7849
15.368
-2.3957
1.1938
1.6691
3.4346
1.1476
-1.9423
2.7959
-0.54783
1.9623
-3.7615
-16.167
7.9505
12.52
-3.794
-7.7556
2.9519
-1.5629
1.057
-0.99963
-2.4251
5.1555
-8.7409
-7.8202
15.811
4.2221
-7.9598
-9.2135
9.0657
5.0191
-6.3783
2.2209
4.1993
1.8791
-2.9447
-2.007
-0.85242
-6.9242
-0.65961
35.828
60.398
-50.197
-89.694
42.782
-16.186
-23.924
115.5
-52.644
-52.523
-6.2243
17.335
26.26
1.4136
11.89
-34.719
-0.82038
17.054
-3.2809
-1.3064
3.8989
-2.8177
-2.4039
12.105
-15.499
19.033
11.908
-40.222
16.379
6.7833
-1.4852
-34.409
10.043
36.478
-12.614
19.241
-18.53
3.3638
-2.1167
-5.6478
5.544
-9.3815
12.725
-2.174
-2.0911
-9.9372
9.4694
-6.8069
3.7348
9.5099
-1.9819
1.7664
-3.4977
-1.7056
-2.1321
8.1968
1.2597
49.202
-91.536
45.534
-6.8656
-21.605
8.8344
-3.729
3.51
-1.0041
0.83997
-1.8495
0.88795
1.1992
3.3512
-3.9105
4.3238
-0.61748
3.8003
-2.4681
3.5935
2.8553
26.282
-21.864
-25.718
35.352
-21.26
43.36
-43.593
-80.773
136.06
-54.349
-1.1155
-14.98
5.7534
31.195
7.6927
8.7328
16.376
-138.63
36.676
52.149
6.1585
-12.288
-69.832
71.262
58.285
-32.522
-42.947
10.799
-6.7981
6.1668
-7.0437
-5.3224
13.229
0.58085
-0.6509
-1.2744
7.7257
-0.1881
-4.972
-1.854
1.0423
2.5696
1.9778
1.455
1.3034
-0.66653
0.46154
2.8416
-0.1049
0.66438
-2.0805
9.1211
9.8393
55.98
-91.067
41.592
-22.747
-43.379
14.676
16.633
33.737
-37.363
-19.628
32.15
15.161
-6.8381
-6.2317
2.7141
-2.0751
-0.41634
2.0709
-0.11123
-11.888
6.5211
17.58
-17.704
2.4804
-4.2267
-1.6351
0.92463
1.7204
-0.053994
-0.22233
-0.45528
2.5546
-4.0668
6.4331
-4.963
25.956
-5.498
-80.778
109.38
-20.872
-14.437
-2.7989
4.0846
-28.219
84.212
-82.183
-46.372
38.142
10.826
0.70611
-17.621
9.9681
33.553
14.879
-59.056
16.903
14.797
-12.688
5.9867
3.3726
3.7579
-15.622
7.8426
0.59988
-3.2892
-3.228
4.6401
0.93312
0.65232
3.0752
12.882
1.7085
-8.2452
2.3415
-9.1834
-11.662
-6.9102
5.7214
4.4256
5.1408
3.7682
-2.9913
-1.3445
17.427
21.76
-66.655
18.928
-3.4424
-6.0439
8.2345
8.2047
1.301
31.166
14.241
-82.925
42.289
39.791
-44.566
8.2898
-16.603
0.48534
9.7566
-0.49053
-17.725
20.066
-2.3593
-5.9097
8.1252
-2.6081
23.367
-3.0943
-38.864
77.31
-65.576
34.208
-3.1207
-2.8943
-11.454
9.0603
-7.0729
-7.5714
-5.6154
15.64
-11.474
24.823
-38.992
-4.7833
68.136
-60.354
-5.0057
-22.48
-13.311
36.018
-113.65
178.6
-32.161
17.635
-0.089846
-66.121
119.09
-54.067
-56.79
-3.4876
-19.337
23.961
-6.9279
60.774
-79.603
2.0656
53.247
2.5758
-100.11
120.76
2.4383
-57.951
-63.666
70.733
-13.679
55.834
-15.326
-26.527
6.9689
10.064
30.023
-64.037
-23.118
48.666
35.188
5.8922
-22.381
9.3108
20.298
-29.233
-11.061
0.53735
6.4767
5.7116
-5.3793
3.6671
7.5072
-9.3666
-5.3397
5.9428
0.064817
-1.9565
6.1705
7.736
-11.793
-25.56
7.9843
8.4038
2.3879
-0.24728
18.041
-9.6561
-12.642
28.603
36.849
-36.76
-27.137
-11.704
7.447
13.506
-3.4058
-15.102
-4.8631
-7.5117
30.303
-14.375
-24.185
26.28
-2.5619
5.0782
-0.039071
12.317
20.669
-21.573
-29.892
9.0401
7.4711
2.8874
35.058
44.826
-92.843
-15.698
15.508
2.0815
-10.412
17.461
3.1599
-2.3091
1.5148
12.37
-11.189
12.171
-4.3938
-32.976
20.459
3.6778
9.7025
-3.7335
-2.5255
3.4553
8.3276
-18.019
-8.7347
-4.8477
7.8427
16.398
-0.44566
12.343
6.1096
-33.682
8.5915
-0.18247
-0.17402
0.65454
5.7631
3.0979
-1.793
-3.5396
-3.5483
-0.59696
0.58867
3.1777
-3.5145
0.17447
5.5613
2.0358
-4.3896
-1.9646
2.9198
-0.7574
-0.33395
-0.88368
4.7723
-2.1396
-1.1146
4.4966
2.3279
-7.3624
-9.2617
19.053
-3.7133
-6.1575
3.1116
3.6597
-6.9359
-0.51289
26.743
-0.59491
-28.602
0.8162
2.2752
10.257
-10.088
-18.674
-7.8461
8.0489
8.6183
-0.96138
1.6581
3.7485
5.7726
-9.4962
-8.8177
20.59
-4.0707
3.1599
4.8007
-5.8303
-2.1141
9.6747
-13.321
-10.548
4.5074
3.5628
-3.2614
3.458
5.1409
-0.69098
2.6417
4.4312
-0.52045
-1.095
9.4548
-9.526
-7.1964
-6.9731
5.7616
13.722
4.8556
-1.8633
11.93
-3.2402
-8.5241
21.165
-38.344
11.88
-0.13176
-3.409
0.12711
-2.7113
0.65299
-5.9183
6.2336
-4.8299
-7.544
4.9392
-2.028
5.8935
-4.6745
-8.1993
-0.87508
-3.1317
-2.0729
4.3354
6.1199
5.5412
-3.0253
5.0043
-6.8349
-6.7252
11.754
-0.76385
3.376
1.2458
2.8132
-0.9609
0.66584
15.581
-13.935
-20.754
17.027
5.1387
-4.6887
14.726
10.938
-20.471
-7.7253
8.3352
-5.9736
-3.5437
7.9568
10.986
-19.861
-1.6995
6.393
0.26133
2.2837
-7.8756
-4.6127
4.1999
1.1429
4.8021
11.143
23.593
-9.5534
-25.915
2.09
-8.5592
5.9244
-7.089
-0.74846
4.9339
0.26664
0.53751
2.5433
14.61
3.6487
-26.173
6.09
-9.8327
6.5874
0.70441
-0.98921
2.8029
5.0371
-7.9774
3.0246
9.5413
-7.9587
-23.619
1.1877
18.024
-5.7134
-0.2344
11.447
-3.8063
-4.7502
5.1823
-0.37282
6.1013
12.294
-3.1347
-8.8659
15.853
9.4277
64.589
-50.584
15.323
47.741
-79.308
0.4182
-143.03
-104.87
165.58
18.717
21.645
5.6886
-0.12849
-19.053
12.861
32.253
7.6896
-4.0335
-42.645
32.674
7.2479
-19.436
-18.548
2.1536
-29.311
136.04
66.553
-155.78
-71.972
74.957
30.347
-18.273
6.3976
3.0885
-47.446
-70.284
61.533
81.944
2.9684
73.097
-169.02
-105.7
105.65
-28.324
31.116
23.12
-1.9645
10.008
26.551
67.561
-77.037
59.68
55.514
-121.39
12.354
-14.332
-71.885
66.927
11.517
-13.204
-18.675
-33.475
81.094
31.402
-40.948
-18.233
-27.157
-35.38
83.508
1.2092
-1.4813
11.753
-24.198
80.185
-72.732
-75.664
173.56
-145.71
-15.121
75.291
-39.168
29.487
73.072
9.3759
-63.079
-79.078
-48.684
148.09
-35.011
-96.117
121.03
-59.077
-18.789
52.044
-24.814
7.9153
-27.168
39.525
11.547
-20.079
-0.34992
-4.2017
-3.7163
0.24162
4.3292
11.17
-19.461
8.0117
-29.307
38.438
1.3215
-12.31
2.4811
-22.75
10.282
29.921
26.038
-86.556
121.35
11.916
-221.66
179.72
-112.96
31.893
-31.783
47.643
96.104
-74.986
63.412
-76.015
52.238
-105.19
22.704
35.754
-15.395
-2.2418
47.121
23.02
-34.447
62.626
-94.248
-123.99
123.83
84.604
-73.088
-19.171
-32.621
89.6
14.065
-32.328
-11.345
3.9223
-19.892
-49.621
40.642
35.877
-9.3354
-14.122
-3.2819
16.696
27.13
5.1045
-41.18
-44.504
94.773
25.024
-87.127
19.222
35.234
-25.012
3.351
-2.5549
1.0731
-25.075
17.438
-10.337
-34.722
-16.138
23.943
22.991
26.219
2.939
-17.265
-5.6548
13.372
12.167
7.5173
-11.251
-5.7417
-46.809
43.888
3.5753
-15.106
3.188
-3.3547
2.3236
-22.078
13.882
7.9501
17.262
-7.5027
3.172
-12.775
-17.873
12.215
-1.0815
29.62
-10.254
-8.702
3.8338
-16.528
23.66
-0.80767
-50.909
30.833
5.8906
-8.4027
-6.0189
25.227
-8.9159
-19.897
25.44
-2.0611
-19.509
7.8785
-32.134
49.31
6.7564
18.711
-12.739
-49.199
7.0061
48.513
-14.029
-8.7082
-11.05
1.203
-19.53
19.61
23.588
-30.602
-2.2224
4.4594
13.649
7.4684
-25.911
-4.4025
45.591
-28.817
-34.849
36.248
45.912
-40.387
26.623
-23.35
-45.738
20.144
-4.5922
33.236
18.692
-37.697
-2.1601
-3.0402
12.881
-20.95
-1.831
27.484
5.4944
6.7281
19.274
-41.155
-6.1252
-4.998
2.8943
-26.697
35.639
25.812
19.911
-9.6418
38.089
-139.79
8.6145
43.158
37.201
15.916
-35.537
-13.542
-53.467
16.01
-8.5408
113.77
-26.983
-7.7112
42.291
-50.451
-35.301
-2.4357
64.306
-36.509
-76.255
-43.377
24.495
108.45
13.008
26.259
-7.5763
-7.5109
24.889
-72.619
-52.778
2.5768
-35.51
93.867
22.688
-37.083
31.469
-9.6489
-45.244
141.49
-67.311
-31.753
45.126
-55.478
-51.278
10.379
46.134
-42.093
-2.4737
68.659
23.872
2.0207
-53.619
49.695
-24.25
-14.535
-34.549
45.527
-11.433
-88.636
-5.3805
124.69
-0.46709
-95.123
74.831
26.996
-27.52
-34.293
-27.869
24.576
-11.624
-14.59
1.6179
189.5
-188.2
32.482
57.606
-32.956
-11.248
44.134
-75.669
-82.82
131.69
51.01
-33.696
-78.338
-43.139
17.163
56.478
117.07
-148.31
-124.47
299.54
17.412
-120.28
-47.779
-20.322
-1.9499
22.268
-0.2382
108.26
-44.41
-37.325
48.797
-41.657
-7.5612
-11.406
-26.447
-76.207
35.459
101.47
4.8795
39.171
-93.294
-11.034
-8.0325
85.237
-36.117
-29.981
-39.366
69.592
-14.817
-95.318
98.605
70.367
-54.362
-24.529
46.225
34.042
-43.599
-89.957
-49.415
91.375
17.967
13.753
61.162
-47.625
26.599
-90.853
2.9991
28.452
-13.455
55.342
15.176
-61.083
57.157
-69.967
-10.393
25.138
-1.5786
42.084
-190.81
153.78
-24.44
-60.93
195.89
-96.329
72.416
-36.845
32.041
-101.6
8.4975
46.609
-8.2612
-67.145
2.0446
69.344
-91.604
-28.795
63.182
65.786
29.898
-13.46
-31.353
-29.426
-20.871
39.423
26.241
-17.021
-43.54
19.774
-18.167
31.108
10.105
-13.61
54.45
-34.949
-42.68
41.748
-54.504
-66.185
-7.7254
48.582
143.95
-0.39389
-225.91
-115.9
336.87
-14.694
-214.95
61.724
168.97
67.121
52.612
-208.73
141.26
1.0455
-278.56
147.22
158.12
37.199
-281.56
-167.74
257.78
120.67
-6.7727
-189.88
-24.617
9.8599
75.379
-26.674
-16.131
15.354
-48.24
113.02
7.423
-28.991
33.958
19.392
-70.055
-8.0392
1.9606
41.766
-30.46
4.1686
15.721
-35.023
-7.8704
40.498
16.162
-25.554
30.756
-5.104
-86.694
61.346
52.427
-37.231
-21.781
8.342
-86.929
-22.255
83.869
-2.32
67.326
3.6805
-35.822
-87.64
-17.497
113.13
50.274
-35.488
-23.337
-45.266
-6.7828
41.9
45.439
-17.236
-19.882
-51.669
34.938
-11.293
22.199
13.475
6.4918
-25.237
-33.17
22.235
28.325
30.212
-10.806
-84.333
27.783
78.654
-92.433
-33.625
76.623
-24.589
-6.8189
64.449
-65.746
-33.475
98.002
9.7159
-46.707
-10.936
-37.937
13.581
-37.225
47.109
97.066
-8.8762
-6.6959
-81.104
17.137
-34.221
10.862
-36.329
49.192
86.69
-53.105
-36.864
16.73
66.313
-32.924
-86.789
24.759
-7.8968
35.426
-25.778
36.52
-47.932
57.268
33.852
-4.6786
-59.985
-23.107
25.746
6.6886
-16.536
-4.7268
38.878
0.44681
7.2432
-60.038
43.541
31.953
-20.926
6.252
-56.035
-0.68023
96.691
0.81673
115.86
-255.71
-62.197
186.88
-143.38
240.29
29.888
-404.93
5.9384
-18.254
37.187
313.67
-82.593
19.879
142.87
-70.658
-61.849
-104.93
-57.431
101.55
53.896
22.586
-69.475
34.75
-9.2472
-33.528
-6.2186
-26.656
29.9
-29.561
-51.873
86.655
25.514
45.415
-25.717
-47.423
33.891
19.318
-64.676
-44.585
44.937
-10.36
-6.1991
81.08
-52.309
47.796
-46.189
-29.794
-20.034
27.2
6.159
-12.576
-44.499
-191.64
-53.772
10.147
348.25
705
-314.67
-415.57
22.343
2.775
-30.044
-5.5365
-61.062
7.955
-18.574
24.819
101.19
-9.5422
-12.722
-41.287
21.428
43.87
-37.757
-26.279
-32.164
56.919
16.326
46.484
-195.33
138.32
208.51
-27.451
-152.96
-211.33
101.83
88.071
-111.93
26.074
44.765
34.108
-35.129
16.859
-54.379
11.309
12.57
36.611
-118.14
28.741
-66.958
59.305
51.086
37.625
-19.667
-125.66
132.4
74.412
-0.15173
-64.046
27.845
-18.465
-28.852
59.274
-99.71
32.836
32.065
1.988
-9.4011
140.04
-164.24
-81.063
142.91
-133.05
85.139
38.991
-1.3931
21.106
-60.26
18.118
-25.155
-49.386
72.014
53.402
-47.604
-2.6398
-12.458
-97.448
63.344
76.957
36.82
-49.923
-26.886
17.926
-22.139
11.94
-23.263
24.545
5.6362
10.051
-37.277
1.2594
29.456
31.082
-72.449
81.15
-84.378
42.384
-2.6372
-33.78
-26.477
1.6309
93.733
-67
-51.196
110.75
-5.121
21.069
24.882
-105.69
-4.5467
-60.933
59.062
67.193
-43.974
41.211
-8.5179
-7.9893
-70.39
90.332
-5.5798
-28.938
-37.834
-50.929
112.15
-11.309
1.6723
-3.4632
53.634
-48.16
38.147
-74.457
-7.1865
98.84
-48.976
-9.6394
-32.823
-11.925
-57.441
52.748
25.42
-23.585
-52.068
-93.439
141.88
249.52
48.994
-281.16
-19.246
103.81
-115.29
-14.421
124.86
-46.545
13.705
-3.8785
-22.742
-13.976
11.308
-11.573
32.105
0.56416
-57.548
11.129
66.899
-64.037
26.419
-57.6
65.93
70.586
-46.846
-27.027
65.065
-69.845
-48.349
29.93
-1.4571
-41.897
4.0482
88.887
38.654
-45.608
-28.91
11.5
-5.0044
-1.1583
-10.603
21.266
-33.407
20.736
-14.747
-22.83
16.759
-32.93
-86.708
61.463
399.27
-205.38
-132.85
73.683
-41.963
-76.274
117.93
-27.353
-9.9159
-10.49
5.8327
-74.326
-34.076
57.309
42.882
51.075
-43.739
-89.282
-2.0225
137.01
23.86
-142.17
33.134
87.811
-44.038
15.115
-36.285
-20.396
-67.59
122.9
-49.877
41.108
27.472
-52.273
45.173
-6.2467
-50.838
48.941
-17.209
-41.839
48.545
-20.509
6.8723
-75.138
36.39
41.315
18.756
-26.447
-60.871
-8.9511
90.901
-21.136
-13.603
29.801
-137.08
169.38
74.718
-120.47
28.262
-46.837
78.364
-111.77
49.289
-6.7496
-32.269
29.433
54.267
-49.355
-6.7312
3.6273
61.713
-34.846
-6.8196
-25.634
13.929
-35.665
-21.273
-41.581
38.477
138.7
-71.523
50.748
0.29957
-56.839
-37.856
-48.529
-41.045
101.19
44.807
24.046
-49.023
-47.25
-118.59
-121.4
156.12
500.49
124.91
-111.47
-242.74
-389.24
42.724
181.57
-25.828
-39.878
84.465
26.297
-124.74
32.179
125.35
8.7192
-38.349
10.203
-60.071
99.814
-67.455
-41.488
110.54
-96.479
-0.1732
46.881
133.78
-223.25
-66.805
74.145
-128.05
77.631
261.23
-44.128
-47.43
-50.78
2.3354
-102.31
54.531
18.105
43.997
-4.4037
-30.23
51.014
-19.506
-78.96
33.852
82.311
-56.426
20.283
8.997
-73.001
33.518
-41.451
57.698
39.832
26.126
-88.468
-56.324
-11.966
104.84
14.109
-65.502
18.44
6.8978
95.027
-116.23
-21.139
-33.744
57.696
29.711
42.845
-20.168
27.944
-22.122
-98.725
55.774
-42.65
29.364
37.296
5.747
8.411
-78.277
40.342
-20.66
19.337
25.396
-21.177
-100.43
172.12
-44.655
8.3061
-32.064
-1.6917
-18.853
3.9535
40.684
-35.759
48.011
30.117
-63.273
-73.136
79.334
-22.25
-28.29
-39.962
81.381
43.723
4.7134
-48.092
-18.5
-98.717
78.31
47.992
3.9226
-9.3483
21.496
-17.328
-17.97
-100.14
-67.814
252.43
-9.1588
-15.378
-16.594
-30.411
22.524
25.17
-42.902
17.636
-45.514
1.0978
-17.891
76.133
-3.8959
-23.342
-6.3226
1.1211
13.071
-13.647
-12.854
-2.4907
6.0916
-1.8607
2.2672
-0.82567
7.7669
-10.903
7.4919
-3.526
43.021
-49.207
-81.115
121.66
-1.1494
7.2422
-7.2859
-51.429
55.648
-4.7856
-80.329
64.491
-25.762
44.222
4.3179
-21.112
-18.651
-0.74612
-23.511
-4.1016
36.686
-28.267
-9.7922
14.181
7.8591
7.4682
-7.7741
-6.4064
3.9226
-3.9383
1.2526
10.566
2.8667
5.7674
-0.45596
-5.3118
-3.2496
0.76436
4.628
-2.9529
0.26898
-2.2625
7.8725
-5.2038
1.8919
-11.796
6.0756
-65.212
87.145
159.46
-189.81
114
-204.14
70.329
38.795
-6.3282
15.281
-7.2727
4.3148
-87.187
36.875
20.546
14
-7.9238
-10.769
-8.7906
55.006
-13.672
-16.579
6.4498
-7.3239
7.3381
2.8614
-1.2676
12.481
-9.3112
-7.1203
-2.3345
-2.5547
8.7545
3.8224
-10.028
8.0748
8.2889
-6.4379
0.36337
3.3659
8.3275
6.5202
-29.559
35.758
6.7776
-108.12
113.37
-22.068
-2.8532
-6.1171
-1.7119
-48.251
-6.7574
35.986
-26.619
19.874
13.523
4.6276
-2.9985
-2.7387
5.416
1.6518
-2.3341
0.36953
2.0483
1.2385
2.0922
-7.0991
-9.3518
10.623
5.9591
0.54705
-1.539
-5.333
-3.7
-0.31002
4.4965
-1.6967
1.4496
2.7362
-0.504
6.1871
3.4401
-7.5959
-0.76311
-2.0696
-5.5373
2.8619
1.3193
-1.1012
1.5818
1.6192
1.5503
-0.19174
7.3238
1.3118
-9.9523
-2.3537
-0.44127
0.91937
-1.7742
0.40028
3.1303
-1.6292
-2.5719
2.2344
1.4093
0.67358
0.27107
-1.3716
-1.6755
-1.894
-0.24754
0.90519
1.4987
-2.3946
-0.89596
0.96847
-0.1198
1.1299
2.6609
1.2157
-5.9544
0.46899
-2.5254
-3.4103
0.62704
2.1779
-36.251
-28.563
158.49
-6.3583
-94.45
14.334
-1.0808
49.077
-81.66
-56.168
142.66
-35.283
28.475
-60.092
-55.336
-7.3133
79.741
-13.355
20.182
16.187
-40.278
2.5479
9.9839
0.065338
-2.9404
13.634
-6.0053
-8.3
2.3002
-9.2419
26.969
13.948
-9.6236
-5.244
19.4
-14.897
24.852
-121.86
28.834
100.37
-69.416
-8.4269
14.225
12.081
-18.077
-2.2671
8.145
0.22853
-8.0821
5.7127
1.8533
8.6903
7.0444
-8.4348
-28.326
71.274
8.8032
-40.3
7.5098
-11.96
15.666
33.121
-62.001
19.673
79.046
-115.2
10.992
32.558
-15.443
-19.215
16.654
75.42
-57.446
-65.722
133.17
-140.78
1.4307
122.08
-63.821
-85.854
65.76
-24.562
108.74
-174.19
8.5592
152.95
-13.778
-155.84
-25.831
150.02
60.386
-38.991
-8.3761
16.259
85.429
-147.74
-149.7
310.01
81.442
-219.23
7.0197
-1.8992
42.05
-59.027
0.36391
-21.235
27.029
-29.149
27.471
92.276
-60.608
-3.2259
-12.784
13.169
-15.917
18.503
-28.644
-51.146
7.7966
20.219
29.675
-2.0376
-0.92043
-7.9964
6.5896
5.2849
-22.147
74.114
-23.231
-81.602
18.565
-14.45
28.621
57.149
1.4814
-17.4
-6.0188
-1.3365
0.40374
-44.219
10.472
15.258
0.57817
10.424
15.617
17.253
39.509
-72.846
-152.19
143.59
77.411
-41.439
-65.184
18.604
-8.7439
49.375
10.523
-32.845
2.5742
-3.5236
4.4025
-8.522
-13.246
-57.831
-14.489
96.077
44.777
-81.704
-27.7
-48.864
-117.21
133.96
462.44
-248.2
-125.97
-114.55
42.328
126.06
-82.564
25.689
46.215
-1.0335
-20.378
-2.2005
-39.123
-11.783
-8.2614
20.198
-15.834
19.271
102.09
-3.927
-12.553
35.509
-162.13
29.297
-62.826
55.227
30.602
51.353
-40.568
-1.9045
-44.32
-21.774
16.906
-35.231
116.14
22.589
-45.178
-13.355
-41.34
115.57
-34.267
-49.071
-41.703
46.134
-37.479
52.098
74.272
-97.486
81.543
19.437
128.32
144.39
-217.55
-790.15
-98.518
504.78
659.13
-356.62
-174.19
168.83
-34.864
17.281
-30.168
-21.374
67.016
-28.542
-21.701
5.2417
-35.491
31.35
3.6636
-25.702
30.021
-44.334
-22.033
76.472
-24.365
10.145
27.646
2.3252
-92.568
49.555
-41.018
-41.588
103.58
35.795
-21.272
-41.254
25.805
-37.227
16.93
-19.36
65.823
-44.278
17.392
49.999
-57.508
3.6553
-40.407
-35.934
40.063
0.21095
45.635
-75.374
98.068
-118.57
8.5374
105.68
-44.532
95.529
-35.335
-104.78
47.004
-8.2045
13.217
-85.179
40.12
59.456
-62.305
83.463
-34.513
-21.056
-29.594
143.76
-14.287
-96.203
6.7254
48.222
-77.2
20.011
22.284
-19.582
79.764
-85.926
-35.044
-13.517
-4.3101
93.794
7.8348
-1.2154
-2.2457
2.7641
-37.242
-9.7726
58.025
-63.242
40.818
34.845
-42.522
-8.1731
-41.027
62.843
-103.92
95.874
34.642
-108.64
-51.453
22.462
146.42
-43.885
22.119
-109.06
106.79
-14.764
16.106
-28.942
21.643
-39.201
-15.617
1.4303
-10.107
55.003
-1.9486
-2.7195
11.568
0.16718
-78.311
68.917
41.067
-39.388
-19.113
-0.89733
-35.758
-24.271
-53.519
97.122
73.55
5.6198
-84.909
30.534
-6.0511
-27.261
78.172
14.807
-41.352
-106.32
25.773
-90.263
43.445
136.69
-17.669
62.512
-66.56
-39.295
84.767
-24.959
-30.573
-43.427
33.357
17.232
-39.273
-10.781
90.868
-17.558
-47.25
35.386
38.125
-51.59
-7.3717
-55.392
7.9115
12.092
-73.358
96.627
10.985
69.152
-71.077
-25.297
21.844
-37.237
133.1
79.439
-88.937
-252.97
201.4
-92.84
-6.9805
62.863
20.354
21.473
-21.404
12.175
20.765
-58.407
-56.6
-51.611
110.5
5.2923
27.802
26.221
-31.343
2.0359
-39.231
39.014
-3.8107
-42.689
31.14
14.68
-43.101
54.769
-69.441
-8.523
2.4945
36.047
52.694
-20.265
-66.57
57.988
77.086
12.327
-61.79
-163.83
68.29
81.693
-77.717
1.9557
81.988
-40.912
-13.505
52.358
8.2271
-37.74
-1.8694
-38.416
30.027
35.343
42.422
82.008
-294.63
-7.2736
112.46
-22.746
-71.693
155.73
32.083
-39.167
-14.567
-0.1406
-12.884
-46.333
-19.216
120.18
59.344
-104.27
194.08
-75.02
-274.76
-20.251
57.292
175.98
-1.0838
-42.07
-33.816
-19.814
-8.1778
26.439
34.665
-144.49
-69.745
-27.337
618.66
-81.173
-305.03
64.814
-61.109
-5.42
-62.652
27.658
-4.387
41.774
-41.391
-8.4411
78.308
2.2884
5.0064
-56.016
44.306
27.923
-48.707
6.8827
-23.22
12.022
-41.662
-45.996
77.515
-145.6
105.93
67.072
-8.0225
33.603
-19.673
-10.543
24.593
12.963
-39.004
-27.699
-4.2084
-38.756
22.128
48.621
73.447
-80.267
-31.118
-12.328
-13.871
62.173
57.842
-67.026
-11.954
38.427
-64.082
-35.15
-75.999
106.35
61.034
12.515
23.698
-37.89
-9.2293
1.5522
40.271
-32.994
-77.66
38.82
-61.52
16.902
102.26
-42.419
-28.266
-86.756
42.275
206.62
-44.131
28.03
-89.917
61.479
-105.09
-41.825
127.34
-79.228
17.531
-24.359
31.592
-73.532
9.64
32.23
-92.522
78.831
43.24
40.111
-60.658
-12.124
0.22897
124.36
-64.787
10.621
-1.7935
-74.333
9.9968
-62.535
125
-33.183
-61.277
-37.749
50.808
52.916
23.244
-13.123
8.784
-26.732
-26.746
65.059
-85.706
28.852
20.461
-18.791
-10.654
67.897
-18.082
-55.417
8.5087
-29.998
-36.399
60.446
87.991
-27.434
38.669
-54.116
-34.527
-32.846
66.821
-133.69
82.038
28.163
-32.873
96.269
25.791
-86.144
-49.222
-41.424
-9.944
116.57
30.162
-5.8202
-22.291
-3.4356
-24.005
-30.885
12.883
45.612
32.405
-54.561
13.187
39.834
-31.894
-55.933
17.625
3.6679
21.531
32.635
-94.776
110.27
-72.104
11.573
14.827
-138.41
145.85
-51.708
74.481
-37.546
103.27
-94.989
-130.57
128.59
-150.75
144.7
135.58
-137.31
-149.24
141.76
33.587
66.688
-57.645
20.19
-30.422
-71.135
39.247
-29.611
3.6677
-40.758
84.763
34.331
11.668
-33.798
-30.591
60.459
-18.577
-36.469
-56.12
25.151
-8.0388
10.726
61.823
-27.395
16.449
-14.823
-20.156
-50.339
10.891
98.71
17.488
-32.358
2.2508
-21.461
-60.184
108.56
-31.865
-62.647
-35.022
9.8973
-72.054
-68.397
219.41
154.91
-53.275
-32.844
-82.25
-46.053
62.217
-81.041
87.942
-34.595
-89.715
127.25
-22.174
-3.5465
62.649
-72.487
-8.0502
37.992
18.003
-25.96
-46.966
85.781
-46.07
-2.1933
-36.759
-27.152
-8.7345
-30.018
95.432
5.6868
49.272
-27.259
-55.324
15.362
45.114
13.546
-40.557
42.601
-62.177
-21.347
12.059
-54.695
100.39
18.409
-48.017
62.799
-18.623
-26.971
-31.798
8.0751
35.904
22.883
277.42
-184.29
-552.24
73.998
185.71
153
33.712
16.843
-18.888
-8.259
2.8238
16.28
-33.716
11.899
28.312
-39.441
-70.633
44.582
-31.659
29.508
4.5329
68.178
-16.215
-34.082
62.58
-46.109
-30.69
-53.999
23.4
-51.344
98.609
62.553
-38.549
36.442
-37.999
-14.973
-100.07
51.524
61.183
-28.071
79.161
-142.21
-58.842
137.68
61.833
-177.97
-18.256
185.53
-49.985
-46.745
56.712
25.636
-29.667
0.14169
3.6339
-15.447
21.2
-79.045
51.772
-44.37
30.39
24.807
-51.341
28.593
-21.834
-6.8988
95.636
6.2802
-103.52
125.47
-70.982
43.947
59.771
-187.65
-54.933
130.23
33.954
-31.353
-8.0056
-10.663
-35.022
44.838
-26.833
26.958
14.434
-37.638
84.093
-176.72
82.509
39.225
-21.84
-85.616
80.636
-50.111
192.74
-56.571
11.16
-58.176
22.468
-24.107
-248.59
125.37
72.723
-44.905
90.565
256.33
-194.88
-58.264
-106.84
78.621
27.838
10.074
-1.1333
-33.658
16.374
-94.795
125.41
-4.3805
-8.7032
-30.762
-28.501
54.252
-38.349
46.227
-17.306
-14.341
-7.0555
-57.293
92.365
16.345
-11.925
31.136
-61.634
-13.772
-41.301
-39.19
100.99
24.781
5.0926
24.447
-96.569
-21.471
69.082
10.847
4.9192
-21.235
