1550860571.00
64.000000
-0.00
-0.00
-0.00
-0.00
-0.00
-0.00
-0.00
-0.00
-0.00
-0.00
0.00
0.01
0.01
-0.00
-0.03
-0.05
-0.05
0.00
0.13
0.36
0.66
1.01
1.37
1.72
2.06
2.40
2.79
3.24
3.80
4.42
5.06
5.66
6.20
6.68
7.15
7.68
8.31
9.14
10.09
11.04
11.88
12.56
13.14
13.76
14.65
15.96
17.91
20.32
22.90
25.38
27.58
29.57
31.68
34.32
37.81
42.54
48.15
54.10
59.83
64.97
69.58
74.14
79.34
85.71
93.76
103.00
112.62
121.73
129.77
136.75
143.30
150.75
157.77
166.64
177.95
191.79
206.97
220.57
228.25
225.36
208.53
176.87
132.76
80.05
23.07
-34.94
-92.44
-149.16
-205.23
-260.37
-313.74
-363.87
-409.83
-450.91
-486.50
-515.74
-537.23
-549.22
-549.96
-538.37
-514.21
-478.67
-433.88
-382.45
-327.02
-269.84
-212.63
-156.66
-102.95
-52.37
-5.90
35.58
71.43
101.35
125.50
144.38
158.69
169.15
176.37
180.75
182.57
182.07
179.51
175.23
169.65
163.18
156.15
148.81
141.30
133.69
126.02
118.33
110.69
103.16
95.80
88.68
81.83
75.25
68.95
62.95
57.25
51.86
46.78
42.03
37.59
33.45
29.61
26.07
22.81
19.83
17.11
14.67
12.48
10.54
8.83
7.35
6.07
4.97
4.05
3.27
2.62
2.09
1.65
1.30
1.01
0.79
0.61
0.47
0.37
0.28
0.22
0.18
0.15
0.13
0.12
0.12
0.12
0.14
0.16
0.18
0.22
0.25
0.29
0.34
0.38
0.43
0.48
0.52
0.58
0.63
0.68
0.74
0.80
0.87
0.94
1.02
1.11
1.21
1.33
1.45
1.59
1.75
1.92
2.12
2.34
2.58
2.85
3.15
3.47
3.83
4.22
4.64
5.11
5.61
6.14
6.72
7.34
8.00
8.71
9.46
10.26
11.10
11.98
12.91
13.90
14.94
16.05
17.21
18.44
19.70
20.98
22.23
23.38
24.34
24.97
25.14
24.71
23.57
21.64
18.94
15.52
11.47
6.97
2.20
-2.65
-7.38
-11.81
-15.77
-19.09
-21.67
-23.42
-24.34
-24.52
-24.10
-23.24
-22.11
-20.85
-19.53
-18.11
-16.57
-14.91
-13.20
-11.58
-10.22
-9.26
-8.72
-8.47
-8.32
-7.98
-7.32
-6.43
-5.53
-4.97
-5.04
-5.81
-7.11
-8.50
-9.55
-9.97
-9.92
-9.81
-10.24
-11.68
-14.34
-17.89
-21.75
-25.21
-27.80
-29.60
-31.00
-32.65
-35.35
-39.90
-46.88
-56.26
-66.98
-76.94
-83.44
-83.80
-76.62
-62.54
-44.25
-25.58
-10.08
0.13
5.98
8.59
9.76
11.16
13.73
17.58
22.43
28.02
34.28
41.12
47.94
53.90
57.96
59.27
57.58
53.42
47.78
41.68
35.78
30.22
24.98
20.07
15.56
11.61
8.28
5.49
2.95
0.35
-2.60
-5.99
-9.78
-14.03
-18.93
-24.76
-31.68
-39.50
-47.57
-54.83
-60.02
-62.02
-60.30
-55.07
-47.16
-37.70
-27.72
-17.94
-8.77
-0.50
6.56
11.97
15.42
16.84
16.51
15.01
12.93
10.74
8.69
6.88
5.34
4.13
3.28
2.77
2.50
2.36
2.25
2.02
1.54
0.63
-0.85
-2.99
-5.81
-9.25
-13.27
-17.69
-22.13
-25.94
-28.43
-29.13
-28.11
-25.90
-23.22
-20.61
-18.22
-15.89
-13.26
-10.00
-5.87
-0.82
4.91
10.79
16.02
19.97
22.49
24.16
26.11
29.57
35.36
43.65
54.04
65.74
77.73
88.63
96.69
100.23
98.21
90.97
80.18
68.20
56.86
46.73
37.15
27.11
16.42
6.32
-0.90
-3.20
0.01
7.43
16.58
25.18
32.19
37.98
43.44
48.99
53.87
56.57
55.79
51.36
44.38
36.59
29.49
23.57
18.47
13.42
7.89
1.77
-4.79
-11.60
-18.61
-25.68
-32.45
-38.39
-43.02
-46.28
-48.63
-50.88
-53.77
-57.65
-62.27
-66.94
-70.77
-73.00
-73.07
-70.76
-66.15
-59.56
-51.55
-42.72
-33.66
-24.69
-15.91
-7.32
0.96
8.51
14.74
19.08
21.40
22.05
21.87
21.79
22.41
23.80
25.55
27.13
28.19
28.75
29.03
29.08
28.60
26.88
23.31
17.69
10.46
2.55
-5.13
-12.06
-18.30
-24.25
-30.21
-36.03
-41.10
-44.59
-45.91
-44.95
-42.16
-38.27
-33.99
-29.76
-25.64
-21.38
-16.75
-11.73
-6.75
-2.56
0.13
1.25
1.63
2.81
6.30
12.66
20.92
28.95
34.33
35.71
33.44
29.26
25.34
23.06
22.40
22.26
21.35
18.93
15.09
10.54
6.13
2.65
0.89
1.59
5.20
11.44
19.14
26.52
32.13
35.65
38.17
41.54
47.10
54.75
62.82
69.11
72.15
72.13
70.62
69.52
69.89
71.35
72.44
71.58
68.07
62.41
55.91
49.84
44.80
40.46
35.90
30.32
23.39
15.49
7.36
-0.35
-7.44
-14.26
-21.44
-29.45
-38.19
-46.82
-54.02
-58.45
-59.28
-56.51
-50.95
-43.82
-36.33
-29.24
-22.82
-17.02
-11.70
-6.88
-2.68
0.74
3.38
5.43
7.15
8.76
10.24
11.39
11.87
11.44
10.03
7.81
5.16
2.55
0.40
-1.02
-1.68
-1.71
-1.45
-1.31
-1.71
-3.05
-5.56
-9.22
-13.60
-17.82
-20.77
-21.33
-18.82
-13.17
-5.00
4.75
15.05
25.17
34.64
43.19
50.52
56.23
59.86
61.01
59.53
55.49
49.20
41.18
32.11
22.82
14.14
6.70
0.70
-4.27
-9.24
-15.59
-24.56
-36.72
-51.51
-67.29
-81.73
-92.59
-98.47
-99.21
-95.84
-90.04
-83.53
-77.58
-72.72
-68.79
-65.11
-60.70
-54.61
-46.25
-35.70
-23.78
-11.78
-1.06
7.49
13.60
17.59
19.98
21.26
21.70
21.47
20.74
19.78
18.94
18.51
18.56
18.86
19.02
18.60
17.24
14.83
11.52
7.65
3.58
-0.33
-3.93
-7.21
-10.26
-13.20
-16.08
-18.92
-21.68
-24.36
-26.98
-29.60
-32.22
-34.66
-36.55
-37.34
-36.51
-33.75
-29.08
-22.92
-15.87
-8.63
-1.75
4.36
9.48
13.47
16.35
18.21
19.21
19.62
19.68
19.59
19.47
19.40
19.37
19.33
19.10
18.47
17.24
15.38
13.09
10.70
8.55
6.82
5.38
3.88
1.91
-0.76
-4.15
-8.06
-12.36
-17.01
-22.06
-27.50
-32.95
-37.69
-40.77
-41.35
-39.04
-34.10
-27.31
-19.71
-12.21
-5.39
0.51
5.49
9.53
12.53
14.38
15.08
14.90
14.27
13.70
13.52
13.75
14.11
14.18
13.61
12.24
10.15
7.58
4.77
1.83
-1.20
-4.34
-7.64
-11.04
-14.42
-17.60
-20.40
-22.79
-24.88
-27.02
-29.67
-33.24
-37.85
-43.11
-48.15
-51.76
-52.79
-50.53
-44.96
-36.72
-26.92
-16.77
-7.31
0.81
7.29
12.15
15.59
17.86
19.26
20.05
20.49
20.76
20.99
21.16
21.13
20.73
19.73
18.02
15.56
12.48
8.98
5.36
1.90
-1.23
-3.98
-6.47
-8.87
-11.43
-14.31
-17.66
-21.61
-26.26
-31.60
-37.35
-42.87
-47.20
-49.36
-48.65
-44.93
-38.67
-30.71
-21.97
-13.13
-4.53
3.72
11.53
18.78
25.24
30.72
35.11
38.42
40.67
41.88
42.09
41.37
40.05
38.59
37.50
37.17
37.59
38.22
38.02
35.66
29.96
20.26
6.78
-9.31
-26.28
-42.30
-56.15
-67.53
-77.10
-86.08
-95.76
-107.02
-120.31
-135.53
-152.10
-168.56
-182.37
-190.08
-188.32
-175.22
-151.76
-121.85
-91.02
-64.27
-44.25
-30.63
-21.14
-13.18
-5.18
3.20
11.82
20.89
31.06
42.70
55.06
66.12
73.47
75.62
72.95
67.50
61.92
58.03
56.02
54.72
52.46
48.17
41.91
34.71
27.85
22.26
18.06
14.56
10.48
4.29
-5.17
-18.15
-33.52
-48.74
-60.33
-64.91
-60.29
-46.27
-24.85
0.52
25.92
48.14
65.57
78.51
89.02
99.98
113.58
129.74
145.69
157.29
161.25
156.89
146.13
131.86
115.99
98.87
80.72
63.14
49.27
41.64
39.16
36.21
25.12
1.25
-33.20
-69.47
-96.98
-109.55
-108.79
-102.33
-98.50
-101.13
-108.09
-113.80
-113.62
-106.81
-96.44
-86.79
-80.44
-77.12
-74.47
-69.80
-61.57
-49.96
-36.53
-23.35
-12.19
-3.90
1.92
6.55
11.42
17.43
24.33
30.85
35.22
36.09
33.14
27.34
20.45
14.32
10.10
7.92
6.94
5.85
3.62
-0.20
-5.24
-10.53
-14.90
-17.41
-17.79
-16.49
-14.45
-12.51
-11.07
-9.92
-8.25
-5.11
0.23
7.80
16.83
26.10
34.69
42.14
48.54
54.35
60.15
66.44
73.33
80.49
87.16
92.98
97.50
100.09
100.32
98.26
94.58
90.08
85.10
79.50
74.30
70.28
67.59
65.62
63.49
60.37
55.60
48.60
39.25
30.53
25.38
25.25
29.70
37.54
48.14
61.84
79.26
100.49
127.54
159.95
194.07
224.69
248.32
265.32
279.27
294.31
295.27
272.78
227.67
171.13
115.48
67.58
29.24
-0.17
-21.13
-37.57
-48.81
-54.23
-55.48
-56.83
-63.62
-80.74
-108.73
-146.99
-193.09
-239.75
-278.75
-303.54
-311.28
-303.46
-285.29
-263.99
-246.84
-238.19
-236.31
-236.31
-233.06
-223.66
-207.99
-187.83
-165.36
-142.47
-120.02
-97.29
-73.88
-50.63
-29.50
-12.64
-1.33
4.55
6.12
5.16
3.71
3.15
3.74
4.84
5.42
4.66
2.35
-1.20
-5.28
-9.10
-12.20
-14.65
-16.90
-19.56
-23.06
-27.48
-32.62
-38.17
-43.88
-49.64
-55.30
-60.45
-64.25
-65.56
-63.29
-56.80
-46.25
-32.57
-17.18
-1.58
13.04
26.01
37.07
46.24
53.59
59.18
63.08
65.43
66.57
66.94
66.98
66.95
66.86
66.47
65.44
63.50
60.55
56.77
52.42
47.77
42.93
37.90
32.59
26.93
20.92
14.51
7.59
-0.04
-8.57
-17.84
-27.20
-35.37
-40.77
-41.92
-38.05
-29.36
-16.97
-2.53
12.31
26.36
39.04
50.15
59.66
67.40
73.05
76.33
77.15
75.76
72.70
68.62
64.04
59.35
54.70
50.11
45.52
40.85
36.05
31.07
25.93
20.63
15.19
9.57
3.67
-2.58
-9.27
-16.41
-24.07
-32.34
-41.29
-50.78
-60.22
-68.47
-74.00
-75.33
-71.53
-62.69
-49.85
-34.69
-18.92
-3.83
9.90
22.15
32.93
42.21
49.67
54.95
57.79
58.28
56.83
54.11
50.82
47.48
44.34
41.40
38.49
35.38
31.86
27.81
23.21
18.17
12.84
7.41
2.02
-3.33
-8.72
-14.39
-20.60
-27.68
-35.85
-45.12
-55.03
-64.61
-72.35
-76.53
-75.72
-69.27
-57.63
-42.21
-24.94
-7.67
8.27
22.27
34.23
44.25
52.30
58.19
61.67
62.61
61.23
58.04
53.77
49.05
44.27
39.54
34.77
29.84
24.69
19.43
14.20
9.14
4.23
-0.66
-5.70
-11.06
-16.86
-23.21
-30.19
-37.89
-46.27
-55.06
-63.56
-70.70
-75.16
-75.64
-71.24
-61.77
-47.87
-30.92
-12.68
5.19
21.44
35.41
46.96
56.17
63.13
67.81
70.16
70.20
68.24
64.84
60.70
56.44
52.41
48.68
45.11
41.38
37.23
32.48
27.08
21.09
14.68
8.03
1.35
-5.21
-11.57
-17.78
-24.11
-30.91
-38.53
-47.02
-55.86
-63.97
-69.77
-71.71
-68.69
-60.50
-47.80
-31.98
-14.66
2.64
18.81
33.18
45.40
55.34
62.98
68.31
71.47
72.65
72.18
70.41
67.66
64.14
59.99
55.34
50.39
45.51
41.07
37.30
34.09
31.00
27.35
22.53
16.26
8.70
0.39
-8.10
-16.27
-23.99
-31.37
-38.77
-46.52
-54.84
-63.53
-71.94
-78.89
-82.91
-82.76
-77.72
-68.02
-54.66
-39.12
-22.79
-6.72
8.53
22.72
35.60
46.78
55.71
61.89
65.08
65.42
63.38
59.59
54.69
49.15
43.30
37.39
31.69
26.49
22.03
18.32
15.09
11.82
7.87
2.87
-3.28
-10.21
-17.36
-24.17
-30.26
-35.55
-40.25
-44.76
-49.52
-54.95
-61.29
-68.49
-76.03
-82.88
-87.61
-88.76
-85.33
-77.07
-64.69
-49.48
-32.96
-16.42
-0.67
13.78
26.63
37.54
46.16
52.27
55.94
57.52
57.56
56.66
55.20
53.37
51.22
48.74
46.04
43.33
40.85
38.79
37.14
35.62
33.83
31.30
27.70
23.00
17.43
11.45
5.50
-0.03
-5.09
-9.83
-14.67
-20.19
-26.98
-35.43
-45.49
-56.50
-67.19
-75.92
-81.09
-81.61
-77.29
-68.75
-57.22
-44.04
-30.35
-16.93
-4.32
7.03
16.73
24.48
30.17
34.01
36.45
38.02
39.17
40.11
40.80
41.14
40.99
40.43
39.65
38.94
38.57
38.57
38.72
38.60
37.76
35.91
33.12
29.74
26.28
23.15
20.46
18.04
15.46
12.31
8.29
3.41
-2.09
-7.68
-12.61
-15.99
-16.89
-14.64
-9.01
-0.30
10.72
23.10
36.01
48.93
61.61
73.68
84.27
91.92
94.66
90.79
79.48
61.45
38.86
14.69
-8.14
-27.65
-43.02
-54.52
-62.93
-69.11
-73.82
-77.74
-81.56
-85.93
-91.26
-97.44
-103.88
-109.65
-113.83
-115.89
-115.84
-114.18
-111.65
-109.09
-107.12
-106.13
-106.07
-106.54
-106.78
-105.79
-102.65
-96.66
-87.70
-76.22
-63.17
-49.60
-36.41
-24.06
-12.63
-1.96
8.01
17.18
25.26
31.95
37.12
40.87
43.40
44.93
45.57
45.40
44.54
43.25
41.89
40.76
39.99
39.42
38.67
37.29
34.98
31.69
27.61
23.09
18.46
13.91
9.41
4.71
-0.58
-6.84
-14.23
-22.50
-30.89
-38.17
-42.91
-43.93
-40.66
-33.41
-23.28
-11.78
-0.40
9.81
18.39
25.32
30.82
35.04
37.96
39.56
39.88
39.11
37.57
35.54
33.17
30.46
27.40
24.04
20.65
17.53
14.89
12.70
10.65
8.27
5.19
1.32
-3.08
-7.61
-11.87
-15.75
-19.36
-23.04
-27.21
-32.24
-38.29
-45.18
-52.32
-58.60
-62.68
-63.26
-59.58
-51.71
-40.56
-27.56
-14.21
-1.60
9.71
19.61
28.19
35.42
41.21
45.40
47.96
49.04
48.93
47.96
46.33
44.17
41.55
38.59
35.50
32.53
29.85
27.45
25.05
22.25
18.68
14.14
8.77
2.95
-2.80
-8.07
-12.71
-16.85
-20.89
-25.36
-30.81
-37.55
-45.44
-53.74
-61.15
-66.09
-67.12
-63.49
-55.42
-44.05
-31.03
-17.92
-5.80
4.89
14.19
22.22
28.98
34.35
38.18
40.55
41.80
42.31
42.42
42.17
41.40
39.85
37.40
34.25
30.78
27.49
24.66
22.26
19.99
17.44
14.29
10.48
6.21
1.78
-2.58
-6.78
-10.90
-15.13
-19.67
-24.76
-30.61
-37.38
-45.12
-53.40
-61.34
-67.50
-70.39
-68.90
-62.77
-52.70
-40.11
-26.57
-13.36
-1.24
9.55
19.01
27.10
33.73
38.68
41.84
43.28
43.32
42.41
41.01
39.44
37.77
35.92
33.73
31.22
28.60
26.25
24.42
23.07
21.80
19.99
17.09
12.89
7.60
1.75
-4.06
-9.42
-14.18
-18.51
-22.77
-27.42
-32.95
-39.60
-47.32
-55.51
-63.07
-68.60
-70.75
-68.70
-62.42
-52.68
-40.76
-28.05
-15.57
-3.90
6.75
16.28
24.46
30.98
35.59
38.30
39.47
39.64
39.30
38.64
37.62
35.99
33.68
30.81
27.76
24.93
22.61
20.76
19.13
17.30
14.86
11.57
7.39
2.54
-2.61
-7.70
-12.39
-16.62
-20.51
-24.42
-28.79
-34.07
-40.54
-48.12
-56.20
-63.59
-68.73
-70.15
-66.98
-59.28
-48.11
-35.09
-21.84
-9.52
1.36
10.76
18.83
25.62
31.07
35.10
37.77
39.34
40.13
40.41
40.27
39.66
38.48
36.78
34.78
32.88
31.41
30.48
29.86
29.04
27.39
24.48
20.18
14.78
8.82
2.93
-2.45
-7.18
-11.41
-15.61
-20.27
-25.85
-32.54
-40.16
-48.01
-55.01
-59.78
-61.08
-58.17
-51.10
-40.65
-28.16
-15.07
-2.53
8.75
18.49
26.66
33.28
38.37
42.00
44.32
45.61
46.20
46.33
46.07
45.30
43.89
41.80
39.18
36.37
33.72
31.39
29.29
27.08
24.31
20.68
16.12
10.80
5.05
-0.88
-6.78
-12.63
-18.38
-24.07
-29.75
-35.57
-41.73
-48.32
-55.11
-61.30
-65.73
-67.06
-64.33
-57.38
-46.88
-34.15
-20.68
-7.68
4.20
14.79
24.20
32.46
39.43
44.86
48.55
50.52
51.05
50.56
49.43
47.88
45.98
43.67
40.94
37.91
34.81
31.92
29.38
27.12
24.80
21.96
18.21
13.46
7.95
2.16
-3.45
-8.63
-13.49
-18.39
-23.71
-29.72
-36.50
-43.93
-51.78
-59.58
-66.57
-71.69
-73.80
-71.99
-65.95
-56.15
-43.70
-30.02
-16.37
-3.59
7.99
18.37
27.65
35.81
42.64
47.84
51.18
52.60
52.37
50.94
48.76
46.12
43.00
39.27
34.87
29.94
24.96
20.50
16.93
14.21
11.86
9.18
5.60
0.93
-4.55
-10.23
-15.49
-19.90
-23.39
-26.22
-28.90
-31.95
-35.85
-40.78
-46.65
-52.89
-58.60
-62.60
-63.74
-61.22
-54.82
-45.10
-33.12
-20.21
-7.50
4.29
14.89
24.25
32.31
38.91
43.75
46.61
47.53
46.79
44.91
42.44
39.81
37.20
34.66
32.14
29.58
27.00
24.47
22.13
20.04
18.14
16.19
13.93
11.05
7.43
3.12
-1.70
-6.78
-11.91
-16.96
-21.92
-26.88
-31.96
-37.36
-43.25
-49.73
-56.64
-63.45
-69.20
-72.74
-72.97
-69.29
-61.82
-51.31
-39.00
-26.13
-13.74
-2.42
7.53
16.02
22.98
28.39
32.25
34.70
35.95
36.27
35.89
34.98
33.63
31.88
29.79
27.51
25.23
23.20
21.63
20.59
19.89
19.11
17.67
15.15
11.36
6.54
1.24
-3.94
-8.54
-12.45
-15.82
-18.95
-22.21
-25.94
-30.36
-35.43
-40.81
-45.69
-48.98
-49.59
-46.81
-40.65
-31.81
-21.42
-10.61
-0.21
9.37
17.99
25.53
31.82
36.62
39.79
41.36
41.61
40.90
39.58
37.84
35.80
33.47
30.88
28.12
25.32
22.60
20.03
17.56
14.97
11.98
8.30
3.79
-1.44
-7.04
-12.53
-17.53
-21.92
-25.91
-29.95
-34.58
-40.19
-46.85
-54.21
-61.55
-67.81
-71.79
-72.44
-69.11
-61.81
-51.20
-38.45
-24.83
-11.43
1.11
12.48
22.60
31.32
38.46
43.80
47.33
49.23
49.91
49.82
49.19
48.13
46.57
44.47
41.89
39.05
36.20
33.57
31.25
29.13
26.99
24.49
21.33
17.33
12.47
6.95
1.10
-4.77
-10.42
-15.76
-20.90
-26.07
-31.60
-37.86
-45.10
-53.27
-61.80
-69.55
-74.96
-76.49
-73.17
-64.92
-52.65
-37.93
-22.47
-7.59
5.98
18.10
28.83
38.19
46.00
51.90
55.70
57.44
57.49
56.34
54.48
52.15
49.40
46.20
42.56
38.63
34.66
30.90
27.53
24.52
21.70
18.74
15.30
11.06
5.88
-0.14
-6.70
-13.31
-19.58
-25.34
-30.77
-36.30
-42.46
-49.61
-57.72
-66.27
-74.21
-80.18
-82.78
-81.05
-74.67
-64.17
-50.69
-35.68
-20.41
-5.83
7.59
19.61
30.06
38.70
45.29
49.71
52.11
52.88
52.59
51.72
50.54
49.07
47.14
44.63
41.53
38.10
34.70
31.69
29.22
27.15
25.06
22.40
18.71
13.80
7.85
1.30
-5.32
-11.60
-17.39
-22.89
-28.50
-34.70
-41.81
-49.92
-58.75
-67.68
-75.72
-81.66
-84.33
-82.84
-76.91
-66.92
-53.88
-39.05
-23.70
-8.75
5.19
17.74
28.60
37.50
44.26
48.84
51.51
52.73
52.95
52.51
51.46
49.71
47.18
43.97
40.39
36.87
33.75
31.16
28.94
26.71
24.02
20.49
16.00
10.66
4.86
-0.91
-6.17
-10.64
-14.27
-17.31
-20.27
-23.77
-28.33
-34.13
-40.68
-46.79
-50.78
-50.94
-46.19
-36.48
-22.84
-7.09
8.87
23.51
36.05
46.30
54.37
60.35
64.20
65.85
65.42
63.28
60.08
56.45
52.86
49.43
46.02
42.53
38.97
35.60
32.76
30.64
29.13
27.81
26.12
23.58
19.95
15.21
9.53
3.20
-3.44
-9.99
-16.05
-21.38
-26.07
-30.54
-35.55
-41.77
-49.41
-57.91
-65.92
-71.62
-73.30
-69.96
-61.60
-49.22
-34.39
-18.73
-3.54
10.45
22.99
34.06
43.69
51.83
58.36
63.15
66.16
67.47
67.42
66.49
65.33
64.57
64.68
65.75
67.41
68.91
69.36
68.05
64.76
59.95
54.62
50.01
46.99
45.72
45.43
44.60
41.46
34.45
22.58
5.65
-15.85
-40.97
-68.49
-97.22
-125.86
-152.92
-176.48
-194.23
-203.56
-201.90
-187.11
-157.77
-114.01
-58.75
1.89
59.12
104.01
130.86
139.30
133.95
121.95
109.58
100.16
94.00
89.84
86.26
82.12
76.25
67.64
56.68
46.59
43.26
52.73
77.31
112.94
149.84
176.65
185.24
174.10
147.41
111.43
70.56
25.79
-23.65
-77.56
-133.05
-185.33
-229.43
-262.55
-285.32
-301.07
-313.88
-325.48
-334.30
-336.68
-330.40
-315.24
-293.07
-266.89
-238.92
-209.98
-178.81
-143.83
-105.64
-69.76
-42.84
-28.60
-25.33
-25.86
-22.05
-8.09
15.78
42.46
59.60
58.54
39.69
12.14
-11.04
-20.94
-15.01
2.90
38.43
87.84
139.82
182.47
206.84
217.82
218.31
208.65
189.55
163.29
132.08
100.06
72.20
52.57
43.10
41.86
45.67
51.01
54.47
51.98
42.02
26.83
11.35
1.13
-1.00
5.13
17.04
30.35
39.27
39.58
29.94
11.81
-11.06
-34.05
-51.71
-59.21
-54.34
-39.62
-21.45
-8.24
-7.46
-22.69
-52.01
-87.48
-117.89
-133.09
-128.62
-107.49
-78.43
-51.41
-32.62
-21.74
-13.20
-0.84
16.97
34.90
43.10
33.07
3.27
-38.78
-79.26
-104.17
-105.36
-83.32
-45.87
-3.92
33.43
61.91
82.49
98.91
114.39
129.01
139.65
142.12
134.29
118.23
99.76
85.57
79.61
80.89
83.98
82.29
71.79
53.41
32.33
14.91
5.14
2.66
3.62
3.46
-0.42
-7.65
-16.09
-23.99
-31.16
-38.68
-47.11
-55.36
-61.09
-62.57
-60.28
-56.96
-55.71
-57.71
-61.32
-63.18
-60.73
-53.91
-45.21
-37.71
-33.06
-30.61
-28.47
-25.11
-20.44
-15.38
-10.55
-5.44
1.30
10.50
21.50
32.19
40.25
44.65
46.17
46.66
47.62
49.15
50.05
48.97
45.65
41.34
37.85
36.16
35.46
33.64
28.65
19.93
8.90
-1.86
-9.87
-13.91
-14.13
-11.43
-6.72
-0.57
6.63
14.23
21.31
26.93
30.54
32.12
31.93
30.18
26.91
22.17
16.31
10.08
4.33
-0.38
-3.89
-6.47
-8.40
-9.74
-10.28
-9.74
-7.97
-5.06
-1.16
3.65
9.08
14.55
18.93
20.81
19.06
13.46
4.86
-5.07
-14.44
-21.83
-26.46
-28.18
-27.20
-24.06
-19.65
-15.11
-11.47
-9.14
-7.82
-6.84
-6.03
-6.18
-8.82
-15.20
-25.16
-36.80
-46.92
-52.57
-52.43
-47.57
-40.95
-36.20
-36.15
-41.92
-52.58
-65.51
-77.17
-84.12
-84.28
-77.89
-67.69
-58.11
-53.53
-56.48
-66.49
-80.36
-93.54
-102.22
-104.52
-100.84
-92.92
-82.46
-70.24
-56.19
-40.32
-23.54
-7.97
3.80
10.05
10.92
8.69
7.07
10.03
20.34
38.65
62.98
88.96
110.89
123.54
123.91
112.60
93.78
73.85
59.07
53.27
56.67
66.34
78.06
88.44
96.04
101.19
104.69
106.47
105.20
99.02
86.94
69.82
50.46
32.40
18.43
9.35
4.01
0.20
-4.05
-9.51
-15.66
-21.16
-24.62
-25.20
-22.78
-17.94
-11.86
-6.18
-2.87
-3.81
-10.41
-23.14
-40.93
-60.90
-78.56
-88.65
-86.88
-71.64
-44.91
-11.97
20.21
45.21
59.15
61.45
54.38
41.59
26.55
11.80
-0.99
-10.52
-15.45
-14.73
-8.27
2.32
13.73
21.86
23.40
17.26
5.41
-7.83
-17.68
-20.92
-17.04
-7.90
3.81
16.14
28.60
41.44
54.13
64.51
69.26
65.62
53.26
35.18
16.62
2.76
-3.27
-1.27
6.71
17.74
29.17
39.14
46.46
50.47
50.99
48.36
43.25
36.15
27.14
15.96
2.44
-13.09
-29.84
-46.88
-63.52
-79.25
-93.51
-105.25
-112.95
-115.14
-111.25
-102.14
-90.14
-78.23
-69.06
-63.72
-61.39
-59.79
-56.40
-49.71
-39.92
-28.77
-18.46
-10.50
-5.12
-1.55
1.18
3.51
5.28
6.02
5.56
4.28
2.96
2.40
2.97
4.39
5.87
6.39
5.25
2.44
-1.33
-5.23
-8.89
-12.76
-17.68
-24.02
-30.71
-35.24
-34.67
-27.20
-13.49
3.31
18.86
29.47
33.60
32.17
27.72
22.93
19.39
17.19
15.41
12.94
9.21
4.47
-0.38
-4.15
-5.66
-3.98
1.29
9.78
20.21
30.58
38.76
43.05
42.78
38.39
31.06
22.19
12.96
4.14
-3.70
-10.01
-14.26
-16.01
-15.11
-11.78
-6.62
-0.44
5.89
11.66
16.49
20.49
24.02
27.43
30.73
33.44
34.78
33.98
30.70
25.21
18.33
11.16
4.77
-0.16
-3.42
-5.21
-5.85
-5.63
-4.66
-3.08
-1.11
0.82
2.13
2.31
1.10
-1.43
-4.92
-8.92
-13.06
-17.22
-21.47
-25.90
-30.44
-34.70
-38.08
-40.08
-40.48
-39.60
-38.02
-36.32
-34.64
-32.53
-29.22
-24.17
-17.63
-10.69
-5.15
-2.71
-4.48
-10.73
-21.02
-34.67
-50.94
-68.96
-87.51
-104.92
-119.09
-127.85
-129.47
-122.95
-108.36
-86.92
-60.98
-33.63
-8.20
12.64
27.62
37.10
42.74
46.61
50.22
54.03
57.69
60.82
63.74
67.58
73.65
82.58
93.74
105.44
115.58
122.68
126.27
126.60
123.81
117.45
106.69
91.25
72.39
53.05
36.92
26.81
23.14
23.74
24.93
23.53
18.26
10.20
1.87
-4.24
-6.97
-6.87
-5.81
-5.89
-8.52
-14.04
-21.65
-29.87
-37.08
-42.06
-44.25
-43.79
-41.32
-37.63
-33.42
-29.14
-25.21
-22.15
-20.45
-20.23
-20.78
-20.63
-18.12
-12.38
-3.84
5.69
13.87
18.93
20.36
18.86
15.65
11.60
6.93
1.54
-4.59
-10.91
-16.39
-20.04
-21.19
-19.72
-15.89
-10.22
-3.50
3.32
9.31
13.94
17.20
19.84
23.11
28.24
35.78
44.88
53.43
59.15
61.20
61.30
63.73
73.26
92.55
120.02
149.79
173.88
185.63
182.70
167.77
146.98
126.53
109.76
96.10
82.37
65.25
43.59
19.18
-4.28
-23.33
-36.63
-45.61
-53.29
-62.31
-73.23
-84.32
-92.76
-96.62
-96.05
-93.26
-91.05
-91.06
-92.75
-93.64
-90.89
-82.87
-70.41
-56.50
-45.15
-39.67
-41.62
-50.67
-65.13
-82.43
-99.43
-112.58
-117.98
-112.46
-94.75
-66.51
-32.26
1.97
30.50
49.55
57.68
55.48
44.86
28.68
10.70
-4.41
-11.80
-7.79
8.64
34.87
65.15
91.97
108.24
109.38
94.57
66.90
32.25
-2.56
-31.92
-52.74
-64.90
-70.34
-71.55
-70.34
-67.20
-61.68
-53.16
-41.62
-28.11
-14.52
-3.04
4.67
7.98
7.50
4.82
1.79
-0.28
-0.97
-0.73
-0.30
-0.09
0.05
0.78
2.79
6.46
11.73
18.11
25.09
32.21
39.10
45.31
50.22
52.99
52.92
49.70
43.70
35.85
27.46
19.91
14.23
10.89
9.63
9.44
8.94
6.80
2.28
-4.55
-12.73
-20.92
-27.90
-32.99
-36.11
-37.43
-37.07
-34.95
-30.94
-25.17
-18.17
-10.69
-3.43
3.26
9.25
14.54
19.01
22.35
24.22
24.26
22.33
18.47
13.06
6.85
0.85
-3.97
-7.07
-8.62
-9.46
-10.63
-12.88
-16.31
-20.47
-24.75
-28.73
-32.20
-34.91
-36.28
-35.58
-32.32
-26.81
-20.37
-14.96
-12.29
-13.01
-16.20
-19.84
-21.68
-20.30
-15.67
-9.04
-2.32
2.96
6.19
7.89
9.21
11.20
14.23
17.79
21.00
23.25
24.79
26.62
29.89
35.09
41.59
47.94
52.55
54.56
54.19
52.55
51.02
50.74
52.47
56.78
64.24
75.16
89.13
104.34
117.61
125.14
123.57
110.94
87.11
53.61
13.26
-30.29
-72.85
-109.84
-136.55
-148.81
-144.23
-123.65
-91.79
-56.27
-25.24
-4.55
4.13
3.28
-2.34
-8.11
-11.43
-12.10
-11.23
-9.99
-8.84
-7.52
-5.77
-3.78
-1.97
-0.64
0.04
-0.14
-1.61
-4.91
-10.11
-16.41
-22.35
-26.67
-28.98
-30.00
-30.92
-32.51
-34.86
-37.44
-39.74
-41.77
-43.95
-46.63
-49.59
-51.83
-51.83
-48.24
-40.52
-29.32
-16.30
-3.58
6.99
14.21
18.04
19.34
19.40
19.35
19.56
19.69
19.10
17.28
13.70
8.17
0.87
-7.92
-17.74
-27.98
-37.89
-46.65
-53.74
-59.70
-65.09
-70.22
-75.24
-80.61
-87.26
-96.03
-107.02
-119.06
-131.03
-141.01
-147.02
-148.15
-145.26
-140.53
-135.79
-131.16
-124.86
-115.59
-102.30
-84.99
-65.10
-45.21
-27.83
-13.94
-2.57
16.62
47.27
85.01
120.63
147.44
164.29
173.69
178.73
181.31
181.90
178.83
171.27
160.14
147.46
134.88
122.55
109.49
93.55
73.63
49.39
23.16
-0.40
-16.02
-20.03
-11.95
5.27
26.04
44.00
52.90
49.13
32.64
6.25
-24.83
-54.37
-76.93
-89.60
-92.66
-89.37
-83.69
-78.18
-72.98
-66.18
-55.32
-38.93
-17.30
7.75
33.54
57.57
77.96
93.51
103.47
107.12
103.81
93.37
76.65
55.52
32.77
11.24
-6.87
-20.49
-29.74
-35.32
-37.87
-37.50
-33.84
-26.53
-15.85
-2.94
10.43
22.45
31.93
38.64
43.10
46.17
48.53
50.42
51.68
52.01
51.15
49.07
45.91
41.93
37.39
32.54
27.50
22.34
17.09
11.75
6.35
0.92
-4.53
-10.04
-15.69
-21.63
-27.90
-34.55
-41.66
-49.32
-57.64
-66.54
-75.58
-83.76
-89.81
-92.40
-90.70
-84.68
-75.11
-63.34
-50.83
-38.72
-27.55
-17.43
-8.15
0.45
8.27
14.98
20.12
23.30
24.47
23.98
22.47
20.65
19.04
17.83
16.93
16.09
15.10
13.90
12.58
11.18
9.71
7.99
5.76
2.67
-1.51
-6.94
-13.63
-21.48
-30.25
-39.45
-48.25
-55.54
-60.02
-60.62
-56.85
-48.99
-38.12
-25.74
-13.35
-1.97
7.98
16.55
24.01
30.48
35.75
39.45
41.21
40.97
39.00
35.88
32.25
28.64
25.36
22.49
19.95
17.61
15.29
12.80
9.94
6.57
2.64
-1.76
-6.50
-11.48
-16.73
-22.43
-28.84
-36.24
-44.79
-54.33
-64.22
-73.34
-80.26
-83.55
-82.32
-76.39
-66.49
-53.92
-40.14
-26.41
-13.53
-1.92
8.32
17.16
24.63
30.72
35.46
38.79
40.74
41.35
40.79
39.42
37.61
35.81
34.33
33.35
32.87
32.72
32.64
32.25
31.24
29.39
26.68
23.27
19.42
15.42
11.39
7.24
2.61
-2.99
-9.99
-18.43
-27.80
-36.93
-44.22
-48.09
-47.45
-42.18
-33.04
-21.37
-8.62
4.18
16.47
28.07
38.91
48.84
57.50
64.55
69.80
73.26
75.12
75.60
74.85
72.97
70.11
66.43
62.30
58.12
54.23
50.83
47.87
45.02
41.82
37.82
32.78
26.78
20.34
14.06
8.47
3.67
-0.67
-5.19
-10.57
-17.25
-25.15
-33.72
-41.97
-48.65
-52.53
-52.66
-48.60
-40.62
-29.57
-16.72
-3.32
9.58
21.44
32.00
41.24
49.12
55.58
60.46
63.73
65.41
65.61
64.53
62.41
59.52
56.15
52.58
49.00
45.49
42.03
38.42
34.48
30.01
24.94
19.26
13.07
6.45
-0.55
-7.85
-15.35
-22.93
-30.48
-37.95
-45.49
-53.38
-61.93
-71.21
-80.82
-89.73
-96.56
-99.90
-98.86
-93.49
-84.67
-73.91
-62.69
-52.05
-42.45
-33.81
-25.98
-18.96
-12.99
-8.38
-5.25
-3.37
-2.27
-1.45
-0.58
0.45
1.62
2.91
4.49
6.52
9.06
11.97
14.77
16.81
17.55
16.67
14.29
10.85
7.01
3.40
0.34
-2.15
-4.44
-7.11
-10.71
-15.59
-21.73
-28.57
-35.12
-40.13
-42.42
-41.22
-36.35
-28.41
-18.42
-7.66
2.70
11.80
19.16
24.64
28.31
30.52
31.59
31.95
31.85
31.41
30.57
29.18
27.15
24.52
21.46
18.22
15.09
12.17
9.57
7.22
5.08
3.10
1.20
-0.66
-2.59
-4.66
-7.02
-9.68
-12.64
-15.87
-19.30
-22.98
-26.96
-31.17
-35.28
-38.57
-40.12
-39.11
-35.10
-28.29
-19.41
-9.46
0.67
10.34
19.25
27.24
34.19
39.90
44.33
47.53
49.79
51.45
52.82
53.99
54.94
55.46
55.37
54.53
52.95
50.87
48.69
46.90
45.80
45.40
45.33
44.91
43.45
40.52
36.13
30.69
24.81
18.91
12.99
6.56
-1.27
-11.27
-23.71
-37.89
-52.24
-64.63
-73.15
-76.75
-75.56
-70.87
-64.54
-58.54
-54.36
-52.80
-54.03
-57.75
-63.41
-70.25
-77.41
-83.91
-88.79
-91.22
-90.65
-87.01
-80.68
-72.49
-63.58
-55.11
-48.01
-42.71
-38.97
-35.98
-32.52
-27.41
-19.87
-9.81
2.09
14.74
26.95
37.81
46.75
53.54
58.02
59.96
59.19
55.80
50.48
44.56
39.78
37.73
39.34
44.47
52.01
60.37
68.02
74.06
78.26
80.99
82.73
83.75
83.99
83.13
80.89
77.31
72.80
67.94
63.32
59.18
55.37
51.43
46.74
40.83
33.55
25.17
16.33
7.79
0.21
-6.12
-11.27
-15.60
-19.48
-23.17
-26.67
-29.97
-33.21
-36.78
-41.18
-46.76
-53.40
-60.46
-67.01
-72.16
-75.47
-77.10
-77.64
-77.81
-78.17
-79.06
-80.63
-83.19
-87.20
-93.13
-101.02
-110.09
-118.56
-124.07
-124.54
-119.10
-108.79
-96.35
-85.18
-78.04
-76.00
-78.11
-81.93
-84.60
-83.86
-78.24
-66.96
-49.60
-26.38
1.28
30.29
56.17
74.37
82.02
79.20
68.96
56.02
44.66
37.17
33.69
33.00
33.71
34.89
36.09
36.96
37.37
37.12
36.22
35.09
34.36
34.37
34.84
34.85
33.47
31.09
28.69
27.42
28.11
30.97
35.61
41.16
46.64
51.31
55.81
60.56
65.41
70.02
74.57
80.12
88.18
99.89
115.11
133.30
151.89
166.78
174.26
172.83
163.79
150.55
137.12
118.58
94.14
67.01
42.19
23.02
9.68
0.52
-6.50
-13.20
-20.75
-27.91
-34.37
-40.80
-48.29
-58.03
-71.06
-88.16
-109.55
-134.63
-161.23
-183.01
-195.62
-196.96
-187.60
-170.46
-149.82
-129.91
-113.65
-101.48
-92.58
-86.27
-82.04
-79.40
-77.68
-75.99
-73.48
-69.82
-65.01
-59.64
-54.86
-51.25
-48.45
-45.19
-40.00
-31.91
-20.89
-7.69
6.44
19.98
31.74
41.11
47.91
52.24
54.40
54.76
53.82
52.11
49.93
47.43
44.61
41.40
37.71
33.60
29.24
24.92
21.00
17.65
14.88
12.41
9.87
6.88
3.26
-0.91
-5.33
-9.65
-13.67
-17.36
-20.95
-24.79
-29.19
-34.33
-40.02
-45.71
-50.47
-53.23
-53.04
-49.41
-42.42
-32.76
-21.41
-9.47
2.18
12.89
22.29
30.25
36.80
42.08
46.22
49.31
51.37
52.35
52.25
51.16
49.38
47.25
45.08
43.01
41.02
38.99
36.78
34.35
31.71
28.87
25.83
22.57
19.07
15.32
11.34
7.13
2.57
-2.56
-8.48
-15.26
-22.55
-29.56
-35.11
-37.92
-37.06
-32.32
-24.28
-14.06
-2.97
7.96
18.17
27.46
35.86
43.29
49.58
54.50
57.90
59.75
60.21
59.50
57.81
55.34
52.28
48.92
45.56
42.41
39.56
36.90
34.19
31.19
27.71
23.67
19.12
14.20
9.05
3.77
-1.57
-6.93
-12.35
-17.89
-23.71
-29.97
-36.77
-43.93
-50.89
-56.70
-60.29
-60.80
-57.86
-51.77
-43.29
-33.33
-22.59
-11.43
0.02
11.65
23.09
33.71
42.75
49.67
54.26
56.70
57.44
56.89
55.33
52.84
49.53
45.59
41.37
37.31
33.72
30.62
27.74
24.63
20.87
16.28
10.92
5.07
-1.02
-7.17
-13.31
-19.51
-25.73
-31.98
-38.21
-44.56
-51.22
-58.33
-65.75
-72.85
-78.62
-81.86
-81.63
-77.43
-69.31
-57.69
-43.20
-26.60
-8.86
8.75
24.81
37.98
47.50
53.33
56.08
56.70
56.03
54.60
52.58
50.04
47.08
43.95
40.92
38.16
35.71
33.49
31.42
29.36
27.23
24.83
21.96
18.37
13.98
8.86
3.29
-2.39
-7.85
-12.96
-17.81
-22.64
-27.81
-33.64
-40.25
-47.51
-54.88
-61.50
-66.27
-68.17
-66.46
-60.91
-51.90
-40.25
-27.08
-13.46
-0.29
11.81
22.41
31.29
38.26
43.25
46.30
47.62
47.59
46.63
45.14
43.33
41.25
38.79
35.90
32.67
29.41
26.49
24.17
22.46
21.00
19.25
16.67
12.95
8.18
2.76
-2.79
-8.04
-12.77
-17.06
-21.22
-25.62
-30.66
-36.53
-43.18
-50.11
-56.49
-61.24
-63.30
-61.98
-57.09
-49.03
-38.58
-26.72
-14.32
-2.10
9.43
19.88
28.93
36.33
41.91
45.63
47.59
48.07
47.38
45.86
43.79
41.34
38.66
35.92
33.30
30.97
28.99
27.33
25.77
23.99
21.64
18.56
14.78
10.54
6.25
2.34
-0.88
-3.41
-5.64
-8.23
-11.71
-16.36
-22.01
-27.95
-33.11
-36.24
-36.31
-32.91
-26.14
-16.44
-4.59
8.35
21.42
33.78
44.92
54.59
62.52
68.56
72.85
75.49
76.23
74.56
69.58
60.28
45.66
24.87
-2.00
-33.22
-65.84
-96.48
-122.12
-141.11
-152.57
-155.55
-151.38
-143.59
-135.24
-127.31
-119.41
-109.47
-96.05
-78.54
-57.29
-33.45
-10.02
10.03
24.17
31.13
31.55
27.71
22.68
18.89
17.06
16.51
16.26
15.68
14.63
13.36
11.78
9.47
5.79
0.33
-6.43
-13.01
-17.48
-18.36
-14.97
-7.57
2.92
15.06
26.96
36.48
41.75
41.63
36.20
26.98
16.51
7.59
2.20
0.81
2.32
4.83
6.50
6.32
4.51
2.15
0.64
0.94
3.11
6.41
9.58
11.47
11.49
9.76
7.07
4.46
2.78
2.39
3.15
4.62
6.45
8.50
10.84
13.46
16.16
18.56
20.31
21.38
22.02
22.56
23.06
23.21
22.46
20.40
17.21
13.68
10.90
9.73
10.33
11.96
13.34
13.14
10.54
5.57
-0.98
-7.76
-13.45
-17.07
-18.28
-17.41
-15.28
-12.83
-10.80
-9.58
-9.22
-9.61
-10.62
-12.15
-13.89
-15.31
-15.78
-14.93
-12.91
-10.43
-8.42
-7.51
-7.80
-8.85
-10.11
-11.17
-11.90
-12.31
-12.33
-11.90
-11.16
-10.57
-10.85
-12.50
-15.32
-18.20
-19.72
-18.82
-15.52
-10.99
-6.86
-4.37
-3.66
-3.77
-3.13
-0.39
5.04
12.76
21.67
30.45
37.97
43.56
47.02
48.62
48.81
48.05
46.69
44.96
43.15
41.77
41.58
43.28
47.16
52.98
60.10
67.98
76.47
85.81
96.06
106.45
115.20
119.79
118.06
109.03
93.54
73.84
52.63
32.21
13.70
-3.04
-19.04
-35.88
-55.42
-79.76
-110.78
-149.27
-193.62
-238.89
-277.30
-300.27
-301.51
-279.82
-239.91
-190.73
-142.14
-101.42
-71.45
-51.11
-37.35
-27.30
-19.37
-13.02
-7.79
-2.62
3.98
13.13
24.83
37.91
50.36
60.39
67.13
70.81
72.41
73.01
73.34
73.54
73.48
72.91
71.64
69.52
66.30
61.74
55.81
48.96
42.12
36.50
33.10
32.31
33.82
36.74
40.08
43.07
45.37
47.00
48.08
48.68
48.67
47.85
46.08
43.41
40.23
37.08
34.48
32.67
31.44
30.25
28.49
25.75
21.96
17.36
12.28
6.99
1.63
-3.69
-8.86
-13.68
-17.96
-21.64
-24.88
-28.10
-31.82
-36.46
-42.10
-48.33
-54.24
-58.60
-60.17
-58.19
-52.58
-44.09
-33.95
-23.53
-13.87
-5.49
1.53
7.35
12.13
15.89
18.52
19.91
20.08
19.19
17.54
15.49
13.33
11.25
9.30
7.46
5.66
3.80
1.82
-0.34
-2.64
-5.04
-7.46
-9.84
-12.19
-14.61
-17.29
-20.48
-24.35
-29.03
-34.46
-40.44
-46.53
-52.02
-55.99
-57.43
-55.61
-50.36
-42.23
-32.40
-22.26
-12.89
-4.78
2.15
8.32
13.95
19.01
23.20
26.27
28.21
29.27
29.81
30.04
29.90
29.13
27.60
25.41
22.98
20.73
18.86
17.16
15.09
12.14
8.07
3.07
-2.34
-7.63
-12.49
-16.93
-21.21
-25.64
-30.50
-35.91
-41.88
-48.25
-54.56
-59.96
-63.41
-63.89
-60.82
-54.33
-45.21
-34.71
-24.04
-14.09
-5.23
2.52
9.28
15.11
19.95
23.62
26.01
27.17
27.32
26.83
26.02
25.11
24.14
23.02
21.66
20.00
18.15
16.21
14.34
12.55
10.72
8.65
6.11
2.98
-0.76
-4.93
-9.35
-13.79
-18.15
-22.51
-27.11
-32.28
-38.24
-44.85
-51.39
-56.72
-59.49
-58.64
-53.77
-45.35
-34.50
-22.62
-10.96
-0.29
9.12
17.25
24.20
29.91
34.23
36.99
38.20
38.00
36.76
34.87
32.72
30.56
28.53
26.72
25.17
23.95
23.10
22.58
22.19
21.59
20.33
17.99
14.36
9.57
4.07
-1.45
-6.40
-10.46
-13.75
-16.76
-20.18
-24.61
-30.37
-37.30
-44.73
-51.59
-56.63
-58.69
-57.09
-51.82
-43.58
-33.51
-22.89
-12.72
-3.52
4.60
11.80
18.18
23.72
28.13
31.04
32.06
30.98
27.95
23.50
18.54
14.15
11.17
9.90
9.90
10.21
9.91
8.63
6.78
5.36
5.28
6.78
9.25
11.56
12.67
12.09
9.78
5.64
-0.96
-11.18
-26.21
-46.42
-70.94
-97.72
-124.22
-148.07
-167.33
-180.51
-186.47
-184.54
-174.97
-159.26
-139.94
-119.67
-100.25
-82.01
-64.13
-45.63
-26.44
-7.77
8.30
19.84
26.03
27.62
26.66
25.74
27.11
32.01
40.37
50.94
61.78
71.04
77.65
81.70
84.47
87.95
94.10
104.09
117.86
133.97
149.94
163.03
171.07
173.25
170.50
165.04
159.56
155.90
154.12
152.42
147.62
136.25
115.58
84.47
43.87
-2.99
-50.92
-93.75
-125.94
-144.21
-148.58
-142.17
-129.81
-116.05
-103.58
-92.89
-83.18
-73.65
-64.34
-55.99
-49.26
-44.01
-39.34
-34.30
-28.83
-23.96
-21.26
-21.88
-25.57
-30.54
-34.22
-34.37
-30.13
-22.38
-13.32
-5.54
-0.99
-0.29
-2.78
-6.96
-11.24
-14.63
-17.05
-19.16
-22.00
-26.40
-32.54
-39.85
-47.04
-52.56
-55.05
-53.76
-48.67
-40.45
-30.11
-18.68
-6.94
4.60
15.64
25.90
35.01
42.56
48.23
51.88
53.76
54.30
54.09
53.61
53.11
52.58
51.81
50.58
48.71
46.18
43.09
39.63
36.03
32.40
28.76
24.88
20.41
14.86
7.89
-0.60
-10.24
-20.18
-29.27
-36.30
-40.47
-41.49
-39.74
-35.78
-30.07
-22.50
-12.37
1.31
19.24
41.34
66.49
92.60
117.09
137.37
151.39
158.04
157.41
150.90
140.90
130.15
120.65
112.81
105.20
95.10
80.04
59.26
34.54
9.67
-10.94
-23.98
-28.11
-23.98
-13.43
1.44
18.58
36.29
53.17
68.50
82.48
96.03
109.89
123.39
133.72
136.29
126.47
101.76
63.33
15.85
-34.12
-80.68
-120.48
-153.33
-181.19
-206.22
-228.95
-247.58
-258.85
-259.71
-249.07
-228.56
-201.89
-173.37
-146.37
-122.41
-101.48
-82.88
-66.16
-51.39
-38.99
-29.02
-20.83
-13.01
-4.04
7.11
20.45
34.92
48.70
59.92
67.32
70.53
70.10
67.04
62.44
57.00
50.94
44.08
36.13
26.98
16.80
6.11
-4.45
-14.25
-22.84
-29.92
-35.23
-38.50
-39.41
-37.81
-33.93
-28.42
-22.27
-16.53
-11.98
-8.94
-7.31
-6.66
-6.48
-6.28
-5.71
-4.58
-2.94
-1.08
0.52
1.41
1.40
0.67
-0.22
-0.51
0.42
2.79
6.30
10.26
13.79
16.19
17.07
16.43
14.57
11.95
9.01
6.13
3.47
0.95
-1.73
-5.05
-9.45
-15.09
-21.57
-27.94
-32.83
-34.80
-32.76
-26.23
-15.51
-1.63
14.00
29.79
44.41
56.93
67.02
74.70
80.27
84.01
86.11
86.73
86.03
84.28
81.75
78.68
75.10
71.00
66.33
61.23
56.00
50.96
46.41
42.37
38.59
34.70
30.32
25.29
19.68
13.74
7.80
2.15
-3.08
-7.90
-12.51
-17.26
-22.53
-28.58
-35.35
-42.30
-48.42
-52.48
-53.34
-50.40
-43.82
-34.41
-23.43
-12.06
-1.12
9.05
18.45
27.14
35.05
41.89
47.25
50.80
52.48
52.53
51.43
49.77
48.02
46.48
45.25
44.41
44.06
44.28
45.02
45.97
46.56
46.13
44.15
40.44
35.18
28.78
21.68
14.23
6.58
-1.18
-8.97
-16.65
-24.16
-31.54
-39.00
-46.64
-54.32
-61.45
-67.00
-69.82
-69.03
-64.36
-56.26
-45.75
-34.06
-22.28
-11.14
-1.01
7.94
15.57
21.72
26.22
29.02
30.24
30.19
29.29
27.93
26.31
24.54
22.58
20.44
18.26
16.26
14.67
13.57
12.81
12.02
10.83
8.96
6.32
3.07
-0.60
-4.43
-8.28
-12.07
-15.86
-19.74
-23.93
-28.56
-33.62
-38.80
-43.49
-46.88
-48.08
-46.49
-41.87
-34.48
-24.99
-14.30
-3.36
7.08
16.48
24.58
31.20
36.28
39.74
41.63
42.13
41.64
40.60
39.39
38.09
36.46
34.08
30.58
25.81
20.00
13.57
7.03
0.68
-5.42
-11.46
-17.68
-24.22
-30.97
-37.60
-43.68
-48.87
-53.14
-56.76
-60.19
-63.88
-68.12
-72.87
-77.77
-82.20
-85.41
-86.63
-85.24
-80.87
-73.55
-63.64
-51.83
-38.98
-26.01
-13.78
-2.97
5.97
12.92
18.10
22.01
25.17
27.95
30.40
32.22
32.96
32.31
30.30
27.38
24.36
22.08
21.17
21.85
23.78
26.27
28.41
29.40
28.80
26.71
23.99
22.01
22.47
26.82
35.76
48.85
64.39
79.86
92.63
100.80
103.77
102.42
98.67
94.83
92.81
93.72
97.87
105.01
114.77
126.71
140.19
154.06
166.56
175.68
179.80
178.34
172.01
162.51
151.88
141.66
132.51
124.16
115.77
106.43
95.44
82.47
67.49
50.70
32.41
13.07
-6.85
-26.88
-46.56
-65.44
-82.98
-98.67
-112.01
-122.74
-130.93
-137.04
-141.76
-145.72
-149.21
-151.97
-153.30
-152.32
-148.47
-141.75
-132.76
-122.48
-111.88
-101.63
-92.02
-83.04
-74.53
-66.40
-58.68
-51.53
-45.16
-39.73
-35.34
-31.93
-29.36
-27.42
-25.93
-24.74
-23.76
-22.91
-22.15
-21.50
-21.02
-20.94
-21.49
-22.81
-24.82
-27.14
-29.28
-30.75
-31.35
-31.22
-30.87
-31.01
-32.42
-35.56
-40.40
-46.28
-52.04
-56.31
-57.91
-56.29
-51.60
-44.69
-36.69
-28.59
-21.02
-14.18
-8.05
-2.54
2.28
6.28
9.29
11.21
12.13
12.22
11.68
10.66
9.28
7.60
5.82
4.16
2.87
2.03
1.44
0.68
-0.78
-3.33
-7.00
-11.44
-15.99
-20.00
-23.09
-25.34
-27.24
-29.50
-32.72
-37.21
-42.79
-48.92
-54.77
-59.36
-61.75
-61.24
-57.56
-50.98
-42.28
-32.65
-23.30
-15.15
-8.59
-3.52
0.44
3.65
6.30
8.33
9.63
10.17
10.08
9.62
9.04
8.54
8.19
7.95
7.69
7.24
6.40
4.97
2.87
0.19
-2.75
-5.55
-7.78
-9.22
-9.91
-10.20
-10.64
-11.86
-14.50
-18.96
-25.19
-32.52
-39.68
-45.01
-47.00
-44.87
-38.85
-30.18
-20.57
-11.53
-3.97
2.02
6.79
10.74
13.96
16.27
17.41
17.28
16.10
14.33
12.51
11.00
9.97
9.33
8.87
8.35
7.59
6.56
5.32
4.04
2.79
1.53
0.02
-2.02
-4.84
-8.45
-12.70
-17.41
-22.52
-28.10
-34.09
-40.10
-45.27
-48.34
-48.19
-44.24
-36.76
-26.81
-15.79
-4.98
4.86
13.50
21.01
27.53
33.02
37.26
40.05
41.28
41.09
39.82
37.89
35.68
33.44
31.23
28.95
26.45
23.62
20.49
17.20
13.96
10.89
7.94
4.93
1.64
-2.11
-6.34
-11.04
-16.31
-22.34
-29.34
-37.27
-45.58
-53.20
-58.65
-60.62
-58.29
-51.74
-41.88
-30.17
-18.16
-7.08
2.44
10.39
17.18
23.32
29.08
34.32
38.51
40.91
41.01
38.66
34.31
28.80
23.10
17.89
13.42
9.31
4.76
-1.33
-10.10
-22.44
-38.67
-58.13
-78.85
-97.70
-111.13
-116.35
-112.39
-100.77
-84.90
-68.94
-56.17
-47.95
-43.57
-40.95
-37.84
-32.66
-24.94
-15.01
-3.55
8.89
21.92
35.20
48.28
60.44
70.85
78.74
83.74
85.95
85.96
84.62
82.71
80.74
78.80
76.71
74.17
71.03
67.38
63.51
59.71
56.02
52.23
47.88
42.61
36.38
29.56
22.79
16.58
11.05
5.69
-0.44
-8.39
-18.82
-31.61
-45.74
-59.44
-70.65
-77.57
-79.20
-75.50
-67.41
-56.42
-44.17
-32.02
-20.82
-11.01
-2.59
4.57
10.78
16.30
21.36
26.00
30.14
33.61
36.20
37.84
38.46
38.09
36.68
34.15
30.47
25.78
20.42
14.90
9.71
5.16
1.21
-2.47
-6.43
-11.26
-17.43
-25.13
-34.26
-44.50
-55.56
-67.22
-79.37
-91.83
-104.07
-115.08
-123.38
-127.37
-125.65
-117.47
-102.82
-82.52
-58.06
-31.41
-4.97
18.67
37.03
48.30
51.88
48.77
41.49
33.50
28.20
27.91
33.21
42.92
54.71
66.04
75.00
80.65
82.87
81.94
78.21
71.97
63.65
53.94
43.73
33.87
24.78
16.29
7.78
-1.54
-12.18
-24.10
-36.61
-48.53
-58.41
-64.87
-66.98
-64.48
-57.83
-48.09
-36.57
-24.39
-12.22
-0.23
11.72
23.70
35.49
46.45
55.75
62.60
66.61
67.89
66.98
64.65
61.63
58.46
55.40
52.54
49.83
47.18
44.41
41.29
37.53
32.89
27.27
20.78
13.74
6.54
-0.47
-7.17
-13.76
-20.66
-28.45
-37.50
-47.73
-58.37
-68.01
-74.91
-77.51
-74.93
-67.27
-55.56
-41.28
-25.93
-10.65
3.96
17.67
30.38
41.88
51.87
59.91
65.71
69.17
70.47
70.06
68.50
66.29
63.77
61.06
58.17
55.10
51.94
48.80
45.79
42.79
39.46
35.39
30.22
23.94
16.87
9.51
2.45
-3.96
-9.67
-14.96
-20.39
-26.68
-34.40
-43.75
-54.19
-64.43
-72.57
-76.68
-75.35
-68.24
-56.16
-40.77
-23.98
-7.39
8.09
22.11
34.65
45.63
54.74
61.49
65.51
66.78
65.75
63.23
60.10
57.00
54.14
51.35
48.32
44.77
40.73
36.43
32.23
28.40
24.96
21.66
18.02
13.62
8.19
1.81
-5.14
-12.15
-18.81
-25.02
-31.01
-37.25
-44.23
-52.33
-61.59
-71.68
-81.84
-90.93
-97.58
-100.42
-98.53
-91.64
-80.35
-65.95
-50.03
-34.06
-19.14
-5.89
5.47
14.87
22.29
27.73
31.19
32.65
32.13
29.72
25.71
20.76
15.85
12.19
10.92
12.68
17.47
24.60
32.91
41.16
48.29
53.56
56.65
57.57
56.60
54.22
50.95
47.30
43.56
39.94
36.42
32.92
29.25
25.03
19.84
13.34
5.59
-2.68
-10.13
-15.22
-16.88
-15.00
-10.75
-6.23
-3.90
-5.91
-13.72
-27.75
-47.19
-69.67
-91.36
-107.65
-114.60
-110.76
-98.23
-82.57
-71.11
-70.53
-84.24
-111.03
-145.09
-177.73
-200.07
-205.74
-192.89
-164.49
-127.20
-88.97
-56.48
-33.38
-19.97
-14.22
-13.41
-15.36
-18.93
-23.55
-28.69
-33.60
-37.50
-39.79
-40.29
-38.95
-35.57
-29.62
-20.33
-7.21
9.53
28.76
48.70
67.37
83.15
95.12
103.16
107.80
110.03
111.00
111.77
112.88
114.16
114.78
113.76
110.56
105.67
100.62
97.41
97.58
101.42
107.65
113.88
117.58
116.97
111.72
102.82
92.12
81.53
72.36
64.89
58.36
51.27
41.88
28.90
12.12
-7.05
-25.56
-39.14
-43.37
-34.97
-13.04
20.34
60.45
101.14
136.74
163.49
180.28
188.10
188.98
184.76
176.47
164.57
149.46
131.99
113.48
95.26
78.10
61.90
45.90
29.31
11.99
-5.35
-21.27
-34.33
-43.70
-49.66
-53.52
-57.07
-61.75
-67.94
-74.86
-81.09
-85.31
-87.13
-87.22
-87.05
-88.04
-90.96
-95.51
-100.44
-104.04
-104.76
-101.64
-94.54
-84.07
-71.33
-57.54
-43.69
-30.44
-18.14
-6.96
2.89
11.14
17.53
21.95
24.60
25.90
26.36
26.37
26.12
25.59
24.66
23.24
21.32
19.00
16.39
13.53
10.40
6.90
2.92
-1.59
-6.55
-11.79
-17.05
-22.15
-27.08
-32.09
-37.65
-44.25
-52.13
-61.00
-69.99
-77.74
-82.76
-83.86
-80.53
-73.11
-62.65
-50.66
-38.56
-27.42
-17.77
-9.65
-2.87
2.82
7.55
11.29
13.99
15.60
16.18
15.86
14.84
13.38
11.74
10.16
8.78
7.60
6.40
4.88
2.77
-0.03
-3.38
-7.00
-10.64
-14.18
-17.70
-21.39
-25.49
-30.18
-35.58
-41.79
-48.77
-56.25
-63.51
-69.40
-72.57
-71.91
-66.93
-58.03
-46.37
-33.44
-20.59
-8.70
1.95
11.43
19.91
27.39
33.63
38.36
41.32
42.58
42.43
41.37
39.85
38.19
36.43
34.49
32.24
29.70
26.98
24.23
21.48
18.56
15.20
11.18
6.47
1.33
-3.90
-8.93
-13.74
-18.57
-23.94
-30.29
-37.77
-46.06
-54.32
-61.30
-65.66
-66.38
-63.04
-56.03
-46.39
-35.47
-24.51
-14.29
-5.07
3.24
10.75
17.45
23.11
27.43
30.19
31.38
31.24
30.10
28.35
26.27
24.07
21.88
19.77
17.82
15.95
14.10
12.11
9.80
7.04
3.78
0.04
-4.09
-8.49
-13.05
-17.68
-22.33
-27.01
-31.76
-36.77
-42.32
-48.69
-56.00
-63.92
-71.56
-77.54
-80.39
-79.05
-73.32
-63.93
-52.32
-40.07
-28.49
-18.32
-9.85
-3.26
1.25
3.50
3.77
3.08
3.10
5.60
11.73
21.41
33.30
45.36
55.68
63.23
67.95
70.56
71.99
72.87
73.38
73.27
71.92
68.45
61.89
51.42
36.75
18.18
-3.49
-27.17
-51.71
-75.73
-97.80
-116.62
-131.56
-143.09
-152.76
-162.43
-172.92
-183.07
-189.83
-189.79
-181.06
-164.53
-143.48
-121.90
-102.54
-85.87
-70.71
-55.66
-40.42
-26.11
-14.43
-6.38
-1.54
1.67
5.10
9.76
15.43
21.01
25.45
28.41
30.43
32.66
36.05
40.78
45.92
49.86
50.98
48.46
42.63
34.99
27.57
22.06
19.26
18.74
19.25
19.47
18.56
16.63
14.47
13.17
13.45
15.46
18.90
23.42
29.12
36.57
46.67
60.33
78.19
100.41
126.58
155.54
185.31
213.23
236.41
252.38
259.75
258.53
249.96
236.13
219.18
200.91
182.59
164.97
148.56
133.74
120.79
109.84
100.70
92.79
85.25
77.23
68.27
58.50
48.56
39.19
30.74
22.93
14.86
5.49
-5.82
-19.05
-33.43
-47.71
-60.42
-70.25
-76.28
-78.16
-76.21
-71.32
-64.65
-57.26
-49.82
-42.51
-35.31
-28.26
-21.72
-16.33
-12.68
-11.06
-11.28
-12.77
-14.93
-17.40
-20.04
-22.93
-26.04
-29.14
-31.89
-33.95
-35.29
-36.16
-37.08
-38.57
-40.95
-44.21
-48.12
-52.33
-56.55
-60.74
-64.97
-69.40
-74.22
-79.60
-85.71
-92.68
-100.44
-108.49
-115.81
-120.95
-122.50
-119.56
-112.13
-101.07
-87.81
-73.88
-60.46
-48.27
-37.68
-28.83
-21.83
-16.72
-13.45
-11.83
-11.62
-12.60
-14.74
-18.10
-22.81
-28.81
-35.63
-42.29
-47.19
-48.50
-44.65
-34.98
-20.14
-2.17
16.07
31.71
42.64
48.02
48.33
44.89
39.40
33.38
27.92
23.51
20.12
17.26
14.22
10.41
5.73
0.71
-3.58
-5.79
-4.87
-0.28
7.72
18.27
30.13
41.99
52.76
61.69
68.43
72.92
75.34
75.94
75.03
72.87
69.70
65.76
61.28
56.42
51.29
45.95
40.47
34.99
29.73
24.94
20.72
16.98
13.33
9.29
4.46
-1.34
-7.91
-14.83
-21.58
-27.83
-33.54
-39.04
-44.87
-51.54
-59.24
-67.63
-75.78
-82.29
-85.64
-84.73
-79.28
-70.00
-58.39
-46.20
-34.82
-24.90
-16.43
-9.07
-2.66
2.52
5.80
6.47
4.04
-1.47
-9.50
-18.98
-28.29
-35.40
-38.17
-34.89
-24.97
-9.28
9.86
29.40
46.32
58.50
64.97
66.01
62.67
56.37
48.56
40.46
32.96
26.47
20.99
16.03
10.91
4.93
-2.20
-10.16
-17.98
-24.19
-27.39
-26.66
-21.97
-14.14
-4.52
5.48
14.91
23.36
30.81
37.35
42.97
47.42
50.43
51.77
51.50
49.88
47.28
44.14
40.74
37.28
33.75
30.16
26.47
22.73
18.97
15.22
11.42
7.40
3.00
-1.92
-7.35
-13.11
-18.93
-24.55
-29.97
-35.43
-41.37
-48.21
-56.03
-64.39
-72.28
-78.32
-81.11
-79.64
-73.58
-63.42
-50.34
-35.89
-21.57
-8.51
2.75
12.22
20.19
26.93
32.41
36.37
38.40
38.24
35.83
31.31
24.92
17.07
8.58
0.85
-4.32
-5.16
-0.78
8.34
20.28
32.29
41.75
47.04
47.78
44.64
38.66
30.78
21.61
11.46
0.63
-10.56
-21.71
-32.49
-42.54
-51.39
-58.31
-62.43
-62.90
-59.31
-51.88
-41.49
-29.38
-16.78
-4.62
6.54
16.43
24.86
31.66
36.64
39.77
41.21
41.28
40.43
39.06
37.44
35.76
34.10
32.40
30.63
28.70
26.63
24.61
22.89
21.72
21.01
20.30
18.83
15.78
10.79
4.22
-2.90
-9.24
-13.80
-16.42
-17.94
-19.81
-23.41
-29.28
-36.67
-43.72
-47.92
-47.07
-39.95
-26.71
-8.78
11.29
30.19
44.25
50.21
46.10
32.39
12.33
-8.48
-23.88
-29.44
-24.27
-11.35
3.86
15.78
20.95
18.92
11.78
2.67
-5.68
-11.62
-14.52
-14.34
-11.48
-6.81
-1.92
1.07
-0.14
-7.06
-19.91
-37.46
-57.42
-77.18
-94.46
-107.81
-116.64
-121.05
-121.49
-118.32
-111.58
-100.92
-85.79
-65.91
-41.78
-14.78
13.14
40.11
65.08
87.97
109.38
129.71
148.51
164.32
175.15
179.34
176.31
166.79
152.46
135.29
116.99
98.81
81.69
66.34
53.40
43.23
35.66
29.90
24.75
19.00
11.87
3.31
-5.98
-14.81
-22.00
-26.78
-29.15
-29.82
-30.05
-31.29
-34.73
-40.92
-49.52
-59.28
-68.31
-74.53
-76.37
-73.17
-65.43
-54.47
-41.95
-29.26
-17.26
-6.24
3.66
12.24
19.12
23.94
26.67
27.69
27.67
27.24
26.75
26.07
24.91
23.01
20.47
17.71
15.21
13.26
11.79
10.35
8.36
5.36
1.21
-3.85
-9.38
-14.92
-20.21
-25.25
-30.32
-35.85
-42.25
-49.76
-58.30
-67.34
-75.94
-82.79
-86.55
-86.20
-81.37
-72.50
-60.65
-47.13
-33.13
-19.38
-6.21
6.26
17.82
28.08
36.47
42.56
46.22
47.74
47.71
46.81
45.49
43.98
42.25
40.24
37.99
35.67
33.51
31.64
29.92
27.92
25.14
21.12
15.77
9.40
2.61
-3.91
-9.66
-14.52
-18.77
-22.97
-27.75
-33.59
-40.79
-49.31
-58.70
-68.07
-76.18
-81.59
-83.14
-80.25
-73.17
-62.96
-51.08
-38.99
-27.78
-18.00
-9.76
-2.94
2.71
7.34
11.19
14.50
17.49
20.23
22.65
24.51
25.64
26.06
26.02
25.96
26.14
26.57
26.88
26.53
25.07
22.17
17.83
12.20
5.58
-1.74
-9.38
-16.97
-24.24
-31.13
-37.83
-44.71
-52.08
-59.92
-67.72
-74.49
-79.01
-80.21
-77.48
-70.95
-61.38
-50.06
-38.39
-27.64
-18.66
-11.86
-7.20
-4.19
-2.00
0.58
4.98
12.40
23.47
37.80
54.07
70.29
84.60
95.69
103.14
107.11
107.98
106.08
101.54
94.55
85.54
75.21
64.37
53.67
43.48
33.83
24.57
15.53
6.58
-2.36
-11.27
-20.06
-28.48
-36.06
-42.10
-45.85
-46.62
-44.04
-38.22
-29.75
-19.58
-8.77
1.83
11.65
20.44
28.06
34.43
39.42
42.96
45.08
45.92
45.70
44.53
42.49
39.58
35.96
31.96
28.08
24.82
22.49
21.03
19.96
18.60
16.26
12.52
7.40
1.35
-4.94
-10.77
-15.71
-19.74
-23.24
-26.83
-31.19
-36.82
-43.85
-51.94
-60.26
-67.55
-72.35
-73.43
-70.09
-62.56
-51.78
-39.24
-26.37
-14.26
-3.39
6.11
14.25
21.01
26.28
30.00
32.30
33.48
33.85
33.71
33.14
32.13
30.58
28.52
26.10
23.61
21.37
19.59
18.25
17.06
15.49
12.98
9.15
4.05
-1.91
-8.05
-13.73
-18.62
-22.85
-26.88
-31.35
-36.74
-43.25
-50.66
-58.35
-65.39
-70.58
-72.81
-71.23
-65.57
-56.32
-44.51
-31.47
-18.37
-6.03
5.21
15.29
24.19
31.74
37.65
41.68
43.80
44.36
43.88
42.97
41.98
41.00
39.91
38.56
36.94
35.22
33.68
32.53
31.81
31.29
30.54
29.08
26.54
22.79
17.97
12.41
6.53
0.66
-5.03
-10.61
-16.29
-22.37
-29.18
-36.89
-45.32
-53.88
-61.44
-66.62
-68.16
-65.36
-58.44
-48.39
-36.73
-24.85
-13.78
-3.85
4.91
12.67
19.41
24.96
29.04
31.53
32.55
32.46
31.79
31.01
30.44
30.17
30.09
30.01
29.78
29.33
28.66
27.76
26.52
24.71
22.10
18.60
14.39
10.07
6.55
4.91
6.07
10.49
17.91
27.25
36.68
43.96
46.95
44.22
35.67
22.72
7.91
-5.85
-16.32
-22.74
-26.03
-28.14
-31.02
-35.77
-42.31
-49.93
-57.76
-65.25
-72.11
-77.97
-82.24
-84.32
-84.15
-82.50
-80.93
-80.85
-82.58
-84.98
-86.17
-84.90
-81.59
-78.06
-76.26
-76.50
-76.88
-74.24
-66.28
-53.27
-38.27
-25.55
-18.10
-16.04
-16.71
-16.68
-13.95
-9.23
-5.34
-5.46
-11.14
-21.46
-33.27
-42.31
-44.43
-36.53
-17.16
13.24
52.20
95.59
138.44
176.07
205.26
224.73
234.97
237.49
233.96
225.72
213.62
198.40
180.93
162.31
143.64
125.67
108.61
92.21
76.07
60.03
44.42
29.93
17.33
7.01
-1.26
-8.31
-15.24
-22.93
-31.68
-41.15
-50.61
-59.36
-67.07
-73.94
-80.61
-87.80
-95.84
-104.36
-112.19
-117.68
-119.15
-115.56
-106.89
-94.15
-79.06
-63.46
-48.76
-35.69
-24.31
-14.29
-5.28
2.89
10.11
16.09
20.60
23.60
25.30
26.10
26.42
26.56
26.65
26.71
26.75
26.88
27.24
27.87
28.59
28.89
28.11
25.69
21.44
15.64
8.94
2.04
-4.54
-10.63
-16.37
-22.12
-28.29
-35.22
-43.13
-51.93
-61.11
-69.70
-76.38
-79.84
-79.22
-74.44
-66.28
-56.06
-45.15
-34.58
-24.78
-15.75
-7.30
0.57
7.56
13.19
17.03
18.94
19.15
18.12
16.40
14.35
12.18
9.93
7.67
5.53
3.76
2.55
1.93
1.72
1.48
0.70
-1.08
-4.07
-8.20
-13.14
-18.57
-24.23
-30.14
-36.34
-42.74
-49.03
-54.58
-58.83
-61.38
-62.10
-60.97
-57.72
-51.80
-42.65
-30.16
-15.02
1.29
16.95
30.62
41.82
50.95
58.74
65.72
71.73
76.09
78.13
77.62
75.09
71.51
67.87
64.68
61.84
58.89
55.35
51.13
46.54
42.08
38.12
34.66
31.35
27.77
23.71
19.13
14.12
8.63
2.38
-5.01
-13.77
-23.75
-34.53
-45.73
-57.48
-70.56
-86.16
-105.28
-127.99
-153.03
-177.89
-199.21
-213.69
-218.72
-213.09
-197.33
-173.70
-145.75
-117.46
-92.35
-72.60
-58.67
-49.53
-43.18
-37.50
-30.76
-22.03
-11.18
1.14
13.61
24.31
31.26
33.00
29.25
21.20
11.31
2.49
-2.89
-3.81
-0.77
4.60
10.34
14.85
17.34
17.76
16.37
13.44
9.08
3.19
-4.22
-13.01
-22.63
-32.27
-40.92
-47.56
-51.30
-51.34
-47.15
-38.64
-26.35
-11.63
3.50
16.69
25.93
30.03
29.01
23.91
16.57
9.27
4.34
3.85
9.01
19.49
33.06
46.13
55.07
57.81
54.77
48.66
43.06
40.77
43.00
49.29
58.25
68.08
76.58
81.00
78.23
65.88
43.66
14.49
-15.95
-40.97
-55.16
-56.22
-45.18
-25.41
-0.89
25.06
50.29
73.63
94.33
111.88
126.05
137.14
145.85
153.03
159.19
164.16
167.01
166.47
161.56
152.00
138.51
122.57
106.10
90.90
78.19
68.29
60.45
53.28
45.20
35.29
23.67
11.48
0.47
-7.80
-12.60
-14.20
-13.69
-12.33
-11.03
-10.04
-9.12
-8.01
-6.91
-6.67
-8.57
-13.60
-21.77
-31.72
-40.95
-46.59
-46.37
-39.30
-25.89
-7.72
13.13
34.74
55.70
75.24
93.15
109.62
125.06
139.94
154.55
169.01
183.10
196.37
207.98
216.85
221.70
221.31
214.86
202.27
184.29
162.46
138.67
114.80
92.23
71.60
52.81
35.24
18.04
0.52
-17.61
-36.20
-54.72
-72.56
-89.17
-104.27
-117.84
-130.11
-141.46
-152.20
-162.41
-171.74
-179.29
-183.80
-183.98
-178.97
-168.73
-154.03
-136.34
-117.24
-98.13
-79.87
-62.88
-47.25
-32.95
-19.90
-8.02
2.91
13.05
22.28
29.96
34.82
35.34
30.45
20.26
6.43
-8.24
-20.65
-28.47
-30.75
-27.88
-21.10
-11.79
-1.14
9.79
19.85
27.60
31.58
30.76
24.99
14.99
2.19
-11.90
-26.19
-40.32
-54.50
-69.18
-84.48
-99.79
-113.78
-124.57
-130.36
-129.98
-123.12
-110.43
-93.19
-73.00
-51.44
-29.91
-9.51
8.88
24.67
37.54
47.42
54.44
58.89
61.17
61.65
60.67
58.55
55.51
51.86
47.94
44.13
40.70
37.75
35.09
32.35
29.11
25.08
20.25
14.77
8.94
3.03
-2.70
-8.02
-12.77
-16.93
-20.71
-24.59
-29.21
-35.09
-42.29
-50.17
-57.40
-62.31
-63.44
-60.00
-52.19
-41.07
-28.13
-14.78
-1.92
10.14
21.41
31.95
41.60
50.02
56.84
61.96
65.53
67.83
69.06
69.28
68.50
66.87
64.90
63.34
62.94
64.00
66.16
68.48
69.73
68.88
65.46
59.66
52.21
44.17
36.50
29.76
23.92
18.36
12.08
4.05
-6.29
-18.70
-32.11
-44.93
-55.52
-62.74
-66.16
-65.98
-62.82
-57.25
-49.83
-41.07
-31.78
-23.10
-16.35
-12.57
-12.10
-14.41
-18.35
-22.69
-26.74
-30.58
-34.91
-40.54
-47.98
-57.19
-67.79
-79.14
-90.45
-100.51
-107.72
-110.32
-107.06
-98.03
-84.96
-70.91
-59.15
-52.03
-50.19
-52.69
-57.72
-63.60
-69.35
-74.57
-78.95
-81.71
-81.58
-77.26
-68.01
-54.18
-37.15
-18.92
-1.39
14.25
27.74
39.50
50.19
60.22
69.52
77.54
83.57
86.99
87.64
85.89
82.46
78.20
73.75
69.32
64.77
59.78
54.13
47.86
41.21
34.41
27.62
20.85
14.07
7.38
1.05
-4.53
-9.08
-12.45
-14.78
-16.38
-17.71
-19.33
-21.83
-25.63
-30.68
-36.30
-41.17
-43.69
-42.52
-37.19
-28.28
-17.26
-5.91
4.20
12.17
17.83
21.44
23.50
24.43
24.57
24.20
23.58
22.95
22.46
22.10
21.64
20.75
19.21
17.01
14.50
12.22
10.67
9.99
9.86
9.53
8.23
5.40
1.01
-4.49
-10.40
-16.04
-21.01
-25.28
-29.11
-32.93
-37.20
-42.34
-48.56
-55.78
-63.42
-70.43
-75.43
-77.20
-75.07
-69.30
-60.93
-51.37
-41.86
-33.02
-24.83
-16.98
-9.27
-1.96
4.39
9.18
12.28
14.01
15.09
16.07
17.14
18.03
18.32
17.80
16.72
15.68
15.33
15.93
17.20
18.39
18.65
17.43
14.64
10.66
6.06
1.32
-3.34
-8.05
-13.05
-18.62
-24.91
-31.92
-39.56
-47.55
-55.36
-62.10
-66.65
-67.93
-65.33
-59.10
-50.23
-40.16
-30.14
-20.87
-12.42
-4.49
3.19
10.58
17.26
22.69
26.47
28.55
29.22
29.01
28.51
28.16
28.23
28.72
29.42
30.04
30.33
30.20
29.60
28.47
26.68
23.99
20.20
15.33
9.66
3.74
-1.85
-6.76
-10.93
-14.63
-18.21
-21.93
-25.90
-30.09
-34.41
-38.67
-42.53
-45.31
-46.15
-44.17
-38.91
-30.59
-20.12
-8.81
2.03
11.56
19.48
25.93
31.27
35.77
39.56
42.65
44.98
46.53
47.23
47.06
45.89
43.67
40.43
36.36
31.78
27.04
22.36
17.64
12.45
6.05
-2.25
-12.68
-24.44
-35.57
-43.13
-44.06
-36.38
-20.21
1.93
25.74
46.53
60.73
66.77
65.14
57.64
46.42
33.32
19.76
6.99
-3.74
-11.13
-14.26
-12.75
-6.93
2.39
14.12
26.90
38.93
47.89
51.14
46.58
33.75
14.80
-5.62
-21.61
-28.18
-23.21
-8.32
11.93
31.97
47.43
56.29
58.80
56.37
50.33
41.38
29.78
16.02
1.25
-12.91
-24.95
-34.15
-40.86
-46.20
-51.61
-58.19
-66.46
-76.28
-86.97
-97.52
-106.67
-113.19
-116.02
-114.53
-108.66
-98.92
-86.13
-71.13
-54.55
-36.67
-17.68
2.11
22.00
41.04
58.21
72.81
84.54
93.54
100.15
104.86
108.32
111.34
114.96
120.23
127.83
137.67
148.67
159.00
166.44
169.05
165.61
155.88
140.59
121.28
99.96
78.66
58.99
41.77
26.90
13.48
0.30
-13.65
-28.70
-44.33
-59.28
-72.01
-81.12
-85.74
-85.69
-81.46
-73.99
-64.43
-53.88
-43.20
-32.95
-23.50
-15.08
-7.89
-2.14
2.02
4.54
5.50
5.11
3.69
1.55
-0.94
-3.41
-5.50
-6.89
-7.35
-6.89
-5.84
-4.77
-4.42
-5.38
-7.97
-12.08
-17.11
-22.31
-26.97
-30.76
-33.91
-37.09
-41.15
-46.77
-54.12
-62.65
-71.18
-78.15
-82.06
-81.95
-77.65
-69.76
-59.44
-47.96
-36.35
-25.25
-14.95
-5.62
2.53
9.20
14.17
17.42
19.21
20.00
20.28
20.36
20.28
19.91
19.06
17.70
15.93
14.04
12.26
10.71
9.25
7.55
5.22
1.97
-2.26
-7.31
-12.82
-18.45
-23.94
-29.14
-34.10
-39.00
-44.21
-50.13
-56.96
-64.40
-71.52
-76.88
-78.90
-76.50
-69.52
-58.78
-45.72
-31.88
-18.37
-5.72
5.94
16.59
26.01
33.86
39.79
43.65
45.61
46.06
45.50
44.29
42.64
40.62
38.23
35.54
32.71
29.98
27.49
25.17
22.68
19.59
15.54
10.50
4.78
-1.05
-6.49
-11.31
-15.74
-20.27
-25.53
-31.99
-39.91
-49.15
-59.19
-69.02
-77.25
-82.26
-82.69
-77.84
-68.11
-54.91
-40.26
-26.20
-14.11
-4.49
2.93
8.84
13.86
18.28
22.05
24.99
26.86
27.42
26.43
23.72
19.55
14.99
12.04
13.27
20.76
34.97
54.16
74.71
92.37
103.84
107.87
105.38
98.56
89.75
80.38
70.78
60.38
48.28
33.76
16.52
-3.15
-24.11
-44.49
-61.94
-74.28
-80.35
-80.53
-76.85
-72.49
-70.78
-74.02
-82.64
-94.91
-107.46
-116.43
-118.87
-113.91
-103.15
-89.99
-78.14
-69.96
-65.53
-62.90
-59.45
-53.54
-45.47
-37.28
-31.48
-29.61
-31.40
-34.88
-37.46
-37.08
-33.03
-25.82
-16.56
-6.38
3.86
13.41
21.40
26.81
29.00
28.36
26.62
26.72
31.77
43.78
62.63
85.82
109.33
128.92
141.61
146.42
144.39
137.74
128.84
119.34
109.86
100.25
90.09
79.18
67.71
56.11
44.46
32.26
18.44
1.94
-17.54
-39.06
-60.58
-79.63
-94.38
-104.36
-110.48
-114.43
-117.79
-121.44
-125.43
-129.33
-132.72
-135.39
-137.18
-137.90
-137.21
-134.89
-131.04
-126.11
-120.66
-115.02
-109.00
-101.98
-93.17
-82.09
-68.80
-53.79
-37.73
-21.29
-4.98
10.75
25.32
38.04
48.25
55.59
60.13
62.43
63.25
63.38
63.30
63.20
63.04
62.85
62.76
63.14
64.36
66.59
69.61
72.85
75.68
77.56
78.42
78.66
79.04
80.42
83.41
88.10
94.02
100.30
106.06
110.80
114.74
119.12
125.97
137.68
156.20
182.00
213.49
247.05
277.68
300.44
311.89
311.03
299.34
279.96
256.30
231.02
205.57
180.51
156.02
132.42
110.19
89.66
70.69
52.71
34.95
17.01
-0.86
-17.77
-32.73
-45.11
-54.98
-63.07
-70.39
-77.74
-85.47
-93.44
-101.19
-108.21
-114.24
-119.41
-124.22
-129.41
-135.58
-142.83
-150.50
-157.11
-160.75
-159.64
-152.75
-140.21
-123.31
-104.08
-84.65
-66.63
-50.76
-36.94
-24.54
-12.89
-1.50
9.70
20.55
30.71
39.88
47.78
54.20
58.94
61.82
62.75
61.73
58.86
54.30
48.20
40.66
31.76
21.58
10.29
-1.72
-13.82
-25.30
-35.50
-44.09
-51.20
-57.40
-63.53
-70.30
-77.91
-85.87
-93.02
-97.89
-99.18
-96.21
-89.17
-78.97
-66.99
-54.55
-42.68
-31.91
-22.39
-14.04
-6.66
-0.04
6.13
12.11
18.14
24.22
30.16
35.58
40.06
43.29
45.19
45.88
45.57
44.53
42.83
40.45
37.25
33.02
27.69
21.32
14.23
6.80
-0.54
-7.57
-14.36
-21.22
-28.57
-36.69
-45.59
-54.74
-63.23
-69.80
-73.21
-72.58
-67.69
-59.08
-47.97
-35.85
-23.97
-13.09
-3.36
5.39
13.38
20.57
26.60
31.05
33.58
34.19
33.17
30.96
27.94
24.37
20.49
16.54
12.90
10.01
8.19
7.40
7.20
6.93
5.84
3.47
-0.20
-4.75
-9.51
-13.87
-17.52
-20.60
-23.63
-27.34
-32.33
-38.86
-46.59
-54.62
-61.59
-66.09
-66.96
-63.68
-56.53
-46.41
-34.69
-22.69
-11.46
-1.60
6.74
13.67
19.40
24.06
27.73
30.42
32.22
33.25
33.71
33.73
33.30
32.25
30.35
27.49
23.80
19.66
15.60
12.06
9.12
6.53
3.70
0.02
-4.88
-11.01
-17.98
-25.21
-32.09
-38.31
-43.82
-48.88
-53.96
-59.49
-65.79
-72.82
-80.12
-86.88
-92.00
-94.53
-93.98
-90.64
-85.50
-79.93
-75.03
-71.18
-67.79
-63.53
-56.91
-46.87
-33.25
-16.81
1.08
18.92
35.47
49.92
61.79
70.73
76.43
78.64
77.36
72.95
66.23
58.19
49.71
41.34
33.22
25.28
17.38
9.51
1.64
-6.36
-14.81
-24.19
-35.12
-48.26
-64.09
-82.58
-102.74
-122.35
-138.11
-146.49
-145.04
-133.47
-113.98
-90.54
-67.38
-47.36
-31.35
-18.71
-8.57
-0.77
4.14
5.78
5.13
4.63
7.33
15.29
28.31
43.99
58.95
70.67
78.49
83.58
87.80
92.45
97.65
102.71
106.96
110.35
113.49
117.13
121.66
126.96
132.47
137.40
140.91
142.13
140.19
134.44
124.71
111.52
95.84
78.76
61.08
43.26
25.81
9.67
-3.63
-12.42
-15.66
-13.64
-8.04
-1.38
4.05
6.98
7.43
6.35
4.85
3.61
2.69
1.84
0.86
-0.12
-0.69
-0.45
0.71
2.47
4.21
5.28
5.31
4.33
2.76
1.18
0.08
-0.33
-0.21
-0.00
-0.17
-1.02
-2.60
-4.71
-7.03
-9.38
-11.77
-14.47
-17.83
-22.25
-27.90
-34.74
-42.34
-49.83
-56.12
-60.01
-60.64
-57.78
-52.06
-44.68
-37.04
-30.28
-24.80
-20.46
-16.84
-13.66
-10.99
-9.19
-8.58
-9.15
-10.58
-12.30
-13.91
-15.32
-16.71
-18.35
-20.41
-22.77
-25.13
-27.12
-28.47
-29.20
-29.50
-29.78
-30.45
-31.84
-34.04
-36.87
-39.93
-42.67
-44.70
-45.89
-46.49
-47.03
-48.09
-50.08
-52.97
-56.30
-59.21
-60.70
-59.90
-56.30
-49.93
-41.37
-31.55
-21.55
-12.30
-4.42
1.86
6.70
10.36
13.14
15.23
16.75
17.78
18.38
18.72
18.88
18.93
18.83
18.48
17.78
16.70
15.25
13.39
11.07
8.18
4.64
0.42
-4.37
-9.47
-14.56
-19.26
-23.36
-26.79
-29.78
-32.82
-36.56
-41.65
-48.31
-56.22
-64.25
-70.80
-74.28
-73.68
-68.92
-60.91
-51.21
-41.41
-32.73
-25.77
-20.51
-16.69
-14.00
-12.28
-11.48
-11.54
-12.32
-13.74
-15.80
-18.67
-22.47
-26.87
-30.75
-32.13
-28.75
-18.97
-2.71
18.11
39.87
58.43
70.40
74.22
70.47
61.39
49.79
37.95
26.95
16.58
5.94
-5.93
-19.56
-35.12
-52.54
-71.58
-91.44
-110.38
-125.58
-133.77
-132.50
-121.57
-103.47
-82.56
-62.95
-46.64
-32.97
-19.94
-6.30
6.79
15.95
17.56
10.21
-3.87
-19.50
-30.91
-34.36
-29.60
-19.26
-6.99
4.81
15.71
26.79
38.90
51.26
61.15
64.88
59.80
45.96
26.76
7.85
-5.13
-8.85
-3.40
8.22
21.93
34.69
45.62
55.84
67.03
80.14
94.68
109.19
122.34
133.84
144.53
155.57
167.36
178.94
188.33
193.45
193.24
188.18
179.92
170.40
160.92
151.71
142.21
131.71
120.00
107.48
94.95
83.14
72.33
62.37
52.91
43.57
34.14
24.55
14.82
4.91
-5.25
-15.68
-26.31
-36.82
-46.78
-55.69
-63.30
-69.87
-76.03
-82.60
-90.01
-97.90
-105.04
-109.71
-110.33
-106.17
-97.61
-85.99
-72.94
-59.85
-47.51
-36.13
-25.71
-16.31
-8.15
-1.61
3.10
5.99
7.33
7.57
7.18
6.50
5.76
4.99
4.08
2.91
1.37
-0.50
-2.54
-4.51
-6.29
-7.95
-9.70
-11.73
-14.12
-16.72
-19.32
-21.89
-24.70
-28.36
-33.51
-40.59
-49.51
-59.45
-69.03
-76.53
-80.33
-79.31
-73.13
-62.38
-48.41
-32.97
-17.71
-3.84
7.99
17.64
25.26
31.08
35.32
38.14
39.59
39.67
38.32
35.59
31.67
27.03
22.26
18.00
14.67
12.37
10.77
9.16
6.73
2.77
-3.11
-10.78
-19.72
-29.17
-38.43
-47.14
-55.51
-64.20
-74.22
-86.73
-102.56
-121.82
-143.25
-163.95
-179.52
-185.04
-176.46
-152.09
-113.40
-64.68
-11.80
39.62
85.46
123.70
153.88
176.24
190.88
197.70
196.76
188.80
175.64
159.77
143.77
129.47
117.69
108.23
100.29
93.03
85.52
76.81
65.62
50.42
29.81
3.14
-28.65
-62.69
-94.42
-118.72
-131.54
-131.35
-120.01
-102.28
-84.32
-71.63
-67.39
-71.67
-81.83
-93.73
-103.03
-106.21
-100.96
-86.33
-62.73
-32.07
2.27
35.84
64.12
83.81
93.79
95.43
91.95
87.03
83.57
82.94
85.19
89.63
95.46
102.11
109.16
116.06
122.05
126.25
127.88
126.53
122.20
115.20
105.99
94.88
81.70
65.69
45.56
20.17
-10.66
-45.54
-81.44
-114.37
-140.65
-157.99
-165.99
-166.01
-160.34
-151.39
-140.99
-130.05
-118.67
-106.28
-92.15
-75.83
-57.56
-38.32
-19.40
-1.82
14.20
29.35
44.77
61.22
78.53
95.56
110.73
122.83
131.60
137.84
142.90
147.95
153.45
159.04
163.93
167.45
169.39
169.99
169.66
168.51
166.03
161.23
152.99
140.46
123.46
102.51
78.77
53.73
28.88
5.45
-15.82
-34.86
-52.11
-68.28
-83.80
-98.41
-110.97
-119.81
-123.22
-120.25
-111.05
-97.13
-80.86
-65.04
-52.21
-44.25
-42.34
-47.04
-58.39
-75.71
-97.30
-120.23
-140.81
-155.48
-162.01
-160.27
-151.99
-139.92
-126.47
-112.83
-98.92
-84.01
-67.64
-50.22
-33.00
-17.63
-5.55
2.49
6.61
7.64
6.84
5.51
4.59
4.40
4.65
4.73
4.06
2.36
-0.17
-2.91
-4.94
-5.13
-2.32
4.46
15.69
31.12
49.65
69.58
88.99
106.17
119.98
129.90
135.94
138.38
137.75
134.71
130.18
125.27
121.14
118.65
118.18
119.55
122.17
125.26
128.07
129.88
130.01
127.76
122.71
114.85
104.80
93.73
83.01
73.73
66.28
60.28
54.77
48.82
41.88
34.01
25.60
17.09
8.62
0.07
-8.68
-17.44
-25.43
-31.55
-34.76
-34.74
-32.06
-28.00
-24.05
-21.18
-19.60
-18.86
-18.28
-17.48
-16.64
-16.34
-17.22
-19.59
-23.21
-27.48
-31.72
-35.43
-38.40
-40.62
-42.07
-42.68
-42.35
-41.12
-39.33
-37.53
-36.33
-36.16
-37.11
-38.94
-41.19
-43.42
-45.33
-46.91
-48.41
-50.24
-52.90
-56.69
-61.67
-67.37
-72.88
-76.98
-78.47
-76.57
-71.26
-63.26
-53.81
-44.18
-35.26
-27.40
-20.53
-14.48
-9.27
-5.12
-2.30
-0.87
-0.58
-0.90
-1.38
-1.73
-2.03
-2.54
-3.44
-4.77
-6.21
-7.40
-8.00
-7.96
-7.47
-6.94
-6.79
-7.37
-8.82
-11.05
-13.81
-16.80
-19.72
-22.38
-24.73
-26.83
-28.89
-31.26
-34.28
-38.20
-43.03
-48.34
-53.24
-56.59
-57.30
-54.71
-48.92
-40.68
-31.13
-21.40
-12.26
-4.08
3.04
9.07
13.86
17.19
18.95
19.21
18.34
16.84
15.23
13.89
12.91
12.19
11.45
10.47
9.11
7.53
6.02
4.96
4.50
4.46
4.30
3.37
1.17
-2.31
-6.58
-10.87
-14.49
-17.15
-19.12
-21.05
-23.66
-27.49
-32.73
-39.07
-45.88
-52.16
-56.79
-58.70
-57.18
-52.19
-44.37
-35.00
-25.47
-16.93
-9.98
-4.70
-0.85
1.91
3.77
4.83
5.15
4.83
4.03
2.95
1.79
0.66
-0.38
-1.39
-2.36
-3.27
-4.02
-4.46
-4.52
-4.25
-3.93
-3.94
-4.74
-6.58
-9.45
-12.97
-16.50
-19.43
-21.42
-22.61
-23.62
-25.32
-28.44
-33.18
-39.11
-45.20
-50.11
-52.66
-52.16
-48.50
-42.17
-33.99
-24.89
-15.70
-7.02
0.68
7.03
11.67
14.32
14.88
13.70
11.48
9.12
7.34
6.27
5.36
3.63
0.19
-5.20
-11.95
-18.85
-24.59
-28.45
-30.57
-32.04
-34.35
-38.72
-45.81
-55.36
-66.47
-77.76
-87.56
-94.12
-95.83
-91.67
-81.58
-66.75
-49.49
-32.52
-18.26
-8.01
-1.75
1.68
4.02
6.96
11.87
19.54
30.20
43.41
58.00
72.02
82.92
88.02
85.10
73.15
53.10
28.20
3.65
-14.60
-21.97
-17.14
-3.14
13.30
24.11
23.25
9.44
-13.17
-36.83
-53.82
-59.92
-55.95
-46.66
-37.86
-33.33
-33.53
-36.49
-40.09
-43.90
-49.62
-59.69
-75.17
-94.46
-113.67
-128.38
-135.75
-135.53
-129.65
-120.69
-110.38
-98.65
-83.75
-63.22
-35.10
0.97
43.24
88.00
130.39
165.53
189.85
201.96
202.82
195.39
183.62
171.42
161.70
155.75
153.31
152.97
153.00
152.14
149.98
146.83
143.23
139.24
134.28
127.52
118.56
107.90
96.72
86.26
76.90
67.85
57.41
43.92
26.61
6.01
-16.26
-38.01
-57.14
-72.00
-81.54
-85.34
-83.64
-77.30
-67.68
-56.39
-44.96
-34.47
-25.46
-17.90
-11.59
-6.24
-1.70
2.02
4.94
7.09
8.62
9.69
10.41
10.81
10.84
10.53
9.97
9.34
8.81
8.40
7.93
7.03
5.27
2.31
-1.91
-7.15
-12.82
-18.22
-22.82
-26.43
-29.35
-32.25
-35.95
-41.08
-47.90
-56.03
-64.62
-72.32
-77.66
-79.34
-76.61
-69.51
-58.89
-46.14
-32.84
-20.21
-8.90
1.01
9.79
17.68
24.69
30.54
34.85
37.31
37.96
37.15
35.51
33.66
32.04
30.82
29.94
29.18
28.33
27.26
25.86
24.01
21.58
18.37
14.19
8.93
2.64
-4.49
-12.31
-20.74
-29.89
-39.82
-50.23
-60.27
-68.55
-73.50
-73.89
-69.26
-60.03
-47.31
-32.49
-16.99
-2.15
10.89
21.27
28.75
33.90
38.05
42.68
48.73
55.98
63.01
67.97
69.41
67.15
62.29
56.61
51.64
47.88
44.56
40.02
32.63
21.49
6.93
-9.47
-25.34
-38.10
-45.65
-46.83
-41.92
-32.48
-21.12
-10.70
-3.59
-1.02
-2.91
-8.07
-14.72
-21.01
-25.39
-26.81
-24.62
-18.61
-8.89
3.94
18.81
34.32
48.80
60.56
68.01
69.95
66.02
57.09
45.35
33.86
25.54
22.01
23.03
26.72
30.66
33.20
34.15
34.63
36.18
39.77
45.36
52.19
59.40
66.62
73.82
80.87
87.08
91.20
91.80
87.95
79.72
68.11
54.64
40.70
27.13
14.10
1.21
-12.18
-26.59
-42.09
-58.11
-73.42
-86.31
-94.96
-97.99
-94.97
-86.52
-74.19
-59.92
-45.36
-31.56
-18.79
-6.86
4.46
15.11
24.72
32.84
39.17
43.73
46.82
48.89
50.19
50.78
50.51
49.31
47.30
44.82
42.33
40.04
37.90
35.39
31.90
26.90
20.29
12.44
4.10
-3.89
-10.92
-16.78
-21.78
-26.63
-32.20
-39.34
-48.56
-59.83
-72.43
-84.98
-95.70
-102.75
-104.74
-101.05
-92.01
-78.75
-62.91
-46.16
-29.91
-15.11
-2.21
8.66
17.51
24.33
29.09
31.80
32.65
32.08
30.69
29.02
27.41
25.86
24.19
22.27
20.12
17.95
15.98
14.26
12.60
10.65
7.98
4.27
-0.51
-6.17
-12.28
-18.33
-23.84
-28.61
-32.81
-36.98
-41.86
-48.04
-55.63
-64.05
-72.07
-78.12
-80.81
-79.27
-73.47
-64.03
-52.08
-38.78
-25.12
-11.78
0.86
12.48
22.77
31.44
38.24
43.14
46.35
48.32
49.51
50.22
50.47
50.08
48.77
46.49
43.46
40.18
37.21
34.91
33.27
31.88
30.11
27.38
23.38
18.15
12.04
5.45
-1.30
-8.06
-14.93
-22.06
-29.65
-37.86
-46.68
-55.88
-64.88
-72.73
-78.21
-80.17
-77.95
-71.68
-62.29
-51.16
-39.65
-28.64
-18.52
-9.28
-0.99
6.11
11.65
15.33
17.20
17.66
17.28
16.57
15.75
14.70
13.06
10.37
6.33
1.09
-4.58
-9.26
-11.10
-8.43
-0.36
12.68
28.93
45.76
60.38
70.52
74.87
73.13
65.89
54.37
40.23
25.15
10.31
-3.86
-17.81
-32.45
-48.66
-66.75
-86.07
-104.89
-120.62
-130.35
-131.71
-123.88
-108.30
-88.71
-70.32
-58.07
-54.78
-59.90
-69.74
-78.89
-82.32
-77.16
-63.34
-43.06
-19.53
4.15
25.78
44.15
58.78
69.41
75.92
78.36
77.14
73.05
67.12
60.37
53.50
46.89
40.66
34.84
29.39
24.21
18.96
13.04
5.98
-1.95
-9.13
-12.65
-9.03
4.35
27.84
58.92
92.96
124.84
150.74
169.19
180.81
187.20
189.64
188.45
183.25
173.62
159.84
142.93
124.38
105.48
86.95
68.93
51.25
33.87
17.16
1.92
-10.89
-20.49
-26.69
-30.11
-32.02
-34.00
-37.26
-42.28
-48.63
-55.21
-60.80
-64.56
-66.43
-67.04
-67.48
-68.76
-71.42
-75.26
-79.34
-82.29
-82.73
-79.70
-72.96
-63.07
-51.12
-38.43
-26.16
-15.10
-5.64
2.16
8.39
13.18
16.64
18.87
19.98
20.16
19.63
18.56
17.04
15.09
12.66
9.76
6.58
3.39
0.51
-1.95
-4.14
-6.45
-9.33
-13.00
-17.41
-22.11
-26.65
-30.68
-34.12
-37.17
-40.10
-43.23
-46.80
-50.96
-55.69
-60.69
-65.35
-68.71
-69.68
-67.37
-61.57
-52.70
-41.83
-30.24
-19.04
-8.85
0.14
8.06
15.02
21.01
25.88
29.39
31.46
32.17
31.83
30.78
29.34
27.72
25.94
23.95
21.69
19.18
16.51
13.86
11.30
8.80
6.24
3.41
0.23
-3.30
-6.97
-10.59
-14.06
-17.51
-21.30
-25.86
-31.53
-38.22
-45.25
-51.42
-55.31
-55.79
-52.37
-45.40
-35.92
-25.29
-14.73
-5.16
3.01
9.67
14.94
19.02
22.13
24.44
26.08
27.14
27.61
27.50
26.81
25.54
23.75
21.51
18.99
16.41
14.00
11.84
9.91
7.95
5.67
2.81
-0.69
-4.68
-8.84
-12.86
-16.56
-20.04
-23.63
-27.89
-33.35
-40.31
-48.55
-57.31
-65.31
-71.07
-73.36
-71.61
-66.02
-57.56
-47.61
-37.56
-28.46
-20.90
-14.98
-10.59
-7.47
-5.54
-4.74
-5.13
-6.85
-10.02
-14.68
-20.55
-26.94
-32.65
-36.14
-35.92
-31.03
-21.37
-7.83
7.94
23.99
38.43
49.78
57.02
59.71
58.03
52.78
45.25
36.92
28.95
21.78
14.99
7.76
-0.62
-10.03
-19.29
-26.45
-29.61
-27.77
-21.53
-13.08
-5.49
-1.55
-2.62
-8.15
-16.14
-24.04
-29.86
-32.73
-32.79
-30.74
-27.43
-23.70
-20.50
-19.00
-20.16
-24.21
-30.09
-35.55
-38.04
-35.83
-28.87
-18.73
-7.67
2.53
11.31
19.15
26.91
34.86
42.32
48.02
50.87
50.73
48.65
46.51
46.22
49.14
55.59
64.81
75.09
84.14
89.49
89.27
82.72
70.71
55.58
40.53
28.81
22.74
23.19
29.46
39.59
50.81
60.26
65.70
65.97
61.29
52.95
42.89
32.94
24.38
17.72
12.82
9.20
6.24
3.34
-0.04
-4.23
-9.30
-15.07
-21.16
-27.32
-33.50
-39.95
-46.90
-54.25
-61.32
-66.96
-69.78
-68.70
-63.32
-54.02
-41.92
-28.44
-15.00
-2.73
7.72
16.08
22.42
27.03
30.27
32.45
33.82
34.53
34.73
34.59
34.30
34.03
33.87
33.76
33.47
32.75
31.32
29.04
25.95
22.15
17.83
13.16
8.29
3.29
-1.84
-7.20
-12.98
-19.37
-26.46
-34.01
-41.36
-47.52
-51.33
-51.85
-48.69
-42.07
-32.82
-21.97
-10.53
0.78
11.52
21.43
30.35
38.12
44.57
49.61
53.21
55.49
56.54
56.46
55.31
53.16
50.13
46.49
42.59
38.76
35.19
31.81
28.27
24.11
18.88
12.33
4.52
-4.28
-13.69
-23.29
-32.80
-42.17
-51.51
-61.13
-71.29
-82.02
-92.83
-102.73
-110.30
-114.12
-113.32
-107.84
-98.58
-87.03
-74.80
-63.12
-52.65
-43.46
-35.24
-27.60
-20.23
-13.06
-6.28
-0.34
4.19
6.85
7.44
6.15
3.56
0.36
-2.88
-6.04
-9.46
-13.85
-20.12
-28.95
-40.55
-54.29
-68.56
-80.93
-88.65
-89.51
-82.67
-69.17
-51.85
-34.48
-20.60
-12.31
-9.71
-11.06
-13.62
-14.70
-12.53
-6.53
2.73
14.16
26.52
38.72
49.92
59.45
66.84
71.82
74.53
75.55
75.81
76.36
77.94
80.59
83.70
86.07
86.54
84.47
80.09
74.35
68.47
63.27
58.90
54.82
50.21
44.50
37.70
30.42
23.43
17.28
11.98
7.00
1.46
-5.39
-13.88
-23.80
-34.39
-44.51
-52.81
-58.04
-59.26
-56.07
-48.78
-38.34
-26.11
-13.50
-1.70
8.62
17.19
24.00
29.10
32.51
34.24
34.39
33.25
31.27
28.91
26.54
24.36
22.42
20.70
19.21
17.99
17.09
16.40
15.65
14.43
12.36
9.27
5.33
1.06
-3.00
-6.41
-9.18
-11.69
-14.63
-18.76
-24.61
-32.24
-41.13
-50.13
-57.68
-62.20
-62.46
-57.94
-48.99
-36.69
-22.48
-7.82
6.14
18.62
29.16
37.47
43.40
46.95
48.39
48.21
47.03
45.32
43.30
40.90
37.96
34.47
30.73
27.27
24.59
22.87
21.83
20.83
19.08
16.11
11.82
6.57
0.89
-4.77
-10.13
-15.24
-20.36
-25.85
-32.07
-39.25
-47.30
-55.80
-63.80
-69.99
-72.97
-71.58
-65.36
-54.74
-40.95
-25.66
-10.54
3.16
14.86
24.51
32.39
38.73
43.55
46.67
47.86
47.10
44.66
41.16
37.33
33.81
30.90
28.53
26.30
23.77
20.60
16.71
12.28
7.55
2.84
-1.75
-6.23
-10.74
-15.47
-20.58
-26.19
-32.40
-39.37
-47.15
-55.58
-64.01
-71.22
-75.67
-75.92
-71.21
-61.78
-48.90
-34.38
-20.06
-7.15
3.89
13.19
21.15
27.96
33.50
37.41
39.41
39.49
38.01
35.56
32.72
29.90
27.22
24.65
22.11
19.54
16.95
14.28
11.32
7.70
3.09
-2.66
-9.36
-16.63
-24.00
-31.22
-38.40
-46.00
-54.65
-64.79
-76.41
-88.79
-100.53
-109.85
-115.11
-115.30
-110.33
-101.09
-89.03
-75.77
-62.73
-51.02
-41.20
-33.28
-26.59
-19.80
-11.16
0.91
17.20
37.28
59.44
81.11
99.67
113.13
120.73
122.92
121.21
117.51
113.47
109.90
106.47
101.95
94.62
82.88
65.46
41.56
11.08
-24.93
-63.76
-101.11
-132.01
-152.51
-161.04
-159.08
-150.12
-137.84
-124.39
-110.14
-94.88
-79.36
-66.04
-58.07
-57.21
-62.03
-67.96
-69.23
-61.70
-44.87
-21.82
2.75
25.12
44.30
61.98
80.97
103.18
128.35
153.89
176.01
191.18
197.37
194.69
185.19
171.99
158.08
145.37
134.27
123.99
113.33
101.42
88.21
74.13
59.57
44.38
27.87
9.32
-11.31
-32.89
-53.07
-68.96
-77.98
-78.82
-71.86
-58.91
-42.68
-25.92
-10.71
1.85
11.52
18.69
23.93
27.75
30.51
32.43
33.62
34.13
33.91
32.90
31.02
28.26
24.73
20.71
16.63
13.04
10.42
9.01
8.64
8.71
8.40
6.90
3.71
-1.18
-7.35
-14.17
-21.00
-27.47
-33.58
-39.67
-46.32
-54.05
-63.05
-72.86
-82.29
-89.54
-92.74
-90.58
-82.88
-70.63
-55.67
-40.00
-25.16
-11.89
-0.29
9.76
18.27
25.06
29.90
32.81
34.11
34.30
33.80
32.82
31.38
29.54
27.53
25.78
24.67
24.31
24.40
24.32
23.39
21.10
17.29
12.15
6.04
-0.57
-7.36
-14.11
-20.83
-27.75
-35.27
-43.87
-53.82
-65.01
-76.70
-87.57
-95.94
-100.29
-99.76
-94.43
-85.29
-73.87
-61.64
-49.57
-38.03
-27.01
-16.44
-6.44
2.71
10.77
17.82
24.25
30.62
37.37
44.62
52.10
59.24
65.41
70.14
73.23
74.74
74.89
73.80
71.46
67.70
62.41
55.80
48.42
41.12
34.69
29.57
25.66
22.38
18.89
14.37
8.28
0.52
-8.51
-17.84
-26.07
-31.63
-33.24
-30.32
-23.24
-13.18
-1.78
9.46
19.48
27.82
34.38
39.24
42.46
44.05
44.10
42.80
40.50
37.66
34.67
31.79
29.08
26.43
23.64
20.51
16.95
12.98
8.75
4.46
0.30
-3.63
-7.30
-10.75
-14.01
-17.07
-19.86
-22.39
-24.79
-27.41
-30.79
-35.41
-41.52
-48.70
-55.88
-61.46
-63.76
-61.62
-54.85
-44.21
-31.17
-17.35
-3.97
8.33
19.46
29.54
38.59
46.41
52.64
56.95
59.22
59.61
58.37
55.90
52.47
48.37
43.82
39.13
34.59
30.44
26.67
23.04
19.19
14.74
9.56
3.81
-2.15
-7.89
-13.09
-17.69
-21.87
-25.95
-30.33
-35.41
-41.46
-48.53
-56.25
-63.80
-69.94
-73.33
-72.85
-68.00
-59.13
-47.30
-34.01
-20.75
-8.60
1.94
10.86
18.44
24.87
30.18
34.19
36.74
37.94
38.10
37.72
37.16
36.52
35.61
34.22
32.29
30.08
28.03
26.46
25.33
24.12
22.09
18.65
13.66
7.55
1.08
-4.99
-10.28
-14.93
-19.44
-24.47
-30.51
-37.75
-45.97
-54.59
-62.74
-69.39
-73.50
-74.26
-71.35
-65.04
-56.11
-45.57
-34.41
-23.31
-12.65
-2.64
6.52
14.45
20.65
24.70
26.65
27.41
28.83
33.25
42.61
57.47
76.47
96.46
113.62
124.77
128.43
124.99
116.09
103.55
88.65
71.93
53.65
34.16
14.11
-5.82
-25.29
-44.21
-62.41
-78.89
-91.75
-98.66
-97.90
-89.28
-74.32
-55.73
-36.44
-18.98
-5.46
2.21
2.35
-5.98
-22.08
-43.02
-64.08
-80.08
-87.15
-83.92
-71.73
-53.67
-33.20
-13.03
5.29
21.18
34.52
45.42
54.18
61.65
69.47
79.89
95.13
116.33
142.63
170.93
196.61
215.02
222.97
219.80
207.17
188.15
165.78
142.13
118.15
94.00
69.79
45.78
22.48
0.46
-19.85
-37.99
-53.30
-64.92
-72.00
-74.05
-71.23
-64.45
-55.11
-44.71
-34.67
-26.06
-19.64
-15.80
-14.37
-14.70
-15.68
-16.14
-15.29
-12.95
-9.69
-6.49
-4.39
-4.00
-5.25
-7.49
-9.79
-11.30
-11.68
-11.19
-10.52
-10.55
-11.88
-14.66
-18.50
-22.70
-26.58
-29.72
-32.13
-34.20
-36.58
-39.93
-44.85
-51.57
-59.91
-69.11
-77.89
-84.78
-88.52
-88.52
-85.01
-79.03
-71.99
-65.23
-59.58
-55.43
-52.82
-51.80
-52.62
-55.62
-61.02
-68.63
-77.80
-87.56
-96.92
-105.11
-111.76
-116.80
-120.40
-122.76
-124.20
-125.11
-125.77
-125.91
-124.30
-118.79
-107.02
-87.64
-61.39
-31.28
-1.86
22.27
38.02
44.43
42.46
34.02
21.21
5.88
-10.15
-24.80
-35.84
-41.28
-40.14
-32.79
-20.95
-7.04
6.55
18.18
27.27
34.17
39.74
44.76
49.61
54.08
57.64
59.74
60.09
58.85
56.53
53.75
51.05
48.73
46.81
45.14
43.45
41.46
38.97
35.88
32.26
28.28
24.16
20.05
16.01
11.99
7.92
3.85
-0.15
-3.99
-7.68
-11.37
-15.27
-19.35
-23.22
-26.09
-26.98
-25.11
-20.27
-12.92
-4.03
5.27
14.07
21.85
28.48
33.99
38.39
41.56
43.28
43.43
42.10
39.59
36.29
32.55
28.56
24.35
19.95
15.45
11.06
6.99
3.33
-0.09
-3.59
-7.53
-12.11
-17.25
-22.65
-27.94
-32.81
-37.16
-41.07
-44.83
-48.85
-53.60
-59.42
-66.42
-74.15
-81.64
-87.46
-90.13
-88.61
-82.66
-72.97
-60.86
-47.91
-35.43
-24.21
-14.52
-6.25
0.83
6.94
12.17
16.44
19.64
21.62
22.31
21.67
19.90
17.30
14.39
11.73
9.83
8.84
8.51
8.12
6.70
3.48
-1.86
-8.87
-16.58
-23.90
-30.18
-35.44
-40.36
-46.09
-53.77
-64.25
-77.82
-93.89
-110.63
-124.94
-132.86
-130.64
-116.19
-90.03
-55.42
-17.20
19.81
52.33
79.06
100.10
115.78
125.96
130.08
127.98
120.64
110.31
99.77
91.13
84.96
80.29
75.38
68.89
60.64
51.67
43.48
37.09
32.41
28.32
23.31
16.27
7.17
-2.98
-12.48
-19.76
-24.07
-25.85
-26.68
-28.66
-33.67
-42.60
-54.95
-68.78
-81.20
-89.07
-89.99
-83.08
-69.53
-52.58
-36.77
-26.71
-25.53
-33.68
-48.35
-64.27
-75.32
-76.69
-66.62
-46.95
-22.33
1.78
21.11
33.82
40.40
42.53
41.59
37.96
31.34
21.76
10.56
0.49
-5.23
-4.45
2.83
14.41
26.94
37.59
45.23
50.67
55.88
62.76
72.00
82.77
93.22
101.33
105.84
106.58
104.26
99.87
94.16
87.27
78.97
68.93
57.17
44.30
31.56
20.75
13.77
12.08
16.09
24.79
35.90
46.54
54.32
58.24
59.05
58.55
58.69
60.55
64.02
68.18
72.07
75.30
78.07
80.79
83.56
86.01
87.51
87.52
85.91
82.87
78.68
73.39
66.73
58.33
48.02
36.00
22.88
9.49
-3.56
-15.98
-28.01
-40.10
-52.53
-65.01
-76.58
-85.78
-91.10
-91.58
-87.13
-78.51
-67.04
-54.11
-40.82
-27.88
-15.81
-5.00
4.07
10.97
15.46
17.57
17.71
16.42
14.29
11.73
8.92
5.83
2.30
-1.83
-6.70
-12.31
-18.46
-24.77
-30.73
-35.88
-40.00
-43.28
-46.26
-49.62
-53.82
-58.94
-64.64
-70.40
-75.77
-80.69
-85.44
-90.63
-96.88
-104.57
-113.63
-123.29
-132.23
-138.79
-141.42
-139.32
-132.62
-122.44
-110.52
-98.83
-89.18
-83.02
-81.06
-82.86
-86.39
-88.04
-83.40
-68.70
-42.26
-5.46
37.54
81.12
119.90
150.19
170.34
180.41
181.47
175.04
163.03
147.80
131.95
117.59
105.24
93.10
77.18
52.95
17.74
-26.90
-74.67
-116.18
-142.48
-148.69
-135.91
-110.43
-80.65
-53.83
-34.19
-23.31
-21.68
-29.90
-48.25
-75.03
-105.38
-131.68
-146.20
-144.37
-126.93
-99.47
-69.73
-44.12
-25.45
-12.86
-3.53
5.13
14.06
22.61
29.50
33.98
36.33
37.68
39.17
41.26
43.41
44.56
43.87
41.39
38.26
36.14
36.29
38.82
42.38
44.79
43.98
38.92
29.86
18.12
5.42
-6.66
-16.88
-24.26
-27.96
-27.30
-22.01
-12.46
0.20
14.29
27.94
39.64
48.50
54.34
57.64
59.20
59.91
60.39
60.90
61.37
61.49
60.94
59.48
56.94
53.33
48.76
43.70
39.27
37.24
39.78
48.78
65.20
88.61
117.41
149.30
181.84
212.59
238.92
257.72
265.61
259.71
238.91
204.76
161.54
115.33
72.29
37.11
12.13
-2.54
-8.31
-7.27
-1.62
6.49
14.99
21.90
25.63
25.33
21.16
14.16
5.94
-1.88
-8.25
-12.83
-15.96
-18.41
-21.02
-24.38
-28.71
-33.79
-39.01
-43.57
-46.78
-48.30
-48.39
-47.81
-47.56
-48.45
-50.69
-53.96
-57.55
-60.77
-63.28
-65.14
-66.68
-68.28
-70.25
-72.81
-76.08
-80.05
-84.46
-88.62
-91.50
-91.96
-89.19
-83.05
-74.13
-63.58
-52.57
-41.98
-32.15
-23.05
-14.50
-6.49
0.75
6.83
11.45
14.58
16.49
17.65
18.51
19.35
20.19
20.93
21.48
21.78
21.88
21.76
21.31
20.30
18.44
15.52
11.49
6.50
0.82
-5.14
-11.06
-16.68
-21.93
-26.90
-31.85
-37.00
-42.39
-47.69
-52.19
-54.91
-54.98
-51.89
-45.69
-36.96
-26.61
-15.68
-5.16
4.17
11.71
17.15
20.52
22.17
22.68
22.69
22.64
22.72
22.84
22.81
22.45
21.68
20.52
19.07
17.42
15.62
13.67
11.45
8.81
5.64
1.95
-2.06
-6.11
-9.86
-13.21
-16.29
-19.47
-23.26
-28.05
-33.97
-40.73
-47.59
-53.49
-57.27
-57.95
-55.04
-48.73
-39.75
-29.16
-18.01
-7.12
2.99
12.02
19.76
26.12
31.07
34.76
37.44
39.36
40.64
41.25
41.06
39.94
37.89
35.06
31.73
28.19
24.68
21.29
17.95
14.43
10.51
6.01
1.02
-4.15
-9.03
-13.18
-16.39
-18.79
-20.92
-23.51
-27.35
-33.03
-40.63
-49.58
-58.64
-66.06
-70.07
-69.42
-63.83
-54.17
-42.04
-29.26
-17.11
-6.04
4.20
14.14
23.98
33.43
41.72
48.06
52.07
54.06
55.03
56.29
58.99
63.60
69.59
75.47
79.27
79.29
74.63
65.55
53.14
38.78
23.42
7.53
-8.84
-25.59
-42.28
-58.32
-73.39
-87.85
-102.45
-117.49
-132.04
-143.91
-150.70
-151.34
-147.13
-141.36
-137.77
-138.66
-144.12
-152.61
-162.64
-174.04
-187.82
-204.56
-222.42
-236.55
-240.19
-227.41
-195.69
-147.17
-87.86
-25.49
32.80
82.17
120.28
146.85
162.61
168.50
165.39
154.26
136.83
115.87
95.15
78.63
69.12
67.13
70.47
75.11
76.79
72.96
63.62
51.15
39.02
30.24
26.19
26.50
29.64
33.79
37.59
40.55
43.10
46.34
51.52
59.41
69.77
81.22
91.61
98.96
102.35
102.26
100.17
97.54
94.98
91.89
87.03
79.50
69.59
58.69
48.66
40.88
35.51
31.60
27.69
22.81
16.90
10.83
5.79
2.53
0.94
0.13
-1.02
-3.28
-6.63
-10.36
-13.57
-15.64
-16.69
-17.39
-18.77
-21.70
-26.59
-33.25
-40.89
-48.25
-53.95
-56.82
-56.20
-52.18
-45.47
-37.21
-28.61
-20.61
-13.80
-8.40
-4.43
-1.76
-0.26
0.31
0.18
-0.44
-1.35
-2.49
-3.85
-5.46
-7.37
-9.56
-11.94
-14.33
-16.49
-18.19
-19.30
-19.89
-20.17
-20.47
-21.08
-22.15
-23.65
-25.38
-27.12
-28.69
-30.05
-31.37
-32.96
-35.22
-38.48
-42.84
-48.03
-53.33
-57.61
-59.69
-58.57
-53.87
-45.97
-35.87
-24.87
-14.09
-4.18
4.70
12.66
19.79
25.93
30.74
33.93
35.53
35.94
35.84
35.78
36.05
36.47
36.62
36.13
34.95
33.33
31.68
30.32
29.19
27.94
26.12
23.39
19.73
15.46
11.03
6.89
3.22
-0.10
-3.43
-7.25
-11.98
-17.78
-24.51
-31.67
-38.39
-43.65
-46.52
-46.42
-43.31
-37.66
-30.28
-22.10
-13.83
-5.94
1.41
8.17
14.31
19.69
24.07
27.28
29.24
30.06
30.03
29.50
28.79
28.07
27.32
26.42
25.25
23.74
21.87
19.61
16.87
13.51
9.48
4.90
0.13
-4.36
-8.14
-11.04
-13.28
-15.40
-18.09
-21.93
-27.18
-33.55
-40.24
-46.03
-49.67
-50.23
-47.43
-41.74
-34.16
-25.76
-17.20
-8.51
0.77
11.19
22.82
35.02
46.42
55.50
61.19
63.41
63.19
62.25
62.29
64.10
67.24
70.19
71.19
69.23
64.84
60.02
57.54
59.70
67.42
79.73
94.01
106.67
113.83
112.13
99.56
76.26
44.81
9.81
-23.43
-50.87
-71.07
-85.31
-96.29
-106.09
-114.74
-120.29
-120.43
-114.37
-104.28
-94.75
-91.15
-97.41
-114.34
-139.07
-165.79
-187.34
-197.34
-192.08
-171.61
-139.68
-102.37
-66.31
-36.87
-17.11
-7.69
-7.48
-14.10
-24.46
-34.99
-41.92
-41.89
-32.69
-14.04
11.92
40.71
66.38
83.12
87.27
78.99
62.63
45.33
34.08
32.77
40.67
53.14
64.31
69.98
69.49
65.30
61.04
59.29
60.37
62.71
64.22
63.69
61.41
58.89
57.88
59.61
64.41
71.71
80.31
88.65
95.11
98.23
97.19
92.00
83.51
73.14
62.23
51.65
41.61
31.93
22.34
12.85
3.61
-5.31
-14.13
-23.48
-34.00
-46.04
-59.39
-73.31
-86.77
-98.67
-108.11
-114.27
-116.59
-114.76
-108.84
-99.39
-87.33
-73.73
-59.62
-45.79
-32.72
-20.82
-10.35
-1.57
5.40
10.60
14.24
16.65
18.19
19.19
19.88
20.44
20.92
21.36
21.71
21.92
21.90
21.50
20.49
18.68
15.97
12.45
8.39
4.12
-0.08
-4.10
-8.03
-12.11
-16.74
-22.32
-29.13
-37.07
-45.47
-53.03
-58.13
-59.30
-55.82
-47.96
-36.96
-24.48
-12.01
-0.43
10.08
19.76
28.89
37.48
45.15
51.33
55.47
57.26
56.89
54.92
52.23
49.74
48.16
47.70
48.16
48.92
49.29
48.74
46.98
44.05
40.12
35.41
30.14
24.52
18.80
13.21
7.86
2.65
-2.87
-9.33
-17.32
-27.02
-37.88
-48.57
-57.19
-61.79
-61.04
-54.61
-43.33
-28.89
-13.25
2.03
16.01
28.48
39.60
49.52
58.18
65.29
70.59
73.97
75.67
76.15
75.87
75.21
74.30
73.06
71.33
69.07
66.37
63.54
60.92
58.74
56.98
55.37
53.43
50.61
46.45
40.74
33.78
26.65
21.25
19.83
24.03
33.80
46.74
58.48
64.12
60.10
45.83
23.94
-0.65
-22.49
-37.46
-43.90
-42.72
-36.71
-29.58
-24.86
-25.21
-31.90
-44.49
-60.71
-76.93
-89.01
-93.85
-90.75
-82.14
-73.28
-70.29
-77.56
-95.23
-118.46
-138.98
-148.52
-142.41
-121.50
-91.47
-59.94
-33.12
-13.83
-1.58
5.92
10.72
13.76
15.13
15.03
14.53
15.40
19.17
26.20
35.35
44.55
51.90
56.47
58.65
59.65
60.52
61.44
61.46
59.16
53.67
45.63
37.25
31.53
30.89
36.04
45.64
56.96
67.03
73.69
76.10
74.65
70.45
64.76
58.67
52.92
47.96
44.01
40.98
38.53
36.06
32.79
28.14
21.92
14.51
6.77
-0.44
-6.71
-12.43
-18.63
-26.57
-37.09
-50.25
-65.24
-80.61
-94.70
-105.93
-112.97
-114.91
-111.41
-102.78
-90.14
-75.07
-59.31
-44.22
-30.48
-18.17
-7.03
3.13
12.23
19.86
25.58
29.17
30.68
30.51
29.16
27.15
24.89
22.72
20.92
19.70
19.14
19.14
19.32
19.10
17.90
15.32
11.34
6.42
1.25
-3.47
-7.43
-10.79
-14.18
-18.36
-23.87
-30.71
-38.23
-45.26
-50.39
-52.35
-50.37
-44.41
-35.10
-23.61
-11.27
0.78
11.80
21.49
29.76
36.57
41.74
45.01
46.22
45.51
43.32
40.27
36.89
33.37
29.54
25.02
19.52
13.04
5.94
-1.24
-8.11
-14.55
-20.78
-26.98
-33.17
-38.91
-43.63
-46.87
-48.62
-49.49
-50.44
-52.47
-56.20
-61.65
-68.23
-74.89
-80.32
-83.20
-82.52
-77.80
-69.27
-57.76
-44.53
-30.84
-17.72
-5.79
4.51
12.91
19.22
23.47
26.00
27.42
28.41
29.43
30.52
31.41
31.74
31.38
30.53
29.57
28.87
28.54
28.39
28.09
27.31
25.87
23.86
21.48
19.05
16.81
14.93
13.39
11.99
10.41
8.22
5.04
0.62
-5.05
-11.57
-18.05
-23.05
-24.68
-20.97
-10.52
6.90
30.03
56.36
82.84
106.83
126.66
141.75
152.07
157.62
158.21
153.70
144.46
131.61
116.81
101.64
86.95
72.75
58.51
43.83
28.83
14.21
0.77
-11.02
-21.25
-30.37
-38.86
-46.88
-54.23
-60.60
-65.71
-69.58
-72.44
-74.66
-76.69
-78.94
-81.80
-85.45
-89.68
-93.72
-96.37
-96.33
-92.74
-85.57
-75.58
-64.10
-52.50
-41.83
-32.55
-24.73
-18.21
-12.86
-8.56
-5.21
-2.67
-0.74
0.73
1.84
2.58
2.90
2.83
2.44
1.91
1.37
0.93
0.50
-0.07
-0.95
-2.31
-4.21
-6.65
-9.51
-12.65
-15.80
-18.70
-21.13
-23.13
-25.00
-27.32
-30.67
-35.29
-40.84
-46.31
-50.34
-51.63
-49.43
-43.79
-35.47
-25.74
-15.86
-6.84
0.80
6.97
11.84
15.64
18.53
20.55
21.70
22.00
21.60
20.71
19.47
18.01
16.36
14.52
12.53
10.53
8.68
7.06
5.62
4.13
2.31
-0.11
-3.23
-6.95
-10.95
-14.73
-17.84
-20.01
-21.37
-22.44
-24.02
-26.88
-31.35
-37.07
-42.98
-47.64
-49.62
-48.03
-42.78
-34.57
-24.60
-14.11
-4.02
5.27
13.74
21.55
28.68
34.86
39.70
42.80
44.08
43.73
42.24
40.11
37.78
35.52
33.44
31.61
30.04
28.67
27.35
25.83
23.85
21.27
18.11
14.53
10.69
6.67
2.44
-2.03
-6.64
-11.18
-15.41
-19.22
-22.78
-26.40
-30.31
-34.41
-38.13
-40.54
-40.72
-38.17
-32.95
-25.62
-17.07
-8.24
0.10
7.44
13.48
18.13
21.56
24.04
25.87
27.25
28.13
28.32
27.56
25.78
23.21
20.32
17.66
15.58
14.14
13.05
11.93
10.36
8.12
5.20
1.82
-1.64
-4.64
-6.55
-6.85
-5.30
-2.18
1.70
5.19
7.21
7.18
5.14
1.73
-2.21
-5.89
-8.82
-10.73
-11.47
-11.03
-9.51
-7.27
-4.98
-3.49
-3.63
-5.98
-10.77
-18.08
-27.90
-40.09
-54.05
-68.30
-80.59
-88.41
-90.03
-85.31
-75.95
-64.73
-54.23
-45.68
-38.87
-32.98
-27.56
-22.98
-19.90
-18.18
-16.36
-11.99
-3.07
10.60
27.05
42.99
55.45
63.13
66.43
66.66
64.63
60.08
52.09
40.11
24.96
8.87
-5.27
-15.10
-19.55
-18.97
-14.70
-8.21
-0.80
6.54
12.92
17.49
19.63
19.22
16.78
13.30
9.81
6.89
4.58
2.53
0.42
-1.68
-3.35
-4.00
-3.29
-1.34
1.28
3.76
5.43
5.91
5.26
3.80
1.85
-0.47
-3.30
-7.01
-11.89
-18.06
-25.40
-33.67
-42.63
-52.11
-61.91
-71.52
-80.02
-86.15
-88.65
-86.75
-80.50
-70.82
-59.12
-46.82
-34.87
-23.65
-13.09
-3.13
6.14
14.33
20.98
25.85
29.00
30.81
31.74
32.15
32.16
31.79
31.06
30.08
29.01
28.00
26.98
25.68
23.69
20.70
16.68
11.87
6.75
1.83
-2.61
-6.64
-10.64
-15.17
-20.78
-27.71
-35.79
-44.34
-52.27
-58.26
-61.09
-59.98
-54.87
-46.45
-35.86
-24.44
-13.21
-2.71
6.89
15.61
23.38
29.96
35.05
38.49
40.38
41.06
40.92
40.22
38.99
37.11
34.49
31.24
27.66
24.18
21.18
18.72
16.51
14.00
10.66
6.35
1.51
-2.91
-5.68
-5.67
-2.12
5.23
16.20
30.06
45.51
60.67
73.32
81.48
84.13
81.61
75.48
67.89
60.68
54.86
50.65
47.87
46.31
45.70
45.38
43.86
38.97
28.47
11.12
-12.34
-38.98
-64.31
-83.68
-93.84
-94.23
-87.16
-77.13
-69.22
-67.41
-73.21
-85.05
-99.00
-110.06
-113.98
-108.58
-94.29
-73.61
-49.99
-26.61
-5.54
12.30
26.78
38.02
46.15
51.45
54.67
57.18
60.59
66.19
74.26
83.98
93.70
101.78
107.17
109.79
110.51
110.67
111.52
113.66
116.80
119.70
120.57
117.74
110.43
99.16
85.67
72.29
60.96
52.58
46.86
42.73
39.11
35.50
31.99
28.94
26.42
23.95
20.65
15.67
8.63
-0.19
-10.06
-20.12
-29.81
-39.00
-47.95
-57.11
-66.88
-77.29
-87.87
-97.61
-105.11
-109.01
-108.33
-102.89
-93.35
-81.02
-67.41
-53.84
-41.16
-29.77
-19.79
-11.30
-4.43
0.69
4.01
5.69
6.01
5.34
3.99
2.15
-0.07
-2.60
-5.33
-8.08
-10.73
-13.24
-15.77
-18.52
-21.76
-25.59
-30.00
-34.87
-40.07
-45.49
-51.11
-57.05
-63.50
-70.86
-79.51
-89.72
-101.31
-113.42
-124.44
-132.15
-134.18
-128.61
-114.57
-92.47
-63.98
-31.61
1.91
34.15
63.25
87.97
107.52
121.50
130.00
133.76
134.23
133.32
132.77
133.61
135.70
137.97
138.96
137.54
133.23
126.18
116.89
105.75
93.00
78.87
63.85
48.84
35.13
23.98
16.37
12.59
12.08
13.39
14.47
13.19
8.19
-0.54
-11.45
-21.90
-29.25
-31.90
-29.94
-24.90
-18.88
-13.54
-9.54
-6.59
-4.14
-1.95
-0.35
0.03
-1.18
-3.75
-6.97
-9.98
-12.35
-14.14
-15.82
-17.80
-20.11
-22.31
-23.75
-23.90
-22.68
-20.47
-17.98
-15.88
-14.66
-14.44
-15.11
-16.45
-18.23
-20.35
-22.84
-25.85
-29.62
-34.45
-40.54
-47.91
-56.11
-64.21
-70.84
-74.55
-74.26
-69.61
-61.08
-49.84
-37.28
-24.56
-12.32
-0.67
10.50
21.12
30.74
38.52
43.64
45.73
45.31
43.74
42.87
44.39
49.15
56.90
66.44
76.11
84.31
89.90
92.31
91.28
86.71
78.47
66.56
51.42
34.19
16.59
0.55
-12.46
-22.07
-29.23
-35.97
-44.75
-57.65
-75.59
-98.00
-122.88
-147.16
-167.28
-179.84
-182.40
-174.29
-157.10
-134.58
-111.79
-93.57
-82.83
-79.38
-79.84
-78.98
-71.86
-55.79
-31.28
-1.56
29.03
56.76
79.61
97.25
110.33
119.54
125.31
127.95
128.07
126.80
125.43
124.77
124.53
123.35
119.38
111.17
98.31
81.75
63.51
45.96
31.14
20.18
13.10
8.92
6.04
2.80
-1.84
-7.87
-14.16
-18.89
-20.20
-17.05
-9.74
0.17
10.52
19.38
25.73
29.69
32.07
33.75
35.15
36.04
35.89
34.35
31.56
28.21
25.22
23.21
22.27
21.95
21.55
20.58
18.88
16.60
13.87
10.65
6.64
1.56
-4.67
-11.76
-19.09
-26.02
-32.09
-37.23
-41.71
-46.14
-51.03
-56.69
-62.86
-68.77
-73.16
-74.79
-72.84
-67.36
-59.32
-50.26
-41.69
-34.62
-29.29
-25.40
-22.46
-20.18
-18.56
-17.81
-18.10
-19.40
-21.39
-23.58
-25.51
-26.86
-27.58
-27.84
-27.95
-28.20
-28.80
-29.82
-31.25
-33.05
-35.14
-37.44
-39.80
-42.06
-44.15
-46.26
-48.76
-52.15
-56.71
-62.27
-68.10
-73.01
-75.80
-75.59
-72.14
-65.87
-57.65
-48.42
-38.88
-29.13
-18.49
-5.73
10.48
30.60
53.63
76.92
96.77
109.61
113.15
107.06
92.93
73.63
52.33
31.86
14.42
1.47
-6.14
-8.31
-5.65
0.51
8.46
16.47
23.19
27.84
30.18
30.43
29.10
26.83
24.21
21.60
19.06
16.30
13.01
9.07
4.86
1.15
-1.15
-1.49
0.10
2.99
6.36
9.60
12.49
15.15
17.69
19.98
21.62
22.17
21.41
19.42
16.59
13.25
9.63
5.79
1.89
-1.81
-4.86
-6.84
-7.62
-7.50
-7.05
-6.97
-7.77
-9.64
-12.46
-15.92
-19.72
-23.65
-27.62
-31.56
-35.49
-39.46
-43.63
-48.23
-53.45
-59.29
-65.31
-70.63
-74.13
-74.71
-71.68
-64.99
-55.25
-43.46
-30.76
-18.15
-6.34
4.20
13.25
20.66
26.41
30.49
33.04
34.25
34.39
33.76
32.53
30.77
28.51
25.85
23.08
20.66
19.01
18.30
18.29
18.35
17.69
15.78
12.50
8.19
3.37
-1.46
-6.06
-10.48
-14.96
-19.83
-25.41
-31.96
-39.52
-47.75
-55.78
-62.33
-65.90
-65.23
-59.86
-50.20
-37.56
-23.60
-9.87
2.55
13.17
21.91
28.80
33.89
37.19
38.80
39.06
38.46
37.56
36.71
36.00
35.20
33.99
32.18
29.88
27.50
25.43
23.87
22.56
20.88
18.13
13.88
8.24
1.75
-4.84
-10.94
-16.23
-20.65
-24.25
-27.13
-29.40
-31.31
-33.08
-34.74
-35.85
-35.58
-33.10
-28.05
-20.89
-12.68
-4.51
3.14
10.69
19.06
28.92
39.96
50.62
58.48
61.04
56.69
45.15
27.64
6.58
-14.88
-33.45
-46.30
-51.83
-50.07
-42.64
-32.21
-21.49
-12.32
-5.37
-0.54
2.21
2.15
-2.15
-11.95
-27.13
-45.56
-63.56
-77.29
-84.58
-85.86
-83.74
-81.54
-81.33
-82.93
-84.07
-81.83
-74.33
-61.87
-46.64
-31.77
-19.77
-11.45
-5.85
-0.66
6.83
18.91
36.75
59.93
86.37
112.72
135.20
150.85
158.58
159.56
156.76
153.71
153.19
156.25
162.18
169.01
174.31
176.03
172.95
164.83
152.27
136.44
118.69
100.23
81.90
64.14
47.24
31.34
16.46
2.35
-11.51
-25.69
-40.40
-54.98
-67.84
-76.74
-79.78
-76.18
-66.83
-53.99
-40.50
-28.78
-20.07
-14.37
-10.74
-8.13
-5.85
-3.89
-2.64
-2.52
-3.67
-5.72
-8.05
-10.00
-11.21
-11.65
-11.60
-11.37
-11.19
-11.19
-11.47
-12.23
-13.75
-16.35
-20.08
-24.68
-29.63
-34.32
-38.39
-41.93
-45.47
-49.75
-55.40
-62.56
-70.75
-78.90
-85.51
-89.06
-88.34
-82.89
-73.01
-59.79
-44.77
-29.58
-15.55
-3.54
6.05
13.16
17.86
20.38
20.92
19.92
17.96
15.75
13.97
13.18
13.63
15.28
17.84
20.88
23.98
26.77
29.13
31.09
32.76
34.18
35.21
35.51
34.65
32.42
29.01
25.00
21.11
17.90
15.51
13.65
11.95
10.21
8.60
7.39
6.60
5.76
4.02
0.61
-4.60
-10.87
-16.81
-21.03
-22.75
-22.04
-19.58
-16.12
-12.02
-7.27
-1.70
4.56
11.01
16.88
21.59
25.06
27.65
29.93
32.27
34.57
36.30
36.78
35.51
32.41
27.81
22.27
16.36
10.48
4.84
-0.59
-5.97
-11.60
-17.78
-24.72
-32.33
-40.10
-47.11
-52.13
-54.02
-52.03
-46.12
-36.94
-25.67
-13.64
-1.98
8.50
17.42
24.67
30.27
34.35
37.05
38.52
38.93
38.43
37.20
35.45
33.36
31.13
28.91
26.79
24.83
23.00
21.31
19.70
18.05
16.13
13.66
10.40
6.28
1.49
-3.63
-8.68
-13.47
-18.11
-22.98
-28.53
-35.02
-42.30
-49.67
-56.00
-59.97
-60.47
-56.95
-49.56
-39.15
-26.96
-14.31
-2.21
8.64
17.94
25.59
31.58
35.99
38.92
40.56
41.09
40.72
39.58
37.78
35.42
32.67
29.78
27.03
24.73
23.04
22.00
21.36
20.70
19.46
17.17
13.68
9.22
4.42
-0.08
-3.91
-7.22
-10.64
-14.95
-20.81
-28.36
-37.19
-46.35
-54.53
-60.24
-62.07
-58.91
-50.30
-36.65
-19.33
-0.43
17.79
33.34
45.00
52.35
55.60
55.35
52.43
47.82
42.62
37.97
34.68
32.73
30.99
27.43
19.89
7.14
-10.16
-29.32
-46.33
-57.17
-59.49
-53.57
-42.31
-30.31
-22.27
-21.46
-28.73
-42.36
-58.74
-73.52
-82.98
-84.99
-79.44
-67.89
-52.72
-36.22
-19.80
-4.06
10.84
24.57
36.27
44.65
48.62
48.01
43.83
38.09
32.92
29.81
29.11
29.94
30.84
30.50
28.43
25.10
21.62
19.13
18.17
18.42
18.91
18.56
16.72
13.47
9.48
5.55
2.14
-0.85
-3.99
-8.00
-13.33
-20.02
-27.73
-35.98
-44.41
-52.90
-61.37
-69.66
-77.23
-83.09
-86.02
-84.98
-79.50
-69.95
-57.49
-43.64
-29.88
-17.26
-6.27
2.96
10.60
16.80
21.80
25.80
29.06
31.80
34.05
35.69
36.46
36.18
34.87
32.88
30.74
28.93
27.64
26.63
25.35
23.12
19.53
14.58
8.76
2.72
-2.90
-7.84
-12.19
-16.31
-20.69
-25.74
-31.76
-38.77
-46.43
-54.03
-60.41
-64.27
-64.48
-60.59
-52.89
-42.43
-30.57
-18.51
-6.95
3.87
14.01
23.49
32.06
39.30
44.80
48.39
50.27
51.01
51.30
51.74
52.67
54.03
55.43
56.26
55.98
54.36
51.63
48.64
46.76
47.50
52.04
60.49
71.41
81.77
87.58
84.92
71.35
46.71
13.41
-24.34
-61.76
-94.74
-120.66
-138.44
-148.19
-150.50
-146.11
-135.75
-120.47
-101.79
-81.78
-62.89
-47.39
-36.93
-32.24
-32.87
-37.27
-42.99
-47.17
-47.40
-42.70
-34.23
-25.49
-21.55
-27.50
-46.45
-77.73
-116.19
-152.99
-178.02
-183.10
-164.84
-125.92
-74.11
-19.59
28.46
64.45
87.21
98.99
103.57
104.40
103.61
102.15
100.25
97.79
94.57
90.24
84.51
77.35
69.37
61.85
56.55
55.13
58.53
66.52
77.59
89.27
98.75
103.66
102.77
96.30
85.77
73.52
61.96
52.86
46.92
43.75
42.17
40.65
37.90
33.15
26.36
18.14
9.49
1.42
-5.42
-10.95
-15.66
-20.34
-25.74
-32.33
-40.16
-48.96
-58.44
-68.34
-78.54
-88.80
-98.61
-106.96
-112.50
-113.82
-110.01
-101.01
-87.71
-71.74
-54.94
-38.88
-24.46
-11.94
-1.12
8.27
16.27
22.61
26.90
28.90
28.72
26.93
24.34
21.79
19.89
18.86
18.55
18.56
18.41
17.63
15.92
13.18
9.44
4.86
-0.40
-6.17
-12.33
-18.74
-25.33
-32.03
-38.95
-46.29
-54.30
-62.98
-71.85
-79.86
-85.53
-87.34
-84.26
-76.16
-63.79
-48.59
-32.21
-16.12
-1.36
11.44
21.98
30.26
36.51
41.26
45.12
48.63
51.95
54.84
56.70
56.82
54.69
50.12
43.40
35.42
27.78
22.80
22.95
30.06
44.27
63.44
83.44
99.14
105.99
101.33
85.09
59.58
28.73
-3.15
-32.40
-56.78
-75.63
-89.50
-99.51
-106.65
-111.64
-114.93
-116.93
-117.85
-117.28
-113.74
-105.10
-89.67
-67.64
-41.82
-17.05
1.73
11.80
13.92
12.00
11.15
15.47
26.47
42.95
62.05
80.78
97.19
110.80
122.27
132.55
142.10
150.48
156.54
158.99
157.07
150.84
141.03
128.51
113.82
97.07
78.15
57.23
35.12
13.23
-6.74
-23.26
-35.32
-42.51
-45.05
-43.58
-39.04
-32.41
-24.46
-15.66
-6.13
4.03
14.51
24.48
32.79
38.34
40.59
39.84
37.12
33.79
30.86
28.66
26.83
24.67
21.70
18.00
14.12
10.78
8.28
6.30
4.06
0.69
-4.21
-10.44
-17.27
-23.87
-29.71
-34.72
-39.27
-43.94
-49.29
-55.69
-63.30
-71.86
-80.67
-88.52
-93.84
-95.08
-91.16
-81.90
-68.05
-51.09
-32.78
-14.73
1.89
16.41
28.48
37.97
44.85
49.18
51.13
51.02
49.23
46.16
42.12
37.32
31.88
25.93
19.76
13.81
8.64
4.83
2.59
1.65
1.14
-0.14
-3.25
-8.55
-15.50
-22.75
-28.77
-32.68
-34.83
-36.93
-41.32
-49.86
-62.84
-78.25
-92.15
-99.49
-95.64
-77.59
-44.98
-0.48
50.31
99.81
139.88
164.03
169.22
156.77
131.87
101.65
72.74
49.44
33.21
23.48
19.15
19.57
24.64
34.11
46.80
60.35
71.80
78.66
79.68
75.13
66.23
54.46
40.85
25.88
9.74
-7.22
-24.24
-40.32
-54.55
-66.56
-76.66
-85.50
-93.65
-101.12
-107.14
-110.36
-109.47
-103.67
-93.12
-78.85
-62.47
-45.68
-29.82
-15.72
-3.71
6.17
13.96
19.81
23.85
26.33
27.56
27.91
27.78
27.47
27.16
26.85
26.34
25.36
23.64
21.04
17.59
13.44
8.81
3.93
-0.97
-5.64
-9.87
-13.57
-16.97
-20.67
-25.53
-32.41
-41.72
-53.16
-65.47
-76.80
-85.01
-88.33
-85.84
-77.74
-65.26
-50.19
-34.43
-19.43
-6.07
5.38
14.90
22.57
28.42
32.48
34.81
35.52
34.85
33.03
30.35
27.17
23.96
21.18
19.15
17.89
17.12
16.33
14.96
12.63
9.21
4.86
-0.05
-5.02
-9.61
-13.54
-16.79
-19.67
-22.79
-26.86
-32.47
-39.82
-48.55
-57.62
-65.52
-70.45
-70.97
-66.29
-56.56
-42.86
-26.78
-10.02
6.00
20.35
32.55
42.41
49.91
55.05
57.98
58.94
58.23
56.21
53.19
49.53
45.56
41.65
38.12
35.14
32.75
30.79
28.95
26.86
24.24
20.88
16.77
12.01
6.79
1.30
-4.38
-10.22
-16.31
-22.80
-29.93
-37.87
-46.71
-56.25
-65.81
-74.24
-80.00
-81.59
-78.01
-69.16
-55.92
-39.94
-23.17
-7.36
6.31
17.34
25.82
32.24
37.23
41.40
45.16
48.63
51.66
53.90
54.99
54.64
52.84
49.79
45.86
41.48
36.96
32.46
27.91
23.16
18.09
12.67
7.04
1.42
-3.98
-9.09
-13.98
-18.93
-24.34
-30.62
-38.09
-46.75
-56.12
-65.11
-72.32
-76.18
-75.56
-70.02
-60.02
-46.68
-31.41
-15.42
0.57
16.41
32.19
47.81
62.59
75.18
83.80
86.78
83.12
73.13
58.38
41.52
25.57
13.17
6.00
4.55
8.10
14.87
22.33
27.46
27.26
19.46
3.53
-18.72
-43.16
-64.57
-78.48
-83.08
-79.96
-73.40
-68.37
-68.39
-74.07
-83.13
-91.61
-95.47
-91.95
-80.05
-60.31
-34.43
-4.75
26.06
55.30
80.64
100.59
114.62
123.02
126.50
125.75
121.13
112.79
101.02
86.57
70.80
55.36
41.67
30.50
21.91
15.45
10.66
7.20
4.86
3.21
1.52
-1.09
-5.07
-9.97
-14.45
-17.13
-17.72
-17.68
-19.85
-26.98
-40.24
-58.16
-77.00
-92.20
-100.15
-99.32
-90.63
-76.61
-60.31
-44.33
-30.33
-19.07
-10.59
-4.39
0.32
4.54
9.27
15.21
22.56
30.97
39.60
47.32
53.16
56.60
57.74
57.28
56.17
55.41
55.64
56.96
58.92
60.52
60.34
56.79
48.40
34.30
14.66
-8.91
-33.58
-55.86
-72.70
-82.48
-85.57
-84.10
-80.95
-78.51
-77.75
-78.02
-77.58
-74.64
-68.22
-58.60
-47.09
-35.30
-24.60
-15.52
-7.92
-1.28
4.78
10.24
14.79
18.02
19.80
20.33
20.13
19.69
19.33
19.11
18.89
18.45
17.67
16.55
15.19
13.81
12.58
11.47
10.20
8.29
5.31
1.06
-4.24
-10.05
-15.80
-21.19
-26.37
-31.82
-38.10
-45.42
-53.43
-61.15
-67.27
-70.42
-69.69
-64.87
-56.51
-45.78
-34.02
-22.46
-11.82
-2.34
6.09
13.65
20.36
25.96
30.16
32.72
33.68
33.38
32.25
30.75
29.16
27.58
26.05
24.64
23.51
22.77
22.39
22.08
21.38
19.78
16.99
13.04
8.29
3.31
-1.47
-5.80
-9.84
-14.08
-19.13
-25.54
-33.50
-42.63
-51.88
-59.72
-64.43
-64.69
-59.92
-50.60
-38.07
-24.13
-10.46
1.80
12.22
20.91
28.14
34.16
39.01
42.70
45.23
46.69
47.23
46.92
45.80
43.89
41.32
38.36
35.31
32.49
30.02
27.83
25.60
23.00
19.67
15.49
10.51
4.93
-0.89
-6.64
-12.04
-16.97
-21.58
-26.29
-31.71
-38.43
-46.62
-55.69
-64.23
-70.28
-72.01
-68.36
-59.62
-47.26
-33.42
-20.13
-8.62
0.80
8.50
15.05
20.77
25.63
29.35
31.60
32.23
31.23
28.75
25.03
20.57
16.26
13.33
13.09
16.33
22.85
31.37
39.89
46.56
50.35
51.30
50.15
47.64
43.91
38.40
30.30
19.31
6.14
-7.59
-19.93
-29.38
-35.49
-38.87
-40.91
-43.06
-46.31
-50.78
-55.69
-59.42
-59.77
-54.49
-42.06
-22.55
1.94
27.46
49.21
63.02
66.76
61.24
49.91
37.87
30.21
30.40
39.30
55.02
73.67
90.61
101.92
105.40
100.95
90.18
75.52
59.21
42.77
26.99
12.15
-1.51
-13.69
-24.17
-33.08
-41.02
-48.94
-57.73
-67.67
-78.09
-87.42
-93.77
-95.52
-91.97
-83.58
-71.70
-58.12
-44.42
-31.62
-20.04
-9.62
-0.11
8.47
15.76
21.19
24.34
25.18
24.28
22.61
21.15
20.49
20.55
20.82
20.66
19.83
18.62
17.63
17.36
17.83
18.52
18.58
17.31
14.44
10.25
5.24
-0.06
-5.40
-10.82
-16.58
-23.04
-30.49
-39.03
-48.30
-57.44
-65.05
-69.56
-69.72
-65.01
-55.90
-43.60
-29.61
-15.17
-0.99
12.74
26.08
38.94
50.95
61.41
69.52
74.70
76.79
76.21
73.86
70.81
67.81
65.08
62.29
58.93
54.71
49.85
44.93
40.51
36.62
32.71
27.88
21.36
12.95
3.13
-7.19
-17.22
-26.67
-35.90
-45.73
-56.92
-69.64
-83.03
-95.32
-104.18
-107.56
-104.47
-95.39
-82.14
-67.14
-52.57
-39.62
-28.43
-18.41
-8.92
0.24
8.70
15.77
20.91
24.02
25.53
26.09
26.34
26.60
26.86
26.89
26.48
25.53
24.13
22.42
20.45
18.16
15.37
11.88
7.65
2.82
-2.26
-7.27
-12.07
-16.88
-22.25
-28.74
-36.53
-44.99
-52.67
-57.66
-58.34
-53.96
-45.03
-33.06
-19.99
-7.43
3.92
14.14
23.85
33.55
43.28
52.52
60.44
66.21
69.31
69.78
68.03
64.84
61.06
57.41
54.27
51.60
49.08
46.24
42.70
38.28
32.90
26.37
18.25
8.13
-4.24
-18.62
-34.32
-50.31
-65.49
-78.71
-88.79
-94.65
-95.52
-91.46
-83.78
-74.84
-67.44
-63.69
-64.02
-66.90
-69.49
-68.82
-62.96
-51.63
-35.82
-17.03
3.52
25.30
48.27
72.35
97.01
121.09
143.14
161.62
175.18
182.60
182.97
175.90
161.99
142.98
121.51
100.32
81.25
64.65
49.46
33.99
16.78
-2.68
-23.92
-45.80
-66.93
-85.98
-101.67
-112.75
-118.17
-117.34
-110.55
-99.01
-84.81
-70.18
-57.04
-46.46
-38.61
-33.01
-28.94
-25.78
-23.28
-21.42
-20.29
-19.78
-19.56
-19.14
-17.97
-15.74
-12.46
-8.41
-4.14
-0.21
2.89
4.91
5.74
5.51
4.43
2.74
0.62
-1.89
-4.79
-8.27
-12.56
-17.93
-24.50
-32.11
-40.11
-47.34
-52.27
-53.40
-49.82
-41.55
-29.60
-15.73
-1.86
10.54
20.70
28.59
34.63
39.35
43.12
46.05
48.14
49.33
49.63
49.17
48.17
46.94
45.91
45.48
45.94
47.33
49.24
50.97
51.58
50.22
46.46
40.39
32.72
24.47
16.71
10.19
5.12
1.11
-2.69
-7.29
-13.44
-21.20
-29.84
-37.93
-43.79
-46.05
-44.08
-38.27
-29.69
-19.82
-9.99
-1.07
6.56
12.87
17.95
21.79
24.26
25.22
24.68
22.89
20.29
17.40
14.56
11.90
9.39
6.87
4.25
1.47
-1.53
-4.86
-8.66
-13.02
-17.97
-23.31
-28.84
-34.31
-39.53
-44.46
-49.19
-54.02
-59.42
-65.88
-73.54
-81.90
-89.62
-94.74
-95.30
-90.05
-78.97
-63.28
-45.04
-26.39
-9.03
6.14
18.86
29.21
37.28
43.03
46.37
47.25
45.89
42.68
38.25
33.30
28.64
25.07
23.33
23.83
26.33
29.74
32.14
31.25
25.28
13.65
-2.64
-21.20
-38.82
-52.40
-59.76
-60.31
-55.36
-48.00
-42.47
-43.04
-52.73
-72.14
-98.85
-127.70
-151.85
-164.39
-160.18
-137.37
-98.04
-47.74
6.04
55.93
96.65
125.77
143.39
151.02
150.40
142.98
130.19
113.89
96.66
81.49
70.92
66.19
66.93
71.47
77.48
82.87
86.30
87.27
85.84
82.21
76.46
68.47
58.35
46.71
34.81
24.12
15.65
9.30
3.78
-2.77
-11.83
-23.64
-37.04
-49.87
-59.90
-65.53
-66.21
-62.37
-55.00
-45.27
-34.17
-22.42
-10.54
1.04
11.85
21.34
28.94
34.18
36.86
37.20
35.73
33.18
30.23
27.32
24.58
21.83
18.71
14.69
9.22
1.84
-7.70
-19.26
-32.22
-45.55
-58.07
-68.67
-76.71
-82.10
-85.37
-87.42
-89.25
-91.68
-95.12
-99.47
-104.13
-108.07
-110.02
-108.80
-103.59
-94.28
-81.46
-66.22
-49.89
-33.51
-17.67
-2.57
11.75
25.12
37.04
46.88
54.17
58.91
61.67
63.33
64.65
65.85
66.42
65.37
61.54
54.28
43.69
30.90
17.84
6.84
-0.05
-1.65
1.92
9.15
17.65
24.74
28.25
27.04
21.20
11.72
0.02
-12.50
-24.75
-35.94
-45.37
-52.31
-55.89
-55.27
-49.94
-40.13
-26.90
-12.11
2.13
14.11
23.06
29.28
33.79
37.69
41.48
44.83
46.82
46.62
43.98
39.52
34.40
29.77
26.20
23.67
21.76
19.99
18.20
16.41
14.71
12.89
10.55
7.25
2.72
-2.85
-8.95
-14.85
-20.05
-24.41
-28.28
-32.37
-37.49
-44.19
-52.38
-61.16
-68.92
-73.71
-73.83
-68.47
-57.98
-43.85
-28.21
-13.12
-0.01
10.67
19.24
26.46
32.92
38.73
43.49
46.57
47.53
46.44
43.91
41.00
38.67
37.48
37.43
37.92
38.16
37.52
35.82
33.39
30.84
28.76
27.37
26.38
25.08
22.65
18.51
12.44
4.70
-4.16
-13.36
-21.86
-28.39
-31.60
-30.50
-25.00
-16.26
-6.38
2.42
8.82
12.88
15.82
19.08
23.30
27.98
31.89
34.05
34.47
34.21
34.54
36.03
37.95
38.50
35.86
28.92
17.88
4.08
-10.43
-23.26
-32.12
-35.35
-32.47
-24.73
-15.11
-7.47
-5.06
-8.99
-17.44
-26.33
-31.11
-28.76
-19.02
-4.20
12.17
27.03
38.94
48.08
55.52
62.11
67.77
71.51
72.06
68.74
61.92
52.91
43.35
34.34
26.03
17.75
8.55
-1.99
-13.21
-23.59
-31.28
-35.06
-34.95
-32.29
-29.19
-27.67
-28.94
-32.99
-38.82
-44.94
-50.03
-53.37
-54.88
-55.04
-54.46
-53.67
-52.95
-52.48
-52.54
-53.66
-56.54
-61.73
-69.22
-78.11
-86.62
-92.47
-93.63
-88.98
-78.71
-64.21
-47.50
-30.54
-14.64
-0.34
12.42
23.80
33.80
42.20
48.74
53.35
56.23
57.83
58.53
58.57
58.03
56.97
55.59
54.28
53.47
53.33
53.64
53.77
52.95
50.56
46.39
40.65
33.95
27.02
20.54
15.03
10.71
7.46
4.90
2.36
-0.80
-4.91
-9.67
-14.11
-16.88
-16.91
-13.96
-8.86
-3.26
1.13
3.26
3.16
1.77
0.36
-0.06
0.81
2.57
4.49
5.96
6.73
6.97
7.05
7.32
7.92
8.75
9.56
10.17
10.52
10.68
10.77
10.74
10.37
9.29
7.18
3.98
-0.07
-4.49
-8.81
-12.77
-16.45
-20.21
-24.57
-29.99
-36.68
-44.33
-52.06
-58.48
-62.00
-61.30
-55.92
-46.34
-33.94
-20.47
-7.47
4.17
14.25
23.06
30.96
38.07
44.23
49.13
52.50
54.24
54.37
52.98
50.30
46.76
43.13
40.44
39.71
41.44
45.22
49.76
53.26
54.17
51.75
46.29
38.79
30.37
21.84
13.49
5.18
-3.30
-12.09
-21.33
-31.16
-41.77
-53.22
-65.04
-76.13
-84.86
-89.56
-89.12
-83.51
-73.78
-61.69
-49.10
-37.37
-27.08
-18.22
-10.45
-3.51
2.63
7.84
11.97
14.97
16.91
17.99
18.47
18.53
18.36
18.05
17.67
17.25
16.77
16.18
15.29
13.91
11.77
8.75
4.93
0.70
-3.45
-7.03
-9.89
-12.34
-15.01
-18.67
-23.82
-30.38
-37.53
-43.90
-47.99
-48.59
-45.23
-38.30
-28.88
-18.30
-7.70
2.27
11.46
19.97
27.83
34.83
40.61
44.82
47.41
48.70
49.20
49.45
49.68
49.85
49.67
48.91
47.51
45.64
43.65
41.89
40.69
40.24
40.70
42.07
44.18
46.47
48.03
47.69
44.36
37.32
26.44
12.22
-4.27
-21.54
-37.77
-51.00
-59.41
-61.65
-57.29
-47.01
-32.64
-16.66
-1.61
10.71
19.62
25.63
29.94
33.86
38.16
42.84
47.20
50.24
50.82
47.96
40.87
29.32
14.05
-3.07
-19.25
-31.60
-38.10
-38.47
-34.19
-27.93
-22.52
-20.18
-22.22
-29.16
-40.99
-57.27
-77.06
-98.85
-120.74
-140.78
-157.26
-168.80
-174.17
-172.21
-162.03
-143.52
-117.85
-87.75
-57.05
-29.81
-9.00
4.24
10.72
12.48
11.66
9.57
6.29
1.06
-6.96
-17.94
-31.07
-44.78
-57.20
-66.70
-72.31
-73.81
-71.69
-66.93
-60.72
-54.06
-47.55
-41.33
-35.36
-29.70
-24.75
-21.09
-19.01
-18.17
-17.50
-15.56
-11.23
-4.34
4.14
12.32
18.04
19.66
16.69
10.07
1.93
-4.98
-8.11
-5.87
1.93
14.08
28.51
43.00
55.92
66.54
74.93
81.58
86.88
90.85
93.11
93.24
91.00
86.51
80.20
72.67
64.47
56.11
48.04
40.77
34.86
30.82
28.89
28.79
29.57
29.71
27.42
21.31
10.93
-2.84
-17.95
-31.74
-41.97
-47.60
-49.16
-48.47
-47.87
-49.29
-53.57
-60.19
-67.53
-73.51
-76.26
-74.74
-68.96
-59.92
-49.07
-37.84
-27.12
-17.21
-7.95
0.91
9.37
17.07
23.47
28.08
30.77
31.77
31.60
30.79
29.73
28.57
27.32
25.99
24.67
23.55
22.85
22.58
22.53
22.23
21.19
19.00
15.62
11.31
6.59
2.07
-1.75
-4.66
-6.84
-8.82
-11.31
-14.96
-19.98
-25.97
-31.86
-36.16
-37.39
-34.62
-27.75
-17.52
-5.24
7.73
20.29
31.79
41.97
50.75
58.02
63.59
67.24
68.85
68.50
66.51
63.37
59.58
55.56
51.64
47.96
44.60
41.56
38.78
36.11
33.30
30.17
26.59
22.64
18.57
14.65
11.01
7.55
3.95
-0.24
-5.43
-11.88
-19.61
-28.34
-37.46
-45.98
-52.63
-56.18
-55.70
-50.94
-42.46
-31.46
-19.45
-7.77
2.69
11.63
19.19
25.60
31.06
35.52
38.76
40.58
40.88
39.84
37.82
35.32
32.77
30.38
28.19
26.07
23.87
21.50
18.91
16.12
13.09
9.76
6.08
2.08
-2.14
-6.39
-10.63
-14.90
-19.50
-24.81
-31.09
-38.20
-45.45
-51.62
-55.22
-54.89
-49.86
-40.22
-26.87
-11.27
5.01
20.64
34.77
47.00
57.24
65.58
72.10
76.87
79.99
81.67
82.19
81.88
81.01
79.73
78.04
75.85
73.17
70.09
66.78
63.44
60.17
56.85
53.22
48.92
43.73
37.60
30.71
23.36
15.82
8.15
0.22
-8.24
-17.34
-26.81
-35.79
-42.97
-46.93
-46.58
-41.52
-32.12
-19.39
-4.60
11.00
26.38
40.76
53.53
64.20
72.48
78.36
82.15
84.49
86.10
87.57
89.20
90.89
92.26
92.89
92.53
91.27
89.63
88.23
87.59
87.48
86.76
83.47
75.33
60.55
38.58
10.61
-20.53
-50.74
-75.70
-91.82
-97.20
-92.33
-80.18
-65.85
-55.51
-55.13
-68.90
-97.88
-139.23
-186.49
-230.91
-263.66
-278.40
-272.92
-249.57
-214.05
-173.00
-131.37
-91.00
-50.90
-8.61
38.03
89.98
146.62
205.88
264.31
317.11
358.58
383.24
387.34
370.50
336.39
292.09
246.00
204.83
171.00
141.67
110.24
69.79
17.22
-43.86
-103.58
-149.82
-174.13
-176.55
-166.00
-155.98
-157.90
-175.73
-204.70
-234.53
-254.88
-259.92
-249.87
-229.34
-204.30
-179.43
-157.09
-137.94
-122.09
-109.85
-101.92
-98.81
-100.20
-104.48
-108.79
-109.90
-105.41
-95.17
-81.48
-68.25
-59.38
-57.04
-60.76
-67.69
-74.02
-76.59
-74.12
-67.49
-59.13
-51.78
-47.36
-46.31
-47.71
-50.00
-51.87
-52.73
-52.62
-51.74
-49.96
-46.60
-40.81
-32.07
-20.67
-7.70
5.35
17.22
27.25
35.40
41.93
46.98
50.52
52.38
52.58
51.35
49.20
46.70
44.25
42.06
40.15
38.53
37.24
36.38
35.98
35.94
35.89
35.40
34.04
31.59
28.24
24.43
20.83
17.98
16.18
15.31
14.83
13.95
11.82
7.83
1.87
-5.48
-13.05
-19.31
-22.91
-23.09
-19.93
-14.31
-7.50
-0.65
5.55
10.91
15.57
19.71
23.33
26.27
28.30
29.26
29.14
28.06
26.20
23.73
20.82
17.71
14.73
12.25
10.56
9.73
9.52
9.46
9.05
7.94
6.13
3.91
1.79
0.16
-0.87
-1.46
-1.99
-2.82
-4.23
-6.32
-9.06
-12.19
-15.21
-17.35
-17.72
-15.58
-10.70
-3.54
4.86
13.18
20.32
25.69
29.31
31.54
32.78
33.22
32.82
31.44
29.05
25.83
22.11
18.31
14.70
11.38
8.31
5.37
2.43
-0.50
-3.37
-6.05
-8.45
-10.52
-12.31
-13.94
-15.60
-17.51
-19.84
-22.70
-26.05
-29.68
-33.09
-35.57
-36.23
-34.21
-28.87
-20.07
-8.31
5.32
19.33
32.27
43.17
51.76
58.33
63.38
67.32
70.20
71.94
72.57
72.32
71.49
70.16
68.00
64.45
59.11
52.08
44.06
36.00
28.59
21.98
15.86
9.80
3.65
-2.30
-7.58
-11.91
-15.40
-18.60
-22.22
-26.71
-32.04
-37.66
-42.60
-45.79
-46.43
-44.20
-39.38
-32.68
-25.07
-17.41
-10.37
-4.24
0.90
5.10
8.38
10.68
11.99
12.36
12.03
11.32
10.56
9.99
9.66
9.43
9.07
8.34
7.11
5.40
3.39
1.37
-0.41
-1.80
-2.82
-3.65
-4.56
-5.77
-7.45
-9.71
-12.61
-16.15
-20.07
-23.84
-26.69
-27.81
-26.62
-23.05
-17.58
-11.14
-4.63
1.31
6.44
10.69
13.90
15.77
15.99
14.56
11.98
9.29
7.72
8.18
10.72
14.47
18.27
21.17
22.84
23.66
24.49
26.46
30.26
35.63
41.11
45.13
46.50
44.87
40.83
35.82
31.96
30.82
32.44
34.77
35.71
33.92
29.35
23.32
18.20
17.25
22.89
35.62
53.00
72.40
91.22
106.91
116.74
118.45
112.16
100.16
86.24
73.60
65.90
65.17
70.64
78.99
80.57
69.01
45.22
22.69
5.20
-9.28
-26.22
-49.74
-82.02
-122.06
-164.17
-199.97
-221.41
-224.84
-210.32
-182.66
-150.23
-121.90
-103.56
-95.50
-93.98
-94.41
-94.85
-94.77
-94.36
-93.15
-89.25
-79.96
-63.01
-38.88
-11.54
12.47
27.96
33.23
30.45
24.21
19.34
19.17
24.22
32.32
39.70
43.38
42.33
37.53
31.03
24.64
18.99
13.27
6.05
-3.54
-14.67
-24.79
-30.80
-30.55
-23.89
-12.71
0.08
11.76
20.76
26.77
30.28
32.08
32.88
33.24
33.74
35.12
38.21
43.60
51.24
60.16
68.52
74.31
76.12
73.83
68.66
62.55
57.12
52.98
49.58
45.84
40.94
34.92
28.58
23.02
19.10
17.42
18.58
23.32
32.21
44.75
58.60
69.73
74.18
70.44
61.01
51.48
47.65
52.01
61.86
70.45
70.74
59.53
39.47
17.66
1.59
-4.96
-3.72
-0.50
-1.57
-10.23
-25.29
-42.19
-55.67
-62.45
-62.46
-58.27
-53.34
-50.07
-48.63
-47.36
-44.07
-37.35
-27.35
-15.53
-3.79
6.57
15.18
22.36
28.30
32.54
33.98
31.70
25.79
17.56
9.16
2.51
-1.56
-3.47
-4.28
-4.80
-5.14
-4.80
-3.38
-1.09
1.12
1.95
0.41
-3.67
-9.60
-16.15
-22.02
-26.43
-29.37
-31.62
-34.36
-38.58
-44.48
-51.19
-57.01
-60.17
-59.61
-55.60
-49.61
-43.67
-39.48
-37.67
-37.55
-37.58
-36.09
-32.22
-26.33
-19.96
-15.14
-13.39
-15.01
-18.77
-22.51
-23.98
-21.84
-16.08
-7.87
0.94
8.36
12.44
11.41
4.18
-8.90
-25.33
-40.67
-49.89
-49.76
-40.73
-27.05
-14.73
-8.32
-8.28
-10.83
-10.45
-3.43
9.22
22.02
28.08
23.11
8.08
-10.81
-25.30
-28.81
-18.69
3.72
34.77
70.07
105.05
134.80
154.30
159.70
150.14
128.75
101.49
74.62
51.81
33.14
16.38
-0.49
-17.54
-33.12
-45.60
-55.20
-64.16
-75.29
-89.68
-105.72
-119.93
-129.09
-131.91
-129.62
-124.97
-120.44
-117.16
-114.77
-112.33
-109.34
-106.04
-103.06
-100.67
-98.50
-95.99
-93.11
-90.47
-88.39
-85.82
-80.28
-69.43
-53.29
-35.33
-21.15
-15.17
-17.77
-24.59
-29.43
-28.61
-23.91
-21.69
-28.72
-47.31
-73.26
-98.11
-113.74
-116.64
-109.07
-96.91
-85.73
-77.98
-72.63
-66.81
-58.76
-48.87
-39.35
-32.60
-29.73
-29.82
-30.48
-29.17
-24.59
-18.33
-13.44
-12.82
-17.72
-27.19
-38.56
-48.36
-53.54
-52.54
-47.46
-41.57
-37.47
-35.88
-36.00
-36.53
-36.46
-35.48
-34.04
-35.70
-43.24
-56.72
-73.25
-89.04
-101.54
-110.21
-115.73
-118.83
-122.80
-129.16
-136.56
-141.80
-143.02
-141.60
-141.30
-145.62
-133.40
-90.72
-18.15
68.49
150.37
216.71
266.41
304.08
335.50
363.34
384.72
393.97
388.31
371.64
353.47
344.56
351.77
375.20
405.39
426.97
426.44
398.98
350.67
294.06
240.87
196.74
160.03
124.32
81.16
25.06
-43.92
-120.48
-196.41
-263.12
-313.47
-343.18
-351.84
-343.47
-324.47
-301.12
-277.67
-256.03
-236.75
-219.91
-205.47
-193.04
-181.22
-167.24
-147.54
-119.29
-82.15
-39.16
3.91
40.38
64.81
74.84
71.71
59.75
44.67
31.61
23.69
21.51
23.70
28.22
33.25
37.72
41.32
44.01
45.86
47.08
48.19
50.30
54.72
62.54
73.93
87.89
102.59
116.02
126.73
134.16
138.48
140.13
139.40
136.51
131.71
125.53
118.55
111.04
102.73
92.87
80.76
66.35
50.49
34.53
19.57
5.93
-6.90
-19.84
-33.35
-47.04
-59.66
-69.70
-76.16
-78.98
-79.05
-77.76
-76.47
-76.00
-76.46
-77.47
-78.45
-78.98
-78.75
-77.38
-74.23
-68.42
-59.21
-46.51
-31.13
-14.61
1.26
15.12
26.33
34.89
41.01
44.81
46.20
45.14
41.93
37.26
31.99
26.78
21.91
17.06
11.62
4.77
-4.31
-16.20
-31.15
-48.82
-68.05
-86.86
-102.74
-113.10
-115.99
-110.71
-98.03
-80.12
-59.93
-40.59
-24.70
-13.94
-8.89
-9.23
-13.98
-21.72
-30.90
-40.02
-48.06
-54.74
-60.80
-67.68
-77.02
-89.82
-105.65
-122.58
-137.64
-147.92
-151.34
-147.22
-135.93
-118.40
-95.52
-68.12
-37.10
-3.80
29.90
61.90
90.21
113.33
130.45
141.39
146.61
147.28
145.44
143.86
145.70
153.61
168.93
191.12
217.71
244.78
267.65
282.12
285.38
276.91
258.74
234.93
210.27
188.77
172.63
162.28
156.99
155.83
157.95
162.33
167.21
169.98
167.84
159.10
144.10
125.15
105.49
87.66
72.43
58.75
44.58
27.93
7.66
-16.33
-43.25
-71.56
-99.28
-124.17
-144.35
-158.81
-167.75
-172.59
-175.45
-178.31
-182.21
-186.85
-190.83
-192.15
-189.04
-180.52
-166.61
-148.21
-126.84
-104.20
-82.02
-61.84
-44.91
-32.03
-23.31
-18.11
-15.14
-12.91
-10.21
-6.55
-2.26
1.96
5.45
8.19
10.72
13.97
18.69
25.00
32.23
39.17
44.58
47.55
47.90
46.09
42.92
39.19
35.31
31.24
26.53
20.60
13.03
3.81
-6.48
-16.78
-25.77
-32.28
-35.74
-36.25
-34.58
-31.71
-28.46
-25.17
-21.90
-18.81
-16.56
-16.50
-20.25
-28.73
-41.26
-55.07
-65.90
-69.49
-63.24
-47.33
-24.84
-0.49
20.91
35.83
42.51
40.62
30.60
13.41
-9.49
-35.98
-63.32
-89.03
-111.61
-130.79
-146.91
-159.89
-168.44
-170.56
-165.00
-152.85
-138.21
-127.18
-125.64
-136.63
-159.10
-188.09
-216.53
-237.40
-245.53
-238.61
-217.11
-183.94
-143.56
-101.23
-61.79
-28.53
-2.50
17.61
34.55
51.20
69.09
87.85
105.73
120.77
132.07
140.30
147.17
153.94
160.30
164.20
163.10
155.88
144.55
134.21
131.37
141.06
164.68
199.30
238.74
275.78
304.28
320.37
322.55
311.03
287.60
255.97
222.24
194.34
179.81
182.53
200.15
224.21
243.35
248.23
235.58
209.07
176.51
145.46
119.68
98.52
79.11
59.52
40.63
25.32
16.10
12.96
12.80
11.11
4.26
-8.61
-25.45
-42.43
-56.08
-64.86
-69.69
-73.44
-79.51
-90.18
-105.66
-124.10
-142.41
-157.68
-168.13
-173.49
-174.47
-172.14
-167.18
-159.85
-150.36
-139.20
-127.46
-116.50
-107.59
-101.37
-97.70
-95.74
-94.31
-92.12
-88.01
-81.28
-71.95
-60.98
-50.12
-41.42
-36.39
-35.31
-37.10
-39.81
-41.51
-41.03
-38.30
-33.84
-28.27
-21.78
-14.26
-5.64
3.61
12.33
18.94
22.13
21.76
18.98
15.79
14.35
16.20
21.86
30.69
41.11
51.24
59.75
66.05
70.25
72.71
73.76
73.60
72.23
69.20
64.25
57.87
51.17
45.38
41.16
38.52
36.83
35.15
31.36
24.00
13.46
1.89
-8.28
-15.57
-19.68
-21.16
-20.95
-22.59
-28.96
-39.98
-52.60
-63.16
-69.16
-69.41
-63.60
-52.00
-39.42
-30.30
-24.97
-19.52
-9.70
5.77
24.79
42.70
53.73
47.16
14.80
-43.90
-122.00
-210.55
-302.64
-393.27
-477.92
-517.97
-485.52
-386.72
-258.50
-137.82
-43.58
21.20
62.27
88.56
108.01
119.64
119.10
104.71
80.06
51.41
24.67
4.46
-6.51
-7.86
-5.31
-5.19
-9.48
-14.96
-16.96
-12.83
-2.99
9.75
21.66
27.12
22.73
10.67
-2.98
-11.62
-11.81
-4.04
8.47
21.61
30.90
34.00
31.59
26.23
20.55
15.71
12.03
10.01
10.83
15.28
22.97
31.36
35.52
30.13
11.87
-18.21
-54.54
-89.56
-117.00
-134.17
-141.75
-143.03
-139.45
-130.51
-114.61
-90.95
-61.15
-29.00
1.19
26.35
45.10
57.16
61.81
57.95
45.19
25.41
2.94
-16.79
-29.57
-34.07
-31.63
-25.09
-16.95
-8.32
0.79
10.46
20.18
28.88
35.68
40.75
45.74
53.31
66.04
85.23
109.65
135.33
156.55
167.65
165.24
149.41
123.80
94.28
66.92
46.16
33.98
30.05
32.47
38.76
46.42
53.42
58.47
61.09
61.56
60.67
59.21
57.61
55.87
53.68
50.83
47.38
43.78
40.60
38.41
37.61
38.37
40.72
44.44
48.99
53.50
56.92
58.33
57.32
54.06
49.06
42.74
35.07
25.48
13.23
-2.12
-20.09
-39.20
-57.18
-71.49
-79.98
-81.40
-75.62
-63.65
-47.44
-29.48
-12.45
1.32
10.25
13.79
12.53
7.92
1.86
-3.89
-8.19
-10.64
-11.46
-11.06
-9.76
-7.63
-4.58
-0.65
3.91
8.54
12.55
15.32
16.52
16.06
14.18
11.23
7.72
4.16
1.02
-1.43
-3.17
-4.54
-6.16
-8.69
-12.51
-17.41
-22.43
-26.05
-26.55
-22.71
-14.24
-1.97
12.52
27.42
41.30
53.41
63.67
72.28
79.33
84.64
87.86
88.77
87.52
84.70
81.13
77.49
74.06
70.56
66.40
61.09
54.66
47.79
41.75
37.77
36.44
37.30
38.84
39.04
36.13
29.35
19.21
7.11
-5.37
-17.27
-28.69
-40.69
-54.66
-71.62
-91.33
-112.15
-131.12
-144.62
-149.32
-143.11
-125.89
-100.06
-70.30
-42.44
-21.85
-11.75
-12.14
-19.84
-29.72
-36.56
-36.91
-30.36
-19.61
-9.31
-3.98
-5.89
-13.95
-24.13
-31.32
-31.78
-24.99
-13.80
-2.92
3.71
5.03
3.18
2.26
5.98
15.80
30.45
46.86
61.75
73.01
80.32
84.73
88.00
91.77
97.20
104.89
115.02
127.39
141.38
155.94
169.77
181.61
190.74
197.05
201.00
203.54
205.87
209.13
214.12
220.68
226.95
229.29
223.15
205.12
175.03
136.69
96.41
60.10
30.16
4.68
-20.78
-49.75
-82.04
-113.25
-136.86
-147.81
-145.31
-133.32
-118.51
-106.98
-101.80
-102.45
-106.32
-110.89
-115.22
-119.89
-125.84
-132.63
-137.98
-138.59
-132.03
-118.26
-99.99
-81.27
-65.64
-54.82
-48.48
-45.40
-44.56
-45.46
-47.80
-50.98
-53.86
-55.04
-53.39
-48.59
-41.39
-33.80
-28.96
-31.15
-44.82
-72.79
-114.20
-163.19
-209.20
-239.47
-243.20
-215.62
-160.33
-88.54
-15.50
44.36
81.50
92.90
80.98
51.07
9.07
-39.40
-88.60
-131.99
-162.78
-175.86
-170.20
-150.23
-124.93
-104.82
-98.05
-107.74
-131.61
-163.74
-197.02
-225.46
-245.26
-254.68
-253.24
-241.01
-218.15
-184.65
-140.52
-86.20
-23.37
44.61
112.73
175.07
226.04
261.63
280.60
284.82
278.89
269.01
261.26
259.67
264.79
273.36
279.25
276.45
262.02
237.68
208.87
181.75
159.45
140.13
118.13
87.54
47.32
3.72
-31.77
-48.19
-40.92
-14.44
19.92
49.26
63.60
59.76
40.60
11.31
-24.26
-64.12
-105.44
-141.74
-163.19
-162.04
-136.15
-91.70
-42.04
-2.52
16.29
12.93
-5.55
-29.98
-56.85
-88.10
-127.46
-175.59
-228.05
-276.53
-313.20
-334.15
-327.41
-290.93
-234.22
-173.22
-119.04
-73.08
-30.97
8.59
48.12
85.40
113.41
126.07
122.11
106.15
85.29
68.22
62.19
70.87
91.99
117.05
136.39
143.64
138.03
123.33
105.35
89.01
77.15
69.71
64.21
58.65
52.85
48.28
46.37
47.24
49.11
49.43
45.45
35.31
19.37
0.34
-17.66
-30.77
-36.57
-34.87
-27.29
-16.62
-5.78
3.19
9.67
14.14
17.50
20.33
22.45
23.02
20.88
15.26
6.25
-5.15
-17.39
-28.90
-38.62
-46.24
-52.07
-56.70
-60.54
-63.66
-65.84
-66.75
-66.20
-64.26
-61.25
-57.63
-53.95
-50.94
-49.49
-50.72
-55.60
-64.45
-76.54
-89.93
-101.81
-109.19
-109.76
-102.40
-87.35
-65.90
-40.11
-12.44
14.47
38.09
56.50
68.73
75.18
77.46
77.87
78.51
80.55
83.96
87.82
90.95
92.56
92.51
91.11
88.74
85.28
79.93
71.58
59.48
43.99
26.64
9.88
-3.97
-13.06
-16.93
-16.70
-14.44
-12.21
-11.31
-12.35
-15.21
-19.76
-24.92
-29.54
-32.54
-33.10
-30.54
-24.33
-14.75
-2.19
12.16
28.45
46.87
67.03
87.55
106.38
121.57
131.21
135.24
134.41
132.52
133.96
142.10
158.13
181.04
208.54
236.95
263.69
271.70
248.60
192.14
112.99
28.33
-46.94
-99.63
-131.74
-146.79
-149.28
-142.39
-129.69
-115.92
-105.43
-100.61
-100.84
-103.80
-105.19
-101.89
-91.22
-72.81
-48.91
-24.07
-3.66
8.04
8.72
-0.06
-14.78
-30.03
-41.06
-45.30
-42.95
-36.30
-28.39
-22.14
-18.75
-18.26
-19.17
-19.60
-18.21
-14.58
-9.12
-2.46
4.51
10.99
15.66
17.20
14.92
9.53
3.12
-1.76
-3.70
-3.68
-4.75
-10.42
-22.27
-38.43
-53.88
-62.70
-60.88
-48.07
-27.48
-4.09
17.51
34.63
46.62
54.17
58.23
59.43
57.93
53.75
47.18
39.04
30.69
23.85
20.18
20.77
25.63
33.44
41.93
48.56
51.53
50.47
46.55
41.81
38.16
36.50
36.36
36.21
34.09
28.26
17.72
2.46
-16.53
-37.52
-58.50
-77.57
-93.26
-104.59
-111.01
-112.19
-107.99
-98.47
-83.75
-64.07
-39.82
-11.94
17.70
46.20
70.02
85.97
92.37
89.80
80.85
69.06
57.58
48.26
41.55
37.13
34.55
33.63
34.17
35.60
36.76
36.15
32.52
25.30
14.76
1.74
-12.72
-27.85
-43.36
-59.56
-77.16
-97.09
-120.13
-146.50
-175.28
-204.15
-229.48
-247.17
-253.89
-248.33
-231.77
-207.70
-180.38
-153.26
-127.86
-103.69
-79.10
-52.74
-24.82
2.80
27.41
46.98
61.22
71.52
79.86
87.38
93.61
96.66
94.38
85.37
69.82
49.43
27.01
5.80
-11.14
-21.63
-24.76
-21.05
-12.05
0.23
13.82
26.93
37.72
43.93
43.16
33.81
16.31
-6.41
-29.59
-48.55
-60.61
-65.93
-66.82
-66.06
-65.29
-64.49
-62.54
-58.29
-51.50
-42.95
-34.05
-26.01
-19.48
-14.45
-10.67
-7.98
-6.36
-5.73
-5.72
-5.57
-4.32
-1.10
4.57
12.70
22.71
33.60
44.19
53.65
61.85
69.49
77.70
87.50
99.10
111.79
124.27
135.24
143.88
150.05
153.96
155.92
156.28
155.55
154.48
154.06
155.10
157.87
161.97
166.38
169.92
171.44
169.91
164.48
154.45
139.51
119.83
96.07
69.33
40.98
12.54
-14.44
-38.39
-58.08
-72.98
-83.50
-90.94
-96.97
-103.08
-110.25
-119.15
-130.62
-146.10
-167.40
-195.62
-229.66
-265.36
-295.84
-313.42
-312.18
-290.21
-250.31
-198.84
-143.25
-89.73
-41.73
-0.14
35.61
66.18
91.63
111.44
125.20
133.15
136.26
135.95
133.54
129.88
125.13
119.12
111.52
102.26
91.56
79.94
67.90
55.78
43.63
31.27
18.60
5.93
-6.03
-16.40
-24.75
-31.56
-38.30
-46.82
-58.44
-73.24
-89.97
-106.71
-121.64
-133.64
-142.21
-147.01
-147.51
-143.06
-133.38
-119.19
-102.19
-84.56
-67.93
-52.63
-37.59
-21.16
-2.19
19.11
41.02
60.89
76.05
84.63
86.10
81.27
72.24
62.12
54.38
51.98
56.05
65.12
75.19
81.33
79.98
70.80
56.98
43.64
35.25
33.44
36.50
40.60
41.90
38.27
29.76
18.02
5.26
-6.42
-15.32
-20.30
-20.96
-17.86
-12.48
-6.80
-2.63
-1.01
-2.11
-5.42
-10.08
-15.01
-18.91
-20.34
-18.05
-11.68
-2.28
7.67
15.12
17.70
15.04
8.95
2.62
-1.10
-1.17
1.19
3.52
3.84
2.00
-0.09
0.48
5.96
16.84
31.47
46.58
58.33
63.28
59.07
45.13
23.24
-2.04
-24.01
-35.47
-31.43
-11.59
18.79
50.14
71.52
73.86
52.56
8.62
-51.67
-118.26
-179.71
-226.16
-251.81
-256.22
-243.78
-221.39
-195.39
-169.37
-143.74
-117.32
-89.61
-61.97
-37.12
-17.30
-2.57
9.43
22.16
37.91
56.42
75.08
90.47
100.18
103.89
103.18
100.33
97.05
93.71
89.56
83.53
75.15
65.06
54.99
47.04
42.79
42.66
45.79
50.44
54.68
57.10
57.16
55.16
51.83
47.80
43.36
38.40
32.69
26.11
18.92
11.72
5.27
0.19
-3.26
-5.22
-6.15
-6.52
-6.67
-6.69
-6.65
-6.66
-6.92
-7.55
-8.43
-9.23
-9.49
-8.99
-7.86
-6.54
-5.61
-5.48
-6.40
-8.39
-11.31
-14.83
-18.38
-21.18
-22.34
-21.23
-17.65
-12.00
-5.15
1.82
7.96
12.58
15.48
16.92
17.58
18.46
20.45
23.99
28.73
33.61
37.32
38.90
38.36
36.86
36.28
38.40
43.96
52.06
60.38
66.10
67.31
64.07
58.54
54.14
53.87
58.87
67.81
77.46
83.92
84.09
76.38
60.56
37.86
10.86
-16.42
-39.04
-53.01
-57.66
-57.34
-60.57
-76.26
-108.30
-151.97
-194.59
-220.98
-220.90
-194.38
-151.61
-107.49
-74.26
-56.22
-49.46
-45.75
-37.87
-23.34
-4.66
12.96
24.53
27.19
20.44
5.37
-15.83
-40.04
-63.57
-82.53
-94.02
-97.10
-92.92
-84.19
-74.07
-65.03
-58.41
-54.56
-53.13
-53.58
-55.12
-56.54
-56.03
-51.68
-42.15
-27.52
-9.64
8.51
24.00
35.13
42.23
47.25
52.72
60.45
70.86
82.97
95.24
106.29
115.33
122.03
126.31
128.18
127.91
126.19
124.00
122.17
120.90
119.66
117.49
113.72
108.25
101.49
93.69
84.46
72.77
57.64
39.11
18.80
-0.47
-15.91
-26.29
-32.72
-38.30
-46.69
-60.42
-79.85
-103.15
-127.25
-149.03
-166.09
-176.98
-181.02
-178.16
-168.97
-154.77
-137.59
-119.65
-102.84
-88.11
-75.49
-64.32
-53.83
-43.47
-32.97
-22.35
-11.75
-1.36
8.60
17.80
25.89
32.56
37.64
41.14
43.23
44.25
44.59
44.66
44.77
45.01
45.17
44.86
43.55
40.72
36.11
29.95
23.08
16.81
12.56
11.31
13.33
18.04
24.15
30.27
35.41
39.18
41.84
43.75
44.93
45.15
43.88
40.32
33.68
23.53
9.96
-6.17
-23.53
-40.54
-55.35
-66.34
-73.01
-76.00
-76.74
-76.64
-75.89
-73.45
-67.51
-56.26
-39.00
-17.61
4.45
23.59
37.46
45.87
49.73
46.80
35.65
18.44
1.07
-8.94
-5.05
13.45
44.27
83.00
124.70
161.44
186.96
196.86
189.78
166.68
130.18
84.84
36.48
-8.69
-44.56
-65.85
-69.55
-54.75
-24.19
15.75
56.99
91.91
115.21
125.03
122.76
105.68
76.22
41.96
12.44
-5.83
-11.78
-8.89
-2.45
2.54
2.72
-2.21
-11.04
-22.05
-33.62
-43.86
-50.93
-53.85
-52.95
-49.53
-44.36
-38.18
-31.67
-25.51
-20.24
-16.50
-15.05
-16.41
-20.48
-25.83
-30.69
-33.82
-34.93
-34.49
-33.43
-32.61
-32.44
-32.71
-32.64
-31.58
-29.55
-27.14
-25.25
-24.64
-25.64
-27.95
-30.71
-32.78
-33.20
-31.72
-28.72
-25.06
-21.58
-18.75
-16.54
-14.59
-12.52
-10.26
-8.15
-6.73
-6.44
-7.35
-9.22
-11.63
-14.26
-16.95
-19.61
-22.08
-24.11
-25.37
-25.70
-25.19
-24.17
-23.03
-22.07
-21.40
-21.15
-21.59
-23.32
-27.10
-33.51
-42.49
-53.05
-63.33
-71.01
-74.01
-71.16
-62.58
-49.59
-34.24
-18.64
-4.33
7.96
18.20
26.60
33.26
37.97
40.33
40.02
37.18
32.56
27.39
22.99
20.33
19.67
20.47
21.72
22.29
21.49
19.19
15.75
11.78
7.77
3.86
-0.13
-4.54
-9.74
-15.85
-22.70
-29.72
-36.02
-40.58
-42.48
-41.23
-36.93
-30.26
-22.23
-13.87
-5.93
1.20
7.39
12.60
16.73
19.61
21.13
21.44
20.93
20.19
19.76
19.82
20.19
20.40
19.94
18.55
16.35
13.73
11.16
8.90
6.89
4.86
2.45
-0.66
-4.64
-9.52
-15.15
-21.11
-26.69
-30.95
-32.93
-31.99
-28.05
-21.70
-14.01
-6.16
0.95
6.86
11.51
15.07
17.65
19.23
19.74
19.19
17.82
16.09
14.54
13.58
13.32
13.55
13.86
13.87
13.36
12.37
11.07
9.66
8.27
6.89
5.39
3.59
1.31
-1.65
-5.41
-10.06
-15.47
-21.21
-26.51
-30.40
-31.93
-30.51
-26.12
-19.33
-11.08
-2.40
5.85
13.16
19.28
24.15
27.73
29.95
30.82
30.40
28.91
26.72
24.27
22.02
20.36
19.47
19.26
19.41
19.48
19.08
18.03
16.42
14.54
12.65
10.86
9.04
6.90
4.20
0.85
-3.09
-7.42
-11.92
-16.36
-20.26
-23.00
-23.87
-22.31
-18.07
-11.42
-3.11
5.75
14.09
21.32
27.21
31.84
35.30
37.57
38.60
38.38
37.04
34.95
33.02
32.01
32.29
33.64
35.50
37.29
38.60
39.27
39.32
39.89
41.84
45.27
49.47
53.47
56.60
58.61
59.47
59.05
59.37
61.84
66.66
72.85
79.31
85.67
92.32
99.74
107.87
119.78
137.16
159.39
183.56
206.27
225.51
241.21
254.53
266.79
283.82
309.15
342.12
377.76
409.57
432.72
445.54
448.99
419.17
345.90
235.29
108.96
-9.16
-104.98
-175.76
-225.28
-257.25
-280.61
-296.72
-305.48
-307.61
-305.27
-300.79
-295.44
-287.15
-274.91
-259.83
-240.26
-215.83
-187.59
-157.71
-128.47
-101.41
-77.51
-58.06
-44.47
-35.00
-27.82
-22.06
-18.30
-17.84
-21.39
-28.53
-38.10
-48.52
-56.74
-60.51
-58.98
-52.93
-44.32
-35.82
-30.27
-30.24
-36.91
-48.74
-62.24
-73.35
-79.18
-79.11
-74.69
-68.51
-62.73
-58.09
-53.92
-49.23
-43.80
-38.60
-35.28
-35.27
-38.92
-45.28
-52.38
-58.02
-60.51
