-5.93
-5.32
-4.85
-4.75
-5.46
-7.52
-11.1
-15.73
-20.34
-23.7
-25.06
-24.56
-23.2
-22.25
-22.53
-23.95
-25.7
-26.86
-26.88
-25.73
-23.67
-21.02
-18.39
-17.04
-18.98
-26.26
-39.65
-57.38
-74.94
-86.39
-86.65
-73.64
-49.25
-18.5
12.37
38.1
55.69
64.66
66.32
62.79
56.22
48.29
40.12
32.33
25.13
18.48
12.27
6.5
1.42
-2.47
-4.56
-4.45
-2.17
1.8
6.68
11.73
16.45
20.67
24.39
27.68
30.64
33.5
36.59
40.07
43.48
45.64
45.06
40.73
33.03
24
16.66
13.78
16.59
24.18
33.85
42.2
46.39
44.95
38.08
27.38
15.1
3.43
-6.24
-13.59
-19.18
-23.8
-27.72
-30.39
-30.76
-28.08
-22.56
-15.46
-8.34
-2.07
3.64
9.92
17.65
26.5
34.85
40.57
42.27
40.17
36.02
32.21
30.62
31.82
35.04
38.69
41.09
41.04
37.87
31.45
22.03
10.25
-2.88
-16.05
-27.99
-37.71
-44.63
-48.82
-51.03
-52.68
-55.5
-60.88
-69.22
-79.52
-89.51
-96.49
-98.34
-94.45
-85.92
-74.97
-63.91
-54.3
-46.7
-41.02
-37.12
-35.01
-34.58
-35.18
-35.26
-32.83
-26.24
-14.93
0.28
17.64
35.41
52.37
67.75
80.73
90
93.97
91.81
84.42
74.65
66.49
63.21
65.77
72.28
79
82.17
79.55
70.91
57.34
40.25
20.65
-0.8
-23.08
-44.45
-62.55
-75.1
-80.7
-79.33
-72.15
-60.98
-47.84
-34.58
-22.84
-13.78
-7.9
-4.86
-3.54
-2.56
-0.84
2.08
5.96
10.08
13.68
16.19
17.4
17.38
16.2
13.93
10.59
6.32
1.46
-3.28
-7.02
-9.01
-8.99
-7.28
-4.68
-2.02
0.3
2.44
4.96
8.34
12.67
17.45
21.79
24.82
25.98
25.18
22.7
19.03
14.77
10.44
6.4
2.76
-0.6
-4.04
-7.91
-12.4
-17.39
-22.46
-27.11
-30.92
-33.81
-36.1
-38.47
-41.7
-46.41
-52.81
-60.57
-68.86
-76.46
-82.12
-84.8
-84.07
-80.23
-74.2
-67.17
-60.14
-53.44
-46.66
-38.91
-29.36
-17.77
-4.63
9
21.94
33.31
42.69
50.06
55.67
59.86
63.07
65.83
68.71
72.14
76.15
80.3
83.85
86.02
86.39
85
82.24
78.5
73.95
68.65
62.88
57.53
53.89
53
54.78
57.58
58.75
55.93
48.5
38.01
27.62
20.52
18.46
21.12
26.63
32.64
37.29
39.62
39.23
35.91
29.5
19.98
7.76
-6.43
-21.65
-36.98
-51.72
-65.44
-77.83
-88.76
-98
-105.19
-109.67
-110.58
-107.11
-98.99
-86.84
-72.19
-57.08
-43.44
-32.57
-24.86
-19.85
-16.62
-14.28
-12.31
-10.58
-9.28
-8.64
-8.93
-10.31
-12.78
-16.13
-20.04
-24.18
-28.14
-31.48
-33.7
-34.5
-33.95
-32.45
-30.66
-29.27
-28.68
-28.54
-27.79
-23.67
-14.46
-0.81
14.12
26.47
34.12
37.59
39.46
42.1
46.5
52.34
58.62
64.29
69.23
74.05
79.15
84.18
87.84
87.32
80.88
68.77
53.2
37.04
22.7
10
-1.96
-13.93
-26.19
-37.96
-48.49
-57.37
-64.62
-70.55
-75.49
-79.31
-81.6
-81.89
-79.68
-74.9
-67.79
-58.72
-47.97
-35.67
-21.83
-6.65
9.33
25.53
41.29
56.04
69.13
79.68
86.69
89.55
88.48
84.79
80.49
77.35
75.99
75.56
74.24
70.15
62.34
51.04
37.34
22.62
8.07
-5.45
-17.2
-26.52
-32.94
-36.32
-36.98
-35.63
-33.15
-30.38
-27.99
-26.35
-25.4
-24.64
-23.11
-19.67
-13.39
-4.16
6.98
18
26.45
30.55
29.78
25.16
18.55
11.8
5.95
0.99
-3.74
-8.85
-14.3
-19.41
-23.24
-25.26
-25.69
-25.49
-25.73
-27.17
-29.86
-33.13
-36
-37.55
-37.36
-35.68
-33.34
-31.36
-30.57
-31.28
-33.17
-35.47
-37.21
-37.55
-35.99
-32.4
-26.99
-20.25
-12.76
-5.14
2.08
8.46
13.72
17.7
20.31
21.61
21.77
21.08
19.94
18.76
17.83
17.31
17.18
17.36
17.78
18.35
19.04
19.76
20.38
20.72
20.59
19.88
18.56
16.74
14.57
12.25
9.89
7.55
5.19
2.77
0.22
-2.53
-5.49
-8.7
-12.1
-15.57
-18.9
-21.83
-24.19
-25.95
-27.32
-28.73
-30.71
-33.66
-37.67
-42.33
-46.78
-49.89
-50.6
-48.31
-43.03
-35.43
-26.56
-17.57
-9.35
-2.44
2.99
7.03
9.83
11.55
12.26
12.06
11.07
9.57
7.98
6.76
6.32
6.86
8.33
10.47
12.89
15.14
16.79
17.39
16.58
14.29
10.91
7.32
4.53
3.11
2.75
2.27
0.07
-5.06
-13.29
-23.73
-34.91
-45.56
-55.18
-63.91
-72.1
-79.7
-86.06
-90.17
-91.3
-89.52
-85.74
-81.37
-77.65
-75.17
-73.62
-72.05
-69.27
-64.26
-56.42
-45.6
-32.14
-16.91
-1.39
12.49
22.96
29.28
32.41
35.02
40.46
51.1
66.98
85.49
102.39
113.75
117.61
114.48
106.63
96.69
86.58
77.18
68.87
62.01
57.15
54.59
53.98
54.21
53.82
51.68
47.43
41.4
34.04
25.47
15.26
2.7
-12.56
-30.17
-48.94
-67.11
-82.81
-94.61
-101.76
-104.33
-103.04
-98.86
-92.65
-84.93
-75.85
-65.36
-53.41
-40.08
-25.5
-9.85
6.8
24.42
42.98
62.28
81.98
101.6
120.56
138.06
152.88
163.39
167.85
165.2
155.93
142.51
129
119.7
117.46
122.45
132.11
142.33
149.25
150.63
146.19
136.83
123.49
106.5
85.73
61.39
34.78
8.22
-15.63
-34.78
-48.64
-57.95
-64.04
-68.24
-71.65
-75.63
-82.12
-93.25
-110.09
-131.64
-154.47
-173.81
-185.41
-187.17
-179.58
-164.92
-145.95
-124.85
-103.19
-82.36
-63.89
-49.29
-39.57
-34.75
-33.82
-35.2
-37.06
-37.58
-34.95
-27.65
-14.98
2.37
22.28
41.8
58.11
69.3
74.78
74.94
70.63
62.73
52.27
40.58
29.41
20.65
15.83
15.56
19.21
25.12
31.11
35.26
36.57
35.07
31.47
26.5
20.39
12.76
3.01
-9.06
-22.69
-36.22
-47.5
-54.63
-56.56
-53.4
-46.26
-36.77
-26.52
-16.79
-8.35
-1.61
3.27
6.35
7.95
8.62
9.11
10.24
12.6
16.41
21.27
26.18
29.87
31.4
30.65
28.53
26.37
25.14
24.68
23.71
20.52
14.16
5.26
-4.01
-10.92
-13.36
-10.76
-4.01
5.07
14.78
24.02
32.42
39.97
46.69
52.16
55.33
54.57
48.12
34.87
15.19
-8.64
-32.71
-52.55
-64.49
-66.82
-60.04
-46.35
-28.63
-9.63
8.5
24.05
35.56
41.81
42.15
36.85
27.32
15.8
4.74
-4.01
-9.65
-12.5
-13.59
-13.99
-14.45
-15.13
-15.86
-16.38
-16.5
-16.22
-15.61
-14.76
-13.74
-12.69
-11.79
-11.32
-11.54
-12.6
-14.39
-16.58
-18.72
-20.46
-21.74
-22.79
-23.99
-25.64
-27.77
-30.16
-32.41
-34.22
-35.49
-36.4
-37.35
-38.83
-41.25
-44.83
-49.49
-54.79
-59.93
-64
-66.25
-66.34
-64.47
-61.17
-57.02
-52.39
-47.46
-42.34
-37.22
-32.41
-28.12
-24.24
-20.26
-15.34
-8.77
-0.23
10.08
21.54
33.46
45.17
56.19
66.26
75.39
83.9
92.3
101.02
110.04
118.72
125.88
130.21
130.72
127.12
119.93
110.35
99.97
90.53
83.54
79.68
78.24
77.02
72.91
63.4
47.76
27.71
6.59
-12.19
-26.79
-37.49
-46.02
-54.14
-62.39
-69.84
-74.77
-75.96
-73.44
-68.35
-62.14
-55.52
-48.22
-39.5
-28.9
-16.92
-4.89
5.67
13.81
19.68
24.3
28.76
33.56
38.28
41.91
43.43
42.37
38.85
33.4
26.48
18.36
9.14
-1.01
-11.8
-22.85
-33.76
-44.2
-53.84
-62.39
-69.67
-75.8
-81.32
-87.2
-94.42
-103.56
-114.41
-126.03
-137.01
-146.1
-152.61
-156.49
-158.15
-157.95
-155.87
-151.36
-143.37
-130.76
-112.55
-88.37
-58.73
-25.05
10.55
45.52
77.45
104.51
125.78
141.32
151.77
157.95
160.53
160.05
157.18
152.85
148.18
144.05
140.73
137.77
134.47
130.43
125.99
122.01
119.1
116.86
113.67
107.33
96.11
79.64
59.04
36.32
13.61
-7.44
-25.62
-40.12
-50.45
-56.76
-59.82
-60.85
-60.82
-59.92
-57.47
-52.59
-45.14
-36.25
-28.1
-23.04
-22.6
-27.07
-35.61
-46.7
-58.64
-69.7
-78.15
-82.4
-81.35
-74.8
-63.52
-48.84
-32.08
-14.28
3.71
20.84
35.61
46.34
51.71
51.44
46.52
38.82
30.39
22.71
16.4
11.38
7.31
4.09
2.02
1.59
3.09
6.39
10.85
15.63
19.92
23.21
25.25
26.08
25.86
24.9
23.55
22.14
20.87
19.62
18.04
15.67
12.26
7.86
2.87
-2.16
-6.85
-11.16
-15.36
-19.83
-24.77
-30.07
-35.5
-40.97
-46.59
-52.7
-59.63
-67.25
-74.84
-81.14
-84.79
-85.01
-81.76
-75.7
-67.86
-59.39
-51.22
-44.1
-38.5
-34.64
-32.67
-32.31
-32.87
-33.38
-32.95
-31.22
-28.51
-25.54
-23.11
-21.87
-21.7
-21.68
-20.31
-16.21
-8.7
1.98
15
30.16
45.89
59.77
69.46
74.04
74.41
73.49
73.54
75.79
80.34
86.33
92.86
98.75
103.53
107.14
109.41
109.71
107.3
101.68
92.6
80.16
64.38
45.11
22.06
-4.39
-32.5
-58.93
-79.56
-91.41
-93.75
-88.42
-78.59
-67.31
-56.31
-46.05
-36.59
-28.47
-22.96
-21.05
-22.35
-24.61
-24.67
-19.9
-9.8
3.82
17.63
28.35
33.92
33.99
29.45
21.66
11.92
1.23
-9.63
-20.1
-29.79
-38.48
-46.19
-53.05
-59.32
-65.22
-70.78
-75.56
-78.62
-78.76
-75.13
-67.75
-57.83
-47.34
-38.24
-31.69
-27.67
-25.23
-23.11
-20.14
-15.5
-8.7
0.33
11.03
22.12
31.89
38.8
42.15
42.43
41.04
39.57
39.15
40.21
42.78
46.92
52.89
60.89
70.75
81.71
92.5
101.68
107.84
109.81
106.86
99.12
87.88
75.57
65
58.35
56.16
57.16
58.83
58.61
54.88
47.41
37.01
24.83
11.8
-1.49
-14.68
-27.33
-39
-49.32
-58.12
-65.33
-70.98
-75.21
-78.35
-80.83
-83.03
-84.92
-85.98
-85.45
-82.84
-78.37
-72.98
-67.8
-63.4
-59.29
-54.11
-46.52
-36.08
-23.63
-10.82
0.68
10.02
17.35
23.46
29.12
34.69
40.05
44.84
48.76
51.67
53.49
54.01
52.76
49.22
43.13
34.78
24.97
14.82
5.25
-3.24
-10.72
-17.61
-24.44
-31.5
-38.83
-46.22
-53.3
-59.69
-65.11
-69.4
-72.57
-74.78
-76.14
-76.7
-76.37
-74.9
-72.04
-67.66
-61.79
-54.71
-46.93
-39.07
-31.82
-25.75
-21.09
-17.67
-14.93
-12.18
-9
-5.4
-1.76
1.47
4.11
6.45
9.15
12.85
17.78
23.58
29.29
33.8
36.11
35.77
33.02
28.75
24.33
21.13
20.06
21.17
23.74
26.76
29.52
32.09
35.24
39.87
46.28
53.86
61.14
66.48
68.59
66.99
61.86
53.81
43.62
32.17
20.34
8.93
-1.66
-11.56
-21.3
-31.33
-41.47
-50.7
-57.47
-60.35
-58.47
-51.64
-40.06
-24.06
-4.36
17.4
38.44
55.38
65.51
68.01
64.26
57
48.88
41.32
34.31
27.36
20.55
15.01
12.37
13.59
18.16
24.04
28.6
29.72
26.7
20.31
12.21
4.1
-3.08
-9.36
-15.43
-21.9
-28.49
-33.73
-35.45
-31.79
-22.35
-8.64
6.34
19.28
27.87
31.37
30.39
25.98
18.92
9.58
-1.73
-14.28
-26.68
-37.21
-44.36
-47.46
-46.83
-43.53
-38.89
-34.04
-29.71
-26.14
-23.26
-21
-19.68
-20.05
-22.99
-28.65
-35.83
-41.87
-43.48
-38.17
-25.6
-8.02
10.54
25.88
35.22
38.15
36.32
32.4
28.93
27.53
28.82
32.71
38.89
47.04
56.9
67.93
79.06
88.7
95.05
96.62
92.75
83.72
70.72
55.47
39.85
25.66
14.33
6.7
2.71
1.08
-0.46
-4.52
-12.93
-25.66
-40.37
-52.96
-59.18
-56.36
-44.62
-26.84
-7.46
9.26
20.68
26.24
26.93
24.21
19.07
11.87
2.64
-8.29
-19.89
-30.63
-39.04
-44.48
-47.39
-49.09
-51.18
-54.74
-59.95
-66.02
-71.63
-75.47
-76.84
-75.77
-73.12
-70.26
-68.71
-69.73
-73.81
-80.42
-88.1
-94.78
-98.41
-97.56
-91.74
-81.4
-67.66
-52.01
-36.1
-21.56
-9.83
-1.66
3.28
6.49
10.24
16.51
25.98
37.47
48.34
55.68
57.84
55.31
50.46
46.23
44.54
45.41
47.22
47.95
46.59
43.8
41.56
41.89
45.69
52.22
59.66
66.19
71.06
74.73
78.37
83.1
89.35
96.92
105.13
113.15
119.91
124.1
124.28
119.55
110
96.87
82.03
67.08
52.68
38.58
24.32
10.16
-2.59
-12.1
-17.12
-17.9
-16.27
-14.67
-14.99
-17.76
-22.24
-27.22
-31.96
-36.7
-42.43
-50.21
-60.5
-72.76
-85.53
-96.92
-105.26
-109.44
-109.18
-104.92
-97.62
-88.45
-78.55
-68.73
-59.48
-50.97
-43.23
-36.28
-30.15
-24.88
-20.36
-16.32
-12.32
-7.99
-3.18
1.96
7.09
11.85
16.09
19.86
23.31
26.56
29.53
32.03
33.79
34.65
34.61
33.79
32.41
30.66
28.64
26.39
23.97
21.44
18.94
16.57
14.42
12.49
10.7
8.95
7.15
5.3
3.36
1.29
-1.04
-3.74
-6.87
-10.37
-14.03
-17.62
-20.94
-23.9
-26.57
-29.2
-32.15
-35.84
-40.57
-46.33
-52.64
-58.52
-62.7
-63.94
-61.46
-55.29
-46.19
-35.48
-24.53
-14.44
-5.78
1.36
7.14
11.74
15.23
17.6
18.81
19.02
18.53
17.81
17.34
17.52
18.56
20.43
22.94
25.68
28.17
29.93
30.62
30.18
28.98
27.88
28.02
30.51
35.89
43.84
53.08
61.76
68.13
71.2
71.06
68.66
65.26
61.79
58.55
55.25
51.34
46.36
40.03
32.23
22.86
11.92
-0.31
-13.19
-25.71
-36.78
-45.66
-52.19
-56.79
-60.12
-62.71
-64.63
-65.51
-64.74
-61.8
-56.54
-49.27
-40.61
-31.31
-22.08
-13.52
-6.14
-0.4
3.29
4.73
4.08
1.97
-0.6
-2.54
-3.01
-1.68
1.27
5.3
9.78
14.24
18.36
21.93
24.76
26.65
27.45
27.12
25.75
23.53
20.63
17.16
13.14
8.62
3.72
-1.36
-6.34
-10.94
-14.93
-18.25
-20.98
-23.33
-25.55
-27.88
-30.46
-33.25
-36.11
-38.89
-41.47
-43.92
-46.47
-49.44
-53.08
-57.4
-62.03
-66.25
-69.12
-69.77
-67.6
-62.48
-54.81
-45.39
-35.31
-25.72
-17.62
-11.65
-7.92
-6
-5.06
-4.19
-2.63
-0
3.65
8.04
12.78
17.59
22.23
26.49
30.12
32.86
34.58
35.36
35.5
35.42
35.44
35.61
35.68
35.26
33.99
31.83
29.03
26
23.06
20.36
17.76
15.06
12.12
8.94
5.62
2.25
-1.12
-4.44
-7.65
-10.68
-13.43
-16.01
-18.68
-21.82
-25.7
-30.13
-34.44
-37.57
-38.43
-36.25
-30.93
-23.03
-13.66
-4.07
4.64
11.8
17.21
21.03
23.55
25.07
25.75
25.71
25.09
24.14
23.18
22.55
22.44
22.87
23.68
24.68
25.69
26.6
27.3
27.68
27.6
26.95
25.72
24
21.97
19.81
17.63
15.45
13.31
11.22
9.31
7.68
6.35
5.19
3.95
2.38
0.34
-2.12
-4.76
-7.31
-9.61
-11.62
-13.5
-15.42
-17.57
-20.05
-22.93
-26.25
-29.92
-33.7
-37.08
-39.34
-39.75
-37.76
-33.25
-26.55
-18.38
-9.68
-1.39
5.71
11.13
14.72
16.7
17.51
17.72
17.85
18.21
18.87
19.67
20.36
20.72
20.68
20.37
20.05
20.06
20.57
21.62
22.95
24.18
24.91
24.85
23.93
22.28
20.13
17.72
15.23
12.82
10.68
9
7.93
7.44
7.28
7.06
6.39
5.07
3.17
0.97
-1.27
-3.46
-5.76
-8.51
-11.94
-15.96
-20.07
-23.45
-25.19
-24.66
-21.64
-16.39
-9.6
-2.13
5.18
11.71
17.1
21.25
24.24
26.26
27.5
28.15
28.33
28.19
27.9
27.65
27.64
27.97
28.66
29.64
30.83
32.16
33.58
35.01
36.27
37.05
36.95
35.68
33.08
29.29
24.67
19.64
14.59
9.8
5.37
1.32
-2.44
-6.08
-9.81
-13.84
-18.27
-22.97
-27.54
-31.37
-33.81
-34.39
-32.96
-29.68
-25.03
-19.66
-14.27
-9.51
-5.86
-3.52
-2.45
-2.41
-3.07
-4.12
-5.33
-6.52
-7.52
-8.13
-8.13
-7.39
-5.98
-4.16
-2.31
-0.78
0.29
0.92
1.25
1.31
0.95
-0.1
-2.13
-5.2
-9.04
-13.1
-16.8
-19.76
-21.92
-23.56
-25.12
-26.99
-29.43
-32.48
-35.98
-39.6
-42.82
-45
-45.51
-43.89
-40.01
-34.15
-26.94
-19.17
-11.62
-4.82
0.95
5.66
9.43
12.46
14.92
16.99
18.76
20.27
21.54
22.56
23.29
23.75
23.96
23.99
23.87
23.63
23.16
22.31
20.93
18.96
16.51
13.78
10.99
8.25
5.61
2.98
0.33
-2.36
-5.01
-7.53
-9.88
-12.06
-14.16
-16.3
-18.62
-21.27
-24.42
-28.18
-32.49
-37.01
-41.06
-43.75
-44.22
-41.86
-36.61
-28.92
-19.68
-9.91
-0.52
7.92
15.12
21.1
25.96
29.86
32.93
35.34
37.27
38.89
40.38
41.82
43.2
44.45
45.45
46.1
46.3
45.99
45.13
43.74
41.92
39.77
37.4
34.79
31.89
28.57
24.78
20.64
16.46
12.61
9.44
7.06
5.38
4.17
3.16
2.23
1.41
0.74
0.26
-0.08
-0.43
-0.95
-1.72
-2.8
-4.14
-5.67
-7.35
-9.13
-11
-12.97
-15.06
-17.33
-19.86
-22.68
-25.81
-29.16
-32.62
-36.01
-39.22
-42.21
-45.1
-48.18
-51.77
-56.07
-60.97
-65.95
-70.06
-72.24
-71.54
-67.49
-60.2
-50.36
-39.04
-27.37
-16.29
-6.38
2.09
9.11
14.83
19.44
23.14
26.15
28.69
30.99
33.27
35.61
37.99
40.25
42.17
43.57
44.3
44.39
43.93
43.05
41.88
40.44
38.74
36.74
34.44
31.88
29.16
26.38
23.63
20.99
18.51
16.26
14.28
12.55
10.98
9.39
7.59
5.45
2.97
0.31
-2.35
-4.87
-7.26
-9.67
-12.3
-15.28
-18.6
-22.12
-25.66
-29.08
-32.36
-35.54
-38.7
-41.88
-45.06
-48.21
-51.33
-54.38
-57.15
-59.23
-59.96
-58.57
-54.55
-47.76
-38.64
-28.06
-17.04
-6.55
2.74
10.47
16.57
21.12
24.28
26.25
27.25
27.55
27.4
27.06
26.73
26.52
26.48
26.58
26.7
26.72
26.5
25.99
25.19
24.17
23.04
21.86
20.62
19.28
17.76
16.05
14.13
12.05
9.85
7.54
5.17
2.75
0.32
-2.1
-4.54
-7.04
-9.62
-12.28
-14.95
-17.59
-20.17
-22.72
-25.33
-28.07
-30.98
-34.04
-37.25
-40.54
-43.71
-46.34
-47.81
-47.42
-44.67
-39.41
-31.99
-23.13
-13.75
-4.71
3.29
9.84
14.76
18.09
20.03
20.89
21.01
20.74
20.35
20
19.78
19.68
19.7
19.76
19.82
19.85
19.85
19.86
19.87
19.85
19.67
19.13
18.12
16.61
14.74
12.73
10.82
9.1
7.53
5.93
4.06
1.77
-0.98
-4.17
-7.7
-11.47
-15.34
-19.19
-22.89
-26.38
-29.69
-33
-36.5
-40.28
-44.15
-47.56
-49.7
-49.76
-47.14
-41.71
-33.86
-24.36
-14.15
-4.13
4.92
12.46
18.16
21.95
24.02
24.77
24.73
24.37
24
23.73
23.52
23.32
23.11
22.92
22.81
22.81
22.86
22.88
22.76
22.44
21.91
21.21
20.39
19.47
18.44
17.21
15.66
13.73
11.43
8.9
6.27
3.66
1.07
-1.56
-4.27
-7.05
-9.83
-12.53
-15.19
-17.92
-20.85
-24.02
-27.38
-30.78
-34.14
-37.49
-41.04
-44.97
-49.29
-53.61
-57.16
-58.95
-58.13
-54.27
-47.59
-38.87
-29.2
-19.55
-10.58
-2.61
4.3
10.12
14.8
18.31
20.77
22.44
23.71
24.9
26.16
27.45
28.66
29.68
30.55
31.43
32.47
33.65
34.82
35.69
36.04
35.73
34.87
33.68
32.43
31.31
30.33
29.42
28.44
27.27
25.88
24.28
22.52
20.69
18.85
17.06
15.33
13.58
11.69
9.46
6.8
3.75
0.5
-2.75
-5.85
-8.8
-11.71
-14.68
-17.74
-20.76
-23.61
-26.24
-28.67
-30.95
-33.01
-34.52
-34.98
-33.94
-31.15
-26.72
-20.89
-13.85
-5.63
3.84
14.36
25.15
34.87
41.84
44.72
42.91
36.78
27.47
16.4
4.86
-6.22
-16.16
-24.39
-30.34
-33.47
-33.51
-30.61
-25.45
-19.1
-12.75
-7.35
-3.27
-0.25
2.45
5.6
9.64
14.44
19.33
23.57
26.66
28.58
29.71
30.55
31.37
32.18
32.78
33.05
33.07
32.99
32.83
32.3
30.82
27.87
23.27
17.4
10.94
4.58
-1.38
-7.11
-12.95
-19
-24.81
-29.38
-31.59
-30.66
-26.57
-20.06
-12.34
-4.63
2.22
7.82
12.16
15.38
17.59
18.8
18.97
18.14
16.46
14.22
11.8
9.6
7.92
6.91
6.47
6.31
5.99
5.08
3.32
0.74
-2.45
-5.9
-9.29
-12.49
-15.54
-18.6
-21.78
-25.06
-28.23
-31
-33.09
-34.34
-34.88
-34.97
-35.03
-35.44
-36.44
-38.03
-39.9
-41.5
-42.14
-41.21
-38.3
-33.37
-26.7
-18.84
-10.44
-2.16
5.45
11.98
17.1
20.62
22.46
22.74
21.78
20.05
18.15
16.55
15.54
15.15
15.24
15.59
16.04
16.53
17.08
17.69
18.24
18.54
18.37
17.64
16.4
14.82
13.11
11.46
9.91
8.43
6.9
5.17
3.09
0.56
-2.5
-5.96
-9.49
-12.51
-14.34
-14.36
-12.31
-8.42
-3.41
1.74
6.1
9.02
10.2
9.65
7.52
3.93
-0.99
-7.04
-13.92
-21.17
-28.29
-34.79
-40.34
-44.73
-47.88
-49.85
-50.8
-50.98
-50.64
-50.07
-49.45
-48.86
-48.33
-47.87
-47.49
-47.21
-46.93
-46.45
-45.45
-43.59
-40.61
-36.54
-31.62
-26.28
-20.98
-16.15
-12.17
-9.35
-7.93
-7.99
-9.32
-11.28
-12.87
-12.95
-10.52
-5.11
3.14
13.51
24.93
36.18
46.24
54.35
60.1
63.41
64.44
63.57
61.29
58.17
54.79
51.69
49.3
47.79
47.08
46.89
46.85
46.69
46.32
45.75
44.99
43.91
42.32
40.05
37.15
33.83
30.4
27.1
24.01
21.05
18.13
15.23
12.45
9.91
7.7
5.78
4
2.2
0.27
-1.83
-4.04
-6.27
-8.43
-10.5
-12.54
-14.66
-17.06
-19.89
-23.21
-26.97
-31
-35.09
-39.1
-42.94
-46.62
-50.22
-53.83
-57.51
-61.31
-65.27
-69.34
-73.31
-76.72
-78.83
-78.77
-75.76
-69.43
-59.93
-48
-34.67
-21.12
-8.35
2.88
12.1
19.12
24.02
27.1
28.84
29.81
30.55
31.45
32.69
34.28
36.02
37.67
38.97
39.77
40.05
39.92
39.54
38.96
38.15
36.91
35.07
32.53
29.38
25.85
22.23
18.73
15.46
12.49
9.83
7.53
5.68
4.32
3.35
2.58
1.71
0.5
-1.14
-3.17
-5.43
-7.77
-10.08
-12.33
-14.51
-16.66
-18.83
-21.16
-23.85
-27.18
-31.36
-36.4
-41.94
-47.27
-51.41
-53.29
-52.13
-47.59
-39.89
-29.79
-18.33
-6.61
4.48
14.33
22.61
29.18
33.99
37.12
38.77
39.31
39.25
39.16
39.55
40.74
42.81
45.62
48.97
52.64
56.45
60.26
63.95
67.2
69.53
70.32
68.89
64.73
57.61
47.68
35.45
21.73
7.41
-6.75
-20.21
-32.77
-44.46
-55.4
-65.62
-75
-83.27
-90.13
-95.35
-98.86
-100.81
-101.46
-101.16
-100.22
-98.88
-97.19
-95.01
-91.87
-87.14
-80.16
-70.45
-57.94
-42.96
-26.28
-8.81
8.49
24.83
39.62
52.49
63.21
71.69
77.98
82.12
84.21
84.35
82.76
79.79
75.96
71.86
67.96
64.43
61.12
57.67
53.71
49.11
43.96
38.48
32.83
26.97
20.71
13.86
6.46
-1.2
-8.64
-15.44
-21.35
-26.37
-30.69
-34.52
-38.08
-41.62
-45.43
-49.75
-54.59
-59.54
-63.76
-66.14
-65.67
-61.81
-54.69
-45.08
-34.17
-23.23
-13.31
-5.14
0.98
5.08
7.43
8.41
8.44
7.89
7.07
6.29
5.83
5.92
6.66
7.98
9.71
11.59
13.46
15.31
17.16
19.05
20.84
22.28
23.08
23
22.01
20.2
17.76
14.82
11.43
7.66
3.56
-0.71
-4.97
-9.08
-12.96
-16.6
-20.07
-23.44
-26.85
-30.48
-34.52
-39.02
-43.73
-48
-50.85
-51.3
-48.72
-43.09
-35.02
-25.54
-15.64
-6.11
2.6
10.23
16.63
21.64
25.16
27.26
28.23
28.58
28.87
29.48
30.55
31.91
33.25
34.21
34.62
34.53
34.32
34.42
35.14
36.4
37.76
38.54
38.24
36.76
34.36
31.55
28.77
26.28
24.15
22.38
20.93
19.6
17.81
14.57
8.81
-0.05
-11.59
-24.28
-36
-44.76
-49.31
-49.44
-45.9
-39.83
-32.41
-24.63
-17.38
-11.59
-8.32
-8.14
-11.13
-16.8
-24.12
-31.89
-38.91
-44.19
-47.03
-47.06
-43.75
-36.67
-25.88
-11.99
3.74
19.85
35.19
49.3
62.32
75.21
88.58
100.71
107.8
105.26
90.37
64.13
31.68
-3.31
-38.16
-71.15
-101.34
-126.57
-144.69
-153.95
-153.81
-145.57
-132.29
-117.14
-102.49
-89.26
-76.82
-64.08
-50.32
-35.85
-21.96
-10.31
-1.67
4.26
8.47
12.19
16.07
20.12
23.85
26.68
28.14
28.3
27.47
25.96
24.3
22.93
22.29
22.75
24.35
26.59
28.7
29.91
29.95
30.06
32.24
38.66
50.67
68.1
88.95
110.38
129.49
144.27
154.91
162.46
168
171.79
173.17
171.06
165.52
157.95
150.72
147.16
148.84
154.72
161.46
164.97
162.1
152.54
138.06
115.62
85.07
48.1
8.02
-31.59
-66.24
-96.41
-122.64
-145.19
-164.53
-179.49
-189.62
-195.14
-196.73
-195.11
-191.09
-184.81
-176.42
-166.29
-154.23
-140.41
-125.35
-109.77
-94.45
-80.23
-67.35
-55.88
-45.86
-36.8
-28.34
-20.28
-12.65
-5.65
0.39
5.54
10.03
14.21
18.67
23.76
29.42
35.24
40.41
43.88
44.74
42.33
36.41
27.4
16.28
4.41
-6.9
-16.85
-25.41
-33.23
-41.2
-49.94
-59.37
-68.66
-76.45
-81.42
-82.71
-80.23
-74.58
-66.88
-58.36
-50.18
-43.01
-36.89
-31.21
-25
-17.48
-8.49
1.18
9.94
15.79
17.06
13.01
4.1
-8.16
-21.76
-34.83
-46.05
-54.66
-60.04
-61.28
-56.97
-45.78
-27.13
-2.23
25.9
53.03
75.36
91.06
100.9
107.68
114.6
123.74
135.12
146.89
156.21
160.52
158.26
149.19
134.23
115.22
94.73
75.54
59.91
48.57
40.12
31.3
18.4
-0.79
-25.49
-51.87
-74.63
-89.37
-94.5
-91.53
-83.68
-73.77
-62.78
-49.84
-33.57
-13.74
7.75
27.44
41.7
48.43
47.71
41.54
32.57
23.01
14.2
6.96
2.29
1.76
7.41
20.86
42.35
70.08
100.24
128.02
149.02
160.75
163.18
158.4
149.44
138.93
128.21
117.26
105.3
91.46
75.41
57.38
38.03
18.11
-1.6
-20.35
-37.38
-52.02
-63.95
-73.32
-80.79
-87.19
-93.24
-99.22
-104.93
-109.91
-113.65
-115.76
-116.01
-114.18
-110.03
-103.32
-93.95
-82.07
-68.26
-53.49
-38.96
-25.98
-15.67
-8.7
-5.13
-4.28
-4.89
-5.36
-4.2
-0.37
6.42
15.4
24.84
32.48
36.23
34.87
28.63
19.36
9.8
2.4
-1.96
-4.5
-8.01
-15.35
-27.93
-44.92
-63.56
-80.4
-92.6
-98.86
-99.42
-95.32
-87.67
-77.16
-64.25
-49.59
-34.48
-20.71
-10.18
-4.21
-3.07
-5.78
-10.2
-13.88
-14.81
-12.45
-7.72
-2.69
0.58
1.14
-0.22
-1.32
0.29
6.22
16.43
29.35
42.6
53.98
62.1
66.53
67.51
65.55
61.24
55.12
47.8
39.96
32.53
26.76
24.04
25.66
32.04
42
52.42
58.95
57.56
46.39
27.02
4.03
-16.61
-29.89
-33.45
-28.08
-16.81
-3.41
8.84
17.82
22.63
23.52
21.71
19.18
18.12
20.11
25.4
32.72
40.01
45.62
49.24
51.82
54.59
57.91
60.65
60.78
56.67
48.12
36.69
25.08
15.95
11.12
11.25
15.87
23.63
32.22
38.32
38.19
29.25
11.86
-9.73
-28.62
-38.38
-36.15
-24.25
-9.12
1.67
2.79
-7.13
-25.89
-49.68
-75.05
-99.52
-121.23
-138.15
-148.14
-149.4
-141.29
-124.72
-101.96
-76.27
-50.96
-28.85
-11.83
-0.9
3.97
3.64
-0.56
-7.3
-15.71
-24.92
-33.88
-41.15
-45.5
-46.09
-42.65
-35.5
-24.3
-9.86
6.24
21.65
35.97
49.6
62.64
74.73
85.01
92.26
94.91
91.76
82.46
68.08
51
34.82
23.68
20.88
27.67
42.36
61.05
78.92
91.8
96.8
92.59
79.3
58.39
32.63
6.11
-16.24
-29.93
-32.68
-25.81
-14.06
-3.82
-0.83
-8.11
-25.22
-48.65
-73.33
-94.2
-107.64
-112.05
-107.88
-97.15
-82.73
-67.46
-53.51
-42.13
-33.68
-27.92
-24.24
-21.76
-19.37
-15.94
-10.64
-3.34
5.2
13.66
20.68
25.4
27.69
28.14
27.71
27.32
27.57
28.58
29.93
30.89
30.67
28.83
25.54
21.48
17.49
13.98
10.71
6.98
2.09
-4.07
-11
-17.87
-24.1
-29.72
-35.26
-41.28
-47.96
-55
-61.87
-68.31
-74.45
-80.74
-87.48
-94.64
-101.79
-108.35
-113.77
-117.59
-119.34
-118.42
-114.28
-106.71
-96.29
-84.11
-71.51
-59.28
-47.3
-34.49
-19.27
-0.66
21.33
45.26
69.38
92.35
113.82
134.04
153.23
170.89
185.24
194.07
195.13
187.96
174.44
158.72
145.76
139.9
143.53
155.99
174.56
190.51
194.96
182.02
152.11
110.91
65.53
23.1
-16.39
-53.37
-87.13
-115.41
-136.01
-146.33
-146.59
-139.4
-128.38
-117.22
-108.01
-101.73
-97.8
-94.44
-89.05
-79.58
-65.39
-47.85
-30.38
-16.69
-9.6
-9.43
-13.77
-18.75
-21.13
-19.8
-15.88
-11.92
-9.93
-10.45
-12.18
-12.91
-10.85
-5.6
1.61
8.86
14.19
16.25
14.19
7.59
-3.51
-18.48
-35.8
-53.59
-69.62
-81.81
-88.42
-88.24
-80.73
-66.29
-46.7
-24.69
-4.22
11.04
18.95
19.73
15.91
11.18
8.79
10.1
14.99
21.38
27.23
31.81
36.09
42.24
52.03
65.16
76.92
85.46
87.53
82.42
72.3
60.93
51.98
47.78
49.01
55.26
66.96
84.05
103.37
119.22
124.44
114.11
88.52
55.78
20.88
-12.96
-44.66
-74.28
-101.06
-123.42
-139.45
-147.85
-148.46
-139.93
-121.77
-95.4
-64.46
-34.06
-9.49
5.54
10.88
8.26
0.47
-8.7
-15.62
-17.09
-10.44
5.9
31.81
63.8
95.02
117.38
124.75
114.71
88.89
51.98
10.19
-30.14
-64.17
-89.68
-105.54
-111.72
-109.37
-100.64
-87.89
-73.21
-57.99
-42.85
-27.11
-10.36
7.52
26.15
44.45
60.9
73.69
81.11
82.11
76.87
67.06
55.51
45.25
38.2
34.26
31.26
26.1
16.46
2.1
-14.75
-30.36
-41.06
-44.67
-41.38
-33.7
-25.54
-20.81
-21.99
-29.22
-40.24
-51.4
-59.23
-61.85
-59.4
-53.24
-44.47
-32.91
-17.27
3.59
29.1
56.34
80.97
99.05
108.67
110.52
107.04
100.89
93.69
85.68
76.27
64.96
51.97
38.2
24.72
12.12
0.3
-11.17
-22.41
-32.78
-41.04
-46.17
-48.12
-48.24
-48.6
-50.88
-55.3
-60.32
-63.41
-62.41
-56.73
-47.57
-37.23
-27.86
-20.55
-15.04
-10.48
-6.15
-2.04
1.26
3.14
3.62
3.54
4.18
6.46
10.3
14.53
17.27
16.81
12.4
4.65
-4.46
-12.07
-15.23
-11.88
-1.65
13.52
29.75
42.46
48.22
46.29
38.77
29.32
21.03
14.93
10.03
4.8
-0.97
-5.53
-6.04
-0.49
10.65
24.32
36.3
43.14
43.49
38.02
28.37
16.02
1.91
-13.28
-28.46
-42.04
-52.27
-57.88
-58.58
-55.21
-49.26
-42.38
-35.85
-30.34
-25.95
-22.42
-19.46
-16.87
-14.55
-12.48
-10.57
-8.67
-6.55
-4.04
-1.11
2.16
5.68
9.36
12.98
16.13
18.19
18.67
17.47
14.92
11.64
8.41
5.79
3.91
2.4
0.59
-2.05
-5.72
-10.39
-16.03
-22.38
-29.1
-35.93
-42.87
-50.32
-58.68
-68.17
-78.62
-89.51
-99.39
-106.06
-107.18
-101.06
-87.48
-67.57
-43.6
-17.48
6.85
25.15
34.69
35.71
32.22
28.33
27.61
33.04
46.67
68.31
96.22
127.06
156.7
181.28
198.06
206.17
206.26
199.77
188.35
174.18
159.76
147.35
138.13
131.47
125.38
117.3
105.31
89.05
70.1
51.18
34.79
22.06
12.49
4.66
-2.89
-11.08
-20.32
-30.55
-41.58
-53.11
-64.71
-75.69
-85.26
-92.71
-97.94
-101.61
-104.75
-108.22
-112.05
-115.36
-116.71
-114.84
-109.23
-100.33
-89.26
-77.32
-65.55
-54.59
-44.83
-36.54
-30.03
-25.53
-23.11
-22.55
-23.3
-24.66
-25.88
-26.41
-25.94
-24.56
-22.72
-21.03
-20.01
-19.72
-19.78
-19.54
-18.61
-17.06
-15.54
-14.88
-15.57
-17.47
-19.8
-21.59
-22.21
-21.78
-21.09
-21.19
-22.84
-26.11
-30.47
-35.07
-39.24
-42.72
-45.71
-48.64
-51.86
-55.38
-58.84
-61.5
-62.53
-61.27
-57.39
-51.06
-42.85
-33.59
-24.19
-15.41
-7.79
-1.59
3.19
6.77
9.56
12.07
14.81
18.06
21.85
25.99
30.15
34.09
37.7
40.97
43.94
46.6
48.93
51.02
53.09
55.47
58.37
61.69
64.88
67.11
67.56
65.84
62.16
57.39
52.66
48.93
46.67
45.71
45.36
44.74
43.03
39.7
34.53
27.68
19.69
11.5
4.33
-0.69
-2.93
-2.51
-0.27
2.66
5.3
7.05
7.69
7.05
4.89
0.92
-4.89
-11.96
-19.09
-24.72
-27.63
-27.44
-24.75
-20.75
-16.69
-13.37
-11.05
-9.55
-8.54
-7.89
-7.76
-8.6
-11.01
-15.59
-22.86
-33.07
-45.86
-59.9
-72.94
-82.29
-85.76
-82.46
-73
-59.03
-42.24
-23.77
-4.03
16.64
37.09
54.92
66.87
70.22
64.26
51.14
35.39
22.49
16.95
20.71
32.54
48.64
64.23
75.39
80.51
80.44
77.8
75.33
74.63
75.56
76.55
75.66
71.59
64.27
54.52
43.23
30.76
16.77
1.01
-16.09
-32.99
-47.58
-58.08
-63.84
-65.55
-64.74
-62.86
-60.63
-58.12
-55.23
-52.17
-49.62
-48.23
-47.94
-47.61
-45.43
-39.92
-30.97
-20.22
-10.61
-5.15
-5.71
-12.32
-23.21
-35.69
-47.14
-55.77
-60.72
-61.72
-58.81
-52.25
-42.53
-30.25
-15.7
1.34
21.29
43.99
67.95
90.23
107.37
116.79
118.04
113.07
105.23
97.66
91.87
87.4
82.66
76.33
68.28
59.73
52.46
47.82
46.01
46.02
46.02
44.04
38.78
29.89
17.96
4.2
-10.07
-23.78
-36.35
-47.78
-58.67
-69.91
-82.3
-96.06
-110.49
-124.04
-134.9
-141.75
-144.49
-144.29
-142.93
-141.83
-141.13
-139.41
-134.49
-124.49
-108.95
-89.09
-67.25
-46.01
-27.71
-14.67
-9.41
-14.29
-30.24
-55.11
-82.97
-105.22
-113.45
-102.88
-74.41
-34.23
9.18
48.59
80.47
104.76
122.9
135.66
142.44
142.39
136.14
126.77
118.94
116.49
120.14
126.83
131.22
128.6
117.06
97.93
74.5
49.99
26.36
4.25
-16.01
-33.49
-46.59
-53.83
-54.83
-50.78
-43.91
-36.38
-29.4
-23.05
-16.71
-9.76
-2.19
5.5
12.68
19.01
24.65
29.94
35.03
39.64
43.08
44.54
43.41
39.61
33.61
26.27
18.37
10.39
2.59
-4.85
-11.93
-18.83
-25.86
-33.26
-40.9
-48.31
-54.96
-60.42
-64.61
-68
-71.42
-75.43
-79.94
-82.13
-79.65
-72.37
-62.45
-52.35
-42.4
-30.39
-13.41
9.58
36.3
63.47
87.29
105.45
117.97
126.57
133.05
138.14
141.49
140.45
134.05
122.83
108.63
93.73
79.66
66.55
53.3
38.46
21.24
2.29
-16.86
-34.23
-48.1
-57.78
-63.68
-67.09
-69.37
-71.44
-73.41
-75.28
-77.12
-79.19
-81.74
-84.57
-86.87
-87.46
-85.57
-81.53
-77.15
-74.89
-76.46
-81.59
-87.9
-91.81
-90.29
-82.06
-67.75
-49.07
-27.7
-4.58
19.75
44.41
67.63
86.94
100.07
105.92
104.94
98.77
89.54
79.26
69.68
62.41
59
60.72
67.91
79.6
93.45
106.32
115.18
117.83
113.3
101.81
84.58
63.38
40.21
16.87
-5.32
-25.65
-44.02
-60.64
-75.82
-89.63
-101.98
-112.78
-122.02
-129.74
-135.87
-140.05
-141.63
-139.98
-134.9
-126.9
-117.17
-107.22
-98.39
-91.45
-86.51
-83.11
-80.54
-78.13
-75.39
-72.11
-68.15
-63.21
-56.77
-48.1
-36.57
-22.06
-5.16
12.91
30.77
47.36
62.09
74.67
84.76
92
96.28
98.27
99.42
101.35
104.83
108.93
111.21
108.85
100.14
85.49
67.13
48.08
30.69
16.03
4.12
-5.2
-11.63
-14.42
-12.95
-7.38
1.13
10.68
19.4
26.18
31.04
34.98
39.34
45.13
52.6
61.24
70.13
78.51
86.05
92.77
98.71
103.58
106.7
107.24
104.67
99.09
91.18
81.98
72.48
63.33
54.71
46.32
37.46
27.38
15.67
2.64
-10.59
-22.41
-31.42
-37.03
-39.72
-40.76
-41.55
-43.06
-45.48
-48.3
-50.68
-51.81
-51.21
-48.89
-45.47
-41.94
-39.4
-38.54
-39.26
-40.55
-40.95
-39.11
-34.49
-27.62
-19.84
-12.78
-7.69
-5.17
-5.28
-7.76
-12.3
-18.65
-26.59
-35.76
-45.67
-55.64
-64.9
-72.75
-78.64
-82.31
-83.93
-83.96
-82.95
-81.31
-79.17
-76.44
-73.2
-69.81
-66.8
-64.67
-63.53
-63.11
-63.07
-63.12
-63.03
-62.4
-60.4
-55.86
-47.78
-36.01
-21.62
-6.66
6.7
17.03
24.17
29.08
33.41
39.08
47.88
61.27
79.91
103.23
129.25
154.86
176.67
192
199.53
199.44
192.96
181.76
167.57
151.94
136.2
121.3
107.6
94.66
81.49
66.9
50.06
30.84
9.77
-12.23
-34.19
-55.3
-75.01
-92.89
-108.59
-121.94
-132.98
-142.06
-149.71
-156.5
-162.79
-168.61
-173.46
-176.26
-175.45
-169.28
-156.34
-136.17
-109.74
-79.49
-48.79
-20.99
1.55
18.09
29.62
38.38
47.06
57.88
71.96
88.94
107.22
124.47
138.42
147.46
150.9
148.89
142.27
132.27
120.46
108.51
97.65
88.16
79.12
68.95
56.67
42.83
29.48
19.02
12.54
8.95
5.76
0.96
-5.1
-9.44
-8.05
1.66
19.07
40.5
61.09
77.19
87.53
92.9
94.68
93.37
88.39
78.83
64.43
46.28
26.54
7.61
-8.8
-22.14
-32.92
-42.18
-50.84
-59.37
-67.71
-75.53
-82.5
-88.57
-93.98
-99.08
-104.07
-108.73
-112.43
-114.28
-113.46
-109.48
-102.42
-92.93
-82.17
-71.5
-62.13
-54.82
-49.63
-46
-43.01
-39.83
-35.98
-31.47
-26.57
-21.63
-16.85
-12.34
-8.11
-4.19
-0.52
3.08
6.89
11.19
15.95
20.83
25.2
28.41
30.09
30.29
29.32
27.59
25.36
22.77
19.85
16.71
13.57
10.79
8.74
7.59
7.22
7.17
6.83
5.68
3.51
0.49
-2.96
-6.33
-9.3
-11.77
-13.94
-16.11
-18.66
-21.82
-25.56
-29.6
-33.33
-35.95
-36.62
-34.78
-30.3
-23.65
-15.76
-7.67
-0.29
5.87
10.71
14.41
17.2
19.25
20.64
21.46
21.91
22.33
23.07
24.31
26
27.86
29.63
31.17
32.51
33.73
34.76
35.25
34.7
32.59
28.71
23.17
16.31
8.54
0.17
-8.61
-17.64
-26.66
-35.35
-43.35
-50.39
-56.43
-61.59
-66.15
-70.37
-74.41
-78.27
-81.81
-84.86
-87.25
-88.92
-89.83
-89.95
-89.08
-86.93
-83.13
-77.47
-69.98
-60.97
-50.94
-40.42
-29.85
-19.54
-9.68
-0.44
7.99
15.5
22.15
28.28
34.46
41.23
48.83
56.95
64.73
71.07
75
76.09
74.62
71.4
67.42
63.45
59.77
56.23
52.45
48.08
43
37.42
31.7
26.22
21.23
16.74
12.52
8.23
3.52
-1.92
-8.18
-15.01
-21.76
-27.44
-30.93
-31.32
-28.2
-21.86
-13.25
-3.67
5.53
13.32
19.08
22.67
24.25
24.18
22.86
20.72
18.21
15.81
13.96
12.97
12.87
13.4
14.11
14.55
14.56
14.31
14.26
14.86
16.28
18.3
20.36
21.9
22.52
22.13
20.97
19.41
17.89
16.76
16.24
16.26
16.46
16.09
14.19
9.82
2.4
-8.04
-20.87
-35.02
-49.4
-63.18
-76.01
-87.86
-98.85
-108.81
-117.1
-122.62
-124.17
-120.99
-113.17
-101.76
-88.37
-74.45
-60.75
-47.1
-32.84
-17.59
-1.84
12.88
24.54
31.47
33.1
30.19
24.38
17.52
11.02
5.44
0.55
-4.45
-10.59
-18.84
-29.8
-43.32
-58.3
-72.55
-83.28
-87.86
-84.78
-74.25
-58.29
-40.02
-22.7
-8.62
1.48
8.61
14.84
22.53
33.3
47.39
63.6
79.82
93.81
104.2
111
115.42
119.2
123.63
128.94
134.36
138.57
140.5
139.81
136.94
132.74
128
123.04
117.81
112.18
106.17
100.13
94.59
90
86.48
83.81
81.48
78.85
75.46
71.02
65.62
59.66
53.77
48.58
44.46
41.28
38.39
34.65
28.94
20.71
10.37
-0.71
-10.74
-18.24
-22.84
-25.56
-28.44
-33.48
-41.49
-51.47
-60.93
-66.99
-67.71
-62.99
-54.57
-45.15
-37.13
-31.51
-27.75
-24.33
-19.77
-13.51
-6.18
0.73
5.74
8.14
8.33
7.65
7.75
9.85
14.24
20.2
26.4
31.58
35
36.58
36.68
35.73
33.87
30.88
26.33
19.91
11.78
2.52
-7.12
-16.64
-26.02
-35.71
-46.37
-58.47
-72
-86.38
-100.59
-113.49
-124.06
-131.62
-135.88
-136.95
-135.29
-131.65
-126.92
-122.03
-117.68
-114.25
-111.71
-109.62
-107.2
-103.63
-98.29
-91.09
-82.57
-73.67
-65.37
-58.33
-52.65
-48.04
-44.06
-40.45
-37.13
-34.13
-31.41
-28.78
-25.94
-22.72
-19.24
-15.74
-12.53
-9.76
-7.4
-5.37
-3.74
-2.82
-3.03
-4.72
-7.91
-12.17
-16.73
-20.66
-23.12
-23.55
-21.76
-17.89
-12.34
-5.61
1.84
9.61
17.4
24.95
31.96
38.01
42.68
45.6
46.69
46.33
45.37
45.06
46.65
50.88
57.52
65.19
71.59
74.37
72.17
65.46
56.62
49.12
46.01
48.63
56.01
65.33
73.17
76.91
75.43
69.25
59.8
48.64
36.91
25.17
13.66
2.6
-7.65
-16.54
-23.39
-27.58
-28.63
-26.39
-21.06
-13.13
-3.26
7.95
19.97
32.35
44.57
56.02
65.96
73.67
78.68
80.93
80.85
79.22
76.81
74.21
71.53
68.5
64.65
59.51
52.93
45.15
36.74
28.34
20.47
13.32
6.68
0.12
-6.8
-14.31
-22.29
-30.23
-37.48
-43.46
-47.88
-50.86
-52.8
-54.18
-55.3
-56.13
-56.44
-55.98
-54.78
-53.14
-51.45
-49.84
-48.1
-45.73
-42.38
-38.2
-33.9
-30.47
-28.73
-28.88
-30.49
-32.8
-35.06
-36.89
-38.29
-39.43
-40.46
-41.46
-42.47
-43.59
-45.01
-46.83
-48.95
-50.89
-51.81
-50.8
-47.16
-40.74
-32.09
-22.28
-12.55
-3.99
2.79
7.71
11.13
13.57
15.52
17.27
18.85
20.17
21.11
21.59
21.67
21.45
20.97
20.2
19.1
17.74
16.36
15.38
15.22
16.1
17.83
19.83
21.31
21.56
20.25
17.52
13.95
10.27
7.06
4.56
2.67
1.1
-0.41
-1.9
-3.21
-4.11
-4.5
-4.62
-4.95
-6.05
-8.23
-11.41
-15.15
-18.73
-21.48
-22.92
-22.86
-21.31
-18.37
-14.22
-9.07
-3.22
2.94
8.96
14.45
19.15
22.97
25.98
28.26
29.86
30.79
31.01
30.51
29.35
27.76
26.07
24.7
23.96
24.01
24.76
25.87
26.88
27.35
26.99
25.72
23.69
21.11
18.26
15.35
12.51
9.73
6.91
3.85
0.33
-3.83
-8.64
-13.9
-19.17
-23.84
-27.31
-29.06
-28.85
-26.68
-22.77
-17.51
-11.36
-4.87
1.36
6.77
10.87
13.38
14.33
14.08
13.18
12.22
11.57
11.25
11.01
10.46
9.32
7.61
5.61
3.75
2.41
1.75
1.71
2.08
2.67
3.34
4
4.54
4.77
4.46
3.41
1.54
-1.14
-4.59
-8.8
-13.74
-19.23
-24.89
-30.1
-34.11
-36.39
-36.83
-35.73
-33.67
-31.32
-29.29
-28.08
-27.9
-28.36
-28.29
-25.96
-19.67
-8.62
6.38
23.02
38.3
49.76
56.52
59.34
59.98
60.24
61.29
63.66
67.56
73.28
80.93
90.04
99.26
106.51
109.66
107.25
98.95
85.51
68.29
48.84
28.53
8.6
-9.89
-26.02
-39.27
-49.48
-56.77
-61.26
-62.89
-61.4
-56.67
-49.07
-39.65
-29.92
-21.38
-14.99
-10.95
-8.72
-7.25
-5.2
-1.12
6.45
18.61
35.66
56.48
78.41
97.59
110.13
113.32
106.73
92.36
73.94
55.59
40.49
30.15
24.53
22.77
23.87
27.02
31.38
35.7
38.34
37.72
33.11
25.11
15.53
6.55
-0.39
-5.09
-8.44
-11.65
-15.39
-19.51
-23.38
-26.51
-28.98
-31.37
-34.27
-37.93
-42.12
-46.43
-50.66
-55.03
-59.97
-65.78
-72.26
-78.76
-84.44
-88.68
-91.33
-92.59
-92.84
-92.33
-91.27
-89.94
-88.85
-88.53
-89.11
-89.82
-89.06
-84.98
-76.45
-63.73
-48.59
-33.56
-20.75
-11
-3.66
2.82
9.96
18.49
28.26
38.59
48.88
58.83
68.3
76.87
83.65
87.58
88.06
85.54
81.64
78.58
78.16
80.84
85.43
89.55
90.66
87.02
78.18
64.83
48.16
29.4
9.58
-10.27
-28.94
-45
-57.25
-65.17
-69.3
-71.1
-72.32
-74.26
-77.32
-80.98
-84.28
-86.16
-85.79
-82.66
-76.68
-68.37
-58.9
-50.05
-43.56
-40.28
-39.43
-38.62
-34.78
-25.56
-10.51
8.62
28.64
46.39
59.89
68.74
73.65
75.62
75.37
73.38
70.16
66.48
63.29
61.18
60.09
59.35
58.21
56.41
54.15
51.69
48.7
44.16
36.94
26.89
15.5
5.39
-1.2
-4.01
-5.19
-8.15
-15.37
-26.69
-38.95
-47.56
-48.91
-42.3
-30.24
-17.02
-6.47
-0.43
1.58
1.3
0.29
-1.11
-3.89
-9.62
-19.46
-33.34
-49.73
-66.12
-79.84
-88.94
-92.78
-91.95
-87.87
-82.08
-75.82
-69.79
-64.23
-59.01
-53.65
-47.38
-39.25
-28.53
-15.27
-0.73
12.64
21.98
25.06
21.34
12.29
0.75
-10.01
-17.48
-20.54
-19.57
-15.9
-11.23
-7.11
-4.66
-4.6
-6.91
-10.83
-14.97
-17.73
-17.54
-13.1
-3.71
10.65
28.9
49.34
69.9
88.81
104.85
117.91
128.69
138
146.02
149.54
144.68
128.95
103.57
73.07
43.34
18.68
-0.57
-15.67
-28.55
-40.58
-52.41
-62.61
-70.2
-74.8
-76.8
-77.13
-76.77
-76.58
-76.79
-77.05
-76.68
-75.35
-73.09
-70.28
-67.47
-64.95
-62.87
-61.18
-59.75
-58.57
-57.97
-58.29
-59.57
-61.3
-62.29
-61.26
-57.18
-49.74
-39.5
-27.79
-16.23
-6.17
1.61
7.07
10.73
13.35
15.65
18.07
20.54
22.54
23.34
22.25
19.04
13.99
7.91
1.82
-3.45
-7.5
-10.43
-12.65
-14.48
-15.93
-16.65
-16.09
-13.75
-9.5
-3.57
3.36
10.41
16.62
21.32
24.42
26.57
29.13
33.56
40.76
50.4
60.85
69.65
74.49
73.94
67.8
57.09
43.58
29.5
17
7.65
1.84
-1.53
-4.72
-10.17
-19.1
-30.77
-42.54
-51.18
-54.48
-52.39
-46.83
-40.53
-35.49
-31.96
-28.51
-22.92
-13.35
0.69
18.19
37.06
55.02
70.36
82.38
91.15
97.08
100.47
101.37
99.75
95.89
90.64
85.21
80.8
77.98
76.55
75.74
74.55
72.16
68.06
62.04
54.16
44.78
34.53
24.3
15.01
7.32
1.24
-3.97
-9.52
-16.55
-25.33
-34.77
-42.7
-46.71
-45.25
-38.43
-28.03
-16.7
-6.82
0.29
4.44
6.09
5.73
3.55
-0.35
-5.58
-11.19
-16.08
-19.8
-23.04
-27.58
-35.42
-47.5
-62.61
-77.48
-87.72
-89.59
-81.53
-64.78
-42.96
-20.61
-1.59
12.14
20.8
26.32
31.26
37.69
46.33
56.11
64.62
69.09
67.58
59.71
46.65
30.43
13.23
-3.05
-16.77
-26.39
-30.63
-28.96
-22.27
-12.92
-4.15
0.99
0.9
-4.08
-11.91
-19.68
-24.5
-24.35
-18.51
-7.89
5.12
17.26
25.48
28.23
26.25
22.4
20.56
24.16
34.86
51.96
72.92
94.4
113.52
128.5
138.65
143.84
143.98
138.88
128.5
113.48
95.27
75.8
56.95
39.76
24.3
10
-3.69
-16.76
-28.59
-38.49
-46.23
-52.29
-57.7
-63.48
-70.17
-77.69
-85.41
-92.5
-98.19
-101.93
-103.46
-102.73
-99.86
-95.06
-88.53
-80.32
-70.27
-58.16
-44.14
-29
-14.13
-1.05
9.36
17.11
22.89
27.3
30.32
31.38
30.02
26.79
23.57
22.97
27.07
36.27
48.74
60.97
69
69.65
61.44
44.7
21.23
-6.47
-35.81
-64.67
-91.6
-115.72
-136.45
-153.46
-166.71
-176.61
-184.03
-190.02
-195.28
-199.74
-202.49
-202.21
-197.85
-189.22
-177.15
-163.23
-149.12
-135.78
-123.1
-109.95
-94.76
-76.21
-53.82
-27.98
0.16
28.96
56.64
81.44
101.97
117.5
128.28
135.54
141.11
146.6
152.64
158.5
162.4
162.41
157.53
148.14
135.92
123.05
111.34
101.64
93.87
87.36
81.39
75.47
69.27
62.42
54.42
44.89
34
22.92
13.61
8.07
7.44
11.2
17.22
22.66
25.09
23.57
18.88
12.98
7.84
4.47
2.55
0.96
-1.14
-3.75
-5.86
-6.06
-3.33
2.22
9.46
16.75
22.72
26.82
28.98
29.08
26.99
22.9
17.41
11.7
6.82
3.02
-0.51
-5.51
-13.74
-25.48
-38.75
-50.23
-56.32
-54.69
-45.02
-28.73
-8.61
10.09
20.92
19.01
3.48
-22.05
-51.48
-80.62
-107.07
-129.95
-149.4
-165.54
-175.9
-178.73
-173.44
-161.1
-144.08
-124.86
-105.26
-86.22
-67.84
-49.8
-32.16
-14.97
2.12
20.01
39.72
61.19
82.34
99.66
109.9
111.54
105.9
96.36
86.59
78.94
73.93
70.9
69.44
70.05
73.44
79.3
85.42
88.03
83.51
70.35
50.3
27.97
9.13
-1.61
-2.27
6.08
20.2
36.05
50.02
59.53
63.13
60.45
52.1
39.77
25.97
13.25
3.22
-4.22
-10.79
-18.62
-28.85
-40.59
-51.13
-57.15
-56.2
-47.78
-33.32
-15.58
2.21
16.97
26.34
29.23
26.21
19.37
11.49
4.92
0.6
-1.82
-3.09
-3.21
-0.97
5.59
17.9
35.84
57.41
79.32
98.06
110.87
116.38
114.82
107.82
98
88.32
81.27
78.01
78
79.19
78.85
74.68
65.68
52.36
36.46
20.09
4.72
-9.62
-24.1
-40.36
-59.38
-80.75
-103.09
-124.52
-143.47
-159.08
-171.19
-179.78
-184.68
-185.66
-182.64
-176.54
-168.7
-160.58
-153.25
-147.31
-142.8
-139.38
-136.66
-134.15
-132.01
-130.28
-128.8
-126.89
-123.72
-118.6
-111.07
-101.37
-85.64
-62.31
-32.16
1.7
35.54
66.33
91.76
112.71
130.13
144.77
156.76
166.56
173.55
177.58
178.5
176.2
170.76
162.22
150.86
136.57
119.5
100.34
80.81
63.19
49.65
41.45
37.96
37
35.38
30.54
21.53
9.44
-3.52
-15.21
-24.37
-30.97
-35.59
-38.91
-41.12
-41.99
-41.05
-38.21
-33.92
-29.18
-25.26
-23.25
-23.52
-25.46
-27.68
-28.39
-26.09
-20.16
-10.98
0.39
12.66
24.64
35.27
43.55
48.79
51.01
51.1
50.6
50.91
52.4
54.05
53.8
49.54
40.19
26.12
9.14
-8.16
-23.03
-33.19
-37.29
-35.2
-28.17
-18.54
-9.09
-2.07
1.54
2.07
0.6
-1.79
-4.53
-7.52
-10.84
-14.41
-17.92
-21
-23.43
-25.29
-26.87
-28.33
-29.58
-30.18
-29.6
-27.37
-23.37
-17.92
-11.71
-5.63
-0.51
3.09
4.95
5.2
4.16
2.19
-0.47
-3.75
-7.7
-12.37
-17.71
-23.55
-29.67
-35.85
-42.06
-48.31
-54.59
-60.68
-65.97
-69.65
-70.91
-69.24
-64.65
-57.75
-49.48
-40.83
-32.61
-25.23
-18.78
-13.17
-8.22
-3.77
0.25
3.89
7.09
9.78
11.87
13.33
14.28
14.95
15.68
16.79
18.47
20.74
23.39
26.03
28.15
29.23
28.9
27.03
23.86
19.92
15.86
12.23
9.25
6.71
4.15
1.02
-3.03
-8
-13.51
-18.96
-23.65
-26.94
-28.37
-27.66
-24.78
-19.98
-13.78
-6.91
-0.15
5.78
10.38
13.42
14.94
15.13
14.36
13.03
11.6
10.48
9.98
10.26
11.22
12.59
13.95
14.92
15.24
14.84
13.81
12.32
10.55
8.58
6.44
4.15
1.76
-0.63
-2.91
-5.04
-7.08
-9.19
-11.56
-14.31
-17.38
-20.53
-23.36
-25.41
-26.23
-25.47
-22.94
-18.64
-12.89
-6.27
0.51
6.79
12.09
16.2
19.1
20.89
21.66
21.46
20.28
18.26
15.71
13.05
10.7
8.89
7.66
6.84
6.13
5.08
3.42
1.07
-1.85
-5.12
-8.49
-11.61
-14.31
-16.77
-19.83
-24.3
-30.71
-39.14
-49.17
-59.89
-69.72
-77.06
-80.84
-81.28
-78.82
-74.11
-67.85
-60.89
-53.8
-45.95
-36.14
-23.29
-8.14
8.17
24.06
38.1
49.4
58.22
66.84
77.98
93.45
112.06
131.79
150.13
164.62
172.7
167.6
145.22
106.66
65.82
32.08
10.83
1.76
2.68
9.03
15.58
19.31
19.98
19.69
20.11
23.07
29.17
37.55
45.79
50.99
51.28
45.57
33.4
14.02
-11.5
-40.2
-67.65
-89.54
-102.89
-106.49
-101.34
-89.98
-76.04
-62.11
-49.43
-38
-27.25
-16.21
-3.71
11.19
28.59
47.05
64.19
77.3
84.17
83.89
77.2
66.31
54
42.71
33.66
26.82
21.04
14.7
6.36
-4.69
-18.22
-33.32
-48.8
-63.74
-77.7
-90.7
-102.96
-114.44
-124.78
-133.29
-139.03
-141.08
-138.77
-131.98
-121.24
-107.52
-91.9
-75.3
-58.43
-41.8
-25.66
-10.24
4.28
17.85
30.69
43.37
56.13
68.63
79.94
89.44
97.19
103.88
110.54
118.16
127.56
138.6
150.4
161.4
170.64
177.83
182.94
185.84
186.13
183.45
177.18
166.94
152.82
136.51
120.28
105.45
91.3
72.46
45.12
8.71
-31.95
-73.75
-114.62
-152.44
-185.95
-215.02
-239.75
-259.4
-272.8
-279
-278.25
-271.39
-259.72
-244.87
-228.07
-209.83
-189.68
-167.13
-142.22
-115.89
-89.13
-62.9
-38.1
-15.48
4.74
23.06
40.2
56.73
72.64
87.62
101.12
112.35
120.72
126.03
128.71
129.42
128.79
127.22
124.98
122.3
119.27
115.88
112.03
107.63
102.61
96.89
90.43
83.18
75.06
65.87
55.47
43.97
31.92
20.31
10.24
2.53
-2.57
-5.47
-6.89
-7.51
-7.72
-7.71
-7.71
-8.26
-10.08
-13.59
-18.38
-23.12
-25.96
-25.33
-20.73
-13.02
-4.05
4.17
10.27
13.8
15.05
14.55
12.68
9.69
5.84
1.49
-2.77
-6.19
-8.24
-8.78
-8.16
-7.04
-6.16
-6.07
-7.3
-10.02
-13.91
-18.29
-22.54
-26.44
-30.23
-34.48
-39.58
-45.98
-53.51
-61.26
-67.9
-72.25
-73.81
-72.7
-69.49
-64.76
-59.71
-55.52
-53.03
-52.48
-53.34
-54.41
-53.59
-48.43
-32.68
-3.62
36.21
79.48
117.53
143.82
154.89
151.42
135.49
110.12
78.69
45.27
13.84
-12.89
-32.07
-43.28
-47.77
-47.58
-44.5
-40.34
-36.54
-34.08
-33.52
-34.8
-37.79
-42.05
-47.13
-52.49
-57.93
-63.2
-67.9
-71.85
-74.99
-77.83
-80.92
-84.64
-88.93
-93.54
-97.73
-100.61
-101.51
-99.79
-95.35
-88.07
-78.06
-65.95
-52.99
-40.47
-27.26
-12.74
3.91
22.9
43.73
64.79
83.51
97.55
106.06
110.23
112.11
115.66
120.92
126.17
129.31
128.65
123.91
116.21
107.33
98.58
90.62
83.17
74.12
63.19
51.02
38.86
27.95
18.93
11.46
4.69
-2.47
-10.33
-18.17
-25.05
-30.36
-34.15
-37.18
-40.55
-45.02
-50.63
-56.34
-60.41
-61.35
-58.5
-52.13
-43.28
-33.31
-23.32
-13.88
-4.65
5.32
16.93
30.38
44.77
58.22
68.36
73.25
72.13
65.84
56.43
46.25
37.11
29.79
24.1
19.32
14.68
9.79
4.84
0.24
-3.73
-7.12
-10.2
-13.17
-16.11
-18.91
-21.38
-23.29
-24.76
-26.19
-28.32
-31.68
-36.29
-41.48
-45.93
-47.63
-44.44
-34.76
-18.31
3.34
27.28
50.23
69.15
80.4
80.58
68.23
45.6
18.95
-3.87
-16.35
-15.77
-4.59
10.36
20.86
20.8
8.72
-12
-35.61
-56.83
-72.75
-83.6
-91.33
-97.65
-102.81
-106.89
-108.1
-105.74
-100.55
-93.99
-87.44
-81.33
-74.98
-67.01
-56.19
-42.09
-25.81
-9.43
5.01
15.95
22.87
26.34
27.7
28.5
30.12
33.15
36.6
39.6
41.32
41.38
40.01
37.97
36.32
36.07
37.54
40.49
44.36
48.41
52.03
54.94
57.13
58.73
59.85
60.37
60.02
58.58
55.76
51.29
45.01
36.88
27.07
15.98
4.07
-8.23
-20.63
-33.05
-45.46
-57.65
-69
-78.6
-85.42
-88.8
-88.74
-85.86
-81.16
-75.64
-69.96
-64.48
-59.4
-55.04
-51.84
-50.23
-50.24
-51.41
-52.87
-53.77
-53.69
-52.86
-51.87
-51.14
-50.38
-48.54
-44.33
-37.02
-27.07
-16.02
-5.75
2.54
9.04
15.18
22.88
33.62
47.83
65.16
84.82
105.7
125.99
142.99
153.63
155.97
150.53
140.68
131.25
126.01
125.41
126.26
123.38
112.4
92.12
64.99
35.77
9.35
-11.03
-24.44
-31.73
-34.55
-34.62
-33.31
-31.57
-30.1
-29.46
-30.09
-32.14
-34.95
-36.82
-35.28
-27.86
-13.33
7.41
31.43
54.65
73.43
85.85
92.21
94.46
95.22
96.5
98.99
101.92
103.58
102.13
96.27
85.43
69.4
47.9
20.5
-12.73
-50.23
-88.32
-121.62
-144.76
-154.45
-150.72
-136.63
-116.79
-95.47
-75.6
-58.59
-44.87
-34.31
-26.29
-19.47
-12.01
-2.2
10.65
25.74
41.2
54.96
65.48
72.01
74.32
72.23
65.56
54.42
39.61
22.64
5.45
-10.21
-23.11
-32.73
-39.15
-42.88
-44.69
-45.35
-45.49
-45.4
-45.03
-44.1
-42.3
-39.4
-35.18
-29.38
-21.74
-12.26
-1.57
8.9
17.26
22.04
23.02
21.69
20.61
21.98
26.35
32.17
36.52
36.73
31.88
23.25
13.7
6.14
2.19
1.69
3.17
4.88
5.67
5.2
3.66
1.19
-2.36
-7.43
-14.31
-22.82
-32.17
-41.11
-48.45
-53.49
-56.25
-57.3
-57.4
-56.98
-56.07
-54.35
-51.45
-47.28
-42.09
-36.49
-31.18
-26.81
-23.74
-22.08
-21.73
-22.39
-23.76
-25.61
-27.75
-30.13
-32.68
-35.32
-37.75
-39.47
-39.74
-37.74
-32.85
-25.04
-15
-4.07
6.37
15.53
23.79
32.51
43.33
57.16
73.41
89.98
103.95
112.82
115.44
112.35
105.4
96.79
88.22
80.38
73.07
65.56
56.99
46.62
33.88
18.44
0.43
-19.34
-39.15
-56.64
-69.4
-75.74
-75.15
-68.43
-57.33
-43.97
-30.33
-18.01
-8.16
-1.57
1.49
1.42
-0.49
-2.28
-1.74
2.73
11.31
22.32
32.56
38.43
37.54
29.81
17.56
4.46
-6.19
-12.63
-14.83
-13.78
-10.32
-4.69
3.29
13.36
24.36
34.31
41.22
44.08
43.42
41.18
39.62
40.24
42.92
46.05
47.3
44.81
38.3
29.02
19.32
11.26
5.62
1.79
-1.67
-5.97
-11.41
-17.43
-23.25
-28.23
-32.27
-35.4
-37.39
-37.66
-35.63
-31.18
-24.65
-16.87
-7.89
2.49
14.76
29.18
45.31
61.94
77.42
90.11
98.29
101.58
99.41
91.38
77.44
58.03
34.26
7.73
-19.73
-47.03
-71.9
-93.41
-111.36
-126.05
-138.15
-148.34
-157.01
-164.11
-170.18
-173.51
-173.56
-170.24
-163.99
-155.74
-146.77
-138.28
-125
-114.19
-103.26
-90.09
-72.85
-50.66
-24.25
4
30.79
52.83
67.01
74.02
74.76
70.67
63.59
55.51
48.34
43.71
42.42
43.65
47.3
53.03
58.91
62.48
61.7
55.66
44.92
31
14.42
-2.06
-16.37
-27.49
-35.36
-40.82
-45.1
-47.77
-48.91
-48.67
-46.45
-42.21
-36.4
-29.63
-22.49
-15.41
-8.63
-2.6
2.2
5.7
7.67
7.87
6.31
3.28
-0.78
-5.38
-10.2
-14.9
-18.93
-21.77
-23.04
-22.4
-19.61
-14.46
-6.84
2.95
14.18
25.68
35.96
43.75
48.53
50.86
52.09
53.78
57
62.14
69
77.14
86.14
95.6
104.87
112.93
118.41
119.91
116.52
108.01
95
78.65
60.37
41.56
23.37
6.7
-7.76
-19.46
-27.9
-32.85
-34.58
-34.11
-33
-32.73
-33.87
-35.66
-36.25
-33.62
-26.75
-16.15
-3.69
8.31
18.09
24.88
28.68
29.59
27.39
21.52
11.6
-1.94
-17.61
-33.23
-46.57
-56.02
-61.06
-62.24
-60.89
-58.58
-56.52
-55.11
-53.63
-50.61
-44.43
-34.2
-20.52
-5.51
7.92
17.28
21.67
22.25
21.58
22.3
25.77
31.56
37.94
42.88
45.2
44.85
42.7
39.87
37.2
34.86
32.54
29.64
25.47
19.43
11.22
1.04
-10.28
-21.47
-31.39
-39.54
-46.29
-52.71
-59.89
-68.14
-76.63
-83.46
-86.38
-83.8
-75.35
-61.81
-44.72
-25.59
-5.65
14.04
32.46
48.23
59.63
65.34
65.39
61.58
57.26
55.93
59.76
68.86
81.09
92.49
98.6
95.77
82.01
57.67
25.14
-11.37
-45.87
-71.7
-83.46
-78.62
-58.42
-27.63
7.26
39.71
62.81
72.28
68.13
53.65
33.2
10.89
-12.07
-34.75
-56
-74.66
-89.9
-100.46
-106.45
-108.87
-108.92
-107.53
-104.92
-101.03
-96.03
-90.13
-83.7
-77.39
-71.63
-66.29
-60.64
-53.53
-44.13
-32.52
-19.48
-6.2
6.18
17.17
27.14
37.03
47.77
59.54
71.35
81.4
87.61
88.27
82.81
72.01
57.66
42.02
27.05
13.98
3.39
-4.48
-9.61
-12.27
-13.33
-14.42
-17.46
-23.77
-33.18
-43.85
-52.84
-57.55
-56.7
-50.73
-41.17
-29.74
-17.55
-4.91
8.34
22.18
35.95
48.53
58.95
67.11
74.16
82.02
92.12
104.1
115.16
120.73
116.7
101.72
78.36
52.37
30.09
15.87
10.59
12.31
17.88
24.78
31.67
37.78
42
42.61
37.78
26.64
9.9
-10.42
-31.66
-51.43
-67.88
-79.57
-85.57
-85.52
-79.9
-70.11
-58.15
-45.87
-34.46
-24.13
-14.25
-3.89
7.59
20.2
33.32
45.93
56.85
65.03
69.72
70.71
68.26
63.03
55.87
47.52
38.51
29.15
19.54
9.71
-0.3
-10.34
-20.15
-29.45
-38.05
-45.9
-53.13
-59.97
-66.59
-72.97
-78.87
-83.86
-87.53
-89.6
-90.22
-89.85
-89.22
-88.93
-89
-88.8
-87.08
-82.56
-74.44
-62.72
-48.13
-31.83
-15.01
1.25
15.9
27.84
36.03
40.06
40.63
39.62
39.35
41.33
45.37
49.6
51.5
49.34
43.09
34.28
25.05
17.01
10.59
5.3
0.46
-4.04
-7.27
-7.73
-3.96
4.63
17.48
32.85
48.26
61.1
69.32
72.02
69.61
63.64
56.28
49.64
45.09
42.78
41.53
39.35
34.35
25.55
13.52
0.14
-12.04
-20.71
-24.51
-23.39
-18.59
-12.14
-6.41
-3.4
-4.13
-8.4
-14.7
-20.88
-24.77
-25
-21.33
-14.6
-6.34
1.84
8.52
12.86
14.55
13.85
11.4
8.14
5.12
3.25
3.1
4.61
7.04
9.13
9.51
7.21
2.03
-5.34
-13.58
-21.18
-27.07
-30.88
-33.07
-34.58
-36.34
-38.85
-42.07
-45.57
-48.9
-51.81
-54.36
-56.62
-58.42
-59.15
-57.92
-53.89
-46.83
-37.16
-25.8
-13.76
-1.87
9.26
18.98
26.32
30.16
29.86
25.98
20.6
16.69
16.78
21.6
29.56
37.46
42.19
41.99
37.11
29.23
20.33
11.81
4.26
-2.13
-7.09
-10.1
-10.8
-9.46
-7.16
-5.45
-5.55
-7.73
-11.09
-13.99
-14.87
-13.2
-9.77
-6.42
-5.05
-6.39
-9.48
-11.97
-11.19
-5.42
5.45
19.94
35.63
49.91
60.53
65.72
64.44
56.59
43.32
27.1
11.14
-1.46
-8.73
-10.27
-7.12
-1.01
6.37
13.78
20.5
25.95
29.56
30.67
28.64
22.96
13.42
0.15
-16.35
-35.11
-54.71
-73.34
-89.06
-100.17
-105.66
-105.47
-100.49
-92.26
-82.35
-71.9
-61.33
-50.39
-38.54
-25.4
-11.14
3.37
16.8
27.82
35.69
40.55
43.51
46.22
50.38
57.12
66.73
78.39
90.4
100.46
106.41
107.05
102.78
95.72
89.04
85.73
87.32
93.16
100.78
106.95
109.05
105.88
97.61
85.17
69.53
51.45
31.78
11.84
-6.42
-20.78
-29.56
-32.26
-29.93
-24.9
-19.99
-17.59
-19
-24.18
-31.91
-40.31
-47.37
-51.49
-51.94
-49.12
-44.45
-40
-37.73
-38.65
-42.38
-47.18
-50.66
-50.76
-46.6
-38.71
-28.62
-17.95
-7.79
1.54
10.14
18
24.69
29.39
31.45
30.82
28.31
25.27
23.12
22.76
24.41
27.56
31.23
34.25
35.56
34.47
30.78
24.78
17.03
8.13
-1.39
-11.04
-20.22
-28.13
-33.92
-37.05
-37.68
-36.71
-35.61
-35.84
-38.33
-43.19
-49.85
-57.45
-65.18
-72.39
-78.55
-83.04
-85.19
-84.44
-80.56
-73.81
-64.91
-54.85
-44.64
-35.12
-26.83
-20.03
-14.73
-10.8
-8.02
-6.22
-5.32
-5.32
-6.2
-7.86
-10
-12.22
-14.19
-15.74
-16.95
-17.98
-18.95
-19.76
-20.04
-19.33
-17.23
-13.59
-8.55
-2.49
4.13
10.86
17.25
22.89
27.29
29.95
30.48
28.93
25.87
22.41
19.95
19.66
22
26.6
32.55
38.96
45.49
52.39
60.09
68.61
77.15
84.21
88.17
88.12
84.32
78.16
71.63
66.51
63.74
63.15
63.68
63.87
62.51
59.02
53.59
46.95
39.98
33.32
27.23
21.77
17.01
13.12
10.28
8.41
7.04
5.36
2.62
-1.54
-6.83
-12.42
-17.31
-20.7
-22.31
-22.44
-21.82
-21.44
-22.19
-24.64
-28.93
-34.75
-41.52
-48.74
-56.17
-63.87
-71.98
-80.34
-88.26
-94.62
-98.25
-98.55
-95.86
-91.42
-86.84
-83.45
-81.71
-81.09
-80.37
-78.16
-73.44
-65.87
-55.9
-44.54
-33.25
-23.41
-15.98
-11
-7.48
-3.62
2.55
12.26
25.38
40.19
53.92
63.67
67.38
64.5
56.05
44.28
31.89
21.3
14.01
10.34
9.56
10.38
11.63
12.68
13.7
15.33
18.31
23.07
29.6
37.6
46.6
56.06
65.26
73.22
78.88
81.52
81.13
78.56
75.19
72.41
71
70.94
71.5
71.67
70.51
67.39
62.03
54.47
44.95
34.01
22.36
10.83
0.08
-9.61
-18.5
-27.21
-36.47
-46.68
-57.57
-68.17
-76.94
-82.31
-83.15
-79.31
-71.71
-62.12
-52.71
-45.41
-41.44
-40.9
-42.78
-45.28
-46.45
-44.9
-40.18
-32.97
-24.81
-17.62
-12.98
-11.59
-13.1
-16.39
-20.17
-23.56
-26.42
-29.16
-32.32
-36.04
-39.84
-42.74
-43.76
-42.46
-39.31
-35.47
-32.28
-30.6
-30.52
-31.46
-32.59
-33.32
-33.5
-33.47
-33.58
-33.87
-33.93
-33.11
-30.85
-26.99
-21.67
-15.17
-7.69
0.68
9.85
19.55
29.13
37.68
44.18
48.06
49.4
49.05
48.47
49.08
51.77
56.49
62.2
67.32
70.47
71.03
69.26
66.05
62.44
59.25
56.96
55.54
54.75
54.27
53.7
52.23
48.7
42.08
32.16
20.06
7.75
-2.36
-8.34
-9.47
-6.74
-2.57
0.3
-0.1
-4.21
-11.63
-21.37
-32.22
-42.86
-51.84
-57.42
-57.39
-49.58
-31.4
-4.32
24.97
46.69
53.04
42.38
19.27
-8.28
-34.1
-54.95
-70.84
-83.39
-94.04
-103.09
-108.24
-108.25
-103.27
-94.76
-84.58
-74.37
-64.74
-55.13
-44.55
-32.61
-20.44
-9.83
-2.25
2.39
5.56
9.54
16.37
27.07
41.44
58.05
75.09
90.59
102.5
108.69
107.57
99.06
85.18
69.64
56.28
47.47
43.15
41.16
38.64
33.8
26.86
19.85
15.4
15.17
19
24.99
30.41
32.84
31.21
26.1
19.39
13.38
9.77
8.91
9.74
10.4
9.06
4.7
-2.7
-12.38
-23.34
-34.59
-45.39
-55.02
-62.79
-68.08
-70.61
-70.77
-69.68
-68.78
-69.19
-71.13
-73.68
-75.17
-73.94
-69.04
-60.67
-50.15
-39.34
-30.1
-23.63
-19.98
-17.9
-15
-8.66
2.93
19.73
39.62
59.17
75.04
85.39
90.49
92.24
92.8
93.4
93.72
92.44
88.19
80.5
70.02
58.06
45.78
33.72
21.79
9.64
-2.8
-15.13
-26.63
-36.52
-44.45
-50.57
-55.5
-59.97
-64.58
-69.6
-74.91
-80.09
-84.61
-88.06
-90.32
-91.55
-92.04
-92.05
-91.67
-90.82
-89.4
-87.39
-84.84
-81.69
-77.58
-71.7
-63.09
-51.15
-36.13
-19.38
-3.11
10.5
20.07
25.69
28.88
31.96
37.27
46.33
59.58
76.32
94.74
111.96
124.31
128.35
122.35
107.64
88.8
72.17
63.28
64.28
72.88
83.46
89.69
87.11
74.47
53.33
26.71
-2.3
-31.14
-57.77
-80.41
-97.51
-108.09
-111.98
-109.76
-102.5
-91.58
-78.56
-65.16
-53.07
-43.51
-36.78
-32.11
-27.96
-22.76
-15.65
-6.81
2.61
10.97
16.65
18.65
16.93
12.42
6.69
1.39
-2.27
-3.84
-3.53
-1.7
1.65
7.19
16.01
28.97
46.09
66.25
87.48
107.35
123.46
133.55
135.59
128.14
110.94
85.72
56.27
27.84
5.39
-8.05
-12.5
-10.84
-7.32
-5.84
-8.42
-14.8
-22.98
-30.21
-34.14
-33.57
-28.88
-21.88
-15.36
-11.97
-13.38
-19.63
-29.15
-39.31
-47.26
-50.55
-47.46
-37.22
-19.99
2.93
29.14
55.32
77.95
94.32
103.46
106.31
105.05
102.03
98.54
94.45
88.7
80.28
69.3
57.13
45.7
36.11
27.57
17.47
2.8
-17.84
-42.93
-68.15
-88.1
-98.61
-98.35
-88.88
-73.28
-54.56
-34.65
-14.82
3.36
17.41
24.53
23.09
14.02
1.13
-9.97
-13.89
-7.51
8.96
32.06
56.29
75.74
85.73
83.91
70.59
48.39
21.09
-7.6
-35.04
-60.02
-82.35
-102.01
-118.45
-130.47
-136.72
-136.46
-130.06
-118.99
-105.27
-90.65
-75.9
-60.85
-45.11
-29.01
-14.15
-3.11
1.66
-0.94
-9.95
-22.68
-35.87
-46.89
-54.28
-57.64
-56.86
-51.61
-41.53
-26.77
-8.66
10.41
27.65
41.02
49.87
55.02
58.3
61.83
67.3
75.53
86.2
97.86
108.22
114.62
114.87
108.05
95.03
78.26
60.91
45.73
34.19
26.27
20.9
16.66
12.29
6.77
-0.68
-10.76
-23.85
-39.77
-57.55
-75.49
-91.58
-104.06
-111.96
-115.27
-114.84
-111.91
-107.67
-102.75
-97.08
-89.93
-80.34
-67.64
-51.87
-33.86
-15
3.22
19.57
33.14
43.44
50.37
54.29
56.14
57.35
59.44
63.48
69.62
77.05
84.37
90.14
93.32
93.44
90.37
84.14
74.79
62.55
47.99
32.13
16.25
1.56
-11.08
-21.25
-28.96
-34.47
-38.23
-40.81
-42.93
-45.42
-48.96
-53.7
-58.94
-63.03
-63.89
-59.85
-50.53
-37.24
-22.64
-9.77
-1.01
2.72
1.89
-2.09
-7.65
-13.5
-18.72
-22.73
-25.09
-25.62
-24.7
-23.37
-23.28
-26.19
-33.12
-43.57
-55.14
-64.09
-66.63
-60.64
-46.86
-28.81
-11.57
0.46
5.38
4.49
1.46
0.49
4.29
12.89
23.92
33.99
40.52
43.06
43.38
44.36
48.38
55.89
65.23
73.44
77.91
77.59
73.27
66.84
60.01
53.43
46.54
38.29
28.12
16.47
4.78
-5.17
-11.96
-14.91
-14.15
-10.36
-4.46
2.76
10.62
18.55
26.18
33.31
40.06
46.74
53.73
61.11
68.61
75.52
81.06
84.63
86.01
85.36
83.02
79.34
74.55
68.85
62.47
55.63
48.39
40.66
32.28
23.27
14.01
5.14
-2.72
-9.35
-14.97
-20.09
-25.05
-29.69
-33.35
-35.27
-35.18
-33.69
-32.28
-32.8
-36.89
-45.37
-58.06
-73.91
-91.27
-108.41
-123.87
-136.87
-147.23
-155.24
-161.36
-165.78
-168.11
-167.25
-161.57
-149.33
-129.32
-101.42
-66.96
-28.63
10.18
46.3
77.57
103.2
123.5
139.36
151.55
160.32
165.21
165.32
159.67
147.77
130.08
108.31
85.31
64.39
48.35
38.64
35.03
36.02
39.69
44.38
49
52.75
54.7
53.81
49.23
40.82
29.36
16.35
3.42
-8.13
-17.56
-24.46
-28.55
-29.6
-27.68
-23.57
-18.73
-14.95
-13.48
-14.3
-15.95
-16.23
-13.34
-6.83
2.2
11.75
20.04
26.36
31.06
34.93
38.21
40.16
39.3
34.33
24.95
12.18
-2.02
-15.68
-27.47
-36.94
-44.22
-49.63
-53.31
-55.17
-55.16
-53.43
-50.43
-46.84
-43.24
-39.98
-37.22
-34.99
-33.32
-32.17
-31.35
-30.56
-29.4
-27.62
-25.33
-22.94
-20.96
-19.71
-19.13
-18.91
-18.72
-18.47
-18.34
-18.64
-19.52
-20.85
-22.28
-23.45
-24.23
-24.77
-25.37
-26.21
-27.27
-28.33
-29.2
-29.84
-30.44
-31.29
-32.63
-34.55
-36.96
-39.66
-42.4
-44.91
-46.86
-47.81
-47.35
-45.17
-41.22
-35.8
-29.53
-23.2
-17.55
-13.1
-10.1
-8.53
-8.26
-9.08
-10.75
-13.01
-15.54
-18.04
-20.22
-21.85
-22.8
-22.99
-22.47
-21.38
-20.02
-18.76
-17.99
-17.8
-18
-18.16
-17.83
-16.82
-15.26
-13.6
-12.36
-11.86
-11.96
-12.13
-11.6
-9.71
-6.09
-0.8
5.67
12.57
19.04
24.61
29.14
33
37.04
42.49
50.75
63.08
79.64
98.9
117.57
131.34
136.65
132.34
120.21
104.26
89.19
79.99
77.91
82.12
90.33
99.48
106.37
108.31
103.55
91.61
72.05
46.38
17.38
-11.94
-39.17
-62.88
-82.55
-98.15
-109.65
-116.95
-120.07
-119.31
-115.5
-109.69
-102.69
-95.14
-87.37
-79.54
-71.65
-63.56
-54.74
-44.34
-31.27
-14.8
4.52
24.85
43.52
57.87
66.05
67.49
62.41
52.12
39.07
25.35
12.24
0.1
-11.1
-21.18
-29.68
-35.99
-40.96
-44.43
-46.56
-47.59
-47.65
-46.67
-44.44
-40.95
-36.58
-32.01
-27.06
-22.26
-18.11
-14.74
-12.02
-9.62
-7.26
-4.77
-2.11
0.79
3.53
5.7
7
7.35
6.93
6.05
5.05
4.13
3.38
2.49
1.21
-0.58
-2.75
-5.03
-7.18
-9.12
-10.98
-12.91
-15.15
-17.78
-20.68
-23.74
-26.95
-30.46
-34.43
-38.84
-43.29
-47.15
-49.83
-51.08
-51.22
-51.03
-51.22
-51.97
-52.53
-51.5
-47.29
-38.9
-26.34
-10.77
5.95
21.82
35.25
45.22
51.35
53.83
53.39
51.31
49.32
49.19
52.17
58.58
67.64
77.72
86.86
93.5
96.82
96.78
93.86
88.64
81.46
72.44
61.69
49.7
37.57
26.7
18.26
12.52
8.72
5.63
2.55
0.08
0.01
4.3
13.7
26.94
40.91
52.03
57.79
57.76
53.63
48.3
44.73
44.89
49.36
57.04
65.39
71.03
70.84
63.26
49.43
33.18
19.78
13.86
17.55
29.64
46.36
63.07
76.06
83.38
84.8
80.79
71.82
58.13
40.06
18.61
-4.49
-27.15
-47.54
-64.69
-78.64
-90.08
-99.9
-108.73
-116.67
-123.5
-128.83
-132.54
-134.8
-136
-136.58
-136.78
-136.63
-135.92
-134.31
-131.45
-127.22
-121.83
-115.97
-110.53
-106.24
-103.14
-100.45
-96.75
-90.63
-81.17
-68.17
-52.03
-33.35
-12.72
9.3
31.97
54.12
74.2
90.61
102.16
108.39
109.84
107.94
104.68
101.99
101.13
102.19
104.23
105.67
104.99
101.3
94.54
85.16
73.53
59.77
43.79
25.88
6.75
-12.64
-31.2
-48.08
-62.62
-74.44
-83.33
-89.29
-91.87
-90.87
-86.45
-79.16
-69.64
-58.31
-45.13
-29.82
-12.1
8.93
33.59
61.15
89.81
117.09
140.76
159.48
172.91
181.54
187.44
192.56
198.01
203.89
209.73
215.05
219.55
222.75
216.23
194.26
155.67
104.88
49.52
-3.41
-49.61
-87.43
-116.79
-138.81
-154.15
-163
-165.92
-164.29
-160.09
-155.28
-151.16
-148.2
-144.6
-137.83
-125.85
-108.38
-87.51
-67.24
-51.84
-44.14
-44.43
-50.53
-58.48
-64.49
-66.65
-65.13
-61.5
-57.48
-54.13
-51.78
-50.45
-50.01
-50.37
-51.63
-53.99
-57.65
-62.82
-69.45
-77.15
-85.03
-91.82
-96.24
-97.74
-96.61
-93.74
-89.88
-85.01
-78.29
-68.47
-54.83
-37.46
-17.32
4.35
26.66
49.18
71.66
93.43
113.03
128.4
137.49
138.92
132.58
119.78
102.94
85.01
68.71
55.74
46.26
38.75
30.63
19.47
4.44
-12.92
-28.86
-39.14
-40.97
-34.5
-22.67
-9.74
0.9
8.01
12.51
16.21
20.26
24.3
26.94
27
24.64
21.63
20.46
22.91
29.17
37.76
46.35
52.94
56.58
57.65
57.28
56.65
56.3
56.01
54.9
52.16
47.41
41.07
34.35
28.84
26.16
27.36
32.63
41.15
51.48
62.02
71.46
78.99
84.28
87.26
88.02
86.73
83.45
78.42
71.97
64.53
56.73
49.37
43.44
39.72
38.25
37.64
35.34
28.32
14.18
-7.82
-36.35
-68.3
-99.68
-126.79
-147.36
-160.47
-166.39
-166.21
-161.36
-153.24
-142.83
-130.52
-114.33
-93.19
-67.27
-38.47
-9.83
15.69
36.24
51.54
62.6
72.18
81.85
92.02
102.01
110.56
116.38
118.87
118.58
117.04
115.02
113.22
111.86
110.6
108.66
104.71
96.57
81.17
55.46
18.34
-27.46
-74.56
-112.86
-133.56
-133.38
-116.35
-92.05
-71.15
-60.86
-62.71
-73.53
-88.58
-104.49
-120.22
-135.94
-151.15
-163.81
-170.93
-170.36
-162.2
-148.99
-134.58
-122.46
-114.15
-108.85
-104
-96.67
-85.02
-69.08
-50.78
-33.01
-18.11
-6.8
2.02
10.6
21.04
34.37
50.19
66.84
82
93.61
100.49
102.46
100.23
95.08
88.68
82.87
79.08
77.53
77.16
75.73
70.59
60.25
44.66
24.19
0.33
-24.25
-47.51
-68.14
-85.51
-99.34
-109.31
-115.16
-116.64
-113.61
-106.19
-95
-81
-65.27
-48.89
-32.72
-17.26
-2.59
11.71
26.28
41.62
58.04
75.59
94.06
112.92
130.9
145.89
154.96
154.96
143.58
120.67
88.88
53.18
19.34
-8.01
-26.78
-37.5
-42.52
-44.54
-45.53
-46.51
-47.95
-50.31
-54.11
-59.57
-66.03
-71.91
-75.14
-74.03
-67.97
-57.65
-44.7
-30.89
-17.5
-5.1
6.16
16.18
24.66
31.26
35.96
39.35
42.5
46.49
51.74
57.64
62.87
65.9
65.81
62.55
56.79
49.37
40.92
31.71
21.88
11.73
1.72
-7.69
-16.29
-24.3
-32.12
-39.96
-47.56
-54.14
-58.61
-60.08
-58.15
-53.11
-45.77
-37.15
-28.17
-19.43
-11.17
-3.38
4.08
11.33
18.47
25.47
32.15
38.16
42.99
46.13
47.16
45.99
42.93
38.63
33.91
29.44
25.63
22.54
19.99
17.72
15.49
13.19
10.83
8.61
6.84
5.87
5.84
6.66
7.86
8.83
9.05
8.41
7.33
6.51
6.68
8.12
10.68
13.81
16.83
19.15
20.39
20.34
19
16.72
14.24
12.69
13.17
16.23
21.36
26.89
30.55
30.46
25.96
17.9
8.31
-0.54
-6.92
-10.18
-10.62
-9.17
-7.08
-5.75
-6.54
-10.39
-17.36
-26.32
-35.14
-41.48
-43.85
-42.25
-38.24
-34.24
-32.35
-33.44
-36.8
-40.47
-42.07
-39.63
-32.38
-20.95
-7.25
6.16
17.01
24.11
27.75
29.37
30.69
32.83
35.77
38.42
39.16
36.53
29.71
18.67
4.02
-13.06
-30.95
-47.7
-61.36
-70.42
-74.38
-73.87
-70.25
-65.06
-59.36
-53.52
-47.44
-40.98
-34.26
-27.55
-20.87
-13.71
-5.3
4.88
16.52
28.44
39.04
47.01
51.82
53.76
53.55
51.85
49.07
45.44
41.15
36.4
31.24
25.42
18.35
9.4
-1.78
-15.03
-29.76
-45.23
-60.77
-75.95
-90.46
-104.09
-116.62
-127.8
-137.26
-144.66
-149.6
-151.64
-150.26
-144.9
-135.02
-120.34
-100.97
-77.61
-51.54
-24.41
2.11
26.71
48.6
67.47
83.24
95.91
105.43
111.88
115.59
117.19
117.47
117.1
116.39
115.21
113.18
109.97
105.61
100.46
95.05
89.6
83.72
76.43
66.59
53.68
38.34
22.37
8.08
-2.74
-9.63
-13.68
-16.8
-20.64
-25.65
-30.81
-34.38
-35.01
-32.82
-29.57
-27.96
-30.4
-37.83
-49.39
-62.97
-76.11
-86.92
-94.48
-98.63
-99.56
-97.59
-93.3
-87.73
-82.3
-78.18
-75.64
-73.74
-70.75
-65.11
-56.24
-44.87
-32.57
-20.71
-9.8
0.8
12.35
25.93
41.89
59.63
77.99
95.56
111.03
123.18
131.02
134.05
132.52
127.57
120.96
114.47
109.28
105.73
103.36
101.37
99.07
96.11
92.26
87.24
80.52
71.54
60.18
46.93
32.96
19.74
8.61
0.52
-4.17
-5.66
-4.74
-2.57
-0.43
0.69
0.55
-0.17
-0.01
2.71
9.12
19.29
32.03
45.32
57
65.41
69.81
70.37
67.82
63.06
56.85
49.61
41.41
32.2
21.95
10.87
-0.5
-11.34
-20.9
-28.74
-34.85
-39.54
-43.21
-45.97
-47.68
-48.14
-47.37
-45.79
-44.24
-43.61
-44.43
-46.58
-49.32
-51.56
-52.39
-51.44
-49.01
-45.93
-43.11
-41.22
-40.44
-40.53
-41.02
-41.44
-41.53
-41.26
-40.83
-40.53
-40.67
-41.38
-42.56
-43.81
-44.45
-43.67
-40.89
-36.03
-29.76
-23.45
-18.8
-17.29
-19.53
-24.8
-31.17
-36.08
-37.4
-34.23
-27.23
-18.29
-9.72
-3.38
0.02
1.22
2.28
6.14
15.7
32.8
57.26
86.46
115.84
140.15
155.1
158.66
151.38
135.71
114.81
91.56
68.05
45.65
25.32
7.7
-6.79
-18.1
-26.4
-31.89
-34.53
-34.04
-30.02
-22.38
-11.49
1.68
15.65
28.73
39.26
46.01
48.4
46.67
41.89
35.7
29.85
25.54
23.02
21.48
19.46
15.59
9.18
0.43
-9.7
-20.13
-30.1
-39.5
-48.69
-58.02
-67.43
-76.28
-83.58
-88.4
-90.36
-89.76
-87.54
-84.81
-82.49
-80.89
-79.68
-78.11
-75.35
-70.94
-65.07
-58.51
-52.39
-47.71
-45.05
-44.45
-45.48
-47.43
-49.31
-50.04
-48.45
-43.67
-35.48
-24.56
-12.49
-1.41
6.72
10.82
11.07
8.66
5.11
1.67
-1.05
-3.03
-4.54
-5.88
-6.96
-7.22
-5.67
-1.25
6.6
17.55
30.33
43.05
53.85
61.6
66.2
68.32
68.83
68.19
66.22
62.34
56.02
47.24
36.5
24.54
12.12
-0.31
-12.65
-25.07
-37.75
-50.59
-63.03
-74.16
-83.05
-89.12
-92.33
-93.15
-92.11
-89.5
-85.17
-78.76
-70.05
-59.25
-46.99
-34.09
-21.2
-8.6
3.69
15.72
27.28
37.84
46.72
53.49
58.16
61.24
63.35
64.91
65.91
65.94
64.61
61.83
57.98
53.72
49.6
45.77
41.83
37.02
30.52
22.06
12.19
2.51
-4.63
-6.86
-2.75
7.25
20.56
33.14
41.13
42.47
37.91
30.61
24.62
22.93
26.32
33.38
41.61
48.76
53.52
55.43
54.08
48.6
37.88
21.42
0.21
-23.27
-45.84
-65
-79.72
-90.46
-98.38
-104.26
-107.97
-108.58
-105.09
-97.05
-84.87
-69.58
-52.47
-34.92
-18.39
-4.37
5.92
12.1
15.03
16.64
19.22
24.49
32.78
42.95
52.91
60.4
63.67
61.77
54.6
42.92
28.3
12.91
-1
-11.75
-18.79
-22.66
-24.45
-24.93
-24.11
-21.39
-16.17
-8.71
-0.38
6.54
9.88
8.53
3.14
-3.8
-8.59
-7.5
1.96
19.83
43.28
67.35
86.61
97.24
98.49
92.75
84.33
77.51
74.77
76.28
80.52
85.43
89.55
92.38
94
94.29
92.5
87.42
78.1
64.66
48.56
32.25
18.29
8.37
2.68
-0.14
-2.54
-6.99
-15.01
-26.62
-40.24
-53.41
-63.77
-69.99
-72.22
-71.92
-71.14
-71.55
-73.84
-77.65
-82.03
-86.24
-90.07
-93.75
-97.31
-100
-100.31
-96.68
-88.53
-76.88
-64.15
-52.98
-44.99
-40.25
-37.81
-36.89
-37.66
-40.89
-46.59
-53
-56.66
-54.09
-43.91
-27.97
-10.54
3.89
12.96
17.48
20.28
24.28
30.73
38.93
47.14
54.03
59.44
64.36
70.26
78.12
87.98
98.9
109.35
117.57
122.23
122.68
119.13
112.68
104.69
96.61
89.76
85.32
84.08
86.52
92.33
97.72
98.25
89.89
71.28
44.47
13.8
-16.32
-42.6
-64.61
-82.48
-96.12
-105.57
-111.11
-113.62
-112.91
-109.98
-106.04
-102.09
-98.54
-95.19
-91.67
-87.66
-83
-77.84
-72.68
-67.93
-63.77
-60.1
-56.56
-52.75
-48.34
-43.14
-37.18
-30.98
-25.1
-20.03
-15.96
-12.82
-10.4
-8.45
-6.8
-5.37
-4.33
-3.78
-3.86
-4.67
-6.28
-8.68
-11.71
-15.09
-18.46
-21.57
-24.19
-26.06
-26.81
-25.87
-22.72
-17.11
-9.3
-0.15
9.06
17.05
22.92
26.39
27.8
27.83
27.25
26.6
26.15
25.9
25.83
25.91
26.27
27.08
28.44
30.41
32.94
35.94
39.31
42.89
46.45
49.62
52
53.31
53.55
53.03
52.26
51.65
51.32
51.09
50.61
49.71
48.5
47.44
47.03
47.56
48.91
50.58
51.91
52.3
51.34
48.75
44.44
38.57
31.72
24.85
18.94
14.48
11.15
7.79
2.88
-4.87
-16
-30.24
-46.64
-63.91
-80.6
-95.21
-106.25
-112.6
-113.82
-110.48
-104
-96.17
-88.57
-82.19
-77.46
-74.35
-72.56
-71.67
-71.27
-70.9
-70.1
-68.52
-66.03
-62.76
-58.99
-55.08
-51.24
-47.56
-43.93
-40.15
-36.05
-31.6
-27.11
-23.03
-19.6
-16.68
-13.64
-9.67
-4.13
3.21
12.06
21.53
30.72
39.18
46.75
53.49
59.52
65.01
70.5
76.7
83.7
91.07
97.67
101.29
99.28
89.6
71.99
48.98
25.01
4.41
-9.19
-13.75
-9.66
0.93
15.17
30.48
45.46
59.4
71.03
79.81
86.33
91.55
96.36
101.06
101.62
94.18
81.92
66.66
47.81
26.41
3.93
-18.29
-39.29
-58.35
-74.19
-85.4
-91.75
-93.3
-90.35
-84.06
-76.19
-68.67
-62.96
-59.25
-56.85
-55.26
-53.81
-51.98
-50.32
-50.27
-53.56
-61.27
-72.96
-86.78
-100.47
-111.64
-118.43
-120.27
-117.68
-111.65
-102.93
-91.65
-77.63
-60.93
-42
-21.62
-1.01
18.31
34.73
46.87
53.86
55.81
54.19
51.63
51.33
55.94
66.59
82.72
102.26
122.16
139.29
151.38
157.19
156.45
149.49
136.85
119.89
100.66
81.78
66.13
56.67
55.16
61.27
72.35
83.91
92.03
94.34
90.35
81.28
69.9
59.14
51.38
47.95
48.6
53.02
60.37
68.95
72.61
66.29
47.89
19.76
-9.33
-35.7
-58.11
-76.79
-92.96
-107.59
-120.82
-132.3
-141.42
-147.9
-152.53
-155.55
-156.66
-154.81
-148.4
-135.71
-116.39
-92.34
-67.58
-47
-33.24
-25.69
-20.89
-14.29
-2.18
16.49
39.81
63.86
83.98
96.73
100.28
94.27
79.68
58.86
35.1
12.07
-7.14
-20.84
-28.64
-31.21
-29.63
-24.91
-17.74
-8.61
2.01
13.54
25.35
36.84
47.21
55.25
59.42
58.35
51.67
40.52
27.6
16.27
9.22
7.34
9.52
13.4
16.7
18.3
18.54
18.67
19.91
22.65
26.47
30.71
35.17
40.44
47.49
56.79
67.62
77.99
85.19
86.89
82.03
71.05
55.56
37.52
18.7
0.31
-16.95
-32.71
-46.77
-59.05
-69.59
-78.43
-85.58
-90.99
-94.77
-97.22
-98.86
-100.22
-101.65
-103.12
-104.27
-104.65
-103.9
-101.95
-98.85
-94.63
-89.16
-82.16
-73.43
-63.02
-51.41
-39.46
-28.17
-18.53
-11.26
-6.74
-4.93
-5.38
-7.27
-9.5
-10.97
-10.82
-8.8
-5.33
-1.4
1.77
3.24
2.65
0.32
-2.92
-6.16
-8.79
-10.72
-12.27
-13.92
-15.94
-18.22
-20.48
-22.51
-24.41
-26.59
-29.54
-33.64
-38.88
-44.87
-50.85
-55.84
-58.72
-58.25
-53.07
-41.96
-24.23
-0.19
28.54
59.22
88.64
114.16
134.51
150.02
162.12
172.25
180.98
187.52
190.12
187.01
177.25
161.13
140.05
115.9
90.57
65.68
42.46
21.76
4.08
-10.49
-22.34
-32.27
-41.24
-50.1
-59.21
-68.45
-77.28
-85.07
-91.47
-96.69
-101.31
-106.02
-111.22
-116.72
-121.81
-125.59
-127.36
-126.95
-124.71
-121.33
-117.59
-114.09
-111.12
-108.57
-105.71
-101.2
-93.38
-80.9
-63.56
-42.65
-20.79
-0.79
15.45
27.81
37.81
47.6
58.72
71.36
84.36
96.06
105.34
112.37
118.51
125.6
134.88
146.04
157.07
164.8
166.06
158.92
143.29
120.85
94.23
66.08
38.49
12.88
-9.9
-29.33
-45.28
-57.99
-67.86
-75.14
-79.65
-80.98
-78.95
-74.22
-68.29
-62.89
-59.15
-56.85
-54.59
-50.58
-43.69
-34.03
-22.87
-11.91
-2.4
5.29
11.69
17.81
24.55
32.5
41.79
52.26
63.45
74.68
84.86
92.48
95.86
93.61
85.31
71.93
55.69
39.32
25.1
14.15
6.19
-0.13
-6.66
-15.14
-26.67
-41.3
-57.75
-73.56
-85.94
-92.74
-93.43
-89.15
-82.09
-74.2
-66.43
-58.57
-50
-40.66
-31.36
-23.55
-18.47
-16.59
-17.33
-19.32
-20.66
-19.47
-14.32
-4.83
7.99
21.91
34.32
43.49
49.21
52.78
56.06
60.29
65.43
70.39
73.84
75.12
74.54
73.02
71.45
70.1
68.52
65.87
61.34
54.45
45.22
34.13
21.96
9.64
-2.02
-12.63
-22.27
-31.38
-40.42
-49.47
-58.08
-65.47
-71
-74.74
-77.64
-81.29
-87.15
-95.73
-106.21
-116.67
-124.97
-129.8
-131.19
-130.19
-127.83
-124.16
-117.89
-107.26
-91.34
-71.31
-50.43
-32.69
-20.83
-14.61
-10.65
-3.87
10.05
32.6
61.62
92.4
119.66
139.71
151.37
155.58
154.19
148.9
140.89
131.24
121.45
113.17
107.42
103.5
98.91
90.31
75.52
55.03
32.26
12.02
-1.61
-7.18
-6.19
-2.07
1.58
2.24
-1.01
-7.97
-17.81
-29.47
-41.56
-52.24
-59.36
-60.98
-56.08
-44.97
-29.17
-10.92
7.5
24.4
38.84
50.56
59.73
66.49
70.82
72.35
70.52
64.83
55.06
41.56
25.42
8.23
-8.34
-23.16
-35.92
-47.1
-57.47
-67.49
-76.89
-84.72
-89.82
-91.31
-88.96
-83.21
-74.87
-64.82
-53.68
-41.72
-28.93
-15.21
-0.69
14.18
28.55
41.38
51.74
59.07
63.2
64.32
62.62
58.27
51.58
43.31
34.85
28.1
24.8
25.76
30.37
36.64
41.91
43.89
41.49
35.06
26.19
16.97
9.42
4.93
4.16
7
12.55
19.16
24.46
26.03
22.32
13.52
1.92
-8.73
-14.65
-13.63
-5.86
6.29
19.44
30.63
38.23
41.9
41.88
38.21
30.41
18.03
1.51
-17.15
-34.61
-47.22
-52.56
-50.77
-44.85
-39.69
-40.01
-48.14
-62.8
-79.4
-92.06
-96.11
-90.01
-75.83
-58.13
-41.8
-30.17
-24.08
-22.19
-22.28
-22.65
-22.76
-23.13
-24.6
-27.48
-31.25
-34.9
-37.54
-38.95
-39.5
-39.67
-39.37
-37.99
-34.91
-30.36
-25.75
-23.03
-23.55
-26.89
-30.82
-32.3
-29.11
-20.84
-8.98
4.09
16.31
26.48
34.12
38.83
39.87
36.52
28.95
18.83
9.08
2.86
2.08
6.63
14.59
23.3
30.39
34.6
35.78
34.58
32.1
29.62
28.5
29.95
34.51
41.49
49.08
55.1
58.07
58.09
56.5
55.06
54.93
56.33
58.63
61.26
64.11
66.2
66.41
63.17
55.07
41.74
24.34
5.09
-13.37
-29.82
-43.67
-54.75
-63.31
-69.88
-75.31
-79.41
-82.5
-84.98
-87.07
-88.42
-88.29
-86.12
-81.93
-76.35
-70.26
-64.44
-59.04
-53.69
-47.65
-40.43
-32.37
-24.72
-18.96
-15.9
-15.24
-15.42
-14.52
-10.76
-3.18
8.07
21.87
36.78
51.44
64.37
74.01
77.22
71.86
59.17
44.63
35.48
36.37
46.5
60.2
71.82
77.78
78.39
76.86
76.73
79.48
83.84
87.15
86.56
82.05
75.82
71.08
69.89
71.63
73.07
70.08
59.82
42.17
19.87
-3.29
-23.86
-39.87
-51.16
-58.78
-64.15
-68.21
-71.19
-72.59
-71.98
-69.3
-65.1
-60.37
-56.27
-53.58
-52.42
-52.26
-52.15
-51.39
-49.77
-47.6
-45.5
-44.05
-43.52
-43.8
-44.57
-45.43
-46.22
-47.06
-48.16
-49.79
-52.07
-54.91
-58.03
-60.91
-62.9
-63.32
-61.64
-57.71
-51.98
-45.43
-39.32
-34.74
-32.19
-31.47
-31.85
-32.59
-33.38
-34.49
-36.52
-39.92
-44.6
-49.79
-54.22
-56.52
-55.62
-50.98
-42.57
-30.69
-15.87
1.23
19.85
39.06
57.99
75.93
92.64
108.28
123.14
137.14
149.43
158.4
162.26
159.93
151.86
140.01
127.01
114.64
102.84
89.58
72.05
48.46
19.69
-10.35
-35.83
-51.14
-53.1
-42.07
-21.69
2.71
25.94
44.49
56.83
63.04
64.07
61.27
56.26
50.88
47.03
46.08
48.05
51.18
52.4
48.4
37.02
18.25
-5.73
-31.25
-54.09
-70.49
-77.75
-74.48
-60.7
-37.95
-9.25
21.23
48.8
69.06
78.83
76.99
64.8
45.75
24.57
5.89
-7.39
-15.09
-19.68
-25
-34.22
-48.31
-65.36
-81.31
-91.79
-94.06
-88.26
-77.03
-64.13
-52.73
-44.47
-39.17
-35.56
-32.22
-28.4
-24.33
-20.63
-17.68
-15.3
-13.35
-12.03
-12.01
-14.28
-19.73
-28.98
-41.63
-56.32
-70.8
-83.17
-92.32
-98.07
-100.88
-101.5
-100.84
-99.22
-96.2
-90.71
-82.29
-71.24
-58.56
-45.36
-30.09
-12.24
7.81
26.86
44.83
62.69
81.62
101.47
121.12
138.77
152.13
159.52
160.38
155.65
146.57
134.4
120.06
104.25
87.53
70.25
53.16
37.35
24.22
14.37
7.56
2.88
-0.72
-4.09
-7.84
-12.11
-16.7
-21.11
-25.21
-29.01
-32.59
-35.85
-38.58
-40.57
-41.57
-41.34
-39.62
-36.43
-32.08
-27.17
-22.38
-18.36
-15.53
-13.85
-12.95
-12.27
-11.27
-9.64
-7.34
-4.69
-2.29
-0.89
-1.1
-3.21
-7.05
-12.08
-17.62
-23.09
-28.22
-32.95
-37.43
-41.73
-45.76
-49.2
-51.57
-52.41
-51.35
-48.26
-43.31
-36.93
-29.75
-22.42
-15.5
-9.34
-4.17
-0.1
2.84
4.65
5.4
5.26
4.47
3.34
2.21
1.37
1.02
1.24
1.94
2.88
3.77
4.29
4.25
3.63
2.52
1.03
-0.74
-2.75
-4.94
-7.19
-9.32
-11.13
-12.6
-13.89
-15.22
-16.74
-18.31
-19.59
-20.18
-19.89
-18.88
-17.65
-16.76
-16.53
-16.81
-17.01
-16.33
-14.1
-10.07
-4.58
1.62
7.64
12.76
16.62
19.09
20.18
19.86
18.07
14.83
10.49
5.77
1.64
-0.92
-1.2
1.01
5.5
11.74
19.18
27.33
35.87
44.54
53.06
61.07
68.13
73.78
77.63
79.4
78.88
75.87
70.26
62.24
52.4
41.71
31.3
22.19
14.9
9.34
4.8
0.27
-5.22
-12.35
-21.43
-32.47
-45.21
-58.98
-72.57
-84.2
-91.77
-93.43
-88.14
-76.14
-58.97
-39.04
-18.95
-0.81
14.11
25.22
32.26
34.97
33.15
26.77
16.4
3.27
-10.76
-23.55
-33.2
-38.54
-39.54
-37.34
-33.98
-31.62
-31.64
-33.86
-36.43
-36.48
-31.29
-19.58
-2.13
18.54
39.19
57.06
70.64
79.88
85.76
89.65
92.68
95.23
96.75
95.88
90.93
80.52
64.28
43.17
19.41
-3.85
-23.3
-36.18
-41.07
-38.28
-29.95
-19.37
-9.97
-4.04
-1.78
-1.2
0.97
7.86
21.06
39.93
61.78
82.81
99.3
108.57
109.44
102.05
87.37
66.73
41.61
13.73
-14.88
-41.95
-65.38
-83.79
-96.95
-105.75
-111.76
-116.55
-121.13
-125.78
-130.21
-133.98
-136.8
-138.7
-139.83
-140.17
-139.24
-136.07
-129.38
-118.11
-101.95
-81.73
-59.11
-35.94
-13.56
7.37
26.65
43.84
57.92
67.49
71.65
70.93
67.65
65.38
67.65
76.59
92.15
112.12
132.81
150.19
160.7
162.07
153.87
137.83
117.78
98.87
86.22
83.24
90.41
105
121.82
134.96
139.52
132.76
114.69
88.02
57.48
28.86
7.54
-3.13
-2.85
5.41
16.57
25.3
27.76
22.55
10.4
-6.71
-26.43
-46.58
-65.18
-80.45
-91
-96.27
-96.74
-93.72
-88.65
-82.4
-74.91
-65.49
-53.87
-40.93
-29.08
-21.4
-20.15
-25.3
-34.05
-41.63
-43.22
-36.02
-20.43
0.24
21.26
38.3
48.69
51.62
47.64
37.97
24.04
7.54
-9.65
-25.66
-39.31
-50.58
-60.7
-71.37
-83.67
-97.07
-109.21
-116.72
-116.49
-106.81
-87.99
-62.11
-32.29
-1.91
25.9
48.65
64.9
74.52
78.77
79.86
79.95
80.2
80.18
78.18
72.13
60.66
43.74
22.55
-1
-24.96
-47.71
-67.91
-84.38
-95.95
-101.54
-100.37
-92.17
-77.33
-56.83
-32.01
-4.35
24.75
54.07
82.49
108.78
131.62
149.79
162.66
170.58
174.94
177.65
180.26
183.06
184.81
183.33
176.55
163.61
145.23
123.27
99.75
75.98
52.27
28.36
4.09
-20.07
-43.09
-63.85
-81.69
-96.71
-109.6
-121.21
-132.09
-142.2
-151.08
-158.15
-163
-165.58
-166.15
-165.21
-163.32
-160.96
-158.45
-155.87
-153.08
-149.75
-145.42
-139.63
-132.02
-122.41
-110.79
-97.32
-82.24
-65.86
-48.59
-30.97
-13.72
2.29
16.15
27.12
34.78
39.19
40.82
40.44
39.04
37.58
36.94
37.64
39.71
42.62
45.47
47.31
47.56
46.29
44.25
42.44
41.6
41.72
41.98
41.14
38.38
33.89
28.97
25.53
25.12
28.09
33.41
39.07
42.94
43.62
40.79
35.07
27.64
19.72
12.35
6.21
1.6
-1.66
-4.18
-6.87
-10.87
-17.08
-25.87
-36.86
-48.88
-60.32
-69.4
-74.63
-75.38
-72.08
-65.78
-57.78
-49.21
-40.84
-33.25
-26.75
-21.05
-15.75
-10.42
-4.54
2.04
8.78
14.48
17.45
16.63
12.45
6
-1.71
-10.03
-18.98
-28.79
-39.4
-50.34
-60.35
-67.41
-70.45
-69.73
-66.22
-60.96
-54.4
-44.02
-28.24
-10.15
8.68
28.07
47.1
64.91
81.04
95.35
107.64
116.95
121.91
121.69
115.74
104.33
88.92
71.81
55.29
40.96
29.16
19.46
11.46
4.48
-2.34
-9.48
-16.87
-23.82
-29.22
-32.05
-31.62
-27.36
-19.29
-8.1
5.06
18.4
29.66
36.79
38.87
36.97
34.16
34.09
39.2
49.69
63.57
77.8
89.84
98.42
103.29
104.33
100.71
91.16
75.09
53.77
30.52
9.62
-5.44
-13.39
-15.52
-14.63
-13.5
-13.56
-14.63
-15.71
-16.1
-16.21
-17.55
-21.86
-30.1
-41.82
-55.27
-68.01
-77.76
-83.01
-83.25
-78.79
-70.46
-59.44
-47.05
-34.74
-24.04
-16.07
-11.08
-8.1
-5.25
-0.69
6.31
14.75
22.43
27.21
28.52
27.87
28.01
31.23
37.75
45.36
50.43
49.81
42.37
29.34
13.47
-2.4
-16.42
-27.83
-36.52
-42.41
-45.1
-44.03
-38.88
-30.03
-18.76
-7.07
2.72
8.63
9.41
4.77
-4.73
-18.12
-34.44
-52.97
-73.09
-94.03
-114.58
-133.16
-148.2
-158.72
-164.67
-166.88
-166.53
-164.61
-161.36
-156.32
-148.76
-138.22
-124.91
-109.68
-93.53
-77.16
-60.7
-43.83
-26.04
-6.97
13.53
35.4
58.47
82.5
107.08
131.48
154.64
175.4
192.87
206.72
217.1
224.25
228.13
228.04
222.83
211.37
193.21
169.3
142.09
115.07
91.64
73.92
61.82
53.08
44.1
31.26
12.34
-12.76
-42.11
-72.49
-100.31
-122.33
-136.14
-140.51
-135.72
-123.69
-107.63
-91.24
-77.67
-68.67
-64.22
-62.9
-62.61
-61.48
-58.42
-53.22
-46.33
-38.42
-30.1
-21.75
-13.45
-5.14
3.16
11.19
18.44
24.34
28.54
31.25
33.3
35.98
40.5
47.42
56.32
65.92
74.49
80.27
81.74
77.68
67.31
50.45
27.77
0.97
-27.33
-54.32
-77.96
-97.62
-114.02
-128.34
-141.29
-152.66
-161.67
-167.58
-170.38
-170.83
-170.03
-168.61
-165.92
-160.36
-150.09
-134.28
-113.31
-88.85
-63.17
-38.58
-16.57
2.97
21.08
39.23
58.04
77.89
98.73
120.03
140.42
157.98
171.44
180.18
184.73
185.83
185.68
186.8
191
197.99
205.57
211.58
214.02
211.96
204.7
193.88
182.77
175.31
173.85
172.23
163.88
142.81
114.51
81.29
45.6
7.89
-28.99
-62.28
-90.18
-110.86
-123.3
-127.25
-124.79
-118.12
-109.48
-100.32
-91.61
-83.3
-73.69
-60.73
-42.92
-21.14
2.85
26.51
47.21
62.29
69.81
69.45
62.17
49.78
33.84
16.07
-2.01
-19.23
-35.19
-50.1
-64.23
-77.96
-91.42
-104.71
-117.31
-128.31
-136.73
-142.17
-144.97
-146
-146.33
-146.64
-146.97
-146.53
-144.08
-138.35
-128.66
-115.06
-98.22
-79.16
-58.81
-37.85
-16.71
4.35
24.94
44.28
61.28
74.85
84.52
90.82
95.33
100.1
106.81
115.97
126.64
136.92
144.79
148.95
149.21
146.25
140.97
133.92
124.99
113.6
99.03
80.87
59.29
35.27
10.45
-13.17
-33.82
-50.58
-63.82
-75.07
-86.52
-99.89
-115.6
-132.41
-148.02
-160.09
-167.21
-169.44
-167.9
-164.08
-159.08
-153.24
-146.35
-138.12
-128.48
-117.64
-106.01
-93.96
-81.86
-70.04
-58.94
-48.84
-39.55
-30.14
-18.94
-4.19
15.19
38.75
64.39
89
109.63
124.74
134.57
140.82
145.66
150.57
155.74
160.07
161.96
160.17
154.36
145.1
133.44
120.48
107.02
93.6
80.66
68.85
59.01
51.82
47.39
44.97
43.02
39.67
33.36
23.4
10.19
-4.97
-20.28
-34.05
-45.2
-53.54
-59.78
-65.22
-71.26
-78.9
-88.32
-98.74
-108.55
-115.79
-118.74
-116.5
-109.23
-98.12
-84.92
-71.28
-58.24
-46.14
-34.88
-24.27
-14.34
-5.17
3.29
11.44
19.77
28.55
37.32
44.93
49.96
51.29
48.6
42.45
34.18
25.54
18.37
14.29
14.26
18.44
26
35.2
43.79
49.65
51.43
49.04
43.59
37
31.31
28.17
28.3
31.37
36.13
40.71
43.11
41.66
35.47
24.88
11.9
0.07
-6.21
-3.19
10.6
33.44
60.73
86.49
105.36
114.12
112.12
100.63
81.86
58.15
32.05
6.54
-15.05
-29.86
-36.65
-36.59
-33
-30.11
-31.37
-38.14
-49.44
-62.66
-74.87
-83.93
-89.01
-90.4
-88.95
-85.66
-81.46
-77.31
-74.27
-73.19
-74.13
-75.97
-76.42
-72.88
-63.71
-49.03
-30.92
-12.41
3.6
15.4
22.64
25.98
26.34
24.42
20.66
15.52
9.89
5.09
2.6
3.59
8.32
15.9
24.3
30.89
33.28
30.08
21.35
8.39
-6.88
-22.53
-37.16
-49.84
-59.92
-66.74
-69.69
-68.37
-62.91
-54.1
-43.3
-32.15
-22.08
-14.01
-8.11
-3.98
-0.88
1.82
4.48
7.12
9.56
11.65
13.53
15.68
18.66
22.82
27.89
33.14
37.57
40.26
40.68
38.89
35.43
31.05
26.34
21.38
16.14
10.59
4.71
-1.53
-8.24
-15.56
-23.53
-32.01
-40.73
-48.79
-54.77
-57.21
-55.16
-48.43
-37.68
-24.11
-8.37
8.11
24.33
40.37
57.05
74.93
93.23
109.71
121.61
128.83
130.95
128.35
122.19
113.85
104.45
94.68
84.92
75.48
65.93
56.35
47.23
38.98
31.38
23.53
14.35
3.4
-8.42
-18.95
-25.8
-27.34
-23.69
-16.75
-9.31
-3.69
-0.88
-0.58
-2.01
-4.85
-9.24
-15.45
-23.29
-31.91
-40.03
-46.62
-51.45
-55.03
-58.27
-61.78
-65.53
-68.87
-70.92
-70.96
-68.8
-64.82
-59.84
-54.92
-51.05
-48.95
-48.9
-50.73
-53.91
-57.74
-61.64
-65.2
-68.25
-70.67
-72.2
-72.31
-70.22
-65.17
-56.72
-45.06
-31.02
-15.86
-0.73
13.7
27.22
39.71
50.64
59.05
63.9
64.74
62.29
58.29
54.78
53.19
53.8
55.86
58.24
60.03
60.8
60.34
58.51
55.32
51.15
47.07
44.46
44.31
46.34
48.71
48.51
42.9
30.38
11.45
-11.44
-34.79
-55.19
-70.25
-79.04
-81.85
-79.74
-74.13
-66.54
-58.64
-52.03
-47.96
-46.75
-47.49
-48.21
-46.6
-41.05
-31.42
-19.2
-6.92
2.84
8.5
9.97
8.44
5.89
4.43
5.83
11.34
21.47
35.68
52.21
68.06
79.47
83.31
78.7
68.02
56.53
50.34
53.59
66.28
84.06
100.09
107.91
103.91
88.07
63.21
33.39
2.44
-26.67
-51.92
-71.98
-86.26
-94.99
-99.33
-101.06
-102.07
-103.95
-107.56
-113.03
-119.78
-126.67
-132.36
-135.71
-136.09
-133.68
-129.38
-124.41
-119.86
-116.32
-113.71
-111.32
-108.21
-103.56
-97.11
-89.32
-81.09
-73.39
-66.77
-61.14
-55.88
-50.31
-44.11
-37.63
-31.68
-27.05
-23.82
-21.13
-17.3
-10.49
0.57
16.07
35.19
56.42
78.04
98.15
114.84
126.26
131.2
129.84
124.14
117.64
114.18
116.43
124.72
136.94
149.49
158.76
162.42
159.92
152.19
140.8
127.24
112.55
97.41
82.49
68.63
56.91
48.4
43.78
42.98
45.22
49.19
53.51
56.95
58.51
57.33
52.62
43.93
31.58
16.87
2.06
-10.31
-18.2
-20.7
-18.15
-11.81
-3.21
6.17
14.88
21.49
24.5
22.69
15.69
4.32
-9.52
-23.49
-35.62
-44.92
-51.49
-56.06
-59.37
-61.76
-63.01
-62.6
-59.99
-54.91
-47.43
-38
-27.42
-16.8
-7.42
-0.46
3.43
4.45
3.81
3.21
4.33
8.04
14.04
21.03
27.25
31.22
32.24
30.35
26.07
19.87
12.06
2.82
-7.38
-17.65
-26.74
-33.45
-37.02
-37.38
-34.79
-29.37
-20.78
-8.56
7.21
25.22
43.04
58.04
68.59
74.83
78.39
81.3
84.75
88.52
91.29
91.62
88.71
82.57
73.52
61.56
46.27
27.22
4.64
-20.27
-45.61
-69.51
-90.69
-108.69
-123.59
-135.53
-144.38
-149.72
-151.07
-148.22
-141.41
-131.33
-118.9
-105.17
-91.13
-77.69
-65.6
-55.36
-47.04
-40.37
-34.88
-30.03
-25.47
-20.97
-16.41
-11.74
-6.96
-2.17
2.43
6.58
10.1
12.93
15.2
17.13
19.02
21.08
23.36
25.73
27.88
29.34
29.57
28.19
25.26
21.28
17.15
13.68
11.17
9.16
6.55
2.11
-4.88
-14.19
-24.71
-34.97
-43.74
-50.51
-55.56
-59.51
-62.87
-65.69
-67.59
-68.06
-66.64
-63.12
-57.57
-50.29
-41.74
-32.56
-23.45
-15.16
-8.31
-3.25
0.02
1.8
2.65
3.15
3.85
5.1
7.09
9.83
13.28
17.41
22.22
27.8
34.25
41.51
49.37
57.37
64.89
71.36
76.5
80.6
84.44
88.94
94.52
100.8
106.65
110.8
112.61
112.57
112.01
112.38
114.2
116.72
118.15
116.54
110.72
100.75
87.7
73.01
57.81
42.67
27.51
11.96
-4.28
-20.99
-37.24
-51.49
-62.14
-68.23
-70.05
-69.17
-67.89
-68.22
-71.04
-75.87
-81.33
-85.95
-88.82
-89.86
-89.37
-87.55
-84.14
-78.51
-70.26
-59.51
-47.04
-34.09
-21.96
-11.64
-3.52
2.67
7.47
11.28
14.09
15.68
15.76
14.11
10.81
6.2
1.09
-3.72
-7.7
-10.86
-13.24
-14.98
-16.38
-17.8
-19.48
-21.04
-21.89
-21.5
-19.85
-16.65
-11.56
-4.36
4.96
16.42
30.46
47.25
66.16
85.18
102.07
114.55
120.61
118.8
106.01
81.59
47.85
11.64
-23.72
-56.81
-86.55
-111.3
-129.54
-140.34
-143.09
-138.12
-126.58
-110.64
-91.95
-71.7
-50.74
-29.71
-9.08
11.22
31.17
50.36
67.5
81.42
91.21
96.36
96.91
93.59
87.79
80.93
73.88
66.43
57.91
47.53
34.94
20.54
5.43
-8.89
-21.28
-31.38
-39.72
-47.05
-53.96
-60.63
-66.98
-72.96
-78.59
-83.87
-88.36
-90.98
-90.12
-84.26
-72.67
-55.79
-35.08
-12.49
10.1
31.34
50.37
66.56
79.14
87.06
89.33
85.64
76.91
65.24
53.43
43.93
38.02
35.48
35.06
35.37
35.72
36.27
37.67
40.24
43.55
46.44
47.54
45.74
40.52
32
20.68
7.27
-7.58
-23.44
-40.15
-57.75
-76.03
-94.21
-110.76
-123.92
-132.3
-135.33
-133.14
-125.95
-113.42
-94.8
-69.87
-40.04
-8.88
18.87
39.35
51.52
57.73
62.52
70.19
82.69
98.95
115.77
129.91
139.66
145.27
148.02
148.82
147.38
142.22
131.68
114.76
92.07
65.67
38.32
12.5
-10.38
-30.02
-46.94
-61.81
-75.42
-88.07
-99.55
-109.44
-117.36
-123.46
-128.28
-132.57
-136.91
-141.84
-147.12
-151.64
-153.69
-151.61
-144.53
-132.45
-116.25
-95.4
-70.99
-45.26
-20.91
0.11
18.32
34.73
50.46
65.2
78.68
90.28
99.17
104.46
105.15
100.56
90.6
76.67
61.74
49.8
44.25
46.71
56.53
70.99
86.49
99.73
108.93
114.01
116.02
115.96
114.27
110.91
105.79
99.27
92.28
86.18
82.23
81.18
82.88
86.27
89.78
91.52
89.64
82.72
69.94
51.17
26.83
-2.32
-35.15
-69.89
-104.15
-135.33
-161.1
-179.94
-191.17
-194.6
-190.21
-178.28
-159.81
-137.06
-113.5
-92.69
-76.75
-65.31
-55.75
-44.78
-30.51
-13.65
2.78
15.21
21.43
21.67
18.17
13.75
10.29
7.89
5.33
0.98
-6.14
-15.84
-27.03
-38.3
-48.48
-57.12
-64.63
-71.98
-80.19
-89.73
-100.01
-109.44
-115.95
-117.78
-114.15
-105.42
-92.59
-76.7
-58.53
-38.8
-18.67
0.01
15.19
25.46
31.02
33.89
37.22
44.01
55.94
72.69
92.04
110.53
124.36
130.3
126.66
113.8
94.19
71.69
50.42
33.34
21.7
15.1
12.33
12.32
14.51
18.78
24.86
31.96
38.98
45.05
50.14
55.1
61.07
68.75
77.76
86.7
93.84
97.84
98.2
95.08
88.76
79.19
66.05
49.35
30.12
10.67
-6.06
-17.57
-22.78
-22.32
-17.88
-11.27
-3.56
5.05
14.74
25.19
35.1
42.37
44.93
41.68
33.09
21.11
8.41
-2.61
-10.5
-14.93
-16.44
-16.17
-15.56
-16.14
-19.11
-24.78
-32.14
-38.79
-41.85
-39.27
-31.01
-19.14
-6.9
2.97
9.34
12.88
15.15
17.34
19.54
20.94
20.54
17.94
13.52
8.02
2.01
-4.53
-12.04
-21
-31.46
-42.85
-54.17
-64.24
-72.08
-77.19
-79.74
-80.53
-80.69
-81.29
-82.91
-85.48
-88.25
-90.23
-90.62
-89.31
-86.87
-84.25
-82.32
-81.4
-81.2
-81.13
-80.7
-79.85
-79.01
-78.87
-79.96
-82.48
-86.07
-89.98
-93.18
-94.62
-93.35
-88.6
-79.83
-66.8
-49.65
-28.91
-5.63
18.79
42.72
64.66
83.52
98.87
111
120.72
129.1
137.05
145.16
153.46
161.44
168.2
172.62
173.72
170.98
164.57
155.34
144.64
133.77
123.6
114.19
104.66
93.55
79.23
60.56
37.34
10.55
-17.76
-44.95
-68.62
-87.48
-101.77
-112.95
-122.85
-132.55
-141.79
-149.07
-152.56
-151.13
-144.99
-135.35
-123.91
-112.22
-101.39
-92.34
-85.96
-83.02
-83.41
-85.4
-85.23
-78.14
-60.02
-29.43
11.46
57.27
101.29
137.78
163.59
178.5
184.28
183.5
178.5
170.95
162.02
152.48
142.54
131.69
118.72
102.26
81.63
57.34
30.94
4.42
-20.7
-43.82
-65.2
-85.28
-104.07
-120.82
-134.27
-143.19
-146.89
-145.47
-139.63
-130.57
-119.68
-108.58
-98.89
-91.97
-88.29
-86.99
-86.07
-83.15
-76.68
-66.56
-54.01
-40.51
-26.78
-12.23
4.53
24.68
48.08
72.91
96.23
115.17
128.13
135.37
138.76
140.77
143.3
146.77
149.89
150.22
145.17
133.09
113.68
87.98
58
26.33
-4.17
-30.8
-51.53
-65.68
-74.08
-78.68
-81.47
-83.54
-84.64
-83.64
-79.61
-72.65
-64.01
-55.46
-48.31
-42.84
-38.45
-34.4
-30.44
-27.1
-25.27
-25.59
-27.81
-30.82
-33.2
-34.03
-33.48
-32.56
-32.37
-33.12
-33.69
-32.19
-27.03
-18.01
-6.46
5.5
16.33
25.83
34.98
44.89
55.59
65.49
72.14
73.58
69.61
61.97
53.47
46.47
41.86
38.97
36.42
33.33
29.83
26.84
25.23
24.94
24.78
22.79
17.18
7.03
-7.28
-24.14
-41.12
-55.64
-65.47
-69.5
-68.12
-63.32
-58.07
-54.91
-54.67
-55.91
-55.61
-50.98
-41.23
-28.26
-15.65
-6.69
-2.48
-1.45
-0.33
3.84
12.12
23.25
34.39
42.62
46.12
44.53
38.74
30.17
20.32
10.46
1.83
-4.64
-8.16
-8.14
-4.46
2.38
10.83
18.46
22.75
22.48
18.4
13.27
10.81
13.9
23.31
37.14
51.63
62.82
68.33
67.69
61.9
52.35
39.86
25.24
9.48
-6.15
-21.82
-37.13
-51.45
-64.45
-74.92
-82.65
-87.74
-90.53
-91.41
-90.8
-88.93
-86.03
-82.27
-77.55
-71.72
-64.44
-55.55
-45.21
-33.86
-21.73
-8.94
4.37
17.91
30.79
41.77
49.51
53.02
52.09
47.59
41.16
34.79
30.27
28.7
30.28
34.24
39.06
42.86
44.07
41.8
35.99
27.22
16.26
3.82
-9.57
-23.39
-36.98
-49.52
-60.29
-68.93
-75.46
-80.13
-82.93
-83.37
-80.57
-73.51
-61.69
-45.44
-26.02
-5.36
14.49
31.83
45.56
55.23
60.96
63.49
64.17
65
68.17
75.34
86.73
100.59
113.45
121.46
122.02
115.12
103.4
90.93
81.31
76.13
74.56
74.12
72.18
67.16
59.06
48.98
38.32
28.12
18.91
10.99
4.83
1.31
1.43
5.84
14.25
25.14
35.95
43.79
46.36
42.69
33.41
20.33
5.64
-8.86
-22.3
-34.65
-46.38
-57.97
-69.54
-80.76
-91.03
-99.69
-106.26
-110.6
-112.96
-113.8
-113.59
-112.53
-110.53
-107.29
-102.44
-95.83
-87.56
-77.92
-67.05
-54.78
-40.62
-24.11
-5.13
15.8
37.61
59.01
78.84
96.2
110.31
120.34
125.3
124.44
117.67
105.97
91.33
76.21
62.64
51.54
42.45
33.97
24.46
12.8
-1.29
-17.2
-33.78
-49.85
-64.46
-77.04
-87.28
-95
-100.07
-102.46
-102.29
-99.93
-95.84
-90.42
-83.72
-75.45
-65.11
-52.28
-36.94
-19.58
-1.14
17.27
34.58
49.9
62.53
71.94
77.81
80.11
79.21
75.81
70.79
64.99
58.95
52.9
46.84
40.79
34.94
29.78
25.99
24.18
24.67
27.2
31.03
35.27
39.44
43.7
48.78
55.42
63.67
72.54
80.2
84.6
84.28
78.85
69.03
56.23
42.18
28.47
16.44
7.04
0.63
-3.13
-5.38
-7.76
-11.96
-19.13
-29.57
-42.65
-57.04
-71.23
-83.92
-94.3
-102.08
-107.38
-110.28
-110.68
-108.25
-102.86
-94.88
-85.3
-75.5
-66.61
-59.01
-52.11
-44.78
-35.91
-24.97
-12.16
1.92
16.63
31.53
46.3
60.41
73.09
83.53
91.38
96.99
101.34
105.46
109.83
114.07
117.06
117.47
114.27
107.08
96.09
81.81
64.82
45.64
24.85
3.2
-18.32
-38.58
-56.48
-71.11
-81.95
-88.87
-92.19
-92.54
-90.89
-88.29
-85.7
-83.8
-82.92
-83.03
-83.87
-85.11
-86.48
-87.74
-88.57
-88.38
-86.35
-81.55
-73.34
-61.71
-47.44
-32.01
-17.2
-4.56
4.99
11.28
14.86
16.69
17.87
19.42
22.04
25.83
30.19
33.84
35.08
32.47
25.48
14.87
2.59
-9.1
-18.57
-25.57
-31.16
-36.98
-44.15
-52.55
-60.85
-67.27
-70.5
-70.37
-67.58
-62.98
-56.9
-48.95
-38.32
-24.29
-6.72
13.69
35.29
55.85
72.96
84.38
88.6
85.19
75.25
61.2
46.01
31.94
20.12
10.57
2.73
-3.86
-9.05
-12.08
-12.14
-8.92
-3.17
4.25
12.97
23.26
34.97
46.17
52.88
50.58
38.55
18.63
-4.55
-24.84
-36.4
-35.17
-20.51
4.73
35.22
64.67
86.87
97.21
93.56
76.49
49.07
15.86
-18.07
-48.32
-71.79
-87.08
-93.9
-92.58
-84.2
-70.72
-54.96
-39.81
-27.47
-18.62
-12.54
-7.3
-0.75
8.41
20.3
33.9
48.08
61.92
75
86.96
97.34
105.42
110.33
111.75
110.06
106.55
102.55
98.9
95.56
92.19
88.55
84.81
81.58
76.9
69.21
57.23
40.65
20.3
-1.88
-23.28
-43.07
-60.92
-76.92
-91.1
-103.77
-114.05
-121.48
-125.78
-126.76
-124.38
-118.6
-109.82
-98.66
-86.12
-73.34
-61.43
-51.05
-42.38
-35.31
-29.5
-24.74
-20.78
-17.43
-14.43
-11.55
-8.57
-5.39
-2.17
0.78
3.14
4.82
6.11
7.51
9.48
12.17
15.27
18.02
19.62
19.46
17.4
13.8
9.34
4.74
0.58
-2.82
-5.43
-7.46
-9.22
-11.02
-13.03
-15.24
-17.48
-19.56
-21.36
-22.96
-24.53
-26.29
-28.35
-30.68
-33.08
-35.27
-36.88
-37.57
-37
-34.97
-31.51
-26.86
-21.48
-15.91
-10.68
-6.17
-2.69
-0.42
0.53
0.29
-0.72
-1.71
-1.71
0.21
4.58
11.46
20.46
30.84
41.77
52.33
61.6
68.83
73.79
76.97
79.53
82.71
87.09
92.12
96.21
97.68
95.7
90.83
84.56
78.04
71.01
61.61
47.51
27.61
3.4
-21.13
-40.92
-51.86
-52.43
-43.99
-29.91
-14.18
-0.36
8.88
11.86
8
-1.68
-14.34
-25.65
-31.1
-27.68
-15.25
3.26
23.03
39.16
48.48
49.98
44.43
33.27
18.19
1.13
-15.29
-27.86
-33.94
-32.95
-27.44
-22.31
-22.53
-30.3
-43.54
-56.65
-63.44
-60.32
-47.82
-29.81
-10.97
5.5
18.68
29.02
36.75
41.2
41.42
37.76
32.83
30.9
36.07
49.96
70.79
93.85
113.54
125.47
127.97
122.11
110.87
97.8
85.76
76.24
69.26
63.73
58.22
51.73
44.24
36.68
30.46
26.58
25.03
24.73
24.05
21.67
17.13
10.92
4
-2.91
-9.73
-17.04
-25.66
-36.14
-48.45
-62
-75.79
-88.8
-100.26
-109.73
-117.17
-122.76
-126.81
-129.57
-131.24
-131.95
-131.85
-131.12
-129.92
-128.27
-125.94
-122.58
-117.94
-112.14
-105.82
-99.96
-95.43
-92.32
-89.53
-84.97
-76.43
-62.72
-44.42
-23.76
-3.72
13.1
25.42
33.35
37.89
40.26
41.33
41.58
41.3
40.83
40.54
40.64
41.02
41.32
41.12
40.16
38.43
36.04
33.11
29.71
25.89
21.68
17.14
12.31
7.11
1.39
-5.06
-12.29
-20.07
-27.8
-34.65
-39.85
-42.96
-44.01
-43.52
-42.31
-41.2
-40.78
-41.2
-42.12
-42.85
-42.57
-40.56
-36.46
-30.19
-21.9
-11.9
-0.63
11.31
23.35
35.21
47.23
60.29
75.13
91.5
107.52
120.08
126.17
124.61
116.95
106.87
98.38
93.9
93.34
94.77
96
95.89
94.57
92.56
89.58
84.15
74.24
58.69
38.17
15.24
-6.79
-25.24
-38.97
-48.48
-55.3
-61.14
-67.31
-74.33
-81.85
-88.69
-93.19
-93.65
-89.15
-80.23
-69.07
-58.96
-52.85
-51.9
-54.6
-57.38
-56.28
-48.87
-35.46
-18.72
-2.28
11.08
20.41
26.55
30.89
34.2
36.12
35.47
31.33
23.85
14.46
5.21
-2.06
-6.4
-7.99
-7.67
-6.36
-4.58
-2.32
0.7
4.55
8.82
12.63
14.84
14.46
11.06
4.9
-3.1
-11.63
-19.52
-26.02
-30.94
-34.46
-36.74
-37.52
-36.14
-31.89
-24.63
-15.31
-5.78
1.91
6.49
8.2
8.72
10.44
15.52
25.06
38.87
55.72
73.65
90.29
103.22
110.49
111.34
106.68
99.07
91.87
87.93
88.32
92.02
96.58
99.43
99.04
95.26
88.8
80.27
69.57
56.02
38.92
18.53
-3.75
-25.69
-45.17
-61.04
-73.49
-83.72
-93.1
-102.31
-110.95
-117.87
-121.96
-122.86
-121.28
-118.67
-116.61
-116.05
-116.92
-118.17
-118.19
-115.38
-108.82
-98.57
-85.68
-71.73
-58.15
-45.72
-34.43
-23.8
-13.32
-2.7
8.03
18.7
29.18
39.35
48.78
56.66
61.94
63.98
63.1
60.65
58.42
57.69
58.65
60.41
61.83
62.25
61.85
61.26
60.78
59.9
57.37
51.87
42.81
30.67
16.75
2.54
-10.73
-22.31
-31.88
-39.52
-45.76
-51.45
-57.5
-64.33
-71.51
-77.73
-81.19
-80.34
-74.35
-63.18
-47.29
-27.46
-4.83
18.85
41.42
60.73
75.39
85.19
90.87
93.2
92.01
85.87
72.77
51.34
22.04
-12.76
-49.38
-83.95
-113.36
-135.46
-148.99
-153.23
-148.17
-134.83
-115.83
-95.03
-76.46
-62.66
-53.59
-46.95
-39.32
-28.09
-12.74
4.73
20.9
32.69
38.73
39.7
37.13
32.64
27.2
21.26
14.68
7.22
-0.89
-8.73
-14.68
-17.48
-16.02
-9.51
2.6
20.08
41.02
61.64
76.99
86.02
89.22
88.54
85.02
81.28
80.1
83.41
91.51
102.98
114.9
123.08
123.6
114.15
95.12
69.31
41.09
15.25
-4.3
-15.43
-18.45
-15.35
-8.91
-1.87
3.1
3.69
-1.66
-13.04
-28.73
-45.48
-58.91
-64.68
-59.66
-43.21
-17.56
12.75
42.13
65.52
79.58
83.57
79.26
70.07
59.9
51.91
47.72
47.33
49.48
52.22
53.4
52.11
47.87
40.78
31.1
18.88
4.18
-12.69
-30.74
-48.17
-62.93
-73.42
-79.08
-80.58
-79.46
-77.44
-75.74
-74.75
-74.15
-73.2
-71.34
-68.36
-64.52
-60.48
-57.03
-54.89
-54.47
-55.65
-57.85
-60.16
-61.61
-61.55
-59.96
-57.48
-55.13
-53.91
-54.28
-55.9
-57.91
-59.28
-59.34
-57.99
-55.45
-51.83
-46.95
-40.6
-33.2
-26.12
-21.27
-19.85
-21.13
-22.06
-18.39
-6.76
13.2
38.34
63.28
82.96
94.98
100.22
101.35
100.48
97.38
89.85
75.95
56.6
36.6
23.21
22.84
37.68
64.3
94.89
120.72
135.62
137.73
129.06
113.34
93.83
72.38
49.8
26.84
4.93
-14.09
-28.84
-39.17
-46.4
-52.7
-60.05
-69.38
-80.41
-91.91
-102.39
-110.7
-116.26
-118.92
-118.77
-115.79
-109.72
-100.19
-86.84
-69.58
-48.86
-25.77
-2.08
20.08
38.81
53.06
63.06
70.17
76.14
82.24
88.62
94.37
98.12
98.88
96.58
91.97
86.19
80.1
74.04
67.83
61.16
53.96
46.59
39.74
34.16
30.4
28.5
27.79
27.12
25.26
21.55
16.28
10.72
6.52
4.88
5.86
8.25
10.09
9.68
6.42
1.06
-4.71
-9.18
-11.44
-11.65
-10.76
-9.71
-8.87
-7.83
-5.82
-2.39
2.26
7.55
13.01
18.66
24.82
31.32
37.11
40.37
39.4
33.78
24.99
15.92
9.65
8.1
11.27
17.61
24.86
31.07
35.02
36.16
34.26
29.31
21.62
11.89
1.05
-10.05
-20.86
-31.28
-41.61
-52.61
-64.91
-78.78
-93.94
-109.68
-125.04
-139.04
-150.96
-160.6
-168.67
-175.9
-182.65
-188.56
-192.86
-194.72
-193.7
-189.73
-183.18
-175.28
-166.98
-158.69
-150.31
-141.5
-131.91
-121.4
-109.96
-98.04
-87.35
-79.41
-74.96
-73.49
-73.39
-72.41
-68.5
-60.25
-40.49
-6.34
40.26
92.47
141.44
180.28
206.25
220.07
226.8
231.44
236.73
243.81
251.91
258.72
260.07
252.04
232.5
202.51
165.9
127.51
92.01
62.4
39.54
22.63
10.33
1.67
-3.65
-5.71
-5.1
-2.41
1.93
7.87
15.35
23.76
31.38
35.57
33.49
23.33
5.61
-16.89
-40.02
-59.86
-73.84
-81.21
-82.63
-79.62
-73.58
-65.48
-55.87
-45.29
-34.46
-24.28
-15.6
-9.19
-5.99
-6.49
-10.54
-17.19
-24.87
-31.7
-36.12
-37.43
-36.19
-34.74
-35.9
-41.96
-53.91
-71.26
-92.16
-114.02
-134.17
-150.3
-161.73
-168.21
-169.73
-166.25
-158.06
-145.77
-130.39
-113.15
-89.77
-58.78
-21.32
18.87
57.19
89.78
114.51
130.7
138.98
141.17
138.9
134.21
128.85
124.86
122.13
119.83
117.09
113.48
109.37
104.82
100.11
95.47
91.03
86.59
81.72
75.93
68.1
58.06
45.9
32.54
19.67
9.43
3.64
2.74
5.39
8.97
10.81
9.02
3.45
-4.48
-12.76
-19.55
-24.83
-30.3
-37.48
-45.53
-51.54
-52.64
-48.64
-42.73
-39.92
-44.65
-58.04
-77.15
-96.61
-111.51
-119.6
-121.48
-120.83
-119.01
-116.32
-112.08
-105.31
-95.63
-83.68
-70.88
-58.53
-46.96
-35.36
-23.05
-9.92
3.06
14.02
20.84
22.17
16.68
5.25
-9.56
-24.9
-38.36
-48.39
-54.25
-55.76
-52.87
-45.48
-33.42
-16.72
3.94
27.44
52.53
78.04
102.87
125.86
145.59
160.69
170.11
173.45
171.32
165.16
156.6
146.68
135.44
122.08
105.57
85.32
61.55
35.4
8.78
-16.05
-36.92
-52.16
-60.96
-63.38
-60.13
-52.24
-40.65
-26.2
-10
6.27
20.47
30.55
35.5
35.87
33.75
31.78
31.91
34.53
38.28
40.92
40.54
36.36
29.02
19.89
10.21
0.47
-9.73
-21.1
-34.03
-48.02
-61.75
-73.54
-82.11
-87.12
-89.28
-90.09
-91.16
-93.7
-98.05
-103.58
-108.99
-112.75
-113.54
-110.57
-103.71
-93.39
-80.62
-66.77
-53.4
-41.87
-32.86
-25.99
-19.7
-11.82
-0.5
14.87
33.17
51.95
68.5
80.89
88.66
92.59
93.95
93.63
91.77
87.98
82.06
74.49
66.55
59.85
55.64
54.39
55.7
58.7
62.36
65.57
66.99
65.13
58.81
47.79
33.43
18.52
6.35
-0.68
-2.14
0.34
3.92
5.99
5.18
1.62
-3.62
-9.4
-14.87
-19.54
-22.92
-24.44
-23.68
-20.85
-16.88
-13.16
-10.77
-9.78
-8.95
-6.24
0.16
10.88
24.94
40.17
54.14
65.09
72.48
76.92
79.61
81.56
83.15
84.02
83.42
80.64
75.29
67.39
57.12
44.7
30.26
13.96
-3.82
-22.23
-40
-55.84
-68.71
-78.36
-85.24
-90.27
-94.37
-98.11
-101.51
-104.19
-105.67
-105.58
-103.91
-100.86
-96.72
-91.68
-85.84
-79.36
-72.45
-65.43
-58.43
-51.27
-43.4
-34.17
-23.26
-10.99
1.68
13.52
23.57
31.58
38.01
43.72
49.46
55.48
61.47
66.81
70.94
73.5
74.37
73.55
71.12
67.22
62.21
56.73
51.59
47.59
45.12
44.03
43.65
43.04
41.37
38.15
33.32
27.15
20.08
12.56
4.96
-2.38
-9.14
-15
-19.79
-23.54
-26.52
-29.08
-31.44
-33.49
-34.78
-34.77
-33.11
-29.91
-25.77
-21.49
-17.79
-14.97
-12.89
-11.1
-9.14
-6.74
-3.93
-0.86
2.31
5.42
8.22
10.37
11.59
11.83
11.5
11.32
11.96
13.59
15.61
17
16.79
14.72
11.44
8.12
5.79
4.8
4.63
4.39
3.37
1.58
-0.28
-1.2
-0.33
2.65
7.54
13.77
20.59
27.25
33.06
37.57
40.75
43.18
45.92
50.16
56.52
64.73
73.5
80.96
85.32
85.48
81.25
73.18
62.19
49.29
35.53
22
9.8
-0.18
-7.55
-12.49
-15.64
-17.6
-18.6
-18.44
-16.87
-14.06
-10.83
-8.42
-7.83
-9.23
-11.78
-14.08
-15.01
-14.44
-13.32
-13.16
-15.19
-19.73
-26.05
-32.87
-38.97
-43.61
-46.64
-48.3
-48.82
-48.25
-46.43
-43
-37.57
-29.8
-19.52
-7.04
6.55
19.41
29.49
35.52
37.64
37.39
36.84
37.36
38.83
39.79
38.4
33.62
25.79
16.29
6.57
-2.6
-11.37
-20.34
-29.88
-39.7
-49.05
-57.08
-63.31
-67.81
-71.12
-73.92
-76.73
-79.53
-81.77
-82.49
-80.77
-76.18
-68.97
-60.05
-50.59
-41.73
-34.24
-28.42
-24.14
-20.96
-18.28
-15.61
-12.75
-10.02
-8.22
-8.35
-11.08
-16.38
-23.28
-30.13
-35.15
-37.1
-35.67
-31.54
-26.01
-20.51
-16.09
-13.17
-11.57
-10.74
-10.07
-9.09
-7.52
-5.33
-2.77
-0.46
0.81
0.33
-2.06
-5.59
-8.61
-9.21
-6.2
0.05
7.52
13.39
15.43
13.18
8.29
3.67
2.06
4.66
10.71
18.08
24.58
29.09
31.88
34.27
37.55
42.2
47.63
52.62
56.08
57.58
57.47
56.49
55.34
54.46
54.2
55
57.53
62.24
68.79
75.72
80.68
81.4
76.76
67.35
55.19
42.62
31.23
21.53
13.28
6.31
0.96
-2.14
-2.68
-1.32
0.18
-0.22
-3.93
-11.12
-20.68
-31.05
-40.92
-49.77
-57.9
-66.14
-75.38
-86.09
-97.99
-110.01
-120.41
-127.44
-129.84
-127.32
-120.53
-110.76
-99.38
-87.64
-76.52
-66.77
-58.86
-52.88
-48.36
-44.31
-39.58
-33.33
-25.39
-16.22
-6.65
2.5
10.67
17.51
22.83
26.51
28.64
29.81
31.21
34.53
41.46
52.99
68.82
87.04
104.47
117.71
124.28
123.65
117.48
108.91
101.44
97.59
97.91
100.76
102.96
100.92
91.79
74.67
50.83
23.39
-3.44
-25.76
-41.07
-48.72
-49.76
-46.35
-40.65
-34.41
-28.82
-24.17
-20.21
-16.24
-11.47
-5.32
1.99
9.85
17.23
23.19
28.05
33.38
41.72
55.21
74.14
95.81
115.85
129.29
132.4
124.69
108.75
89.33
71.55
59.26
53.95
55.86
63.97
72.88
77.33
72.64
56.68
30.48
0.29
-31.18
-61.39
-87.69
-108.11
-120.83
-126.09
-126.36
-125.17
-125.28
-127.6
-130.01
-129.35
-123.58
-112.76
-99.28
-86.43
-76.82
-71.3
-69.53
-70.08
-71.88
-74.92
-79.47
-85.53
-92.18
-98.05
-101.72
-102.69
-98.72
-88.76
-73.42
-54.39
-33.37
-11.42
10.44
31.18
49.39
64.15
76.11
87.74
101.59
119.2
140.32
162.04
180.05
189.71
184.26
162.81
129.26
90.4
53.24
22.97
-0.58
-19.38
-35.63
-50.69
-64.05
-74.91
-82.65
-86.93
-85.6
-77.61
-62.88
-42.89
-20.88
-0.53
13.72
18.46
11.78
-4.79
-26.98
-49.53
-68.21
-83.26
-94.13
-100.42
-102.16
-100.21
-96.12
-90.32
-84.17
-78.76
-74.35
-69.58
-62.66
-51.96
-36.69
-17.4
3.71
23.06
37.25
44.27
44.63
40.61
35.33
31.44
30.36
31.83
34.32
36.18
36.37
34.89
32.26
29.05
25.71
22.61
20.15
18.67
18.54
19.86
22.38
25.36
27.71
28.43
26.89
22.96
16.86
9.17
0.64
-7.86
-15.57
-21.84
-26.28
-28.85
-29.88
-30.07
-30.1
-30.4
-30.91
-30.99
-29.7
-26.14
-19.85
-11.11
-0.81
9.8
19.44
27.13
32.42
35.26
35.89
34.63
31.72
27.42
22.19
16.72
11.99
9
8.6
11.28
17.3
26.75
39.6
55.6
73.59
91.05
104.31
109.52
104.21
88.48
65.18
38.96
15.04
-2.93
-13.82
-18.89
-20.64
-21.47
-22.94
-25.59
-29.35
-33.19
-36.18
-37.73
-37.62
-35.75
-31.7
-24.75
-14.06
0.81
20.48
44.46
71.07
97.83
122.22
142.4
157.21
165.73
161.89
141.69
105.17
57.72
8.08
-35.44
-67.53
-86.66
-94.63
-96.63
-96.02
-94.78
-93.79
-93.25
-93.03
-92.92
-92.8
-92.86
-92.04
-89.18
-83.78
-76.24
-67.76
-59.88
-53.7
-49.32
-45.96
-42.24
-36.54
-28.08
-17.38
-5.96
4.26
11.67
15.41
15.16
11.33
4.97
-2.54
-9.98
-16.44
-21.53
-25.45
-28.77
-32.34
-36.55
-40.97
-44.32
-45.08
-41.81
-33.57
-20.27
-2.06
19.03
39.76
56.57
68.84
77.37
83.39
88.37
92.01
94.81
97.31
100.04
103.04
105.7
107.14
106.81
105.05
102.81
101.56
101.86
102.99
102.9
96.65
81.07
56.48
27.08
-1.55
-24.64
-41.06
-51.9
-58.28
-61.04
-60.93
-59.34
-57.06
-56.27
-58.75
-64.78
-72.52
-78.7
-80.13
-74.68
-62.09
-43.86
-22.95
-2.53
14.56
26.13
30.73
27.53
16.69
-0.78
-23.18
-48.7
-75.41
-101.44
-124.84
-143.72
-156.37
-161.35
-157.97
-146.66
-129.02
-107.29
-83.55
-59.08
-34.18
-8.55
18.19
46.11
74.88
104.02
133
160.72
184.75
201.07
204.91
192.73
164.4
124.19
79.72
39.19
8.34
-11.15
-21.27
-25.71
-27.8
-29.43
-31.17
-33.02
-34.96
-36.93
-38.44
-38.58
-36.27
-31.13
-23.96
-16.65
-11.54
-10.7
-15.44
-25.98
-41.56
-60.51
-80.41
-98.38
-111.68
-118.56
-119
-114.82
-108.92
-104.02
-101.27
-99.79
-97.12
-90.46
-78.12
-60.2
-38.29
-14.59
8.94
31.06
51.11
68.63
83.07
93.78
100.3
102.53
100.8
95.67
87.83
78
66.76
54.64
42.02
29.29
16.88
5.25
-5.25
-14.53
-22.99
-31.34
-40.24
-49.86
-59.57
-68
-73.57
-75.1
-72.33
-66.07
-57.95
-49.88
-43.53
-39.9
-39.06
-40.16
-41.51
-41.01
-36.77
-27.71
-14.13
2.4
19.5
34.78
46.5
53.97
57.42
57.7
55.87
53.03
50.28
48.58
48.62
50.5
53.66
57.04
59.59
60.85
61.24
61.79
63.45
66.43
69.84
72.06
71.52
67.38
59.65
48.8
35.39
20.07
4.11
-10.12
-19.34
-20.54
-12.54
2.89
21.21
36.67
44.5
42.59
31.71
14.61
-5.52
-26.23
-46.14
-64.54
-80.79
-94.03
-103.24
-107.71
-107.31
-102.75
-95.46
-87.18
-79.51
-73.44
-69.13
-65.9
-62.65
-58.37
-52.57
-45.61
-38.38
-31.87
-26.61
-22.38
-18.51
-14.37
-9.96
-6.06
-3.76
-3.7
-5.5
-7.76
-8.71
-6.95
-2.04
5.73
15.88
28.16
42.45
58.12
73.42
85.64
92.05
91.44
85.07
76.48
70.04
69.11
74.85
86.16
100.69
116.07
130.59
143.1
152.45
157.05
155.1
145.37
127.99
104.77
78.82
53.84
33.25
19.49
13.63
15.25
22.47
32.37
41.64
47.36
47.69
42.1
31.17
16.14
-1.52
-20.39
-39.12
-56.36
-70.94
-82.01
-89.24
-92.89
-93.48
-91.61
-87.72
-82.2
-75.42
-67.8
-59.74
-51.45
-42.98
-34.51
-26.66
-20.65
-17.91
-19.36
-24.77
-32.48
-39.98
-44.8
-45.5
-42.18
-36.11
-28.81
-21.19
-13.24
-4.48
5.21
14.98
23.19
28.16
29.17
26.94
23.3
20.14
18.47
17.97
17.36
15.38
11.45
5.75
-1.16
-8.97
-17.89
-28.26
-40.13
-52.8
-64.88
-74.71
-80.9
-82.78
-80.44
-74.47
-65.55
-54.15
-40.28
-23.64
-3.69
19.87
46.73
75.54
103.76
128.05
145.2
153.38
153
146.78
138.73
132.56
130.13
130.88
132.4
131.69
126.46
115.79
99.91
79.74
56.32
30.77
4.46
-20.82
-42.98
-60.21
-71.53
-77.14
-78.34
-77.13
-75.44
-74.61
-75.07
-76.43
-77.79
-78.26
-77.28
-74.89
-71.61
-68.2
-65.33
-63.38
-62.36
-61.98
-61.8
-61.42
-60.6
-59.35
-57.86
-56.46
-55.52
-55.36
-56.15
-57.85
-60.07
-62.17
-63.37
-63.05
-61.04
-57.76
-54.14
-51.27
-49.85
-49.82
-50.29
-49.92
-47.52
-42.72
-36.02
-28.36
-20.53
-12.79
-4.93
3.31
11.77
19.72
26.17
30.58
33.18
34.99
37.24
40.68
45.17
49.75
53.23
54.77
54.46
53.15
52.05
52.2
54.02
57.39
61.9
67.33
73.77
81.62
91.18
102.36
114.47
126.32
136.44
143.41
146.2
144.44
138.55
129.66
119.28
108.76
98.86
89.53
80.19
70.24
59.5
48.36
37.58
27.75
18.96
10.69
2.1
-7.49
-18.28
-30.02
-42.15
-54.18
-65.73
-76.46
-85.94
-93.61
-98.9
-101.54
-101.81
-100.48
-98.62
-97.17
-96.62
-96.93
-97.64
-98.07
-97.6
-95.77
-92.36
-87.41
-81.14
-73.93
-66.26
-58.57
-51.2
-44.28
-37.76
-31.45
-25.17
-18.81
-12.38
-6.02
0.1
5.71
10.45
13.96
15.99
16.59
16.18
15.49
15.26
15.89
17.28
18.85
19.95
20.2
19.76
19.28
19.61
21.44
24.96
29.85
35.28
40.08
42.94
42.82
39.25
32.49
23.41
13.11
2.56
-7.64
-17.1
-25.55
-32.6
-37.86
-41.04
-42.18
-41.66
-39.94
-37.28
-33.54
-28.22
-20.86
-11.46
-0.67
10.3
19.95
26.9
30.13
29.07
23.83
15.14
4.45
-6.32
-15.11
-20.26
-21.07
-17.96
-12.29
-5.79
0.11
4.69
7.94
10.3
12.27
14.22
16.29
18.39
20.24
21.35
21.05
18.54
13.12
4.59
-6.39
-18.19
-28.56
-35.53
-38.18
-37.26
-34.82
-33.26
-34.15
-37.53
-42.01
-45.66
-47.17
-46.39
-44.2
-41.67
-39.27
-36.65
-32.88
-27.07
-18.69
-7.57
6.37
23.17
42.54
63.32
83.19
98.99
107.87
108.52
101.85
90.71
78.73
69.03
63.44
62.47
65.81
72.83
82.65
93.8
104
110.38
110.34
102.64
88.08
69.3
49.89
33.14
21.22
14.81
13.43
15.79
20.28
25.17
28.9
30.3
28.8
24.48
17.9
9.71
0.27
-10.42
-22.56
-36.16
-50.81
-65.58
-79.25
-90.53
-98.36
-102.04
-101.37
-96.78
-89.29
-80.32
-71.41
-63.81
-58.11
-54.08
-50.7
-46.63
-40.7
-32.36
-22.01
-10.75
-0.04
8.86
15.24
19.14
21.1
21.85
21.88
21.11
18.85
14.16
6.26
-4.88
-18.46
-32.99
-46.74
-58.26
-66.59
-71.37
-72.64
-70.65
-65.87
-58.9
-50.53
-41.56
-32.64
-24.14
-16.06
-8.21
-0.29
8.03
17.06
27.01
37.95
49.71
61.93
74.09
85.69
96.2
105.09
111.79
115.76
116.6
114.24
108.97
101.33
91.8
80.58
67.46
51.91
33.37
11.64
-12.88
-39.12
-65.49
-90.29
-112.21
-130.68
-145.89
-158.53
-169.19
-177.96
-184.29
-187.24
-186.13
-180.86
-172.05
-160.72
-147.8
-133.83
-118.94
-103.27
-87.23
-71.7
-57.84
-46.73
-39.06
-34.95
-34.1
-35.98
-39.92
-45.1
-50.42
-54.49
-55.73
-52.68
-44.43
-30.82
-12.49
9.4
33.56
58.95
84.93
111.04
136.69
160.83
182
198.77
210.34
216.87
219.52
219.92
219.49
218.82
217.51
214.34
207.78
196.49
179.69
157.34
130.1
99.25
66.47
33.55
2.11
-26.65
-52.05
-73.87
-92.24
-107.51
-120.11
-130.33
-138.31
-143.97
-147.03
-147.25
-144.61
-139.39
-132.02
-122.86
-111.87
-98.63
-82.6
-63.5
-41.67
-18.29
4.95
26.15
43.75
56.94
65.93
72.1
77.69
85.16
96.19
110.84
127.02
141.12
149.41
149.67
142.31
130.11
117.09
106.8
101.22
100.4
102.91
106.61
109.12
108.18
101.91
89.15
70.01
46.16
20.52
-3.71
-24.03
-39.45
-50.45
-58.24
-64.08
-68.66
-72.22
-74.85
-76.88
-78.94
-81.83
-86.14
-92.13
-99.71
-108.67
-118.81
-129.88
-141.44
-152.67
-162.46
-169.66
-173.47
-173.72
-170.87
-165.69
-158.9
-150.93
-141.89
-131.68
-120.1
-107.02
-92.36
-76.23
-58.95
-41.2
-23.96
-8.28
5.11
16.21
25.88
35.54
46.71
60.41
76.73
94.76
112.74
128.56
140.29
146.8
148.17
145.66
141.35
137.47
135.64
136.46
139.33
142.82
145.05
144.22
138.92
128.31
112.3
91.56
67.64
42.75
19.42
-0.04
-14.08
-22.34
-25.83
-26.73
-27.74
-31.09
-37.64
-46.57
-55.57
-61.88
-63.47
-59.84
-52.26
-43.08
-34.77
-28.98
-26.12
-25.52
-26.1
-26.97
-27.9
-29.27
-31.86
-36.29
-42.75
-50.89
-60.05
-69.58
-79.15
-88.69
-98.16
-107.41
-116.05
-123.62
-129.74
-134.24
-137.02
-137.93
-136.53
-132.21
-124.46
-113.16
-98.67
-81.65
-62.99
-43.59
-24.16
-5.08
13.49
31.56
49.24
66.77
84.8
103.9
124.14
144.73
164.02
179.81
190.1
193.7
190.6
182.46
171.57
160.24
150.51
143.82
140.78
140.96
142.68
143.22
140.38
132.85
120.67
105.51
89.81
75.69
64.54
56.68
47.77
35.39
19.4
2.06
-13
-23.08
-27.56
-27.18
-23.58
-18.65
-13.07
-5.75
3.26
13.61
24.17
33.35
40.18
43.71
42.94
38.15
30.28
20.42
9.34
-2.25
-13.66
-23.02
-29.02
-31.64
-31.28
-29.22
-27.47
-28
-32.76
-42.53
-55.28
-68.69
-81.65
-93.61
-104.83
-116.06
-122.76
-121.3
-118.53
-117.77
-116.85
-115.38
-113.5
-111.61
-110.06
-108.91
-108.66
-109.52
-109.99
-108.83
-105.98
-101.58
-96.05
-89.86
-83.44
-77.59
-72.88
-68.59
-64.15
-59.81
-55.73
-52.1
-48.87
-45.72
-42.67
-39.84
-37.03
-34.36
-32.4
-31.32
-31.24
-31.94
-33.02
-34.27
-35.31
-35.55
-34.28
-30.92
-24.95
-16.41
-5.53
7.62
23.14
41.49
61.55
80.65
95.47
106.11
113.39
118.53
123.12
126.98
130.54
133.96
137.24
140.28
142.99
144.93
145.6
144.66
142.12
138.26
133.21
127.18
120.47
113.54
106.71
100.3
94.67
90.28
87.19
84.94
82.82
80.31
77.33
73.83
69.31
61.08
47.49
28.53
6.44
-15.14
-33.68
-49
-62.14
-74.7
-88.34
-102.18
-115.34
-127.01
-137.01
-145.68
-153.41
-160.19
-165.63
-169.29
-170.68
-170.03
-167.97
-165.12
-161.76
-157.59
-151.96
-144.54
-135.63
-125.97
-116.72
-108.84
-102.9
-98.96
-96.57
-94.91
-93.05
-90.12
-85.34
-78.23
-68.52
-56.07
-40.72
-22.3
-0.66
24.2
52.08
82.67
115.26
148.43
179.82
206.2
224.33
232.19
230.03
220.58
207.97
195.99
186.43
178.69
170.56
159.77
145.19
127.2
107.05
86
64.8
43.73
22.98
2.92
-15.95
-33
-47.59
-58.91
-65.98
-67.88
-64.32
-56.06
-44.96
-33.37
-23.26
-15.61
-10.39
-7.18
-5.83
-6.87
-11.15
-19.07
-30.02
-42.37
-54.14
-63.89
-71.38
-77.57
-83.91
-91.62
-101.04
-111.55
-121.85
-130.33
-135.4
-135.86
-131.06
-121.15
-107.13
-90.67
-73.65
-57.59
-43.19
-30.15
-17.4
-3.47
13.04
32.89
55.64
79.26
100.32
114.83
119.75
114.46
101.54
86.23
74.55
70.84
75.92
86.76
97.92
104.03
102.09
92.39
77.76
61.82
47.42
36.04
28.38
25.27
28.2
38.73
57.33
82.39
110.31
136.65
157.76
171.74
178.45
178.88
174.24
165.67
154.44
142.14
130.6
121.3
114.72
110.09
105.65
99.35
89.48
75.08
55.96
32.59
5.89
-22.85
-52.21
-80.78
-107.49
-131.56
-152.54
-170.14
-184.16
-194.65
-201.93
-206.64
-209.66
-211.73
-213.2
-213.88
-213.18
-210.34
-204.94
-196.98
-186.92
-175.41
-163.07
-150.37
-137.48
-124.48
-111.46
-98.77
-86.95
-76.59
-68.05
-61.26
-55.66
-50.2
-43.68
-35.18
-24.66
-12.85
-1.01
9.68
18.54
25.49
31.06
36.12
41.57
47.98
55.91
65.83
78.46
94.21
112.1
129.74
144.1
153.02
156.08
154.68
150.74
146.07
141.36
136.2
130.04
122.81
116.67
112.01
108.88
107.12
106.94
107.84
108.5
107.64
104.41
98.51
89.79
78.15
62.73
44.33
23.92
2.35
-19.12
-39.01
-56.11
-67.77
-72.6
-75.96
-81.33
-88.32
-96.71
-106.04
-116.11
-127.21
-139.8
-153.81
-167.38
-175.94
-174.55
-160.32
-133.45
-97.73
-59.56
-25.87
-2.14
9.16
9.36
1.61
-10.81
-25.07
-39.2
-52.04
-62.78
-70.59
-74.27
-71.72
-60.93
-40.69
-10.98
26.59
68.56
109.98
145.12
168.77
177.89
172.38
155.08
130.98
105.41
82.32
63.37
48.28
35.89
25.38
16.43
8.88
2.29
-4.02
-10.47
-16.61
-21.24
-23.16
-22.02
-18.76
-15.07
-12.41
-11.18
-10.69
-9.85
-8.1
-5.91
-4.52
-5.28
-8.98
-15.57
-24.4
-34.65
-45.62
-56.96
-68.42
-79.54
-89.45
-96.97
-101.03
-101.33
-98.68
-94.77
-91.34
-89.18
-87.57
-84.63
-78.26
-67.41
-52.6
-35.83
-19.63
-6
4.34
11.91
17.94
23.59
29.56
35.98
42.74
49.76
57.18
65.14
73.62
82.15
89.92
95.87
99.09
99.03
95.66
89.36
80.77
70.51
59.12
46.99
34.55
22.35
11.12
1.63
-5.67
-10.91
-14.91
-18.87
-23.88
-30.46
-38.3
-46.53
-54.09
-60.2
-64.46
-66.8
-67.25
-65.81
-62.46
-57.32
-50.78
-43.45
-36.08
-29.36
-23.79
-19.65
-17.09
-16.13
-16.65
-18.25
-20.23
-21.56
-21.11
-17.98
-11.78
-2.71
8.29
19.89
30.66
39.58
46.31
51.23
55.18
58.97
62.98
66.97
70.3
72.3
72.62
71.28
68.33
63.47
55.95
44.77
29.25
9.47
-13.53
-38.16
-62.75
-86.03
-107.12
-125.35
-139.73
-148.94
-151.56
-146.66
-134.54
-116.73
-95.78
-74.39
-54.63
-37.31
-21.99
-7.45
7.51
23.35
39.53
54.7
67.34
76.43
81.9
84.7
86.44
88.78
92.82
98.85
106.27
113.81
119.91
123.15
122.81
119.3
114.19
109.77
108.39
111.65
119.77
131.51
144.31
154.9
160.21
158.06
147.79
130.44
108.38
84.65
62.09
42.67
27.13
15.16
5.87
-1.74
-8.42
-14.66
-20.81
-27.06
-33.52
-40.07
-46.43
-52.24
-57.17
-61.09
-64.16
-66.68
-68.98
-71.13
-72.89
-73.84
-73.53
-71.75
-68.68
-64.81
-60.85
-57.44
-55.06
-53.83
-53.56
-53.87
-54.3
-54.61
-54.85
-55.35
-56.54
-58.68
-61.68
-65.08
-68.23
-70.48
-71.39
-70.75
-68.56
-64.94
-60.2
-54.8
-49.32
-44.29
-39.92
-35.9
-31.47
-25.7
-17.92
-8.01
3.58
16
28.33
39.83
49.95
58.25
64.09
66.68
65.36
60.08
51.8
42.37
33.94
28.12
25.37
24.9
25.17
24.65
22.46
18.67
14.03
9.51
6.02
4.21
4.51
7.14
12.06
18.76
26.33
33.47
38.82
41.36
40.76
37.58
32.99
28.32
24.37
21.01
17.22
11.7
3.58
-7.08
-19.34
-31.96
-43.99
-55.02
-64.85
-72.98
-78.27
-79.15
-74.38
-63.71
-48.39
-30.97
-14.56
-1.87
5.71
8.35
7.6
5.59
4.19
4.29
5.65
7.22
7.92
7.24
5.53
3.73
2.74
2.91
3.9
4.88
5.09
4.2
2.36
0.09
-2.14
-4.18
-6.2
-8.55
-11.5
-15.02
-18.77
-22.29
-25.25
-27.63
-29.77
-32.14
-35.06
-38.58
-42.37
-45.79
-47.99
-47.98
-44.79
-37.79
-26.86
-12.72
3.11
18.55
31.52
40.48
44.79
44.83
41.55
36.15
29.54
22.23
14.25
5.39
-4.51
-15.24
-26.26
-36.94
-46.87
-55.89
-63.78
-69.66
-71.88
-68.55
-58.69
-43.38
-26.02
-10.94
-1.39
2.31
2.98
4.93
11.33
22.24
34.53
43.62
46.12
41.54
32.2
21.74
13.1
7.4
3.98
1.41
-1.46
-4.84
-8.22
-10.56
-10.65
-7.16
1.21
15.31
35.04
58.82
83.82
106.58
124.05
134.4
137.24
133.35
124.26
111.96
98.74
87.06
79.06
75.9
77.17
80.8
83.65
82.71
76.21
64.2
48.42
31.39
15.45
2.08
-8.23
-15.75
-21.19
-25.46
-29.59
-34.58
-41.1
-49.2
-58.18
-66.84
-73.94
-78.72
-81.06
-81.35
-80.03
-77.31
-73.28
-68.28
-63.23
-59.56
-58.74
-61.55
-67.72
-75.99
-84.79
-92.8
-99.4
-104.56
-108.56
-111.52
-113.29
-113.57
-112.2
-109.52
-106.35
-103.69
-102.24
-101.88
-101.53
-99.46
-93.9
-83.91
-69.89
-53.48
-36.95
-22.3
-10.71
-2.57
2.21
4.01
3.69
2.96
4.25
9.81
20.32
33.9
46.45
53.56
52.81
45.27
35.13
27.66
26.65
32.96
44.77
58.97
72.85
84.85
94.24
100.58
103.17
101.13
94.05
82.61
68.9
55.94
46.61
42.33
42.24
43.4
42.01
35.37
23.26
8.31
-5.1
-12.79
-12.42
-4.19
9.62
25.8
41.4
54.26
63.01
66.93
65.78
59.81
50.09
38.67
28.5
22.98
24.74
34.35
49.27
63.93
71.4
65.98
45.72
13.5
-24.02
-58.86
-84.61
-98.11
-99.66
-91.7
-77.26
-59.01
-39.02
-19.24
-1.72
11.67
19.93
23.65
25.06
27.32
33.17
43.66
57.71
72.5
84.82
92.54
95.55
95.67
95.8
98.57
105.29
115.67
128.12
140.5
150.71
157.07
158.51
154.56
145.31
131.22
112.82
90.64
65.44
38.5
11.87
-11.94
-30.74
-43.59
-51.2
-55.61
-59.02
-62.65
-66.35
-69.05
-69.98
-69.65
-69.94
-73.29
-81.23
-93.54
-108.14
-121.99
-132.33
-137.59
-137.54
-132.86
-124.47
-113.14
-99.51
-84.33
-68.61
-53.52
-39.81
-27.64
-16.77
-7.03
1.38
8.03
12.64
15.22
16.11
15.57
13.57
9.84
4.18
-3.05
-10.85
-17.91
-23.04
-25.76
-26.39
-25.84
-25.16
-25.22
-26.56
-29.52
-34.25
-40.78
-48.99
-58.75
-69.76
-81.35
-92.38
-101.45
-107.31
-109.34
-107.8
-103.65
-98.27
-92.89
-88.34
-85.06
-83.25
-83.06
-84.58
-87.55
-91.02
-93.36
-92.55
-86.87
-75.56
-59.06
-38.8
-16.64
5.75
27.17
47
65.06
81.52
96.82
111.52
126.03
140.22
153.17
163.28
168.76
168.49
162.58
152.56
140.96
130.62
123.84
121.7
123.78
128.39
133.11
135.65
134.58
129.74
122.13
113.34
104.69
96.58
88.37
78.87
67.18
53.34
38.42
24.01
11.26
0.18
-10.53
-22.9
-38.72
-58.59
-81.56
-105.31
-127.12
-144.75
-157.18
-164.59
-167.66
-166.76
-161.46
-150.89
-134.81
-114.57
-93.39
-75.21
-62.85
-56.52
-53.6
-50.15
-43.23
-32.62
-20.99
-12.34
-9.69
-13.5
-21.45
-29.83
-35.32
-36.37
-33.4
-28.19
-22.74
-18.45
-15.73
-14.14
-12.85
-11.13
-8.53
-4.83
0.24
7.28
17.1
30.07
45.34
60.45
71.86
76.43
73
63.38
51.74
42.85
40
43.73
52.09
61.98
71.03
78.55
85.32
92.56
100.63
108.53
114.3
116.34
114.47
110.35
106.69
105.92
108.68
113.24
116.02
113.08
101.81
81.99
55.74
26.46
-2.51
-28.87
-51.39
-69.54
-82.88
-90.94
-93.54
-91.49
-86.86
-82.63
-81.54
-84.69
-90.8
-96.53
-98
-92.61
-80.38
-63.85
-46.9
-33
-23.84
-19.11
-17.28
-16.81
-17.12
-18.72
-22.62
-29.45
-38.85
-49.53
-59.72
-68.06
-74.02
-78.07
-81.12
-83.84
-86.18
-87.39
-86.56
-83.25
-77.82
-71.23
-64.54
-58.33
-52.48
-46.47
-39.89
-32.87
-26.14
-20.7
-17.22
-15.75
-15.55
-15.4
-13.87
-9.71
-2
9.68
25.19
43.84
64.47
85.56
105.59
123.32
138.01
149.47
157.88
163.52
166.67
167.64
166.82
164.7
161.74
158.1
153.43
146.86
137.39
124.44
108.25
89.95
71.19
53.41
37.35
22.81
8.92
-5.33
-20.52
-36.61
-52.99
-68.86
-83.42
-95.99
-105.76
-111.67
-112.57
-107.61
-96.86
-81.54
-63.87
-46.21
-30.3
-16.75
-5.32
4.47
12.7
18.95
22.67
23.77
22.87
21.15
19.77
19.34
19.82
20.63
21
20.14
17.07
10.63
-0.41
-16.8
-38.21
-63.08
-89.03
-113.68
-135.49
-153.9
-169.02
-180.76
-188.32
-190.23
-185
-171.95
-151.75
-126.37
-98.48
-70.79
-45.63
-24.82
-9.85
-1.54
0.38
-2.24
-6.08
-7.28
-3.01
7.11
20.66
33.53
41.94
44.43
42.48
39.44
38.57
41.21
46.38
51.7
55.02
55.71
54.64
53.37
53
53.44
53.72
52.7
49.9
45.65
40.86
36.43
32.98
30.81
29.82
29.53
29.11
27.7
24.97
21.64
19.53
20.77
26.69
36.66
48.02
56.99
60.61
58.26
52.14
46.15
44.18
48.47
58.99
73.9
90.29
105.03
115.24
118.69
114.38
103.12
87.76
72.53
61.56
57.27
59.5
65.9
73.38
79.66
83.95
86.54
87.91
87.78
85.03
78.19
66.37
49.92
30.52
10.63
-7.32
-21.84
-32.7
-40.87
-47.89
-55.17
-63.48
-72.86
-83.17
-94.54
-107.46
-122.43
-139.31
-156.89
-173.22
-186.24
-194.5
-197.55
-195.73
-189.82
-180.46
-168.07
-152.95
-135.63
-116.83
-97.33
-77.87
-59.02
-41.33
-25.29
-11.41
-0.09
8.27
13.63
16.34
17
16.19
14.31
11.59
8.14
4.15
-0.29
-4.81
-8.66
-10.89
-10.6
-7.32
-1.04
7.62
19.07
32.27
45.09
55.22
61.31
63.58
63.36
62.43
62.19
63.45
66.01
69.11
71.86
73.52
73.63
71.79
68.48
63.54
57.07
49.11
39.76
29.24
18.01
6.73
-4.05
-13.62
-21.46
-26.66
-28.25
-25.29
-17.19
-4.19
12.88
30.84
45.38
51.87
48.61
37.7
23.28
8.51
-6.08
-21.72
-39.29
-57.2
-71.96
-79.95
-80.09
-74.89
-69.17
-67.12
-70.04
-77.03
-84.05
-87.92
-87.75
-85.22
-83.28
-84.26
-88.29
-93.3
-96.09
-93.81
-85.56
-72.3
-56.22
-39.57
-23.83
-9.32
4.12
16.4
27.61
38.28
49.74
63.63
80.76
100.1
118.79
133.13
140.51
140.73
135.91
129.27
123.41
119.17
115.69
111.52
105.63
97.9
88.85
78.83
67.7
54.97
40.3
24
7.17
-8.64
-21.99
-32.06
-38.98
-43.66
-47.27
-50.68
-54.14
-57.3
-59.62
-60.7
-60.56
-59.65
-58.64
-58.14
-58.46
-59.52
-60.85
-61.84
-61.8
-60.23
-56.88
-51.78
-45.2
-37.63
-29.69
-22.12
-15.68
-11
-8.45
-7.96
-9.01
-10.77
-12.33
-13.07
-12.84
-11.96
-11.12
-11.02
-12.12
-14.44
-17.52
-20.54
-22.55
-22.7
-20.52
-16.07
-9.97
-3.39
2.32
6.01
7.28
6.83
6.18
7.01
10.14
14.9
19.32
21.03
18.65
12.68
5.47
0.18
-0.73
3.35
10.98
19.35
25.68
28.33
27.42
24.62
22.33
22.75
27.14
35.61
47.29
60.83
74.76
87.6
97.78
103.69
104.16
99.08
89.79
78.9
69.32
63.19
61.13
62.36
65.41
69.04
72.53
75.4
76.97
76.09
71.64
63.18
51.41
37.92
24.36
11.52
-0.91
-13.87
-27.99
-42.96
-57.49
-69.99
-79.43
-85.83
-90.22
-93.99
-98.18
-103.03
-107.99
-112.01
-113.97
-112.97
-108.5
-100.35
-88.6
-73.56
-55.74
-35.91
-15.12
5.41
24.46
41.07
54.65
64.86
71.48
74.27
73.22
68.91
62.69
56.54
52.34
51.13
52.65
55.56
58.2
59.43
58.98
57.27
54.74
51.37
46.62
39.82
30.68
19.68
7.84
-3.51
-13.31
-21.12
-27.17
-32.17
-37.02
-42.35
-48.24
-54.26
-59.57
-63.37
-65.13
-64.75
-62.45
-58.56
-53.48
-47.53
-41.12
-34.74
-28.95
-24.36
-21.39
-20.02
-19.92
-20.53
-21.27
-21.77
-21.84
-21.53
-21.15
-20.89
-20.57
-19.85
-18.46
-16.42
-14.13
-12.21
-11.19
-11.49
-12.64
-13.11
-11.17
-5.58
3.88
16.23
29.92
43.28
54.64
63.33
69.96
75.51
81.17
88.08
97.27
109.86
126.58
146.84
164.95
175.04
172.77
158.03
135.21
110.28
87.71
72.28
61.71
53.33
46.33
41.21
38.86
39.39
40.34
39.45
34.98
25.84
12.79
-2.08
-16.7
-29.73
-40.84
-50.52
-59.25
-67.37
-75.43
-83.5
-91.3
-98.57
-105.04
-110.56
-115.35
-119.79
-124.45
-129.98
-136.11
-141.59
-144.73
-143.97
-138.6
-129.22
-117.38
-105.21
-94.84
-87.48
-83.29
-81.47
-80.54
-78.81
-74.93
-68.28
-59.16
-48.56
-37.66
-27.54
-19.02
-12.64
-8.7
-7.12
-7.35
-8.36
-8.85
-7.59
-3.84
2.51
11.03
20.98
31.64
42.3
52.38
61.31
68.74
74.68
79.74
84.94
91.25
99.09
107.93
116.5
123.38
127.71
129.56
129.8
129.38
128.68
127.2
123.83
117.42
107.43
94.04
78.02
60.2
41.17
21.23
0.65
-20.1
-40.26
-58.97
-75.6
-90.01
-102.54
-113.77
-124.2
-133.82
-142.03
-147.76
-149.79
-147.3
-140.18
-129.13
-115.46
-100.64
-85.87
-71.86
-58.79
-46.56
-35.06
-24.33
-14.56
-5.96
1.36
7.4
12.23
15.93
18.53
20.02
20.48
20.1
19.2
18.09
17.03
16.08
15.12
13.93
12.27
10.05
7.37
4.57
2.07
0.23
-0.89
-1.57
-2.28
-3.54
-5.61
-8.41
-11.53
-14.39
-16.43
-17.18
-16.38
-13.92
-9.93
-4.67
1.58
8.68
16.75
25.97
36.28
47.11
57.33
65.46
70.18
70.9
68
62.77
56.8
51.47
47.48
44.68
42.23
38.97
33.91
26.83
18.55
10.8
5.58
4.17
6.47
11.13
16.15
20.02
22.45
24.36
27.02
30.94
35.27
38.03
37.54
33.36
26.75
20.22
16.24
16.09
19.44
24.8
30.39
35.57
40.7
46.8
54.62
64.01
73.75
81.98
87
87.54
83.63
75.78
64.67
50.77
34.34
15.53
-5.36
-26.25
-47.71
-68.51
-87.47
-103.42
-115.37
-122.74
-125.38
-123.61
-118.27
-110.91
-102.92
-95.75
-90.17
-86.02
-82.24
-77.35
-70.24
-60.73
-49.89
-39.04
-29.46
-21.77
-15.91
-11.6
-8.81
-7.91
-9.36
-13.41
-19.51
-26.77
-34.15
-40.91
-46.61
-51.01
-53.82
-54.62
-53.06
-49
-42.92
-35.71
-28.45
-22.01
-16.8
-12.78
-9.64
-7.11
-5.07
-3.56
-2.66
-2.28
-2.14
-1.73
-0.47
2.11
6.11
11.2
16.6
21.35
24.61
26.1
26.19
25.89
26.45
28.9
33.76
40.75
48.78
56.08
60.58
60.56
55.37
45.98
34.95
25.59
20.61
20.98
25.45
31.23
35.22
35.33
31.12
23.54
14.25
4.85
-3.43
-9.62
-12.94
-12.81
-9.19
-2.73
5.31
13.36
20.03
24.44
26.3
25.75
23.2
19.15
14.15
8.79
3.59
-1.08
-4.99
-8.09
-10.41
-11.92
-12.49
-12
-10.44
-8.07
-5.34
-2.75
-0.67
0.79
1.76
2.48
3.1
3.63
4.03
4.33
4.7
5.4
6.51
7.73
8.31
7.39
4.41
-0.43
-6.19
-11.45
-15.01
-16.47
-16.43
-16.16
-16.92
-19.23
-22.48
-25.15
-25.25
-21.21
-12.37
0.78
16.67
33.21
48.18
59.7
66.57
68.61
66.82
63.29
60.77
61.62
66.71
74.54
81.47
83.1
76.49
61.95
43.39
26.78
17.37
17.16
24.14
33.51
40.28
41.6
37.6
30.58
23.24
16.98
11.57
5.66
-2.06
-11.97
-23.4
-35.11
-45.92
-55.26
-63.2
-70.22
-76.76
-82.82
-87.84
-90.96
-91.4
-88.98
-84.26
-78.45
-72.85
-68.4
-65.29
-63.06
-60.96
-58.34
-55.02
-51.24
-47.41
-43.66
-39.62
-34.45
-27.23
-17.56
-5.98
6.14
17
25.17
30.09
32.2
32.6
32.49
32.53
32.78
32.75
31.93
30.15
27.73
25.23
23.22
21.93
21.27
20.9
20.54
20.1
19.78
19.96
21
22.92
25.42
27.89
29.7
30.35
29.7
27.91
25.37
22.54
19.85
17.65
16.07
15.1
14.48
13.76
12.44
10.19
6.99
3.14
-0.94
-4.94
-8.82
-12.76
-16.9
-21.16
-25.19
-28.49
-30.65
-31.53
-31.23
-29.98
-27.97
-25.27
-21.88
-17.76
-12.95
-7.66
-2.27
2.72
6.82
9.71
11.27
11.64
11.2
10.55
10.33
11.19
13.66
18.03
24.18
31.38
38.41
43.99
47.28
48.39
48.19
47.9
48.27
49.1
49.23
47.1
41.51
32.27
20.2
6.81
-6.36
-18.2
-28.13
-35.96
-41.62
-45.09
-46.38
-45.63
-43.17
-39.53
-35.29
-30.97
-26.79
-22.67
-18.31
-13.33
-7.5
-0.89
6.09
12.79
18.5
22.67
25.04
25.64
24.68
22.44
19.22
15.33
11.11
6.97
3.32
0.44
-1.61
-2.95
-3.85
-4.54
-5.12
-5.58
-5.91
-6.07
-6.18
-6.42
-6.99
-7.98
-9.42
-11.17
-13.05
-14.84
-16.31
-17.31
-17.75
-17.65
-17.21
-16.75
-16.76
-17.76
-20.09
-23.73
-28.17
-32.54
-35.86
-37.29
-36.39
-33.16
-27.95
-21.38
-14.26
-7.58
-2.31
0.8
1.53
0.41
-1.48
-2.68
-1.9
1.56
7.67
15.62
24.02
31.16
35.46
35.91
32.45
26.02
18.27
11.06
5.9
3.53
3.87
6.19
9.43
12.47
14.32
14.24
11.86
7.19
0.64
-6.99
-14.77
-21.82
-27.52
-31.66
-34.4
-36.12
-37.36
-38.53
-39.86
-41.41
-43.07
-44.75
-46.34
-47.76
-48.82
-49.28
-48.83
-47.22
-44.37
-40.4
-35.61
-30.37
-25.02
-19.79
-14.86
-10.31
-6.16
-2.3
1.5
5.51
9.98
14.96
20.35
25.89
31.3
36.42
41.17
45.5
49.35
52.72
55.69
58.39
60.78
62.47
62.69
60.54
55.46
47.65
38.17
28.51
19.86
12.44
5.47
-2.32
-11.67
-22.19
-32.21
-39.49
-42.13
-39.42
-32.05
-21.79
-10.86
-1.27
5.58
9.06
9.26
6.87
2.9
-1.52
-5.49
-8.58
-10.89
-12.79
-14.71
-16.93
-19.43
-22.07
-24.71
-27.27
-29.68
-31.8
-33.31
-33.74
-32.6
-29.57
-24.63
-18.08
-10.52
-2.6
5.14
12.44
19.21
25.45
31.05
35.66
38.76
39.85
38.61
35.09
29.73
23.26
16.48
10.1
4.62
0.3
-2.83
-4.95
-6.4
-7.6
-8.89
-10.46
-12.28
-14.1
-15.57
-16.3
-16.01
-14.54
-11.93
-8.34
-4.09
0.42
4.78
8.53
11.25
12.55
12.12
9.85
5.85
0.57
-5.26
-10.73
-14.96
-17.29
-17.58
-16.27
-14.37
-13.12
-13.56
-16.14
-20.54
-25.79
-30.62
-33.8
-34.41
-31.99
-26.54
-18.53
-8.85
1.31
10.66
18.11
22.96
24.98
24.34
21.37
16.54
10.41
3.75
-2.49
-7.28
-9.85
-9.84
-7.53
-3.63
0.9
5.2
8.79
11.57
13.74
15.54
17.07
18.21
18.72
18.45
17.45
16.14
15.03
14.63
15.18
16.62
18.61
20.64
22.2
22.82
22.25
20.42
17.58
14.33
11.53
10.13
10.71
13.15
16.43
18.9
18.75
14.83
7.1
-3.28
-14.49
-24.8
-33.32
-40.11
-45.79
-50.82
-54.89
-56.93
-55.5
-49.62
-39.3
-25.6
-10.31
4.8
18.38
29.75
38.7
45.3
49.71
52.11
52.83
52.24
50.75
48.76
46.6
44.49
42.54
40.72
38.77
36.37
33.21
29.18
24.46
19.39
14.36
9.57
4.97
0.4
-4.19
-8.69
-12.77
-16.1
-18.59
-20.49
-22.33
-24.63
-27.63
-31.05
-34.27
-36.56
-37.53
-37.26
-36.31
-35.4
-35.09
-35.56
-36.68
-38.19
-39.81
-41.23
-42.01
-41.54
-39.2
-34.57
-27.8
-19.59
-11.01
-3.04
3.74
9.22
13.55
16.92
19.3
20.56
20.65
19.8
18.55
17.54
17.25
17.85
19.17
20.8
22.2
22.88
22.48
20.94
18.7
16.71
16.23
18.24
22.94
29.49
36.28
41.5
43.86
42.99
39.4
34.2
28.6
23.58
19.61
16.53
13.53
9.46
3.28
-5.33
-15.67
-26.08
-34.55
-39.54
-40.56
-38.19
-33.73
