45.45
45.02
44.65
43.8
42
39.01
34.89
29.99
24.98
20.72
18.19
18.23
21.41
27.84
37.16
48.68
61.61
75.15
88.55
100.91
111.28
118.64
122.43
122.97
121.53
120.02
119.98
121.72
123.82
123.46
117.21
102.41
78.29
46.61
11.48
-21.5
-46.77
-60.29
-60.94
-50.99
-35.89
-22.91
-19.35
-30.6
-58.6
-101.04
-151.86
-202.86
-245.98
-275.63
-290.05
-291.32
-283.85
-272.43
-260.37
-248.9
-237.49
-224.89
-210.01
-192.43
-172.33
-150.17
-126.56
-102.33
-78.61
-56.85
-38.37
-24.05
-14
-7.55
-3.47
-0.3
3.31
8.34
15.17
23.58
32.66
41.21
48.04
52.54
54.86
55.79
56.33
57.09
58.08
58.72
58.3
56.34
53
48.94
44.99
41.67
38.93
36.25
32.81
28.05
21.85
14.65
7.19
0.27
-5.43
-9.46
-11.52
-11.41
-9.15
-4.93
0.75
7.23
13.87
20.12
25.58
29.91
32.73
33.68
32.61
30
26.98
25.27
26.6
31.95
41.01
52.2
63.27
72.34
78.74
83.39
88.27
95.3
105.15
116.69
127.22
133.73
134.4
129.64
122.28
116.48
116.03
122.83
136.17
152.7
167.43
175.05
171.35
154.45
125.6
89.43
53.06
23.98
7.47
4.43
10.69
18.53
19.92
10.03
-10.62
-36.37
-59.12
-71.92
-71.7
-60.14
-42.28
-23.84
-8.64
2.54
11.63
21.46
34
49.07
64.15
75.14
77.71
68.8
47.95
17.96
-15.55
-45.45
-65.46
-72.12
-65.98
-51.37
-35.01
-23.96
-23.74
-37.18
-63.79
-100.03
-140.11
-177.27
-205.46
-221.16
-224.23
-217.6
-205.89
-193.21
-181.72
-171.31
-160.46
-147.47
-131.46
-112.52
-91.13
-67.63
-42.08
-14.99
12.1
36.57
55.54
67.08
71.21
70.03
67.05
66.1
70.27
81.27
98.96
121.13
143.6
160.79
167.01
158.2
133.95
98.16
58.34
23.4
0.57
-6.94
-0.73
13.54
27.96
34.83
28.66
7.52
-26.61
-68.64
-111.84
-149.77
-177.89
-194.61
-200.88
-199.18
-192.1
-181.33
-167.68
-151.58
-133.81
-115.68
-98.67
-83.84
-71.48
-61.2
-52.42
-44.95
-39.04
-35.03
-32.95
-32.08
-30.95
-27.91
-21.89
-12.82
-1.82
9.23
18.45
24.59
27.45
27.77
26.77
25.61
24.95
24.84
24.83
24.37
23.05
20.86
18
14.82
11.59
8.54
5.78
3.36
1.27
-0.66
-2.64
-4.87
-7.29
-9.47
-10.43
-9
-4.18
4.36
15.99
29.21
42.06
52.68
59.76
62.86
62.32
59.15
54.78
50.79
48.78
49.99
54.77
62.19
69.75
73.99
71.46
60.16
40.5
15.37
-10.81
-33.73
-50.68
-61.28
-67.07
-70.32
-72.71
-74.73
-75.77
-74.96
-71.92
-67.02
-61.24
-55.51
-50.32
-45.66
-41.32
-37.14
-33.05
-28.67
-22.96
-14.35
-1.11
17.72
41.78
69.43
98.39
126.6
152.92
177.01
198.91
218.63
235.97
250.79
262.99
272.25
277.54
276.99
268.39
250.33
223.22
189.6
153.37
118.32
86.83
59.37
35.18
13.35
-6.14
-22.29
-33.6
-39.15
-39.23
-35.53
-30.6
-26.93
-26.18
-28.83
-34.37
-42.03
-51.28
-62.06
-74.4
-87.86
-100.92
-111.08
-115.46
-112.06
-101.12
-85.83
-71.77
-64.98
-69.35
-84.64
-106.23
-126.95
-140.18
-142.74
-135.89
-124.02
-112.09
-103.12
-97.23
-92.51
-86.89
-79.6
-71.52
-64.46
-59.85
-57.98
-57.91
-58.1
-57.2
-54.76
-51.25
-47.72
-45.13
-43.8
-43.32
-42.83
-41.49
-39.07
-35.96
-33.07
-31.27
-30.86
-31.44
-32
-31.37
-28.68
-23.75
-17.04
-9.54
-2.36
3.62
7.95
10.6
11.94
12.66
13.54
15.37
18.67
23.43
29.05
34.7
39.65
43.68
47.29
51.5
57.35
65.56
76.36
89.51
104.32
119.5
132.84
141.01
140.13
127.15
101.62
66.8
29.31
-3.02
-23.9
-30.87
-25.96
-14.31
-1.69
7.75
12.59
13.73
12.92
11.58
10.44
10
11.26
15.58
23.58
34
43.09
45.38
35.69
11.65
-24.48
-65.82
-102.85
-126.67
-132.02
-118.94
-92.38
-59.95
-29.1
-4.7
11.67
20.91
24.84
24.64
20.4
11.66
-1.24
-16.41
-30.6
-40.44
-44.03
-41.81
-36.34
-31.12
-28.83
-30.05
-33.21
-35.52
-34.55
-29.39
-21
-11.58
-3.16
3.47
9.09
15.34
23.74
34.9
48.23
62.13
74.15
81.52
81.6
72.35
53.24
26.03
-4.9
-33.33
-52.78
-58.62
-49.39
-27.12
3.62
37.76
71.62
103.73
134.28
163.28
188.8
206.44
210.66
197.67
168.38
129.14
89.85
60.12
45.58
46.32
57.86
74.13
90.06
102.96
111.76
115.66
113.2
102.4
81.94
52.34
16.72
-19.67
-50.83
-71.89
-80.64
-78.24
-68.83
-58.02
-50.87
-50.23
-56.2
-66.88
-79.78
-93.06
-105.95
-118.44
-130.55
-141.62
-150.34
-155.16
-154.94
-149.34
-139.09
-125.61
-110.61
-95.53
-81.33
-68.44
-57
-47.15
-39.12
-33.21
-29.48
-27.49
-26.25
-24.5
-21.28
-16.54
-11.35
-7.45
-6.42
-8.62
-12.71
-15.88
-14.8
-6.98
8.09
28.62
50.93
70.57
83.57
87.43
81.81
68.82
52.68
38.71
31.85
34.97
47.53
65.43
82.05
90.19
84.23
61.96
25.25
-20.37
-67.18
-107.33
-134.77
-146.66
-143.69
-129.42
-108.73
-86.2
-65.14
-47.35
-33.64
-24.44
-20.07
-20.52
-25.18
-32.54
-40.43
-46.73
-50.15
-50.53
-48.81
-46.5
-44.86
-44.3
-44.39
-44.15
-42.65
-39.55
-35.3
-30.92
-27.6
-26.14
-26.6
-28.38
-30.49
-32.05
-32.64
-32.42
-32.15
-32.82
-35.49
-40.79
-48.7
-58.32
-68
-75.59
-79
-76.8
-68.5
-54.68
-36.79
-16.79
3.26
21.49
36.61
48.21
56.82
63.68
70.19
77.45
85.72
94.55
103
109.96
114.64
116.53
115.37
110.83
102.39
89.34
71.12
47.97
21.24
-6.39
-31.51
-50.89
-62.51
-66.22
-63.81
-58.25
-52.7
-49.6
-50.14
-54.34
-61.25
-69.49
-77.73
-85.07
-91.2
-96.24
-100.53
-103.94
-105.8
-105.06
-100.66
-92.14
-79.84
-64.76
-48.15
-31.09
-14.11
2.61
19.02
34.99
50.4
65.42
80.73
97.33
115.81
135.72
155.08
170.93
180.5
182.49
178.03
170.54
164.5
163.7
169.87
182.1
197.12
210.24
216.42
211.55
193.65
163.87
126.75
89.45
59.56
42.34
38.6
44.1
51.17
51.73
40.51
17.02
-14.58
-47.54
-75.39
-94.22
-103.4
-104.93
-101.83
-96.68
-90.98
-85.17
-79.34
-73.83
-69.22
-66.11
-64.79
-65.09
-66.65
-69.47
-74.13
-81.62
-92.79
-107.41
-123.52
-137.51
-144.94
-142.09
-127.65
-103.43
-74.07
-45.46
-22.72
-8.57
-2.89
-3.25
-6.31
-9.19
-10.19
-8.84
-5.39
-0.29
6.21
13.88
22.48
31.54
40.25
47.83
53.79
58.17
61.52
64.71
68.35
72.73
77.72
82.92
88.03
93.07
98.42
104.86
113.52
125.64
142.25
163.66
188.77
214.89
237.97
253.34
257
246.72
222.88
188.66
149.54
112
81.85
62.38
53.29
50.63
48.1
39.3
20.06
-9.94
-47.23
-85.87
-119.72
-144.52
-158.94
-164.44
-164.13
-161.34
-158.55
-157.06
-157.16
-158.57
-160.9
-163.72
-166.58
-168.99
-170.56
-171.32
-171.83
-173.06
-175.77
-179.87
-184.01
-185.62
-181.65
-169.68
-148.89
-120.54
-87.63
-53.87
-22.43
4.88
27.76
47
63.71
78.89
93.18
107.02
120.76
134.58
148.46
162.18
175.61
188.91
202.65
217.31
232.37
245.68
253.55
251.69
236.78
208.1
167.91
120.96
72.98
29.01
-7.71
-35.98
-56.21
-69.59
-77.55
-81.68
-83.67
-85.27
-87.96
-92.4
-97.96
-102.88
-104.81
-101.88
-93.52
-80.79
-65.9
-51.45
-39.4
-30.64
-25.02
-21.76
-19.98
-19.05
-18.66
-18.53
-18.39
-17.8
-16.37
-13.95
-10.69
-7.07
-3.68
-1.09
0.38
0.64
-0.2
-1.83
-4.07
-6.71
-9.68
-12.9
-16.3
-19.65
-22.76
-25.41
-27.54
-29.35
-31.22
-33.6
-36.75
-40.46
-43.88
-45.7
-44.44
-38.97
-29.06
-15.52
-0.09
15.05
27.81
36.78
41.4
42.03
39.64
35.46
30.68
26.25
22.68
20.15
18.46
17.26
16.12
14.71
12.71
9.94
6.35
2.09
-2.39
-6.52
-9.6
-11.26
-11.56
-11.12
-10.87
-11.67
-13.99
-17.6
-21.85
-25.87
-29.02
-31.09
-32.31
-33.32
-34.86
-37.51
-41.51
-46.49
-51.54
-55.32
-56.33
-53.36
-46.01
-34.83
-21.27
-7.23
5.48
15.6
22.66
26.85
28.83
29.2
28.52
27.12
25.32
23.53
22.28
22.08
23.24
25.71
29.07
32.63
35.65
37.56
38.16
37.61
36.3
34.72
33.1
31.45
29.46
26.62
22.53
17.12
10.8
4.54
-0.48
-3.19
-3.15
-0.84
2.26
4.11
2.84
-2.38
-10.8
-20.13
-27.2
-28.92
-23.28
-9.9
9.77
32.74
55.06
72.47
81.39
79.89
68.36
49.69
28.32
8.99
-4.88
-11.97
-12.97
-9.79
-4.58
0.87
5.24
7.54
7.18
4.19
-0.49
-4.96
-6.81
-3.84
5.13
19.71
37.72
55.45
68.25
71.74
63.36
43.56
16.23
-12.6
-36.92
-53.17
-61.48
-65.24
-69.19
-77
-89.75
-105.81
-122.04
-135.37
-143.91
-147.25
-146.01
-141.27
-134.13
-125.55
-116.37
-107.43
-99.35
-92.52
-86.91
-82.12
-77.45
-72.07
-65.22
-56.39
-45.46
-32.62
-18.29
-2.99
12.85
28.78
44.33
58.79
71.28
80.88
86.92
89.54
90.07
91.06
95.36
104.83
118.99
134.59
146.3
148.56
138.14
115.74
86.45
58.01
38.17
31.86
39.56
57.31
78.3
95.05
101.3
93.61
71.78
38.79
-0.01
-38.22
-69.89
-91
-100.25
-99.34
-92.11
-83.24
-76.79
-75.18
-78.76
-86.06
-94.37
-100.69
-102.76
-99.81
-92.86
-84.39
-77.45
-74.54
-76.72
-83.37
-92.48
-101.45
-107.82
-110.01
-107.62
-101.25
-92.2
-81.98
-71.98
-63.23
-56.26
-51.11
-47.43
-44.56
-41.63
-37.65
-31.61
-22.72
-10.52
4.84
22.64
41.85
61.32
80.15
97.8
114.15
129.18
142.9
155.18
165.81
174.78
182.35
189.21
196.31
204.67
215.1
227.97
243.11
259.78
276.71
292.14
304.1
310.82
311.14
304.82
292.69
276.35
257.56
237.63
216.92
195.07
171.41
145.56
117.7
88.46
58.33
27.1
-6.02
-41.87
-80.27
-119.33
-155.52
-184.77
-204.05
-212.59
-212.15
-206.05
-197.66
-189.09
-180.87
-172.43
-163.14
-153.11
-143.35
-135.15
-129.11
-124.78
-120.69
-115.18
-107.19
-96.75
-84.84
-72.8
-61.65
-51.66
-42.52
-33.76
-25.2
-17.24
-10.57
-5.78
-2.85
-0.97
1.22
4.97
10.8
17.9
24.39
27.96
26.94
21.16
12.23
3.35
-1.75
0.08
10.15
27.23
47.53
65.45
75.24
73.03
58.63
35.93
11.95
-5.57
-10.92
-2.38
17.25
41.86
64
76.87
76.03
60.25
31.63
-4.98
-43
-75.77
-98.04
-107.17
-103.56
-90.17
-71.43
-52.07
-36.23
-26.77
-24.98
-30.49
-41.57
-55.64
-70.01
-82.55
-92.13
-98.58
-102.38
-104.21
-104.71
-104.44
-103.85
-103.4
-103.56
-104.91
-107.89
-112.6
-118.53
-124.33
-127.92
-126.93
-119.52
-105.17
-85.26
-62.76
-41.36
-24.06
-12.27
-5.25
-0.84
3.48
9.5
17.5
26.44
34.52
40.11
42.38
41.68
39.28
36.93
36.39
39.05
45.45
55
65.67
74.23
76.95
70.9
55.31
32.35
6.71
-15.92
-30.91
-36.28
-32.98
-23.91
-12.2
0.02
11.82
22.7
31.76
37.34
37.63
31.6
19.68
3.94
-12.58
-26.56
-35.3
-37.28
-32.65
-23.73
-14.98
-12.07
-19.9
-40.36
-70.93
-105.17
-135.09
-154.37
-160.71
-156.11
-145.11
-132.12
-119.43
-106.87
-93.23
-78.04
-62.64
-49.75
-41.96
-40.21
-43.24
-48.15
-51.86
-52.43
-49.86
-45.64
-41.86
-39.96
-40.01
-40.87
-40.8
-38.4
-33.36
-26.6
-19.75
-14.12
-9.83
-5.49
1.19
12.34
28.67
48.93
70.23
89.27
103.64
112.7
117.58
120.45
123.39
127.56
133.03
139.12
145.03
150.37
155.34
160.44
166.22
173
180.88
190.15
201.18
213.91
226.91
236.85
239.23
230.2
208.78
178.26
145.33
117.23
98.37
88.23
81.95
72.98
56.38
31.08
-0.12
-32
-58.97
-76.48
-81.88
-74.79
-57.57
-35.25
-14.59
-1.99
-0.84
-10.1
-24.69
-37.82
-44.16
-41.96
-33.25
-22.03
-12.13
-5.59
-2.66
-2.71
-5.24
-10.39
-18.46
-29.24
-41.46
-53.19
-62.49
-68.27
-70.77
-71.37
-71.98
-74.19
-78.47
-83.93
-88.81
-91.25
-90.05
-85.33
-78.34
-71.05
-65.27
-62.1
-61.54
-62.71
-64.07
-63.8
-60.28
-52.4
-39.88
-23.24
-3.65
17.29
38.09
57.6
75.19
90.69
104.11
115.4
124.24
129.99
131.92
129.4
122.3
111.12
96.96
81.18
65.14
49.83
35.94
23.9
14.11
6.81
1.95
-1.17
-3.9
-7.97
-15.01
-25.67
-39.14
-52.96
-63.61
-67.48
-62.18
-47.59
-26.27
-2.91
17.28
30.52
35.65
34.2
29.31
24.25
21.31
21.51
24.72
30.2
36.63
42.03
43.94
40.4
31.09
17.98
5
-3.62
-5.19
0.25
10.23
21.33
30.78
37.3
40.78
41.51
39.34
33.73
24.27
11.43
-3.08
-16.77
-27.35
-33.81
-36.85
-38.69
-41.99
-48.68
-58.98
-71.13
-82.07
-88.48
-87.99
-80.09
-66.57
-51.23
-39.18
-35.57
-44
-65.03
-95.2
-127.61
-153.81
-166.57
-162.33
-142.1
-110.72
-74.56
-39.37
-8.95
14.92
31.69
41.49
45.15
44.51
42.22
40.84
41.57
43.45
43.87
40.16
31.32
18.69
5.48
-4.94
-10.45
-10.85
-7.48
-2.1
3.88
9.61
14.48
17.84
18.99
17.69
14.46
10.53
7.41
6.06
6.23
6.42
4.54
-1.21
-11.29
-24.48
-38.14
-48.97
-54.1
-52
-42.99
-29.37
-15.06
-4.7
-2.2
-9.42
-25.15
-45.37
-64.62
-78.03
-82.98
-79.82
-71.24
-60.69
-51.11
-43.93
-39.29
-36.69
-35.54
-35.42
-35.94
-36.53
-36.22
-34.2
-30.01
-24.08
-17.71
-12.62
-10.46
-12.05
-17.1
-24.34
-32.1
-38.94
-44.18
-47.99
-50.91
-53.41
-55.33
-55.85
-53.75
-48.01
-38.29
-25.32
-10.64
3.88
16.56
26.5
33.64
38.62
42.25
45.25
47.97
50.33
52.09
53.15
53.78
54.69
56.87
61.36
68.81
79.26
91.91
105.24
117.43
126.8
132.33
133.98
132.5
129.21
125.49
122.38
120.57
120.33
121.65
124.28
127.81
131.73
135.5
138.35
139.19
136.49
128.76
115.2
96.5
75.13
54.77
39.14
30.6
29.35
33.43
39.57
44.18
44.2
37.56
23.57
3.3
-20.33
-42.99
-60.06
-68.19
-66.54
-56.78
-42.35
-26.81
-12.7
-1.22
7.4
13.24
16.33
16.77
15.25
13.24
12.58
14.56
19.02
24.37
28.18
28.05
22.58
11.68
-3.42
-20.42
-36.41
-48.57
-54.86
-54.98
-50.82
-46.26
-45.99
-53.45
-68.96
-89.06
-107.73
-118.78
-118.48
-106.94
-87.66
-65.84
-46.36
-32.32
-24.83
-23.65
-28
-37.05
-49.48
-63.16
-75.2
-82.73
-83.98
-79.16
-70.28
-60.5
-52.87
-49.3
-50.02
-53.84
-58.79
-63
-65.32
-65.45
-63.75
-60.82
-57.27
-53.42
-49.43
-45.43
-41.72
-38.64
-36.53
-35.41
-34.96
-34.37
-32.67
-28.95
-22.59
-13.5
-2.08
10.93
24.61
38.06
50.52
61.31
69.91
76.11
80.14
83.03
86.6
92.95
103.69
119.07
137.56
156.24
171.64
180.86
182.45
176.59
164.99
150.3
135.45
122.96
114.13
108.65
104.62
99.12
89.35
73.61
52.19
27.36
2.65
-18.21
-32.54
-39.37
-39.63
-35.69
-30.62
-26.92
-25.88
-27.38
-30.22
-33.04
-34.97
-35.98
-36.46
-36.6
-35.8
-32.73
-25.96
-15.07
-1.47
11.41
18.86
16.59
2.64
-21.24
-49.6
-75.01
-90.6
-92.92
-82.94
-65.42
-46.41
-30.67
-20.25
-14.73
-12.62
-12.62
-14.3
-17.14
-19.84
-19.91
-15.08
-5.12
7.01
15.83
15.73
3.32
-20.97
-53.05
-86.38
-114.3
-131.82
-136.52
-128.41
-109.13
-81.9
-51.12
-21.98
1.51
17.17
24.86
26.05
23.11
19.1
16.06
14.47
12.89
10.69
8.22
6.8
8.04
13.3
24.34
41.45
63.12
85.64
106.99
126.48
144.22
160.06
173.57
186.08
198.75
211.9
223.41
232.27
237.32
237.28
231.04
208.86
168.72
117.36
75.24
46.28
27.13
10.82
-6.06
-23.74
-39.84
-49.56
-50.35
-43.97
-37.21
-35.7
-42.53
-57.49
-78.08
-100.69
-120.76
-135.46
-144.15
-148.79
-150.15
-148.14
-142.55
-133.88
-123.38
-111.82
-100.53
-91.39
-86.98
-88.27
-94.57
-103.77
-113.29
-120.79
-124.62
-124.7
-122.52
-120.45
-120.08
-121.61
-123.85
-125
-123.11
-116.66
-105.11
-89.26
-71.29
-54.44
-42.45
-38.56
-44.33
-58.51
-77.01
-93.87
-103.14
-100.8
-85.89
-60.42
-28.28
6.12
39.08
68.01
91.46
108.85
120.23
126.16
127.59
125.88
122.62
119.21
116.25
112.9
106.91
95.45
76.59
50.6
20.45
-9.4
-34.68
-53.19
-65.34
-73.36
-79.58
-85.02
-89.05
-90.24
-87.66
-81.76
-74.2
-67.08
-61.94
-59.13
-57.84
-56.71
-54.57
-51.01
-46.47
-41.89
-38.13
-35.51
-33.68
-31.75
-28.75
-24.06
-17.43
-8.94
1.47
14.22
30.12
49.78
72.94
98.06
122.71
144.45
161.68
173.75
180.46
181.18
174.5
158.95
134.23
102.35
67.53
34.9
8.42
-10.49
-23.11
-32.09
-39.72
-46.78
-52.59
-56
-56.53
-54.93
-52.82
-51.89
-53.02
-55.79
-58.7
-59.95
-58.15
-52.98
-45.23
-36.43
-28.06
-21.05
-15.37
-10.3
-4.88
1.56
9.19
17.92
27.85
39.61
54.33
73.11
96.28
123
151.45
179.46
204.99
226.12
240.73
246.34
240.65
222.78
194.39
159.94
125.39
96.11
74.91
61.37
52.74
45.92
39.08
32.28
26.97
24.82
26.59
31.59
37.79
42.24
41.72
33.72
17.47
-5.45
-31.28
-55.29
-73.48
-84.11
-88.15
-88.74
-89.55
-93.41
-101.48
-113.44
-128.04
-143.75
-158.95
-171.83
-180.5
-183.27
-179.39
-169.57
-156.06
-141.98
-130.21
-122.56
-119.27
-119.19
-120.5
-121.52
-121.3
-119.82
-117.77
-116.02
-115.09
-114.69
-113.69
-110.59
-104.16
-93.96
-80.43
-64.7
-47.92
-31.02
-14.7
0.34
13.23
23.05
29.43
32.91
34.98
37.53
42
48.76
56.97
65.28
72.64
78.89
84.62
90.49
96.85
103.56
110.36
117.07
123.57
129.31
132.87
132.33
126.06
113.96
97.98
81.7
68.86
61.69
60.03
61.79
64.56
67.43
71.74
80.01
93.7
111.12
127.01
134.54
128.83
110.03
83.76
58.42
40.77
32.54
30
26.53
16.68
-0.95
-23.49
-45.79
-63.26
-73.57
-76.66
-73.95
-67.56
-60.2
-55.14
-55.77
-64.5
-81.42
-103.77
-126.78
-145.38
-156.01
-157.39
-150.12
-135.61
-115.21
-89.83
-60.4
-28.59
2.77
29.89
48.64
55.68
49.77
32.73
9.77
-11.53
-23.55
-21.46
-5.41
19.54
45.49
65.36
75.71
77.6
74.82
71.07
67.69
63.45
56.01
44.26
29.54
15.05
4.06
-1.98
-4.27
-5.91
-10.22
-19.05
-32.06
-47.15
-61.71
-73.81
-82.98
-90.06
-96.45
-103.31
-111.02
-119.28
-127.45
-135.11
-142.27
-149.2
-156.04
-162.16
-165.98
-165.21
-157.72
-142.54
-120.49
-94.2
-67.27
-43.12
-23.92
-10.17
-0.93
5.4
10.33
14.87
19.55
24.68
30.67
37.95
46.9
57.5
69.2
80.89
91.27
99.29
104.57
107.61
109.64
112.02
115.72
120.88
126.76
132.23
136.27
138.46
139.18
139.5
140.79
144.27
150.71
160.02
171.05
181.57
188.55
188.92
180.68
163.96
141.51
118.14
99.26
88.79
87.69
93.53
101.4
105.7
102.07
88.68
66.61
39.14
10.7
-14.33
-32.47
-41.79
-42.18
-35.26
-23.99
-11.86
-2.13
3.13
3.31
-0.72
-7.1
-13.72
-18.88
-21.75
-22.4
-21.7
-20.65
-19.98
-19.94
-20.26
-20.66
-21.3
-23.08
-27.34
-35.29
-47.45
-63.34
-81.57
-100.21
-117.12
-130.14
-137.13
-136.04
-125.38
-104.92
-76.37
-43.51
-11.44
14.95
32.56
40.87
41.62
37.39
30.21
20.97
9.77
-2.57
-13.82
-20.51
-19.62
-10.6
3.33
15.85
19.9
10.84
-11.04
-40.28
-68.24
-86.68
-90.92
-81.37
-62.76
-41.69
-23.85
-12.27
-7.42
-8.42
-14.41
-24.95
-39.5
-56.41
-72.42
-83.53
-86.36
-79.94
-66.16
-49.04
-33.16
-21.81
-15.9
-14.06
-13.91
-13.3
-11.45
-9.03
-7.58
-8.36
-11.53
-15.88
-19.26
-19.67
-16.14
-9.31
-1.2
5.64
9.2
8.89
5.73
1.63
-1.74
-3.79
-5.29
-7.58
-11.52
-16.58
-20.79
-21.49
-16.69
-5.98
9.23
26.29
42.24
54.45
60.77
59.51
49.84
32.49
10.4
-11.33
-26.92
-31.98
-25.53
-10.44
7.95
24.42
36.27
44.07
50.53
58.03
66.33
71.9
69.28
53.97
25.31
-12.23
-50.14
-78.83
-91.33
-85.69
-65.54
-38.51
-13.48
1.82
2.35
-13.45
-43.76
-83.84
-126.94
-165.72
-194.08
-208.74
-209.79
-200.23
-184.36
-166.51
-150.04
-137.12
-128.79
-125.2
-125.57
-128.33
-131.58
-133.54
-133.15
-130.28
-125.38
-119.01
-111.35
-102.04
-90.36
-75.76
-58.14
-38.17
-17.23
3.02
20.92
35.29
45.6
52.04
55.32
56.65
57.43
58.96
62.23
67.48
74.13
80.95
86.5
89.73
90.54
89.77
88.88
89.23
91.37
94.84
98.56
101.36
102.82
103.58
105.02
108.59
115
124.03
134.71
145.69
155.35
161.55
161.51
152.37
132.53
103.11
68.48
35.25
9.93
-3.57
-5.18
1.87
12.97
24.41
34.49
43.41
52.13
61.27
70.9
80.81
90.94
101.44
112.44
123.82
135.2
146.06
155.98
164.78
172.3
178.38
182.83
185.42
185.84
183.33
176.27
162.18
138.45
103.84
60.07
12.41
-31.57
-64.89
-84.13
-90.92
-90.96
-91.15
-96.67
-109.07
-126.55
-145.82
-163.76
-178.29
-187.94
-191.07
-185.72
-170.28
-144.62
-110.66
-72.02
-32.82
3.47
34.45
58.34
73.48
78.34
72.5
57.75
38.6
21.34
12.02
13.98
26.51
45.32
64.44
78.75
85.51
84.57
77.36
65.46
49.83
30.85
9.08
-14.39
-37.97
-60.12
-80.02
-97.69
-113.49
-127.46
-138.91
-146.74
-150.58
-151.81
-153.84
-161.07
-176.68
-200.39
-227.68
-250.77
-261.23
-253.08
-224.6
-178.4
-120.09
-56.59
4.93
57.47
94.58
111.54
106.89
83.76
49.57
13.91
-14.62
-31.04
-34.97
-29.34
-18.14
-4.61
9.58
23.82
37.6
50.19
60.85
69.31
76.03
82.12
89.1
98.64
111.94
128.85
146.96
161.44
166.27
156.55
131
93.21
50.52
11.16
-19.2
-39.39
-52.41
-63.03
-75.09
-89.69
-105.04
-117.8
-124.6
-123.17
-112.56
-93.18
-66.73
-36.25
-6.01
18.87
33.57
35.29
24.55
5.5
-15.28
-31.19
-37.99
-35.09
-25.2
-12.74
-1.65
5.77
9.05
8.76
5.73
0.66
-5.67
-12.1
-17.17
-19.56
-18.65
-14.94
-9.94
-5.52
-3.23
-3.68
-6.45
-10.39
-14.17
-16.96
-18.74
-20.22
-22.49
-26.44
-32.41
-40.12
-48.67
-56.73
-62.9
-66.01
-65.29
-60.6
-52.49
-41.99
-30.36
-18.81
-8.26
0.75
7.98
13.36
16.93
18.82
19.29
18.81
18.06
17.89
18.97
21.74
26.12
31.48
36.82
41.02
43.29
43.37
41.56
38.42
34.52
30.13
25.01
18.78
11.04
1.88
-7.95
-17.23
-24.75
-29.74
-32.37
-33.81
-35.85
-40.34
-48.33
-59.57
-72.3
-83.72
-90.71
-90.89
-83.2
-68.18
-47.64
-23.94
0.62
24.27
45.82
64.61
80.68
94.71
107.87
121.12
134.4
146.25
154.29
156.4
152.05
142.8
131.72
121.89
114.9
110.34
106.43
101.52
95.37
89.52
86.59
88.95
97.33
110.16
123.81
133.35
134.08
122.99
99.95
68.09
33.14
1.95
-19.4
-27.27
-21.38
-4.69
17.27
37.74
50.09
49.48
34.29
6.95
-26.66
-58.93
-83.06
-95.25
-95.66
-87.75
-76.47
-66.23
-59.66
-57.61
-59.8
-65.37
-73.35
-82.58
-91.54
-98.61
-102.41
-102.58
-99.81
-95.62
-91.67
-89.14
-88.25
-88.4
-88.5
-87.64
-85.52
-82.37
-78.9
-75.73
-73.3
-71.65
-70.57
-69.89
-69.6
-69.92
-71.03
-72.9
-74.88
-75.84
-74.28
-68.93
-59.25
-45.67
-29.45
-12.25
4.3
19.06
31.45
41.41
49.07
54.68
58.51
60.99
62.71
64.33
66.37
69.07
72.36
75.86
79.16
82.03
84.47
86.76
89.17
91.77
94.26
96.12
96.77
95.9
93.62
90.4
86.94
83.8
81.14
78.65
75.66
71.47
65.64
58.18
49.58
40.79
32.85
26.63
22.45
19.84
17.47
13.59
6.69
-3.67
-16.34
-28.81
-38.03
-41.68
-39.04
-31.38
-21.22
-11.22
-3.17
2.65
7.04
11.14
15.61
20.16
23.79
25.52
25.06
23.04
20.99
20.64
23.45
30.13
40.36
52.74
64.93
73.89
76.52
70.57
55.8
34.62
11.67
-7.54
-18.47
-19.11
-10.25
5.31
24.15
43.34
60.85
75.25
85.14
88.92
85.04
72.53
51.58
23.76
-7.97
-39.51
-66.06
-83.18
-88.01
-80.45
-63.47
-42.15
-22.04
-7.14
1.1
3.88
3.89
3.88
5.49
8.7
11.95
12.57
7.67
-4.77
-24.86
-50.22
-76.32
-98.11
-111.85
-116.73
-114.82
-109.87
-105.36
-103.1
-103.03
-104.13
-105.62
-107.82
-111.8
-118.58
-128.08
-138.99
-149.28
-157.2
-162.11
-164.58
-165.81
-166.6
-166.71
-164.72
-158.77
-147.66
-131.67
-112.78
-93.91
-77.85
-66.19
-58.97
-54.91
-52.32
-49.83
-46.93
-43.97
-41.62
-40.51
-40.7
-41.55
-41.9
-40.31
-35.49
-26.66
-14.13
0.82
15.98
28.88
37.59
41.4
41.16
38.85
36.97
37.5
41.4
48.44
57.52
67.29
76.54
84.47
90.73
95.47
99.2
102.88
107.53
113.97
122.43
132.38
142.84
152.88
162.32
171.83
182.75
196.19
212.33
229.92
246.49
258.99
264.75
262.54
252.95
238.49
222.96
210.48
204.19
205.23
212.26
221.7
228.83
229.2
220.27
202.35
178.45
153.21
131.15
115.14
105.56
100.8
98.26
95.65
91.7
85.86
77.66
65.93
48.84
24.61
-7.38
-45.84
-87.64
-128.73
-165.58
-196.08
-219.92
-238.12
-252.4
-264.58
-276.54
-289.99
-306.09
-324.69
-343.73
-359.49
-367.68
-365.16
-351.16
-327.49
-297.64
-265.23
-232.9
-202.01
-173.22
-146.99
-123.72
-103.49
-85.69
-69.05
-52.24
-34.69
-16.87
-0.04
14.67
27.22
38.93
52.01
68.46
88.99
112.22
135.02
153.29
163.21
162.34
150.4
129.5
103.76
78.44
58.46
46.81
43.32
44.5
44.8
39.18
25.52
5.83
-14.66
-30.02
-36.39
-33.51
-24.28
-12.82
-2.23
6.5
13.93
20.79
26.69
30.1
29.3
24.04
16.3
9.98
9.25
16.45
30.71
47.83
61.72
66.46
58.51
37.87
8
-25.52
-56.71
-80.89
-95.6
-100.73
-97.95
-89.71
-78.47
-66.18
-54.23
-43.56
-34.84
-28.22
-23.33
-19.55
-16.61
-15.26
-17.19
-24.17
-36.43
-51.64
-65.12
-71.72
-68.17
-54.5
-33.72
-10.09
12.74
32.49
47.63
56.52
57.27
48.62
31.49
9.59
-11.55
-26.59
-32.41
-28.99
-18.57
-4.09
12.33
30.06
49.47
70.89
93.63
115.44
132.81
141.93
140.34
127.94
107.47
83.34
60.07
40.69
26.21
16.04
9.07
4.42
1.1
-2.67
-10.14
-25.32
-51.26
-87.9
-131.19
-173.77
-207.5
-226.39
-228.52
-216.36
-195.28
-171.24
-148.88
-130.9
-118.12
-110.31
-106.84
-106.81
-108.98
-111.65
-112.82
-110.63
-103.98
-92.75
-77.81
-60.83
-43.69
-28
-14.74
-4.08
4.33
11.14
16.85
21.69
25.56
28.33
30
30.81
31.2
31.58
32.23
33.16
34.28
35.31
35.92
35.77
34.43
31.58
27.06
21.07
14.18
7.45
2.2
-0.2
1.41
7.53
17.84
31.19
45.89
60.14
72.59
82.54
90.02
95.54
99.84
103.59
107.24
111.03
115.08
119.44
124.3
130.09
137.39
146.67
157.92
170.57
183.6
195.71
205.68
212.3
214.44
211.09
201.73
186.69
167.49
146.42
125.8
107.25
91.06
76.31
61.37
44.63
25.05
2.65
-21.54
-45.72
-67.75
-85.86
-99.2
-108.06
-113.26
-115.4
-114.35
-109.44
-100.39
-88.03
-74.52
-62.41
-53.3
-46.99
-41.78
-35.52
-26.91
-15.85
-3.33
9.16
20.03
27.78
31.13
29.45
23.33
14.76
6.6
1.43
0.24
2.06
4.64
5.91
5.16
3.33
2.31
3.72
8.03
14.47
21.54
27.84
32.65
36.1
38.91
41.86
45.32
49.06
52.33
54.23
54.04
51.6
47.15
41.34
34.82
28.17
22.08
17.22
14.39
14.28
17.15
22.69
30.08
38.42
47.08
56.06
65.74
76.29
87.06
96.37
101.79
100.99
92.71
77.35
57.17
35.72
16.88
3.77
-2.13
-1.2
4.57
12.6
20.73
28.22
35.73
44.56
55.32
66.74
75.49
76.96
67.29
45.28
13.56
-21.74
-52.91
-73.19
-79.21
-72.18
-57.31
-41.9
-33.02
-35.46
-51.06
-79.02
-116.66
-160.25
-205.45
-247.41
-281.14
-302.36
-308.56
-299.87
-279.19
-251.28
-221.41
-193.84
-170.81
-152.44
-137.32
-123.52
-109.4
-94.21
-78.16
-62.2
-47.42
-34.38
-22.74
-11.33
1.17
15.38
30.53
44.72
55.69
62.08
64.27
64.4
65.26
68.99
75.92
84.47
91.98
96.07
95.62
91.11
84.03
76.05
68.37
61.66
56.27
52.57
50.88
50.96
51.49
49.93
43.01
28.24
5.42
-22.44
-49.59
-69.32
-76.37
-68.83
-48.77
-21.35
7
30.47
45.21
49.71
44.62
32.32
16.4
1.2
-9.14
-11.65
-5.62
7.01
21.94
33.54
36.54
27.83
8.09
-17.83
-41.83
-55.28
-52.23
-31.85
1.25
39.19
74.31
102.1
122.01
135.87
145.09
148.84
144.14
127.94
99.35
60.81
17.35
-25.22
-62.25
-91.13
-111.17
-122.72
-126.41
-122.88
-113.03
-98.49
-81.8
-66.26
-55.25
-51.2
-54.6
-63.71
-74.96
-84.31
-88.64
-86.87
-80.05
-70.58
-61.02
-53.23
-48
-45.16
-43.95
-43.28
-41.87
-38.52
-32.37
-23.23
-11.84
0.43
12.18
22.58
31.83
40.93
50.8
61.38
70.88
76
73.12
60.08
37.52
9.18
-19.24
-42.06
-55.55
-58.99
-54.27
-44.59
-32.95
-21.33
-10.61
-1.23
6.18
10.71
11.51
8.36
2.16
-5.29
-11.8
-15.52
-15.57
-12.33
-7.26
-2.23
1.2
2.47
2.01
0.95
0.52
1.44
3.53
5.91
7.39
7.22
5.37
2.59
-0.07
-1.71
-1.98
-1.18
0.02
0.91
1.09
0.53
-0.51
-1.68
-2.57
-2.75
-1.62
1.51
7.27
15.98
27.35
40.51
54.05
66.37
76.07
82.32
85.01
84.69
82.37
79.34
76.79
75.54
75.71
76.63
77.02
75.53
71.36
64.98
58.27
54.12
55.26
62.92
75.79
90.04
100.4
101.69
90.62
66.82
33.12
-5.06
-40.97
-68.1
-81.89
-81.11
-68.58
-50.79
-36.4
-33.5
-47
-76.7
-117.26
-159.93
-195.35
-216.3
-219.41
-205.4
-178.15
-143.09
-105.9
-71.43
-43.26
-23.45
-12.23
-7.94
-7.16
-5.54
1.15
15.3
36.29
60.1
80.08
89.1
82.1
58.4
22.29
-18.3
-54.87
-81.3
-95.86
-100.99
-101.31
-101.1
-102.47
-105.12
-107.43
-107.96
-106.43
-103.69
-100.98
-98.94
-97.26
-95.08
-91.67
-87.08
-82.21
-78.24
-75.83
-74.59
-72.91
-68.59
-59.88
-46.3
-29.02
-10.37
7.09
21.58
32.64
40.84
46.98
51.41
53.72
53.18
49.53
43.74
37.97
35.04
37.32
45.74
59.17
74.52
87.37
93.14
88.51
72.53
47.15
16.8
-12.79
-36.25
-49.98
-52.78
-45.68
-31.15
-12.09
9.12
31.03
52.94
73.94
91.93
103.12
102.75
86.99
55.26
11.73
-35.36
-76.41
-103.89
-114.85
-111.34
-98.39
-81.26
-63.36
-45.85
-28.9
-13.05
0.08
8.4
10.6
7.26
1
-4.5
-6.07
-2.42
5.34
14.32
21.29
24.06
22.44
18.07
13.43
10.6
10.22
11.38
12.21
11.04
7.36
2.31
-1.8
-2.52
1.58
10.13
21.06
31.58
39.41
43.82
45.96
48.45
54.45
66.71
86.53
113.16
143.44
172.06
192.52
199.13
189.28
165
132.93
102.11
80.63
72.49
76.19
85.6
92.64
90.45
75.51
48.27
12.03
-28.75
-70
-108.63
-142.45
-169.53
-188.04
-196.36
-193.91
-181.94
-163.64
-143.66
-126.59
-115.55
-111.15
-111.67
-113.98
-114.88
-112.29
-105.81
-96.7
-87.08
-79.16
-74.25
-72.32
-71.91
-70.69
-66.16
-56.55
-41.32
-21.33
1.58
25.16
47.55
67.6
85.02
99.97
112.67
123.02
130.76
135.81
138.62
140.48
143.19
148.48
157.22
169.07
182.43
195.18
205.27
211.2
212.22
208.25
200.05
189.15
177.54
167.03
158.44
151.15
143.38
133.06
118.94
101.18
81.14
60.54
40.78
22.49
5.88
-8.83
-21.19
-30.69
-36.94
-39.54
-37.8
-30.61
-17.2
1.77
23.28
42.07
52.06
48.71
31.07
2.53
-30.51
-61.22
-84.74
-99.52
-106.88
-109.44
-109.39
-107.53
-103.65
-97.49
-89.73
-82.07
-76.44
-73.9
-73.91
-74.47
-73.24
-68.82
-61.55
-53.33
-46.37
-42.19
-40.88
-41.09
-40.98
-39.06
-34.53
-27.32
-17.87
-7.22
2.61
8.53
7.31
-2.99
-21.46
-43.67
-62.88
-72.49
-68.61
-51.35
-24.24
7.75
40.13
69.72
93.91
109.62
113.07
101.28
74.42
37.4
-0.77
-30.09
-43.51
-39.9
-24.04
-3.94
13.18
23.92
29.62
34.5
42.75
55.84
71.75
85.61
91.79
86.15
67.65
39.12
6.56
-22.79
-42.85
-50.75
-47.58
-37.61
-26.08
-16.89
-10.96
-6.28
0.38
11.46
27.19
45.81
64.56
81.21
94.75
105.14
112.51
116.46
115.9
109.56
96.78
78.23
55.98
33.05
12.57
-3
-12.65
-16.76
-16.83
-14.55
-10.97
-6.32
-0.51
5.93
10.94
10.87
1.7
-19.05
-50.69
-88.73
-126.01
-154.91
-169.75
-168.4
-152.68
-127.69
-100.54
-79.17
-70.97
-81.29
-111.54
-158.12
-212.39
-262.75
-298.09
-311.43
-302.09
-275.26
-239.48
-203.17
-172.06
-148.23
-130.89
-118.05
-108.1
-100.36
-94.81
-91.47
-89.74
-88.39
-85.86
-81.07
-73.94
-65.5
-57.28
-50.46
-45.03
-39.84
-33.18
-23.67
-11.11
3.39
17.9
30.41
39.87
46.41
51.23
55.91
61.62
68.57
75.89
82.09
85.76
86.3
84.19
80.82
77.85
76.46
76.73
77.72
78
76.6
73.67
70.57
69.43
72.16
79.87
92.48
109.01
127.64
145.98
160.91
168.56
165.17
148.64
120.22
85.02
50.74
24.89
11.71
10.51
16.28
22.32
23.34
17.39
5.96
-7.75
-20.93
-32.36
-42.22
-51.13
-59.03
-64.96
-67.62
-66.32
-61.67
-55.52
-50.29
-47.77
-48.4
-50.89
-52.98
-52.39
-47.77
-39.1
-27.44
-14.2
-0.27
14.35
30.43
48.94
70.49
94.95
121.36
148.06
172.79
192.88
205.68
209.35
203.7
190.79
174.8
160.66
152.24
150.64
153.67
156.8
154.97
144.53
124.6
97.32
67.11
39.29
18.43
6.91
4.21
6.91
9.77
7.43
-3.89
-25.29
-55.11
-89.77
-125.07
-157.33
-184.22
-204.93
-219.85
-230.2
-237.33
-242.27
-245.34
-246.15
-243.81
-237.43
-226.51
-211.21
-192.38
-171.31
-149.59
-128.8
-110.29
-94.87
-82.68
-73.09
-64.98
-57.13
-48.53
-38.61
-27.27
-14.74
-1.57
11.63
24.17
35.48
45.2
53.27
59.92
65.49
70.32
74.46
77.85
80.37
81.98
82.94
83.62
84.48
85.91
88.08
90.91
94.04
96.87
98.81
99.6
99.71
100.51
103.89
111.48
123.78
139.93
158.03
176.07
192.8
207.73
220.53
230.1
234.17
230.13
216.4
193.72
165.23
135.31
107.78
84.76
66.83
54.19
47.82
49.32
59.34
75.73
93.05
104.05
102.98
88.69
65.75
42.71
28.19
27.28
39.7
60.62
83.2
101.45
111.73
112.62
104.06
86.56
61.45
31.29
0.01
-28.04
-49.68
-64.47
-74.97
-85.33
-98.94
-116.35
-134.88
-150.16
-158.56
-158.84
-152.3
-141.34
-127.54
-110.94
-90.6
-66.26
-39.52
-13.53
8.49
24.89
36.28
44.67
51.8
57.98
62.03
62.46
58.7
51.36
41.63
30.41
17.86
4.08
-9.83
-21.39
-27.23
-24.83
-14.29
1.01
15.29
22.2
16.94
-2.27
-33.75
-72.94
-113.53
-149
-174.09
-185.71
-183.45
-169.35
-146.93
-120.18
-92.62
-66.72
-43.61
-23.24
-4.84
12.13
27.01
37.65
40.67
32.75
12.41
-18.34
-53.48
-84.19
-101.5
-99.39
-77.1
-39.74
3.14
40.27
62.01
62.99
43.41
8.35
-34.16
-75.82
-110.37
-134.67
-148.58
-153.86
-153.03
-148.49
-142.25
-136.17
-132.18
-132.05
-136.8
-146.02
-157.81
-169.23
-177.16
-179.25
-174.54
-163.57
-148.05
-130.17
-111.98
-94.97
-80
-67.51
-57.76
-50.82
-46.41
-43.71
-41.09
-36.49
-28.01
-14.56
3.62
24.97
47.13
67.7
85.06
98.88
109.96
119.7
129.24
138.79
147.65
154.61
158.8
159.98
158.47
154.65
148.59
140.31
130.25
119.85
111.19
106.22
105.79
109.18
114.59
120.23
125.4
130.6
136.95
145.11
154.5
163.47
169.9
172.18
169.69
162.89
152.88
140.87
127.89
114.54
101.27
88.27
75.59
62.69
48.22
30.07
6.01
-25.24
-63.18
-105.01
-146.56
-183.41
-212.46
-232.68
-245.01
-251.35
-253.53
-252.55
-248.52
-241.21
-230.66
-217.58
-203.28
-189.33
-177.05
-167.11
-159.36
-152.81
-145.85
-136.73
-124.05
-107.24
-86.76
-64.1
-41.25
-20.15
-2.18
12.15
23.04
31.08
36.92
41.09
44.04
46.32
48.57
51.46
55.33
59.91
64.29
67.24
67.72
65.38
60.79
55.2
50
46.07
43.29
40.6
36.56
30.09
21.1
10.64
0.54
-7.44
-12.19
-13.84
-13.51
-12.85
-13.41
-16.16
-21.22
-27.82
-34.27
-38.03
-36.18
-26.28
-7.58
17.88
45.17
67.32
77.42
71.07
48.19
13.2
-26.31
-61.97
-87.06
-97.95
-94.33
-78.53
-54.46
-26.63
0.4
22.8
38.08
45.75
47.48
46.61
47.02
51.79
61.77
75.07
87.56
94.21
90.68
74.77
47.03
10.62
-29.55
-68.03
-100
-122.17
-133.39
-134.72
-129.08
-120.44
-112.83
-109.1
-110.14
-114.72
-120.12
-123.4
-122.44
-116.32
-105.28
-90.17
-71.95
-51.59
-30.14
-8.88
10.84
28.1
42.74
54.96
65.02
72.64
77.11
77.95
75.64
71.96
69.48
70.37
75.33
83.35
92.32
100.2
105.87
109.19
110.42
109.58
106.14
99.41
89.29
76.75
63.73
52.66
45.6
43.5
45.78
50.19
53.1
50.31
38.28
15.49
-16.42
-52.72
-86.75
-112.07
-124.7
-124.37
-114.12
-98.88
-83.53
-71.56
-64.77
-63.67
-68.05
-77.23
-89.72
-103.04
-113.94
-119.29
-117.28
-108.12
-94.12
-78.58
-64.58
-53.78
-46.02
-39.76
-33.09
-24.61
-13.97
-1.96
10.15
21.03
29.86
36.32
40.53
42.79
43.43
42.77
41.12
38.77
35.9
32.57
28.71
24.31
19.8
16.17
14.79
16.94
23.32
33.59
46.49
60.27
73.2
84.16
92.66
98.86
103.14
105.98
107.81
109.07
110.31
112.02
114.73
118.65
123.75
129.66
135.92
142.18
148.35
154.6
161.17
168.1
175.03
181.29
186.12
189.01
190.06
190.01
190.08
191.56
195.46
201.9
210.14
218.77
226.08
230.59
231.33
227.98
220.72
210.02
196.42
180.52
163.06
144.87
126.78
109.39
92.88
76.78
60.05
41.04
17.74
-11.82
-48.78
-92.69
-140.78
-188.02
-228.07
-254.73
-263.73
-254.13
-228.68
-193.37
-156.11
-124.8
-105.42
-100.38
-107.86
-122.51
-137.32
-146.08
-145.54
-136.04
-120.77
-103.78
-88.13
-75.06
-64.47
-56.17
-51.05
-51.07
-58.28
-73.42
-95.1
-120.05
-144.42
-165.25
-181.25
-192.7
-200.47
-205.04
-205.92
-202.03
-192.45
-177.03
-156.58
-132.61
-106.72
-80.19
-53.77
-27.94
-3.25
19.29
38.12
51.41
57.93
57.99
53.93
49.87
50.24
58.2
74.3
96.49
121.1
144.56
164.52
180.13
191.26
197.27
196.53
186.7
166.13
135.14
96.7
55.66
17.29
-14.67
-39.1
-57.38
-72.24
-86.03
-99.63
-112.25
-122.33
-128.61
-131.01
-130.47
-128.41
-125.88
-123.1
-119.49
-114.14
-106.34
-96.01
-83.7
-70.53
-57.87
-47.09
-39.23
-34.64
-32.78
-32.03
-30.07
-24.52
-13.73
2.77
24.04
48.26
73.21
96.83
117.57
134.47
147.33
156.94
165.1
174.17
185.82
199.61
212.2
217.95
210.84
187.25
147.77
97.43
43.99
-4.8
-43.59
-70.41
-86.26
-93.7
-95.4
-93.3
-88.55
-81.61
-72.63
-61.49
-47.83
-31.23
-11.74
9.69
30.8
48.32
58.87
60.26
52.52
38.15
21.2
5.93
-4.76
-10.11
-11.28
-10.42
-9.59
-9.97
-11.69
-14.37
-17.41
-20.47
-23.42
-26.22
-28.74
-30.76
-32.12
-32.86
-33.46
-34.59
-36.97
-41.01
-46.57
-52.99
-59.48
-65.47
-70.86
-75.98
-81.12
-86.23
-90.65
-93.15
-92.45
-87.73
-79.04
-67.39
-54.44
-41.96
-31.31
-23.22
-17.73
-14.41
-12.7
-12.11
-12.23
-12.75
-13.35
-13.65
-13.4
-12.37
-10.61
-8.34
-6
-3.98
-2.56
-1.82
-1.59
-1.65
-1.83
-2.24
-3.21
-5.18
-8.31
-12.45
-16.99
-21.13
-24.18
-25.84
-26.34
-26.32
-26.68
-28.13
-31.2
-35.82
-41.34
-46.58
-50.06
-50.43
-46.91
-39.66
-29.68
-18.53
-7.84
1.31
8.41
13.5
16.88
18.92
19.88
20.08
19.91
19.88
20.53
22.09
24.43
27.06
29.36
30.83
31.23
30.73
29.6
28.2
26.65
24.96
22.96
20.48
17.44
13.92
10.2
6.58
3.42
0.95
-0.84
-2.23
-3.78
-6.12
-9.8
-14.98
-21.38
-28.17
-34.02
-37.61
-37.84
-34.32
-27.41
-18.25
-8.28
1.02
8.56
13.79
16.67
17.55
16.91
15.29
13.21
11.18
9.67
8.99
9.23
10.22
11.59
12.86
13.69
13.93
13.68
13.15
12.49
11.7
10.59
9.02
6.9
4.32
1.55
-1.07
-3.28
-4.95
-6.12
-7.04
-8.1
-9.78
-12.5
-16.42
-21.31
-26.42
-30.57
-32.5
-31.15
-26.11
-17.76
-7.17
4.15
14.67
23.26
29.28
32.64
33.56
32.52
30.02
26.58
22.81
19.26
16.48
14.81
14.27
14.61
15.34
15.95
16
15.2
13.42
10.66
7.02
2.68
-2.06
-6.88
-11.44
-15.49
-18.98
-22
-24.82
-27.79
-31.22
-35.27
-39.72
-43.92
-46.85
-47.37
-44.6
-38.23
-28.77
-17.35
-5.48
5.46
14.57
21.51
26.38
29.48
31.1
31.47
30.84
29.58
28.17
27.16
26.95
27.71
29.24
31.13
32.85
33.92
33.99
32.91
30.67
27.4
23.33
18.71
13.78
8.79
3.96
-0.55
-4.7
-8.63
-12.65
-17.1
-22.11
-27.44
-32.33
-35.68
-36.37
-33.67
-27.53
-18.66
-8.31
2.13
11.5
19.11
24.75
28.54
30.76
31.75
31.89
31.57
31.2
31.1
31.41
32.05
32.82
33.52
34.05
34.37
34.45
34.19
33.33
31.63
28.95
25.3
20.87
15.94
10.76
5.57
0.5
-4.4
-9.18
-13.97
-19.02
-24.6
-30.82
-37.43
-43.64
-48.13
-49.5
-46.64
-39.29
-28.27
-15.19
-2.05
9.5
18.59
25.14
29.51
32.2
33.53
33.64
32.79
31.39
30.03
29.32
29.63
30.85
32.56
34.14
35.03
34.97
34
32.38
30.44
28.38
26.16
23.58
20.36
16.33
11.63
6.62
1.89
-2.1
-5.2
-7.57
-9.7
-12.2
-15.62
-20.2
-25.89
-32.13
-37.98
-42.2
-43.53
-41.12
-34.84
-25.38
-14.08
-2.51
7.98
16.53
22.79
26.88
29.07
29.68
29.07
27.67
26
24.59
23.89
24.11
25.15
26.7
28.27
29.4
29.74
29.18
27.79
25.79
23.36
20.58
17.38
13.56
9
3.74
-1.87
-7.31
-12.04
-15.77
-18.52
-20.76
-23.13
-26.24
-30.55
-36.17
-42.87
-50.01
-56.52
-61.07
-62.28
-59.11
-51.28
-39.38
-24.8
-9.35
5.25
17.71
27.39
34.14
38.17
39.81
39.42
37.42
34.38
31.03
28.18
26.48
26.2
27.14
28.7
30.05
30.5
29.8
28.12
25.97
23.82
21.9
20.08
18.02
15.3
11.76
7.5
2.94
-1.42
-5.19
-8.16
-10.41
-12.27
-14.14
-16.56
-19.93
-24.54
-30.28
-36.58
-42.38
-46.32
-47.08
-43.84
-36.57
-26.15
-14.13
-2.22
8.14
16.18
21.77
25.21
26.94
27.36
26.77
25.48
23.9
22.55
21.95
22.4
23.86
25.95
28.14
29.9
30.94
31.17
30.65
29.5
27.66
25.04
21.49
17.06
12
6.69
1.45
-3.6
-8.59
-13.85
-19.74
-26.47
-34.04
-42.17
-50.14
-56.76
-60.57
-60.13
-54.62
-44.25
-30.45
-15.47
-1.8
8.4
13.81
13.95
9.12
0.21
-11.43
-24.03
-35.66
-44.36
-48.77
-48.2
-42.9
-33.7
-21.79
-8.39
5.47
18.91
31.33
42.33
51.93
60.6
69.32
79.27
91.49
106.45
123.69
142.01
159.94
176.26
190.49
203.01
214.7
226.34
238.25
250.27
262.15
273.84
285.35
296.29
305.27
309.88
307.28
295.36
273.51
243.1
206.88
168.12
129.76
94.07
62.88
37.73
19.82
9.39
5.38
5.18
5.24
2.29
-5.58
-18.2
-33.54
-48.83
-62.09
-73.13
-83.66
-96.3
-112.96
-133.44
-155.21
-174.38
-187.56
-193.48
-193.74
-192.04
-192.49
-197.65
-207.55
-219.92
-231.55
-239.95
-244.5
-246.79
-249.69
-256.13
-267.83
-284.88
-305.99
-329.23
-352.74
-375.04
-394.82
-410.55
-420.39
-422.52
-415.83
-400.39
-377.7
-350.08
-320.03
-289.34
-258.81
-228.46
-198.02
-167.27
-136.35
-105.77
-76.19
-48.41
-23.19
-1.27
16.78
30.64
40.39
46.57
50.04
51.84
52.9
53.85
54.87
55.81
56.33
56.06
54.76
52.33
48.87
44.59
39.97
35.78
33.13
33.18
36.81
44.18
54.56
66.51
78.25
88.21
95.34
99.23
100.01
98.13
94.23
89.15
83.84
79.28
76.32
75.43
76.55
79.12
82.23
84.96
86.64
86.96
85.93
83.72
80.45
76.08
70.55
63.89
56.38
48.47
40.71
33.59
27.37
22.08
17.55
13.46
9.33
4.58
-1.35
-8.68
-17.13
-25.71
-32.95
-37.28
-37.56
-33.44
-25.44
-14.82
-3.1
8.25
18.15
25.95
31.35
34.38
35.27
34.51
32.77
30.88
29.59
29.41
30.45
32.45
35.01
37.71
40.24
42.42
44.05
44.92
44.75
43.29
40.41
36.2
30.83
24.66
18.01
11.29
4.83
-1.08
-6.39
-11.31
-16.28
-21.82
-28.07
-34.63
-40.43
-44.02
-43.97
-39.46
-30.6
-18.46
-4.8
8.59
20.18
29.05
34.96
38.1
38.99
38.19
36.33
34.02
31.97
30.75
30.84
32.35
35.06
38.45
41.86
44.69
46.5
47.11
46.48
44.68
41.83
38.12
33.84
29.35
25.01
21.07
17.51
14.04
10.12
5.18
-1.2
-8.96
-17.51
-25.65
-31.85
-34.61
-32.9
-26.58
-16.54
-4.49
7.55
17.72
24.93
28.94
30.24
29.69
28.1
26.05
23.82
21.53
19.23
17.07
15.26
14.05
13.74
14.49
16.23
18.6
20.87
22.08
21.45
18.78
14.67
10.48
7.98
8.68
13.43
22.01
33.26
45.49
57.12
67.16
75.66
83.69
93.27
106.73
125.68
149.92
177
202.54
221.47
229.78
225.97
211.65
190.92
168.79
149.5
135.28
126.12
120.11
114.7
107.41
96.41
80.68
59.93
34.28
3.98
-30.72
-69.21
-109.76
-149.29
-183.77
-209.47
-224.65
-230.48
-230.9
-231.08
-235.16
-244.46
-257.38
-270.51
-280.52
-285.69
-286.07
-282.75
-276.56
-267.31
-253.92
-235.14
-210.52
-180.58
-147.01
-111.96
-77.64
-46
-18.8
2.56
17.51
26.69
32.29
37.47
45.55
58.69
77.24
99.82
124.03
147.2
166.83
180.64
186.6
183.37
170.86
150.79
126.57
102.58
82.84
69.78
63.71
62.66
62.99
60.23
50.51
32
6.05
-22.82
-48.25
-64.31
-67.87
-59.79
-44.18
-26.34
-10.4
1.95
11.34
19.56
28.26
38.25
49.46
60.92
70.92
76.9
75.89
65.69
46.53
22.03
-1.31
-16.15
-17.17
-3.17
22.23
51.88
77.39
91.57
90.14
72.63
42.27
4.95
-32.29
-63.32
-84.36
-94.73
-96.3
-92.16
-85.06
-76.81
-68.46
-61.03
-55.89
-54.49
-57.47
-64.11
-72.31
-79.33
-82.63
-80.57
-72.45
-58.63
-40.37
-19.85
0.26
17.44
30.23
38.96
45.34
51.31
57.46
62.25
62.83
56.75
43.71
26.35
9.33
-2.54
-6.09
-0.71
12.03
29.14
46.9
61.33
68.77
66.71
55.06
36.7
16.88
1.22
-6.74
-7.04
-2.97
0.94
1.23
-3.15
-11.01
-20.37
-29.79
-38.91
-47.92
-56.64
-64.11
-69.12
-70.83
-69.14
-64.37
-56.79
-46.44
-33.46
-18.81
-4.49
6.83
12.86
12.63
6.76
-3.1
-15.31
-28.86
-43.39
-58.55
-73.42
-86.35
-95.54
-99.83
-99.38
-95.8
-91.5
-88.65
-88.45
-90.59
-93.45
-95.05
-93.91
-89.84
-84.14
-79
-76.63
-78.22
-83.32
-89.83
-94.63
-94.62
-87.72
-73.55
-53.34
-29.46
-4.62
18.89
39.5
56.43
69.47
78.73
84.48
87.23
87.76
86.99
85.93
85.29
85.33
85.8
86.17
85.89
84.67
82.55
79.79
76.71
73.46
69.96
65.91
61.03
55.14
48.35
41
33.58
26.64
20.46
14.99
9.75
3.99
-2.99
-11.56
-21.41
-31.4
-39.82
-44.74
-44.67
-39.12
-28.71
-15.05
-0.26
13.76
25.72
35.03
41.71
46
48.16
48.48
47.28
45.14
42.8
41.04
40.41
41.06
42.64
44.53
46.06
46.78
46.57
45.62
44.18
42.37
40.08
37
32.78
27.36
20.99
14.21
7.66
1.75
-3.46
-8.19
-12.9
-18.13
-24.18
-31.19
-38.92
-46.71
-53.53
-58.05
-58.95
-55.36
-47.2
-35.27
-21.11
-6.55
6.86
18.1
26.82
33.17
37.53
40.22
41.5
41.57
40.75
39.57
38.64
38.49
39.38
41.18
43.31
44.98
45.45
44.33
41.74
38.19
34.33
30.59
27.03
23.26
18.8
13.34
6.95
0.08
-6.72
-13.1
-19.03
-24.85
-31.05
-38.02
-45.89
-54.46
-63.2
-71.36
-77.93
-81.71
-81.43
-76.04
-65.16
-49.35
-30.22
-10.13
8.38
23.31
33.56
39.16
40.87
39.85
37.23
34.03
31.15
29.47
29.74
32.39
37.33
43.89
51.13
58.05
64
68.82
72.71
75.95
78.69
80.92
82.64
84.1
85.68
87.79
90.71
94.39
98.5
102.71
106.89
111.22
116.15
122.17
129.52
138.27
148.13
158.43
168.02
175.15
177.98
175.09
166.24
152.64
136.77
121.39
108.7
99.59
93.5
88.93
84.01
77
66.58
52.3
34.78
16
-1.1
-13.77
-20.63
-22.52
-22.3
-23.56
-28.94
-39.23
-53.27
-68.96
-84.62
-99.59
-113.99
-128.04
-141.29
-152.69
-161.19
-166.5
-169.34
-171.35
-174.14
-178.45
-183.64
-187.86
-188.73
-184.44
-174.35
-159.25
-141.02
-121.88
-103.64
-87.3
-73.05
-60.57
-49.62
-40.14
-32.32
-26.43
-22.39
-19.73
-17.64
-15.2
-11.65
-6.73
-0.61
6.14
12.73
18.36
22.43
24.69
25.27
24.69
23.67
22.9
22.89
23.54
24.35
24.54
23.32
20.33
15.72
10.07
4.27
-0.57
-3.49
-3.85
-1.72
1.81
4.72
4.71
0.23
-8.56
-19.37
-28.53
-32.35
-28.67
-17.68
-1.72
15.76
31.45
43.04
49.54
50.9
47.72
40.93
31.81
21.95
13.05
6.49
2.9
1.9
2.29
2.49
1.21
-2.18
-7.41
-13.63
-19.81
-25.19
-29.45
-32.66
-35.02
-36.64
-37.57
-37.77
-37.4
-36.83
-36.6
-37.29
-39.34
-42.77
-47.05
-51.08
-53.3
-52.14
-46.61
-36.66
-23.38
-8.66
5.35
16.98
25.4
30.67
33.32
33.84
32.36
28.68
22.66
14.52
5.17
-4.11
-11.98
-17.75
-21.73
-25.16
-29.9
-37.5
-48.49
-61.98
-75.68
-86.57
-91.83
-89.77
-80.41
-65.6
-48.47
-32.75
-22.11
-19.12
-24.52
-36.36
-49.99
-59.22
-58.47
-45.15
-21.1
8.03
35.25
55.31
66.73
71.45
72.83
72.97
71.46
66.03
54.8
38.43
20.64
6.82
1.55
6.45
19.82
37.66
55.79
71.23
82.59
89.05
89.29
81.23
63.21
35.71
2.52
-29.84
-54.4
-66.63
-66.29
-57.36
-46.02
-37.85
-35.83
-39.93
-48.03
-57.6
-66.95
-75.55
-83.58
-91.15
-97.9
-103.09
-106.08
-106.73
-105.76
-104.57
-104.65
-106.91
-111.06
-115.56
-118.16
-116.63
-109.55
-96.88
-79.92
-60.76
-41.58
-24.08
-9.13
3.07
12.64
19.72
24.24
26.16
25.72
23.69
21.22
19.65
19.92
22.37
26.54
31.29
35.29
37.37
36.89
33.85
28.81
22.53
15.74
8.82
1.78
-5.5
-13
-20.41
-27.14
-32.61
-36.55
-39.25
-41.42
-44
-47.69
-52.69
-58.55
-64.45
-69.35
-72.18
-72.09
-68.53
-61.36
-51.03
-38.4
-24.57
-10.73
2.16
13.5
22.92
30.26
35.47
38.66
40.21
40.85
41.41
42.71
45.25
48.97
53.42
57.89
61.67
64.27
65.49
65.36
64.07
61.87
58.85
55.15
50.89
46.25
41.55
37.16
33.36
30.22
27.46
24.47
20.58
15.28
8.48
0.69
-6.99
-13.18
-16.45
-15.79
-10.93
-2.3
8.96
21.38
33.56
44.53
53.76
61.1
66.46
69.65
70.62
69.7
68
67.34
69.59
75.83
85.7
97.39
108.43
116.94
122.42
125.74
128.5
132.01
136.95
143.44
151.25
159.7
167.26
171.11
167.49
153.13
126.91
90.97
50.18
10.26
-24.62
-53.2
-76.79
-97.49
-116.16
-131.48
-140.46
-140.08
-128.91
-107.93
-80.09
-49.3
-18.92
9.04
34.1
56.96
78.62
99.58
119.43
136.86
150.14
157.97
159.95
156.5
148.29
135.52
117.67
94.06
64.9
32.12
-0.6
-28.85
-49.18
-60.45
-64.3
-64.42
-64.92
-68.83
-77.12
-88.75
-101.17
-111.34
-116.59
-115.4
-107.96
-96.22
-83.63
-74.31
-71.95
-78.53
-93.29
-112.49
-130.3
-140.61
-139.02
-124.31
-98.7
-66.91
-34.44
-5.99
15.62
29.46
36.04
36.56
32.44
25.12
16.17
7.19
-0.38
-5.6
-8.24
-8.81
-8.43
-8.29
-9.29
-11.63
-14.88
-18.47
-22.09
-25.77
-29.82
-34.46
-39.62
-44.98
-50.04
-54.4
-57.84
-60.13
-61.01
-60.14
-57.44
-53.42
-49.23
-46.4
-46.17
-49.03
-54.31
-60.55
-65.78
-67.99
-65.38
-56.57
-40.89
-18.97
6.72
31.98
51.51
60.59
57.07
42.51
21.96
2.01
-11.73
-16.74
-13.99
-6.96
0.47
5.83
8.56
9.53
9.73
9.37
7.81
4.15
-1.97
-9.98
-18.59
-26.42
-32.56
-36.88
-39.89
-42.39
-45.08
-48.21
-51.47
-54.16
-55.54
-55.15
-53.07
-50.04
-47.24
-46.02
-47.23
-50.83
-55.62
-59.41
-59.64
-54.24
-42.49
-25.41
-5.48
14.21
31
43.5
51.71
56.71
60.11
63.41
67.77
73.85
81.63
90.05
96.87
98.95
93.4
79.13
57.91
34.14
13.27
-0.32
-5.04
-2.47
3.84
10.1
13.73
13.82
10.6
4.64
-3.61
-13.71
-24.95
-36.15
-45.96
-53.41
-58.39
-61.67
-64.66
-68.79
-74.95
-83.04
-91.76
-98.95
-102.14
-99.35
-89.79
-74.24
-54.88
-34.58
-16.1
-1.1
10
17.92
23.87
28.87
33.35
37.25
40.29
42.39
43.98
45.76
48.41
52.22
56.86
61.48
65.12
67.09
67.16
65.61
62.97
59.75
56.29
52.72
49.1
45.48
41.97
38.64
35.42
32.04
28.19
23.62
18.35
12.72
7.11
1.87
-2.99
-7.77
-13.08
-19.61
-27.81
-37.59
-48.23
-58.33
-66.08
-69.7
-67.94
-60.59
-48.54
-33.58
-17.84
-3.24
8.87
17.82
23.56
26.45
27.13
26.52
25.6
25.33
26.3
28.55
31.61
34.67
36.93
37.97
37.95
37.45
37.26
38.1
40.52
44.98
51.77
61.06
72.51
85.16
97.44
107.61
114.43
117.56
117.45
114.88
110.37
104.09
96.4
88.36
82.01
79.43
81.49
86.59
90.54
88.06
75.29
52.27
23.68
-2.44
-17.88
-17.6
-1.6
25.44
56.36
84.4
105.3
117.64
121.65
117.83
106.44
87.91
63.9
37.81
14.09
-3.25
-12.11
-12.9
-8.12
-1.13
4.92
7.77
6.16
-0.4
-11.69
-26.74
-43.83
-60.67
-74.91
-84.86
-89.9
-90.73
-89.21
-88.02
-89.93
-96.97
-109.58
-126.14
-143.44
-157.42
-164.66
-163.5
-154.56
-140.21
-123.41
-106.44
-90.19
-74.37
-58.47
-42.8
-29.19
-20.36
-18.41
-22.99
-30.45
-34.65
-29.46
-11.58
17.59
52.31
85.01
109.32
122.51
125.69
122.23
115.53
107.71
99.28
90.19
80.63
71.23
62.87
56.12
50.7
45.52
39.05
30.01
18.15
4.62
-8.22
-17.68
-21.78
-20.13
-14.03
-5.82
1.99
7.28
8.28
3.04
-10.7
-34.74
-68.86
-109.41
-149.36
-180.23
-195.08
-191.35
-171.74
-142.87
-112.47
-86.55
-67.73
-55.66
-48.63
-45.08
-44.41
-46.65
-51.44
-57.53
-62.7
-64.64
-61.73
-53.78
-41.83
-27.74
-13.47
-0.51
10.38
19.1
26.06
31.93
37.48
43.54
50.8
59.6
69.48
78.92
85.41
85.93
77.89
60.33
34.88
5.59
-22.24
-43.86
-56.73
-61.29
-60.35
-57.5
-55.45
-55.05
-55.38
-54.8
-52.1
-47.12
-40.73
-34.15
-28.25
-23.22
-18.79
-14.7
-11
-8.18
-6.88
-7.43
-9.51
-12.11
-13.88
-13.8
-11.52
-7.52
-2.92
0.95
3.17
3.45
2.22
0.28
-1.56
-2.86
-3.69
-4.51
-5.91
-8.3
-11.67
-15.65
-19.64
-23.07
-25.69
-27.66
-29.46
-31.74
-35.12
-39.95
-46.19
-53.34
-60.38
-65.89
-68.32
-66.4
-59.56
-48.23
-33.73
-17.98
-2.88
10.11
20.29
27.52
32.11
34.41
34.78
33.6
31.38
28.76
26.39
24.74
23.91
23.57
23.18
22.16
20.16
17.16
13.44
9.36
5.2
1.07
-3.03
-7.21
-11.66
-16.53
-21.92
-27.61
-33.06
-37.39
-39.81
-39.98
-38.33
-36.1
-34.9
-36.16
-40.67
-48.42
-58.57
-69.69
-79.96
-87.25
-89.45
-84.95
-73.12
-54.78
-32.08
-7.94
14.84
34.34
49.9
61.98
71.64
80.08
88.21
96.6
105.64
115.67
126.85
139.03
151.55
163.49
174.03
183.09
191.24
199.41
207.87
215.54
220.06
218.7
209.76
193.68
173.05
151.4
131.72
115.59
103.19
94.27
88.64
86.27
86.46
87.4
86.31
80.59
69.29
54.01
38.71
28.05
25.55
32.09
45.62
61.92
75.95
83.23
80.76
67.76
45.61
17.6
-11.84
-38.1
-57.23
-66.74
-66.01
-56.44
-41.12
-24.26
-10.35
-3.01
-3.9
-12.12
-24.69
-37.65
-47.44
-51.79
-49.82
-41.82
-28.76
-12.3
5.08
19.89
28.03
25.82
11.9
-11.66
-39.37
-63.69
-77.17
-74.9
-56.4
-26.5
5.63
29.43
36.17
22.01
-10.78
-54.2
-97.33
-130.25
-147.53
-149.46
-140.19
-125.14
-108.49
-92.28
-76.31
-59.46
-40.99
-21.68
-3.77
10.55
19.48
21.78
16.42
3.55
-15.7
-36.85
-52.73
-60.21
-58.97
-49.41
-29.76
-1.12
32.38
64.08
86.72
94.95
87.18
66.83
40.31
13.82
-9.06
-27.02
-39.69
-46.35
-46.11
-39.01
-26.78
-13.21
-3.5
-2.43
-11.73
-28.8
-47.53
-60.56
-62.34
-50.86
-28.07
1.04
30.53
55.63
73.63
83.42
84.39
75.73
56.94
28.8
-5.88
-42.4
-75.17
-99.42
-112.75
-116.01
-113.04
-109.52
-111.09
-121.19
-139.66
-162.27
-182.47
-194.16
-194.34
-184.48
-169.6
-155.47
-145.86
-140.92
-137.72
-132.44
-122.69
-108.62
-92.42
-76.76
-63.33
-52.35
-43.09
-34.82
-27.42
-21.27
-16.62
-13
-9.03
-2.78
7.67
23.6
45.23
71.44
99.84
127.2
150.23
166.72
176.35
180.82
183.01
185.51
189.28
193.23
194.89
191.86
183.22
170.14
155.39
142.01
131.94
125.31
120.59
115.4
107.65
96.23
81.38
64.37
47.1
31.65
19.94
13.45
12.74
17.24
25.16
33.79
40.24
42.4
39.41
31.77
20.89
8.32
-4.47
-16.32
-26.25
-33.5
-37.53
-38.33
-36.37
-32.58
-28.07
-23.61
-19.61
-16.19
-13.31
-11.02
-9.45
-8.68
-8.69
-9.37
-10.67
-12.59
-15.22
-18.61
-22.6
-26.88
-30.96
-34.39
-36.88
-38.49
-39.56
-40.7
-42.6
-45.77
-50.19
-55.11
-59.02
-60.05
-56.57
-47.81
-34.33
-17.81
-0.62
14.96
27.52
36.78
43.44
48.79
54.12
60.29
67.52
75.23
82.05
86.15
85.77
79.98
69.42
56.41
44.46
36.94
35.74
40.18
47.14
52.28
51.76
43.9
29.66
11.85
-6.13
-21.73
-33.87
-42.48
-47.73
-49.56
-47.71
-42.44
-35.31
-29.12
-27.06
-31.42
-42.31
-57.26
-71.99
-81.77
-83
-74.39
-57.25
-35.1
-12.65
5.49
15.96
17.25
9.99
-3.47
-19.94
-36.16
-49.6
-58.86
-63.49
-63.7
-59.86
-52.45
-42.15
-30.27
-18.64
-9.41
-4.39
-4.33
-8.93
-17.06
-27.48
-39.1
-50.99
-61.97
-70.44
-74.74
-73.64
-67.03
-56.11
-43.04
-30.62
-21.81
-19.62
-26.71
-44.81
-73.52
-109.6
-147.17
-179.15
-199.46
-204.97
-196.27
-177.03
-152.48
-127.63
-106.3
-90.6
-80.98
-76.61
-75.75
-76.14
-75.51
-72.24
-65.74
-56.56
-46.13
-36.1
-27.87
-22.12
-18.51
-15.86
-12.56
-7.13
1.06
11.57
23.1
34.02
42.96
49.35
53.28
55.24
55.74
55.12
53.66
51.64
49.4
47.28
45.4
43.56
41.35
38.44
34.62
29.96
24.63
18.74
12.34
5.55
-1.18
-6.97
-10.52
-10.56
-6.25
2.4
14.53
28.66
43.05
56.27
67.44
76.24
82.79
87.42
90.51
92.45
93.68
94.72
96.18
98.56
102.1
106.59
111.38
115.65
118.71
120.33
120.7
120.38
119.91
119.59
119.34
118.8
117.57
115.33
112.09
107.98
103.23
97.91
92.01
85.38
77.82
69.16
59.24
47.98
35.42
21.76
7.34
-7.4
-22.01
-36.24
-49.89
-62.7
-74.03
-82.71
-87.24
-86.35
-79.6
-67.84
-53.17
-38.22
-25.29
-15.65
-9.24
-5.02
-1.6
2.13
6.79
12.52
19.43
27.8
38.01
50.14
63.53
76.86
88.51
97.26
102.56
104.62
103.76
100.14
93.65
84.36
73.1
61.76
52.8
48.16
48.09
50.58
51.78
47.35
34.16
11.77
-17.26
-48.07
-75.02
-93.49
-101.29
-99.02
-89.38
-75.98
-62.06
-49.78
-40.12
-33.26
-29.05
-27.33
-27.9
-30.29
-33.79
-37.5
-40.73
-43.28
-45.46
-47.83
-50.7
-53.77
-56.1
-56.62
-54.68
-50.45
-44.8
-38.9
-33.74
-29.8
-27.11
-25.41
-24.51
-24.24
-24.53
-25.22
-26.13
-27.11
-28.19
-29.48
-31.11
-33.19
-35.67
-38.57
-41.92
-45.83
-50.29
-54.99
-59.2
-61.81
-61.65
-57.88
-50.33
-39.61
-26.88
-13.62
-1.24
9.19
17.05
22.17
24.75
25.19
24.01
21.86
19.3
16.85
14.78
13.22
12.03
11
9.85
8.31
6.17
3.29
-0.3
-4.4
-8.69
-12.8
-16.57
-20.11
-23.75
-27.81
-32.38
-37.23
-41.96
-46.24
-50.03
-53.46
-56.72
-59.79
-62.3
-63.7
-63.33
-60.6
-55.19
-46.98
-36.1
-23.01
-8.52
6.31
20.34
32.64
42.64
50.2
55.47
58.74
60.4
60.88
60.76
60.66
61.17
62.62
64.99
67.84
70.48
72.23
72.73
71.95
70.12
67.52
64.34
60.61
56.31
51.57
46.68
42.02
37.83
34.08
30.46
26.62
22.34
17.59
12.5
7.33
2.42
-1.74
-4.29
-4.12
-0.06
8.89
23.08
41.97
63.98
86.71
107.55
124.31
135.52
140.63
139.82
133.83
123.99
112.47
102.28
96.67
97.98
106.25
118.91
131.6
139.94
141.31
135.57
124.54
110.6
95.5
79.92
64.06
48.34
33.51
20.36
8.91
-1.93
-14.1
-29.47
-48.86
-71.53
-95.35
-117.55
-135.3
-146.54
-150.19
-146.26
-135.64
-119.95
-101.27
-81.76
-63.46
-47.7
-35.07
-25.45
-18.16
-12.38
-7.56
-3.57
-0.57
1.09
1.34
0.27
-1.86
-4.6
-7.34
-9.1
-8.88
-6.01
-0.8
5.3
9.99
10.96
6.74
-2.91
-17.11
-34.5
-53.5
-72.47
-89.59
-102.96
-111.19
-114.15
-113.35
-111.65
-112.08
-116.46
-124.56
-134.23
-142.51
-146.97
-146.63
-142.1
-134.9
-126.63
-118.21
-109.77
-100.9
-91.05
-80.06
-68.13
-55.69
-43.11
-30.51
-17.73
-4.68
8.47
21.42
33.87
45.89
58.01
71.08
85.73
101.87
118.31
133.02
143.77
149
148.53
143.85
137.7
133.3
133.32
138.82
148.69
159.81
167.61
167.36
155.59
131.26
96.18
54.56
11.64
-27.96
-61.31
-87.6
-107.53
-122.17
-132.1
-137.13
-136.46
-129.38
-115.97
-97.51
-76.6
-56.94
-42.6
-36.8
-40.49
-51.38
-64.3
-72.97
-72.59
-61.91
-43.64
-23.02
-5.48
5.62
9.63
7.9
2.35
-5.69
-15.68
-27.23
-39.49
-50.91
-59.66
-64.39
-64.73
-61.37
-55.7
-49.39
-43.78
-39.69
-37.27
-36.33
-36.54
-37.69
-39.72
-42.5
-45.61
-48.13
-48.7
-45.85
-38.42
-25.94
-8.97
11.05
31.95
51.35
67.24
78.34
84.47
86.58
86.53
86.58
88.95
95.35
106.61
122.31
140.61
158.19
170.79
174.2
165.85
146.17
119.05
90.76
67.68
53.8
49.2
50.42
52.34
50.78
44.23
33.9
22.33
11.58
2.17
-6.88
-17.1
-29.46
-43.91
-59.41
-74.69
-88.66
-100.49
-109.51
-115.07
-116.39
-112.83
-104.22
-91.23
-75.47
-59.17
-44.63
-33.62
-26.99
-24.46
-24.91
-26.83
-28.74
-29.56
-28.63
-25.75
-21.12
-15.29
-9.02
-3.17
1.55
4.78
6.62
7.44
7.69
7.53
6.83
5.31
2.74
-0.79
-4.8
-8.64
-11.76
-13.94
-15.42
-16.82
-18.94
-22.53
-27.98
-35.13
-43.19
-50.7
-55.88
-57.03
-53.11
-44.16
-31.35
-16.68
-2.28
10.15
19.8
26.69
31.33
34.29
35.93
36.37
35.72
34.27
32.52
31.04
30.25
30.21
30.6
30.93
30.65
29.47
27.37
24.55
21.32
18.01
14.81
11.79
8.83
5.65
1.92
-2.49
-7.48
-12.61
-17.22
-20.81
-23.19
-24.64
-25.9
-27.82
-31.11
-36.06
-42.42
-49.4
-55.72
-59.87
-60.34
-56.06
-46.82
-33.36
-17.4
-1.09
13.52
25.09
33.34
38.96
43.2
47.26
51.88
57.1
62.32
66.81
70.02
71.93
73.1
74.47
76.84
80.61
85.42
90.35
94.24
96.19
95.82
93.53
90.18
86.8
84.32
83.34
84.15
86.67
90.44
94.31
96.61
95.55
90.16
80.92
69.58
58.08
47.18
35.7
21.04
0.82
-25.24
-54.38
-81.42
-100.69
-108.4
-104.22
-91.43
-75.78
-63.47
-59.03
-63.79
-75.45
-89.13
-99.3
-102.14
-96.94
-86.09
-73.48
-62.43
-54.34
-48.54
-43.53
-38.35
-33.53
-30.72
-31.77
-37.54
-47.27
-58.92
-69.81
-77.35
-79.44
-74.61
-61.93
-41.35
-14.18
16.37
45.04
65.32
71.51
60.87
35.17
0.64
-33.84
-59.76
-71.85
-69.77
-58
-44.09
-35.87
-38.77
-53.94
-78.01
-104.41
-125.85
-136.89
-135.44
-122.99
-103.3
-80.67
-58.59
-39.3
-24.07
-13.74
-8.79
-8.96
-12.99
-18.66
-23.43
-25.34
-23.64
-18.99
-13.01
-7.53
-3.91
-2.59
-3.11
-4.5
-5.91
-6.97
-7.97
-9.55
-12.22
-15.94
-20.06
-23.61
-25.79
-26.51
-26.36
-26.51
-28.02
-31.29
-35.69
-39.73
-41.41
-39.13
-32.26
-21.4
-8.11
5.74
18.63
29.7
38.79
46.01
51.32
54.32
54.53
51.79
46.65
40.43
34.86
31.68
32.09
36.45
44.07
53.27
61.5
65.75
63.26
52.57
34.35
11.53
-11.58
-30.88
-43.99
-51.07
-54.28
-56.57
-60.32
-66.55
-75.04
-84.9
-95.34
-105.94
-116.54
-126.86
-136.09
-142.92
-145.92
-143.98
-136.85
-125.38
-111.37
-96.88
-83.49
-71.68
-60.98
-50.59
-40.14
-30.08
-21.46
-15.19
-11.42
-9.23
-6.97
-3.02
3.58
12.81
23.83
35.37
46.24
55.6
63.04
68.57
72.38
74.68
75.59
75.08
73.1
69.74
65.28
60.24
55.25
50.91
47.55
45.22
43.64
42.29
40.67
38.53
36.23
35.08
37.06
44.35
58.22
78.25
102.06
125.96
146.06
159.61
165.75
165.44
160.94
155.13
150.76
149.98
153.78
161.6
171.09
178.49
179.72
172.12
155.92
134.5
113.25
97.42
89.85
89.84
93.64
95.99
92.32
80.22
59.63
32.38
1
-31.96
-64.41
-94.54
-120.9
-142.36
-158.45
-169.54
-176.77
-181.61
-185.36
-188.55
-190.68
-190.32
-185.71
-175.57
-159.74
-139.31
-116.43
-93.59
-72.87
-55.51
-41.87
-31.72
-24.58
-19.96
-17.17
-15.2
-12.74
-8.53
-1.86
7.06
17.17
27.13
36.13
44.33
52.78
62.6
74.16
86.67
98.39
107.44
112.39
112.69
108.76
101.98
94.79
90.17
90.83
97.97
110.37
124.33
134.7
136.89
129.05
113.49
96.23
84.99
86.22
102.59
132.02
168.54
204.44
232.65
248.58
250.35
238.36
214.34
180.84
141.18
99.77
61.98
33.03
16.76
14.2
22.98
38.07
53.1
62.11
61.06
48.74
26.89
-0.22
-26.93
-47.68
-58.55
-58.83
-51.41
-42.05
-37.33
-42.2
-57.83
-81.55
-108.11
-132.25
-150.82
-163.37
-171.13
-175.37
-176.16
-172.36
-162.92
-148.24
-130.6
-113.67
-100.84
-93.67
-91.43
-91.79
-91.99
-90.25
-86.32
-81.19
-76.42
-73.07
-71.15
-69.68
-67.25
-62.75
-56.03
-48
-40.32
-34.92
-33.27
-36.03
-42.93
-52.89
-64.43
-76.09
-86.93
-96.69
-105.86
-115.15
-125.05
-135.38
-145.07
-152.61
-156.58
-156.11
-151.15
-142.14
-129.61
-113.88
-95.09
-73.42
-49.38
-24.05
1.06
24.32
44.35
60.45
72.83
82.7
92.2
103.81
119.57
140.27
164.67
189.54
210.43
223.3
226.14
220.07
209.06
198.55
193.25
195.13
202.59
211.21
215.44
210.72
195.14
169.6
137.51
103.47
71.93
45.72
25.42
9.07
-7.03
-26.76
-52.22
-82.3
-112.46
-136.26
-147.85
-144.48
-127.73
-102.81
-76.18
-53.14
-35.93
-23.76
-14.2
-5.2
3.62
10.77
14.08
12.37
6.47
-0.74
-5.68
-5.74
-0.35
8.95
19.36
27.85
32.13
30.49
21.47
3.63
-23.9
-60.34
-102.44
-144.73
-180.92
-205.86
-217.25
-216.08
-205.92
-191.41
-176.81
-165.09
-157.69
-154.61
-154.61
-155.56
-154.59
-148.63
-135
-112.63
-82.83
-49.25
-16.99
9.23
26.65
35.38
37.94
37.74
37.43
38.08
39.5
41.33
43.98
48.79
57.44
70.82
88.18
107.11
124.34
137.08
144.17
146.52
146.68
147.57
151.17
157.57
165.13
171.35
174.14
172.37
165.61
153.46
135.12
109.63
76.82
37.99
-4.11
-46.12
-85.02
-118.51
-144.81
-162.21
-169.13
-164.67
-149.45
-125.83
-97.34
-67.51
-38.97
-13.1
9.57
28.93
44.96
57.7
67.32
73.95
77.57
78.06
75.65
71.17
66.19
62.47
61.1
61.85
63.16
62.81
58.92
50.71
38.68
24.36
9.77
-3.18
-13.15
-19.71
-23.42
-25.59
-27.72
-30.99
-35.72
-41.29
-46.29
-49.05
-48.2
-43.08
-34.06
-22.33
-9.61
2.51
12.86
20.81
26.21
28.91
28.77
25.65
19.81
12.15
4.29
-1.76
-4.15
-1.78
5.09
14.82
24.71
31.75
33.53
29.12
19.74
8.51
-0.33
-2.94
2.73
15.97
33.38
49.64
59.12
57.46
43.04
17.74
-13.58
-44.29
-68.11
-81.1
-82.77
-76.01
-65.83
-57.56
-55.04
-59.82
-71.27
-87.37
-105.7
-123.94
-140.1
-152.41
-159.34
-159.68
-152.92
-139.65
-121.75
-102.05
-83.57
-68.42
-57.07
-48.17
-39.18
-27.4
-11.02
10.14
34.41
58.79
79.86
94.88
102.68
104
101.27
97.97
97.46
101.77
110.51
120.64
127.38
125.82
113.02
89.3
58.5
26.93
1.51
-12.45
-12.88
-1.5
16.61
34.49
45.38
44.91
32.68
12.58
-8.66
-24.21
-29.88
-25.7
-15.44
-4.55
2.4
3.39
-0.74
-7.33
-13.54
-17.47
-18.67
-17.89
-16.49
-15.91
-17.2
-20.77
-26.22
-32.29
-37.37
-39.82
-38.42
-32.63
-23.08
-11.93
-3
-1.28
-11.43
-35.61
-71.78
-113.46
-151.32
-176.36
-182.91
-170.33
-142.69
-106.7
-69.34
-36.02
-10.1
6.89
14.62
13.75
5.86
-6.6
-20.64
-33.25
-42.08
-45.83
-44.38
-38.67
-30.33
-21.19
-12.78
-6.04
-1.2
2.06
4.31
6.02
7.27
7.81
7.21
5.29
2.19
-1.47
-4.84
-7.15
-8.03
-7.63
-6.6
-5.84
-6.18
-8.13
-11.72
-16.64
-22.25
-27.7
-32.02
-34.16
-33.11
-28.28
-19.58
-7.7
6
19.75
31.91
41.25
47.22
49.94
49.98
48.19
45.4
42.38
39.78
38.09
37.63
38.57
40.85
44.23
48.27
52.44
56.13
58.77
59.91
59.33
57.19
54.08
50.91
48.69
48.12
49.5
52.75
57.61
63.9
71.54
80.32
89.64
98.8
107.23
114.92
122.49
130.83
140.64
151.94
164.03
175.75
186.05
194.29
200.22
203.44
202.83
196.38
181.73
157.31
123.58
83.64
42.63
6.27
-21.13
-37.98
-45.66
-47.42
-46.64
-45.48
-44.39
-42.57
-38.98
-33.09
-25.39
-17.11
-9.62
-3.61
1.37
6.5
12.74
19.59
24.72
24.6
16.22
-1.07
-24.72
-49.8
-70.97
-84.55
-89.48
-86.73
-78.01
-64.75
-47.99
-29.21
-11.24
1.82
6.1
-0.01
-14.45
-31.66
-44.62
-47.78
-39.19
-20.92
2.46
25.98
45.92
59.97
66.21
62.39
46.45
18.3
-18.48
-56.29
-85.71
-99.19
-94.3
-75.02
-49.82
-27.96
-16.05
-16.22
-26.5
-42.79
-60.84
-77.2
-89.34
-95.54
-95.01
-88.83
-80.61
-75.68
-78.78
-91.14
-108.63
-122.8
-124.53
-108.67
-77.2
-38.8
-5.26
13.58
13.67
-2.52
-28.13
-55.65
-79.77
-98.4
-111.63
-120.01
-123.43
-121.04
-112.22
-97.82
-80.63
-64.93
-54.91
-52.86
-58.02
-66.82
-74.36
-76.4
-71.03
-59.19
-43.93
-28.99
-17.23
-9.63
-5.35
-2.33
1.79
9.02
20.68
37.37
59.05
84.72
112.51
139.7
163.29
181.04
192.52
199.41
204.8
211.36
219.82
228.06
231.77
226.53
209.81
182.43
148.36
113.41
83.23
61.78
50.25
47.14
49.13
52.22
52.72
48.01
36.75
19.1
-3.5
-28.62
-53.18
-73.86
-87.81
-93.1
-89.23
-77.3
-60.02
-41.72
-27.81
-23.92
-34.35
-60.18
-97.83
-139.09
-173.26
-190.52
-185.54
-159.13
-117.84
-71.64
-31.04
-4.52
3.1
-8.65
-35.7
-70.38
-103.05
-124.78
-130.03
-118.21
-93.4
-62.43
-32.23
-7.83
7.98
14.3
11.32
0.12
-17.12
-37.04
-55.52
-68.77
-74.62
-73.17
-66.52
-57.39
-47.93
-38.85
-29.84
-20.55
-11.72
-5.47
-4.51
-10.71
-23.86
-41.42
-59.28
-73.37
-81.08
-81.73
-76.34
-66.68
-54.6
-41.74
-29.67
-19.88
-13.65
-11.61
-13.4
-17.67
-22.42
-25.7
-26.3
-24.05
-19.55
-13.77
-7.65
-1.79
3.59
8.61
13.75
19.77
27.52
37.57
49.82
63.16
75.94
86.67
94.93
101.86
109.72
120.89
136.4
155.3
174.77
191.4
202.76
208.57
210.81
212.75
217.75
228.14
244.85
267.4
294.11
321.76
345.84
361.01
362.55
347.92
318.04
277.36
232.57
190.54
156.24
131.72
116.15
106.76
100.03
92.7
82.32
67.42
47.38
22.24
-7.57
-41.44
-78.71
-118.85
-161.49
-206.34
-252.87
-299.92
-345.51
-386.95
-421.48
-447.26
-463.83
-472.21
-474.13
-470.95
-463.02
-449.62
-429.77
-403.05
-370.24
-333.3
-294.52
-255.77
-217.83
-180.5
-143.11
-105.46
-68.31
-33.42
-2.97
21.41
39.35
52.04
61.63
70.45
80.09
90.99
102.45
113.28
122.24
128.39
131.08
129.73
123.89
113.43
99.09
82.83
67.5
56.02
50.21
49.85
52.54
54.52
52.15
43.51
29.22
12.27
-3.15
-13.21
-15.59
-10.01
2.13
18.36
36.05
52.92
67.33
78.25
85.24
88.33
87.99
85.35
82.11
80.28
81.51
86.18
92.83
98.26
98.91
92.49
79.45
62.78
46.68
34.43
26.94
22.52
18.27
11.89
2.84
-7.61
-17.45
-25.17
-30.48
-34.15
-37.24
-40.46
-43.74
-46.57
-48.52
-49.78
-51.07
-53.2
-56.59
-60.71
-64.25
-65.83
-64.8
-61.78
-58.5
-56.77
-57.23
-58.54
-57.62
-50.81
-35.61
-11.88
17.98
49.92
79.6
103.71
120.62
130.2
133.43
131.66
126.44
119.48
112.74
108.07
106.62
108.14
110.61
110.79
105.56
93.3
74.69
52.19
28.85
6.71
-13.7
-33
-51.68
-69.16
-83.71
-93.39
-97.35
-96.53
-93.35
-90.58
-90.2
-92.49
-96.1
-98.65
-97.65
-91.43
-79.57
-62.97
-43.35
-22.72
-2.78
15.29
30.76
43.11
51.91
56.92
58.4
57.29
55.16
53.78
54.48
57.75
63.02
68.87
73.62
75.82
74.75
70.52
63.88
55.92
47.55
39.32
31.34
23.48
15.6
7.84
0.43
-6.33
-12.46
-18.31
-24.6
-32.03
-40.94
-51.14
-61.73
-71.36
-78.44
-81.61
-80.02
-73.63
-63.25
-50.34
-36.77
-24.24
-14
-6.66
-2.21
-0.28
-0.29
-1.69
-3.87
-6.21
-7.92
-8.29
-6.87
-3.71
0.62
5.14
8.87
11.19
11.96
11.66
10.93
10.28
9.79
9.14
7.73
5.12
1.3
-3.24
-7.56
-10.67
-11.98
-11.69
-10.81
-10.82
-13.01
-17.72
-23.92
-29.17
-30.38
-24.85
-11.35
9.21
33.77
57.89
77.15
88.5
91.67
89.19
85.66
86.15
94.11
110.01
130.92
151.48
165.39
167.54
155.48
130.32
96.55
60.85
30.32
10.29
2.7
5.39
12.71
17.25
12.29
-6.1
-37.91
-79.12
-123.1
-162.61
-191.95
-208.32
-212.29
-207
-196.63
-185.15
-175.17
-167.91
-163.38
-160.68
-158.2
-153.74
-144.84
-129.47
-107.02
-78.86
-48.2
-18.87
6.08
25.44
39.75
50.23
57.43
60.59
58.12
48.92
33.67
15.02
-3.41
-18.48
-28.85
-35.04
-38.64
-41.07
-42.91
-44.04
-44.21
-43.78
-43.58
-44.68
-47.71
-52.49
-58.08
-63.17
-66.61
-67.76
-66.71
-64.21
-61.45
-59.59
-59.28
-60.31
-61.4
-60.68
-56.29
-47.17
-33.56
-16.94
0.55
16.91
30.87
42.11
50.93
57.72
62.69
65.83
67.14
66.95
65.96
65.05
65.05
66.26
68.51
71.25
73.79
75.58
76.32
75.94
74.55
72.31
69.29
65.58
61.37
56.96
52.85
49.61
47.67
47.14
47.73
48.74
49.36
48.93
47.26
44.78
42.61
42.21
45.1
52.32
64.08
79.51
96.95
114.25
129.42
141.18
149.22
154.23
157.57
160.92
165.64
172.45
181.19
190.98
200.56
208.66
214.34
216.77
215.1
208.14
194.46
172.59
141.55
101.25
52.74
-1.68
-58.62
-114.03
-163.79
-204.42
-233.69
-251.07
-257.6
-255.71
-248.47
-238.91
-229.56
-221.82
-215.74
-210.03
-202.52
-190.98
-174.06
-151.84
-125.86
-98.54
-72.35
-49.06
-29.39
-13.14
0.51
12.47
23.58
34.26
44.64
54.71
64.45
74.02
83.87
94.53
106.33
119.25
132.88
146.66
159.87
171.38
179.37
181.4
175.11
159.41
135.52
107.03
78.79
55.04
37.77
26.16
17.5
8.76
-1.89
-14.57
-28.1
-40.96
-51.92
-60.31
-65.7
-67.8
-66.5
-62.03
-55.14
-47.06
-39.15
-32.54
-27.87
-25.15
-23.95
-23.45
-22.76
-21.08
-17.94
-13.39
-7.96
-2.58
1.84
4.79
6.57
8.14
10.73
15.17
21.25
27.59
32
32.38
27.7
18.65
7.59
-2.19
-7.44
-6.14
1.79
14.3
27.7
37.52
39.55
31.04
11.75
-15.48
-45.28
-71.08
-87.27
-91
-83.06
-67.43
-49.49
-34.17
-24.46
-21.21
-23.66
-30.46
-40.31
-52.11
-64.69
-76.6
-86.27
-92.47
-94.84
-94.15
-91.87
-89.66
-88.56
-88.54
-88.72
-87.98
-85.62
-81.69
-76.81
-71.92
-67.77
-64.72
-62.65
-61.26
-60.19
-59.17
-58.02
-56.74
-55.35
-54.02
-52.86
-52
-51.42
-51.12
-50.98
-50.82
-50.28
-48.72
-45.38
-39.57
-30.92
-19.74
-6.95
6.23
18.53
29.15
37.81
44.6
49.89
54.01
57.27
59.9
62.25
64.63
67.36
70.61
74.31
78.19
81.9
85.19
87.97
90.38
92.66
95.06
97.57
99.84
101.23
101.01
98.76
94.64
89.38
83.97
79.29
75.75
73.16
71.03
68.81
66.28
63.69
61.74
61.34
63.29
68.07
75.76
86.08
98.23
110.82
121.94
129.33
130.97
125.73
113.92
97.4
79.12
62.28
49.41
41.76
38.98
39.44
40.74
40.22
35.56
25.27
9.17
-11.41
-33.68
-54.18
-69.67
-78.1
-79.28
-74.87
-67.85
-61.56
-58.65
-60.5
-67.1
-77.33
-89.69
-102.84
-115.85
-127.96
-138.42
-146.14
-149.93
-148.97
-143.24
-133.79
-122.49
-111.25
-101.41
-93.38
-86.69
-80.58
-74.55
-68.72
-63.61
-59.71
-57.01
-54.89
-52.37
-48.61
-43.42
-37.25
-31
-25.49
-21.24
-18.38
-16.81
-16.4
-17.14
-19.05
-22.01
-25.66
-29.36
-32.45
-34.38
-34.97
-34.44
-33.41
-32.67
-33.01
-34.99
-38.78
-44.05
-49.94
-55.17
-58.31
-58.12
-53.89
-45.71
-34.58
-22.06
-9.94
0.27
7.69
12.11
13.95
13.91
12.77
11.16
9.56
8.24
7.31
6.71
6.19
5.36
3.91
1.79
-0.72
-2.99
-4.41
-4.7
-4.08
-3.25
-3.09
-4.26
-6.99
-11.09
-16.05
-21.4
-26.75
-31.82
-36.44
-40.45
-43.84
-46.74
-49.46
-52.2
-54.95
-57.15
-57.89
-56.08
-50.9
-42.19
-30.55
-17.26
-3.82
8.41
18.55
26.34
31.9
35.63
37.92
39.23
40
40.74
41.89
43.73
46.29
49.23
52.06
54.19
55.25
55.11
53.86
51.79
49.19
46.28
43.15
39.85
36.35
32.73
29.14
25.85
23.1
21.06
19.73
18.93
18.25
17.15
15.04
11.5
6.48
0.48
-5.49
-10.09
-12.09
-10.74
-6.03
1.47
10.98
21.97
34.38
48.51
64.45
81.71
99.25
115.78
130.24
142.09
151.04
156.79
158.89
157.18
152.45
146.67
142.49
141.93
145.38
151.32
157.09
160.16
159.08
153.65
144.29
131.37
115.16
96.32
76.41
57.81
42.95
33.09
27.56
23.79
18.21
7.58
-9.94
-34.36
-63.73
-94.41
-121.83
-141.43
-150.13
-147.41
-135.98
-121.19
-109.26
-104.92
-109.37
-120
-131.61
-138.85
-138.52
-130.53
-117.21
-101.58
-85.55
-69.21
-51.72
-32.73
-13.67
2.37
12.09
13.83
8.4
-1.37
-12.14
-21.59
-28.85
-34.05
-37.47
-39
-38.5
-36.58
-35.11
-36.57
-42.77
-53.35
-65.6
-75.43
-79.19
-75.27
-64.46
-49.24
-32.38
-16.16
-1.88
9.68
17.77
21.72
21.24
16.97
10.73
5.17
2.67
4.69
11.11
20.47
30.75
40.31
48.51
55.97
64.22
75.06
89.94
109.17
131.43
153.61
171.25
179.65
175.49
158.17
130.23
96.59
62.69
32.42
7.09
-14.45
-34.25
-53.51
-71.71
-87.09
-97.76
-103.22
-104.78
-104.92
-106
-109.05
-113.33
-116.92
-117.95
-115.28
-108.78
-98.66
-84.82
-66.6
-43.42
-15.82
13.84
41.46
62.83
75.56
80.35
80.84
82.07
88.05
99.86
115.29
129.32
136.69
133.87
120
96.72
67.51
36.54
8.13
-13.98
-28.53
-36.31
-39.77
-42.38
-47.61
-57.41
-72.35
-90.97
-110.57
-130.08
-148.96
-166.6
-181.91
-193.32
-198.47
-196.5
-187.7
-173.89
-160.23
-151.79
-150.74
-155.44
-161.6
-163.79
-159.84
-150.69
-127.74
-89.31
-40.45
9.84
54.5
86.17
109.92
130.11
149.63
170.54
193.33
217
239.91
259.6
272.7
276.46
268.12
247.35
216.41
177.8
134.8
91.57
52.35
20.4
-2.19
-16.29
-24.22
-28.56
-32.5
-38.16
-45.93
-54.77
-63.32
-70.08
-74.72
-77.28
-77.91
-77.45
-76.85
-76.91
-78.09
-80.47
-83.41
-86.09
-87.29
-85.82
-81.13
-73.47
-63.68
-52.93
-42.31
-32.38
-23.38
-15.17
-7.66
-1.11
3.88
6.73
7.15
5.51
2.82
0.46
-0.29
1.4
5.57
11.56
18.18
24.06
28.12
29.82
29.3
27.14
24.13
20.88
17.87
15.41
13.98
14.13
16.43
21.03
27.26
33.69
38.54
40.59
39.75
37.25
35.11
35.47
39.84
48.88
62.4
79.48
98.33
116.01
128.73
132.81
126.41
110.89
90.9
72.97
62.85
62.99
71.47
82.89
90.58
89.07
75.58
50.14
15
-26.41
-70
-111.35
-145.96
-170.01
-181.33
-180.22
-169.46
-153.52
-137.16
-123.96
-115.48
-111.26
-109.57
-108.41
-106.31
-102.61
-97.7
-92.76
-89.32
-88.54
-90.42
-93.51
-95.34
-93.42
-86.62
-75.73
-63.18
-51.73
-43.21
-37.81
-34.45
-31.75
-29.07
-26.67
-25.27
-25.27
-26.22
-27.1
-26.87
-25.13
-22.2
-18.86
-15.79
-13.24
-11.01
-8.62
-5.75
-2.42
0.93
3.66
5.23
5.42
4.41
2.62
0.49
-1.64
-3.7
-5.74
-7.82
-9.94
-11.94
-13.68
-15.13
-16.45
-17.96
-20.11
-23.27
-27.5
-32.32
-36.53
-38.4
-36.07
-28.08
-13.79
6.23
30.49
57.04
84.05
110.06
133.99
154.94
172.14
185.2
194.23
199.99
203.39
204.99
204.63
201.69
195.85
187.73
179.12
172.2
168.34
167.14
166.5
163.88
157.78
148.67
138.37
128.58
119.58
109.98
97.78
82.03
63.85
46.14
32.15
23.52
19.49
17.23
13.33
5.59
-6.18
-20.19
-33.7
-44.13
-49.92
-50.76
-47.46
-41.53
-34.46
-27.5
-21.41
-16.56
-13.19
-11.63
-12.19
-14.9
-19.25
-23.9
-26.9
-26.18
-20.32
-9.36
4.93
19.12
29.07
31.27
24.39
10.23
-6.45
-19.42
-23.2
-15.07
3.94
29.39
54.86
73.65
80.33
72.04
49.42
16.93
-17.87
-46.31
-61.68
-61.91
-50.69
-35.92
-26.37
-27.73
-40.54
-60.59
-81.57
-98.34
-108.72
-113.52
-114.86
-114.33
-112.02
-106.9
-98.04
-85.74
-71.88
-59.23
-50.3
-46.08
-45.71
-46.93
-47
-43.71
-35.85
-23.44
-7.52
9.9
26.27
38.63
44.22
41.21
29.62
12.02
-6.99
-22.24
-29.93
-29.11
-21.97
-12.69
-5.39
-2.38
-3.49
-6.59
-8.98
-8.7
-5.24
0.44
6.38
10.46
11.08
7.8
1.77
-4.59
-8.42
-7.78
-2.58
5.32
13.21
18.91
21.86
23.13
24.3
26.13
27.87
27.65
23.92
16.69
7.96
1.13
-0.32
5.56
18.51
35.89
53.31
65.76
69.05
61.15
43.04
18.75
-5.97
-25.53
-36.58
-39.08
-35.84
-30.9
-27.61
-27.34
-29.38
-31.87
-33.04
-31.91
-28.52
-23.4
-17.09
-9.98
-2.32
5.47
12.62
18.1
20.98
20.69
17.47
12.46
7.28
3.67
2.78
4.79
8.89
13.69
17.73
19.97
20.12
18.4
15.32
11.37
6.83
1.86
-3.43
-8.86
-14.38
-20
-26.07
-33.07
-41.46
-51.39
-62.45
-73.55
-83.01
-88.95
-89.81
-85.07
-75.5
-63.14
-50.77
-40.99
-35.35
-33.95
-35.53
-38.16
-40.16
-40.48
-38.97
-35.99
-31.94
-27.06
-21.46
-15.41
-9.51
-4.7
-1.88
-1.51
-3.35
-6.38
-9.19
-10.51
-9.61
-6.66
-2.57
1.34
3.82
4.13
2.19
-1.48
-6.19
-11.29
-16.49
-21.79
-27.26
-33
-38.91
-44.76
-50.27
-55.13
-59.15
-62.34
-64.93
-67.36
-70.19
-73.91
-78.68
-84.24
-89.86
-94.53
-97.09
-96.58
-92.24
-83.7
-70.97
-54.51
-35.28
-14.63
5.76
24.22
39.31
50.34
57.42
61.66
64.85
68.98
75.62
85.37
97.63
110.9
123.5
134.14
142.39
148.67
154.04
159.86
167.52
177.98
191.28
205.92
218.72
225.24
221.44
205.36
178.65
146.28
114.9
90.2
74.72
66.98
62.54
55.94
42.77
20.78
-10.18
-48.63
-92.08
-137.1
-179.21
-213.18
-233.82
-237.63
-224.06
-196.22
-160.16
-123.27
-92.08
-70.43
-58.74
-54.54
-54.01
-53.61
-51.5
-47.72
-43.77
-41.31
-41.03
-42.14
-42.66
-40.53
-34.76
-25.99
-16.24
-7.95
-2.82
-1.23
-2.25
-4.19
-5.3
-4.09
0.56
9.32
22.05
37.12
51.03
58.96
56.2
40.18
11.86
-24.44
-62.52
-96.62
-123.16
-141.05
-150.8
-152.98
-147.49
-133.83
-112.35
-85.27
-56.78
-31.74
-13.94
-4.71
-2.58
-4.23
-5.95
-5.14
-0.91
6.07
14.25
21.83
27.01
28.22
24.34
15.13
1.68
-13.31
-26.21
-33.63
-33.76
-27.26
-17.02
-7.04
-0.71
0.46
-2.8
-8.04
-12.46
-13.94
-11.74
-6.49
0.29
6.76
11.34
12.82
10.6
4.65
-3.88
-12.53
-17.9
-16.86
-8.07
6.72
22.72
33.81
35.22
26.31
11.45
-1.32
-3.65
9.53
37.96
76.41
117.11
152.88
179.05
193.87
197.32
189.91
172.39
146.39
115.26
83.91
57.45
39
28.31
22.11
16.05
7.15
-4.68
-17.02
-26.86
-32.48
-34.08
-33.12
-30.9
-27.73
-23.25
-17.34
-10.93
-5.84
-3.9
-5.95
-11.27
-18.02
-24.02
-27.39
-26.94
-21.91
-12
2.39
19.73
37.54
52.87
63.37
68.2
68.04
64.77
60.62
57.46
56.32
57.33
60.04
63.69
67.52
70.93
73.66
75.81
77.84
80.35
83.75
87.88
91.96
94.83
95.2
92.41
86.69
79.26
71.93
66.31
63.1
61.6
60.08
56.3
48.76
37.65
25.08
14.6
9.91
13.61
25.98
44.83
65.7
83
91.5
88.04
73.06
50.85
28.64
14.05
12.21
23.47
43.18
63.35
75.71
74.62
58.66
30.49
-4.66
-40.9
-73.21
-98.16
-114.02
-120.7
-119.2
-111.46
-100.02
-87.7
-77.28
-71.14
-70.76
-76.2
-86.16
-98.16
-109.4
-117.58
-121.54
-121.58
-119.1
-115.98
-113.75
-113.26
-114.53
-117
-119.98
-122.82
-124.86
-125.32
-123.17
-117.3
-106.9
-91.82
-72.9
-51.94
-31.35
-13.65
-0.83
6.18
7.71
5.32
1.29
-2.05
-3.16
-1.69
1.32
4.13
5.13
3.67
0.64
-1.9
-1.49
3.68
14.03
28.34
44.06
57.95
66.74
67.84
60.04
44.05
22.66
0.21
-18.86
-31.68
-37.97
-40.1
-41.65
-45.46
-52.19
-60.08
-66.18
-68.08
-65.23
-59.03
-51.91
-45.78
-41.08
-36.64
-30.48
-21.22
-9.1
3.56
12.81
14.59
6.79
-9.61
-30.33
-49.4
-61.49
-64.07
-58.22
-47.69
-36.8
-28.4
-23.02
-19.6
-16.9
-14.73
-14.32
-17.3
-24.53
-35.11
-46.55
-55.76
-60.39
-59.79
-55.18
-49.12
-44.28
-42.36
-43.41
-45.91
-47.34
-45.21
-37.77
-24.42
-5.69
17.22
42.78
69.4
95.47
119.59
140.74
158.52
173.12
184.86
193.75
199.04
199.46
193.97
182.59
166.92
149.74
134.1
122.2
114.83
111.56
111.38
113.33
116.65
120.56
123.9
125.41
124.2
120.39
115.05
109.26
103.16
95.26
82.87
63.53
36.56
3.84
-30.73
-62.67
-88.34
-105.9
-115.29
-117.74
-115.13
-109.54
-102.98
-96.85
-91.03
-83.6
-71.28
-50.98
-21.84
13.42
48.78
76.81
91.7
91.96
81.15
66.56
56.2
55.38
64.76
80.35
95.65
104.59
104.01
94.6
80.08
65.24
53.81
47.14
44.37
43.46
42.65
41.16
39.13
36.86
33.88
28.65
19.09
3.76
-17.08
-41.09
-64.55
-83.91
-97.28
-105.09
-109.67
-113.71
-118.54
-123.19
-124.52
-118.67
-103.09
-78.06
-47.05
-15.75
9.98
26.11
31.97
30.37
26.57
26.41
34.51
52.76
79.69
110.87
139.89
159.96
165.76
155.12
130.09
96.54
62.6
35.89
20.94
17.76
22.16
27.64
27.78
18.27
-2.39
-32.96
-70.36
-110.31
-148.03
-178.96
-199.68
-208.82
-207.54
-199.24
-188.34
-178.89
-173.35
-172.16
-173.98
-176.45
-177.14
-174.17
-166.73
-155.17
-140.83
-125.83
-112.41
-102.54
-97.3
-96.84
-100.23
-105.88
-111.83
-116.24
-117.9
-116.48
-112.6
-107.48
-102.35
-97.91
-94.21
-90.72
-86.95
-82.61
-77.82
-72.93
-68.33
-64.24
-60.6
-57.13
-53.35
-48.76
-42.96
-35.95
-28.49
-21.93
-17.8
-17.14
-19.82
-24.46
-28.8
-30.5
-27.85
-20.23
-7.99
7.85
25.95
44.89
63.24
79.64
93.06
102.92
109.3
112.9
114.82
116.29
118.37
121.74
126.69
133.03
140.21
147.49
154.15
159.71
164.14
167.96
171.86
176.35
181.25
185.47
187.35
185.29
178.67
168.58
157.69
149.21
145.57
147.42
153.35
160.53
165.55
165.26
157.04
138.79
109.34
69.05
20.52
-31.23
-79.88
-119.69
-147.6
-164.18
-172.96
-178.29
-183.07
-187.54
-189.66
-186.84
-177.77
-163.36
-146.27
-129.6
-115.2
-103.18
-92.31
-81.23
-69.36
-57.34
-46.56
-38.26
-32.73
-29.16
-26.16
-22.53
-17.86
-12.82
-8.66
-6.45
-6.52
-8.16
-9.88
-10.22
-8.46
-4.93
-0.9
2.03
2.74
0.95
-2.67
-6.77
-9.83
-10.53
-7.91
-1.47
8.84
22.62
39.03
56.88
74.91
91.96
107.24
120.37
131.39
140.61
148.6
156.05
163.65
172
181.47
192.02
203.29
214.58
224.94
233.55
240.02
244.56
247.93
251.12
255.01
259.85
265.04
269.11
270.11
266.07
255.49
237.7
212.95
182.05
146.04
105.83
62.17
16.01
-31.07
-76.75
-118.29
-153.37
-180.83
-200.94
-214.84
-223.58
-227.26
-225.1
-216.11
-200.1
-178.5
-154.12
-130.23
-109.32
-92.34
-78.76
-67.34
-56.9
-47.03
-38.13
-30.89
-25.65
-22.07
-19.12
-15.49
-10.25
-3.26
4.56
11.53
15.76
15.94
11.79
4.31
-4.44
-12.05
-16.4
-16.52
-12.93
-7.64
-3.47
-3.07
-7.7
-16.42
-26.26
-33
-32.8
-23.64
-6.21
16.18
38.52
55.22
61.65
55.21
36.18
7.81
-24.56
-55.15
-79.61
-96.48
-107.3
-115.44
-124.12
-134.79
-146.64
-157.36
-164.46
-166.56
-163.77
-157.41
-149.14
-140.26
-131.47
-122.88
-114.5
-106.57
-99.74
-94.89
-92.73
-93.23
-95.37
-97.27
-96.55
-91.15
-80.02
-63.6
-43.84
-23.77
-6.8
4.19
7.82
4.85
-2.02
-8.88
-11.86
-8.2
2.99
20.84
42.93
65.74
84.99
96.29
96.3
84.29
63.25
39.4
20.33
12.14
17.07
33.12
55.55
79.32
101.25
120.41
137.24
152
163.86
171.18
172.62
168.17
159.37
148.64
138.15
128.89
120.47
111.65
101.4
89.79
78.11
68.36
62.06
59.19
58.1
56.19
51.08
41.63
28.45
13.62
-0.24
-11.08
-18.26
-22.83
-26.89
-32.81
-42.06
-54.71
-69.42
-84.05
-96.61
-105.95
-112.11
-115.9
-118.5
-121.22
-125.31
-131.84
-141.12
-152.1
-162
-166.87
-162.95
-148.42
-124.38
-94.61
-64.22
-37.94
-19.45
-11.52
-16.85
-38.04
-76.46
-130.04
-191.96
-251.37
-296.5
-319.09
-317.44
-296.78
-266.78
-237.38
-215.13
-201.77
-195.23
-191.93
-188.95
-184.82
-179.19
-171.89
-162.28
-149.35
-132.47
-112.1
-89.94
-68.53
-50.31
-36.87
-28.42
-23.74
-20.81
-17.5
-12.38
-4.92
4.42
14.61
24.53
33.34
40.89
47.66
54.47
61.99
70.45
79.34
87.76
94.8
99.95
103.34
105.63
107.87
111.1
116.3
124.16
134.86
147.91
161.81
174.21
182.48
184.79
180.84
172.3
162.6
155.83
155.46
163.06
177.71
196.23
214.03
226.26
228.9
219.66
198.47
167.79
132.18
97.57
69.89
53.57
50.29
58.53
73.95
90.57
102.53
105.43
97.27
78.62
52.32
22.93
-4.27
-24.58
-35.13
-35.67
-28.35
-16.67
-4.06
7.37
16.89
24.22
28.23
26.32
14.94
-8.38
-42.9
-83.58
-122.06
-149.45
-159.79
-152.36
-131.73
-105.54
-81.22
-63.24
-52.24
-45.99
-41.52
-36.82
-31.54
-26.38
-21.95
-18.02
-13.52
-7.67
-1.09
3.89
4.21
-1.94
-13.61
-26.89
-36.61
-38.93
-33.46
-23.49
-14.23
-10.21
-13.13
-21.48
-31.91
-41.14
-47.46
-50.91
-52.63
-53.82
-55.28
-57.48
-60.76
-65.5
-71.77
-78.94
-85.52
-89.4
-88.61
-82.14
-70.52
-55.5
-39.54
-24.8
-12.56
-3.12
3.81
8.63
11.62
12.95
13.12
13.02
13.83
16.48
21.25
27.45
33.69
38.43
40.61
40.04
37.37
33.69
29.94
26.74
24.14
21.8
19.16
15.69
10.94
4.65
-3.13
-11.9
-20.69
-28.23
-33.48
-36.1
-36.66
-36.55
-37.24
-39.52
-42.96
-46.02
-46.54
-42.76
-33.94
-20.68
-4.53
12.47
28.54
42.39
53.38
61.38
66.8
70.59
74.09
78.86
86.04
95.61
105.97
114.15
116.83
111.76
98.86
80.4
60.15
41.97
28.42
20.06
15.75
13.59
11.71
8.94
4.73
-1.09
-8.47
-17.21
-26.95
-37.14
-47.18
-56.63
-65.42
-73.81
-82.27
-91.08
-99.99
-108.05
-113.65
-115.07
-111.01
-101.19
-86.52
-68.94
-50.84
-34.39
-20.96
-10.92
-3.81
1.13
4.78
7.78
10.53
13.32
16.49
20.32
25.02
30.56
36.5
42.23
47.15
50.89
53.43
54.99
55.73
55.69
54.7
52.58
49.48
45.81
42.31
39.72
38.48
38.59
39.55
40.54
40.67
39.35
36.41
32.42
28.65
26.79
28.48
34.72
45.41
59.21
74.13
88.02
99.3
107.31
112.18
114.43
114.58
112.87
109.31
104.05
97.6
90.9
85.14
81.23
79.54
79.53
79.82
78.53
73.9
64.8
51.12
33.83
14.69
-3.86
-19.14
-28.53
-30.13
-23.44
-10.03
6.15
19.59
24.85
19.11
3.72
-15.68
-31.2
-36.06
-27.36
-7.13
19.15
45.1
65.84
78.75
82.81
77.57
62.76
39.15
9.73
-19.99
-43.53
-55.79
-55.48
-45.6
-31.88
-20.3
-14.67
-15.79
-22.06
-31.14
-41.22
-51.55
-62.07
-72.57
-82.34
-90.03
-94.39
-94.78
-91.53
-85.72
-78.61
-71.1
-63.41
-55.23
-46.08
-35.91
-25.25
-15.05
-6.17
0.92
6.32
10.71
15.03
20.35
27.63
37.55
50.47
66.39
85.01
105.66
127.4
148.93
168.65
184.66
194.8
196.89
189.25
171.42
144.75
112.7
80.13
52.07
32.04
20.84
16.59
15.82
15.25
13.3
10.46
8.31
8
9.14
9.72
7.32
0.53
-10.08
-22.17
-32.54
-38.52
-38.73
-33.27
-23.43
-11.45
-0.21
6.94
6.89
-2.16
-19.57
-41.89
-63.63
-79.11
-84.58
-79.29
-65.3
-46.06
-24.75
-3.41
16.86
35.06
49.55
58.2
59.43
53.57
43.36
33.39
28.4
31.33
42.16
57.79
73.21
83.27
84.55
76.13
59.78
38.93
17.28
-2.46
-19.27
-33.58
-46.39
-58.14
-68.19
-74.81
-76.08
-71.1
-60.82
-48.3
-38.1
-35.09
-43.11
-63.41
-93.6
-127.54
-156.39
-170.99
-164.94
-137.04
-92.11
-39.87
7.84
40.33
50.94
38.66
7.97
-32.69
-73.46
-105.78
-124.35
-127.96
-118.93
-101.68
-81.02
-61.02
-44.7
-34.23
-31.04
-35.55
-46.68
-61.77
-77.03
-88.77
-94.59
-94.14
-88.95
-81.7
-75.04
-70.72
-69.27
-70.16
-72.34
-74.77
-76.56
-76.74
-74.18
-67.7
-56.5
-40.78
-22.02
-2.58
14.96
28.71
38.11
43.78
46.99
48.88
50.03
50.37
49.71
48.11
46.16
44.76
44.77
46.53
49.66
52.97
54.73
53.31
47.71
38.24
26.75
16.35
10.8
13.45
25.97
47.31
73.52
98.17
113.96
114.9
98.47
67.23
28.57
-7.19
-29.97
-33.03
-15.12
19.34
61.74
101.76
129.89
139.45
127.68
96.44
51.75
2.45
-42.19
-75.39
-95.28
-105.34
-112.45
-123.4
-141.43
-164.84
-188.19
-205.31
-212.2
-208.62
-197.17
-181.02
-161.96
-139.83
-113.92
-84.72
-55.04
-29.39
-11.96
-4.32
-4.49
-7.87
-9.64
-7.34
-1.89
3.34
4.77
0.94
-6.66
-14.8
-20.83
-24.35
-27.5
-33.09
-42.09
-52.17
-58.28
-55.16
-40.13
-14.57
16.92
48.79
77.07
100.52
120.06
136.98
151.3
161.06
163.17
155.12
136.65
110.62
82.18
56.93
38.85
28.97
25.56
25.56
26.7
28.62
32.6
39.61
48.13
53.47
49.34
30.98
-1.65
-42.54
-81.44
-107.65
-114.3
-100.91
-73.18
-40.5
-12.68
2.7
1.51
-16.72
-49.01
-89.29
-129.27
-160.25
-175.5
-172.39
-153.15
-123.64
-90.93
-60.85
-36.7
-19.55
-9.26
-5.31
-7.01
-13.27
-22.3
-31.89
-40.1
-45.81
-49.02
-50.39
-50.87
-51.11
-51.35
-51.44
-51.07
-49.96
-47.99
-45.33
-42.32
-39.47
-37.3
-36.11
-35.85
-36.15
-36.45
-36.27
-35.49
-34.46
-33.89
-34.46
-36.3
-38.72
-40.17
-38.77
-32.95
-22.17
-7.06
10.64
28.81
45.57
59.72
70.77
78.77
83.97
86.75
87.61
87.27
86.54
86.31
87.1
89.08
91.99
95.33
98.52
101.12
102.81
103.34
102.57
100.31
96.41
90.83
83.66
75.19
65.84
56.21
46.93
38.6
31.59
25.98
21.45
17.4
13.18
8.41
3.2
-1.67
-4.98
-5.46
-2.28
4.58
14.26
25.27
35.89
44.66
50.64
53.6
53.67
51.32
47.16
41.84
36
30.28
25.22
21.27
18.73
17.71
18.17
19.81
22.07
24.17
25.26
24.57
21.71
16.74
10.35
3.61
-2.22
-6.12
-7.82
-8.19
-9.14
-13.09
-21.69
-35.03
-51.47
-68.15
-81.96
-90.25
-91.33
-84.67
-71.13
-53.06
-34.22
-18.83
-9.91
-7.54
-8.3
-6.43
3.51
23.91
52.88
85.03
114.03
135.15
146.59
149.07
144.43
134.27
119.31
99.92
76.84
51.87
27.7
6.91
-8.98
-20.32
-29.09
-37.92
-48.66
-61.38
-74.06
-83.41
-86.44
-81.92
-71.11
-57.31
-44.5
-35.89
-33.01
-35.5
-41.54
-48.31
-52.39
-50.24
-38.99
-17.61
12.05
44.99
74.21
93.21
98.76
92.47
80.19
69.3
65.22
69.26
78.63
88.54
94.82
95.76
92.09
85.58
77.35
67.03
53.42
35.69
14.49
-8.01
-29
-46.28
-59.17
-68.5
-76.03
-83.35
-91.22
-99.15
-105.85
-109.9
-110.44
-107.64
-102.63
-97.2
-93.12
-91.7
-93.23
-96.91
-101.1
-103.72
-102.88
-97.35
-86.89
-72.18
-54.59
-35.78
-17.29
-0.31
14.46
26.75
36.63
44.32
50.05
54.11
56.9
58.98
61.05
63.83
67.75
72.8
78.49
84.08
88.88
92.52
95.02
96.6
97.5
97.72
97.12
95.46
92.77
89.31
85.54
81.88
78.49
75.15
71.44
66.92
61.38
54.93
47.73
39.92
31.43
22.22
12.61
3.59
-3.3
-6.49
-5.11
0.4
8.19
15.52
19.69
19.01
13.34
3.99
-6.89
-16.77
-23.14
-23.64
-16.35
-0.52
22.59
49.17
73.3
88.96
92.71
85.54
72.91
62.23
59.17
64.99
76.15
86.77
91.91
89.88
81.94
70.24
55.31
35.37
8.07
-26.89
-65.89
-102.11
-128.28
-139.71
-135.87
-119.9
-96.62
-70.74
-46.2
-26.45
-14.91
-14.54
-26.27
-47.48
-72.07
-92.3
-101.63
-97.44
-81.7
-59.65
-37.4
-19.54
-8.16
-3.15
-3.31
-7.37
-14.45
-23.92
-34.88
-46.05
-56.05
-63.87
-69.3
-72.94
-75.96
-79.51
-84.12
-89.46
-94.44
-97.73
-98.47
-96.71
-93.54
-90.72
-90.03
-92.42
-97.5
-103.58
-108.09
-108.54
-103.38
-92.49
-77.11
-59.36
-41.31
-24.53
-9.76
2.93
13.67
22.51
29.25
33.68
35.81
36.22
35.89
35.99
37.41
40.4
44.44
48.46
51.17
51.58
49.42
45.18
39.99
35.26
32.07
30.8
31.02
31.57
31.13
28.93
25.12
20.91
18.19
18.73
23.52
32.43
44.15
56.78
68.67
79.01
88.13
97.31
108.21
121.85
137.94
154.1
166.32
170.16
162.47
143.06
115.59
87.02
65.52
58.27
67.94
91.88
122.83
151.38
169.04
170.83
156.18
128.12
92.75
55.61
20.59
-10.55
-37.85
-62.08
-83.58
-101.93
-116.39
-124.51
-125.61
-120.73
-112.7
-105.72
-104.23
-111.65
-129.16
-155.26
-182.91
-203.93
-210.28
-197.03
-164.62
-119.04
-70.15
-23.32
5.88
17.25
14.16
2.68
-11.36
-24.64
-36.85
-49.79
-66.12
-87.92
-113.18
-139.24
-162.32
-178.39
-183.78
-175.48
-151.73
-113.35
-64.24
-9.24
44.09
88.02
116.67
126.59
117.83
97.18
71.39
45.2
23.19
7.47
-1.96
-6.77
-9.43
-12.07
-15.82
-21.05
-26.83
-30.54
-29.38
-20.98
-4.17
20.58
51.19
84.5
116.75
145.08
168.35
186.75
201.29
213.24
223.57
232.93
241.6
249.14
254.78
257.55
256.51
251
241.07
227.38
210.95
192.68
172.94
151.67
128.64
103.57
76.37
47.24
16.7
-14.55
-45.73
-76.37
-106.47
-136.68
-168.3
-202.78
-240.9
-281.82
-322.74
-359.18
-386.08
-399.34
-397.03
-380.03
-351.58
-316.22
-278.55
-242.23
-209.65
-182.06
-159.99
-143.43
-131.93
-124.54
-119.85
-116.21
-112.02
-106.14
-98.18
-88.59
-78.37
-68.68
-60.39
-53.78
-48.75
-44.91
-42.02
-40.11
-39.4
-40.03
-41.84
-44.18
-46.07
-46.6
-45.32
-42.63
-39.93
-39.2
-42.17
-49.3
-59
-67.55
-70.33
-63.57
-46.06
-19.84
10.77
40.85
66.68
86.48
100.12
108.47
112.89
115.3
118.17
123.9
133.54
145.41
154.95
156.36
145.6
123.04
94.02
66.84
49.13
44.52
51.36
64.13
76.18
82.5
80.88
71.68
56.43
36.76
13.82
-11.29
-37.18
-61.89
-83.48
-100.85
-114.16
-124.73
-134.35
-144.12
-153.73
-161.3
-163.98
-159.16
-145.59
-123.84
-96.01
-64.96
-33.43
-3.41
23.97
48.3
69.72
88.58
105.25
119.79
131.99
141.59
148.7
153.89
158.04
161.8
165.14
167.37
167.7
166.01
163.22
160.97
160.48
161.49
161.72
157.69
146.39
126.95
101.24
73.41
48.37
30.01
20.04
17.66
19.97
22.9
22.18
14.28
-2.45
-26.79
-54.36
-78.54
-92.4
-91.31
-74.74
-46.62
-13.74
16.7
39.47
52.39
55.98
52.23
43.25
30.79
16.22
1.07
-12.72
-23.18
-28.9
-29.65
-26.62
-22.08
-18.47
-17.53
-19.64
-23.86
-28.6
-32.48
-35.01
-36.71
-38.72
-42.08
-47.05
-52.9
-58.25
-61.74
-62.55
-60.81
-57.44
-53.64
-50.52
-48.85
-48.96
-50.92
-54.68
-59.95
-66.22
-72.59
-77.82
-80.65
-80.17
-76.13
-68.98
-59.6
-48.85
-37.24
-24.9
-11.86
1.64
15
27.43
38.3
47.49
55.4
62.61
69.57
76.36
82.63
87.91
91.83
94.21
95.04
94.31
91.93
87.81
81.99
74.73
66.52
57.97
49.6
41.76
34.49
27.56
20.64
13.31
5.36
-3.19
-11.82
-19.67
-25.49
-28.12
-26.89
-21.85
-13.92
-4.51
4.95
13.39
20.31
25.67
29.61
32.21
33.43
33.21
31.67
29.19
26.4
23.95
22.32
21.73
21.99
22.75
23.47
23.72
23.2
21.83
19.68
16.91
13.74
10.31
6.81
3.35
0.02
-3.09
-5.97
-8.69
-11.44
-14.4
-17.64
-20.93
-23.72
-25.13
-24.28
-20.59
-14.1
-5.52
3.92
12.92
20.5
26.21
30.14
32.58
33.79
33.85
32.65
30.15
26.53
22.28
18.07
14.59
12.29
11.22
11.11
11.51
11.91
11.96
11.51
10.55
9.2
7.58
5.77
3.78
1.63
-0.8
-3.59
-6.91
-10.87
-15.39
-20.2
-24.77
-28.3
-29.98
-29.15
-25.5
-19.26
-11.12
-2.04
6.92
14.91
21.4
26.05
28.71
29.33
27.96
24.85
20.64
16.16
12.4
10.02
9.17
9.49
10.22
10.58
10.08
8.67
6.6
4.24
1.78
-0.79
-3.61
-6.77
-10.32
-14.21
-18.37
-22.8
-27.34
-31.6
-34.89
-36.26
-34.82
-30.13
-22.46
-12.73
-2.3
7.54
15.85
22.2
26.54
29.06
30
29.57
27.98
25.51
22.62
19.87
17.76
16.55
16.22
16.44
16.7
16.53
15.58
13.81
11.36
8.54
5.56
2.53
-0.57
-3.85
-7.43
-11.45
-16.01
-21.11
-26.54
-31.79
-36.05
-38.39
-37.99
-34.44
-27.97
-19.39
-9.89
-0.65
7.48
14.02
18.93
22.32
24.41
25.34
25.21
24.16
22.43
20.36
18.35
16.8
15.89
15.7
16.06
16.71
17.28
17.48
17.13
16.18
14.74
12.86
10.6
7.96
4.86
1.26
-2.9
-7.59
-12.73
-18.09
-23.35
-27.96
-31.19
-32.23
-30.46
-25.71
-18.36
-9.33
0.24
9.18
16.72
22.57
26.69
29.32
30.69
31.06
30.67
29.76
28.52
27.13
25.8
24.68
23.94
23.68
23.83
24.2
24.47
24.37
23.84
23.04
22.26
21.72
21.46
21.27
20.83
19.96
18.67
17.27
16.05
15.18
14.55
13.75
12.3
9.97
7.02
4.27
2.84
3.58
6.83
12.2
18.82
25.76
32.36
38.29
43.5
47.83
50.9
52.19
51.31
48.24
43.5
37.99
32.61
28.1
24.66
22.07
19.88
17.66
15.07
12.11
8.87
5.46
1.95
-1.77
-5.81
-10.15
-14.56
-18.86
-22.74
-26.08
-28.91
-31.38
-33.78
-36.47
-39.76
-43.87
-48.82
-54.2
-59.24
-62.92
-64.18
-62.38
-57.57
-50.42
-42.13
-33.98
-26.97
-21.67
-18.15
-16.19
-15.48
-15.74
-16.74
-18.31
-20.18
-22.03
-23.53
-24.46
-24.69
-24.28
-23.37
-22.15
-20.83
-19.62
-18.76
-18.52
-19.11
-20.59
-22.81
-25.46
-28.12
-30.44
-32.21
-33.43
-34.32
-35.19
-36.35
-37.99
-40.1
-42.43
-44.5
-45.69
-45.34
-42.96
-38.48
-32.19
-24.79
-17.22
-10.37
-4.93
-1.26
0.63
0.95
-0.01
-1.99
-4.74
-8.03
-11.58
-15.04
-18.1
-20.51
-22.18
-23.22
-23.87
-24.37
-24.9
-25.55
-26.37
-27.41
-28.71
-30.24
-31.94
-33.66
-35.24
-36.61
-37.74
-38.71
-39.63
-40.55
-41.49
-42.3
-42.76
-42.49
-40.98
-37.75
-32.55
-25.45
-16.99
-8.02
0.53
7.9
13.62
17.59
19.89
20.71
20.26
18.74
16.39
13.5
10.47
7.64
5.33
3.71
2.83
2.62
2.95
3.59
4.36
5.1
5.62
5.84
5.62
4.92
3.74
2.13
0.26
-1.69
-3.53
-5.15
-6.56
-7.95
-9.52
-11.36
-13.36
-15.05
-15.78
-14.95
-12.23
-7.72
-2
4.14
9.9
14.69
18.22
20.41
21.32
21.01
19.6
17.28
14.34
11.23
8.43
6.35
5.27
5.22
5.97
7.17
8.39
9.34
9.88
9.93
9.56
8.86
7.84
6.5
4.83
2.82
0.57
-1.89
-4.56
-7.48
-10.65
-13.95
-17.05
-19.38
-20.34
-19.44
-16.5
-11.82
-6.08
-0.14
5.23
9.49
12.41
13.97
14.3
13.63
12.19
10.26
8.14
6.13
4.5
3.43
2.99
3.15
3.81
4.73
5.67
6.35
6.55
6.18
5.32
4.09
2.66
1.08
-0.63
-2.48
-4.5
-6.74
-9.24
-12
-14.97
-17.97
-20.58
-22.27
-22.42
-20.67
-16.95
-11.6
-5.23
1.37
7.48
12.52
16.18
18.33
19.01
18.35
16.53
13.81
10.51
7.09
4.02
1.68
0.29
-0.16
0.11
0.78
1.52
2.1
2.43
2.52
2.38
2.05
1.52
0.73
-0.37
-1.88
-3.86
-6.42
-9.56
-13.17
-16.9
-20.16
-22.17
-22.23
-19.93
-15.31
-8.88
-1.44
6.07
12.89
18.57
22.96
26.12
28.14
29.1
29.01
28
26.3
24.38
22.83
22.2
22.87
24.83
27.75
31.09
34.18
36.59
38.1
38.89
39.41
40.17
41.57
43.75
46.45
49.17
51.33
52.39
52.03
50.26
47.38
44.02
41.07
39.35
39.44
41.3
44.2
47
48.6
48.58
47.42
46.46
47.35
51.42
59.14
69.96
82.54
95.2
106.41
115.21
121.27
124.74
126.06
125.62
123.7
120.46
116.03
110.5
104
96.51
87.87
77.93
66.78
54.79
42.73
31.35
21.09
11.87
3.12
-5.82
-15.36
-25.24
-34.63
-42.12
-46.35
-46.43
-42.27
-34.73
-25.38
-15.99
-7.94
-1.9
2.39
5.71
8.91
12.51
16.49
20.58
24.56
28.59
33.2
39.14
46.98
56.81
68.03
79.48
89.79
97.77
102.82
104.95
104.68
102.67
99.43
95.2
89.87
83.37
75.74
67.28
58.41
49.54
40.91
32.53
24.44
16.79
10
4.59
0.92
-1.19
-2.64
-4.86
-9.52
-17.79
-30.09
-45.88
-63.92
-82.55
-100.04
-114.9
-126.02
-132.88
-135.61
-135
-132.28
-128.87
-125.92
-124.16
-123.91
-125.18
-127.92
-132.11
-137.7
-144.43
-151.53
-157.36
-159.67
-156.06
-144.96
-126.65
-103.84
-81.22
-64.08
-56.39
-59.21
-70.26
-84.82
-97.39
-103.57
-101.23
-90.71
-74.37
-55.82
-39.03
-27.88
-25.36
-32.85
-49.69
-72.91
-97.8
-118.9
-131.41
-132.41
-121.63
-101.4
-75.81
-49.7
-27.19
-10.7
-0.43
5.32
9.61
15.96
27.88
48.25
78.49
117.48
160.78
200.89
228.87
237.25
222.77
187.56
138.3
83.3
29.64
-18.69
-60.51
-96.03
-125.17
-147.03
-160.59
-165.76
-163.86
-156.75
-145.39
-128.59
-103.7
-68.89
-25.93
18.48
54.32
72.27
68.15
45.14
12.28
-20.02
-44.85
-61.46
-74.41
-89.8
-111.02
-136.62
-161.19
-178.53
-184.93
-180.77
-169.66
-156.13
-143.32
-131.79
-120.21
-106.9
-91.45
-75.33
-61.04
-50.71
-44.9
-42.14
-39.85
-35.71
-28.79
-19.81
-10.55
-2.6
3.56
8.81
15.07
24.09
36.51
51.36
66.39
78.88
86.74
89.38
88.06
85.87
86.86
94.47
109.82
130.58
151.03
163.76
162.5
144.91
114.22
78.4
47.3
28.98
26.84
38.9
59.42
81.55
99.9
111.76
116.73
115.48
108.78
96.97
80.5
60.45
38.76
17.87
-0.13
-14.13
-24.11
-30.68
-34.57
-36.07
-34.99
-30.88
-23.5
-13.16
-1
10.94
20.05
23.77
20.48
10.45
-4.07
-19.62
-33.2
-43.68
-52.36
-62.04
-75.12
-91.95
-110.17
-125.74
-134.78
-135.39
-128.23
-115.92
-101.79
-88.65
-78.24
-71.37
-68.27
-68.79
-72.42
-78.12
-84.26
-89.05
-91.03
-89.52
-84.78
-77.92
-70.4
-63.4
-57.6
-53.09
-49.57
-46.74
-44.41
-42.57
-41.23
-40.41
-40.07
-40.1
-40.44
-40.99
-41.63
-42.2
-42.53
-42.66
-42.83
-43.58
-45.32
-48.04
-51.03
-52.89
-51.92
-46.75
-36.88
-22.82
-6.16
11.09
26.9
39.84
49.18
54.9
57.41
57.3
55.23
51.89
48.11
44.84
42.97
43.05
45.1
48.5
52.21
55.22
56.86
57.04
56.08
54.42
52.32
49.68
46.17
41.46
35.44
28.39
20.84
13.34
6.28
-0.22
-6.26
-11.83
-16.64
-20.25
-22.13
-22.15
-20.72
-18.6
-16.53
-14.63
-12.17
-7.8
-0.14
11.5
26.66
43.84
61.05
76.5
88.87
97.12
100.36
97.86
89.54
76.58
61.54
47.85
38.54
35.22
37.5
43.39
50.35
56.4
60.57
62.84
63.61
63.08
61.1
57.27
51.28
43.19
33.65
23.8
14.93
8.03
3.27
-0.11
-3.46
-8.13
-14.8
-23.27
-32.61
-41.71
-49.81
-56.74
-62.73
-68.15
-73.24
-78.02
-82.46
-86.66
-90.66
-94.21
-96.5
-96.17
-91.73
-82.19
-67.63
-49.38
-29.57
-10.44
6.31
19.91
30.29
37.9
43.16
46.52
48.45
49.58
50.7
52.46
55.15
58.55
62.07
65
66.91
67.75
67.75
67.28
66.55
65.54
64.09
61.98
59.08
55.39
51.01
46.11
40.97
35.8
30.83
26.17
21.72
17.28
12.59
7.58
2.36
-2.68
-7.15
-10.8
-13.73
-16.4
-19.51
-23.64
-29.04
-35.38
-41.71
-46.73
-49.05
-47.64
-42.15
-33.03
-21.39
-8.64
3.82
14.88
23.9
30.65
35.17
37.72
38.66
38.45
37.62
36.67
36.07
36.12
36.98
38.6
40.78
43.24
45.64
47.68
49.19
50.14
50.55
50.43
49.75
48.39
46.32
43.55
40.32
36.96
33.78
30.95
28.43
26.1
23.83
21.6
19.5
17.62
15.9
14.15
12.08
9.48
6.31
2.78
-0.77
-4
-6.78
-9.24
-11.68
-14.47
-17.86
-21.94
-26.59
-31.42
-35.82
-38.94
-39.85
-37.8
-32.5
-24.38
-14.46
-4.15
5.25
12.87
18.42
22.14
24.42
25.65
26.1
26.02
25.79
25.82
26.62
28.44
31.25
34.71
38.3
41.56
44.22
46.2
47.5
48.22
48.34
47.89
46.84
45.29
43.32
41.03
38.5
35.76
32.87
29.73
26.35
22.59
18.39
13.83
9.08
4.45
0.18
-3.68
-7.36
-11.24
-15.72
-20.98
-26.85
-32.84
-38.26
-42.35
-44.4
-43.91
-40.54
-34.32
-25.66
-15.28
-4.19
6.46
15.6
22.38
26.42
27.97
27.96
28.08
30.46
37.18
49.61
67.75
90.09
113.95
136.32
154.62
167.14
173.13
172.7
166.72
156.79
145.02
133.57
123.87
115.97
108.3
98.48
84.47
65.87
44.28
22.79
4.61
-8.12
-15.08
-17.57
-17.73
-17.73
-19.07
-22.62
-28.81
-37.9
-50.06
-65.14
-82.24
-99.49
-114.35
-124.29
-127.7
-124.61
-116.77
-106.96
-98
-91.71
-88.45
-87.31
-86.75
-85.23
-81.78
-76.25
-69.17
-61.57
-54.63
-49.52
-46.99
-47.04
-48.83
-50.67
-50.59
-46.86
-38.58
-25.85
-9.79
7.84
25.15
40.19
51.28
57.26
58.1
55.3
51.85
51.12
55.33
64.26
74.84
82.29
82.16
72.12
52.64
26.1
-4.68
-37.64
-71.43
-104.58
-134.58
-158.03
-171.75
-174.41
-167.4
-154.38
-139.82
-127.28
-118.39
-112.77
-108.96
-105.46
-101.34
-96.29
-90.32
-83.38
-75.27
-65.71
-54.36
-41.17
-26.65
-11.83
1.76
12.59
19.77
23.42
24.58
24.89
25.7
27.61
30.29
32.76
33.99
33.39
31.04
27.67
24.44
22.5
22.78
25.57
30.44
36.3
41.86
45.91
47.69
46.88
43.58
38.48
32.89
28.52
26.67
27.46
29.19
29.08
24.76
15.99
5.55
-1.49
0.01
12.92
36.57
66.99
98.57
125.94
145.2
154.1
151.64
137.76
113.53
81.42
45.47
10.84
-17.05
-33.89
-37.49
-28.64
-11.15
9.1
25.86
34.51
33.51
24.42
10.47
-5.21
-20.7
-35.34
-48.91
-60.96
-70.84
-78.54
-85.38
-93.91
-106.31
-122.79
-140.87
-156.17
-164.32
-162.85
-152.02
-134.36
-113.35
-92.12
-72.87
-56.89
-44.82
-36.89
-33.15
-33.47
-37.54
-44.67
-53.7
-63.15
-71.51
-77.69
-81.47
-83.5
-84.87
-86.51
-88.73
-91.08
-92.55
-91.99
-88.43
-81.54
-71.79
-60.36
-48.75
-38.4
-30.18
-24.25
-20.13
-17.23
-15.13
-13.77
-13.25
-13.2
-12.7
-10.4
-5.07
3.71
15.1
27.14
37.52
44.49
47.69
48.2
48.14
49.83
55.14
65.34
80.9
101.28
124.51
147.13
164.71
173.37
171.47
160.55
144.88
129.36
117.09
107.91
99.16
87.79
72.99
57.14
44.72
40.02
44.65
56.62
70.98
81.67
83.33
72.76
49.48
15.44
-25.49
-68.44
-108.49
-141.54
-165.01
-178.13
-181.68
-177.54
-168.21
-156.4
-144.73
-135.33
-129.54
-127.6
-128.73
-131.44
-134.15
-135.69
-135.44
-133.34
-129.47
-123.8
-116.08
-105.86
-92.84
-77.21
-59.87
-42.22
-25.88
-12.03
-1.25
6.58
12.02
15.8
18.66
21.19
23.87
27.07
30.95
35.5
40.42
45.24
49.45
52.64
54.65
55.64
55.9
55.77
55.45
54.86
53.7
51.53
48.1
43.45
38.01
32.4
27.18
22.59
18.49
14.49
10.1
4.96
-1.13
-8.22
-16.26
-25.09
-34.24
-42.82
-49.54
-52.92
-51.77
-45.72
-35.33
-22.11
-7.94
5.38
16.65
25.28
31.23
34.72
36.04
35.56
33.75
31.3
29
27.62
27.68
29.28
32.13
35.56
38.85
41.35
42.69
42.81
41.94
40.43
38.6
36.61
34.34
31.51
27.7
22.68
16.53
9.59
2.52
-4
-9.28
-13.02
-15.24
-16.42
-17.38
-19.06
-22.26
-27.31
-33.64
-39.73
-43.42
-42.58
-35.89
-23.47
-6.9
11.2
28.1
41.76
51.29
56.78
58.99
58.75
56.75
53.58
49.88
46.5
44.47
44.7
47.69
53.42
61.48
71.22
82.08
93.69
105.83
118.22
130.41
141.69
151.31
158.61
163.11
164.39
161.98
155.32
143.99
128.01
108.11
85.77
62.93
41.55
23.07
8.09
-3.68
-13.17
-21.65
-30.28
-39.76
-49.98
-59.89
-67.71
-71.37
-69
-59.57
-43.29
-21.73
2.24
24.72
41.62
49.47
46.7
34.38
16.37
-1.73
-14.38
-17.96
-11.91
1.5
18.48
35.47
50.04
61.16
68.46
71.53
69.69
62.37
49.79
33.4
15.7
-0.44
-12.69
-19.68
-21.22
-18.16
-12.12
-5.09
0.87
3.83
2.16
-5.57
-20.29
-42.06
-69.44
-99.08
-125.91
-144.29
-149.73
-140.84
-120.2
-93.81
-69.19
-52.61
-46.87
-50.74
-59.97
-69.58
-75.85
-76.99
-72.47
-61.98
-45.24
-22.78
2.62
25.58
39.53
39.61
25.82
3.88
-16.66
-26.49
-20.44
0.67
30.92
62.28
87.57
102.3
105.04
96.54
78.88
54.82
27.53
0.33
-23.78
-42.74
-55.96
-64.51
-70.92
-78.25
-89.07
-104.29
-122.63
-140.6
-153.71
-158.08
-152.03
-136.8
-116.1
-94.68
-76.72
-64.44
-57.57
-53.94
-50.62
-45.31
-37.24
-27.3
-17.39
-9.31
-3.73
0.37
5.15
12.97
25.16
41.24
58.82
74.25
83.73
84.75
77.14
63.59
49.24
40.28
41.92
56.24
81.22
111.21
138.9
157.99
165.1
160.51
147.45
130.54
114.24
101.63
94.02
90.96
90.78
91.27
90.72
88.4
84.75
80.86
77.42
74.2
70.15
64.37
57.11
50.05
45.29
43.7
43.56
40.53
29.57
7.81
-23.04
-56.31
-82.53
-93.22
-84.44
-58.38
-22.16
15.19
46.04
66.27
75.4
75.25
68.39
57.11
43.31
28.94
16.1
6.53
0.84
-1.81
-3.47
-6.65
-13.25
-23.91
-37.85
-53.27
-68.1
-80.72
-90.44
-97.48
-102.63
-106.68
-109.86
-111.6
-110.8
-106.38
-97.81
-85.42
-70.32
-54
-37.89
-23.32
-11.4
-3.33
-0.09
-2.07
-8.53
-17.41
-25.73
-30.46
-29.83
-24.15
-15.76
-8.16
-4.38
-5.69
-11.07
-17.75
-22.34
-22.17
-16.12
-5
8.74
21.45
29.07
28.16
17.06
-3.25
-29.06
-55.08
-76.31
-89.82
-95.57
-95.83
-93.54
-90.69
-87.26
-81.37
-70.34
-52.34
-27.7
0.48
26.99
46.3
54.77
52.32
42.57
31.25
23.56
21.79
24.55
28.02
28.26
23.29
13.72
1.9
-9.68
-19.47
-27.04
-32.42
-35.65
-36.78
-36.39
-36.05
-38.12
-44.82
-56.8
-72.31
-87.35
-97.09
-97.61
-87.43
-67.93
-42.72
-16.46
6.43
22.63
30.36
29.48
21.45
8.93
-4.7
-16.12
-22.75
-23.41
-18.35
-8.79
3.9
18.89
35.92
54.57
73.42
89.48
98.88
98.35
86.94
66.74
42.12
17.83
-2.77
-18.06
-27.28
-29.44
-23.33
-8.74
11.74
32.53
46.81
49.9
41.92
27.97
15.5
10.41
14.1
23.2
32.04
35.79
32.49
23.01
9.4
-6.52
-23.59
-40.57
-55.33
-64.85
-66.39
-59.3
-46.03
-31.98
-23.67
-26.12
-40.68
-64.31
-90.61
-112.05
-122.54
-119.09
-102.33
-75.65
-43.73
-10.93
19.56
45.98
67.45
83.56
94.23
99.95
101.79
101.14
99.19
96.44
92.89
88.54
84.04
80.71
79.9
81.78
84.56
84.82
78.93
65.24
45.54
25.04
10.47
7.34
17.65
39.14
66.31
92.51
112.31
122.72
123.34
115.36
100.47
80.13
55.73
28.98
2.11
-22.45
-42.83
-58.46
-70.35
-80.63
-91.47
-103.95
-117.29
-129.1
-136.14
-135.81
-127.16
-111.34
-91.11
-69.71
-49.98
-33.62
-21.25
-12.81
-8.04
-6.68
-8.35
-12.35
-17.46
-22.24
-25.31
-25.88
-23.78
-19.54
-13.95
-7.88
-2.04
3.03
6.77
8.68
8.41
5.9
1.51
-3.91
-9.3
-13.65
-16.31
-17.18
-16.7
-15.64
-14.92
-15.26
-17.02
-20.19
-24.41
-29.08
-33.34
-36.19
-36.52
-33.48
-26.64
-16.32
-3.53
10.16
23.03
33.69
41.38
45.97
47.84
47.58
45.79
43.09
40.09
37.4
35.51
34.65
34.6
34.79
34.6
33.54
31.57
29.06
26.56
24.54
23.1
21.94
20.52
18.33
15.16
11.15
6.8
2.75
-0.46
-2.68
-4.25
-5.87
-8.48
-12.85
-19.4
-27.85
-37.23
-46.02
-52.51
-55.27
-53.64
-47.97
-39.51
-29.97
-21.07
-13.84
-8.52
-4.53
-0.95
3.05
7.84
13.21
18.66
23.8
28.7
33.9
40.22
48.22
57.87
68.31
78.08
85.66
90.06
91.33
90.51
89.31
89.3
91.33
95.13
99.58
103.34
105.72
106.94
107.69
108.71
110.26
112.37
115.17
119.03
123.88
128.34
129.27
122.53
104.9
76.24
40.26
3.48
-27.6
-49.08
-60.96
-66.29
-68.84
-71.02
-73.21
-74.5
-74.01
-71.66
-67.91
-62.85
-55.75
-45.09
-29.7
-9.8
12.51
33.62
49.4
56.47
53.2
40.24
20.57
-1.23
-20.33
-33.3
-39.85
-43.31
-49.6
-64.55
-91.03
-126.91
-165.48
-197.83
-216.51
-218.45
-205.83
-184.73
-162.32
-144.17
-132.65
-127
-124.37
-121.1
-113.88
-100.48
-80.51
-55.71
-29.83
-7.56
7.28
13.4
12.89
10.52
11.85
20.88
38.55
62.52
88.28
110.91
126.54
133.3
131.37
122.53
109.52
95.37
82.88
74.14
70.21
70.78
74.17
77.68
78.26
73.52
62.52
46.04
26.22
5.73
-13.21
-29.44
-43.03
-54.89
-66.24
-78
-90.49
-103.5
-116.33
-128.08
-137.8
-144.57
-147.53
-146.02
-139.6
-128.32
-112.92
-94.82
-75.94
-58.25
-43.25
-31.71
-23.65
-18.54
-15.76
-14.8
-15.3
-16.9
-19.09
-21
-21.73
-20.58
-17.3
-12.24
-6.15
0.14
5.94
10.96
15.24
18.99
22.34
25.28
27.58
29.02
29.53
29.26
28.45
27.43
26.35
25.28
24.28
23.43
22.97
23.08
23.88
25.41
27.85
31.64
37.8
47.53
61.74
80.54
103.08
127.72
152.34
174.49
191.48
200.62
199.81
188.28
167.22
139.67
109.63
80.79
55.43
34.22
16.78
2.56
-8.56
-16.33
-20.83
-22.87
-24.02
-25.92
-29.63
-35.19
-41.82
-48.41
-54.07
-58.61
-62.36
-65.82
-69.23
-72.35
-74.68
-75.74
-75.55
-74.67
-74.09
-74.78
-77.25
-81.25
-85.78
-89.25
-90.04
-86.88
-79.26
-67.6
-53.08
-37.34
-22.11
-8.81
1.75
9.32
14.19
16.98
18.36
19
19.45
20.15
21.43
23.49
26.4
30
33.86
37.4
40
41.21
40.9
39.33
36.95
34.23
31.53
28.99
26.57
24.2
21.8
19.34
16.81
14.21
11.47
8.63
5.75
2.87
0.11
-2.59
-5.35
-8.36
-11.86
-16.03
-20.81
-25.79
-30.19
-32.88
-32.66
-28.67
-20.73
-9.55
3.4
16.33
27.66
36.42
42.44
46.18
48.36
49.66
50.56
51.29
51.99
52.75
53.53
54.25
54.66
54.57
53.89
52.7
51.19
49.51
47.63
45.39
42.56
39.02
34.92
30.58
26.33
22.39
18.77
15.28
11.7
7.9
3.88
-0.15
-3.82
-6.78
-8.83
-10.08
-11.03
-12.43
-14.99
-19.15
-24.73
-30.92
-36.36
-39.51
-39.05
-34.29
-25.47
-13.61
-0.37
12.47
23.45
31.71
37.09
39.88
40.55
39.49
37.01
33.38
29
24.41
20.18
16.78
14.45
13.04
12.22
11.57
10.73
9.53
7.96
6.06
3.87
1.45
-1.21
-4.09
-7.14
-10.32
-13.57
-16.8
-19.98
-23.09
-26.12
-29.14
-32.16
-35.25
-38.5
-41.98
-45.75
-49.8
-54.01
-58
-61.13
-62.56
-61.51
-57.59
-50.93
-42.22
-32.55
-23.04
-14.66
-7.98
-3.14
-0.07
1.43
1.55
0.59
-1.13
-3.07
-4.64
-5.3
-4.79
-3.2
-1
1.16
2.78
3.63
3.83
3.71
3.45
3.03
2.17
0.51
-2.11
-5.61
-9.63
-13.69
-17.38
-20.54
-23.22
-25.64
-28.09
-30.84
-34.04
-37.62
-41.23
-44.18
-45.6
-44.64
-40.79
-34.08
-25.2
-15.3
-5.71
2.47
8.5
12.17
13.62
13.2
11.34
8.48
5.08
1.65
-1.32
-3.46
-4.63
-4.95
-4.76
-4.53
-4.6
-5.16
-6.19
-7.51
-9.07
-10.94
-13.38
-16.68
-21.07
-26.56
-32.84
-39.44
-45.8
-51.51
-56.4
-60.64
-64.7
-69.21
-74.83
-81.84
-89.88
-97.69
-103.31
-104.55
-99.59
-87.64
-69.12
-45.55
-19.1
7.93
33.38
55.45
72.84
84.85
91.49
93.51
92.15
88.77
84.56
80.24
76.07
71.95
67.61
62.75
57.12
50.6
43.22
35.22
26.97
18.99
11.74
5.57
0.56
-3.5
-6.99
-10.37
-14.07
-18.29
-22.95
-27.7
-32.07
-35.61
-38.03
-39.34
-39.81
-39.92
-40.27
-41.28
-43.07
-45.35
-47.35
-47.99
-46.31
-41.79
-34.57
-25.48
-15.72
-6.44
1.57
8.09
13.26
17.41
20.8
23.57
25.81
27.65
29.32
31.08
33.09
35.28
37.34
38.85
39.38
38.69
36.75
33.71
29.88
25.71
21.58
17.83
14.67
12.09
9.96
8.08
6.25
4.42
2.69
1.3
0.41
0.12
0.31
0.79
1.32
1.69
1.68
1.09
-0.28
-2.49
-5.32
-8.19
-10.29
-10.78
-9.21
-5.69
-0.94
4.01
8.23
11.18
12.8
13.31
13.06
12.25
10.99
9.38
7.66
6.24
5.61
6.14
7.87
10.51
13.55
16.41
18.67
20.16
20.95
21.2
21.08
20.7
20.12
19.35
18.36
17.16
15.76
14.24
12.58
10.85
9.04
7.17
5.2
3.02
0.52
-2.41
-5.8
-9.53
-13.21
-16.22
-17.78
-17.2
-14.17
-8.87
-1.94
5.67
13.01
19.37
24.4
28.04
30.42
31.74
32.13
31.79
30.91
29.83
28.9
28.42
28.49
29.04
29.78
30.3
30.25
29.43
27.87
25.77
23.35
20.7
17.87
14.79
11.46
8.04
4.8
2.08
0.06
-1.34
-2.51
-3.95
-6.17
-9.34
-13.25
-17.42
-21.11
-23.55
-24.11
-22.49
-18.72
-13.28
-6.92
-0.52
5.1
9.4
12.22
13.67
14.03
13.57
12.45
10.81
8.82
6.65
4.64
3.07
2.16
1.94
2.25
2.75
3.04
2.78
1.77
0.01
-2.42
-5.3
-8.46
-11.83
-15.36
-18.99
-22.56
-25.76
-28.1
-29.13
-28.44
-25.94
-22.04
-17.54
-13.55
-10.98
-10.12
-10.36
-10.31
-8.2
-2.53
7.51
22.01
40.56
62.57
87.51
114.84
143.94
174.23
205.52
238.38
273.84
312.49
353.36
393.36
427.72
451.56
461.87
458.63
444.62
424.05
400.64
376.57
352.34
327.58
302
276.04
250.62
226.53
204.03
182.66
161.69
140.52
119.06
97.69
77.22
58.33
41.34
26.15
12.28
-0.98
-14.36
-28.48
-43.73
-60.23
-77.78
-95.93
-114.05
-131.57
-148.28
-164.6
-181.59
-200.55
-222.39
-246.87
-272.26
-295.8
-314.75
-327.65
-334.9
-338.67
-341.93
-347.64
-358.16
-375.15
-399.1
-428.57
-459.42
-484.8
-496.78
-489.18
-460.41
-414.75
-360.88
-308.54
-264.93
-232.73
-210.53
-195.04
-183.3
-173.82
-166.28
-160.41
-155.2
-149.11
-140.86
-130.35
-118.83
-108.51
-101.34
-98.01
-97.37
-96.68
-92.37
-81.27
-61.66
-34
-1.11
32.54
62.04
83.59
95.68
99.66
99.06
98.15
100.43
107.81
120.68
138.35
159.24
180.79
199.17
209.77
208.52
193.6
166.62
132.34
96.95
65.82
41.97
25.83
16.24
11.61
10.56
11.89
14.03
15.03
12.9
6.44
-4.38
-18.38
-33.65
-48.4
-61.34
-72.08
-80.75
-87.8
-93.54
-97.91
-100.39
-100.16
-96.52
-89.31
-79.22
-67.67
-56.52
-47.4
-41.21
-37.91
-36.67
-36.43
-36.37
-36.15
-35.67
-34.88
-33.58
-31.42
-28.18
-23.87
-18.91
-13.84
-9.3
-5.66
-3.02
-1.28
-0.16
0.57
1.11
1.53
1.82
1.88
1.67
1.16
0.47
-0.34
-1.39
-2.96
-5.45
-9.11
-13.89
-19.29
-24.47
-28.4
-30.1
-28.91
-24.64
-17.62
-8.59
1.43
11.45
20.67
28.51
34.68
38.98
41.27
41.51
39.84
36.69
32.88
29.32
26.79
25.74
26.09
27.34
28.72
29.6
29.59
28.66
27.09
25.18
23.11
20.88
18.34
15.34
11.86
8.09
4.32
0.72
-2.7
-6.12
-9.82
-13.95
-18.52
-23.45
-28.56
-33.6
-38.16
-41.59
-43.01
-41.62
-37
-29.37
-19.64
-9.03
1.31
10.58
18.43
24.79
29.66
32.97
34.67
34.89
34.03
32.72
31.68
31.44
32.21
33.84
35.93
38.04
39.79
41.03
41.68
41.73
41.11
39.68
37.28
33.92
29.77
25.15
20.44
15.98
12
8.6
5.7
3.1
0.46
-2.67
-6.63
-11.51
-16.97
-22.12
-25.78
-26.8
-24.54
-19.02
-10.97
-1.56
7.96
16.61
23.77
29.21
32.98
35.22
36.12
35.87
34.79
33.22
31.61
30.37
29.83
30.11
31.1
32.41
33.6
34.3
34.28
33.49
32.02
29.91
27.24
24.11
20.65
17.06
13.64
10.63
8.17
6.18
4.48
2.73
0.6
-2.2
-5.82
-10.18
-14.99
-19.64
-23.34
-25.3
-24.81
-21.57
-15.71
-7.84
1.08
9.93
17.77
23.99
28.35
30.99
32.12
32.05
31.01
29.2
26.88
24.47
22.47
21.3
21.25
22.21
23.85
25.66
27.17
28.02
28.06
27.22
25.52
22.98
19.64
15.67
11.34
7.07
3.32
0.42
-1.53
-2.73
-3.57
-4.55
-6.12
-8.47
-11.56
-14.99
-18.1
-20.05
-19.99
-17.36
-12.1
-4.73
3.78
12.23
19.57
25.19
28.9
30.89
31.41
30.71
29
26.59
23.92
21.56
20.02
19.6
20.19
21.39
22.67
23.51
23.66
23.04
21.71
19.8
17.39
14.57
11.48
8.26
5.11
2.28
-0
-1.56
-2.36
-2.64
-2.87
-3.69
-5.7
-9.27
-14.23
-19.87
-25.06
-28.55
-29.32
-26.95
-21.65
-14.26
-5.97
2.12
9.16
14.67
18.5
20.65
21.19
20.26
18.1
15.15
12.02
9.43
7.95
7.88
9.11
11.2
13.53
15.47
16.58
16.6
15.59
13.73
11.35
8.79
6.33
4.12
2.14
0.24
-1.85
-4.32
-7.27
-10.59
-13.95
-16.86
-18.76
-19.22
-18.15
-15.88
-13.01
-10.24
-7.91
-5.8
-3.26
0.61
6.48
14.51
24.25
34.85
45.26
54.66
62.47
68.29
71.94
73.44
73.01
71.12
68.52
65.97
64.03
62.88
62.21
61.45
59.93
57.25
53.2
47.83
41.22
33.43
24.6
14.96
5.1
-4.29
-12.5
-19.18
-24.49
-29.1
-33.87
-39.48
-46.13
-53.45
-60.73
-67.28
-72.75
-77.29
-81.48
-85.96
-90.98
-96.26
-100.98
-104.12
-104.86
-102.88
-98.45
-92.23
-85.09
-77.81
-70.92
-64.69
-59.13
-54.04
-49.09
-43.95
-38.32
-32.04
-25.01
-17.23
-8.67
0.53
10.04
19.19
26.94
32.14
33.91
31.97
26.9
20.13
13.58
9.16
8.2
11.11
17.32
25.75
35.23
45.02
54.96
65.29
76.18
87.5
98.69
109.04
118.05
125.57
131.71
136.62
140.32
142.83
144.18
144.3
142.7
138.26
129.48
115.32
96.05
73.68
51.52
32.93
19.9
12.36
8.36
5.21
0.8
-5.77
-14.17
-23.43
-32.58
-41.14
-49.13
-56.92
-64.7
-72.23
-78.68
-83
-84.36
-82.44
-77.5
-70.03
-60.37
-48.71
-35.37
-21.38
-8.58
0.84
5.17
3.91
-2.03
-10.7
-19.77
-26.89
-30.14
-28.27
-21.3
-11.09
-1.22
4.17
2.25
-7.04
-20.79
-34.45
-44.06
-47.96
-46.96
-43.19
-38.34
-32.67
-25.31
-15.35
-3.07
9.8
20.72
27.55
29.51
27.29
22.46
16.58
10.54
4.55
-1.34
-6.83
-10.96
-12.59
-10.86
-5.87
1.25
8.65
14.55
17.77
18.01
15.71
11.96
8.38
7
9.85
18.16
31.43
47.11
61.35
70.44
72.35
67.22
56.84
43.28
27.74
10.35
-9.22
-30.8
-53.1
-73.98
-91.37
-104.03
-111.86
-115.51
-115.83
-113.47
-108.86
-102.48
-94.92
-86.94
-79.22
-72.11
-65.62
-59.6
-53.96
-48.81
-44.54
-41.56
-40.01
-39.65
-39.79
-39.64
-38.52
-36.11
-32.51
-28.04
-23.21
-18.51
-14.38
-11.11
-8.9
-7.76
-7.47
-7.74
-8.24
-8.73
-9.18
-9.67
-10.35
-11.31
-12.47
-13.65
-14.76
-15.85
-17.2
-19.12
-21.72
-24.66
-27.06
-27.67
-25.25
-19.11
-9.48
2.34
14.22
23.76
29
28.97
23.9
14.97
3.7
-8.43
-20.24
-30.8
-39.09
-43.93
-44.17
-39.12
-29.01
-15.19
0.11
14.41
25.67
32.92
36.35
37.05
36.51
35.89
35.69
35.63
34.98
33.06
29.68
25.2
20.36
15.83
11.9
8.38
4.76
0.46
-4.9
-11.42
-18.99
-27.36
-36.12
-44.74
-52.52
-58.6
-62.17
-62.58
-59.54
-53.23
-44.25
-33.38
-21.37
-8.7
4.42
17.86
31.34
44.36
56.38
67.1
76.58
85.23
93.49
101.55
109.14
115.61
120.34
123.04
123.85
123.26
121.69
119.38
116.27
112.14
106.85
100.46
93.19
85.46
77.72
70.42
63.93
58.45
53.99
50.19
46.5
42.26
36.85
29.95
21.4
11.05
-1.39
-16.2
-33.32
-51.89
-70.26
-86.25
-97.77
-103.57
-103.6
-98.94
-91.36
-82.69
-74.35
-67.07
-61.08
-56.18
-52
-48.07
-44
-39.55
-34.71
-29.64
-24.68
-20.13
-16.17
-12.84
-10.07
-7.75
-5.79
-4.19
-2.95
-2.09
-1.59
-1.37
-1.45
-1.83
-2.56
-3.67
-5.14
-6.78
-8.32
-9.5
-10.08
-10.13
-9.88
-9.7
-9.86
-10.32
-10.72
-10.39
-8.73
-5.36
-0.42
5.56
11.72
17.2
21.3
23.67
24.36
23.66
22.14
20.43
19.15
18.76
19.48
21.29
23.97
27.25
30.83
34.59
38.45
42.39
46.31
49.97
52.96
54.69
54.52
51.85
46.47
38.8
30.02
21.88
16.18
14.16
15.83
19.93
24.21
26.32
24.57
18.39
8.32
-4.53
-18.75
-32.88
-45.29
-54.15
-57.48
-53.8
-42.74
-25.49
-4.8
15.71
32.44
42.72
45.38
40.98
31.55
19.99
9.27
1.68
-1.94
-2.31
-1.28
-0.99
-3.01
-7.83
-14.81
-22.73
-30.35
-36.92
-42.29
-46.74
-50.63
-54.23
-57.63
-60.79
-63.64
-66.25
-68.83
-71.56
-74.43
-77.1
-79.05
-79.77
-79.03
-77.03
-74.28
-71.33
-68.41
-65.28
-61.36
-55.99
-48.83
-40.04
-30.32
-20.62
-11.84
-4.53
1.15
5.37
8.39
10.49
11.86
12.71
13.34
14.13
15.4
17.17
19.15
20.71
21.25
20.52
18.77
16.71
15.17
14.67
15.22
16.28
17.11
17.1
16.05
14.18
11.95
9.81
7.97
6.45
5.03
3.52
1.72
-0.54
-3.37
-6.72
-10.31
-13.56
-15.66
-15.8
-13.5
-8.86
-2.63
4.1
10.24
15
18.08
19.58
19.84
19.25
18.15
16.88
15.75
15.09
15.17
16.11
17.77
19.87
22.01
23.79
24.97
25.53
25.61
25.46
25.32
25.18
24.9
24.13
22.5
19.84
16.25
12.24
8.56
6.04
5.21
6.11
8.13
10.14
10.73
8.7
3.48
-4.68
-14.67
-24.73
-32.81
-37.05
-36.2
-30.04
-19.5
-6.57
6.25
16.65
23.34
26.31
26.65
25.98
25.68
26.41
28.1
30.33
32.72
35.28
38.23
41.7
45.36
48.54
50.31
50.03
47.57
43.43
38.5
33.65
29.46
26.02
23.05
20.13
17.04
13.86
10.93
8.57
6.79
5.14
2.85
-0.84
-6.35
-13.5
-21.69
-30.23
-38.61
-46.52
-53.65
-59.38
-62.79
-62.84
-58.89
-51.24
-41.2
-30.75
-21.89
-15.81
-12.71
-11.85
-12.03
-12.2
-11.74
-10.5
-8.5
-5.82
-2.38
1.88
6.81
12
16.74
20.35
22.37
22.76
21.81
20.05
17.97
15.86
13.79
11.63
9.22
6.52
3.62
0.72
-2.01
-4.58
-7.2
-10.19
-13.77
-17.75
-21.51
-24.09
-24.56
-22.33
-17.44
-10.54
-2.57
5.37
12.46
18.2
22.43
25.23
26.78
27.26
26.76
25.45
23.57
21.52
19.8
18.83
18.81
19.59
20.77
21.87
22.59
22.85
22.88
22.97
23.39
24.18
25.19
26.13
26.63
26.41
25.35
23.51
21.05
18.19
15.09
11.85
8.53
5.11
1.51
-2.3
-6.28
-10.21
-13.57
-15.57
-15.4
-12.5
-6.86
0.82
9.22
16.87
22.56
25.69
26.39
25.51
24.33
24.4
27.24
33.85
44.35
57.44
70.57
80.43
84.19
80.58
70.66
57.45
44.88
36.33
33.56
36.36
42.89
50.52
56.6
59.11
57.04
50.4
40.28
28.37
16.65
6.84
-0.02
-3.67
-4.79
-4.74
-5.21
-7.74
-13.14
-21.01
-29.79
-37.3
-41.48
-41.21
-36.56
-28.62
-19.06
-9.71
-2.26
1.83
1.48
-3.69
-13.22
-25.8
-39.62
-52.88
-64.21
-72.85
-78.59
-81.62
-82.52
-82.27
-82.03
-82.88
-85.49
-89.76
-94.97
-100.09
-104.05
-106.1
-105.87
-103.4
-99.02
-93.43
-87.57
-82.47
-78.83
-76.7
-75.43
-73.85
-70.85
-65.85
-59
-51.09
-43.07
-35.64
-28.92
-22.49
-15.57
-7.49
2.18
13.33
25.44
37.74
49.39
59.74
68.36
75.09
79.94
83.13
85.01
86.1
87.05
88.31
89.92
91.38
91.74
90.07
85.85
79.29
71.17
62.51
54.01
45.92
38.08
30.36
22.82
15.77
9.35
3.34
-2.94
-10.26
-19.03
-28.99
-39.33
-49.15
-57.84
-65.41
-72.17
-78.36
-83.73
-87.53
-88.78
-86.81
-81.59
-73.86
-64.86
-55.82
-47.6
-40.5
-34.38
-28.94
-24.02
-19.63
-15.89
-12.87
-10.39
-8.03
-5.36
-2.13
1.56
5.31
8.56
10.88
12.07
12.26
11.7
10.69
9.41
7.89
6.05
3.78
1.09
-1.85
-4.7
-7.11
-8.81
-9.76
-10.19
-10.55
-11.25
-12.47
-13.92
-14.94
-14.68
-12.51
-8.17
-1.99
5.26
12.62
19.19
24.36
27.89
29.75
30.09
29.13
27.14
24.51
21.76
19.4
17.86
17.31
17.66
18.6
19.79
20.96
21.97
22.85
23.65
24.39
24.98
25.27
25.08
24.3
22.9
21.01
18.83
16.66
14.76
13.25
12.08
11.01
9.65
7.58
4.5
0.25
-5.02
-10.9
-16.78
-21.91
-25.58
-27.33
-27.08
-25.21
-22.46
-19.66
-17.56
-16.56
-16.72
-17.91
-19.92
-22.58
-25.76
-29.28
-32.89
-36.18
-38.74
-40.29
-40.86
-40.78
-40.57
-40.75
-41.58
-42.94
-44.36
-45.12
-44.43
-41.54
-35.77
-26.6
-13.9
1.85
19.56
37.62
54.32
68.29
78.81
85.87
89.91
91.47
90.96
88.69
85.06
80.66
76.32
72.87
70.77
69.95
69.7
69.04
67.03
63.11
57.32
50.15
42.33
34.48
26.91
19.65
12.51
5.42
-1.44
-7.57
-12.31
-15.03
-15.46
-13.81
-10.71
-6.92
-2.94
1.12
5.45
10.16
14.99
19.11
21.35
20.57
16.05
7.63
-4.38
-19.3
-36.02
-52.88
-67.51
-77.16
-79.37
-72.76
-57.55
-35.35
-8.43
21.1
51.91
83.28
114.5
144.11
169.66
188.16
197.06
195.21
183.21
163.09
137.36
108.26
77.25
45.14
12.49
-20.07
-51.84
-82.37
-111.79
-140.54
-168.78
-195.72
-219.41
-237.3
-247.4
-249.18
-243.88
-233.6
-220.03
-203.49
-183.07
-157.61
-127.14
-93.61
-60.29
-30.53
-6.31
12.36
26.85
38.68
48.58
56.16
60.47
60.8
57.41
51.45
44.55
38.1
32.84
28.77
25.42
22.19
18.76
15.15
11.62
8.4
5.51
2.61
-0.91
-5.8
-12.53
-21.16
-31.29
-42.27
-53.36
-63.96
-73.76
-82.63
-90.65
-97.91
-104.57
-110.79
-116.74
-122.38
-127.41
-131.31
-133.38
-133.09
-130.2
-124.96
-118.04
-110.28
-102.48
-95.23
-88.79
-83.18
-78.28
-74.02
-70.41
-67.42
-64.8
-61.93
-57.75
-51.06
-40.9
-27.11
-10.44
7.5
24.95
40.48
53.53
64.39
73.89
82.95
92.05
101.17
109.82
117.36
123.12
126.59
127.35
125.13
119.9
111.89
101.78
90.7
80.08
71.38
65.76
63.86
65.61
70.34
77.05
84.59
91.92
98.42
103.91
108.6
112.95
117.37
122.18
127.53
133.42
139.56
145.37
149.73
150.86
146.46
134.44
113.78
85.18
51.12
15.08
-19.51
-50.32
-76.39
-97.85
-115.17
-128.63
-138.19
-143.81
-145.76
-144.76
-141.73
-137.2
-131.05
-122.48
-110.38
-93.84
-72.57
-47.06
-18.61
10.93
39.64
65.9
88.64
107.38
122.01
132.57
139.01
141.17
139.01
132.84
123.52
112.34
100.82
90.28
81.52
74.8
69.92
66.54
64.27
62.61
60.84
57.92
52.76
44.59
33.27
19.47
4.44
-10.44
-24.13
-36.13
-46.51
-55.46
-63.05
-69.01
-72.79
-73.78
-71.63
-66.42
-58.71
-49.45
-39.69
-30.4
-22.25
-15.65
-10.76
-7.64
-6.33
-6.76
-8.84
-12.21
-16.37
-20.62
-24.3
-26.91
-28.31
-28.82
-28.96
-29.37
-30.45
-32.34
-34.82
-37.57
-40.23
-42.61
-44.68
-46.47
-48.09
-49.56
-50.89
-52.13
-53.31
-54.4
-55.13
-54.95
-53.06
-48.72
-41.44
-31.29
-18.99
-5.71
7.22
18.6
27.66
34.08
37.95
39.59
39.55
38.3
36.29
33.92
31.5
29.3
27.52
26.22
25.31
24.57
23.66
22.35
20.52
18.16
15.34
12.15
8.65
4.9
1.04
-2.73
-6.17
-9.19
-11.92
-14.68
-17.97
-22.16
-27.32
-33.09
-38.61
-42.82
-44.67
-43.49
-39.18
-32.24
-23.68
-14.71
-6.48
0.22
5.03
8.01
9.47
9.84
9.5
8.74
7.78
6.75
5.87
5.27
5.1
5.36
6
6.87
7.75
8.51
8.96
8.96
8.33
6.92
4.65
1.65
-1.76
-5.14
-8.08
-10.35
-12.02
-13.38
-14.9
-17.02
-19.98
-23.62
-27.33
-30.12
-30.91
-28.86
-23.74
-15.95
-6.54
3.2
12.14
19.5
25.02
28.65
30.61
31.12
30.47
29
27.09
25.17
23.55
22.38
21.6
21.08
20.57
19.87
18.82
17.43
15.76
13.95
12.14
10.37
8.59
6.59
4.2
1.32
-1.92
-5.29
-8.49
-11.34
-13.78
-16.04
-18.39
-21.05
-24.16
-27.7
-31.59
-35.68
-39.58
-42.73
-44.28
-43.4
-39.46
-32.44
-22.99
-12.33
-1.82
7.37
14.64
19.84
23.22
25.12
25.77
25.34
24.03
22.19
20.3
18.89
18.34
18.72
19.84
21.25
22.53
23.35
23.56
23.13
22.12
20.57
18.58
16.3
13.87
11.42
9.03
6.65
4.21
1.68
-0.86
-3.27
-5.32
-6.9
-8.06
-8.99
-9.99
-11.33
-13.23
-15.74
-18.77
-21.9
-24.51
-25.79
-25.03
-21.79
-16.16
-8.72
-0.45
7.65
14.76
20.45
24.62
27.34
28.76
29.02
28.29
26.75
24.75
22.71
21.04
20.06
19.9
20.39
21.24
22.05
22.4
22.04
20.93
19.12
16.77
14.09
11.17
8.07
4.89
1.68
-1.42
-4.27
-6.78
-8.93
-10.78
-12.47
-14.15
-15.9
-17.74
-19.72
-21.88
-24.35
-27.09
-29.96
-32.44
-33.72
-33.01
-29.71
-23.79
-15.81
-6.77
2.28
10.42
17.05
21.9
24.84
25.84
24.98
22.49
18.79
14.59
10.58
7.29
5.02
3.73
3.15
2.9
2.65
2.14
1.27
0.06
-1.44
-3.13
-4.99
-7.02
-9.21
-11.51
-13.69
-15.49
-16.62
-16.94
-16.47
-15.45
-14.14
-12.76
-11.48
-10.42
-9.77
-9.71
-10.39
-11.71
-13.35
-14.74
-15.26
-14.51
-12.43
-9.39
-5.96
-2.87
-0.69
0.19
-0.36
-2.28
-5.44
-9.54
-14.32
-19.41
-24.42
-28.93
-32.56
-35.04
-36.24
-36.21
-35.02
-32.81
-29.75
-25.98
-21.69
-17.08
-12.43
-8.07
-4.34
-1.41
0.64
1.9
2.63
3.08
3.45
3.78
3.98
3.88
3.37
2.42
1.23
0.09
-0.54
-0.21
1.44
4.57
9.11
14.69
20.74
26.68
31.99
36.31
39.45
41.36
42.07
41.62
40.15
37.86
35.13
32.39
30.02
28.31
27.39
27.25
27.77
28.87
30.38
32.19
34.06
35.63
36.59
36.64
35.69
33.83
31.31
28.35
25.08
21.49
17.47
12.97
7.98
2.53
-3.24
-9.1
-14.66
-19.4
-22.69
-23.96
-22.93
-19.81
-15.23
-10.06
-5.13
-1.02
2
3.94
4.87
4.87
3.94
2.14
-0.35
-3.24
-6.16
-8.73
-10.75
-12.12
-12.9
-13.21
-13.18
-12.96
-12.69
-12.48
-12.51
-12.92
-13.79
-15.1
-16.69
-18.33
-19.77
-20.89
-21.65
-22.16
-22.58
-23.08
-23.76
-24.45
-24.83
-24.46
-22.86
-19.68
-14.88
-8.81
-2.01
4.75
10.82
15.78
19.38
21.67
22.81
23.04
22.59
21.63
20.2
18.36
16.18
13.8
11.49
9.6
8.41
8.06
8.47
9.38
10.41
11.24
11.65
11.58
10.97
9.8
8.06
5.75
3.01
0.05
-2.91
-5.8
-8.7
-11.83
-15.36
-19.19
-22.93
-26
-27.88
-28.25
-27.24
-25.23
-22.74
-20.2
-17.86
-15.84
-14.21
-13.09
-12.66
-13.17
-14.72
-17.14
-19.96
-22.39
-23.63
-23.05
-20.44
-16.09
-10.63
-4.87
0.54
5.29
9.47
13.48
17.85
22.91
28.69
34.8
40.54
45.18
48.18
49.44
49.3
48.51
48.29
50.27
56.54
69.27
89.84
117.76
150.09
181.57
206
218.11
215.06
196.91
165.78
124.62
76.61
25.25
-25.11
-69.39
-102.6
-121.54
-126.04
-119.21
-106.31
-92.25
-79.64
-68.15
-55.44
-39.06
-18
6.77
32.84
57.13
77.47
92.96
103.67
109.81
111.17
106.98
96.55
79.75
56.47
28.24
-1.54
-28.29
-47.9
-58.26
-59.72
-54.62
-46.55
-40.7
-39.71
-42.25
-44.25
-41.95
-34.74
-25.57
-19.22
-20.55
-35.49
-65.32
-105.91
-149.89
-190.89
-226.46
-257.81
-287.34
-318.09
-356.52
-405.98
-464.74
-526.18
-581.69
-623.7
-646.97
-648.82
-601.91
-498.17
-353.62
-201.38
-70.96
24.95
88.05
122.86
140.66
148.84
148.08
140.25
130.86
128.13
139.29
166.02
204.63
248.64
289.95
318.88
330.65
326.89
314.19
299.77
287.69
278.29
270.08
260.66
246.99
228.65
207.89
188.06
171.13
156.48
141.86
125.39
105.99
83.24
58.35
33.84
12.93
-1.46
-7.4
-4.18
7.68
25.89
46.7
66.2
81.59
92.03
98.37
102.17
104.68
106.23
106.25
104.23
100.68
97.44
97.11
102.06
113.4
130.74
152.56
176.78
201.18
223.08
239.16
245.55
238.88
217.58
182.72
137.9
87.57
35.78
-14.9
-63.15
-108.22
-149.22
-185.14
-215.19
-239.3
-258.62
-274.49
-287.57
-297.34
-302.48
-301.79
-295.02
-282.76
-266.1
-247
-227.38
-208.83
-192.27
-177.74
-164.46
-151.18
-136.34
-118.36
-97.37
-74.53
-51.99
-32.38
-18.3
-12.17
-15.93
-30.02
-45.9
-53.97
-46.22
-20.87
17.23
60.56
102.75
139.77
170.19
194.36
212.23
223.49
228.19
226.56
219.45
208.31
194.12
177.71
159.63
139.4
116.27
89.52
58.6
23.08
-14.62
-53.15
-91.93
-131.07
-171.47
-213.54
-256.11
-295.76
-327.11
-344.39
-343.88
-324.98
-290.39
-245.57
-196.8
-149.53
-107.18
-70.94
-40.34
-14.32
8.42
29.27
49.49
70.18
92.04
115.12
138.77
161.61
181.63
196.78
205.64
207.83
204.21
196.56
186.75
176.07
164.73
152.11
137.41
120.57
102.58
85.07
69.57
56.69
46.03
36.67
27.98
19.96
13.09
7.74
3.56
-0.22
-4.37
-9.11
-14.22
-19.55
-25.62
-33.58
-44.47
-58.27
-73.41
-87.37
-97.97
-104.71
-109.2
-114.47
-123.35
-137
-154.27
-171.92
-185.99
-193.16
-191.85
-182.59
-167.69
-150.25
-133.38
-119.28
-108.92
-102.14
-98.18
-96.23
-95.79
-96.67
-98.69
-101.37
-103.76
-104.61
-102.79
-97.81
-90
-80.38
-70.14
-60.16
-50.7
-41.48
-32.02
-22.08
-11.96
-2.5
5.12
9.91
11.35
9.51
4.96
-1.71
-10.14
-20.29
-32.1
-45.07
-57.91
-68.67
-75.18
-75.83
-70.13
-58.8
-43.37
-25.63
-7.11
11.09
28.26
43.98
57.96
70.05
80.38
89.3
97.3
104.79
111.88
118.33
123.55
126.88
127.83
126.25
122.4
116.84
110.22
103.15
96.07
89.22
82.62
76.09
69.33
61.94
53.68
44.69
35.56
27.37
21.45
18.92
20.4
25.77
34.16
44.21
54.43
63.47
70.4
74.77
76.49
75.86
73.38
69.66
65.41
61.32
58.01
55.89
55.05
55.24
55.88
56.25
55.68
53.81
50.66
46.6
42.16
37.73
33.49
29.3
24.84
19.82
14.18
8.13
2.14
-3.24
-7.55
-10.44
-11.73
-11.39
-9.48
-6.14
-1.71
3.49
9.06
14.61
19.84
24.51
28.5
31.77
34.4
36.49
38.22
39.74
41.06
42.1
42.6
42.3
41.12
39.12
36.51
33.57
30.43
27.11
23.5
19.42
14.8
9.67
4.14
-1.69
-7.65
-13.55
-19.12
-23.98
-27.81
-30.36
-31.52
-31.33
-29.95
-27.62
-24.57
-21.06
-17.31
-13.51
-9.83
-6.36
-3.21
-0.46
1.79
3.5
4.74
5.81
7.05
8.81
11.22
14.07
16.9
19.1
20.2
20
18.59
16.27
13.29
9.92
6.25
2.35
-1.72
-5.91
-10.21
-14.68
-19.43
-24.58
-29.96
-35.18
-39.56
-42.35
-42.94
-41.05
-36.78
-30.54
-22.95
-14.6
-6.05
2.32
10.19
17.31
23.48
28.53
32.35
34.99
36.65
37.61
38.2
38.72
39.33
40.08
40.84
41.37
41.38
40.6
38.88
36.19
32.73
28.78
24.62
20.52
16.59
12.89
9.36
5.94
2.54
-0.93
-4.52
-8.3
-12.27
-16.42
-20.72
-25.26
-30.12
-35.36
-40.87
-46.28
-50.98
-54.25
-55.4
-54.02
-50.08
-43.92
-36.1
-27.33
-18.21
-9.25
-0.82
6.78
13.25
18.37
22.05
24.33
25.46
25.86
25.95
26.09
26.44
26.92
27.31
27.4
27.06
26.22
24.93
23.28
21.34
19.07
16.39
13.22
9.52
5.36
0.94
-3.44
-7.42
-10.73
-13.28
-15.23
-16.88
-18.61
-20.76
-23.49
-26.84
-30.61
-34.43
-37.79
-40.09
-40.78
-39.44
-35.92
-30.3
-22.99
-14.56
-5.59
3.38
11.92
19.65
26.29
31.62
35.58
38.31
40.1
41.35
42.49
43.79
45.32
46.94
48.4
49.47
49.96
49.8
49
47.55
45.37
42.4
38.47
33.47
27.37
20.28
12.47
4.36
-3.61
-11.05
-17.69
-23.49
-28.58
-33.23
-37.76
-42.34
-46.98
-51.49
-55.42
-58.15
-59.08
-57.77
-54.16
-48.52
-41.44
-33.61
-25.73
-18.35
-11.89
-6.71
-2.99
-0.7
0.4
0.81
1.1
1.77
3.08
5
7.24
9.44
11.3
12.67
13.55
13.98
14.04
13.73
13.03
11.93
10.5
8.89
7.32
5.96
4.88
4
3.1
1.89
0.07
-2.5
-5.79
-9.58
-13.42
-16.66
-18.63
-18.8
-16.93
-13.22
-8.19
-2.52
3.13
8.33
12.86
16.64
19.61
21.68
22.74
22.79
21.99
20.7
19.39
18.54
18.49
19.33
20.85
22.64
24.18
25.09
25.22
24.68
23.69
22.47
21.1
19.49
17.56
15.25
12.66
10.03
7.54
5.26
3.14
1.11
-0.9
-2.84
-4.72
-6.56
-8.53
-10.81
-13.47
-16.35
-19.01
-20.84
-21.3
-20.06
-17.15
-12.88
-7.75
-2.24
3.19
8.21
12.56
16.09
18.64
20.06
20.22
18.96
16.37
12.73
8.58
4.67
1.73
0.2
0.23
1.5
3.43
5.36
6.77
7.36
7.12
6.19
4.74
2.91
0.83
-1.42
-3.72
-5.88
-7.74
-9.16
-10.17
-10.92
-11.64
-12.48
-13.53
-14.74
-16.02
-17.31
-18.6
-19.97
-21.42
-22.83
-23.9
-24.18
-23.26
-20.94
-17.36
-12.87
-8.03
-3.32
0.91
4.47
7.35
9.6
11.25
12.3
12.81
12.88
12.7
12.47
12.39
12.53
12.88
13.3
13.6
13.66
13.38
12.78
11.92
10.88
9.72
8.48
7.15
5.71
4.2
2.62
1.02
-0.51
-1.97
-3.31
-4.56
-5.75
-7
-8.36
-9.96
-11.9
-14.22
-16.89
-19.69
-22.22
-23.99
-24.59
-23.76
-21.59
-18.42
-14.72
-10.96
-7.43
-4.36
-1.82
0.09
1.33
1.92
2.03
1.9
1.82
2.02
2.6
3.58
4.87
6.48
8.36
10.46
12.67
14.72
16.34
17.3
17.55
17.17
16.41
15.5
14.69
14.1
13.88
14.04
14.41
14.55
13.69
10.94
5.61
-2.44
-12.66
-23.9
-34.78
-44.11
-51.06
-55.37
-57.04
-56.32
-53.53
-49.09
-43.52
-37.47
-31.59
-26.38
-22.09
-18.64
-15.76
-13.15
-10.58
-7.96
-5.4
-3.03
-0.94
0.82
2.33
3.73
5.04
6.32
7.5
8.47
9.13
9.41
9.28
8.76
7.86
6.61
5.14
3.61
2.22
1.13
0.33
-0.38
-1.29
-2.7
-4.81
-7.56
-10.77
-14.16
-17.52
-20.64
-23.41
-25.63
-27.13
-27.74
-27.4
-26.28
-24.7
-23.06
-21.76
-20.98
-20.69
-20.65
-20.58
-20.23
-19.56
-18.68
-17.78
-17.08
-16.69
-16.62
-16.78
-17.09
-17.47
-17.97
-18.59
-19.38
-20.33
-21.41
-22.57
-23.82
-25.13
-26.5
-27.92
-29.32
-30.68
-31.98
-33.26
-34.62
-36.12
-37.71
-39.29
-40.61
-41.37
-41.31
-40.22
-38.04
-34.83
-30.73
-25.9
-20.48
-14.55
-8.2
-1.57
5.12
11.61
17.61
22.88
27.28
30.72
33.15
34.62
35.21
35.11
34.53
33.68
32.72
31.73
30.72
29.64
28.44
27.11
25.72
24.42
23.39
22.77
22.54
22.57
22.62
22.44
21.83
20.73
19.13
17.08
14.66
12.04
9.45
7.24
5.76
5.29
5.99
7.76
10.31
13.25
16.23
18.95
21.26
23.03
24.2
24.74
24.62
23.93
22.82
21.5
20.17
18.94
17.83
16.81
15.82
14.78
13.74
12.79
12.03
11.59
11.56
11.91
12.53
13.2
13.61
13.53
12.85
11.57
9.84
7.85
5.78
3.84
2.4
1.84
2.57
4.89
8.72
13.69
19.14
24.41
28.93
32.47
35.07
36.95
38.36
39.56
40.88
42.6
45.07
48.46
52.78
57.73
62.91
67.77
71.89
75.09
77.38
78.97
80.13
81.18
82.25
83.33
84.17
84.36
83.49
81.15
77.1
71.23
63.59
54.38
44.11
33.6
23.89
16.06
10.78
8.14
7.57
8.16
9.02
9.6
9.71
9.35
8.54
7.09
4.8
1.53
-2.56
-7.03
-11.23
-14.62
-16.9
-18.05
-18.35
-18.2
-18.04
-18.27
-19.19
-20.86
-23.22
-26.08
-29.18
-32.33
-35.46
-38.66
-42.08
-45.97
-50.43
-55.38
-60.52
-65.26
-68.84
-70.58
-70.03
-67.17
-62.53
-56.93
-51.28
-46.28
-42.22
-39.01
-36.41
-34.2
-32.28
-30.75
-29.73
-29.17
-28.89
-28.42
-27.21
-24.73
-20.69
-15.11
-8.49
-1.57
4.77
9.84
13.35
15.45
16.5
16.91
16.76
15.69
12.9
7.36
-2
-15.87
-34.31
-56.53
-80.76
-104.44
-124.82
-139.49
-146.99
-146.99
-140.25
-128.18
-112.53
-95.04
-77.33
-60.84
-46.61
-35.17
-26.5
-20.07
-15.14
-11.12
-7.7
-4.91
-2.94
-1.88
-1.7
-2.25
-3.32
-4.76
-6.52
-8.5
-10.53
-12.32
-13.38
-13.22
-11.48
-8.1
-3.29
2.51
8.91
15.74
23.03
30.9
39.32
47.96
56.22
63.49
69.35
73.74
76.94
79.32
81.17
82.48
82.98
82.33
80.2
76.44
71.08
64.33
56.58
48.34
40.13
32.44
25.69
20.11
15.73
12.45
10.02
8.11
6.45
4.88
3.48
2.52
2.29
2.95
4.47
6.66
9.33
12.48
16.26
20.77
25.85
31.02
35.58
39
41.14
42.31
43.08
43.91
44.93
45.97
46.78
47.2
47.43
47.79
48.64
50.18
52.41
55.15
58.19
61.28
64.23
66.96
69.47
