-0.0095317
0.0038787
-0.02136
0.011465
-0.082928
0.64678
2.0203
3.7516
6.1757
8.2225
11.872
14.617
23.021
31.823
48.296
69.925
93.6
130.59
156.58
208.59
206.87
24.579
-206.69
-409.25
-538.21
-514.13
-327.6
-102.77
71.2
158.91
182.47
169.84
141.34
110.94
81.991
57.504
37.718
22.906
12.251
5.7173
1.9781
0.33031
-0.73556
-1.2006
-1.898
-3.0777
-3.8911
-6.6345
-8.1249
-11.775
-15.193
-17.514
-26.943
-10.263
25.05
39.785
37.894
40.731
30.693
23.002
9.724
-9.6425
-13.002
-15.226
-26.332
-19.207
-2.7254
-4.706
-0.50877
0.94711
6.6315
-17.316
-48.259
-33.223
-14.563
21.202
42.713
34.293
38.806
36.502
6.1268
-26.536
-54.92
-68.376
-32.103
33.568
75.893
73.577
45.232
18.253
-11.26
-0.25333
20.561
25.85
62.472
149.33
188.69
125.32
43.6
-34.624
-91.582
-83.185
-61.778
-80.371
-92.733
-97.172
-67.924
40.758
81.418
23.759
-13.703
-55.71
-110.83
-104.43
-66.269
-32.262
57.433
139.69
154.98
90.999
-25.804
-85.957
-137.09
-161.86
-170.42
-130.03
12.578
115.89
88.384
83.487
119.14
80.15
31.767
-8.1468
-90.397
-140.5
-68.555
11.412
53.643
129.62
29.581
-54.524
-15.744
-105.14
-158.14
-223.71
-243.37
-172.12
-77.2
-100.57
-275.36
-127.32
189.08
239.82
203.28
168.18
105.9
113.8
197.66
296.19
196.64
2.7978
-64.018
-91.456
26.717
58.828
-61.929
-58.927
73.23
14.247
-70.543
-80.333
-59.537
-51.307
-37.699
-39.858
-47.976
-76.62
-52.106
24.122
51.415
25.601
22.971
20.411
11.984
36.264
50.358
17.034
-30.571
36.967
98.054
63.91
66.899
45.843
10.876
18.701
34.13
25.032
4.5045
-30.43
-96.971
-68.792
36.711
24.407
6.2977
25.822
42.881
42.098
40.458
50.63
20.609
52.209
100.63
86.553
69.663
-8.8606
-129.8
-139.47
-157.84
-182
-108.74
-175.83
-211.27
-66.45
10.952
51.382
65.002
110.78
126.8
113.83
80.794
41.873
-12.74
-80.051
-85.649
-95.813
-17.391
60.223
84.878
33.238
6.6562
7.837
-75.122
-156.66
-100.06
8.5812
50.132
132.34
99.732
127.1
118.37
-1.5815
-73.243
-114.57
-130.93
-78.942
3.6209
90.376
60.566
13.288
62.372
75.384
89.538
54.983
-24.738
-81.449
-20.225
-22.297
-32.49
137.16
137.32
3.7579
-97.822
-252.69
-185.74
-13.912
35.02
1.2993
-47.438
-16.645
50.463
50.935
19.017
18.233
9.0106
13.142
13.347
5.8932
-4.818
-14.603
-26.877
-95.077
-68.444
58.451
88.957
91.699
95.126
90.474
68.767
50.376
41.852
35.891
33.438
2.8025
-22.958
-54.181
-62.516
-46.599
-50.956
-100.31
-89.247
-38.964
2.884
51.253
40.899
1.6947
15.523
-46.143
3.2907
104.65
36.214
-32.697
-77.732
-12.02
29.994
-13.089
-30.575
-11.534
-9.1605
2.2108
18.96
71.79
119.31
72.396
65.869
57.756
31.754
16.999
3.5405
-77.401
-159.67
-186.91
-195.89
-174.47
-104.26
1.7651
84.63
74.301
74.719
77.041
121.04
29.978
-72.572
39.728
55.533
53.784
166.03
72.066
-101.13
48.053
24.903
-55.908
-138.54
-381.83
-228.89
47.049
52.08
-58.188
2.8171
83.182
-58.814
-58.362
217.69
406.78
212.81
29.293
-106.93
-153.34
-229.79
-330.16
-208.66
41.394
170.52
86.724
52.948
-25.802
-63.715
-26.928
-39.05
-62.952
-70.486
-126.46
-80.465
70.141
134.64
115.39
114.08
96.743
148.45
213.24
187.62
241.64
217.29
379.3
542.62
63.864
-229.35
-306.99
-277.84
-191.83
-165.49
-218.97
-164.09
-136.94
-102.54
-66.002
-68.417
30.431
91.084
66.348
22.873
5.0226
4.3699
10.212
-1.4162
-1.5539
-6.3289
-14.455
-50.401
-99.818
-59.21
2.7158
32.779
42.207
76.934
135.68
177.93
227.23
111.47
-111.79
-163.96
-82.014
-0.65079
57.751
50.559
69.279
74.112
-24.601
-54.313
-63.531
-52.331
-25.275
-2.7062
-40.79
-38.996
-20.994
3.31
51.872
60.127
-22.415
-55.282
-46.838
-39.633
-26.529
-18.683
-15.83
6.563
18.985
-2.7473
-50.362
-41.485
-15.62
-21.003
-26.433
-23.822
-22.493
-18.881
-22.327
-37.341
-47.503
-52.799
-35.364
-17.602
9.5616
81.223
107.95
142.2
126.9
142.74
101.19
-76.28
-224.25
-605.72
-620.64
-1.2232
218.62
198.02
182.65
164.96
99.633
86.433
49.058
49.931
19.056
-6.6845
-23.841
-17.053
10.642
15.986
10.375
14.476
5.1919
-15.254
23.829
65.403
71.622
63.603
31.936
13.279
21.374
10.311
18.771
82.433
84.913
-12.21
-162.54
-214.79
-116.8
-22.792
-13.947
-46.997
-63.069
-37.353
13.242
54.977
109.54
146.66
146.99
89.933
26.136
16.174
-24.026
-14.635
6.4929
-19.398
50.568
65.95
-33.005
-57.826
-57.197
-125.57
-151.85
-113.05
-3.7145
72.802
42.492
47.563
54.523
-2.9895
-24.892
-21.235
-2.1805
14.676
13.635
-2.9485
0.91856
32.965
20.696
3.6002
30.123
-8.486
-7.3367
-7.9679
8.6653
14.525
6.4987
3.2869
-11.079
-13.261
-12.029
-24.78
-15.168
20.398
43.322
16.696
-19.843
-82.425
-218.05
-111.43
90.17
198.94
206.91
95.697
-23.428
-57.331
-67.253
-48.494
-112.95
-230.55
-151.63
-40.525
4.4392
58.15
108.76
106.39
86.452
70.919
45.355
-9.1529
-27.468
-83.197
-112.44
-65.469
-42.514
-24.328
14.243
42.89
50.807
34.357
19.276
55.708
55.726
27.55
15.263
11.084
78.02
119.44
146.5
149.42
155.9
191.97
10.478
-173.02
-196.35
-170.9
-148.7
-139.05
-137.73
-164.52
-178.67
-91.707
13.286
63.155
103.58
116.22
124.06
125.57
91.572
47.393
5.3481
-22.688
-39.236
-66.106
-90.635
-123.2
-137.79
-70.938
13.747
50.648
75.206
98.203
87.799
86.878
77.601
40.096
5.5679
-5.5128
-29.836
-45.696
14.219
72.345
86.883
60.092
21.085
12.449
37.177
47.888
33.014
69.895
49.625
-44.516
-100.84
-119.32
-66.347
-29.318
-24.663
-24.106
-14.493
-11.127
10.975
10.782
2.6048
-3.7388
-14.151
-22.279
-47.201
-50.905
-3.4542
27.166
17.804
14.529
16.653
19.818
37.663
24.55
46.092
64.512
131.06
197.09
23.451
-119
-246.49
-250.68
-64.52
9.5519
4.6029
12.957
28.433
34.906
37.289
11.156
-25.618
-45.128
-62.268
24.042
129.98
54.197
-1.6657
13.992
29.018
26.687
26.136
14.206
-8.4736
-2.6896
-25.233
-42.075
-135.74
-361.27
-215.95
34.884
72.333
25.864
4.6281
11.859
-29.437
-117.73
-56.27
84.303
195.24
201.45
42.823
-28.259
-43.597
-33.208
50.252
89.892
65.521
79.978
88.163
108.1
73.385
-3.5014
-61.579
-119.73
-103.72
-125.6
-188.49
-80.037
32.948
20.229
-15.072
4.2688
68.86
92.954
50.523
21.036
-1.2596
-26.59
-52.616
-42.185
-54.45
-109.68
-60.516
37.99
59.586
49.205
83.138
92.053
97.075
102.5
78.616
24.917
-14.282
-24.513
-51.499
-86.354
-125.89
-120.29
-50.818
26.673
76.78
53.012
19.497
19.824
-3.6744
-24.457
-37.996
-45.041
-42.043
-32.233
-6.2732
20.486
51.005
112.85
135.79
115.99
93.467
101.23
90.094
92.769
101.66
91.195
150.12
194.7
339.66
325.6
-117.94
-347.44
-351.27
-162.82
-74.802
-128.12
-180.06
-115.56
-66.322
-125.01
-124.46
-26.544
37.415
10.665
22.511
38.931
65.991
10.494
-30.604
-13.939
9.2526
26.118
37.243
36.291
32.452
30.974
18.103
2.8196
-8.4096
-20.382
-44.011
-58.307
-75.809
-67.616
-30.393
-5.0683
-8.5841
-17.771
-7.5418
-2.7782
-2.9879
-0.63551
25.165
39.879
25.458
-10.61
-106.64
-170.76
-123.74
-63.53
-43.031
38.512
131.87
106.53
50.01
53.914
86.655
29.281
-32.015
-31.679
23.219
29.767
-16.578
-33.28
-40.457
-48.34
-94.306
-84.253
6.1229
14.811
0.55227
42.79
57.139
41.203
4.9634
-11.612
26.711
7.4667
-3.2989
-22.96
-77.302
-118.18
-89.51
-9.2463
42.463
68.263
83.041
99.954
115.76
102.24
59.42
21.516
-26.587
-66.829
-92.118
-112.14
-119.06
-147.64
-102.66
5.3883
78.148
111.02
154.51
229.07
277.48
397.63
302.28
-50.963
-175.47
-193.84
-196.76
-211.34
-194.06
-84.638
-26.835
-59.917
-18.195
77.882
78.01
89.131
107.34
71.722
24.453
44.697
12.003
-73.422
-108.64
-133.53
-105.69
-75.514
-33.646
32.137
108.59
110.6
43.765
-8.2766
-77.378
-56.127
-7.616
23.253
49.091
75.638
77.964
60.68
70.61
50.808
-39.432
-32.063
-2.9413
-46.939
-71.827
-91.126
-100.11
-78.113
-71.879
-60.237
-24.711
-20.068
-29.651
-25.652
-27.404
-34.123
-0.87007
29.066
38.85
51.658
46.166
43.083
49.585
40.393
21.37
-1.1842
-24.419
-32.662
-35.039
-27.57
21.28
73.507
78.791
68.617
72.308
54.581
25.177
7.222
-16.439
-33.864
-34.227
-29.556
-22.497
-14.709
-20.358
-30.979
-54.356
-59.51
-19.722
5.467
11.495
26.367
31.823
34.175
48.508
57.444
54.062
40.322
72.808
68.253
0.47016
-4.1008
-79.496
-172.06
-186.56
-160.98
-82.618
6.6678
35.312
51.581
76.054
108.6
113.15
105.15
88.564
57.592
17.965
-8.7887
-19.765
-41.812
-54.925
-74.114
-47.574
-1.3385
16.457
36.374
54.949
37.422
26.042
31.623
33.802
18.589
-35.569
-49.148
-35.014
12.172
54.292
33.873
10.474
-17.15
71.556
39.129
-167.25
-207.36
-131.89
-93.983
-63.184
-21.712
16.571
51.686
71.977
57.363
14.858
29.82
96.861
107.57
51.285
52.991
61.219
38.775
36.203
19.061
-15.766
-92.996
-87.002
25.854
127.53
91.777
-46.41
-137.54
-161
-94.606
-58.017
-96.412
-145.73
-139.33
-227.19
-125.53
167.27
170.83
50.392
7.7822
5.0903
-17.967
-28.287
-14.335
-17.177
-38.887
36.675
98.945
116.75
145.71
144.15
128.22
83.782
-4.6715
-62.331
-120.04
-122.37
-76.485
-39.606
6.9788
19.523
148.01
152.4
18.45
69.358
48.151
-28.282
-20.337
-8.882
65.964
157.44
154.41
105.21
98.237
112.21
68.843
-71.615
-212.3
-448.97
-585.41
-420.43
-159.17
12.034
81.539
72.349
28.667
56.969
147.36
345.79
455.93
186.2
-56.051
-119.43
-309.12
-404.35
-226.67
-41.405
118.77
154.91
150.92
118.99
75.619
45.748
-1.9157
-45.185
-94.18
-144.26
-114.75
-60.922
-14.892
55.152
106.84
124.85
123.61
95.821
61.113
40.864
26.488
-6.4885
-42.424
-83.134
-101.86
-41.316
-1.7697
-14.528
-11.915
-8.824
-11.111
63.303
97.932
73.655
45.096
-22.052
-14.049
27.32
-13.935
-50.035
-55.937
-16.912
37.448
136.87
150.74
-2.895
-71.718
-38.77
30.232
83.866
97.916
86.324
63.066
22.263
-15.28
-128.83
-108.69
-14.987
19.632
24.347
-47.969
-76.384
-85.688
-64.945
70.19
207.72
194.71
4.2968
-85.82
-113.66
-153.77
-166.98
-125.15
-111.94
-73.6
-25.509
11.368
44.689
74.493
85.363
93.703
90.534
70.254
57.865
35.748
1.1511
-52.59
-63.482
-19.073
-8.5752
-12.686
-26.377
-14.955
-2.8079
0.32209
19.117
13.082
6.0794
10.963
-10.274
-19.574
-17.242
-32.775
-35.706
17.222
38.392
14.502
18.621
8.6251
11.812
33.241
30.36
40.242
39.619
20.17
-10.422
-33.276
-41.492
-89.568
-95.358
-25.86
21.968
34.212
67.624
68.416
50.268
9.4455
-80.199
-96.706
-103.59
-115.36
-115.57
-86.401
-55.608
-1.7584
69.833
56.584
21.054
69.676
141.76
118.21
39.73
4.6202
-0.74858
-27.088
-39.895
-38.088
-43.816
-54.679
-72.873
-81.393
-92.577
-87.246
-11.73
54.777
73.51
80.082
75.517
71.064
68.28
53.807
35.6
15.073
-2.0378
-19.159
-39.664
-58.411
-85.509
-64.128
9.3601
41.3
52.792
62.647
68.323
72.607
73.177
75.825
65.399
73.122
75.559
102.59
174.72
35.676
-183.22
-248.22
-156.89
-65.924
-27.479
-11.493
12.33
40.745
65.798
69.726
13.481
-28.396
-17.531
14.185
15.929
-3.5029
-14.14
-46.519
-75.853
-31.471
-0.52785
-48.016
-52.76
12.795
26.617
38.873
48.353
44.469
37.616
27.387
40.126
22.755
-34.997
-13.505
-19.329
-104.9
-180.05
-166.44
-180.4
-293.95
-287.63
55.854
228.16
175.69
130.05
99.901
52.23
26.052
-4.8669
60.113
66.17
17.089
62.394
69.993
31.262
-39.79
-76.795
-15.444
29.979
-12.111
-73.023
-76.634
-64.791
-10.963
117.44
206.23
271.21
199.26
-30.477
-90.688
-122.86
-145.12
-121.34
-151.33
-207.06
-166.14
-75.252
-36.319
-3.7354
118.54
200.2
177.92
141.72
79.009
36.23
22.971
-17.954
-3.3743
25.39
3.6352
1.3935
29.161
71.631
77.555
23.097
-46.568
-73.42
-47.635
-73.134
-64.975
-52.204
-63.09
-23.1
19.557
10.118
-0.31263
-13.789
-22.426
-9.1652
-5.0434
21.681
22.782
-0.22275
4.0738
-20.147
-64.614
-25.61
48.788
82.819
80.574
86.207
66.764
-3.115
-50.346
-57.273
-61.767
-63.322
-81.599
-46.726
42.935
72.383
52.877
52.754
71.906
55.748
28.315
37.693
39.04
13.067
-14.109
86.43
160.68
62.62
-33.116
-60.341
-62.958
-36.031
14.269
-17.16
-137.98
-152.48
-64.075
-18.769
-36.441
-40.953
-63.662
-82.056
-82.259
-76.327
-94.65
-77.706
39.796
143.46
183.46
104.19
1.3285
52.639
92.652
41.931
-11.71
-4.7232
-7.1069
1.4086
-5.4099
-15.233
20.216
52.328
30.043
-9.3625
-29.035
-67.562
-72.458
-55.135
-53.415
-43.882
-29.932
7.0165
26.555
10.775
19.045
13.841
3.3098
22.365
31.392
29.279
-3.6118
-23.264
21.834
18.45
-31.581
-2.6132
8.9677
-32.82
-22.708
-34.472
-54.977
-61.263
-69.898
-42.901
-17.786
7.7068
29.308
28.423
13.488
39.893
64.822
51.859
32.166
-5.9116
-35.373
15.294
58.547
39.898
11
14.689
44.364
63.88
107.59
89.098
8.1811
-3.9349
-33.522
-90.165
-107.28
-87.785
-17.381
88.43
177.33
170.92
80.296
-57.778
-197.11
-209.1
-163.43
-145.43
-98.537
-11.24
56.723
68.399
43.537
65.011
88.929
115.76
143.99
122.08
121.83
89.538
52.257
75.498
18.453
-139.61
-243.05
-370.18
-332.67
-138.91
27.938
32.086
51.071
155.18
124.21
42.866
-14.594
-40.384
-67.625
-32.828
48.112
114.54
99.427
93.453
31.966
-18.265
19.87
-2.8772
-70.572
-114.73
-126.69
-57.004
23.265
5.7075
-43.119
-51.396
-46.508
-14.316
-4.1464
2.2281
9.0892
-18.954
50.332
152.45
158.27
125.56
48.165
-57.102
-25.857
-29.656
-116.99
-87.329
-52.139
-14.839
49.026
65.667
37.125
35.018
20.849
5.6249
-13.224
-6.7393
-15.483
-58.792
-33.144
39.411
52.763
47.833
47.758
30.887
19.359
4.051
-13.36
-35.967
-55.915
-9.5194
50.561
77.942
88.223
102.56
114.21
136.59
126.04
101.66
63.519
-75.134
-173.89
-186.22
-164.49
-112.18
-79.86
-26.184
49.46
36.312
7.0093
44.733
53.348
21.662
0.39766
87.311
177.55
216.91
185.2
138.58
91.249
44.723
2.0631
-64.755
-126.85
-229.18
-322.06
-244.92
-179.01
-188.91
-138.83
-101.8
-134.39
-68.74
-18.65
-54.922
-83.78
-125.84
-86.239
40.41
91.421
102.43
114.98
83.307
73.744
51.366
18.712
-16.513
-35.669
-33.981
-51.205
-5.106
79.189
98.962
76.316
42.516
38.948
80.176
65.921
-15.145
-83.375
-123.47
-181.86
-173.67
-34.787
52.386
97.424
123.17
94.285
78.885
57.486
3.3157
-36.517
-38
-64.749
-50.729
38.655
95.302
107.63
107.74
89.472
68.562
59.884
45.875
3.9393
-51.726
-63.826
-58.33
-80.514
-38.332
54.721
107.5
98.824
55.737
47.06
49.195
48.453
22.161
-26.557
-45.756
-67.905
-88.09
-35.362
33.476
64.457
44.126
24.595
18.379
22.348
18.191
-38.364
-40.459
-7.6278
-68.306
-48.241
23.019
36.87
12.196
-14.404
-9.3775
32.077
17.542
-40.181
-78.164
-100.21
-110.74
-58.329
23.196
49.6
21.498
10.84
20.119
10.41
4.5392
-5.5908
-29.479
-29.902
13.643
-5.3601
-39.319
-26.992
21.284
-6.9506
-51.559
-35.284
34.852
72.284
80.31
58.766
19.889
129.16
240.46
41.602
-162.31
-133.46
-23.283
-46.102
-82.281
-118.05
-3.9097
33.676
-5.5079
41.793
68.806
12.589
-10.897
-25.749
-29.026
41.343
96.167
85.239
-15.853
-160.9
-192.08
-154.73
-82.553
61.027
187.35
110.1
-37.336
-2.6381
53.191
39.817
-3.7008
-38.015
-30.564
60.867
99.33
-39.4
-104
-50.211
-76.143
-117.47
-102.29
-116.32
-128.91
26.113
198.82
240.25
235.95
146.42
5.3251
-57.418
-111.3
-163.66
-181.43
-155.5
-47.09
100.19
186.29
155.03
88.813
51.121
27.618
75.712
22.853
-131.83
-168.45
-123.25
-61.841
-34.951
-13.675
89.261
89.506
66.706
29.712
-10.615
-42.886
-40.233
37.16
104.01
47.457
-21.02
-15.739
-35.81
-73.473
-35.004
17.455
14.656
18.553
56.353
73.72
73.309
100.18
81.745
80.051
35.057
-47.118
-112.4
-142.91
-67.283
-17.375
-24.327
14.443
56.431
23.199
11.829
26.623
20.571
0.99848
-8.6493
11.312
-3.8166
-42.394
-54.832
-36.551
-45.098
-69.552
-58.133
-7.0073
2.6881
25.103
71.481
88.596
81.765
39.821
0.95585
-27.717
-56.915
-74.783
-78.337
-36.234
1.8528
-4.1965
15.613
56.588
34.476
1.2785
2.0017
9.0705
-3.2148
2.5793
28.204
-0.91028
-14.582
-2.5731
-16.893
-44.349
-93.237
-71.515
-23.871
-38.49
1.2811
78.435
100.54
75.269
36.743
14.051
-24.484
-74.075
-115.51
-104.89
-12.245
10.063
-28.259
27.047
95.22
53.878
-59.056
-105.32
-68.365
-51.555
18.108
107.87
91.431
53.281
33.845
1.7973
-21.639
-62.126
-98.727
-92.4
-10.959
50.64
75.264
98.818
99.028
93.697
95.553
48.422
-40.425
-92.648
-50.5
13.495
50.42
13.733
-41.041
-36.352
0.85964
1.4376
-32.941
3.3643
68.191
85.338
108.24
102.55
17.089
-53.82
-80.718
-89.704
-101.26
-57.106
-12.569
22.665
46.5
58.123
37.244
18.935
14.913
-24.956
-23.302
40.061
72.99
-3.5326
-55.117
-52.518
-44.098
-60.163
-93.155
-83.782
-5.5835
67.346
82.524
58.709
44.202
34.297
10.74
8.3197
11.087
-41.37
-53.733
-32.845
-15.954
-5.3653
-57.123
-104.31
-12.611
26.429
-29.819
-32.248
48.054
76.418
34.766
57.204
56.834
-49.637
-122.92
-146.69
-109.45
-37.49
20.865
50.091
72.332
90.067
42.635
-10.923
-14.392
-0.29286
44.519
128.09
114.04
-29.475
-71.603
31.814
-26.445
-187.74
-198.33
-128.23
52.896
228.73
225.93
81.358
-2.2965
61.548
46.261
57.833
95.897
-47.269
-166.49
-49.834
83.09
-21.472
-82.2
-4.8423
-28.152
-44.829
45.437
108.62
72.066
-10.347
-71.225
-35.431
-53.515
-120.32
-94.628
-0.66791
75.753
114.63
99.395
65.517
33.343
43.383
66.298
-26.307
-163.12
-111.46
3.4233
-7.2957
-72.712
-43.904
-6.6399
3.628
-23.137
-55.41
-9.3782
63.715
75.416
65.357
30.33
-43.398
-69.016
-28.777
-50.01
-125.82
-81.207
61.908
126.21
91.292
46.163
7.2947
27.752
47.652
-4.8491
2.222
6.3345
-19.369
-31.785
-17.982
-46.467
-85.335
-90.856
-52.793
-52.137
-48.297
48.192
137.34
145.36
131.06
87.113
2.9088
-94.131
-162.99
-170.7
-57.678
35.37
5.864
9.0399
52.351
20.445
-21.12
-9.479
-10.364
82.919
140.06
90.811
64.075
15.707
-52.614
-93.724
-119.96
-122.1
-109.41
0.2499
134.54
136.1
81.435
80.839
98.473
80.416
33.158
-80.785
-147.35
-56.618
15.845
16.236
-5.4228
-32.837
-42.407
0.88029
-40.583
-109.2
19.186
166.74
219.39
160.97
32.553
-49.659
-77.466
-99.437
-116.89
-84.606
-50.604
-12.007
51.026
75.837
16.646
-42.82
-28.251
-16.907
-8.6138
42.8
60.302
10.318
-18.293
-12.531
-15.541
-11.435
-90.596
-181.52
-89.149
76.424
108.93
55.343
-5.2141
-13.253
28.294
29.802
-73.325
-166.96
-97.808
-1.2878
-15.536
-40.292
-70.706
-91.255
-37.195
-18.896
-29.199
97.776
293.66
379.2
277.09
140.1
41.393
-68.755
-186.79
-172.56
-105.69
-111.07
-67.874
10.947
-0.17992
-7.3081
38.616
61.505
25.644
58.948
166.02
216.26
185.9
102.9
-12.106
-122.77
-175.75
-191.13
-171.34
-90.376
11.031
82.812
108.38
64
-21.501
-57.391
-60.814
-22.368
86.015
126.18
61.663
-27.009
-87.075
-91.74
-46.031
-30.53
-83.343
-12.891
101.04
83.91
18.868
-40.343
-87.953
-60.761
-25.407
29.653
81.191
127.52
122.21
8.8493
-85.214
22.192
73.461
-73.109
-66.624
-4.06
36.434
34.188
3.2251
-39.361
-105.3
-125.63
-99.703
-53.182
-10.755
-26.123
-2.1072
52.97
78.99
45.888
19.138
-17.845
-4.483
57.927
87.476
34.078
-34.477
-48.734
-36.686
-44.104
-57.006
-65.796
-78.484
-10.058
67.276
38.858
-4.1203
-3.7549
26.079
12.441
-17.635
20.786
70.593
29.637
-16.686
-17.778
-36.957
-36.186
-108.99
-109.12
40.409
88.964
39.999
26.558
29.89
39.76
32.524
-34.414
-67.199
-27.297
70.651
71.089
2.722
-47.996
-85.026
-51.188
-12.093
-7.431
52.676
117.86
103.85
113.77
80.275
-42.108
-108.53
-117.2
-72.262
16.308
40.011
-24.786
-30.474
-4.1761
2.0738
-16.672
-4.4964
43.63
77.724
101.9
55.248
-32.145
-77.644
-50.586
-49.67
-85.84
-85.063
16.316
105.83
57.744
-14.469
-20.674
11.682
33.834
11.88
21.598
27.587
15.168
5.9788
-25.4
-68.844
-67.621
-42.852
-7.0092
67.275
58.824
29.148
38.931
36.723
46.204
39.552
-43.759
-103.45
-35.475
16.298
-7.8931
-38.287
-63.375
-57.616
-9.3666
-6.5613
8.7913
87.657
113.24
95.292
79.896
35.11
-25.346
-99.936
-108.22
-25.358
-5.5922
-29.787
-45.388
-39.393
11.713
21.589
-36.529
-29.158
45.279
65.749
73.326
57.447
-17.332
-57.797
-31.973
-57.833
-93.328
-46.013
25.408
35.76
41.175
37.969
17.595
31.652
28.472
75.51
102.43
-1.305
-74.155
-53.094
-52.037
-83.3
-124.79
-102.65
6.8161
89.068
70.307
22.314
0.74146
15.585
13.965
1.8872
15.07
26.343
34.214
29.144
-17.51
-81.172
-93.66
-73.327
-38.14
36.872
73.006
63.949
63.349
35.324
31.013
20.211
-41.769
-17.71
39.628
22.953
-13.503
-18.211
-25.841
-76.918
-83.969
46.89
115.07
67.045
23.754
-10.267
-32.139
-1.7991
-1.0581
-22.872
42.136
58.434
-20.899
-49.745
-53.502
-48.728
-15.63
33.008
77.257
98.078
100.38
79.058
10.512
-44.904
-4.905
6.4914
16.223
6.3215
-116.81
-131.07
-51.816
42.749
94.281
44.285
-3.3816
-32.671
3.062
62.058
30.417
-167.1
-256
-170.46
-4.1637
149.85
97.417
-0.66181
-34.308
-62.615
-46.905
6.0165
-84.502
-95.271
52.868
163.19
148.88
59.087
-21.778
-113.14
-100.58
34.316
89.159
55.494
-5.7891
-26.058
47.181
7.1119
30.387
119.11
85.554
8.6125
-78.837
-67.096
-44.104
-49.706
-19.135
12.738
-6.5425
-25.796
-38.546
52.956
147.15
29.421
-34.908
-9.7219
-59.176
33.631
38.864
-33.705
10.863
-57.555
-94.976
-22.771
23.88
31.117
33.751
-2.9414
23.737
30.195
43.041
-13.449
-59.209
81.743
132.38
45.458
33.532
34.511
80.091
46.776
-24.292
-89.013
-115.15
-92.269
-66.236
-68.035
-43.604
50.977
98.102
53.742
-5.4767
-41.381
-75.373
-116.76
-145.31
-164.13
-198.03
-132.27
33.297
131.75
127.91
58.548
-10.213
-33.856
-48.866
-1.0748
77.708
89.606
61.73
20.313
-4.2063
-2.1126
-43.308
-78.191
11.49
102.98
112.16
84.642
56.215
53.646
20.451
-31.505
7.4466
77.2
108.36
72.319
29.679
-2.5276
-23.566
-44.722
35.954
226.18
124.8
-134.49
-128.4
-73.255
-55.53
-33.775
-28.105
-3.7681
7.1366
-35.761
-76.042
-99.26
-110.89
-94.206
-48.011
54.644
93.185
72.255
19.273
-13.737
19.606
-26.715
-36.489
61.245
61.32
20.294
4.9914
9.2435
58.295
42.456
-15.557
21.194
72.979
42.907
-100.17
-192.57
-173
-126.51
-165.84
-81.54
158.5
173.34
78.949
69.778
82.011
44.238
-10.669
-13.02
17.326
39.307
-13.246
-81.8
-64.762
-12.548
-17.706
-52.293
-18.274
3.5786
19.16
-16.97
17.468
63.179
75.112
-0.028704
12.561
143.02
39.692
-78.299
-52.36
-47.141
-56.27
-74.194
-59.671
1.0434
-26.603
-76.587
-78.799
-61.423
-21.493
-16.683
8.473
122.33
187.53
169.12
107.99
29.675
-29.01
-53.712
-81.762
-13.113
79.966
62.215
1.9017
-49.139
-74.094
-69.036
-63.505
-24.751
59.827
112.34
98.305
68.807
56.703
25.89
-51.576
-92.64
-35.172
13.127
27.745
8.2085
-69.98
-110.98
-122.99
-164.63
-91.278
33.352
78.702
77.972
63.322
44.024
31.833
-7.1216
-29.068
26.808
61.057
41.938
15.391
-2.0772
-11.317
-20.239
-50.361
-23.035
40.566
59.033
38.693
19.687
7.1435
5.1451
-27.266
-48.705
12.743
44.584
26.555
-5.7901
-30.202
-6.9447
5.0045
-1.183
34.75
54.731
17.477
-23.668
-43.43
-74.831
-91.686
-81.43
-61.997
27.358
102.14
85.813
34.294
-4.32
-30.508
-34.228
-30.845
-64.383
-56.218
-8.4218
20.806
14.46
2.2061
-19.705
-30.038
-39.26
-51.6
-3.3781
42.547
42.989
22.38
-7.357
-30.064
-14.967
-6.1825
5.2001
73.137
137.2
135.11
107.32
89.479
67.762
65.263
18.874
-28.925
-4.4454
24.61
34.999
17.417
43.812
52.765
-7.7895
-76.956
-170.12
-114.19
-69.507
-111.11
-83.602
-17.189
11.777
57.745
13.011
-16.137
10.811
1.9967
10.54
59.711
20.408
-10.625
-24.745
-60.402
-8.9845
21.897
19.662
31.078
-28.684
-83.177
-134.69
-59.496
33.897
58.484
44.366
42.973
31.482
7.7543
4.5899
-48.457
-81.925
-9.5676
52.842
4.3555
-119.03
-56.863
36.118
37.352
35.672
106.26
142.52
62.601
-20.975
-52.944
-44.759
-74.95
-77.709
-73.207
-73.183
-41.164
-17.793
-37.749
-49.444
-29.614
-63.234
-17.843
-0.88256
49.589
248.1
359.98
457.84
339.03
-76.476
-241.63
-156.53
-59.837
-35.404
34.843
65.732
65.028
43.181
54.045
34.334
-63.645
-136.65
-19.212
-3.1427
-89.095
-150.78
-198.04
-215.81
-196.34
-179.17
-188.59
-143.51
77.198
242.81
196.3
109.93
131.43
149.71
61.386
27.826
100.59
103.22
1.2659
-71.286
-92.488
-128.11
-94.634
2.5039
33.773
19.707
61.249
51.151
-29.357
-103.07
-113.18
-69.626
-109.05
-133.79
6.9921
92.274
86.012
72.514
121.39
113.61
27.635
-40.765
-6.5036
95.9
117.54
38.43
-25.003
-146.5
-141.43
-108.99
-178.17
-110.23
40.166
153.32
117.69
86.246
-86.65
-41.745
115.01
170.58
121.12
97.616
31.269
-39.436
-29.067
-43.471
-28.628
34.68
74.329
261.31
381.53
277.87
190.27
86.11
-15.947
-71.62
-91.731
-165.35
-182.75
-262.71
-312.77
-384.75
-574.47
-708.51
-1158.1
-1009.9
39.059
399.32
364.44
418.01
483.07
480.3
537.6
461.28
431.07
516.37
767.93
314.36
-260.75
-321.7
-288.06
-326.33
-300.52
-251.75
-193.9
-27.99
7.0847
3.1956
-19.184
4.0739
-1.4516
-48.347
-108.41
-120.19
-47.829
19.065
25.658
-11.893
-27.606
-22.732
-4.5039
-29.134
-45.426
47.324
156.83
158.31
104.85
77.672
58.809
82.357
83.935
60.31
108.43
103.62
45.587
1.4226
-31.223
-60.336
-29.324
-85.171
-125.78
-9.2751
25.302
99.881
112.37
18.332
-65.321
-58.707
-145.66
-138.42
24.278
132.47
112.35
62.585
17.816
-23.438
-107.33
-170.48
-192.82
-89.827
38.555
73.314
60.461
42.719
15.056
-16.14
-72.717
-154.7
-98.101
38.117
93.529
86.148
65.655
73.428
51.7
-10.811
-87.412
-110.95
-18.636
45.183
69.107
61.682
40.005
23.212
6.9685
-12.278
-62.347
-56.188
30.383
84.889
65.648
23.601
3.1651
-18.002
-40.291
-69.623
-101.1
-31.218
65.818
84.461
59.94
42.773
40.905
28.856
10.624
-33.692
-64.279
3.2163
62.501
53.63
26.576
6.2272
-6.7867
-29.005
-53.364
-82.905
-122.63
-71.046
24.094
50.422
34.807
13.066
-0.8066
-12.638
-29.213
-53.926
-83.613
-46.094
47.655
82.832
59.438
30.575
22.834
10.565
-3.9251
-18.11
-53.514
-33.887
44.617
66.152
43.045
27.151
28.985
27.215
25.743
24.379
6.9526
33.006
106.54
149.06
118.91
55.155
5.7234
-51.483
-46.64
-22.41
-103.89
-161.87
-85.882
-34.041
-25.504
-0.75163
-3.8156
26.158
59.181
46.127
6.3456
30.881
31.854
-8.1636
-69.972
-172.74
-245.7
-206.93
-163.11
-208.66
-251.29
-82.387
174.43
202.77
203.74
277.58
193.09
92.063
74.486
45.704
-51.329
-92.108
-18.666
51.915
71.611
84.416
61.12
7.2071
-18.69
-55.675
-88.675
-82.287
-20.532
30.524
40.509
14.383
-18.16
-47.331
-67.596
-78.993
-95.089
-77.982
-41.856
-26.442
-27.972
-34.729
-38.198
-37.348
-5.2522
8.5237
-23.468
-43.457
-28.945
39.953
106.28
78.95
28.113
37.382
54.658
15.395
-75.172
-61.797
39.422
85.331
46.962
-1.0537
12.436
30.705
4.8013
-71.751
-125.36
-50.24
68.208
105.73
58.031
16.76
22.08
21.193
-6.2273
-75.304
-126.41
-69.559
31.292
120.38
143.5
88.667
19.48
-39.429
-69.107
-57.124
-0.30027
72.623
97.606
65.752
13.507
-11.949
-15.323
-32.29
-45.592
-55.69
-63.997
-14.279
35.906
59.03
74.289
80.6
76.673
66.112
54.338
50.363
28.348
3.1184
29.714
95.999
107.79
81.266
58.644
-17.624
-97.661
-164.51
-155.2
-74.705
-20.488
-25.144
-30.122
-52.861
-92.3
-108.88
-104.61
-62.389
22.425
78.096
71.807
32.41
-19.65
-35.824
-14.779
14.772
24.764
20.6
50.737
61.234
-0.73173
-21.442
6.4523
-2.1818
-30.053
-50.463
-66.289
-74.203
-42.622
-7.4109
12.816
27.265
41.222
44.273
41.32
-4.7739
-36.674
16.237
56.588
49.691
40.561
44.1
27.238
9.6695
0.68245
0.8309
34.763
79.012
89.822
-15.837
-130.41
-120.45
-65.036
-28.883
-36.006
-36.776
-14.674
-17.385
-32.142
-28.606
-16.042
2.5041
9.7046
8.374
-10.079
-5.5872
34.073
55.929
43.449
20.006
-13.064
-43.192
-64.308
-70.964
-34.409
28.487
74.158
87.807
80.265
37.718
-25.817
-35.803
-14.356
16.997
49.879
14.817
-41.406
-71.524
-82.496
-74.611
-45.998
-25.212
-9.2543
44.44
52.568
8.2975
-9.1455
14.842
28.405
30.176
21.924
-10.964
-44.208
-47.331
-14.57
16.058
37.072
37.955
28.262
-19.438
-86.561
-68.362
13.739
70.174
76.799
58.123
25.624
-21.39
-103
-113.18
-5.0769
83.488
101.27
78.265
23.776
-47.941
-105.95
-113.11
-39.381
31.691
48.438
49.923
54.822
28.665
-33.517
-47.801
-30.567
1.0845
53.42
85.143
71.88
20.155
-11.62
-0.4737
6.2787
-21.622
-45.116
-37.792
-31.789
-46.473
-49.402
-28.246
7.5407
54.569
77.476
84.448
50.671
-0.07664
21.089
46.977
43.836
34.87
31.711
14.391
-16.512
-42.44
-56.355
-34.8
14.941
41.669
49.145
-16.685
-104.38
-74.724
-0.063958
22.109
5.5006
-8.6624
-18.038
-31.356
-57.901
-58.918
-3.667
56.086
78.012
79.051
62.687
-6.8412
-44.774
-16.929
3.1373
-6.9133
-16.437
-13.792
-17.934
-29.673
-59.81
-59.48
-24.213
9.8193
45.135
50.478
5.5819
-51.777
-53.367
-15.159
-0.019372
-6.8502
11.752
35.094
25.51
-5.4885
-20.462
-10.085
10.132
12.519
7.9357
22.578
1.2207
-23.625
4.6346
26.691
10.058
4.388
5.4788
-0.99468
-9.1925
-36.59
-43.622
-27.237
-20.883
-12.104
-7.4416
-14.366
26.473
90.077
119.57
114.96
80.501
39.063
-3.9398
-67.875
-86.669
-41.002
4.1117
23.592
35.452
25.658
-31.437
-72.654
-43.335
-0.42542
24.523
25.439
15.998
-7.9151
-34.227
-34.171
-7.9444
10.192
30.372
65.687
74.129
19.714
-47.991
-69.177
-65.77
-71.846
-77.911
-51.93
-16.15
1.3661
-0.65583
-2.0407
4.015
22.597
39.701
49.616
61.421
43.882
8.9236
2.3614
8.7815
6.2216
-0.91656
-20.039
-39.801
-51.01
-52.508
-41.989
-17.565
8.5885
21.348
20.426
2.4895
-3.4334
12.838
28.609
36.915
41.648
36.228
15.317
-18.265
-56.992
-63.517
-33.966
-7.7488
-0.58413
18.844
39.655
38.349
23.51
13.942
16.692
7.2177
-2.1309
-2.2293
7.9246
25.552
27.288
7.069
-28.502
-46.43
-30.264
-23.2
-28.983
-25.831
-11.676
1.9804
-5.8282
-12.27
6.633
27.301
34.467
41.754
25.955
-2.1667
-17.831
-53.697
-38.07
21.121
52.247
48.057
-20.326
-33.434
40.408
72.589
51.817
-20.074
-65.571
-9.9185
10.841
-19.027
-32.249
0.16421
27.568
33.678
33.638
-36.673
-71.211
-5.7578
40.187
9.2118
-39.815
-41.602
-12.271
31.28
27.542
-19.248
2.925
63.353
71.21
58.994
-24.025
-104.19
-73.165
1.9712
43.52
28.54
-6.145
-28.532
-33.551
-42.01
-31.814
-0.74056
28.667
34.679
20.19
0.58072
-17.619
-26.851
-40.431
-35.611
-3.963
17.457
10.591
-3.3645
-10.347
-10.199
-14.46
-20.029
7.7587
41.005
47.089
37.551
23.866
7.5875
-2.3226
-10.082
-19.733
-13.997
4.888
13.984
12.312
13.042
22.317
15.454
8.7147
8.4505
-17.452
-10.013
2.9343
-5.7693
-25.236
-34.139
-30.436
-30.377
-4.7489
24.404
55.311
76.317
25.649
-13.008
12.269
33.727
3.4435
-5.6319
-12.849
-6.5415
-9.2592
-13.094
-8.2621
-9.4692
-26.278
-35.221
-3.1029
44.938
58.658
30.907
-9.786
-42.866
-54.35
-65.78
-75.617
-46.565
-0.66863
26.883
25.303
6.6891
-12.359
-21.291
-28.184
-29.45
10.343
58.713
73.936
58.106
24.673
-15.251
-37.289
-54.292
-58.086
-10.699
38.997
69.396
70.21
12.142
-34.071
-47.754
-46.226
-14.582
1.5853
-0.049308
0.13799
11.436
29.593
38.735
54.584
48.621
19.564
-10.815
-27.398
-17.093
-9.9563
-9.0908
-7.818
-85.765
-106.43
-77.261
10.23
192.85
241.23
111.14
-64.3
-67.381
-31.125
-109.46
-180.4
33.859
158.84
61.76
59.627
9.3215
-35.151
-53.447
-82.233
-77.5
-29.962
15.694
98.155
106.81
79.944
95.064
39.919
2.436
-18.465
-151.96
-167.28
-120.97
-194.05
-259
-46.411
155.76
133.7
47.877
88.379
138.74
198.45
201.74
93.361
38.332
-23.548
-83.315
-158.25
-280.81
-225.05
-63.543
-10.623
27.76
7.5029
-24.295
-33.232
-18.467
94.795
120.19
3.6544
-35.054
65.491
147.23
51.506
121.21
89.198
-55.611
-83.437
-44.641
70.821
109.48
-30.421
-29.663
36.177
28.104
5.3401
-40.785
-61.454
64.862
165.98
106.56
2.214
79.152
100.26
-105.98
-304.93
-320.38
-136.58
79.041
30.988
-225.25
-535.76
-417.31
47.94
152.76
109.96
101
105.99
150.1
206.37
384.33
426.73
44.443
-136.71
-148.79
-96.355
-81.589
-38.965
-21.253
35.408
81.517
114.37
118.82
-38.805
-100.92
-114.08
-94.021
-53.702
-47.238
10.792
37.89
-58.722
-24.146
89.366
144.08
206.49
162.18
22.571
-31.907
-66.211
-46.547
42.397
-11.281
-119.06
-108.19
-118.3
-152.19
-59.107
53.233
48.865
80.948
-26.354
-112.69
13.287
45.937
29.429
66.202
37.994
0.38844
-20.088
-61.407
-53.265
-66.839
-35.405
20.767
-9.2904
30.904
72.829
67.599
44.037
101.89
185.62
74.949
-83.043
-54.244
-11.494
-87.62
-108.36
-50.326
-0.69148
14.648
5.7794
-63.144
-23.812
39.997
-6.5112
4.6824
24.369
4.6961
-10
-16.103
-7.6958
-0.098692
71.805
138.87
120.61
79.57
19.445
-35.808
-56.318
-83.258
-124.15
-167.63
-88.621
-20.471
-39.192
-4.1014
48.664
132.2
186.33
176.74
107.25
-66.695
-179.34
-150.13
-87.471
-11.134
-2.8264
-20.128
12.616
37.076
26.016
14.074
-18.985
-27.545
-49.318
-92.432
-102.06
-143.7
-82.904
52.336
92.97
64.807
87.087
149.91
183.08
204.76
184.77
201.52
227.02
51.565
-88.332
-186.24
-340.06
-305.49
-118.15
-40.554
33.705
130.75
177.02
263.9
233.43
58.252
-122.43
-141.55
-76.422
-161.1
-217.67
-71.435
-79.373
-127.86
-64.133
-65.092
-33.764
14.71
-30.841
-126.44
-186.48
-153.8
-58.492
-38.903
-54.085
-58.956
23.068
126.68
165.14
124.12
69.281
72.224
83.933
94.574
116.19
166.78
235.05
210.96
87.685
-66.423
-168.01
-194.4
-79.108
30.998
-18.063
-177.04
-146.55
-2.2034
47.928
14.431
-73.059
-23.984
90.139
116.08
76.905
48.982
14.254
40.891
106.43
102.3
63.9
83.609
119.96
76.388
12.775
-115.76
-274.03
-270.04
-107.13
83.425
112.94
62.159
67.599
80.078
137.27
157.57
145.4
126.51
82.68
18.795
-70.728
-81.343
3.8494
45.652
1.5354
-21.561
-100.68
-256.56
-331.04
-266.1
-106.99
-33.146
-37.413
-53.747
-67.778
13.621
100.66
66.99
91.906
61.168
-77.565
-45.066
82.864
144.89
133.61
121.28
145.67
121.44
74.192
72.472
25.361
-37.559
-32.76
3.1725
10.762
6.8193
31.523
47.395
46.421
20.142
-54.828
-123.5
-137.79
-2.6491
132.51
153.77
52.129
-56.573
-43.924
-55.029
-134.66
-239.19
-277.52
-346.59
-394.91
-273.29
-151.41
-66.357
-6.4891
53.851
119.93
311.18
400.72
400.9
462.34
353.48
185.36
42.014
-47.194
-178.97
-248.55
-162.47
-218.16
-329.32
-392.66
-384.57
-211.05
-1.6625
-60.954
-248.59
-206.82
137.2
237.77
152.96
93.305
59.064
34.389
60.734
102.74
163.51
131.96
81.312
44.646
-21.048
-67.84
-99.388
-66.943
38.895
120.21
166.28
162.43
142.18
117.38
59.448
-14.378
-47.564
-74.562
-55.776
33.348
89.289
108.82
139.65
101.84
58.966
74.835
19.385
-47.465
-57.805
-69.643
-75.907
-44.917
5.1689
-1.8213
-6.2258
68.628
44.972
-30.792
-11.681
-17.11
-16.678
-20.883
-182.84
-243.62
-56.795
52.971
75.554
94.654
83.862
57.203
96.134
206.66
320.29
231.34
38.848
-1.276
-193.41
-292.55
-56.84
-12.851
-51.133
-28.36
2.5445
-55.656
-197.79
-193.72
-82.545
35.784
174.76
210.1
139.06
48.735
-18.425
-164.66
-245.91
-172.18
-132.96
-97.356
-14.171
-18.138
-17.471
46.721
91.016
63.596
8.9721
-13.422
-8.9174
-70.948
-129.48
-93.745
-14.692
60.012
130.73
95.627
-55.642
-104.85
-7.5736
87.348
133.74
92.437
17.032
-60.986
-61.4
-55.317
-98.627
-123.49
-109.86
-82.925
11.785
74.708
-36.89
-68.384
-62.838
-95.422
-91.66
-48.619
1.3064
31.788
68.764
207.34
252.16
179.73
164
98.834
93.241
4.5587
-139.34
-69.659
22.872
29.464
0.17475
-14.145
-19.836
16.891
5.7759
-113.85
-127.75
-89.518
-74.237
79.623
283.37
299.04
198.6
60.222
-188.64
-267.75
-182.31
-153.3
-107.36
-59.715
-12.8
8.9002
135.48
199.25
144.01
83.191
56.557
34.712
85.164
22.457
-54.878
-76.604
-88.374
-38.841
2.484
68.536
176.38
287.87
311.39
287.11
233.1
146.8
-32.546
-206.43
-395.32
-483.14
-575.34
-602.36
-316.63
-10.663
249.36
436.31
374.99
270.58
168.69
44.396
-73.334
-250.79
-263.37
-106.54
20.75
160.6
185.66
25.416
-127.82
-23.093
85.27
86.034
57.268
18.166
-30.37
-121.88
-159.06
-120.22
-84.305
-70.941
-65.794
-61.646
-216.48
-241.49
66.056
409.77
499.14
424.4
296.43
129.79
16.432
-69.614
-150.9
-326.81
-420.12
-315.57
-240.67
-224
-221.29
-229.11
-231.93
-244.43
-251.52
-178.42
-94.349
-5.8334
82.266
119.77
161.93
288.05
288.09
321.2
424.08
429.19
376.67
329.61
513.55
446.5
-97.307
-329.65
-311.2
-233.98
-179.8
-226.31
-197.45
-27.062
1.6197
-41.439
-28.237
-41.94
-4.5088
67.488
-41.512
9.0215
81.049
12.799
-4.2811
56.634
196.06
181.01
-10.912
-111.62
-130.98
-141.92
-56.358
-3.927
-8.602
10.118
-42.113
-53.25
36.192
39.05
12.599
11.174
30.173
14.183
0.16348
-52.72
3.8038
67.944
27.11
19.1
23.255
24.816
-1.3364
-23.21
-50.71
-31.893
3.5927
34.986
21.225
-3.731
-67.172
-122.25
-35.853
-11.375
-0.33705
44.593
13.001
-109.33
-206.34
-89.676
195.62
425.16
163.68
-103.24
14.917
89.884
-34.732
-78.864
-127.17
-119.33
-76.606
-14.648
105.45
225.28
183.34
101.05
10.226
-114.15
-136.9
-140.05
-85.091
-67.808
-129.01
-48.614
79.503
5.1058
-107.84
-28.88
154.23
126.61
-9.406
36.057
125.06
53.369
-79.828
-40.619
33.878
-13.633
-15.025
24.907
12.578
31.499
-0.20952
-40.895
-34.937
-14.908
-7.94
-26.412
-50.368
-76.526
-96.632
-51.33
11.165
15.044
4.8937
-2.6614
-4.4855
9.7705
18.443
12.23
-0.77805
-20.487
-38.769
-69.766
-64.333
7.6318
60.547
70.334
61.793
49.886
41.023
32.054
14.629
1.715
-11.268
-21.1
-38.534
-62.698
-22.757
45.308
68.574
72.484
69.632
60.602
59.319
50.731
32.908
16.467
0.82327
-18.461
-42.437
-62.168
-87.806
-67.516
3.9594
43.639
51.319
52.834
59.724
87.922
112.82
119.44
110.19
71.634
32.609
-5.8058
-29.177
-78.457
-141.44
-116.82
-72.128
-64.748
-74.041
-126.06
-95.162
-21.949
-6.6057
74.065
79.134
38.608
75.28
99.136
116.55
136.35
7.5274
-42.783
37.552
57.177
-70.169
-181.74
-263.04
-277.21
-113.23
-14.359
-33.627
-74.93
-101.31
-7.4406
126.12
128.54
43.192
35.649
12.015
31.32
41.908
33.236
86.986
111.61
93.073
-11.189
-108.65
23.532
53.667
17.312
49.383
-60.365
-33.059
51.342
45.98
72.402
-95.638
-158.6
-58.5
-86.88
-219.39
-241.4
-25.069
159.19
93.987
-26.018
-15.712
9.3444
-4.4462
116.17
296.21
334.84
74.887
-106.6
-65.158
4.5652
-20.119
-46.007
-50.853
-41.04
-24.302
-9.1957
-29.346
-68.737
-20.865
27.675
-35.528
-92.163
-68.476
11.263
25.678
17.781
35.583
-74.564
-33.883
-20.032
-163.38
-54.319
69.32
105.19
