18.691
6.5186
-10.639
-19.577
-24.764
-28.028
-29.372
-22.591
2.6662
24.419
31.114
26.166
15.393
7.4811
9.3117
-0.071346
-17
-24.747
-40.887
-56.54
-20.296
17.928
23.927
34.787
24.895
9.9879
18.919
12.49
-4.9592
-0.85965
-4.423
-9.4591
-12.05
-19.563
-2.2787
24.464
20.743
13.293
23.45
14.688
-4.323
-9.9481
-28.266
-46.411
-42.783
-49.868
-35.796
7.3243
20.241
12.948
28.361
43.892
41.378
39.635
35.707
22.092
-0.11037
-17.713
-37.146
-46.099
-14.143
15.161
21.374
17.906
12.631
18.661
15.037
-13.531
-3.5685
13.632
-8.4888
-29.9
-48.389
-38.401
-7.1633
8.674
34.284
36.717
10.718
0.99274
-18.189
-44.523
-20.13
-9.4611
-35.294
-71.91
-69.08
2.2814
55.558
50.577
30.142
15.731
16.114
31.952
27.205
1.7875
-21.616
-38.08
-62.003
-65.116
-11.089
29.254
28.559
21.555
18.977
23.619
29.645
10.916
-6.1084
-11.834
-24.995
-40.717
-58.04
-17.931
44.718
58.065
54.539
33.943
8.6164
5.7993
-1.0466
-19.459
-30.614
-42.961
-51.769
-64.68
-33.537
26.681
48.218
81.399
93.911
70.151
71.627
92.093
80.923
67.976
52.629
-25.655
-86.871
-57.13
-15.379
-22.684
-24.197
7.4215
3.1641
-51.632
-91.075
-49.795
-9.5092
-4.5663
-2.0967
9.9945
20.918
-12.32
-48.175
-27.347
30.23
60.194
40.32
21.832
17.789
2.5076
-1.9222
-39.225
-87.957
-33.588
51.778
56.752
16.878
-7.9663
-14.495
0.0087252
14.567
-0.17541
-32.334
-56.788
-66.468
-47.295
1.1593
26.483
23.851
16.53
17.284
25.635
20.496
-0.19539
-24.089
-35.608
-24.633
-22.093
-20.12
12.619
24.771
11.027
10.335
15.803
21.279
18.186
1.5875
-3.8821
-27.09
-36.007
-35.924
-45.451
8.1322
50.446
30.093
12.327
20.676
23.234
25.936
24.243
14.85
1.0568
-24.931
-47.339
-65.75
-40.586
8.2331
15.212
1.0417
2.0147
0.64384
7.9096
22.103
8.8969
-19.594
-39.091
-47.092
-56.008
-12.407
53.268
59.397
29.539
12.303
20.621
33.24
33.765
17.762
-12.17
-36.598
-53.421
-66.4
-22.457
42.236
62.093
45.323
32.206
32.118
25.737
29.79
32.489
7.8547
-44.902
-59.159
-52.283
-73.103
-53.573
-6.3503
31.564
48.145
33.096
10.539
6.0682
25.587
26.807
0.32218
-35.432
-70.456
-58.004
20.603
62.222
50.655
20.823
-14.349
-0.61684
32.818
25.105
0.65977
-22.413
-42.276
-39.028
-38.451
-16.476
25.186
33.194
23.811
13.621
24.36
32.232
15.756
-3.0251
-18.142
-24.262
-26.042
-30.614
7.2087
44.041
33.674
12.738
2.6357
16.277
30.829
17.909
-2.4578
-16.103
-28.076
-26.689
-29.34
-36.419
-7.6439
22.669
27.878
26.816
27.883
34.069
41.869
40.81
43.458
40.342
22.925
-4.4792
-77.289
-124.26
-48.634
54.338
68.154
11.388
-38.612
-67.022
-45.769
32.317
54.05
-5.805
-76.433
-134.8
-99.866
29.754
74.277
21.707
-40.751
-67.957
-26.792
44.149
65.722
31.672
-17.727
-33.871
-18.997
-11.271
-13.923
12.624
31.059
10.505
-29.591
-25.034
24.52
46.484
16.488
-27.05
-58.481
-77.041
-59.507
-44.401
-6.907
33.779
34.491
51.594
81.596
82.017
64.518
38.505
-17.015
-69.154
-63.008
-31.382
-43.097
-37.925
0.11495
-2.7126
-6.5692
9.2937
26.303
47.304
55.398
50.999
41.024
-1.5107
-49.842
-67.554
-36.545
33.77
53.177
19.991
-18.009
-27.6
27.554
74.56
51.745
-0.9426
-37.95
-57.731
-47.213
2.0371
48.058
46.976
23.646
15.903
16.966
12.897
1.2713
-26.838
-46.443
-16.046
11.512
-13.272
-13.473
11.251
21.604
37.186
34.477
8.3586
-8.0992
-0.38504
13.514
16.412
4.0155
-2.1014
-14.451
-27.963
22.947
44.31
-4.8543
-7.975
23.158
6.3658
-32.698
-50.772
-37.339
-17.928
-24.867
-33.85
-13.723
7.4367
17.75
10.578
3.4191
18.497
34.628
43.631
47.113
42.854
52.837
53.096
76.922
73.981
-15.439
12.916
79.811
122.84
217.54
150.64
-65.205
-171.38
-168.54
-167.54
-229.11
-178.68
-89.665
-43.242
-17.438
-28.714
-60.491
-53.464
16.688
21.737
7.7802
4.0938
-49.777
-82.521
-47.549
-19.547
-14.656
-19.097
12.231
33.534
-10.489
-23.732
13.583
24.186
-10.013
-31.675
-2.6805
29.32
43.657
61.395
69.451
53.835
-25.077
-108.39
-99.958
-75.17
-54.587
-16.148
27.402
64.384
66.333
45.044
49.074
53.875
27.869
28.726
21.905
-4.4127
-37.027
-56.01
-5.7081
50.607
55.109
44.109
34.272
33.304
45.891
37.044
6.1441
-11.21
-31.553
-22.085
29.216
54.847
50.159
14.584
-24.307
-18.522
12.312
18.578
8.9586
-2.4992
-36.325
-21.909
34.445
47.485
31.113
-0.16595
-26.771
-15.497
-9.4115
-32.44
-48.618
-47.348
-10.648
32.457
42.108
32.885
21.182
38.554
61.746
75.857
90.829
71.879
30.309
10.37
14.772
10.943
-18.602
-46.015
-40.407
-35.9
-68.903
-136.37
-196.28
-178.05
-100.14
-33.264
8.5883
-0.32152
-14.995
-12.43
-6.6479
5.8173
6.8612
14.675
59.734
107
126.71
128.5
103.44
10.671
-57.887
-105.85
-113.38
-63.103
-42.629
-46.954
-30.809
-23.67
-38.938
22.369
82.786
98.116
87.139
60.181
26.917
10.433
0.082776
-0.59417
35.903
88.795
116.5
125.33
11.39
-179.93
-214.03
-81.022
29.133
-38.299
-165.32
-135.89
-39.761
2.0984
5.8546
-28.151
-115.02
-131.64
-86.092
32.69
117.99
106.47
58.044
40.943
43.032
40.592
33.429
5.0331
-11.172
-15.814
-1.5976
55.183
88.074
76.34
61.966
52.572
47.92
39.991
24.284
7.8806
-1.0233
-14.089
-24.501
-1.4814
27.959
29.996
23.975
17.367
6.7015
-1.2627
-7.976
-16.022
-25.719
-30.479
-29.941
-33.494
-9.1308
21.825
28.15
17.851
5.545
7.2898
6.6008
0.6729
-1.0162
-3.31
-13.052
-20.973
-32.06
-40.511
-19.704
0.71193
2.9931
2.4041
2.3976
3.6213
7.2272
9.7597
7.112
3.2764
-6.8405
-15.693
-29.57
-43.567
-26.413
-0.83448
6.1573
6.8715
6.8327
8.4693
15.313
15.623
8.263
2.5957
-3.557
-14.803
-37.318
-41.427
-12.37
10.706
16.768
14.894
13.828
24.293
29.837
24.658
18.192
13.964
25.349
21.428
52.914
134.36
168.12
193.54
222.04
184.39
10.282
-128.49
-202.29
-317.38
-363.8
-321.63
-251.06
-196.15
-151.42
-41.179
26.394
36.319
53.763
56.557
30.931
3.9255
-5.5179
27.208
58.793
47.137
5.8125
2.9839
59.096
87.401
70.867
46.163
34.129
39.734
43.302
29.933
8.407
-17.336
-34.061
-59.414
-39.049
39.18
71.136
57.111
38.127
33.371
45.392
44.411
28.033
2.5898
-24.481
-50.608
-59.536
-5.7208
48.614
52.5
35.331
24.852
27.497
34.735
20.831
0.59864
-17.464
-57.402
-48.924
18.247
50.071
38.439
20.944
19.802
32.039
36.775
34.16
36.43
41.905
37.071
46.224
121.53
169.42
116.78
45.431
-16.445
-58.926
-75.382
-86.495
-73.512
-74.462
-78.016
-47.675
-22.736
-31.635
-38.903
-45.674
-46.472
-34.864
-36.008
-40.441
-48.034
-40.234
-4.8083
5.7915
-3.2131
-9.1218
-12.925
-8.6484
-5.0854
-11.893
-24.186
-42.424
-23.17
7.2307
7.2303
5.0178
-6.0718
-15.361
-23.8
-34.069
-39.004
-50.542
-38.488
5.1252
24.283
21.124
13.725
23.172
32.593
-5.6444
-45.625
-57.498
-41.698
1.5795
20.351
1.629
-22.317
-13.26
49.931
91.961
94.065
75.356
37.466
33.451
32.073
28.414
27.722
23.975
15.716
12.533
-36.968
-150.91
-164.28
-35.582
64.301
106.12
137.72
112.52
58.374
14.207
-35.75
-73.81
-48.885
26.743
81.394
87.395
56.758
51.75
69.631
62.718
-20.954
-154.57
-219.61
-217.11
-183.66
-87.429
-27.334
-4.1331
4.4925
30.981
71.52
85.368
59.378
-0.35989
-33.791
-42.457
-22.953
6.9049
7.9176
-61.115
-99.486
46.1
152.72
116.06
131.71
184.32
153.62
-13.044
-229.5
-440.28
-505.53
-288.71
-48.826
68.258
101.12
118.47
121.01
120.53
95.312
58.68
18.42
-15.792
-53.392
-66.051
-20.884
14.962
24.148
22.167
16.603
29.19
42.615
37.399
22.994
1.2455
-24.569
-48.387
-75.046
-42.574
28.099
54.393
45.916
26.155
21.645
34.087
34.587
19.737
-4.2172
-27.129
-55.977
-64.514
0.30569
62.955
73.052
65.249
52.887
54.373
63.859
44.243
20.206
4.0904
-12.156
-36.803
-56.544
0.65762
64.753
70.969
50.626
27.698
21.594
25.869
18.589
4.0687
-12.687
-26.06
-47.703
-44.388
27.309
71.892
44.495
10.624
-14.404
-25.441
-19.954
-9.6906
0.011119
-4.831
-27.961
-51.319
-23.826
21.021
29.027
25.978
23.187
14.964
3.4391
2.0744
3.9046
-9.9059
-25.199
-38.478
-39.618
-2.8423
23.58
19.616
4.9671
2.2493
8.7708
12.256
3.7072
-7.3456
-14.524
-29.381
-14.258
25.027
35.1
21.981
6.9452
6.128
3.0352
-10.501
-31.342
-42.247
-58.76
-74.555
-28.087
26.481
32.183
18.222
11.562
18.271
24.266
15.16
-3.7363
-23.67
-43.203
-71.052
-70.843
-8.6905
28.442
21.572
13.347
9.9726
12.105
9.2193
-6.8958
-21.671
-37.579
-49.105
-50.144
-64.882
-48.031
21.43
61.69
63.511
62.313
73.728
81.925
63.435
25.423
6.0523
3.4707
-4.2602
-17.532
-41.245
-76.138
-43.69
25.78
41.524
14.017
7.8489
26.764
29.446
23.294
7.3395
-3.9722
-14.689
-30.611
-44.464
-73.419
-65.332
11.685
43.922
12.646
-14.46
-5.2889
6.4021
10.486
21.52
31.251
13.663
-11.17
-18.006
-42.769
-34.429
28.26
49.607
42.139
46.591
36.645
18.225
15.296
16.613
-1.6648
-26.868
-33.062
-48.81
-28.892
24.657
24.379
16.244
23.897
20.786
16.746
18.671
13.5
-13.262
-32.547
-43.158
-57.029
-21.973
28.693
57.763
74.628
85.344
101.58
116.97
101.98
56.95
2.9875
-21.797
7.0777
4.1462
-2.9418
-7.2304
-80.318
-99.266
-118.04
-101.14
2.8453
97.517
152.83
108.16
97.094
156.34
49.878
-132.09
-312.92
-398.23
-248
-104.15
-4.2936
94.307
65.293
-45.731
-100.02
-69.493
35.801
81.897
74.669
24.33
-58.879
-103.52
-96.869
-55.906
-19.985
11.089
71.566
108.37
106.24
121.22
117.01
37.546
2.4908
-0.088898
-29.511
-43.38
-64.986
-88.598
-110.91
-163.27
-149.29
-47.295
14.888
18.131
13.724
-5.0745
58.507
153.79
127.55
88.477
62.03
40.745
53.105
55.82
87.289
159.29
209.18
180.11
104.18
19.397
-12.206
-8.9378
-117.65
-222.55
-247.28
-217.06
-178.47
-142.89
-135.42
-110.9
-47.554
4.5884
16.53
-12.719
-33.838
0.29292
48.377
69.753
69.727
75.347
79.257
90.526
85.579
45.746
6.5212
-20.759
-50.406
-54.356
-16.189
-4.412
-17.309
-26.734
-36.561
-52.138
-71.074
-43.631
71.227
148.68
138.27
61.45
-33.355
-12.905
53.759
58.299
23.752
-23.952
-44.4
-16.989
9.9893
25.268
8.8507
-26.007
-60.662
-53.157
-12.043
-10.331
-33.953
-69.601
-91.561
-66.761
-24.45
1.7464
13.684
17.909
29.126
30.368
-17.118
-19.856
38.74
65.123
58.107
46.291
47.099
65.06
61.077
37.028
17.833
-11.575
-34.453
-52.43
-58.164
15.934
83.532
75.635
63.402
36.859
18.847
37.465
38.713
1.6365
-30.446
-53.174
-86.187
-102.25
-69.622
-34.021
-7.4249
3.4038
-12.475
-19.599
-18.247
4.3614
47.157
60.283
34.512
-12.781
-39.817
2.3189
27.535
28.253
35.008
20.802
6.2209
13.521
5.5544
6.02
19.348
20.125
20.172
15.498
63.293
104.97
86.955
53.187
7.1433
-11.174
-21.059
-14.761
0.33672
-36.177
-79.641
-60.427
-56.703
-115.47
-102.48
-29.274
-41.543
-82.008
-70.229
-31.252
20.907
68.64
78.134
65.848
47.872
31.004
10.4
-33.891
-40.993
4.0684
21.333
5.9366
-6.2739
2.0017
16.722
19.514
10.69
7.8105
1.7301
1.4448
-11.562
-8.6445
33.854
45.969
14.352
-15.488
-16.229
-6.561
-7.8315
-21.703
-46.731
-62.42
-62.694
-69.277
-42.821
13.647
38.676
28.345
11.445
18.95
29.015
22.607
-3.3528
-24.368
-43.095
-57.032
-23.319
17.719
18.773
-3.778
-19.56
-17.135
-0.42346
7.3314
-3.0023
-8.0587
-30.115
-53.265
-19.836
36.807
72.1
82.903
78.606
76.97
54.166
27.665
0.48443
-53.762
-89.266
-105.2
-75.033
9.7139
29.011
11.251
3.4588
45.107
109.2
111.32
70.117
-12.772
-79.313
-113.82
-86.288
24.76
67.243
24.454
-36.305
-61.044
-36.615
51.846
95.774
24.706
-11.131
-12.111
3.4203
96.975
173.03
141.59
49.369
-37.092
-58.355
-48.041
-20.458
10.699
-2.8526
-44.234
-83.028
-63.055
-41.041
-43.153
-48.965
-55.828
-62.076
-64.169
-69.334
-88.012
-101.22
-83.221
-60.556
-15.918
69.544
103.87
93.07
65.425
47.318
49.199
45.066
24.913
5.6067
-9.0225
-6.7887
-9.088
-25.954
14.018
78.606
87.619
54.825
16.077
9.568
42.028
73.82
59.368
22.177
-39.526
-106.45
-117.74
-77.173
1.7997
55.675
49.779
36.165
35.959
43.6
59.212
51.206
1.5405
-31.991
-26.947
-26.976
-67.428
-81.079
-25.912
9.0847
-10.764
-22.133
11.693
65.39
63.591
22.207
-35.144
-72.469
-61.471
-56.233
-90.198
-97.725
-45.451
-5.8837
12.866
34.413
44.403
59.289
48.734
-4.1047
-28.132
-34.973
-49.529
-69.043
-64.86
-17.268
25.332
56.152
97.31
77.307
4.8951
-9.5295
-2.0332
-15.254
-50.194
-66.407
-85.4
-69.618
-15.948
24.882
51.139
66.581
60.799
38.851
44.316
31.158
-10.553
-36.575
-53.837
-50.343
11.904
60.066
57.906
50.543
60.667
77.939
75.231
33.522
-8.1118
-10.67
-19.42
-41.273
-16.236
2.9945
5.6151
7.9239
-7.5919
-25.523
-25.269
-24.452
-40.367
-52.773
-72.776
-68.766
-7.6375
42.76
59.472
51.774
33.426
22.545
13.778
2.2747
6.267
-6.9246
-6.1385
48.754
68.589
48.709
42.77
36.94
40.446
38.583
0.17116
-30.135
-58.094
-57
-14.735
-0.42471
2.4133
7.1085
-7.148
-13.633
-5.3592
17.608
62.087
60.765
39.176
45.818
15.044
-48.543
-102.3
-113.02
-83.008
-22.499
22.08
31.624
17.817
14.469
40.367
66.241
63.66
4.9526
-41.445
-31.386
-8.7705
-7.7003
-8.0012
-44.7
-75.488
-35.568
9.5876
25.636
39.445
58.979
60.43
35.2
-20.053
-70.769
-102.84
-119.84
-82.525
-30.16
-14.372
-14.992
-19.346
-2.8573
23.987
31.899
10.413
-6.4952
21.179
62.686
72.838
14.222
-59.882
-78.259
-71.436
-70.113
-33.689
-19.602
-120.91
-134.34
-27.288
39.261
30.176
22.556
33.987
44.354
34.957
11.14
-15.14
-71.557
-86.704
-1.4975
63.915
44.923
26.751
18.265
35.808
82.865
78.243
34.327
-16.319
13.436
60.172
33.061
6.7024
16.63
15.761
13.638
28.516
9.7903
-7.5868
-31.333
-35.365
35.921
101.86
65.697
3.9479
-21.7
-21.39
-20.404
-38.398
-62.577
-64.286
-47.229
-0.55896
38.325
27.093
-7.503
19.737
109.39
138.72
51.212
-33.335
-86.574
-121.81
-35.98
112.68
123.62
32.436
55.799
165.65
97.21
-108.28
-94.847
-45.076
-78.395
-131.53
-92.181
-36.096
-29.424
-46.864
-38.817
-10.006
-4.716
-30.494
-54.672
-53.818
-62.611
-27.248
16.367
4.3988
-6.989
17.869
93.428
105.7
65.126
10.67
-30.76
-41.503
-20.508
-6.0575
39.861
77.836
61.042
22.053
-7.8541
-3.3379
6.1678
14.816
19.475
5.6032
-11.502
-17.712
22.394
63.954
52.842
-7.0367
-62.545
-34.116
17.847
26.403
1.2445
-15.852
-33.791
-54.785
-8.607
71.215
90.606
46.239
1.5096
-22.306
-33.293
-39.817
-48.722
-47.35
-58.615
-60.315
-5.7131
38.53
38.468
19.827
6.596
6.6939
7.9821
10.819
0.05464
-31.407
-75.083
-84.756
-43.547
-15.168
4.9454
16.377
6.0899
2.1899
9.0136
-9.9981
-25.357
-18.521
-13.968
-49.509
-67.683
-8.5861
35.036
62.031
88.492
66.543
29.842
13.43
-32.333
-63.409
-35.568
6.5672
-7.9429
21.521
132.61
167.28
147.65
98.011
30.856
4.3655
5.6137
1.84
-12.379
-38.805
-64.178
-86.218
-81.738
8.2003
66.017
51.554
47.465
55.507
55.903
41.5
7.1755
-10.855
-15.279
-49.768
-106.45
-126.94
-57.026
23.065
33.622
15.535
2.947
4.4707
5.4947
-2.7971
-22.594
-38.119
-52.243
-77.153
-58.406
16.628
50.898
37.787
15.142
7.38
14.194
20.337
10.738
-10.953
-31.517
-60.305
-72.94
-16.658
27.191
23.801
7.1557
-1.8274
7.0214
12.912
2.7032
-21.436
-40.948
-59.701
-87.551
-43.282
32.753
45.194
20.711
4.4997
11.208
20.687
16.977
-2.3159
-18.741
-31.104
-49.083
-22.512
31.955
43.47
23.145
8.2569
13.932
32.596
40.229
29.479
19.086
5.293
-13.357
25.52
95.717
117.54
97.211
41.951
5.2099
24.705
35.218
-0.70829
-45.578
-121.4
-199.78
-150.52
-43.247
5.3403
-6.0459
-40.348
-18.312
30.493
50.095
15.475
-39.064
-81.394
-105.01
-85.609
-12.457
63.193
101.11
111.22
104.78
55.289
-12.8
-70.754
-92.481
-73.116
-62.458
-54.452
-16.077
0.47168
-50.828
-105.99
-78.067
-44.783
-7.4922
14.768
47.27
57.594
29.895
49.761
123.73
144.06
119.28
93.116
68.818
32.915
4.1996
-0.43183
-6.7042
-10.916
-20.679
-4.4744
39.812
46.082
36.74
37.366
45.865
45.613
43.675
34.454
9.7703
-1.2521
-15.692
-18.953
-8.6656
1.1596
19.798
19.097
20.864
25.345
43.112
46.357
-3.3284
-23.698
-113.96
-241.66
-242.78
-146.44
-24.318
78.062
129.69
138.66
117.74
80.976
52.1
22.934
-12.092
-54.994
-76.314
-76.598
-72.114
-64.487
-57.07
-33.278
5.3029
21.894
26.005
16.563
3.7731
1.0186
-14.527
-4.1942
25.669
25.15
16.629
10.79
15.975
29.018
28.88
16.174
25.765
34.112
17.944
-1.0817
-22.787
-21.257
-24.517
-46.968
-58.291
-60.253
-53.339
-44.141
-38.097
-33.689
-21.567
-19.133
-28.093
-40.495
-44.141
-14.225
11.39
0.0037285
-13.434
-3.1996
14.51
20.928
19.954
6.9178
-2.4661
-2.634
20.494
40.657
12.493
32.829
67.455
5.6657
-7.7517
8.2755
-16.319
-13.389
31.403
23.166
-31.798
-70.645
-82.64
-88.236
-84.269
-20.214
31.036
45.585
53.916
71.9
94.302
94.314
77.494
45.988
20.119
11.949
-13.431
17.412
100.99
91.266
34.021
5.2818
5.9573
-10.311
-39.527
-68.06
-88.61
-66.088
-48.669
-5.7457
49.56
46.272
10.504
-39.302
-56.988
-29.601
9.7227
24.986
26.855
20.195
-1.3755
-5.3429
45.052
78.133
38.304
-19.073
-53.091
-67.436
-40.32
-11.405
-18.528
-23.509
-24.091
-29.588
-31.995
1.2598
31.976
31.453
23.358
20.753
13.854
8.1871
-1.8091
-15.507
-23.648
-28.994
-29.747
-35.422
-27.703
7.962
24.744
19.2
13.011
11.73
9.7838
5.8442
-2.3143
-10.846
-19.041
-24.465
-30.292
-26.338
11.515
35.783
25.462
28.635
53.224
66.289
60.107
44.08
19.297
7.3304
-14.39
-28.035
-5.6593
-12.649
-43.818
-66.93
-81.171
-82.002
-67.115
-61.463
-73.251
-73.404
-67.077
-36.379
29.649
74.082
83.49
106.12
168.05
188.64
180.17
183.33
152.88
90.233
-62.274
-145.42
-77.371
-1.4449
12.476
-6.4087
70.944
158.72
105.29
6.4349
-52.539
-81.484
-93.646
-102.49
-76.907
-30.996
-8.1468
-26.263
-71.201
-73.513
-70.983
-138.18
-182.29
-118.63
-25.701
67.545
72.298
-0.42017
-25.484
-55.291
-85.072
-97.918
-128.14
-149.37
-142.07
-42.291
92.473
105.3
55.265
50.959
62.473
63.6
51.596
25.611
-2.4116
-30.33
-2.0384
42.18
49.86
47.29
52.742
71.176
87.749
57.436
8.7154
30.909
-6.5828
-117.12
-88.115
7.7798
20.301
-7.0181
-2.4028
17.519
16.561
10.147
-3.7728
-41.979
18.221
88.735
107.46
114.04
96.157
98.405
110.61
110.12
82.54
51.328
-37.074
-181.17
-104.76
46.631
89.932
53.789
-13.724
-56.163
-74.268
-68.602
-63.312
-48.561
-15.309
17.277
10.421
-22.223
-50.122
-41.702
-41.211
-41.778
-27.938
-13.967
-15.168
-19.078
-4.0337
-1.2416
10.279
36.807
28.958
57.017
51.178
-12.182
2.3371
34.26
62.906
67.858
-61.693
-120.91
-26.259
1.4027
-13.994
0.63925
19.287
-4.8579
-72.871
-81.842
-49.769
-62.806
-70.123
-84.842
-96.946
-81.865
-52.985
-19.507
4.6485
1.2038
15.187
45.864
55.944
59.109
44.373
-33.532
-43.667
3.9954
27.646
44.47
49.614
96.645
182.75
178.58
18.904
-46.78
14.204
-34.138
-64.297
-45.525
-8.3466
-28.844
-64.01
-58.425
2.4597
0.78753
-22.719
2.4262
63.272
56.829
-11.218
-23.139
55.338
124.35
81.639
67.862
92.787
70.25
20.332
-27.931
-85.96
-92.772
-97.629
-117.4
-95.276
-46.284
3.7217
29.109
22.73
22.93
-11.724
-98.569
-119.24
-77.468
29.341
125.83
85.323
43.041
27.076
35.041
55.306
34.895
3.2364
-20.208
-50.621
-53.931
20.498
99.671
101.39
-9.506
-19.566
-19.669
0.28493
165.5
74.483
-110.32
11.793
93.53
-47.18
-3.2668
62.221
-58.484
-110.29
-54.803
-64.112
-127.14
-131.05
-212.07
-259.97
-139.37
-13.847
-21.671
-58.498
-53.327
-25.856
33.293
56.722
59.121
64.616
75.316
102.55
137.51
116.48
46.627
16.831
19.308
32.68
24.761
-9.8455
-42.848
-91.183
-74.037
58.649
142.78
143.97
108.59
65.645
78.939
94.19
46.713
23.745
-23.339
-51.246
13.815
58.09
39.217
12.873
-8.736
-8.732
-2.3855
0.39766
-32.251
-65.18
-71.858
-38.173
71.006
164.02
183.19
69.506
-60.039
-87.266
-80.919
-58.502
-46.194
-32.239
-24.726
-69.621
-73.875
-15.713
-1.1038
13.954
37.159
29.116
23.96
23.039
-7.6372
-31.7
-46.458
-35.2
6.342
24.979
19.017
5.6717
-4.8698
-6.2931
-12.437
-27.962
-44.692
-37.784
-18.098
-15.452
6.6252
31.307
42.636
78.35
99.146
92.63
69.748
34.31
-7.0746
-41.565
-68.336
-112.47
-109.29
-42.708
-0.030604
6.6875
-23.123
-55.672
-33.114
9.6821
8.9909
-0.77273
-5.7987
-12.759
-36.903
-48.432
-6.9621
32.019
9.1622
-21.343
-15.581
-4.8775
-0.48178
12.057
14.865
-0.94769
-34.49
-49.197
-18.118
-4.751
-8.515
39.581
83.718
71.757
48.359
3.953
-29.005
-51.712
-82.624
-66.08
-4.7769
17.899
17.777
4.1843
-1.1
4.1881
1.0214
-25.783
-54.717
-78.478
-101.38
-55.918
22.721
53.457
61.519
71.871
87.963
98.941
82.583
54.842
19.339
-76.45
-119.59
-38.549
18.921
16.114
4.6601
-6.3685
18.774
61.94
76.169
41.465
-4.426
-37.017
-44.757
6.0187
39.26
28.398
10.77
10.977
30.522
41.665
26.703
1.1389
-15.028
-38.664
-83.564
-59.062
32.283
86.913
92.591
107.34
168.74
199.07
148.92
63.411
-37.115
-110.62
-151.77
-154.18
-95.045
-14.972
-0.39413
-35.704
-50.248
-42.987
-63.17
-78.229
-89.001
-90.447
-63.583
-51.642
-48.596
-8.0376
-5.031
-41.908
-27.984
44.273
79.129
67.409
26.427
5.9694
1.6724
5.6058
13.216
29.315
81.873
116.33
102.28
63.035
40.284
86.841
178.14
196.2
186.02
109.79
-73.537
-238.83
-395.02
-536.3
-465.71
-221.22
-43.733
65.43
141.86
171.04
161.72
116.1
40.786
-25.4
-83.811
-81.668
-29.88
-5.8185
12.034
28.524
37.054
52.617
54.638
40.749
18.487
2.1979
-15.892
-28.762
18.196
56.872
43.601
30.472
36.931
42.781
61.571
47.976
5.1216
-16.622
-136.14
-166.47
-7.1808
154.66
208.22
160.83
90.167
67.409
74.165
40.574
-1.4191
-23.358
-30.133
-9.5276
41.121
69.563
74.519
62.702
13.862
-83.214
-174.86
-227.75
-221.13
-190.94
-166.95
-78.777
1.6132
14.669
36.804
49.022
54.217
41.464
30.523
14.548
12.329
11.142
-32.143
-59.263
-74.442
-17.315
63.045
23.31
76.264
111.79
-30.997
-159.37
-161.15
-94.528
7.8478
127.16
166.96
162.79
140.05
82.297
-9.673
-123.29
-238.36
-267.63
-223.73
-187.72
-126.53
-27.17
69.938
104.85
105.62
101.82
99.724
97.261
88.286
62.577
36.7
12.78
-3.3109
-26.903
-39.098
4.1689
44.457
51.067
46.069
42.508
47.496
51.004
37.449
20.698
6.7959
-9.1399
-17.538
-38.533
-40.121
6.0285
37.001
35.243
27.768
27.491
32.499
34.26
23.587
8.8383
-2.8091
-13.8
-20.481
-36.216
-47.728
-12.443
20.189
21.191
15.041
11.949
17.583
21.463
12.747
-1.4161
-14.997
-23.529
-33.733
-42.2
-13.727
17.324
18.302
9.1721
6.0396
11.083
14.188
6.1675
-5.5514
-17.557
-26.512
-32.878
-46.178
-28.922
7.3855
16.823
14.346
11.072
15.83
24.304
18.226
0.21536
-13.068
-26.699
-34.42
-45.712
-53.005
-20.565
10.554
14.468
13.562
17.01
21.714
21.226
12.3
0.93006
-7.29
-21.62
-30.109
-43.402
-56.396
-22.076
17.446
24.966
25.908
27.141
32.37
35.021
26.809
11.702
1.0988
-9.6354
-21.177
-29.938
-50.553
-38.85
11.093
29.341
28.893
28.6
29.306
32.857
29.489
16.912
5.0957
-3.7266
-11.039
-18.705
-28.021
-47.821
-38.787
8.2031
27.394
24.354
21.419
21.663
27.35
25.185
9.2354
-2.6481
-11.461
-17.818
-29.046
-42.357
-13.74
21.1
27.886
24.305
21.392
24.512
24.763
16.525
7.1335
-3.2338
-12.984
-22.737
-27.574
-40.909
-57.829
-18.092
30.091
38.838
34.577
30.222
31.236
38.657
35.687
19.821
6.6132
-5.4493
-20.242
-31.694
-37.049
-57.95
-59.435
-16.598
6.7811
8.6826
10.853
14.078
21.473
28.704
25.285
23.636
24.355
23.655
23.55
15.414
7.1679
-9.6055
-24.915
-1.1722
6.2619
-7.0177
-15.112
-21.519
-19.761
-10.497
-9.7059
-19.023
-30.256
-40.596
-45.364
-49.489
-60.645
-42.516
0.91212
16.827
10.662
4.131
9.527
20.13
16.82
1.1863
-11.919
-27.752
-37.086
-56.197
-64.962
-17.207
20.792
23.37
23.129
24.949
30.025
32.049
22.145
9.1944
-0.0032835
-15.212
-26.822
-49.24
-44.534
18.607
51.433
44.532
32.313
24.114
28.626
29.329
16.42
0.49791
-9.2511
-22.831
-33.991
-49.065
-71.108
-39.291
18.391
38.308
38.934
30.877
33.05
47.158
57.053
57.364
55.141
53.043
50.528
46.419
45.259
32.752
48.445
72.901
37.828
-20.054
-49.331
-65.618
-85.433
-89.872
-72.84
-53.068
-38.105
-11.676
-18.713
-24.69
-1.3968
1.0021
11.073
37.31
62.673
96.046
88.802
44.055
-5.8448
-71.17
-108.1
-131.26
-115.25
-33.389
32.051
48.842
34.839
7.022
-15.266
-26.684
-25.188
-24.763
-33.653
-34.046
-28.96
-45.901
-48.899
7.2545
57.365
60.636
48.595
57.076
69.126
67.959
56.326
34.622
0.072856
-39.53
-64.596
-69.085
-67.072
-31.134
8.2706
21.581
31.363
37.269
34.973
17.935
-15.155
-47.982
-71.846
-85.234
-94.449
-122.97
-113.25
-52.011
-1.4203
18.68
19.504
36.853
64.891
72.333
62.619
45.856
25.266
6.6003
6.6502
57.39
108.12
113.86
96.026
65.69
34.636
15.405
-6.4877
-26.062
-41.46
-56.882
-71.574
-99.547
-82.861
-37.865
-16.505
-6.8614
-3.2385
6.0791
12.412
1.6427
-7.5213
-4.2279
-19.729
-44.223
-28.543
1.475
18.197
27.863
15.684
3.2519
-3.3437
-13.754
-29.312
-41.836
-55.911
-44.331
10.766
54.811
48.215
20.675
15.989
36.802
44.187
20.797
-6.0171
-14.349
-34.281
-21.652
24.153
43.191
42.949
40.707
42.832
44.72
34.222
13.064
-2.4017
-0.8776
-13.632
-2.4519
39.587
5.9267
-41.884
-74.351
-77.504
-54.961
-44.813
-44.404
-25.624
-6.4167
3.7726
9.7307
-2.9923
23.192
65.799
72.923
65.739
59.643
65.795
70.064
78.986
76.363
81.337
96.192
-13.043
-133.3
-170.84
-180.94
-124.94
-42.98
-20.543
-20.937
-11.55
-1.2777
17.84
24.574
20.351
18.043
8.8885
-6.6868
-32.16
-44.745
0.069771
38.891
39.506
29.768
28.973
41.047
44.854
27.498
3.9998
-13.878
-25.374
-32.561
-40.464
-57.29
-40.194
13.634
34.208
23.955
8.3781
6.6475
14.927
20.85
14.027
-3.3216
-14.896
-27.707
-33.71
-39.214
-46.721
3.3185
70.456
82.056
62.372
42.572
17.983
-15.23
-43.138
-68.821
-77.454
-64.514
-47.013
-41.851
-59.631
-35.894
21.43
41.635
33.421
18.888
12.553
20.461
27.685
21.461
11.819
1.6746
-0.68691
-0.19263
-31.079
-49.878
-5.0934
28.982
25.818
15.582
18.861
37.091
43.605
33.918
16.206
-0.47027
-17.46
-30.385
-55.369
-102.49
-69.742
2.7854
24.322
34.044
52.182
80.187
102.61
91.569
58.574
20.904
-13.542
-37.531
-56.653
-92.96
-91.584
-9.6331
40.137
32.651
13.9
10.94
36.699
52.254
26.806
2.6333
-13.98
-30.314
-40.896
-77.669
-71.571
-5.1369
27.271
33.583
34.394
39.109
45.204
24.484
-15.674
-29.205
-29.944
-38.222
-48.352
-8.2088
53.239
58.265
31.877
13.864
17.161
23.637
20.793
3.704
-12.747
-22.121
-22.029
-30.322
3.353
81.433
101.88
81.041
56.671
62.148
81.733
91.537
87.432
-21.611
-118.37
-60.152
-21.697
-53.845
-10.8
40.786
30.127
-54.034
-168.48
-181.9
-115.81
21.576
86.878
49.528
4.7391
-20.902
-6.0987
-16.213
-26.234
9.8852
55.174
73.928
59.815
-43.296
-63.41
29.886
27.811
5.497
59.442
67.425
4.2585
-71.247
-107.36
-65.318
-33.922
-29.063
-26.324
-17.539
-22.119
-91.102
-136.94
-117.64
-97.542
-89.419
-78.123
-90.288
-43.271
70.884
81.17
23.07
28.498
65.81
72.064
68.664
16.205
-63.052
-86.155
-77.005
-88.791
-66.636
21.011
68.215
66.71
63.382
69.324
69.203
60.301
35.289
8.7692
-17.81
-37.203
-44.069
-57.029
-45.477
25.771
81.889
82.733
75.28
81.871
104.88
124.3
94.878
28.354
-29.424
-28.056
17.176
56.07
64.239
61.429
70.256
46.598
12.527
-8.2687
-16.673
-11.232
-3.0256
-5.5545
-10.236
-29.823
-51.107
-52.533
-48.014
-58.381
-86.206
-59.083
-14.971
13.905
29.088
12.654
5.5095
5.4193
12.215
9.7151
-4.615
-2.4572
-11.054
-30.752
-48.394
-40.234
18.814
42.861
10.935
-8.4278
2.7274
6.3663
2.8921
-8.4555
-23.299
-13.98
-1.5449
-9.1999
-38.104
-44.999
-15.997
11.315
24.647
14.011
14.506
44.539
78.795
97.268
100.84
116.05
132.28
132.44
108.64
20.985
-47.985
-94.905
-187.35
-332.45
-348.26
-152.02
63.418
152.71
177.33
204.06
198.14
113.76
-11.109
-151.48
-239.6
-150.05
4.9117
-5.0459
-47.881
-29.631
-55.834
-92.726
-69.84
-33.431
-36.523
-58.598
-59.64
-58.376
-35.579
-72.096
-149.94
-192.75
-207.28
-209.65
-143.08
5.719
83.833
102.08
111.19
20.542
-11.94
72.679
126.08
100.02
62.307
60.246
78.338
57.429
36.541
52.068
70.597
68.798
34.686
26.489
70.444
81.57
70.131
58.418
71.102
100
99.279
54.222
34.561
33.002
23.424
-21.685
-49.601
1.1186
40.837
25.314
6.5045
21.055
35.54
35.581
32.258
20.955
-4.3753
-18.915
-28.629
-51.345
-46.756
-12.073
1.3142
-0.0053532
-1.7087
1.3227
13.06
2.6398
-6.2893
6.8414
13.249
4.2887
-22.263
-22.36
8.3531
31.351
12.76
-4.2713
21.774
34.186
11.891
-15.873
-30.248
-48.899
-59.224
-57.254
-56.962
-31.621
6.317
11.496
1.2241
5.0572
11.862
10.049
2.1801
-1.5175
-4.558
-22.831
-41.084
-27.455
1.0866
9.2545
6.2847
8.604
15.94
19.514
18.784
14.578
11.104
0.36427
-12.33
-15.567
-22.891
-10.152
16.539
19.928
15.374
12.086
18.022
17.038
1.1336
-18.299
-19.274
-20.515
-41.639
-45.297
-34.18
-20.897
-26.661
-48.197
-34.495
0.047141
5.9872
9.2751
28.975
36.085
34.475
27.006
1.7622
-25.123
-41.164
-25.369
1.8125
12.355
22.406
16.817
1.1714
3.5161
6.8025
-6.0234
-11.804
-8.2307
-6.942
-13.265
-23.381
-2.3986
26.563
24.385
10.948
8.8204
15.687
18.759
31.076
40.646
30.8
11.467
-3.9977
-14.907
-27.215
-16.218
15.732
15.036
-9.7691
-25.592
-14.904
6.0903
14.331
14.926
20.826
21.829
17.977
15.979
40.481
75.924
59.139
23.83
19.561
11.136
-8.5567
-28.905
-57.92
-91.052
-116.54
-135.1
-142.41
-115.74
-52.523
-9.5679
5.7915
12.882
13.905
22.837
36.893
36.037
26.693
8.204
-13.46
-28.926
-48.991
-34.818
7.1396
21.861
17.951
14.327
18.387
26.316
17.145
-5.2838
-17.528
-34.253
-50.183
-54.641
-38.354
14.783
46.532
47.034
47.383
50.77
58.747
78.959
85.525
75.646
67.665
55.475
37.683
5.3535
-44.981
-40.417
-11.624
-15.953
-26.181
-35.103
-46.372
-54.962
-63.455
-57.571
-29.3
-12.569
-10.192
-15.161
-5.3001
29.722
42.003
46.772
65.529
79.033
82.576
86.112
72.759
15.021
-54.788
-86.038
-73.205
-64.462
-46.134
-14.091
0.64833
-0.62176
-10.486
-14.173
-8.4333
-10.088
-26.285
-40.338
-42.459
-33.98
-40.857
-51.051
-22.693
8.3278
14.576
14.226
13.29
20.406
28.007
23.861
11.967
0.6137
-10.046
-15.889
-25.59
-35.29
-6.1715
26.86
30.894
20.833
2.4703
6.1011
25.297
23.927
4.2035
-18.149
-30.393
-36.319
-36.597
1.0012
31.712
28.665
18.507
16.941
21.72
28.489
16.77
-0.53822
-10.785
-19.451
-27.48
-49.444
-36.949
19.308
42.195
37.588
34.614
35.374
36.821
30.476
16.808
-1.92
-14.033
-17.148
-30.741
-12.711
29.154
40.116
30.172
18.392
22.853
27.125
13.521
-4.5559
-20.674
-27.721
-32.288
-48.534
-24.454
20.317
24.747
20.976
20.473
17.756
19.804
18.241
3.889
-12.127
-23.678
-42.078
-36.335
7.8151
28.99
25.785
21.227
18.022
21.954
20.304
6.4198
-9.0723
-18.872
-26.117
-39.704
-18.888
21.515
26.93
20.516
13.634
10.607
15.033
11.51
0.71353
-12.943
-23.447
-35.532
-44.945
-17.372
11.702
11.638
4.3896
8.8535
17.865
17.261
7.7485
-3.8385
-9.0422
-23.033
-24.513
9.0732
26.692
20.046
14.164
10.826
10.679
8.0713
-3.6096
-19.129
-25.527
-34.825
-38.196
-5.4969
16.852
13.065
6.6604
2.2229
7.9447
9.5885
1.7629
-6.4524
-11.797
-20.92
-28.605
-5.2089
19.218
17.084
8.621
2.882
3.1815
4.0376
0.58784
-10.608
-16.888
-22.788
-32.274
-12.453
13.227
13.34
2.2716
-5.2217
-2.4741
2.8585
-3.5729
-14.87
-21.901
-36.147
-25.732
2.8202
9.5638
0.099026
-7.4109
-4.3029
4.4431
2.1016
-4.1643
0.80547
-2.5847
23.247
58.185
82.017
106.21
123.65
164.94
131.77
-7.0625
-135.38
-121.19
-57.348
-101.85
-112.75
-61.566
-21.147
-30.756
-36.78
-28.549
-1.3977
23.25
20.641
-37.265
-150.63
-178.45
-94.789
32.941
129.11
106.12
44.839
60.628
112.97
43.59
-91.76
-129.26
-80.188
-14.727
21.924
13.055
57.422
105.69
85.099
20.26
-12.126
36.033
78.296
19.407
-93.928
-156.82
-84.787
48.033
133.69
152.19
81.247
0.98902
-43.069
-44.971
26.837
72.465
2.1628
-82.293
-84.255
-30.787
54.289
96.942
62.002
10.962
-25.003
-40.749
-22.377
2.706
-5.4967
-6.0986
-15.139
-31.162
-25.281
-8.1771
5.8368
22.405
16.852
-6.7935
-37.812
-71.968
-56.827
-20.693
-4.6229
-8.9053
-10.364
-0.38177
3.1506
-0.43408
-6.1012
-29.008
-48.626
-16.823
25.11
33.331
21.34
15.697
23.753
27.326
21.742
8.1378
6.3806
-13.578
-13.294
24.562
12.935
-9.1367
-19.336
-22.103
-8.7399
2.5671
-6.4575
-22.274
-40.107
-65.778
-46.871
8.0559
30.109
26.861
17.263
15.898
22.475
17.616
1.891
-17.139
-34.408
-56.208
-56.108
-1.2899
41.907
42.205
26.362
22.411
33.57
33.229
12.719
-16.577
-41.078
-46.171
-57.035
-42.697
21.275
58.051
55.355
30.532
23.997
52.196
82.26
63.521
15.434
-31.969
-74.69
-94.799
-56.689
17.064
52.096
50.695
31.115
32.963
39.771
31.243
15.99
-0.27368
-9.1515
-14.745
-15.241
31.168
70.868
61.171
37.052
22.734
27.146
27.712
9.3579
-12.938
-29.866
-53.589
-48.809
-2.2187
20.092
4.8863
-16.146
-28.216
-28.799
-23.426
-34.792
-45.038
-55.204
-41.971
7.7475
36.065
27.969
5.9486
0.40211
14.167
5.9333
-27.133
-41.825
-59.106
-43.261
12.708
31.095
18.223
7.0224
6.9154
5.9518
-7.2763
-28.815
-41.384
-64.966
-59.04
-2.9151
25.664
27.284
20.148
18.154
20.477
17.458
2.4552
-21.683
-36.354
-54.775
-48.429
3.0372
33.615
35.774
28.838
26.168
35.592
37.157
24.27
6.3794
-6.1046
-16.463
-37.483
-16.892
33.148
44.094
33.421
25.566
32.461
30.686
12.471
-22.526
-67.173
-103.98
-143.91
-137.39
-64.565
-10.407
9.1174
20.488
25.111
43.073
81.25
89.201
105.03
93.121
72.957
60.429
-69.026
-105.96
70.793
213.13
191.07
147.91
146.64
148.23
173.96
158.59
114.39
10.573
-118.39
-159.69
-181.85
-234.06
-268.39
-224.2
-213.12
-228.41
-177.89
-130.49
-32.948
56.711
57.016
13.996
-6.0361
4.1037
28.846
21.658
49.933
87.234
87.234
72.107
69.879
90.211
119.23
146.27
179.89
234.17
308.44
344.82
317.86
252.2
183.28
84.85
-54.811
-182.57
-285.32
-384
-505.5
-567.02
-604.71
-689.08
-693.49
-491.28
-213.59
19.849
213.99
316.69
304.55
251.39
189.68
152.73
134.46
107.42
72.444
33.063
0.76551
-33.743
-48.967
10.799
63.147
62.544
39.266
29.644
44.053
46.332
28.236
-4.3149
-27.725
-60.082
-76.986
-5.1855
62.812
69.65
52.729
43.045
53.273
56.725
35.901
-5.392
-31.682
-63.876
-84.422
-4.7515
78.226
88.32
74.361
68.798
79.163
79.04
55.239
26.131
-3.4164
-25.295
-57.748
-47.563
35.571
76.091
67.506
52.038
45.71
48.81
38.083
9.7662
-12.709
-34.572
-45.43
-66.08
-66.404
5.1991
48.509
49.214
57.139
67.839
70.376
52.524
16.883
-10.706
-30.921
-42.023
-54.755
-58.304
-8.9025
26.443
22.462
13.253
11.916
11.157
10.232
2.1031
-11.512
-24.97
-40.622
-47.323
-62.167
-57.931
-9.3962
17.875
13.34
6.2473
7.196
9.2197
9.3342
1.4234
-10.697
-20.608
-27.932
-28.548
-37.672
-30.481
7.8965
22.313
14.714
6.5172
6.421
11.192
9.0978
-2.1184
-12.347
-22.312
-26.382
-30.608
-44.733
-28.433
10.018
18.847
13.07
15.11
25.66
33.148
30.963
16.459
3.6629
-6.8495
-20.376
-27.714
-40.109
-43.513
-7.6606
15.835
11.848
4.6182
3.1076
9.8925
14.32
8.2073
-2.288
-8.9846
-15.919
-22.846
-27.947
-43.522
-29.662
10.118
20.361
13.386
7.3289
11.18
17.176
13.232
2.9166
-7.6597
-22.815
-33.725
-48.147
-46.72
-2.1568
37.044
45.643
33.656
22.456
25.463
28.872
15.892
1.2826
-9.6482
-20.073
-25.128
-39.197
-32.368
11.474
32.583
28.293
18.438
15.709
20.18
20.151
8.315
-1.1121
-10.544
-18.201
-25.85
-38.692
-15.668
19.774
23.067
13.808
7.456
13.305
16.969
9.277
-2.9023
-13.958
-20.474
-31.31
-31.549
2.8702
25.633
21.368
13.153
12.536
15.973
16.56
5.3489
-4.01
-11.916
-20.285
-24.101
-35.838
-25.54
8.1275
20.126
14.805
10.714
14.359
17.132
12.865
4.9244
-2.1692
-11.167
-17.422
-21.767
-32.238
-13.867
14.946
18.02
12.548
7.9234
9.4501
13.019
8.5733
-3.8209
-11.208
-21.991
-27.714
-38.002
-48.664
-25.246
-2.1358
5.1921
9.6594
5.8866
8.1528
18.739
16.921
9.4513
3.5779
-3.9447
-12.615
-13.701
15.901
43.101
54.701
69.926
92.286
109.75
128.83
123.15
62.052
-21.436
-97.135
-153.33
-206.61
-187.57
-102.62
-51.804
-40.469
-31.573
-9.4282
11.714
23.345
15.027
5.8997
-4.9505
-9.9724
-21.319
-23.992
18.072
49.867
46.943
37.475
38.293
49.8
61.552
61.669
70.476
80.063
104.82
132.93
145.03
219.45
198.97
85.169
-5.406
-156.9
-276.08
-239.02
-170.29
-160.31
-85.78
-87.724
-208.49
-165.6
-104.81
-87.386
6.8011
108
214.7
243.03
133.81
116.91
209.91
248.76
88.802
-192.5
-186.4
-75.686
-111.4
-139.09
-66.079
-6.4752
-71.258
-182.66
-203.95
-107.11
-81.231
-68.779
22.227
62.209
61.8
117.83
197.12
148.28
51.958
-16.063
-53.303
-41.601
-46.03
-88.024
-57.553
5.6772
-11.456
-41.374
-15.965
52.523
113.94
112.36
101.07
122.83
136.92
157.44
176.88
97.88
3.3538
-71.095
-126.3
-149.75
-165.96
-212.62
-213.51
-173.38
-107.57
-0.58944
80.738
100.31
93.672
87.835
74.688
49.33
19.32
-1.5478
-11.067
-19.355
-37.285
-26.266
29.01
64.631
59.922
38.256
28.8
28.885
18.728
0.47097
-12.475
-33.635
-51.65
-62.493
-66.225
-37.71
-13.732
-8.3041
-5.0845
15.432
30.356
27.875
16.114
9.0702
-2.0296
-10.119
-24.873
-32.868
-0.20128
27.267
23.796
-0.098119
-0.64374
21.511
26.001
13.249
6.0252
-7.0122
-18.969
-24.381
-28.639
16.7
73.4
97.347
82.228
63.144
62.273
-19.121
-61.203
-43.246
-37.856
-45.781
-46.359
-46.248
-53.864
-30.325
9.0449
24.64
17.836
17.862
22.69
24.54
18.292
1.067
-15.911
-24.641
-41.048
-34.281
13.675
34.584
26.806
13.127
11.577
13.699
10.692
-1.3768
-16.372
-24.8
-32.521
-26.484
5.8233
22.016
13.12
7.382
10.538
16.861
17.309
13.644
-1.3585
-7.3112
-0.143
-11.722
0.44531
47.177
108.65
102.55
68.152
114.07
115.83
146.93
192.97
71.749
-97.928
-159.69
-144.82
-63.872
17.06
35.197
48.92
58.893
102.1
137.02
89.19
17.77
36.185
114.08
109.26
-9.3802
-141.08
-296.32
-301.48
-168.68
-140.57
-83.095
17.97
-27.828
-146.67
-322.62
-431.51
-257.4
6.4654
158.23
100.8
83.018
215.63
295.21
301.79
249.13
114.7
-13.962
-167.45
-304.29
-407.07
-418.41
-273.81
-94.284
29.658
98.591
152.96
216.02
36.672
-247.39
-181.32
67.008
194.13
154.82
58.795
94.112
155.73
138.03
104.15
39.355
54.781
40.721
-106.37
48.143
269.72
233.07
55.146
-62.798
4.0924
105.9
118.87
142.37
166.2
125.71
77.076
-6.104
-70.752
-93.957
-115.62
-129.47
-151.09
-156.11
-152.82
-162.47
-172.25
-164.74
-157.36
-153.93
-168.08
-118.73
-21.718
-38.841
-118.18
-122.73
-137.04
-164.05
-108.68
-78.021
-48.79
4.5236
69.463
137.93
195.57
219.14
188.41
181.99
181.34
222.86
243.65
173.56
112.21
-20.197
-75.383
-51.67
-41.717
-98.174
-196.22
-264.85
-176.82
37.505
68.087
89.12
69.034
36.446
62.756
80.744
25.294
-91.452
-101.11
-63.91
-81.806
-2.2267
64.765
54.41
94.135
203.15
163.02
41.8
13.067
-1.0032
-67.704
-158.61
-161.21
-76.617
23.686
127.85
125.28
22.743
24.407
67.277
64.862
13.137
-20.132
-19.637
23.817
129.39
191.32
132.55
40.66
1.6962
-28.395
-8.1093
36.17
-36.795
-121.24
-155.55
-149.32
-55.218
34.082
59.93
41.369
44.854
32.599
-23.292
-28.021
-16.163
-75.37
-108.57
-24.112
38.179
74.595
85.425
58.991
19.753
-39.838
-98.011
-89.039
-45.852
-43.486
-30.83
7.1492
44.222
107.7
86.773
16.459
-6.5553
-60.175
-71.119
-75.522
-70.502
-41.505
20.182
81.64
109.21
77.085
-31.621
-89.122
-126.27
-202.41
-182.53
-155.35
-101.81
6.7472
30.455
13.183
74.451
137.96
144.26
127.98
103.74
67.007
38.844
58.055
50.813
17.071
13.211
35.431
47.907
18.225
6.8009
3.1092
-99.806
-164.89
-131.31
-113.36
-88.736
-55.354
-16.524
53.009
126.5
147.99
104.18
56.633
-15.229
38.275
200.69
63.444
-85.428
-79.031
-61.019
-88.363
-145.69
-160.8
-56.089
20.296
12.737
29.259
75.326
95.44
81.328
57.795
67.44
31.126
-77.392
-164.62
-175.14
-160.31
-145.58
-87.103
5.9852
76.051
110.33
120.45
107.38
86.326
70.22
60.786
67.102
69.835
49.865
2.9155
-21.162
-20.536
-27.564
-35.59
-39.473
-36.516
-29.021
-19.686
-21.394
-18.905
-9.7797
-12.38
-24.555
-1.7299
35.729
43.085
27.499
12.193
12.888
21.454
21.039
14.891
6.9084
3.81
8.9682
0.32008
24.37
26.104
-21.444
-26.389
-5.9374
21.188
20.913
4.7762
-10.114
12.564
38.364
32.331
65.764
94.768
134
138.7
-36.712
-114.81
-92.983
-40.227
-29.94
-27.009
-21.729
-0.085903
-0.76117
-33.398
-17.116
30.088
-43.654
-112.37
-71.488
-27.864
-19.807
-16.867
-22.441
-23.936
-30.759
-32.454
2.3714
27.57
21.76
2.8852
-9.6975
-0.059141
21.685
30.704
27.68
20.655
3.1209
-18.422
-8.5939
7.9756
4.9635
-13.5
-28.329
-29.524
-26.662
-11.895
3.6884
6.3267
-3.9794
-13.375
13.744
36.245
21.542
13.131
32.391
47.411
65.667
57.824
-1.0446
-31.114
-48.672
-23.196
40.969
65.949
20.319
-102.32
-154.09
-101.2
-82.377
-94.81
-59.047
-30.446
-36.98
-26.181
25.987
79.092
77.688
48.798
31.711
54.204
74.186
63.111
31.759
-23.571
-62.603
-52.814
-8.1789
53.818
89.573
70.66
22.426
-11.787
-22.922
-35.52
-17.786
18.498
8.6535
-23.801
-35.115
-0.67591
32.366
35.628
31.021
28.98
21.238
4.1942
-14.452
-24.796
-24.318
-10.231
-1.0565
-8.049
-4.8936
27.212
45.34
34.686
10.936
-7.1311
-10.717
-16.476
-18.863
-17.716
-23.387
-27.6
-42.426
-57.773
-22.286
16.659
14.408
7.2389
8.5419
5.4062
-2.0948
-12.561
-13.877
-4.7139
-10.692
-14.438
-21.587
-26.468
6.025
17.556
-1.9689
-1.2268
16.715
25.858
19.958
8.3262
2.2297
8.1088
2.2063
-19.245
-31.811
-46.608
-48.667
-3.4748
33.075
40.42
44.831
55.907
66.773
64.591
56.388
63.174
42.221
-41.013
-70.433
-43.405
9.8207
119.97
136.05
56.547
-59.966
-170.99
-133.34
-57.214
-32.331
-41.789
-31.658
-4.2482
0.87673
-18.558
-26.77
16.013
80.911
86.287
43.952
14.413
-4.1826
-0.28431
12.856
-6.131
-22.114
-26.516
-29.766
-47.285
-88.961
-68.804
2.7517
33.496
29.01
14.738
25.56
49.799
48.539
33.259
28.196
4.856
-28.38
-56.963
-42.745
3.2942
10.476
8.6276
28.226
51.785
55.193
53.775
49.528
43.566
26.702
-34.551
-43.24
-0.98473
-15.904
-52.348
-85.59
-72.722
-26.601
13.051
18.266
0.4559
-0.20793
-2.482
-31.829
-6.5842
34.975
24.854
-26.979
-65.434
-42.969
-10.788
-8.1
-10.871
-8.3396
-8.1121
-28.465
-17.038
34.917
44.368
-0.3281
-54.098
-58.262
4.6175
54.22
55.917
48.912
52.74
52.72
48.556
75.256
120.91
147.4
145.83
93.926
9.4479
-31.481
-32.486
-44.981
-65.909
-95.656
-97.053
-39.282
7.2615
-24.578
-70.217
-96.728
-80.778
-32.254
4.0089
29.232
27.597
9.6493
5.6726
-0.56141
-18.295
-46.567
-51.808
-16.725
8.6624
-9.7293
-12.997
-14.174
-30.733
-71.595
-100.84
-44.161
23.21
16.757
-8.2626
-13.339
-33.924
-105.9
-168.66
-191.96
-144.1
-63.725
9.3356
121.7
181.22
194.37
179.97
130.93
132.98
157.11
159.91
128.39
87.321
-25.996
-134.96
-111.19
-103.72
-109.05
-70.006
-26.837
-19.425
-17.89
-35.282
-66.367
-81.413
-103.25
-129.15
-68.213
16.743
59.732
80.477
73.529
79.187
97.925
81.325
45.405
-2.3576
-62.606
-110.87
-98.68
-45.544
-1.9114
52.708
87.092
86.305
71.429
64.251
44.509
27.355
1.2018
-46.074
-51.866
2.8702
60.83
82.016
82.983
79.402
65.618
44.945
13.635
-26.404
-49.059
-28.848
-3.7214
-10.919
8.2356
27.16
15.428
1.4852
8.2647
35.094
46.244
15.713
-21.542
-35.961
-39.119
-47.425
-41.905
-24.744
-10.245
-4.4225
1.7299
21.835
22.642
9.6369
-2.9656
-6.753
-12.9
-38.223
-45.697
-19.048
-6.085
-5.8856
-10.381
-3.5198
12.122
13.919
6.0616
-8.0166
-15.983
-25.561
-30.14
0.3462
13.969
10.101
10.953
15.261
28.593
24.53
3.6657
-6.936
-11.678
-18.983
-30.795
-31.611
-0.72843
16.125
5.5814
-1.0603
0.16272
5.0959
7.4318
-5.1966
-7.717
-18.36
-31.393
-31.059
-27.559
20.694
41.278
14.008
0.1251
4.7263
8.595
8.7848
-4.6704
-18.065
-8.2345
-11.884
-29.723
-52.802
-28.281
19.36
37.839
31.878
23.732
17.177
18.428
18.059
2.3664
-12.97
-25.583
-30.286
-44.685
-53.08
-5.9239
32.925
31.826
18.857
16.797
27.949
34.858
23.157
13.786
-7.1666
-24.153
-25.765
-43.81
-28.682
13.013
18.633
5.6046
-2.5509
3.2881
22.649
29.417
13.312
-12.657
-20.335
-25.149
-21.988
15.891
43.711
40.445
29.125
27.144
25.669
16.543
0.95573
-14.044
-23.534
-40.263
-37.087
3.9215
29.368
32.605
26.064
19.739
20.444
20.901
11.181
-8.1415
-19.824
-33.903
-49.528
-23.363
12.834
18.782
13.028
8.8184
8.7049
9.4624
5.532
-7.263
-29.676
-43.359
-47.059
-52.958
-17.318
28.856
35.592
27.839
25.124
28.495
28.312
17.398
-0.17041
-15.159
-30.563
-36.126
-43.77
-37.902
-3.9252
23.372
28.094
18.42
12.844
24.552
33.053
24.336
11.02
-2.6862
-22.243
-41.891
-20.07
22.569
31.092
20.339
11.252
27.843
65.568
74.052
68.198
63.103
64.557
29.274
-96.518
-164.72
-141.82
-78.821
-8.2788
10.082
-5.1184
-12.13
13.08
8.414
-12.013
-29.798
-34.052
-33.337
-40.311
-15.804
20.306
18.795
10.978
12.536
18.65
24.831
21.181
9.461
3.8433
-7.761
-18.09
-26.039
-46.143
-28.156
12.396
21.242
18.308
15.123
18.812
23.938
14.829
7.1387
-7.3893
-37.265
-49.957
-48.164
-12.12
27.321
30.497
30.811
33.342
21.616
3.819
-15.819
-16.867
-6.7043
-19.342
-32.512
-36.985
-11.693
19.018
14.904
11.61
18.055
23.331
21.213
14.497
8.2227
1.4202
-14.026
-24.064
-37.207
-44.472
-13.401
17.549
30.288
36.065
38.639
39.704
36.514
22.998
5.5547
-11.184
-25.919
-34.909
-51.101
-33.533
8.377
16.724
9.8627
10.788
15.178
21.238
22.609
7.2368
-0.2729
-8.3113
-20.28
-27.707
-35.928
-10.1
24.315
29.493
20.773
18.238
26.903
30.937
21.55
0.23832
-15.885
-30.247
-45.552
-25.817
5.6921
13.458
9.0077
6.0091
13.159
15.172
5.5772
-1.3408
-2.4873
-7.8294
-22.825
-24.146
3.451
15.739
0.029054
-21.59
-28.225
-13.889
1.4169
-1.1549
-5.4626
-1.1271
-1.2044
2.0059
13.223
17.06
10.758
-1.1238
-5.1413
-4.058
-12.867
-28.471
-20.784
-9.2107
-0.60045
16.239
23.454
16.895
15.434
29.916
36.99
32.445
26.379
23.775
6.3263
-17.491
-7.3551
20.398
20.691
-3.3969
-11.293
1.4055
1.2506
-15.163
-31.824
-48.118
-44.328
-20.811
-13.722
-20.629
-30.272
-25.972
-11.557
-6.3071
0.15476
10.517
2.7027
7.8812
34.422
35.862
23.518
22.782
35.266
43.183
34.878
21.676
6.422
-9.0013
0.59943
12.273
6.7187
-6.7919
-21.998
-32.552
-36.361
-37.774
-34.588
-30.911
-17.426
1.5369
8.9352
11.507
12.309
15.515
16.946
11.957
5.7707
-1.7048
7.008
28.514
28.189
14.162
1.8156
-4.0479
-7.0708
-8.8223
-18.037
-32.249
-38.62
-25.746
-1.6528
3.4932
-2.3699
-3.5575
-0.13002
3.0226
-1.4289
-8.7391
-17.611
-29.51
-28.714
-28.953
-23.992
2.6576
16.516
15.238
11.793
9.4267
8.1598
3.4179
0.70139
1.0113
-0.22881
-2.3823
-2.8697
-7.6911
-16.241
1.5604
24.468
24.14
17.302
17.857
21.118
19.501
8.033
-1.4269
-8.682
-25.058
-50.1
-76.807
-83.365
-60.793
-11.95
26.671
34.342
27.604
23.327
28.501
33.109
25.842
12.401
0.70139
-9.2739
-18.246
-28.666
-40.233
-60.901
-42.695
8.5468
25.739
18.321
7.9936
12.69
29.502
37.295
28.929
12.48
-10.719
-26.728
-45.456
-58.996
-14.924
29.964
31.864
22.524
20.301
33.617
39.486
24.511
1.3977
-18.737
-36.991
-57.489
-35.563
21.349
44.848
40.962
32.354
33.293
39.612
28.314
7.7068
-13.043
-27.855
-47.603
-52.894
-2.9483
37.099
37.532
28.951
30.007
41.081
40.319
22.291
2.1194
-13.281
-23.812
-43.143
-33.443
17.016
35.558
24.155
15.7
19.014
28.348
26.735
11.123
0.16826
-12.163
-14.664
-18.749
-40.643
-11.058
37.325
58.309
80.631
100.16
119.58
120.84
76.591
40.104
43.353
61.94
-2.7525
-111.98
-108.27
-17.666
-0.50454
8.9479
5.8491
6.7017
37.102
29.665
-39.799
-89.435
-102.49
-120.84
-90.03
-50.029
-27.132
23.292
52.277
63.291
72.172
98.127
123.85
118.25
37.605
-76.848
-191.59
-266.42
-280.43
-290.83
-211.04
-77.504
-26.42
9.2028
33.465
64.972
89.591
97.711
82.069
50.146
15.678
-19.907
-58.556
-33.315
-16.539
-28.054
-41.762
-30.387
18.078
29.226
-13.741
-25.465
17.646
52.924
54.895
23.052
31.926
67.14
36.451
-6.6198
-14.177
-1.9809
-2.3629
-11.917
-22.196
-39.474
-40.486
-52.245
-83.845
-25.626
56.148
68.159
53.331
37.049
60.021
121.58
128.71
72.783
24.104
-19.012
-49.227
-44.821
-30.497
28.644
57.666
17.843
-16.863
8.2236
45.484
36.843
-14.836
-48.181
-34.311
-14.125
-18.142
-66.272
-64.484
-5.622
2.174
-10.312
-14.248
1.8922
-12.066
-56.733
-100.37
-77.658
-63.216
-66.996
5.2222
102.57
146.28
166.89
168.3
86.882
-16.853
-85.458
-110.54
-125.62
-136.52
-144.26
-158.51
-51.85
104.99
161.53
146.72
108.23
84.187
90.275
108.62
92.061
55.298
35.903
38.848
1.0286
-58.645
-43.435
-38.441
-62.511
-61.587
-81.75
-89.964
-70.772
-85.231
-88.769
-106.24
-113.95
-116.63
-116.08
-26.858
44.089
42.451
36.699
30.167
29.074
28.832
17.79
-1.5026
-13.843
-19.873
-96.649
-112.87
-34.416
-14.732
-11.901
-43.92
-49.098
5.6179
55.629
68.615
73.896
63.087
33.365
37.456
0.8638
52.936
163.07
108.25
70.59
98.357
104.07
80.491
-22.606
-49.257
-2.7981
9.3275
-5.8059
1.372
66.948
124.26
125.08
74.105
51.571
60.348
50.415
23.71
7.5317
-11.768
-57.428
-81.533
-20.135
32.677
19.763
10.405
4.7142
23.518
59.724
54.653
13.73
-9.8585
-12.56
-25.647
11.769
59.038
48.112
26.215
-3.8528
-41.943
-59.503
-43.645
-42.439
-59.613
-72.51
-76.573
-60.149
-35.298
-23.014
-11.964
-12.013
-6.5821
5.8634
12.585
14.45
6.6065
-2.4247
-24.098
-52.53
-25.847
-2.3341
-19.599
-7.4186
42.671
83.556
71.06
22.175
-18.695
-50.295
-73.592
-78.581
-76.962
-49.447
-40.726
-33.756
10.354
51.914
70.971
74.404
63.221
32.916
8.0292
-22.713
-64.609
-29.173
26.73
15.163
-13.822
-60.566
-100.9
-83.25
-6.0519
80.435
109.32
83.463
127.1
204.83
285.73
296.21
132.8
-13.112
-67.381
-144.16
-195.84
-192.61
-184.49
-157.18
-139.06
-142.95
-137.56
-131.61
-133.64
-132.55
-134.22
-147.74
-166.38
-203.38
-200.55
-54.476
98.073
145.34
194.84
207.87
211.34
242.68
149.12
-2.5925
-29.657
-61.435
-110.87
-219.58
-178.74
90.217
116.45
127.25
251.5
266.77
159.58
72.893
-12.42
-88.778
-123.97
-180.68
-195.93
-116.06
25.551
145.18
90.739
25.924
-8.7392
-53.237
-33.77
22.325
75.999
85.769
57.72
67.429
18.696
20.816
130.23
31.152
-150.05
-353.33
-477.42
-287.81
1.1107
138.37
151.45
142.61
147.49
81.109
10.316
38.717
22.667
20.919
79.08
114.07
109.91
78.198
25.533
-8.9233
-27.17
-52.638
-27.859
28.295
50.15
47.467
37.036
32.669
32.993
23.093
2.1523
-12.507
-24.744
-34.483
-2.3058
34.741
36.935
23.926
12.287
5.4471
-14.273
-51.768
-52.72
-24.65
-1.6202
43.279
61.185
24.798
-11.486
-29.537
-16.094
4.4136
-4.6342
-25.133
-32.485
-50.28
-54.258
-13.877
12.305
10.785
6.3879
7.0742
16.099
16.183
4.4337
-9.692
-22.1
-43.046
-52.511
-18.214
15.806
11.02
1.9266
9.488
17.02
20.704
18.619
7.0882
-14.39
-25.505
-31.507
-34.542
-7.1035
15.256
14.089
0.84089
-12.151
-2.3911
9.3424
3.3631
-11.144
-26.882
-29.783
-22.807
1.3348
38.853
51.529
45.332
36.193
19.412
23
19.162
15.51
1.8158
-25.762
-42.782
-58.75
-59.845
-9.8506
21.397
14.228
1.9698
6.6635
22.666
29.309
18.842
0.78022
-19.405
-35.777
-44.347
-64.436
-45.187
11.198
30.232
23.515
21.785
23.542
22.415
18.405
10.936
-0.40106
-13.851
-19.101
-37.55
-40.657
6.6615
34.393
26.927
12.242
9.0605
9.9554
5.5944
-6.4025
-26.23
-34.474
-40.556
-35.303
6.0735
35.836
36.869
25.733
22.408
32.789
30.663
16.555
5.6241
-5.3959
-13.067
-26.949
-10.549
37.626
29.412
11.288
39.456
52.047
9.3038
-28.938
-6.4136
-9.545
-52.014
-57.843
-46.867
-36.862
-11.101
19.6
28.115
13.098
14.229
26.471
14.175
-3.75
-9.5772
-15.314
-26.864
-38.705
-8.0021
31.312
35.039
28.223
19.915
20.395
27.431
13.895
-6.2416
-11.198
-11.435
-20.031
-40.49
-22.896
9.0102
7.1711
0.18427
-10.506
-14.798
9.7166
25.148
22.467
10.411
-9.4692
-15.889
-45.539
-66.315
-16.711
23.11
22.956
-0.3416
-8.2685
0.91443
2.9707
-6.407
-4.6674
-3.8232
-9.0893
-14.867
-22.221
-4.4073
17.415
23.818
18.777
7.9003
9.978
12.173
3.9179
-5.892
-10.36
-20.423
-32.687
-11.177
14.615
12.502
5.409
1.0685
7.2552
14.294
8.9341
1.6127
-8.7861
-18.979
-23.479
-43.723
-31.087
23.056
30.87
-2.7077
5.6043
25.81
5.6337
-3.1457
-3.9552
-31.825
-43.875
-40.301
-60.282
-37.744
24.325
41.311
32.642
32.532
30.92
36.484
31.992
5.2146
-15.237
-16.843
-22.56
-53.036
-34.269
22.07
38.627
31.802
27.375
29.328
35.598
26.384
2.6463
-14.682
-22.071
-27.312
-35.063
-4.822
31.205
37.281
30.495
20.293
27.025
29.543
16.483
-2.1995
-18.317
-40.467
-60.691
-33.733
-1.585
-6.5209
-8.5614
1.7737
18.32
29.566
28.203
16.744
7.543
1.9301
-7.4555
-20.336
3.5804
34.883
30.692
25.238
22.62
22.397
22.314
9.4209
-7.229
-30.043
-50.433
-55.352
-51.222
-16.469
14.354
16.566
12.14
4.7865
2.7029
2.6843
-4.4774
-10.587
-18.606
-18.1
-11.979
-24.73
-9.3235
31.79
45.384
46.266
48.166
48.562
50.116
28.732
-9.11
-16.095
-6.5797
-34.753
-100.89
-130.14
-76.172
-4.4465
14.702
9.1076
7.7049
17.666
25.211
19.743
8.3515
-2.988
-14.016
-17.255
-26.743
-46.646
-28.991
7.6899
19.811
19.899
17.475
18.196
21.676
20.497
9.3084
-11.111
-23.274
-24.065
-19.194
13.828
45.464
33.218
-2.9136
-4.8302
4.1078
-0.9472
-11.927
-24.511
-37.308
-40.23
-30.387
-40.042
-44.548
-0.57005
48.749
70.628
62.23
46.073
40.222
41.859
42.431
42.548
20.815
-12.573
-32.228
-36.132
-3.7816
18.557
13.749
4.7848
-1.802
5.3997
19.619
27.637
22.473
27.883
27.122
-18.265
-36.133
-44.369
-50.511
-7.8527
-10.287
-26.392
10.89
22.181
-4.5305
-17.188
-14.944
-27.28
-29.295
2.334
-21.675
-68.78
-43.872
-0.44644
8.2345
-7.3601
-13.131
-5.599
-0.67636
-0.91375
-12.109
3.8799
17.1
11.97
6.8488
14.235
13.945
24.133
44.561
2.8612
-42.769
-34.807
-23.424
5.4356
43.883
49.579
29.548
-7.5921
-35.291
-40.884
-30.29
-1.4439
18.827
11.354
-25.465
-35.561
-0.66631
13.305
4.4108
2.3388
24.416
41.401
31.282
27.077
30.978
-4.8591
-22.903
-31.6
-81.297
-74.044
-10.475
31.29
31.311
10.984
-19.701
-29.333
-37.758
-57.728
-22.106
26.681
27.985
21.105
19.643
30.162
48.16
40.922
3.1256
-28.557
-28.766
-33.706
-25.013
16.734
37.8
41.397
36.772
31.249
32.052
27.006
6.792
0.84692
-2.5028
-8.7801
-23.565
-49.341
-23.813
31.412
48.077
44.522
37.235
43.558
54.187
49.521
21.909
-5.1846
-19.143
-30.252
-38.579
-60.366
-70.438
-24.766
7.7305
11.503
7.11
-1.782
-7.8458
-14.632
-19.388
-25.356
-32.822
-40.912
-61.468
-44.359
10.672
37.013
36.339
28.033
27.813
36.603
33.501
16.811
5.8044
1.9712
6.2217
5.0507
4.5112
31.591
37.085
12.422
5.3053
17.756
24.051
0.85352
-35.884
-39.359
-29.521
-22.705
-23.748
-37.117
-16.735
18.022
20.029
15.074
16.265
22.359
16.164
-2.6143
-13.916
-19.101
-23.503
-36.173
-43.143
-6.0063
22.219
20.969
12.553
9.4773
14.955
16.443
7.618
-14.804
-39.543
-47.92
-65.793
-69.225
-12.723
28.696
30.225
25.031
26.974
32.927
24.721
-4.7874
-20.429
-22.121
-24.998
-30.242
-51.475
-28.619
40.603
63.165
59.207
62.473
67.127
57.247
34.868
5.9831
-12.863
-22.596
-29.243
-41.988
-77.376
-57.086
-0.97479
14.088
12.671
11.713
22.487
34.076
33.215
17.35
-2.5665
-25.268
-40.23
-45.09
-64.205
-55.947
4.6399
31.763
20.22
10.581
18.565
34.744
35.178
19.968
5.4314
-9.3746
-17.143
-35.831
-41.998
7.7768
39.577
38.891
34.64
39.916
49.096
42.646
24.193
4.5399
-8.9251
-23.989
-37.819
-50.417
-72.782
-56.955
-2.0737
14.271
8.3781
13.276
19.229
12.048
-2.785
-11.243
-10.201
-5.2138
-0.037728
-0.16587
-1.3109
-12.754
-0.68769
46.655
54.438
27.874
9.6899
5.3293
10.631
11.484
-0.44484
-4.9215
-4.8773
-7.0216
-15.244
-23.57
-37.362
-51.491
-17.352
22.848
22.13
14.007
18.517
24.294
28.579
21.376
5.5523
-5.8299
-11.327
-14.534
-21.857
-25.476
-42.233
-47.84
-9.0994
14.868
14.039
11.86
12.449
16.363
14.985
3.2714
-8.7373
-18.928
-28.581
-38.274
-54.038
-32.772
8.8473
18.099
14.346
7.5108
9.6985
14.84
13.03
1.3605
-11.379
-23.804
-38.739
-46.529
-63.668
-68.855
-19.533
20.757
26.206
26.68
29.556
38.451
40.183
28.39
11.496
-2.539
-16.016
-30.772
-40.111
-65.537
-60.63
6.0539
40.7
39.981
39.91
42.422
50.027
48.812
31.605
12.783
0.54938
-11.239
-27.932
-41.206
-67.803
-54.852
17.974
48.147
39.038
30.423
32.204
44.817
41.447
17.923
-3.1857
-24.596
-38.979
-65.595
-77.53
-10.235
42.062
41.575
33.823
37.574
47.545
47.253
30.023
8.8072
-2.8559
-19.107
-28.716
-44.181
-57.895
-8.3029
39.85
41.116
36.55
35.177
39.85
38.255
24.375
7.4536
-6.0731
-18.672
-30.483
-37.374
-50.1
-51.081
-2.3645
28.961
27.862
24.656
22.815
24.18
23.485
12.198
0.45277
-8.5512
-16.058
-24.024
-32.977
-41.685
-57.385
-32.815
10.774
19.95
17.664
16.287
19.157
23.352
19.395
4.0493
-8.1718
-15.352
-25.573
-33.66
-48.607
-54.531
-22.634
0.13194
0.35682
0.55841
5.2105
14.073
18.594
13.981
7.966
2.0396
-7.3614
-12.884
-28.585
-28.013
7.008
18.396
16.97
19.486
18.439
18.778
10.213
1.8644
-5.6532
-10.218
-18.044
-25.722
-27.687
-43.89
-30.279
14.421
15.21
10.886
24.604
30.58
22.738
17.711
15.977
8.665
2.2338
-5.7628
-9.8676
-17.957
-62.755
-71.162
-8.5005
27.028
23.634
14.075
22.759
39.09
37.805
15.754
-9.4194
-34.272
-44.034
-62.748
-75.701
-17.924
46.751
59.641
50.501
37.359
40.551
47.816
25.076
-0.34527
-10.613
-17.618
-31.439
-45.23
-6.3915
33.455
32.26
22.497
15.3
23.115
21.772
9.9569
-6.8753
-23.562
-37.655
-50.411
-30.633
6.4435
20.038
20.042
11.896
11.942
21.515
13.889
-16.921
-37.415
-48.64
-48.109
-16.082
7.1274
8.1278
8.2539
14.389
34.669
36.729
18.532
-3.5118
-16.848
-22.509
-43.121
-21.467
36.386
43.105
27.261
29.925
34.459
39.858
25.177
-0.63742
-16.009
-25.828
-44.225
-58.41
-34.201
-1.5502
7.5444
7.437
6.5576
12.535
12.939
7.3621
-1.9422
-12.184
-15.739
-19.413
-32
-10.949
18.48
19.041
7.3226
-1.2753
6.7042
11.132
2.8455
-5.6079
-4.5768
-14.167
-22.338
-32.33
-28.952
7.7904
32.719
37.182
29.768
32.903
37.706
28.767
22.963
-3.1838
-20.413
-43.392
-53.136
-13.113
4.9204
-16.092
-16.844
-2.0765
16.13
21.783
10.227
-4.4424
-13.655
-20.301
-35.176
-45.772
-13.067
21.278
17.656
4.328
23.962
37.694
19.72
0.5082
-3.8711
-11.561
-25.113
-18.458
-26.694
-30.115
9.0823
28.285
34.139
38.285
20.749
-1.9757
-2.828
1.661
-4.054
-21.89
-38.577
-36.276
-36.897
-24.455
12.254
25.464
20.782
22.574
22.23
20.486
21.212
6.1364
-6.2617
-20.826
-24.885
-29.799
-27.394
13.072
26.707
10.365
3.6933
11.548
13.161
9.8468
-5.4666
-20.494
-19.155
-12.876
-2.575
-4.4437
-4.6358
33.644
51.548
36.014
21.486
21.194
19.523
5.8468
-0.14724
-3.0438
-22.886
-48.814
-38.321
-24.929
-45.795
-43.553
-1.6328
26.162
34.528
24.387
17.701
27.345
28.427
9.3963
-10.838
-21.39
-23.476
-40.975
-52.302
-9.9173
23.164
23.022
9.7324
5.2641
13.542
13.748
-1.5582
-10.859
-18.634
-31.03
-34.086
-41.137
-8.6186
43.183
46.182
30.717
20.826
20.129
24.036
18.057
3.9774
5.2806
-2.2526
-22.218
-31.703
-40.522
-11.499
32.029
22.715
7.3682
12.466
26.015
35.414
27.826
13.874
2.1067
-5.611
-18.277
-34.615
-38.649
-52.998
-42.758
-5.903
1.0613
13.134
26.678
23.144
17.443
18.871
17.222
7.962
-6.5549
-15.633
-33.606
-33.065
12.89
29.479
17.164
9.4896
8.2844
15.877
18.569
4.4743
-15.576
-21.09
-21.233
-23.461
-33.658
-53.31
-22.932
27.958
32.837
22.857
14.368
20.49
30.045
22.425
8.2346
-5.3607
-15.415
-20.694
-26.329
-38.392
-62.046
-32.913
27.587
37.056
25.061
18.954
23.644
31.494
26.54
9.6572
-5.7664
-14.439
-18.812
-27.822
-30.741
-45.429
-45.988
13.675
50.553
38.765
17.016
13.511
24.427
23.599
4.9423
-11.215
-24.472
-33.089
-40.105
-60.193
-26.647
31.563
37.262
23.597
19.503
27.911
33.305
27.451
9.8471
-6.6427
-15.889
-26.784
-33.155
-49.715
-45.731
21.218
57.018
34.689
11.346
13.433
25.102
19.26
-4.6066
-18.982
-21.354
-34.319
-55.311
-50.724
-52.76
-57.869
1.9358
50.574
45.233
31.664
25.104
30.745
38.105
26.973
17.143
11.532
-0.0033737
-13.078
-24.188
-39.58
-62.663
-21.266
37.875
45.779
35.931
30.221
38.104
42.239
27.506
1.7967
-16.643
-33.186
-46.08
-63
-85.55
-37.417
32.538
45.245
27.968
20.032
43.579
53.966
34.54
3.6442
-17.088
-33.459
-43.263
-49.813
-73.357
-42.587
34.107
54.73
44.863
44.591
58.792
72.01
67.782
43.115
11.506
-15.176
-42.032
-66.487
-88.144
-112.23
-60.542
17.458
23.817
8.6987
11.461
21.856
26.242
19.662
5.4135
-6.5727
-18.102
-22.952
-34.615
-40.65
-58.456
-53.715
11.212
41.542
35.873
27.581
27.72
35.893
35.457
17.839
3.1171
-5.8567
-16.678
-24.571
-47.695
-27.128
29.62
40.087
29.275
26.039
36.23
42.533
26.969
0.30363
-18.206
-23.252
-33.31
-42.177
-55.15
-71.69
-23.65
26.584
24.12
21.874
25.743
26.849
30.048
23.058
6.7646
-2.0856
-11.29
-18.293
-23.212
-37.937
-50.673
-75.179
-76.303
-11.888
26.284
25.086
25.064
30.459
37.984
37.21
18.411
-0.59526
-9.5366
-22.978
-32.886
-53.611
-64.441
-10.582
37.775
38.683
29.764
29.692
37.515
36.903
23.387
4.7425
-8.9786
-21.706
-40.005
-53.424
-77.845
-64.854
14.013
48.935
42.936
43.877
43.733
47.143
47.857
28.762
12.495
-2.0863
-15.24
-26.356
-46.473
-61.416
-92.447
-72.97
16.405
53.076
47.112
44.545
50.106
58.536
56.752
35.65
16.327
2.8907
-25.042
-43.658
-70.842
-85.955
-19.121
35.598
35.069
25.666
24.19
33.109
35.609
21.228
-2.6232
-20.207
-30.427
-34.695
-44.162
-73.811
-50.977
26.248
47.96
39.597
33.991
33.5
39.618
34.255
18.141
3.6271
-8.8455
-16.485
-31.255
-41.264
-68.608
-77.396
-2.2751
43.982
35.561
28.757
27.263
32.784
36.283
19.618
3.0558
-11.429
-22.893
-32.811
-45.84
-57.645
-83.117
-46.498
29.005
46.246
34.9
26.719
30.745
37.596
30.027
10.817
-0.39871
-16.12
-26.065
-42.707
-64.584
-16.156
39.162
38.773
26.43
22.271
29.433
33.683
20.692
0.22823
-11.879
-21.747
-33.397
-41.467
-68.306
-58.108
16.308
43.828
33.08
28.609
30.324
34.333
31.72
15.427
-4.0646
-15.159
-29.113
-40.895
-53.752
-74.195
-30.85
31.516
38.721
30.186
26.024
32.046
38.866
26.784
5.5949
-6.8751
-15.209
-29.115
-43.993
-56.15
-76.474
-34.275
29.067
35.192
28.377
25.9
32.413
37.72
30.048
9.2841
-3.0874
-12.907
-24.431
-32.593
-58.159
-44.434
22.663
45.877
34.055
22.509
26.138
33.382
26.459
4.9332
-11.143
-19.149
-31.984
-41.257
-62.749
-70.122
-6.4128
37.808
33.91
28.371
28.593
34.64
35.03
20.314
2.2064
-13.614
-24.137
-37.337
-48.02
-65.38
-83.235
-23.18
38.447
39.428
37.548
41.976
46.892
49.905
35.236
13.637
-1.227
-13.464
-24.553
-42.946
-56.706
-86.477
-63.293
21.098
46.66
37.017
34.784
38.661
46.475
41.8
18.581
2.2942
-12.518
-22.906
-36.388
-49.396
-62.21
-88.315
-36.927
43.609
55.899
44.562
39.711
46.298
53.183
39.472
10.555
-9.453
-27.675
-37.228
-54.654
-76.053
-19.181
42.527
44.868
32.254
26.517
35.658
38.818
22.94
-2.4936
-17.565
-35.454
-46.499
-61.53
-84.742
-30.308
43.075
48.512
39.205
35.492
40.44
43.209
31.057
6.442
-12.18
-24.668
-41.225
-53.143
-75.023
-87.855
-16.986
42.944
41.77
34.608
33.949
38.169
42.384
32.167
13.976
1.7328
-17.165
-27.796
-41.256
-65.259
-18.504
44.242
48.251
31.075
23.356
29.163
31.788
17.952
-5.8835
-17.848
-31.522
-42.559
-51.552
-71.687
-32.335
35.352
43.543
33.904
32.05
36.117
41.068
28.471
9.832
-4.9853
-18.932
-29.312
-41.573
-52.37
-76.932
-53.488
19.158
38.132
28.799
27.834
28.799
32.277
28.985
13.045
-2.7781
-18.336
-24.631
-37.138
-47.727
-67.443
-73.227
-6.1097
38.334
32.806
24.423
25.759
34.061
37.42
21.996
5.0478
-5.996
-21.814
-27.174
-48.049
-51.714
8.9603
41.196
30.606
17.908
16.039
26.42
27.942
9.3958
-8.6594
-21.147
-31.962
-36.581
-61.308
-47.891
12.551
31.034
21.902
16.693
22.32
31.029
30.749
11.124
-7.4152
-21.075
-37.698
-47.281
-73.848
-54.329
19.273
44.896
35.16
24.838
22.524
29.678
27.024
4.8963
-9.5175
-24.337
-35.707
-46.48
-69.771
-26.783
38.62
45.866
34.958
27.498
33.863
38.417
21.689
-0.37843
-19.034
-30.785
-48.646
-64.157
-11.189
46.561
51.111
42.421
38.801
48.013
50.163
28.503
2.4446
-19.085
-34.282
-58.764
-81.988
-25.39
29.995
30.828
19.578
9.2417
12.333
10.947
-12.634
-30.011
-42.822
-48.948
-56.217
-71.095
-16.709
45.414
49.188
37.897
29.939
40.913
38.501
15.263
-4.6186
-17.838
-37.093
-51.618
-6.0818
46.895
44.015
24.251
16.104
24.709
25.465
11.342
-7.2015
-20.674
-33.516
-51.994
-38.824
22.519
49.432
35.918
14.881
3.931
5.5935
3.6916
-11.13
-22.565
-27.934
-41.309
-16.163
28.805
31.996
13.178
-1.8611
4.0354
14.894
9.2973
-8.5572
-24.437
-32.695
-44.108
-53.795
-13.587
19.892
19.678
18.515
25.078
38.153
35.209
10.888
-6.3881
-17.572
-22.914
-31.445
-39.762
0.06195
33.781
29.618
19.141
16.124
20.862
21.742
7.2676
-7.8331
-15.576
-25.618
-33.466
-51.587
-33.398
10.651
18.59
-0.28831
-7.9911
8.2023
17.804
9.9924
3.4369
-0.59473
-19.844
-32.331
-49.79
-50.156
-6.5194
16.304
16.673
11.097
16.529
30.379
28.351
9.3847
-16.223
-32.608
-50.975
-55.236
-4.769
35.448
35.248
21.203
13.9
25.103
31.393
17.408
-1.4489
-23.251
-37.641
-52.057
-68.81
-18.614
42.594
44.772
24.122
18.043
23.654
28.404
23.169
0.8765
-18.084
-34.162
-36.745
-49.945
-55.434
4.7114
53.083
47.175
26.39
14.761
21.401
26.865
16.958
2.1233
-12.558
-29.307
-52.738
-24.734
34.81
44.251
26.964
7.352
10.228
16.776
10.161
-1.7441
-18.543
-29.384
-51.561
-59.121
5.0852
52.927
41.255
21.932
16.899
21.066
26.263
8.3558
-5.3219
-21.705
-19.334
-12.101
-14.1
41.651
67.415
48.684
32.004
19.221
7.0709
3.8668
-6.6892
-31.377
-53.415
-67.961
-59.235
-70.013
-32.735
39.171
33.182
19.116
30.98
42.242
39.109
34.401
24.941
5.1943
-21.562
-38.377
-52.922
-71.273
-38.892
14.499
40.224
30.805
21.053
26.563
32.328
33.404
20.834
21.466
23.709
14.046
-20.914
-46.577
-20.981
1.8821
-6.8685
-9.2552
15.125
11.161
-21.912
-55.488
-70.657
-91.5
-87.021
-15.618
34.049
30.742
8.8985
-3.2519
-3.7031
-10.707
-30.841
-34.168
-22.807
-41.11
-58.296
-3.5923
47.34
41.113
35.876
40.439
46.463
41.416
18.154
-5.0032
-28.938
-43.612
-51.343
-34.799
33.155
65.068
52.552
19.97
13.663
14.596
-3.5869
3.4971
18.135
16.91
0.50803
-53.613
-38.921
10.943
18.934
11.582
6.094
12.328
9.2604
2.8016
-11.259
-24.661
-22.117
-43.857
-30.296
25.678
52.5
42.484
15.98
-0.51257
11.699
15.059
7.3777
-12.656
-31.58
-51.42
-50.21
11.749
50.778
41.464
19.709
29.69
32.065
34.41
49.311
38.17
-19.967
-88.477
-71.837
-4.1238
16.77
7.7224
0.7754
16.651
39.406
42.282
18.169
-17.502
-42.11
-72.423
-78.182
-4.8865
51.61
49.287
34.139
24.16
30.781
35.133
15.123
-4.0308
-22.08
-32.7
-45.17
-62.287
-17.019
28.821
38.506
26.406
15.993
20.069
19.665
11.087
1.9519
-23.501
-38.219
-60.267
-73.081
-29.919
28.546
52.526
30.097
19.449
27.937
-24.954
-21.431
29.08
14.748
-26.519
-32.183
-48.018
-43.079
-4.7139
5.3049
-4.488
-12.097
-3.8676
2.8453
10.411
12.376
-7.6513
-21.171
-24.275
-47.073
-37.714
13.054
42.723
37.194
-0.072257
-16.086
-1.3148
6.9463
4.0121
-6.8322
-14.468
-25.857
-21.432
35.604
68.981
47.811
18.262
24.118
17.769
-25.9
-34.634
-17.843
-36.122
-76.311
-50.699
16.397
40.33
32.697
21.532
26.845
41.88
41.324
-11.109
-29.385
-41.574
-58.83
-19.05
33.861
38.102
26.137
32.992
45.465
43.151
34.155
17.758
-5.2271
-29.074
-56.749
-39.621
27.586
48.821
29.439
0.31339
5.4061
28.136
15.528
-5.6952
-22.775
-39.048
-50.69
-16.079
46.722
64.597
44.031
14.733
-0.88385
-15.618
-24.166
-31.504
-51.362
-65.648
-70.888
-41.702
29.952
62.997
55.49
35.407
25.503
23.502
-0.18827
-13.679
-10.987
-23.092
-44.067
-58.658
-15.226
21.747
2.65
-13.758
-23.018
-25.936
2.6597
46.92
70.285
87.168
72.07
19.182
-40.502
-93.497
-68.294
1.7395
32.994
65.985
95.881
87.495
44.909
-4.7709
-53.072
-96.839
-131.29
-131.41
-108.92
-65.726
8.1615
61.349
61.656
33.902
26.753
37.125
38.11
38.451
38.575
-1.2969
-71.072
-109.7
-126.02
-109.57
-32.093
24.841
39.479
40.872
63.604
95.605
103.2
78.684
38.979
4.122
-30.809
-86.908
-160.87
-167.99
-85.139
-16.636
11.853
26.963
40.425
78.856
116
92.631
28.405
-4.2567
-20.651
-43.403
-52.128
-70.011
-58.359
12.545
53.467
55.926
52.157
43.917
31.389
17.569
-5.234
-6.6534
-1.8992
-27.191
-47.843
-62.544
-44.463
28.029
65.816
45.751
21.437
21.322
39.813
42.069
18.253
-10.498
-39.141
-53.122
-77.888
-61.377
19.842
52.493
37.069
16.173
5.3471
10.029
8.3506
-10.163
-34.034
-54.235
-65.916
-51.682
19.025
59.5
51.506
44.632
45.986
50.991
43.774
19.429
-1.4971
-15.736
-45.385
-30.81
31.491
52.106
24.379
-11.855
-7.9934
17.036
17.11
-3.7509
-19.871
-52.642
-53.412
15.512
56.521
43.129
15.477
9.9813
13.361
13.327
-2.1523
-23.666
-42.928
-73.055
-53.123
6.6725
26.888
9.0074
-7.2684
3.615
19.764
13.225
-1.7757
-11.703
-28.683
-2.313
48.644
51.396
29.463
11.494
23.743
34.465
18.953
-12.628
-25.769
-38.54
-54.856
-13.567
33.274
34.265
15
-4.8003
-8.5664
-4.5828
-11.367
-20.618
-29.194
-40.322
-58.892
-48.607
5.9428
30.902
24.49
18.571
21.237
18.535
4.5345
-11.061
-20.295
-30.466
-32.749
-33.449
-44.875
-10.333
41.221
48.588
37.552
25.873
24.497
30.571
27.161
4.1784
-25.728
-35.619
-33.687
-33.734
-49.34
-68.908
-18.426
31.328
22.862
17.322
26.014
37.214
43.13
29.246
2.3477
-13.13
-25.908
-42.881
-52.189
-68.069
-62.521
-5.8745
20.973
16.503
11.463
9.8213
17.903
28.359
25.828
9.2309
-3.1292
-17.206
-24.857
-42.449
-71.67
-29.593
46.232
69.116
70.315
97.74
132.48
177.8
218.12
164.43
47.618
13.62
108.84
121.57
30.79
-43.741
-122.39
-175.27
-215.14
-215.17
-155.47
-39.111
64.672
115.44
66.336
-97.448
-207.33
-192.44
-125.35
-26.279
95.253
101.3
82.66
88.14
91.054
167.7
161
46.688
-37.113
-143.01
-246.28
-248.43
-153.25
-53.123
24.622
46.695
38.365
70.939
71.222
80.454
81.406
-28.789
-138.83
-191.4
-158.54
-153.03
-85.153
136.35
313.4
392.78
251.06
46.244
-45.545
-126.73
-209.94
-208.02
-65.463
14.827
89.066
112.84
-2.974
-94.795
3.1569
-2.2263
-128.69
-14.517
38.512
-135.18
-76.361
105.61
21.329
-84.839
52.044
108.73
-58.687
-114.92
32.68
-45.136
-161.69
-45.855
56.118
55.822
108.21
112.94
134.7
147.2
82.952
-23.554
-39.658
-48.447
-103.34
-104.07
-22.122
-21.541
-8.5855
21.012
1.3109
11.726
11.104
-61.015
-123.66
-163.48
-149.65
-89.5
-2.0534
125.72
234.86
271.93
232.62
186.6
111.26
-25.98
-121.71
-155.59
-146.48
-136.91
-144.3
-102.87
-3.71
74.084
100.15
109.52
115.05
115.89
74.772
-31.715
-109.25
-192.01
-243.54
-107.16
64.25
91.36
80.057
106.81
137.83
135.86
124.81
94.273
64.565
35.266
-41.709
-110.32
-92.974
-32.034
12.703
26.631
28.329
34.044
22.522
13.376
16.693
-13.902
-79.479
-106.02
-56.235
-10.367
-10.214
-1.6677
14.696
13.406
8.7004
28.773
50.561
43.727
22.792
-7.4441
-6.6456
40.269
68.285
61.481
50.942
45.662
36.81
64.648
74.855
106.68
179.81
107.87
-75.625
-102.57
-59.841
-53.878
-66.391
-76.92
-85.165
-102.11
-113.22
-47.388
-11.1
2.4679
-3.0568
-74.31
-108.83
-61.833
52.798
122.63
90.892
21.947
-97.025
-193.93
-135.54
-42.476
6.2251
77.476
70.041
5.0146
-5.718
37.537
63.863
40.634
-16.198
-54.231
-12.027
15.136
-3.0623
-23.379
-31.042
-51.991
-33.663
-22.891
-22.398
8.3759
-51.266
-80.132
-30.509
1.0556
25.426
48.08
53.486
52.959
44.102
9.5103
-34.929
-61.44
-75.618
-36.366
40.231
66.927
51.474
30.401
15.605
13.982
3.84
-24.206
-35.315
-53.587
-56.511
10.267
80.803
86.134
50.692
30.652
36.454
36.082
21.582
-2.8709
-26.027
-51.262
-75.106
-29.175
36.753
61.095
42.089
8.1657
3.6751
17.73
26.701
6.4423
-21.461
-45.295
-62.649
-1.2056
50.218
36.598
21.696
49.1
86.151
93.982
72.449
29.249
-9.2069
-46.598
-51.547
-14.743
24.167
33.884
0.31106
-33.968
-26.69
-4.1223
-3.6603
-31.496
-57.955
-36.547
27.605
43.126
21.56
19.007
31.764
39.259
29.849
-1.0962
-2.8271
4.8323
10.585
68.25
73.723
87.329
78.417
-12.502
82.648
233.12
190.53
39.141
-172.49
-243.83
-126
-85.801
-179.19
-237.75
-242.89
-132.41
-48.371
-25.949
5.6272
43.135
55.983
89.509
111.33
70.519
9.4576
-70.029
-98.837
-73.076
-66.422
-63.868
-23.113
-1.8925
-30.802
-28.607
12.442
36.349
34.394
23.588
27.811
34.572
24.23
-1.4595
-20.84
-36.992
-54.247
-28.544
16.606
32.618
24.225
15.251
18.506
19.19
4.3208
-19.529
-32.377
-45.661
-45.991
-1.0688
40.732
50.457
41.215
33.075
35.007
32.975
14.399
-11.905
-25.648
-54.737
-47.846
25.882
67.99
67.967
69.554
72.327
96.405
96.192
83.574
91.131
-23.807
-106.04
12.901
166.05
137.07
-0.60205
-135.94
-185.86
-133.87
-108.86
-64.868
12.343
29.226
-19.793
-75.947
-75.848
-47.596
-21.923
-9.3572
-3.8249
5.2551
34.21
40.033
16.298
-1.7204
3.3049
10.499
-7.0756
-8.4398
36.577
63.348
58.597
47.187
36.293
33.6
32.746
18.791
1.8913
-12.411
-20.811
-30.051
-41.568
-12.782
18.853
20.908
18.766
17.161
22.125
24.1
10.357
-4.1248
-17.081
-28.525
-35.273
-46.619
-29.112
12.382
30.309
33.297
31.731
37.864
42.506
20.818
-22.115
-43.934
-47.694
-53.707
-37.624
-4.2
9.5441
-1.0836
-5.2617
4.8787
9.9793
4.7611
-8.5533
-12.413
-21.766
-26.411
4.253
16.304
7.4737
-3.2557
-13.583
-11.911
-8.2646
-9.5159
-13.187
-12.394
-20.753
-26.24
6.629
36.936
38.007
25.167
16.455
17.725
18.292
7.893
-13.778
-25.333
-39.087
-53.339
-20.314
18.702
20.681
8.5515
1.6707
4.8298
6.2717
-7.1044
-26.499
-36.083
-54.322
-44.372
9.974
36.407
31.982
20.071
17.827
22.273
21.707
9.0021
-8.9688
-19.438
-38.971
-44.489
3.635
38.727
36.133
28.815
22.043
19.563
15.299
4.2903
-11.055
-18.896
-28.722
-40.128
-5.7114
41.426
48.64
37.08
31.173
33.86
33.631
21.516
-1.2076
-14.661
-33.421
-27.579
11.506
27.059
19.994
7.4078
2.2422
4.7199
7.8712
-8.4928
-25.758
-39.245
-42.614
-0.19499
32.185
36.577
42.032
47.519
52.769
49.51
47.548
30.002
-5.1004
-59.078
-131.58
-138.74
-91.278
-23.011
12.918
10.445
6.2815
5.9629
-2.7319
-19.734
-30.43
-40.572
-51.659
-25.905
4.4431
17.296
22.95
25.628
34.213
39.131
27.456
12.587
-3.7126
-19.639
-29.309
-50.887
-29.878
7.2973
8.0259
4.7347
8.543
13.323
24.141
25.417
12.569
1.8749
-11.239
-18.796
-36.535
-37.518
9.7713
41.711
38.09
20.809
8.5899
5.6421
5.9516
-4.8257
-21.227
-38.969
-54.506
-64.309
-84.372
-53.426
14.412
41.755
44.368
43.408
42.393
45.485
43.502
22.869
-2.115
-19.92
-35.864
-47.767
-73.165
-67.07
11.287
57.828
51.071
33.894
32.685
46.899
47.082
32.7
24.208
27.116
30.246
6.0416
-20.496
-30.446
-25.712
30.807
68.013
59.647
36.568
28.851
48.808
56.198
39.903
2.0457
-53.267
-76.245
-71.842
-53.966
23.115
90.196
81.565
33.897
-5.8823
-31.496
-61.951
-103.03
-110.8
-83.253
-67.172
-66.154
-97.98
-90.393
-1.0629
22.411
0.8208
20.503
48.403
49.42
22.07
-0.26939
-0.43214
-11.661
-31.45
-76.183
-66.808
41.889
89.666
67.641
30.351
3.8178
2.5734
-5.0354
-12.445
0.38048
-6.9498
-34.918
-59.622
-25.7
40.375
54.942
24.639
-17.452
-5.2526
45.796
61.81
42.404
-4.7073
-25.673
-18.839
-13.53
7.9629
30.786
37.638
33.469
21.904
15.077
13.935
14.51
11.526
1.0895
-26.353
-19.163
28.117
36.009
28.091
27.303
4.0691
-1.3087
-3.6559
-16.872
-16.85
-24.658
-26.396
-28.628
-34.733
-2.8878
12.895
-7.9467
-14.192
-6.0873
-7.3222
-6.1107
0.032952
12.639
22.774
2.3193
-21.938
-0.11927
28.535
35.252
15.211
1.2281
16.68
24.623
2.1868
-9.8288
-16.885
-19.731
6.4806
32.996
27.521
5.36
-20.293
-21.306
-33.765
-62.368
-93.646
-74.766
100.95
291.88
260.83
111.32
-132.51
-328.03
-226.31
13.233
112.98
127.25
11.055
-156.25
-170.69
-105.93
-84.362
-75.137
-20.736
33.382
60.521
76.004
72.267
68.908
61.418
30.748
17.323
10.053
-11.184
-0.41176
29.968
31.081
19.211
-36.754
-20.64
57.843
65.673
46.181
27.917
2.022
-11.932
-1.0728
12.629
18.204
-4.4763
18.809
56.826
18.457
-24.414
-46.944
-62.346
-47.244
-26.339
-70.723
-103.12
-101.93
-81.95
1.0605
54.685
53.736
8.9971
-25.029
-37.167
-64.714
-94.37
-112.35
-115.96
-78.02
6.9883
31.476
11.247
1.5098
13.876
50.49
66.454
57.824
30.085
2.7288
14.567
58.749
98.279
-32.427
-120.37
56.306
216.74
114.79
-223.75
-237.7
-102.71
-81.301
-116.57
-41.456
-53.04
-13.976
90.032
114.87
108
62.092
-2.918
-73.652
-76.362
-2.3725
120.71
182.18
149.44
86.903
62.695
64.084
55.781
39.322
11.388
-12.512
-47.382
-45.023
23.97
58.729
48.401
23.386
20.989
31.719
27.623
6.782
-13.497
-27.762
-52.845
-42.303
13.551
35.885
27.534
19.683
19.47
23.007
23.094
7.8982
-10.388
-22.172
-39.483
-32.766
5.9128
21.996
10.028
-0.80358
3.6437
13.476
15.001
6.8032
-4.7688
-22.735
-65.522
-72.602
-12.609
14.908
1.2643
-5.9921
-9.4677
-1.2065
8.5062
-2.6769
-21.115
-31.582
-45.97
-36.845
3.7809
20.08
15.819
9.42
5.4439
12.987
13.599
6.2459
3.2399
-2.435
-9.3568
-23.777
-24.341
7.2836
19.9
10.691
2.7105
-0.83153
0.55829
4.1032
-3.2595
-14.948
-23.3
-27.767
-30.426
-40.578
-23.979
14.747
29.704
28.882
25.525
31.659
42.576
37.911
25.79
24.168
17.195
12.914
-2.2807
-33.567
-20.179
10.41
10.093
-4.8842
-18.625
-17.957
-12.219
-14.437
-27.899
-41.196
-48.944
-60.991
-41.893
22.02
81.719
102.3
105
119.39
110.61
89.478
-3.8954
-148.8
-167.71
-59.353
-83.144
-170.08
-55.458
130.33
112.39
-163.16
-202.5
-23.077
-9.7323
-20.795
-17.879
-27.109
-37.487
-38.194
13.879
75.795
52.695
60.115
91.093
107.29
118.23
120.28
139.25
74.344
-59.629
-130.37
-165.42
-110.52
-44.999
-26.205
-3.0692
28.685
38.157
38.538
16.699
1.2542
-2.9
-12.2
-23.927
-49.347
-24.411
32.552
45.165
19.205
6.0928
20.96
22.511
7.1426
-5.6879
-12.624
-13.148
-18.426
-22.315
9.5773
37.414
33.304
16.986
-0.73664
-0.056988
12.464
13.253
9.4037
14.061
15.705
19.579
13.312
16.683
54.891
88.306
106.74
78.846
7.2688
-30.692
-45.638
-84.998
-86.418
-69.26
-75.262
-53.667
-4.6154
21.134
5.5099
-6.619
-37.104
-95.14
-64.421
-19.983
-5.157
-12.271
-47.543
-57.383
-11.029
14.098
18.829
23.467
14.012
14.948
19.866
-8.6791
-28.923
-29.895
-41.49
-18.911
48.634
61.381
37.208
31.504
38.075
33.836
7.5113
9.9843
18.492
-22.772
-57.475
-41.33
33.546
58.075
30.677
27.909
39.367
38.944
35.465
39.535
35.965
46.284
46.982
-8.7706
-37.367
-2.3984
12.475
-16.899
-66.41
-75.691
-36.531
-15.145
-28.471
-45.39
-43.513
-29.529
-30.166
5.097
62.649
79.918
82.234
71.463
39.799
-3.3419
-21.952
-24.573
-49.476
-66.726
-50.092
-44.475
-18.744
10.035
5.9901
-8.2417
-4.0377
17.239
28.82
17.852
0.76324
-0.4271
6.7052
4.6679
4.5328
4.8753
4.6602
15.314
30.14
34.429
27.558
15.763
6.2982
-4.5098
-6.9809
-25.745
-27.568
4.4222
-6.7656
-39.84
-50.112
-29.758
-7.2035
-6.592
-31.061
-47.859
-53.75
-48.153
-5.5372
28.676
26.536
14.426
18.919
22.086
12.691
7.7894
8.1242
-9.5891
-7.6893
40.206
71.314
64.361
50.734
3.9184
-62.162
-71.395
-51.526
-48.195
-67.379
-35.364
20.054
32.536
26.315
25.826
26.998
26.308
19.708
-1.2368
-17.476
-39.149
-28.886
25.046
48.777
41
29.612
29.466
31.077
24.729
5.6269
-0.65962
-8.6214
-29.335
-8.5405
26.104
31.004
19.088
7.5397
10.471
17.136
10.654
-9.2297
-25.46
-31.34
-40.935
-33.001
13.861
40.87
36.347
26.387
30.445
33.401
29.432
18.503
9.8567
17.8
3.8264
-27.592
-12.445
-6.3194
-31.595
-43.517
-29.68
-12.094
-12.651
-25.097
-33.704
-36.961
-34.994
-37.853
-18.707
22.367
34.628
35.066
37.116
30.825
29.767
22.207
-21.032
-41.971
-47.435
-66.357
-25.438
26.035
24.419
14.369
-1.2139
-8.5788
2.2554
-1.9039
0.18993
-8.3219
-23.169
-33.582
-35.375
7.8699
28.234
5.8531
12.288
37.247
47.157
36.694
23.405
3.7321
-20.297
-37.447
-44.558
-31.856
-6.8132
3.0833
11.148
1.8306
-27.047
-42.889
-64.896
-45.999
-2.1677
14.401
-5.7691
-39.953
-22.528
22.287
27.254
3.6829
-4.1127
20.928
32.873
14.153
-22.986
-56.776
-62.191
-58.047
-35.614
22.121
53.35
45.278
29.1
34.063
43.923
34.246
9.3871
-10.904
-16.733
-30.258
-19.406
37.433
68.847
48.637
19.509
16.724
21.62
11.72
-14.575
-33.653
-56.105
-82.11
-40.91
23.084
37.891
24.834
18.809
25.77
36.122
23.27
4.7185
-14.148
-40.267
-5.9051
45.572
50.402
30.127
11.619
10.836
12.498
-2.9705
-20.08
-36.386
-48.341
8.9385
66.854
78.934
80.575
94.366
144.11
169.3
197.74
171.53
7.8398
42.329
187.7
87.589
-170.46
-340.02
-294.14
-205.79
-189.48
-147.6
-135.13
-161.14
-98.161
-49.481
-38.249
20.439
74.033
105.39
129.16
96.462
56.334
22.513
-66.075
-96.032
-28.927
11.076
21.774
39.143
21.733
-5.7685
-21.587
-49.672
-67.66
-38.562
12.828
36.215
43.374
37.09
28.47
21.424
25.49
22.709
12.241
-4.0978
-23.176
-4.9536
28.999
50.016
64.297
68.606
50.931
22.26
-1.2236
-53.666
-96.722
-78.656
-24.27
-18.499
-26.893
-19.158
15.173
35.839
17.524
4.5813
-22.624
-40.773
-9.2355
12.632
6.6056
-8.471
-11.852
12.085
3.9375
-14.522
-10.839
-10.641
9.0616
21.429
21.046
29.672
20.1
11.399
24.272
23.525
7.633
-14.098
-56.575
-51.826
-30.091
-33.389
-25.915
-15.015
-2.6684
-1.0558
-4.5472
-10.35
-10.348
-10.743
2.7484
23.524
12.558
8.939
19.593
29.397
34.795
28.754
8.8916
-11.515
-35.249
-50.608
-5.4524
55.652
59.273
51.516
42.841
28.746
32.946
36.818
38.203
33.768
-9.9099
-44.027
-13.378
42.523
49.137
12.975
-11.685
-21.008
-27.684
-24.789
-37.592
-43.233
-52.481
-56.587
-16.027
29.805
33.092
21.735
24.887
18.712
14.98
-5.5209
-19.725
-41.117
-55.703
10.418
75.041
72.728
37.139
3.7921
-18.378
-33.736
-56.259
-70.228
-90.618
-113.43
-69.936
4.487
39.142
30.475
24.577
-7.3636
-53.178
-59.384
-53.781
-59.787
-59.866
30.836
109.5
106.89
78.116
48.179
23.918
-1.9552
-36.864
-50.761
-68.486
-78.207
-10.774
44.07
48.293
31.826
23.454
29.406
27.432
5.1331
-17.783
-47.938
-54.845
12.027
61.556
57.399
40.893
29.391
28.615
30.348
10.643
-11.578
-27.904
-55.712
-27.41
30.799
40.1
5.159
-22.558
-19.917
21.012
56.411
33.637
3.3121
-27.13
-72.066
-70.107
-0.44201
40.896
50.662
56.751
63.718
56.192
35.223
15.768
-4.9097
-21.868
-33.741
-61.581
-37.716
36.66
65.906
53.687
30.843
23.319
23.074
8.5365
-20.08
-37.528
-61.799
-77.933
-31.073
26.204
40.981
33.536
33.369
38.346
25.207
-3.5412
-31.499
-56.295
-73.077
-86.083
-80.428
-12.145
38.694
55.414
66.59
56.755
66.358
76.344
10.164
-44.388
-53.974
-58.101
-65.768
-82.501
-60.705
0.82468
20.48
34.337
47.867
58.823
86.537
102.74
90.933
-48.565
-179.53
-144.23
-104.56
-57.322
20.134
10.098
-39.686
-49.04
-62.703
-63.447
-36.883
-13.887
-29.972
-64.367
-59.463
-47.605
-48.533
22.668
93.778
62.631
40.398
37.658
47.328
70.731
85.139
64.749
43.364
46.834
10.89
37.803
113.39
71.152
32.257
45.063
68.216
5.7412
-46.36
-35.206
-38.484
-69.283
-69.406
-60.546
-82.216
-24.986
61.275
76.828
83.438
85.765
109.9
110.14
-53.391
-47.32
86.588
73.968
55.466
98.532
172.92
275.67
235.12
105.68
-1.9343
-95.147
-165.98
-238.49
-310.08
-267.7
-163.92
-95.911
-96.745
-107.43
-134.35
-149.49
-116.99
-112.59
-121.02
-119.56
-73.461
-7.7496
56.87
98.571
89.275
-0.54204
-97.363
-19.006
119.61
141.3
103.75
38.173
-11.03
-13.165
-16.312
-22.483
-30.073
-39.688
-60.032
-73.927
3.9278
78.261
102.77
87.179
53.739
41.241
37.262
7.5296
-25.984
-37.571
-77.158
-66.561
14.164
45.646
15.56
-23.26
-41.152
-32.21
-29.108
-56.025
-61.276
-82.494
-71.35
4.1678
42.519
67.537
90.219
135.11
178.66
148.02
48.72
24.585
29.095
-44.228
-36.698
39.457
60.742
61.747
37.004
-2.0488
-27.267
-75.241
-118.9
-105.96
-119.96
7.6177
243.21
293.6
233.25
165.74
57.904
-18.681
-57.796
-83.37
-108.87
-108.33
-48.362
0.62778
13.664
17.226
8.1623
8.4617
18.716
1.7758
-26.06
-48.213
-83.936
-77.894
-15.648
25.535
43.624
46.267
35.022
22.536
17.356
7.1548
-13.254
-31.035
-48.417
-51.181
-11.438
23.639
19.62
1.16
-0.81481
11.825
20.046
6.9876
-18.842
-30.329
-43.362
-51.739
-11.264
25.539
32.828
29.779
21.939
15.918
5.76
-14.215
-25.196
-31.724
-48.019
-49.658
-15.908
8.986
9.4839
12.556
20.463
20.267
19.369
4.6035
-16.134
-37.029
-59.12
-42.764
2.8944
17.769
11.051
7.68
8.7506
6.5406
-0.48878
-15.141
-32.442
-40.654
-51.818
-58.555
-19.14
17.327
27.086
30.666
23.095
22.491
29.93
20.574
2.9893
-13.226
-23.814
-37.463
-53.702
-19.284
29.446
39.151
32.812
27.244
30.207
36.18
26.568
8.3646
-8.1794
-25.303
-35.973
-55.612
-30.486
23.312
37.688
37.72
34.254
32.83
36.188
31.63
13.568
-2.6206
-19.887
-30.824
-37.117
-63.223
-48.594
14.96
38.397
32.809
33.16
35.838
41.909
41.787
28.012
10.372
-6.7517
-21.947
-30.667
-38.472
-63.418
-56.27
-1.8664
25.497
21.88
17.14
19.294
26.035
29.964
15.472
-0.97597
-19.859
-34.637
-45.396
-64.377
-29.324
25.793
29.674
19.473
13.37
17.749
26.091
24.162
19.205
7.3314
-10.127
-27.085
-43.13
-63.639
-76.894
-22.507
31.976
37.603
30.543
26.048
28.881
35.237
27.521
9.3172
-7.8817
-15.468
-33.88
-51.201
-68.396
-79.001
-21.312
28.923
35.398
32.284
13.937
18.212
36.636
23.463
2.7242
-17.286
-31.117
-49.147
-67.427
-17
34.242
36.732
31.512
27.102
29.941
36.786
23.714
0.26689
-15.548
-37.45
-41.162
-55.858
-80.023
-23.347
50.995
62.08
47.076
37.77
41.909
41.182
29.114
19.713
8.9338
-19.043
-43.479
-56.5
-90.682
-70.309
12.736
49.749
52.734
51.741
48.595
48.995
42.304
23.95
10.272
4.2759
-10.504
-25.21
-45.333
-69.439
-28.711
20.737
25.176
11.3
-3.6546
2.4941
30.477
50.118
41.824
11.306
-18.234
-16.939
-25.606
-37.986
8.5557
46.381
35.365
15.9
12.127
24.601
31.673
18.633
8.1698
-1.8184
-18.795
-33.335
-63.922
-51.811
5.9943
21.319
8.9366
3.0006
4.0587
13.815
19.396
11.73
6.7634
-1.0638
-19.089
-39.82
-73.453
-97.154
-52.801
2.4356
17.757
22.536
24.254
20.857
6.6828
-23.732
-49.121
-56.884
-50.886
-48.433
-41.023
-51.02
-45.989
12.206
39.012
33.481
29.686
33.78
39.136
29.619
5.4592
-7.6203
-23.637
-40.569
-57.56
-73.721
-23.279
27.516
26.712
35.984
50.221
50.262
45.449
42.733
23.956
-3.6369
-23.609
-37.174
-50.8
-75.283
-40.147
22.859
43.082
39.623
32.996
36.829
47.158
43.662
22.865
6.2638
-10.2
-21.731
-40.134
-69.865
-31.99
33.832
42.406
37.758
35.289
38.703
44.406
36.216
23.818
-1.8224
-31.474
-41.982
-58.472
-80.586
-42.267
15.237
24.144
24.292
30.531
44.695
54.22
29.891
-6.3784
3.7466
20.87
16.251
-23.875
-62.3
-15.84
25.147
6.8502
-1.5141
19.39
38.579
33.537
14.655
2.82
-13.438
-25.573
-31.913
-39.952
-13.321
21.323
24.799
2.4258
-15.022
-14.057
-7.8719
-7.1897
-13.618
-20.576
-34.313
-36.794
2.3665
30.466
30.239
21.946
40.371
56.173
37.785
15.742
2.6522
-27.109
-74.447
-107.64
-90.321
-36.26
0.52846
16.687
26.461
23.716
26.189
8.1079
-17.357
-18.5
-39.508
-41.408
-4.2303
22.922
27.324
16.067
12.467
28.587
31.079
9.5705
-29.995
-52.15
-70.643
-89.17
-45.139
-0.38063
6.6254
9.5638
17.801
32.405
40.543
23.219
8.2123
-5.3172
-19.504
-33.669
-49.315
3.013
72.179
83.71
59.788
39.828
29.771
26.713
24.822
8.5814
4.1134
-0.56328
-6.3431
-17.477
-29.851
13.644
66.793
62.273
29.922
15.363
22.875
24.624
1.3458
-48.102
-77.719
-60.999
-52.036
-80.285
-92.605
-32.309
34.516
56.67
63.692
60.455
49.177
30.1
9.99
-27.982
-57.617
-34.576
-37.093
-51.484
-62.851
-41.575
47.139
98.488
87.448
75.095
77.413
73.836
61.829
22.705
-14.301
-33.796
-61.877
-76.089
-72.188
-68.249
-36.175
-18.062
-31.262
-24.71
15.494
33.902
31.227
18.659
2.6883
-0.20482
-26.595
-64.633
-83.309
-88.736
-72.21
-16.434
38.497
54.961
39.917
20.826
20.067
35.887
46.298
41.607
24.255
16.083
2.262
-29.019
-72.349
-108.16
-66.595
-9.7742
-2.6647
-7.0441
4.4352
22.128
34.158
37.464
31.354
25.928
14.611
2.2019
1.1618
-20.202
-38.923
9.6192
46.54
41.534
32.246
27.236
43.873
53.863
52.331
53.431
60.269
82.877
30.716
-66.293
-131.44
-179.44
-129.3
-52.56
10.707
45.953
94.412
144.28
189.62
181.52
151.57
147.57
57.542
-64.592
-149.05
-226.67
-230.36
-184.01
-123.68
-57.567
2.6814
32.735
54.802
3.5998
-99.419
-105.64
-56.391
-3.7636
24.836
6.4661
-5.5159
15.77
-19.834
-57.121
-15.163
84.756
116.55
161.87
279.08
327.7
171.84
-119.65
-415.37
-509.25
-225.89
29.198
134.75
155.11
154.25
144.7
106.95
70.112
30.928
-74.579
-202.05
-309.69
-230.94
41.718
119.98
88.688
130.64
118.23
24.105
3.4362
-10.593
-45.914
-66.007
-31.201
46.756
86.257
112.59
185.43
227.16
262.61
300.71
177.06
137.62
181.82
43.533
-149.97
-297.05
-469.38
-558.68
-391.48
-182.56
-91.602
-137.81
-225.44
-282.88
-330.52
-322.3
-185.81
70.476
303.53
403.08
424.77
337.01
205.7
113.49
58.027
-11.404
23.857
144.41
186.97
129.12
6.6021
-104.67
-155.61
-152.27
-139.17
-143.47
-98.06
8.1321
63.74
58.9
38.977
21.661
7.5385
-12.923
-33.712
-67.017
-57.819
30.234
91.151
94.357
71.219
44.252
25.115
5.2036
-16.972
-56.683
-58.779
17.985
73.695
94.189
84.182
50.71
19.217
-5.5402
-29.761
-56.715
-49.93
19.254
75.756
101.9
91.047
30.517
-14.438
-33.181
-44.411
-55.302
-21.926
20.24
35.109
54.393
26.22
-17.764
-29.645
-19.564
-21.926
-28.361
12.788
45.1
53.656
56.055
19.123
-10.932
-18.961
-22.987
-29.273
-36.237
-19.971
-25.321
-30.665
-1.5988
-26.017
-45.895
-35.202
-27.885
-50.773
-54.588
8.0325
52.956
50.219
38.547
21.644
-0.34951
-23.337
-22.452
-12.138
-8.9088
11.155
4.6217
3.2851
-3.3599
-57.881
-94.058
-119.88
-65.897
7.2691
-8.072
-23.536
-7.5283
25.326
44.562
53.821
23.908
1.9563
-8.8115
14.355
47.599
26.2
-11.175
-31.905
-52.927
-68.981
-70.292
-24.052
36.1
60.994
51.45
19.723
-9.3167
-25.73
-48.415
-15.047
65.252
91.28
45.074
-8.6036
-28.916
-27.103
-27.319
-52.523
-18.234
16.769
19.284
113.74
119.65
54.291
41.503
32.971
-4.6255
31.92
66.618
24.839
-20.446
-76.411
-69.195
-5.8448
0.20424
-8.9641
-0.7855
-0.21587
26.04
20.551
-21.399
-25.758
-11.334
-16.105
10.769
29.835
27.785
17.932
-8.1901
-25.998
-42.6
-47.804
-10.223
34.05
49.054
25.343
0.61744
-10.47
-8.6025
-12.929
-17.246
-1.7015
-1.8565
-13.018
-9.2484
-3.4377
-13.171
-24.518
-44.806
-24.499
12.068
17.174
4.4918
-10.159
-26.873
-41.797
-56.715
-36.615
10.759
25.131
16.353
-0.3141
-31.316
-50.194
-79.119
-77.967
-0.51124
49.904
35.766
3.2726
-17.294
-26.999
-31.275
-54.865
1.2633
88.293
65.433
29.814
29.321
7.7946
-21.427
-49.166
-59.703
15.225
89.604
75.015
36.381
43.225
62.702
54.592
9.7018
31.528
115.66
122
42.106
-51.015
-107.57
-102.74
-71.761
-84.577
-30.355
67.64
93.114
49.75
-3.4381
-15.874
-1.9136
9.1833
22.064
90.575
131.66
122.45
104.68
101.33
90.159
87.34
37.198
-40.472
-4.1975
69.758
40.133
-56.941
-131.82
-187.36
-224.24
-195.97
-83.525
34.021
64.92
35.92
-19.107
-81.64
-96.492
-101.48
-124.89
-68.646
0.41038
24.284
14.184
-1.2194
11.09
22.905
-11.644
-44.599
7.5641
75.255
99.739
71.728
42.643
35.127
3.2438
-57.211
-102.5
-30.028
37.697
22.956
1.3728
12.946
-4.4842
-33.314
-44.031
-50.157
-21.263
69.863
116.97
120.48
100.51
-1.081
-97.914
-101.97
-100.89
-106.67
-42.519
44.463
74.724
60.51
24.601
-12.653
-29.299
-20.976
-24.128
12.9
61.095
58.191
43.597
-19.853
-80.038
-63.82
-30.751
-19.393
-14.823
48.503
74.906
26.041
-16.081
-16.453
16.339
48.82
52.776
33.664
-8.1692
-46.135
-55.227
-52.965
-48.881
-25.158
-2.6427
20.27
-12.71
-53.004
-14.147
39.14
59.012
53.648
76.044
59.2
-11.425
-72.123
-122.87
-93.83
-28.62
11.772
28.158
48.45
38.146
20.375
-33.805
-114.37
-54.665
52.63
87.68
88.473
91.343
65.082
-16.041
-104.09
-120.45
-52.465
33.961
86.395
101.42
86.357
79.899
24.148
-86.301
-111.46
-41.196
50.335
119.64
157
156.88
61.242
-159.24
-263.12
-206.18
-118.25
15.902
140.69
138.59
96.924
43.75
-58.952
-78.508
-44.592
-1.9524
84.123
169.74
199.18
118.86
10.515
13.035
90.089
171.1
177.7
98.237
58.513
52.25
-29.687
-70.613
19.528
-9.4133
-155.34
-309.78
-425.24
-397.77
-276.59
-137.62
-31.245
9.2876
28.001
-13.356
-103.07
-27.443
98.601
159.91
148.23
105.09
84.574
97.127
85.746
-19.343
-8.0949
90.714
69.899
0.18479
-48.703
-50.076
13.753
-40.96
-138.13
-76.551
-11.092
-46.561
-77.122
-81.018
-69.556
-30.486
4.3663
-23.672
-33.453
13.704
39.849
21.882
-33.85
-59.846
-35.049
-48.97
-99.29
-43.546
41.453
77.882
94.7
87.859
79.452
63.421
4.6583
-95.726
-94.399
18.067
85.664
73.588
40.534
-3.8719
-52.598
-82.699
-124.23
-66.997
51.981
115.47
115.06
87.23
62.224
30.929
-9.4763
-98.354
-100.66
21.795
89.18
57.634
11.931
-39.134
-76.716
-57.519
-74.788
-47.785
72.901
142.86
140.81
136.65
107.53
29.641
-49.961
-145.77
-170.49
-4.8711
199.56
221.96
73.944
-62.301
-101.18
-76.446
-53.502
-57.389
-6.6518
94.873
150.77
128.78
59.686
2.4765
-59.259
-82.229
-91.998
-88.387
-9.6455
36.315
8.7136
-22.578
-47.92
-79.943
-95.295
-92.157
-90.493
-22.361
50.579
54.663
23.496
-31.124
-62.638
-31.722
16.881
39.704
35.195
64.06
99.623
84.79
38.906
2.3821
-11.652
-14.112
3.4911
12.4
23.919
70.162
90.94
63.482
5.1975
-24.999
-33.199
-8.6933
-31.891
-126.17
-61.407
7.3785
-13.003
-44.117
-72.114
-64.687
-20.788
11.336
-26.778
-51.046
20.469
78.309
73.513
42.549
6.3826
-38.87
-50.802
-88.211
-118.35
-46.078
21.747
38.54
25.556
7.6864
-1.7702
3.2566
3.9175
-49.797
-29.525
93.966
147.43
102.4
15.194
-61.018
-121.25
-123.67
-124.48
-90.962
29.587
100.57
110.04
95.18
103.81
88.336
30.072
-47.375
-111.07
-32.333
94.68
160.44
192.51
97.355
-53.352
-119.38
-135.54
-147.92
-96.379
-7.8987
42.715
65.219
27.488
-17.003
-40.73
-55.346
-88.016
-88.766
6.1585
102.98
123
63.003
-3.8746
-47.044
-58.854
-56.069
-61.205
14.012
120.71
164.35
120.32
49.775
-7.9233
-76.017
-112.26
-133.3
-100.87
13.096
94.538
82.036
28.267
-6.7741
-35.569
-67.28
-112.41
-101.74
19.235
123.22
134.32
111.33
53.917
-0.24644
-30.356
-160.26
-164.28
-14.592
64.986
66.538
65.556
25.986
-25.391
-16.74
-26.382
-49.753
2.3766
68.764
74.854
47.356
61.562
53.768
-22.436
-110.92
-122.64
-23.241
62.07
62.414
28.908
13.448
4.4442
3.2341
1.3001
-36.188
-27.589
49.115
82.365
46.384
11.535
-19.481
-26.742
-12.696
-32.887
-14.838
39.535
42.752
20.867
-5.3584
-29.848
-31.086
-1.9272
-11.653
-20.695
27.351
76.745
89.9
35.1
-17.794
12.345
62.038
52.633
9.0412
-10.43
11.756
46.547
103.36
198.62
279.04
239.66
180.96
172.59
98.161
-52.752
-196.27
-335.95
-381.82
-287.21
-128.03
-82.616
-224.51
-197.65
-22.835
66.331
87.741
95.606
61.95
5.6873
-50.538
-105.84
-85.195
-61.525
-48.996
-2.4198
-13.094
-15.37
-20.061
-35.568
-61.653
-53.464
5.0128
45.227
38.729
10.297
-10.714
-29.908
-42.993
-57.702
-70.468
-19.211
46.781
57.076
31.788
2.8675
-18.8
-35.446
-32.465
-46.075
-48.303
12.109
47.874
23.142
-31.373
-54.012
-49.427
-42.585
-69.181
-89.063
1.3942
100.4
109.64
63.267
32.937
17.84
7.2337
-11.829
-48.28
-0.37528
81.882
92.672
54.03
25.144
14.062
4.5576
-9.2134
-41.928
-12.809
57.131
73.238
48.173
22.043
18.05
12.544
6.2135
-13.494
-28.997
16.886
63.656
56.574
27.186
16.784
14.553
10.852
-0.18239
-18.734
4.2385
39.658
37.616
12.885
5.7602
9.6003
4.1863
-6.4099
-30.293
-20.44
23.268
33.371
17.46
5.9346
4.2558
-1.5548
-6.8354
-22.571
-32.638
-1.4679
28.068
22.847
7.5208
2.2828
3.5523
-1.1347
-8.3901
-18.523
-23.038
3.3296
24.341
18.967
11.178
8.8158
7.9957
4.6042
-4.902
-12.717
-19.997
-15.202
7.3796
16.375
10.432
4.8677
6.1784
5.4552
-1.9698
-10.23
-14.245
-11.151
3.0857
4.8532
0.53432
-0.12595
-3.0871
-3.9962
-6.6899
-7.6504
-10.173
-13.219
2.4631
15.976
12.615
-0.068642
-7.115
-4.0366
-1.6887
-5.2091
-10.085
-18.823
-14.337
10.711
19.771
9.2976
-3.6389
-7.6934
-5.4592
-2.6586
-10.179
-17.211
-21.975
-22.348
-4.1492
3.1085
-0.53808
11.747
28.821
19.21
3.6078
-3.8985
-11.234
2.9389
3.1622
-10.966
-7.5184
-1.8296
-4.5501
-1.5187
-3.3029
-12.392
-6.7629
-0.34881
-4.9866
-15.709
-3.3578
23.887
25.001
4.6562
-12.436
-14.684
-11.32
-11.289
-13.253
-23.518
-20.563
4.7523
6.3873
2.0808
12.28
16.826
11.464
-1.9627
-8.0116
5.6056
-5.354
-15.727
0.96951
10.584
5.8565
-1.6653
-7.8348
-9.3249
-7.475
-10.868
-19.869
-9.981
15.054
15.785
1.8722
-7.2942
-0.71715
14.446
12.858
-3.3189
-14.774
-23.522
-6.0257
15.737
13.967
1.2109
-8.8314
-11.118
-5.0664
0.71912
-14.839
-24.715
-1.873
13.832
12.165
11.702
2.964
-1.2154
0.30918
-2.4564
-7.9878
-20.898
-9.8668
17.363
20.419
9.8984
-0.18236
-1.685
-2.5246
-5.4472
-11.992
-19.918
-0.10904
29.988
29.391
14.483
3.9921
1.392
-3.913
-10.474
-15.799
-22.957
-9.9341
17.43
18.567
3.3269
-3.6118
-1.5228
1.4357
-3.2837
-10.517
-17.98
-14.739
12.175
23.197
13.922
4.4572
6.8366
11.945
7.6658
-0.34636
-6.5814
-4.2701
13.707
20.584
12.773
3.6986
1.5775
-1.5431
-8.8839
-10.097
-12.408
-14.33
4.3879
20.961
16.698
6.0271
0.82647
1.322
-1.4469
-13.234
-25.254
-32.379
-26.829
-2.4384
9.9841
5.0917
0.59405
3.0869
3.4802
2.4218
-3.7936
-9.32
-11.591
-11.63
6.3219
20.207
15.053
5.1535
1.2454
1.3295
0.57493
-0.03176
-0.42215
-5.0086
-7.7928
8.1196
16.834
11.54
5.4094
0.90654
-0.93861
-1.7432
-5.6589
-4.5079
-8.8272
-5.3874
19.929
33.507
39.022
18.103
0.48399
11.621
33.519
44.169
52.275
39.395
19.416
-1.7774
-48.7
-92.562
-134.25
-100.09
-35.028
-10.184
-4.6173
5.8543
5.2351
1.0383
-3.7137
-2.6096
10.796
19.953
20.271
12.917
11.405
6.4735
0.48305
-2.7208
6.8429
-0.61195
-8.3144
3.6767
5.8609
24.683
-2.5449
-24.648
58.677
124.01
135.85
83.628
-64.447
-170.76
-165.08
-119.73
-71.82
-43.633
-23.963
-3.7531
8.3016
12.958
11.857
6.191
-4.4184
-10.392
13.634
36.088
31.993
16.328
13.045
17.062
17.44
8.0658
-0.24249
-7.5749
-23.634
-15.351
11.348
19.364
6.8591
-2.651
-4.2288
-2.4698
-7.5234
-14.557
-22.763
-35.816
-13.502
16.248
16.264
-0.46093
-8.3948
-7.0149
-10.508
-23.525
-45.68
-58.59
-33.293
19.837
41.695
26.282
5.8913
14.687
34.412
43.18
30.016
-9.4839
-44.312
-51.564
1.4881
52.868
39.249
15.053
2.0525
-1.225
55.223
46.302
17.969
5.2215
-58.41
-37.224
42.834
47.636
25.2
2.6574
3.6874
24.449
21.802
77.499
47.446
8.8194
42.968
21.397
-30.224
-17.502
0.81852
21.193
25.525
-7.9191
21.103
1.365
-68.196
-76.447
-55.144
-32.43
28.976
74.15
45.657
26.497
-6.1239
-42.269
-21.563
-4.1899
-11.004
-4.9374
19.961
29.505
41.954
68.471
62.606
-21.099
-79.655
-57.538
-26.084
19.922
61.85
37.985
-20.413
-72.216
-82.184
-49.249
-25.24
-12.331
32.598
36.187
22.625
47.568
13.214
-34.417
-15.556
22.51
88.66
124.26
101.9
64.077
-70.156
-157.87
-129.63
-75.11
-19.682
14.244
22.197
25.844
48.31
59.084
-9.5206
-61.749
-42.795
-10.4
20.331
31.463
-16.992
-130.97
-120.26
31.224
77.749
39.992
43.24
51.159
35.482
44.344
34.674
-12.167
-55.745
-69.997
-65.054
-40.513
-7.4507
8.5549
72.457
124.2
80.682
-19.447
-96.613
-94.919
-86.213
-108.03
-44.718
62.208
79.526
27.099
-21.166
-68.252
-110.41
-78.707
-20.998
-6.5528
14.956
13.917
-4.1655
-20.735
-49.298
-53.148
-104.93
-55.574
140.48
186.05
147.49
100.58
76.182
126.19
171.55
51.535
-19.399
-18.182
-92.729
-81.903
-54.869
-80.51
-119.86
-107.87
-54.911
-1.6723
-9.8396
-69.968
-126.97
-96.333
6.2454
71.652
127.41
123.59
70.716
-3.6134
-41.843
-54.126
-30.351
64.198
110.57
141.85
169.98
133.16
71.925
-46.436
-109.37
-56.657
30.213
104.11
114.69
131.07
147.33
120.1
93.999
71.223
59.11
5.7416
-106.08
-193.96
-228.36
-181.72
-106.23
-101.88
-132.27
-108.5
-64.697
-38.106
-9.6981
23.351
23.651
-4.9809
-39.629
-92.871
-90.516
-34.207
-72.691
-129.31
-67.798
13.955
45.367
21.621
-16.642
-12.234
-5.5364
-11.286
-54.431
-112.27
-70.299
-9.0956
-16.906
61.039
166.63
166.61
155.5
142.1
169.52
306.53
347.54
205.71
67.544
-72.505
-225.76
-378.5
-452.89
-500.78
-640.01
-218.16
319.02
392.86
347.15
322.44
274.05
185.74
118.66
39.268
-15.591
-100.48
-148.98
-152.22
-87.749
-13.582
40.237
67.461
87.464
85.949
-0.51848
-120.34
-155.01
-88.083
-12.947
-25.635
-142.42
-207.22
-152.19
-35.82
23.331
101.77
146.16
77.336
111.52
182.27
151.37
33.545
-58.582
-166.96
-168.32
-30.402
126.09
237.19
217.47
203.28
93.573
-91.237
-191.14
-214.62
-333.47
-415.18
-302.07
-175.7
-61.092
-52.603
-53.46
24.136
94.35
141.21
169.42
117.14
17.242
-19.936
25.804
115.23
136.01
40.849
41.601
118.73
136.51
106.82
99.05
126.44
115.42
61.774
-36.814
-145.7
-97.548
39.771
83.597
76.384
57.64
47.633
10.805
-96.476
-122.16
14.086
143.93
163.75
85.119
8.4913
-103.11
-170.6
-150.87
-82.062
43.518
94.32
66.768
47.067
-13.84
-84.136
-96.907
-59.983
13.437
59.052
52.186
14.45
-28.215
-25.412
-2.3092
25.368
29.568
2.7004
18.854
47.33
23.155
-10.08
-28.012
-39.209
-2.3076
-11.599
-47.779
-21.851
1.5932
27.066
26.647
21.83
33.751
-24.433
-16.207
18.146
28.133
-11.744
-44.425
-32.429
-2.9555
-35.681
-86.498
-102.03
-35.102
44.015
69.914
58.698
52.932
15.917
-33.137
-36.001
-18.444
19.529
16.726
1.4776
13
7.4096
-29.345
-51.228
-89.068
-58.367
25.223
58.994
79.558
46.239
-0.22549
-3.873
-30.623
-45.314
-14.535
23.377
45.108
16.208
-20.674
-34.431
-69.503
-71.618
-3.8391
35.629
64.061
49.148
28.308
21.268
-17.09
-80.942
-64.346
1.7651
34.531
21.901
-3.2118
-24.709
-62.156
-58.581
-8.4116
48.629
114.05
128.68
67.267
27.407
12.297
-29.989
-72.864
-45.265
27.754
76.574
20.698
-45.622
-105.45
-132.29
-113.39
-69.759
49.786
156.67
143.53
87.509
60.461
10.032
-26.785
-54.28
-46.367
46.915
91.451
75.55
55.212
48.686
48.319
141.23
214.67
252.43
324.96
58.011
-284.05
-272.45
-180.25
-163.94
-201.15
-134.26
-113.66
-127.73
-127.68
-109.52
-95.995
-35.393
7.4729
12.691
25.691
56.366
54.995
10.589
-5.1899
35.37
75.38
84.823
35.374
11.596
-0.21336
-29.192
-29.551
-3.7158
7.9716
5.0445
-24.576
-6.5126
21.202
-5.5742
-31.853
-4.109
43.223
62.228
21.185
-26.738
-35.858
-21.144
-10.757
7.1258
14.832
21.836
10.825
-3.593
-14.282
-38.302
7.5363
59.61
72.195
46.164
-17.358
-71.58
-105.63
-80.991
-25.628
7.4026
28.429
10.399
-33.117
-29.959
-9.3435
35.06
87.843
114.23
100.12
39.614
-33.955
-93.399
-141.9
-105.42
23.928
104.22
118.36
68.766
8.1984
-6.6477
-28.236
-50.891
-24.242
33.634
60.708
31.178
-9.7444
-43.249
-74.923
-79.409
-18.088
67.439
100.58
61.025
45.593
10.402
-63.202
-96.073
-69.267
-8.5911
60.159
58.672
30.361
-4.6342
-61.894
-71.164
-25.331
-7.4731
17.148
37.267
65.121
56.208
-11.949
-69.539
-51.639
-18.176
17.532
39.37
32.043
17.673
-31.911
-75.935
-51.915
-13.069
11.597
28.73
61.587
67.192
-21.587
-81.583
-34.56
24.316
25.062
5.2472
4.131
-29.821
-54.273
-20.445
19.953
46.467
59.558
20.461
17.9
-1.7834
-39.759
-9.1887
24.295
31.234
23.719
-21.814
-39.717
-20.273
-22.437
11.423
53.546
104.75
137.99
94.327
76.747
40.735
-68.569
-87.056
-37.274
-23.291
-32.968
-48.851
-64.727
-118.93
-139.51
-58.309
20.002
59.56
67.155
23.838
-4.7726
-3.1321
-9.0961
-12.81
9.8464
30.938
58.738
42.247
0.46124
-26.493
-56.492
-54.825
-19.043
24.424
68.147
63.4
19.935
18.277
-5.9796
-43.712
-18.277
27.371
49.74
35.841
-10.429
-36.13
-73.293
-78.265
-37.313
0.36374
31.835
32.269
4.7018
13.493
-14.643
-53.301
-30.732
16.493
41.717
49.292
20.494
-21.388
-59.294
-71.177
-37.36
13.948
46.913
41.476
-4.1109
-20.427
-31.528
-37.576
-14.783
30.942
72.13
94.551
48.838
-18.783
-70.215
-95.685
-60.583
-4.0762
21.436
47.569
36.02
16.997
-14.128
-46.842
-32.536
8.4088
57.082
62.078
9.0673
-40.059
-74.796
-58.528
4.9073
38.488
45.63
32.921
24.058
2.2082
-56.494
-54.79
16.133
76.087
97.698
62.528
12.984
-36.627
-80.788
-38.53
25.206
62.611
82.973
58.575
39.88
12.7
-57.059
-59.317
-4.1114
27.13
40.326
7.4997
-18.96
-22.51
-70.188
-88.083
-38.156
11.986
57.623
57.169
18.569
0.07782
-39.806
-67.743
-31.593
0.6236
16.141
19.897
-4.2864
-32.213
-46.191
-42.285
-5.8508
19.221
37.355
44.917
23.575
36.423
27.202
-33.898
-53.336
-31.765
2.3558
28.369
5.8317
-13.806
-22.676
-51.489
-37.328
-16.322
14.778
28.384
-0.84266
15.017
16.492
-8.8073
-13.836
-0.34125
18.745
47.272
13.424
-11.725
-11.999
-26.982
-31.848
-4.1946
27.521
45.993
33.297
38.651
58.064
10.632
-74.814
-85.052
-58.671
-24.331
-0.55076
6.5972
7.818
-23.254
-49.83
-25.885
6.764
31.172
45.849
53.597
64.411
35.404
-33.208
-54.237
-25.995
2.5392
40.725
28.593
0.24177
-29.716
-57.624
-26.699
32.754
63.666
89.361
95.425
97.68
49.985
-67.496
-99.17
-51.118
-25.237
-4.916
-4.0797
-19.166
-34.882
-53.202
-40.697
-11.307
10.007
36.466
45.938
39.181
18.278
-38.172
-56.048
-8.7999
8.7307
63.309
47.09
9.0673
-27.379
-78.305
-68.278
-29.724
-2.2969
21.261
29.714
23.686
11.164
-7.3356
12.013
4.4093
20.834
33.569
-5.9914
-34.78
-60.391
-68.55
-36.914
21.558
60.879
66.441
60.486
56.501
3.775
-28.162
8.8661
37.572
56.512
25.606
1.7611
-31.844
-97.895
-80.253
-13.036
9.7623
37.162
45.823
35.517
-1.6234
-66.191
-69.794
-27.944
-12.769
5.5083
5.2442
-7.6663
-27.712
-35.715
-11.911
12.71
31.72
40.478
18.123
6.694
-26.655
-69.77
-71.556
-47.977
18.076
80.484
62.731
35.287
-6.3737
-52.038
-41.286
-4.2051
61.716
87.996
69.98
24.561
-73.262
-101.63
-52.159
0.77927
39.575
23.754
13.336
-14.353
-36.168
-12.045
18.457
46.82
78.79
79.73
85.291
20.057
-77.268
-68.984
-17.771
34.45
44.668
13.619
-2.3221
-77.895
-103.31
-32.696
46.845
116.39
125.59
69.852
23.593
-40.908
-128.01
-107.85
-15.792
57.718
65.583
17.44
-4.4444
-41.969
-80.884
-24.277
47.249
67.362
56.572
35.892
30.157
-17.859
-78.485
-37.551
12.468
-2.5125
-31.317
-44.149
-60.789
-68.415
-19.857
41.569
57.422
68.555
53.168
35.731
23.917
-45.3
-63.027
-20.11
-6.8875
-10.75
-22.964
-32.88
-53.633
-62.428
-26.505
4.9987
18.736
26.086
8.2473
3.6943
-6.7512
-18.769
8.1588
58.174
77.144
55.004
16.413
-11.227
-35.477
-75.755
-58.915
-31.193
-5.4507
8.1755
-21.192
-18.488
5.5273
0.83766
24.531
52.416
59.499
35.463
-15.615
-22.933
-28.623
-43.553
-13.534
35.605
65.315
54.867
35.336
60.437
20.516
-66.304
-55.678
9.8942
40.07
22.794
11.644
5.6861
-43.001
-86.665
-55.794
-12.412
15.693
39.052
53.552
39.024
-17.486
-67.176
-46.735
-0.26664
48.744
51.503
27.637
13.044
-18.602
-46.257
-28.484
-2.9714
45.613
47.264
31.371
10.208
-47.198
-84.57
-61.756
14.526
68.678
52.153
35.065
5.7013
-74.404
-71.575
-8.3996
55.806
70.69
56.407
47.996
-2.0266
-79.464
-89.245
-18.732
51.133
59.938
22.863
-4.496
-58.003
-93.297
-48.966
4.1448
36.443
28.516
4.3824
-8.6337
-47.406
-83.965
-26.665
39.413
87.066
75.604
19.503
-20.383
-76.14
-93.732
-11.302
42.118
64.788
54.327
27.327
3.4585
-70.189
-102.47
-14.199
70.825
92.021
47.016
5.8723
-34.471
-108.3
-77.442
22.935
76.686
72.947
33.286
-2.6041
-50.711
-83.979
-43.965
39.412
100.95
75.282
7.8421
-47.857
-116.81
-125.19
-33.447
32.803
73.029
84.345
63.454
32.85
-29.877
-57.754
18.973
85.631
97.487
63.199
-7.7506
-59.666
-73.568
-66.02
-7.5251
32.881
64.295
70.042
49.441
41.827
-13.392
-76.243
-37.089
22.043
38.513
5.4088
-28.606
-30.842
-52.502
-73.215
-34.954
4.4984
37.989
34.292
30.44
35.108
-17.933
-73.459
-59.414
-16.349
15.094
11.559
21.622
39.64
1.0779
-48.918
-19.198
37.736
60.121
61.753
62.605
28.129
-66.714
-110.09
-51.384
-9.4818
31.065
52.774
39.264
-13.976
-97.231
-106.26
-44.774
0.52591
30.574
33.023
17.17
-16.49
-49.697
-62.941
-76.981
-7.9074
76.629
74.797
59.865
3.9143
-41.099
-53.235
-11.362
77.218
93.534
61.641
17.303
-44.245
-110.81
-79.891
35.51
114.99
75.059
5.8131
-42.427
-109.78
-147.62
-73.973
55.415
104.57
68.236
30.39
-3.3633
-59.139
-65.343
47.946
149.29
143.4
69.724
6.9762
-70.737
-164.92
-123.92
-5.6097
50.533
32.755
-18.361
-46.99
-60.636
-22.08
113.58
186.35
176.33
98.145
18.595
-51.277
-160.57
-160.67
-39.349
46.902
63.36
29.066
-16.925
-46.829
-108.05
-104.44
-12.832
91.527
134.56
48.989
-65.382
-151.6
-131.87
7.0107
139.57
205.58
204.33
149.48
66.792
-61.666
-140.78
-111.27
-8.8612
82.345
56.821
-24.938
-79.94
-101.51
-92.865
-29.323
36.114
14.179
-65.145
-86.635
-70.744
-69.971
-46.353
21.397
82.794
136.51
141.72
57.764
-43.458
-101.62
-107.2
-65.188
-13.198
1.5202
-32.372
-28.397
4.6615
-20.443
-73.402
-34.642
56.487
135.15
151.43
98.275
27.855
-58.271
-117.62
-78.579
0.64829
52.744
56.748
19.462
-22.597
-82.672
-120.42
-47.816
53.304
155.61
173.62
54.255
-43.252
-84.575
-125.19
-140.43
-74.525
25.413
66.031
42.404
-8.2408
-31.981
-57.423
-102.37
-9.5297
132.95
149.24
96.053
40.91
9.1475
-60.774
-126.95
-38.709
52.329
57.589
33.223
7.8212
-20.175
-55.555
-77.423
-36.26
25.761
56.987
53.289
25.869
-10.933
-35.703
-38.047
-9.8833
38.239
63.17
75.423
45.562
-1.9673
23.094
-9.2152
-69.673
-42.466
4.3791
39.313
15.47
-11.103
19.303
-1.9108
-48.305
-27.808
20.428
51.289
39.609
19.767
22.49
2.8841
-57.461
-82.151
-30.841
15.857
62.687
76.557
64.669
40.536
-67.493
-119.37
-58.913
-2.1002
50.549
67.491
31.252
-0.27105
-54.469
-112.69
-96.069
-14.179
83.887
91.602
47.98
19.297
-27.026
-90.158
-69.325
8.1498
60.247
69.74
44.579
9.0198
-10.034
-62.916
-94.494
-39.475
19.542
62.673
57.038
16.836
-9.3366
-44.484
-53.433
-4.1836
40.779
65.702
75.945
56.125
17.429
6.6717
-11.686
-55.392
-45.282
-7.5778
20.305
37.585
-6.3592
-24.328
-22.047
-67.746
-37.139
-13.615
-2.6303
23.742
19.733
22.834
33.304
-14.301
-55.825
-34.786
-13.415
17.127
26.558
28.377
18.768
-53.143
-82.57
-25.947
-0.43283
22.338
52.809
41.527
26.341
-14
-58.513
-58.019
-27.155
33.397
70.914
40.482
-9.3183
-32.647
-52.49
-58.781
-13.478
34.35
58.467
47.779
9.9594
1.7899
-14.536
-40.493
-4.957
29.855
40.27
50.004
30.072
12.755
-12.419
-54.413
-18.668
33.272
21.335
33.837
36.679
15.925
-44.935
-106.7
-100.72
-41.878
-7.8402
4.2455
-48.276
-101.23
-114.46
-41.062
80.783
107.79
110.24
113.4
26.937
-17.185
24.652
45.872
50.027
38.916
26.257
-7.1415
-31.951
-35.607
-36.186
-30.492
-11.262
18.371
36.045
24.479
7.9778
-37.356
-58.135
42.961
191.05
179.77
30.454
-87.632
-110.97
-84.826
-69.494
-40.801
-32.213
-27.006
-27.568
-56.656
-53.011
-37.271
-25.862
35.757
82.369
98.502
74.075
32.42
1.063
-31.159
-5.3807
6.3947
5.9139
15.602
-0.57902
-21.11
-43.451
-81.52
-25.07
76.029
106.35
62.025
2.346
-23.9
-49.949
-59.67
-41.981
-30.466
-20.773
-20.382
-58.103
-55.836
-43.29
-0.75402
112.78
174.14
110.51
11.047
-7.6161
1.0886
-23.23
-30.344
0.13135
41.725
78.808
75.95
66.351
14.812
-98.983
-145.85
-90.918
-28.954
2.1427
-15.419
-34.296
-26.341
-44.625
-32.176
7.0515
25.057
16.87
-21.151
-3.5746
21.355
-22.588
-73.264
-73.076
-29.96
14.694
16.011
12.987
12.475
-43.873
-82.913
-49.446
-14.087
-6.0066
-19.808
-13.611
-38.488
-73.215
6.6754
108.22
141.76
125.16
106.25
77.26
-1.0759
-40.941
6.5977
75.597
106.89
23.246
-34.509
-70.582
-112.04
-91.76
-1.2966
98.64
116.34
103.21
90.313
-1.2545
-108.34
-141.12
-91.102
-20.588
-4.3242
-52.112
-98.798
-118.37
-115.14
-28.43
164.24
287.07
297.88
260.38
131.42
-19.205
-143.54
-205.79
-180.39
-140.61
-105.96
-60.377
-18.787
-9.3749
-56.99
-30.284
85.373
147.71
153.03
93.599
20.216
-47.33
-119.33
-96.091
-17.797
5.808
28.069
8.3686
-11.992
-34.869
-72.55
4.1386
99.456
156.22
150.44
58.357
-30.148
-118.1
-172.31
-102.84
8.4309
110.49
127.26
68.336
26.002
-51.049
-102.54
-30.689
93.581
154.16
88.814
-11.364
-79.077
-129.25
-133.42
-69.849
49.877
146.65
144.62
81.274
20.168
-95.167
-184.74
-76.195
90.869
140.25
75.108
-7.1774
-64.898
-131.97
-152.08
-56.727
35.892
55.5
41.968
13.612
-2.2217
-67.613
-107.58
-12.196
76.242
95.814
53.117
4.7763
-30.641
-95.335
-67.61
44.471
94.487
88.787
50.76
-23.587
-35.605
-43.831
-56.956
-15.574
15.31
37.061
27.203
-8.7613
-31.514
-77.796
-57.255
18.563
51.815
59.783
29.645
-26.687
-17.47
-27.565
-67.626
-39.366
-6.0106
24.586
15.327
-25.004
-19.223
-13.98
-20.605
2.798
26.103
49.295
39.879
11.98
42.867
-1.813
-71.545
-52.252
-11.003
37.126
43.231
10.336
27.476
12.614
-39.518
-44.395
2.3138
40.739
20.181
9.5004
7.6653
12.777
-34.68
-111.78
-86.086
-48.621
33.963
93.379
59.019
-8.4814
-43.243
-49.887
-34.352
-5.8528
78.937
148.45
109.63
50.292
15.119
-43.656
-134.11
-112.86
-1.723
49.881
27.862
-8.7925
-34.024
-56.635
-86.374
-26.785
85.481
137.93
140.44
92.93
40.884
-20.446
-76.585
-44.725
13.465
29.468
27.312
16.627
19.13
-1.1183
-75.186
-129.11
-103.44
-19.632
36.784
40.745
41.311
19.855
-47.501
-34.591
54.546
121.76
150
169.27
164.8
51.278
-47.364
-113.25
-178.1
-190.13
-187.84
-138.93
-108.16
-69.607
-20.163
-6.4722
41.764
128.15
138.24
88.806
58.756
28.339
-30.976
-68.774
-17.942
60.94
87.886
19.072
-66.405
-66.216
-73.322
-62.021
-17.298
1.8015
-4.7491
29.778
87.533
89.404
13.194
-15.79
43.748
102.03
56.639
-71.915
-81.39
-75.507
-131.84
-117.79
-21.58
67.374
129.95
156.65
145.67
70.137
-49.915
-140.2
-117.25
-63.695
-43.801
5.4479
35.94
7.0278
-67.262
-128.27
-77.214
34.39
125.77
208.1
188.31
80.695
-56.138
-142.73
-99.815
-51.096
-29.724
-4.1219
1.5642
5.0525
-10.153
-22.702
26.234
93.985
167.13
149.9
63.545
-27.087
-144.15
-172.39
-112.06
-66.554
-19.02
-4.1534
-7.0366
-11.642
-44.951
-57.704
10.38
110.36
178.17
191.95
111.41
17.349
-84.963
-155.79
-118.53
-49.829
-15.544
-6.4546
-3.4431
-6.0965
-15.875
-11.823
27.138
71.665
92.257
84.527
40.162
8.0189
-83.736
-174.17
-114.11
-29.002
-13.49
-14.597
-35.397
-45.614
-52.274
-50.473
29.678
118.1
147.47
119.89
67.834
39.966
-46.255
-133.68
-67.782
4.62
2.3576
8.7828
20.524
28.978
-2.1372
-30.362
22.711
81.537
92.065
94.582
64.188
20.402
-20.411
-98.937
-93.169
-12.466
12.846
10.164
-26.732
-86.816
-107.59
-103.6
-34.721
62.006
88.376
98.784
104.43
78.218
31.686
-81.506
-128.1
-55.262
-2.6318
1.2792
17.522
26.669
31.794
35.565
-2.5387
15.852
43.663
62.057
82.057
48.057
-29.702
-68.124
-67.727
-85.972
-65.081
-36.894
-16.138
1.3319
-6.6958
-10.706
3.0938
-9.4661
-17.858
12.371
37.689
55.369
46.613
14.256
0.4262
-18.151
-18.559
-12.555
-11.446
-0.4573
9.7657
-6.5393
-4.2822
9.8462
16.683
55.118
94.182
83.106
71.653
82.862
99.029
19.071
-51.326
-106.88
-129.36
-93.448
-77.813
-84.006
-55.21
-46.04
-54.462
-21.28
-14.609
-12.278
-5.4936
-21.972
-16.918
-19.266
-23.728
3.3005
26.53
36.826
39.165
0.91992
3.8942
31.794
17.684
19.521
45.051
102.69
137.22
106.63
100.9
28.62
-63.682
-43.13
-26.233
-41.738
-85.537
-122.49
-111.9
-51.618
-34.375
-39.583
-17.61
17.374
40.084
27.581
-12.285
-14.695
-14.86
-15.423
11.131
28.259
42.044
20.376
-15.639
3.1673
3.2082
-20.171
-8.4813
24.049
62.206
52.064
14.175
8.4918
-27.171
-56.001
-21.7
16.701
35.891
21.004
2.1492
27.016
24.026
-25.811
-32.772
-7.316
26.799
60.719
30.491
24.556
17.276
-42.182
-46.384
-7.8991
29.669
40.504
-10.043
-14.592
22.437
-10.346
-50.083
-28.317
12.395
50.761
36.027
27.554
40.107
-28.05
-82.289
-42.842
-11.255
13.76
3.3133
4.5319
21.502
2.8048
-48.813
-49.893
-22.392
35.406
56.923
36.168
51.219
5.5493
-60.868
-35.906
37.013
83.923
12.582
-38.513
-6.9026
-7.9417
-63.576
-59.161
-30.612
1.3965
11.798
-27.145
-29.904
-31.501
-52.101
-26.392
59.215
114.91
64.626
-16.301
-3.2925
33.615
-11.744
-52.888
-29.246
8.2947
40.933
13.348
-19.497
-13.307
-26.846
-42.886
-9.1623
8.0906
33.926
45.573
34.415
48.413
3.9379
-48.653
-19.476
14.698
34.378
13.453
-62.94
-76.558
-101.72
-108.52
-39.256
63.656
188.17
244.51
226.82
197.98
200.29
194.94
88.88
-27.937
-66.196
-56.731
-36.717
-66.866
-144.06
-194.91
-175.77
-117.21
-67.415
-72.86
-112.79
-134.87
-90.261
-30.01
13.902
39.866
51.997
53.485
35.785
2.9782
-5.4082
-19.998
-16.27
-0.87499
-1.2998
-25.162
-49.088
-58.936
-44.907
-28.258
-3.5012
24.648
48.946
53.868
26.473
-11.997
-44.06
-20.795
43.527
91.993
70.828
-7.3741
-76.117
-80.139
-64.815
-24.406
10.438
33.715
68.312
68.794
50.287
21.298
-56.669
-78.997
-16.091
36.933
54.377
37.611
-1.0441
-17.395
-42.155
-69.945
-30.067
41.784
90.741
110.5
68.382
24.803
-52.892
-157.74
-102.72
14.495
74.307
95.782
51.742
11.524
-8.1059
-84.004
-51.504
69.891
120.17
127.55
75.721
21.228
-48.267
-153.56
-131.09
-17.211
41.955
61.238
34.138
15.269
-12.916
-95.307
-99.95
19.898
117.68
134.45
90.172
46.151
-10.949
-119.23
-138.19
-36.575
74.923
104.82
58.369
33.081
2.7185
-84.046
-109.76
-27.897
54.386
78.908
43.178
13.952
-47.303
-111.19
-99.166
-50.353
23.35
64.492
51.176
34.084
-6.7491
-65.56
-51.986
1.0929
63.703
103.36
65.15
15.26
-47.12
-121.26
-95.872
-35.204
18.441
63.232
57.245
48.128
10.971
-60.165
-59.277
-13.348
45.578
89.448
59.321
12.603
-53.533
-104.23
-63.438
-21.179
-1.5862
45.352
67.15
67.264
33.309
-57.75
-69.647
1.7064
59.765
91.975
80.009
30.147
-54.12
-121.34
-123.89
-60.84
-11.337
13.758
17.906
24.505
10.562
-52.843
-67.859
-23.834
16.919
52.907
55.649
48.233
25.548
-33.318
-53.002
-8.398
37.749
61.512
71.702
74.25
33.426
-60.542
-98.719
-34.966
10.199
42.813
65.65
45.095
9.4999
-64.862
-102.4
-77.455
-47.054
-16.277
6.8502
12.184
24.768
10.856
-37.021
-46.45
-14.23
20.228
50.719
59.362
41.665
5.8968
-41.774
-57.323
-23.5
4.953
27.557
46.714
48.882
50.225
2.7732
-69.038
-49.928
-11.901
19.154
60.721
60.991
40.644
-17.902
-97.169
-88.357
-39.979
-12.506
18.853
31.188
36.51
30.774
-5.0581
-42.012
-31.743
-13.287
20.168
53.226
44.894
22.887
-0.16801
-39.79
-26.084
17.954
27.704
88.442
97.309
88.198
82.163
-30.142
-67.812
-32.087
-40.547
-10.613
57.039
82.8
78.678
-15.127
-208.7
-210.21
-155.55
-81.908
9.2271
68.267
43.735
-9.0558
-32.131
-34.211
-54.595
-50.636
24.224
77.69
99.84
90.508
38.342
1.3109
-18.503
-36.686
-0.31734
39.413
60
49.349
-0.86304
-33.69
-56.005
-96.629
-86.582
-12.771
41.239
61.728
42.312
0.42606
-35.395
-82.622
-78.144
13.338
68.202
78.457
67.118
38.403
17.25
-48.293
-114.85
-46.261
48.03
73.25
83.986
53.7
6.1816
-19.039
-61.577
-38.451
61.74
122.31
125.07
92.643
42.635
-0.5531
-87.832
-120.83
-24.377
34.632
53.294
48.505
-21.653
-80.081
-136.6
-148.12
-50.698
37.517
72.964
77.809
36.482
19.924
-4.8482
-100.52
-89.385
-1.426
51.152
74.989
54.841
2.6792
-53.668
-114.49
-84.452
-11.257
24.308
36.515
13.177
-19.164
-25.492
-43.661
-41.519
22.28
69.169
88.543
70.069
3.9037
-40.526
-64.56
-47.313
26.09
60.403
70.02
42.502
-14.25
-36.145
-66.048
-94.906
-34.735
42.174
78.758
81.595
24.514
-21.57
-49.95
-86.231
-54.336
16.375
59.549
65.495
23.757
-13.882
-35.958
-67.224
-56.142
-2.908
48.501
73.813
43.397
-1.457
-26.765
-62.459
-52.65
-6.3113
35.168
83.022
77.841
26.788
-3.8617
-53.592
-66.388
-15.792
23.953
60.048
63.514
29.013
7.2776
-37.972
-83.758
-45.637
-11.258
14.372
40.741
36.066
9.5393
-29.297
-70.222
-43.789
-0.47074
19.977
45.299
55.329
46.197
5.3255
-69.897
-75.576
-30.076
-10.754
2.5233
22.279
19.172
5.6179
-32.503
-47.045
-9.1802
17.841
30.957
56.49
53.587
21.568
-4.325
-35.096
-42.683
-22.532
-6.8184
11.152
18.955
13.265
1.2128
-18.939
-50.801
-74.248
-90.162
-74.072
-19.034
17.237
32.483
48.409
37.047
22.038
11.401
-11.287
-13.096
26.743
60.405
74.994
83.855
79.53
93.021
89.694
29.216
18.734
-9.7776
-60.453
-65.038
-28.458
-2.2798
-8.9553
-2.0883
15.98
-10.11
-25.099
-20.3
-33.322
-39.38
-33.01
-36.912
-29.559
-3.2965
9.3501
10.603
3.9936
-5.8671
-8.1471
-7.8063
-4.6357
21.384
47.888
49.931
50.214
46.957
40.009
28.134
14.022
24.589
36.398
39.415
-56.902
-170.76
-20.101
149.65
180.02
160.11
77.555
-76.726
-127.1
-147.07
-150.88
-125.47
-103.8
-104.7
-96.145
-54.582
-14.913
5.6938
16.406
29.997
31.42
24.132
13.649
23.264
44.226
44.764
33.681
6.6751
-14.682
-20.625
-45.721
-53.207
2.2346
41.962
13.793
-11.506
-15.096
-21.58
-23.452
-33.677
-29.455
15.165
59.195
73.093
76.121
62.806
35.092
32.87
1.5644
-53.605
-27.652
22.101
17.089
-6.2677
-32.791
-53.89
-58.146
-62.84
-40.927
11.226
30.633
13.018
4.7786
11.673
21.504
8.2071
-1.8735
36.263
68.982
57.958
-11.987
-82.396
-117.9
-106.73
-107.73
-90.284
18.996
87.068
66.606
26.913
16.889
8.0279
1.2882
-33.683
-29.403
35.339
66.469
45.469
9.4861
-4.5589
-4.9777
-11.01
-37.728
-14.092
47.027
57.21
26.493
-1.7725
-17.86
-16.241
-32.154
-26.107
55.499
100.83
71.684
34.623
16.327
9.276
-0.42847
-17.569
16.83
59.197
45.072
2.4404
-25.858
-35.615
-41.312
-65.94
-55.673
8.0025
30.532
3.9685
-18.1
-27.006
-14.563
4.9246
25.224
81.314
109.82
94.204
48.502
-7.1973
-9.9421
23.963
42.803
73.772
106.38
82.579
-31.083
-153.55
-173.71
-94.903
-6.1192
27.615
74.009
91.007
-2.6044
-74.521
-51.356
-39.763
-65.841
-97.257
-40.515
47.282
29.971
-25.523
-26.969
-27.439
-39.605
-34.781
-16.164
20.838
48.114
50.112
29.702
-38.994
-52.348
26.511
39.658
-76.793
-193.58
-179.86
-52.534
-11.084
-1.2631
35.248
80.712
112.39
93.805
52.805
52.484
61.085
29.905
-4.0062
-25.647
-27.696
-18.17
-4.1613
10.714
66.142
111.42
105.41
95.582
80.96
61.028
96.62
76.467
-26.861
-11.355
8.5367
-0.79614
15.26
-2.5196
-24.802
-76.426
-128.61
-158.73
-189.88
-142.04
-87.808
-112.61
-133.66
-103.18
-59.002
-33.292
-30.271
-63.91
-31.146
36.35
53.573
33.72
15.814
13.301
8.2571
9.525
-15.207
-18.889
33.024
64.156
50.339
41.577
65.79
76.945
80.553
42.156
-8.1023
64.706
136.75
88.007
9.0476
-59.372
-110.65
-165.65
-167.33
-26.543
149.1
234.09
191.57
99.354
24.717
-1.406
-24.411
-37.87
-17.086
51.426
159.28
202.97
176.78
80.989
34.546
-12.418
-90.834
-190.55
-261.45
-202.44
-92.232
-75.159
-103.41
-109.18
-100.45
-38.633
-18.621
-1.1276
104.99
121.5
67.39
52.085
82.695
32.423
-89.979
-129.07
-49.743
-3.6731
-64.026
-115.76
-94.427
-56.129
-44.566
-47.349
-80.056
-28.816
51.289
50.938
-4.179
-43.775
-45.561
-9.328
28.296
-15.181
4.8581
120.26
188.7
142.87
37.478
-59.132
-136.06
-151.04
-104.57
-4.0555
94.647
131.17
130.53
43.451
-75.475
-84.699
-55.85
-55.451
60.995
176.73
205.36
232.46
222.79
169.14
89.645
10.296
-52.941
-113.24
-97.796
-74.932
-91.644
-70.791
-30.821
4.0408
14.786
4.1222
-21.906
-28.592
11.022
52.368
48.038
30.785
27.267
19.777
-1.8134
-19.287
-44.651
-43.965
10.319
39.973
28.224
9.1738
1.0405
-5.2482
-13.328
-24.774
-49.549
-41.399
9.0203
28.69
18.182
3.7275
-1.1333
-1.0046
-12.36
-27.319
-46.169
-41.461
5.4564
26.283
12.387
1.0136
-3.5888
-7.8867
-12.689
-25.492
-43.702
-45.62
-1.1222
30.433
19.121
-3.3588
-5.5562
-3.3796
-15.944
-25.85
-41.656
-40.421
10.557
36.558
22.039
-3.0731
-9.6522
-9.3296
-17.961
-34.202
-61.625
-37.515
25.22
42.644
18.621
-7.7344
-10.299
-15.322
-26.974
-55.637
-76.868
-10.808
53.329
45.894
18.455
8.1269
6.2588
-8.006
-21.74
-49.453
-56.443
21.74
75.264
61.233
33.223
18.669
7.7304
-3.8862
-4.5852
-26.255
-19.736
52.681
73.231
48.713
24.115
8.2486
-6.1358
-22.631
-40.003
-65.008
-33.198
45.892
59.036
36.28
22.242
15.416
5.4902
-3.9197
-14.377
-36.143
-17.527
34.294
40.004
19.655
6.5309
5.1433
-4.0113
-12.551
-34.839
-50.285
-5.7047
34.814
21.31
-4.2534
-20.889
-38.156
-52.14
-78.479
-84.366
-22.237
36.629
48.483
59.489
86.533
116.38
150.63
67.968
-38.234
-1.8295
70.126
31.022
-71.535
-133.51
-120.86
-76.822
-13.404
11.713
55.241
131.43
154.07
100.78
16.733
-36.723
-64.898
-89.901
-82.118
-95.843
-43.941
57.552
61.09
-42.063
-147.28
-121.55
-54.546
-79.743
-154.81
-187.45
-138.66
38.73
206.77
237.19
150.93
78.265
60.853
34.701
-11.177
-52.979
-89.199
-138.54
-109.8
-0.85813
85.449
118.87
119.05
90.654
41.411
-4.8349
-51.229
-80.393
-106.03
-85.808
7.1017
66.597
57.619
40.203
45.315
48.19
36.077
10.364
-45.652
-85.23
-65.352
-36
-1.8584
-23.657
-73.78
-70.74
-20.508
27.907
51.783
40.088
18.458
49.815
71.501
58.191
32.113
9.6645
-3.9247
-7.1092
-15.958
-13.317
-14.231
-22.322
10.553
39.242
45.831
37.634
29.783
29.348
18.928
10.577
24.249
28.966
30.689
31.878
17.685
-27.219
-47.704
-32.899
-36.619
-56.424
-73.259
-84.578
-51.944
32.127
104.5
120.62
83.802
46.86
20.222
6.6348
-14.519
-23.335
-13.426
4.2533
9.0658
-14.328
-60.681
-87.99
-98.742
-110.11
-88.354
-34.953
10.44
57.336
85.172
99.765
119.26
165.54
191.54
189.25
180.28
198.89
194.51
92.665
7.4112
-31.465
-101.68
-202.61
-281.41
-287.97
-255.14
-202.51
-84.855
23.827
65.514
84.847
85.562
18.43
-41.284
-63.703
-105.85
-93.756
0.56992
59.745
58.363
18.725
-28
-50.528
-73.58
-84.88
-60.521
1.2824
54.792
73.327
51.391
21.709
-27.222
-73.467
-67.596
-42.096
-0.85977
55.953
52.642
36.93
27.481
5.7848
3.3958
8.0259
-8.2413
-35.62
-23.611
12.384
-0.6964
-35.255
-8.4307
76.602
122.35
75.376
-25.021
-78.975
-53.135
-14.721
17.358
44.877
62.598
52.255
15.898
-7.2063
-37.147
-60.87
-53.889
-28.402
-9.3399
-1.3416
-7.0308
-31.256
-48.61
-65.212
-35.067
59.345
124.81
130.27
96.842
34.168
-50.411
-112.15
-69.598
52.647
220.33
301.22
136.92
-62.992
-134.98
-150.58
-137.33
-53.866
26.535
23.95
-2.7392
-14.01
-14.074
-45.927
-65.744
-6.9108
83.611
75.465
2.3395
-48.355
-36.121
-29.625
-50.941
-35.636
5.8213
33.854
43.226
4.0818
-45.756
-55.254
-55.214
-23.298
45.479
82.425
80.035
23.323
-36.25
-66.457
-59.201
9.4413
73.675
90.645
83.38
53.394
14.053
-27.968
-90.404
-96.48
-3.4282
76.402
85.52
36.105
-7.8287
-19.462
-32.782
-42.704
-39.23
-9.0806
49.203
66.678
36.054
7.2283
-22.751
-46.699
-37.41
-17.548
-18.505
4.2366
13.858
1.2032
-15.105
-44.736
-45.648
-24.481
-11.538
-1.5028
-4.0992
11.198
14.87
-22.753
-24.451
44.732
73.702
55.025
14.483
-35.064
-47.031
-53.363
-29.633
23.696
46.095
55.709
49.583
7.6953
-26.012
-40.055
-42.073
-13.713
4.3401
8.7323
18.624
0.80765
-21.294
-52.542
-63.892
-9.2828
46.143
68.8
67.838
32.391
-3.2118
-28.613
-72.381
-70.388
-6.9853
40.718
67.039
41.461
3.0384
-27.065
-49.03
-36.364
1.0932
39.681
66.806
52.13
20.904
-8.4906
-50.709
-63.361
-32.049
-5.4947
38.364
54.467
28.935
9.7177
-16.481
-39.072
-24.765
-0.85414
7.3689
14.087
18.072
8.6754
-20.972
-51.153
-44.271
-15.738
20.922
32.89
9.5105
6.8898
4.3871
-7.7542
-5.3478
13.943
31.516
32.129
0.30639
-19.504
-9.1873
-12.86
-26.614
-16.435
1.1178
20.254
19.569
-7.0714
-22.373
-21.907
-19.388
-4.8064
8.8959
17.792
23.192
6.4381
-7.0507
-3.0476
-2.3143
-6.7532
-11.368
-20.294
-26.183
-26.34
-15.199
-12.654
-26.546
-31.725
-16.309
-3.743
-16.96
-16.318
-21.113
-24.187
-0.75578
-10.203
-26.372
-8.5481
44.618
72.143
112.63
207.66
261.83
249.81
258.73
237.24
145.4
37.352
-102.36
-224.98
-228.58
-48.812
190.7
270.17
116.02
10.316
-67.308
-144.2
-134.74
-73.222
-59.413
-142.8
-205.68
-157.52
-121.44
-76.137
-34.868
23.115
68.9
25.257
-28.85
30.297
83.504
81.882
57.089
14.593
-19.744
-27.936
-12.555
-13.631
-44.778
-61.79
-68.088
-67.629
-44.412
-66.677
-92.781
-131.68
-182.53
-233.65
-162.05
80.966
140.23
-25.475
-81.98
9.8835
107.51
40.739
-55.307
50.332
45.281
-83.235
-4.8567
136.33
224.86
249.27
78.459
-64.475
-71.647
-16.528
63.782
33.514
-54.181
-43.165
-63.445
-73.544
-50.299
-33.082
-15.799
-49.577
-144.84
-229.83
-296.09
-341.12
-317.55
-202.19
-32.08
68.082
98.762
164.39
158.99
118.24
79.858
-9.4997
-48.496
4.6153
77.886
169.82
199.87
153.68
115.26
91.265
54.902
48.06
42.385
32.423
15.951
0.25574
-34.794
-26.026
-7.5536
-3.1526
101.15
195.73
207.2
162.88
168.67
199.52
136.25
-3.4385
-151.4
-253.56
-273.53
-215.94
-160.08
-104.77
4.9669
97.013
105.25
43.177
19.918
39.64
68.794
75.728
45.75
49.696
52.883
36.814
0.54366
-44.695
-35.923
19.021
69.905
140.79
136.99
-7.7832
-47.665
-66.157
-136.93
-175.81
-67.137
27.311
40.521
45.006
26.588
-26.342
-66.384
-70.426
-88.498
-67.176
-3.089
38.901
57.041
62.638
53.78
12.645
-49.092
-97.416
