9.94
8.68
6.7
3.86
0.3
-3.65
-7.55
-11.01
-13.78
-15.76
-16.96
-17.45
-17.26
-16.37
-14.64
-11.81
-7.55
-1.54
6.41
16.26
27.58
39.58
51.28
61.69
70.14
76.45
80.93
84.27
87.18
90.12
93.11
95.65
97.07
96.7
94.24
89.72
83.5
76.09
68.17
60.5
53.92
49.32
47.35
48.33
51.97
57.58
64.17
70.85
76.97
82.07
85.68
87.26
86.23
82.35
75.88
67.61
58.65
50.02
42.35
35.79
30.13
25.07
20.49
16.47
13.14
10.41
7.95
5.22
1.72
-3.02
-9.39
-17.71
-28.15
-40.6
-54.45
-68.58
-81.43
-91.38
-97.57
-100.11
-100.05
-98.87
-97.73
-96.93
-95.77
-92.68
-85.75
-73.71
-56.2
-33.84
-7.86
19.85
46.74
69.62
85.04
90.11
82.83
63.22
33.54
-1.63
-36.55
-65.81
-85.46
-93.32
-89.08
-74.91
-54.9
-34.58
-19.22
-12.54
-16.04
-28.66
-47.04
-62.5
-66.28
-53.32
-25.91
8.87
43.89
74.84
100.18
120.13
135.58
146.5
153.46
156.28
155.1
150.32
142.23
130.87
116.24
98.39
76.52
52.07
25.35
-3.36
-33.91
-66.72
-102.98
-144.42
-192.34
-246.47
-303.43
-357.02
-398.73
-420.49
-417.76
-391.43
-347.39
-294.2
-239.97
-190.04
-146.86
-110.48
-80.06
-54.95
-34.93
-19.56
-7.71
2.55
13.07
24.32
35.41
44.63
50.61
53.05
52.98
52.14
52.71
56.56
64.69
77.17
93.33
111.76
130.02
145.59
154.13
152.69
142.31
127.57
113.54
103.08
96.17
90.53
83.86
74.54
61.82
45.18
23.75
-3.44
-36.57
-72.04
-104.46
-127.63
-136.8
-130.11
-109.63
-80.99
-51.74
-28.97
-17.2
-17.45
-26.99
-40.5
-51.56
-54.57
-46.36
-26.92
0.94
32.6
62.61
85.95
98.73
98.9
86.48
63.43
33.15
-0.31
-33.1
-62.41
-86.58
-104.89
-117.07
-122.9
-122.22
-114.98
-101.44
-82.25
-58.5
-31.65
-3.4
24.54
50.59
73.46
92.24
106.25
115.07
118.48
116.6
110.08
100.18
88.52
76.82
66.37
57.78
51.01
45.64
41.3
37.87
35.42
33.9
32.93
31.77
29.69
26.3
21.93
17.46
14.02
12.51
13.24
16.05
20.53
26.43
33.67
42.25
51.83
61.57
70.22
76.53
79.75
79.98
78.05
75.11
72.24
69.93
68.17
66.55
64.55
61.63
57.36
51.47
43.88
34.8
24.65
13.89
2.81
-8.53
-20.1
-31.7
-42.71
-52.27
-59.57
-64.17
-66.07
-65.52
-62.78
-57.95
-51.18
-43
-34.62
-27.75
-24.14
-24.88
-29.96
-38.37
-48.48
-58.7
-68.01
-75.93
-82.33
-87.05
-89.65
-89.54
-86.23
-79.71
-70.66
-60.27
-50
-41.1
-34.36
-30.01
-27.85
-27.47
-28.35
-30.02
-32.07
-34.1
-35.77
-36.89
-37.37
-37.25
-36.57
-35.24
-33.06
-29.73
-25.04
-18.99
-11.78
-3.76
4.76
13.46
22.08
30.24
37.4
42.95
46.34
47.36
46.2
43.35
39.4
34.82
29.81
24.35
18.35
11.79
4.77
-2.4
-9.33
-15.52
-20.49
-23.87
-25.49
-25.47
-24.14
-21.83
-18.68
-14.48
-8.77
-1.1
8.76
20.7
34.21
48.38
61.93
73.23
80.67
83.18
80.71
74.6
67.15
60.85
57.39
57.08
58.94
61.46
63.29
63.83
63.16
61.6
59.28
55.82
50.38
41.85
29.35
12.64
-7.46
-28.93
-49.05
-65.15
-75.52
-80.01
-79.97
-77.66
-75.35
-74.61
-76.03
-79.36
-83.71
-87.78
-89.95
-88.38
-81.41
-68.06
-48.68
-25.08
-0.34
22.1
39.42
50.11
54.29
53.19
48.53
41.86
34.28
26.57
19.41
13.53
9.52
7.66
7.7
8.96
10.65
12.25
13.62
14.94
16.44
18.2
19.99
21.39
21.91
21.18
19.08
15.74
11.52
6.93
2.47
-1.44
-4.59
-7
-8.78
-10.18
-11.4
-12.52
-13.57
-14.47
-15.19
-15.75
-16.28
-16.95
-17.93
-19.29
-21
-23.01
-25.29
-27.96
-31.11
-34.72
-38.45
-41.64
-43.46
-43.17
-40.32
-34.93
-27.38
-18.23
-8.08
2.6
13.39
23.89
33.63
42.17
49.24
54.85
59.22
62.7
65.52
67.67
68.88
68.8
67.24
64.26
60.18
55.33
49.93
43.97
37.33
29.95
21.98
13.71
5.45
-2.59
-10.34
-17.78
-24.77
-31.02
-36.19
-40.11
-42.94
-45.17
-47.41
-50.06
-53.11
-56.18
-58.64
-59.91
-59.7
-58.06
-55.25
-51.61
-47.34
-42.44
-36.73
-30.07
-22.36
-13.75
-4.59
4.7
13.64
21.9
29.27
35.65
41.01
45.28
48.33
49.99
50.17
48.99
46.89
44.52
42.52
41.25
40.69
40.42
39.9
38.77
36.99
34.88
32.89
31.37
30.41
29.92
29.67
29.42
29.04
28.49
27.85
27.37
27.34
28.11
29.84
32.38
35.33
38.06
40.06
41.06
41.13
40.64
40.08
40.05
41.1
43.68
47.98
53.77
60.37
66.68
71.44
73.54
72.26
67.37
58.96
47.31
32.74
15.58
-3.66
-24.22
-45.05
-64.99
-82.98
-98.26
-110.47
-119.5
-125.37
-128.1
-127.72
-124.4
-118.53
-110.76
-101.85
-92.47
-83.16
-74.29
-66.24
-59.32
-53.75
-49.5
-46.22
-43.33
-40.3
-36.98
-33.64
-30.92
-29.5
-29.74
-31.46
-33.93
-36.11
-36.94
-35.73
-32.26
-26.9
-20.45
-13.91
-8.28
-4.23
-2.09
-1.76
-2.84
-4.74
-6.87
-8.83
-10.46
-11.9
-13.5
-15.66
-18.6
-22.19
-25.86
-28.63
-29.25
-26.56
-19.9
-9.47
3.41
16.51
27.35
34.07
36.28
35.23
33.3
32.99
35.8
41.78
49.64
57.63
64.31
69.08
72.07
73.73
74.36
74.07
72.88
70.99
68.83
66.98
65.87
65.62
65.99
66.42
66.24
64.82
61.86
57.38
51.85
45.98
40.51
35.91
32.24
29.16
26.2
23.05
19.69
16.42
13.57
11.26
9.35
7.45
5.21
2.48
-0.53
-3.39
-5.69
-7.26
-8.26
-9.17
-10.57
-12.92
-16.48
-21.25
-27.02
-33.4
-39.9
-45.89
-50.66
-53.67
-54.64
-53.79
-51.67
-48.99
-46.24
-43.48
-40.37
-36.45
-31.47
-25.68
-19.73
-14.5
-10.62
-8.24
-7
-6.28
-5.54
-4.54
-3.42
-2.5
-2.01
-1.92
-2.02
-2.06
-1.95
-1.77
-1.82
-2.37
-3.53
-5.18
-7.01
-8.68
-9.91
-10.66
-11.09
-11.55
-12.47
-14.26
-17.1
-20.86
-25.05
-28.92
-31.57
-32.27
-30.64
-26.77
-21.18
-14.67
-8.04
-1.88
3.47
7.96
11.63
14.5
16.5
17.5
17.47
16.56
15.19
13.88
13.13
13.15
13.76
14.49
14.77
14.23
12.92
11.33
10.28
10.53
12.5
16.08
20.61
25.17
28.89
31.34
32.63
33.27
33.9
34.83
35.94
36.66
36.4
34.83
32.09
28.65
25.06
21.68
18.68
16.09
14.01
12.48
11.35
10.3
9.07
8.11
9.02
14.45
27.2
48.95
79.02
114.16
149.18
178.51
197.84
205.15
200.77
186.74
165.76
140.44
112.93
84.98
58.1
33.59
12.43
-5.01
-19.02
-30.52
-40.53
-49.85
-58.73
-66.93
-73.99
-79.66
-84.11
-87.91
-91.87
-96.73
-102.83
-109.98
-117.48
-124.36
-129.81
-133.46
-135.54
-136.76
-137.88
-139.41
-141.34
-143.17
-144.2
-143.84
-141.84
-138.41
-134.06
-129.39
-124.95
-121.08
-117.91
-115.47
-113.78
-112.98
-113.35
-115.19
-118.64
-123.51
-129.11
-134.33
-137.75
-138.06
-134.39
-126.7
-115.89
-103.59
-91.68
-81.57
-73.71
-67.39
-60.97
-52.51
-40.55
-24.63
-5.49
15.23
35.52
53.63
68.45
79.65
87.51
92.64
95.73
97.32
97.84
97.6
96.83
95.66
94.01
91.6
87.99
82.88
76.34
68.94
61.67
55.66
51.8
50.43
51.28
53.64
56.65
59.57
62.01
63.88
65.31
66.39
67.18
67.56
67.36
66.43
64.69
62.18
59.09
55.71
52.38
49.44
47.09
45.39
44.25
43.42
42.68
41.81
40.66
39.13
37.15
34.69
31.79
28.58
25.23
21.88
18.58
15.22
11.67
7.82
3.65
-0.74
-5.29
-9.93
-14.6
-19.16
-23.32
-26.66
-28.74
-29.37
-28.64
-26.98
-24.85
-22.65
-20.47
-18.23
-15.85
-13.47
-11.42
-10.13
-9.85
-10.48
-11.54
-12.4
-12.57
-11.93
-10.71
-9.32
-8.17
-7.52
-7.45
-7.8
-8.4
-9.12
-9.93
-10.91
-12.14
-13.64
-15.37
-17.23
-18.97
-20.47
-21.8
-23.2
-24.89
-26.92
-29.08
-30.89
-31.85
-31.02
-27.76
-21.96
-14.1
-5.11
3.97
12.25
19.1
24.17
28.52
33.34
39.46
46.96
55.18
63.2
70.2
75.74
79.66
83.93
90.49
100.41
113.15
126.77
138.83
147.17
150.66
148.99
145.19
142.69
143.94
149.52
158.28
168.38
178.21
186.97
181.76
154.89
105.81
43.17
-19.45
-70.38
-103.56
-118.87
-118.28
-109.18
-95.96
-81.04
-64.97
-47.05
-25.85
0.09
28.31
55.65
76.67
87.16
84.16
67.37
39.67
6.51
-25.59
-51.27
-67.48
-74.69
-74.28
-68.64
-60.27
-51.46
-44.01
-38.98
-36.83
-37.23
-39.8
-43.19
-45.8
-46.16
-43.38
-37.51
-29.66
-21.86
-16.22
-14.48
-16.81
-21.97
-27.81
-32.29
-34.37
-34.27
-33.15
-32.14
-31.81
-31.91
-31.89
-31.68
-32.14
-34.8
-41.12
-51.49
-64.73
-78.34
-89.41
-95.64
-96.09
-91.28
-82.79
-72.51
-61.96
-51.99
-42.73
-33.89
-25.11
-16.24
-7.44
0.98
8.89
16.61
24.95
34.76
46.38
59.22
71.89
82.74
90.63
95.35
97.49
97.87
96.96
94.55
90.11
83.18
73.85
62.76
50.76
38.54
26.41
14.49
2.92
-7.92
-17.46
-25.05
-30.22
-32.8
-33.02
-31.49
-29.13
-26.95
-25.88
-26.68
-29.75
-35.23
-42.97
-52.64
-63.7
-75.47
-87.15
-97.89
-106.91
-113.49
-117.08
-117.35
-114.32
-108.38
-100.31
-91.07
-81.49
-72.05
-62.72
-53.15
-43.06
-32.56
-22.24
-13.01
-5.64
-0.44
2.97
5.38
7.67
10.35
13.48
16.76
19.82
22.47
24.74
26.76
28.64
30.29
31.56
32.28
32.38
31.86
30.64
28.48
24.96
19.66
12.44
3.59
-6.09
-15.44
-23.34
-28.98
-31.98
-32.52
-31.13
-28.53
-25.41
-22.33
-19.65
-17.56
-16.17
-15.54
-15.69
-16.55
-17.91
-19.4
-20.53
-20.85
-20.07
-18.12
-15.25
-11.87
-8.56
-5.84
-4.16
-3.77
-4.7
-6.73
-9.46
-12.48
-15.5
-18.43
-21.32
-24.26
-27.12
-29.52
-30.86
-30.54
-28.16
-23.71
-17.51
-10.09
-2.04
6.19
14.28
21.99
29.08
35.31
40.48
44.53
47.59
49.94
51.89
53.69
55.4
56.93
58.04
58.45
57.93
56.37
53.77
50.34
46.37
42.26
38.33
34.8
31.68
28.73
25.54
21.64
16.67
10.48
3.3
-4.33
-11.59
-17.64
-21.86
-24.01
-24.29
-23.19
-21.32
-19.16
-17
-15
-13.31
-12.17
-11.97
-13.01
-15.38
-18.88
-23.11
-27.61
-32.13
-36.67
-41.45
-46.76
-52.88
-60.03
-68.45
-78.33
-89.75
-102.45
-115.79
-128.76
-140.26
-149.4
-155.64
-158.77
-158.67
-155.14
-147.9
-136.74
-121.81
-103.68
-83.32
-61.75
-39.86
-18.25
2.69
22.59
40.94
57.16
70.72
81.32
89.04
94.22
97.46
99.33
100.24
100.42
99.99
98.91
97.14
94.68
91.68
88.46
85.36
82.59
80.21
78.29
76.8
75.66
74.86
74.45
74.5
74.95
75.48
75.68
75.52
75.08
74.47
73.69
72.59
70.88
68.22
64.34
59.36
54.35
50.33
47.81
46.53
45.79
45.06
44.45
44.52
46.18
50.71
58.24
67.61
76.92
84.63
90.29
94.49
97.81
95.3
83.21
60.15
28.34
-7.56
-42.64
-73.03
-96.4
-113.44
-125.66
-133.4
-136.77
-135.86
-131.17
-123.75
-115.18
-105.68
-96.64
-89.07
-82.68
-76.62
-70.07
-62.81
-55.32
-48.5
-43.16
-39.85
-38.12
-36.51
-33.62
-28.76
-22.23
-15.09
-8.62
-3.82
-1.37
-1.06
-1.94
-2.67
-1.93
1.33
7.56
16.29
26.09
34.75
40.21
41.43
38.74
33.82
29.02
26.54
27.79
33.19
42.22
53.82
66.57
78.65
87.92
92.23
89.94
80.52
64.78
44.66
22.6
0.88
-18.92
-36
-50.15
-61.38
-69.72
-75.1
-77.51
-77.15
-74.43
-69.87
-64.01
-57.34
-50.3
-43.36
-37
-31.56
-27.16
-23.65
-20.61
-17.54
-14.02
-9.77
-4.67
1.22
7.77
14.72
21.76
28.56
34.88
40.6
45.76
50.47
54.77
58.58
61.72
64.01
65.35
65.75
65.31
64.12
62.15
59.1
54.41
47.43
37.77
25.76
12.58
0.16
-9.52
-15.16
-16.8
-15.88
-14.69
-15.45
-19.55
-27.26
-38.13
-51.5
-67.05
-84.69
-104.13
-124.34
-143.17
-157.68
-164.99
-163.34
-152.88
-135.79
-115.43
-95.13
-76.91
-60.92
-45.73
-29.34
-10.36
11.34
34.59
57.63
78.98
97.95
114.71
129.78
143.54
155.74
165.55
171.81
173.52
170.27
162.56
151.69
139.49
127.92
118.56
112.41
109.61
109.41
110.22
110.03
107.1
100.89
92.51
84.57
80.33
82.19
90.57
103.47
117.07
127
129.83
123.89
109.51
88.57
63.79
38.06
13.91
-7.01
-24.29
-38.81
-52.32
-66.56
-82.48
-99.91
-117.91
-135.43
-151.9
-167.2
-181.16
-192.8
-200.24
-201.31
-194.6
-180.33
-160.48
-138.08
-115.94
-95.84
-78.2
-62.46
-47.67
-33.16
-18.87
-5.52
5.44
12.08
12.43
5.16
-9.98
-31.93
-58.5
-86.94
-114.64
-139.56
-160.52
-177.03
-189.09
-196.94
-200.99
-201.79
-200.08
-196.81
-192.89
-188.98
-185.22
-181.06
-175.28
-166.26
-152.37
-132.51
-106.6
-75.7
-41.8
-7.19
26.21
57.28
85.61
111.03
132.99
150.39
161.92
166.79
165.31
159.1
150.45
141.53
133.59
126.78
120.49
114
106.98
99.72
92.93
87.43
83.75
82.05
82.02
83.11
84.76
86.55
88.29
89.93
91.45
92.66
93.21
92.73
91.08
88.45
85.4
82.63
80.62
79.43
78.65
77.54
75.35
71.55
66.01
58.93
50.7
41.74
32.41
23.01
13.87
5.33
-2.32
-8.99
-14.81
-20.04
-24.96
-29.61
-33.71
-36.85
-38.67
-39.2
-38.88
-38.34
-38.1
-38.24
-38.43
-38.18
-37.16
-35.43
-33.45
-31.86
-31.18
-31.59
-32.94
-34.79
-36.57
-37.66
-37.5
-35.71
-32.21
-27.27
-21.45
-15.38
-9.54
-4.1
1.02
6.12
11.48
17.35
23.78
30.66
37.64
44.21
49.81
54.03
56.75
58.2
58.78
58.99
59.25
59.9
61.19
63.19
65.71
68.13
69.54
69.03
66.09
60.88
54.15
46.89
39.79
33
26.2
18.93
10.98
2.58
-5.71
-13.27
-19.7
-24.86
-28.84
-31.73
-33.58
-34.38
-34.21
-33.33
-32.19
-31.25
-30.78
-30.77
-30.9
-30.66
-29.59
-27.44
-24.25
-20.23
-15.69
-10.91
-6.08
-1.39
2.95
6.66
9.48
11.22
11.9
11.69
10.95
10.07
9.39
9.08
9.09
9.16
8.88
7.78
5.56
2.07
-2.57
-8.1
-14.15
-20.39
-26.5
-32.27
-37.49
-42.06
-45.91
-49.12
-51.84
-54.23
-56.37
-58.23
-59.62
-60.3
-60.02
-58.7
-56.4
-53.31
-49.6
-45.38
-40.66
-35.39
-29.61
-23.5
-17.38
-11.58
-6.29
-1.44
3.35
8.55
14.6
21.66
29.56
37.87
46.05
53.63
60.37
66.32
71.75
77.07
82.54
88.05
93.07
96.67
97.86
95.96
90.94
83.41
74.43
65.06
56
47.51
39.5
31.9
24.8
18.59
13.75
10.6
9.27
9.71
11.97
16.21
22.59
30.76
39.43
46.4
49.27
46.56
38.58
27.64
17.28
10.89
10.42
15.91
25.88
38.21
50.93
62.32
70.63
73.73
69.29
55.59
32.49
1.94
-32.17
-65.09
-92.58
-111.96
-122.7
-126.19
-124.97
-121.91
-119.41
-118.98
-121.07
-125.32
-130.81
-136.5
-141.31
-144.33
-144.87
-142.54
-137.39
-129.86
-120.74
-110.89
-100.99
-91.47
-82.53
-74.19
-66.46
-59.33
-52.68
-46.31
-39.92
-33.3
-26.42
-19.48
-12.84
-6.97
-2.27
0.86
2.1
1.29
-1.45
-5.47
-9.65
-12.6
-13.2
-11.15
-7.17
-2.81
0.32
1.29
0.26
-1.67
-3.23
-3.67
-3.19
-2.58
-2.72
-4.01
-6.18
-8.55
-10.31
-10.81
-9.63
-6.54
-1.47
5.43
13.66
22.33
30.28
36.29
39.47
39.55
36.85
32.24
26.86
21.72
17.42
13.77
9.75
3.76
-5.85
-19.97
-37.95
-57.5
-75.18
-87.74
-93.47
-93
-88.98
-84.7
-82.44
-82.34
-82.69
-81.16
-76.45
-69.16
-61.47
-55.88
-53.8
-54.84
-57.22
-58.94
-58.85
-57.15
-54.98
-53.52
-53.12
-53.05
-51.85
-48.04
-40.75
-30.11
-17.09
-3.17
10.15
21.74
31.06
38.2
43.65
48.03
51.8
55.07
57.68
59.31
59.81
59.22
57.85
56.06
54.13
52.14
50.02
47.75
45.68
44.46
44.78
46.93
50.41
54.07
56.65
57.51
57.05
56.64
57.72
60.92
65.45
69.32
70.15
66.34
57.85
46.37
34.71
25.76
21.42
21.74
24.73
27.21
26.18
20.29
10.36
-1.22
-11.71
-18.84
-20.9
-16.05
-2.01
23.29
60.09
105.12
151.56
190.95
216.35
225.14
219.55
204.94
186.72
167.91
148.77
128.11
105.35
81.64
59.72
42.64
32.29
28.73
30.34
34.83
40.1
44.82
48.34
50.39
50.78
49.28
45.8
40.62
34.52
28.48
23.26
18.99
15.14
10.91
5.81
0.09
-5.28
-9.12
-10.89
-11.12
-11.35
-13.32
-17.96
-24.86
-32.46
-38.86
-42.78
-44.15
-43.98
-43.8
-45.07
-48.69
-54.87
-63.24
-72.94
-82.83
-91.64
-98.16
-101.54
-101.62
-99.01
-95.08
-91.57
-90.04
-91.32
-95.03
-99.58
-102.66
-102.19
-97.07
-87.65
-75.46
-62.42
-50.07
-38.95
-28.61
-18.08
-6.75
5.23
16.79
26.38
33.04
37.17
41.01
48.28
63.01
88
123.41
165.93
209.06
244.69
265.41
267.15
250.63
221.19
186.84
155.36
131.85
117.81
111.91
111.61
114.85
120.48
127.74
135.47
141.78
144.47
142.12
134.91
124.49
113.38
103.86
97
92.4
88.38
82.74
73.73
60.82
44.93
28.24
12.97
0.59
-8.97
-17.36
-27.09
-40.69
-60.22
-87.34
-123.19
-167.81
-219.17
-272.31
-319.56
-352.5
-364.78
-354.59
-325.49
-284.93
-241.4
-201.61
-169.27
-145.91
-132.5
-130.5
-141.12
-163.4
-192.63
-220.7
-238.75
-240.84
-226.92
-203.02
-178.73
-162.96
-160.35
-170.15
-187.42
-205.75
-219.44
-224.63
-219.1
-202.04
-174.41
-139.44
-102.49
-69.8
-46.36
-33.67
-29.03
-26.62
-19.99
-4.8
19.48
49.65
80.24
105.6
121.74
127.34
123.67
113.83
101.54
90.01
81.24
75.8
73.16
72.3
72.18
71.94
70.92
68.78
65.58
62.07
59.6
59.75
63.61
71.11
80.9
90.68
98.21
102.08
102.03
98.53
91.94
82.13
68.79
52.39
35.15
20.89
13.71
16.08
27.34
43.72
59.65
70.05
71.98
65.35
52.29
36.05
20.03
7.2
-0.14
-0.81
4.76
14.15
23.2
27.09
22.08
6.88
-16.81
-44.85
-72.07
-93.78
-106.94
-110.63
-105.78
-94.5
-79.31
-62.52
-45.73
-29.87
-15.3
-2.05
10.03
21.19
31.71
41.87
51.72
60.84
68.27
72.61
72.41
66.76
55.79
40.87
24.36
9.04
-2.74
-9.67
-11.79
-10.27
-6.79
-2.91
0.42
2.86
4.39
4.99
4.43
2.35
-1.52
-7.13
-14.13
-22.02
-30.51
-39.66
-49.72
-60.65
-71.78
-81.63
-88.29
-90.13
-86.45
-77.91
-66.4
-54.4
-44.03
-36.36
-31.09
-26.89
-22.11
-15.4
-6.4
4.07
14.3
22.48
27.57
29.61
29.56
28.82
28.81
30.13
32.26
33.78
33.39
30.75
26.71
22.69
19.96
19.38
20.75
22.8
23.76
22.66
19.96
17.28
16.48
19.18
27.3
42.55
65.62
95.46
129.11
162.15
189.58
207
209.79
197.29
175.15
152.78
137.26
129.69
126.43
124.14
120.9
115.81
109.31
101.53
92.06
80.39
67.19
54.86
46.99
46.9
56.62
76.51
104.65
136.69
166.63
188.56
198.41
194.96
179.59
155.53
126.96
97.52
69.43
43.49
19.72
-1.82
-21.05
-38.18
-53.9
-68.93
-83.71
-97.89
-110.27
-119.09
-122.82
-121.05
-115.26
-108.66
-105.54
-110.2
-125.72
-152.79
-188.7
-227.28
-259.99
-278.43
-277.24
-256.31
-221.13
-180.85
-144.98
-120
-107.72
-105.85
-110.01
-116.07
-121.29
-124.26
-124.26
-120.93
-114.61
-106.86
-100.32
-97.83
-100.98
-109.21
-120.05
-130.17
-136.9
-138.9
-136.04
-128.55
-116.37
-99.14
-76.79
-50.33
-21.96
5.33
28.6
45.83
56.1
59.43
56.41
48.11
36.16
22.75
10.33
0.9
-4.54
-6.31
-5.52
-3.25
-0.01
4.27
9.65
15.46
20.1
21.58
18.54
11.13
1.21
-8.43
-15.28
-18.18
-17.74
-15.75
-14.22
-14.31
-15.77
-17.15
-16.65
-13.04
-6.18
2.82
11.98
18.93
21.35
17.51
6.74
-10.05
-30.26
-50.07
-65.54
-73.95
-74.64
-69.04
-59.77
-49.4
-39.54
-30.6
-22.39
-14.72
-7.78
-2.19
1.5
3.1
3
2.1
1.4
1.65
3.09
5.5
8.35
11.22
14.01
16.98
20.52
24.79
29.5
33.91
37.16
38.57
37.97
35.75
32.67
29.62
27.37
26.27
26.24
26.78
27.07
26.25
23.63
18.89
12.21
4.21
-4.15
-11.8
-17.7
-21.08
-21.5
-18.97
-13.94
-7.15
0.57
8.47
16.03
22.92
28.91
33.82
37.43
39.68
40.65
40.63
39.99
39.08
38.17
37.38
36.78
36.4
36.2
36.08
35.89
35.43
34.65
33.62
32.54
31.67
31.11
30.75
30.35
29.51
27.98
25.7
22.87
19.85
16.96
14.3
11.68
8.81
5.6
2.44
0.22
0.23
3.64
11.15
22.67
37.38
53.98
71.11
87.6
102.77
116.44
128.96
141.21
154.5
170.22
189.17
210.72
232.34
249.77
258.24
254.07
236.12
206.33
169.11
129.86
93.47
63.35
41.07
26.78
19.48
17.27
17.49
16.93
12.32
1.07
-18.07
-44.61
-76.39
-110.08
-141.85
-168.28
-186.95
-196.72
-197.72
-190.94
-177.84
-160.03
-139.07
-116.41
-93.36
-70.97
-50
-30.81
-13.45
2.17
16.13
28.4
38.78
47.1
53.28
57.52
60.21
61.77
62.46
62.3
61.08
58.62
54.87
50.09
44.67
39.01
33.34
27.82
22.55
17.79
13.86
11.06
9.54
9.18
9.64
10.46
11.25
11.68
11.57
10.79
9.32
7.31
4.96
2.56
0.28
-1.88
-4.18
-7.01
-10.66
-15.19
-20.39
-25.87
-31.22
-36.2
-40.61
-44.28
-46.85
-47.78
-46.55
-42.88
-36.95
-29.39
-21.21
-13.52
-7.28
-3.15
-1.48
-2.27
-5.31
-10.16
-16.25
-22.92
-29.46
-35.19
-39.65
-42.68
-44.42
-45.26
-45.67
-45.91
-46
-45.7
-44.76
-43.08
-40.85
-38.47
-36.32
-34.67
-33.53
-32.83
-32.46
-32.44
-32.83
-33.68
-34.96
-36.56
-38.37
-40.35
-42.63
-45.38
-48.74
-52.65
-56.73
-60.33
-62.63
-62.88
-60.6
-55.79
-48.89
-40.63
-31.76
-22.84
-14.15
-5.79
2.19
9.65
16.3
21.86
26.09
28.95
30.62
31.39
31.61
31.6
31.58
31.7
32
32.47
33.13
34.03
35.18
36.57
38.01
39.2
39.79
39.49
38.2
36.06
33.38
30.54
27.85
25.44
23.24
21.04
18.58
15.61
11.97
7.56
2.36
-3.57
-10
-16.53
-22.47
-27.02
-29.45
-29.39
-26.93
-22.66
-17.42
-12.03
-7.02
-2.58
1.36
5
8.45
11.73
14.72
17.26
19.22
20.55
21.28
21.49
21.3
20.82
20.16
19.5
19.04
19.01
19.56
20.66
22.04
23.31
24.06
24.01
23.1
21.45
19.22
16.6
13.72
10.68
7.59
4.56
1.69
-0.96
-3.37
-5.59
-7.75
-10.05
-12.73
-15.97
-19.81
-24.01
-28.06
-31.2
-32.73
-32.17
-29.42
-24.74
-18.67
-11.79
-4.63
2.44
9.13
15.23
20.48
24.64
27.57
29.28
29.96
29.9
29.44
28.87
28.4
28.15
28.15
28.43
28.95
29.66
30.47
31.31
32.02
32.43
32.33
31.58
30.11
28.02
25.58
23.1
20.8
18.77
16.87
14.92
12.75
10.33
7.75
5.15
2.59
0.07
-2.5
-5.15
-7.89
-10.72
-13.66
-16.78
-20.1
-23.44
-26.39
-28.28
-28.47
-26.56
-22.58
-16.99
-10.47
-3.75
2.65
8.35
13.19
17.12
20.15
22.33
23.78
24.65
25.11
25.32
25.43
25.55
25.73
25.95
26.16
26.3
26.34
26.33
26.32
26.33
26.32
26.2
25.83
25.11
24.03
22.63
20.99
19.16
17.14
14.88
12.36
9.61
6.74
3.93
1.35
-0.87
-2.78
-4.56
-6.45
-8.71
-11.48
-14.79
-18.51
-22.32
-25.82
-28.53
-29.96
-29.79
-27.92
-24.48
-19.82
-14.41
-8.75
-3.29
1.62
5.73
8.92
11.15
12.45
12.96
12.81
12.19
11.31
10.33
9.44
8.78
8.39
8.26
8.33
8.5
8.71
8.94
9.15
9.28
9.22
8.83
8.06
6.93
5.6
4.24
3
1.87
0.69
-0.69
-2.41
-4.43
-6.56
-8.59
-10.34
-11.8
-13.12
-14.54
-16.27
-18.4
-20.88
-23.51
-26.02
-28.06
-29.27
-29.27
-27.84
-24.91
-20.66
-15.54
-10.16
-5.1
-0.79
2.63
5.18
6.97
8.09
8.57
8.41
7.69
6.61
5.42
4.41
3.74
3.38
3.21
3.05
2.8
2.49
2.2
2.06
2.11
2.26
2.37
2.24
1.65
0.48
-1.31
-3.64
-6.31
-9.04
-11.61
-13.9
-16.01
-18.24
-20.93
-24.31
-28.37
-32.81
-37.13
-40.71
-43.07
-43.92
-43.31
-41.6
-39.37
-37.31
-35.93
-35.35
-35.28
-35.05
-33.96
-31.59
-27.97
-23.63
-19.31
-15.58
-12.71
-10.56
-8.79
-7.12
-5.49
-4.07
-3.19
-3.14
-3.99
-5.58
-7.47
-9.1
-10
-9.97
-9.26
-8.52
-8.64
-10.4
-14.13
-19.57
-25.75
-31.23
-34.38
-33.69
-28.19
-17.8
-3.33
13.53
30.67
46.06
58.17
66.28
70.4
71.05
68.91
64.62
58.67
51.43
43.19
34.19
24.63
14.64
4.37
-6.02
-16.3
-26.27
-35.72
-44.5
-52.42
-59.2
-64.35
-67.28
-67.31
-64.01
-57.33
-47.6
-35.38
-21.07
-4.81
13.6
34.37
57.47
82.46
108.53
134.82
160.76
185.97
210.03
232.06
250.62
264.01
270.91
270.95
264.87
254.17
240.41
224.65
207.18
187.82
166.33
142.81
117.75
91.94
66.18
41.16
17.45
-4.39
-23.81
-40.33
-53.69
-63.99
-71.76
-77.78
-82.95
-87.93
-92.99
-98.02
-102.68
-106.65
-109.78
-112.13
-113.85
-115.01
-115.56
-115.35
-114.25
-112.31
-109.78
-107.06
-104.54
-102.46
-100.82
-99.42
-97.99
-96.3
-94.35
-92.31
-90.45
-88.98
-87.94
-87.22
-86.5
-85.39
-83.49
-80.45
-76.05
-70.27
-63.29
-55.44
-47.17
-38.86
-30.84
-23.36
-16.66
-10.93
-6.27
-2.64
0.18
2.48
4.58
6.61
8.57
10.36
11.87
13.1
14.08
14.9
15.58
16.11
16.44
16.55
16.44
16.14
15.69
15.09
14.33
13.4
12.28
10.97
9.47
7.8
5.95
3.96
1.88
-0.23
-2.33
-4.38
-6.36
-8.23
-9.98
-11.7
-13.52
-15.67
-18.28
-21.36
-24.61
-27.53
-29.46
-29.78
-28.11
-24.51
-19.39
-13.46
-7.5
-2.12
2.31
5.76
8.38
10.39
11.95
13.07
13.66
13.67
13.13
12.24
11.2
10.26
9.5
8.86
8.25
7.51
6.63
5.63
4.61
3.63
2.71
1.76
0.68
-0.62
-2.23
-4.21
-6.56
-9.26
-12.2
-15.21
-18.12
-20.82
-23.35
-25.92
-28.86
-32.53
-37.08
-42.37
-47.85
-52.67
-55.92
-56.82
-55.04
-50.74
-44.54
-37.28
-29.79
-22.67
-16.19
-10.26
-4.57
1.33
7.91
15.44
23.87
32.67
40.89
47.4
51.17
51.61
48.68
42.94
35.38
27.28
19.87
14.15
10.61
9.14
9.1
9.58
9.78
9.35
8.39
7.37
6.66
6.42
6.41
6.26
5.7
4.73
3.57
2.57
1.96
1.74
1.71
1.58
1.06
-0.02
-1.72
-3.96
-6.51
-9.02
-11.13
-12.44
-12.73
-12.03
-10.65
-9.14
-8.11
-8.04
-9.05
-10.89
-12.99
-14.66
-15.33
-14.69
-12.73
-9.67
-5.82
-1.54
2.83
7.07
10.99
14.45
17.28
19.03
18.9
15.83
8.9
-2.13
-16.38
-31.84
-45.89
-56.05
-60.81
-60.02
-54.74
-46.67
-37.5
-28.56
-20.65
-14.18
-9.37
-6.26
-4.79
-4.73
-5.65
-7.05
-8.56
-9.99
-11.43
-13.1
-15.2
-17.68
-20.25
-22.39
-23.62
-23.69
-22.65
-20.91
-19.01
-17.51
-16.76
-16.87
-17.62
-18.56
-19.01
-18.18
-15.43
-10.38
-3.08
5.96
15.93
25.87
35
42.86
49.42
54.99
60.07
65.15
70.48
75.98
81.35
86.22
90.35
93.81
96.99
100.58
105.36
112.08
121.24
132.76
145.92
159.23
170.73
178.39
180.75
177.37
169
157.34
144.44
131.95
120.55
109.85
98.67
85.76
70.45
52.98
34.52
16.7
1.04
-11.5
-20.65
-26.65
-30.04
-31.4
-31.3
-30.32
-29.01
-27.79
-26.86
-26.03
-24.82
-22.66
-19.06
-13.91
-7.48
-0.55
5.91
10.89
13.69
14.26
13.14
11.4
10.17
10.34
12.28
15.92
20.97
27.13
34.2
42.03
50.44
59.13
67.75
75.95
83.42
89.82
94.64
97.25
96.89
92.86
84.66
72.11
55.47
35.47
13.43
-8.95
-29.88
-47.93
-62.42
-73.5
-81.93
-88.55
-93.95
-98.29
-101.55
-103.81
-105.45
-107.04
-108.96
-111.17
-113.1
-113.98
-113.24
-110.95
-107.77
-104.73
-102.76
-102.26
-102.9
-103.77
-103.79
-102.03
-98.13
-92.29
-85.14
-77.44
-69.82
-62.63
-55.95
-49.82
-44.25
-39.36
-35.3
-32.21
-30.1
-28.89
-28.38
-28.31
-28.44
-28.57
-28.54
-28.23
-27.5
-26.29
-24.54
-22.37
-20.05
-17.94
-16.4
-15.56
-15.36
-15.47
-15.57
-15.44
-15.04
-14.53
-14.06
-13.74
-13.62
-13.71
-14.02
-14.53
-15.17
-15.74
-16.03
-15.87
-15.36
-14.71
-14.2
-13.96
-13.93
-13.94
-13.86
-13.77
-13.91
-14.56
-15.79
-17.37
-18.78
-19.42
-18.87
-16.95
-13.82
-9.84
-5.52
-1.38
2.2
4.96
6.85
7.94
8.38
8.31
7.85
7.09
6.11
5.04
3.99
3.1
2.44
2.06
1.95
2.14
2.57
3.14
3.72
4.19
4.54
4.84
5.27
5.94
6.81
7.66
8.11
7.81
6.58
4.53
1.98
-0.73
-3.33
-5.66
-7.68
-9.38
-10.7
-11.59
-12.12
-12.5
-13.05
-14.11
-15.85
-18.2
-20.75
-22.98
-24.33
-24.35
-22.79
-19.58
-14.91
-9.1
-2.65
3.93
10.12
15.48
19.71
22.62
24.21
24.59
24.1
23.24
22.65
22.89
24.21
26.39
28.72
30.26
30.2
28.33
25.16
21.82
19.56
19.2
20.62
22.6
23.08
19.72
10.76
-4.28
-24.28
-46.72
-68.33
-86.04
-97.73
-102.66
-101.56
-96.21
-89.12
-82.82
-79.38
-79.79
-83.74
-89.72
-95.55
-99.08
-98.85
-94.37
-85.92
-74.22
-60.05
-44.08
-27.04
-9.71
6.96
22.22
35.7
47.56
58.37
68.88
79.71
91.13
103.02
114.86
125.83
134.9
140.98
143.09
140.6
133.5
122.45
108.64
93.47
78.21
63.77
50.66
39.2
29.51
21.63
15.41
10.48
6.34
2.51
-1.23
-4.82
-8.05
-10.84
-13.42
-16.32
-20.14
-25.23
-31.53
-38.52
-45.52
-51.89
-57.29
-61.78
-65.61
-69.1
-72.4
-75.42
-77.84
-79.21
-79.09
-77.17
-73.35
-67.83
-61.08
-53.78
-46.65
-40.31
-35.12
-31.12
-28.07
-25.56
-23.18
-20.68
-18.03
-15.39
-12.97
-10.95
-9.38
-8.17
-7.18
-6.2
-5
-3.32
-0.95
2.17
5.88
9.73
13.15
15.62
16.85
16.95
16.31
15.37
14.53
13.99
13.79
13.82
13.97
14.07
13.98
13.56
12.71
11.32
9.35
6.79
3.65
-0.03
-4.06
-8.13
-11.76
-14.41
-15.66
-15.29
-13.31
-9.97
-5.66
-0.88
3.86
8.04
11.28
13.42
14.48
14.75
14.59
14.34
14.25
14.42
14.87
15.62
16.67
18.01
19.59
21.23
22.67
23.65
24.01
23.73
22.98
22.04
21.18
20.53
20.05
19.52
18.73
17.51
15.85
13.89
11.75
9.52
7.28
5.04
2.91
1.01
-0.54
-1.76
-2.81
-3.92
-5.34
-7.14
-9.3
-11.7
-14.25
-16.87
-19.49
-21.89
-23.72
-24.53
-23.93
-21.74
-18.13
-13.51
-8.43
-3.43
1.05
4.72
7.36
8.86
9.18
8.43
6.9
4.96
3.04
1.45
0.33
-0.45
-1.13
-2.01
-3.35
-5.35
-8.07
-11.4
-15.03
-18.47
-21.1
-22.36
-21.91
-19.69
-15.9
-10.9
-5.16
0.81
6.39
10.91
13.82
14.92
14.53
13.39
12.38
12.09
12.54
13.11
12.78
10.52
5.6
-2.04
-11.82
-22.54
-32.68
-40.75
-45.58
-46.6
-43.86
-37.92
-29.6
-19.81
-9.4
0.87
10.33
18.4
24.67
29.04
31.67
32.95
33.36
33.3
33.04
32.69
32.25
31.75
31.3
31.08
31.33
32.19
33.63
35.4
37.05
38.08
38.1
36.9
34.55
31.27
27.44
23.46
19.67
16.38
13.8
12.01
10.93
10.27
9.56
8.22
5.79
2.05
-2.82
-8.23
-13.38
-17.44
-19.79
-20.16
-18.64
-15.57
-11.41
-6.66
-1.86
2.51
6.01
8.43
9.94
11.05
12.55
15.13
19.18
24.5
30.46
36.26
41.25
45.16
48.1
50.29
51.84
52.65
52.48
51.13
48.65
45.29
41.39
37.22
32.88
28.3
23.4
18.16
12.67
7.09
1.57
-3.74
-8.63
-12.79
-15.82
-17.34
-17.21
-15.66
-13.27
-10.78
-8.75
-7.38
-6.4
-5.29
-3.62
-1.23
1.66
4.66
7.53
10.33
13.35
16.81
20.6
24.22
27
28.46
28.5
27.5
26.09
24.81
23.98
23.61
23.57
23.67
23.79
23.85
23.74
23.35
22.55
21.34
19.8
18.11
16.48
15.05
13.83
12.71
11.51
10.08
8.37
6.45
4.45
2.47
0.53
-1.53
-3.87
-6.59
-9.66
-12.88
-16.03
-18.94
-21.47
-23.52
-24.87
-25.18
-24.05
-21.27
-16.92
-11.48
-5.64
-0.14
4.56
8.29
11.15
13.33
15
16.22
17.05
17.58
17.87
17.95
17.79
17.23
16.13
14.46
12.34
10.07
8
6.42
5.45
5.04
4.94
4.79
4.19
2.82
0.52
-2.69
-6.58
-10.79
-14.9
-18.67
-21.98
-24.88
-27.56
-30.29
-33.34
-36.87
-40.89
-45.14
-49.02
-51.71
-52.35
-50.38
-45.87
-39.63
-32.99
-27.47
-24.31
-24.11
-26.8
-31.72
-38.02
-44.9
-51.84
-58.65
-65.31
-71.72
-77.49
-81.92
-84.11
-83.32
-79.23
-72.14
-62.8
-52.21
-41.2
-30.33
-19.96
-10.36
-1.93
4.8
9.42
11.89
12.68
12.66
12.84
13.92
16.2
19.52
23.44
27.41
30.91
33.38
34.2
32.85
29.11
23.39
16.73
10.65
6.63
5.63
7.74
12.2
17.75
23.04
27.07
29.33
29.79
28.8
26.88
24.58
22.34
20.4
18.72
17
14.8
11.68
7.48
2.5
-2.47
-6.16
-7.19
-4.44
2.45
12.88
25.34
37.82
48.35
55.57
58.96
58.82
55.93
51.19
45.46
39.39
33.48
28.12
23.54
19.82
16.9
14.61
12.79
11.33
10.21
9.41
8.88
8.56
8.35
8.19
8.03
7.88
7.68
7.41
6.98
6.3
5.31
3.99
2.44
0.81
-0.7
-1.99
-2.98
-3.69
-4.11
-4.26
-4.18
-4.08
-4.39
-5.73
-8.68
-13.52
-20.01
-27.34
-34.31
-39.71
-42.61
-42.67
-40.1
-35.53
-29.78
-23.65
-17.76
-12.53
-8.21
-4.86
-2.44
-0.81
0.2
0.85
1.34
1.82
2.35
2.88
3.28
3.4
3.19
2.7
2.13
1.69
1.55
1.73
2.07
2.31
2.23
1.66
0.63
-0.68
-1.99
-3.05
-3.75
-4.19
-4.64
-5.49
-6.96
-9.13
-11.83
-14.79
-17.77
-20.68
-23.59
-26.65
-29.94
-33.42
-36.87
-39.97
-42.3
-43.43
-42.91
-40.47
-35.98
-29.7
-22.14
-14.1
-6.38
0.35
5.7
9.6
12.24
13.92
14.97
15.65
16.13
16.45
16.6
16.56
16.32
15.91
15.38
14.85
14.39
14.1
14.05
14.27
14.69
15.18
15.53
15.51
14.93
13.74
12
9.87
7.51
5.01
2.43
-0.23
-2.98
-5.76
-8.52
-11.17
-13.66
-16.01
-18.29
-20.66
-23.3
-26.27
-29.53
-32.78
-35.55
-37.31
-37.63
-36.25
-33.19
-28.68
-23.07
-16.73
-10.04
-3.34
3.06
8.87
13.84
17.77
20.48
21.86
21.92
20.77
18.76
16.31
13.84
11.63
9.74
8.13
6.73
5.54
4.61
3.97
3.47
2.83
1.72
-0.08
-2.58
-5.58
-8.84
-12.26
-15.96
-20.24
-25.37
-31.36
-37.76
-43.64
-47.76
-48.92
-46.33
-39.88
-30.14
-18.3
-5.76
5.97
15.57
22.03
24.87
24.26
21.09
16.71
12.71
10.36
10.43
12.98
17.63
23.65
30.29
36.84
42.73
47.56
51.15
53.53
54.92
55.59
55.8
55.74
55.5
55.17
54.7
53.96
52.63
50.39
47.05
42.75
37.89
33.1
28.94
25.74
23.52
22.05
20.93
19.76
18.17
15.84
12.59
8.43
3.56
-1.59
-6.55
-10.89
-14.44
-17.28
-19.73
-22.23
-25.11
-28.5
-32.33
-36.35
-40.31
-44.05
-47.52
-50.71
-53.62
-56.17
-58.25
-59.77
-60.64
-60.68
-59.59
-56.99
-52.59
-46.46
-39.14
-31.5
-24.39
-18.18
-12.61
-7
-0.79
6.1
13.07
19.15
23.56
26.03
26.97
27.14
27.26
27.71
28.5
29.5
30.6
31.86
33.36
35.13
37.01
38.67
39.75
39.93
39.08
37.26
34.71
31.77
28.79
25.98
23.37
20.81
18.04
14.8
11.03
6.92
2.82
-0.76
-3.4
-4.81
-4.93
-3.89
-1.99
0.35
2.65
4.49
5.69
6.42
7.23
8.81
11.65
15.75
20.42
24.49
26.66
25.93
21.94
15.07
6.28
-3.08
-11.58
-17.92
-21.19
-20.87
-16.96
-9.82
-0.03
11.67
24.42
37.2
48.8
57.88
63.29
64.41
61.42
55.23
47.15
38.37
29.61
20.96
12.23
3.41
-5.13
-12.62
-18.31
-21.96
-24
-25.36
-26.98
-29.45
-32.8
-36.68
-40.69
-44.53
-48.13
-51.41
-54.31
-56.68
-58.42
-59.52
-59.98
-59.67
-58.31
-55.49
-50.86
-44.34
-36.19
-26.95
-17.41
-8.44
-0.84
4.82
8.34
9.93
10.11
9.49
8.54
7.53
6.55
5.71
5.28
5.55
6.67
8.44
10.35
11.86
12.62
12.7
12.49
12.39
12.59
12.95
13.09
12.69
11.6
9.97
8.07
6.18
4.39
2.68
0.95
-0.82
-2.57
-4.18
-5.55
-6.68
-7.69
-8.78
-10.12
-11.8
-13.73
-15.71
-17.42
-18.61
-19.11
-18.81
-17.63
-15.52
-12.43
-8.4
-3.67
1.38
6.26
10.52
13.85
16.03
16.96
16.6
15.02
12.5
9.53
6.66
4.36
2.9
2.24
2.23
2.72
3.69
5.17
7.09
9.26
11.31
12.91
13.79
13.83
13.05
11.6
9.74
7.82
6.17
4.95
4.09
3.26
2.09
0.35
-1.87
-4.22
-6.27
-7.76
-8.81
-9.76
-11.13
-13.2
-15.99
-19.14
-22.08
-24.17
-24.95
-24.18
-21.85
-18.19
-13.51
-8.29
-3.03
1.7
5.43
7.93
9.28
9.83
10.03
10.22
10.54
10.92
11.24
11.43
11.52
11.56
11.58
11.5
11.26
10.83
10.28
9.7
9.12
8.42
7.48
6.23
4.81
3.53
2.68
2.41
2.56
2.8
2.76
2.19
1.06
-0.57
-2.57
-4.88
-7.45
-10.19
-12.97
-15.66
-18.25
-20.83
-23.59
-26.58
-29.55
-31.95
-33.06
-32.29
-29.47
-24.94
-19.41
-13.72
-8.52
-4.13
-0.58
2.2
4.24
5.38
5.42
4.27
2.19
-0.26
-2.29
-3.24
-2.89
-1.49
0.32
1.86
2.71
2.84
2.56
2.27
2.25
2.51
2.9
3.22
3.36
3.26
2.91
2.23
1.14
-0.46
-2.5
-4.79
-7.09
-9.18
-11.01
-12.73
-14.57
-16.76
-19.34
-22.13
-24.69
-26.51
-27.06
-26.06
-23.49
-19.66
-15.11
-10.5
-6.34
-2.96
-0.38
1.62
3.36
5.12
6.93
8.5
9.16
8.06
4.38
-2.13
-10.91
-20.46
-28.7
-33.65
-34.11
-30.06
-22.63
-13.62
-4.9
2.11
6.67
8.63
8.31
6.35
3.57
0.91
-0.77
-0.9
0.59
3.22
6.09
8.14
8.4
6.19
1.21
-6.35
-15.83
-26.02
-35.36
-42.17
-45.12
-43.5
-37.47
-27.96
-16.37
-4.17
7.42
17.62
26.02
32.55
37.28
40.39
42.14
42.82
42.74
42.2
41.48
40.81
40.29
39.91
39.55
39.01
38.07
36.64
34.7
32.39
29.84
27.18
24.52
21.97
19.62
17.56
15.78
14.17
12.53
10.62
8.35
5.77
3.06
0.42
-2
-4.23
-6.36
-8.54
-10.86
-13.29
-15.64
-17.59
-18.73
-18.64
-17.08
-14.16
-10.28
-6.06
-2.1
1.3
4.15
6.68
9.11
11.47
13.61
15.31
16.49
17.28
17.98
18.91
20.15
21.57
22.87
23.74
24.03
23.76
23.07
22.09
20.86
19.37
17.59
15.56
13.44
11.44
9.72
8.34
7.18
6
4.48
2.32
-0.67
-4.44
-8.79
-13.31
-17.59
-21.36
-24.61
-27.59
-30.67
-34.08
-37.71
-41
-43.19
-43.5
-41.5
-37.25
-31.31
-24.5
-17.64
-11.38
-6.13
-2.06
0.84
2.69
3.65
3.99
3.99
3.93
4.05
4.47
5.17
5.98
6.63
6.89
6.66
6.06
5.35
4.8
4.55
4.5
4.43
4.13
3.54
2.78
2.03
1.39
0.83
0.21
-0.59
-1.59
-2.69
-3.81
-4.92
-6.11
-7.46
-8.97
-10.57
-12.2
-13.89
-15.8
-18.07
-20.66
-23.26
-25.32
-26.18
-25.4
-22.86
-18.82
-13.81
-8.4
-3.11
1.72
5.84
9.14
11.51
12.87
13.26
12.8
11.78
10.55
9.44
8.65
8.22
8.05
7.99
7.95
7.88
7.82
7.79
7.81
7.84
7.9
8.04
8.32
8.7
9
8.92
8.14
6.53
4.2
1.49
-1.24
-3.68
-5.78
-7.67
-9.52
-11.5
-13.67
-16.03
-18.57
-21.28
-24.07
-26.73
-28.95
-30.34
-30.6
-29.57
-27.31
-24.1
-20.39
-16.8
-14.07
-12.95
-13.91
-17.09
-22.07
-27.98
-33.79
-38.58
-41.78
-43.38
-43.78
-43.65
-43.77
-44.79
-47.06
-50.48
-54.36
-57.52
-58.55
-56.28
-50.25
-40.98
-29.96
-19.18
-10.56
-5.41
-4.15
-6.37
-11.04
-16.83
-22.47
-26.86
-29.3
-29.56
-27.93
-25.17
-22.25
-20.09
-19.22
-19.62
-20.72
-21.52
-20.93
-17.99
-12.13
-3.28
8.09
21.07
34.48
47.18
58.21
66.93
73.04
76.52
77.49
76.18
72.91
68.13
62.39
56.28
50.38
45.03
40.41
36.5
33.17
30.33
27.9
25.86
24.16
22.71
21.33
19.82
18
15.79
13.23
10.43
7.51
4.52
1.43
-1.85
-5.38
-9.08
-12.73
-16.06
-18.85
-21.05
-22.87
-24.68
-26.84
-29.44
-32.21
-34.55
-35.68
-34.91
-31.9
-26.74
-19.84
-11.83
-3.32
5.11
13
19.91
25.5
29.57
32.17
33.6
34.36
34.92
35.56
36.33
37.06
37.55
37.69
37.47
36.94
36.19
35.25
34.19
33.1
32.07
31.13
30.22
29.12
27.62
25.58
23.09
20.35
17.63
15.09
12.75
10.45
8.01
5.29
2.28
-0.98
-4.4
-7.88
-11.32
-14.65
-17.84
-20.93
-24.01
-27.24
-30.68
-34.27
-37.7
-40.47
-41.96
-41.68
-39.38
-35.19
-29.54
-23
-16.12
-9.28
-2.72
3.45
9.15
14.24
18.57
21.93
24.19
25.27
25.22
24.22
22.61
20.7
18.77
16.91
14.99
12.8
10.12
6.91
3.37
-0.05
-2.84
-4.51
-4.82
-3.83
-1.94
0.24
2.02
2.86
2.51
1.06
-1.11
-3.51
-5.77
-7.67
-9.16
-10.26
-10.97
-11.25
-11.08
-10.58
-9.98
-9.65
-9.82
-10.58
-11.79
-13.26
-14.89
-16.84
-19.4
-22.8
-26.89
-31.04
-34.24
-35.47
-34.02
-29.76
-23.09
-14.83
-5.88
2.9
10.89
17.68
23.05
26.95
29.45
30.73
31.07
30.78
30.13
29.35
28.61
27.99
27.53
27.25
27.15
27.3
27.77
28.58
29.65
30.77
31.62
31.88
31.39
30.14
28.39
26.48
24.7
23.23
22.01
20.85
19.41
17.46
14.87
11.71
8.21
4.64
1.25
-1.85
-4.71
-7.51
-10.53
-14.01
-18.12
-22.81
-27.82
-32.64
-36.58
-38.94
-39.27
-37.48
-33.82
-28.88
-23.3
-17.6
-12.12
-7.04
-2.47
1.43
4.38
6.05
6.21
4.94
2.68
0.29
-1.22
-0.96
1.46
5.86
11.53
17.57
23.15
27.74
31.16
33.4
34.48
34.37
33.01
30.45
26.94
22.96
19.09
15.85
13.53
12.07
11.14
10.25
8.98
7.07
4.49
1.32
-2.3
-6.33
-10.75
-15.58
-20.73
-26.05
-31.35
-36.38
-40.9
-44.53
-46.81
-47.27
-45.53
-41.57
-35.69
-28.52
-20.73
-12.89
-5.38
1.64
8.05
13.75
18.59
22.43
25.18
26.91
27.78
28.08
28.11
28.12
28.3
28.71
29.29
29.94
30.54
31.03
31.34
31.46
31.35
30.94
30.15
28.86
27.01
24.63
21.85
18.94
16.13
13.57
11.22
8.81
6.04
2.68
-1.23
-5.46
-9.65
-13.52
-16.98
-20.21
-23.54
-27.37
-31.92
-37.21
-42.98
-48.73
-53.8
-57.52
-59.28
-58.77
-56.02
-51.51
-46.09
-40.76
-36.34
-33.17
-30.92
-28.72
-25.59
-20.94
-14.91
-8.31
-2.28
2.39
5.44
7.26
8.45
9.42
10.18
10.44
9.92
8.65
7.01
5.52
4.61
4.4
4.77
5.61
6.93
8.84
11.36
14.32
17.21
19.48
20.68
20.74
19.96
18.9
18.15
18.31
19.9
23.33
28.88
36.41
45.24
54.18
61.81
66.9
68.71
67.11
62.5
55.54
46.97
37.51
27.91
18.96
11.46
6
2.82
1.7
2.11
3.32
4.74
6.03
7.13
8.2
9.39
10.72
12.03
13.04
13.49
13.31
12.63
11.7
10.8
10.09
9.64
9.36
9.21
9.15
9.22
9.44
9.75
10.01
9.97
9.41
8.22
6.41
4.18
1.81
-0.43
-2.36
-3.99
-5.5
-7.1
-8.96
-11.11
-13.46
-15.88
-18.3
-20.76
-23.36
-26.18
-29.22
-32.41
-35.66
-38.89
-42.07
-45.05
-47.5
-48.93
-48.78
-46.7
-42.62
-36.89
-30.12
-23.01
-16.13
-9.89
-4.47
0.06
3.72
6.55
8.64
10.09
11.02
11.59
11.93
12.19
12.49
12.92
13.53
14.27
15.07
15.85
16.57
17.2
17.72
18.07
18.18
17.95
17.28
16.15
14.56
12.54
10.17
7.5
4.64
1.67
-1.26
-4.04
-6.63
-9.05
-11.45
-14.02
-16.95
-20.36
-24.19
-28.19
-31.96
-34.93
-36.52
-36.27
-33.99
-29.88
-24.45
-18.44
-12.5
-7.08
-2.35
1.73
5.27
8.25
10.58
12.1
12.78
12.73
12.22
11.54
10.91
10.48
10.32
10.5
11.07
12.01
13.21
14.4
15.23
15.4
14.79
13.51
11.8
9.98
8.25
6.61
4.97
3.14
1.02
-1.36
-3.9
-6.45
-8.93
-11.39
-13.98
-16.89
-20.33
-24.35
-28.8
-33.31
-37.3
-40.15
-41.31
-40.44
-37.51
-32.8
-26.8
-20.14
-13.41
-7.1
-1.5
3.27
7.25
10.51
13.14
15.11
16.36
16.83
16.6
15.86
14.93
14.15
13.79
13.95
14.58
15.5
16.48
17.36
18.01
18.41
18.58
18.55
18.3
17.8
16.94
15.62
13.75
11.31
8.31
4.85
1.08
-2.82
-6.61
-10.09
-13.15
-15.83
-18.31
-20.86
-23.73
-27.01
-30.58
-34.08
-36.94
-38.62
-38.61
-36.7
-32.97
-27.8
-21.72
-15.35
-9.18
-3.55
1.35
5.44
8.74
11.31
13.27
14.8
16.06
17.16
18.13
18.89
19.36
19.52
19.42
19.22
19.1
19.17
19.38
19.66
19.79
19.59
18.91
17.68
15.93
13.82
11.53
9.21
6.9
4.46
1.65
-1.74
-5.79
-10.35
-15.13
-19.78
-24
-27.58
-30.46
-32.61
-34.14
-35.3
-36.45
-37.95
-39.97
-42.31
-44.48
-45.83
-45.86
-44.45
-41.83
-38.38
-34.41
-30.05
-25.35
-20.41
-15.49
-10.98
-7.24
-4.46
-2.62
-1.52
-0.91
-0.52
-0.02
0.98
2.83
5.75
9.65
14.1
18.57
22.71
26.7
31.31
37.58
46.35
57.73
70.89
84.25
95.95
104.41
108.77
108.97
105.53
99.27
91.11
81.93
72.55
63.68
55.85
49.25
43.8
39.11
34.7
30.08
24.92
19.06
12.6
5.78
-1.01
-7.39
-13.03
-17.69
-21.18
-23.38
-24.12
-23.38
-21.34
-18.44
-15.3
-12.48
-10.37
-9.13
-8.86
-9.8
-12.32
-16.73
-22.87
-29.88
-36.28
-40.36
-40.85
-37.35
-30.46
-21.6
-12.46
-4.63
0.82
3.4
3.22
0.9
-2.58
-6.08
-8.55
-9.23
-7.81
-4.54
-0.11
4.47
8.19
10.3
10.56
9.18
6.7
3.74
0.75
-2.08
-4.78
-7.5
-10.35
-13.44
-16.74
-20.14
-23.38
-26.04
-27.61
-27.64
-25.9
-22.52
-17.92
-12.69
-7.42
-2.53
1.74
5.33
8.26
10.55
12.17
13.09
13.31
12.91
12.09
11.09
10.21
9.66
9.58
9.91
10.53
11.19
11.67
11.78
11.43
10.65
9.52
8.22
6.93
5.82
4.98
4.35
3.79
3.07
1.98
0.36
-1.82
-4.46
-7.43
-10.55
-13.71
-16.87
-20.06
-23.39
-26.93
-30.68
-34.45
-37.85
-40.32
-41.29
-40.38
-37.49
-32.95
-27.32
-21.27
-15.37
-9.94
-5.1
-0.84
2.89
6.05
8.58
10.44
11.65
12.39
12.9
13.46
14.26
15.35
16.7
18.17
19.68
21.17
22.69
24.23
25.74
27.09
28.03
28.4
28.11
27.19
25.78
24.02
21.92
19.38
16.32
12.69
8.73
4.78
1.26
-1.56
-3.71
-5.51
-7.41
-9.78
-12.83
-16.5
-20.66
-25.07
-29.49
-33.62
-37.05
-39.29
-39.96
-39.01
-36.81
-34.15
-31.89
-30.65
-30.58
-31.41
-32.76
-34.41
-36.47
-39.12
-42.37
-45.82
-48.75
-50.43
-50.55
-49.33
-47.34
-45.19
-43.16
-41.15
-38.86
-36.07
-32.71
-28.9
-24.88
-20.85
-17.04
-13.59
-10.48
-7.41
-3.78
1.21
8.19
17.44
28.67
41.18
54.1
66.54
77.71
86.8
92.99
95.59
94.24
89.08
80.87
70.77
59.97
49.42
39.55
30.35
21.53
12.77
4.02
-4.49
-12.18
-18.37
-22.47
-24.16
-23.54
-21.07
-17.45
-13.39
-9.42
-5.81
-2.62
0.17
2.56
4.53
6
7.03
7.76
8.42
9.18
10.03
10.86
11.51
11.91
12.16
12.46
12.96
13.67
14.43
15.05
15.35
15.26
14.77
13.92
12.68
11.04
9.03
6.78
4.53
2.48
0.74
-0.75
-2.19
-3.75
-5.54
-7.49
-9.48
-11.3
-12.88
-14.25
-15.52
-16.86
-18.42
-20.32
-22.62
-25.37
-28.46
-31.74
-34.82
-37.21
-38.33
-37.72
-35.21
-30.96
-25.46
-19.35
-13.21
-7.45
-2.26
2.27
6.06
9.05
11.18
12.49
13.15
13.43
13.56
13.68
13.8
13.84
13.75
13.54
13.34
13.3
13.46
13.73
13.87
13.6
12.74
11.31
9.57
7.87
6.48
5.48
4.76
4.05
3.12
1.84
0.2
-1.74
-3.92
-6.27
-8.73
-11.23
-13.69
-16.09
-18.48
-21
-23.74
-26.73
-29.78
-32.46
-34.2
-34.41
-32.66
-28.89
-23.41
-16.85
-10.02
-3.62
1.83
6.09
9.13
11.03
11.94
12.02
11.48
10.58
9.62
8.84
8.41
8.34
8.56
8.98
9.5
10.09
10.72
11.37
11.98
12.45
12.66
12.51
11.97
11.03
9.73
8.1
6.15
3.88
1.3
-1.46
-4.24
-6.89
-9.34
-11.59
-13.77
-16
-18.47
-21.29
-24.49
-28.02
-31.57
-34.7
-36.78
-37.24
-35.78
-32.43
-27.59
-21.83
-15.77
-9.93
-4.62
-0.06
3.68
6.57
8.6
9.77
10.06
9.57
8.5
7.12
5.77
4.7
4.02
3.7
3.62
3.66
3.78
4
4.35
4.77
5.12
5.23
4.94
4.21
3.04
1.52
-0.23
-2.05
-3.8
-5.39
-6.78
-8.07
-9.41
-10.97
-12.89
-15.23
-18.02
-21.24
-24.86
-28.71
-32.55
-35.9
-38.18
-38.84
-37.53
-34.21
-29.16
-22.89
-16
-9.07
-2.56
3.16
7.85
11.36
13.64
14.8
15.04
14.65
13.96
13.25
12.65
12.16
11.56
10.6
9.05
6.92
4.46
2.14
0.49
-0.07
0.63
2.46
5.06
7.85
10.19
11.53
11.46
9.9
6.99
3.1
-1.47
-6.48
-11.9
-17.75
-23.93
-30.15
-35.9
-40.77
-44.59
-47.61
-50.36
-53.46
-57.31
-61.88
-66.65
-70.61
-72.51
-70.95
-64.65
-52.74
-35.03
-12.36
13.42
39.64
63.45
82.49
95.55
102.64
104.8
103.57
100.48
96.71
93
89.73
87
84.59
82
78.58
73.83
67.7
60.65
53.56
47.32
42.47
39.01
36.46
34.17
31.57
28.45
24.93
21.41
18.4
16.22
14.89
14.04
13.03
11.18
8.08
3.74
-1.44
-6.95
-12.47
-18.04
-24.06
-31.07
-39.48
-49.39
-60.45
-71.84
-82.37
-90.55
-94.85
-94.17
-88.12
-77.38
-63.59
-48.91
-35.44
-24.64
-17.08
-12.48
-10.06
-8.84
-7.91
-6.45
-3.87
0.18
5.67
12.16
18.87
24.93
29.7
32.99
35.02
36.19
36.89
37.2
37.05
36.3
34.91
33.02
30.89
28.72
26.57
24.42
22.19
19.84
17.35
14.66
11.66
8.17
4.11
-0.53
-5.57
-10.81
-16.06
-21.18
-26.11
-30.7
-34.63
-37.48
-38.79
-38.22
-35.72
-31.53
-26.13
-20.09
-14
-8.34
-3.46
0.41
3.2
4.89
5.63
5.64
5.17
4.49
3.85
3.44
3.4
3.78
4.53
5.56
6.69
7.71
8.4
8.67
8.51
8.01
7.33
6.58
5.75
4.71
3.31
1.51
-0.56
-2.64
-4.48
-6
-7.35
-8.9
-11.02
-13.95
-17.53
-21.35
-24.78
-27.22
-28.27
-27.77
-25.81
-22.63
-18.52
-13.76
-8.6
-3.31
1.81
6.45
10.29
13.14
14.97
15.9
16.12
15.84
15.19
14.29
13.25
12.23
11.38
10.84
10.67
10.77
11.04
11.33
11.51
11.47
11.11
10.31
9
7.2
5.01
2.66
0.36
-1.73
-3.57
-5.25
-6.97
-8.97
-11.45
-14.5
-18.07
-21.99
-25.95
-29.63
-32.66
-34.66
-35.31
-34.39
-31.84
-27.82
-22.72
-17.06
-11.34
-6
-1.32
2.56
5.62
7.89
9.44
10.44
11.05
11.44
11.68
11.79
11.76
11.62
11.45
11.38
11.49
11.77
12.15
12.5
12.79
12.97
13.11
13.17
13.11
12.75
11.94
10.57
8.62
6.17
3.33
0.23
-2.97
-6.13
-9.07
-11.7
-14.04
-16.26
-18.6
-21.3
-24.4
-27.73
-30.82
-33.1
-33.99
-33.12
-30.42
-26.14
-20.77
-14.88
-9.02
-3.55
1.35
5.65
9.36
12.52
15.08
17
18.24
18.86
19.01
18.89
18.7
18.58
18.56
18.65
18.83
19.15
19.66
20.4
21.3
22.21
22.92
23.23
23.05
22.42
21.47
20.33
19.12
17.88
16.57
15.09
13.29
11.07
8.43
5.48
2.44
-0.46
-3.08
-5.41
-7.54
-9.64
-11.86
-14.31
-17.08
-20.2
-23.62
-27.15
-30.45
-33.02
-34.32
-33.94
-31.67
-27.61
-22.14
-15.85
-9.42
-3.42
1.82
6.2
9.8
12.73
15.02
16.61
17.44
17.57
17.23
16.76
16.51
16.62
17.04
17.6
18.12
18.51
18.79
19.05
19.29
19.44
19.35
18.9
18.06
16.87
15.46
13.93
12.38
10.82
9.25
7.68
6.1
4.53
2.89
1.08
-0.99
-3.35
-5.87
-8.35
-10.56
-12.37
-13.8
-15.08
-16.55
-18.47
-21.04
-24.25
-27.88
-31.5
-34.55
-36.38
-36.47
-34.61
-30.9
-25.79
-19.95
-14.01
-8.47
-3.6
0.57
4.09
7
9.27
10.82
11.57
11.51
10.79
9.67
8.45
7.33
6.43
5.74
5.26
5.06
5.25
5.94
7.1
8.51
9.79
10.55
10.52
9.66
8.15
6.32
4.48
2.85
1.45
0.14
-1.34
-3.25
-5.7
-8.7
-12.08
-15.63
-19.12
-22.39
-25.37
-28.07
-30.66
-33.49
-37.01
-41.67
-47.65
-54.59
-61.64
-67.59
-71.22
-71.64
-68.5
-62.02
-52.87
-42.06
-30.72
-19.96
-10.77
-3.82
0.58
2.52
2.51
1.41
0.21
-0.19
0.85
3.49
7.43
12.12
17.05
21.95
26.85
31.97
37.54
43.71
50.51
57.9
65.68
73.28
79.74
83.75
84.09
80.06
71.84
60.41
47.24
33.68
20.71
8.74
-2.1
-11.79
-20.26
-27.36
-32.98
-37.01
-39.38
-39.97
-38.59
-35.09
-29.53
-22.23
-13.86
-5.27
2.73
9.55
14.92
18.88
21.69
23.65
25.03
26.03
26.7
27.06
27.06
26.71
26.08
25.24
24.36
23.56
22.88
22.32
21.75
21.06
20.16
18.95
17.4
15.5
13.32
10.99
8.67
6.52
4.6
2.82
1.04
-0.88
-3
-5.27
-7.65
-10.13
-12.8
-15.82
-19.3
-23.29
-27.59
-31.83
-35.51
-38.05
-38.97
-38.02
-35.17
-30.68
-24.99
-18.64
-12.16
-5.98
-0.44
4.3
8.18
11.22
13.5
15.07
16
16.4
16.43
16.27
16.07
15.84
15.43
14.59
13.16
11.11
8.62
5.94
3.28
0.78
-1.6
-3.88
-6.11
-8.3
-10.5
-12.81
-15.36
-18.24
-21.42
-24.78
-28.18
-31.48
-34.56
-37.31
-39.55
-41.06
-41.72
-41.61
-41.1
-40.73
-40.99
-42.14
-44.1
-46.47
-48.77
-50.46
-51.18
-50.65
-48.64
-44.97
-39.5
-32.11
-22.87
-12.11
-0.4
11.43
22.54
32.24
40.16
46.22
50.63
53.65
55.46
56.16
55.76
54.37
52.17
49.51
46.77
44.33
42.47
41.31
40.8
40.72
40.72
40.45
39.68
38.32
36.45
34.22
31.77
29.16
26.39
23.44
20.32
17.08
13.83
10.65
7.55
4.44
1.26
-2.02
-5.33
-8.56
-11.64
-14.61
-17.66
-20.99
-24.72
-28.7
-32.43
-35.16
-36.13
-34.84
-31.28
-25.91
-19.53
-12.93
-6.71
-1.13
3.79
8.1
11.8
14.74
16.78
17.84
18.04
17.7
17.15
16.68
16.42
16.38
16.47
16.6
16.69
16.76
16.83
16.94
17.09
17.18
17.06
16.54
15.55
14.07
12.21
10.12
7.87
5.45
2.81
-0.11
-3.29
-6.63
-10.07
-13.57
-17.16
-20.94
-24.92
-29
-32.97
-36.49
-39.2
-40.82
-41.18
-40.23
-38.07
-34.88
-30.87
-26.24
-21.24
-16.08
-11.02
-6.36
-2.37
0.71
2.68
3.4
2.77
0.87
-2.04
-5.47
-8.78
-11.29
-12.59
-12.58
-11.51
-9.89
-8.23
-6.91
-6.09
-5.73
-5.57
-5.22
-4.1
-1.67
2.45
8.2
14.99
21.81
27.57
31.51
33.38
33.5
32.38
30.34
27.38
23.2
17.56
10.49
2.43
-5.88
-13.6
-20.02
-24.61
-27.05
-27.18
-25.05
-20.92
-15.25
-8.75
-2.16
3.79
8.57
11.93
13.9
14.71
14.75
14.44
14.05
13.75
13.54
13.39
13.26
13.12
12.92
12.59
12.05
11.28
10.39
9.57
9.1
9.17
9.81
10.83
11.96
12.87
13.27
13.02
12.04
10.41
8.27
5.79
3.11
0.28
-2.72
-6.02
-9.69
-13.8
-18.29
-22.98
-27.53
-31.43
-34
-34.54
-32.53
-27.91
-21.14
-13.14
-4.96
2.49
8.65
13.32
16.53
18.46
19.35
19.49
19.14
18.58
17.94
17.23
16.36
15.27
13.94
12.44
10.82
9.11
7.2
4.96
2.21
-1.14
-5.11
-9.59
-14.32
-18.94
-23.04
-26.25
-28.42
-29.61
-30.11
-30.3
-30.54
-31.04
-31.83
-32.88
-34.11
-35.52
-37.17
-39.15
-41.51
-44.16
-46.87
-49.18
-50.52
-50.05
-46.9
-40.26
-29.74
-15.56
1.31
19.29
36.58
51.65
63.53
71.96
77.16
79.6
79.74
78.01
74.88
70.96
66.99
63.73
61.67
60.89
60.97
61.15
60.66
58.98
56.1
52.37
48.29
44.3
40.54
36.97
33.44
29.83
26.11
22.27
18.26
14.03
9.62
5.18
1.05
-2.44
-5.1
-7.06
-8.72
-10.64
-13.23
-16.64
-20.63
-24.67
-28.11
-30.38
-31.17
-30.44
-28.41
-25.33
-21.41
-16.72
-11.26
-5.06
1.7
8.76
15.88
22.93
29.92
36.87
43.56
49.45
53.69
55.47
54.33
50.44
44.5
37.49
30.3
23.5
17.29
11.61
6.4
1.67
-2.47
-5.88
-8.52
-10.4
-11.64
-12.45
-13.02
-13.55
-14.21
-15.09
-16.22
-17.61
-19.27
-21.23
-23.49
-25.98
-28.52
-30.95
-33.19
-35.35
-37.73
-40.73
-44.71
-49.83
-56.05
-63.14
-70.75
-78.5
-86
-92.93
-99.02
-104.09
-108.04
-110.79
-112.23
-112.26
-110.85
-108.18
-104.81
-101.46
-98.88
-97.47
-97.03
-96.79
-95.73
-92.98
-88.12
-81.15
-72.22
-61.25
-47.87
-31.56
-12.17
9.78
32.87
55.15
74.68
90.11
101.08
108.16
112.5
115.34
117.6
119.71
121.69
123.31
124.28
124.31
123.15
120.56
116.49
111.24
105.66
100.93
98.05
97.26
97.79
98.08
96.44
91.82
84.17
74.29
63.25
51.82
40.32
28.77
17.27
6.31
-3.32
-10.62
-14.64
-14.63
-10.15
-1.33
10.83
24.27
36.17
43.69
44.86
39.27
28.24
14.21
-0.23
-13.22
-24.08
-33.18
-41.42
-49.61
-58.08
-66.54
-74.28
-80.41
-84.09
-84.7
-81.93
-75.7
-66.08
-53.31
-37.81
-20.16
-1.21
18.04
36.57
53.63
68.91
82.66
95.48
108.14
121.28
135.27
149.98
164.87
178.85
190.45
198.18
200.93
198.52
191.83
182.52
172.42
162.98
154.89
148.22
142.71
137.96
133.49
128.58
122.24
113.49
101.8
87.58
72.24
57.82
46.14
37.96
32.49
27.61
20.79
10.16
-4.62
-22.14
-39.87
-55.28
-66.73
-73.94
-77.69
-79.06
-78.79
-76.99
-73.44
-68.06
-61.28
-54
-47.35
-42.29
-39.61
-39.92
-43.9
-52.19
-65.08
-82.05
-101.42
-120.52
-136.32
-146.31
-149.26
-145.48
-136.64
-125.1
-113.19
-102.66
-94.44
-88.73
-85.08
-82.72
-80.76
-78.39
-75.11
-70.79
-65.73
-60.52
-55.88
-52.34
-50.11
-48.96
-48.31
-47.41
-45.72
-42.97
-39.34
-35.28
-31.38
-28.21
-26.15
-25.39
-25.87
-27.35
-29.44
-31.78
-34.21
-36.77
-39.76
-43.41
-47.8
-52.65
-57.47
-61.72
-64.99
-67.19
-68.39
-68.74
-68.34
-67.17
-65.13
-62.15
-58.18
-53.25
-47.46
-40.96
-34.05
-27.1
-20.56
-14.85
-10.21
-6.67
-4.04
-2.01
-0.21
1.55
3.31
4.95
6.26
7.09
7.43
7.41
7.2
6.95
6.64
6.2
5.55
4.73
3.85
3.1
2.62
2.4
2.4
2.46
2.48
2.34
1.96
1.32
0.42
-0.68
-1.89
-3.11
-4.3
-5.45
-6.65
-7.94
-9.31
-10.69
-11.95
-13
-13.84
-14.57
-15.4
-16.53
-18.07
-19.94
-21.9
-23.61
-24.7
-24.86
-23.88
-21.68
-18.28
-13.86
-8.71
-3.24
2.08
6.81
10.67
13.51
15.34
16.29
16.51
16.16
15.38
14.32
13.13
11.99
11.09
10.56
10.47
10.71
11.09
11.34
11.27
10.84
10.14
9.37
8.66
8.04
7.38
6.56
5.5
4.22
2.88
1.6
0.49
-0.45
-1.27
-2.01
-2.69
-3.27
-3.73
-4.12
-4.56
-5.24
-6.4
-8.19
-10.58
-13.41
-16.3
-18.81
-20.51
-21.04
-20.25
-18.13
-14.92
-10.99
-6.81
-2.74
1.02
4.39
7.33
9.56
10.52
9.39
5.41
-1.86
-12.32
-25.39
-40.27
-56.14
-72.19
-87.6
-101.38
-112.47
-119.82
-122.6
-120.38
-113.16
-101.36
-85.92
-68.34
-50.66
-35.22
-24.03
-18.13
-17.01
-18.71
-20.41
-19.34
-13.66
-2.88
12.25
30.13
48.8
66.29
80.79
90.83
95.41
94.29
88.06
78.11
66.25
54.37
44.04
36.4
32.11
31.42
34.18
39.83
47.55
56.36
65.38
73.94
81.5
87.62
91.89
94.03
94.19
92.99
91.43
90.37
90.05
89.8
88.27
84.06
76.4
65.65
53.18
40.78
29.98
21.56
15.44
10.97
7.45
4.36
1.58
-0.9
-3.11
-5.35
-8.02
-11.51
-15.88
-20.78
-25.55
-29.5
-32.2
-33.66
-34.26
-34.61
-35.23
-36.45
-38.3
-40.59
-43.02
-45.21
-46.79
-47.41
-46.81
-44.87
-41.68
-37.41
-32.3
-26.56
-20.42
-14.16
-8.21
-3.08
0.8
3.22
4.29
4.44
4.12
3.71
3.38
3.18
3.12
3.21
3.49
3.96
4.48
4.91
5.1
5.07
4.91
4.82
4.92
5.15
5.33
5.16
4.4
3
1.1
-1.02
-3.02
-4.65
-5.88
-6.8
-7.64
-8.57
-9.65
-10.79
-11.89
-12.89
-13.9
-15.13
-16.82
-19.05
-21.74
-24.54
-27
-28.64
-29.07
-28.08
-25.67
-22.02
-17.46
-12.44
-7.42
-2.8
1.12
4.17
6.24
7.28
7.35
6.65
5.51
4.38
3.59
3.22
3.05
2.69
1.75
0.07
-2.16
-4.53
-6.54
-7.89
-8.67
-9.3
-10.48
-12.87
-16.83
-22.33
-28.92
-35.95
-42.8
-49.11
-54.88
-60.5
-66.65
-74.29
-84.33
-97.28
-112.74
-129.11
-143.75
-153.54
-155.98
-150.04
-136.66
-118.52
-99.04
-81.41
-67.85
-59.41
-56.11
-57.29
-61.76
-67.9
-73.64
-76.68
-74.99
-67.37
-53.75
-35.18
-13.39
9.72
32.5
53.62
71.95
86.42
96.15
100.64
100.04
95.13
87.09
77.14
66.2
54.89
43.65
32.92
23.17
14.72
7.67
1.86
-2.84
-6.26
-7.69
-6.19
-1.03
7.86
19.59
32.63
45.35
56.54
65.65
72.55
77.19
79.3
78.43
74.34
67.36
58.52
49.18
40.56
33.25
27.12
21.61
16.18
10.52
4.7
-0.98
-6.04
-9.84
-11.55
-10.23
-5.13
3.98
16.66
31.88
48.37
64.97
80.85
95.46
108.32
118.91
126.65
131.08
132.1
130.06
125.84
120.66
115.83
112.26
110.07
108.42
105.7
100.16
90.55
76.49
58.41
37.2
13.9
-10.33
-34.07
-55.57
-73.08
-85.37
-92.38
-95.27
-96
-96.49
-97.9
-100.42
-103.5
-106.4
-108.51
-109.52
-109.3
-107.79
-105.06
-101.3
-96.77
-91.65
-85.94
-79.42
-71.86
-63.25
-53.94
-44.61
-36.01
-28.69
-22.86
-18.41
-15.13
-12.85
-11.51
-11.02
-11.11
-11.27
-10.84
-9.23
-6.23
-2.07
2.67
7.27
11.2
14.15
16.15
17.41
18.21
18.78
19.25
19.63
19.78
19.51
18.59
16.88
14.43
11.42
8.16
4.97
2.14
-0.09
-1.64
-2.48
-2.68
-2.34
-1.48
0.14
3.09
8.27
16.61
28.77
44.83
64.08
85.2
106.58
126.81
144.97
160.72
173.94
184.26
190.75
192.07
187.08
175.71
159.37
140.71
122.67
107.44
95.8
87.13
80.12
73.59
67.09
60.84
55.56
52.17
51.27
52.89
56.19
59.28
59.6
54.92
44.38
28.93
10.87
-7.51
-25.11
-42.3
-60.26
-79.82
-100.76
-121.78
-140.8
-155.23
-161.82
-156.8
-136.84
-101.05
-53
-1.25
42.69
68.38
70.69
51.92
20.73
-11.89
-37.15
-51.08
-54.82
-52.43
-48.12
-44.39
-41.96
-40.69
-40.92
-43.78
-50.48
-61.24
-74.61
-87.46
-96.02
-97.2
-89.8
-74.96
-55.83
-36.16
-19.47
-8.02
-2.28
-0.93
-1.43
-1.17
1.47
6.49
13.47
21.23
28.51
34.47
39.05
42.93
47.05
51.98
57.42
64.51
73.88
85.52
98.64
112.06
124.81
136.27
146.04
153.53
161.64
173.06
189.07
208.72
229.36
247.97
262.24
271.02
273.9
275.97
282.28
295.74
315.8
339.23
362.19
381.92
397.27
385.01
332.44
240.13
124.14
7.53
-91.41
-164.71
-213.3
-239.06
-252.9
-259.71
-261.94
-260.98
-258.4
-255.87
-254.41
-254.83
-256.69
-260.55
-263.9
-265.37
-265.36
-265.87
-269.24
-276.5
-286.77
-297.66
-307.12
-311.11
-307.01
-294.34
-274.73
-250.97
-225.7
-200.72
-176.97
-155.4
-135.4
-116.41
-98.01
-79.95
-61.88
-43.24
-23.38
-1.96
20.55
43.74
66.98
89.57
110.79
130.03
146.84
161.02
172.65
181.91
189.16
194.65
198.38
200.07
199.22
195.29
187.73
176.1
160.13
139.9
116.05
89.8
62.65
35.96
10.56
-13.3
-35.55
-55.74
-72.73
-85
-91.25
-91.1
-85.44
-76.1
-65.25
-54.68
-45.44
-37.73
-31.04
-24.27
-15.93
-4.56
10.65
29.23
49.08
66.84
78.83
82.16
75.73
60.43
38.84
14.46
-9.2
-29.27
-43.91
-52.51
-55.51
-54.24
-50.53
-46.19
-42.53
-40.07
-38.55
-37.28
-35.61
-33.24
-30.26
-26.91
-23.36
-19.52
-15.29
-10.81
-6.62
-3.6
-2.54
-3.78
-6.92
-11.06
-15.07
-18
-19.24
-18.57
-16.13
-12.38
-8.13
-4.46
-2.49
-3
-6.09
-11.06
-16.63
-21.45
-24.61
-25.97
-25.95
-25.24
-24.21
-22.79
-20.58
-17.17
-12.66
-7.8
-3.92
-2.52
-4.87
-11.72
-23.1
-38.18
-55.3
-71.98
-85.38
-93.05
-93.72
-87.88
-77.69
-66.33
-56.79
-50.97
-49.2
-50.47
-53.06
-55.26
-55.83
-54.25
-50.68
-45.79
-40.43
-35.3
-30.69
-26.27
-21.29
-14.93
-6.65
3.54
15.14
27.38
39.43
50.51
59.94
67.13
71.68
73.49
72.93
70.77
68.04
65.63
63.97
62.95
61.91
60.11
57.03
52.84
48.37
44.87
43.45
44.5
47.41
50.67
52.49
51.45
47.01
39.56
29.99
19.29
8.05
-3.36
-14.7
-25.48
-34.94
-42.27
-47.01
-49.27
-49.74
-49.35
-48.98
-49.2
-50.25
-52.03
-54.21
-56.18
-57.25
-56.75
-54.49
-50.98
-47.45
-45.5
-46.4
-50.61
-57.51
-65.67
-73.36
-79.16
-82.3
-82.79
-81.21
-78.51
-75.58
-72.93
-70.54
-67.9
-64.38
-59.64
-53.88
-47.73
-41.78
-36.1
-30.04
-22.57
-12.88
-1
12.07
24.86
36.12
45.45
53.42
61.25
70.12
80.78
93.38
107.65
123.22
139.56
155.68
170.09
180.93
186.7
187.14
183.7
178.99
175.63
174.74
175.3
174.63
169.98
160.13
146.22
131.13
117.95
108.42
102.26
97.64
92.43
85.3
76.17
65.88
55.38
45.06
34.57
23.22
10.55
-3.27
-17.42
-30.75
-42.26
-51.5
-58.65
-64.36
-69.43
-74.41
-79.48
-84.41
-88.78
-92.18
-94.37
-95.29
-95
-93.61
-91.1
-87.35
-82.14
-75.25
-66.62
-56.5
-45.52
-34.58
-24.66
-16.42
-10.06
-5.21
-1.16
2.87
7.28
11.97
16.34
19.71
21.69
22.52
23.05
24.33
27.16
31.6
36.96
42.13
46.01
47.7
46.49
41.76
33.14
21.05
7.22
-5.32
-13.13
-13.85
-7.46
3.46
14.73
22.22
23.41
17.87
6.67
-8.6
-26.63
-46.51
-67.21
-87.08
-103.73
-114.37
-116.53
-108.94
-92.15
-68.79
-43.09
-19.7
-2.19
8.08
12.31
13.43
14.56
17.74
23.29
30.18
37.01
42.93
47.87
52.25
56.31
59.65
61.36
60.42
56.31
49.36
40.67
31.79
24.08
18.23
13.97
10.28
5.86
-0.29
-8.43
-18.05
-28.16
-37.82
-46.47
-54.03
-60.74
-66.84
-72.26
-76.69
-79.63
-80.72
-79.76
-76.7
-71.48
-63.84
-53.41
-39.92
-23.54
-5.2
13.42
30.19
43.11
50.84
53.04
50.32
43.91
35.12
25.02
14.3
3.43
-7.27
-17.57
-27.34
-36.58
-45.42
-54
-62.34
-70.18
-77.03
-82.29
-85.58
-86.79
-86.14
-84.22
-81.92
-80.43
-80.83
-83.79
-89.58
-98.13
-108.88
-120.78
-132.28
-141.64
-147.33
-148.17
-143.31
-132.76
-117.43
-98.62
-77.28
-53.71
-27.83
0.6
31.84
66.58
104.79
145.26
186.15
226.09
264.25
299.61
330.08
352.55
364.32
362.85
346.39
315.92
276.3
234.53
196.36
163.55
133.88
104.17
71.04
32.03
-12.11
-56.78
-93.55
-113.41
-112.61
-101.43
-88.85
-81.45
-82.14
-93.67
-116.72
-149.52
-188.43
-228.43
-263.05
-284.03
-276.53
-235.47
-169.32
-95.67
-31.52
13.38
36.66
40.5
30.07
9.86
-17.21
-47.41
-74.76
-92.23
-94.54
-80.45
-54.54
-20.9
13.7
40.35
51.47
43.9
19.95
-14.05
-50.62
-83
-106.2
-118.5
-120.93
-115.07
-101.48
-79.86
-48.9
-10.49
31.3
71.88
106.68
132.42
147.95
154.26
153.95
149.88
144.35
139.21
136.2
136.82
142.49
154.15
171.5
192.61
213.81
230.46
238.62
236.15
222.85
200.19
170.45
136.12
99.65
63.41
29.54
-0.28
-25.08
-45.2
-61.95
-77.09
-92.07
-107.32
-122.35
-136.16
-147.74
-156.6
-162.87
-167.03
-169.62
-170.92
-170.7
-168.71
-165.03
-160.18
-154.82
-149.48
-144.29
-139.05
-133.36
-126.43
-117.66
-106.98
-94.96
-82.67
-71.29
-61.69
-54.08
-47.78
-40.53
-29.86
-14.14
6.51
30.33
54.84
77.83
98.05
115.09
130.11
144.22
157.81
170.43
181.29
190.01
196.73
201.73
198.87
184.01
157.22
124.22
93.4
70.78
57.21
49.08
41.01
28.79
12.41
-5.05
-19.5
-28.24
-31.31
-31.15
-31.41
-35.42
-45.73
-62.05
-82.12
-102.37
-118.96
-128.75
-129.92
-122.64
-109.54
-95.22
-84.27
-80.22
-84.26
-94.94
-108.58
-120.49
-125.2
-119.16
-102.13
-77.23
-50.26
-27.71
-14.49
-12.15
-18.31
-27.51
-33.27
-30.09
-15.01
11.6
46.39
84.1
119.06
146.6
163.95
170.28
166.62
155.22
139.04
121.21
104.57
91.3
82.6
78.48
77.88
79.12
80.69
81.78
82.45
83.44
85.45
88.69
92.53
95.6
96.22
92.84
84.42
70.61
51.7
28.66
2.99
-23.25
-47.75
-68.32
-83.41
-92.53
-96.42
-96.66
-95.12
-93.26
-91.65
-90.05
-87.84
-84.48
-79.89
-74.45
-68.74
-63.26
-58.22
-53.59
-49.28
-45.31
-41.73
-38.48
-35.17
-31.06
-25.26
-17.21
-7
4.52
16.04
26.34
34.73
41.24
46.45
51.1
55.65
60.13
64.22
67.43
69.35
69.8
68.79
66.46
62.98
58.54
53.28
47.29
40.6
33.18
24.96
15.91
6.04
-4.5
-15.56
-26.87
-38.11
-48.84
-58.43
-66.15
-71.28
-73.45
-72.74
-69.72
-65.3
-60.33
-55.36
-50.48
-45.45
-39.99
-33.95
-27.41
-20.68
-14.13
-8.06
-2.68
1.91
5.64
8.52
10.61
12.05
12.99
13.56
13.8
13.67
13.12
12.12
10.72
9.05
7.27
5.49
3.79
2.13
0.37
-1.68
-4.26
-7.56
-11.59
-16.13
-20.69
-24.65
-27.44
-28.74
-28.54
-27.13
-24.96
-22.51
-20.25
-18.56
-17.73
-17.83
-18.65
-19.59
-19.87
-18.74
-15.88
-11.55
-6.53
-1.81
1.95
4.73
7.28
10.59
15.24
20.67
25.13
26.2
21.68
10.59
-6.51
-27.59
-49.68
-69.43
-83.55
-89.24
-84.69
-69.64
-45.81
-16.72
13.05
39.09
58.25
69.39
73.33
72.32
69.18
66.63
66.52
69.41
74.56
80.25
84.58
86.18
84.69
80.76
75.52
69.92
64.35
58.68
52.44
45.33
37.27
28.47
19.22
9.84
0.66
-7.9
-15.21
-20.64
-23.74
-24.54
-23.67
-22.17
-21.15
-21.39
-23.07
-25.78
-28.74
-31.15
-32.44
-32.47
-31.44
-29.81
-28.06
-26.41
-24.66
-22.09
-17.51
-9.67
2.29
18.37
37.44
57.44
75.9
90.47
99.54
102.56
100.06
93.47
84.94
77
72.08
71.8
76.33
84.22
92.8
99.23
101.6
99.46
93.65
85.51
76.03
65.55
53.94
41.1
27.16
12.37
-3.28
-20.08
-38.2
-56.98
-74.74
-89.15
-98.26
-101.48
-99.9
-95.69
-91.05
-87.23
-84.17
-80.89
-76.23
-69.55
-60.96
-51.09
-40.81
-30.89
-21.88
-14.07
-7.43
-1.64
3.89
9.84
16.78
25.04
34.67
45.62
57.8
71.02
84.88
98.71
111.74
123.45
133.81
143.12
151.43
158.03
161.29
159.27
150.82
136.39
118.24
99.56
83.11
70.01
59.28
48.6
35.57
19.13
0.18
-18.8
-34.99
-46.54
-53.32
-56.69
-58.56
-60.17
-61.49
-61.49
-59.18
-54.72
-49.85
-47.37
-49.87
-58.24
-70.83
-83.66
-91.78
-90.89
-78.83
-56.1
-25.35
9.52
44.27
74.72
97.07
108.47
107.78
96.1
76.61
53.35
29.47
5.83
-19
-47.18
-79.44
-113.68
-145.31
-169.2
-182.06
-183.7
-176.8
-165.3
-152.54
-140.33
-129.05
-118.62
-109.28
-101.87
-97.31
-95.83
-96.55
-97.7
-97.44
-94.71
-89.68
-83.47
-77.67
-73.52
-71.56
-71.49
-72.25
-72.52
-71.08
-67.27
-61.37
-54.52
-48.41
-44.59
-43.78
-45.46
-48.06
-49.65
-48.78
-45.12
-39.61
-33.91
-29.69
-27.9
-28.52
-30.88
-34.23
-38.34
-43.64
-50.76
-59.87
-70.06
-79.36
-85.31
-85.68
-79.07
-64.76
-42.51
-12.56
23.99
64.51
104.82
140.05
166.36
182.46
190.08
192.9
194.49
196.5
197.86
195.4
185.39
165.2
134.49
95.52
52.67
11.52
-22.56
-45.84
-57.48
-60.12
-59.48
-63.13
-78.22
-109.19
-155.65
-211.59
-266.53
-308.12
-325.78
-313.67
-272.08
-207.19
-129.58
-52.09
12.63
54.8
70.13
61.24
37.19
10.26
-8.61
-13.94
-7.07
5.73
17.17
22.71
21.83
17.13
12.34
10.69
14.5
25.41
44.15
70
100.2
130.1
154.44
168.96
171.3
160.9
138.08
103.46
58.41
6.31
-46.53
-91.43
-119.67
-125.76
-109.79
-77.61
-38.55
-1.9
26.07
43.27
51.02
52.01
48.6
42.06
32.95
21.88
9.96
-1.29
-10.64
-17.61
-22.62
-26.7
-31.03
-36.31
-42.58
-49.03
-54.25
-56.75
-55.63
-51.22
-45.23
-40.2
-38.36
-40.66
-46.29
-53.12
-58.81
-61.88
-62.3
-61.25
-60.31
-60.63
-62.4
-64.88
-66.73
-66.55
-63.24
-56.21
-45.45
-31.42
-14.94
2.89
20.83
37.65
52.26
64
72.71
78.75
82.69
84.9
85.28
83.29
78.33
70.37
60.31
49.8
40.54
33.49
28.39
24.01
19.01
12.91
6.57
1.66
-0.58
-0.34
0.65
0.14
-3.3
-9.5
-16.82
-23.26
-27.35
-28.49
-26.35
-20.21
-8.77
9.06
33.01
60.79
88.43
111.7
127.67
135.69
137.23
134.87
130.92
126.42
120.66
111.48
96.19
72.97
41.98
5.77
-31.27
-64.23
-89.26
-104.57
-110.45
-108.53
-100.67
-88.34
-72.71
-55.08
-37.28
-21.72
-10.83
-6.37
-8.7
-16.54
-27.24
-37.57
-44.57
-46.42
-42.76
-34.62
-23.75
-11.93
-0.33
10.64
21
30.7
39.18
45.31
47.78
45.68
39.03
29
17.78
8.12
2.86
4.36
13.95
31.4
54.6
79.7
101.79
116.24
119.99
112.49
95.77
73.53
49.88
28.17
10.34
-2.9
-11.57
-15.96
-16.47
-13.82
-9.27
-4.65
-1.91
-2.55
-7.12
-14.94
-24.58
-34.63
-44.62
-55.39
-68.55
-85.33
-105.15
-125.04
-140.29
-146.22
-140.14
-122.49
-96.67
-67.49
-39.42
-15.15
4.61
20.53
33.67
44.78
53.95
60.8
64.81
65.59
63.37
59.12
54.33
50.57
48.78
48.87
49.82
50.47
50.4
50.36
51.92
56.44
64.02
73.06
80.66
83.61
79.61
67.97
49.99
28.76
8.68
-5.36
-8.98
0.35
22.16
52.34
83.78
108.05
117.95
109.92
85.43
50.71
14.91
-12.76
-26.07
-23.89
-10.5
6
16.76
15.33
-0.16
-26.79
-58.53
-88.68
-112.27
-127.06
-133.27
-132.47
-126.49
-116.94
-105.37
-93.59
-83.58
-77.07
-74.77
-76.04
-79.05
-81.49
-81.55
-78.59
-73.3
-67.17
-61.75
-57.99
-55.75
-54.09
-51.66
-47.33
-40.68
-32.04
-22.39
-13.04
-5.16
0.52
3.84
5.18
5.29
4.91
4.61
4.53
4.43
3.9
2.59
0.52
-1.93
-3.98
-4.83
-3.83
-0.73
4.32
10.8
18
25.07
31.25
36
39.12
40.84
41.71
42.44
43.6
45.4
47.61
49.73
51.22
51.76
51.42
50.64
50.14
50.69
52.88
56.97
62.59
68.73
73.71
75.74
73.66
67.74
60.01
53.83
52.76
59.26
73.52
93.39
114.72
132.52
142.48
142.23
132.14
115.1
95.37
76.68
60.78
46.82
32.12
13.89
-9.13
-35.92
-63.65
-88.73
-107.86
-118.56
-119.41
-110.24
-92.51
-69.51
-45.92
-26.69
-15.43
-13.43
-19.5
-30.85
-44.24
-56.94
-67.13
-73.9
-77.06
-77.22
-75.61
-73.76
-72.89
-73.28
-74.19
-74.11
-71.49
-65.35
-55.81
-44.09
-32.22
-22.58
-17.21
-17.22
-22.43
-31.41
-42
-52.04
-60.01
-65.2
-67.5
-66.96
-63.53
-57.11
-47.94
-36.78
-24.9
-13.57
-3.68
4.5
11.03
15.92
18.93
19.71
18.19
14.91
11.06
8.08
7.14
8.72
12.51
17.64
23.13
28.2
32.42
35.64
37.95
39.55
40.68
41.54
42.26
42.79
43.05
42.99
42.79
42.83
43.49
44.96
47
49.09
50.7
51.68
52.42
53.56
55.58
58.41
61.57
64.6
67.62
71.61
77.8
86.89
98.28
110.16
120.45
127.72
131.59
132.08
128.56
119.17
101.52
74.46
39.71
2.23
-31.13
-54.21
-63.8
-60.36
-47.15
-28.49
-8.29
10.46
25.44
34.77
37.11
32.19
21.21
6.64
-8.38
-21.13
-30.04
-35.07
-37.49
-39.43
-43.21
-50.58
-62.11
-76.91
-92.82
-107.28
-118.32
-125.42
-129.67
-133.06
-137.42
-143.42
-150.18
-155.82
-158.39
-156.93
-151.97
-145.31
-139.18
-135.3
-134.11
-134.53
-134.05
-129.17
-116.02
-91.33
-53.7
-4.89
49.44
100.52
138.83
157.34
154.24
133.78
104.59
76.32
56.26
47.37
48.52
56.34
67.32
79.16
90.68
101.03
108.93
112.52
110.06
100.91
86.14
68.56
51.88
39.63
33.93
34.79
40.04
46.2
49.7
48.2
40.99
28.89
13.38
-4.21
-23.06
-42.55
-61.66
-78.53
-90.7
-95.92
-93.13
-83.12
-68.4
-52.3
-37.91
-27.14
-20.46
-17.23
-16.18
-16.1
-16.22
-16.26
-16.28
-16.47
-16.99
-17.83
-18.94
-20.12
-21.04
-21.2
-19.97
-16.71
-11.06
-3.15
6.43
16.79
27.18
37.23
47
56.64
66.01
74.41
80.73
84.05
84.2
82.16
79.86
79.46
82.39
88.71
97.07
105.24
110.94
112.64
110.01
103.9
96.08
88.71
83.76
82.33
84.15
87.37
89
85.86
75.84
58.75
36.41
11.84
-12.05
-33.57
-52.71
-70.81
-89.57
-109.98
-131.36
-150.8
-163.43
-163.76
-147.64
-114.43
-68.05
-16.69
29.35
60.64
71.38
60.91
33.44
-3.71
-42.32
-75.45
-98.63
-110.25
-111.23
-104.23
-92.77
-80.42
-70.16
-63.96
-62.68
-65.96
-72.38
-79.83
-86.21
-90.11
-91.16
-90.09
-88.2
-86.76
-86.45
-87.19
-88.24
-88.63
-87.49
-84.43
-79.63
-73.76
-67.71
-62.25
-57.78
-54.22
-51.21
-48.25
-44.82
-40.51
-34.82
-27.29
-17.55
-5.71
7.46
20.46
31.31
38.07
39.34
34.7
24.72
10.75
-5.49
-22.37
-38.61
-53.32
-66
-76.31
-84.04
-89.11
-91.62
-91.93
-90.56
-88.08
-84.95
-81.35
-77.27
-72.64
-67.63
-62.81
-59.14
-57.64
-58.96
-62.87
-68.07
-72.5
-73.83
-70.33
-61.28
-47.23
-29.62
-10.33
8.82
26.37
41.34
53.23
61.97
67.84
71.33
73.04
73.51
73.16
72.35
71.42
70.77
70.76
71.71
73.67
76.53
80.01
83.79
87.56
91.03
93.85
95.53
95.61
93.66
89.57
83.59
76.34
68.59
61
53.89
47.29
41.03
35.07
29.55
24.77
20.94
17.9
15.05
11.62
6.99
1.09
-5.5
-11.62
-15.98
-17.56
-15.89
-11.13
-4.06
4.2
12.36
19.32
24.34
27.26
28.46
28.68
28.76
29.34
30.72
32.96
36.07
40.17
45.69
53.29
63.73
77.75
95.78
117.55
141.57
164.9
183.48
193.14
191.18
177.63
155.5
129.86
106.08
88.11
77.47
73.38
73.4
74.39
73.19
67.15
54.74
36.1
13.22
-10.43
-31.12
-46.05
-54.26
-56.43
-54.05
-48.46
-40.28
-29.7
-16.97
-2.87
11.4
24.71
36.52
47.09
57.16
67.44
78.07
88.57
98.09
105.92
111.85
116.18
119.41
121.85
123.38
123.53
121.71
117.45
110.5
100.77
88.2
72.8
54.81
34.94
14.53
-4.74
-21.34
-34.51
-44.56
-52.73
-60.57
-69.27
-79.14
-89.53
-99.22
-107
-112.17
-114.67
-115.01
-114.05
-112.77
-112.12
-112.87
-115.15
-118.22
-120.31
-118.98
-111.97
-98.14
-78.18
-54.58
-30.88
-10.55
3.98
11.9
14.07
12.88
11.73
14.35
23.82
41.32
65.4
91.96
115.36
130.15
132.85
122.98
102.91
76.88
49.43
24.31
3.72
-11.73
-22.78
-30.91
-38
-45.98
-56.54
-70.96
-89.82
-112.58
-137.48
-161.81
-182.56
-197.35
-205.17
-206.45
-202.49
-194.64
-183.64
-169.6
-152.37
-132.19
-109.9
-86.92
-64.74
-44.61
-27.32
-13.18
-2.06
6.55
13.47
19.68
26.04
32.99
40.34
47.39
53.22
57.05
58.51
57.77
55.28
51.66
47.45
43.06
38.78
34.8
31.31
28.44
26.32
24.98
24.33
24.14
24.01
23.47
22.14
19.9
16.89
13.51
10.16
7.16
4.6
2.31
0
-2.64
-5.83
-9.54
-13.56
-17.46
-20.85
-23.41
-25.11
-26.16
-27.01
-28.24
-30.4
-33.82
-38.49
-43.88
-49.05
-52.78
-53.88
-51.62
-45.86
-37.11
-26.3
-14.47
-2.61
8.53
18.38
26.49
32.61
36.71
38.98
39.79
39.54
38.59
37.1
35.14
32.76
30.15
27.66
25.71
24.65
24.56
25.21
26.13
26.82
26.94
26.45
25.53
24.46
23.4
22.32
20.98
19.14
16.68
13.72
10.6
7.74
5.49
3.9
2.72
1.41
-0.6
-3.71
-7.85
-12.46
-16.53
-18.93
-18.73
-15.46
-9.12
-0.13
10.95
23.63
37.56
52.54
68.37
84.78
101.25
117
130.99
142.03
148.88
150.6
146.82
138.01
125.51
111.21
97
84.25
73.5
64.65
57.42
51.76
47.97
46.34
46.69
48.05
48.78
47.26
42.64
35.26
26.54
18.27
11.69
6.77
2.13
-4.5
-15.23
-31.07
-51.32
-73.8
-95.64
-114.39
-128.82
-139.05
-145.8
-149.32
-148.71
-141.95
-126.91
-102.63
-70.21
-32.7
5.85
41.74
72.62
97.82
117.83
133.76
146.86
158.31
168.93
178.75
186.53
189.72
185.32
171.19
147.37
116.45
82.64
50.23
22.05
-1.1
-19.88
-35.39
-48.36
-59.01
-67.39
-73.67
-78.09
-80.58
-80.66
-77.83
-72.22
-65.12
-58.88
-56.11
-58.8
-67.66
-82.25
-101.26
-122.84
-144.55
-163.35
-176.06
-180.58
-177.19
-169.04
-161.26
-158.49
-162.51
-171.24
-179.94
-183.86
-180.73
-171.5
-158.95
-145.36
-130.82
-113.37
-90.82
-62.64
-30.75
1.43
30.71
55.47
75.91
93.31
108.92
123.52
137.4
150.69
163.52
175.84
187.32
197.38
205.57
211.85
216.73
220.81
224.27
226.5
226.15
221.66
211.93
196.8
177.11
154.44
130.53
106.58
82.82
58.47
32.26
3.28
-28.1
-59.85
-88.52
-110.38
-122.68
-124.85
-118.72
-108.01
-97.07
-89.48
-86.95
-88.96
-93.26
-96.98
-97.95
-95.68
-91.51
-88.08
-88.17
-93.56
-104.18
-118.16
-132.4
-143.56
-149.1
-147.84
-140.17
-127.71
-112.81
-97.84
-84.76
-74.85
-68.75
-66.78
-69.03
-75.29
-84.7
-95.56
-105.51
-112.24
-114.31
-111.68
-105.63
-97.91
-89.9
-82.03
-73.83
-64.65
-54.32
-43.47
-33.29
-24.94
-18.91
-14.8
-11.67
-8.51
-4.85
-0.99
2.18
3.59
2.58
-0.82
-5.8
-11.09
-15.39
-17.69
-17.52
-14.87
-10.11
-3.82
3.37
10.8
17.91
24.31
29.88
34.7
38.96
42.71
45.78
47.82
48.49
47.71
45.78
43.3
40.95
39.26
38.5
38.74
39.98
42.21
45.4
49.34
53.63
57.8
61.41
64.21
66.17
67.4
67.93
67.72
66.59
64.44
61.27
57.24
52.61
47.69
42.81
38.37
34.73
32.19
30.78
30.19
29.95
29.64
29.22
29.26
30.8
34.94
42.27
52.53
64.45
76.2
85.94
92.39
95.17
94.65
91.64
87.09
81.87
76.64
71.83
67.31
62.24
55.22
44.77
30.19
12.16
-7.16
-24.75
-37.93
-45.37
-47.69
-47.02
-46.15
-47.48
-52.26
-60.37
-70.57
-80.85
-88.94
-92.79
-91.19
-84.25
-73.74
-62.75
-54.77
-52.48
-56.71
-66.16
-77.95
-88.95
-97.01
-101.73
-104.38
-107.08
-111.83
-119.72
-130.71
-143.78
-157.44
-170.07
-180.05
-185.89
-186.38
-180.78
-169.13
-152.48
-132.84
-112.73
-94.46
-79.53
-68.3
-60.11
-53.99
-49.18
-45.42
-42.92
-41.84
-42.02
-42.79
-43.26
-42.67
-40.76
-37.77
-34.35
-31.16
-28.6
-26.7
-25.13
-23.46
-21.24
-18.29
-14.7
-10.79
-7.1
-4.1
-2.07
-0.85
0.15
1.83
5.03
10.28
17.47
25.94
34.7
42.88
50.08
56.53
62.84
69.63
77.2
85.39
93.83
102.37
111.48
122.24
136.17
154.77
179.2
210.05
247.06
288.68
331.63
371.01
401.12
417.22
417.28
403.03
379.24
351.7
324.72
299.56
274.45
246.16
212.08
171.48
125.84
78.33
33.07
-5.55
-33.49
-47.93
-48.15
-36.18
-16.45
5.37
24.12
36.36
40.8
37.78
28.44
14.12
-3.54
-22.39
-39.77
-53.06
-60.7
-63
-62.28
-62.03
-65.39
-73.67
-85.57
-97.73
-106.27
-108.77
-105.4
-98.87
-92.96
-90.56
-92.28
-96.32
-99.74
-99.91
-95.59
-86.87
-74.34
-58.37
-38.98
-16.52
7.51
30.2
47.95
57.88
59.2
53.57
44.33
34.71
26.35
18.76
10.05
-1.61
-16.57
-32.92
-46.78
-53.53
-49.37
-32.84
-5.57
28.09
62.27
91.3
111.28
120.84
120.92
113.76
101.7
86.35
68.57
48.87
28
7.05
-12.85
-30.92
-46.79
-60.37
-71.4
-79.3
-83.33
-82.98
-78.52
-71.26
-63.46
-57.77
-56.37
-60.11
-68.21
-78.38
-87.76
-93.95
-95.93
-94.22
-90.41
-86.18
-82.51
-79.43
-76.47
-73.3
-70.15
-67.57
-65.75
-63.92
-60.3
-52.75
-39.85
-21.75
-0.49
20.54
37.87
49.26
54.65
56.12
56.75
59.28
64.9
72.96
81.77
89.74
96.35
102.25
108.46
115.44
122.52
128.21
131.12
130.88
128.39
125.26
122.92
121.95
122.03
122.37
122.06
120.07
115
105.06
88.46
64.22
33
-2.88
-40.04
-75.22
-106.29
-132.56
-154.54
-173.05
-188.53
-200.77
-208.96
-212.15
-209.73
-201.76
-189.08
-173.11
-155.47
-137.39
-119.45
-101.78
-84.39
-67.79
-52.94
-40.91
-32.23
-26.51
-22.53
-18.83
-14.38
-8.91
-2.94
2.71
7.36
10.89
13.76
17.01
21.77
28.88
38.13
47.98
55.88
59.16
56.34
48.01
36.84
26.44
19.74
17.84
20.06
25.01
31.83
40.53
51.08
62.18
70.6
72.22
64.08
46.26
22.17
-2.99
-24.89
-41.97
-55.69
-69.1
-84.5
-102.04
-119.63
-134.26
-143.43
-145.9
-141.29
-129.42
-109.72
-81.44
-44.7
-1.58
43.36
83.73
113.02
127
125.32
111.82
92.93
74.92
61.49
52.65
45.69
37.62
27.5
17.05
9.33
6.19
6.54
6.74
2.93
-6
-17
-24
-21.07
-5.64
19.94
49.36
75.35
92.32
97.69
91.4
74.6
48.55
14.65
-25.06
-67.65
-109.69
-148.23
-181.54
-209.23
-231.55
-248.47
-259.04
-261.71
-255.13
-239.15
-215.38
-186.93
-157.57
-130.73
-108.76
-92.62
-82.02
-75.91
-72.96
-72.02
-72.29
-73.33
-75.11
-77.99
-82.72
-90.22
-101.17
-115.5
-132.16
-149.15
-164.19
-175.43
-181.98
-184.13
-182.95
-179.9
-176.32
-173.25
-171.24
-170.33
-169.98
-169.08
-166.16
-159.77
-149.02
-133.9
-115.3
-94.68
-73.61
-53.29
-34.42
-17.24
-1.69
12.36
25.03
36.38
46.44
55.17
62.56
68.59
73.45
77.5
81.43
85.97
91.81
99.26
108.14
117.88
127.67
136.86
145.13
152.61
159.76
167.1
174.99
183.35
191.74
199.41
205.62
209.84
211.99
212.56
212.6
213.6
217.23
224.74
236.19
249.95
262.55
269.52
266.84
252.52
227.66
196.22
163.76
135.41
114.29
100.97
94.04
91.38
91.24
92.59
94.74
96.76
97.18
94.41
87.42
76.32
62.46
47.76
33.98
22.25
13.06
6.59
3.03
2.43
4.44
8.06
11.84
14.52
15.65
15.84
16.41
18.6
22.92
28.9
35.39
41.23
45.62
48.21
48.88
47.4
43.35
36.5
27.27
16.98
7.68
1.38
-0.83
0.77
4.83
9.78
14.58
18.99
23.06
26.42
28.03
26.54
21.26
12.87
3.27
-5.43
-12.12
-17.34
-22.76
-29.98
-39.34
-49.59
-58.56
-64.39
-66.45
-65.53
-63.23
-60.99
-59.53
-58.67
-57.76
-56.26
-54.22
-52.27
-51.38
-52.32
-55.36
-60.16
-65.99
-72.15
-78.28
-84.45
-90.89
-97.69
-104.45
-110.36
-114.46
-116.03
-114.97
-111.76
-107.31
-102.6
-98.4
-95.2
-93.15
-92.15
-91.69
-90.9
-88.58
-83.51
-74.9
-62.69
-47.77
-31.63
-15.98
-2.15
9.08
17.5
23.28
26.71
28.09
27.78
26.26
24.11
21.99
20.39
19.57
19.51
20.04
20.93
21.96
23.05
24.1
25.02
25.7
26.01
25.86
25.16
23.8
21.6
18.37
13.91
8.24
1.6
-5.59
-12.86
-19.95
-26.86
-33.81
-41.1
-48.93
-57.31
-66.19
-75.56
-85.37
-95.45
-105.25
-113.78
-119.74
-121.93
-119.67
-113.07
-102.99
-90.73
-77.62
-64.69
-52.48
-41.2
-30.91
-21.66
-13.6
-6.92
-1.66
2.26
5.11
7.33
9.38
11.75
14.85
19.02
24.35
30.74
37.79
44.98
51.76
57.72
62.74
66.98
70.77
74.45
78.22
82.07
85.82
89.24
92.18
94.73
97.24
100.28
104.45
110.17
117.44
125.89
134.87
143.76
152.23
160.43
168.92
178.43
189.42
201.89
215.18
228.21
239.86
249.29
256.11
260.27
261.8
260.61
256.49
249.36
239.39
227.06
213.04
198.14
183.34
169.82
158.85
151.25
146.69
143.19
137.24
125.01
104
74.7
40.97
8.95
-15.33
-28.48
-31.36
-28.91
-28.11
-35.08
-52.54
-78.76
-108.35
-134.53
-151.7
-157.25
-151.9
-138.95
-123
-108.68
-99.92
-99.3
-107.42
-122.44
-140.12
-154.83
-161.36
-156.99
-142.39
-121.18
-98.25
-77.88
-62.65
-53.58
-51.08
-55.66
-67.73
-86.68
-109.94
-133.1
-151.26
-160.87
-161.28
-154.69
-144.99
-135.77
-128.96
-124.47
-120.99
-117.17
-112.52
-107.49
-102.88
-99.13
-95.92
-92.4
-87.84
-82.18
-76.13
-70.8
-67.09
-65.12
-64.18
-63.1
-60.74
-56.49
-50.37
-42.9
-34.82
-26.86
-19.54
-13.24
-8.07
-3.89
-0.34
3.09
6.86
11.2
16.08
21.36
26.89
32.85
39.73
48.24
58.99
72.27
87.85
104.98
122.65
139.82
155.67
169.75
182.08
193.13
203.8
215.18
228.18
243.01
258.52
272.18
280.45
280.02
269.23
249.06
223.1
196.36
173.53
157.51
149.03
147.01
149.38
153.7
157.59
158.86
156
148.59
137.57
124.84
112.29
100.71
89.22
75.85
58.62
36.67
10.63
-18.06
-48.27
-79.97
-114.14
-151.8
-192.53
-233.69
-270.5
-297.32
-309.45
-304.77
-284.52
-252.85
-215.66
-179.1
-148.48
-127.54
-118.17
-120.23
-131.65
-148.7
-166.74
-181.35
-189.25
-188.99
-181.13
-167.79
-152.13
-137.44
-126.41
-120.52
-119.74
-122.7
-127.23
-131.02
-132.27
-129.95
-123.72
-113.89
-101.2
-86.81
-72.18
-58.93
-48.4
-41.36
-37.84
-37.15
-38.23
-39.93
-41.29
-41.67
-40.81
-38.8
-36.01
-33.01
-30.42
-28.77
-28.4
-29.26
-30.87
-32.36
-32.48
-29.88
-23.43
-12.46
2.97
22.03
43.25
64.87
85.17
102.77
116.94
127.55
135.06
140.26
143.98
146.95
149.68
152.39
154.95
156.86
157.22
154.98
149.34
140.06
127.63
113.18
97.95
82.66
67.19
50.52
31.32
8.7
-16.91
-43.41
-67.32
-84.66
-92.15
-88.39
-74.43
-53.65
-30.92
-11.46
0.4
2.26
-5.87
-21.48
-40.31
-57.54
-69.11
-72.89
-69.08
-59.91
-48.76
-39.01
-33.16
-32.35
-36.09
-42.21
-47.09
-46.19
-35.26
-11.79
23.81
67.79
113.89
155.06
185.32
201.17
202.01
189.75
167.86
140.62
112.34
86.78
66.35
51.59
41.1
32.29
22.5
10.31
-4.04
-18.99
-32.52
-43.26
-50.86
-55.87
-59.17
-61.49
-63.33
-65.09
-67.39
-70.95
-76.37
-83.74
-92.53
-101.84
-110.95
-119.86
-129.58
-141.84
-158.2
-178.79
-201.33
-220.85
-230.8
-225.06
-200.34
-157.89
-103.72
-47.13
1.95
35.87
51.16
49.08
34.64
14.66
-4.26
-17.35
-22.35
-19.49
-10.96
-0.06
9.68
15.43
15.78
11.17
3.84
-2.8
-5.2
-0.84
10.94
28.63
49.1
68.43
82.93
89.84
87.7
76.48
57.42
32.8
5.62
-21.03
-44.56
-63.24
-76.31
-83.77
-85.97
-83.43
-76.83
-67.29
-56.41
-46.08
-38.02
-33.12
-31.15
-30.87
-30.62
-29.03
-25.38
-19.7
-12.57
-4.99
1.67
5.76
5.8
1.11
-7.59
-18.29
-28.36
-35.64
-39.36
-40.13
-39.17
-37.17
-33.76
-27.84
-18.67
-6.82
5.6
15.77
21.47
22
18.28
12.18
5.54
-0.54
-5.88
-10.84
-15.78
-20.74
-25.42
-29.44
-32.65
-35.27
-37.78
-40.68
-44.18
-48.13
-52.07
-55.42
-57.84
-59.37
-60.45
-61.71
-63.65
-66.21
-68.69
-69.79
-68.12
-62.76
-53.59
-41.35
-27.37
-12.98
0.83
13.55
25.06
35.37
44.4
52.07
58.36
63.5
67.94
72.25
76.9
82.14
87.85
93.72
99.32
104.44
109.11
113.75
118.91
124.97
131.95
139.37
146.44
152.42
156.93
160.19
163
166.52
171.94
180.04
190.74
202.81
213.99
221.56
223.18
217.85
206.34
190.88
174.45
159.84
149.08
143.08
141.52
142.83
144.4
143.17
136.55
123.45
104.83
83.35
62.26
44.07
29.72
18.71
10.03
2.98
-2.39
-5.59
-6.35
-5.12
-3.06
-1.62
-2.02
-4.94
-10.6
-19.2
-31.33
-47.98
-69.96
-96.94
-126.66
-154.98
-176.98
-188.65
-188.51
-178.34
-162.92
-148.58
-141.48
-145.82
-162.73
-189.85
-221.8
-251.35
-271.26
-276.08
-263.48
-234.63
-193.42
-145.1
-95.06
-47.96
-7.41
24.21
45.97
58.66
64.73
67.56
70.35
74.97
81.52
88.57
94.09
96.54
95.68
92.53
88.99
86.93
87.49
90.79
96.09
102.33
108.8
115.44
122.61
130.44
137.93
142.54
140.55
128.27
103.7
67.71
24.11
-21.49
-63.42
-97.46
-121.55
-135.36
-139.49
-134.69
-121.74
-101.85
-77.17
-50.99
-27.15
-9.13
0.96
2.87
-1.92
-10.77
-20.74
-29.27
-34.72
-36.5
-35.06
-31.5
-27.36
-24.35
-24.17
-28.15
-36.58
-48.05
-59.21
-65.53
-63.05
-50.44
-30.26
-8.64
6.82
9.96
-1.64
-25.97
-57.72
-90.59
-119.36
-141.06
-154.8
-160.98
-160.45
-154.04
-142.59
-127.15
-109.07
-89.88
-70.97
-53.31
-37.53
-23.95
-12.85
-4.53
0.75
2.97
2.5
0.19
-2.82
-5.28
-6.27
-5.43
-3.14
-0.42
1.38
1.16
-1.55
-6.21
-11.52
-15.81
-17.69
-16.57
-12.81
-7.57
-2.39
1.3
2.63
1.58
-1.02
-3.76
-5.07
-3.78
0.51
7.35
15.73
24.46
32.57
39.55
45.31
50.04
53.95
57.14
59.62
61.4
62.68
63.95
65.95
69.5
75.2
83.23
93.21
104.24
115.09
124.35
130.61
132.68
129.81
121.98
110.1
95.81
80.96
66.85
53.67
40.45
25.59
7.84
-12.91
-35.26
-56.76
-74.69
-87.16
-93.64
-95.04
-93.28
-90.55
-88.68
-88.71
-90.88
-94.91
-100.41
-107.25
-115.52
-125.39
-136.7
-148.69
-159.95
-168.58
-172.22
-168.28
-154.18
-128.06
-89.82
-42.11
9.45
57.26
93.88
114.44
118.22
108.65
91.82
74.26
61.15
55.44
57.94
67.78
82.95
100.61
117.57
131.03
139.5
143.23
143.97
144.08
145.24
147.81
150.94
153.24
153.58
151.25
145.84
137.11
125.15
110.59
94.76
79.33
65.51
53.42
41.89
29.1
13.59
-4.91
-25.46
-46.44
-66.55
-85.35
-103.1
-120.03
-135.48
-147.45
-152.85
-148.6
-132.94
-106.68
-73.61
-39.62
-10.91
8.05
15.81
14.03
6.28
-3.74
-13.59
-22.4
-30.28
-37.54
-44.25
-50.41
-56.28
-62.46
-69.36
-76.45
-81.83
-82.74
-76.94
-64.14
-46.67
-28.76
-14.76
-7.2
-5.84
-8.24
-11.28
-12.89
-12.87
-12.57
-13.83
-17.86
-24.88
-34.4
-45.82
-58.86
-73.34
-88.7
-103.54
-115.9
-123.9
-126.58
-124.34
-118.62
-111.06
-102.65
-93.27
-81.94
-67.57
-49.7
-28.87
-6.49
15.67
36.06
53.6
67.76
78.28
85.14
88.5
88.79
86.83
83.68
80.49
78.19
77.3
77.77
79.01
80.06
79.91
77.83
73.72
68.09
61.91
56.18
51.5
47.93
45.07
42.38
39.49
36.29
32.92
29.39
25.43
20.42
13.64
4.65
-6.36
-18.41
-30.01
-39.55
-45.95
-49.01
-49.35
-47.99
-45.64
-42.28
-37.14
-29.23
-17.91
-3.4
13.31
30.8
47.75
63.27
76.88
88.27
97.19
103.38
106.84
108
107.69
106.71
105.46
103.75
100.95
96.48
90.21
82.63
74.67
67.54
62.32
59.72
59.64
60.96
61.34
57.7
47.02
27.69
0.64
-30.33
-59.17
-79.31
-85.79
-76.94
-55.02
-25.41
5.05
30.39
47.31
55.95
59.36
61.76
66.65
75.19
85.64
93.9
94.84
84.08
59.43
21.82
-24.68
-73.63
-117.63
-150.12
-167.18
-168.68
-158.44
-142.99
-129.18
-121.48
-120.08
-120.87
-117.37
-103.89
-78.3
-42.95
-3.42
34.18
65.48
88.74
103.81
110.59
108.07
94.83
70.62
37.61
0.49
-34.9
-63.6
-83.14
-93.83
-97.73
-97.22
-93.77
-87.57
-77.97
-64.35
-46.89
-27.06
-7.45
8.82
18.98
21.55
16.86
6.87
-5.69
-18.4
-29.88
-39.91
-48.79
-56.67
-63.13
-67.52
-69.41
-68.94
-66.58
-62.75
-57.59
-51.37
-44.98
-40.11
-38.67
-41.55
-47.73
-54.12
-56.82
-52.85
-41.59
-25
-6.48
10.77
25.09
36.53
46.24
55.29
64.02
71.9
77.96
81.42
82.31
81.45
80.02
79.04
78.79
78.71
77.78
75.08
70.27
63.85
56.93
50.76
46.25
43.61
42.31
41.45
40.19
38.06
35.18
31.92
28.74
25.87
23.43
21.66
21.11
22.53
26.5
33.02
41.35
50.24
58.49
65.49
71.44
77.11
83.24
89.92
96.38
101.12
102.42
98.98
90.27
76.6
58.89
38.34
16.3
-5.87
-26.8
-45.38
-61.02
-74.06
-85.67
-97.38
-110.32
-124.52
-138.83
-151.36
-160.38
-164.91
-165.08
-161.79
-156.12
-148.97
-140.94
-132.61
-124.68
-118.04
-113.43
-111.21
-111.06
-112.07
-112.94
-112.25
-108.74
-101.5
-90.13
-74.75
-56.05
-35.18
-13.5
7.61
27.03
44.06
58.48
70.45
80.4
88.86
96.33
103.24
109.8
116.03
121.66
126.18
128.87
128.96
125.91
119.88
112.09
104.85
101.1
103.42
112.97
128.75
147.65
165.32
177.54
181.42
175.92
161.62
139.98
112.81
82.15
50.45
20.68
-4.25
-22.45
-34.07
-41.42
-48.06
-57.22
-70.31
-86.42
-102.82
-116.2
-123.96
-124.97
-119.67
-109.79
-97.75
-86
-76.35
-69.54
-65.14
-61.98
-58.96
-55.66
-52.66
-51.16
-52.28
-56.24
-61.83
-66.35
-66.06
-57.19
-37.18
-5.91
33.64
75.88
113.91
141.46
154.31
150.94
132.22
100.75
60.31
15.63
-27.84
-64.53
-89.83
-101.32
-99.43
-87.18
-68.99
-49.18
-30.7
-14.69
-0.8
12.14
25.28
39.4
54.8
71.38
88.82
106.73
124.71
142.44
159.66
176.2
191.81
205.96
217.58
224.98
226.09
219
202.44
176.27
141.57
100.27
54.76
7.42
-39.64
-84.68
-126.28
-163.5
-195.9
-223.62
-247.17
-266.93
-282.76
-293.7
-298.46
-296.26
-287.76
-275.44
-263.13
-254.82
-253.05
-257.81
-266.39
-274.1
-275.81
-267.32
-246.15
-211.49
-163.84
-104.91
-38.26
30.08
91.72
137.58
160.74
159.44
138.4
107.68
79.32
63.23
64.24
81.31
108.91
139.46
165.74
182.38
186.6
178.29
159.76
135.05
108.92
85.68
68.17
57.5
53.13
53.45
56.5
60.6
64.66
68.32
71.86
75.92
81.19
87.94
95.75
103.22
108.16
107.95
100.15
83.24
57.11
23.36
-14.76
-52.86
-86.4
-111.8
-127.45
-134.03
-134.23
-131.77
-130.27
-132.22
-138.53
-148.48
-160.25
-171.63
-180.66
-186.13
-187.73
-185.67
-180.15
-170.67
-155.8
-133.67
-103.02
-64.38
-20.56
23.95
64.53
97.96
123.52
142.86
158.82
173.7
187.77
198.84
203.1
196.97
179.29
152.6
123.02
98.33
85.21
86.41
99.53
117.65
131.96
135.12
124.05
101.01
72.57
46.96
30.82
26.86
33
43.53
51.45
51.23
40.72
21.64
-1.26
-22.06
-35.76
-40.06
-36.02
-27.75
-20.94
-20.91
-30.86
-50.92
-78.36
-108.69
-137.14
-159.75
-173.83
-177.93
-171.81
-156.45
-134.11
-108
-81.66
-57.99
-38.68
-24.07
-13.49
-5.82
0.26
6.12
13.06
21.89
32.44
43.39
52.71
58.72
61.09
61.03
60.57
61.21
62.98
64.33
63.21
58.34
50.09
40.39
31.76
26.05
23.53
22.65
20.56
13.96
0.29
-21.43
-50.03
-82.34
-114.06
-141.11
-161.08
-174.04
-182.35
-189.51
-198.39
-209.98
-222.89
-233.82
-238.69
-233.79
-216.74
-187.24
-147.62
-103.02
-60.89
-29.41
-14.99
-20.02
-41.75
-73.12
-105.48
-131.62
-147.77
-153.76
-151.62
-143.64
-131.31
-115.58
-97.66
-79.73
-64.58
-54.5
-50.1
-49.9
-51
-50.55
-47.06
-41.1
-35
-31.7
-33.49
-41
-52.99
-66.82
-79.61
-89.25
-95.06
-97.76
-98.85
-99.79
-101.38
-103.67
-106.28
-108.88
-111.48
-114.34
-117.53
-120.59
-122.35
-121.35
-116.38
-107.06
-94
-78.64
-62.58
-47.09
-32.69
-19.17
-5.86
7.99
22.85
38.65
54.8
70.31
84.1
95.41
104.03
110.48
115.83
121.33
127.99
136.24
145.91
156.46
167.23
177.74
187.8
197.42
206.62
215.33
223.28
230.15
235.73
240.12
243.81
247.54
252.02
257.73
264.79
273.04
282.18
291.83
301.4
309.91
315.91
317.73
313.97
304.18
289.13
270.69
251.17
232.5
215.6
200.42
186.34
172.75
159.45
146.56
134.17
122.03
109.54
96.28
82.61
69.91
60.11
54.61
53.22
53.91
53.49
49.14
39.9
27.19
14.21
4.48
0.28
1.83
7.44
14.46
20.34
23.46
23.31
20.31
15.24
8.91
1.78
-6.07
-14.65
-23.8
-32.85
-40.63
-45.88
-47.76
-46.31
-42.44
-37.51
-32.69
-28.54
-25.03
-21.92
-19.28
-17.65
-17.81
-20.27
-24.89
-30.87
-37.2
-43.17
-48.65
-54.01
-59.59
-65.34
-70.58
-74.24
-75.23
-72.86
-66.92
-57.71
-45.87
-32.38
-18.45
-5.47
5.15
12.27
15.32
14.4
10.14
3.39
-5.02
-14.35
-23.83
-32.62
-39.8
-44.68
-47.1
-47.51
-46.77
-45.81
-45.32
-45.6
-46.72
-48.42
-50.17
-51.03
-49.76
-45.08
-36.24
-23.31
-7.18
10.68
28.78
45.74
60.33
71.4
77.91
79.18
75.21
66.74
54.99
41.16
26.02
9.87
-7.15
-24.63
-41.53
-56.25
-67.08
-72.74
-72.84
-68.05
-59.8
-49.79
-39.43
-29.44
-19.81
-9.95
1.06
14.08
29.6
47.29
65.71
82.4
94.37
99.1
95.58
84.93
70.17
55.27
43.72
37.53
37.03
41.37
49.49
60.7
74.55
90.09
105.25
116.68
120.43
113.2
93.68
63.16
25.28
-15.08
-53.5
-87.32
-116.04
-140.76
-163.01
-183.56
-201.93
-216.72
-226.37
-229.96
-227.35
-219
-205.36
-186.71
-163.33
-135.99
-106.29
-76.55
-49.14
-25.94
-7.76
5.57
15.02
21.82
27.17
31.9
36.36
40.54
44.34
47.96
51.98
57.11
63.66
71.03
77.66
81.58
81.43
77.22
70.72
64.94
63.24
68.1
80.26
98.08
117.56
133.12
139.07
131.55
110.18
78.66
44.01
14.34
-3.88
-8.22
-1.09
11.15
20.9
22.2
12.89
-5.18
-27.58
-49.47
-67.37
-79.92
-87.53
-91.6
-93.91
-96.39
-100.94
-108.87
-119.87
-131.09
-137.41
-133.13
-114.67
-82.63
-42.25
-1.67
31
50.43
55.47
48.83
35.62
21.49
11.11
7.3
10.89
20.82
34.58
48.79
59.7
63.86
58.69
43.11
18.02
-13.52
-46.85
-76.75
-98.99
-111.5
-114.95
-112.21
-107.07
-102.69
-100.78
-101.44
-103.83
-106.95
-110.09
-112.89
-115.07
-116.21
-115.76
-113.24
-108.52
-101.95
-94.28
-86.37
-78.87
-72.05
-65.87
-60.19
-54.95
-50.17
-45.92
-42.11
-38.47
-34.63
-30.39
-25.86
-21.36
-17.32
-13.85
-10.54
-6.39
0.05
10.17
24.85
44.06
66.71
90.96
114.76
136.48
155.34
171.6
186.29
200.79
216.15
232.71
249.75
265.55
277.66
283.48
280.99
269.46
249.92
225.08
198.77
175.12
157.63
148.5
148.08
154.74
164.98
174.02
176.84
169.49
150.19
119.89
81.73
39.9
-1.77
-40.79
-76.28
-108.49
-138.22
-166.13
-192.35
-216.13
-235.54
-247.78
-250
-240.51
-219.81
-190.6
-157.14
-123.91
-94.45
-70.76
-53.45
-42.14
-35.87
-33.24
-32.49
-31.75
-29.49
-25.05
-18.99
-13.04
-9.61
-11.17
-19.52
-35.09
-56.51
-80.49
-102.51
-117.84
-122.77
-115.46
-96.52
-69.4
-40.19
-16.47
-5.08
-9.54
-27.92
-52.88
-74.06
-82.16
-72.63
-47.32
-13.09
21.73
50.99
72.78
88.88
102.55
116.13
129.78
141.73
149.4
150.71
144.77
131.94
113.48
91.05
66.34
41.02
16.77
-4.71
-21.76
-33.32
-39.37
-41.41
-42.26
-45.33
-53.31
-67
-84.89
-103.79
-120.32
-132.29
-139.53
-143.49
-146.07
-148.67
-151.59
-154.18
-155.19
-153.3
-147.45
-137.32
-123.67
-108.46
-94.42
-84
-78.46
-77.42
-79.37
-82.74
-86.88
-92.16
-99.03
-106.5
-111.24
-107.94
-91.21
-58.09
-10.19
45.99
100.6
143.46
167.34
170.2
155.45
130.08
101.94
76.92
57.74
44.16
34.56
27.45
22.38
19.67
19.62
21.79
24.78
26.89
26.93
24.96
22.22
20.55
21.47
25.51
32.16
40.25
48.71
57.03
65.44
74.66
85.42
97.92
111.73
125.83
138.99
150.27
159.38
166.71
173.14
179.7
187.29
196.33
206.74
217.84
228.44
237.15
242.78
244.61
242.53
236.73
227.23
213.64
195.11
170.79
140.45
104.87
65.84
25.56
-13.99
-51.64
-87.02
-120.31
-151.53
-180.29
-205.57
-226.18
-241.22
-250.51
-254.78
-255.36
-253.67
-250.75
-247.12
-242.79
-237.48
-230.81
-222.4
-211.87
-198.97
-183.75
-166.61
-148.33
-129.83
-111.95
-95.27
-80.16
-66.94
-55.95
-47.46
-41.49
-37.59
-34.98
-32.88
-30.92
-29.26
-28.51
-29.19
-31.34
-34.38
-37.33
-39.3
-39.97
-39.66
-39.17
-39.4
-41.02
-44.26
-49
-54.92
-61.63
-68.72
-75.77
-82.33
-88.06
-92.88
-97.09
-101.55
-107.35
-115.3
-125.23
-135.28
-141.8
-139.98
-125.28
-95.33
-51.52
0.67
52.93
96.53
125.13
136.52
132.74
118.74
100.47
83.26
71.3
67.56
73.72
89.7
112.97
138.57
160.14
171.87
170.63
157.03
134.82
108.98
83.8
61.39
41.76
23.68
5.81
-12.48
-30.99
-49.01
-65.59
-79.87
-91.27
-99.45
-104.35
-106.18
-105.45
-102.88
-99.37
-95.87
-93.15
-91.66
-91.38
-91.83
-92.23
-91.78
-90.05
-87.19
-83.83
-80.91
-79.22
-79.07
-80.09
-81.3
-81.29
-78.57
-72
-61.11
-46.29
-28.76
-10.26
7.43
22.93
35.53
45.24
52.48
57.73
61.4
63.68
64.74
64.95
64.85
65.1
66.21
68.4
71.47
75.04
78.62
81.86
84.62
86.79
88.2
88.55
87.29
83.86
77.86
69.21
58.29
45.87
33.04
21
10.86
3.41
-1.16
-3.28
-4.13
-5.2
-7.95
-13.26
-21.17
-30.73
-40.32
-47.99
-51.99
-51.17
-45.19
-34.6
-20.65
-4.94
10.95
25.8
38.92
50.09
59.43
67.15
73.49
78.63
82.72
85.88
88.14
89.49
89.97
89.81
89.54
89.91
91.74
95.53
101.22
108.04
114.64
119.37
120.78
117.92
110.69
99.82
86.89
74.14
64.13
59.09
60.02
65.97
73.82
79.05
77.26
65.96
45.66
19.7
-7.09
-30.39
-47.81
-59.29
-66.35
-70.76
-73.52
-74.62
-73.45
-69.52
-62.92
-54.34
-44.75
-35.07
-26.03
-18.33
-12.88
-10.78
-13.02
-19.92
-30.64
-42.98
-53.71
-59.35
-57
-45.09
-23.85
4.78
37.35
69.58
97.21
116.86
126.79
127.17
119.84
107.59
93.27
79.07
66.22
55.08
45.5
37.03
29.03
20.66
10.91
-0.95
-15
-30.29
-45.02
-57.11
-65.11
-68.84
-69.52
-69.15
-69.55
-71.55
-74.69
-77.57
-78.63
-76.77
-71.72
-63.82
-53.73
-42.12
-29.63
-16.92
-4.74
6.23
15.48
22.87
28.53
32.66
35.33
36.35
35.45
32.49
27.7
21.71
15.44
9.84
5.72
3.58
3.6
5.59
8.97
12.86
16.28
18.34
18.61
17.25
14.93
12.6
11.02
10.5
10.77
11.21
11.29
10.84
10.26
10.39
12.18
16.3
22.8
30.97
39.6
47.19
52.46
54.72
54.11
51.7
49.19
48.48
50.92
56.53
63.52
68.56
67.98
59.27
42.43
20.19
-2.93
-22.5
-35.81
-42.66
-44.77
-44.44
-43.29
-41.75
-39.4
-35.74
-30.82
-25.36
-20.28
-16.27
-13.43
-11.38
-9.51
-7.31
-4.65
-1.76
0.93
2.98
4.2
4.67
4.7
4.72
5.01
5.7
6.69
7.81
8.86
9.66
10.11
10.08
9.45
8.14
6.24
4.12
2.45
2.18
4.19
9.12
17.11
27.71
39.92
52.42
64.09
74.49
84.1
93.83
104.11
114
120.93
121.51
113.36
96.97
76.52
58.95
51.24
57.54
77.28
105.19
133.29
153.59
160.28
150.59
124.82
86.13
40.63
-3.14
-35.78
-49.92
-43.33
-20.45
8.87
33.38
45.06
41.95
27.61
7.86
-12.89
-33.7
-56.34
-82.85
-113.22
-144.93
-174.31
-198.46
-216.37
-228.6
-236.17
-239.33
-237.09
-227.83
-210.36
-185.03
-154.19
-121.88
-92.71
-70.57
-57.44
-52.83
-54.11
-57.6
-59.83
-58.52
-52.92
-43.58
-31.91
-19.78
-9.17
-1.82
1.31
0.34
-3.4
-7.97
-11.62
-13.65
-14.55
-15.65
-18.24
-22.84
-29.1
-36.08
-42.94
-49.39
-55.66
-61.98
-68.15
-73.18
-75.35
-72.7
-63.89
-48.81
-28.75
-6.05
16.66
37.08
53.64
65.61
72.95
76.38
77.27
77.48
78.78
82.22
87.6
93.38
97.28
97.25
92.36
83.32
72.32
62.34
56.27
56.01
61.86
72.43
84.93
96
102.68
103.2
97.32
86.13
71.47
55.27
39.05
23.66
9.23
-4.66
-18.7
-33.51
-49.13
-64.75
-78.62
-88.47
-92.33
-89.37
-80.33
-67.39
-53.4
-40.72
-30.37
-21.61
-12.36
-0.22
16.42
37.53
61.09
83.38
99.92
106.74
101.77
85.8
62.68
38.39
19.27
9.92
11.59
21.93
36.03
48.39
54.93
54.15
47.03
35.89
22.95
9.39
-4.67
-19.59
-35.26
-50.67
-64.08
-73.79
-79.02
-80.44
-80.06
-80.49
-83.95
-91.39
-102.06
-113.83
-124
-130.31
-131.78
-129.05
-124.03
-119.31
-117.23
-119.25
-125.35
-133.78
-141.09
-142.42
-132.59
-107.53
-66.13
-11.53
48.73
104.22
144.6
162.83
157.5
132.96
97.35
59.38
25.45
-1.57
-21.72
-36.3
-46.19
-51.38
-51.6
-47.42
-40.99
-35.43
-33.52
-36.29
-42.28
-48.26
-50.82
-48.06
-40.56
-31.01
-22.87
-18.5
-17.97
-18.89
-17.37
-9.5
7.32
33.56
67.38
104.81
140.48
168.64
184.6
185.97
173.47
150.57
122.2
92.95
65.76
41.48
19.43
-1.55
-22.19
-42.52
-61.75
-78.46
-90.55
-95.53
-91.1
-76.11
-51.42
-20.08
13.23
43.32
65.72
77.47
77.39
65.93
44.93
17.19
-13.6
-43.14
-66.99
-81.13
-82.72
-70.77
-46.72
-14.41
20.43
51.49
73.41
83.03
80
66.31
45.32
20.72
-4.18
-26.61
-44.33
-55.43
-58.61
-53.55
-41.38
-24.83
-7.86
5.2
10.72
6.79
-6.28
-25.97
-48.24
-68.7
-83.84
-91.89
-93.05
-89.18
-82.88
-76.55
-71.67
-68.68
-67.16
-66.32
-65.52
-64.27
-62.21
-58.94
-54.04
-47.23
-38.74
-29.36
-20.21
-12.36
-6.35
-2.07
1.18
4.18
7.4
10.74
13.56
15.07
14.73
12.6
9.31
5.81
2.87
0.76
-0.89
-2.77
-5.42
-8.69
-11.56
-12.46
-9.88
-3.28
6.57
17.67
27.61
34.55
37.92
38.4
37.27
35.58
33.6
30.85
26.68
20.85
13.78
6.28
-0.98
-7.87
-14.66
-21.67
-28.82
-35.62
-41.5
-46.3
-50.38
-54.55
-59.48
-65.37
-71.81
-78.19
-84.06
-89.44
-94.83
-100.84
-107.83
-115.76
-124.26
-132.86
-141.3
-149.54
-157.79
-166.24
-174.77
-182.65
-188.44
-190.34
-186.59
-176.15
-159.05
-136.47
-110.39
-83.05
-56.57
-32.69
-12.78
2.2
11.74
15.93
15.54
11.81
6.17
-0.23
-6.61
-12.57
-17.83
-22.01
-24.54
-24.76
-22.11
-16.4
-7.91
2.63
14.23
25.87
36.79
46.57
55.12
62.5
68.81
74.15
78.64
82.43
85.77
88.92
92.1
95.54
99.49
104.16
109.7
115.95
122.4
128.22
132.58
134.88
134.99
133.09
129.51
124.52
118.42
111.71
105.32
100.56
98.82
101.19
108.19
119.68
134.97
152.75
170.99
186.92
197.38
199.61
192.21
175.82
153.08
127.61
102.74
80.33
60.58
42.54
25.04
7.57
-9.55
-25.49
-39.36
-50.54
-58.59
-62.95
-62.87
-57.51
-46.38
-29.79
-8.93
14.28
37.8
60.06
80.38
99.12
117.48
136.86
158.11
180.73
202.7
220.88
232.31
235.66
232.02
224.76
218.19
215.73
218.56
225.2
232.22
235.58
231.96
219.5
198.15
169.45
136.07
101.15
67.21
35.26
4.43
-27.4
-62.1
-99.61
-137.11
-169.64
-191.85
-200.21
-194.29
-176.69
-151.6
-122.93
-93.26
-63.92
-36.02
-11.4
7.4
18.14
20.22
15.55
8.06
2.13
0.55
3.31
7.65
9.44
5.09
-6.77
-24.92
-46.11
-66.42
-82.59
-92.79
-96.96
-96.5
-93.66
-90.88
-90.01
-91.78
-95.64
-99.94
-102.66
-102.25
-98.33
-91.85
-84.64
-78.75
-75.78
-76.45
-80.53
-86.93
-93.96
-99.75
-102.7
-101.87
-97.22
-89.43
-79.44
-68.1
-56.02
-43.84
-32.57
-23.69
-18.67
-18.1
-20.87
-24.28
-24.86
-19.9
-8.71
7.16
24.53
39.94
50.93
56.5
56.6
51.18
39.55
20.53
-6.53
-40.68
-78.91
-116.71
-149.37
-173.21
-186.34
-188.51
-180.51
-163.59
-139.25
-109.4
-76.54
-43.67
-13.73
11.12
30.07
43.53
52.79
59.3
64.22
68.17
71.2
73.01
73.3
71.96
69.28
65.85
62.24
58.55
54.24
48.24
39.6
28.2
15.1
2.38
-7.66
-13.37
-14.31
-11.14
-5.09
2.78
12.02
22.92
36.24
52.9
73.46
97.7
124.41
151.23
174.86
191.55
197.75
191.09
171.4
141.4
106.51
73.6
48.64
34.61
30.37
31.51
32.64
29.97
22.74
12.81
2.94
-5
-10.63
-14.41
-16.36
-15.34
-9.67
1.54
17.04
33.17
44.77
47.09
37.61
16.87
-11.75
-43.32
-72.87
-96.6
-112.39
-119.53
-118.42
-110.29
-97.22
-82.1
-68.24
-58.28
-53.26
-52.14
-52.29
-50.57
-44.4
-32.07
-12.55
14.82
50.11
91.86
136.24
177.1
207.21
220.54
214.31
189.84
151.8
106.65
60.86
19.93
-12.1
-32.84
-41.58
-39.58
-29.94
-17.26
-6.67
-2.64
-7.78
-22.07
-42.69
-64.67
-82.27
-90.73
-87.81
-74.52
-54.71
-33.45
-15.22
-2.41
5.06
8.87
11.23
13.73
16.91
20.21
22.26
21.16
14.84
1.63
-19.04
-45.9
-75.67
-103.58
-124.81
-135.97
-136.33
-127.96
-114.99
-102.08
-92.99
-89.67
-92.12
-98.96
-108.21
-118.13
-127.61
-136.23
-143.99
-151
-157.38
-163.24
-168.64
-173.46
-177.18
-178.63
-176.02
-167.39
-151.37
-128.01
-99.38
-69.48
-43.32
-25.49
-18.68
-22.69
-34.56
-49.64
-63.07
-70.97
-71.05
-62.55
-45.99
-23
3.67
30.45
53.54
69.96
78.64
80.73
79.12
77.21
77.7
81.76
89.05
98.23
107.57
115.51
120.88
123.13
122.3
119.04
114.24
108.75
102.98
96.85
89.86
81.42
71.27
59.52
46.71
33.58
20.91
9.32
-0.76
-9.21
-16.26
-22.4
-28.27
-34.44
-41.21
-48.43
-55.61
-62.03
-67
-70.07
-71.14
-70.48
-68.66
-66.38
-64.37
-63.11
-62.72
-62.9
-62.89
-61.76
-58.61
-52.91
-44.65
-34.35
-22.85
-10.94
0.79
12.14
23.21
34.22
45.3
56.41
67.31
77.64
87.02
95.19
102.11
107.98
113.16
117.93
122.25
125.71
127.72
127.86
126.14
122.9
118.39
112.29
103.68
91.49
75.33
56.18
36.4
18.94
6.26
-0.63
-2.38
-0.77
2.16
4.84
6.41
6.53
5.08
2.01
-2.65
-8.53
-14.85
-20.46
-24.12
-24.88
-22.4
-17.17
-10.54
-4.49
-1.21
-2.51
-8.98
-19.64
-32.02
-43.05
-50.46
-53.76
-54.47
-55.16
-57.95
-63.19
-69.28
-73.53
-73.57
-68.5
-59.04
-46.86
-33.53
-19.93
-6.2
7.71
21.44
33.99
43.91
49.95
51.6
49.39
44.81
39.81
36.19
35.09
37
42.13
50.67
62.54
76.74
90.51
99.53
99.13
86.5
62.52
32.11
2.69
-18.78
-28.5
-27.02
-18.37
-7.86
0.23
3.98
3.67
0.75
-3.27
-7.41
-11.29
-14.77
-17.6
-19.43
-19.91
-18.97
-17.06
-15
-13.76
-14.04
-15.98
-19.12
-22.69
-25.87
-28.21
-29.71
-30.72
-31.75
-33.17
-35.07
-37.18
-38.78
-38.8
-36.1
-29.82
-19.85
-7.02
6.99
20.17
30.91
38.45
43.09
45.84
47.99
50.76
55.2
62.18
72.38
86.19
103.45
123.37
144.61
165.62
185.05
201.87
215.35
224.83
229.7
229.52
224.27
214.57
201.41
185.87
168.65
150.04
130.06
108.82
86.78
64.81
43.95
25.11
8.68
-5.77
-19.48
-34.26
-51.93
-73.55
-98.81
-126.03
-152.69
-176.38
-195.7
-210.56
-221.93
-231.18
-239.41
-247.03
-253.78
-259.01
-261.99
-262.23
-259.77
-255.3
-250.01
-245.32
-242.19
-240.54
-238.83
-234.07
-222.22
-199.02
-161.13
-107.58
-41.11
31.39
99.5
151.77
178.99
177.28
149.65
105.1
55.79
13.26
-14.5
-24.5
-18.24
-0.13
24.09
48.55
67.75
77.14
73.91
58.04
32.68
3.48
-23
-41.66
-50.35
-50.16
-44.26
-36.15
-28.19
-21.22
-15.08
-9.55
-4.94
-2.08
-1.74
-4.04
-8.35
-13.14
-16.27
-15.28
-8.04
6.27
26.28
48.26
67.2
78.63
80.45
73.6
61.21
46.72
32.28
18.34
4.55
-8.79
-19.95
-26.18
-25.26
-16.86
-3.08
12.43
26.09
35.66
40.74
42.35
41.95
40.58
38.44
34.95
29.05
19.72
6.53
-10.04
-28.6
-47.19
-63.86
-77.31
-87.23
-94.23
-99.46
-104.02
-108.58
-113.31
-117.98
-122.21
-125.57
-127.61
-127.84
-125.74
-120.94
-113.4
-103.53
-92.08
-80.02
-68.22
-57.25
-47.37
-38.51
-30.47
-23.02
-16.01
-9.25
-2.57
4.2
11.15
18.13
24.77
30.58
35.17
38.42
40.52
41.87
42.83
43.61
44.22
44.55
44.44
43.78
42.42
40.29
37.34
33.62
29.25
24.42
19.18
13.45
7.01
-0.34
-8.63
-17.64
-26.88
-35.7
-43.33
-48.91
-51.56
-50.49
-45.17
-35.68
-22.7
-7.46
8.56
24.02
37.86
49.45
58.49
65.04
69.52
72.65
75.4
78.62
82.82
88.09
94.25
101.15
108.88
117.67
127.57
138.25
148.87
158.45
166.15
171.57
174.54
174.99
172.96
168.69
162.99
156.88
150.75
143.41
131.9
112.43
82.4
42.1
-4.76
-52.18
-94.31
-127.51
-151.12
-166.72
-176.35
-181.23
-181.42
-176.57
-167.01
-154.18
-140.31
-127.5
-116.99
-108.85
-102.31
-96.37
-90.35
-84.16
-78.19
-72.97
-68.76
-65.4
-62.24
-58.41
-53.08
-45.75
-36.42
-25.61
-14.13
-2.91
7.4
16.47
24.4
31.44
37.62
42.65
45.91
46.78
44.97
40.67
34.56
27.44
19.83
11.81
3.06
-6.75
-17.7
-29.26
-40.42
-49.79
-55.99
-57.88
-54.82
-46.88
-34.89
-20.32
-5.01
9.35
21.54
31.1
38.14
43
45.95
47.08
46.44
44.36
41.58
39.13
38.04
38.88
41.53
45.38
49.59
53.49
56.81
59.68
62.35
65
67.6
69.93
71.91
73.63
75.37
77.37
79.52
81.13
81.2
78.81
73.71
66.61
59.02
52.72
49.05
48.58
51.32
57.26
66.66
80.02
97.38
117.76
138.86
157.69
171.66
179.63
182.13
180.65
176.36
169.19
157.92
141.11
118.5
91.65
63.6
37.63
15.99
-0.83
-13.68
-24.06
-33.24
-41.89
-50.31
-58.92
-68.42
-79.55
-92.39
-105.77
-117.04
-122.72
-119.79
-106.98
-85.6
-59.21
-32.59
-10.3
4.59
11.11
10.19
4.04
-4.73
-13.65
-20.86
-25.15
-26.12
-24.19
-20.46
-16.26
-12.58
-9.54
-6.13
-0.48
9.4
24.61
44.71
67.7
90.73
111.21
127.57
139.1
145.2
144.49
135.03
115.41
86.34
51.57
17.36
-9.57
-24.56
-26.74
-19.17
-7.6
1.62
3.41
-4.74
-22.4
-46.68
-73.1
-96.91
-114.35
-123.53
-124.75
-119.93
-111.67
-102.31
-93.44
-85.96
-80.19
-76.03
-72.87
-69.69
-65.33
-59.06
-51.14
-42.76
-35.53
-30.65
-28.22
-27.12
-25.58
-22.2
-16.75
-10.42
-5.21
-2.95
-4.32
-8.48
-13.36
-16.48
-16.01
-11.41
-3.64
5.34
13.24
18.24
19.34
16.49
10.24
1.4
-9.33
-21.53
-34.94
-49.27
-63.96
-78.18
-91.04
-101.86
-110.52
-117.52
-123.83
-130.57
-138.58
-148.14
-158.87
-169.79
-179.45
-186.16
-188
-182.94
-169.22
-146.01
-114.15
-76.59
-37.95
-2.99
24.96
45.4
60.61
74.29
89.5
107.07
125.48
142.06
154.81
163.29
168.4
171.18
171.77
169.21
162.28
150.58
134.99
117.27
98.99
80.64
61.48
40.24
16.24
-9.76
-35.29
-56.67
-69.95
-72.12
-62.23
-41.99
-15.61
11.37
33.76
48.18
53.74
51.62
43.93
32.64
18.97
3.62
-12.56
-28.02
-40.61
-48.31
-50.12
-46.72
-40.24
-33.45
-28.52
-26.37
-26.63
-28.38
-31.04
-34.78
-40.26
-47.74
-56.52
-64.98
-71.37
-75.01
-76.83
-78.98
-83.71
-92.22
-104.01
-117.23
-129.62
-139.43
-145.88
-149.06
-149.5
-147.78
-144.42
-139.99
-135.15
-130.68
-127.23
-125.01
-123.88
-123.41
-123.2
-123.19
-123.63
-125.07
-128.24
-133.96
-142.84
-154.97
-169.52
-184.61
-197.63
-205.92
-207.72
-202.7
-192.02
-177.72
-161.94
-146.27
-131.61
-118.33
-106.65
-96.79
-88.84
-82.62
-77.53
-72.66
-67.03
-59.82
-50.47
-38.7
-24.55
-8.32
9.48
28.21
47.25
66.05
84.16
101.2
116.77
130.5
142.15
151.77
159.64
166.33
172.45
178.54
184.9
191.59
198.36
204.85
210.75
215.98
221
226.76
234.56
245.75
261.5
282.55
309.04
340.08
373.4
405.14
430.17
443.21
440.51
421.35
388.71
348.57
308.06
273.27
247.63
231.46
222.78
218.59
215.95
212.46
206.15
195.1
177.4
151.65
117.98
78.96
39.66
6.61
-14.45
-20.79
-14.19
-0.57
11.88
15.47
5.39
-19.07
-54.67
-95.48
-134.5
-165.18
-182.6
-184.34
-170.93
-145.89
-115.27
-86.55
-66.99
-61.7
-71.93
-94.23
-121.16
-143.54
-153.55
-147.62
-127.64
-100.12
-73.55
-55.29
-49.32
-55.52
-70.45
-88.94
-105.79
-117.02
-120.63
-116.63
-106.68
-93.24
-78.51
-63.87
-49.76
-36.16
-23.15
-11.24
-1.12
6.77
12.69
17.54
22.37
27.75
33.43
38.44
41.61
42.04
39.43
33.98
26.04
15.92
4.09
-8.44
-19.77
-27.39
-29.13
-24.15
-13.61
-0.25
12.8
23.42
31.13
36.67
40.66
42.32
39.25
28.66
9.14
-17.73
-46.98
-71.66
-85.02
-82.67
-63.78
-30.86
11.45
57.74
103.05
143.25
175.04
195.88
203.86
197.95
178.11
145.52
102.57
52.85
0.66
-49.48
-93.45
-128.04
-151.29
-162.58
-162.68
-153.57
-138.18
-119.82
-101.35
-84.33
-68.55
-52.43
-33.95
-11.72
14.33
43.24
73.35
102.44
127.27
143.27
145.17
129.15
95.49
50.3
4.56
-29.67
-44.11
-37.94
-17.84
5.44
22.26
28.14
24.83
18.22
14.5
17.01
25.16
35.39
43.39
45.9
41.6
30.81
14.91
-4.15
-23.75
-40.52
-50.96
-52.6
-45.56
-33.28
-21.82
-17.58
-24.7
-43.05
-68.27
-93.67
-112.79
-121.59
-119.29
-107.94
-91.22
-73.33
-57.88
-47.18
-41.52
-39.17
-37.27
-33.63
-28.25
-23.8
-24.02
-31.29
-44.54
-59.15
-69.05
-69.84
-61.02
-45.84
-29.18
-14.91
-4.25
3.81
10.86
17.43
22.45
24.24
21.87
16.04
9
3.45
1.29
2.65
5.82
8.02
6.49
-0.3
-11.87
-25.61
-37.51
-43.5
-40.93
-29.51
-11.4
9.82
30.56
48.52
63
74.31
82.7
87.67
88.08
82.93
72.11
56.89
39.37
21.65
4.93
-10.62
-25.33
-39.04
-50.32
-56.03
-51.99
-34.42
-1.69
44.35
98.05
151.02
194.17
219.97
224
205.84
168.95
120.05
67.99
22.16
-9.62
-23.31
-20
-5.7
10.74
20.97
20.08
7.99
-11.25
-31.71
-47.92
-56.43
-56.35
-48.83
-36.45
-22.52
-10.44
-2.83
-0.71
-3.09
-7.23
-9.68
-7.94
-1.61
7.34
15.5
19.64
18.18
11.88
3.61
-2.85
-4.26
0.88
11.62
24.82
36.15
41.57
38.72
27.83
11.76
-4.78
-16.71
-20.41
-15.14
-3.71
8.18
13.73
7.61
-11.96
-42.58
-78.84
-114.71
-145.96
-171.18
-191.04
-206.4
-216.41
-217.9
-206.38
-178.41
-134.01
-78.02
-19.57
30.32
62.12
70.84
57.33
27.34
-11.04
-50.3
-85.35
-113.66
-134.23
-146.29
-148.97
-141.85
-125.9
-103.92
-79.8
-57.34
-39.07
-26.08
-18.43
-15.85
-18.31
-25.76
-37.55
-51.83
-65.33
-73.97
-73.99
-63.61
-44.28
-20.8
-0.12
11.15
9.52
-3.53
-21.51
-35.06
-35.62
-18.95
12.76
51.27
84.81
101.82
94.6
61.78
8.95
-52.82
-109.91
-149.82
-164.42
-151.64
-115.31
-63.34
-5.12
50.89
98.6
134.66
158.04
169.36
170.46
163.92
152.85
140.42
129.35
121.51
117.67
117.27
118.24
117.48
111.94
99.92
81.97
60.54
38.63
18.05
-1.34
-20.94
-41.58
-62.02
-78.96
-88.59
-89.03
-81.8
-71.35
-62.98
-60.25
-63.59
-70.61
-77.79
-82.34
-82.95
-79.79
-73.77
-65.91
-56.92
-47.28
-37.5
-28.17
-19.87
-12.98
-7.57
-3.36
0.21
3.89
8.42
14.42
22.17
31.49
41.7
51.76
60.56
67.3
71.77
74.47
76.46
78.98
82.95
88.52
94.91
100.63
104.06
104.04
100.32
93.51
84.72
75.16
65.89
57.7
51.01
45.26
38.44
27.13
7.73
-21.3
-57.7
-95.32
-126.4
-145.09
-150.15
-145.23
-136.48
-128.85
-123.65
-118.55
-109.98
-95.97
-77.71
-58.81
-43.09
-32.5
-26.48
-22.82
-19.27
-14.9
-10.24
-6.7
-5.45
-6.71
-9.46
-11.94
-12.46
-10.15
-5.38
0.45
5.55
8.45
8.67
6.76
3.95
1.55
0.37
0.46
1.25
1.94
1.94
1.1
-0.39
-2.27
-4.49
-7.35
-11.19
-16.18
-21.84
-27.08
-30.43
-30.65
-27.15
-20.25
-11.02
-0.79
9.28
18.51
26.64
33.51
39
43.06
46.03
48.84
52.72
58.42
65.45
71.73
74.32
70.7
60.15
44.2
25.89
8.31
-6.79
-19.32
-30.16
-39.95
-48.35
-54.14
-56.17
-54.28
-49.51
-43.58
-37.96
-33.25
-29.28
-25.7
-22.62
-20.83
-21.4
-25.1
-31.84
-40.58
-49.7
-57.51
-62.75
-64.96
-64.54
-62.57
-60.38
-59.04
-58.78
-58.94
-58.15
-55
-48.78
-39.81
-29.38
-19.1
-10.24
-3.25
2.24
6.96
11.54
16.12
20.44
24.07
26.88
29.08
31.18
33.7
36.83
40.31
43.52
45.82
46.79
46.43
45.13
43.49
42.05
41.16
40.89
41.05
41.34
41.35
40.69
39.09
36.47
33.02
29.27
25.98
23.96
23.81
25.75
29.68
35.48
43.4
54.03
67.98
85.34
105.08
125.12
142.96
156.45
164.34
166.06
161.32
149.88
131.94
108.82
83.2
58.45
37.28
20.49
6.8
-6
-19.38
-32.89
-44.43
-51.7
-53.82
-51.99
-48.72
-46.37
-45.89
-46.66
-47.33
-47.08
-46.23
-46.05
-47.91
-52.41
-58.91
-65.9
-71.71
-75.43
-77.34
-78.76
-81.45
-86.74
-94.92
-105.02
-115.16
-123.2
-127.6
-127.86
-124.7
-119.69
-114.66
-111.07
-109.55
-109.8
-110.84
-111.47
-110.69
-108.05
-103.64
-97.96
-91.58
-84.86
-77.83
-70.22
-61.69
-52.14
-41.88
-31.6
-22.15
-14.19
-7.95
-3.24
0.41
3.35
5.63
7.02
7.25
6.28
4.47
2.48
0.94
0.16
-0.03
-0.14
-0.8
-2.51
-5.47
-9.6
-14.56
-19.79
-24.43
-27.45
-27.76
-24.52
-17.38
-6.7
6.59
21.14
35.55
48.6
59.4
67.4
72.41
74.57
74.3
72.32
69.53
66.94
65.47
65.81
68.36
73.16
79.95
88.29
97.61
107.4
117.33
127.34
137.71
148.93
161.57
176.05
192.44
210.3
228.63
245.99
260.73
271.24
276.31
275.36
268.47
256.28
239.87
220.49
199.6
178.93
160.44
146.07
137.23
134.24
135.94
139.81
142.31
139.87
129.96
112.01
87.89
61.51
37.7
20.66
12.67
13.4
20.3
29.52
37.22
40.29
36.96
26.85
11.01
-8.29
-27.93
-44.82
-56.88
-63.96
-67.75
-70.9
-75.64
-82.66
-90.83
-97.86
-101.52
-100.57
-95.18
-86.43
-75.78
-64.44
-53.31
-43.42
-36.11
-33.15
-36.07
-45.53
-60.74
-79.64
-99.44
-117.36
-131.19
-139.57
-141.97
-138.58
-130.22
-118.08
-103.34
-86.93
-69.23
-50.45
-31.08
-12.35
4.28
18.01
29.41
40.22
52.11
65.12
77.11
84.72
85.31
78.76
68
57.64
51.55
50.86
53.12
53.4
46.58
29.83
3.91
-27.07
-57.24
-81.37
-96.68
-103.55
-104.76
-103.45
-101.44
-98.77
-94.6
-88.94
-83.67
-82.05
-86.89
-98.49
-113.79
-127.35
-133.73
-129.84
-116.21
-96.36
-75
-55.81
-40.08
-26.73
-13.48
1.56
18.87
37.23
54.54
68.82
79.19
86.11
91.08
95.94
101.96
109.42
117.48
124.57
129
129.68
126.58
120.86
114.41
109
105.53
103.8
102.88
101.79
99.79
96.11
89.53
78.47
61.91
40.76
18.38
-0.43
-11.89
-15.63
-15.38
-17.08
-25.43
-40.91
-59.25
-73.7
-78.64
-72.26
-56.75
-36.31
-14.58
6.72
27.29
46.62
62.73
72.34
72.24
60.96
39.53
11.05
-20.5
-51.31
-78.17
-98.39
-109.63
-110.4
-100.84
-83.39
-62.47
-43.23
-29.77
-23.74
-24.31
-29.07
-35.59
-42.55
-50.04
-58.95
-69.96
-82.8
-95.84
-106.73
-113.19
-113.96
-109.26
-100.66
-90.5
-81.01
-73.75
-69.17
-66.83
-65.64
-64.29
-61.5
-56.2
-47.76
-36.09
-21.91
-6.79
6.98
17.04
21.63
20.4
14.67
7.02
0.33
-3.44
-4
-2.82
-2.4
-5.07
-12.07
-22.97
-35.85
-47.92
-56.37
-59.08
-55.17
-45.23
-31.1
-15.42
-0.82
10.81
18.68
23.07
24.89
25.22
24.87
24.23
23.39
22.23
20.54
18.18
15.19
11.85
8.72
6.6
6.33
8.54
13.31
19.97
27.02
32.33
33.69
29.76
20.79
8.89
-2.53
-10.03
-11.56
-7.32
0.46
8.46
13.61
13.94
8.89
-0.86
-13.71
-27.44
-39.52
-47.57
-50.07
-46.94
-39.59
-30.27
-20.97
-12.58
-4.81
2.95
10.47
15.96
16.42
9.16
-6.6
-28.68
-52.34
-71.57
-80.83
-76.37
-56.79
-23.1
21.45
71.4
119.79
159.37
184.57
193.27
187.48
172.2
153.1
134.1
116.26
98.31
78.35
55.4
30.21
5.06
-17.16
-34.08
-44.76
-50.22
-53.01
-55.85
-59.78
-63.2
-62.59
-55
-40.79
-24.71
-14.18
-15.36
-29.63
-52.51
-75.98
-92.87
-100.46
-101.26
-100.69
-103.6
-111.52
-122.41
-132.39
-138.07
-138.07
-133.18
-125.36
-116.56
-107.86
-99.22
-89.87
-79.11
-66.86
-53.91
-41.75
-31.97
-25.66
-23.02
-23.43
-25.79
-28.91
-31.9
-34.24
-35.82
-36.83
-37.76
-39.31
-42.3
-47.49
-55.19
-64.99
-75.65
-85.34
-92.16
-94.85
-93.27
-88.47
-82.33
-76.9
-73.69
-73.28
-75.31
-78.76
-82.37
-85.09
-86.2
-85.48
-83.21
-80.06
-76.97
-74.72
-73.66
-73.32
-72.44
-69.19
-61.91
-49.66
-32.58
-11.91
10.46
32.54
52.76
70.13
84.21
95.09
103.22
109.39
114.67
120.1
126.44
133.99
142.51
151.51
160.6
169.75
179.39
190.17
202.54
216.47
231.34
246.05
259.35
270.16
277.84
282.55
285.25
287.86
292.86
302.52
317.78
337.16
356.58
370.18
372.39
360
333.51
296.92
256.03
216.09
179.92
147.34
116
83.08
46.92
7.94
-31.55
-68.2
-98.59
-119.8
-129.72
-127.34
-113.28
-90.44
-64.09
-41.12
-28.01
-28.57
-42.45
-65.15
-89.88
-110.09
-121.57
-123.14
-116.16
-103.21
-87.18
-70.88
-57.06
-48.27
-46.35
-51.92
-63.97
-80.03
-96.77
-110.94
-120.23
-123.96
-123.17
-120.18
-117.75
-117.92
-121.36
-127.12
-133.27
-137.77
-139.19
-137.14
-132
-124.61
-115.77
-106.24
-96.59
-87.3
-78.67
-70.64
-62.82
-54.55
-45.17
-34.24
-21.72
-7.83
6.94
21.98
36.56
49.73
60.48
67.94
71.67
71.86
69.25
64.72
58.9
51.92
43.59
33.77
22.75
11.28
0.1
-10.54
-21.32
-33.59
-48.73
-67.44
-89.31
-112.98
-136.69
-158.83
-178.28
-194.53
-207.37
-216.71
-222.37
-224.17
-221.94
-215.69
-205.7
-192.46
-176.58
-158.52
-138.5
-116.58
-92.86
-67.73
-42.01
-16.76
7.05
28.73
47.97
64.59
78.44
89.64
99.01
108.43
120.64
138.3
162.72
192.93
225.78
257.09
283.21
302.01
312.88
315.9
311.06
298.06
277.12
249.98
220.43
193.49
173.55
162.2
157.15
152.85
142.8
122.52
91.58
53.87
15.69
-16.97
-40.89
-56.33
-66.02
-72.99
-78.66
-82.42
-82.62
-78.22
-69.83
-59.58
-50.01
-42.72
-37.95
-35.05
-33.4
-33.07
-34.73
-38.66
-43.86
-47.65
-46.23
-36.11
-15.62
13.97
48.43
81.43
106.22
117.58
113.46
95.84
70.39
44.9
26.93
21.44
29.29
46.95
67.91
84.79
91.75
85.9
67.71
40.31
8.13
-24.35
-53.51
-77.24
-95.13
-108.32
-119.15
-130.41
-144.25
-161.12
-179.13
-194.29
-201.88
-198.43
-183.53
-160.52
-135.46
-114.73
-102.46
-98.82
-100.32
-101.71
-98.67
-89.63
-76.01
-60.87
-46.89
-34.97
-24.03
-12.1
2.23
18.77
35.77
50.68
61.4
67.2
68.78
67.65
65.32
62.73
60.36
58.67
58.26
59.59
62.06
63.71
61.61
53.32
38.67
20.37
3.08
-8.79
-12.9
-9.6
-0.87
11.39
26.13
42.65
59.13
71.6
74.81
64.43
39.77
5.02
-31.65
-60.95
-75.67
-72.81
-53.81
-23.27
12.89
48.93
79.99
102.19
112.77
110.39
96.13
74.51
53.52
42.84
50.27
77.91
119.98
163.88
194.45
199.89
176.42
129.78
72.8
20.36
-15.95
-31.18
-27.56
-12.4
5.16
17.26
19.38
10.89
-5.41
-24.77
-42.17
-53.95
-58.66
-57.02
-51.47
-45.1
-40.68
-39.84
-42.65
-47.76
-52.87
-55.64
-54.56
-49.56
-42.04
-34.45
-29.32
-28.12
-30.51
-34.35
-36.39
-33.64
-24.79
-11.03
4.08
15.62
19.03
11.7
-6.05
-30.89
-57.44
-79.89
-93.44
-95.48
-85.84
-66.41
-40.39
-11.5
16.61
40.59
57.63
65.8
64.37
54.02
36.81
15.55
-6.99
-28.8
-48.89
-67.11
-83.48
-97.81
-109.44
-117.65
-122.14
-123.47
-123.03
-122.51
-123.16
-125.11
-127.31
-127.88
-124.96
-117.24
-103.95
-84.54
-58.64
-26.64
9.21
44.16
71.67
85.56
82.76
65.28
39.9
15.5
-0.32
-3.87
3.96
19.15
36.67
52.28
63.09
67.33
63.88
52.36
33.42
9.02
-17.87
-44.09
-67.13
-85.86
-100.46
-111.76
-120.62
-127.41
-132.14
-134.73
-135.46
-134.98
-134.01
-132.87
-131.2
-128.18
-122.96
-115.26
-105.53
-94.77
-84
-73.86
-64.41
-55.17
-45.36
-33.73
-18.54
2.32
30.48
65.91
105.92
145.13
176.87
195.32
197.58
184.56
160.26
130.16
99.3
71.31
48.02
29.98
16.78
7.39
0.3
-6.02
-12.57
-19.18
-24.3
-25.3
-19.37
-4.64
18.91
48.99
81.15
109.52
127.97
131.53
117.72
87.4
44.81
-3.33
-49.57
-87.66
-114.15
-128.93
-134.57
-134.87
-133.3
-132.06
-132.03
-133.33
-135.81
-139.09
-142.3
-144.02
-142.49
-136.48
-125.99
-112.49
-98.32
-85.74
-75.93
-68.7
-62.98
-57.56
-51.73
-45.49
-39.22
-33.15
-27.06
-20.27
-12.08
-2.17
9.08
20.62
31.07
39.16
44.13
45.9
44.99
42.26
38.58
34.56
30.54
26.58
22.65
18.69
14.7
10.61
6.25
1.33
-4.47
-11.33
-19.09
-27.23
-34.86
-40.84
-43.97
-43.2
-37.93
-28.1
-14.42
1.73
18.52
34.08
46.97
56.63
63.52
69.01
74.88
82.78
93.67
107.49
123.16
138.8
152.24
161.51
165.41
163.95
158.41
151.17
145.02
142.22
143.71
148.81
155.49
161.3
164.4
164.3
161.88
158.64
155.5
151.91
145.8
134.55
116.4
91.65
62.74
33.28
6.45
-16.24
-35.29
-52.43
-69.27
-86.23
-102.18
-114.92
-122.13
-122.2
-114.58
-99.83
-79.37
-55.27
-29.79
-5.08
17.21
36.18
51.63
63.82
73.14
79.97
84.7
87.78
89.83
91.37
92.72
93.72
93.83
92.34
88.74
82.82
74.53
63.79
50.34
34.13
15.84
-2.5
-17.54
-25.83
-25.72
-18.91
-10.42
-6.81
-13.05
-29.89
-53.28
-76.14
-91.42
-94.67
-84.95
-64.23
-36.15
-5.25
23.08
42.96
49.08
38.84
14.33
-17.41
-46.28
-62.62
-60.32
-38.25
0.15
48.63
100.05
147.62
185.69
210.31
219.91
215.56
200.67
179.84
157.53
136.82
118.91
103.3
88.39
72.04
52.24
27.76
-1.33
-33.54
-66.43
-97.61
-125.73
-150.81
-173.86
-195.91
-217.18
-236.87
-253.53
-265.81
-272.82
-274.03
-268.94
-256.94
-237.75
-211.91
-181.23
-148.52
-116.82
-88.51
-64.82
-45.77
-30.67
-18.66
-9.02
-1.26
4.96
10.1
14.67
19.18
24.04
29.34
34.86
40.13
44.61
47.76
49.33
49.3
47.78
44.96
40.92
35.66
29.22
21.82
13.91
6.07
-1.23
-7.81
-13.86
-19.8
-26.04
-32.73
-39.75
-46.82
-53.66
-60.07
-65.86
-70.59
-73.52
-73.72
-70.34
-63.03
-52.17
-38.78
-24.26
-9.96
3.17
14.66
24.52
32.9
39.93
45.65
50.05
53.22
55.53
57.57
60.08
63.74
68.94
75.58
83.14
90.82
97.86
103.89
109.06
114.01
119.45
125.67
132.17
137.75
141.08
141.37
138.99
135.33
132.08
130.34
130.1
130.58
130.95
131.01
131.01
130.91
129.5
124.44
113.45
95.92
73.88
51.34
32.37
19.04
10.48
3.74
-4.25
-14.99
-28.01
-41.86
-55.55
-69.39
-84.55
-101.81
-120.49
-138.3
-152.26
-160.02
-160.85
-155.72
-146.74
-136.17
-125.65
-116
-107.28
-99.23
-91.56
-84.19
-77.19
-70.6
-64.28
-57.81
-50.66
-42.44
-33.19
-23.47
-14.24
-6.45
-0.65
3.28
6.05
8.56
11.42
14.51
16.88
17.07
13.57
5.46
-7.21
-23.31
-40.86
-57.42
-70.47
-78.07
-79.37
-75.24
-68.3
-62.38
-61.21
-66.88
-78.89
-94.17
-108.4
-117.71
-120.18
-116.02
-107.05
-95.38
-82.49
-68.99
-54.91
-40.24
-25.14
-10.01
4.83
19.1
32.58
44.96
55.78
64.53
70.71
74.1
74.8
73.29
70.28
66.62
63.1
60.35
58.8
58.55
59.45
61.2
63.58
66.8
71.65
79.34
90.84
106.15
123.93
141.77
157.22
168.97
177.36
183.98
190.45
197.39
204.1
209.26
211.69
210.75
206
196.34
179.83
154.44
119.59
77.36
32.6
-8.36
-39.73
-58.1
-63.24
-57.76
-46.23
-33.97
-25.98
-25.92
-35.22
-52.63
-74.23
-94.42
-107.5
-109.47
-99.48
-80.38
-58.14
-40.05
-32.42
-38.29
-56.13
-80.21
-102.65
-116.51
-118.45
-110.01
-96.8
-86.24
-84.64
-94.83
-114.99
-139.12
-158.66
-165.03
-152.22
-118.7
-68.08
-8.24
50.81
99.79
132.44
146.71
144.51
130.33
109.6
87.17
66.62
50.08
38.27
30.82
26.4
23.08
18.78
11.89
1.85
-10.58
-23.6
-35.12
-43.67
-49.18
-53.04
-57.57
-64.87
-75.92
-90
-104.97
-118.03
-126.72
-129.69
-126.9
-119.34
-108.47
-95.8
-82.47
-69.35
-57.06
-46.09
-36.94
-30.08
-25.95
-24.77
-26.43
-30.31
-35.39
-40.37
-43.93
-44.9
-42.53
-36.55
-27.26
-15.48
-2.31
11.06
23.73
35.22
45.54
55.04
64.22
73.53
83.25
93.42
103.82
114.11
123.86
132.71
140.49
147.13
152.63
156.82
159.44
160.24
159.18
156.76
154.04
152.46
153.25
156.78
161.93
166.03
165.3
156.06
136.16
106
68.71
29.15
-7.73
-38.58
-62.53
-81.08
-97.08
-113.45
-132.02
-153.1
-175.48
-196.63
-213.36
-222.78
-223.44
-216.17
-204.07
-191.29
-181.19
-174.46
-168.41
-157.79
-136.76
-101.14
-50.31
12.27
79.69
143.56
196.21
232.91
252.83
258.86
255.96
248.97
240.92
232.59
223.58
213.72
203.94
195.53
188.87
182.2
171.67
152.88
122.94
81.81
32.4
-20.51
-71.81
-117.14
-153.47
-179.28
-194.54
-200.81
-201.05
-199.06
-198.39
-201.35
-208.38
-218.07
-227.76
-234.44
-235.53
-229.47
-215.84
-195.24
-168.86
-137.89
-103.35
-66.22
-27.99
8.83
40.94
65.02
78.99
82.68
77.96
67.88
55.47
42.93
31.39
21.32
13.05
6.88
2.97
0.86
-0.6
-3.01
-7.6
-14.61
-22.91
-30.39
-34.72
-34.34
-29.12
-20.41
-10.54
-1.79
4.35
7.58
8.52
8.18
7.44
6.73
6.14
5.78
6.03
7.61
11.43
18.06
27.48
38.97
51.31
63.34
74.2
83.54
91.29
97.38
101.7
104.07
104.4
102.55
98.3
91.33
81.39
68.92
55.46
43.66
36.51
35.98
41.73
50.76
58.29
59.55
51.77
35.31
13.56
-8.29
-25
-32.92
-30.97
-20.87
-6.53
7.09
15.33
15.09
5.69
-11.03
-31.34
-50.97
-66.38
-75.74
-79.11
-78.02
-74.5
-70.41
-66.91
-64.27
-62.22
-60.05
-56.86
-51.51
-42.81
-30.02
-13.45
5.2
23.19
37.6
46.3
48.49
44.72
36.21
24.23
9.73
-6.52
-23.47
-39.32
-51.5
-57.1
-53.69
-40.3
-18.14
9.29
36.75
58.41
69.33
66.77
50.83
24.37
-7.74
-39.66
-65.77
-81.82
-86.07
-79.91
-67.48
-54.23
-44.97
-42.24
-45.8
-53.36
-62.14
-70.06
-76.24
-80.56
-83.03
-83.44
-81.65
-78.15
-74.43
-72.81
-75.45
-83.29
-95.17
-107.78
-116.36
-115.93
-102.91
-76.52
-39.59
1.74
39.47
66.24
77.8
74.68
62.14
48.12
40.29
43.25
57.25
78.8
102.59
123.63
138.35
144.79
142.03
130.02
109.87
84.17
56.89
32.41
14.11
3.38
-0.72
-0.74
0.18
-0.77
-5.69
-15.81
-31.41
-51.79
-75.18
-98.99
-120.31
-136.4
-145.21
-145.62
-137.62
-122.63
-103.48
-83.91
-67.65
-57.38
-54.14
-57.47
-65.83
-77.26
-89.49
-99.78
-104.88
-101.42
-86.82
-60.4
-23.97
18.5
61.8
100.79
131.51
151.85
161.62
162.22
155.93
145.25
132.04
117.26
101.03
83.08
63.13
40.97
16.47
-10.29
-38.48
-65.89
-88.77
-102.63
-103.89
-91.73
-68.92
-41.09
-14.84
4.59
14.9
16.77
12.78
5.82
-1.98
-9.5
-16.2
-21.62
-25.15
-26.14
-24.27
-19.8
-13.53
-6.54
0.33
6.73
12.95
19.54
26.97
35.11
43.21
50.15
55.15
58.5
61.9
68.07
79.63
97.49
119.88
142.38
159.54
166.92
163
149.51
129.95
107.53
83.95
59.77
35.77
13.86
-3.45
-14.65
-20.57
-24.08
-27.87
-31.92
-32.7
-24.94
-5.22
24.93
58.49
85.53
97.36
90.24
66.47
32.83
-2.58
-32.99
-54.57
-66.54
-70.39
-68.95
-65.26
-61.85
-60.09
-59.84
-59.53
-56.78
-49.44
-36.69
-19.69
-1.51
13.51
20.91
17.3
1.41
-25.31
-58.65
-92.34
-119.43
-134.24
-134.23
-120.84
-98.81
-74.18
-51.9
-33.96
-19.36
-5.47
9.91
26.88
43.1
54.71
58.13
51.91
37.75
20.22
5.04
-3.19
-3.03
3.3
11.21
16.28
16.66
13.99
12.1
14.32
21.18
29.65
34.73
32.12
20.62
2.81
-16.2
-31.16
-38.91
-39.35
-35.07
-29.98
-27.57
-29.86
-37
-47.53
-59.07
-68.83
-73.61
-69.62
-52.89
-20.49
27.2
84.83
142.04
186.07
206.07
197.4
163.72
115.61
66.32
26.67
1.58
-10.48
-15.04
-17.97
-22.15
-26.66
-27.84
-21.86
-7.09
14.98
40.53
65.58
87.91
107.39
124.69
139.28
147.98
145.49
126.84
90.38
39.65
-17.11
-69.81
-110.07
-133.77
-141.39
-136.36
-122.8
-103.86
-81.55
-57.92
-36.13
-20.47
-15
-21.38
-37.39
-57.07
-72.94
-79.28
-74.8
-63.5
-53.15
-52.04
-65.38
-92.91
-128.65
-163.17
-187.06
-194.42
-184.8
-162.88
-136.28
-112.69
-97.25
-91.45
-93.38
-99.17
-104.59
-106.45
-103.17
-94.81
-82.68
-68.84
-55.63
-45.05
-38.25
-35.11
-34.17
-33.04
-29.28
-21.41
-9.44
5.07
19.84
32.9
43.29
51.14
56.95
60.85
62.35
60.86
56.5
50.71
46.02
45.08
49.38
58.66
70.98
83.63
93.99
100.12
100.75
95.02
82.48
63.5
39.85
14.82
-7.48
-23.48
-31.45
-32.05
-27.77
-21.61
-15.8
-11.1
-7.17
-3.3
0.8
4.77
7.88
9.41
8.84
5.84
0.17
-8.25
-19.05
-31.26
-43.51
-54.36
-62.68
-67.73
-69.14
-66.95
-61.72
-54.78
-48.04
-43.29
-41.07
-39.8
-36.22
-26.96
-10.66
10.65
32.17
48.58
56.85
57.89
55.85
55.75
60.68
70.37
81.81
91.36
96.97
99.11
100.05
102.19
106.72
113.18
120.22
126.55
131.53
135.33
138.52
141.69
145.3
149.73
155.12
161.18
166.6
168.89
164.62
150.39
124.26
86.88
41.89
-4.82
-46.78
-78.76
-98.24
-105.76
-104.18
-97.25
-88.38
-80.05
-74.03
-71.78
-74.58
-83.07
-96.5
-112.55
-127.8
-139.04
-144.57
-144.79
-141.84
-138.57
-137.35
-139.46
-145.04
-153.14
-161.86
-168.33
-169.01
-160.47
-140.38
-108.29
-65.66
-15.32
39.46
95.28
148.52
194.81
229.17
247.16
246.73
229.84
202.51
173.08
149.24
135.15
130.3
130.31
129.5
123.67
111.91
96.3
80.34
66.63
55.66
45.85
35.09
22.39
8.77
-3.14
-10.56
-12.04
-8.32
-1.92
4.09
7.39
7.17
3.97
-1.14
-7.31
-14.33
-22.47
-32.11
-43.17
-55.11
-67.19
-78.9
-90.27
-101.8
-113.84
-125.9
-136.1
-141.25
-137.6
-122.06
-93.47
-53.33
-5.9
42.43
84.37
113.16
123.97
114.83
87.14
45.54
-2.9
-49.93
-87.85
-111.12
-117.47
-108.12
-87.08
-59.68
-31
-4.7
17.43
35.09
48.74
58.86
65.64
69.15
69.78
68.37
66.14
64.04
62.3
60.11
55.72
47.2
33.11
13.42
-10.11
-34.07
-54.12
-66.11
-67.48
-58.25
-41.09
-20.38
-0.45
16
28.53
38.44
47.41
56.3
64.65
71.22
74.89
75.24
72.5
66.86
57.94
44.87
26.99
4.62
-20.52
-45.92
-69.33
-89.73
-107.61
-124.25
-140.75
-157.04
-171.72
-182.49
-187.21
-184.67
-174.84
-158.59
-137.15
-111.76
-83.7
-54.5
-26.03
-0.38
20.68
36.32
46.89
53.86
59.15
64.53
70.99
78.39
85.63
90.99
92.91
90.63
84.63
76.43
67.79
59.89
52.82
45.97
38.78
31.25
23.59
15.4
5.11
-9.27
-28.55
-50.77
-71.09
-83.68
-84.84
-75.18
-59.68
-45.15
-36.91
-36.55
-41.99
-49.54
-56.37
-61.69
-66.22
-70.81
-75.22
-78.05
-77.57
-72.88
-64.52
-54.24
-44.23
-36.11
-30.21
-25.43
-19.71
-11.01
1.67
17.72
34.95
50.38
61.41
66.75
66.81
63.19
57.86
52.24
46.75
41
34.3
26.22
16.89
7.04
-2.37
-10.34
-16.08
-19.09
-19.18
-16.43
-11.14
-3.85
4.87
14.45
24.46
34.63
44.7
54.42
63.34
70.98
76.93
81.15
84.08
86.5
89.33
93.19
98.18
103.86
109.52
114.55
118.79
122.51
126.18
130.13
134.38
138.72
142.84
146.49
149.17
149.91
146.97
138.3
122.36
99.13
70.65
40.73
13.7
-6.98
-19.7
-24.86
-24.2
-19.88
-13.86
-7.63
-2.28
1.58
3.92
5.33
6.8
9.36
13.47
18.84
24.23
27.63
26.6
18.8
3.03
-19.88
-46.52
-71.39
-88.57
-93.8
-86.28
-68.97
-47.41
-27.56
-13.84
-8.17
-10.15
-17.96
-29.08
-40.81
-50.45
-55.47
-53.89
-44.7
-28.21
-5.99
19.3
44.29
65.28
78.71
81.74
72.72
51.7
20.6
-16.84
-55.52
-89.63
-113.68
-123.67
-118.15
-98.88
-70.56
-39.58
-12.23
7.06
16.57
17.1
10.91
0.54
-11.97
-25.21
-38.23
-50.19
-60.41
-68.43
-74.09
-77.49
-78.76
-77.8
-74.33
-68.08
-59.26
-48.87
-38.73
-31.12
-28.12
-30.85
-38.86
-50.05
-61.14
-68.61
-69.76
-63.49
-50.5
-32.92
-13.55
4.92
20.47
31.98
39.06
41.86
40.79
36.4
29.12
19.18
6.59
-8.64
-26.1
-44.5
-61.57
-74.51
-80.81
-79.18
-69.92
-54.67
-35.63
-14.74
6.63
27.49
46.76
63.07
75.02
81.79
83.6
81.81
78.49
75.73
75.17
77.66
83.13
90.33
96.91
99.84
96.38
85.35
67.87
47.34
28.23
14.44
7.73
7.17
9.81
12.14
11.61
7.29
-0.29
-10.03
-21.08
-33.06
-45.72
-58.46
-70.24
-80.13
-87.96
-94.75
-102.3
-112.05
-123.82
-135.47
-143.55
-144.72
-137.11
-120.81
-97.57
-69.92
-40.44
-11.27
15.82
39.46
58.81
73.73
84.82
93.1
99.43
104.19
107.32
108.56
107.84
105.38
101.49
96.3
89.64
81.05
70.18
57.15
42.6
27.49
12.61
-1.83
-16.15
-30.7
-45.14
-57.89
-66.39
-67.93
-60.99
-46.21
-26.73
-7.46
6.33
10.73
4.55
-10.11
-28.26
-43.37
-49.36
-42.87
-24.53
0.82
25.54
41.69
43.74
30.46
5.36
-24.46
-50.72
-66.46
-68.14
-56.41
-35.55
-11.91
8.29
20.68
23.65
18.15
6.79
-7.3
-21.26
-32.9
-40.69
-43.68
-41.61
-35.01
-25.24
-14.26
-4.25
3.04
6.68
6.79
4.2
-0.25
-6.39
-15
-27.38
-44.37
-65.21
-86.97
-105.02
-114.5
-112.16
-97.74
-74.12
-46.24
-19.23
3.33
20.37
33.08
43.74
54.39
65.86
77.72
88.81
98.15
105.42
110.85
114.55
115.84
113.2
104.83
89.74
68.44
43.13
16.9
-7.15
-26.63
-40.09
-46.78
-46.63
-40.52
-30.55
-20.17
-13.42
-13.66
-22.23
-37.87
-57.15
-75.99
-91.25
-101.61
-107.55
-110.44
-111.44
-110.79
-107.84
-101.58
-91.42
-77.59
-61.08
-43.21
-25.04
-7.03
10.87
28.77
46.5
63.41
78.59
91.27
101.05
107.96
112.23
114.17
114.14
112.85
111.49
111.57
114.32
119.95
127.2
133.57
136.13
132.44
121.33
103.05
79.11
51.95
24.45
-0.53
-20.79
-35.31
-44.5
-49.85
-53.13
-55.59
-57.46
-58.08
-56.6
-52.6
-46.43
-39.04
-31.66
-25.3
-20.72
-18.39
-18.48
-20.85
-24.89
-29.67
-34.07
-37.06
-38.03
-37.11
-35.18
-33.66
-33.9
-36.46
-40.75
-45.01
-47
-44.81
-37.59
-25.78
-10.82
5.39
21.1
34.93
46.05
54.07
58.85
60.56
59.52
56.24
51.25
45.1
38.14
30.56
22.29
13.13
2.82
-8.66
-21.01
-33.54
-45.2
-54.84
-61.37
-64.04
-62.77
-58.38
-52.7
-48.29
-47.77
-52.85
-63.7
-78.56
-94.1
-106.3
-111.53
-107.46
-93.62
-71.4
-43.65
-13.85
14.82
40.16
61.2
77.97
91
100.77
107.4
110.69
110.36
106.35
98.91
88.6
76.19
62.56
48.64
35.4
23.62
13.72
5.5
-1.88
-9.56
-18.38
-28.18
-37.49
-43.74
-44.2
-37.18
-22.96
-3.9
16.32
34.02
46.68
53.57
55.52
54.24
51.48
48.55
46.08
44.07
42.01
39.07
34.33
27.08
17.2
5.18
-8
-21.26
-33.85
-45.44
-56.08
-66.02
-75.5
-84.62
-93.27
-101.17
-107.95
-113.28
-117.04
-119.29
-120.24
-119.98
-118.29
-114.63
-108.37
-99.05
-86.82
-72.43
-57.05
-41.85
-27.61
-14.6
-2.62
8.71
19.8
30.9
42.13
53.47
64.82
76.1
87.24
98.22
108.91
119.08
128.45
136.95
145
153.58
163.95
176.91
192.2
208.16
222.29
232.17
236.44
235.17
229.47
220.63
209.38
195.68
179.08
159.3
136.62
111.81
85.81
59.32
32.84
6.98
-17.18
-37.78
-52.46
-59.02
-56.39
-45.44
-29.24
-12.56
-0.67
2.23
-5.84
-24.28
-50.58
-81.49
-114.11
-146.37
-176.73
-203.73
-225.64
-240.7
-247.7
-246.57
-238.45
-225.27
-209.03
-191.18
-172.55
-153.5
-134.49
-116.22
-99.6
-85.42
-73.88
-64.38
-55.53
-45.62
-33.16
-17.58
0.44
18.88
34.81
45.29
48.42
44.12
34.37
22.53
12.05
5.15
1.99
0.91
-0.57
-4.5
-11.71
-21.75
-33.42
-45.58
-57.59
-69.24
-80.49
-91.1
-100.63
-108.57
-114.66
-118.89
-121.54
-122.93
-123.32
-122.78
-121.34
-119.05
-116.04
-112.61
-109.06
-105.61
-102.25
-98.74
-94.76
-89.98
-84.31
-77.69
-70.1
-61.35
-51.17
-39.29
-25.61
-10.23
6.66
24.9
44.43
65.1
86.37
107.16
125.97
141.36
152.61
160.11
165.25
169.86
175.34
182.2
189.98
197.82
204.94
210.81
214.95
216.4
213.69
205.32
190.7
170.89
148.58
127.09
108.94
94.84
83.59
73.09
61.67
49.07
36.42
25.36
16.85
10.47
4.51
-3.18
-14.16
-28.74
-45.85
-63.48
-78.96
-89.41
-91.95
-84.28
-65.65
-37.93
-5.93
23.52
43.63
50.08
42.49
24.37
1.35
-20.92
-38.42
-49.13
-52.58
-49.13
-39.62
-25.58
-9.31
6.49
19.42
28.3
33.47
36.45
39
42.29
46.35
50.25
52.72
52.71
49.94
45
39.11
33.67
29.76
27.81
27.51
27.97
28.19
27.46
25.77
23.97
23.71
26.99
35.59
50.33
70.52
93.68
116.01
133.31
142.39
142.08
133.63
120.07
104.93
90.94
79.39
70.26
62.96
56.93
51.83
47.38
42.97
37.73
30.88
22.27
12.46
2.5
-6.56
-14.15
-20.17
-24.85
-28.47
-31.2
-33.17
-34.54
-35.47
-36.12
-36.59
-37.09
-37.99
-39.82
-42.95
-47.19
-51.55
-54.39
-54.02
-49.54
-41.35
-31.25
-21.79
-15.32
-13.08
-14.82
-19.14
-24.36
-29.43
-34.4
-40.13
-47.63
-57.16
-67.93
-78.35
-86.85
-92.58
-95.88
-98.06
-100.86
-105.84
-114
-125.51
-139.56
-154.06
-165.49
-169.35
-161.45
-139.75
-105.83
-65.25
-26.13
3.43
18.09
16.78
2.53
-19.29
-43.1
-64.64
-81.45
-92.38
-97.04
-95.48
-88.41
-77.53
-65.36
-54.7
-47.52
-44.41
-44.27
-44.9
-43.94
-39.82
-32.35
-22.64
-12.61
-4.25
1.13
3.31
3.18
2.33
2.45
4.62
8.83
14.08
18.83
21.7
22.09
20.38
17.72
15.56
14.95
16.08
18.24
20.19
20.83
19.83
17.94
16.78
18.31
23.92
33.76
46.41
59.26
69.21
73.55
70.74
60.8
45.18
26.37
7.37
-8.99
-20.42
-25.19
-22.21
-11.07
7.63
31.96
58.48
82.76
100.25
107.58
103.69
90.16
70.7
50.07
32.53
20.77
15.36
14.85
16.45
17.18
14.78
8.38
-1.41
