-0
-0
-0
-0
-0
-0
-0
-0
-0
-0
0
0.01
0.01
-0
-0.03
-0.05
-0.05
0
0.13
0.36
0.66
1.01
1.37
1.72
2.06
2.4
2.79
3.24
3.8
4.42
5.06
5.66
6.2
6.68
7.15
7.68
8.31
9.14
10.09
11.04
11.88
12.56
13.14
13.76
14.65
15.96
17.91
20.32
22.9
25.38
27.58
29.57
31.68
34.32
37.81
42.54
48.15
54.1
59.83
64.97
69.58
74.14
79.34
85.71
93.76
103
112.62
121.73
129.77
136.75
143.3
150.75
157.77
166.64
177.95
191.79
206.97
220.57
228.25
225.36
208.53
176.87
132.76
80.05
23.07
-34.94
-92.44
-149.16
-205.23
-260.37
-313.74
-363.87
-409.83
-450.91
-486.5
-515.74
-537.23
-549.22
-549.96
-538.37
-514.21
-478.67
-433.88
-382.45
-327.02
-269.84
-212.63
-156.66
-102.95
-52.37
-5.9
35.58
71.43
101.35
125.5
144.38
158.69
169.15
176.37
180.75
182.57
182.07
179.51
175.23
169.65
163.18
156.15
148.81
141.3
133.69
126.02
118.33
110.69
103.16
95.8
88.68
81.83
75.25
68.95
62.95
57.25
51.86
46.78
42.03
37.59
33.45
29.61
26.07
22.81
19.83
17.11
14.67
12.48
10.54
8.83
7.35
6.07
4.97
4.05
3.27
2.62
2.09
1.65
1.3
1.01
0.79
0.61
0.48
0.37
0.29
0.24
0.2
0.18
0.18
0.18
0.19
0.21
0.23
0.27
0.32
0.38
0.43
0.47
0.48
0.46
0.41
0.36
0.33
0.34
0.39
0.47
0.55
0.61
0.63
0.63
0.63
0.67
0.78
0.96
1.17
1.37
1.52
1.59
1.61
1.64
1.76
2.05
2.48
2.98
3.42
3.68
3.71
3.59
3.47
3.56
4
4.79
5.76
6.6
7.05
7
6.58
6.13
6.03
6.58
7.76
9.25
10.52
11.05
10.56
9.15
7.22
5.22
3.43
1.81
-0.06
-2.7
-6.58
-12.04
-19.11
-27.63
-36.97
-45.87
-52.44
-54.66
-51.16
-41.98
-28.9
-14.83
-2.82
5.19
8.91
9.47
8.54
7.45
6.7
6.09
5.29
4.23
3.19
2.57
2.52
2.75
2.74
1.99
0.31
-1.94
-4.01
-5.07
-4.51
-2.2
1.41
5.52
9.21
11.74
12.78
12.35
10.77
8.43
5.64
2.52
-0.88
-4.52
-8.23
-11.72
-14.65
-16.8
-18.14
-18.9
-19.44
-20.16
-21.3
-22.91
-24.83
-26.9
-28.94
-30.9
-32.89
-35.1
-37.62
-40.36
-42.91
-44.39
-43.77
-40.17
-33.08
-22.58
-9.31
5.73
21.4
36.61
50.44
62.08
70.88
76.38
78.41
77.2
73.36
67.75
61.31
54.84
48.82
43.46
38.68
34.28
30.1
26.06
22.27
18.83
15.85
13.23
10.68
7.74
3.91
-1.25
-7.93
-15.96
-24.78
-33.4
-40.57
-45.03
-45.84
-42.67
-35.92
-26.6
-16.06
-5.61
3.76
11.46
17.22
20.91
22.54
22.25
20.38
17.52
14.38
11.61
9.59
8.33
7.51
6.68
5.42
3.55
1.12
-1.6
-4.28
-6.67
-8.74
-10.69
-12.9
-15.81
-19.72
-24.56
-29.81
-34.59
-37.86
-38.7
-36.57
-31.46
-23.82
-14.38
-3.99
6.56
16.59
25.49
32.72
37.89
40.75
41.36
40.03
37.31
33.87
30.34
27.18
24.62
22.65
21.1
19.71
18.19
16.3
13.91
10.95
7.5
3.66
-0.42
-4.64
-8.92
-13.28
-17.78
-22.46
-27.25
-31.92
-35.99
-38.79
-39.66
-38.08
-33.93
-27.5
-19.44
-10.52
-1.44
7.26
15.18
21.93
27.13
30.46
31.72
31.03
28.78
25.59
22.1
18.86
16.18
14.11
12.53
11.19
9.84
8.24
6.31
4.04
1.5
-1.21
-4.05
-6.99
-10.04
-13.24
-16.63
-20.31
-24.42
-29.09
-34.24
-39.5
-44.11
-47.09
-47.46
-44.57
-38.38
-29.44
-18.81
-7.71
2.74
11.72
18.75
23.69
26.6
27.69
27.3
25.8
23.66
21.28
18.99
16.98
15.25
13.71
12.19
10.56
8.75
6.73
4.47
1.95
-0.83
-3.83
-6.98
-10.19
-13.45
-16.84
-20.53
-24.68
-29.38
-34.47
-39.6
-44.14
-47.26
-48.08
-45.91
-40.42
-31.87
-21.04
-9.03
2.94
13.89
23.13
30.3
35.23
37.92
38.48
37.22
34.6
31.29
27.9
24.9
22.49
20.52
18.72
16.74
14.38
11.64
8.71
5.77
2.93
0.12
-2.87
-6.26
-10.17
-14.53
-19.15
-23.86
-28.57
-33.26
-37.81
-41.95
-45.08
-46.43
-45.26
-41.08
-33.91
-24.32
-13.36
-2.25
7.87
16.17
22.29
26.25
28.3
28.73
27.78
25.67
22.71
19.32
16.09
13.61
12.27
12.12
12.83
13.82
14.38
14.06
12.67
10.39
7.65
4.86
2.36
0.25
-1.55
-3.27
-5.18
-7.54
-10.65
-14.68
-19.62
-25.1
-30.35
-34.26
-35.72
-33.9
-28.6
-20.28
-9.9
1.4
12.52
22.65
31.21
37.8
42.17
44.18
43.87
41.54
37.68
32.95
28.05
23.59
19.94
17.24
15.35
13.96
12.76
11.5
10.14
8.8
7.66
6.86
6.37
5.94
5.15
3.53
0.66
-3.67
-9.46
-16.38
-23.78
-30.75
-36.24
-39.23
-38.96
-35.1
-27.85
-17.93
-6.38
5.58
16.86
26.58
34.18
39.41
42.28
43.01
41.97
39.67
36.62
33.36
30.32
27.77
25.78
24.26
22.99
21.77
20.5
19.18
17.94
16.88
16.08
15.51
15.08
14.61
13.89
12.62
10.44
7.01
2.21
-3.69
-9.92
-15.36
-18.88
-19.69
-17.58
-12.99
-6.78
0.05
6.6
12.16
16.23
18.51
18.87
17.45
14.64
11.07
7.47
4.46
2.41
1.38
1.12
1.17
1.01
0.22
-1.38
-3.62
-6.12
-8.37
-10.05
-11.17
-12.09
-13.39
-15.57
-18.87
-23.21
-28.22
-33.39
-38.06
-41.52
-43.03
-41.97
-38.03
-31.44
-22.96
-13.73
-4.93
2.45
7.85
11.13
12.36
11.78
9.62
6.25
2.15
-2.08
-5.81
-8.63
-10.47
-11.61
-12.53
-13.66
-15.15
-16.8
-18.21
-19.06
-19.28
-19.16
-19.21
-19.93
-21.66
-24.41
-27.97
-31.89
-35.5
-38.02
-38.57
-36.52
-31.6
-24.13
-14.98
-5.33
3.64
11.1
16.59
20.05
21.56
21.29
19.43
16.26
12.23
7.99
4.23
1.52
0.11
-0.12
0.41
1.16
1.65
1.65
1.05
-0.11
-1.82
-4.1
-7.04
-10.67
-14.98
-19.78
-24.69
-29.13
-32.34
-33.54
-32.17
-28.03
-21.39
-12.97
-3.76
5.28
13.34
19.91
24.73
27.73
29.01
28.74
27.19
24.69
21.63
18.4
15.33
12.61
10.24
8.08
5.96
3.76
1.49
-0.67
-2.59
-4.22
-5.67
-7.24
-9.22
-11.85
-15.19
-19.04
-22.95
-26.3
-28.31
-28.34
-25.99
-21.3
-14.73
-7.09
0.76
8.06
14.28
19.14
22.47
24.19
24.31
22.94
20.44
17.3
14.1
11.32
9.24
7.88
6.98
6.19
5.18
3.81
2.1
0.28
-1.43
-2.86
-4.12
-5.52
-7.52
-10.58
-14.92
-20.32
-26.11
-31.19
-34.37
-34.7
-31.84
-26.13
-18.56
-10.38
-2.77
3.47
7.92
10.6
11.78
11.96
11.78
11.85
12.62
14.16
16.12
17.88
18.81
18.62
17.36
15.44
13.32
11.39
9.81
8.56
7.51
6.42
5.02
2.9
-0.27
-4.75
-10.52
-17.24
-24.18
-30.38
-34.76
-36.4
-34.75
-29.81
-22.15
-12.75
-2.74
6.86
15.31
22.1
26.96
29.68
30.24
28.81
25.81
21.91
17.86
14.28
11.47
9.38
7.72
6.15
4.46
2.61
0.71
-1.15
-2.93
-4.65
-6.38
-8.13
-9.93
-11.82
-13.96
-16.52
-19.56
-22.74
-25.31
-26.19
-24.39
-19.43
-11.57
-1.77
8.71
18.66
27.33
34.37
39.67
43.14
44.64
44.06
41.51
37.53
32.97
28.77
25.64
23.8
22.98
22.55
21.79
20.18
17.54
14
9.89
5.52
1.12
-3.25
-7.64
-12.12
-16.76
-21.53
-26.39
-31.18
-35.66
-39.41
-41.84
-42.24
-40.02
-34.92
-27.17
-17.57
-7.26
2.52
10.69
16.58
19.91
20.8
19.63
16.96
13.4
9.58
6.02
3.09
0.9
-0.64
-1.8
-2.96
-4.34
-6.04
-7.85
-9.48
-10.62
-11.24
-11.66
-12.45
-14.23
-17.39
-21.92
-27.33
-32.72
-36.98
-38.89
-37.51
-32.31
-23.48
-11.93
0.89
13.36
24.17
32.58
38.48
42.12
43.86
43.92
42.42
39.54
35.64
31.27
26.99
23.19
19.95
17.05
14.15
11.02
7.67
4.3
1.24
-1.27
-3.14
-4.61
-6.08
-8.01
-10.85
-14.78
-19.78
-25.52
-31.43
-36.66
-40.28
-41.39
-39.4
-34.25
-26.48
-17.1
-7.3
1.89
9.84
16.3
21.23
24.61
26.29
26.21
24.49
21.58
18.23
15.18
12.91
11.44
10.39
9.12
7.14
4.26
0.72
-2.99
-6.35
-9.08
-11.17
-12.93
-14.78
-17.12
-20.23
-24.18
-28.83
-33.68
-37.93
-40.55
-40.53
-37.27
-30.8
-21.87
-11.72
-1.71
7.11
14.13
19.18
22.35
23.78
23.67
22.25
20
17.45
15.11
13.18
11.5
9.59
6.96
3.36
-0.97
-5.44
-9.37
-12.29
-14.2
-15.44
-16.48
-17.68
-19.12
-20.69
-22.22
-23.65
-24.94
-26.01
-26.63
-26.36
-24.79
-21.64
-16.99
-11.28
-5.2
0.43
4.81
7.27
7.41
5.21
1.17
-3.84
-8.78
-12.86
-15.83
-18.15
-20.84
-25.14
-32.14
-42.38
-55.46
-69.77
-82.41
-89.77
-88.65
-77.66
-58.2
-34.5
-12.29
3.22
9.24
6.04
-3.75
-16.8
-30.66
-44.33
-57.75
-70.78
-82.52
-91.52
-96.51
-97.41
-95.29
-91.92
-88.71
-85.91
-82.43
-76.36
-65.85
-49.85
-28.42
-2.4
27.14
59.48
94.39
131.95
172.04
213.74
254.96
292.44
322.06
339.56
341.4
325.72
293.07
246.76
192.47
137.17
87.64
48.83
22.86
8.89
3.84
3.58
4.17
2.68
-2.35
-11.1
-22.75
-35.82
-48.46
-58.8
-65.29
-67.31
-65.62
-62.46
-61.02
-64.33
-73.92
-89
-106.34
-121.21
-128.86
-125.91
-111.08
-85.34
-51.49
-13.69
22.95
52.89
71.31
75.25
64.69
42.96
16.3
-7.63
-21.77
-22.05
-8.79
13.19
36.5
54.02
61.62
59.3
50.27
38.61
26.82
14.71
0.15
-18.96
-42.7
-68.36
-90.98
-104.78
-104.57
-86.87
-50.69
1.56
63.69
126.33
178.95
212.77
223.44
212.15
184.38
147.09
105.61
61.86
14.37
-40.05
-103.93
-177.18
-256.16
-334.16
-403.01
-455.28
-486.35
-495.44
-485.42
-461.3
-428.32
-390.24
-349.07
-305.78
-261.38
-217.46
-175.63
-136.37
-98.03
-57.22
-10.33
44.37
105.64
169.63
231.47
287.26
334.97
374.03
404.15
424.61
434.5
433.78
424.02
407.91
387.76
363.84
334.12
295.75
247.67
192.51
136.5
87.26
50.59
28.31
17.93
14.5
13.15
10.89
7.07
2.35
-2.66
-8.25
-15.4
-24.93
-36.48
-48.26
-57.9
-63.65
-65.44
-64.94
-64.82
-67.37
-73.48
-82.35
-92.03
-100.38
-105.82
-107.68
-105.94
-100.86
-92.63
-81.43
-67.59
-51.91
-35.75
-20.85
-8.95
-1.34
1.43
-0.31
-5.45
-12.35
-19.03
-23.51
-24.02
-19.45
-9.75
3.91
19.22
33.43
44.21
50.51
53
53.77
55.52
60.46
69.58
82.61
98.59
116.72
136.85
159.16
183.41
207.99
229.63
244.06
247.38
237.57
215.1
182.56
143.34
100.19
54.59
7.41
-39.85
-84.14
-121.1
-146.58
-158.54
-158.21
-149.6
-137.63
-125.76
-114.56
-102
-85.33
-63.5
-38.69
-16.28
-3.05
-4.96
-25.33
-64.38
-119.75
-187.4
-262.12
-337.74
-407.15
-462.95
-498.81
-511.42
-501.83
-475.53
-440.73
-405.67
-375.89
-352.82
-334.16
-315.79
-293.95
-266.97
-235.61
-202.23
-169.36
-138.43
-109.39
-81.08
-52.38
-22.88
6.94
36.39
65.44
94.91
125.94
158.76
191.97
222.72
248.07
266.7
279.71
290.17
301.38
315.2
331.4
348.43
365.01
381.26
398.54
418.04
439.35
459.9
476
484.77
485.87
481.73
476.21
472.48
471.09
469.48
463.22
448.18
422.53
387.52
346.75
304.42
263.65
225.59
189.71
154.83
120.1
85.25
50.33
15.25
-20.3
-56.37
-92.25
-126.18
-155.87
-179.38
-196.03
-206.76
-213.87
-220.3
-228.8
-241.42
-259.13
-281.75
-308
-335.72
-362.34
-385.53
-403.88
-417.17
-426.26
-432.4
-436.53
-438.86
-438.73
-435.01
-426.62
-413.03
-394.43
-371.64
-345.81
-318.1
-289.55
-261.26
-234.68
-211.74
-194.57
-184.57
-181.59
-183.36
-185.87
-184.51
-175.64
-157.7
-131.32
-98.77
-62.86
-26.17
9.21
41.67
69.94
93.27
111.54
125.48
136.36
145.48
153.59
160.65
165.97
168.7
168.32
164.92
159.37
153.14
147.98
145.5
146.57
150.96
157.31
163.73
168.62
171.56
173.61
176.87
183.42
194.18
208.21
222.96
235.13
241.77
241.06
232.62
217.33
197.16
175.09
155.12
141.84
139.5
150.69
175.08
209.24
247.41
283.38
312.28
331.84
342.26
345.32
342.89
336.02
324.68
308.35
286.88
261.04
232.54
203.44
175.3
148.65
122.98
97.25
70.69
43.36
16.09
-10.04
-34.4
-57.31
-79.99
-104.05
-130.92
-161.4
-195.45
-232.08
-269.17
-303.58
-331.49
-349.22
-354.3
-346.26
-326.9
-299.59
-268.19
-235.91
-204.81
-175.9
-149.68
-126.67
-107.43
-92.3
-80.91
-71.9
-63.29
-53.13
-40.43
-25.68
-11.01
0.62
6.54
5.63
-1.06
-10.53
-18.94
-23.09
-21.59
-15.44
-7.47
-1.16
0.76
-2.66
-10.35
-19.82
-28.2
-33.17
-33.36
-28.25
-17.92
-2.98
15.35
35.04
53.63
69
80.25
88.17
94.69
101.61
109.07
115
115.83
108.25
91.04
65.93
37.04
9.38
-12.99
-28.01
-35.75
-37.83
-36.35
-33.25
-30.16
-28.72
-30.84
-38.39
-52.25
-70.98
-90.31
-104.12
-106.94
-96.83
-77.22
-56.31
-43.84
-47.23
-68.74
-105.54
-152.11
-203.54
-257.39
-313.09
-369.66
-423.6
-468.78
-498.48
-508.43
-499.01
-475.11
-443.95
-412.15
-383.49
-358.48
-335.56
-312.83
-289.43
-265.86
-243.38
-223.08
-205.25
-189.25
-173.82
-157.65
-139.85
-120.14
-98.77
-76.25
-53.01
-29.18
-4.56
21.24
48.57
77.45
107.51
138.17
168.97
199.83
230.87
261.82
291.39
317.06
335.63
344.57
343.3
333.89
320.43
307.57
298.72
295.06
295.57
297.85
299.21
297.16
289.5
274.09
249.03
213.3
167.56
114.79
59.99
9.26
-31.78
-59.38
-72.51
-72.83
-63.73
-49.08
-31.9
-13.79
4.98
24.68
45.18
65.53
84.07
99.15
109.86
116.31
119.39
120.24
119.73
118.38
116.72
115.53
115.94
119.03
125.21
133.93
143.79
153.27
161.46
168.43
175
182.12
190.02
198.01
204.57
208.17
207.96
204.18
198
191.03
184.77
180.29
178.13
178.44
180.86
184.32
186.74
185.11
176.16
157.49
128.82
92.62
53.81
18.5
-7.67
-20.92
-20.08
-6.5
16.41
43.91
70.73
91.82
103.31
103.22
92.03
72.51
49.03
26.37
8.5
-2.19
-5.26
-2.14
4.36
10.75
13.64
10.71
1.15
-14.21
-33.44
-54.39
-75.42
-95.74
-115.19
-133.68
-150.68
-165.09
-175.57
-181.12
-181.55
-177.63
-170.85
-162.94
-155.45
-149.4
-145.14
-142.37
-140.29
-137.87
-134.2
-128.8
-121.75
-113.53
-104.66
-95.49
-86.01
-76.01
-65.2
-53.03
-38.62
-20.8
1.15
26.45
51.95
72.25
81.09
73.57
47.99
6.45
-46.22
-104.4
-163.42
-220.14
-272.19
-317.02
-351.47
-372.58
-378.96
-371.84
-355
-333.61
-312.63
-295.55
-284.18
-278.95
-279.42
-284.39
-291.61
-297.67
-298.46
-290.3
-271.22
-241.81
-205.07
-165.26
-126.4
-91.16
-60.4
-33.65
-9.65
13.08
36.01
60.57
87.63
117.01
146.75
173.19
191.93
199.53
194.98
180.24
159.44
137.13
116.62
99.29
85.06
73.56
65.22
61.44
63.94
73.73
90.28
111.54
134.44
155.84
173.33
185.69
192.9
195.72
195.16
191.88
185.96
177.07
164.89
149.66
132.31
114.21
96.58
79.96
64.16
48.59
32.99
17.89
4.54
-5.67
-12
-14.94
-16
-17.16
-19.88
-24.47
-30.02
-34.65
-36.26
-33.06
-24.03
-9.07
11.07
35.05
61.36
88.68
116.04
142.83
168.65
193.04
215.48
235.21
251.16
261.8
264.98
258.21
239.37
207.98
166.16
118.81
72.31
32.3
1.53
-21.25
-40.54
-62.14
-90.81
-128.78
-175.5
-228.47
-284.23
-339.03
-388.86
-429.45
-456.68
-467.56
-461.44
-440.66
-410.07
-375.56
-342.24
-313.02
-288.16
-266.01
-244.22
-221
-195.76
-168.95
-141.48
-114.01
-86.53
-58.22
-27.79
6.17
44.62
87.52
133.35
179.08
220.57
253.59
274.97
283.62
280.78
269.58
253.92
237.29
221.81
208.11
195.66
183.66
171.77
160.54
151.36
145.96
145.89
151.98
164.06
180.93
200.44
219.68
235.25
243.77
242.43
229.69
205.81
173.04
135.27
97.37
64.2
39.68
26.1
23.64
30.42
42.89
56.61
67.19
71.21
66.8
53.86
33.84
9.14
-17.56
-43.89
-68.13
-89.14
-106.02
-117.89
-123.82
-123.03
-115.24
-100.82
-80.66
-55.94
-27.76
2.92
35.08
67.3
97.52
123.11
141.41
150.34
149.05
138.21
119.72
96.23
70.3
43.94
18.34
-5.83
-27.91
-46.63
-60.03
-65.87
-62.55
-50.05
-30.39
-7.24
15.2
33.51
45.98
52.77
55.23
55.02
53.41
51.17
48.8
46.85
45.84
45.96
46.79
47.33
46.43
43.4
38.2
31.35
23.39
14.43
4
-8.69
-24.26
-42.83
-64.01
-87.19
-112.06
-138.86
-168.43
-201.86
-240.03
-282.93
-329.22
-375.9
-418.59
-452.33
-472.84
-477.69
-466.99
-443.23
-410.25
-372.1
-331.95
-291.81
-252.79
-215.68
-181.25
-150.21
-122.76
-98.33
-75.44
-52.09
-26.36
2.86
35.39
69.48
102.02
129.34
148.34
157.53
157.68
151.63
143.25
136.06
132.09
131.48
132.93
134.7
135.46
134.66
132.24
128.14
122.14
114.13
104.72
95.6
89.31
88.22
93.28
103.27
115.04
124.7
129.11
126.82
118.11
104.21
86.49
66.07
44.13
22.44
3.47
-9.95
-15.49
-11.89
0.8
21.44
48.13
78.32
108.76
135.6
155.02
164.29
162.83
152.56
137.41
122.02
110.37
104.86
106.01
112.87
123.52
135.62
146.87
155.47
160.44
161.81
160.35
156.97
152.07
145.31
135.88
123.18
107.62
90.76
75.05
62.99
56.29
55.26
58.62
63.65
66.84
64.65
54.56
35.78
9.45
-21.91
-55.41
-88.77
-120.7
-150.66
-178.13
-202.19
-221.69
-235.82
-244.69
-249.2
-250.3
-248.09
-241.4
-228.43
-207.89
-180.11
-147.39
-113.25
-81.21
-53.64
-31.51
-14.7
-2.95
3.71
4.95
0.84
-7.4
-17.05
-24.34
-25.61
-18.82
-4.62
13.5
30.13
39.6
37.81
23.4
-1.86
-33.86
-67.23
-96.7
-117.83
-127.37
-123.27
-104.81
-73.12
-31.71
13.44
54.9
85.68
101.46
102
90.82
73.38
54.53
36.72
19.73
2.02
-17.65
-39.04
-60.59
-80.23
-96.44
-108.61
-116.62
-120.33
-119.13
-112.24
-99.25
-80.75
-58.47
-34.94
-12.72
6.39
21.83
34.34
45.42
56.63
68.87
82.04
95.21
107.02
116.18
121.79
123.56
121.64
116.71
109.81
102.16
94.95
88.95
84.46
81.34
79.28
78.13
77.91
78.68
80.28
82.29
84.28
86.28
89.13
94.33
103.32
116.5
132.56
148.6
161.2
167.56
166.36
157.74
142.52
121.55
95.47
65.16
32.4
-0.07
-29.45
-54.13
-74.67
-93.65
-114.14
-137.81
-163.65
-188.07
-206.38
-214.81
-212.03
-199.56
-181.11
-161.11
-143.34
-130.13
-122.22
-119.14
-119.75
-122.67
-126.44
-129.63
-130.88
-129.16
-123.97
-115.54
-104.83
-93.12
-81.65
-71.03
-61.1
-51
-39.72
-26.52
-11.36
5.15
21.98
38.08
52.62
65.18
75.57
83.72
89.49
92.62
92.71
89.38
82.36
71.8
58.46
43.84
29.88
18.47
10.86
7.37
7.47
10.33
15.2
21.55
28.85
36.35
42.94
47.45
48.98
47.32
42.94
36.78
29.98
23.67
18.92
16.57
17.03
20.01
24.32
28.07
29.32
26.81
20.53
11.73
2.34
-5.82
-11.79
-15.59
-17.97
-19.77
-21.48
-23.17
-24.66
-25.97
-27.4
-29.45
-32.32
-35.61
-38.25
-38.88
-36.51
-31.15
-23.91
-16.73
-11.66
-10.2
-12.88
-19.35
-28.62
-39.54
-51.06
-62.38
-72.94
-82.4
-90.63
-97.71
-103.92
-109.52
-114.77
-119.81
-124.77
-129.83
-135.26
-141.21
-147.64
-154.19
-160.32
-165.48
-169.35
-172.08
-174.29
-177.1
-182.03
-190.69
-204.1
-222.01
-242.2
-260.55
-271.95
-271.73
-257.25
-228.69
-188.6
-140.83
-89.05
-36.17
15.46
63.28
104.15
135.04
154.37
163.06
164.4
162.67
161.07
160.64
160.67
160.44
161.06
166.14
180.56
208.17
249.58
301.36
356.81
407.74
446.48
467.26
467.18
446.79
410.11
364.15
317.43
277.98
251.26
238.79
238.07
243.6
248.89
248.2
238.04
217.58
188.52
154.44
119.45
87.4
60.98
41.11
26.85
15.96
6.02
-4.58
-16.18
-28.21
-39.7
-49.88
-58.78
-67.26
-76.48
-87.22
-99.37
-112.04
-124.52
-136.04
-145.91
-153.76
-159.85
-164.99
-170.13
-175.76
-181.76
-188.94
-197.1
-204.63
-209.2
-209.34
-205.14
-197.98
-189.6
-181.75
-178.67
-182.46
-191.48
-201.44
-208.48
-211.08
-209.9
-206.45
-202.63
-204.36
-214.2
-228.93
-241.29
-245.2
-238.96
-225.38
-210.04
-200.89
-212.28
-253.83
-324.96
-415
-508.87
-592.18
-654.44
-690.18
-658.45
-546.28
-378.65
-203.36
-56.76
50.37
123.85
170.17
200.41
219.6
224.49
215.28
199.35
188.78
190.07
203.89
225.98
250.84
273.47
286.9
289.06
284.37
281.24
286.86
304.6
333.57
369.9
406.59
432.47
438.69
422.97
390.7
352.06
318.16
296.85
290.34
293.9
296.84
288.16
260.9
213.72
149.72
74.8
-3.81
-78.1
-140.11
-183.2
-202.75
-197.39
-170.22
-128.83
-83.66
-45.03
-19.85
-9.66
-10.36
-14.28
-13.34
-2.46
18.78
46.35
73.92
95.56
107.82
110.11
103.7
90.44
71.99
50.32
28.58
11.57
4.82
12.58
35.63
70.37
109.72
145.48
171.01
182.89
181
167.38
144.75
115.61
82.05
46.04
9.73
-24.63
-55.11
-80.56
-100.85
-116.84
-129.93
-141.54
-152.61
-163.41
-173.57
-182.38
-189.19
-193.71
-196.06
-196.68
-196.17
-195.15
-194.29
-194.31
-195.89
-199.28
-203.88
-207.91
-208.6
-202.76
-187.71
-162.21
-127.04
-85.02
-40.38
2.27
39.01
67.46
86.94
98.15
102.55
101.79
97.46
91.09
84.24
78.48
74.98
74.09
75.12
76.57
76.9
75.21
71.72
67.44
63.54
60.62
58.39
55.89
52.08
46.42
39.06
30.68
22.03
13.54
5.36
-2.48
-9.71
-15.67
-19.43
-20.2
-17.64
-11.99
-4.02
5.28
14.84
23.61
30.55
34.74
35.61
33.28
28.63
23.13
18.34
15.25
14.03
14.14
14.76
15.35
15.83
16.52
17.83
20.15
23.86
29.39
37.13
47.07
58.37
69.32
77.64
81.36
79.65
73.33
64.72
56.96
53
54.88
63.26
77.56
96.57
119.16
144.76
172.99
203.02
232.5
257.36
272.4
272.85
255.79
220.87
170.09
107.3
37.94
-30.89
-90.54
-132.19
-149.35
-140.75
-111.79
-73.39
-38.34
-16.77
-12.98
-24.72
-45.16
-66.02
-80.6
-85.43
-80.47
-68.58
-54.38
-43.15
-39.56
-46.53
-64.54
-91.39
-122.82
-153.52
-178.55
-194.44
-200.08
-196.9
-188.4
-179.14
-173.51
-174.59
-183.3
-198.23
-215.89
-231.66
-241.07
-241.17
-231.48
-214.08
-192.93
-172.28
-155.12
-142.11
-131.54
-120.32
-105.52
-85.76
-61.79
-36.19
-12.28
7.05
20.15
26.88
28.44
27.02
25.57
27.41
35.5
51.23
73.34
97.52
117.56
127.7
125.21
111.79
92.96
75.68
65.42
64.46
71.9
85.3
102.38
122.01
143.66
166.39
188.08
205.84
217.34
222.13
222.08
220.52
220.5
222.99
226.21
226.24
218.65
200.45
171.35
133.97
93.04
53.9
20.98
-3.26
-18.72
-27.43
-32.9
-39.26
-50.13
-67.58
-91.25
-117.94
-141.97
-156.64
-156.45
-139.54
-109.03
-72.71
-40.88
-23.03
-24.77
-46.14
-81.98
-123.9
-162.86
-191.31
-204.44
-200.54
-180.87
-149.41
-112.11
-75.7
-46.01
-26.51
-17.75
-18.05
-24.92
-36.41
-51.47
-69.2
-87.61
-102.95
-110.22
-104.93
-85.05
-52.15
-10.97
32.06
70.8
100.76
119.54
126.48
122.12
107.95
86.4
60.86
35.41
14.12
0.09
-5.28
-2.46
6.64
19.58
34.09
48.39
61.14
71.2
77.58
79.61
77.23
71.2
62.98
54.32
46.89
41.85
39.78
40.65
43.74
47.63
50.3
49.62
44.11
33.82
20.54
7.44
-2.1
-5.65
-2.4
6.81
20.21
35.8
51.71
66.21
77.52
83.9
84.28
78.92
69.76
59.95
52.82
50.46
52.74
57.25
60.09
57.27
46.13
26
-1.61
-33.66
-66.43
-96.24
-120.08
-135.98
-143.1
-141.82
-133.47
-120.01
-103.5
-85.61
-67.35
-49.05
-30.65
-12.19
5.87
22.48
36.19
45.52
49.46
47.9
41.79
33.02
23.97
16.83
12.82
11.87
12.59
12.84
10.56
4.42
-5.79
-19.48
-35.71
-53.72
-73.12
-93.57
-114.41
-134.36
-151.74
-164.93
-172.85
-175.1
-171.64
-162.22
-145.9
-121.23
-86.98
-43.36
7.12
59.67
108.38
148.08
176
192.45
200.13
202.67
203.07
202.78
201.93
199.98
196.38
190.88
183.34
173.52
161.23
146.6
130.45
114.14
98.99
85.51
72.97
59.58
43.17
22.17
-3.61
-32.82
-62.85
-90.59
-113.31
-129.26
-137.91
-139.65
-135.2
-124.91
-108.55
-85.58
-55.95
-20.9
16.79
53.28
84.62
107.86
121.49
125.39
120.3
107.35
87.89
63.52
36.32
8.66
-17.27
-40.02
-59.26
-75.71
-90.58
-104.95
-119.27
-133.32
-146.47
-158.15
-168.24
-176.98
-184.7
-191.14
-195.17
-194.97
-188.7
-175.38
-155.51
-130.99
-104.53
-78.67
-55.22
-35.12
-18.75
-6.38
1.77
5.67
5.92
3.85
1.31
0.04
1.16
4.85
10.56
17.36
24.28
30.57
35.69
39.31
41.27
41.57
40.26
37.41
32.94
26.65
18.34
8
-4.01
-16.8
-29.01
-39.12
-45.74
-48.03
-45.77
-39.32
-29.32
-16.42
-1.29
15.28
32.12
47.68
60.48
69.69
75.7
80.11
85.08
92.32
102.28
113.9
125.15
134.15
140.11
143.88
147.68
154.52
167.21
187.69
216.37
251.9
291.06
329.15
360.77
381.04
386.74
377.03
353.45
319.12
277.39
230.93
181.53
130.83
81.37
37
2.21
-19.62
-28.03
-26.31
-20.68
-18.18
-24.1
-40.42
-65.78
-96.75
-129.61
-161.63
-191.29
-217.81
-240.46
-258.22
-270.05
-275.4
-274.61
-268.98
-260.39
-250.49
-239.97
-228.27
-213.97
-195.75
-173.46
-148.73
-124.63
-104.5
-90.52
-82.7
-78.93
-76.03
-71.19
-63.2
-52.75
-41.9
-32.82
-26.57
-22.39
-17.8
-9.45
5.4
27.33
53.89
79.95
99.24
106.79
100.95
84.09
61.55
39.19
20.84
7.01
-4.61
-17.18
-32.65
-50.71
-69.3
-86.01
-99.32
-108.63
-113.39
-112.26
-103
-83.62
-53.76
-15.45
27.69
72.27
116.86
162.1
209.08
257.01
301.67
336.3
354.46
353.34
335.38
307.27
276.66
248.7
224.35
201.11
175.58
145.89
112.82
79.01
47.27
19.14
-5.32
-26.74
-45.46
-60.87
-71.76
-76.97
-76.3
-70.9
-63.12
-56.13
-52.99
-55.76
-64.73
-78.28
-93.33
-106.45
-115.2
-118.94
-118.88
-117.12
-115.69
-115.7
-117.34
-120.48
-125.34
-132.7
-143.54
-158.39
-176.82
-197.41
-218.19
-237.16
-252.6
-263.09
-267.38
-264.4
-253.57
-235.29
-211.24
-184.17
-157.32
-133.54
-114.59
-100.91
-91.9
-86.5
-83.78
-83.29
-85.17
-89.88
-97.89
-109.24
-123.23
-138.2
-151.61
-160.44
-161.9
-154.09
-136.47
-109.86
-75.97
-36.85
5.52
49.4
93
134.39
171.47
202.14
224.75
238.33
242.92
239.59
230.4
218.11
205.76
195.93
190.24
188.84
190.63
193.72
196.19
196.71
194.77
190.6
184.73
177.66
169.56
160.29
149.49
136.8
122.05
105.23
86.65
66.95
47.15
28.51
12.19
-1.18
-11.87
-20.99
-30.25
-41.18
-54.66
-70.67
-88.51
-107.26
-126.25
-145.27
-164.53
-184.42
-205.22
-227
-249.56
-272.57
-295.63
-318.32
-339.99
-359.42
-374.62
-382.9
-381.45
-368.14
-342.36
-305.1
-258.54
-205.44
-148.98
-93.07
-42.56
-2.8
21.91
30.33
25.54
14.51
5.62
5.49
16.41
36.05
59.18
80.46
96.79
107.94
115.71
122.32
129.06
135.97
142.27
147.11
150.17
151.88
153.25
155.4
159.25
165.29
173.51
183.38
193.94
203.91
211.8
215.94
214.58
206.17
189.76
165.53
135.17
101.88
69.94
43.65
26.22
18.88
20.52
28.21
38.05
46.37
50.64
49.88
44.67
36.55
27.38
18.69
11.3
5.27
0.08
-4.92
-10.16
-15.62
-20.86
-25.24
-28.39
-30.51
-32.4
-35.21
-39.9
-46.76
-55.23
-64.21
-72.62
-79.95
-86.58
-93.62
-102.4
-113.81
-127.85
-143.47
-158.75
-171.44
-179.62
-182.19
-179.19
-171.66
-161.23
-149.4
-136.93
-123.47
-107.45
-86.29
-57.07
-17.51
32.58
90.07
148.09
197.33
228.73
236.8
221.78
189.52
149.03
109.01
75.31
50.22
33.53
23.99
20
19.11
17.33
9.26
-10.35
-44.24
-91.01
-145.22
-199.41
-246.68
-282.75
-306.37
-318.31
-319.93
-312.26
-295.83
-271.27
-239.8
-203.39
-164.22
-124.03
-83.63
-43.01
-2.07
38.56
76.94
110.01
134.5
148.08
150.37
143.18
130.01
115.05
102.11
93.93
92.02
96.98
108.71
126.49
148.72
172.84
195.58
213.89
225.98
232.1
234.56
236.76
241.85
251.41
265.03
280.61
295.46
307.49
316.04
322.01
327.21
333.25
340.31
346.51
348.02
340.31
319.8
285.45
239.18
185.37
129.2
75.15
25.94
-17.47
-55.23
-87.74
-115.14
-137.25
-153.83
-164.89
-170.73
-171.95
-169.27
-163.52
-155.64
-146.75
-138.16
-131.17
-126.79
-125.43
-126.66
-129.21
-131.12
-130.2
-124.49
-112.88
-95.54
-74.08
-51.25
-30.25
-13.86
-3.54
0.78
0.47
-2.62
-6.94
-11.74
-17.02
-23.05
-29.77
-36.58
-42.54
-46.87
-49.44
-50.9
-52.36
-54.83
-58.77
-64
-69.96
-76.13
-82.3
-88.5
-94.62
-100.05
-103.65
-104.12
-100.64
-93.49
-84.09
-74.49
-66.55
-61.28
-58.56
-57.49
-56.89
-55.75
-53.34
-49.11
-42.58
-33.56
-22.48
-10.57
0.35
8.61
13.45
15.44
16.15
17.41
20.39
25.3
31.59
38.48
45.39
52.01
57.92
62.37
64.26
62.57
56.92
47.88
36.82
25.42
15.12
6.84
0.97
-2.38
-3.18
-1.52
2.37
7.96
14.48
20.99
26.68
30.97
33.68
34.95
35.08
34.44
33.26
31.64
29.62
27.33
25.04
23.2
22.28
22.56
23.95
25.98
27.95
29.15
29.1
27.6
24.69
20.61
15.67
10.24
4.92
0.5
-2.11
-2.26
0.1
4.17
8.5
11.53
12.2
10.38
6.75
2.29
-2.29
-6.75
-11.15
-15.34
-18.63
-19.86
-18.05
-13.1
-6.07
1.08
6.36
8.69
8.31
6.65
5.63
6.8
10.78
17.17
24.98
33.11
40.75
47.5
53.25
57.95
61.4
63.23
62.88
59.76
53.38
43.65
31.19
17.51
4.88
-4.13
-7.43
-4.02
5.68
19.98
36.47
52.74
66.78
77.26
83.48
85.35
83.42
78.84
73.29
68.46
65.53
64.63
64.82
64.51
62.19
57.1
49.57
40.82
32.45
25.86
21.85
20.46
21.05
22.48
23.49
23.05
20.82
17.45
14.46
13.88
17.42
25.83
38.59
54.19
70.87
87.34
103.13
118.4
133.45
148.08
161.32
171.49
176.69
175.26
166.24
149.59
126.23
97.94
67.14
36.41
7.95
-16.89
-37.81
-55.42
-70.76
-84.8
-98.2
-111.29
-124.33
-137.55
-150.92
-163.54
-173.47
-178.08
-175.37
-165.49
-151.65
-139.7
-136.49
-147.87
-176.93
-223.43
-283.8
-351.84
-419.44
-477.73
-518.62
-536.64
-530.55
-503.71
-463.02
-416.36
-370.16
-327.8
-289.67
-254.33
-219.79
-184.18
-145.71
-102.66
-54.13
-1.24
51.82
98.16
130.23
142.71
134.95
111.31
79.38
46.76
18.42
-4.2
-22.12
-36.75
-48.16
-54.78
-54.16
-44.29
-24.43
4.56
40.45
79.93
118.87
152.93
178.17
191.89
193.29
183.73
166.51
146.28
128.07
116.21
112.96
117.57
126.23
133.23
133.17
123.08
103.77
79.23
54.96
35.62
23.67
19.11
20.31
25.17
31.8
38.61
44.15
47.13
46.7
42.94
37.01
30.95
27
26.92
31.42
40.16
51.93
65.1
78.09
89.66
99.07
106.14
111.1
114.37
116.22
116.45
114.33
108.91
99.51
86.26
70.18
52.73
35.11
17.74
0.27
-17.82
-36.42
-54.39
-69.82
-80.99
-87.34
-90.08
-91.84
-95.72
-104.18
-118.17
-137.05
-158.81
-180.69
-199.63
-212.69
-217.47
-212.47
-197.53
-174.01
-144.57
-112.64
-81.54
-53.73
-30.31
-11.02
5.31
20.13
34.5
48.81
62.81
75.99
87.95
98.72
108.73
118.49
128.23
137.64
145.84
151.75
154.42
153.55
149.63
143.77
137.26
131.11
125.79
121.17
116.69
111.58
105.44
98.48
91.49
85.54
81.43
79.38
78.96
79.29
79.36
78.75
77.95
78.16
80.83
87.43
99.28
117.53
142.85
174.24
209.5
245.14
276.61
299.07
308.74
304.4
287.62
262.39
232.06
200.05
169.05
140.48
114.01
88.22
61.78
33.9
4.69
-27.54
-63.25
-101.53
-140.7
-179.88
-219.49
-260.85
-306.15
-357.07
-416.48
-482.77
-548.71
-603.36
-636.97
-644.47
-626.57
-589.5
-523.27
-431.23
-328.23
-232.21
-153.37
-93.13
-49.55
-15.88
12.75
40.73
69.47
101.66
137.82
178.27
220.61
260.14
292.13
313.28
323.49
323.08
314.61
301.45
286.31
269.17
248.03
221.1
187.82
149.9
108.98
67.55
28.36
-6.04
-34.34
-56.23
-71.67
-80.72
-83.07
-79.08
-69.11
-54.06
-35.63
-17
-2.21
5.08
2.57
-9.81
-30.33
-55.51
-80.76
-100.81
-110.77
-107.24
-89.6
-60.95
-27.8
1.45
19.04
20.31
4.98
-23.24
-58.23
-93.24
-122.11
-139.81
-142.6
-128.6
-98.59
-56.74
-10.15
32.81
65.12
83.46
89.05
86.71
82.59
81.53
85.6
93.95
103.99
112.89
118.57
119.9
116.23
106.89
91.06
68.26
39.08
5.6
-28.67
-59.64
-83.77
-99.04
-105.19
-103.25
-94.63
-80.53
-62.05
-40.75
-19.29
-1.26
9.77
11.82
5.73
-4.84
-14.68
-19.41
-17.36
-10.2
-1.82
4.14
6.49
7.45
11.63
23.64
45.61
75.85
109.13
138.43
157.23
161.29
149.58
124.22
89.99
53.6
23.07
6.55
10.63
38.1
86.12
145.92
204.63
249.1
270.24
265.93
241.08
205
167.13
133.5
105.44
80.83
56.87
32.36
8.47
-12.21
-27.44
-36.68
-41.41
-44.41
-48.8
-57.19
-71.37
-92.44
-120.66
-155.12
-193.34
-231.29
-264.09
-287.36
-298.62
-298.14
-288.74
-274.68
-260.09
-247.74
-238.38
-231.02
-223.69
-214.29
-201.36
-184.57
-164.85
-144.27
-125.63
-111.63
-103.95
-102.45
-104.96
-107.8
-107.06
-100.07
-86.48
-68.38
-49.37
-33.1
-21.8
-15.56
-12.49
-9.73
-4.7
3.89
15.64
28.83
41.32
51.49
58.86
64.02
68.03
71.59
74.5
75.75
74.13
69.03
60.89
51.18
41.86
34.69
30.77
30.3
32.77
37.22
42.45
47.34
51.1
53.53
54.98
56.28
58.38
62.01
67.41
74.38
82.51
91.39
100.76
110.48
120.35
129.96
138.67
145.79
150.8
153.59
154.49
154.13
153.22
152.3
151.63
151.17
150.71
149.97
148.61
146.21
142.22
136.04
127.19
115.53
101.36
85.36
68.44
51.4
34.7
18.47
2.65
-12.66
-26.97
-39.38
-48.73
-54.06
-54.99
-51.95
-46.1
-39.04
-32.44
-27.77
-26.18
-28.43
-34.78
-44.89
-57.88
-72.79
-89.17
-107.62
-129.66
-157.05
-190.49
-228.8
-268.91
-306.85
-339.3
-364.79
-384.07
-399.38
-413.31
-427.62
-442.6
-457.02
-468.51
-474.22
-471.6
-459.18
-437.04
-406.94
-371.81
-334.88
-298.82
-265.09
-233.91
-204.62
-176.06
-146.9
-115.92
-82.24
-45.94
-8.41
27.59
58.66
81.98
96.53
103.65
106.6
109.32
114.87
124.5
137.36
151.18
163.3
171.61
175.18
174.34
170.45
165.21
160.21
156.36
153.78
152.04
150.65
149.56
149.3
150.72
154.54
160.96
169.63
179.91
191.34
203.69
216.81
230.17
242.5
251.83
256.17
254.49
247.47
237.56
227.9
220.74
215.93
210.45
199.31
177.63
142.82
96.21
43.13
-8.51
-50.71
-77.84
-88.3
-84.63
-72.22
-57.05
-43.63
-33.8
-26.83
-20.31
-11.45
1.85
20.51
44.06
70.69
97.47
121.1
138.94
150.19
156.54
161.68
169.88
184.15
204.92
230.01
255.69
278.25
295.28
306.01
310.81
310.42
305.22
295.16
280.11
260.35
236.85
211.03
184.29
157.31
129.91
101.25
70.47
37.41
2.84
-31.78
-65.08
-96.48
-126.72
-157.66
-191.67
-230.48
-274.15
-320.67
-366.32
-406.99
-439.72
-463.88
-481.07
-493.93
-504.15
-511.14
-511.89
-502.43
-480.01
-444.78
-400.31
-352.23
-306.25
-266.06
-232.35
-203.06
-174.39
-142
-102.04
-52.13
7.44
72.64
135.45
185.2
211.75
209.29
179.41
131.59
80.63
41.78
25.51
34.21
62.16
98.52
131.84
153.91
161.5
155.97
141.26
122.03
102.52
86.32
76.53
75.86
85.9
106.46
135.23
168.24
200.95
229.46
251.15
264.93
271.14
271.55
269.23
268.05
271.58
281.51
296.65
312.93
324.78
327.31
318.01
297.47
268.5
234.55
198.23
160.63
121.66
80.9
38.46
-4.79
-47.35
-87.66
-124.54
-157.36
-186.08
-211.06
-232.92
-252.52
-270.96
-289.69
-310.55
-335.63
-366.73
-404.57
-447.84
-492.81
-533.7
-564.09
-578.66
-574.82
-553.37
-517.85
-473.24
-424.2
-373.92
-323.83
-274.12
-224.67
-175.69
-127.99
-82.76
-41.35
-5.08
24.82
47.39
62.15
69.47
70.94
69.22
67.74
70.05
79.17
96.83
122.65
153.68
184.53
208.6
220.08
216.3
199.06
174.27
149.74
132.11
124.38
125.16
129.93
133.44
132.05
124.76
112.83
98.48
83.65
69.41
56.33
45.17
37.31
34.63
38.63
49.41
65.21
82.79
98.53
109.65
115
115.12
111.63
106.41
100.99
96.3
92.64
89.91
87.79
86
84.42
83.18
82.52
82.55
83.04
83.37
82.77
80.7
77.13
72.5
67.54
62.8
58.49
54.5
50.71
47.19
44.23
42.1
40.92
40.62
41.14
42.72
45.82
50.91
58
66.51
75.32
83.09
88.54
90.44
87.52
78.52
62.59
40.02
12.65
-16.23
-42.71
-63.38
-76.27
-81
-78.31
-69.35
-55.11
-36.52
-14.95
7.19
26.38
38.58
40.51
30.9
11.32
-14.15
-40.21
-62.1
-77.01
-84.42
-85.38
-81.41
-73.52
-62.16
-47.83
-31.75
-16.03
-3.18
4.84
7.22
4.27
-3.18
-14.46
-29.39
-47.88
-69.53
-93.18
-117.13
-139.76
-160.15
-178.39
-195.31
-211.93
-228.97
-246.68
-265.07
-284.06
-303.39
-322.07
-337.92
-347.59
-347.4
-334.52
-308.25
-270.28
-224.05
-173.31
-120.85
-67.94
-14.87
37.99
89.25
136.38
176.36
206.87
227.11
238.02
241.65
240.23
235.31
227.65
217.58
205.77
193.64
183.18
176.18
173.33
173.75
175.28
175.42
172.35
165.63
156.07
145.12
134.16
124.25
116.13
110.58
108.51
110.72
117.44
127.94
140.55
153.14
163.82
171.52
176.14
178.23
178.23
175.88
169.94
158.44
139.32
111.29
74.37
30.16
-18.32
-67.15
-112.19
-149.78
-177.38
-194.1
-200.76
-199.69
-193.97
-186.62
-179.81
-174.42
-170.28
-166.69
-163.13
-159.54
-156.12
-152.75
-148.37
-141
-128.43
-109.34
-84.15
-55.18
-25.8
0.78
22.65
39.42
51.74
60.42
65.71
67.35
64.99
58.9
50.29
41.11
33.37
28.37
26.23
25.9
25.65
23.74
19.05
11.35
1.31
-9.98
-21.36
-31.93
-40.95
-47.67
-51.37
-51.54
-48.16
-42.01
-34.59
-27.75
-23.03
-20.93
-20.6
-20.39
-18.5
-13.49
-4.65
7.98
23.5
40.36
56.58
70.36
79.71
83.15
80.39
72.55
62.04
51.52
43.36
39.3
40.83
47.9
59.32
73.41
88.53
103.81
118.82
133.67
148.72
164.43
179.11
189.47
192.03
184.81
168.53
145.76
119.89
90.51
61.13
36.24
18.56
7.57
-0.73
-8.06
-14.78
-21.62
-30.77
-41.86
-56.26
-75.25
-99.06
-126.73
-156.34
-186.23
-215.08
-241.51
-263.8
-281.98
-297.95
-314.85
-335.29
-359.16
-382.91
-400.06
-403.37
-387.61
-352.46
-301.91
-242.13
-179.05
-117.12
-60.18
-12.39
21.62
38.26
36.44
19.18
-6.73
-32.8
-51.68
-59.35
-55.61
-43.31
-26.9
-11.35
-1.15
0.44
-7.89
-24.92
-46.94
-68.55
-84.12
-89.27
-82.06
-63.15
-35.03
-0.97
36
73.67
110.77
146.92
182.26
217.15
251.86
286.22
319.46
350.09
375.95
394.36
402.53
398.09
379.97
349.38
310.34
269.53
235.1
214.62
212.83
230.02
261.71
299.85
335.04
359.14
367.14
357.89
333.62
298.46
256.98
213.19
170.11
129.88
93.87
62.56
35.13
9.39
-17.72
-48.85
-84.87
-124.1
-162.68
-196.05
-220.85
-236.6
-246.07
-254.71
-269.05
-294.66
-334.21
-386.13
-444.41
-499.83
-542.48
-564.86
-564.19
-543.08
-508.07
-466.85
-425.31
-385.94
-348.11
-309.69
-269.1
-226.64
-184.62
-146.6
-116.2
-96.1
-87.43
-89.54
-100.09
-115.47
-131.31
-143.28
-147.83
-142.79
-127.62
-103.47
-72.84
-39.16
-6.17
22.73
45.2
60.47
69.51
74.7
78.88
84.37
92.24
102.08
112.45
121.67
128.55
132.81
135.14
136.88
139.63
144.67
152.48
162.49
173.17
182.64
189.28
192.44
192.51
190.62
188.02
185.35
182.28
177.33
168.2
152.26
127.46
93.17
51
4.87
-39.56
-76.18
-99.95
-108.07
-100.49
-79.63
-49.7
-15.81
16.82
43.66
61.56
69.36
68.02
60.15
48.99
37.18
25.97
15.07
3.25
-10.6
-26.59
-43.43
-58.72
-69.63
-73.75
-69.76
-57.67
-38.94
-16.21
6.98
26.81
39.9
44.29
40.21
30.31
19.01
11.22
10.71
18.8
34.15
53.38
72.54
88.42
99.3
104.95
106.02
103.47
98.2
91.02
82.83
74.55
66.92
60.21
54.04
47.55
39.81
30.27
19.18
7.54
-3.13
-11.3
-15.82
-16.11
-12.13
-4.26
6.9
20.5
35.44
50.43
64.18
75.79
85.03
92.4
98.85
105.32
112.35
119.89
127.44
134.43
140.51
145.79
150.78
156.15
162.4
169.63
177.45
185.06
191.47
195.63
196.71
194.16
187.97
178.97
169.08
161.21
158.69
164.09
177.93
197.97
219.52
236.83
244.97
241.46
226.82
204
176.93
149.05
122.41
97.5
73.77
50.32
26.18
0.46
-27.79
-59.29
-94.14
-131.11
-167.41
-199.09
-222.25
-234.58
-236.4
-230.73
-222.11
-214.92
-211.86
-213.49
-218.82
-226.65
-236.44
-248.56
-263.53
-281.03
-299.28
-315.32
-326.06
-329.62
-326.21
-318.11
-308.89
-302.08
-300.07
-303.49
-311.13
-320.46
-328.22
-331.07
-326.06
-311.07
-285.14
-248.79
-204.12
-154.54
-104.15
-56.79
-15.31
18.91
45.89
66.65
82.63
95.24
105.52
114.02
120.74
125.22
126.83
125.06
120
112.44
103.79
95.63
89.2
85.13
83.54
84.24
87
91.54
97.28
103.22
107.92
109.91
108.17
102.52
93.7
83.02
71.93
61.58
52.69
45.61
40.39
36.86
34.5
32.45
29.53
24.54
16.77
6.23
-6.21
-19.25
-31.67
-42.85
-52.92
-62.54
-72.38
-82.54
-92.27
-100.11
-104.25
-103.17
-96.03
-82.86
-64.52
-42.49
-18.47
5.89
29.37
51.4
72.09
92.08
112
131.97
151.25
168.4
181.84
190.61
194.98
196.5
197.5
200.22
205.97
214.52
224
231.32
232.78
224.99
205.48
173.27
129.17
75.87
17.76
-39.49
-89.81
-127.86
-150.24
-156.33
-148.3
-130.29
-107.02
-82.39
-58.88
-37.76
-19.82
-6.05
2.34
4.5
0.77
-7.13
-16.64
-25.6
-33.26
-40.6
-49.63
-61.97
-77.7
-95.16
-111.66
-124.83
-133.64
-138.58
-141.08
-142.5
-143.54
-144.19
-144.13
-143.16
-141.39
-138.92
-135.61
-130.9
-124.06
-114.54
-102.3
-87.86
-71.96
-55.25
-38.15
-20.99
-4.32
10.94
23.6
32.66
37.79
39.64
39.57
39.05
39.03
39.49
39.65
38.48
35.38
30.54
24.81
19.26
14.7
11.43
9.3
8.02
7.31
6.9
6.33
4.95
2.16
-2.22
-7.49
-11.96
-13.28
-9.14
1.79
19.26
41.48
65.78
89.33
109.85
126
137.38
144.46
148.26
149.96
150.93
152.48
155.44
159.57
163.4
164.36
159.5
146.47
123.82
92.41
55.68
18.61
-13.84
-38.12
-53.08
-59.6
-60.02
-58.62
-59.07
-63.64
-73.39
-88.94
-110.39
-137.3
-167.51
-197.18
-223.71
-243.88
-254.57
-254.12
-243.82
-227.55
-211.21
-200.04
-197.46
-207.2
-229.27
-259.42
-290.63
-315.93
-330.12
-331.77
-321.74
-286.94
-226.25
-151.06
-78.42
-19.45
21.85
52.8
78.32
101
122.97
141.99
157.9
173.06
191.1
214.75
244.99
279.9
316.27
349.75
373.15
380.87
371.06
346.29
312.22
275.74
242.08
214.32
193.12
176.42
163.02
153.56
149.38
150.06
152.09
149.16
135.36
107.97
68.08
20.75
-27.13
-69.54
-103.1
-126.89
-141.82
-149.4
-151.65
-151.41
-151.8
-155.37
-163.15
-174.39
-187.2
-199.85
-211.53
-222.43
-232.8
-241.66
-246.24
-242.66
-227.56
-199.79
-161.34
-116.84
-72.06
-31.94
0.74
25.76
44.86
60.57
75.15
89.98
105.26
120.03
132.28
139.35
138.66
128.67
109.77
84.63
57.55
33.23
15.29
5.18
1.94
2.86
4.67
4.56
0.92
-6.6
-17.27
-29.68
-42.01
-52.12
-57.7
-56.63
-47.67
-31.15
-9.32
13.97
34.45
48.95
56.59
59.15
60.26
63.78
72.3
86.24
104
122.78
139.75
152.88
161.28
165.14
165.45
163.76
161.84
161.38
163.73
169.71
179.54
193.03
209.83
229.47
251.33
274.28
296.55
315.64
328.77
333.42
328.14
312.99
289.49
260.26
228.07
195.1
162.44
130.1
97.39
63.36
27.31
-10.74
-49.47
-86
-116.19
-135.77
-142.05
-135.44
-119.79
-101.23
-85.91
-77.68
-77.04
-81.76
-88.65
-95.29
-100.82
-105.45
-109.31
-111.73
-111.27
-106.68
-97.82
-86.02
-73.52
-62.39
-53.49
-46.15
-38.74
-29.71
-18.66
-6.72
3.7
9.74
8.96
-0.13
-17.79
-43.19
-74.54
-109.18
-143.86
-175.04
-199.53
-215.03
-220.5
-216.19
-203.42
-184.29
-161.5
-138.26
-118.08
-104.15
-98.47
-101.01
-109.36
-119.42
-126.64
-127.53
-120.82
-107.72
-91.57
-76.82
-67.87
-68
-78.67
-99.21
-127.04
-158.33
-188.98
-215.73
-236.88
-252.51
-264.23
-274.38
-285.28
-298.54
-314.54
-332.22
-349.11
-361.94
-367.4
-363.17
-348.59
-324.91
-294.78
-261.37
-227.39
-194.5
-163.27
-133.5
-104.77
-76.74
-49.08
-21.42
6.76
36.06
66.91
99.41
133.46
168.98
205.93
244.13
282.9
320.93
356.67
388.95
417.57
443.08
465.84
484.85
497.21
498.67
485.18
454.56
407.64
348.3
282.72
218.08
161.11
116.72
86.9
70.07
61.44
54.45
42.98
23.36
-4.55
-37.48
-69.73
-94.47
-105.2
-97.37
-70.14
-27.62
21.37
65.45
94.36
102.67
91.54
67.77
40.67
18.32
5.1
1.33
4.7
12.2
21.29
29.92
36.03
37.28
31.6
18.27
-1.04
-22.29
-40.11
-49.87
-49.66
-41.11
-28.79
-18.15
-13.32
-15.55
-22.94
-31.49
-36.77
-35.55
-26.78
-11.78
6.39
23.99
37.83
46.15
48.99
47.77
44.46
40.76
37.48
34.77
32.56
31.09
31.07
33.29
38.01
44.57
51.41
56.53
58.17
55.4
48.4
38.25
26.54
14.73
3.85
-5.77
-14.2
-21.57
-27.65
-31.5
-31.63
-26.54
-15.6
0.2
18.12
34.11
43.93
44.26
33.5
11.87
-18.83
-55.83
-95.81
-135.19
-170.57
-199.08
-219.01
-230.09
-233.57
-231.58
-226.49
-220.22
-214.06
-208.84
-205.17
-203.61
-204.42
-207.4
-211.68
-215.87
-218.48
-218.28
-214.65
-207.62
-197.68
-185.64
-172.54
-159.56
-148.09
-139.51
-134.84
-134.29
-136.83
-140.23
-141.59
-138.18
-128.32
-111.91
-90.24
-65.26
-38.7
-11.41
16.77
46.46
78.3
112.64
149.78
190.2
234.49
282.44
331.97
378.55
415.6
436.34
436.02
413.55
371.49
314.69
248.26
176.41
102.7
31.38
-31.49
-78.62
-103.89
-105.51
-87.84
-60.57
-35.48
-22.31
-26.03
-46.42
-79.9
-122.02
-168.84
-216.78
-261.57
-297.65
-318.75
-319.69
-298.63
-258.5
-207.02
-154.86
-112.65
-87.8
-82.35
-92.54
-110.59
-127.54
-136.14
-132.41
-115.61
-87.34
-50.58
-9.25
32.01
68.29
95.56
111.89
118.1
117.11
112.26
105.95
98.39
88.96
77.12
63.29
48.7
34.54
21.2
8.29
-4.3
-16.15
-25.48
-30.09
-28.42
-20.27
-6.71
10.62
30.41
52.48
75.78
99.37
121.4
139.45
151.27
155.64
152.64
143.37
130.81
114.96
97.37
79.92
64.91
54.78
51.44
55.53
65.93
83.09
100.74
116.45
129.21
139.53
148.82
158.44
168.89
179.49
193.53
204.52
211.96
216.65
220.6
226.48
236.95
253.97
278.29
315.35
356.42
398.46
438.03
471.95
497.85
514.45
521.42
480.65
441.75
398.5
352.11
303.94
255.43
207.79
161.75
117.37
74
36.78
-1.92
-42.91
-86.71
-133.55
-182.93
-233.04
-280.48
-320.58
-344
-352.91
-347.31
-330.2
-306.34
-280.35
-255.15
-231.6
-209.38
-185.36
-163.62
-145.88
-133.75
-127.79
-127.08
-129.75
-133.81
-137.87
-139.77
-140.8
-140.63
-138.73
-134.62
-128.27
-120.29
-111.83
-104.12
-97.63
-93.34
-91.19
-90.76
-91.5
-92.72
-93.66
-93.57
-91.94
-88.71
-84.31
-79.45
-74.71
-70.44
-66.74
-63.87
-62.44
-63.5
-67.99
-76.04
-86.43
-96.6
-103.5
-104.79
-100.01
-90.99
-81.34
-75.17
-75.7
-84.33
-100.41
-121.77
-145.65
-169.51
-191.54
-210.77
-226.94
-240.18
-250.78
-258.96
-264.76
-267.91
-267.81
-263.72
-254.93
-240.93
-221.44
-196.32
-165.35
-128.31
-85.44
-37.96
11.45
58.99
100.58
133.29
156.46
172.32
185.4
201.16
223.96
255.19
292.14
328.26
354.71
363.07
348.31
310.83
256.97
197.4
144.16
107.15
91.72
97.79
120.6
152.57
185.64
213.44
232.67
243.6
249.28
253.78
260.08
268.4
275.98
278.2
270.86
252
222.71
186.27
146.42
105.74
65.31
25.49
-12.7
-46.79
-73.42
-89.78
-95.26
-92.08
-84.59
-77.34
-73.29
-72.86
-74.35
-75.37
-74.31
-71.27
-67.86
-66.34
-68.65
-75.74
-87.51
-103.05
-120.84
-139
-155.43
-168.16
-175.82
-178
-175.36
-169.31
-161.26
-152.05
-141.55
-128.9
-113.01
-93.27
-70.18
-45.55
-22.22
-3.47
7.93
10.55
4.83
-6.91
-21.22
-34.56
-44.39
-49.75
-51.25
-50.43
-48.95
-47.93
-47.74
-48.21
-49.03
-50.05
-51.52
-53.9
-57.56
-62.56
-68.48
-74.74
-80.8
-86.41
-91.4
-95.22
-96.32
-92.02
-79.03
-54.49
-17.27
31.2
86.86
143.78
195.54
236.68
263.8
275.96
274.54
262.56
243.84
222.27
201.32
183.69
171.16
164.46
162.96
164.52
165.68
162.3
150.8
129.35
98.54
61.21
21.44
-16.54
-49.21
-73.76
-87.75
-88.96
-75.96
-49.29
-12.38
28.81
67.49
98.53
120.11
133.66
142.18
148.08
152.1
153.65
152.37
149.31
146.9
147.49
151.59
156.97
159.32
154.17
138.88
113.79
81.82
47.17
13.74
-15.9
-40.83
-61.18
-77.31
-89.36
-97.09
-100.54
-100.57
-99.09
-98.79
-102.12
-110.35
-123.04
-138.16
-152.82
-164.24
-170.42
-170.52
-164.73
-154.02
-139.85
-123.9
-108.04
-93.95
-82.83
-75.1
-70.27
-67.2
-64.47
-60.94
-56.03
-49.75
-42.5
-34.8
-27.1
-19.73
-13.12
-7.91
-4.93
-5.03
-8.72
-15.96
-25.97
-37.54
-49.28
-60.2
-69.95
-78.93
-87.81
-96.86
-105.29
-110.89
-110.52
-101.16
-81.3
-51.98
-17.17
17
43.66
57
53.71
33.6
-0.62
-44.46
-92.94
-141.88
-188.72
-232.51
-273.19
-310.51
-343.05
-368.03
-382.15
-383.01
-370.54
-347.28
-317.61
-286.04
-255.46
-226.44
-197.61
-166.85
-132.53
-94.1
-52.24
-8.61
34.27
73.24
104.95
126.97
138.95
143.28
144.8
149.29
161.62
184.21
216.72
256.79
301.32
347.47
392.75
434.7
470.46
497.02
511.98
514.4
505.17
486.76
462.4
435.05
406.63
377.7
347.65
315.36
279.95
241.68
202.09
163.69
128.92
99.05
73.31
48.94
22.19
-9.99
-48.36
-90.41
-130.31
-160.23
-172.52
-162.49
-130.66
-83.56
-32.34
10.39
34.31
34.17
10.53
-31.31
-83.37
-137.1
-184.8
-220.45
-240.39
-243.8
-232.96
-212.72
-189.16
-167.71
-151.55
-141.04
-134.25
-128.31
-121.05
-111.9
-102.13
-93.89
-88.85
-86.93
-85.81
-81.69
-71.08
-52.71
-28.63
-3.98
14.36
19.81
7.91
-22.4
-68.34
-123.68
-179.99
-228.54
-262.51
-278.68
-278.05
-265.09
-245.95
-226.38
-210.04
-198.01
-189.27
-181.91
-174.3
-165.89
-157.34
-149.9
-144.51
-140.92
-137.5
-131.62
-120.67
-103.03
-78.5
-48.12
-13.59
23.33
60.88
97.13
129.87
156.85
176.44
188.53
195.01
199.75
207.85
224.45
253.33
295.52
348.3
405.08
456.59
493.19
507.72
497.88
466.92
422.22
372.41
324.24
280.64
240.73
201.43
159.61
113.55
63.33
10.29
-43.33
-94.7
-140.65
-178.26
-206.27
-226.56
-244.79
-269.05
-306.67
-360.38
-426.19
-494.03
-551.55
-588.9
-602.24
-594.2
-571.47
-541.07
-507.54
-472.39
-435.34
-396.34
-356.61
-318.28
-282.84
-249.9
-217.04
-180.95
-139.32
-92.1
-41.69
8.09
53.68
93.37
127.87
159.86
192.77
229.48
271.48
318.59
369.07
419.99
467.68
508.47
539.54
559.76
569.95
572.56
570.57
566.25
560.5
552.89
542.4
528.26
510.28
488.68
463.56
434.57
401.14
363.12
321.39
278.02
235.83
197.4
164.01
135
108.03
80
48.47
12.75
-25.91
-65.11
-102.5
-136.91
-168.58
-198.82
-229.36
-262.01
-298.45
-339.85
-385.92
-433.96
-478.5
-512.51
-529.93
-528.47
-510.91
-484.17
-456.07
-431.82
-411.88
-392.58
-368.95
-338.13
-301.35
-263.5
-230.64
-206.84
-192.16
-182.65
-172.27
-155.67
-130.33
-97.13
-59.12
-19.51
20.06
60.06
102.29
148.47
198.82
251.56
303.25
349.82
387.86
415.53
432.92
441.49
443.01
438.41
427.09
407.29
377.19
336.18
285.55
228.31
168.24
108.86
52.71
1.31
-44.41
-83.77
-116.21
-141.45
-159.82
-172.36
-180.62
-186.29
-190.66
-194.25
-196.73
-197.01
-193.75
-185.85
-173.07
-156.31
-137.59
-119.64
-105.01
-95.33
-90.59
-89.22
-88.59
-86.17
-80.47
-71.56
-60.73
-49.75
-40.01
-32.05
-25.78
-20.89
-17.27
-14.9
-13.47
-12.05
-9.05
-2.76
7.89
22.81
40.59
58.99
75.65
88.78
97.59
102.16
103.11
101.28
97.74
93.46
89.02
84.28
78.42
70.25
58.66
43.13
23.97
2.44
-19.68
-40.75
-59.64
-75.96
-89.65
-101.11
-110.88
-119.48
-126.54
-130.99
-131.49
-127.07
-117.6
-103.3
-85.53
-66.42
-48.67
-33.45
-20.94
-10.94
-3.48
1.14
4.09
6.2
7.89
8.64
10.38
16.05
28.5
49.18
78
115.75
160.96
209.83
255.81
296.05
330.38
360.47
387.96
413.61
439.53
464.56
484.2
490.8
482.51
461.97
434.61
405.5
359
290.01
205.41
133.65
77.04
32.04
-7.17
-41.53
-71.51
-98.22
-120.52
-139.12
-156.77
-179.01
-206.48
-237.22
-268.48
-298.82
-327.98
-353.83
-375.2
-392.54
-409.64
-428.57
-450.85
-476.88
-505.2
-531.26
-546.82
-544.74
-522.4
-483.96
-435.81
-384.62
-334.81
-287.6
-241.38
-193.01
-141.03
-87.06
-35.84
7.75
39.94
59.2
66.37
64.43
57.6
49.35
41.2
32.42
21.65
8.14
-7.18
-21.88
-32.97
-38.32
-37.42
-31.29
-21.48
-8.98
6.3
25.36
49.25
77.96
109.75
141.2
167.96
186.03
192.95
188.58
175.2
156.74
137.61
121.45
110.31
104.55
103.21
104.73
107.59
110.76
113.86
117.06
120.75
125.11
129.73
133.3
133.71
128.5
115.55
93.74
63.48
26.92
-12.34
-49.94
-81.58
-103.8
-114.45
-112.76
-98.97
-73.74
-37.92
7.07
58.38
110.9
157.46
190.2
202.9
193.17
163.42
120.18
71.86
26.27
-11.04
-37.15
-51.02
-52.65
-42.6
-22.33
5.39
36.33
65.65
89.21
104.77
112.54
114.76
114.63
114.94
117.39
122.52
130.35
141.01
154.91
172.7
194.77
220.99
250.67
282.69
315.5
347.07
374.77
395.59
406.77
406.73
395.84
376.48
352.28
326.83
302.56
280.21
259.18
238.47
217.48
196.35
175.76
156.24
137.65
118.98
98.79
75.81
49.66
21.07
-8.44
-37.13
-63.82
-88.36
-111.63
-135.16
-160.72
-189.91
-223.78
-262.37
-304.07
-345.4
-381.17
-405.75
-414.81
-407.05
-384.78
-353.25
-318.72
-286.3
-258.73
-236.23
-217.43
-200.59
-184.25
-167.61
-150.36
-132.72
-115.63
-100.84
-90.56
-86.64
-89.64
-98.02
-108.11
-114.89
-113.4
-100.34
-75.52
-42.46
-8.06
18.88
29.8
18.65
-16.17
-71.12
-138.1
-206.47
-265.79
-308.5
-331.76
-337.42
-330.68
-317.72
-303.49
-290.54
-279.12
-268.27
-257.12
-245.59
-234.29
-223.93
-214.72
-206.34
-198.4
-191.02
-185.17
-182.42
-183.99
-189.69
-197.31
-202.92
-202.21
-192.19
-172.63
-146.01
-116.61
-88.46
-63.65
-41.72
-20.14
4.46
34.96
72.72
116.78
163.46
206.78
239.68
256.33
254.45
236.6
209.63
182.19
161.54
151.2
150.52
155.97
163.44
169.88
173.81
174.77
172.52
166.59
156.59
142.78
126.36
109.25
93.59
80.89
71.55
64.78
59.08
52.83
44.96
35.14
23.76
11.64
-0.28
-11.14
-20.09
-26.34
-29.13
-27.87
-22.47
-13.34
-1.51
11.62
24.64
36.41
46.22
53.7
58.68
60.99
60.52
57.52
52.79
47.79
44.26
43.63
46.45
52.09
59.14
65.99
71.62
75.84
79.16
82.34
85.8
89.46
92.79
95.23
96.47
96.52
95.48
93.1
88.57
80.79
69.11
54.24
38.76
26.8
22.74
29.63
47.89
75.15
107.16
139.28
167.82
190.48
206.26
215
217.31
214.64
209.26
203.59
199.07
195.11
188.94
176.66
155.14
123.76
85.1
43.87
4.89
-28.89
-57.3
-82.35
-106.59
-131.48
-156.71
-180.45
-200.52
-215.28
-224.15
-227.38
-225.56
-219.23
-208.69
-194.05
-175.24
-152.15
-124.77
-93.49
-59.37
-24.18
10.1
41.89
70.42
95.65
117.57
135.55
148.14
153.59
150.96
140.96
126.05
109.74
95.51
85.85
82.03
84.27
92.19
105.05
121.78
141.01
161.32
181.66
201.58
221.15
240.27
257.91
271.84
279.12
277.23
265.31
244.58
217.95
188.77
159.64
131.7
104.78
78.03
50.56
21.81
-8.51
-40.79
-75.62
-113.63
-155.01
-198.87
-242.92
-283.67
-317.35
-341.13
-354.06
-357.18
-352.66
-342.61
-328.14
-309.53
-287.34
-263.56
-242.12
-227.92
-224.83
-233.77
-251.87
-273.29
-291.39
-300.98
-299.76
-288.46
-269.84
-247.35
-224.05
-202.13
-182.68
-165.81
-150.69
-135.92
-119.93
-101.5
-80.08
-55.77
-29.04
-0.5
28.96
57.87
84.01
104.81
118.24
123.86
123.33
119.84
116.95
117.15
121.13
127.95
135.9
143.53
150.05
155.18
158.59
159.61
157.3
150.86
140.07
125.37
107.67
88.13
67.94
48.38
30.81
16.73
7.58
4.48
8.11
18.43
34.3
53.24
71.45
84.78
90.2
87.23
78.27
67.52
58.86
53.79
50.72
45.93
35.66
18.07
-5.87
-33.07
-59.73
-82.7
-99.8
-109.42
-109.94
-99.81
-78.45
-47.46
-11.41
22.49
46.1
52.8
39.6
8.12
-36.23
-86.18
-134.59
-175.68
-205.24
-220.61
-220.96
-208.05
-186.68
-163.98
-147.27
-141.23
-146.05
-157.59
-169.55
-176.52
-175.89
-167.96
-154.16
-135.11
-110.01
-77.62
-38.21
5.04
46.38
79.6
100.54
108.81
107.58
101.77
95.92
92.84
93.37
97
102.59
108.76
113.85
115.88
112.86
103.89
90.19
75.37
64.4
62.16
72
95.1
130.6
175.62
226.58
280.05
332.87
381.6
422.27
450.89
464.44
461.77
443.03
410.52
368.94
324.36
282.02
244.75
212.72
184.24
156.92
127.03
91.98
52.11
10.33
-30.12
-67.55
-102.49
-136.74
-172.69
-214.91
-267.81
-333.17
-409.01
-490.57
-570.89
-641.78
-694.99
-710.33
-675.44
-598.05
-503.79
-418.1
-353.1
-307.51
-274.26
-245.1
-216.65
-190.78
-169.8
-152.45
-132.78
-107.46
-74.37
-34.35
9.65
53.6
92.63
123.54
146.72
165.99
186.01
210.31
239.6
272.07
303.98
329.93
345.04
346.44
333.66
307.64
270.36
224.27
172.77
120.05
70.37
28.04
-3.23
-21.27
-26.41
-21.42
-11.09
-0.58
5.78
5.47
-1.19
-11.91
-23.73
-34.39
-42.81
-49.46
-55.26
-61.51
-69.39
-78.05
-86.27
-92.98
-97.28
-97.95
-94.17
-84.92
-71.41
-57.72
-46.54
-40.81
-42.82
-52.79
-67.55
-82.28
-89.64
-84.91
-67.46
-34.87
13.11
73.41
140.18
207.01
266.97
318.46
361.18
395.47
428.95
468.45
515.64
566.09
612.76
647.21
668.52
678.12
637.8
528.78
361.19
170.69
-5.02
-128.03
-209.71
-263.95
-300.65
-325.69
-339.3
-338.79
-325.3
-304.66
-284.07
-271.12
-265.54
-265.07
-267.39
-265.68
-254.56
-233.21
-205.29
-175.93
-150.96
-130.71
-114.52
-102.14
-90.65
-77.69
-63.22
-49.22
-37.9
-31.46
-28.57
-27.51
-27.14
-25.5
-21.25
-14.7
-7.59
-2.18
-0.87
-4.1
-11.53
-22.38
-34.78
-46.5
-55.59
-60.81
-61.89
-59.72
-55.64
-51.32
-47.98
-45.79
-43.66
-39.98
-33.62
-24.68
-14.49
-4.9
2.8
8.48
12.96
17.13
21.14
24.05
24.4
21.25
15.04
7.66
1.7
-0.74
0.96
5.74
11.49
16.13
18.54
18.9
18.35
18.26
19.5
22.16
25.55
28.55
29.93
28.73
24.43
17.22
8.03
-1.58
-9.79
-14.97
-16.17
-13.31
-7.05
1.54
11.35
21.46
31.18
39.93
47.2
52.61
55.98
57.43
57.31
55.99
53.74
50.65
46.71
41.87
36.18
29.8
22.96
15.98
9.22
3.11
-1.89
-5.43
-7.43
-8.15
-8.17
-8.14
-8.54
-9.47
-10.71
-11.85
-12.49
-12.48
-11.89
-10.94
-9.77
-8.39
-6.54
-3.84
0.08
5.4
11.98
19.42
27.16
34.61
41.35
47.12
51.87
55.58
58.19
59.56
59.45
57.66
54.15
49.06
42.83
36.05
29.37
23.42
18.59
15.02
12.53
10.65
8.74
6.07
2.03
-3.78
-11.37
-20.39
-30.17
-39.9
-48.82
-56.44
-62.64
-67.7
-72.25
-77.1
-83.02
-90.51
-99.45
-108.83
-116.77
-120.86
-118.87
-109.54
-93.07
-71.14
-46.36
-21.51
1.18
20.39
35.63
47.06
55.11
60.33
63.36
64.77
65.1
64.75
63.97
62.86
61.44
59.65
57.37
54.47
50.8
46.32
41.01
34.99
28.45
21.67
15.06
9.11
4.19
0.42
-2.5
-5.27
-8.74
-13.58
-19.9
-27.11
-33.98
-39.02
-40.94
-39.18
-34.1
-26.96
-19.58
-13.8
-10.99
-11.68
-15.52
-21.53
-28.51
-35.41
-41.51
-46.44
-50.03
-52.2
-53.02
-52.75
-51.89
-50.98
-50.36
-49.89
-49.01
-47.07
-43.79
-39.66
-35.89
-33.87
-34.47
-37.59
-42.27
-47.19
-51.36
-54.48
-56.8
-58.61
-59.76
-59.54
-56.98
-51.45
-42.98
-32.39
-20.88
-9.63
0.57
9.35
16.8
23.27
29.33
35.68
42.88
51.18
60.21
69.12
76.76
82.14
84.78
84.76
82.63
79.05
74.53
69.31
63.38
56.61
48.84
39.9
29.63
17.94
4.87
-9.3
-23.99
-38.34
-51.27
-61.61
-68.27
-70.49
-67.97
-61.01
-50.53
-37.81
-24.21
-10.91
1.28
11.86
20.47
26.67
29.92
29.74
26
19.11
10.07
0.18
-9.29
-17.44
-23.91
-28.79
-32.41
-35.09
-36.98
-38.05
-38.23
-37.45
-35.8
-33.46
-30.68
-27.71
-24.8
-22.13
-19.79
-17.8
-16.11
-14.59
-13.03
-11.08
-8.34
-4.47
0.66
6.85
13.58
20.17
26.05
30.95
34.98
38.47
41.73
44.85
47.59
49.54
50.32
49.77
48.06
45.66
43.17
41.18
40.08
39.98
40.62
41.51
42.08
41.96
41.15
40.14
39.82
41.19
45.07
51.71
60.69
71.01
81.44
91
99.45
107.55
117.03
130.18
149.18
175.32
208.28
245.98
284.75
320.09
347.58
363.81
366.89
356.57
334.03
301.24
260.49
213.85
163.06
109.71
55.72
3.84
-42.33
-78.88
-102.81
-113.21
-112.05
-103.86
-94.46
-88.95
-89.93
-96.65
-105.47
-111.63
-111.24
-102.93
-87.99
-69.49
-50.74
-34.04
-20.34
-9.75
-2.49
0.69
-1.19
-8.53
-20.41
-34.64
-48.49
-59.95
-68.38
-74.64
-80.33
-86.94
-95.09
-104.41
-113.78
-121.72
-127.01
-129.01
-127.89
-124.62
-120.75
-117.89
-117.18
-118.83
-122.08
-125.65
-128.2
-128.87
-127.49
-124.32
-119.88
-114.59
-108.79
-102.74
-96.72
-90.9
-85.24
-79.49
-73.49
-67.17
-60.61
-54.19
-48.47
-44
-41.05
-39.44
-38.82
-38.99
-39.85
-41.39
-43.68
-46.8
-50.73
-55.27
-59.94
-64.23
-68.35
-72.63
-77.5
-83.4
-90.74
-99.72
-110.13
-121.32
-132.55
-144.62
-157.99
-172.15
-185.84
-197.81
-207.29
-214.2
-218.95
-222.65
-229.61
-242.64
-261.7
-284.43
-308.18
-331.29
-353.34
-374.47
-395.26
-420.21
-450.23
-481.16
-505.43
-516.3
-510.49
-488.78
-454.48
-412.81
-374.63
-346.51
-328.51
-315.96
-304.06
-290.23
-274.38
-257.1
-200.82
-93.32
49.29
192.89
309.82
390.31
438.29
460.78
470.76
475.85
473.9
463.62
447.71
432.68
421.09
414.38
412.34
414.69
420.55
424.9
424.9
420.63
413.46
403.3
388.49
367.08
339.25
307.22
272.37
237.74
207.16
183.65
167.78
158.08
151.89
146.87
140.97
131.55
117.35
98.85
78
57.22
38.9
24.84
16.27
13.47
15.54
21.14
28.73
36.74
43.53
47.83
48.97
47.29
43.85
40.16
37.46
36.19
35.88
35.49
34.2
31.79
28.83
26.28
24.81
24.4
24.23
23.19
20.41
15.78
9.94
3.95
-1.27
-5.39
-8.77
-12.25
-16.72
-22.69
-30.04
-38.04
-45.59
-51.52
-54.89
-55.19
-52.3
-46.54
-38.5
-28.96
-18.81
-9
-0.37
6.38
10.85
13.09
13.56
13.05
12.4
12.22
12.72
13.69
14.68
15.25
15.21
14.65
13.81
12.92
11.99
10.89
9.43
7.47
4.96
1.96
-1.54
-5.54
-10.06
-15.01
-20.1
-24.79
-28.35
-30.02
-29.21
-25.67
-19.61
-11.61
-2.46
7.1
16.53
25.47
33.66
40.76
46.29
49.78
50.95
49.87
47.04
43.23
39.24
35.66
32.72
30.28
28.02
25.55
22.64
19.23
15.43
11.45
7.49
3.78
0.56
-1.93
-3.54
-4.39
-4.88
-5.6
-6.96
-8.9
-10.79
-11.7
-10.9
-8.23
-4.18
0.43
4.92
8.97
12.57
15.76
18.32
19.81
19.81
18.28
15.75
13.07
11.15
10.57
11.45
13.51
16.28
19.29
22.12
24.48
26.17
27.17
27.54
27.38
26.79
25.76
24.2
21.97
18.99
15.18
10.54
5.09
-1.03
-7.52
-13.76
-18.9
-22
-22.31
-19.56
-14.09
-6.69
1.63
9.95
17.6
24.29
30.03
35.01
39.54
43.92
48.27
52.5
56.14
58.46
58.63
56.02
50.56
42.92
34.35
26.28
19.72
14.91
11.26
7.81
3.71
-1.33
-6.91
-12.34
-17.08
-21.06
-24.71
-28.63
-33.18
-38.25
-43.3
-47.62
-50.67
-52.23
-52.35
-51.18
-48.83
-45.33
-40.69
-34.95
-28.35
-21.24
-14.04
-7.2
-1.12
3.79
7.24
9.09
9.4
8.53
6.96
5.13
3.31
1.52
-0.39
-2.52
-4.81
-6.99
-8.77
-9.94
-10.57
-10.96
-11.49
-12.48
-14.09
-16.32
-19.13
-22.46
-26.22
-30.08
-33.45
-35.49
-35.29
-32.23
-26.22
-17.73
-7.65
3
13.36
22.76
30.68
36.69
40.36
41.42
39.96
36.45
31.73
26.74
22.2
18.5
15.57
13.07
10.59
7.86
4.78
1.5
-1.74
-4.69
-7.25
-9.46
-11.55
-13.86
-16.78
-20.64
-25.56
-31.3
-37.19
-42.18
-45.09
-44.98
-41.5
-35.06
-26.69
-17.66
-9.09
-1.66
4.39
9.05
12.26
13.83
13.5
11.23
7.28
2.29
-2.99
-7.88
-12.03
-15.41
-18.18
-20.53
-22.64
-24.64
-26.76
-29.32
-32.68
-37.09
-42.51
-48.65
-55.11
-61.51
-67.69
-73.65
-79.29
-84.27
-87.9
-89.26
-87.55
-82.37
-73.86
-62.62
-49.4
-34.89
-19.63
-4.07
11.19
25.37
37.61
47.2
53.88
57.92
60.01
61.04
61.74
62.54
63.43
64.15
64.33
63.69
62.19
59.98
57.31
54.4
51.32
47.95
43.98
39.11
33.13
26
17.86
8.94
-0.49
-10.11
-19.46
-27.9
-34.59
-38.61
-39.26
-36.25
-29.9
-21.06
-10.97
-0.89
8.12
15.39
20.6
23.73
24.92
24.46
22.77
20.42
18.12
16.52
16.12
17.06
19.06
21.59
23.96
25.66
26.42
26.31
25.61
24.67
23.69
22.6
21.03
18.43
14.3
8.38
0.78
-8.07
-17.49
-26.69
-34.8
-40.84
-43.91
-43.28
-38.76
-30.81
-20.55
-9.45
1.03
9.79
16.13
19.69
20.26
17.87
12.83
5.93
-1.65
-8.65
-14.2
-18.04
-20.56
-22.37
-23.87
-24.95
-24.92
-22.88
-18.05
-9.92
1.72
16.95
35.76
57.92
82.54
107.64
130.03
145.66
150.61
142.15
119.38
83.1
35.09
-22.4
-86.45
-152.57
-213.91
-261.57
-286.62
-283.23
-251.38
-197.64
-133.23
-70.29
-18.32
17.69
36.86
40.98
33.38
18.59
2.61
-7.59
-5.68
11.52
42.27
79.94
115.14
139.1
146.71
137.96
117.38
92.07
69.25
54.07
48.35
50.2
54.98
57.14
52.41
39.53
20.57
-0.24
-18.47
-31.33
-38.46
-41.35
-42.01
-41.7
-40.52
-37.84
-33.24
-27.17
-21.07
-16.66
-15.04
-16.09
-18.4
-20.08
-19.68
-16.85
-12.34
-7.4
-2.95
0.87
4.59
8.78
13.45
17.87
20.86
21.46
19.46
15.47
10.57
5.68
1.18
-3.17
-7.82
-12.86
-17.69
-21.1
-21.75
-18.85
-12.65
-4.37
4.29
12
18.32
23.71
28.96
34.43
39.58
43.11
43.55
39.95
32.25
21.26
8.31
-5.16
-17.93
-29.05
-37.93
-44.37
-48.55
-51.03
-52.58
-53.96
-55.7
-58.02
-60.93
-64.33
-68.17
-72.55
-77.53
-83.11
-89.1
-94.99
-100.09
-103.64
-104.96
-103.61
-99.4
-92.35
-82.66
-70.69
-57.04
-42.59
-28.46
-15.72
-4.86
4.56
13.96
25.21
39.67
57.29
76.31
93.89
107.35
115.46
119.06
120.54
122.78
127.94
136.93
149.46
164.44
180.16
194.23
203.69
205.57
198.11
181.83
159.91
137.25
118.73
107.4
103.57
105.25
109.37
113.09
114.49
112.44
106.18
95.04
78.7
57.62
33.29
7.96
-16.1
-37.53
-56.33
-73.63
-90.92
-109.15
-128.15
-146.7
-163.17
-176.23
-185.38
-191.02
-194.15
-195.91
-197.24
-198.91
-201.43
-205.1
-209.72
-214.29
-216.98
-215.46
-207.71
-192.99
-172.32
-148.36
-124.41
-103.01
-85.01
-69.28
-53.63
-36.19
-16.68
3.08
19.73
29.66
30.35
21.1
2.94
-21.91
-50.64
-80.09
-106.82
-127.48
-139.71
-143.17
-139.82
-133.18
-126.49
-120.88
-114.71
-104.29
-85.83
-57.29
-18.92
27.54
80.32
138.34
200.47
263.98
323.4
371.3
400.82
408.88
397.75
374.2
346.21
319.17
293.62
265.78
230.53
184.95
130.46
72.32
17.16
-30.13
-68.3
-99.6
-128.22
-158.03
-191.16
-227.21
-263.68
-296.69
-321.97
-335.79
-335.67
-320.93
-292.59
-252.76
-203.64
-146.8
-82.96
-12.98
60.83
133.76
198.82
248.36
276.32
280.28
262.22
227.82
184.5
139.36
97.68
62.44
34.93
15.41
3.59
-1.4
-1.28
1.43
3.9
3.97
0.91
-4.26
-9.37
-12.22
-11.68
-8.26
-3.86
-0.95
-1.47
-6.21
-14.47
-24.42
-33.74
-40.21
-42.31
-39.33
-31.21
-18.21
-0.78
20.43
44.21
68.46
90.28
106.27
113.4
109.83
95.45
71.94
42.44
10.92
-18.55
-42.35
-57.99
-64.45
-62.42
-54.02
-42.27
-30.24
-20.26
-13.51
-10.07
-9.29
-10.38
-12.72
-15.87
-19.4
-22.67
-24.68
-24.43
-21.2
-15.02
-6.69
2.36
10.62
16.96
20.89
22.54
22.34
20.68
17.73
13.52
8.15
2.07
-3.92
-8.82
-11.85
-12.83
-12.33
-11.61
-12.21
-15.43
-21.8
-30.78
-40.85
-49.88
-55.85
-57.45
-54.54
-48.11
-40.03
-32.36
-26.69
-23.65
-22.71
-22.37
-20.64
-15.75
-6.82
5.75
20.29
34.38
45.57
52.15
53.58
50.49
44.24
36.4
28.23
20.39
13.04
5.97
-1.01
-7.96
-14.7
-20.9
-26.23
-30.51
-33.87
-36.72
-39.73
-43.52
-48.42
-54.25
-60.36
-65.87
-69.92
-71.94
-71.44
-67.89
-60.44
-48.24
-30.89
-9.1
15.05
38.59
58.46
72.63
80.55
83.11
81.87
78.35
73.49
67.66
60.98
53.6
45.85
38.13
30.69
23.52
16.41
9.03
1.1
-7.32
-15.51
-21.88
-24.14
-19.85
-7.47
12.63
37.64
62.7
82.23
91.63
88.69
74.19
51.32
24.37
-2.75
-27.52
-48.98
-67.36
-83.2
-96.63
-106.85
-111.97
-109.1
-94.85
-66.19
-21.61
37.7
107.07
178.7
243.11
291.41
317.45
319.29
299.18
262.48
215.99
166.45
119.58
79.6
49.13
29.11
18.94
16.63
19.17
23.13
25.4
23.87
17.81
8.02
-3.62
-14.78
-23.41
-28.3
-29.37
-27.5
-24.26
-21.52
-21.13
-24.63
-33.02
-46.6
-64.93
-86.95
-111.13
-135.66
-158.59
-177.97
-192.23
-200.57
-203.25
-201.64
-197.75
-193.54
-190.31
-188.36
-187.07
-185.37
-182.29
-177.4
-170.87
-163.47
-156.3
-150.48
-146.91
-145.88
-146.84
-148.37
-148.54
-145.46
-137.92
-125.81
-110.02
-92.03
-73.2
-54.14
-34.29
-11.82
15.9
51.44
95.98
148.29
203.94
255.84
295.85
317.04
315.79
292.64
251.94
200.21
144.18
89.12
37.66
-10.41
-57.37
-105.87
-156.79
-207.74
-252.99
-284.99
-297.2
-286.61
-255.12
-209.06
-157.23
-108.48
-69.83
-45.51
-36.85
-42.71
-60
-84.4
-111.15
-135.66
-154.03
-163.27
-161.33
-147.41
-122.18
-88.01
-48.57
-8.05
29.98
63.3
91.16
113.73
131.24
143.33
149.16
148.11
140.59
128.58
115.11
103.08
93.79
86.02
76.41
60.87
36.55
3.35
-35.68
-75.26
-109.53
-133.75
-145.23
-143.39
-129.23
-104.71
-72.39
-35.39
2.68
38.11
67.79
89.89
104.35
112.63
117.06
119.86
122.55
125.64
128.89
131.79
133.9
135.11
135.54
135.35
134.64
133.27
130.97
127.41
122.4
116.07
108.92
101.66
94.99
89.36
84.99
82.06
81.04
82.79
88.05
96.85
108.11
119.88
130.19
138.02
143.73
148.5
153.25
157.74
160.49
159.6
153.89
143.54
129.86
114.44
98.52
82.84
68.02
54.92
44.54
37.39
32.92
29.61
25.79
20.62
14.71
9.65
7
7.2
9.23
11.06
10.79
7.4
1.1
-7.11
-16.1
-25.18
-34.22
-43.37
-52.56
-61.23
-68.33
-72.66
-73.38
-70.52
-65.08
-58.91
-54.14
-52.62
-55.39
-62.44
-72.85
-85.09
-97.55
-108.95
-118.64
-126.56
-133.12
-138.78
-143.87
-148.5
-152.76
-157
-161.8
-167.93
-175.97
-186.13
-198.39
-212.97
-230.72
-252.97
-280.64
-312.93
-346.53
-375.77
-394.31
-397.36
-383.5
-355.09
-317.15
-275.27
-233.58
-193.97
-156.3
-119.56
-82.92
-46.22
-9.84
25.84
60.84
95.61
130.86
167.22
205.03
244.55
286.29
331.1
379.92
432.86
488.28
542.36
589.65
624.55
642.94
643.42
627.36
597.97
559.1
514.26
466.31
417.58
370.08
325.26
283.77
245.08
207.75
170.08
130.88
89.94
47.9
5.92
-34.73
-72.95
-107.8
-138.48
-164.42
-185.26
-200.85
-210.96
-214.99
-211.9
-200.67
-181.31
-155.7
-127.89
-103.27
-87.09
-82.77
-90.98
-109.77
-135.56
-164.3
-192.36
-216.88
-235.74
-247.42
-251.04
-246.46
-234.28
-215.61
-191.93
-165.07
-137.37
-111.66
-90.7
-76.19
-67.77
-62.91
-57.91
-49.81
-38.07
-25.01
-14.6
-10.23
-12.76
-19.92
-27.47
-31.39
-29.74
-23.19
-14.09
-4.81
3.62
11.69
20.56
30.8
41.56
50.72
55.91
55.72
50.35
41.45
31.16
21.02
11.45
1.87
-8.37
-19.27
-29.68
-37.62
-40.92
-38.23
-29.62
-16.89
-3.23
7.62
12.56
10.18
1.42
-10.72
-22.2
-29.39
-30.26
-25
-15.72
-5.64
2.03
4.93
1.95
-6.74
-19.89
-35.51
-51.37
-65.52
-76.88
-85.53
-92.56
-99.66
-108.56
-120.67
-136.94
-157.7
-182.41
-209.24
-234.91
-255.01
-265.07
-261.96
-244.94
-215.8
-177.71
-133.96
-87.23
-40.03
4.38
41.65
67.39
79.35
79.14
72.51
67.4
70.88
86.77
115.12
153.77
200.34
253.18
310.49
368.66
421.35
460.67
480.01
476.95
454.42
419.34
379.61
341.11
306.07
273.48
240.99
207.05
172.09
138.46
109.08
85.97
68.94
55.54
41.86
24.05
-0.09
-30.38
-64.53
-99.29
-131.57
-159.16
-180.61
-194.93
-201.58
-201
-195.28
-188.26
-184.65
-188.5
-201.94
-224.72
-254.79
-289.34
-325.54
-360.63
-391.59
-414.95
-427.4
-426.88
-413.52
-389.78
-359.5
-326.36
-292.72
-259.25
-225.49
-190.77
-154.99
-118.73
-82.8
-47.78
-13.59
20.61
56.26
95.03
138.16
185.72
236.03
285.49
329.3
362.73
382.56
388.08
381.11
365.25
344.6
322.87
303.11
287.89
279.48
279.62
288.78
305.57
326.76
348.27
366.55
379.56
386.88
388.85
385.47
375.82
358.45
332.45
298.48
259.02
217.64
177.68
141.13
108.11
77.24
46.48
13.95
-21.21
-58.5
-95.98
-130.75
-159.78
-180.87
-193.47
-198.97
-200.27
-200.96
-204.26
-212.04
-224.3
-239.09
-253.08
-262.67
-265.23
-260.23
-249.47
-236.46
-225.12
-218.33
-217.09
-220.55
-226.82
-233.93
-240.64
-246.52
-251.82
-256.91
-261.97
-266.68
-270.26
-271.71
-270.04
-264.76
-256.03
-244.6
-231.34
-216.62
-199.77
-179.23
-153.3
-121.38
-84.89
-47.3
-13.15
13.65
31.2
40.07
42.63
41.63
39.13
36.11
33
30.39
29.35
31.1
36.38
45.06
56.36
69.56
84.57
101.83
121.4
141.81
159.51
169.58
167.52
151.27
122.48
86.3
49.95
20.49
3.19
0.66
13.05
38.71
74.84
117.86
163.73
208.39
248.46
282.02
309.07
331.23
350.88
369.96
388.96
406.53
419.93
426.03
422.45
408.36
384.69
353.63
317.81
279.49
240.23
200.95
162.26
124.75
88.91
54.95
22.38
-9.97
-43.68
-80.23
-120.41
-163.9
-209.1
-253.34
-293.46
-326.7
-351.26
-366.47
-372.39
-368.79
-354.59
-327.86
-286.62
-229.84
-158.35
-75.32
13.83
101.79
180.12
240.55
276.66
285.47
268.22
229.81
176.89
115.36
48.91
-20.8
-92.43
-163.23
-228.36
-282.25
-321.02
-344.62
-357.25
-365.79
-377.22
-395.99
-422.65
-453.92
-484.25
-507.77
-520.07
-519.29
-506.21
-483.62
-455.16
-424.15
-392.82
-362.08
-331.96
-302.23
-272.86
-244.06
-216.13
-189.03
-162.3
-135.12
-106.67
-76.3
-43.67
-8.91
27.51
64.78
101.87
137.72
171.62
203.5
234.31
266.15
301.97
344.53
394.83
450.48
505.17
549.58
573.87
570.78
538.04
479.38
403.62
322.34
246.89
185.54
141.79
114.1
97.25
84.75
71.65
56.5
41.68
31.92
31.68
42.78
63.37
88.62
112.57
130.1
138.28
136.51
126.03
109.11
88.27
66.04
44.83
26.97
14.33
7.67
6.14
7.13
6.94
2.15
-8.93
-25.43
-44.12
-60.74
-71.54
-74.73
-70.87
-62.48
-52.99
-45.57
-42.3
-43.65
-48.59
-54.95
-60.09
-61.53
-57.5
-47.08
-30.06
-6.76
22.15
55.41
90.95
125.75
156.33
179.51
193.48
198.45
196.63
191.5
186.67
184.81
187.06
193.14
201.84
211.6
220.88
228.12
231.52
229.02
218.68
199.27
170.95
135.48
95.59
53.83
11.52
-31.39
-75.33
-119.37
-160.09
-192.22
-210.8
-213.8
-203.37
-184.7
-163.14
-141.51
-119.3
-94.38
-65.78
-35.61
-8.6
10.41
19.1
18.79
13.15
5.79
-1.74
-10.03
-20.22
-32.03
-42.86
-48.75
-46.37
-35.07
-17.45
1.69
17.68
28.15
34.08
38.99
46.65
58.58
72.65
83.79
86.07
75.63
52.37
19.91
-16.13
-50.27
-78.88
-100.6
-115.72
-125.27
-130.19
-131.24
-129.06
-124.42
-118.03
-110.28
-101.14
-90.27
-77.67
-64.3
-52.49
-45.87
-48.73
-64.99
-97.02
-144.45
-203.62
-267.66
-327.55
-374.11
-400.05
-401.54
-378.75
-335.6
-278.87
-217.39
-160.93
-118.79
-97.74
-100.05
-122.28
-156.1
-190.88
-217.25
-229.8
-227.88
-214.24
-192.68
-166.16
-136.35
-104.2
-70.8
-37.51
-5.26
26.42
59.62
97.17
141.07
190.73
242.42
290.27
328.41
353.38
365.52
368.88
369.59
373.61
384.69
403.26
426.43
449
464.99
469.41
459.62
436
401.52
360.43
316.62
272.41
228.32
183.93
138.95
93.91
50.11
8.67
-30.31
-68.03
-106.67
-148.63
-195.85
-249.46
-309.54
-374.62
-441.29
-504.05
-556.07
-590.88
-604.4
-596.3
-570.05
-531.4
-486.28
-439.15
-392.32
-346.6
-302.2
-259.31
-217.99
-177.79
-137.4
-95.01
-49
1.57
56.58
114.94
174.75
233.39
287.88
335.33
373.7
402.36
422.14
434.76
441.77
444.02
441.63
434.72
424.03
410.91
396.54
380.83
361.88
336.47
301.67
256.49
203.03
146.01
91.49
44.94
9.77
-13.22
-25.51
-29.94
-29.66
-27.32
-24.75
-22.95
-22.43
-23.53
-26.55
-31.82
-39.5
-49.41
-60.85
-72.58
-82.97
-90.32
-93.42
-91.79
-85.85
-76.66
-65.51
-53.44
-41.18
-29.2
-18.14
-8.95
-2.8
-0.61
-2.5
-7.57
-14.19
-20.58
-25.5
-28.58
-30.13
-30.67
-30.37
-28.8
-25.18
-18.83
-9.77
1.17
12.41
22.25
29.41
33.48
34.94
34.94
34.81
35.68
38.19
42.33
47.37
51.95
54.28
52.61
45.76
33.6
17.21
-1.44
-20.23
-37.63
-53.04
-66.71
-79.18
-90.78
-101.33
-110.29
-117.11
-121.5
-123.47
-122.96
-119.7
-113.14
-103.05
-90.11
-76.23
-64.26
-56.91
-55.47
-59.11
-65.01
-69.56
-69.94
-65.35
-57.19
-48.29
-41.53
-38.67
-39.88
-44.05
-49.41
-54.24
-57.07
-56.79
-52.65
-44.35
-32.26
-17.51
-1.91
12.59
24.22
31.88
35.17
34.35
30.17
23.72
16.34
9.43
4.14
1.04
0.05
0.56
1.8
3.21
4.59
5.99
7.42
8.74
9.61
9.59
8.35
5.59
1.12
-5.25
-13.46
-22.81
-31.88
-38.92
-42.77
-44
-45.39
-50.97
-64.1
-85.04
-109.76
-130.61
-138.96
-128.18
-95.91
-44.5
19.91
89.06
154.18
207.08
241.34
253.31
243.12
214.65
174.44
129.46
84.93
43.17
4.22
-32.35
-65.66
-92.95
-110.61
-116.15
-110
-95.88
-79.71
-67.4
-62.79
-66.5
-76.55
-90.11
-105.51
-123.54
-147.13
-179.5
-221.69
-270.64
-319.18
-358.03
-379.14
-378.83
-359.12
-326.54
-289.12
-253.06
-220.68
-190.56
-159.4
-124.18
-83.45
-37.41
12.49
63.82
112.92
154.92
184.7
198.89
198.15
187.98
177.46
176.05
189.83
219.27
259.3
301.61
337.74
361.68
371.07
367.09
353.63
336.18
320.65
312.15
313.78
325.85
345.81
368.87
389.34
402.1
403.66
392.68
369.91
337.67
299.02
256.95
213.67
170.28
127.04
83.99
41.68
1.61
-33.95
-62.66
-83.12
-95.63
-102.27
-106.35
-111.47
-120.45
-134.59
-153.31
-174.18
-193.2
-205.6
-207.12
-195.41
-171.27
-138.94
-105.22
-77.68
-62.44
-62.39
-76.5
-100.24
-126.89
-149.5
-162.68
-164.12
-155.12
-140.02
-124.49
-113.35
-108.96
-110.91
-117.18
-125.97
-136.98
-151.47
-170.99
-195.86
-224.61
-254.54
-283.24
-309.59
-333.7
-355.55
-373.62
-384.49
-383.96
-369.04
-339.67
-298.81
-251.23
-201.55
-153.16
-108.29
-68.88
-37
-14.25
-0.12
9.04
19.55
37.85
67.16
105.34
145.38
178.75
199.56
207.54
207.92
208.42
215.3
230.38
250.66
270.4
284.15
289.14
286.09
278.26
269.75
263.81
261.85
263.35
266.37
268.45
267.53
262.45
253.11
240.03
223.81
204.71
182.79
158.33
132.44
107.05
84.38
65.95
51.81
40.66
30.54
19.98
8.85
-1.54
-9.09
-11.94
-9.28
-1.75
8.91
20.38
30.43
37.36
40.17
38.7
33.59
26.19
18.14
10.95
5.53
1.95
-0.38
-2.33
-4.8
-8.79
-15.55
-26.6
-43.27
-65.96
-93.61
-123.94
-154.38
-183.26
-210.42
-236.78
-263.12
-288.95
-312.31
-330.62
-342.11
-346.89
-347.05
-345.67
-345.62
-348.72
-355.55
-365.56
-377.31
-388.56
-396.48
-398.16
-391.5
-376.04
-353.19
-325.71
-296.53
-267.71
-239.99
-213.07
-186.35
-159.57
-132.86
-106.36
-79.82
-52.41
-23.04
9.12
44.31
82.24
122.54
164.97
209.32
254.74
299.32
340.09
373.9
398.57
413.7
420.65
421.6
418.35
411.5
400.58
384.81
364
338.96
311.09
281.71
251.45
220.28
188.09
155.29
123.08
93.11
66.87
44.88
26.44
9.93
-6.41
-23.55
-41.36
-58.7
-74.23
-87.14
-97.58
-106.43
-114.6
-122.31
-128.57
-131.4
-128.55
-118.46
-101.03
-77.81
-51.51
-25.11
-0.92
19.93
37.25
51.26
61.78
67.97
68.57
62.58
50.06
32.5
12.58
-6.5
-21.96
-32.05
-36.38
-35.72
-31.51
-25.25
-18
-10.12
-1.48
8.12
18.4
28.17
35.53
38.48
35.88
28.3
18.29
9.78
6.75
11.94
25.95
47.53
74.52
104.89
137.16
169.79
200.32
224.81
238.64
238.15
222.43
193.75
156.57
115.6
74.51
36.08
3.52
-18.42
-24.23
-10.24
22.36
66.26
109.83
141.4
153.67
145.79
122.08
88.69
50.55
10.42
-29.71
-66.41
-94.06
-106.18
-98.28
-70.57
-28.43
19.3
63.53
97.78
119.35
128.73
127.83
118.44
101.57
77.75
47.95
14.05
-21.15
-54.59
-83.62
-106.5
-122.19
-129.84
-128.53
-117.45
-96.8
-68.75
-37.83
-10.29
7.5
10.92
-1.67
-28.68
-66.17
-108.81
-150.72
-185.84
-208.38
-213.76
-199.91
-168.37
-124.28
-74.98
-27.67
12.85
45.15
70.5
91.13
108.44
122.17
130.82
132.84
127.75
116.49
101.02
83.27
64.47
45.02
24.87
4.32
-15.61
-33.15
-46.33
-53.58
-54.19
-48.54
-38.15
-25.66
-14.65
-9.3
-13.52
-29.81
-58.22
-95.95
-137.81
-177.54
-209.58
-230.47
-239.49
-238.4
-230.41
-218.97
-206.8
-195.31
-184.68
-174.27
-163.12
-150.46
-135.95
-119.58
-101.36
-81.02
-57.76
-30.5
1.72
39.18
81.19
126.02
171.12
213.42
249.63
276.49
291.14
291.7
277.96
251.79
217.03
178.54
140.85
106.82
77.24
51.31
27.83
6.32
-12.5
-27
-35.39
-36.3
-29.17
-14.3
6.99
31.84
55.71
72.73
77.29
66.22
40.32
4.5
-33.93
-67.85
-92.31
-104.98
-105.32
-93.1
-67.56
-27.89
25.49
89.69
159.23
227.08
286.58
332.9
363.7
378.8
379.27
366.67
342.72
309.44
269.39
225.8
182.1
141.13
104.44
71.82
41.57
11.37
-20.91
-56.32
-94.45
-133.23
-169.27
-198.59
-217.73
-224.99
-221.29
-210.39
-197.93
-189.72
-189.59
-197.78
-210.66
-221.97
-225.29
-216.53
-195.41
-165.35
-131.9
-100.77
-75.99
-58.88
-48.08
-40.2
-30.85
-16.1
6.02
34.31
63.87
87.26
97.05
89.06
64.87
32.2
2.12
-15.1
-14.48
1.48
23.79
40.54
41.07
19.11
-26.13
-90.5
-166.22
-242.95
-308.99
-353.26
-368.2
-352.72
-313.42
-263.03
-216.14
-183.99
-171.04
-174.64
-187.93
-203.75
-217.34
-226.76
-231.6
-231.68
-226.9
-218.24
-208.47
-201.52
-200.57
-205.58
-212.37
-214.12
-204.56
-180.9
-145.33
-103.71
-62.7
-26.68
3.76
31.57
61.54
98.37
144.78
200.23
260.3
317.03
360.56
381.87
375.57
341.8
286.3
218.36
147.84
82.46
26.63
-17.93
-50.64
-70.78
-77.05
-68.3
-44.56
-7.88
38.13
89.13
140.84
189.19
230.09
259.77
275.61
277.37
267.62
251.31
234.06
220.18
211.53
207.59
207.45
211.22
220.25
235.37
255.54
277.18
295.07
304.3
301.48
286.93
264.08
237.87
211
183.75
154.61
121.78
84.31
41
-7.32
-58.13
-107.39
-153.28
-194.49
-229.59
-256.86
-275.45
-288.9
-301.18
-315.37
-331.66
-351.98
-377.5
-408.09
-442.07
-476.91
-512.66
-546.53
-572.63
-582.67
-574.9
-552.27
-520.69
-486.16
-432.2
-356.74
-271.21
-204.45
-155.16
-117.48
-84.84
-55.38
-27.66
-0.02
25.89
49.89
73.65
101.11
131.41
162.17
191.23
218.12
243.44
265.77
285.28
304.11
326.6
353.14
381.8
408.95
430.6
443.26
443.68
432.47
414.25
396.39
382.95
374.18
366.64
355.04
334.33
300.78
253.94
196.08
131.05
61.72
-9.31
-78.69
-141.64
-192.48
-226.18
-239.57
-232.27
-206.44
-166.37
-116.75
-61.72
-4.49
52.24
106.06
154.96
197.72
234.25
265.48
292.71
316.69
336.98
351.9
359.03
356.39
343.39
321.37
293.22
262.37
231.87
203.54
177.94
154.75
133.38
113.19
93.44
73.33
52.29
30.6
9.72
-7.88
-19.78
-24.86
-24.18
-20.88
-19.09
-22.46
-33.09
-51.3
-76.22
-106.5
-140.53
-176.17
-210.43
-239.59
-259.91
-268.92
-266.17
-253.28
-232.95
-207.82
-179.31
-147.63
-112.75
-75.75
-39.69
-9.4
9.82
13.94
1.43
-26.55
-67.08
-116.49
-171.19
-227.79
-282.72
-332.13
-372.39
-401.17
-418.58
-427.5
-432.91
-440.08
-452.46
-470.03
-488.9
-502.44
-503.47
-486.6
-449.97
-395.91
-330.41
-261.81
-198.99
-149.42
-117.38
-102.66
-100.49
-102.97
-101.8
-91.22
-69.88
-40.54
-7.8
24.79
56.9
91.49
133.04
184.6
245.21
308.85
365.54
404.1
415.59
396.26
348.98
282.62
209.58
142.34
90.14
56.87
40.89
36.62
37.45
38.65
39.23
41.93
51.11
69.67
96.51
125.89
149.45
159.88
153.94
133.48
103.84
70.77
37.87
6.33
-23.28
-48.61
-64.42
-64.03
-42.5
0.21
58.12
120.94
177.41
218.89
241.26
245.2
235.09
217.62
200.48
190.69
192.91
207.72
231.26
256.71
277.24
288.82
291.38
287.59
280.3
270.3
256.07
235.43
207.74
175.16
141.73
111.16
84.76
60.67
34.85
3.09
-36.74
-83.08
-130.31
-170.08
-193.86
-196.29
-178.03
-146.25
-112.54
-88.79
-82.85
-96.55
-126.91
-169.5
-221.54
-282.52
-351.77
-425.26
-493.96
-545.58
-569.03
-558.79
-517.06
-452.67
-377.99
-305.35
-244.79
-203.04
-183.11
-183.75
-199.22
-220.03
-235.24
-235.7
-216.95
-180.13
-130.51
-74.67
-18.03
36.56
88.5
138.56
188.17
239.38
294.68
356.08
423.54
493.24
557.37
605.98
630.42
626.72
597.21
549.45
492.84
434.99
379.48
326.08
272.78
218.17
162.77
108.71
58.36
12.81
-28.87
-69.4
-112.41
-161.09
-216.58
-276.77
-335.76
-384.49
-412.84
-412.68
-381.24
-323.28
-250.75
-180.03
-127.63
-105.93
-120.36
-168.54
-241.43
-325.76
-407.12
-472.98
-515.11
-530.82
-522.7
-496.91
-460.88
-421.11
-381.93
-345.44
-312.08
-281.49
-252.8
-224.55
-194.84
-161.87
-124.75
-84.21
-42.48
-2.35
33.71
64.66
91.22
115.24
139.09
165.04
195.22
231.43
274.56
323.49
374.05
419.01
449.39
457.09
437.47
390.92
322.85
242.19
159.26
83.76
23.35
-17.19
-36.39
-36.1
-20.97
2.77
28.88
52.74
72.32
88.19
102.46
117.34
133.38
148.25
156.87
152.85
131.12
90.5
35.07
-26.63
-84.08
-128.17
-154
-161.76
-155.93
-143.06
-129.34
-118.88
-113.07
-110.73
-109.05
-104.51
-93.73
-74.22
-44.86
-6.4
38.49
85.64
130.36
168.71
198.55
219.83
234
242.93
247.94
249.35
246.82
239.83
228.19
212.05
191.78
167.85
141.04
112.74
84.99
60.08
39.83
25.02
15.22
9.28
5.83
3.72
1.9
-0.95
-6.42
-16.07
-30.64
-49.4
-70
-89.07
-103.27
-110.29
-109.4
-101.41
-88.17
-71.94
-54.88
-38.64
-24.18
-11.67
-0.69
9.42
19
27.69
34.48
38
37.29
32.15
23.21
11.5
-2.13
-17.33
-34.12
-52.39
-71.22
-88.67
-102.27
-110
-111.37
-107.89
-102.67
-99.01
-98.9
-102.06
-106.04
-107.39
-103.07
-91.6
-73.37
-50.06
-23.83
3.36
29.95
54.73
76.71
95.27
110.27
122.1
131.48
138.95
144.58
147.82
147.76
143.61
135.07
122.57
107.24
90.66
74.56
60.4
49.12
40.98
35.68
32.6
31
30.22
29.65
28.59
26.26
21.84
14.7
4.7
-7.33
-19.6
-29.6
-34.96
-34.37
-28.16
-18.15
-6.62
4.87
16.35
29.21
45.17
64.94
87.34
109.26
126.38
134.29
129.54
110.48
77.86
35.13
-11.84
-55.65
-88.92
-106.24
-105.62
-89.11
-62.33
-32.83
-8.01
6.92
10.27
4.06
-7.04
-17.5
-22.89
-21.03
-12.16
1.8
18.35
35.23
50.65
63.21
71.71
75.15
73.16
66.35
56.59
46.82
40.35
40.04
47.4
62.14
82.36
105.26
127.98
148.31
164.87
176.75
183.03
182.47
173.77
156.2
130.4
98.73
64.93
32.96
5.72
-15.6
-31.24
-41.75
-47.07
-46.5
-39.73
-28.33
-16.53
-10.56
-16.48
-37.69
-73.46
-119.18
-168.25
-214.25
-252.41
-279.7
-294.16
-294.21
-278.67
-247.31
-201.38
-143.84
-79.05
-12.04
52.21
109.43
156.52
191.68
214.49
225.65
226.62
219.24
205.59
188.11
169.82
154.22
144.63
143.08
149.27
160.17
170.57
174.65
167.91
148.76
119.24
84.54
51.33
25.65
11
7.52
12.24
20.43
27.21
28.98
24.15
13.09
-2.34
-19.53
-35.78
-48.83
-57.14
-60.2
-58.46
-53.34
-46.97
-41.84
-40.2
-43.35
-51.12
-61.69
-72.17
-79.64
-82.26
-79.98
-74.51
-68.58
-64.84
-64.75
-67.86
-71.72
-72.47
-66.08
-49.81
-23.47
10.05
45.24
75.45
94.67
99.03
87.43
61.18
22.86
-24.85
-79.74
-139.85
-202.67
-264.54
-320.74
-366.61
-398.94
-417.11
-422.98
-419.79
-410.5
-396.78
-379.18
-358.07
-334.8
-311.68
-291.04
-273.63
-257.79
-239.72
-215.2
-181.47
-138.27
-87.57
-32.48
23.88
78.84
130
174.95
211.39
237.85
254.33
262.31
263.78
260.03
250.87
235.08
211.9
182.55
150.76
121.79
100.49
89.4
87.93
93.05
100.82
108.02
113.08
116.18
118.41
120.73
122.95
123.37
119.16
107.53
87.17
59.16
26.67
-6.63
-38.65
-69.85
-102.51
-138.21
-175.19
-207.38
-225.96
-222.76
-193.68
-140.47
-70.13
7.26
81.04
142.01
183.73
203.46
202.83
187.56
166.09
146.8
135.15
131.86
133.32
133.93
129.17
117.68
101.45
84.08
68.5
55.2
42.06
25.58
2.78
-27.1
-62.33
-99.64
-135.91
-169.63
-201.17
-231.76
-261.92
-290.29
-313.91
-329.57
-335.76
-333.87
-327.99
-323.32
-324.01
-331.64
-344.85
-360.34
-374.5
-384.71
-389.83
-389.85
-385.16
-375.87
-361.7
-342.2
-317.2
-287.01
-252.47
-214.79
-175.32
-135.46
-96.51
-59.4
-24.66
7.77
38.43
68.1
97.59
127.86
160.12
195.73
235.5
278.42
320.87
356.74
379.04
382.14
363.63
325.01
270.81
207.03
139.63
73.95
14.89
-32.89
-65.24
-79.56
-75.68
-56.17
-25.54
11.32
50.55
90.09
129.52
169.65
211.71
256.59
304.35
353.7
401.81
444.52
476.92
494.39
493.65
473.63
435.73
383.48
321.7
255.55
189.69
127.61
71.34
21.33
-23.36
-64.62
-104.57
-144.72
-185.13
-223.96
-257.5
-281.17
-291.25
-286.94
-271.42
-251.34
-234.38
-225.87
-226.32
-231.1
-232.79
-224.64
-203.72
-171.49
-132.18
-89.88
-46.25
-0.03
51.62
110.89
177.36
247.12
313.61
369.35
408.42
428.75
433.25
428.93
424.19
425.2
433.16
444.1
451.15
448.23
433.08
407.85
377.38
346.24
316.57
287.83
258.24
226.74
194.01
162.16
133.13
107.18
82.56
56.59
27.59
-3.68
-34
-59.29
-76.84
-87.09
-93.74
-102.24
-117.6
-142.52
-176.66
-217.17
-259.86
-300.3
-334.5
-359.46
-373.58
-377.26
-373.09
-365.44
-359.16
-357.98
-363.22
-373.24
-383.94
-390
-386.3
-369.11
-336.68
-289.35
-229.33
-160.42
-87.72
-17.27
44.74
93.14
125.01
140.67
143.67
139.73
134.7
132.47
133.49
135.04
132.81
123.32
105.83
82.85
59.17
39.78
28.08
24.94
29.02
37.9
48.9
59.27
65.82
64.9
53.21
29.55
-3.66
-40.34
-72.49
-93.34
-100.1
-95.18
-84.91
-76.62
-75.51
-82.7
-95.21
-107.3
-112.82
-107.25
-88.77
-58.77
-21.33
17.6
51.35
73.32
77.82
60.83
21.58
-36.19
-103.6
-167.8
-215.01
-234.62
-222.17
-179.96
-115.28
-37.43
44.57
122.61
189.21
237.54
262.6
263.16
242.95
209.81
172.85
138.87
110.29
85.57
61.55
35.81
8.18
-19.75
-46.27
-70.84
-94.5
-119.06
-145.89
-174.85
-203.78
-228.78
-245.25
-249.37
-239.49
-217.08
-186.66
-154.73
-127.91
-111.07
-106.39
-113.26
-129.3
-151.32
-176.05
-200.27
-220.7
-234.12
-238.04
-231.64
-216.43
-196.08
-175.43
-159.15
-150.57
-151.3
-161.48
-180.09
-205.15
-233.61
-261.33
-283.62
-296.26
-296.8
-285.27
-264.11
-237.17
-208.22
-180
-153.75
-129.67
-107.47
-86.87
-67.65
-49.58
-32.15
-14.77
3.08
21.57
40.54
59.65
78.63
97.52
116.65
136.58
157.88
180.84
205.2
229.98
253.53
273.87
289.15
298.24
300.92
297.85
290
278.18
262.76
243.86
222
198.53
175.81
156.7
143.69
138.04
139.34
145.79
154.9
164.45
173.11
180.45
186.53
191.26
194.01
193.63
188.97
179.63
166.36
151.09
136.33
124.21
115.72
110.28
106.06
100.73
92.48
80.69
66.17
50.64
35.97
23.27
12.5
2.56
-8.18
-21.07
-36.55
-53.8
-71
-85.75
-95.81
-99.73
-97.08
-88.44
-74.94
-57.92
-38.58
-18.03
2.49
21.38
36.83
47.19
51.53
50.06
44.13
35.86
27.49
20.8
16.75
15.46
16.38
18.62
21.12
22.85
22.92
20.73
16.14
9.49
1.63
-6.37
-13.56
-19.4
-24
-27.96
-32.23
-37.57
-44.21
-51.52
-58.08
-61.96
-61.36
-55.23
-43.65
-27.84
-9.67
8.93
26.46
42.02
55.09
65.23
71.89
74.58
73.16
68.08
60.37
51.33
42.24
33.97
27.01
21.38
16.84
12.9
8.97
4.5
-0.81
-6.91
-13.32
-19.4
-24.66
-29.03
-32.99
-37.25
-42.46
-48.73
-55.42
-61.18
-64.23
-62.86
-55.89
-43.04
-25.1
-3.71
19.07
41.26
61.44
78.99
93.89
106.38
116.53
124.05
128.4
129.17
126.5
121.33
115.2
109.76
106.31
105.3
106.38
108.65
111.04
112.5
111.98
108.42
100.74
88.05
69.99
46.92
19.85
-9.69
-39.78
-68.02
-91.3
-105.79
-107.29
-92.36
-59.59
-10.58
50.07
115.78
179.69
236.34
282.52
317.35
341.67
357.23
366.05
369.94
370.32
367.99
363.09
355.13
343.32
326.99
305.97
280.74
252.48
222.8
193.44
166.05
141.69
120.57
101.86
83.85
64.59
42.66
17.86
-8.69
-35.02
-59.19
-80.12
-98.07
-114.52
-131.81
-152.32
-177.65
-207.68
-239.82
-268.98
-288.55
-292.59
-278.38
-248.22
-209.3
-171.55
-144.14
-132.54
-137.3
-155.19
-181.54
-212.58
-246.3
-282.19
-320.19
-359.87
-400.34
-440.44
-478.91
-514.1
-543.65
-564.39
-572.84
-566.29
-543.77
-506.52
-457.72
-401.69
-342.89
-285.02
-230.46
-180.07
-133.29
-88.51
-43.73
3.02
53.18
107.44
165.52
225.9
285.79
341.25
387.92
422.03
441.48
446.41
438.97
422.12
398.48
369.64
336.59
300.62
264.19
230.65
203.05
182.65
167.97
155.33
140.43
120.42
95.19
67.45
41.46
21.09
8.38
2.97
2.88
5.8
10.41
16.63
24.93
34.88
44.1
48.39
43.24
26.05
-2.36
-37.79
-74.39
-107.06
-133.16
-152.96
-168.4
-181.65
-193.96
-205.52
-216.08
-225.69
-235.11
-245.47
-257.83
-272.69
-289.94
-308.99
-329.22
-350.1
-371.08
-391.24
-408.95
-421.86
-427.3
-423
-407.81
-382
-347.17
-305.65
-259.96
-212.46
-165.14
-119.61
-76.93
-37.35
-0.07
36.73
75.58
119
168.65
224.42
283.85
342.23
393.27
430.63
449.73
449.2
431.51
402.16
367.8
333.96
303.51
276.46
251.05
225.45
199.09
173.1
149.49
129.87
114.21
100.66
86.29
68.53
46.35
20.46
-7.45
-35.77
-63.53
-90.09
-114.38
-134.05
-145.48
-144.82
-129.6
-100.41
-61.8
-21.87
9.44
22.9
12.95
-19.96
-68.68
-120.89
-162.58
-182.47
-175.51
-144.08
-96.4
-43.01
6.94
47.97
78.82
101.32
118.71
134.19
149.98
167.12
185.49
203.79
219.78
230.57
233.07
224.72
204.07
171.18
127.67
76.42
21.04
-34.56
-86.89
-133.51
-173.46
-207.36
-237.13
-265.28
-294.01
-324.63
-357.04
-389.85
-420.66
-446.5
-464.28
-471.39
-466.15
-448.26
-419.05
-381.15
-338.09
-293.42
-250.05
-209.87
-173.58
-140.86
-110.47
-80.46
-48.4
-12.08
29.53
75.17
120.79
160.22
187.08
197.33
191.29
174.02
153.71
138.72
134.8
143.64
163.27
189.78
219.07
247.84
273.59
294.15
307.31
311.13
304.59
288.13
263.87
235.35
206.99
183.33
168.18
163.7
169.78
183.86
201.61
217.98
228.4
229.6
219.81
198.47
165.97
123.62
73.75
19.95
-33.38
-81.86
-122.36
-153.69
-176.63
-192.98
-204.44
-211.6
-213.8
-209.67
-198.09
-178.9
-153.27
-123.63
-93.36
-66.41
-46.72
-37.24
-39.01
-50.34
-66.99
-83.36
-94.39
-97.4
-93.12
-85.26
-79.05
-78.96
-86.92
-101.34
-117.56
-129.49
-132.01
-123.12
-105
-83.3
-64.98
-55.79
-58.65
-73.54
-98.56
-131.14
-168.54
-207.42
-243.15
-270.04
-282.55
-277.37
-254.85
-218.97
-175.83
-131.34
-89.13
-49.97
-12.55
24.75
62.22
98.34
130.49
156.41
175.41
188.47
197.21
202.4
203.09
197.06
182.44
159.49
131.35
103.21
80.27
65.63
59.29
58.53
59.52
59.08
55.78
50.15
44.14
40.13
39.96
44.47
53.3
65.34
79.19
93.58
107.57
120.51
131.83
141.03
147.75
152.02
154.44
156.09
158.23
161.73
166.75
172.51
177.64
180.93
181.94
181.38
180.88
182.11
185.96
191.94
198.34
202.94
203.96
200.59
193.04
182.11
168.71
153.43
136.46
117.53
95.85
70.24
39.55
3.48
-36.51
-76.63
-111.24
-134.49
-142.45
-134.85
-115.42
-90.7
-67.7
-51.73
-45.24
-47.88
-57.62
-71.9
-88.36
-104.88
-119.34
-129.52
-133.49
-130.18
-119.88
-104.32
-86.26
-68.74
-54.31
-44.52
-39.69
-39
-40.8
-43
-43.51
-40.58
-33.09
-20.61
-3.47
17.28
39.88
62.08
81.46
96.07
105.08
109.12
110.14
110.63
112.54
116.41
121.17
124.8
125.31
121.74
114.44
104.92
95.18
87.24
82.77
82.92
88
97.18
108.18
117.47
121.22
116.58
103.01
82.71
59.98
39.56
24.75
16.3
12.44
10.05
6.28
-0.06
-8.01
-14.91
-17.56
-13.38
-1.24
18.25
43.07
70.38
97.27
121.27
140.85
155.43
165.24
171.06
173.79
174.32
173.29
170.88
166.62
159.32
147.48
130.16
107.88
83.3
60.92
45.88
42.04
50.31
67.97
89.47
108.25
119.1
119.59
110.39
94.26
74.46
53.38
32.06
10.75
-9.77
-27.38
-38.81
-41.16
-33.85
-19.68
-4.43
5.27
4.57
-7.92
-30.08
-58.11
-88.91
-121.71
-157.89
-199.2
-245.4
-293.02
-335.89
-367.44
-383.35
-383.26
-370.71
-351.39
-330.51
-310.96
-292.85
-274.64
-254.72
-232.65
-209.17
-185.41
-161.9
-138.29
-113.89
-88.68
-63.88
-41.81
-25.04
-15.24
-12.53
-15.59
-22.29
-30.64
-39.42
-48.18
-56.97
-65.84
-74.6
-82.79
-90.01
-96.19
-101.81
-107.78
-115.18
-124.73
-136.44
-149.55
-162.71
-174.57
-184.23
-191.64
-197.44
-202.55
-207.72
-213.16
-218.6
-223.43
-226.86
-228.02
-225.77
-218.72
-205.4
-184.68
-156.06
-119.86
-76.97
-28.42
25
82.49
142.41
201.49
254.83
297.13
325.03
339.37
345.93
353.93
372.36
405.85
452.07
502.15
543.96
566.96
565.92
542.26
502.43
454.5
405.09
357.76
313.32
271.21
230.87
192.17
154.85
117.94
80.13
41.01
2.34
-31.83
-56.86
-70.1
-73.11
-71.92
-74.95
-89.74
-119.76
-163.13
-213.52
-262.74
-303.62
-332.08
-347.85
-353.54
-352.94
-349.41
-344.57
-338.05
-327.85
-311.32
-285.77
-248.91
-199.41
-137.94
-68.24
2.57
65.2
110.94
134.74
137.11
123.66
102.69
81.84
65.8
55.87
51.05
49.38
48.72
46.56
39.77
25.1
0.6
-32.64
-69.7
-102.71
-123.37
-125.97
-109.84
-80.07
-46.04
-18.61
-7.11
-17.21
-50.13
-103.04
-170.02
-243.18
-313.91
-374.01
-416.69
-437.5
-435.11
-411.84
-373.71
-329.53
-289.06
-260.54
-248.28
-251.53
-265.06
-281.31
-293.26
-296.68
-290.74
-277.16
-258.36
-236.01
-210.72
-182.48
-151.59
-119.12
-86.76
-56.11
-28.01
-2.16
22.9
49.24
78.89
113.3
153.04
197.42
244.34
290.1
329.79
358.41
372.53
371.96
360.52
345.25
334.12
333.36
345.27
367.85
395.95
423.41
445.15
458.33
462.37
458.28
447.53
431.18
409.5
382
348.04
307.37
260.64
209.3
155.29
100.48
46.27
-6.43
-57.1
-105.49
-151.53
-195.51
-237.77
-277.97
-314.15
-342.33
-356.88
-352.19
-325.15
-277.37
-215.92
-151.93
-97.02
-59.14
-39.54
-32.41
-27.28
-13.05
18.02
67.83
132.33
202.97
269.16
320.66
349.71
352.65
331.05
291.64
244.78
201.25
168.85
149.8
140.82
135.04
125.1
105.59
74.01
30.52
-22.68
-81.51
-139.96
-190.37
-224.74
-237.19
-226.08
-195.01
-151.64
-104.98
-62.46
-28.17
-2.8
15.12
27.69
36.67
43.37
49.14
55.71
65.16
79.41
99.52
125.11
154.14
183.37
208.98
227.58
236.8
235.72
224.78
205.41
179.37
148.23
113.2
75.14
35
-5.86
-45.29
-80.39
-107.67
-123.49
-124.73
-109.61
-78.68
-35.65
12.7
57.54
90.12
104.05
96.84
69.79
26.77
-27.51
-88.16
-149.93
-206.63
-251.39
-278.34
-284.91
-273.45
-250.8
-225.85
-206.17
-195.51
-193.53
-197.34
-203.67
-210.54
-217.48
-224.94
-233.54
-243.68
-255.8
-270.5
-288.43
-309.91
-334.68
-361.5
-388.2
-411.96
-429.71
-438.74
-437.53
-426.27
-407.04
-383.28
-358.73
-336.29
-317.18
-300.97
-286.24
-271.42
-255.49
-238.13
-219.54
-200.02
-179.77
-158.79
-136.93
-114.02
-90.01
-65.01
-39.32
-13.46
11.96
36.38
59.43
81.08
101.71
121.98
142.61
164.16
186.78
210.16
233.66
256.54
278.29
298.93
319.33
341.21
366.79
397.97
435.07
475.67
514.18
542.75
553.45
540.95
504.56
448.55
380.61
309.25
241.5
181.81
132.52
94.86
69.68
57.43
57.72
69.3
90.33
118.63
151.53
185.12
213.61
229.61
225.9
198.42
148.84
85.45
21.53
-28.23
-51.75
-42.42
-0.19
69.06
155.11
245.48
327.54
390.74
428.52
439.34
426.5
396.74
358.09
317.6
279.9
246.84
217.99
191.59
165.21
136.36
103.03
64.49
21.89
-21.55
-61.48
-93.86
-116.64
-130.65
-139.24
-146.74
-156.54
-169.73
-184.84
-198.85
-208.86
-213.64
-214.27
-213.6
-214.79
-219.64
-227.55
-235.53
-239.53
-236.13
-224.25
-205.84
-185.43
-169.07
-163.01
-172.49
-200.63
-247.2
-307.48
-372.21
-429.18
-466.8
-478.46
-465.57
-437.39
-407.26
-386.81
-381.05
-386.9
-395.68
-397.95
-388.06
-365.85
-335.23
-301.1
-266.58
-232.28
-197.5
-161.99
-127.09
-95.41
-69.22
-49
-32.82
-17.07
1.98
26.53
56.44
89.54
122.76
153.67
181.72
208.51
237.09
270.24
308.75
350.49
390.91
424.66
447.73
458.67
458.38
448.77
431.14
405.42
370.76
326.93
275.28
218.7
160.38
102.27
44.39
-14.48
-74.93
-135.35
-191.37
-236.99
-266.63
-277.13
-268.43
-242.76
-203.55
-154.66
-100.95
-49.07
-7.51
15.23
14
-10.06
-48.62
-88.48
-116.14
-122.41
-104.77
-66.91
-16.13
39.49
92.87
138.55
172.46
192.01
196.48
187.36
168.06
142.83
115.81
90.1
67.76
50.16
38.5
33.81
36.68
46.92
63.42
84.45
108.1
132.59
156.5
178.7
198.48
215.7
231.03
245.83
261.48
278.3
294.68
307.03
310.77
302.17
280.01
246.22
205.07
161.33
118.48
77.91
39.35
2.19
-33.44
-66.24
-94.36
-116.43
-132.2
-142.66
-149.28
-153.06
-153.89
-150.58
-141.53
-125.71
-103.48
-76.75
-48.54
-21.86
1.19
20.12
35.96
50.63
66.17
84.22
105.94
132.18
163.58
200.36
241.73
285.33
327.15
362.21
385.84
395.21
390.2
373.37
348.96
321.31
293.48
266.63
240.29
213.32
184.94
155.32
125.46
96.49
68.94
42.25
14.93
-14.78
-48.11
-85.12
-124.66
-164.9
-204.06
-241.23
-276.75
-312.01
-349.05
-390.08
-436.95
-490.47
-549.42
-609.81
-664.94
-706.68
-728.05
-725.72
-701.38
-661.01
-612.23
-561.36
-511.48
-462.58
-413.4
-363.43
-313.83
-266.8
-223.88
-184.55
-146.06
-104.46
-56.18
0.68
65.66
135.7
205.46
268.06
316.56
345.92
355
347.18
329.26
308.52
289.44
271.57
249.9
217.52
169.52
106.18
33.9
-36.43
-92.74
-125.6
-130.8
-110.42
-71.97
-26.24
15.64
44.64
55.6
47.9
25.1
-6.15
-37.82
-62.52
-75.19
-74.25
-61.57
-41.22
-17.87
4.84
24.9
41.84
55.98
67.85
78
87.29
97.15
109.37
125.41
145.42
167.85
189.73
207.81
219.88
225.8
227.54
228.18
230.46
235.51
242.58
249.71
255.02
257.69
257.98
256.59
253.47
247.44
236.44
218.41
192.19
157.94
117.11
72.19
26.41
-16.52
-52.92
-80.07
-97.11
-105.55
-108.91
-111.39
-116.41
-125.51
-138.24
-152.7
-166.49
-177.35
-183.77
-185.3
-182.9
-179.2
-178.26
-184.65
-202.11
-232.1
-272.87
-319.35
-364.09
-399.13
-417.92
-416.99
-396.69
-360.86
-315.34
-266.25
-218.36
-174.31
-134.7
-98.83
-65.59
-34.08
-3.91
24.75
51.31
74.84
94.05
107.41
113.29
110.52
98.89
79.59
54.95
27.7
-0.32
-28.69
-58.16
-89.19
-120.33
-147.42
-164.38
-165.68
-149.05
-116.99
-76.22
-35.24
-1.34
21.59
33.38
36.57
34.67
30.91
27.78
27.12
30.41
38.67
51.92
68.77
86.3
100.67
108.35
107.34
98.06
83.15
66.57
52.23
42.74
38.83
39.64
43.49
48.75
54.31
59.53
63.84
66.44
66.31
62.62
55.17
44.61
32.35
20.13
9.6
2.04
-1.78
-1.55
2.58
10
19.64
30.24
40.56
49.78
57.53
63.73
68.19
70.36
69.35
64.37
55.31
43.25
30.4
19.54
13.21
12.85
18.43
28.66
41.6
55.4
68.73
80.91
91.58
100.5
107.49
112.57
116.14
119.08
122.43
127.07
133.44
141.54
151.26
162.71
176.38
193.06
213.56
238.4
267.7
301
337.1
373.75
407.54
434.22
449.69
451.24
438.61
414.12
381.79
345.87
309.6
274.76
242.06
211.87
184.75
161.37
141.89
125.6
110.71
94.94
76.26
53.51
26.8
-2.62
-32.77
-61.64
-87.64
-110.22
-129.98
-148.5
-167.88
-190.47
-218.58
-253.97
-296.95
-344.94
-391.65
-427.56
-442.43
-429.12
-386.85
-322.03
-245.9
-170.24
-103.1
-47.21
-1.23
37.2
68.85
92.23
105.02
106.04
96.43
79.19
57.56
33.58
7.76
-20.36
-50.8
-82.42
-112.96
-140.06
-162.33
-180.07
-195.23
-210.41
-227.5
-246.21
-263.65
-275.09
-275.92
-264
-241.25
-213.52
-188.66
-173.62
-171.71
-181.53
-197.62
-212.71
-220.06
-215.41
-197.57
-168.22
-131.32
-92.13
-56.36
-29.02
-13.15
-8.78
-12.61
-18.78
-20.6
-12.74
6.94
36.4
69.88
99.43
117.17
117.73
99.79
66.6
25.09
-16.09
-48.75
-66.88
-67.21
-48.93
-13.06
37.62
98.19
161.26
217.53
257.62
274.67
266.39
235.35
187.6
130.21
69.34
9.58
-45.2
-90.89
-122.88
-137.4
-133.62
-115.26
-90.52
-69.84
-62.4
-73.05
-100.88
-140.32
-184.03
-226.24
-264.69
-300.61
-336.74
-374.66
-412.99
-447.32
-471.99
-482.51
-477.52
-459.13
-431.81
-400.31
-367.89
-335.58
-302.69
-268.15
-231.7
-194.41
-158.14
-124.54
-94.1
-65.92
-38.22
-9.25
21.96
55.54
91.02
127.76
164.97
201.36
234.6
261.4
278.26
282.79
274.86
256.8
232.88
208.01
186.43
171
163.02
162.64
169.29
181.91
198.94
218.38
237.99
255.68
269.86
279.53
284.27
284.11
279.29
269.89
256.23
239.25
220.75
203.1
188.39
177.84
171.44
168.33
166.81
165.51
164.11
163.36
164.64
168.69
175.45
184
192.81
198.92
199.12
191.12
174.47
151.15
124.31
97.62
73.9
54.26
36.31
15.95
-10.32
-43.67
-81.99
-121.95
-159.88
-194.25
-220.29
-234.89
-239.23
-238.48
-241.52
-251.79
-270.26
-295.89
-326.07
-352.17
-366.72
-364.23
-343
-305.82
-258.9
-210.36
-166.88
-131.61
-103.91
-82.36
-65.73
-53.59
-46.06
-42.86
-43.38
-46.14
-48.96
-49.4
-46.21
-38.85
-26.89
-9.8
12.92
40.6
71.17
101.13
126.5
143.39
149.67
145.68
133.95
118.15
101.54
86.33
73.58
63.67
56.48
51.71
48.62
45.88
41.7
34.34
23.08
8.74
-6.45
-19.91
-29.98
-36.85
-42.47
-49.53
-59.93
-73.55
-87.85
-98.65
-101.51
-93.28
-72.92
-41.67
-2.3
41.88
87.97
133.99
179.01
222.92
266.13
309.22
352.58
396
438.18
476.55
507.43
526.88
531.89
521.41
496.69
460.73
417.11
368.88
317.95
265.4
212.21
159.64
109.36
62.69
19.61
-21.11
-62.38
-107.85
-160.99
-223.7
-295.1
-370.51
-441.73
-498.82
-532.63
-538.25
-516.4
-472.87
-415.8
-352.45
-286.88
-219.66
-149.39
-73.51
9
97.14
187.56
274.75
351.6
411.04
448.01
460.17
451.29
427.08
394.45
359.43
325.89
295.26
267.33
241.04
213.1
183.88
151.66
115.39
75.1
31.97
-12.68
-57.71
-102.48
-150.24
-199.11
-251.55
-309.78
-374.4
-442.97
-510.45
-568.27
-606.56
-621.4
-606.29
-565.51
-507.27
-439.83
-368.11
-295.02
-219.92
-118.17
-23.7
61.93
129.02
169.55
181.12
168.08
135.84
92.47
46.36
-0.51
-42.31
-80.97
-118.75
-156.78
-195.05
-237.84
-286.91
-339.46
-391.95
-433.74
-459.29
-464.96
-450.27
-389.25
-280.18
-145.91
-19.29
76.36
139.36
176.14
196.35
207.81
215.6
217.75
213.38
205.78
198.28
194.82
195.73
200.8
209.65
222.51
236.34
249.57
262.57
275.87
289.94
298.02
296.21
283.21
260.22
227.24
185.23
136.53
84.59
33.68
-11.64
-46.02
-65.62
-69.11
-59.01
-39.05
-12.57
17.73
49.03
77.67
100.42
114.92
121.16
121.83
122.12
127.96
143.53
169.41
202.26
236.45
265.58
284.45
290.24
282.85
264.36
238.15
207.75
175.99
144.74
114.73
85.89
57.88
30.3
2.81
-24.77
-52.56
-80.5
-108.39
-136.25
-164.73
-195.35
-230.11
-270.28
-314.95
-359.93
-397.99
-420.62
-420.63
-394.6
-344.09
-275.19
-196.68
-117.82
-46.38
12.41
56.1
84.72
99.97
104.47
100.96
91.9
79.29
65.05
51.33
40.4
34.1
33.02
35.74
38.91
38.26
30.09
12.82
-12.29
-41.33
-69.01
-90.22
-101.57
-102.36
-94.99
-84.71
-78.6
-83.68
-104.43
-140.44
-185.63
-229.6
-261.29
-273.11
-263.98
-239.21
-207.73
-177.85
-153.96
-135.68
-119.39
-101.03
-78.44
-52.17
-24.73
0.87
22.56
39.72
53.3
65.47
79.18
97.43
122.4
154.72
192.83
233.14
270.77
300.81
319.53
325.12
317.95
300.01
274.1
243.05
208.95
172.88
134.88
94.38
50.84
4.45
-43.39
-89.91
-131.32
-163.7
-184.02
-191.4
-187.83
-178.45
-170.88
-173.74
-194.37
-236.42
-298
-371.31
-444.32
-504.17
-541.03
-550.99
-536.7
-505.63
-466.87
-427.93
-392.77
-361.83
-333.27
-304.77
-274.64
-242.26
-207.8
-171.72
-134.68
-97.27
-60.11
-23.61
12.21
48.02
85.2
125.42
169.48
216.09
261.14
298.02
319.44
319.83
297.63
256.41
204.17
151.08
106.77
77.95
67.35
74.07
95.03
126.49
165.15
208.16
252.3
293.22
325.45
343.68
344.91
330.34
305.72
279.67
260.66
254.17
261.23
279.1
303.17
329.3
354.8
378.2
398.05
412.07
417.2
410.65
391.42
361.15
324
285.22
249.38
218.82
193.11
169.65
145.03
116.54
83.08
45.4
5.33
-35.11
-74.6
-113.04
-151.38
-191.19
-234.26
-282.42
-337.39
-400.14
-469.81
-542.57
-611.43
-667.49
-702.68
-712.7
-698.63
-666.43
-624.43
-580.21
-538.37
-500.14
-464.54
-430.02
-395.62
-361.05
-326.24
-290.76
-253.87
-214.95
-173.95
-131.48
-88.63
-46.38
-5
36.19
78.41
122.58
168.26
213.26
253.89
286.19
307.45
317.24
317.62
312.32
305.36
299.66
296.08
293.28
288.38
278.24
260.88
236.59
208.26
180.75
159.52
148.99
151.3
165.67
188.72
215.11
238.42
252.14
250.8
231.46
194.98
146.66
95.35
51.15
22.14
11.28
14.94
23.94
27.19
16.27
-10.65
-47.82
-84.07
-107.25
-108.57
-85.13
-39.77
20.8
88.16
153.78
209.94
250.66
272.81
277.24
268.97
255.59
244.44
239.79
241.59
246.19
248.4
243.71
229.46
204.74
169.82
125.86
75.32
22.75
-25.11
-60.31
-76.12
-69.96
-45.34
-11.71
18.1
32.05
23
-8.9
-56.36
-107.24
-148.2
-168.26
-161.71
-129.64
-79.69
-24.03
24.18
54.8
63.75
53.57
31.58
6.39
-15.39
-30.76
-40.05
-45.47
-49.68
-55.17
-64.33
-79.41
-102.29
-133.57
-171.91
-213.98
-255.32
-291.57
-319.89
-339.57
-351.71
-358.31
-360.99
-360.07
-354.5
-342.4
-322.04
-292.68
-254.77
-209.44
-157.95
-101.53
-42.12
16.69
69.25
108.8
129.64
129.64
111.76
83.52
54.6
33.29
23.71
24.87
31.97
39.08
41.77
38.51
30.43
19.97
9.58
1.18
-3.48
-2.43
6.34
23.8
48.46
75.92
99.71
113.62
114.03
101.11
78.4
51.05
23.8
-0.22
-19.76
-34.81
-45.81
-53.09
-56.76
-56.69
-52.83
-45.29
-34.57
-21.6
-7.58
6.29
18.92
29.41
36.89
40.52
39.83
35.34
28.99
24.1
24.48
32.99
50.5
75.51
104.89
135.02
162.83
186.26
203.94
214.63
216.83
208.68
188.09
153.26
103.5
40.2
-32.13
-105.58
-169.92
-214.92
-233.17
-222.28
-185.55
-131.07
-69.9
-13.78
27.26
47.15
45.65
28.97
8.26
-4.12
0.45
22.96
56
86.8
102.9
97.46
71.85
34.54
-2.75
-29.27
-38.03
-26.52
4.09
50.23
106.79
167.54
225.55
274.2
308.57
326.8
330.35
323.15
309.88
294.17
277.76
260.58
241.66
219.94
194.77
165.99
133.65
98
59.72
20.29
-17.79
-51.36
-77.47
-94.46
-102.66
-104.5
-103.66
-103.83
-107.31
-114.37
-123.36
-131.48
-135.87
-134.35
-125.68
-109.32
-85.24
-54.01
-17.14
22.51
60.85
93.21
115.58
125.68
123.46
110.77
90.41
65.2
37.33
8.39
-20.41
-47.94
-73.27
-95.85
-115.88
-134.16
-151.79
-169.61
-187.83
-206.13
-223.91
-240.85
-257.3
-274.43
-294.01
-318.06
-348.12
-384.41
-425.04
-465.74
-500.55
-523.37
-529.85
-518.88
-492.72
-455.89
-413.22
-368.27
-322.68
-276.79
-230.73
-185.17
-141.31
-100.03
-61.11
-22.91
16.99
60.81
109.46
162.15
216.41
268.8
315.92
355.37
386.34
409.8
427.96
443.48
458.32
472.98
486.21
495.51
498.19
492.46
478.04
455.98
427.9
395.08
358.07
316.89
271.88
224.31
176.36
130.55
88.57
50.45
14.47
-22.12
-62.35
-108.76
-162.98
-225.07
-292.74
-360.77
-421.33
-465.74
-487.08
-482.62
-454.73
-409.6
-354.46
-294.82
-233.24
-170.16
-105.81
-41.79
18.75
72.46
117.53
154.54
185.78
213.64
238.94
260.29
274.62
278.73
270.64
250.23
218.9
178.83
132.27
81.39
28.63
-22.74
-68.53
-103.88
-124.34
-127.05
-111.8
-81.49
-41.61
0.75
38.47
65.73
78.85
76.46
59.1
28.69
-11.88
-58.69
-106.62
-149.26
-179.75
-192.25
-183.59
-154.43
-109.1
-54.29
3
57.17
105.02
145.72
180.13
209.85
236.14
259.25
278.03
290.35
293.86
287.2
270.76
246.64
217.74
186.36
153.21
117.39
77.43
32.9
-14.18
-59.03
-95.27
-117.19
-122.32
-113
-96.16
-81.15
-76.69
-88.14
-116.53
-159.29
-211.84
-269.23
-326.75
-379.94
-424.48
-456.55
-473.72
-475.77
-464.94
-445.2
-421.27
-397.52
-377.31
-362.56
-353.64
-349.23
-346.66
-342.62
-334.05
-319.08
-297.28
-269.31
-236.33
-199.41
-159.48
-117.57
-75.17
-34.26
3.34
36.75
66.82
96.5
130.3
172.82
226.47
289.29
353.75
407.88
438.63
436.73
400.9
339.38
267.82
204.1
162.59
150.25
165.82
202.03
248.83
296.27
335.91
361.37
368.37
355.12
322.71
274.84
216.77
153.79
89.94
27.83
-30.5
-82.6
-125.29
-155.37
-171.02
-172.57
-162.32
-143.56
-119.55
-93.22
-67.59
-46.3
-33.26
-31.2
-39.76
-54.4
-67.1
-68.88
-53.29
-18.95
29.71
83.85
133.25
169.71
189.31
193.07
185.7
173.38
161.87
155.12
154.84
160.61
170.1
179.27
183.16
177.29
159.34
130.83
97
64.67
39.13
21.97
10.99
2.2
-7.8
-20.9
-36.81
-54.61
-74.29
-97.35
-125.4
-158.43
-193.81
-227.19
-255.52
-276.94
-291.24
-299.96
-306.51
-315.36
-330.45
-353.65
-383.56
-417.06
-447.29
-465.53
-464.89
-443.33
-403.97
-352.71
-295.7
-238.03
-186.13
-144.21
-113.7
-93.59
-81.34
-73.33
-65.14
-53.11
-20.73
33.29
96.07
149.99
185.32
202.3
205.81
201.01
191.7
180.31
166.02
149.55
133.01
118.86
108.92
102.28
97.48
93.55
90.18
85.57
79.8
74.21
70.57
69.74
71.5
75.67
82.86
94.92
108.62
123.91
142.15
164.77
191.47
219.45
244.16
260.71
265.66
257.7
239.57
216.12
192.22
170.65
151.37
132.72
112.88
91.25
68.3
45.98
26.13
10.03
-1.55
-8.01
-8.62
-2.97
8.49
23.94
40.82
56.21
67.87
74.94
77.91
78.01
76.37
73.43
68.76
61.62
51.46
38.52
24.13
10.43
-0.39
-6.98
-9.32
-8.79
-7.54
-7.75
-11.04
-18.16
-29.11
-43.32
-59.88
-77.57
-94.95
-110.48
-122.83
-131.13
-135.16
-135.22
-132.01
-126.55
-120.27
-115.11
-113.44
-117.58
-129.11
-148.3
-174.03
-204.11
-235.91
-266.76
-294.1
-315.19
-327.11
-327.09
-313.34
-285.73
-246.1
-197.8
-144.92
-91.49
-40.96
4.08
41.96
72.09
94.81
111
121.45
126.38
125.4
118.12
105.12
88.5
71.84
59.14
53.54
56.22
66.2
80.84
96.88
111.4
122.38
128.92
130.94
128.89
123.48
115.59
106.26
96.69
88.03
81.09
75.94
71.89
67.63
61.93
54.23
45
35.59
27.48
21.54
17.48
13.87
8.82
0.7
-11.12
-26.14
-42.84
-59.01
-72.03
-79.19
-78.2
-67.74
-48.02
-20.91
10.53
42.93
73.6
101.04
124.89
145.42
162.94
177.54
189.32
198.71
206.68
214.64
224.09
236.08
250.86
267.67
284.86
300.22
311.35
316.3
314.07
304.89
290.17
271.98
252.39
232.8
213.64
194.51
174.58
153.05
129.3
102.83
72.98
38.77
-0.73
-45.5
-93.52
-140.31
-179.81
-206.35
-217.06
-213.41
-200.74
-186.09
-175.03
-169.26
-166.28
-161.15
-149.4
-129.6
-104.24
-78.63
-58.75
-48.94
-50.65
-62.36
-80.68
-101.93
-123.62
-145.16
-167.65
-192.78
-221.63
-253.86
-287.47
-319.39
-346.08
-364.24
-371.07
-364.53
-343.62
-308.77
-262.19
-207.83
-150.66
-95.68
-46.75
-5.93
26.49
51.35
69.79
82.52
89.7
91.26
87.64
80.36
72.02
65.68
63.65
66.48
72.58
78.9
82.43
81.69
77.7
73.57
73.19
79.64
93.91
114.68
138.83
162.52
182.09
194.85
199.38
195.51
184.02
165.96
141.89
111.34
72.87
25.01
-32.11
-95.21
-157.22
-208.38
-238.89
-242.37
-218.71
-174.84
-122.9
-76.28
-44.93
-32.06
-33.3
-39
-38.24
-23
9.32
55.79
109.69
162.95
208.32
240.44
256.07
254.01
234.88
200.88
155.37
102.19
45.01
-13.08
-69.53
-122.06
-168.31
-205.88
-232.58
-246.86
-248.3
-238.07
-219.26
-196.9
-177.37
-166.89
-169.47
-185.07
-209.06
-233.32
-249.03
-249.76
-233.52
-202.95
-163.66
-121.72
-81.53
-44.89
-11.42
20.22
50.94
80.48
107.39
129.69
145.9
155.75
160.43
162.15
163.25
165.3
168.61
172.22
174.33
172.73
165.25
150.05
126.07
93.62
54.79
13.49
-25.21
-56.41
-76.65
-84.75
-81.76
-70.19
-53.14
-33.67
-14.64
1.21
11.48
14.62
10.58
1
-11.14
-22.64
-31.19
-36.04
-37.95
-38.46
-39.04
-40.37
-42.16
-43.42
-42.88
-39.54
-32.89
-23.11
-10.85
3.05
18.03
34.03
51.53
71.26
93.69
118.71
145.55
173.17
200.63
227.48
253.74
279.66
305.3
330.11
352.83
371.46
383.67
387.38
381.48
366.28
343.56
316.12
286.93
258.25
231.21
205.88
181.84
158.77
136.82
116.51
98.37
82.47
68.19
54.36
39.64
22.95
3.86
-17.36
-39.91
-62.77
-85.19
-106.97
-128.69
-151.81
-178.44
-210.84
-250.4
-296.64
-346.44
-394.19
-432.99
-456.56
-461.15
-446.6
-416.24
-375.74
-331.46
-289.09
-252.8
-225.04
-206.65
-197.23
-195.62
-200.26
-209.39
-221.09
-233.08
-242.76
-247.48
-245.27
-235.39
-218.42
-196.11
-169.87
-139.7
-104.16
-61.28
-9.61
51.28
120.51
195.79
272.77
345.66
407.92
453.53
478.57
482.34
467.62
439.3
402.4
359.32
310.92
258.02
202.86
149.39
102.57
66.68
43.45
30.77
20.12
2.23
-29.03
-74.67
-130.92
-190.49
-244.22
-283.46
-302.86
-307.6
-305.22
-301.01
-296.81
-293.13
-290.78
-290.67
-293.51
-300
-319.54
-356.66
-406.08
-454.89
-490.55
-506.49
-503.06
-486.14
-465.58
-464.38
-498.44
-567.8
-657.75
-748.58
-823.54
-872.18
-890.99
-813.2
-620.35
-354.11
-88.8
123.7
272.37
369.9
433.03
472.41
497.86
501.75
480.12
440.25
397.69
366.31
352.82
354.1
364.9
379.86
385.82
375.83
353.21
328.41
310.98
305.19
311.03
327.51
353.79
382.86
408.76
427.83
437.35
433.27
411.15
369.69
313.3
250.71
188.49
131.86
83.89
45.09
13.32
-14.74
-41.58
-67.28
-89.8
-106.99
-115.97
-113.3
-95.84
-62.17
-13.71
44.34
103.15
151.34
177.53
174.05
139.73
80.77
8.74
-63.3
-125.14
-171.92
-204.12
-225.34
-239.26
-247.58
-249.58
-243.36
-227.49
-202.23
-169.41
-131.51
-90.64
-48.05
-4.78
37.44
75.68
106.41
126.84
136.4
137.2
133.16
128.37
125.52
125.32
127.07
129.69
132.53
135.44
138.4
141.01
142.5
142.08
139.51
135.4
131
127.77
126.81
128.61
133.11
139.92
148.48
158.21
168.4
178.12
186.41
192.4
195.66
196.37
195.21
193.01
190.17
186.5
181.21
173.64
163.94
153.59
145.14
141.32
143.83
152.46
164.93
177.57
186.49
188.66
182.59
168.41
147.37
121.22
91.68
60.19
27.88
-4.29
-35.53
-65.16
-92.65
-117.52
-139.3
-157.45
-171.55
-181.64
-188.53
-193.9
-200.03
-209.1
-222.47
-240.1
-260.51
-281.19
-299.27
-312.34
-319.11
-319.7
-315.59
-309.05
-302.39
-297.16
-293.69
-291.13
-287.85
-281.93
-271.51
-254.95
-230.88
-198.3
-156.85
-107.1
-50.62
10.15
72.38
133.19
189.94
240.03
280.87
309.83
324.71
324.26
308.7
279.59
239.27
190.1
134.15
73.48
10.87
-49.78
-103.88
-147.52
-178.96
-199.51
-212.88
-223.3
-233.42
-242.87
-248.43
-245.48
-229.94
-199.62
-154.83
-98.44
-35.56
26.79
80.8
119.78
140.6
145.47
142.13
141.87
155.78
190.78
246.88
317.01
389.33
451.11
492.52
509.01
501.7
475.91
438.88
397.5
356.92
320.08
288.18
261.3
238.82
219.53
201.69
183.34
162.73
139
112.26
83.38
53.43
23.02
-8.1
-41.13
-77.61
-118.65
-163.85
-210.74
-255.04
-291.85
-317.27
-329.82
-330.76
-323.27
-310.99
-296.61
-281.55
-266.55
-252.72
-242.04
-236.83
-238.25
-244.82
-251.9
-252.96
-241.98
-216.41
-178.93
-137.37
-102.58
-85.13
-92.07
-124.9
-179.14
-245.86
-313.7
-371.34
-410.79
-429.12
-428.3
-413.96
-393.11
-371.74
-353.44
-338.69
-325.31
-310.63
-292.83
-271.11
-245.49
-216.27
-183.65
-148.36
-111.06
-71.47
-30.39
10.41
49.46
86.07
120.64
154.51
187.75
221.16
259.08
304.23
356.69
415.16
475.9
532.45
576.58
597.12
587.73
554.97
507.57
452.9
397.84
346.26
298.51
252.69
201.06
139.62
78.14
22.8
-27.04
-72.93
-117.38
-163.36
-213.91
-279.28
-366.01
-462.89
-561.09
-655.75
-738.33
-799.51
-832.88
-790.97
-659.05
-523.98
-420.17
-334.96
-263.69
-200.35
-139.41
-77.33
-12.78
46.1
92.16
131.82
163.75
178.23
169.08
136.79
89.51
40.74
-1.33
-31.12
-38.27
-23.26
4.38
36.62
68.88
99.55
128.35
151.32
165.75
177.28
190.03
204.84
222.14
240.43
256.1
264.61
260.6
241.93
213.2
179.94
146.57
117.09
94.3
79.21
71.08
67.1
64.16
60.73
56.05
50.15
44.49
41.28
42.1
47.15
55.12
64.12
72.61
80.26
87.61
95.43
104.45
114.08
122.43
127.27
127.5
123.79
118.84
115.88
117.44
125.87
140.87
159.34
176.87
189.92
196.91
199.25
199.34
199.37
203.69
213.53
225.74
233.99
232
215.2
183.94
141.37
92.97
51.14
26.33
23.37
41.2
75.94
122.15
177.29
238.44
302.15
371.57
446.33
519.92
581.69
622.64
637.78
631.02
608.92
535.3
399.73
222.86
44.88
-102.65
-199.22
-261.88
-304.09
-334.5
-359.55
-376.53
-384.37
-386.83
-390.53
-399.79
-415.62
-432.23
-444.15
-448.66
-440.73
-419.92
-390.86
-360.5
-333.55
-311.93
-292.48
-272.8
-252.81
-230.88
-207.27
-183.91
-162.89
-144.56
-128.04
-110.42
-90.29
-67.94
-42.7
-14.59
15.37
45.39
73.84
99.55
123.06
145.08
166.02
185.92
203.06
213.92
214.5
202.17
176.94
141.85
101.1
59.27
20.34
-12.99
-39.64
-59.8
-74.32
-84.09
-89.65
-92.43
-93.65
-94.55
-97.35
-105.51
-122.38
-148.99
-182.6
-216.86
-246.21
-264.96
-268.32
-254.16
-224.18
-183.29
-137.76
-93.5
-54.98
-28.33
-15.69
-14.14
-18.54
-25.55
-35.42
-50.85
-75.11
-110.37
-161.41
-227.95
-302.52
-373.66
-430.88
-467.53
-481.26
-473.66
-419.4
-316.78
-189.48
-70.08
21.66
83.16
120.31
140.04
147.94
148.45
141.82
129.65
117.11
109.54
108.95
113.46
119.84
125.98
132.25
137.98
141.72
146.96
157.82
175.51
197.68
219.96
237.62
246.88
243.35
227.24
203.48
178.66
158.04
144.34
137.87
137.22
140.23
144.08
149.49
159.34
175.71
198.31
224.72
251.44
274.82
291.71
299.7
300.45
297.26
292.46
287.1
281.42
275.21
267.57
256.92
226.85
171.34
98.23
24.46
-34.91
-74.25
-96.26
-107.18
-112.61
-115.51
-115.26
-109.13
-97.51
-83.74
-72.19
-66.14
-67.05
-74.82
-88.75
-106.72
-123.1
-135.98
-144.94
-149.67
-149.38
-143.4
-132
-116.86
-99.5
-82.11
-68.41
-62.15
-65.88
-79.91
-101.77
-126.24
-146.2
-153.73
-142.88
-112.43
-65.55
-8.81
49.68
102.08
142.21
166.53
174.72
169.22
153.81
132.73
109.33
85.36
60.96
35.5
8.54
-19.6
-47.98
-75.87
-103
-129.43
-154.79
-177.59
-195.07
-204.27
-203.33
-192.81
-176.14
-158.72
-146.27
-143.11
-150.89
-168.41
-192.26
-217.91
-240.75
-256.8
-263.09
-257.67
-239.72
-209.63
-169.16
-121.39
-70.4
-20.46
24.82
63.48
95.69
123.59
150.41
179.15
211.42
246.79
282.91
316.22
342.79
359.09
362.61
352.34
329.16
295.92
257.1
217.71
182.12
153.07
131.51
117.08
108.97
106.23
107.52
110.45
111.31
105.63
89.79
62.61
26.14
-14.98
-55.33
-90.83
-120.02
-143.78
-163.98
-181.74
-196.38
-205.5
-206.17
-196.26
-175.64
-146.51
-112.97
-79.94
-51.76
-30.98
-17.8
-10.28
-5.47
-0.8
4.76
10.57
15.02
16.74
15.5
12.23
8.29
4.46
0.54
-4.26
-10.35
-17.03
-22.33
-23.82
-19.86
-10.42
2.78
17.08
30.09
40.76
49.6
58.07
67.39
77.41
86.07
89.95
85.55
70.89
46.56
15.91
-15.87
-43.3
-62.09
-70.38
-68.88
-60.4
-48.8
-37.82
-30.08
-26.29
-24.7
-21.09
-9.74
14.42
53.05
102.49
153.7
194.97
216.24
213.16
188.7
151.41
111.19
74.96
44.32
16.3
-13.68
-48.57
-87.96
-128.44
-165.63
-196.38
-220.12
-238.82
-255.86
-274.44
-296.08
-320.17
-344.39
-365.97
-382.91
-394.55
-401.09
-402.46
-397.22
-382.42
-354.85
-312.81
-257.68
-194.18
-128.89
-67.75
-13.88
33.1
76.05
117.88
159.56
199.26
233.2
257.47
269.71
269.78
259.42
241.1
217.11
189.28
159.21
128.65
99.6
73.9
52.76
36.46
24.4
15.51
8.69
3.19
-1.44
-5.34
-8.41
-10.38
-10.89
-9.6
-6.4
-1.64
3.86
8.74
11.43
10.6
5.99
-0.77
-5.63
-2.38
15.6
52.71
108.21
174.88
240.22
290.09
313.34
305.21
268.27
210.75
143.33
76.14
16.91
-29.83
-62.5
-82.19
-91.81
-95.08
-95.3
-94.24
-92.11
-88.22
-82.15
-74.42
-66.26
-58.81
-52.41
-46.57
-40.62
-34.49
-29.08
-25.88
-26.21
-30.42
-37.62
-46
-53.51
-58.61
-60.72
-60.31
-58.72
-57.92
-60.33
-68.61
-85.18
-111.27
-145.66
-183.98
-219.4
-244.9
-256.13
-253.67
-242.99
-231.95
-227.11
-230.5
-238.96
-246.05
-245.55
-234.33
-213.22
-185.74
-155.47
-124.16
-91.21
-54.64
-12.58
35.59
88.7
143.88
196.88
242.8
277.15
297.09
302.28
294.96
279.01
258.25
235.11
210.31
183.67
155.42
126.76
99.54
75.1
53.36
32.92
12.26
-9.02
-29.4
-45.7
-54.02
-50.78
-33.86
-3.41
37.57
83.4
126.67
160.04
178.23
179.41
165.27
139.69
106.9
70.07
30.93
-9.39
-49.28
-85.88
-115.26
-133.24
-136.46
-123.21
-93.64
-49.64
5.37
66.6
128.1
183.47
226.93
254.7
266.08
263.64
252.09
236.45
220.24
204.55
188.26
169.18
145.51
116.75
83.9
49.12
15.11
-15.45
-40.31
-58.01
-68.09
-71.12
-68.59
-62.62
-55.42
-48.76
-43.35
-38.48
-32.02
-21.16
-3.52
21.53
52.03
83.43
109.56
124.23
122.7
102.89
65.93
16
-40.39
-95.68
-142.85
-177.02
-196.49
-202.75
-199.28
-189.72
-176.17
-158.65
-136.03
-107.81
-75.75
-44.21
-18.89
-4.5
-2.72
-11.41
-25.6
-39.48
-48.47
-50.45
-45.65
-35.8
-23.01
-9.07
4.67
17.12
27.14
33.48
34.92
30.7
20.9
6.47
-11.08
-30.24
-50.04
-70.17
-90.57
-110.63
-128.69
-142.04
-147.8
-143.89
-130.1
-108.34
-82.18
-55.58
-31.53
-11.36
5.14
19.01
31.3
42.32
51.47
57.58
59.7
57.79
52.68
45.56
37.15
27.67
16.74
3.75
-11.69
-29.24
-47.38
-64.22
-78.42
-90.13
-99.97
-109.14
-118.94
-130.66
-144.77
-159.65
-172.59
-180.95
-184.19
-181.83
-174.35
-163.1
-150.59
-139.73
-131.71
-127.03
-126.04
-130.42
-138.54
-146.59
-149.33
-142.65
-124.62
-94.1
-52.42
-3.69
44.22
86.4
120.44
146.43
165.04
166.12
142.79
97.8
56.02
24.92
6.47
-4.88
-11.3
-14.72
-16.58
-15.9
-11.14
-1.78
8.96
19.57
29.09
37.45
44.08
48.77
53.34
60.25
71.17
84.68
100.33
117.72
136.79
156.91
177.63
199.85
225.02
254.4
287.91
326.42
370.64
420.47
473.31
524.2
567.18
596.7
609.01
602.63
579.5
543.66
499.96
452.37
403.6
355.45
309.14
265.45
224.38
185.38
147.23
108.74
68.73
26.32
-18.7
-65.61
-113
-159.46
-204.23
-247.7
-290.54
-334.46
-381.84
-434.49
-491.79
-549.87
-602.43
-642.53
-664.68
-664.45
-641.63
-600.92
-550.2
-496.97
-445.86
-398.23
-353.28
-309.48
-262.56
-210.24
-154.01
-98.15
-46.29
0.84
44.89
88.39
133.74
186.99
252.38
329.2
411.51
490.73
558.3
606.73
631.15
604.54
517.17
386.42
248.31
132.3
47.98
-9.41
-49.09
-77.97
-99.46
-110.81
-110.44
-102.67
-94.81
-93.67
-102.17
-119.35
-140.89
-161.17
-171.96
-168.15
-150.71
-125.78
-100.96
-78.79
-61.22
-48.3
-39.03
-30.24
-19.77
-7.72
4.32
15.15
25.12
34.88
44.89
54.64
64.12
73.67
84.07
96.63
112.95
134.07
159.13
185.61
209.96
229.32
242.21
248.77
250.6
250.15
250.22
253.2
260.91
274.05
291.69
311
327.4
335.63
331.1
311.42
277.1
231.55
179.78
126.77
76.03
29.01
-14.73
-56.58
-98.06
-140.42
-184.32
-229.94
-276.81
-323.53
-367.68
-406.19
-436.31
-456.7
-468.12
-473.17
-475.23
-477
-479.7
-483.13
-486.56
-489.61
-492.51
-495.57
-498.25
-498.77
-494.43
-482.83
-462.97
-435.7
-403.1
-367.5
-330.33
-291.79
-251.36
-208.51
-163.07
-115.4
-66.1
-16.32
31.9
75.45
110.87
135.86
150.87
159.74
168.45
182.52
204.45
232.54
262.02
287.61
306.13
317.51
323.97
328.07
331.11
332.81
332.19
328.81
323.48
317.83
313.59
311.56
311.44
312.26
313.28
314.51
316.7
320.45
325.21
328.55
326.59
315.29
292.15
257.48
214.36
167.42
120.98
77.5
37.15
-1.64
-40.7
-80.82
-121.16
-159.35
-192.41
-217.6
-233.08
-238.14
-233.13
-219.15
-197.79
-170.74
-139.44
-104.84
-67.42
-27.58
13.53
53.32
87.66
111.49
120.46
112.3
87.63
49.49
1.91
-51.86
-110.45
-174.1
-243.22
-316.71
-391
-460.41
-518.73
-561.17
-585.73
-593.25
-586.57
-569.13
-543.98
-513.46
-479.47
-443.9
-408.71
-375.46
-344.89
-316.59
-289.31
-261.54
-232.18
-200.95
-168.17
-134.69
-101.31
-68.53
-36.52
-5.17
25.74
56.52
87.35
118.1
147.97
175.67
199.67
218.93
233.35
243.73
251.07
255.6
256.2
250.85
237.92
217.66
192.86
168.29
149.01
138.56
137.84
145.27
157.94
172.88
187.87
201.44
212.52
220.04
222.94
220.56
213.25
202.54
190.96
181.26
175.53
174.47
177.18
181.62
185.42
186.84
185.18
180.83
174.73
167.69
159.83
150.52
138.65
123.28
104.17
82.15
59.03
37.34
19.65
7.96
3.16
4.77
11.2
20.3
30.04
39.03
46.65
52.75
57.13
59.35
58.68
54.54
46.94
36.67
25.08
13.72
3.84
-3.82
-9.04
-12
-13.17
-13.37
-13.62
-15
-18.23
-23.47
-30.21
-37.63
-45.11
-52.57
-60.33
-68.61
-76.85
-83.35
-85.72
-81.7
-70.31
-52.37
-30.39
-7.72
12.5
28.07
37.93
41.94
40.64
35.09
26.97
18.52
12.23
10.16
13.33
21.3
32.45
44.56
55.57
64.12
69.73
72.73
73.97
74.6
75.86
78.74
83.84
91.09
99.81
109.01
117.78
125.87
134.12
144.33
158.69
178.5
203.04
228.95
250.7
262.22
258.94
239.44
205.95
163.5
118.21
75.45
38.56
8.68
-14.79
-33.26
-48.33
-61.44
-74.07
-87.8
-104.24
-124.67
-149.33
-177.11
-205.49
-231.08
-250.38
-260.27
-258.16
-241.84
-209.45
-160.07
-94.84
-18.06
62.57
137.22
196.37
233.58
247.18
240.21
218.59
188.52
154.39
118.2
80.48
41.95
4.67
-28.09
-53.09
-68.79
-76.19
-78.47
-79.48
-81.97
-86.49
-91.54
-94.84
-94.81
-91.58
-86.91
-83.14
-81.95
-83.6
-87.07
-90.79
-93.63
-95.32
-96.44
-97.71
-99.4
-101.08
-101.79
-100.41
-96.16
-88.8
-78.82
-67.34
-56.04
-46.8
-41.16
-39.75
-42.02
-46.31
-50.53
-53.05
-53.33
-52.08
-50.86
-51.39
-54.93
-61.75
-70.94
-80.53
-87.9
-90.66
-87.77
-80.35
-71.65
-66.2
-68.18
-80
-101.57
-130.59
-163.49
-196.38
-225.81
-248.86
-263.14
-266.84
-258.96
-239.65
-210.43
-173.91
-133.33
-91.76
-51.35
-12.8
24.87
64.17
108.23
159.49
218.04
280.47
339.99
388
416.66
421.53
402.88
364.97
314
255.69
193.99
131.45
70.39
13.78
-34.94
-73.04
-99.6
-115.8
-124.12
-127.25
-127.26
-125.57
-123.15
-120.76
-118.7
-116.69
-114.05
-110.33
-105.94
-102.21
-100.6
-101.55
-103.7
-104.18
-99.61
-87.64
-67.85
-41.97
-13.24
14.65
38.66
57.18
70.18
78.95
85.18
90.15
93.99
95.72
93.79
87.12
75.89
61.77
47.51
35.88
28.76
26.66
29.01
34.9
43.74
55.35
69.4
84.68
98.89
109.24
113.71
112.31
107.36
102.69
101.86
106.65
116.45
128.92
141.46
152.34
161.01
167.38
170.96
170.37
163.75
149.71
128.31
101.38
72
43.47
18.33
-2.3
-18.81
-32.65
-45.77
-59.84
-75.75
-93.24
-110.97
-127.11
-140.03
-148.93
-154.17
-157.2
-160.07
-164.82
-172.6
-183.04
-194.04
-201.92
-202.11
-190
-162.08
-117.05
-56.58
14.38
88.28
156.39
210.86
246.76
263.24
263.36
252.62
236.64
219.3
202.09
184.77
166.86
148.86
132.44
120.01
113.47
113.34
118.32
125.47
130.8
130.19
120
97.7
62.32
14.77
-41.9
-102.75
-161.66
-212.58
-251.04
-275.39
-287.29
-290.79
-290.75
-290.68
-291.38
-290.67
-284.4
-268.28
-239.55
-198.19
-147.17
-92.09
-39.83
3.09
32.18
46.09
46.35
36.12
18.29
-5.69
-35.72
-71.65
-111.65
-151.51
-185.63
-209.25
-220.48
-221.16
-215.86
-209.73
-206.32
-206.5
-208.77
-210.64
-210.09
-206.46
-200.45
-193.24
-185.47
-176.52
-164.65
-147.9
-125.48
-98.97
-72.36
-50.83
-38.67
-37.14
-43.68
-52.75
-58.24
-56.12
-46.17
-31.92
-18.74
-11.23
-11.03
-16.31
-22.79
-25.84
-22.37
-11.68
5.08
26.03
49.88
76.45
106.44
140.82
180.39
225.66
276.53
331.75
387.91
439.12
477.66
496.13
490.05
459.75
410.31
349.56
285.13
221.96
161.29
101.63
40.8
-22.11
-85.68
-146.35
-199.34
-239.9
-264.44
-271.4
-261.76
-239.16
-209.27
-178.94
-154.86
-142.35
-144.26
-160.4
-187.33
-218.81
-246.79
-263.21
-262.26
-242.51
-207.92
-166.75
-128.61
-100.68
-85.1
-78.95
-76.69
-73.67
-68.35
-62.14
-57.28
-54.23
-50.7
-42.74
-27.09
-3.03
27.46
61.47
97.44
136.28
180.42
231.27
286.85
340.73
383.63
406.8
405.75
382.5
345.31
305.91
275.6
261.76
266.14
285.32
312.93
342.23
368.19
388.17
401.58
408.75
409.92
404.67
392.15
371.82
344.18
311
275.01
239.12
205.44
174.73
146.58
119.91
93.7
67.51
41.33
15.13
-11.46
-38.79
-66.42
-92.36
-113.28
-125.86
-128.72
-123.78
-116.14
-112.29
-117.52
-133.89
-159.67
-190.6
-221.76
-249.36
-271.39
-287.44
-297.99
-303.88
-306.14
-306.06
-305.12
-304.77
-306.18
-309.85
-315.27
-320.84
-324.07
-322.07
-312.36
-293.76
-266.89
-234.3
-199.71
-167.04
-139.24
-117.75
-102.46
-92.17
-85.13
-79.6
-74.05
-67.17
-57.93
-45.7
-30.46
-13.02
5.07
21.86
35.53
45.04
50.43
52.82
53.87
54.98
56.58
57.8
56.87
51.87
41.7
26.53
7.86
-12.05
-30.61
-45.31
-53.93
-54.93
-47.99
-34.52
-17.72
-1.88
9.07
12.96
10.17
3.22
-4.49
-10.36
-13.52
-15.02
-17.05
-21.9
-31.09
-45.07
-63.27
-84.41
-106.92
-129.16
-149.69
-167.57
-182.51
-194.87
-205.47
-215.17
-224.35
-232.61
-238.68
-240.76
-237.12
-226.68
-209.44
-186.48
-159.72
-131.35
-103.35
-77.06
-53.01
-30.96
-9.98
11.31
34.5
60.96
91.21
124.31
157.71
187.72
210.72
224.61
229.8
229.23
227.23
227.86
233.28
243.1
254.87
265.23
271.37
271.98
267.47
259.47
250
240.71
232.46
225.24
218.28
210.37
200.19
186.73
169.7
150.05
130.12
113.22
102.81
101.35
109.4
125.44
146.49
169.19
190.89
210.15
226.67
241.02
254.16
267.24
281.24
296.56
312.53
327.14
337.36
339.98
332.84
315.69
290.38
260.19
228.72
198.75
171.67
147.37
124.68
101.99
77.73
50.82
20.85
-11.9
-46.69
-82.6
-118.9
-155.28
-191.8
-228.99
-268.1
-311.18
-360.62
-417.82
-481.42
-546.01
-602.68
-641.51
-655.13
-641.64
-605.2
-553.83
-495.86
-437.08
-380.28
-326.82
-278.69
-239.1
-211.13
-195.1
-187.12
-180.02
-166.29
-141.37
-105.1
-60.76
-12.52
37
87.42
139.13
191.18
239.93
279.99
306.72
318.79
319.18
313.91
309.92
312.53
324.06
343.95
369.99
399.44
429.38
456.52
476.38
484.66
478.51
457.55
424.01
382.15
337.03
292.95
252.56
215.32
179.86
144.91
109.33
71.52
29.83
-16.22
-64.82
-111.26
-151.01
-179.13
-192.87
-193.96
-189.47
-189.34
-202.48
-233.95
-283.64
-349.27
-423.99
-497.38
-557.91
-596.63
-609.21
-596.43
-563.91
-505.11
-426.23
-343.04
-271.33
-217.49
-179.83
-153.99
-134.79
-119.4
-105.66
-93.63
-81.63
-68.76
-53.05
-33.81
-11.87
11.5
35.13
58.65
80.45
100.4
119.91
141.26
166.07
195.22
229.29
268.09
310.13
350.69
383.78
403.81
407.37
393.8
365.42
326.74
282.57
236.74
191.11
147.16
107.13
74.24
51.3
39.34
36.96
40.68
46.28
50.09
50.07
45.82
38.08
27.9
16.51
5.67
-2.32
-5.1
-1.41
7.82
19.18
27.64
28.02
16.71
-7.52
-43.49
-88.39
-138.51
-189.71
-237.43
-276.87
-303.56
-314.56
-309.72
-292.34
-268.69
-246.44
-232.56
-231.41
-243.78
-267.04
-296.01
-324.51
-346.62
-357.88
-355.81
-340.14
-312.5
-275.84
-233.74
-189.49
-145.42
-102.51
-60.62
-19.22
21.68
60.97
96.5
125.83
147.18
160.06
165.15
163.67
156.7
144.84
128.49
108.42
86.09
63.61
43.05
25.89
12.58
2.85
-3.67
-6.82
-5.82
0.29
11.97
28.6
48.72
70.72
93.81
118.37
145.41
175.53
207.75
239.18
265.8
283.96
291.88
290.4
282.58
272.35
263.17
256.98
253.8
251.91
248.36
239.66
222.49
194.4
154.59
104.5
47.87
-9.98
-63.55
-108.86
-144.6
-172.23
-194.88
-215.42
-234.78
-251.3
-261.38
-261.11
-247.96
-221.62
-183.78
-137.21
-84.84
-29.36
26.58
79.95
127.32
165.26
191.35
205.17
208.76
206.38
203.1
203.1
208.15
217.18
227.04
234.16
236.03
231.76
221.56
205.66
184.09
157.55
128.72
102.87
86.66
85.42
100.35
127.37
158.47
184.91
200.74
204.62
199.32
189.57
179.42
170.79
163.28
155.34
145.44
132.85
117.59
99.88
79.38
54.82
24.61
-11.84
-52.52
-92.3
-124
-141.01
-140.08
-123.13
-96.65
-69.09
-47.41
-34.59
-29.38
-28.17
-27.86
-27.88
-30.32
-38.26
-53.55
-75.2
-99.58
-121.91
-138.26
-146.97
-148.94
-146.68
-142.9
-139.36
-136.26
-132.28
-125.1
-112.13
-91.29
-61.86
-25.16
15.16
53.67
84.29
101.98
104.03
90.5
63.49
25.8
-20.21
-72.72
-129.6
-187.32
-240.67
-283.86
-312.66
-326.29
-327.97
-323.61
-319.27
-318.81
-322.81
-329.18
-334.84
-337.25
-335
-327.39
-313.52
-291.88
-260.68
-218.75
-166.23
-104.65
-36.46
35.6
108.74
179.9
245.52
301.57
344.14
370.33
378.88
370.3
346.36
309.52
262.59
208.95
152.8
99.08
52.61
16.77
-7.58
-22.33
-31.25
-38.41
-46.67
-56.85
-67.9
-77.9
-85.27
-89.54
-91.5
-92.66
-94.35
-97.09
-100.3
-102.61
-102.54
-99.29
-93.2
-85.67
-78.61
-73.55
-70.96
-70.21
-69.91
-68.42
-64.05
-54.8
-38.56
-13.72
19.53
58.14
96.36
127.49
146.4
151.59
145.41
132.31
116.29
99.19
80.73
60.06
37.54
15.34
-3.58
-17.1
-25.24
-30.03
-34.17
-39.44
-45.84
-51.74
-55.03
-54.29
-49.57
-42.43
-35.23
-30.2
-28.56
-30.11
-33.52
-37.03
-39.39
-40.51
-41.53
-44.06
-49.24
-56.78
-64.62
-69.66
-68.95
-61.18
-47.37
-30.8
-15.78
-6.15
-3.93
-8.78
-18.33
-29.29
-38.65
-44.67
-47.31
-47.98
-48.8
-51.98
-59.28
-71.92
-90.52
-115.05
-144.44
-176.21
-206.45
-230.48
-244.04
-244.43
-231.23
-206.29
-173.06
-135.75
-98.63
-65.74
-40.65
-26.04
-22.98
-30.18
-43.67
-57.51
-65.15
-61.16
-42.29
-8.02
39.82
97.45
159.72
220.62
274.03
314.81
339.94
349.51
346.81
337.57
328.32
324.56
329.25
342.16
359.99
377.53
389.1
390.27
378.98
355.87
323.59
285.59
244.85
203.11
160.91
118.15
74.93
32.31
-7.38
-40.9
-65.01
-77.62
-78.63
-69.99
-54.93
-36.65
-17.53
0.86
16.88
27.86
29.9
18.92
-7.49
-48.34
-98.62
-150.5
-195.6
-227.66
-244.09
-246.33
-238.39
-224.78
-208.71
-191.26
-171.92
-150.05
-126.51
-104.23
-87.62
-80.59
-84.59
-97.34
-113.2
-124.75
-125.2
-110.52
-80.55
-38.96
7.9
52.5
87.53
107.09
107.47
87.76
50.01
-0.96
-58.42
-115.12
-164.86
-203.81
-230.94
-247.87
-257.89
-264.72
-271.46
-280.02
-291.01
-303.96
-317.62
-330.36
-340.58
-346.98
-348.81
-345.9
-338.49
-326.91
-311.36
-291.75
-267.9
-239.81
-207.97
-173.49
-137.92
-102.91
-69.73
-38.93
-10.29
17.04
44.15
72.1
101.65
133.16
166.41
200.49
233.71
263.61
287.32
302.25
306.92
301.48
287.55
267.31
242.32
212.93
178.63
139.27
96.35
53.41
15.27
-13.73
-31.24
-37.38
-34.02
-23.38
-6.84
15.08
41.88
72.05
102.68
130.2
151.8
166.66
176.26
183.48
191.03
199.83
208.42
213.63
212.2
202.54
185.62
164.69
143.92
126.8
115.02
108.35
105.11
102.84
98.75
90.06
74.38
50.48
18.88
-17.78
-55.05
-87.79
-111.23
-121.99
-118.54
-101.55
-73.83
-40.19
-6.5
21.69
40.89
50.79
54.18
55.6
59.29
67.51
80
94.53
108.23
118.82
125.35
128.29
129.15
129.88
132.23
137.31
145.03
153.94
161.27
163.43
157.06
140.43
114.7
84.36
56.13
