15.34
18.79
19.75
17.67
12.72
5.84
-1.56
-8.05
-12.68
-15.18
-15.88
-15.4
-14.38
-13.24
-12.25
-11.58
-11.44
-12.04
-13.47
-15.61
-18.11
-20.55
-22.57
-24.01
-24.96
-25.56
-25.84
-25.61
-24.53
-22.29
-18.78
-14.25
-9.19
-4.22
0.1
3.35
5.25
5.63
4.5
2.04
-1.4
-5.33
-9.2
-12.49
-14.73
-15.53
-14.64
-12.04
-8.07
-3.46
0.81
3.88
5.29
5.2
4.25
3.21
2.62
2.58
2.82
2.91
2.52
1.59
0.28
-1.21
-2.89
-5.02
-7.98
-11.99
-16.97
-22.5
-27.93
-32.57
-35.92
-37.72
-38
-36.87
-34.55
-31.31
-27.63
-23.91
-20.33
-16.8
-13.17
-9.35
-5.35
-1.42
2.07
4.46
5.44
5.3
4.66
3.99
3.54
3.22
2.83
2.09
0.41
-2.34
-5.57
-8.39
-10.2
-10.85
-10.51
-9.54
-8.33
-7.78
-8.25
-9.29
-10.07
-10.14
-9.31
-7.51
-4.55
3.34
16.34
30.6
41.28
46.13
45.48
41.1
35.03
28.89
23.51
18.32
12.87
6.92
1.63
-1.94
-3.32
-2.79
-1.14
0.67
1.45
0.79
-0.81
-2.44
-3.72
-4.18
-4.12
-3.9
-3.66
-3.59
-3.72
-3.91
-4.03
-4.13
-4.05
-3.39
-1.46
2.16
7.07
12.18
16.17
17.99
17.17
14.08
9.64
5.01
1.08
-1.77
-3.56
-4.45
-4.59
-4.13
-3.25
-2.28
-1.57
-1.32
-1.51
-1.88
-2.03
-1.69
-0.84
0.27
1.26
1.83
1.86
1.41
0.65
-0.27
-1.24
-2.19
-3.04
-3.65
-3.9
-3.72
-3.18
-2.45
-1.77
-1.33
-1.08
-0.74
0.15
2.1
5.38
9.83
14.89
19.72
23.43
25.38
25.27
23.17
19.46
14.73
9.57
4.56
0.15
-3.32
-5.53
-6.24
-5.32
-2.79
1.02
5.55
10.14
14.17
17.3
19.42
20.61
20.97
20.5
19.11
16.77
13.54
9.67
5.49
1.35
-2.47
-5.81
-8.6
-10.88
-12.69
-14.07
-15.02
-15.53
-15.57
-15.18
-14.4
-13.3
-11.95
-10.4
-8.7
-6.95
-5.23
-3.68
-2.36
-1.31
-0.48
0.18
0.71
1.13
1.42
1.55
1.52
1.34
1.08
0.83
0.71
0.84
1.3
2.08
3.06
4.07
4.94
5.58
6.04
6.46
6.97
7.62
8.35
8.99
9.38
9.42
9.13
8.6
7.93
7.22
6.5
5.78
5.09
4.5
4.09
3.95
4.14
4.64
5.39
6.22
6.97
7.45
7.6
7.42
6.99
6.44
5.84
5.2
4.42
3.44
2.19
0.66
-1.13
-3.12
-5.25
-7.39
-9.39
-11.05
-12.23
-12.93
-13.31
-13.66
-14.31
-15.46
-17.13
-19.15
-21.19
-22.87
-23.89
-24.09
-23.46
-22.1
-20.13
-17.68
-14.82
-11.67
-8.41
-5.29
-2.6
-0.56
0.74
1.38
1.58
1.61
1.65
1.82
2.16
2.61
3.09
3.51
3.81
3.94
3.89
3.72
3.52
3.43
3.59
4.15
5.13
6.51
8.15
9.92
11.66
13.25
14.58
15.54
16.02
16.01
15.58
14.9
14.18
13.58
13.15
12.85
12.53
12.06
11.36
10.4
9.25
8.01
6.81
5.76
4.91
4.27
3.8
3.43
3.06
2.58
1.95
1.15
0.25
-0.6
-1.19
-1.36
-0.97
-0.06
1.17
2.4
3.32
3.68
3.43
2.69
1.65
0.53
-0.56
-1.59
-2.6
-3.61
-4.6
-5.49
-6.21
-6.7
-6.95
-6.94
-6.68
-6.15
-5.36
-4.36
-3.3
-2.34
-1.63
-1.26
-1.21
-1.34
-1.56
-1.78
-1.99
-2.24
-2.54
-2.86
-3.1
-3.15
-2.92
-2.41
-1.66
-0.78
0.1
0.87
1.47
1.87
2.14
2.34
2.57
2.87
3.24
3.62
3.95
4.21
4.41
4.57
4.7
4.79
4.79
4.65
4.35
3.91
3.36
2.73
2.07
1.34
0.51
-0.48
-1.65
-2.97
-4.35
-5.66
-6.77
-7.61
-8.12
-8.31
-8.22
-7.95
-7.58
-7.21
-6.87
-6.49
-5.98
-5.2
-4.14
-2.86
-1.55
-0.43
0.35
0.72
0.77
0.61
0.37
0.14
-0.06
-0.21
-0.28
-0.24
-0.03
0.33
0.77
1.15
1.31
1.18
0.76
0.18
-0.43
-0.94
-1.3
-1.53
-1.7
-1.86
-2.08
-2.38
-2.75
-3.16
-3.58
-3.95
-4.2
-4.3
-4.25
-4.09
-3.88
-3.64
-3.36
-3
-2.5
-1.89
-1.22
-0.59
-0.11
0.17
0.25
0.17
0.04
-0.1
-0.21
-0.32
-0.42
-0.49
-0.44
-0.19
0.33
1.12
2.07
2.99
3.7
4.13
4.34
4.46
4.63
4.99
5.58
6.42
7.36
8.35
9.38
10.5
11.71
12.93
14.09
15.16
16.16
16.93
17.36
17.52
17.54
17.46
17.21
16.67
15.71
14.21
11.71
7.93
2.98
-2.86
-9.37
-16.42
-23.89
-31.44
-38.51
-44.85
-49.99
-53.31
-54.4
-53.38
-50.94
-47.87
-44.81
-38.99
-29.66
-18.49
-8.29
-0.78
3.86
6.36
7.69
8.71
9.97
11.19
12.03
12.57
13.18
14.22
15.79
17.67
19.45
20.7
20.96
20.14
18.83
17.85
17.71
18.31
19.07
19.28
18.54
16.71
14.1
11.38
9.13
7.6
6.67
6.14
5.91
6.03
6.47
7.37
8.69
10.29
11.92
13.28
14.14
14.34
13.76
12.3
9.93
6.64
2.46
-2.51
-8.08
-13.91
-19.52
-24.47
-28.38
-31.06
-32.54
-33.02
-32.72
-31.8
-30.32
-28.3
-25.93
-23.32
-20.63
-18.04
-15.68
-13.62
-11.84
-10.19
-8.49
-6.73
-4.87
-3
-1.23
0.34
1.71
3.01
4.4
6.58
9.45
12.48
15.3
17.95
20.47
22.58
23.66
23.07
20.47
16.08
10.67
5.27
0.67
-2.85
-5.38
-7.18
-8.46
-9.24
-9.74
-9.75
-9.18
-8.14
-6.91
-5.79
-4.99
-4.51
-4.2
-3.86
-3.3
-2.47
-1.51
-0.7
-0.28
-0.33
-0.73
-1.21
-1.5
-1.47
-1.18
-0.79
-0.59
-0.81
-1.6
-2.94
-4.65
-6.48
-8.12
-9.3
-9.8
-9.49
-8.36
-6.55
-4.33
-2.07
-0.08
1.5
2.74
3.82
4.95
6.23
7.62
8.98
10.21
11.22
11.96
12.31
12.06
10.98
9.05
6.52
4
2.2
1.63
2.35
3.93
5.55
6.37
5.71
3.24
-1.06
-7.04
-14.31
-22.3
-30.18
-37.02
-42.06
-44.94
-45.86
-45.42
-44.3
-42.93
-41.27
-38.95
-35.57
-30.92
-25.18
-18.75
-12.08
-5.5
0.85
6.95
12.72
18.05
22.75
26.67
29.74
32.02
33.6
34.54
34.81
34.28
32.84
30.46
27.24
23.44
19.36
15.29
11.42
7.89
4.72
1.87
-0.72
-3.16
-5.54
-7.83
-9.94
-11.71
-12.99
-13.72
-13.93
-13.7
-13.07
-11.97
-10.29
-7.98
-5.12
-1.99
1.04
3.7
5.89
7.72
9.42
11.18
13.08
15.04
16.9
18.51
19.74
20.54
20.94
20.98
20.71
20.22
19.61
19
18.49
18.17
18.06
18.11
18.14
17.88
17.11
15.7
13.75
11.58
9.58
8.09
7.25
6.96
6.96
6.94
6.65
6.01
5.01
3.71
2.18
0.51
-1.23
-2.92
-4.43
-5.67
-6.54
-7.03
-7.2
-7.11
-6.81
-6.31
-5.57
-4.54
-3.24
-1.7
-0.06
1.56
3.06
4.4
5.63
6.88
8.27
9.87
11.66
13.46
15.05
16.17
16.7
16.66
16.29
15.9
15.72
15.83
16.1
16.25
16.02
15.24
13.87
12.03
9.87
7.61
5.42
3.47
1.9
0.8
0.18
-0.03
0.11
0.5
1.07
1.73
2.38
2.9
3.19
3.25
3.12
2.9
2.65
2.33
1.83
1.01
-0.16
-1.63
-3.26
-4.91
-6.5
-8.03
-9.5
-10.92
-12.25
-13.42
-14.4
-15.16
-15.7
-15.98
-15.96
-15.57
-14.77
-13.56
-12.05
-10.37
-8.69
-7.14
-5.83
-4.83
-4.12
-3.65
-3.32
-3.02
-2.69
-2.24
-1.66
-0.93
-0.06
0.89
1.81
2.56
3.05
3.26
3.28
3.25
3.29
3.42
3.55
3.55
3.3
2.78
2.04
1.23
0.47
-0.22
-0.85
-1.44
-2.02
-2.55
-3.03
-3.48
-3.92
-4.38
-4.88
-5.35
-5.64
-5.62
-5.29
-4.76
-4.26
-3.97
-3.97
-4.31
-4.92
-5.66
-6.46
-7.32
-8.34
-9.62
-11.13
-12.74
-14.31
-15.64
-16.49
-16.71
-16.36
-15.64
-14.8
-14
-12.61
-10.44
-7.71
-4.89
-2.31
-0.25
1.04
1.25
0.2
-1.97
-4.92
-7.92
-9.95
-10.13
-8
-3.8
1.64
7.12
11.64
14.5
15.46
14.96
13.81
12.9
12.85
13.77
14.96
15.72
15.2
12.87
8.75
3.37
-2.52
-8.15
-13.11
-16.97
-19.34
-20.05
-19.17
-16.98
-13.97
-10.72
-7.73
-5.27
-3.37
-1.86
-0.58
0.53
1.51
2.28
2.47
1.89
0.52
-1.4
-3.47
-5.3
-6.6
-7.27
-7.46
-7.44
-7.5
-7.81
-8.33
-8.88
-9.17
-8.91
-7.84
-5.81
-2.88
0.72
4.54
8.01
10.63
12.12
12.54
12.27
11.83
11.69
12.12
13.16
14.67
16.4
18.13
19.63
20.71
21.17
20.86
19.78
18.07
16.06
14.14
12.58
11.47
10.64
9.75
8.48
6.7
4.55
2.39
0.64
-0.37
-0.57
-0.15
0.55
1.18
1.58
1.77
1.96
2.44
3.43
4.99
6.97
9.06
10.82
11.74
11.35
9.39
5.92
1.4
-3.36
-7.4
-9.9
-10.35
-8.76
-5.53
-1.37
2.88
6.48
8.91
9.95
9.69
8.45
6.66
4.74
2.94
1.34
-0.15
-1.68
-3.39
-5.32
-7.38
-9.4
-11.22
-12.72
-13.96
-15.1
-16.45
-18.33
-21.06
-24.76
-29.3
-34.11
-38.2
-40.33
-39.36
-34.71
-26.6
-16.16
-5
5.2
13.25
18.61
21.38
22.01
21.05
18.98
16.23
13.17
10.21
7.7
5.83
4.65
4.01
3.65
3.33
2.91
2.4
1.92
1.67
1.82
2.43
3.4
4.5
5.43
5.91
5.73
4.78
3.08
0.73
-2.07
-4.99
-7.63
-9.58
-10.53
-10.33
-9.05
-6.93
-4.26
-1.37
1.44
3.87
5.61
6.35
5.94
4.39
1.95
-0.93
-3.68
-5.78
-6.9
-6.93
-6.04
-4.55
-2.89
-1.45
-0.46
0.05
0.25
0.45
0.94
1.95
3.56
5.68
8.22
11.11
14.36
18
22.07
26.49
31.05
35.45
39.38
42.56
44.8
45.95
45.94
44.75
42.42
39.05
34.79
29.85
24.51
19.02
13.62
8.42
3.41
-1.53
-6.57
-11.86
-17.39
-22.99
-28.38
-33.3
-37.58
-41.17
-44.12
-46.48
-48.23
-49.3
-49.59
-49.11
-47.94
-46.2
-43.97
-41.32
-38.27
-34.92
-31.49
-28.3
-25.63
-23.61
-22.15
-20.96
-19.73
-18.15
-16.08
-13.52
-10.64
-7.69
-5.01
-2.9
-1.58
-1.1
-1.3
-1.87
-2.54
-3.18
-3.84
-4.67
-5.76
-7.05
-8.27
-9.08
-9.25
-8.75
-7.76
-6.62
-5.64
-4.98
-4.69
-4.68
-4.88
-5.23
-5.71
-6.26
-6.73
-6.95
-6.7
-5.88
-4.52
-2.74
-0.75
1.25
3.16
4.94
6.57
8.05
9.33
10.32
10.87
10.85
10.18
8.84
6.93
4.57
1.9
-0.9
-3.64
-6.11
-8.06
-9.28
-9.65
-9.2
-8.12
-6.67
-5.09
-3.51
-1.94
-0.35
1.28
2.91
4.36
5.38
5.79
5.54
4.76
3.69
2.62
1.86
1.73
2.34
3.63
5.32
7.12
8.78
10.17
11.29
12.37
13.63
15.1
16.43
17.14
16.83
15.41
13.11
10.38
7.88
6.26
5.89
6.76
8.6
11.12
13.82
16.08
16.71
14.59
9.86
4.19
-0.46
-2.8
-2.52
-0.39
2.79
6.26
9.53
12.33
14.48
15.84
15.85
14.53
12.18
9.38
6.14
3.05
0.84
-0.01
0.36
1.48
2.76
3.62
3.63
2.63
0.79
-1.52
-3.88
-6.29
-8.77
-11.26
-13.7
-15.89
-17.61
-18.6
-18.75
-18.22
-17.39
-16.64
-16.03
-15.66
-15.48
-15.32
-14.92
-14.08
-12.81
-11.29
-9.75
-8.4
-7.43
-6.85
-6.54
-6.33
-6.11
-5.86
-5.64
-5.47
-5.27
-4.85
-3.98
-2.5
-0.36
2.26
5.08
7.79
10.13
11.92
13.09
13.68
13.86
13.85
13.86
14.02
14.33
14.69
14.94
14.94
14.64
14.06
13.24
12.24
11.15
10.11
9.3
8.88
8.94
9.43
10.11
10.69
10.88
10.48
9.48
8
6.28
4.63
3.27
2.35
1.9
1.87
2.14
2.59
3.05
3.32
3.22
2.62
1.53
0.1
-1.43
-2.81
-3.85
-4.53
-4.86
-4.95
-4.85
-4.63
-4.36
-4.15
-4.11
-4.35
-4.88
-5.59
-6.29
-6.68
-6.56
-5.78
-4.36
-2.47
-0.38
1.65
3.4
4.77
5.73
6.35
6.71
6.88
6.92
6.86
6.73
6.59
6.45
6.32
6.16
5.89
5.44
4.84
4.17
3.56
3.12
2.83
2.64
2.41
2.09
1.65
1.15
0.63
0.12
-0.39
-0.96
-1.6
-2.37
-3.27
-4.29
-5.34
-6.22
-6.73
-6.64
-5.91
-4.65
-3.13
-1.62
-0.35
0.66
1.47
2.17
2.76
3.17
3.28
3.04
2.56
2.05
1.75
1.8
2.21
2.79
3.33
3.65
3.7
3.53
3.26
2.96
2.66
2.33
1.97
1.6
1.28
1.03
0.85
0.7
0.51
0.2
-0.25
-0.85
-1.61
-2.52
-3.53
-4.52
-5.34
-5.8
-5.76
-5.19
-4.16
-2.81
-1.33
0.12
1.39
2.41
3.16
3.64
3.91
4.02
4.03
3.93
3.73
3.46
3.18
3.02
3.12
3.48
4.01
4.5
4.77
4.71
4.36
3.88
3.43
3.11
2.9
2.73
2.51
2.21
1.86
1.54
1.32
1.23
1.24
1.28
1.3
1.24
1.09
0.85
0.55
0.19
-0.22
-0.68
-1.18
-1.68
-2.15
-2.56
-2.91
-3.25
-3.64
-4.1
-4.61
-5.11
-5.54
-5.83
-5.96
-5.96
-5.89
-5.81
-5.81
-5.92
-6.1
-6.21
-6.02
-5.33
-3.99
-2.06
0.31
2.82
5.15
7.04
8.36
9.15
9.5
9.59
9.53
9.36
9.07
8.65
8.2
7.89
7.91
8.31
9.01
9.75
10.29
10.54
10.6
10.73
11.12
11.84
12.76
13.62
14.2
14.36
14.06
13.35
12.27
10.84
9.06
6.94
4.54
1.97
-0.62
-3.11
-5.41
-7.49
-9.38
-11.11
-12.69
-14.09
-15.27
-16.22
-16.98
-17.68
-18.36
-19.04
-19.59
-19.9
-19.89
-19.62
-19.28
-19.09
-19.21
-19.63
-20.21
-20.74
-21.09
-21.19
-21.08
-20.75
-20.16
-19.2
-17.74
-15.77
-13.41
-10.87
-8.36
-6.02
-3.88
-1.88
0.06
1.89
3.53
4.81
5.66
6.13
6.41
6.7
7.12
7.65
8.13
8.39
8.32
7.95
7.39
6.78
6.18
5.61
5.02
4.42
3.91
3.6
3.57
3.76
4.02
4.11
3.84
3.19
2.29
1.36
0.63
0.23
0.19
0.42
0.86
1.41
2.02
2.59
3.06
3.32
3.33
3.08
2.67
2.17
1.66
1.12
0.49
-0.24
-1.04
-1.77
-2.31
-2.59
-2.7
-2.8
-3
-3.33
-3.7
-3.96
-4.07
-4.05
-4.01
-4.02
-4.1
-4.14
-4.09
-3.96
-3.84
-3.83
-3.94
-4.04
-4.05
-3.91
-3.68
-3.48
-3.43
-3.55
-3.78
-3.97
-4.04
-4.01
-3.95
-3.85
-3.65
-3.27
-2.68
-1.94
-1.12
-0.31
0.3
0.61
0.65
0.57
0.5
0.53
0.73
1.16
1.81
2.33
2.35
1.73
0.53
-1.06
-2.9
-4.86
-6.84
-8.8
-11.03
-13.69
-16.64
-19.48
-21.88
-23.63
-24.62
-24.7
-21.58
-14.33
-4.12
6.26
14.08
17.75
16.92
12.38
5.74
-1.03
-6.54
-9.94
-10.91
-9.52
-6.14
-1.4
3.95
9.07
13.27
16.03
17.5
18.55
20.18
22.78
25.64
27.39
26.73
23.33
17.97
12.3
8.03
6.05
6.08
6.95
7.41
6.79
5.21
3.28
1.64
0.67
0.37
0.58
1.05
1.72
2.57
3.43
3.93
3.77
3.05
2.4
2.89
5.59
11.09
18.91
27.49
34.7
38.6
38.15
33.55
25.92
16.73
7.26
-1.71
-9.72
-16.39
-21.25
-23.86
-24.11
-22.53
-20.17
-18.19
-17.34
-17.58
-18.24
-18.5
-17.92
-16.48
-14.64
-12.97
-11.85
-11.44
-11.62
-12.11
-12.54
-12.6
-12.06
-10.85
-9.1
-7.06
-4.96
-2.94
-1.04
0.78
2.51
4.09
5.44
6.47
7.2
7.73
8.11
8.37
8.48
8.41
8.14
7.76
7.33
6.9
6.42
5.79
4.88
3.62
2.09
0.48
-0.95
-2
-2.57
-2.76
-2.68
-2.47
-2.3
-2.26
-2.35
-2.54
-2.72
-2.79
-2.63
-2.21
-1.56
-0.76
0.1
0.96
1.75
2.42
2.84
2.93
2.64
2.04
1.26
0.44
-0.28
-0.89
-1.42
-1.89
-2.28
-2.48
-2.38
-1.94
-1.22
-0.33
0.61
1.5
2.27
2.8
3.03
2.85
2.21
1.16
-0.37
-2.2
-4.11
-5.8
-6.94
-7.18
-6.31
-4.36
-1.62
1.35
3.97
5.73
6.42
6.21
5.56
4.96
4.75
5.01
5.64
6.39
6.95
7.02
6.42
5.08
3.03
0.41
-2.51
-5.33
-7.57
-8.87
-9.02
-8
-5.99
-3.3
-0.57
1.48
2.45
2.54
2.24
1.88
1.49
0.95
0.11
-1.11
-2.58
-3.92
-4.75
-4.79
-3.84
-2.01
0.51
3.41
6.33
8.96
11.06
12.35
12.58
11.59
9.48
6.61
3.55
0.9
-1.27
-2.71
-3.37
-3.42
-3.05
-2.44
-1.68
-0.86
-0.13
0.34
0.51
0.44
0.31
0.36
0.78
1.62
2.76
3.96
4.95
5.65
6.14
6.65
7.42
8.64
10.27
12.06
13.6
14.52
14.64
14.01
12.82
11.34
9.71
7.93
5.92
3.6
0.96
-1.98
-5.15
-8.51
-11.98
-15.36
-18.33
-20.53
-21.69
-21.74
-20.81
-19.23
-17.33
-15.36
-13.41
-11.58
-9.88
-8.36
-7.02
-5.78
-4.57
-3.34
-2.14
-1.09
-0.33
0.05
0.04
-0.31
-0.9
-1.65
-2.45
-3.21
-3.8
-4.15
-4.24
-4.17
-4.08
-4.09
-4.2
-4.28
-4.17
-3.72
-2.92
-1.86
-0.7
0.42
1.42
2.29
3.04
3.66
4.17
4.56
4.91
5.27
5.66
6.02
6.23
6.16
5.83
5.35
4.97
4.88
5.15
5.62
6.08
6.32
6.29
6.09
5.93
5.95
6.16
6.45
6.63
6.62
6.42
6.16
5.97
5.92
5.95
5.89
5.58
4.93
4.02
2.99
2.01
1.19
0.54
0.02
-0.39
-0.62
-0.58
-0.19
0.57
1.55
2.55
3.33
3.71
3.62
3.09
2.27
1.34
0.48
-0.17
-0.47
-0.39
0.11
0.95
2.02
3.15
4.18
4.97
5.51
5.87
6.16
6.49
6.91
7.38
7.83
8.17
8.36
8.43
8.44
8.44
8.44
8.39
8.24
7.91
7.37
6.63
5.66
4.47
3.08
1.56
0.03
-1.34
-2.43
-3.19
-3.66
-3.98
-4.24
-4.51
-4.77
-4.96
-5.04
-5.01
-4.91
-4.79
-4.7
-4.63
-4.53
-4.34
-4.02
-3.57
-3.06
-2.53
-2.05
-1.63
-1.23
-0.77
-0.13
0.74
1.83
3.02
4.04
4.56
4.18
2.68
0.13
-3.07
-6.3
-8.99
-10.76
-11.59
-11.8
-12.03
-12.89
-14.65
-17.28
-20.49
-23.87
-26.93
-29.21
-30.35
-30.52
-30.04
-29.19
-28.15
-27.06
-26.01
-25
-23.95
-22.79
-21.9
-21.56
-21.62
-21.61
-21.16
-19.99
-17.99
-15.17
-11.66
-8.29
-5.83
-4.58
-4.49
-5.62
-7.95
-11.3
-15.27
-15.65
-10.2
0.12
12.27
23.78
33.39
40.78
45.87
48.62
49.1
47.05
42.82
37.56
32.66
28.45
24.4
19.5
12.8
4.08
-6.37
-17.33
-27.2
-33.26
-35.62
-36.06
-36.56
-37.89
-39.37
-39.76
-37.89
-33.19
-25.77
-16.49
-6.08
4.77
15.38
24.89
32.31
37.2
39.94
41.54
42.79
44.35
45.62
45.86
44.51
41.48
37.16
32.36
27.85
24.05
21.05
18.68
16.77
15.04
13.2
11.03
8.41
5.34
1.94
-1.54
-4.66
-6.86
-7.7
-6.99
-4.9
-1.92
1.25
4.19
6.32
7.32
7.27
6.53
5.54
4.61
3.84
3.13
2.28
1.13
-0.25
-1.59
-2.5
-2.73
-2.18
-1.04
0.34
1.52
2.13
1.97
1.09
-0.29
-1.86
-3.33
-4.49
-5.19
-5.4
-5.19
-4.65
-3.91
-3.07
-2.29
-1.68
-1.34
-1.29
-1.46
-1.72
-1.88
-1.82
-1.51
-1.07
-0.67
-0.49
-0.58
-0.86
-1.19
-1.45
-1.58
-1.62
-1.65
-1.72
-1.82
-1.93
-2.04
-2.18
-2.42
-2.82
-3.39
-4.09
-4.85
-5.64
-6.45
-7.37
-8.46
-9.78
-11.3
-12.9
-14.44
-15.75
-16.72
-17.29
-17.44
-17.19
-16.57
-15.64
-14.48
-13.23
-12.03
-10.99
-10.13
-9.43
-8.8
-8.22
-7.69
-7.25
-6.93
-6.69
-6.42
-6.08
-5.71
-5.43
-5.43
-5.82
-6.57
-7.5
-8.41
-9.1
-9.5
-9.61
-9.51
-9.27
-8.94
-8.57
-8.19
-7.78
-7.31
-6.73
-6.05
-5.32
-4.63
-4.05
-3.62
-3.33
-3.17
-3.12
-3.23
-3.53
-3.98
-4.5
-4.93
-5.14
-5.09
-4.88
-4.65
-4.53
-4.5
-4.45
-4.19
-3.58
-2.59
-1.35
-0.05
1.18
2.29
3.35
4.45
5.61
6.75
7.74
8.46
8.88
9.04
9.07
9.11
9.24
9.46
9.76
10.09
10.4
10.67
10.89
11.05
11.21
11.37
11.56
11.72
11.8
11.76
11.57
11.28
10.93
10.59
10.27
9.97
9.68
9.38
9.1
8.88
8.78
8.84
9.13
9.71
10.61
11.8
13.14
14.43
15.43
15.98
15.97
15.37
14.2
12.48
10.26
7.65
4.85
2.09
-0.38
-2.4
-3.96
-5.15
-6.1
-6.89
-7.55
-8.07
-8.45
-8.74
-8.98
-9.18
-9.32
-9.31
-9.1
-8.66
-8.06
-7.37
-6.68
-6.05
-5.52
-5.11
-4.77
-4.43
-3.94
-3.18
-2.07
-0.65
0.91
2.38
3.55
4.24
4.39
4.06
3.35
2.47
1.59
0.9
0.48
0.31
0.28
0.27
0.19
0.01
-0.22
-0.5
-0.8
-1.19
-1.69
-2.29
-2.95
-3.59
-4.17
-4.64
-4.99
-5.24
-5.4
-5.48
-5.53
-5.61
-5.72
-5.86
-5.97
-5.97
-5.81
-5.44
-4.86
-4.1
-3.27
-2.47
-1.82
-1.37
-1.06
-0.71
-0.13
0.8
2.07
3.44
4.61
5.27
5.28
4.67
3.65
2.47
1.34
0.38
-0.38
-1
-1.62
-2.42
-3.53
-5.03
-6.87
-8.88
-10.72
-12.08
-12.73
-12.66
-11.99
-10.96
-9.89
-9.07
-8.7
-8.73
-8.94
-9.02
-8.65
-7.61
-5.85
-3.58
-1.16
0.91
2.3
2.7
1.95
0.07
-2.66
-5.7
-8.42
-10.23
-10.77
-9.72
-7.21
-3.92
-0.72
1.71
3.15
3.78
4.08
4.61
6.47
10.2
15.45
21.12
26.01
29.21
30.21
29.01
26.12
23.39
22.25
23.16
25.78
29.79
35.09
41.59
48.85
56.09
63.44
70.51
76.29
79.8
81.07
80.98
80.58
80.36
72.22
52.81
25.87
-1
-22.81
-38.34
-48.14
-52.92
-54.12
-52.8
-49
-43.55
-38.13
-34.6
-34.08
-36.62
-41.37
-46.49
-48.7
-43.85
-30.65
-11.83
6.88
19.59
22.67
16.06
2.89
-12.17
-24.58
-33.25
-38.59
-41.62
-42.7
-41.28
-36.32
-27.35
-15.23
-2.06
9.37
16.64
18.26
14.45
6.75
-2.47
-10.87
-16.89
-19.88
-20.02
-17.86
-14.27
-9.4
-4.85
-2.71
-3.62
-6.07
-7.63
-6.47
-2.19
4.22
11.04
16.54
19.93
21.45
21.91
22.16
22.82
24.04
25.54
26.82
27.13
26.11
24.34
22.34
20.72
19.88
19.53
18.93
17.26
13.93
9.14
3.92
-0.41
-2.78
-2.9
-1.75
-0.93
-2.09
-6.25
-13.41
-22.65
-32.74
-42.85
-50.72
-55.28
-56.16
-53.65
-48.61
-42.21
-35.63
-29.92
-25.65
-22.94
-21.62
-21.02
-20.13
-17.98
-13.95
-7.96
-0.57
7.25
14.25
19.17
21.39
21.01
18.8
15.91
13.67
13.29
15.52
20.04
25.49
30.03
31.9
30.02
24.42
16.23
7.21
-1
-7.81
-13.34
-17.91
-21.62
-24.49
-26.61
-28.24
-29.56
-28.15
-22.13
-10.98
3.9
19.9
33.83
42.79
45.11
41.22
33.4
24.24
15.84
9.14
3.96
-0.47
-4.69
-8.57
-11.35
-12.26
-11.57
-10.37
-10
-11.32
-14.27
-17.84
-20.62
-21.63
-20.33
-17.35
-13.77
-10.32
-7.06
-3.64
0.16
4.06
7.56
10.08
11.19
10.98
10.1
9.52
9.92
11.55
14.15
17.53
21.3
24.85
27.53
28.84
28.47
26.3
22.38
15.47
6.08
-4.1
-12.84
-18.96
-22.7
-24.94
-26.94
-28.98
-31.35
-33.58
-34.81
-34.21
-31.35
-26.4
-20.11
-13.61
-7.96
-3.73
-0.34
3.45
8.82
16.02
24.24
31.67
36.17
36.22
31.65
23.91
15.32
7.93
2.71
-0.3
-1.87
-3.21
-5.62
-10.34
-18.1
-28.31
-38.75
-46.48
-48.97
-45.29
-36.33
-24.37
-12.18
-2.02
5.31
10.1
12.7
13.82
14.15
14.2
14.15
13.96
13.59
13.26
13.54
13.73
13.9
14.07
14.06
13.44
11.85
9.31
6.27
3.39
1.08
-0.46
-1.61
-3.18
-5.93
-10.2
-15.76
-21.91
-27.81
-32.78
-36.25
-37.97
-37.92
-36.2
-32.92
-28.27
-22.45
-15.83
-8.85
-1.95
4.46
9.97
14.31
17.4
19.33
20.39
20.92
21.19
21.3
21.2
20.75
19.88
18.67
17.36
16.19
15.3
14.68
14.2
13.67
13
12.15
11.17
10.08
8.9
7.61
6.22
4.8
3.47
2.31
1.33
0.47
-0.38
-1.31
-2.35
-3.44
-4.44
-5.17
-5.49
-5.3
-4.58
-3.39
-1.84
-0.09
1.7
3.36
4.79
5.86
6.47
6.54
6.05
5.09
3.91
2.8
2.06
1.87
2.18
2.8
3.43
3.84
3.91
3.68
3.28
2.83
2.41
2.03
1.69
1.37
1.12
0.99
0.99
1.07
1.12
1
0.63
0.06
-0.56
-1.02
-1.15
-0.92
-0.37
0.35
1.15
1.96
2.76
3.56
4.29
4.87
5.15
5.08
4.67
4.04
3.38
2.86
2.63
2.74
3.2
3.95
4.89
5.85
6.6
6.91
6.61
5.67
4.23
2.55
0.96
-0.28
-1.1
-1.54
-1.83
-2.18
-2.69
-3.34
-3.93
-4.22
-4.03
-3.37
-2.37
-1.28
-0.3
0.49
1.13
1.71
2.29
2.83
3.24
3.47
3.51
3.46
3.43
3.47
3.56
3.59
3.47
3.14
2.67
2.15
1.72
1.44
1.33
1.3
1.27
1.15
0.93
0.62
0.26
-0.15
-0.65
-1.28
-2.06
-2.91
-3.69
-4.23
-4.4
-4.17
-3.6
-2.82
-1.94
-1.09
-0.34
0.27
0.71
1.01
1.23
1.5
1.9
2.5
3.29
4.18
5.02
5.68
6.07
6.15
5.93
5.5
4.94
4.35
3.83
3.46
3.24
3.12
3.03
2.85
2.53
2.07
1.52
0.97
0.47
0.05
-0.32
-0.7
-1.1
-1.48
-1.76
-1.89
-1.85
-1.68
-1.45
-1.22
-1.06
-1
-1.02
-1.08
-1.14
-1.14
-1.08
-0.98
-0.9
-0.9
-1
-1.2
-1.5
-1.89
-2.35
-2.89
-3.45
-3.93
-4.23
-4.34
-4.3
-4.24
-4.3
-4.54
-4.92
-5.32
-5.57
-5.61
-5.43
-5.08
-4.65
-4.18
-3.65
-3.06
-2.38
-1.66
-0.93
-0.25
0.34
0.88
1.39
1.88
2.36
2.83
3.27
3.68
4.06
4.37
4.55
4.55
4.37
4.04
3.65
3.28
2.99
2.78
2.61
2.43
2.18
1.85
1.46
1.09
0.82
0.76
0.99
1.58
2.52
3.7
5
6.36
7.76
9.2
10.67
12.09
13.34
14.27
14.76
14.84
14.69
14.55
14.59
14.88
15.37
15.95
16.5
16.82
16.72
16.08
14.74
12.54
9.45
5.69
1.65
-2.25
-5.85
-9.13
-11.94
-14.36
-16.66
-18.98
-21.28
-23.43
-25.24
-26.88
-28.44
-29.27
-29.03
-27.82
-25.85
-23.46
-21.07
-19.12
-18.54
-19.84
-22.09
-24.55
-27.06
-29.42
-31.49
-33.16
-34.39
-36
-38.58
-41.22
-43.43
-45.39
-47.05
-48.25
-48.78
-43.96
-32.01
-20.77
-13.13
-7.52
-3.39
-0.18
2.69
5.83
9.64
13.41
16.41
19.06
21.13
21.73
20.46
17.58
14.01
11.57
11.37
13.73
18.5
24.39
29.72
33.54
35.56
36.58
36.93
36.36
34.72
32.63
30.47
28.37
26.57
24.71
22.71
20.3
16.45
11.14
5.59
1.17
-1.33
-1.87
-0.94
0.79
2.61
4.01
4.91
5.51
5.81
5.6
4.58
2.47
-0.73
-4.79
-9.23
-13.31
-16.41
-18.24
-18.85
-18.55
-17.74
-16.69
-15.54
-14.25
-12.82
-11.09
-9.19
-7.42
-6.08
-5.22
-4.64
-3.94
-2.7
-0.6
2.36
5.81
9.19
11.92
13.55
13.93
13.18
11.6
9.64
7.75
6.2
5.1
4.41
3.98
3.72
3.59
3.57
3.69
3.96
4.34
4.83
5.49
6.46
7.88
9.75
11.85
13.83
15.33
16.14
16.35
16.21
15.98
15.68
15.14
14.04
12.19
9.66
6.74
3.8
1.08
-1.41
-3.83
-6.36
-9.08
-11.89
-14.6
-17.04
-19.06
-20.62
-21.68
-22.24
-22.24
-21.72
-20.74
-19.46
-18.08
-16.76
-15.58
-14.51
-13.49
-12.45
-11.37
-10.31
-9.37
-8.61
-8.06
-7.67
-7.38
-7.16
-6.98
-6.87
-6.84
-6.87
-6.88
-6.82
-6.6
-6.21
-5.61
-4.81
-3.8
-2.63
-1.37
-0.14
0.97
1.89
2.61
3.15
3.52
3.7
3.62
3.26
2.66
1.94
1.28
0.84
0.73
0.95
1.46
2.12
2.79
3.35
3.77
4.07
4.29
4.42
4.4
4.14
3.59
2.77
1.82
1
0.48
0.33
0.4
0.53
0.51
0.3
-0.09
-0.55
-0.88
-1.02
-1.12
-1.44
-2.16
-3.33
-4.83
-6.46
-7.99
-9.05
-9.45
-9.3
-8.77
-7.9
-6.59
-4.68
-2.2
0.66
3.87
7.19
10.27
12.85
15.13
17.65
21.08
25.74
31.53
38.4
45.66
52.04
56.14
57.01
54.37
48.73
40.97
29.41
14.88
0.38
-10.83
-17.36
-20
-20.43
-19.94
-19.28
-18.57
-17.19
-14.8
-11.68
-8.44
-5.6
-3.46
-1.51
0.36
2.38
5.32
9.67
15.33
21.47
26.9
29.15
27.46
22.06
14.16
5.65
-1.96
-8.08
-13
-17.21
-21
-24.05
-25.96
-26.65
-26.32
-25.52
-24.86
-24.98
-25.7
-26.66
-27.25
-27.07
-26.12
-24.57
-22.62
-20.39
-17.93
-15.1
-11.63
-7.1
-1.11
6.06
13.53
20.01
24.1
24.62
21.06
13.63
2.74
-9.36
-20.19
-27.71
-30.5
-27.92
-20.18
-8.39
5.48
18.99
30.48
38.61
42.61
42.64
39.67
34.9
29.37
23.63
17.03
10.19
3.47
-2.82
-8.27
-12.55
-15.64
-17.8
-19.42
-20.71
-21.8
-22.57
-22.96
-22.94
-22.61
-22.06
-21.28
-20.08
-18.12
-14.44
-9.33
-3.56
2.05
6.85
10.43
12.69
13.78
13.96
13.67
13.34
12.88
12.29
11.54
10.64
9.61
8.43
6.77
4.86
2.85
0.93
-0.58
-1.37
-1.32
-0.47
0.94
2.55
4.22
5.82
7.36
8.88
10.29
11.38
11.96
12.07
11.49
10.16
7.9
4.52
0.04
-5.24
-10.63
-15.21
-17.81
-17.96
-15.77
-11.98
-7.59
-3.57
-0.61
1
1.3
0.64
-0.51
-1.51
-1.82
-1.23
0.29
2.43
4.72
6.68
7.97
8.37
7.74
6.07
3.46
0.3
-2.84
-5.31
-6.66
-6.87
-6.53
-6.61
-8.04
-11.21
-15.83
-21
-25.57
-28.48
-28.93
-26.62
-21.75
-14.91
-6.96
1.05
8.13
13.57
16.75
17.66
16.95
15.57
14.59
14.76
16.19
18.27
20.06
20.79
20.26
18.72
16.79
15.32
15.01
15.78
16.61
16.19
13.7
9.17
3.29
-2.77
-7.68
-10.4
-11.1
-11.27
-12.83
-17.14
-24.48
-34.07
-44.09
-51.84
-54.17
-48.88
-35.49
-14.8
11.51
40.9
69.79
91.3
97.13
85.12
61.53
35.38
13.36
-1.59
-9.68
-14.23
-17.6
-20.4
-21.65
-20.33
-16.6
-11.47
-6.39
-1.7
1.44
2.3
0.83
-2.34
-6.67
-12.14
-18.69
-25.7
-32.01
-36.75
-38.95
-37.89
-33.28
-25.79
-17.12
-9.23
-3.64
0.33
2.8
3.99
4.31
4.54
5.42
7.08
9.3
11.22
12.61
12.96
12.08
10.13
7.68
5.31
3.09
1.37
0.18
-0.61
-1.57
-3.21
-5.82
-9.08
-12.47
-15.7
-18.37
-20.2
-20.98
-20.98
-20.84
-21.43
-23.32
-25.47
-27.31
-28.2
-27.46
-24.31
-18.28
-9.49
1.13
12.3
23.51
33.64
41.8
47.51
50.97
52.95
54.75
54.71
53.04
50.39
46.82
42.01
35.48
27.14
17.44
7.26
-2.56
-10.81
-16.81
-21.13
-24
-25.61
-26.09
-25.59
-24.15
-21.72
-17.7
-11.81
-4.47
3.52
11.19
17.85
22.7
25.33
25.07
22.08
17.09
11.03
4.8
-1.25
-6.62
-11.03
-13.78
-14.89
-14.72
-13.94
-13.21
-12.86
-12.87
-12.9
-12.69
-12.14
-11.45
-10.85
-10.52
-10.56
-10.94
-11.54
-12.16
-12.67
-12.91
-12.82
-12.25
-11.08
-9.34
-7.23
-5.08
-3.21
-1.86
-1.08
-0.72
-0.54
-0.26
0.25
0.99
1.85
2.75
3.59
4.32
4.87
5.2
5.29
5.12
4.73
4.19
3.56
2.87
2.17
1.49
0.83
0.21
-0.36
-0.89
-1.42
-1.97
-2.53
-3.09
-3.57
-3.95
-4.24
-4.51
-4.85
-5.38
-6.12
-7.08
-8.2
-9.4
-10.62
-11.78
-12.79
-13.58
-14.06
-14.21
-14.06
-13.67
-13.12
-12.45
-11.66
-10.77
-9.77
-8.72
-7.67
-6.65
-5.65
-4.58
-3.34
-1.86
-0.18
1.61
3.36
4.93
6.21
7.18
7.84
8.3
8.64
8.98
9.36
9.77
10.16
10.43
10.51
10.41
10.19
9.96
9.83
9.86
9.99
10.06
9.91
9.4
8.54
7.46
6.41
5.63
5.24
5.23
5.45
5.68
5.77
5.67
5.39
5.03
4.64
4.24
3.82
3.38
2.92
2.48
2.07
1.69
1.28
0.82
0.32
-0.17
-0.53
-0.71
-0.69
-0.54
-0.39
-0.33
-0.41
-0.58
-0.76
-0.87
-0.89
-0.83
-0.77
-0.75
-0.78
-0.84
-0.91
-0.98
-1.06
-1.19
-1.38
-1.57
-1.66
-1.57
-1.21
-0.6
0.19
1.06
1.9
2.65
3.24
3.64
3.79
3.65
3.25
2.65
1.97
1.36
0.92
0.68
0.62
0.67
0.79
0.95
1.12
1.27
1.32
1.2
0.85
0.32
-0.26
-0.76
-1.06
-1.17
-1.2
-1.33
-1.68
-2.24
-2.93
-3.62
-4.22
-4.74
-5.19
-5.59
-5.85
-5.82
-5.37
-4.43
-3.09
-1.55
-0.06
1.2
2.13
2.72
3.01
3.05
2.93
2.72
2.48
2.29
2.2
2.25
2.42
2.63
2.82
2.94
2.98
2.95
2.88
2.82
2.8
2.79
2.72
2.51
2.18
1.78
1.39
1.03
0.86
0.94
1.15
1.29
1.17
0.77
0.21
-0.32
-0.63
-0.23
1.13
3.32
5.85
8.22
10.15
11.66
12.85
13.83
15.14
16.97
19.07
20.84
21.86
22.19
22.27
22.52
23.14
24.83
27.86
32.03
36.65
41.05
44.94
48.21
50.82
48.11
37.9
21.79
4.48
-10.04
-20.51
-27.72
-33.04
-37.39
-40.95
-42.39
-41.32
-38.13
-34.14
-30.76
-28.7
-27.61
-26.36
-23.54
-17.49
-8.21
2.98
13.47
20.59
22.72
19.78
13.05
4.42
-3.87
-10.48
-15.06
-18.1
-20.25
-21.8
-22.71
-22.88
-22.36
-21.16
-19.6
-18.19
-17.29
-16.76
-15.91
-13.83
-9.95
-4.35
2.47
9.51
15.68
20.3
23.19
24.76
25.5
25.73
24.21
20.69
16.45
13.5
13.14
15
17.51
18.63
16.84
11.65
4
-4.31
-12.24
-19.08
-24.6
-28.76
-31.56
-32.85
-32.38
-29.95
-25.9
-21.4
-17.22
-14.77
-14.34
-15.82
-18.22
-20.08
-20.2
-18.37
-15.36
-12.19
-9.65
-7.63
-5.5
-2.47
1.76
6.74
11.47
14.88
16.38
16.01
14.4
12.26
10.11
8.11
6.18
4.3
2.59
1.27
0.29
-0.6
-1.79
-3.41
-5.07
-5.94
-5.06
-2.02
2.93
8.69
13.79
16.96
17.51
15.61
12.02
7.6
3.42
0.07
-2.37
-4.04
-5.06
-5.35
-4.73
-3.14
-0.73
1.9
3.97
4.77
3.99
1.9
-0.83
-3.39
-5.15
-5.77
-5.25
-3.85
-2.02
-0.27
0.92
1.23
0.61
-0.71
-2.35
-3.9
-5.12
-5.92
-6.33
-6.42
-6.21
-5.7
-4.94
-4.01
-3.1
-2.39
-2.02
-2.01
-2.26
-2.67
-3.09
-3.44
-3.63
-3.63
-3.43
-3.07
-2.62
-2.12
-1.65
-1.3
-1.16
-1.25
-1.58
-2.06
-2.53
-2.86
-2.91
-2.64
-2.14
-1.52
-0.91
-0.36
0.18
0.83
1.42
1.91
2.27
2.49
2.57
2.51
2.3
1.86
1.13
0.11
-1.05
-2.14
-2.98
-3.48
-3.74
-3.97
-4.39
-5.12
-6.06
-6.94
-7.4
-7.16
-6.1
-4.33
-2.13
0.13
2.1
3.57
4.48
4.92
5.02
4.93
4.76
4.6
4.51
4.57
4.8
5.17
5.59
5.92
6.09
6.09
6
5.92
5.89
5.9
5.81
5.48
4.84
3.87
2.67
1.4
0.26
-0.63
-1.21
-1.5
-1.67
-1.92
-2.49
-3.48
-4.82
-6.25
-7.42
-7.96
-7.68
-6.57
-4.83
-2.73
-0.56
1.46
3.18
4.51
5.39
5.8
5.79
5.5
5.09
4.72
4.46
4.33
4.31
4.37
4.52
4.78
5.19
5.67
6.14
6.43
6.42
6.03
5.28
4.24
3.07
1.89
0.82
-0.04
-0.68
-1.09
-1.32
-1.48
-1.66
-1.93
-2.32
-2.73
-2.99
-2.91
-2.36
-1.33
0.02
1.45
2.7
3.55
3.94
3.91
3.58
3.12
2.7
2.43
2.36
2.48
2.79
3.24
3.82
4.47
5.07
5.49
5.65
5.54
5.25
4.97
4.81
4.83
4.92
4.98
4.94
4.81
4.65
4.49
4.26
3.8
2.92
1.53
-0.33
-2.42
-4.45
-6.19
-7.5
-8.37
-8.87
-9.08
-9.02
-8.69
-8.09
-7.25
-6.32
-5.42
-4.63
-3.95
-3.25
-2.44
-1.49
-0.46
0.49
1.25
1.78
2.14
2.43
2.7
2.95
3.13
3.21
3.16
3.03
2.85
2.66
2.44
2.19
1.92
1.64
1.4
1.21
1.1
1.08
1.13
1.2
1.2
1.02
0.56
-0.22
-1.2
-2.16
-2.82
-2.97
-2.5
-1.53
-0.29
0.91
1.8
2.27
2.35
2.18
1.92
1.67
1.42
1.15
0.82
0.47
0.21
0.14
0.29
0.62
0.99
1.23
1.22
0.94
0.46
-0.11
-0.66
-1.12
-1.47
-1.72
-1.9
-2.03
-2.1
-2.11
-2.07
-2.02
-2.02
-2.12
-2.35
-2.7
-3.13
-3.56
-3.9
-4.06
-4.01
-3.76
-3.37
-2.87
-2.32
-1.81
-1.46
-1.38
-1.63
-2.21
-3.03
-3.96
-4.78
-5.35
-5.64
-5.67
-5.43
-4.84
-3.82
-2.34
-0.54
1.46
3.51
5.42
7.03
8.26
9.05
9.35
9.16
8.57
7.98
7.88
8.52
9.93
11.84
13.78
15.33
16.25
15.56
13.06
9.51
6.18
4.07
3.47
4.13
5.69
7.89
10.4
13.02
15.78
18.27
20.08
21.03
21.11
20.51
19.51
18.23
16.76
15.08
12.94
10.02
6.62
2.91
-1.18
-5.26
-9.09
-12.47
-15.37
-17.91
-20.21
-22.29
-24.11
-25.58
-26.58
-27.08
-27.03
-26.36
-25.05
-23.16
-20.82
-18.35
-16.07
-14.21
-12.87
-12.01
-11.49
-11.17
-10.94
-10.74
-10.55
-10.3
-9.91
-9.33
-8.58
-7.73
-6.87
-6.07
-5.33
-4.63
-3.93
-3.21
-2.54
-2.04
-1.81
-1.9
-2.26
-2.73
-3.14
-3.39
-3.43
-3.29
-2.99
-2.54
-1.9
-1.06
-0.13
0.69
1.17
1.19
0.8
0.22
-0.29
-0.55
-0.55
-0.39
-0.15
0.13
0.48
0.95
1.52
2.07
2.48
2.69
2.78
2.92
3.22
3.73
4.31
4.77
4.9
4.62
3.97
3.09
2.15
1.29
0.56
-0.01
-0.43
-0.68
-0.72
-0.48
0.03
0.8
1.7
2.62
3.41
3.95
4.19
4.11
3.8
3.38
2.99
2.82
2.98
3.52
4.37
5.38
6.3
6.92
7.09
6.77
6.06
5.16
4.31
3.75
3.61
3.91
4.53
5.21
5.71
5.85
5.63
5.19
4.72
4.37
4.14
3.9
3.49
2.81
1.93
1.04
0.38
0.07
0.1
0.27
0.35
0.21
-0.19
-0.72
-1.24
-1.64
-1.93
-2.19
-2.51
-2.95
-3.46
-3.98
-4.43
-4.75
-4.99
-5.2
-5.49
-5.9
-6.48
-7.14
-7.74
-8.15
-8.22
-7.93
-7.32
-6.48
-5.51
-4.46
-3.35
-2.21
-1.12
-0.21
0.41
0.68
0.66
0.48
0.32
0.32
0.53
0.89
1.29
1.66
1.92
2.12
2.3
2.5
2.73
2.98
3.23
3.55
3.98
4.57
5.28
5.98
6.53
6.83
6.89
6.82
6.74
6.7
6.69
6.63
6.49
6.3
6.16
6.12
6.17
6.16
5.87
5.17
4.06
2.67
1.21
-0.13
-1.23
-2.07
-2.69
-3.11
-3.34
-3.36
-3.21
-2.98
-2.79
-2.75
-2.93
-3.37
-4.07
-4.92
-5.86
-6.88
-7.99
-9.17
-10.37
-11.49
-12.54
-13.48
-14.23
-14.7
-14.85
-14.75
-14.52
-14.29
-14.24
-14.64
-15.53
-16.66
-17.62
-18.1
-18.04
-17.55
-16.95
-16.63
-17.09
-18.35
-19.91
-20.92
-20.63
-18.69
-15.09
-10.43
-4.13
3.11
9.65
13.88
15.2
14.03
11.2
7.76
4.43
1.75
-0.16
-1.16
-1.1
0.22
3
7.45
13.86
22.28
32.13
42.09
50.66
56.56
59.01
57.81
51.76
42.26
31.07
19.75
9.25
0.2
-7.04
-12.33
-15.7
-17.42
-17.61
-16.77
-15.51
-14.46
-13.95
-14.01
-14.52
-14.85
-14.52
-13.09
-10.67
-7.72
-4.81
-2.4
-0.72
0.24
0.67
0.72
0.66
0.53
0.35
0.11
-0.15
-0.43
-0.76
-1.17
-1.73
-2.4
-3.14
-3.9
-4.57
-5.07
-5.38
-5.57
-5.66
-5.72
-5.72
-5.68
-5.64
-5.64
-5.73
-5.84
-5.85
-5.59
-4.94
-3.92
-2.68
-1.43
-0.33
0.58
1.4
2.27
3.32
4.54
5.8
6.9
7.7
8.13
8.18
7.94
7.46
6.78
5.97
5.1
4.29
3.65
3.24
3.05
2.99
2.94
2.82
2.58
2.24
1.88
1.61
1.55
1.79
2.34
3.12
3.91
4.47
4.65
4.39
3.87
3.3
2.89
2.7
2.63
2.47
2.05
1.31
0.31
-0.79
-1.86
-2.84
-3.74
-4.62
-5.56
-6.6
-7.76
-9.04
-10.36
-11.58
-12.54
-13.07
-13.1
-12.72
-12.1
-11.47
-10.97
-10.63
-10.34
-9.97
-9.34
-8.34
-6.87
-4.86
-2.3
0.81
4.34
8.09
11.78
15.15
18.04
20.43
22.49
24.44
26.43
28.44
30.23
31.36
31.46
30.31
27.96
24.67
20.78
16.51
11.96
7.09
1.85
-3.64
-9.11
-14.18
-18.46
-21.73
-23.96
-25.21
-25.58
-25.15
-23.97
-22.21
-20.15
-18.12
-16.37
-14.97
-13.77
-12.52
-11.11
-9.66
-8.53
-8.18
-8.86
-10.51
-12.69
-14.78
-16.18
-16.49
-15.59
-13.61
-10.82
-7.48
-3.79
0.14
4.25
8.46
12.7
16.91
21.09
25.26
29.47
33.76
38.01
42.02
45.43
47.83
48.92
48.56
46.87
44.21
41
37.63
34.33
31.19
28.16
25.26
22.55
20.16
18.24
16.89
16.1
15.89
16.28
17.38
19.32
22.24
26.17
30.97
36.29
41.43
45.45
47.26
45.84
40.57
31.4
18.96
4.41
-10.84
-25.4
-38.19
-48.52
-56.14
-61.07
-63.59
-64.09
-63
-60.72
-57.69
-54.44
-51.65
-49.99
-49.91
-51.38
-53.7
-55.79
-56.49
-55.11
-51.61
-46.56
-40.73
-34.82
-29.15
-23.76
-18.66
-13.97
-9.98
-7.05
-5.36
-4.81
-5.08
-5.73
-6.36
-6.75
-6.8
-6.56
-6.11
-5.47
-4.65
-3.61
-2.34
-0.9
0.58
1.97
3.09
3.86
4.23
4.25
4.05
3.78
3.55
3.45
3.47
3.55
3.61
3.61
3.55
3.53
3.68
4.11
4.89
5.97
7.25
8.56
9.72
10.55
10.95
10.83
10.22
9.19
7.93
6.7
5.75
5.3
5.41
5.98
6.79
7.58
8.16
8.4
8.34
8.06
7.66
7.18
6.64
6
5.26
4.45
3.62
2.74
1.7
0.37
-1.38
-3.58
-6.09
-8.67
-11.04
-13.04
-14.61
-15.79
-16.64
-17.15
-17.29
-17
-16.28
-15.26
-14.09
-12.93
-11.82
-10.67
-9.31
-7.54
-5.21
-2.3
1.06
4.61
7.96
10.73
12.6
13.47
13.42
12.74
11.74
10.63
9.55
8.49
7.43
6.42
5.57
5.01
4.86
5.16
5.91
7.07
8.55
10.2
11.82
13.13
13.93
14.11
13.7
12.81
11.62
10.28
8.92
7.64
6.59
5.84
5.41
5.23
5.12
4.89
4.39
3.58
2.49
1.24
-0.06
-1.3
-2.43
-3.45
-4.37
-5.2
-5.9
-6.43
-6.77
-6.89
-6.82
-6.6
-6.18
-5.52
-4.55
-3.25
-1.73
-0.2
1.09
1.94
2.26
2.11
1.62
0.98
0.38
-0.09
-0.41
-0.56
-0.52
-0.26
0.17
0.61
0.85
0.71
0.23
-0.28
-0.37
0.33
1.89
3.95
5.92
7.17
7.36
6.5
4.9
3.03
1.27
-0.09
-0.86
-1
-0.6
0.15
1.01
1.8
2.41
2.78
2.93
2.83
2.46
1.81
0.96
0.1
-0.53
-0.78
-0.62
-0.21
0.22
0.45
0.42
0.24
0.08
0.02
0.07
0.06
-0.17
-0.68
-1.38
-2.11
-2.69
-3.09
-3.35
-3.56
-3.67
-3.54
-2.96
-1.8
-0.14
1.77
3.6
5.05
5.99
6.42
6.43
6.12
5.58
4.9
4.2
3.6
3.22
3.05
3.02
2.99
2.86
2.59
2.23
1.85
1.51
1.23
1.01
0.82
0.63
0.42
0.16
-0.2
-0.66
-1.21
-1.79
-2.28
-2.53
-2.42
-1.88
-0.93
0.35
1.77
3.12
4.22
4.92
5.18
5.05
4.68
4.21
3.76
3.39
3.09
2.81
2.5
2.16
1.82
1.56
1.44
1.49
1.7
1.97
2.18
2.15
1.77
1.06
0.13
-0.79
-1.49
-1.85
-1.88
-1.75
-1.68
-1.84
-2.22
-2.69
-3
-2.93
-2.39
-1.45
-0.33
0.74
1.57
2.13
2.44
2.6
2.64
2.54
2.25
1.77
1.18
0.65
0.35
0.37
0.69
1.12
1.48
1.59
1.39
0.98
0.5
0.13
-0.07
-0.13
-0.16
-0.28
-0.52
-0.82
-1.07
-1.16
-1.08
-0.93
-0.84
-0.89
-1.08
-1.29
-1.39
-1.24
-0.81
-0.17
0.56
1.23
1.73
2
2.09
2.03
1.88
1.65
1.32
0.84
0.21
-0.5
-1.18
-1.67
-1.92
-1.93
-1.8
-1.65
-1.58
-1.65
-1.88
-2.28
-2.85
-3.61
-4.51
-5.5
-6.47
-7.33
-7.99
-8.45
-8.73
-8.88
-8.94
-8.91
-8.69
-8.17
-7.22
-5.77
-3.86
-1.59
0.85
3.24
5.36
7.02
8.08
8.49
8.34
7.78
7.04
6.28
5.59
5.03
4.59
4.28
4.14
4.16
4.27
4.36
4.32
4.13
3.84
3.55
3.3
3.06
2.72
2.18
1.46
0.67
-0.02
-0.49
-0.72
-0.83
-0.98
-1.29
-1.75
-2.24
-2.56
-2.53
-2.04
-1.11
0.12
1.44
2.62
3.48
3.89
3.81
3.29
2.48
1.55
0.73
0.19
0.02
0.18
0.58
1.1
1.63
2.11
2.49
2.74
2.84
2.76
2.52
2.17
1.77
1.36
0.96
0.53
0.06
-0.42
-0.83
-1.09
-1.14
-0.96
-0.62
-0.17
0.33
0.85
1.37
1.87
2.33
2.71
2.99
3.18
3.34
3.53
3.79
4.1
4.38
4.54
4.51
4.3
4.03
3.89
4.03
4.6
5.68
7.27
9.31
11.61
13.86
15.62
16.45
16.08
14.52
12.12
9.44
7.03
5.23
4.14
3.64
3.57
3.81
4.29
4.94
5.6
6.1
6.32
6.27
6.07
5.83
5.46
4.66
3.03
0.24
-3.69
-8.38
-13.17
-17.33
-20.36
-22.02
-22.33
-21.51
-19.85
-17.74
-15.56
-13.7
-12.44
-11.94
-12.09
-12.68
-13.4
-14.03
-14.43
-14.59
-14.6
-14.58
-14.65
-14.85
-15.12
-15.24
-14.86
-13.69
-11.58
-8.68
-5.39
-2.22
0.41
2.26
3.34
3.8
3.86
3.68
3.35
2.87
2.16
1.09
-0.44
-2.45
-4.8
-7.26
-9.56
-11.48
-12.89
-13.77
-14.19
-14.19
-13.84
-13.14
-12.15
-10.84
-9.2
-7.19
-4.77
-1.98
1.07
4.18
7.14
9.77
11.96
13.7
14.99
15.82
16.19
16.1
15.6
14.78
13.74
12.57
11.29
9.91
8.39
6.74
5.01
3.29
1.66
0.17
-1.16
-2.2
-2.87
-3.19
-3.32
-3.57
-4.24
-5.51
-7.32
-9.42
-11.35
-12.81
-13.77
-14.45
-15.07
-15.69
-16.13
-16.17
-15.62
-14.33
-12.41
-10.19
-7.96
-5.71
-3.22
-0.25
3.22
6.97
10.87
14.72
18.22
21.13
23.27
24.55
24.88
24.26
21.52
16.71
11.3
7.15
5.21
5.1
5.74
6.19
6
5.27
4.51
4.48
4.86
5.07
4.72
3.72
2.28
0.77
-0.53
-1.28
-1.46
-1.38
-1.67
-2.5
-3.61
-4.54
-4.82
-4.28
-3.05
-1.64
-0.76
-0.92
-2.12
-3.91
-5.73
-7.16
-8.01
-8.24
-7.97
-7.33
-6.41
-5.3
-4.12
-3.39
-3.67
-5.02
-6.85
-8.15
-8
-5.94
-2.25
2.4
7.17
11.31
14.48
16.73
18.44
20.16
22.42
24.36
25.77
26.22
25.01
21.66
16.22
9.4
2.32
-3.99
-9.02
-12.59
-15.04
-16.72
-17.73
-18.03
-17.62
-16.71
-15.69
-15.04
-14.88
-15.19
-15.96
-16.67
-16.95
-16.58
-15.53
-13.88
-11.78
-9.34
-6.76
-4.3
-2.14
-0.46
0.67
1.35
1.82
2.37
3.28
4.62
6.29
8.1
9.79
11.11
11.87
11.63
10.07
7.16
3.26
-0.85
-4.12
-5.71
-5.36
-3.45
-0.83
1.55
2.96
3.14
2.13
0.24
-2.26
-5.21
-8.38
-11.39
-13.82
-15.26
-15.41
-14.23
-11.79
-8.48
-5.11
-2.36
-0.64
-0.09
-0.53
-1.56
-2.78
-3.72
-4.27
-4.97
-6.02
-7
-7.53
-7.31
-6.21
-4.33
-1.58
1.82
5.13
7.86
9.93
11.3
11.97
12.02
10.32
7.02
4.9
4.73
5.84
7.86
10.44
13.26
16.13
18.91
22.12
25.91
29.63
32.63
34.62
35.47
35.23
33.97
29.32
21.03
10.95
1.34
-6.41
-11.97
-15.66
-17.88
-18.91
-18.96
-17.7
-15.19
-12.09
-9.25
-7.27
-6.52
-7.12
-9
-11.95
-15.22
-18.21
-20.51
-21.89
-22.15
-21.22
-19.25
-16.55
-13.51
-10.18
-6.57
-2.68
1.37
5.3
8.71
11.16
12.36
12.36
11.68
10.34
8.65
6.73
4.46
1.6
-2
-6.2
-10.55
-14.34
-16.97
-18.06
-17.65
-16.11
-13.91
-11.42
-8.81
-6.06
-3.07
0.22
3.79
7.43
10.77
13.49
15.35
16.31
16.46
15.96
14.89
13.33
11.33
9.02
6.65
4.55
3.01
2.23
2.15
2.61
3.37
4.17
4.78
5.04
4.91
4.49
4.14
4.32
5.43
7.6
10.52
13.51
15.81
16.87
16.6
15.29
13.4
11.32
9.24
7.11
4.84
2.42
-0.05
-2.38
-4.32
-5.64
-6.11
-5.56
-3.92
-1.33
1.85
5.09
7.86
9.78
10.72
10.74
10.05
8.82
7.24
5.46
3.62
1.87
0.34
-0.9
-1.83
-2.46
-2.82
-2.97
-3.03
-3.2
-3.82
-5.24
-7.78
-11.56
-16.49
-22.14
-27.79
-32.6
-35.78
-36.97
-36.35
-34.6
-32.73
-31.55
-31.47
-32.4
-33.86
-35.31
-36.38
-36.93
-36.96
-36.46
-35.31
-33.33
-30.41
-26.57
-21.98
-16.9
-11.55
-6.03
-0.4
5.35
11.07
16.49
21.22
24.93
27.46
28.93
29.61
29.88
30
30.13
30.29
30.41
30.31
29.78
28.57
26.53
23.77
20.74
18.15
16.74
16.88
18.29
20.12
21.04
19.64
15.09
7.54
-1.86
-11.27
-18.81
-23.21
-23.87
-21.21
-16.43
-10.98
-6.06
-2.38
-0.15
0.79
0.87
0.92
1.48
2.59
3.96
5.34
6.79
8.69
11.45
15.13
19.61
24.16
27.68
29.41
29.24
27.66
25.23
21.74
14.02
0.84
-16
-32.86
-46.7
-56.16
-61.13
-62.16
-60.16
-55.79
-48.88
-39.36
-28.38
-17.08
-7.38
-1.07
1.3
0.47
-1.83
-3.46
-3.24
-1.49
0.6
1.93
1.33
-0.43
-1.77
-1.19
2.08
7.62
14.24
20.63
25.79
29.61
33
36.77
41.16
45.77
49.79
52.32
52.77
50.78
46.5
40.88
34.83
28.99
23.88
20.18
18.66
20.01
24.33
28.33
29.29
26.25
20.4
13.37
6.14
-1
-7.3
-13.68
-20.39
-26.74
-32.01
-35.87
-38.68
-40.4
-41.06
-40.64
-39.15
-36.51
-32.49
-27.18
-21.12
-15.17
-10.09
-6.35
-4.04
-2.97
-2.59
-2.11
-0.96
1
3.48
5.93
7.8
8.73
8.59
7.59
6.16
4.72
3.56
2.78
2.34
2.02
1.5
0.35
-1.67
-4.54
-7.87
-10.99
-13.15
-13.77
-12.6
-9.92
-6.36
-2.86
-0.31
0.65
-0.15
-2.4
-5.41
-8.5
-11.18
-13.28
-14.86
-15.93
-16.32
-15.65
-13.57
-10.02
-5.39
-0.37
4.29
8.07
10.78
12.5
13.42
13.7
13.4
12.53
11.15
9.37
7.43
5.59
4.12
3.11
2.44
1.76
0.62
-1.3
-4.01
-7.06
-9.73
-11.28
-11.28
-9.81
-7.39
-4.77
-2.66
-1.52
-1.43
-2.19
-3.29
-4.13
-4.17
-3.17
-1.29
0.87
2.46
2.77
1.51
-0.98
-3.84
-6.1
-7.02
-6.48
-4.97
-3.4
-2.71
-3.45
-5.56
-8.39
-10.97
-12.46
-12.37
-10.74
-7.88
-4.15
0.28
5.35
10.97
16.85
22.48
27.29
30.89
33.24
34.6
35.34
35.74
35.8
35.4
34.43
33.05
31.63
30.66
30.32
30.31
29.81
27.75
23.31
16.23
6.96
-3.5
-14
-23.51
-31.29
-36.89
-40.08
-40.81
-39.27
-35.85
-31.2
-26.05
-21.08
-16.82
-13.54
-11.26
-9.82
-8.94
-8.4
-8.17
-8.38
-9.23
-10.77
-12.71
-14.45
-15.22
-14.43
-11.91
-7.89
-2.78
3.13
9.71
16.94
24.63
32.19
38.81
43.8
46.96
48.77
50.05
51.56
53.52
55.37
56.19
55.25
52.35
47.84
42.44
36.87
31.59
26.71
21.92
16.87
11.42
5.67
-0.13
-5.69
-10.81
-15.39
-19.31
-22.59
-24.98
-25.87
-24.67
-21.26
-16.19
-10.46
-5.18
-1.17
0.63
0.14
-1.69
-3.52
-4.48
-4.31
-3.18
-1.48
0.34
0.37
-2.62
-8.37
-15.61
-23.28
-30.74
-37.64
-43.78
-49.1
-55.91
-65.41
-76.36
-86.18
-93.06
-96.56
-97.38
-96.78
-96.24
-100
-110.47
-126.49
-144.57
-161.56
-175.24
-183.98
-186.21
-162.72
-107.93
-35.32
33.41
84.22
113.08
121.94
115.49
99.99
81.98
63.97
47.74
35.46
28.93
27.3
29.74
34.84
41.38
48.26
52.17
51.05
45.44
37.7
30.04
24.03
20.36
19.14
19.94
20.02
17.53
12.49
6.33
0.58
-3.54
-5.4
-4.83
-2.17
1.23
4.21
6.42
8.14
9.69
11.26
12.77
14.12
15.29
16.24
17.26
18.89
21.64
25.51
30.04
34.49
38.17
40.72
42.14
42.62
42.39
41.79
41.17
40.91
41.23
42.07
43.01
43.29
42.02
38.57
32.98
25.94
18.49
11.64
6.1
2.17
-0.3
-1.7
-2.49
-2.71
-2.2
-0.81
1.37
3.98
6.42
8.03
8.17
6.51
3.42
-0.33
-3.93
-6.74
-8.28
-8.09
-5.79
-1.17
3.62
6.62
6.89
5
1.98
-1.5
-5.17
-8.94
-12.92
-17.13
-21.21
-24.64
-26.96
-28
-28.04
-27.51
-26.86
-26.5
-26.52
-26.5
-25.84
-24.05
-21
-17
-12.6
-8.37
-4.76
-1.79
0.74
2.68
3.81
3.93
3.02
1.28
-0.47
-2.14
-3.52
-4.33
-4.32
-3.5
-1.96
0.06
2.36
4.69
6.71
8.13
8.64
8.17
6.93
5.5
4.63
4.96
6.77
9.82
13.48
16.94
19.48
20.68
20.47
19.08
16.89
14.29
11.61
9.09
6.9
5.07
3.54
2.17
0.74
-0.99
-3.17
-5.87
-8.91
-12
-14.78
-17.01
-18.61
-19.77
-20.76
-21.85
-23.12
-24.43
-25.54
-26.29
-26.65
-26.78
-26.89
-27.1
-27.3
-27.28
-26.71
-25.38
-23.34
-20.92
-18.6
-16.94
-16.36
-17.21
-19.64
-23.43
-27.7
-30.81
-30.44
-24.43
-11.77
6.66
28.18
49.04
65.76
76.15
79.71
77.33
70.57
61.11
50.43
39.77
30.23
22.57
17.03
13.32
10.82
8.86
7.05
5.3
3.7
2.32
1.14
0.11
-0.74
-1.25
-1.28
-0.68
0.56
2.32
4.4
6.61
8.8
10.85
12.73
14.32
15.48
16.02
15.8
14.82
13.25
11.41
9.67
8.33
7.52
7.19
7.08
6.93
6.55
5.87
4.97
3.93
2.78
1.45
-0.24
-2.5
-5.47
-9.09
-13.13
-17.2
-20.9
-23.89
-25.98
-27.12
-27.4
-26.92
-25.81
-24.14
-21.97
-19.4
-16.54
-13.56
-10.59
-7.84
-5.5
-3.73
-2.63
-2.16
-2.14
-2.33
-2.5
-2.51
-2.36
-2.14
-1.96
-1.86
-1.76
-1.54
-1.12
-0.57
-0.04
0.23
0.11
-0.42
-1.21
-2
-2.58
-2.79
-2.57
-1.97
-1.14
-0.21
0.67
1.38
1.88
2.21
2.45
2.73
3.15
3.75
4.47
5.13
5.54
5.51
4.93
3.81
2.27
0.47
-1.46
-3.39
-5.27
-7.01
-8.48
-9.51
-10
-9.92
-9.39
-8.63
-7.9
-7.38
-7.12
-7
-6.84
-6.49
-5.9
-5.18
-4.53
-4.16
-4.16
-4.48
-4.96
-5.41
-5.69
-5.74
-5.53
-5.04
-4.27
-3.27
-2.12
-0.96
0.09
1.01
1.84
2.63
3.43
4.23
4.97
5.64
6.28
6.95
7.66
8.31
8.7
8.63
7.96
6.72
5.09
3.3
1.6
0.1
-1.11
-2.05
-2.71
-3.15
-3.36
-3.42
-3.43
-3.52
-3.78
-4.11
-4.32
-4.09
-3.22
-1.73
0.04
1.62
2.64
3.06
3.17
3.44
4.18
5.28
6.27
6.52
5.63
3.7
1.21
-1.18
-3
-4.14
-4.75
-5.07
-5.22
-5.2
-4.99
-4.7
-4.62
-5
-5.86
-6.86
-7.4
-6.89
-5.05
-2.04
1.58
5.15
8.16
10.4
11.95
13.04
13.83
14.3
14.34
13.78
12.59
10.92
9.09
7.48
6.37
5.85
5.81
6.02
6.24
6.31
6.15
5.74
5.07
4.14
3
1.74
0.49
-0.59
-1.49
-2.32
-3.31
-4.73
-6.67
-9.04
-11.52
-13.7
-15.22
-15.91
-15.83
-15.17
-14.22
-13.2
-12.23
-11.34
-10.53
-9.85
-9.36
-9.18
-9.39
-9.96
-10.76
-11.55
-12.04
-11.99
-11.32
-10.12
-8.57
-6.96
-5.51
-4.36
-3.49
-2.77
-1.98
-0.83
0.91
3.33
6.3
9.44
12.24
14.19
15.01
14.77
13.87
12.87
12.33
12.53
13.46
14.74
15.79
15.98
14.8
12.06
7.85
2.56
-3.28
-9.1
-14.5
-19.24
-23.26
-26.63
-29.46
-31.86
-33.9
-35.57
-36.75
-37.22
-36.7
-34.92
-31.83
-27.62
-22.77
-17.84
-13.39
-9.74
-7.02
-5.14
-3.96
-3.33
-3.14
-3.29
-3.61
-3.87
-3.79
-3.12
-1.74
0.3
2.76
5.28
7.51
9.21
10.35
11.08
11.58
12.03
12.47
12.89
13.26
13.59
13.93
14.35
14.87
15.41
15.82
15.96
15.72
15.05
14.01
12.72
11.33
9.99
8.79
7.7
6.69
5.64
4.47
3.17
1.79
0.49
-0.54
-1.08
-0.97
-0.19
1.17
2.87
4.62
6.1
7.09
7.5
7.36
6.78
5.96
5.09
4.36
3.95
4
4.56
5.53
6.7
7.73
8.31
8.31
7.78
6.97
6.18
5.59
5.17
4.75
4.11
3.16
1.96
0.67
-0.53
-1.55
-2.39
-3.07
-3.53
-3.64
-3.26
-2.33
-0.91
0.76
2.4
3.77
4.72
5.22
5.32
5.11
4.67
4.1
3.48
2.89
2.38
2
1.79
1.77
1.95
2.31
2.78
3.25
3.61
3.76
3.7
3.47
3.12
2.67
2.06
1.21
0.06
-1.32
-2.77
-4.07
-5.02
-5.48
-5.4
-4.82
-3.79
-2.4
-0.8
0.82
2.27
3.39
4.11
4.48
4.6
4.56
4.38
4.01
3.45
2.73
2.01
1.51
1.37
1.57
1.98
2.36
2.49
2.29
1.82
1.2
0.59
0.06
-0.41
-0.91
-1.51
-2.25
-3.11
-4.02
-4.91
-5.72
-6.41
-6.91
-7.08
-6.75
-5.81
-4.26
-2.31
-0.29
1.4
2.47
2.8
2.45
1.59
0.44
-0.78
-1.9
-2.78
-3.36
-3.63
-3.65
-3.51
-3.33
-3.2
-3.14
-3.15
-3.24
-3.41
-3.74
-4.27
-5.01
-5.88
-6.68
-7.19
-7.26
-6.91
-6.28
-5.57
-4.87
-4.12
-3.12
-1.66
0.34
2.73
5.19
7.4
9.07
10.11
10.49
10.31
9.68
8.76
7.78
6.94
6.44
6.34
6.57
6.98
7.35
7.49
7.32
6.82
6.05
5.1
4.01
2.82
1.57
0.28
-0.95
-2.07
-3
-3.72
-4.24
-4.52
-4.55
-4.26
-3.63
-2.65
-1.44
-0.16
1
1.91
2.53
2.89
3.07
3.13
3.09
2.92
2.62
2.22
1.85
1.65
1.74
2.15
2.79
3.53
4.18
4.6
4.69
4.4
3.71
2.68
1.42
0.1
-1.13
-2.15
-2.95
-3.57
-4.07
-4.44
-4.62
-4.49
-3.97
-3.09
-1.95
-0.7
0.53
1.64
2.58
3.24
3.53
3.37
2.75
1.82
0.83
0.03
-0.39
-0.42
-0.17
0.15
0.36
0.38
0.21
-0.12
-0.52
-0.93
-1.33
-1.7
-2.06
-2.49
-3.06
-3.81
-4.75
-5.75
-6.63
-7.17
-7.19
-6.59
-5.4
-3.74
-1.85
-0
1.54
2.59
3.09
3.11
2.83
2.45
2.1
1.83
1.63
1.47
1.33
1.2
1.12
1.13
1.21
1.33
1.38
1.29
0.97
0.42
-0.27
-1.01
-1.7
-2.32
-2.9
-3.45
-3.93
-4.2
-4.03
-3.21
-1.69
0.37
2.61
4.61
6.03
6.69
6.63
6.02
5.1
4.06
3.04
2.11
1.31
0.64
0.1
-0.31
-0.58
-0.76
-0.9
-1.08
-1.37
-1.82
-2.41
-3.03
-3.55
-3.88
-4.06
-4.2
-4.44
-4.84
-5.31
-5.62
-5.53
-4.9
-3.74
-2.23
-0.59
0.95
2.26
3.28
3.96
4.27
4.2
3.78
3.17
2.6
2.3
2.41
2.92
3.64
4.35
4.81
4.92
4.68
4.21
3.61
2.97
2.27
1.49
0.59
-0.4
-1.38
-2.23
-2.87
-3.25
-3.36
-3.21
-2.78
-2.04
-0.95
0.41
1.88
3.27
4.35
4.99
5.17
4.97
4.53
4.04
3.62
3.39
3.38
3.54
3.81
4.11
4.34
4.44
4.32
3.94
3.29
2.44
1.53
0.72
0.12
-0.25
-0.51
-0.83
-1.38
-2.2
-3.2
-4.15
-4.8
-4.93
-4.43
-3.36
-1.89
-0.27
1.27
2.52
3.43
4
4.32
4.45
4.42
4.2
3.78
3.17
2.46
1.83
1.47
1.51
1.96
2.74
3.67
4.59
5.33
5.83
6.01
5.89
5.46
4.76
3.89
3.01
2.34
2.07
2.26
2.75
3.31
3.62
3.52
3.03
2.35
1.73
1.32
1.15
1.09
0.99
0.72
0.25
-0.38
-1.13
-1.97
-2.91
-3.93
-5.01
-5.98
-6.67
-6.85
-6.35
-5.15
-3.36
-1.25
0.81
2.49
3.52
3.76
3.17
1.78
-0.41
-3.3
-6.74
-10.42
-13.9
-16.74
-18.6
-19.28
-18.81
-17.39
-15.27
-12.72
-9.97
-7.22
-4.65
-2.4
-0.61
0.69
1.5
1.9
1.97
1.76
1.34
0.73
0.01
-0.72
-1.37
-1.88
-2.27
-2.67
-3.21
-3.99
-4.98
-6.03
-6.91
-7.39
-7.38
-6.92
-6.17
-5.3
-4.44
-3.59
-2.62
-1.39
0.24
2.22
4.42
6.55
8.33
9.57
10.26
10.48
10.4
10.09
9.57
8.83
7.9
6.93
6.1
5.62
5.54
5.73
5.92
5.79
5.12
3.91
2.31
0.61
-0.94
-2.18
-3.12
-3.92
-4.76
-5.78
-7
-8.35
-9.66
-10.81
-11.7
-12.28
-12.52
-12.39
-11.88
-11.04
-9.95
-8.75
-7.61
-6.63
-5.88
-5.3
-4.81
-4.27
-3.62
-2.83
-1.97
-1.12
-0.39
0.22
0.77
1.43
2.33
3.51
4.85
6.13
7.1
7.63
7.74
7.62
7.48
7.43
7.43
7.31
6.86
6.01
4.85
3.6
2.51
1.8
1.55
1.73
2.26
3.01
3.82
4.51
4.89
4.81
4.22
3.19
1.88
0.53
-0.64
-1.43
-1.72
-1.46
-0.67
0.51
1.83
3.01
3.8
4.1
3.93
3.48
2.99
2.67
2.62
2.79
3.05
3.2
3.07
2.57
1.72
0.64
-0.46
-1.34
-1.76
-1.59
-0.8
0.48
2.02
3.55
4.79
5.57
5.83
5.64
5.12
4.42
3.66
2.97
2.44
2.17
2.21
2.55
3.1
3.68
4.12
4.28
4.07
3.54
2.78
1.92
1.04
0.18
-0.73
-1.74
-2.9
-4.14
-5.33
-6.28
-6.86
-6.98
-6.67
-5.95
-4.92
-3.65
-2.27
-0.9
0.29
1.19
1.77
2.05
2.13
2.09
1.98
1.81
1.59
1.33
1.08
0.88
0.76
0.74
0.77
0.81
0.76
0.58
0.25
-0.2
-0.69
-1.15
-1.57
-1.98
-2.45
-2.99
-3.57
-4.1
-4.44
-4.46
-4.11
-3.39
-2.41
-1.31
-0.26
0.62
1.26
1.66
1.86
1.86
1.66
1.21
0.53
-0.31
-1.15
-1.79
-2.07
-1.93
-1.5
-0.97
-0.58
-0.51
-0.79
-1.35
-2.02
-2.63
-3.11
-3.48
-3.81
-4.23
-4.78
-5.44
-6.09
-6.58
-6.76
-6.53
-5.83
-4.68
-3.14
-1.38
0.42
2.04
3.29
4.03
4.23
3.98
3.46
2.87
2.38
2.09
1.97
1.97
1.98
1.97
1.95
1.96
2.04
2.17
2.29
2.27
2
1.42
0.48
-0.78
-2.33
-4.07
-5.87
-7.5
-8.7
-9.21
-8.86
-7.64
-5.74
-3.5
-1.28
0.59
1.98
2.89
3.43
3.71
3.76
3.53
2.96
2.04
0.91
-0.18
-0.93
-1.09
-0.64
0.21
1.07
1.54
1.34
0.43
-1.01
-2.64
-4.14
-5.33
-6.14
-6.62
-6.9
-7.13
-7.43
-7.92
-8.57
-9.22
-9.61
-9.41
-8.46
-6.84
-4.86
-2.93
-1.34
-0.17
0.72
1.55
2.45
3.38
4.21
4.81
5.17
5.41
5.68
6.07
6.55
7.03
7.42
7.66
7.75
7.61
7.16
6.26
4.87
3.04
1.02
-0.83
-2.17
-2.81
-2.81
-2.5
-2.32
-2.73
-3.94
-5.86
-8.08
-10.02
-11.18
-11.33
-10.59
-9.35
-8.08
-7.15
-6.73
-6.81
-7.23
-7.83
-8.42
-8.82
-8.83
-8.28
-7.04
-5.15
-2.79
-0.26
2.12
4.14
5.74
6.97
7.94
8.73
9.33
9.67
9.65
9.21
8.33
7.17
5.92
4.89
4.28
4.17
4.42
4.7
4.63
3.92
2.51
0.65
-1.24
-2.68
-3.32
-3.01
-1.81
0.04
2.17
4.19
5.66
6.28
5.92
4.7
2.99
1.23
-0.17
-0.97
-1.12
-0.78
-0.14
0.6
1.33
2.02
2.68
3.31
3.89
4.33
4.51
4.35
3.84
3.08
2.26
1.55
1.12
1.03
1.26
1.69
2.17
2.55
2.68
2.5
1.94
0.99
-0.35
-1.98
-3.72
-5.3
-6.35
-6.54
-5.69
-3.86
-1.36
1.3
3.56
5.02
5.54
5.27
4.59
3.94
3.69
4.02
4.87
6.04
7.26
8.24
8.77
8.69
7.95
6.58
4.74
2.73
0.87
-0.56
-1.45
-1.78
-1.69
-1.33
-0.83
-0.33
0.08
0.3
0.3
0.07
-0.33
-0.79
-1.2
-1.48
-1.52
-1.24
-0.6
0.4
1.64
2.95
4.09
4.89
5.26
5.18
4.71
3.96
3.04
2.11
1.34
0.9
0.93
1.45
2.4
3.6
4.81
5.76
6.26
6.21
5.65
4.72
3.6
2.43
1.3
0.19
-0.91
-2.04
-3.17
-4.27
-5.28
-6.16
-6.87
-7.4
-7.75
-7.95
-8
-7.91
-7.64
-7.15
-6.42
-5.46
-4.31
-3.06
-1.8
-0.69
0.12
0.47
0.24
-0.56
-1.78
-3.1
-4.17
-4.68
-4.51
-3.71
-2.52
-1.21
-0.02
0.91
1.51
1.76
1.66
1.17
0.3
-0.9
-2.27
-3.63
-4.8
-5.67
-6.3
-6.77
-7.17
-7.46
-7.48
-7
-5.92
-4.31
-2.5
-0.88
0.27
0.93
1.32
1.78
2.56
3.71
5.05
6.34
7.31
7.84
7.87
7.36
6.25
4.5
2.06
-1
-4.45
-7.92
-10.94
-13.02
-13.83
-13.32
-11.69
-9.4
-7
-4.95
-3.52
-2.72
-2.32
-2.06
-1.67
-1.04
-0.18
0.76
1.61
2.2
2.4
2.1
1.22
-0.25
-2.17
-4.22
-5.99
-7.05
-7.22
-6.57
-5.42
-4.15
-3.07
-2.28
-1.72
-1.27
-0.8
-0.23
0.45
1.24
2.11
3
3.81
4.46
4.9
5.13
5.21
5.15
5
4.75
4.44
4.04
3.54
2.82
1.76
0.28
-1.55
-3.55
-5.44
-6.99
-8.12
-8.89
-9.39
-9.68
-9.71
-9.31
-8.36
-6.87
-5.03
-3.11
-1.35
0.08
1.18
1.99
2.52
2.74
2.55
1.93
0.92
-0.32
-1.6
-2.71
-3.58
-4.22
-4.76
-5.31
-5.95
-6.65
-7.3
-7.74
-7.91
-7.81
-7.56
-7.33
-7.25
-7.29
-7.32
-7.1
-6.45
-5.26
-3.55
-1.41
1.02
3.65
6.41
9.25
12.1
14.84
17.28
19.22
20.47
20.95
20.66
19.7
18.25
16.61
15.09
13.93
13.26
13.08
13.29
13.71
14.03
13.99
13.53
12.74
11.93
11.46
11.63
12.52
13.89
14.98
15.03
13.59
10.72
6.91
2.91
-0.63
-3.3
-5.05
-6.56
-8.3
-10.18
-11.65
-12.18
-11.52
-9.84
-7.54
-5.1
-3.77
-4.11
-5.63
-7.21
-8
-7.73
-6.78
-5.55
-4.35
-4.75
-7.51
-12.17
-17.72
-23.67
-30.18
-37.9
-46.91
-56.8
-68.59
-82.35
-96.65
-109.44
-119.32
-125.71
-128.69
-127.81
-111.71
-77.32
-32.69
9.21
40.16
57.91
66.51
68.78
66.9
62.68
55.14
44.69
33.42
24.03
18.37
16.79
18.14
21.2
25.01
27.72
28.77
29.07
30.29
33.76
39.66
46.82
53.78
59.21
61.44
59.82
55.06
48.71
42.69
38.29
35.8
34.93
35.16
35.57
35.57
35.05
31.8
25.13
16.12
6.71
-1.77
-8.99
-15.18
-20.51
-24.99
-28.58
-30.92
-32.14
-32.53
-32.45
-32.21
-31.76
-31.09
-30.43
-30.22
-30.43
-31.01
-31.95
-33.11
-34.36
-35.2
-35.28
-34.6
-33.57
-32.01
-29.67
-26.32
-21.93
-16.53
-9.62
-1.03
8.95
19.44
30.13
40.73
50.76
59.54
66.37
71.44
74.9
76.66
76.13
73.59
69.47
64.2
57.99
47.18
31.29
12.9
-1.85
-12.8
-21.02
-27.93
-34.05
-39.54
-44.31
-47.48
-48.58
-47.86
-46.42
-44.67
-42.67
-40.24
-37.18
-33.3
-28.11
-21.62
-14.41
-7.67
-1.83
3
6.95
10.06
12.34
14.06
15.32
16.06
16
15.42
14.75
14.43
14.59
15.09
15.71
16.1
15.93
14.98
13.51
11.93
10.66
9.87
9.59
9.8
10.47
11.53
12.89
14.37
15.75
16.76
17.29
17.5
17.79
18.65
20.37
22.93
25.98
28.99
31.54
33.44
34.79
35.79
36.55
37.04
37.04
36.34
34.93
32.98
30.78
28.69
26.95
25.72
25.08
25.16
26.18
28.29
31.18
33.86
34.88
32.82
27.04
17.95
6.88
-4.51
-14.69
-22.81
-28.55
-31.62
-31.62
-28.38
-22.5
-15.85
-10.92
-9.54
-12.44
-18.96
-27.29
-35.37
-41.77
-46.24
-49.92
-54.26
-59.75
-66.45
-74.12
-81.58
-87.06
-88.8
-85.95
-79.54
-71.61
-63.4
-56.19
-51.11
-48.13
-46.3
-44.3
-41.25
-37.35
-32.75
-26.14
-17.35
-8.02
-0.52
2.87
0.68
-2.09
-1.23
-2.79
-7.89
-12.52
-15.26
-16.11
-15.65
-14.58
-13.98
-15.25
-18.72
-22.42
-24.88
-25.76
-25.24
-23.61
-17.08
-5.04
9.33
21.65
30.2
33.74
34.11
32.98
31.46
29.91
28.17
25.16
20.34
14.54
8.73
3.75
0.17
-1.56
-1.31
0.1
1.41
1.72
0.98
-0.58
-2.61
-4.79
-6.73
-8.01
-8.62
-8.65
-8.1
-6.83
-4.9
-2.56
-0.22
1.88
3.71
5.24
6.49
7.55
8.51
9.33
9.94
10.13
9.66
8.46
6.59
4.34
2.21
0.7
0.12
0.47
1.44
2.65
3.81
4.89
6.02
7.38
9.1
11.16
13.49
15.95
18.4
20.69
22.66
24.14
24.96
25.05
24.46
23.31
21.76
19.93
17.93
15.79
13.56
11.33
9.17
7.16
5.36
3.74
2.28
0.93
-0.28
-1.3
-2.02
-2.33
-2.2
-1.67
-0.86
0.07
1.03
2.04
3.25
4.81
6.84
9.27
11.88
14.36
16.41
17.83
18.59
18.78
18.62
18.37
18.28
18.58
19.4
20.77
22.59
24.67
26.77
28.66
30.17
31.16
31.5
31.13
30.06
28.36
26.24
23.89
21.51
19.18
16.82
14.23
11.22
7.66
3.58
-0.79
-5.15
-9.09
-12.33
-14.73
-16.38
-17.46
-18.16
-18.64
-18.94
-18.99
-18.57
-17.54
-15.94
-14
-12.07
-10.42
-9.24
-8.57
-8.35
-8.18
-7.77
-7.05
-6.2
-5.42
-4.81
-4.36
-4.03
-3.77
-3.16
-1.96
-0.26
1.58
3.21
4.5
5.54
6.52
7.66
9.68
13
17.43
22.21
26.54
29.93
32.35
34.16
32.59
26.49
16.93
6.47
-2.96
-10.96
-17.93
-24.33
-30.39
-36.13
-40.89
-44.05
-45.23
-44.38
-41.6
-37.13
-31.5
-25.48
-19.84
-14.73
-9.81
-4.9
-0.11
4.22
7.68
9.91
10.74
10.29
9.3
8.57
8.74
10.02
12.24
15.03
17.97
20.71
23.08
25.29
26.83
27.47
26.94
25
21.54
16.67
10.78
4.42
-1.79
-7.44
-12.35
-16.58
-20.31
-23.54
-26.09
-27.68
-28.09
-27.29
-25.53
-23.12
-20.46
-17.9
-15.67
-13.9
-12.6
-11.73
-11.24
-11.06
-11.08
-11.15
-11.15
-10.95
-10.49
-9.78
-8.86
-7.83
-6.77
-5.66
-4.49
-3.19
-1.75
-0.18
1.44
3.01
4.42
5.64
6.68
7.59
8.46
9.34
10.27
11.25
12.29
13.38
14.56
15.88
17.39
19.07
20.87
22.65
24.27
25.56
26.46
27.02
27.36
27.68
28.15
28.78
29.43
29.77
29.38
27.86
24.95
20.63
15.14
8.87
2.31
-4.09
-10.06
-15.51
-20.55
-25.33
-29.98
-34.47
-38.59
-41.97
-44.17
-44.86
-44.09
-42.33
-40.47
-39.5
-40.09
-42.29
-45.45
-48.47
-50.2
-49.92
-47.43
-43.07
-37.41
-31.07
-24.58
-18.42
-13.05
-8.85
-6.04
-4.56
-4.08
-4.05
-3.87
-3.11
-1.61
0.49
2.85
5.11
7.03
8.6
10.07
11.8
14.16
17.42
21.6
26.51
31.81
37.13
42.16
46.7
50.64
53.92
56.48
58.22
59.02
58.89
57.93
56.33
54.2
51.4
47.51
41.79
33.34
21.3
5.13
-15.1
-38.49
-63.13
-86.22
-104.6
-115.49
-117.39
-110.64
-97.36
-80.83
-64.36
-50.39
-39.88
-32.52
-27.38
-23.53
-20.47
-18.04
-16.17
-14.54
-12.61
-9.91
-6.33
-2.25
1.55
4.39
5.99
6.7
7.26
8.49
10.8
14.07
17.7
20.92
23.11
24.08
24
23.34
22.55
21.9
21.43
21.01
20.45
19.59
18.4
16.92
15.24
13.53
11.95
10.68
9.87
9.57
9.75
10.29
11.05
11.88
12.67
13.29
13.65
13.62
13.11
12.14
10.78
9.19
7.62
6.26
5.29
4.79
4.74
5.02
5.48
5.92
6.16
6.12
5.74
5.08
4.21
3.25
2.23
1.18
0.04
-1.21
-2.52
-3.78
-4.83
-5.5
-5.65
-5.28
-4.42
-3.24
-1.92
-0.63
0.46
1.29
1.84
2.14
2.21
2.07
1.73
1.2
0.55
-0.08
-0.54
-0.71
-0.54
-0.15
0.32
0.67
0.78
0.6
0.15
-0.48
-1.25
-2.09
-3.02
-4.02
-5.08
-6.13
-7.12
-7.96
-8.57
-8.84
-8.67
-7.98
-6.72
-4.97
-2.94
-0.9
0.84
2.06
2.7
2.86
2.73
2.53
2.45
2.55
2.84
3.21
3.59
3.88
4.01
3.89
3.44
2.62
1.48
0.17
-1.1
-2.13
-2.85
-3.34
-3.78
-4.4
-5.36
-6.66
-8.17
-9.62
-10.66
-11.03
-10.61
-9.45
-7.77
-5.84
-3.97
-2.37
-1.16
-0.35
0.1
0.28
0.28
0.29
0.5
1.15
2.39
4.25
6.72
9.55
12.4
14.93
16.97
18.6
20.05
21.58
23.37
25.61
28.21
30.89
33.36
35.49
37.26
38.72
39.96
41.19
42.89
45.2
47.73
49.79
50.61
49.6
46.48
41.34
34.55
27.01
19.31
11.69
4.32
-2.44
-8.21
-12.71
-15.89
-20.04
-25.13
-29.49
-31.71
-31.78
-30.49
-28.56
-26.16
-23.08
-19.22
-14.58
-10.11
-7.36
-7.52
-10.64
-15.65
-20.87
-24.86
-26.95
-27.13
-26.12
-24.95
-24.26
-24.04
-23.85
-23.3
-22.25
-20.86
-19.33
-17.69
-16.01
-14.37
-12.78
-11.27
-9.95
-8.94
-8.25
-7.75
-7.28
-6.81
-6.3
-5.71
-4.94
-3.94
-2.73
-1.45
-0.26
0.72
1.39
1.81
2.14
2.57
3.12
3.69
4.09
4.13
3.7
2.83
1.65
0.38
-0.81
-1.81
-2.62
-3.29
-3.93
-4.67
-5.58
-6.7
-7.99
-9.33
-10.56
-11.48
-11.98
-12.06
-11.85
-11.55
-11.3
-11.12
-10.86
-10.36
-9.5
-8.34
-7.07
-5.89
-4.89
-3.97
-2.97
-1.73
-0.2
1.49
3.2
4.78
6.26
7.71
9.16
10.5
11.55
12.13
12.17
11.82
11.33
11.07
11.31
12.07
13.11
14.12
14.86
15.23
15.23
14.91
14.5
14.14
13.88
13.61
13.18
12.46
11.36
9.78
7.68
5.41
3.38
1.86
0.84
0.15
-0.35
-0.74
-1
-1.1
-0.71
0.47
2.39
4.81
7.54
10.6
14.14
18.25
20.87
20.26
16.14
9.8
2.93
-3.41
-8.66
-12.5
-14.81
-15.78
-15.48
-14.41
-13.5
-13.92
-16.55
-21.71
-29.2
-38.45
-48.56
-58.3
-65.2
-67.23
-63.26
-53.48
-39.38
-23.35
-7.95
4.95
14.76
21.95
27.3
31.37
34.22
35.64
35.48
33.97
31.72
29.57
28.17
27.62
27.52
27.2
26.14
24.26
21.85
19.47
17.58
16.38
15.68
15
13.77
11.76
9.24
6.82
5.19
4.58
4.91
5.77
6.65
6.89
6.25
5.01
3.84
3.6
4.5
6.44
8.96
11.55
13.14
12.89
10.52
6.37
1.3
-4.11
-9.07
-11.12
-7.33
2.26
15.11
27.37
35.61
38.89
36.29
27.9
14.89
-0.38
-16.84
-34.36
-52.49
-70.32
-83.46
-88.24
-83.23
-75.25
-66.05
-56.79
-45.71
-33.01
-19.15
-4.53
9.93
23.27
34.54
43.53
49.07
50.18
46.48
38.91
29.34
19.38
10.2
2.31
-3.8
-8.79
-13.69
-19.64
-27.24
-36.64
-47.79
-60.09
-72.12
-81.36
-85.57
-83.2
-74.06
-59.29
-41.15
-22.46
-5.67
7.81
17.92
25.21
30.47
34.34
37.31
39.74
41.86
43.83
45.76
47.74
49.74
51.72
53.68
55.72
58.01
60.59
63.37
66.07
68.3
69.71
70.19
69.92
69.41
69.31
70.11
71.95
74.33
76.15
75.88
72.05
63.65
50.7
34.33
16.63
0.06
-13.23
-22.04
-26.35
-27.16
-25.98
-24.19
-22.71
-21.89
-21.71
-22.03
-22.79
-24.07
-25.94
-28.4
-31.27
-34.28
-37.17
-39.82
-42.24
-44.56
-46.84
-49.05
-50.94
-52.16
-52.39
-51.5
-49.64
-47.16
-44.51
-42.01
-39.79
-37.72
-35.55
-33.07
-30.22
-27.14
-24.08
-21.29
-18.91
-16.91
-15.11
-13.26
-11.12
-8.59
-5.73
-2.77
0.03
2.46
4.51
6.37
8.37
10.81
13.79
17.19
20.65
23.81
26.43
28.49
30.16
31.76
33.59
35.97
39.13
43.18
47.9
52.62
56.21
57.35
55.02
48.97
39.94
29.44
19.22
10.53
3.81
-1.33
-5.65
-9.84
-14.22
-18.67
-22.93
-26.8
-30.2
-33.12
-35.48
-37.08
-37.68
-37.21
-35.86
-34.05
-32.28
-30.88
-29.89
-29.07
-28.07
-26.65
-24.82
-22.95
-21.62
-21.46
-22.99
-26.4
-31.57
-38.04
-45.09
-51.84
-57.36
-60.91
-62.04
-60.72
-57.33
-52.48
-46.81
-40.77
-34.61
-28.4
-22.19
-16.07
-10.18
-4.68
0.31
4.75
8.62
11.86
14.43
16.29
17.49
18.15
18.44
18.53
18.53
18.47
18.32
18.02
17.52
16.8
15.85
14.7
13.37
11.92
10.37
8.75
7.09
5.42
3.84
2.5
1.51
0.9
0.62
0.58
0.69
0.94
1.35
1.95
2.65
3.24
3.45
3.05
1.94
0.13
-2.25
-5.02
-8
-10.94
-13.55
-15.5
-16.58
-16.82
-16.5
-16.12
-16.2
-17.08
-18.8
-21.1
-23.51
-25.49
-26.55
-26.4
-24.96
-22.41
-19.12
-15.6
-12.37
-9.87
-8.33
-7.75
-7.81
-8.03
-7.83
-6.72
-4.43
-1.02
3.16
7.56
11.65
15.04
17.56
19.22
20.16
20.57
20.65
20.63
20.75
21.22
22.2
23.69
25.5
27.25
28.51
28.93
28.36
26.97
25.18
23.5
22.36
21.89
21.91
21.96
21.57
20.45
18.61
16.36
14.16
12.41
11.34
10.95
11.02
11.25
11.26
10.71
9.36
7.19
4.42
1.52
-0.96
-2.6
-3.37
-3.66
-4.11
-5.24
-7.17
-9.47
-11.37
-12.18
-11.66
-10.12
-8.27
-6.79
-6.04
-5.92
-6.05
-6
-5.6
-4.92
-4.19
-3.64
-3.4
-3.48
-3.85
-4.5
-5.34
-6.19
-6.7
-6.38
-4.77
-1.63
2.87
8.18
13.49
17.98
21.05
22.47
22.34
20.96
18.7
15.88
12.75
9.56
6.55
3.97
1.93
0.44
-0.69
-1.7
-2.76
-3.89
-4.89
-5.47
-5.4
-4.56
-3.04
-1.1
0.97
2.89
4.43
5.41
5.71
5.29
4.16
2.55
0.79
-0.66
-1.36
-1.03
0.36
2.55
5.08
7.46
9.34
10.54
11.11
11.18
10.89
10.34
9.62
8.77
7.89
7.01
6.19
5.43
4.78
4.28
3.99
3.9
3.94
3.95
3.79
3.4
2.84
2.26
1.76
1.33
0.93
0.44
-0.18
-0.92
-1.72
-2.56
-3.42
-4.28
-5
-5.39
-5.2
-4.3
-2.74
-0.75
1.32
3.16
4.6
5.62
6.32
6.79
7.07
7.19
7.15
7.02
6.91
6.9
7
7.18
7.3
7.24
6.95
6.45
5.83
5.22
4.74
4.39
4.13
3.83
3.4
2.79
2.03
1.17
0.28
-0.63
-1.62
-2.68
-3.8
-4.89
-5.87
-6.7
-7.34
-7.77
-7.9
-7.6
-6.76
-5.39
-3.66
-1.84
-0.19
1.13
2.14
2.96
3.73
4.55
5.38
6.11
6.62
6.89
6.95
6.91
6.86
6.86
6.86
6.79
6.57
6.22
5.82
5.54
5.49
5.71
6.1
6.49
6.66
6.48
5.93
5.09
4.13
3.24
2.59
2.29
2.36
2.72
3.2
3.63
3.85
3.76
3.37
2.69
1.79
0.75
-0.35
-1.42
-2.36
-3.15
-3.85
-4.57
-5.43
-6.51
-7.76
-9.03
-10.14
-10.91
-11.2
-10.91
-10.01
-8.49
-6.46
-4.15
-1.88
0.03
1.31
1.93
2.02
1.84
1.64
1.56
1.6
1.67
1.69
1.66
1.65
1.7
1.79
1.82
1.67
1.3
0.78
0.28
-0.03
-0.01
0.36
1.02
1.88
2.81
3.62
4.06
3.95
3.27
2.27
1.38
1.03
1.39
2.3
3.27
3.77
3.47
2.36
0.71
-1.09
-2.75
-4.17
-5.36
-6.36
-7.19
-7.86
-8.37
-8.79
-9.11
-9.27
-9.07
-8.34
-6.99
-5.16
-3.14
-1.32
0.03
0.84
1.25
1.49
1.73
2.04
2.36
2.6
2.74
2.88
3.18
3.76
4.66
5.73
6.74
7.46
7.76
7.74
7.64
7.75
8.26
9.12
10.05
10.72
10.8
10.15
8.84
7.13
5.32
3.7
2.51
1.98
2.34
3.64
5.66
7.81
9.24
9.08
6.87
2.75
-2.44
-7.58
-11.74
-14.51
-15.97
-16.49
-16.38
-15.72
-14.4
-12.21
-9.2
-5.85
-2.86
-0.84
0.03
-0.11
-0.84
-1.8
-2.61
-3.14
-3.68
-4.74
-6.61
-9.23
-12.23
-14.94
-16.59
-16.19
-13.03
-7.06
0.99
10.01
18.8
26.27
31.84
33.69
31.18
25.7
19.68
14.67
10.93
8.24
5.63
2.62
-0.95
-4.79
-8.57
-11.92
-14.72
-16.53
-16.47
-13.62
-7.53
1.27
11.42
21.01
27.8
30.34
28.75
24.6
19.83
15.78
12.49
9.26
5.23
-0.6
-8.55
-18.04
-27.86
-36.89
-44.48
-50.5
-54.72
-56.74
-56.84
-55.72
-54.38
-53.93
-55.73
-61.21
-71.36
-85.93
-98.46
-102.14
-93.07
-72.89
-46.91
-20.63
2.25
20.17
33.35
42.96
49.52
53
53.31
50.97
47.08
42.98
39.75
38.03
37.9
38.48
38.53
37.19
34.36
30.57
26.61
23.14
20.65
19.27
18.67
17.93
16.48
14.23
11.48
8.67
6.08
3.9
2.23
0.96
-0.1
-1.02
-1.79
-2.38
-2.77
-3.01
-3.12
-3.07
-2.93
-2.79
-2.76
-2.87
-3.13
-3.45
-3.78
-4.02
-4.13
-4.07
-3.87
-3.54
-3.12
-2.68
-2.3
-2.08
-2.03
-2.17
-2.44
-2.77
-3.08
-3.36
-3.65
-4.01
-4.48
-5.07
-5.69
-6.2
-6.4
-6.15
-5.41
-4.24
-2.82
-1.37
-0.11
0.83
1.4
1.62
1.6
1.45
1.26
1.11
1
0.94
0.9
0.89
0.91
0.98
1.05
1.06
0.94
0.66
0.29
-0.04
-0.24
-0.28
-0.26
-0.3
-0.54
-1
-1.6
-2.22
-2.72
-3.04
-3.18
-3.18
-3.1
-3.04
-3.13
-3.49
-4.19
-5.17
-6.21
-7.03
-7.3
-6.87
-5.73
-4.07
-2.2
-0.44
0.96
1.87
2.31
2.4
2.29
2.12
1.96
1.8
1.61
1.39
1.19
1.09
1.14
1.33
1.59
1.82
1.96
2.02
2.06
2.07
2
1.73
1.19
0.4
-0.5
-1.31
-1.87
-2.16
-2.29
-2.46
-2.82
-3.43
-4.23
-5.08
-5.84
-6.36
-6.53
-6.23
-5.38
-4
-2.25
-0.42
1.16
2.22
2.71
2.75
2.61
2.5
2.51
2.56
2.57
2.51
2.47
2.63
3.07
3.78
4.58
5.24
5.58
5.57
5.32
4.99
4.67
4.4
4.14
3.81
3.41
2.97
2.56
2.23
1.98
1.78
1.55
1.22
0.71
-0.03
-0.96
-1.96
-2.8
-3.21
-2.98
-2.04
-0.54
1.23
2.94
4.3
5.2
5.62
5.69
5.54
5.27
4.95
4.63
4.32
4.01
3.72
3.5
3.41
3.49
3.78
4.19
4.58
4.78
4.64
4.13
3.32
2.39
1.5
0.78
0.25
-0.13
-0.44
-0.68
-0.84
-0.9
-0.87
-0.83
-0.89
-1.17
-1.73
-2.5
-3.25
-3.71
-3.6
-2.75
-1.19
0.88
3.1
5.11
6.65
7.63
8.11
8.22
8.09
7.82
7.47
7.09
6.77
6.6
6.64
6.89
7.26
7.6
7.73
7.59
7.17
6.57
5.93
5.35
4.88
4.52
4.23
3.96
3.68
3.33
2.88
2.27
1.53
0.7
-0.13
-0.95
-1.77
-2.67
-3.7
-4.82
-5.85
-6.55
-6.69
-6.19
-5.16
-3.81
-2.43
-1.23
-0.4
0.02
0.07
-0.12
-0.4
-0.61
-0.69
-0.64
-0.55
-0.51
-0.56
-0.63
-0.62
-0.44
-0.09
0.29
0.53
0.49
0.13
-0.45
-1.09
-1.64
-2.02
-2.23
-2.3
-2.31
-2.32
-2.39
-2.58
-2.9
-3.35
-3.84
-4.27
-4.6
-4.87
-5.18
-5.62
-6.19
-6.74
-7.02
-6.78
-5.89
-4.42
-2.59
-0.73
0.87
2.04
2.7
2.91
2.71
2.24
1.61
0.97
0.48
0.28
0.45
0.95
1.65
2.34
2.85
3.03
2.85
2.37
1.71
1.02
0.38
-0.16
-0.62
-1.04
-1.47
-1.95
-2.47
-3.05
-3.64
-4.19
-4.63
-4.93
-5.05
-5.09
-5.12
-5.26
-5.58
-6.05
-6.6
-7.09
-7.39
-7.37
-6.93
-6.05
-4.8
-3.35
-1.94
-0.8
-0.05
0.31
0.41
0.4
0.36
0.31
0.22
0.1
0.02
0.11
0.48
1.14
1.96
2.73
3.21
3.27
2.94
2.39
1.82
1.39
1.11
0.88
0.58
0.15
-0.35
-0.78
-1.06
-1.2
-1.35
-1.66
-2.24
-2.99
-3.7
-4.11
-4.04
-3.45
-2.46
-1.26
-0.09
0.91
1.63
2.06
2.22
2.2
2.06
1.85
1.61
1.36
1.13
0.92
0.71
0.48
0.21
-0.09
-0.36
-0.54
-0.54
-0.36
-0.03
0.35
0.61
0.65
0.4
-0.14
-0.86
-1.63
-2.25
-2.61
-2.66
-2.49
-2.27
-2.23
-2.53
-3.18
-4.02
-4.81
-5.27
-5.23
-4.68
-3.71
-2.53
-1.33
-0.26
0.61
1.27
1.75
2.09
2.31
2.45
2.48
2.39
2.22
2.02
1.91
1.96
2.22
2.66
3.17
3.64
3.97
4.13
4.1
3.9
3.57
3.12
2.61
2.05
1.45
0.81
0.11
-0.63
-1.32
-1.89
-2.3
-2.58
-2.85
-3.22
-3.74
-4.38
-5.03
-5.53
-5.78
-5.73
-5.41
-4.84
-4.06
-3.06
-1.87
-0.53
0.85
2.12
3.11
3.71
3.88
3.68
3.25
2.71
2.18
1.75
1.5
1.44
1.57
1.81
2.03
2.13
2.08
1.95
1.85
1.87
1.95
1.94
1.62
0.9
-0.19
-1.45
-2.62
-3.47
-3.92
-4.04
-4.02
-4.09
-4.44
-5.13
-6.07
-7.05
-7.78
-8.04
-7.73
-6.85
-5.53
-3.95
-2.3
-0.76
0.52
1.43
1.94
2.09
1.99
1.8
1.65
1.64
1.8
2.11
2.54
3.04
3.51
3.86
3.96
3.72
3.09
2.15
1.07
0.05
-0.7
-1.07
-1.1
-0.92
-0.72
-0.66
-0.79
-1.09
-1.42
-1.69
-1.85
-1.94
-2.04
-2.23
-2.45
-2.51
-2.19
-1.35
-0.05
1.44
2.75
3.63
4
3.99
3.83
3.67
3.54
3.39
3.15
2.84
2.57
2.5
2.67
3.02
3.38
3.6
3.61
3.43
3.17
2.89
2.63
2.37
2.05
1.61
1.06
0.39
-0.35
-1.13
-1.91
-2.66
-3.34
-3.93
-4.42
-4.84
-5.17
-5.41
-5.48
-5.29
-4.75
-3.86
-2.66
-1.29
0.04
1.17
1.97
2.39
2.43
2.18
1.73
1.22
0.76
0.48
0.43
0.61
0.98
1.43
1.88
2.24
2.47
2.57
2.58
2.54
2.47
2.35
2.11
1.68
1.05
0.25
-0.56
-1.25
-1.69
-1.85
-1.84
-1.83
-2
-2.45
-3.14
-3.93
-4.57
-4.8
-4.45
-3.45
-1.89
0.02
1.94
3.54
4.57
4.92
4.65
3.95
3.06
2.17
1.39
0.78
0.37
0.2
0.32
0.69
1.23
1.75
2.11
2.24
2.17
2
1.83
1.66
1.42
1.03
0.47
-0.2
-0.85
-1.34
-1.61
-1.68
-1.67
-1.72
-1.95
-2.41
-3.04
-3.66
-4.06
-4.04
-3.49
-2.48
-1.16
0.22
1.45
2.39
2.98
3.23
3.16
2.82
2.27
1.57
0.86
0.27
-0.1
-0.16
0.08
0.55
1.16
1.78
2.29
2.59
2.63
2.39
1.91
1.24
0.42
-0.49
-1.42
-2.27
-2.96
-3.42
-3.69
-3.85
-4.04
-4.32
-4.69
-5.01
-5.14
-4.91
-4.27
-3.22
-1.86
-0.35
1.14
2.45
3.44
4.03
4.26
4.2
3.98
3.71
3.49
3.39
3.44
3.66
3.99
4.37
4.72
4.94
5.02
5.01
4.95
4.9
4.87
4.8
4.61
4.19
3.51
2.61
1.57
0.53
-0.39
-1.12
-1.68
-2.18
-2.74
-3.42
-4.16
-4.81
-5.18
-5.13
-4.65
-3.83
-2.81
-1.74
-0.7
0.26
1.1
1.71
1.99
1.85
1.27
0.3
-0.92
-2.19
-3.28
-3.96
-3.99
-3.28
-1.88
-0.05
1.84
3.42
4.46
4.92
4.88
4.51
3.9
3.13
2.25
1.35
0.58
0.08
-0.05
0.15
0.52
0.79
0.75
0.26
-0.59
-1.54
-2.23
-2.31
-1.62
-0.24
1.53
3.28
4.61
5.32
5.38
4.95
4.23
3.41
2.58
1.81
1.11
0.51
0.07
-0.23
-0.44
-0.64
-0.92
-1.28
-1.7
-2.12
-2.51
-2.9
-3.36
-3.94
-4.65
-5.43
-6.2
-6.89
-7.47
-7.98
-8.44
-8.91
-9.41
-9.93
-10.42
-10.77
-10.84
-10.45
-9.52
-8.04
-6.13
-3.97
-1.76
0.31
2.12
3.58
4.62
5.19
5.33
5.14
4.79
4.48
4.38
4.62
5.18
5.99
6.88
7.64
8.13
8.24
7.97
7.39
6.62
5.74
4.84
3.93
3.05
2.21
1.46
0.83
0.32
-0.09
-0.46
-0.86
-1.33
-1.92
-2.6
-3.28
-3.79
-3.99
-3.73
-2.98
-1.82
-0.44
0.92
2.08
2.91
3.34
3.35
2.93
2.12
1.09
0.05
-0.68
-0.87
-0.46
0.43
1.51
2.51
3.27
3.79
4.16
4.45
4.68
4.81
4.82
4.72
4.57
4.41
4.23
3.97
3.58
3.06
2.5
2.01
1.67
1.49
1.4
1.26
0.92
0.26
-0.74
-1.92
-2.98
-3.55
-3.33
-2.22
-0.44
1.63
3.5
4.85
5.56
5.72
5.55
5.26
4.97
4.71
4.48
4.27
4.1
4.02
4.07
4.22
4.42
4.52
4.43
4.07
3.48
2.79
2.16
1.71
1.44
1.25
0.98
0.53
-0.09
-0.77
-1.33
-1.65
-1.72
-1.64
-1.61
-1.77
-2.19
-2.83
-3.5
-4.01
-4.18
-3.91
-3.22
-2.17
-0.9
0.45
1.7
2.67
3.22
3.32
3.03
2.55
2.07
1.75
1.58
1.47
1.27
0.92
0.46
0.03
-0.22
-0.26
-0.13
0.02
0.08
-0
-0.23
-0.54
-0.89
-1.3
-1.77
-2.28
-2.76
-3.11
-3.25
-3.15
-2.89
-2.59
-2.39
-2.37
-2.53
-2.82
-3.09
-3.23
-3.11
-2.62
-1.75
-0.56
0.77
1.99
2.84
3.17
2.98
2.44
1.75
1.09
0.55
0.15
-0.12
-0.24
-0.18
0.09
0.52
0.99
1.35
1.51
1.43
1.15
0.73
0.22
-0.36
-0.96
-1.53
-1.98
-2.26
-2.38
-2.41
-2.45
-2.56
-2.74
-2.94
-3.09
-3.13
-3.05
-2.85
-2.52
-2.06
-1.49
-0.9
-0.43
-0.22
-0.37
-0.83
-1.44
-2.02
-2.41
-2.54
-2.44
-2.19
-1.85
-1.44
-0.98
-0.52
-0.16
-0.01
-0.12
-0.49
-1.02
-1.56
-1.94
-2.09
-2
-1.79
-1.61
-1.61
-1.85
-2.31
-2.87
-3.39
-3.71
-3.72
-3.39
-2.75
-1.9
-0.98
-0.16
0.47
0.87
1.11
1.26
1.38
1.5
1.58
1.54
1.36
1.05
0.67
0.32
0.1
0.12
0.43
0.98
1.68
2.35
2.81
2.97
2.76
2.25
1.53
0.75
0
-0.61
-1.09
-1.46
-1.8
-2.18
-2.61
-3.09
-3.52
-3.82
-3.86
-3.58
-2.94
-1.98
-0.82
0.38
1.44
2.23
2.71
2.89
2.84
2.61
2.23
1.7
1.04
0.32
-0.33
-0.78
-0.94
-0.8
-0.44
0.01
0.4
0.64
0.68
0.5
0.13
-0.42
-1.07
-1.72
-2.25
-2.6
-2.78
-2.92
-3.19
-3.73
-4.54
-5.5
-6.42
-7.1
-7.39
-7.25
-6.69
-5.82
-4.76
-3.67
-2.67
-1.86
-1.25
-0.85
-0.63
-0.59
-0.72
-1
-1.32
-1.52
-1.44
-1.01
-0.29
0.51
1.13
1.41
1.31
0.93
0.43
-0.07
-0.53
-0.97
-1.43
-1.93
-2.44
-2.92
-3.37
-3.78
-4.17
-4.52
-4.8
-4.99
-5.07
-5.06
-4.95
-4.74
-4.38
-3.83
-3.11
-2.3
-1.52
-0.85
-0.35
-0.04
0.08
0.02
-0.17
-0.42
-0.59
-0.55
-0.21
0.41
1.17
1.88
2.35
2.48
2.27
1.81
1.23
0.64
0.15
-0.19
-0.39
-0.49
-0.58
-0.76
-1.06
-1.43
-1.76
-1.87
-1.64
-0.99
0.07
1.46
3.05
4.64
6.02
6.99
7.44
7.39
6.98
6.44
6
5.79
5.81
5.97
6.14
6.23
6.24
6.19
6.11
5.97
5.74
5.38
4.93
4.44
4.03
3.71
3.44
3.1
2.59
1.86
0.96
-0.01
-0.93
-1.76
-2.52
-3.26
-4.03
-4.82
-5.53
-6.04
-6.21
-5.97
-5.33
-4.4
-3.36
-2.43
-1.73
-1.29
-1.03
-0.83
-0.58
-0.27
0.04
0.27
0.39
0.46
0.56
0.75
1.02
1.24
1.29
1.12
0.78
0.42
0.18
0.13
0.24
0.39
0.44
0.35
0.14
-0.13
-0.39
-0.66
-0.94
-1.26
-1.63
-1.99
-2.31
-2.56
-2.75
-2.9
-3.01
-3.05
-2.93
-2.58
-1.95
-1.04
0.04
1.15
2.14
2.89
3.33
3.46
3.31
2.95
2.46
1.96
1.6
1.53
1.83
2.49
3.32
4.06
4.44
4.35
3.85
3.15
2.49
2.06
1.9
1.89
1.91
1.82
1.63
1.4
1.24
1.21
1.23
1.15
0.82
0.25
-0.45
-1.06
-1.45
-1.64
-1.77
-2.05
-2.57
-3.19
-3.64
-3.62
-2.97
-1.79
-0.37
0.94
1.9
2.39
2.49
2.31
1.99
1.6
1.22
0.88
0.64
0.58
0.74
1.11
1.63
2.15
2.55
2.72
2.63
2.31
1.83
1.26
0.62
-0.07
-0.84
-1.68
-2.55
-3.37
-4.04
-4.46
-4.55
-4.25
-3.57
-2.56
-1.37
-0.21
0.75
1.39
1.8
2.18
2.81
3.89
5.41
7.17
8.88
10.24
11.07
11.34
11.13
10.57
9.85
9.14
8.63
8.44
8.63
9.11
9.72
10.22
10.39
10.12
9.44
8.49
7.46
6.54
5.84
5.38
5.07
4.76
4.27
3.47
2.29
0.73
-1.14
-3.21
-5.3
-7.21
-8.76
-9.84
-10.43
-10.63
-10.59
-10.44
-10.22
-9.83
-9.16
-8.13
-6.76
-5.2
-3.67
-2.36
-1.4
-0.82
-0.61
-0.74
-1.14
-1.74
-2.39
-2.92
-3.16
-3.01
-2.49
-1.73
-0.93
-0.27
0.14
0.28
0.2
0.04
-0.11
-0.22
-0.3
-0.44
-0.68
-1.08
-1.61
-2.21
-2.8
-3.29
-3.63
-3.75
-3.57
-3.06
-2.23
-1.13
0.07
1.18
2.04
2.56
2.73
2.59
2.23
1.72
1.17
0.67
0.29
0.09
0.05
0.15
0.31
0.49
0.64
0.74
0.77
0.71
0.54
0.26
-0.14
-0.63
-1.2
-1.84
-2.53
-3.25
-3.93
-4.55
-5.09
-5.61
-6.2
-6.92
-7.74
-8.56
-9.23
-9.7
-10
-10.32
-10.84
-11.68
-12.79
-13.99
-15.01
-15.66
-15.78
-15.31
-14.22
-12.51
-10.2
-7.42
-4.44
-1.53
1
3.02
4.52
5.57
6.27
6.65
6.74
6.54
6.1
5.54
4.98
4.5
4.09
3.69
3.23
2.65
1.95
1.2
0.48
-0.11
-0.46
-0.46
-0.06
0.7
1.69
2.69
3.48
3.93
4.01
3.78
3.3
2.65
1.85
0.94
-0.02
-0.87
-1.48
-1.71
-1.57
-1.17
-0.7
-0.33
-0.15
-0.15
-0.26
-0.41
-0.56
-0.69
-0.81
-0.87
-0.81
-0.61
-0.33
-0.11
-0.1
-0.4
-0.98
-1.64
-2.13
-2.23
-1.88
-1.15
-0.24
0.68
1.48
2.12
2.6
2.93
3.1
3.08
2.84
2.35
1.59
0.61
-0.5
-1.59
-2.46
-2.99
-3.11
-2.91
-2.54
-2.15
-1.8
-1.53
-1.28
-1.06
-0.88
-0.78
-0.79
-0.87
-0.96
-1.01
-0.99
-0.94
-0.89
-0.87
-0.86
-0.85
-0.85
-0.86
-0.85
-0.75
-0.43
0.21
1.21
2.44
3.71
4.79
5.52
5.82
5.72
5.3
4.61
3.74
2.76
1.79
0.94
0.3
-0.11
-0.33
-0.47
-0.58
-0.71
-0.86
-1.04
-1.3
-1.7
-2.26
-2.91
-3.56
-4.07
-4.38
-4.5
-4.52
-4.54
-4.63
-4.79
-4.98
-5.15
-5.32
-5.52
-5.77
-6.03
-6.15
-5.92
-5.18
-3.87
-2.1
-0.09
1.88
3.61
4.99
6.03
6.81
7.39
7.8
8.03
8.09
8.03
7.95
7.99
8.22
8.65
9.2
9.67
9.91
9.8
9.36
8.71
8
7.35
6.79
6.23
5.57
4.75
3.77
2.76
1.82
1.05
0.43
-0.14
-0.76
-1.51
-2.4
-3.34
-4.16
-4.73
-4.92
-4.69
-4.06
-3.14
-2.06
-0.97
-0
0.74
1.2
1.36
1.22
0.79
0.12
-0.7
-1.52
-2.18
-2.54
-2.56
-2.31
-1.92
-1.55
-1.33
-1.28
-1.4
-1.62
-1.9
-2.2
-2.49
-2.75
-2.97
-3.09
-3.07
-2.86
-2.43
-1.82
-1.17
-0.64
-0.38
-0.46
-0.81
-1.27
-1.63
-1.73
-1.49
-0.92
-0.12
0.81
1.72
2.49
3.03
3.26
3.17
2.79
2.22
1.57
0.93
0.36
-0.13
-0.52
-0.76
-0.81
-0.64
-0.28
0.21
0.72
1.16
1.47
1.63
1.62
1.47
1.19
0.83
0.45
0.11
-0.14
-0.28
-0.34
-0.35
-0.36
-0.43
-0.6
-0.86
-1.15
-1.34
-1.29
-0.89
-0.11
0.95
2.14
3.27
4.23
4.94
5.38
5.55
5.46
5.18
4.78
4.35
3.94
3.62
3.41
3.32
3.35
3.47
3.65
3.84
3.97
4
3.9
3.64
3.23
2.66
1.96
1.16
0.36
-0.39
-1.02
-1.5
-1.88
-2.23
-2.7
-3.38
-4.28
-5.27
-6.1
-6.52
-6.36
-5.62
-4.46
-3.14
-1.89
-0.86
-0.1
0.39
0.6
0.54
0.22
-0.25
-0.77
-1.2
-1.46
-1.53
-1.47
-1.34
-1.23
-1.19
-1.25
-1.43
-1.71
-2.04
-2.35
-2.59
-2.78
-2.97
-3.24
-3.65
-4.16
-4.7
-5.14
-5.4
-5.5
-5.5
-5.54
-5.67
-5.89
-6.1
-6.16
-5.93
-5.35
-4.42
-3.24
-1.95
-0.69
0.43
1.32
1.94
2.31
2.47
2.49
2.44
2.38
2.36
2.41
2.54
2.77
3.05
3.34
3.59
3.76
3.84
3.88
3.91
3.91
3.82
3.51
2.93
2.09
1.13
0.21
-0.52
-1.03
-1.37
-1.69
-2.08
-2.54
-3.04
-3.48
-3.83
-4.1
-4.32
-4.44
-4.37
-4.02
-3.37
-2.51
-1.64
-0.94
-0.51
-0.31
-0.27
-0.3
-0.37
-0.49
-0.68
-0.91
-1.09
-1.16
-1.08
-0.89
-0.67
-0.48
-0.33
-0.19
-0.03
0.14
0.25
0.21
-0.06
-0.57
-1.22
-1.83
-2.21
-2.25
-2
-1.6
-1.24
-1.07
-1.14
-1.41
-1.78
-2.18
-2.52
-2.72
-2.66
-2.22
-1.33
-0.08
1.37
2.74
3.78
4.33
4.39
4.07
3.51
2.92
2.44
2.19
2.18
2.4
2.73
3.09
3.41
3.67
3.85
3.97
4
3.87
3.54
2.98
2.28
1.51
0.78
0.16
-0.29
-0.59
-0.77
-0.87
-0.98
-1.18
-1.55
-2.11
-2.82
-3.59
-4.26
-4.69
-4.77
-4.44
-3.71
-2.64
-1.36
-0.03
1.21
2.22
2.95
3.36
3.48
3.31
2.89
2.27
1.57
0.94
0.56
0.53
0.88
1.48
2.13
2.6
2.76
2.57
2.09
1.42
0.67
-0.11
-0.86
-1.52
-2.02
-2.32
-2.41
-2.36
-2.3
-2.34
-2.54
-2.91
-3.41
-3.98
-4.54
-5
-5.28
-5.28
-4.97
-4.34
-3.44
-2.36
-1.17
0.03
1.17
2.12
2.76
3.02
2.89
2.44
1.83
1.23
0.8
0.64
0.81
1.28
1.98
2.73
3.37
3.75
3.83
3.67
3.39
3.12
2.91
2.74
2.55
2.31
2.04
1.76
1.48
1.12
0.62
-0.05
-0.85
-1.65
-2.31
-2.76
-2.99
-3.01
-2.83
-2.4
-1.71
-0.8
0.2
1.15
1.93
2.54
3.04
3.49
3.87
4.04
3.85
3.24
2.3
1.32
0.62
0.42
0.77
1.45
2.15
2.57
2.55
2.17
1.62
1.12
0.77
0.51
0.2
-0.32
-1.07
-1.97
-2.84
-3.55
-4.04
-4.38
-4.66
-4.92
-5.1
-5.1
-4.82
-4.22
-3.38
-2.39
-1.33
-0.22
0.96
2.21
3.46
4.61
5.54
6.17
6.47
6.44
6.07
5.35
4.37
3.26
2.25
1.53
1.17
1.09
1.1
0.98
0.65
0.14
-0.4
-0.86
-1.16
-1.29
-1.28
-1.14
-0.89
-0.57
-0.22
0.09
0.28
0.34
0.26
0.1
-0.16
-0.49
-0.89
-1.27
-1.5
-1.4
-0.83
0.24
1.72
3.43
5.09
6.45
7.28
7.49
7.1
6.25
5.2
4.17
3.34
2.78
2.47
2.34
2.27
2.14
1.87
1.38
0.61
-0.4
-1.55
-2.68
-3.64
-4.37
-4.87
-5.22
-5.53
-5.86
-6.25
-6.69
-7.16
-7.65
-8.13
-8.58
-8.95
-9.2
-9.29
-9.15
-8.71
-7.88
-6.58
-4.85
-2.83
-0.78
1.03
2.42
3.36
3.94
4.31
4.58
4.77
4.85
4.8
4.66
4.53
4.52
4.67
4.93
5.19
5.35
5.38
5.3
5.21
5.15
5.11
4.95
4.55
3.79
2.7
1.45
0.27
-0.59
-1.04
-1.13
-1.09
-1.15
-1.48
-2.06
-2.77
-3.39
-3.79
-3.88
-3.69
-3.29
-2.72
-2.03
-1.25
-0.44
0.31
0.88
1.17
1.17
0.93
0.58
0.24
0.04
0.04
0.24
0.6
1.05
1.54
2.07
2.6
3.12
3.54
3.79
3.79
3.49
2.92
2.17
1.33
0.52
-0.18
-0.76
-1.22
-1.56
-1.83
-2.05
-2.3
-2.62
-3.03
-3.44
-3.7
-3.59
-2.93
-1.7
-0.05
1.74
3.34
4.51
5.15
5.3
5.08
4.62
4
3.28
2.51
1.78
1.18
0.8
0.68
0.76
0.91
0.98
0.87
0.56
0.13
-0.31
-0.7
-1.04
-1.41
-1.87
-2.42
-2.97
-3.37
-3.52
-3.43
-3.22
-3.05
-3.03
-3.15
-3.31
-3.38
-3.26
-2.93
-2.42
-1.74
-0.92
0.09
1.26
2.54
3.78
4.8
5.4
5.49
5.1
4.36
3.49
2.73
2.21
2.01
2.06
2.25
2.47
2.63
2.71
2.69
2.55
2.26
1.76
1.08
0.28
-0.52
-1.21
-1.76
-2.21
-2.64
-3.09
-3.55
-3.92
-4.13
-4.2
-4.23
-4.35
-4.58
-4.77
-4.64
-3.96
-2.66
-0.92
0.9
2.42
3.42
3.88
3.93
3.73
3.36
2.88
2.29
1.68
1.16
0.84
0.75
0.84
1.02
1.2
1.35
1.47
1.57
1.62
1.54
1.26
0.72
-0.04
-0.91
-1.77
-2.49
-3.01
-3.3
-3.41
-3.37
-3.22
-3.05
-2.92
-2.93
-3.14
-3.51
-3.89
-4.02
-3.63
-2.54
-0.79
1.34
3.39
4.92
5.66
5.6
4.92
3.94
2.94
2.1
1.45
1.01
0.76
0.68
0.78
1
1.26
1.44
1.42
1.16
0.67
0.06
-0.6
-1.21
-1.75
-2.23
-2.63
-2.94
-3.1
-3.1
-2.95
-2.76
-2.67
-2.81
-3.22
-3.85
-4.52
-5
-5.06
-4.54
-3.41
-1.79
0.05
1.82
3.28
4.28
4.78
4.82
4.45
3.73
2.76
1.72
0.79
0.17
-0.04
0.13
0.57
1.1
1.58
1.93
2.1
2.07
1.81
1.3
0.53
-0.41
-1.38
-2.22
-2.83
-3.21
-3.43
-3.59
-3.74
-3.88
-3.97
-3.99
-3.98
-4.03
-4.16
-4.28
-4.22
-3.74
-2.72
-1.18
0.66
2.45
3.86
4.69
4.85
4.4
3.54
2.47
1.46
0.73
0.39
0.45
0.84
1.41
2.02
2.57
3.01
3.28
3.32
3.07
2.52
1.74
0.88
0.1
-0.49
-0.9
-1.24
-1.66
-2.28
-3.07
-3.9
-4.62
-5.12
-5.37
-5.43
-5.36
-5.17
-4.8
-4.1
-2.98
-1.47
0.25
1.88
3.14
3.85
4.02
3.78
3.35
2.86
2.41
2.01
1.69
1.45
1.36
1.46
1.74
2.14
2.52
2.76
2.79
2.57
2.13
1.55
0.91
0.32
-0.13
-0.36
-0.38
-0.26
-0.11
-0.04
-0.11
-0.33
-0.68
-1.08
-1.48
-1.79
-1.87
-1.56
-0.76
0.55
2.2
3.88
5.22
5.99
6.1
5.7
5.01
4.24
3.53
2.93
2.47
2.19
2.15
2.34
2.7
3.09
3.34
3.34
3.07
2.6
2.03
1.44
0.87
0.35
-0.13
-0.59
-1.03
-1.48
-1.99
-2.53
-3.09
-3.61
-4.05
-4.42
-4.7
-4.88
-4.91
-4.67
-4.08
-3.11
-1.82
-0.34
1.14
2.45
3.47
4.14
4.4
4.23
3.67
2.84
1.96
1.27
0.98
1.14
1.64
2.25
2.75
3.02
3.1
3.07
3.01
2.87
2.54
1.92
0.98
-0.13
-1.19
-2.02
-2.55
-2.86
-3.13
-3.46
-3.9
-4.38
-4.81
-5.12
-5.28
-5.25
-4.95
-4.33
-3.33
-2.05
-0.64
0.67
1.73
2.45
2.86
3
2.9
2.56
2.02
1.39
0.85
0.55
0.58
0.87
1.26
1.6
1.79
1.83
1.75
1.58
1.26
0.75
0.03
-0.8
-1.57
-2.12
-2.42
-2.52
-2.63
-2.92
-3.51
-4.36
-5.32
-6.16
-6.63
-6.56
-5.85
-4.59
-2.96
-1.22
0.39
1.71
2.7
3.36
3.75
3.91
3.87
3.68
3.39
3.09
2.91
2.94
3.25
3.83
4.62
5.46
6.21
6.71
6.85
6.58
5.94
4.99
3.86
2.72
1.76
1.09
0.72
0.52
0.27
-0.27
-1.2
-2.48
-3.88
-5.1
-5.9
-6.15
-5.86
-5.12
-4.07
-2.83
-1.49
-0.14
1.07
2.02
2.57
2.71
2.54
2.22
1.96
1.89
2.03
2.35
2.76
3.21
3.63
3.94
4.09
4.01
3.68
3.17
2.55
1.92
1.28
0.62
-0.09
-0.82
-1.51
-2.05
-2.4
-2.57
-2.63
-2.68
-2.82
-3.11
-3.6
-4.27
-5.02
-5.69
-6.09
-6.01
-5.39
-4.28
-2.87
-1.38
-0.03
1.07
1.84
2.24
2.24
1.86
1.14
0.24
-0.63
-1.26
-1.5
-1.33
-0.86
-0.24
0.37
0.84
1.14
1.28
1.33
1.31
1.23
1.08
0.81
0.44
0.02
-0.33
-0.51
-0.44
-0.16
0.21
0.49
0.57
0.35
-0.16
-0.87
-1.68
-2.43
-2.91
-2.97
-2.5
-1.53
-0.22
1.16
2.31
3.02
3.21
2.94
2.39
1.73
1.07
0.43
-0.2
-0.83
-1.39
-1.76
-1.84
-1.59
-1.11
-0.56
-0.14
0.05
-0.01
-0.23
-0.53
-0.83
-1.14
-1.43
-1.67
-1.77
-1.71
-1.51
-1.28
-1.17
-1.31
-1.72
-2.29
-2.86
-3.25
-3.34
-3.08
-2.47
-1.54
-0.37
0.94
2.24
3.35
4.11
4.41
4.29
3.89
3.39
2.92
2.57
2.31
2.09
1.89
1.71
1.61
1.67
1.88
2.18
2.45
2.55
2.37
1.88
1.16
0.31
-0.5
-1.17
-1.64
-1.93
-2.09
-2.22
-2.38
-2.61
-2.96
-3.41
-3.95
-4.47
-4.84
-4.89
-4.49
-3.58
-2.23
-0.56
1.2
2.81
4.05
4.77
4.93
4.61
4.04
3.49
3.16
3.13
3.3
3.51
3.63
3.64
3.62
3.71
4
4.46
4.95
5.31
5.42
5.23
4.79
4.15
3.37
2.46
1.43
0.3
-0.91
-2.18
-3.52
-4.92
-6.4
-7.91
-9.37
-10.67
-11.66
-12.21
-12.21
-11.61
-10.44
-8.84
-7.07
-5.45
-4.24
-3.59
-3.51
-3.83
-4.34
-4.83
-5.17
-5.26
-5.06
-4.56
-3.78
-2.78
-1.7
-0.7
0.05
0.5
0.67
0.65
0.56
0.46
0.34
0.2
-0
-0.21
-0.37
-0.42
-0.36
-0.28
-0.29
-0.44
-0.69
-0.89
-0.86
-0.43
0.42
1.65
3.09
4.55
5.83
6.82
7.41
7.6
7.39
6.86
6.1
5.24
4.47
3.96
3.86
4.16
4.77
5.44
5.93
6.07
5.83
5.3
4.64
3.99
3.41
2.87
2.36
1.86
1.37
0.88
0.35
-0.3
-1.13
-2.12
-3.16
-4
-4.42
-4.29
-3.63
-2.66
-1.63
-0.8
-0.28
-0.06
-0.06
-0.21
-0.49
-0.93
-1.57
-2.37
-3.2
-3.86
-4.21
-4.18
-3.86
-3.36
-2.84
-2.37
-1.99
-1.67
-1.42
-1.29
-1.32
-1.54
-1.94
-2.44
-2.95
-3.41
-3.79
-4.08
-4.28
-4.39
-4.42
-4.34
-4.12
-3.7
-3.03
-2.09
-0.95
0.28
1.41
2.29
2.81
2.94
2.73
2.25
1.57
0.77
-0.06
-0.8
-1.33
-1.55
-1.44
-1.07
-0.62
-0.28
-0.18
-0.36
-0.77
-1.26
-1.73
-2.12
-2.48
-2.88
-3.36
-3.88
-4.32
-4.58
-4.61
-4.49
-4.36
-4.32
-4.34
-4.26
-3.8
-2.75
-1.13
0.81
2.68
4.1
4.89
5.08
4.89
4.52
4.09
3.63
3.13
2.7
2.48
2.64
3.25
4.23
5.38
6.49
7.37
7.97
8.25
8.21
7.87
7.28
6.52
5.74
5.11
4.71
4.52
4.37
4.08
3.52
2.71
1.84
1.22
1.12
1.65
2.72
3.99
5.06
5.61
5.49
4.77
3.63
2.28
0.9
-0.45
-1.73
-2.94
-4.04
-4.97
-5.65
-6.05
-6.16
-6.06
-5.88
-5.76
-5.8
-6.01
-6.36
-6.72
-6.96
-7.01
-6.88
-6.7
-6.63
-6.76
-7.13
-7.63
-8.12
-8.44
-8.47
-8.12
-7.33
-6.04
-4.29
-2.22
-0.15
1.56
2.62
2.95
2.69
2.17
1.69
1.45
1.49
1.77
2.24
2.93
3.88
5.07
6.38
7.62
8.58
9.12
9.22
8.95
8.46
7.88
7.29
6.72
6.12
5.42
4.53
3.43
2.14
0.8
-0.39
-1.19
-1.47
-1.21
-0.58
0.17
0.79
1.15
1.22
1.1
0.88
0.59
0.2
-0.39
-1.22
-2.23
-3.23
-3.97
-4.26
-4.02
-3.34
-2.47
-1.75
-1.48
-1.83
-2.75
-4.05
-5.48
-6.76
-7.7
-8.33
-8.81
-9.36
-10.07
-10.89
-11.68
-12.2
-12.17
-11.35
-9.72
-7.61
-5.52
-3.9
-3.01
-2.87
-3.24
-3.6
-3.36
-2.2
-0.31
1.93
4.11
6.02
7.43
8.13
8.29
8.44
9.26
11.24
14.6
19.04
23.71
27.1
27.05
22.05
12.94
2.69
-5.95
-11.71
-15.69
-18.87
-21.77
-24.39
-26.28
-27.02
-25.75
-22.83
-19.01
-15.14
-11.79
-9.34
-7.83
-6.77
-5.33
-2.88
0.49
4.31
7.86
10.63
12.41
13.49
14.61
16.49
19.3
21.7
22.36
20.76
17.77
14.61
12.05
10.14
8.54
6.9
5.14
3.84
3.25
3.38
3.76
3.78
3.26
2.81
3.48
6.22
11.51
18.49
25.52
30.49
31.66
28.24
20.7
10.11
-2.26
-15.01
-26.96
-36.68
-42.83
-44.68
-42.54
-37.79
-32.74
-29.78
-28.88
-29.52
-29.89
-28.03
-22.95
-16.25
-8.49
-0.29
7.68
15.1
21.16
25.34
27.42
27.74
26.94
25.07
22.67
20.34
19.37
18.85
17.69
14.47
8.89
1.36
-7.09
-15.32
-22.75
-28.23
-30.91
-30.36
-26.85
-20.93
-13.4
-5.68
1.77
8.2
13.02
15.75
16.58
15.44
12.9
9.65
6.4
3.83
2.22
1.66
1.77
2.01
1.82
1
-0.35
-1.85
-2.85
-2.92
-1.92
-0.15
1.84
3.48
4.5
4.88
4.76
4.43
4.05
3.7
3.31
2.8
2.18
1.55
1.07
0.83
0.85
1
1.06
0.9
0.44
-0.18
-0.74
-1.05
-1.02
-0.71
-0.31
-0
0.1
0.02
-0.11
-0.15
0.03
0.43
0.97
1.55
2.09
2.61
3.14
3.73
4.41
5.12
5.8
6.38
6.78
6.93
6.79
6.29
5.46
4.37
3.18
2.04
1.04
0.17
-0.68
-1.6
-2.65
-3.75
-4.72
-5.37
-5.58
-5.36
-4.85
-4.25
-3.76
-3.51
-3.52
-3.73
-4.07
-4.47
-4.92
-5.44
-5.98
-6.48
-6.79
-6.74
-6.2
-5.14
-3.61
-1.8
0.04
1.67
2.86
3.51
3.67
3.45
3.05
2.62
2.24
1.89
1.53
1.14
0.78
0.53
0.49
0.68
0.99
1.27
1.38
1.23
0.85
0.34
-0.15
-0.46
-0.49
-0.21
0.3
0.9
1.39
1.62
1.5
1.11
0.6
0.22
0.19
0.67
1.75
3.39
5.48
7.77
9.98
11.82
13.09
13.74
13.84
13.55
12.97
12.18
11.22
10.15
9.08
8.13
7.36
6.74
6.09
5.24
4.04
2.5
0.74
-1.05
-2.69
-4.1
-5.27
-6.24
-7.11
-7.96
-8.81
-9.64
-10.36
-10.88
-11.15
-11.18
-11.08
-11
-11.12
-11.46
-11.95
-12.35
-12.38
-11.79
-10.52
-8.69
-6.58
-4.51
-2.72
-1.29
-0.18
0.67
1.31
1.73
1.89
1.87
1.77
1.81
2.13
2.79
3.68
4.57
5.25
5.58
5.54
5.2
4.68
4.06
3.4
2.74
2.13
1.6
1.19
0.88
0.6
0.25
-0.19
-0.69
-1.14
-1.5
-1.74
-1.94
-2.23
-2.66
-3.26
-3.97
-4.73
-5.46
-6.08
-6.49
-6.56
-6.22
-5.46
-4.39
-3.21
-2.11
-1.22
-0.6
-0.21
-0.02
0.04
-0.03
-0.16
-0.27
-0.27
-0.11
0.21
0.61
0.97
1.22
1.36
1.42
1.46
1.46
1.4
1.24
0.99
0.66
0.31
-0.05
-0.44
-0.85
-1.24
-1.55
-1.68
-1.62
-1.44
-1.31
-1.36
-1.71
-2.31
-3.08
-3.86
-4.51
-4.95
-5.11
-4.95
-4.45
-3.63
-2.56
-1.37
-0.22
0.79
1.57
2.14
2.56
2.88
3.15
3.35
3.45
3.41
3.23
3.01
2.88
2.99
3.36
3.92
4.49
4.82
4.74
4.21
3.38
2.47
1.75
1.35
1.31
1.52
1.81
2.02
1.98
1.55
0.68
-0.57
-2.02
-3.44
-4.59
-5.33
-5.65
-5.68
-5.55
-5.35
-5.09
-4.71
-4.16
-3.44
-2.61
-1.76
-0.95
-0.2
0.48
1.09
1.59
1.9
1.95
1.73
1.3
0.77
0.28
-0.11
-0.37
-0.48
-0.44
-0.24
0.08
0.39
0.52
0.32
-0.27
-1.15
-2.15
-3.1
-3.97
-4.83
-5.77
-6.78
-7.69
-8.28
-8.38
-8.03
-7.43
-6.83
-6.39
-6.08
-5.75
-5.21
-4.37
-3.26
-2.04
-0.85
0.24
1.25
2.25
3.31
4.41
5.46
6.35
6.95
7.21
7.14
6.81
6.33
5.78
5.28
4.86
4.57
4.4
4.35
4.35
4.35
4.24
3.95
3.46
2.77
1.96
1.15
0.42
-0.21
-0.73
-1.18
-1.6
-2.01
-2.44
-2.87
-3.3
-3.74
-4.16
-4.59
-4.99
-5.35
-5.58
-5.55
-5.15
-4.3
-3.05
-1.56
-0.09
1.13
1.99
2.49
2.76
2.91
3
3.04
2.98
2.79
2.52
2.25
2.06
2.03
2.17
2.45
2.77
3.01
3.07
2.86
2.4
1.75
1.03
0.33
-0.26
-0.68
-0.94
-1.07
-1.16
-1.3
-1.59
-2.1
-2.76
-3.4
-3.78
-3.68
-3.02
-1.86
-0.43
0.98
2.16
2.98
3.45
3.65
3.67
3.57
3.39
3.15
2.86
2.52
2.17
1.84
1.59
1.44
1.43
1.53
1.67
1.8
1.85
1.83
1.75
1.6
1.37
1.02
0.51
-0.1
-0.72
-1.23
-1.56
-1.74
-1.88
-2.07
-2.34
-2.59
-2.65
-2.36
-1.66
-0.62
0.58
1.75
2.75
3.46
3.84
3.86
3.55
2.93
2.16
1.38
0.79
0.51
0.55
0.8
1.1
1.28
1.23
0.94
0.46
-0.1
-0.67
-1.19
-1.66
-2.07
-2.43
-2.74
-2.99
-3.22
-3.46
-3.74
-4.08
-4.44
-4.73
-4.82
-4.58
-3.92
-2.83
-1.4
0.19
1.67
2.81
3.46
3.6
3.32
2.81
2.28
1.87
1.64
1.62
1.8
2.16
2.68
3.26
3.78
4.1
4.1
3.77
3.2
2.58
2.06
1.72
1.49
1.21
0.71
-0.11
-1.21
-2.44
-3.59
-4.44
-4.83
-4.69
-4.07
-3.08
-1.89
-0.69
0.34
1.13
1.65
1.98
2.21
2.4
2.53
2.52
2.29
1.77
1.01
0.15
-0.62
-1.09
-1.09
-0.58
0.34
1.43
2.35
2.77
2.47
1.48
0.03
-1.49
-2.72
-3.46
-3.73
-3.72
-3.65
-3.66
-3.75
-3.81
-3.69
-3.31
-2.69
-1.91
-1.05
-0.13
0.83
1.82
2.73
3.38
3.56
3.2
2.37
1.31
0.35
-0.24
-0.36
-0.09
0.36
0.81
1.11
1.22
1.18
1.04
0.84
0.61
0.36
0.05
-0.33
-0.79
-1.34
-1.95
-2.57
-3.17
-3.68
-4.08
-4.29
-4.23
-3.82
-3.01
-1.86
-0.51
0.84
1.94
2.63
2.82
2.52
1.84
0.94
-0
-0.82
-1.34
-1.44
-1.09
-0.35
0.64
1.59
2.25
2.41
2.02
1.22
0.24
-0.66
-1.3
-1.68
-1.88
-2.06
-2.31
-2.66
-3.04
-3.35
-3.5
-3.42
-3.07
-2.46
-1.6
-0.58
0.5
1.51
2.32
2.84
3.05
2.96
2.64
2.19
1.72
1.31
1.04
0.92
0.89
0.89
0.83
0.7
0.52
0.37
0.28
0.25
0.22
0.1
-0.19
-0.66
-1.24
-1.84
-2.37
-2.8
-3.13
-3.4
-3.62
-3.78
-3.82
-3.68
-3.31
-2.69
-1.86
-0.94
-0.09
0.55
0.91
1
0.94
0.87
0.88
0.97
1.04
0.97
0.72
0.34
-0.03
-0.21
-0.12
0.25
0.8
1.39
1.87
2.14
2.16
1.94
1.5
0.86
-0
-1.08
-2.35
-3.7
-4.95
-5.86
-6.24
-6.01
-5.26
-4.15
-2.85
-1.5
-0.18
1.04
2.06
2.72
2.87
2.44
1.49
0.23
-1.1
-2.31
-3.25
-3.89
-4.23
-4.34
-4.27
-4.11
-3.9
-3.66
-3.36
-2.86
-2.06
-0.94
0.36
1.6
2.53
3.03
3.11
2.99
3.04
3.66
5.13
7.59
11
15.18
19.78
24.21
27.78
29.81
29.82
27.6
23.38
17.72
11.4
5.21
-0.3
-4.83
-8.32
-10.89
-12.78
-14.22
-15.47
-16.67
-17.25
-16.67
-14.78
-11.89
-8.55
-5.22
-2.13
0.59
2.98
5.16
7.01
8.37
9.11
9.16
8.64
7.9
7.1
6.42
5.86
5.21
4.26
2.82
0.67
-2.2
-5.51
-8.78
-11.48
-13.18
-13.65
-12.86
-10.45
-7.04
-4.22
-3.36
-4.37
-5.76
-5.69
-3.01
2.14
8.18
12.72
13.89
10.69
3.13
-7.87
-20.73
-33.52
-42.73
-45.53
-41.31
-31.64
-19.21
-6.78
3.69
11.3
16.04
18.41
18.85
17.78
15.84
13.92
12.81
12.85
13.85
15.32
16.72
17.5
17.47
16.39
14.47
12.12
9.8
7.9
6.59
5.83
5.29
4.54
3.31
1.67
-0.06
-1.46
-2.2
-2.17
-1.53
-0.63
0.11
0.42
0.21
-0.43
-1.31
-2.12
-2.61
-2.64
-2.2
-1.42
-0.5
0.39
1.12
1.63
1.89
1.89
1.63
1.13
0.44
-0.34
-1.08
-1.68
-2.05
-2.22
-2.25
-2.24
-2.23
-2.23
-2.22
-2.16
-2.06
-1.99
-2.06
-2.37
-2.97
-3.81
-4.79
-5.82
-6.85
-7.89
-8.97
-10.04
-10.95
-11.42
-11.13
-9.86
-7.64
-4.72
-1.57
1.32
3.61
5.21
6.32
7.23
8.22
9.32
10.38
11.14
11.4
11.09
10.36
9.42
8.47
7.63
6.95
6.37
5.88
5.42
4.98
4.5
3.91
3.18
2.32
1.38
0.43
-0.5
-1.44
-2.43
-3.51
-4.63
-5.71
-6.64
-7.33
-7.77
-8
-8.11
-8.23
-8.46
-8.88
-9.47
-10.11
-10.55
-10.49
-9.68
-8.02
-5.62
-2.8
0.05
2.53
4.42
5.68
6.45
6.95
7.39
7.88
8.42
8.92
9.32
9.55
9.63
9.58
9.41
9.11
8.63
7.94
7.04
5.98
4.84
3.69
2.59
1.58
0.68
-0.1
-0.74
-1.23
-1.61
-1.91
-2.15
-2.37
-2.58
-2.77
-2.93
-3.08
-3.27
-3.57
-4.04
-4.66
-5.37
-6.07
-6.63
-6.97
-7.09
-7.12
-7.22
-7.57
-8.28
-9.31
-10.48
-11.48
-11.95
-11.63
-10.41
-8.43
-5.96
-3.41
-1.09
0.76
2.11
3.03
3.67
4.17
4.61
4.99
5.28
5.46
5.52
5.53
5.54
5.59
5.69
5.77
5.77
5.61
5.3
4.94
4.68
4.62
4.72
4.85
4.8
4.41
3.7
2.81
1.98
1.44
1.26
1.37
1.58
1.68
1.52
1.07
0.35
-0.54
-1.46
-2.34
-3.13
-3.83
-4.5
-5.18
-5.89
-6.62
-7.34
-7.95
-8.36
-8.4
-7.95
-6.92
-5.36
-3.46
-1.5
0.24
1.58
2.45
2.93
3.12
3.14
3.05
2.89
2.67
2.44
2.2
1.96
1.73
1.48
1.2
0.91
0.6
0.29
-0.02
-0.32
-0.52
-0.58
-0.45
-0.19
0.05
0.08
-0.23
-0.87
-1.65
-2.32
-2.66
-2.63
-2.39
-2.19
-2.29
-2.8
-3.64
-4.6
-5.37
-5.7
-5.41
-4.48
-2.99
-1.16
0.74
2.44
3.75
4.61
5.1
5.4
5.65
5.91
6.12
6.17
5.97
5.51
4.89
4.24
3.7
3.3
3.01
2.81
2.66
2.55
2.47
2.37
2.18
1.82
1.24
0.48
-0.37
-1.19
-1.89
-2.42
-2.76
-2.97
-3.11
-3.27
-3.52
-3.89
-4.38
-4.92
-5.48
-6.01
-6.49
-6.88
-7.11
-7.03
-6.52
-5.49
-4.04
-2.35
-0.7
0.67
1.68
2.34
2.77
3.09
3.33
3.49
3.52
3.39
3.14
2.87
2.69
2.7
2.88
3.15
3.39
3.51
3.46
3.28
2.99
2.63
2.19
1.64
1
0.35
-0.19
-0.55
-0.71
-0.8
-0.99
-1.42
-2.09
-2.9
-3.67
-4.26
-4.62
-4.81
-4.95
-5.15
-5.47
-5.94
-6.54
-7.26
-8.04
-8.74
-9.13
-8.96
-8.03
-6.33
-4.09
-1.7
0.45
2.09
3.16
3.76
4.08
4.24
4.28
4.17
3.9
3.52
3.16
2.96
3.04
3.4
3.93
4.43
4.71
4.66
4.27
3.67
3.02
2.47
2.1
1.92
1.81
1.65
1.38
0.97
0.5
0.05
-0.3
-0.54
-0.71
-0.93
-1.28
-1.8
-2.47
-3.22
-3.96
-4.6
-5.06
-5.35
-5.49
-5.6
-5.84
-6.38
-7.29
-8.53
-9.85
-10.9
-11.27
-10.68
-9.06
-6.62
-3.77
-1
1.25
2.75
3.48
3.65
3.54
3.4
3.37
3.5
3.75
4.03
4.3
4.52
4.7
4.83
4.88
4.81
4.63
4.4
4.22
4.2
4.32
4.45
4.39
3.96
3.14
2.06
0.96
0.09
-0.44
-0.66
-0.72
-0.79
-1.01
-1.45
-2.06
-2.75
-3.39
-3.86
-4.09
-4.11
-4.05
-4.08
-4.35
-4.93
-5.75
-6.67
-7.46
-7.91
-7.84
-7.14
-5.79
-3.9
-1.69
0.54
2.48
3.91
4.76
5.1
5.12
5.01
4.9
4.86
4.88
4.92
4.99
5.08
5.21
5.35
5.43
5.41
5.23
4.96
4.65
4.4
4.21
4.03
3.77
3.41
2.94
2.44
1.97
1.57
1.21
0.81
0.29
-0.35
-1.06
-1.78
-2.4
-2.87
-3.2
-3.43
-3.65
-3.96
-4.48
-5.28
-6.38
-7.69
-9.02
-10.04
-10.45
-10.04
-8.79
-6.89
-4.69
-2.54
-0.71
0.69
1.66
2.25
2.55
2.63
2.58
2.49
2.43
2.5
2.72
3.1
3.59
4.12
4.61
4.96
5.12
5.09
4.95
4.81
4.78
4.87
5.01
5.05
4.89
4.48
3.85
3.11
2.34
1.57
0.8
0.01
-0.83
-1.7
-2.53
-3.29
-3.96
-4.54
-5.12
-5.77
-6.57
-7.52
-8.52
-9.35
-9.73
-9.46
-8.46
-6.85
-4.87
-2.85
-1.04
0.39
1.4
2
2.25
2.2
1.98
1.72
1.56
1.59
1.88
2.38
3.03
3.72
4.31
4.65
4.64
4.29
3.69
2.98
2.33
1.83
1.51
1.31
1.16
0.98
0.77
0.5
0.16
-0.24
-0.69
-1.13
-1.48
-1.68
-1.76
-1.87
-2.19
-2.82
-3.71
-4.63
-5.21
-5.08
-4.06
-2.22
0.16
2.68
4.98
6.84
8.17
9.03
9.47
9.51
9.1
8.18
6.76
4.94
2.95
1.04
-0.55
-1.72
-2.5
-3.07
-3.61
-4.26
-5.09
-6.09
-7.24
-8.54
-10.01
-11.66
-13.42
-15.15
-16.75
-18.15
-19.39
-20.61
-22
-23.71
-25.84
-28.34
-31.07
-33.79
-36.2
-38.01
-38.98
-38.94
-37.86
-35.76
-32.72
-28.77
-23.92
-18.13
-11.42
-3.92
4.16
12.43
20.47
27.87
34.25
39.37
43.14
45.58
46.84
47.06
46.41
45.02
43.01
40.51
37.74
34.91
32.2
29.68
27.34
25.08
22.84
20.64
18.54
16.65
14.97
13.46
12.01
10.58
9.21
8.08
7.4
7.27
7.65
8.32
8.98
9.32
9.13
8.38
7.15
5.57
3.76
1.84
-0.13
-2.03
-3.75
-5.15
-6.1
-6.56
-6.57
-6.26
-5.78
-5.33
-5.02
-4.92
-5.06
-5.37
-5.8
-6.29
-6.81
-7.33
-7.86
-8.39
-8.86
-9.2
-9.37
-9.39
-9.38
-9.44
-9.6
-9.73
-9.58
-8.86
-7.43
-5.39
-3.03
-0.72
1.24
2.7
3.66
4.18
4.35
4.21
3.8
3.24
2.68
2.32
2.25
2.44
2.75
2.97
2.94
2.63
2.06
1.36
0.65
0.01
-0.48
-0.81
-1
-1.14
-1.31
-1.63
-2.16
-2.91
-3.8
-4.72
-5.55
-6.24
-6.76
-7.07
-7.12
-6.82
-6.07
-4.84
-3.18
-1.26
0.68
2.43
3.84
4.88
5.59
6.06
6.31
6.36
6.21
5.92
5.58
5.32
5.23
5.33
5.54
5.76
5.88
5.86
5.68
5.36
4.89
4.32
3.67
3.03
2.48
2.08
1.84
1.69
1.51
1.2
0.69
-0
-0.81
-1.6
-2.27
-2.74
-3.02
-3.2
-3.46
-3.97
-4.82
-6
-7.34
-8.62
-9.63
-10.27
-10.62
-10.87
-11.25
-11.92
-12.9
-14.06
-15.14
-15.79
-15.68
-14.6
-12.49
-9.57
-6.24
-3.01
-0.31
1.61
2.83
3.6
4.25
4.98
5.83
6.64
7.24
7.53
7.54
7.38
7.21
7.11
7.06
6.95
6.69
6.24
5.66
5.09
4.61
4.27
3.97
3.56
2.89
1.94
0.79
-0.39
-1.42
-2.21
-2.78
-3.28
-3.84
-4.55
-5.41
-6.37
-7.35
-8.29
-9.14
-9.8
-10.11
-9.91
-9.06
-7.55
-5.5
-3.18
-0.87
1.21
2.92
4.22
5.09
5.57
5.68
5.54
5.29
5.12
5.16
5.42
5.8
6.13
6.22
6
5.46
4.73
3.97
3.33
2.87
2.54
2.23
1.83
1.28
0.59
-0.15
-0.85
-1.47
-2.03
-2.59
-3.22
-3.93
-4.73
-5.57
-6.42
-7.23
-7.91
-8.31
-8.25
-7.55
-6.14
-4.09
-1.67
0.78
2.91
4.5
5.52
6.07
6.33
6.44
6.46
6.42
6.32
6.23
6.27
6.53
7
7.57
8.08
8.37
8.4
8.18
7.78
7.3
6.77
6.21
5.68
5.21
4.82
4.51
4.24
3.94
3.56
3.08
2.49
1.79
1
0.15
-0.71
-1.53
-2.32
-3.14
-4.11
-5.28
-6.59
-7.85
-8.86
-9.49
-9.76
-9.89
-10.14
-10.7
-11.6
-12.67
-13.67
-14.32
-14.43
-13.84
-12.48
-10.38
-7.66
-4.62
-1.62
1
3.02
4.44
5.41
6.12
6.67
7.06
7.19
7
6.54
6
5.58
5.46
5.64
6.03
6.42
6.65
6.6
6.27
5.72
5.04
4.33
3.64
2.96
2.21
1.32
0.28
-0.85
-1.93
-2.84
-3.48
-3.93
-4.34
-4.87
-5.61
-6.53
-7.5
-8.4
-9.12
-9.56
-9.6
-9.07
-7.81
-5.79
-3.2
-0.41
2.1
3.95
5
5.34
5.24
4.96
4.7
4.55
4.52
4.59
4.74
4.94
5.18
5.44
5.71
5.97
6.2
6.37
6.4
6.22
5.75
4.99
4.01
2.96
1.99
1.23
0.7
0.34
-0.01
-0.49
-1.17
-2.01
-2.89
-3.68
-4.31
-4.78
-5.2
-5.74
-6.5
-7.55
-8.82
-10.17
-11.35
-12.12
-12.22
-11.49
-9.89
-7.52
-4.62
-1.56
1.27
3.56
5.16
6.1
6.52
6.59
6.4
6.04
5.56
5.07
4.75
4.73
5.05
5.64
6.32
6.87
7.12
7.01
6.54
5.81
4.93
4.01
3.15
2.39
1.73
1.1
0.4
-0.44
-1.43
-2.52
-3.56
-4.42
-5.03
-5.4
-5.62
-5.84
-6.2
-6.81
-7.72
-8.92
-10.28
-11.57
-12.49
-12.66
-11.85
-9.94
-7.1
-3.68
-0.17
2.95
5.34
6.88
7.65
7.83
7.68
7.35
6.96
6.55
6.17
5.89
5.82
6.01
6.41
6.85
7.1
6.93
6.3
5.3
4.18
3.22
2.57
2.21
1.98
1.62
0.93
-0.12
-1.42
-2.75
-3.87
-4.68
-5.22
-5.65
-6.17
-6.92
-7.96
-9.25
-10.63
-11.93
-12.9
-13.27
-12.83
-11.42
-9.07
-6.05
-2.77
0.29
2.73
4.37
5.26
5.58
5.59
5.45
5.23
4.91
4.52
4.15
3.97
4.13
4.64
5.36
5.99
6.2
5.82
4.9
3.7
2.57
1.77
1.39
1.28
1.16
0.75
-0.06
-1.23
-2.52
-3.69
-4.56
-5.12
-5.51
-5.92
-6.47
-7.18
-8
-8.9
-9.82
-10.71
-11.46
-11.8
-11.39
-9.99
-7.58
-4.46
-1.15
1.77
3.87
5.04
5.44
5.39
5.23
5.16
5.26
5.46
5.68
5.89
6.1
6.35
6.67
7.06
7.47
7.8
7.97
7.93
7.65
7.16
6.49
5.73
4.92
4.09
3.21
2.24
1.12
-0.12
-1.39
-2.55
-3.45
-4.01
-4.3
-4.46
-4.71
-5.24
-6.15
-7.42
-8.88
-10.26
-11.25
-11.51
-10.81
-9.07
-6.43
-3.22
0.05
2.93
5.08
6.4
7.03
7.19
7.12
6.95
6.73
6.45
6.15
5.96
6.01
6.35
6.92
7.51
7.89
7.88
7.49
6.86
6.16
5.51
4.92
4.33
3.67
2.95
2.2
1.49
0.82
0.13
-0.62
-1.44
-2.28
-3.06
-3.72
-4.31
-4.93
-5.7
-6.7
-7.88
-9.14
-10.27
-11.04
-11.22
-10.61
-9.09
-6.72
-3.78
-0.67
2.16
4.37
5.8
6.5
6.64
6.41
5.96
5.42
4.9
4.55
4.48
4.77
5.35
6.06
6.68
7.04
7.08
6.82
6.35
5.77
5.14
4.5
3.84
3.12
2.31
1.38
0.34
-0.73
-1.72
-2.52
-3.09
-3.49
-3.87
-4.39
-5.15
-6.17
-7.38
-8.66
-9.85
-10.74
-11.06
-10.55
-9.07
-6.67
-3.67
-0.5
2.35
4.55
6
6.8
7.11
7.12
6.91
6.53
6.02
5.48
5.08
4.97
5.23
5.79
6.43
6.89
6.95
6.58
5.89
5.1
4.4
3.9
3.52
3.14
2.62
1.89
0.96
-0.08
-1.14
-2.11
-2.95
-3.62
-4.15
-4.6
-5.08
-5.7
-6.57
-7.74
-9.1
-10.4
-11.29
-11.36
-10.37
-8.32
-5.47
-2.28
0.76
3.27
5.12
6.34
7.1
7.55
7.78
7.84
7.73
7.47
7.13
6.8
6.58
6.56
6.75
7.11
7.5
7.79
7.85
7.65
7.22
6.66
6.02
5.33
4.56
3.67
2.67
1.67
0.79
0.13
-0.29
-0.59
-0.92
-1.4
-2.04
-2.72
-3.3
-3.66
-3.83
-3.88
-3.89
-3.82
-3.48
-2.64
-1.14
1.03
3.64
6.34
8.77
10.67
11.95
12.65
12.91
12.87
12.61
12.16
11.49
10.62
9.63
8.69
8
7.68
7.7
7.91
8.04
7.89
7.36
6.54
5.57
4.64
3.8
3.04
2.33
1.67
1.16
0.9
0.9
1.08
1.23
1.14
0.71
-0.02
-0.89
-1.73
-2.48
-3.22
-4.1
-5.24
-6.66
-8.24
-9.8
-11.18
-12.32
-13.2
-13.84
-14.22
-14.3
-14.06
-13.57
-12.94
-12.34
-11.89
-11.61
-11.43
-11.2
-10.78
-10.15
-9.38
-8.66
-8.17
-8.04
-8.23
-8.62
-8.99
-9.18
-9.09
-8.77
-8.33
-7.92
-7.66
-7.58
-7.64
-7.72
-7.73
-7.58
-7.27
-6.84
-6.33
-5.75
-5.06
-4.21
-3.23
-2.25
-1.48
-1.09
-1.14
-1.5
-1.96
-2.33
-2.53
-2.62
-2.73
-2.97
-3.37
-3.84
-4.32
-4.76
-5.19
-5.69
-6.29
-6.92
-7.53
-8.08
-8.61
-9.24
-10.07
-11.13
-12.3
-13.36
-14.14
-14.56
-14.75
-14.95
-15.36
-16.11
-17.09
-18.05
-18.65
-18.59
-17.62
-15.63
-12.58
-8.59
-3.89
1.11
5.93
10.1
13.29
15.42
16.6
17.1
17.18
17.06
16.87
16.69
16.57
16.56
16.66
16.86
17.06
17.13
17.01
16.69
16.22
15.68
15.14
14.61
14.03
13.32
12.42
11.33
10.1
8.87
7.76
6.84
6.09
5.37
4.52
3.39
1.97
0.4
-1.08
-2.16
-2.59
-2.22
-1.09
0.63
2.68
4.74
6.56
7.93
8.8
9.2
9.25
9.13
8.99
8.92
8.99
9.19
9.54
10.01
10.58
11.16
11.69
12.08
12.32
12.45
12.58
12.82
13.16
13.45
13.44
12.87
11.57
9.51
6.85
3.81
0.64
-2.45
-5.25
-7.59
-9.35
-10.46
-10.98
-11.06
-10.92
-10.7
-10.48
-10.23
-9.88
-9.39
-8.75
-8.05
-7.39
-6.88
-6.56
-6.38
-6.28
-6.16
-5.97
-5.73
-5.52
-5.44
-5.55
-5.83
-6.19
-6.53
-6.78
-6.98
-7.22
-7.57
-8.02
-8.5
-8.89
-9.14
-9.31
-9.52
-9.92
-10.53
-11.31
-12.11
-12.8
-13.31
-13.64
-13.85
-14.03
-14.24
-14.53
-14.86
-15.12
-15.08
-14.49
-13.12
-10.9
-7.97
-4.63
-1.27
1.79
4.31
6.22
7.57
8.43
8.95
9.28
9.62
10.16
10.99
12.11
13.33
14.41
15.12
15.37
15.17
14.64
13.93
13.12
12.27
11.4
10.51
9.58
8.6
7.55
6.45
5.34
4.27
3.25
2.29
1.38
0.5
-0.32
-1
-1.47
-1.71
-1.73
-1.6
-1.38
-1.14
-0.94
-0.85
-0.93
-1.24
-1.76
-2.42
-3.11
-3.75
-4.33
-4.87
-5.45
-6.09
-6.78
-7.47
-8.11
-8.66
-9.07
-9.31
-9.4
-9.39
-9.38
-9.44
-9.6
-9.82
-10
-10.07
-9.99
-9.8
-9.62
-9.58
-9.8
-10.25
-10.8
-11.19
-11.11
-10.33
-8.78
-6.58
-3.98
-1.31
1.13
3.17
4.7
5.74
6.36
6.7
6.87
6.98
7.06
7.09
7.06
7
7.02
7.22
7.61
8.11
8.56
8.79
8.79
8.58
8.23
7.75
7.11
6.24
5.19
4.07
3.07
2.31
1.81
1.44
1.03
0.44
-0.36
-1.24
-1.99
-2.35
-2.12
-1.26
0.17
1.91
3.69
5.24
6.39
7.1
7.37
7.24
6.74
5.91
4.83
3.66
2.56
1.7
1.17
0.96
0.98
1.11
1.24
1.26
1.15
0.89
0.51
0.07
-0.38
-0.81
-1.21
-1.59
-1.99
-2.41
-2.83
-3.22
-3.55
-3.84
-4.11
-4.4
-4.68
-4.94
-5.15
-5.36
-5.66
-6.17
-6.96
-7.92
-8.8
-9.23
-8.9
-7.66
-5.63
-3.16
-0.69
1.37
2.83
3.69
4.11
4.31
4.46
4.61
4.74
4.79
4.71
4.51
4.23
3.91
3.59
3.26
2.91
2.55
2.24
2.02
1.91
1.88
1.81
1.57
1.06
0.28
-0.66
-1.59
-2.36
-2.85
-3.08
-3.12
-3.05
-2.93
-2.77
-2.54
-2.16
-1.57
-0.73
0.29
1.36
2.25
2.65
2.27
0.96
-1.12
-3.51
-5.54
-6.59
-6.36
-4.96
-2.9
-0.91
0.42
0.84
0.5
-0.21
-0.95
-1.51
-1.89
-2.17
-2.59
-3.29
-4.17
-4.97
-5.43
-5.45
-5.1
-4.53
-3.93
-3.68
-4.08
-5.07
-6.25
-7.27
-7.91
-8.11
-7.94
-7.52
-7.43
-8.23
-9.96
-12.16
-14.24
-15.71
-16.25
-15.71
-14.11
-12.19
-10.8
-10.4
-11.03
-12.88
-16.34
-21.63
-28.26
-31.33
-26.41
-12.8
6.08
25.81
42.75
54.71
61.07
62.69
61.12
57.2
51.05
42.7
32.74
22.13
12.12
3.86
-2.01
-5.59
-7.89
-9.84
-11.97
-13.39
-13.27
-11.3
-7.87
-4.06
-1.36
-1.45
-5.08
-11.7
-19.01
-24.16
-24.93
-20.76
-12.87
-3.66
4.43
10.04
13.23
15.27
17.07
18.89
20.31
20.67
19.64
17.43
14.86
12.84
12.04
12.46
13.61
14.81
15.5
15.56
15.39
15.66
16.89
19.13
21.76
23.75
24.04
21.92
17.37
10.64
2.83
-4.76
-11.08
-15.63
-18.4
-19.73
-20.02
-19.56
-18.53
-17.02
-15.2
-13.3
-11.61
-10.29
-9.37
-8.84
-8.6
-8.62
-8.8
-9.04
-9.16
-9.01
-8.53
-7.78
-6.96
-6.27
-5.86
-5.75
-5.9
-6.2
-6.53
-6.73
-6.67
-6.23
-5.33
-4.06
-2.71
-1.74
-1.64
-2.69
-4.95
-8.06
-11.37
-14.03
-15.4
-15.35
-14.11
-12.14
-9.91
-7.81
-6.1
-4.89
-4.04
-3.68
-4.26
-6.22
-9.62
-14.06
-18.91
-23.44
-26.99
-28.76
-28.56
-26.71
-23.4
-18.27
-10.61
-0.04
13.13
27.7
42.44
55.69
65.76
71.55
72.84
69.75
62.33
50.76
32.76
10.89
-8.34
-19.43
-21.69
-18.27
-13.38
-10.14
-9.48
-10.08
-9.65
-6.87
-2.13
3.08
7.23
9.4
8.7
4.97
-1.32
-8.92
-16.57
-23.17
-27.58
-28.56
-25.24
-17.64
-6.71
5.94
18.64
29.65
37.36
40.54
38.66
31.8
20.49
5.67
-11.48
-29.52
-46.94
-62.13
-73.43
-79.27
-78.77
-72.25
-61.25
-48.17
-35.38
-24.63
-16.61
-11.16
-7.69
-5.6
-4.56
-4.36
-4.74
-5.27
-5.45
-4.86
-3.43
-1.46
0.48
1.81
2.19
1.61
0.4
-0.92
-1.9
-2.24
-1.83
-0.74
0.89
2.91
5.2
7.66
10.17
12.6
14.82
16.71
18.17
19.12
19.53
19.4
18.81
17.96
17.1
16.46
16.21
16.31
16.57
16.73
16.55
15.97
15.09
14.11
13.19
12.39
11.7
10.99
10.13
9.07
7.85
6.61
5.45
4.42
3.47
2.63
1.85
1.11
0.32
-0.6
-1.73
-3.09
-4.62
-6.12
-7.1
-7.17
-6.16
-4.17
-1.46
1.62
4.71
7.57
10.06
12.51
15
17.27
18.94
19.87
20.24
20.44
20.85
21.67
23.59
26.61
29.94
32.59
34.11
34.76
35.1
35.7
36.83
39.59
43.96
48.71
52.26
53.94
54.21
54.08
54.5
55.91
59.64
65.49
71.64
75.88
77.12
75.61
72.33
68.5
55.52
32.47
6.37
-14.2
-26.35
-32.68
-37.43
-43.7
-52.28
-61.88
-68.7
-70.36
-67.4
-62.36
-57.82
-55.13
-54.27
-54.27
-54
-51.74
-47.43
-42.72
-39.67
-39.21
-40.39
-41.42
-40.72
-37.7
-32.23
-25.52
-19.65
-16.39
-16.61
-19.89
-25.07
-30.79
-35.66
-38.04
-36.77
-31.61
-23.33
-13.42
-3.63
4.49
10.09
13.17
14.55
15.09
15.27
15.07
14.34
13.1
11.59
10.25
9.23
8.46
7.59
6.29
4.44
2.33
0.57
-0.22
0.3
1.99
4.31
6.5
7.95
8.33
7.71
6.44
4.9
3.39
2.05
0.92
0
-0.63
-0.91
-0.8
-0.33
0.36
1.12
1.82
2.42
2.91
3.33
3.71
4.04
4.28
4.33
4.07
3.55
2.8
1.86
0.83
-0.18
-1.06
-1.72
-2.15
-2.36
-2.44
-2.51
-2.69
-3.06
-3.59
-4.14
-4.46
-4.32
-3.55
-2.17
-0.41
1.4
2.94
4.02
4.61
4.73
4.45
3.87
3.07
2.16
1.26
0.49
-0.03
-0.23
-0.19
-0.01
0.24
0.53
0.76
0.86
0.76
0.48
0.12
-0.37
-0.97
-1.53
-1.91
-2.01
-1.77
-1.17
-0.19
1.13
2.25
2.73
2.48
1.69
0.6
-0.59
-1.68
-2.51
-2.99
-3.69
-5.03
-6.94
-9.08
-11.24
-13.4
-15.66
-18.15
-21.02
-25.1
-30.76
-37.45
-44.02
-49.41
-53.04
-54.71
-54.44
-47.69
-33.19
-14
4.76
19.48
28.99
33.61
34.38
32.72
30.02
26.58
22.51
18.3
14.77
12.46
11.46
11.51
12.21
13.01
12.84
11.43
9.06
6.52
4.53
3.43
3.28
3.96
5.21
6.38
7.02
7
6.48
5.65
4.55
3.24
1.85
0.58
-0.52
-1.34
-1.72
-1.47
-0.61
0.65
2.02
3.29
4.38
5.2
5.78
6.16
6.47
6.77
6.95
6.93
6.76
6.52
6.31
6.11
5.83
5.34
4.51
3.08
1.01
-1.54
-4.37
-7.34
-10.52
-13.97
-17.62
-21.17
-24.46
-27.19
-29.07
-29.95
-29.87
-29.09
-27.8
-26.09
-22.3
-15.94
-7.98
-0.16
6.23
10.91
14.16
16.44
18.14
19.48
20.31
20.55
20.54
20.44
20.35
20.24
20.02
19.64
19.13
18.38
17.37
16.29
15.28
14.41
13.54
12.69
11.93
11.37
10.86
10.25
9.49
8.37
6.67
4.25
1.28
-1.87
-4.61
-6.64
-7.76
-7.82
-7.07
-6.03
-5.18
-4.78
-5
-5.76
-7.26
-9.47
-11.89
-14.09
-15.81
-16.98
-17.91
-19.34
-22.1
-27.33
-35.49
-43.74
-48.54
-47.75
-41.91
-33.28
-26.06
-20.52
-16.59
-14.08
-12.67
-11.74
-11.17
-10.6
-9.18
-5.9
0.19
8.83
18.92
28.89
36.87
41.34
41.85
39.04
34.23
28.93
23.82
19.03
14.39
9.6
4.53
-0.5
-4.83
-7.79
-8.83
-8.04
-5.9
-2.98
0.14
2.97
5.23
6.8
7.64
7.96
7.82
7.1
5.56
3.03
-0.48
-4.61
-8.73
-12.09
-13.77
-13.39
-11.51
-9.35
-8.16
-8.74
-11.18
-14.84
-18.42
-19.73
-16.69
-8.24
5.14
21.73
38.62
52.37
60.03
60.36
55.09
47.84
42.25
40.51
43.01
48.29
53.9
57.74
54.71
42.92
25.5
8.28
-5.18
-14.86
-22.87
-31.4
-41.74
-53.9
-66.09
-75.71
-80.41
-79.96
-73.72
-62.32
-47.7
-32.59
-19.5
-9.43
-2.22
2.79
6.08
8.18
9.31
9.7
9.1
8.09
7.74
8.82
11.46
15.33
20.33
26.52
33.93
41.96
49.16
53.5
53.12
47.33
37.39
26.41
18
14.66
16.59
21.77
26.98
29.44
27.99
23.43
17.92
13.76
12.41
13.99
17.53
21.38
23.97
24.23
21.78
16.79
9.71
1.03
-8.71
-18.85
-28.48
-36.52
-41.91
-44.04
-43.09
-40.01
-36.27
-33.23
-31.7
-31.7
-32.62
-33.57
-33.75
-32.69
-30.35
-26.96
-22.94
-18.76
-14.91
-11.9
-10.34
-10.83
-13.92
-19.87
-28.52
-39.24
-50.96
-62.36
-72.06
-78.79
-81.62
-79.99
-73.97
-64.2
-51.81
-38.11
-24.32
-11.34
0.17
9.65
16.5
20.26
20.95
19.42
17.27
16.46
18.48
23.8
31.67
40.57
48.84
55.17
58.84
59.53
57.13
51.71
43.76
34.45
25.59
19.26
17.13
19.86
26.71
35.73
44.4
50.38
52.2
49.63
43.51
35.28
26.41
18.01
10.78
5.26
2.08
1.84
4.72
9.91
15.36
18.2
15.74
6.6
-8.57
-27.3
-46.19
-61.98
-72.28
-75.94
-72.88
-64
-51.19
-37.28
-25.61
-19.23
-19.79
-26.83
-37.76
-48.78
-56.28
-58.08
-53.97
-45.5
-35.13
-25.3
-17.75
-13.23
-11.53
-11.76
-12.65
-12.96
-11.7
-8.4
-3.2
3.23
9.87
15.55
19.31
20.68
19.96
18.14
16.58
16.49
18.41
22.05
26.35
29.97
31.86
31.71
29.99
27.6
25.36
23.73
22.84
22.56
22.7
23.32
24.66
26.96
30.15
33.59
36.1
36.58
33.89
27.06
15.7
0.45
-17.15
-34.92
-50.44
-61.44
-65.39
-61.02
-48.82
-30.97
-10.49
9.36
25.7
36.56
41.26
41.61
39.82
37.52
35.69
35.23
36.92
41
47
53.84
61.64
70.05
77.83
83.65
87.05
88.45
88.51
87.7
77.07
53.97
23.99
-3.93
-24.69
-38.09
-46.22
-51.41
-55.26
-58.48
-59.59
-57.57
-52.97
-47.39
-42.38
-38.72
-36.83
-36.77
-38.29
-39.81
-40.2
-39.48
-38.36
-37.45
-36.91
-36.61
-36.34
-35.86
-34.26
-31.08
-26.94
-22.86
-19.62
-17.43
-16.12
-15.3
-14.55
-13.29
-11.27
-8.77
-6.29
-4.24
-2.81
-1.99
-1.67
-1.64
-1.52
-0.97
0.14
1.82
4.01
6.64
9.6
12.75
15.89
18.78
21.17
22.82
23.61
23.55
22.8
21.59
20.17
18.73
17.3
15.84
14.23
12.37
10.3
8.15
6.11
4.35
2.94
1.91
1.18
0.69
0.4
0.28
0.29
0.38
0.53
0.73
0.98
1.26
1.41
1.16
0.23
-1.52
-3.87
-6.26
-7.91
-8.15
-6.68
-3.72
0.04
3.74
6.64
8.35
8.87
8.48
7.54
6.35
5.11
3.94
3.01
2.53
2.73
3.77
5.58
7.85
10.08
11.75
12.44
12.02
10.62
8.6
6.4
4.39
2.83
1.83
1.36
1.3
1.45
1.6
1.56
1.22
0.59
-0.16
-0.75
-0.91
-0.41
0.8
2.53
4.47
6.19
7.38
7.86
7.69
7.02
6.05
4.89
3.6
2.2
0.76
-0.57
-1.63
-2.29
-2.56
-2.54
-2.43
-2.38
-2.5
-2.78
-3.19
-3.66
-4.19
-4.82
-5.64
-6.74
-8.18
-9.89
-11.72
-13.41
-14.74
-15.54
-15.72
-15.28
-14.28
-12.74
-10.71
-8.29
-5.64
-2.98
-0.52
1.54
3.12
4.24
4.92
5.24
5.23
4.99
4.64
4.41
4.47
4.94
5.73
6.63
7.34
7.61
7.4
6.8
6.03
5.28
4.65
4.07
3.4
2.53
1.41
0.13
-1.14
-2.24
-3.07
-3.64
-4.09
-4.62
-5.41
-6.54
-8
-9.63
-11.13
-12.18
-12.46
-11.79
-10.18
-7.82
-5.1
-2.41
-0.12
1.6
2.75
3.45
3.86
4.11
4.24
4.24
4.12
3.94
3.8
3.77
3.93
4.24
4.65
5.01
5.24
5.29
5.19
5.01
4.81
4.64
4.5
4.36
4.19
3.95
3.63
3.17
2.54
1.76
0.87
-0.02
-0.8
-1.42
-1.93
-2.46
-3.18
-4.18
-5.44
-6.8
-7.99
-8.72
-8.76
-8.04
-6.63
-4.75
-2.69
-0.75
0.84
2
2.72
3.13
3.36
3.53
3.7
3.88
4.02
4.05
3.93
3.66
3.34
3.08
2.99
3.12
3.4
3.68
3.82
3.74
3.49
3.21
3.07
3.13
3.33
3.51
3.47
3.11
2.5
1.75
0.99
0.29
-0.4
-1.17
-2.06
-3
-3.85
-4.43
-4.61
-4.36
-3.75
-2.92
-2.05
-1.29
-0.76
-0.56
-0.72
-1.22
-1.92
-2.65
-3.21
-3.48
-3.4
-3.03
-2.48
-1.86
-1.24
-0.69
-0.27
-0.05
-0.09
-0.4
-0.91
-1.5
-2.02
-2.38
-2.59
-2.7
-2.81
-2.97
-3.2
-3.5
-3.85
-4.27
-4.77
-5.31
-5.84
-6.25
-6.48
-6.51
-6.4
-6.27
-6.21
-6.27
-6.48
-6.86
-7.46
-8.32
-9.43
-10.59
-11.49
-11.7
-10.86
-8.84
-5.81
-2.23
1.27
4.11
5.92
6.61
6.34
5.45
4.27
3.11
2.11
1.31
0.69
0.21
-0.1
-0.16
0.11
0.68
1.37
1.91
2
1.49
0.51
-0.67
-1.65
-2.22
-2.38
-2.36
-2.46
-2.87
-3.61
-4.48
-5.28
-5.87
-6.22
-6.39
-6.46
-6.45
-6.4
-6.34
-6.37
-6.59
-7.03
-7.55
-7.84
-7.5
-6.16
-3.67
-0.19
3.8
7.55
10.35
11.68
11.41
9.84
7.61
5.43
3.9
3.27
3.48
4.23
5.17
6.06
6.78
7.3
7.64
7.78
7.7
7.39
6.95
6.53
6.31
6.42
6.85
7.46
8.07
8.48
8.61
8.48
8.14
7.59
6.75
5.5
3.74
1.56
-0.81
-3.06
-4.92
-6.34
-7.4
-8.32
-9.22
-10.04
-10.57
-10.58
-9.98
-8.91
-7.71
-6.76
-6.33
-6.47
-6.99
-7.6
-8.02
-8.09
-7.8
-7.26
-6.63
-6.03
-5.48
-4.92
-4.23
-3.29
-2.05
-0.62
0.83
2.06
2.95
3.47
3.77
4.01
4.38
4.97
5.78
6.72
7.64
8.39
8.73
8.5
7.6
6.03
4.01
1.85
-0.14
-1.72
-2.83
-3.59
-4.18
-4.81
-5.59
-6.49
-7.44
-8.34
-9.14
-9.88
-10.62
-11.43
-12.32
-13.24
-14.16
-15.04
-15.79
-16.26
-16.19
-15.28
-13.31
-10.25
-6.3
-1.83
2.71
6.85
10.18
12.37
13.2
12.64
10.92
8.49
5.99
4.01
2.93
2.84
3.54
4.66
5.83
6.76
7.28
7.37
7.09
6.5
5.68
4.68
3.55
2.39
1.29
0.34
-0.42
-1.01
-1.51
-2.03
-2.63
-3.35
-4.19
-5.12
-6.13
-7.25
-8.52
-9.95
-11.45
-12.79
-13.63
-13.63
-12.56
-10.45
-7.63
-4.58
-1.76
0.53
2.22
3.42
4.28
4.89
5.25
5.34
5.26
5.14
5.19
5.49
6
6.52
6.83
6.8
6.43
5.9
5.46
5.36
5.72
6.54
7.6
8.59
9.15
9.01
8.06
6.47
4.57
2.83
1.64
1.25
1.64
2.54
3.47
3.82
3.04
0.82
-2.78
-7.33
-12.08
-16.26
-19.24
-20.72
-20.71
-19.45
-17.25
-14.41
-11.23
-7.97
-4.94
-2.39
-0.49
0.82
1.76
2.69
3.92
5.55
7.44
9.25
10.61
11.28
11.27
10.82
10.3
10.02
10.14
10.61
11.32
12.18
13.21
14.54
16.24
18.12
19.7
20.29
19.3
16.48
12.12
6.95
1.87
-2.36
-5.3
-6.81
-6.91
-5.69
-3.33
-0.28
2.62
4.25
3.6
0.26
-5.31
-11.81
-17.53
-20.92
-21.05
-17.79
-11.73
-3.98
4.06
10.93
15.37
16.56
14.46
9.88
4.36
-0.34
-2.72
-2.12
1.2
6.07
10.86
14
14.46
12.07
7.61
2.57
-1.39
-3.02
-1.99
0.93
4.15
5.88
4.89
1.03
-4.71
-10.58
-14.77
-16.16
-14.74
-11.59
-8.47
-7.07
-8.33
-12.08
-17.09
-21.46
-23.31
-21.47
-15.95
-8.04
0.15
6.39
9.23
8.49
5.36
1.76
-0.43
-0.22
2.16
5.42
7.93
8.46
6.73
3.49
0.16
-1.79
-1.41
1.48
6.12
11.14
14.93
16.2
14.46
10.26
5.1
0.93
-0.55
1.33
5.85
11.19
15.12
15.96
13.25
7.86
1.51
-3.98
-7.45
-8.61
-8.02
-6.62
-5.32
-4.7
-4.82
-5.38
-5.82
-5.55
-4.15
-1.55
1.83
5.17
7.48
7.95
6.32
3.08
-0.59
-3.24
-3.71
-1.59
2.49
7.1
10.5
11.35
9.26
4.92
-0.16
-4.2
-5.86
-4.67
-1.25
2.97
6.23
7.12
5.12
0.78
-4.46
-8.84
-10.98
-10.41
-7.7
-4.26
-1.71
-1.27
-3.19
-6.68
-10.16
-11.86
-10.53
-5.99
0.8
7.98
13.54
16.05
15.19
11.79
7.49
3.95
2.26
2.51
3.91
5.26
5.52
4.29
1.98
-0.47
-2.02
-1.96
-0.21
2.77
6.18
9.13
10.91
11.12
9.63
6.61
2.44
-2.31
-6.94
-10.77
-13.22
-13.99
-13.12
-10.99
-8.25
-5.6
-3.61
-2.65
-2.81
-3.98
-5.93
-8.3
-10.65
-12.44
-13.13
-12.31
-9.92
-6.24
-1.83
2.75
7.08
10.97
14.29
16.74
17.82
16.97
13.93
9.08
3.47
-1.48
-4.53
-5.09
-3.47
-0.58
2.43
4.71
6
6.53
6.82
7.29
7.95
8.32
7.66
5.25
0.84
-5.09
-11.48
-16.98
-20.51
-21.64
-20.73
-18.64
-16.31
-14.36
-12.89
-11.57
-9.93
-7.58
-4.41
-0.62
3.3
6.66
8.87
9.5
8.51
6.25
3.35
0.55
-1.56
-2.59
-2.43
-1.15
1.1
4.06
7.42
10.78
13.7
15.76
16.72
16.58
15.54
13.97
12.29
10.81
9.64
8.62
7.36
5.4
2.37
-1.82
-6.89
-12.29
-17.32
-21.39
-24.15
-25.52
-25.59
-24.49
-22.31
-19.09
-14.9
-9.96
-4.68
0.44
4.92
8.48
11.05
12.75
13.81
14.44
14.71
14.65
14.26
13.56
12.66
11.71
10.84
10.11
9.47
8.8
7.92
6.7
5.12
3.26
1.26
-0.68
-2.44
-3.94
-5.18
-6.17
-7
-7.74
-8.48
-9.27
-10.17
-11.18
-12.32
-13.6
-15.03
-16.53
-17.89
-18.78
-18.8
-17.67
-15.33
-12
-8.13
-4.18
-0.55
2.56
5.06
6.93
8.16
8.75
8.77
8.37
7.78
7.25
7
7.12
7.58
8.24
8.9
9.32
9.35
8.91
8.1
7.09
6.04
5.01
3.93
2.66
1.05
-0.91
-3.09
-5.29
-7.27
-8.89
-10.14
-11.08
-11.84
-12.56
-13.34
-14.23
-15.19
-16.07
-16.64
-16.61
-15.75
-13.99
-11.44
-8.37
-5.15
-2.15
0.38
2.32
3.68
4.51
4.89
4.86
4.45
3.76
2.94
2.17
1.63
1.42
1.52
1.84
2.23
2.55
2.72
2.64
2.29
1.62
0.65
-0.55
-1.86
-3.11
-4.18
-4.97
-5.51
-5.9
-6.28
-6.83
-7.69
-8.91
-10.46
-12.17
-13.71
-14.64
-14.57
-13.25
-10.74
-7.39
-3.76
-0.39
2.35
4.35
5.7
6.55
7.01
7.09
6.79
6.19
5.44
4.79
4.45
4.5
4.88
5.39
5.81
6
5.91
5.59
5.16
4.67
4.12
3.45
2.58
1.49
0.26
-0.95
-2.02
-2.86
-3.47
-3.9
-4.21
-4.45
-4.68
-4.99
-5.47
-6.11
-6.75
-7.1
-6.75
-5.44
-3.18
-0.26
2.76
5.33
7.11
8.02
8.27
8.15
7.91
7.63
7.29
6.81
6.21
5.56
5.05
4.85
4.99
5.4
5.88
6.18
6.18
5.81
5.17
4.37
3.55
2.75
1.97
1.2
0.43
-0.27
-0.86
-1.3
-1.65
-2.05
-2.71
-3.76
-5.18
-6.73
-8.01
-8.55
-8.05
-6.45
-4
-1.14
1.68
4.11
6.02
7.41
8.31
8.75
8.72
8.24
7.45
6.6
5.93
5.64
5.75
6.1
6.5
6.74
6.78
6.63
6.4
6.13
5.77
5.2
4.4
3.39
2.27
1.15
0.14
-0.7
-1.39
-2.01
-2.7
-3.52
-4.53
-5.75
-7.07
-8.26
-8.92
-8.69
-7.48
-5.43
-2.89
-0.36
1.67
2.94
3.45
3.61
3.86
4.12
4.19
3.88
3.03
1.66
0.01
-1.51
-2.21
-1.64
-0.39
0.8
1.55
1.58
0.8
-0.64
-2.44
-3.76
-3.87
-3.43
-3.06
-2.8
-2.71
-2.94
-3.68
-5.16
-6.86
-7.85
-8.3
-7.6
-4.15
3.01
13.7
26.48
35.08
33.92
28.71
22.95
15.81
7.96
-0.03
-7.84
-15.24
-21.79
-26.23
-27.35
-25.98
-23.31
-20.13
-17.41
-15.75
-15.22
-15.32
-14.74
-12.28
-8.37
-3.81
0.85
4.83
7.53
8.71
8.53
7.8
7.37
7.12
6.78
6.36
5.8
5.12
4.47
4
3.96
4.55
5.5
6.62
7.96
9.54
11.31
13.13
14.79
16.17
17.26
18.02
18.45
18.62
18.54
18.19
17.59
16.85
16.16
15.67
15.39
15.16
14.64
13.45
11.36
8.39
4.85
1.18
-2.13
-4.72
-6.43
-7.29
-7.54
-7.48
-7.47
-7.76
-8.46
-9.44
-10.36
-10.77
-10.25
-8.59
-5.85
-2.36
1.42
5
7.99
10.09
11.04
10.71
9.08
6.32
2.81
-0.85
-4.05
-6.29
-7.41
-7.55
-7.17
-6.79
-6.85
-7.54
-8.81
-10.44
-12.22
-13.98
-15.63
-17.06
-18.09
-18.54
-18.2
-17.04
-15.16
-12.8
-10.21
-7.62
-5.18
-3.05
-1.43
-0.52
-0.45
-1.15
-2.38
-3.86
-5.31
-6.63
-7.78
-8.77
-9.59
-10.14
-10.29
-9.93
-8.97
-7.38
-5.08
-2.04
1.78
6.33
11.39
16.56
21.3
24.96
27.01
27.17
25.51
22.43
18.54
14.46
10.63
7.24
4.25
1.49
-1.2
-3.89
-6.52
-8.9
-10.79
-11.92
-12.13
-11.38
-9.84
-7.89
-5.96
-4.42
-3.42
-2.8
-2.23
-1.43
-0.29
1
2.12
2.8
2.95
2.74
2.43
2.24
2.32
2.81
3.9
5.68
8.04
10.47
12.14
12.28
10.55
7.3
3.41
-0.08
-2.52
-3.81
-4.31
-4.49
-4.57
-4.47
-3.91
-2.65
-0.73
1.55
3.73
5.42
6.38
6.62
6.42
6.14
6.04
6.19
6.42
6.39
5.77
4.38
2.25
-0.45
-3.46
-6.57
-9.54
-12.25
-14.62
-16.7
-18.55
-20.13
-21.2
-21.29
-19.95
-16.96
-12.65
-7.89
-3.83
-1.49
-1.41
-3.44
-6.93
-10.97
-14.68
-17.38
-18.67
-18.4
-16.68
-13.9
-10.72
-7.93
-6.2
-5.83
-6.63
-7.98
-9.06
-9.16
-7.93
-5.41
-1.95
1.97
5.93
9.68
13.08
16.09
18.67
20.77
22.38
23.45
23.98
24.03
23.63
22.81
21.56
19.86
17.65
14.95
11.86
8.63
5.61
3.21
1.72
1.27
1.69
2.56
3.38
3.7
3.33
2.43
1.41
0.71
0.64
1.19
2.11
3.08
3.85
4.47
5.18
6.29
8.07
10.54
13.47
16.45
18.92
20.38
20.44
19.02
16.35
12.88
9.18
5.73
2.76
0.27
-1.89
-3.87
-5.73
-7.44
-8.84
-9.75
-9.99
-9.4
-7.86
-5.35
-2.02
1.75
5.44
8.47
10.43
11.11
10.62
9.24
7.33
5.26
3.33
1.81
0.96
0.96
1.85
3.43
5.29
6.93
8.01
8.49
8.59
8.62
8.75
8.88
8.77
8.14
6.89
5.09
2.9
0.47
-2.12
-4.79
-7.35
-9.46
-10.72
-10.9
-10
-8.36
-6.5
-4.98
-4.14
-4.11
-4.79
-5.93
-7.29
-8.69
-10.11
-11.61
-13.25
-15.02
-16.77
-18.22
-19.08
-19.2
-18.64
-17.69
-16.73
-16.13
-16.13
-16.78
-17.98
-19.55
-21.3
-23.04
-24.53
-25.5
-25.65
-24.69
-22.41
-18.75
-13.84
-7.98
-1.58
4.91
11.03
16.4
20.72
23.83
25.74
26.57
26.56
26
25.13
24.05
22.74
21.09
18.98
16.45
13.7
11
8.61
6.71
5.33
4.46
4
3.85
3.8
3.59
2.95
1.7
-0.09
-2.05
-3.67
-4.46
-4.16
-2.83
-0.78
1.62
4.02
6.2
8.01
9.33
10.02
10.05
9.43
8.33
6.94
5.43
3.82
2.1
0.21
-1.81
-3.81
-5.59
-7.02
-8.06
-8.78
-9.3
-9.69
-9.94
-9.95
-9.64
-8.95
-7.9
-6.57
-5.06
-3.5
-2
-0.68
0.4
1.16
1.56
1.53
1.02
-0.01
-1.5
-3.27
-5.06
-6.58
-7.65
-8.16
-8.18
-7.85
-7.33
-6.76
-6.24
-5.81
-5.52
-5.43
-5.64
-6.28
-7.47
-9.21
-11.36
-13.58
-15.39
-16.33
-16.11
-14.64
-12.03
-8.52
-4.37
0.13
4.63
8.71
11.89
13.76
14.11
13.06
10.98
8.42
5.92
3.85
2.37
1.47
0.99
0.75
0.55
0.23
-0.34
-1.25
-2.58
-4.3
-6.3
-8.35
-10.14
-11.34
-11.73
-11.2
-9.83
-7.86
-5.61
-3.4
-1.51
-0.13
0.63
0.83
0.62
0.32
0.31
0.91
2.23
4.12
6.15
7.81
8.73
8.81
8.27
7.48
6.72
5.95
4.83
2.88
-0.25
-4.54
-9.58
-14.65
-18.97
-21.88
-22.94
-21.88
-18.61
-13.25
-6.19
1.79
9.58
15.94
19.9
21.05
19.67
16.56
12.69
8.86
5.44
2.49
-0.1
-2.42
-4.42
-6.02
-7.21
-8.12
-8.92
-9.68
-10.21
-10.09
-8.88
-6.33
-2.56
1.88
6.24
9.81
12.19
13.39
13.74
13.72
13.69
13.75
13.77
13.52
12.88
12.06
11.52
11.82
13.31
15.97
19.4
23
26.14
28.28
28.98
27.86
24.65
19.26
12.02
3.7
-4.59
-11.72
-16.83
-19.61
-20.27
-19.46
-17.95
-16.43
-15.38
-14.95
-15.03
-15.25
-15.14
-14.26
-12.4
-9.6
-6.22
-2.82
0.02
1.83
2.39
1.76
0.24
-1.76
-3.86
-5.73
-7.17
-8.02
-8.16
-7.52
-6.12
-4.17
-2.01
-0.06
1.33
2.01
2.08
1.8
1.43
1.13
0.95
0.87
0.94
1.32
2.25
3.94
6.45
9.59
13.03
16.37
19.27
21.56
23.17
24.15
24.57
24.49
23.95
22.99
21.61
19.89
17.91
15.81
13.74
11.78
9.95
8.17
6.28
4.16
1.76
-0.86
-3.57
-6.15
-8.43
-10.28
-11.66
-12.59
-13.18
-13.55
-13.79
-14.02
-14.38
-15
-16.01
-17.47
-19.27
-21.15
-22.76
-23.81
-24.21
-24.02
-23.49
-22.83
-22.17
-21.51
-20.79
-19.95
-19.04
-18.19
-17.55
-17.22
-17.23
-17.5
-17.89
-18.22
-18.26
-17.81
-16.68
-14.79
-12.14
-8.92
-5.41
-1.98
1.04
3.39
5.02
5.97
6.45
6.67
6.85
7.13
7.58
8.19
8.94
9.78
10.71
11.7
12.71
13.64
14.35
14.71
14.59
13.97
12.93
11.61
10.24
9.07
8.3
8.09
8.5
9.48
10.92
12.58
14.21
15.55
16.43
16.76
16.54
15.72
14.13
11.42
7.19
1.19
-6.5
-15.32
-24.38
-32.62
-39.12
-43.26
-44.85
-44.02
-41.18
-36.94
-31.99
-27.06
-22.7
-19.28
-16.82
-15.1
-13.74
-12.33
-10.56
-8.24
-5.37
-2.14
1.13
4.03
6.24
7.58
8.1
7.97
7.42
6.61
5.68
4.71
3.83
3.2
2.96
3.17
3.76
4.55
5.34
5.94
6.25
6.26
5.94
5.31
4.35
3.09
1.62
0.17
-0.91
-1.26
-0.63
0.96
3.18
5.53
7.48
8.75
9.27
9.21
8.72
7.91
6.81
5.45
3.96
2.61
1.64
1.21
1.3
1.71
2.2
2.56
2.67
2.5
2.09
1.53
0.9
0.31
-0.2
-0.66
-1.11
-1.58
-1.95
-2
-1.47
-0.22
1.67
3.86
5.86
7.24
7.78
7.53
6.72
5.69
4.72
3.93
3.37
3.01
2.86
3.01
3.53
4.49
5.8
7.28
8.65
9.64
10.09
9.98
9.49
8.93
8.6
8.78
9.5
10.67
12.06
13.51
15.08
17.03
19.73
23.37
27.8
32.45
36.61
39.69
41.57
42.57
43.32
44.42
46.3
49.2
53.38
59
65.88
72.94
78.08
78.5
71.8
57.1
35.74
10.95
-13.29
-33.66
-48.47
-57.65
-62.08
-62.74
-60.23
-54.94
-47.54
-39.24
-31.64
-26.11
-23.13
-22.15
-21.88
-20.97
-18.7
-15.31
-11.75
-9.18
-8.39
-9.46
-11.73
-14.11
-15.56
-15.46
-13.81
-11.17
-8.43
-6.39
-5.44
-5.38
-5.57
-5.23
-3.87
-1.62
0.83
2.51
2.69
1.23
-1.27
-3.85
-5.62
-6.28
-6.3
-6.64
-8.31
-11.81
-16.79
-22.11
-26.22
-27.8
-26.28
-22.09
-16.5
-11.02
-6.89
-4.58
-3.77
-3.58
-3.1
-1.82
0.18
2.27
3.72
4.05
3.3
2.08
1.28
1.68
3.53
6.37
9.18
10.82
10.52
8.18
4.43
0.26
-3.35
-5.9
-7.45
-8.57
-10.04
-12.44
-15.89
-19.97
-23.88
-26.77
-28.09
-27.88
-26.66
-25.13
-23.78
-22.56
-20.97
-18.38
-14.44
-9.36
-3.87
1.12
4.87
7.11
8.03
8.1
7.74
7.15
6.28
5
3.3
1.34
-0.52
-1.93
-2.68
-2.86
-2.85
-3.16
-4.28
-6.56
-10.07
-14.6
-19.63
-24.4
-28.06
-29.92
-29.67
-27.55
-24.28
-20.81
-17.99
-16.29
-15.71
-15.91
-16.4
-16.71
-16.56
-15.77
-14.36
-12.43
-10.24
-8.1
-6.34
-5.22
-4.88
-5.32
-6.41
-7.9
-9.46
-10.75
-11.63
-12.19
-12.8
-13.82
-15.35
-17.03
-18.06
-17.64
-15.32
-11.34
-6.52
-1.91
1.73
4.19
5.77
6.96
8.15
9.4
10.58
11.53
12.23
12.77
13.23
13.51
13.35
12.47
10.79
8.59
6.53
5.4
5.89
8.23
12.14
16.89
21.55
25.32
27.72
28.63
28.23
26.87
24.92
22.79
20.83
19.33
18.46
18.23
18.45
18.88
19.18
19.1
18.43
17.05
14.93
12.17
9
5.7
2.57
-0.2
-2.54
-4.45
-5.97
-7.09
-7.8
-8.12
-8.13
-7.98
-7.79
-7.58
-7.26
-6.64
-5.55
-3.91
-1.81
0.53
2.81
4.7
5.97
6.52
6.39
5.79
4.96
4.12
3.43
2.95
2.73
2.82
3.26
4.07
5.19
6.43
7.55
8.3
8.54
8.24
7.47
6.36
5.05
3.64
2.22
0.87
-0.32
-1.28
-1.99
-2.48
-2.84
-3.22
-3.74
-4.46
-5.36
-6.4
-7.56
-8.82
-10.22
-11.69
-13.06
-14
-14.11
-13.11
-10.95
-7.89
-4.44
-1.15
1.57
3.52
4.69
5.21
5.23
4.88
4.33
3.78
3.51
3.77
4.69
6.22
8.11
9.98
11.46
12.29
12.41
11.95
11.13
10.24
9.49
8.95
8.58
8.25
7.81
7.15
6.2
4.94
3.36
1.49
-0.62
-2.84
-5.03
-7.07
-8.91
-10.57
-12.05
-13.27
-13.98
-13.81
-12.43
-9.75
-6.02
-1.82
2.15
5.32
7.41
8.44
8.63
8.2
7.29
6.01
4.52
3.08
2.07
1.78
2.3
3.43
4.79
5.97
6.68
6.83
6.5
5.81
4.88
3.76
2.46
1.02
-0.5
-1.96
-3.23
-4.21
-4.87
-5.27
-5.57
-5.95
-6.56
-7.46
-8.59
-9.69
-10.43
-10.39
-9.29
-7.02
-3.75
0.1
3.94
7.24
9.6
10.91
11.26
10.87
10
8.83
7.55
6.35
5.46
5.06
5.28
6.05
7.18
8.4
9.5
10.33
10.88
11.15
11.17
10.92
10.42
9.69
8.83
7.92
6.93
5.82
4.46
2.83
1.01
-0.79
-2.27
-3.17
-3.32
-2.66
-1.24
0.8
3.27
5.88
8.29
10.17
11.24
11.41
10.77
9.56
8.12
6.76
5.74
5.24
5.31
5.97
7.1
8.51
9.88
10.87
11.18
10.62
9.18
7.04
4.46
1.75
-0.84
-3.14
-5.04
-6.49
-7.46
-7.97
-8.08
-7.9
-7.53
-7.04
-6.43
-5.68
-4.8
-3.86
-3.05
-2.61
-2.77
-3.64
-5.17
-7.14
-9.27
-11.23
-12.8
-13.82
-14.25
-14.1
-13.46
-12.44
-11.22
-10
-8.96
-8.27
-7.96
-8
-8.29
-8.69
-9.12
-9.57
-10.03
-10.58
-11.27
-12.14
-13.17
-14.21
-14.96
-15.04
-14.04
-11.73
-8.15
-3.69
1.02
5.31
8.61
10.67
11.5
11.31
10.39
9.03
7.52
6.17
5.33
5.25
5.99
7.32
8.76
9.73
9.83
8.99
7.44
5.63
3.92
2.5
1.28
0.01
-1.54
-3.48
-5.72
-8.01
-10
-11.35
-11.82
-11.27
-9.67
-7.13
-3.92
-0.41
2.98
5.84
7.9
9.03
9.31
8.9
8.01
6.88
5.7
4.71
4.06
3.83
3.92
4.05
3.87
3.08
1.63
-0.28
-2.27
-3.94
-5.06
-5.64
-5.87
-6.08
-6.53
-7.34
-8.49
-9.81
-11.03
-11.77
-11.64
-10.3
-7.59
-3.67
0.95
5.6
9.62
12.66
14.76
16.26
17.6
19.05
20.66
22.28
23.7
24.8
25.63
26.35
27.08
27.87
28.6
29.06
29.06
28.48
27.33
25.67
23.53
20.88
17.67
13.92
9.79
5.59
1.71
-1.52
-3.95
-5.61
-6.66
-7.27
-7.57
-7.61
-7.4
-6.94
-6.28
-5.44
-4.53
-3.73
-3.27
-3.42
-4.33
-5.98
-8.13
-10.46
-12.66
-14.55
-16.15
-17.6
-19.03
-20.45
-21.74
-22.69
-23.11
-22.97
-22.41
-21.75
-21.36
-21.59
-22.57
-24.21
-26.12
-27.66
-28.06
-26.67
-23.12
-17.55
-10.56
-3.07
3.99
10.01
14.85
18.82
22.41
26
29.7
33.3
36.42
38.77
40.25
41.01
41.36
41.61
41.93
42.34
42.77
43.11
43.36
43.62
44.05
44.82
45.99
47.52
49.24
50.8
51.7
51.29
48.82
43.68
35.6
24.86
12.28
-0.99
-13.71
-24.94
-34.1
-41.02
-45.79
-48.68
-50.08
-50.4
-50.14
-49.75
-49.63
-49.92
-50.53
-51.01
-50.73
-49.01
-45.42
-39.99
-33.22
-26.03
-19.34
-13.84
-9.74
-6.79
-4.53
-2.55
-0.63
1.21
2.82
4.08
4.92
5.33
5.31
4.85
3.94
2.61
0.98
-0.75
-2.36
-3.68
-4.61
-5.12
-5.23
-4.99
-4.54
-4.03
-3.65
-3.53
-3.67
-3.91
-3.99
-3.75
-3.18
-2.47
-1.9
-1.74
-2.08
-2.83
-3.8
-4.75
-5.58
-6.33
-7.18
-8.32
-9.87
-11.75
-13.71
-15.39
-16.52
-17.01
-17.04
-16.95
-17.13
-17.84
-19.2
-21.13
-23.39
-25.62
-27.34
-27.98
-27.07
-24.35
-19.98
-14.5
-8.7
-3.34
1.05
4.39
6.93
9.11
11.28
13.6
15.96
18.09
19.73
20.78
21.3
21.48
21.51
21.5
21.48
21.43
21.34
21.25
21.2
21.21
21.25
21.25
21.14
20.84
20.32
19.56
18.56
17.31
15.81
14.05
12.03
9.78
7.33
4.8
2.31
0.03
-1.91
-3.47
-4.7
-5.66
-6.46
-7.17
-7.87
-8.63
-9.53
-10.58
-11.73
-12.86
-13.83
-14.55
-15.09
-15.63
-16.48
-17.96
-20.22
-23.24
-26.71
-30.08
-32.62
-33.63
-32.56
-29.3
-24.17
-17.94
-11.58
-5.91
-1.4
1.96
4.53
6.76
8.93
11.04
12.87
14.14
14.71
14.64
14.11
13.31
12.35
11.22
9.87
8.31
6.62
4.98
3.58
2.6
2.09
1.98
2.13
2.31
2.36
2.15
1.69
1.1
0.53
0.11
-0.14
-0.3
-0.51
-0.95
-1.73
-2.85
-4.16
-5.43
-6.37
-6.71
-6.29
-5.14
-3.53
-1.9
-0.8
-0.61
-1.33
-2.46
-3.07
-2.11
1.12
6.62
13.65
20.98
27.42
32.34
35.9
38.89
42.28
46.65
51.85
57.05
61.18
63.45
63.75
62.69
61.21
59.98
59.05
57.74
55.02
50.01
42.33
32.06
19.7
6.1
-7.4
-18.8
-25.75
-26.41
-20.49
-9.98
1.25
8.74
9.35
2.53
-9.56
-23.21
-34.85
-42.4
-45.69
-45.96
-44.79
-43.07
-40.53
-36.09
-28.78
-18.89
-8.55
-1.25
-0.41
-7.47
-20.89
-36.56
-49.72
-57.17
-58.57
-56.07
-52.55
-49.82
-47.77
-45.01
-40.2
-33.16
-25.05
-17.51
-11.74
-7.85
-4.99
-1.96
2.22
7.8
14.38
21.05
26.71
30.44
31.82
31.08
29.01
26.61
24.78
24.22
25.46
28.78
33.97
40.05
45.2
47.21
44.42
36.66
25.54
13.93
4.68
-0.52
-1.74
-0.4
1.62
2.81
2.61
1.38
0.13
0
1.73
5.05
8.47
9.68
6.47
-2.17
-15.44
-31.02
-46.1
-58.7
-68.37
-76.06
-83.19
-90.72
-98.74
-106.76
-114.28
-121.18
-127.53
-133.05
-136.67
-136.57
-130.83
-118.36
-99.53
-76.29
-51.59
-28.42
-8.89
6.13
16.96
24.56
29.96
33.99
37.15
39.78
42.13
44.41
46.66
48.73
50.35
51.16
50.96
49.81
48.03
46.11
44.49
43.41
42.78
42.24
41.38
39.83
37.49
34.51
31.22
28.02
25.18
22.8
20.79
18.9
16.88
14.56
11.91
9.08
6.31
3.85
1.97
0.89
0.82
1.92
4.27
7.76
12.11
16.9
21.64
25.85
29.2
31.53
32.89
33.51
33.84
34.38
35.61
37.74
40.65
43.85
46.63
48.38
48.83
48.18
47.1
46.52
47.32
50.02
54.43
59.47
63.2
63.2
57.36
44.64
25.62
2.6
-21.19
-42.62
-59.71
-72.04
-80.55
-86.73
-91.82
-96.21
-99.54
-101.04
-100.11
-96.83
-92.15
-87.71
-85.41
-86.68
-91.88
-99.97
-108.76
-115.62
-118.33
-115.79
-108.16
-96.59
-82.6
-67.59
-52.63
-38.45
-25.64
-14.66
-5.87
0.64
5.09
7.95
9.86
11.43
13.08
14.99
17.11
19.24
21.06
22.2
22.23
20.73
17.36
11.99
4.85
-3.36
-11.52
-18.29
-22.4
-22.86
-19.28
-11.89
-1.66
9.93
21.1
30.12
35.71
37.3
35.1
30.02
23.32
16.4
10.5
6.53
5.04
6.12
9.44
14.29
19.75
24.93
29.19
32.29
34.35
35.69
36.64
37.38
37.89
38.05
37.7
36.78
35.32
33.47
31.43
29.41
27.59
26.07
24.88
23.95
23.16
22.4
21.65
20.98
20.54
20.47
20.86
21.62
22.59
23.47
24.04
24.13
23.64
22.59
21.03
18.99
16.48
13.49
10.02
6.09
1.85
-2.47
-6.51
-9.86
-12.1
-12.84
-11.88
-9.23
-5.24
-0.52
4.21
8.29
11.37
13.47
14.9
16.08
17.34
18.72
20.04
21
21.42
21.31
20.88
20.42
20.12
20
19.88
19.56
18.89
17.89
16.7
15.55
14.63
13.99
13.6
13.36
13.16
12.93
12.64
12.3
11.93
11.51
11.02
10.43
9.67
8.73
7.54
6.07
4.3
2.28
0.14
-1.93
-3.71
-5.05
-5.94
-6.48
-6.86
-7.33
-8.05
-9.14
-10.52
-11.92
-12.92
-13.01
-11.8
-9.2
-5.48
-1.23
2.87
6.25
8.68
10.26
11.27
12.05
12.77
13.48
14.12
14.65
15.1
15.55
16.08
16.65
17.15
17.46
17.44
17.07
16.42
15.62
14.8
14.07
13.48
12.98
12.5
11.92
11.13
10.04
8.63
7
5.28
3.69
2.4
1.47
0.79
0.12
-0.81
-2.18
-4
-6.1
-8.22
-10.14
-11.74
-13.01
-14.05
-15.04
-16.19
-17.78
-20.08
-23.12
-26.59
-29.74
-31.58
-31.23
-28.31
-23.16
-16.71
-10.17
-4.57
-0.48
2.07
3.42
4.06
4.46
4.95
5.75
6.96
8.58
10.48
12.42
14.16
15.46
16.24
16.52
16.45
16.18
15.85
15.55
15.33
15.17
15.04
14.84
14.45
13.77
12.78
11.58
10.37
9.33
8.56
8
7.49
6.86
6.01
4.98
3.84
2.69
1.6
0.6
-0.33
-1.18
-1.96
-2.69
-3.46
-4.33
-5.38
-6.55
-7.71
-8.7
-9.27
-9.13
-8.04
-5.85
-2.65
1.27
5.55
9.76
13.56
16.9
20.04
23.3
26.9
30.69
34.28
37.4
39.75
41.16
41.76
42.04
42.63
44
46.18
48.73
51.01
51.86
49.83
43.94
34.2
21.57
7.72
-5.5
-16.43
-23.57
-26.66
-26.64
-24.99
-23.01
-21.39
-20.18
-18.94
-19.92
-22.85
-25.72
-26.62
-25.19
-22.14
-18.47
-14.58
-11.49
-9.84
-9.29
-9.32
-9.46
-9.37
-8.42
-6.16
-2.56
1.82
6.3
10.47
13.81
15.72
15.86
14.33
11.47
7.57
2.7
-3.07
-9.41
-15.89
-22.06
-27.45
-31.62
-34.42
-36.07
-37.03
-37.69
-38.21
-38.65
-39.05
-39.5
-40.01
-40.54
-40.96
-41.02
-40.42
-38.91
-36.45
-33.28
-29.88
-26.83
-24.64
-23.58
-23.69
-24.72
-26.31
-28.15
-30.02
-31.79
-33.33
-34.43
-34.76
-33.97
-31.81
-28.23
-23.49
-18.09
-12.75
-8.23
-5.15
-3.8
-4.05
-5.33
-6.84
-7.83
-7.95
-7.29
-6.32
-5.64
-5.69
-6.56
-7.95
-9.36
-10.17
-9.91
-8.33
-5.57
-2.17
0.99
2.87
2.64
-0
-4.69
-10.46
-16.07
-20.48
-23.15
-24.17
-24.14
-23.92
-24.36
-26.06
-29.19
-33.43
-37.88
-41.22
-42
-39.12
-32.31
-22.31
-10.76
0.31
9.18
14.89
17.38
17.32
15.6
13.02
10.16
7.38
5.03
3.46
2.96
3.62
5.23
7.34
9.46
11.26
12.56
13.33
13.52
13.06
11.93
10.31
8.57
7.18
6.49
6.57
7.15
7.71
7.73
6.94
5.44
3.65
2.16
1.57
2.18
3.98
6.58
9.42
11.98
14
15.6
17.07
18.68
20.39
21.89
22.74
22.61
21.48
19.65
17.57
15.77
14.81
15.28
17.7
22.15
28.02
33.97
38.34
39.89
38.48
35.18
31.74
29.71
29.52
30.21
29.96
26.97
20.42
10.91
0.37
-8.74
-14.23
-14.99
-11.26
-4.48
3.28
10.05
14.63
16.68
16.58
14.93
12.15
8.45
4.02
-0.72
-5.08
-8.3
-9.92
-10.01
-9.19
-8.29
-7.91
-8.15
-8.57
-8.68
-8.14
-7.08
-5.93
-5.26
-5.4
-6.37
-7.97
-9.96
-12.45
-15.43
-18.66
-21.45
-22.96
-22.57
-20.23
-16.99
-13.46
-10.13
-7.22
-4.7
-2.47
-0.52
0.7
0.72
-0.67
-3.23
-6.37
-9.23
-11
-11.22
-9.98
-7.88
-5.75
-4.36
-4.03
-4.62
-5.46
-5.59
-4.16
-0.84
3.94
8.99
12.71
13.71
11.35
6.1
-0.57
-6.64
-10.4
-11.04
-8.94
-5.41
-2.13
-0.38
-0.58
-2.12
-3.67
-3.82
-1.61
2.99
9.13
15.37
20.23
22.77
22.88
21.29
19.24
18.06
18.62
21.02
24.42
27.1
26.95
22.11
11.84
-2.99
-19.89
-35.43
-46.39
-50.73
-48.08
-39.5
-26.79
-11.76
4.1
19.48
32.84
42.33
46.06
42.67
32.01
15.42
-4.6
-25
-43.08
-57.05
-66.29
-71.05
-72.07
-70.02
-65.11
-57.18
-46.06
-32.06
-16.32
-0.73
12.54
21.62
25.51
24.43
19.75
13.57
8.07
4.98
4.99
7.76
11.89
15.45
16.76
15.04
10.59
4.6
-1.3
-5.49
-6.48
-3.56
2.9
11.62
20.72
28.07
32
32.03
29.27
26.54
26.51
30.24
36.85
43.93
48.58
48.55
43.14
33.46
22.48
12.6
4.76
-0.99
-4.41
-4.75
-1.06
7.22
19.76
36.08
53.92
69.76
80.28
83.77
80.06
69.85
54.35
29.76
-0.85
-29.2
-48.35
-57.45
-59.61
-58.29
-55.67
-52.52
-49.15
-44.77
-40.05
-36.79
-36.28
-37.67
-38.41
-35.87
-28.58
-16.36
-0.07
17.46
32.31
39.13
35.39
23.6
9.75
-0.68
-5.29
-4.31
-0.15
4.08
6.42
6.53
5.13
2.89
-0
-3.62
-7.71
-11.88
-15.76
-18.41
-18.87
-16.68
-12.35
-7.18
-2.65
0.24
1.17
0.35
-1.59
-3.85
-5.82
-7.37
-8.84
-10.71
-13.19
-16.15
-19.15
-21.57
-22.92
-22.93
-21.73
-19.8
-17.7
-15.88
-14.55
-13.69
-13.04
-12.33
-11.29
-9.86
-8.13
-6.22
-4.24
-2.18
0.05
2.64
5.75
9.33
13.06
16.42
18.82
19.84
19.37
17.6
15.07
12.42
10.2
8.73
8.11
8.21
8.71
9.14
8.79
7.08
4.16
0.98
-1.26
-1.82
-0.7
1.52
4.04
6.18
7.59
8.29
8.53
8.43
7.92
6.91
5.34
3.2
0.53
-2.64
-6.1
-9.42
-11.96
-13.11
-12.57
-10.44
-7.23
-3.75
-0.99
0.84
1.75
1.88
1.27
-0.17
-2.65
-6.32
-11.16
-16.76
