-9.94
-8.61
-7.36
-6.28
-5.38
-4.6
-3.87
-3.19
-2.56
-2.05
-1.67
-1.4
-1.2
-1.05
-0.94
-0.88
-0.82
-0.68
-0.35
0.25
1.14
2.27
3.56
4.91
6.24
7.51
8.68
9.72
10.64
11.44
12.17
12.85
13.48
14.04
14.63
15.35
16.4
17.99
20.21
22.9
25.61
27.62
28.09
26.5
22.64
16.76
9.81
2.97
-2.51
-5.7
-6.34
-4.89
-2.03
1.26
4.11
6.19
7.35
7.67
7.32
6.36
4.77
2.74
0.22
-3.23
-8
-14.3
-21.78
-29.34
-35.64
-41.58
-46.9
-51.22
-54.66
-55.5
-53.38
-48.35
-40.63
-30.58
-18.77
-5.85
7.66
18.7
26.29
29.51
28.42
23.88
17.23
9.78
2.84
-2.8
-6.79
-8.66
-8.54
-6.7
-3.67
-0.22
2.82
4.89
5.64
4.98
3.32
0.99
-1.61
-4.04
-6.03
-7.43
-8.17
-8.35
-8.11
-7.41
-6.29
-4.75
-2.86
-0.85
0.92
2.13
2.55
2.21
1.48
0.86
0.84
1.7
3.42
5.69
8.02
9.95
11.19
11.68
11.56
11.06
10.36
9.6
8.82
8.04
7.29
6.66
6.18
5.83
5.55
5.19
4.68
4.01
3.27
2.52
1.82
1.18
0.61
0.16
-0.09
-0.04
0.31
0.87
1.5
2.03
2.42
2.7
2.94
3.2
3.44
3.55
3.45
3.06
2.37
1.43
0.33
-0.86
-2.05
-3.19
-4.25
-5.27
-6.25
-7.17
-7.88
-8.21
-8.02
-7.31
-6.26
-5.13
-4.08
-3.05
-1.78
0.08
2.7
5.99
9.61
13.12
16.14
18.53
20.3
21.62
22.67
23.61
24.55
25.58
26.72
27.96
29.25
30.59
32.05
33.82
36.16
39.31
43.32
48.02
52.89
57.13
59.85
60.3
58.16
53.65
47.5
40.75
34.35
28.89
24.42
20.47
16.33
11.29
4.89
-2.94
-11.88
-21.43
-30.97
-39.91
-47.72
-54.03
-58.58
-61.29
-62.24
-61.66
-59.84
-57.04
-53.53
-49.45
-44.95
-40.17
-35.28
-30.52
-26.19
-22.7
-20.51
-20.06
-21.62
-25.1
-29.98
-35.31
-39.91
-42.66
-42.78
-40.06
-34.87
-28.1
-20.9
-14.38
-9.34
-6.16
-4.74
-4.7
-5.52
-6.72
-7.88
-8.7
-8.91
-8.26
-6.65
-4.19
-1.18
1.93
4.73
7
8.82
10.44
12.17
14.11
16.03
17.43
17.63
16.12
12.74
7.92
2.54
-2.3
-5.65
-7.04
-6.61
-4.96
-2.9
-1.06
0.24
0.92
1.05
0.66
-0.27
-1.73
-3.58
-5.53
-7.19
-8.27
-8.67
-8.52
-8.08
-7.55
-7.04
-6.47
-5.71
-4.69
-3.45
-2.2
-1.17
-0.52
-0.28
-0.31
-0.41
-0.37
-0.09
0.47
1.22
2.1
3.02
3.94
4.84
5.7
6.51
7.25
7.87
8.31
8.48
8.32
7.78
6.91
5.81
4.65
3.58
2.71
2.03
1.48
0.92
0.31
-0.4
-1.15
-1.88
-2.55
-3.15
-3.68
-4.14
-4.51
-4.76
-4.93
-5.09
-5.37
-5.83
-6.47
-7.11
-7.5
-7.43
-6.78
-5.62
-4.18
-2.73
-1.49
-0.54
0.16
0.72
1.26
1.86
2.57
3.38
4.25
5.08
5.76
6.17
6.21
5.86
5.11
3.98
2.46
0.58
-1.48
-3.41
-4.8
-5.28
-4.6
-2.75
0.07
3.47
7.05
10.45
13.46
16.03
18.25
20.37
22.59
24.98
27.3
29.11
29.96
29.54
27.88
25.35
22.69
20.53
19.11
18.09
16.87
14.93
12.12
8.72
5.4
3.2
2.86
4.36
6.82
8.97
9.89
9.29
7.71
6.26
6.56
9.64
15.27
21.91
27.47
30.51
30.63
28.56
25.75
24.3
25.81
30.8
38.55
47.7
56.71
63.59
66.07
57.55
34.32
-0.62
-37.44
-65.56
-79.34
-79.18
-69.78
-57.76
-46.39
-35.95
-25.52
-14.36
-2.98
7.19
14.93
17.99
15.61
8.58
-0.79
-9.98
-17.38
-22.71
-27.52
-32.86
-38.9
-44.88
-49.71
-51.69
-50.31
-46.28
-41.11
-36.39
-32.82
-30.24
-27.75
-24.35
-19.4
-13.04
-6
0.66
5.93
9.3
10.7
10.52
9.36
7.89
6.55
5.53
4.74
3.86
2.62
0.86
-1.33
-3.7
-5.96
-7.96
-9.64
-11.07
-12.3
-13.3
-13.94
-14.04
-13.48
-12.27
-10.56
-8.51
-6.21
-3.63
-0.66
2.75
6.47
10.24
13.71
16.6
18.8
20.34
21.31
21.73
21.56
20.68
19.06
16.81
14.24
11.69
9.44
7.61
6.11
4.78
3.46
2.11
0.8
-0.34
-1.21
-1.78
-2.11
-2.26
-2.32
-2.31
-2.27
-2.27
-2.36
-2.6
-3.03
-3.58
-4.19
-4.79
-5.36
-5.98
-6.73
-7.7
-8.91
-10.27
-11.66
-12.9
-13.87
-14.44
-14.61
-14.4
-13.91
-13.24
-12.47
-11.62
-10.62
-9.28
-7.37
-4.71
-1.29
2.64
6.66
10.25
13
14.71
15.37
15.19
14.42
13.27
11.97
10.65
9.45
8.45
7.66
6.96
6.17
5.14
3.83
2.38
1
-0.08
-0.77
-1.14
-1.3
-1.34
-1.21
-0.82
-0.04
1.12
2.55
4.03
5.38
6.49
7.36
8.01
8.4
8.43
7.94
6.85
5.2
3.17
1.04
-0.96
-2.71
-4.19
-5.45
-6.47
-7.14
-7.29
-6.82
-5.75
-4.26
-2.64
-1.1
0.21
1.3
2.25
3.17
4.14
5.19
6.33
7.48
8.52
9.31
9.73
9.71
9.27
8.54
7.64
6.69
5.73
4.79
3.86
2.99
2.21
1.57
1.11
0.83
0.73
0.76
0.85
0.93
0.91
0.78
0.58
0.4
0.37
0.59
1.13
1.95
2.99
4.16
5.38
6.61
7.79
8.89
9.9
10.85
11.77
12.7
13.65
14.57
15.35
15.89
16.19
16.43
16.93
18.09
20.19
23.18
26.58
29.49
30.8
29.51
25.04
17.5
7.77
-2.69
-12.23
-19.48
-23.71
-25.03
-24.22
-22.36
-20.48
-19.18
-18.68
-18.89
-19.63
-20.76
-22.12
-23.51
-24.6
-25.02
-24.5
-23.02
-20.85
-18.47
-16.38
-14.87
-13.93
-13.31
-12.64
-11.6
-10.12
-8.35
-6.59
-5.11
-4.07
-3.44
-3.03
-2.68
-2.23
-1.65
-0.99
-0.34
0.17
0.46
0.46
0.16
-0.36
-0.97
-1.51
-1.89
-2.09
-2.21
-2.38
-2.68
-3.1
-3.57
-3.98
-4.24
-4.33
-4.26
-4.08
-3.76
-3.3
-2.69
-1.96
-1.2
-0.52
-0.03
0.22
0.28
0.2
0.1
0.03
0.02
0.04
0.01
-0.09
-0.25
-0.41
-0.48
-0.39
-0.11
0.32
0.84
1.36
1.8
2.12
2.29
2.3
2.17
1.91
1.57
1.18
0.78
0.44
0.19
0.05
0.02
0.04
0.05
0
-0.11
-0.26
-0.35
-0.31
-0.08
0.32
0.88
1.56
2.31
3.07
3.75
4.27
4.6
4.78
4.89
5.02
5.18
5.36
5.47
5.47
5.38
5.28
5.27
5.43
5.77
6.25
6.78
7.3
7.74
8.04
8.21
8.29
8.4
8.68
9.2
9.97
10.86
11.75
12.54
13.24
13.97
14.87
16.05
17.52
19.19
20.93
22.6
24.09
25.38
26.51
27.58
28.73
30.12
31.88
34.04
36.53
39.15
41.59
43.53
44.71
45.06
44.71
43.95
43.06
42.09
40.76
38.62
35.26
30.61
25
19.06
13.35
8.12
3.13
-2.1
-8.01
-14.7
-21.83
-28.77
-34.79
-39.21
-41.52
-41.44
-38.97
-34.46
-28.66
-22.59
-17.24
-13.31
-11.03
-10.2
-10.36
-11.04
-11.96
-12.99
-14.08
-15.15
-16.07
-16.69
-16.99
-17.17
-17.66
-19.05
-21.81
-26.08
-31.46
-37.13
-42.02
-45.27
-46.47
-45.8
-43.84
-41.29
-38.67
-36.21
-33.91
-31.72
-29.68
-27.96
-26.74
-26.11
-25.98
-26.04
-25.93
-25.35
-24.18
-22.52
-20.61
-18.72
-17.02
-15.57
-14.27
-12.97
-11.55
-9.98
-8.28
-6.51
-4.75
-3.05
-1.53
-0.27
0.6
1.05
1.13
1.03
0.97
1.13
1.59
2.25
2.95
3.49
3.74
3.7
3.42
3.03
2.64
2.39
2.38
2.72
3.46
4.6
5.99
7.41
8.56
9.25
9.42
9.19
8.83
8.56
8.46
8.39
8.06
7.13
5.46
3.1
0.38
-2.28
-4.43
-5.79
-6.23
-5.82
-4.74
-3.22
-1.49
0.28
1.95
3.4
4.56
5.38
5.95
6.42
7.03
7.94
9.13
10.35
11.23
11.43
10.83
9.59
8.1
6.76
5.89
5.63
6.02
6.97
8.42
10.2
12.09
13.76
14.88
15.21
14.69
13.46
11.81
10.02
8.29
6.69
5.16
3.64
2.08
0.5
-1.01
-2.4
-3.62
-4.7
-5.69
-6.62
-7.5
-8.25
-8.81
-9.14
-9.27
-9.32
-9.48
-9.86
-10.44
-11.07
-11.5
-11.56
-11.23
-10.66
-10.12
-9.77
-9.63
-9.5
-9.13
-8.25
-6.69
-4.39
-1.34
2.4
6.64
11.09
15.35
19.07
22.08
24.51
26.65
28.89
31.42
34.19
36.96
39.4
41.31
42.6
43.3
43.36
42.6
40.8
37.81
33.77
29.1
24.23
19.34
14.14
8
0.4
-8.62
-18.25
-27.05
-33.55
-36.8
-36.83
-34.49
-31.07
-27.78
-25.34
-23.96
-23.5
-23.67
-24.24
-24.99
-25.75
-26.3
-26.41
-25.88
-24.66
-22.87
-20.74
-18.56
-16.58
-14.92
-13.62
-12.61
-11.72
-10.77
-9.62
-8.2
-6.61
-5.08
-3.83
-2.99
-2.52
-2.21
-1.79
-1.08
-0.05
1.18
2.47
3.68
4.77
5.8
6.84
7.92
9.02
10.06
10.95
11.61
12.05
12.36
12.72
13.32
14.27
15.5
16.83
17.93
18.53
18.48
17.85
16.91
16.07
15.78
16.42
18.15
20.77
23.74
26.16
27.02
25.44
20.93
13.65
4.41
-5.46
-14.37
-20.88
-24.03
-23.55
-19.9
-14.16
-7.73
-1.98
2.01
3.63
2.76
-0.28
-4.87
-10.2
-15.42
-19.73
-22.57
-23.69
-23.2
-21.56
-19.37
-17.21
-15.42
-14.13
-13.2
-12.46
-11.77
-11.08
-10.41
-9.78
-9.11
-8.32
-7.33
-6.16
-4.94
-3.82
-2.89
-2.14
-1.42
-0.59
0.39
1.45
2.4
3.07
3.38
3.42
3.36
3.41
3.73
4.34
5.13
5.96
6.7
7.3
7.84
8.5
9.53
11.12
13.36
16.08
18.84
20.97
21.68
20.3
16.58
10.86
4.07
-2.5
-7.55
-10.18
-10.16
-7.91
-4.26
-0.13
3.72
6.89
9.23
10.81
11.7
12.02
11.86
11.44
11.03
11
11.66
13.2
15.57
18.53
21.77
24.99
28.06
30.97
33.8
36.66
39.6
42.65
45.78
48.89
51.72
53.83
54.59
53.39
49.81
43.89
36.15
27.6
19.38
12.55
7.74
5.01
3.77
3
1.53
-1.68
-7.23
-15.19
-25.15
-36.3
-47.54
-57.49
-64.74
-68.13
-67.19
-62.48
-55.56
-48.52
-43.27
-40.89
-41.36
-43.83
-47.19
-50.61
-53.75
-56.56
-58.91
-60.42
-60.46
-58.51
-54.48
-48.8
-42.31
-35.88
-30.15
-25.38
-21.44
-18.11
-15.17
-12.55
-10.3
-8.49
-7.14
-6.1
-5.09
-3.74
-1.78
0.84
3.86
6.8
9.1
10.37
10.49
9.65
8.19
6.45
4.62
2.86
1.25
-0.06
-0.92
-1.24
-1.06
-0.56
0.1
0.82
1.62
2.52
3.55
4.62
5.62
6.44
7.05
7.49
7.79
7.95
7.88
7.49
6.74
5.63
4.24
2.69
1.06
-0.49
-1.84
-2.85
-3.42
-3.56
-3.31
-2.76
-1.95
-0.93
0.25
1.47
2.59
3.48
4.06
4.38
4.59
4.87
5.34
6.04
6.87
7.66
8.22
8.4
8.15
7.52
6.64
5.67
4.7
3.73
2.72
1.66
0.59
-0.37
-1.06
-1.34
-1.11
-0.34
0.93
2.64
4.64
6.68
8.44
9.59
9.89
9.34
8.22
7.06
6.49
7
8.77
11.61
15.01
18.31
20.93
22.49
22.88
22.26
20.94
19.32
17.76
16.49
15.63
15.07
14.52
13.61
11.92
9.16
5.24
0.4
-4.86
-9.83
-13.82
-16.31
-17.15
-16.6
-15.16
-13.4
-11.75
-10.43
-9.42
-8.64
-8.02
-7.56
-7.3
-7.23
-7.26
-7.21
-6.91
-6.24
-5.16
-3.79
-2.27
-0.8
0.49
1.53
2.32
2.93
3.45
3.93
4.36
4.69
4.87
4.89
4.79
4.66
4.55
4.44
4.22
3.79
3.08
2.17
1.26
0.52
0.11
0.04
0.21
0.51
0.85
1.2
1.59
2.05
2.53
2.95
3.18
3.15
2.87
2.44
1.95
1.47
1.02
0.56
0.08
-0.4
-0.83
-1.15
-1.38
-1.58
-1.88
-2.37
-3.1
-4.02
-5.06
-6.12
-7.13
-8.04
-8.8
-9.38
-9.72
-9.81
-9.64
-9.22
-8.57
-7.7
-6.59
-5.21
-3.58
-1.78
0.03
1.72
3.17
4.36
5.36
6.27
7.11
7.83
8.34
8.49
8.26
7.71
6.99
6.27
5.66
5.2
4.9
4.74
4.72
4.84
5.09
5.46
5.88
6.27
6.59
6.76
6.79
6.7
6.55
6.41
6.36
6.4
6.49
6.57
6.55
6.43
6.24
6.06
5.93
5.91
6.05
6.36
6.88
7.62
8.5
9.43
10.33
11.17
12.07
13.24
14.85
16.91
19.22
21.39
22.99
23.77
23.78
23.38
23.14
23.71
25.57
28.88
33.31
37.99
41.63
42.84
40.54
34.41
25.12
14.23
3.72
-4.65
-9.86
-11.85
-11.3
-9.26
-6.66
-4.06
-1.62
0.71
2.92
4.84
6.05
6.05
4.36
0.76
-4.72
-11.68
-19.43
-27.13
-33.94
-39.1
-42.12
-42.77
-41.16
-37.7
-33.05
-28.05
-23.53
-20.16
-18.27
-17.8
-18.36
-19.34
-20.17
-20.48
-20.16
-19.34
-18.25
-17.11
-16
-14.9
-13.74
-12.45
-11.09
-9.72
-8.41
-7.19
-6.04
-4.89
-3.78
-2.79
-2
-1.5
-1.23
-1.04
-0.74
-0.18
0.7
1.81
2.98
4.04
4.87
5.49
6.06
6.86
8.16
10.17
12.86
16
19.2
22.04
24.23
25.7
26.62
27.36
28.36
29.97
32.35
35.29
38.28
40.53
41.24
39.81
36.07
30.33
23.26
15.74
8.54
2.2
-3.08
-7.35
-10.85
-13.87
-16.64
-19.23
-21.56
-23.4
-24.52
-24.77
-24.2
-23.06
-21.73
-20.57
-19.87
-19.74
-20.17
-21.09
-22.37
-23.9
-25.47
-26.85
-27.76
-27.96
-27.33
-25.92
-23.93
-21.68
-19.46
-17.47
-15.79
-14.35
-13.04
-11.76
-10.47
-9.27
-8.25
-7.53
-7.11
-6.87
-6.63
-6.22
-5.51
-4.46
-3.13
-1.69
-0.3
0.81
1.52
1.78
1.71
1.46
1.21
1.06
0.97
0.81
0.48
-0.07
-0.74
-1.44
-2.07
-2.6
-3.09
-3.61
-4.21
-4.91
-5.7
-6.55
-7.39
-8.12
-8.61
-8.72
-8.43
-7.84
-7.18
-6.67
-6.54
-6.85
-7.55
-8.46
-9.24
-9.44
-8.54
-6.15
-2.17
3.09
8.96
14.65
19.54
23.41
26.46
29.06
31.48
33.66
35.22
35.65
34.63
32.19
28.78
25.01
21.45
18.44
16
13.92
11.83
9.31
5.93
1.4
-4.27
-10.68
-16.99
-22.15
-25.23
-25.77
-23.93
-20.38
-15.98
-11.49
-7.38
-3.84
-0.84
1.74
4.04
6.21
8.3
10.27
11.96
13.18
13.78
13.72
13.09
12.02
10.66
9.21
7.93
7.22
7.5
9.1
12.03
15.94
20.13
23.75
26
26.32
24.52
20.77
15.57
9.56
3.37
-2.52
-7.89
-12.72
-16.98
-20.58
-23.31
-25
-25.63
-25.47
-24.94
-24.43
-24.07
-23.67
-22.92
-21.6
-19.84
-18.04
-16.69
-16.06
-16.08
-16.37
-16.46
-16
-14.84
-12.96
-10.35
-7.02
-3.01
1.48
6.05
10.22
13.58
15.98
17.57
18.68
19.67
20.7
21.65
22.22
22.04
20.91
18.91
16.38
13.82
11.63
9.97
8.54
6.72
3.7
-1.29
-8.73
-18.58
-30.08
-41.68
-51.23
-56.38
-55.32
-47.31
-33.14
-14.85
4.83
23.36
38.89
50.57
58.28
62.33
63.18
61.28
57.15
51.39
44.69
37.78
31.33
25.86
21.72
19
17.62
17.3
17.74
18.68
20.02
21.67
23.53
25.34
26.69
27.16
26.35
24.02
20.26
15.46
10.34
5.68
2.09
-0.23
-1.59
-2.64
-4.16
-6.69
-10.26
-14.51
-18.88
-22.93
-26.52
-29.7
-32.65
-35.64
-38.78
-42.05
-45.34
-48.66
-52.17
-56.02
-60.02
-63.52
-65.82
-66.05
-63.53
-57.96
-49.76
-39.97
-29.98
-21.01
-13.95
-9.73
-8.69
-10.48
-14.11
-18.33
-22.06
-24.64
-25.74
-25.54
-25.13
-25.51
-27.2
-30.04
-33.53
-37.22
-40.78
-43.9
-42.24
-33.25
-17.49
1.34
18.99
32.99
42.89
48.89
52.66
55.17
56.22
55.44
52.89
49.22
45.34
42.02
39.66
38.34
37.67
36.63
34.32
30.38
25.11
19.25
13.6
8.81
5.33
3.21
1.98
1.06
0.07
-1.14
-2.52
-4.05
-5.72
-7.43
-9.06
-10.5
-11.66
-12.41
-12.72
-12.69
-12.54
-12.49
-12.55
-12.64
-12.55
-12.05
-10.94
-9.15
-6.76
-3.99
-1.14
1.57
3.96
5.95
7.49
8.59
9.27
9.62
9.81
10.02
10.44
11.1
11.9
12.58
12.83
12.42
11.3
9.64
7.8
6.21
5.18
4.83
5
5.4
5.72
5.78
5.62
5.39
5.25
5.26
5.33
5.32
5.08
4.57
3.91
3.21
2.62
2.19
1.88
1.6
1.26
0.8
0.18
-0.6
-1.52
-2.48
-3.4
-4.18
-4.75
-5.1
-5.28
-5.36
-5.36
-5.32
-5.21
-4.99
-4.59
-3.97
-3.08
-1.94
-0.64
0.73
2.01
3.09
3.88
4.36
4.57
4.56
4.43
4.26
4.11
4.01
3.91
3.69
3.2
2.33
1.07
-0.51
-2.26
-4.01
-5.67
-7.2
-8.6
-9.89
-11.1
-12.24
-13.36
-14.53
-15.79
-17.13
-18.43
-19.56
-20.35
-20.73
-20.71
-20.38
-19.86
-19.2
-18.4
-17.39
-16.09
-14.49
-12.65
-10.72
-8.83
-7.08
-5.43
-3.79
-2.08
-0.31
1.39
2.84
3.89
4.49
4.71
4.66
4.49
4.27
4.08
3.98
4.06
4.4
4.98
5.75
6.57
7.27
7.77
8.05
8.21
8.37
8.64
9.06
9.56
9.95
10.04
9.68
8.83
7.65
6.39
5.32
4.6
4.29
4.28
4.44
4.66
4.95
5.44
6.3
7.66
9.57
11.9
14.42
16.85
18.97
20.73
22.23
23.64
25.12
26.68
28.19
29.44
30.21
30.41
30.12
29.59
29.15
29.09
29.59
30.54
31.58
32.04
31.07
27.9
22.04
13.58
3.25
-7.76
-18.08
-26.58
-32.64
-36.16
-37.36
-36.49
-33.68
-29.04
-22.89
-15.95
-9.33
-4.2
-1.4
-1.21
-3.27
-6.91
-11.43
-16.25
-20.98
-25.25
-28.66
-30.79
-31.37
-30.39
-28.05
-24.73
-20.8
-16.61
-12.54
-9
-6.43
-5.2
-5.44
-6.9
-9.07
-11.26
-12.95
-13.87
-14.08
-13.87
-13.52
-13.17
-12.83
-12.36
-11.63
-10.58
-9.25
-7.76
-6.27
-4.9
-3.74
-2.81
-2.05
-1.27
-0.23
1.34
3.63
6.63
10.09
13.59
16.56
18.52
19.18
18.64
17.39
16.24
16
17.22
19.93
23.67
27.67
31.18
33.69
35.02
35.25
34.53
32.95
30.45
26.88
22.07
15.87
8.27
-0.5
-9.93
-19.17
-27.19
-33.06
-36.14
-36.29
-33.89
-29.6
-24.25
-18.67
-13.58
-9.57
-7.05
-6.11
-6.51
-7.69
-8.9
-9.47
-9.01
-7.49
-5.22
-2.63
-0.12
2.12
4.09
5.97
7.93
10.04
12.23
14.33
16.21
17.8
19.19
20.43
21.44
21.92
21.38
19.41
15.85
11.03
5.67
0.65
-3.26
-5.6
-6.25
-5.36
-3.19
-0.05
3.7
7.61
11.21
14.05
15.85
16.57
16.38
15.62
14.62
13.55
12.36
10.82
8.76
6.24
3.64
1.54
0.44
0.55
1.66
3.32
5.04
6.61
8.09
9.73
11.69
13.92
16.28
18.7
21.27
24.15
27.46
31.11
34.78
37.99
40.22
41.08
40.27
37.6
32.78
25.66
16.42
5.66
-5.68
-16.43
-25.61
-32.56
-37.09
-39.78
-41.35
-42.35
-43.13
-44
-45.16
-46.69
-48.26
-49.06
-48.77
-47.13
-44.16
-40.47
-37.34
-35.93
-36.94
-39.92
-43.48
-47.22
-50.99
-54.85
-59.1
-64.23
-70.32
-77.36
-84.62
-91.02
-96.98
-102.58
-107.11
-109.28
-108.15
-103.3
-95.8
-87.19
-70.06
-42.76
-9.53
22.57
48.61
65.01
74.79
80.01
81.84
81.07
77.41
71.14
63.69
57.12
53.04
52.49
54.97
59.46
64.56
67.59
66.55
60.91
51.59
40.32
29.13
19.23
11.37
5.81
1.77
-1.39
-3.79
-5.23
-5.74
-5.59
-5.46
-5.58
-5.52
-4.69
-2.4
1.68
7.21
13.17
18.36
21.74
22.95
22.21
19.9
16.42
12.22
7.89
4.19
1.9
1.48
2.79
5.01
6.87
7.2
5.38
1.67
-2.94
-7.12
-9.76
-10.4
-9.27
-7.13
-4.83
-3.01
-2.01
-1.99
-3.11
-5.6
-9.63
-15.01
-20.97
-26.21
-29.3
-29.18
-25.65
-19.51
-12.22
-5.46
-0.52
1.96
2.03
0.2
-2.87
-6.57
-10.43
-14.1
-17.25
-19.57
-20.79
-20.72
-19.38
-16.99
-13.99
-10.86
-8.03
-5.72
-3.95
-2.57
-1.43
-0.43
0.4
1.01
1.34
1.4
1.22
0.86
0.4
-0.11
-0.56
-0.88
-1.01
-0.91
-0.6
-0.08
0.67
1.71
3.08
4.75
6.57
8.33
9.79
10.83
11.43
11.67
11.64
11.4
10.95
10.26
9.41
8.52
7.81
7.48
7.6
8.1
8.75
9.28
9.49
9.31
8.79
8.06
7.24
6.38
5.46
4.47
3.43
2.42
1.56
0.95
0.58
0.4
0.3
0.17
-0.04
-0.28
-0.43
-0.34
0.08
0.91
2.11
3.6
5.24
6.89
8.4
9.66
10.59
11.13
11.26
11
10.49
9.9
9.44
9.23
9.28
9.49
9.69
9.75
9.66
9.49
9.34
9.32
9.46
9.73
10.09
10.47
10.84
11.14
11.38
11.6
11.9
12.4
13.18
14.23
15.41
16.58
17.62
18.55
19.49
20.67
22.26
24.39
27.05
30.16
33.53
36.9
39.83
41.7
41.73
39.22
33.78
25.55
15.22
3.86
-7.39
-17.56
-25.95
-31.97
-35.15
-35.15
-32.1
-26.8
-20.69
-15.51
-12.6
-12.42
-14.45
-17.56
-20.57
-22.77
-24.07
-24.76
-25.21
-25.56
-25.75
-25.63
-25.15
-24.4
-23.54
-22.62
-21.55
-20.11
-18.06
-15.34
-12.1
-8.72
-5.66
-3.3
-1.78
-0.99
-0.66
-0.41
0.03
0.83
2.02
3.51
5.18
6.91
8.6
10.2
11.73
13.24
14.79
16.34
17.8
18.97
19.67
19.78
19.33
18.51
17.67
17.21
17.44
18.53
20.37
22.59
24.57
25.63
25.22
23.13
19.58
15.19
10.76
7.03
4.4
2.86
2.04
1.4
0.48
-0.91
-2.73
-4.71
-6.52
-7.92
-8.84
-9.37
-9.65
-9.79
-9.78
-9.52
-8.93
-8.08
-7.13
-6.27
-5.5
-4.56
-3.04
-0.55
2.98
7.25
11.63
15.37
17.73
18.15
16.24
11.89
5.37
-2.53
-10.59
-17.41
-21.91
-23.68
-23.1
-21.13
-18.8
-16.81
-15.33
-14.13
-12.89
-11.51
-10.29
-9.73
-10.33
-12.24
-15.16
-18.4
-21.09
-22.51
-22.28
-20.39
-17.14
-12.95
-8.26
-3.45
1.13
5.17
8.38
10.57
11.68
11.7
10.73
9
6.81
4.56
2.62
1.29
0.61
0.43
0.43
0.26
-0.34
-1.46
-3.06
-4.95
-6.96
-8.84
-10.41
-11.5
-11.99
-11.85
-11.06
-9.7
-7.85
-5.68
-3.4
-1.27
0.5
1.76
2.52
2.88
3
3.02
3.06
3.16
3.31
3.5
3.71
3.92
4.11
4.24
4.27
4.18
3.99
3.72
3.43
3.16
2.91
2.69
2.48
2.27
2.07
1.9
1.78
1.72
1.69
1.6
1.38
0.98
0.49
0.06
-0.07
0.3
1.23
2.68
4.46
6.34
8.1
9.59
10.75
11.64
12.4
13.18
14.04
14.9
15.52
15.63
15.11
14.07
12.94
12.24
12.5
13.93
16.35
19.2
21.62
22.7
21.7
18.41
13.18
7
1.18
-3.07
-5.03
-4.78
-3.1
-1.11
0.16
0.21
-0.87
-2.5
-3.9
-4.46
-3.92
-2.37
-0.12
2.44
5.01
7.33
9.19
10.35
10.61
9.91
8.43
6.66
5.33
5.14
6.47
9.18
12.57
15.63
17.36
17.19
15.1
11.62
7.65
4.14
1.79
0.99
1.78
3.95
7.16
11.01
15.15
19.21
22.71
24.98
25.2
22.58
16.62
7.42
-4.23
-17.01
-29.38
-39.92
-47.67
-52.16
-53.44
-51.9
-48.2
-43.13
-37.48
-31.97
-27.1
-23.13
-20.05
-17.64
-15.55
-13.41
-10.87
-7.8
-4.24
-0.54
2.85
5.52
7.29
8.37
9.29
10.62
12.76
15.55
18.29
19.84
19.01
14.99
7.7
-2.11
-13.03
-23.45
-31.94
-37.61
-40.24
-40.12
-37.85
-34.1
-29.51
-24.69
-20.2
-16.59
-14.25
-13.28
-13.43
-14.16
-14.87
-15.1
-14.68
-13.76
-12.64
-11.59
-10.75
-10.03
-9.25
-8.24
-6.92
-5.36
-3.7
-2.14
-0.78
0.29
1.08
1.64
2.04
2.35
2.67
3.04
3.5
4.02
4.51
4.91
5.16
5.25
5.2
5.02
4.71
4.23
3.62
2.95
2.38
2.04
2.02
2.27
2.7
3.18
3.65
4.11
4.58
5.06
5.56
6.03
6.4
6.6
6.55
6.17
5.44
4.45
3.44
2.64
2.21
2.15
2.31
2.51
2.65
2.7
2.71
2.69
2.55
2.23
1.72
1.12
0.61
0.31
0.22
0.2
0.08
-0.28
-0.87
-1.57
-2.23
-2.75
-3.06
-3.17
-3.05
-2.69
-2.05
-1.12
0.04
1.32
2.56
3.6
4.35
4.81
5.08
5.32
5.66
6.18
6.85
7.57
8.23
8.77
9.17
9.48
9.76
10.06
10.39
10.75
11.14
11.55
11.97
12.36
12.69
12.93
13.18
13.64
14.53
15.95
17.78
19.63
21.04
21.64
21.38
20.59
19.91
20.05
21.54
24.55
28.82
33.62
37.89
40.35
39.79
35.46
27.41
16.65
4.98
-5.51
-13.08
-16.87
-17.1
-14.8
-11.44
-8.41
-6.8
-7.32
-10.32
-15.71
-22.91
-30.79
-37.87
-42.68
-44.27
-42.58
-38.41
-33.14
-28.12
-24.24
-21.65
-19.9
-18.19
-15.86
-12.55
-8.39
-3.79
0.69
4.57
7.6
9.71
10.97
11.5
11.36
10.56
9.09
6.95
4.24
1.15
-2.06
-5.03
-7.35
-8.63
-8.53
-6.96
-4.14
-0.65
2.69
4.95
5.39
3.71
0.09
-4.77
-9.89
-14.25
-17.03
-17.8
-16.67
-14.14
-10.99
-8.07
-6.01
-5.14
-5.4
-6.46
-7.76
-8.75
-8.96
-8.19
-6.56
-4.54
-2.79
-2.03
-2.7
-4.79
-7.75
-10.58
-12.22
-11.84
-9.19
-4.63
1
6.68
11.53
15.02
17.01
17.67
17.38
16.56
15.66
15.12
15.3
16.47
18.65
21.65
25.01
28.15
30.51
31.8
32.1
31.86
31.77
32.38
33.78
35.43
36.17
34.54
29.4
20.38
8.18
-5.58
-18.84
-29.75
-37.13
-40.72
-40.93
-38.58
-34.6
-29.9
-25.33
-21.71
-19.69
-19.59
-21.26
-24.06
-27.06
-29.36
-30.43
-30.19
-28.97
-27.22
-25.33
-23.47
-21.6
-19.64
-17.55
-15.34
-13.1
-10.87
-8.68
-6.56
-4.58
-2.86
-1.52
-0.58
0.11
0.74
1.51
2.48
3.54
4.5
5.17
5.46
5.43
5.24
5.07
5.08
5.32
5.79
6.4
7.02
7.56
7.97
8.28
8.56
8.89
9.32
9.72
9.95
9.8
9.16
8.08
6.72
5.34
4.2
3.43
3.03
2.88
2.81
2.73
2.64
2.67
2.94
3.5
4.22
4.91
5.36
5.5
5.41
5.29
5.36
5.74
6.37
7.1
7.75
8.2
8.49
8.72
9.04
9.54
10.19
10.89
11.5
11.89
11.98
11.81
11.42
10.91
10.32
9.67
8.95
8.13
7.2
6.19
5.12
4.02
2.9
1.74
0.56
-0.64
-1.75
-2.71
-3.43
-3.88
-4.14
-4.28
-4.41
-4.6
-4.85
-5.15
-5.45
-5.7
-5.86
-5.9
-5.82
-5.61
-5.3
-4.9
-4.37
-3.68
-2.81
-1.79
-0.68
0.44
1.5
2.52
3.54
4.62
5.75
6.85
7.83
8.63
9.27
9.83
10.4
11.01
11.61
12.13
12.53
12.81
13.05
13.35
13.83
14.49
15.27
16.03
16.56
16.71
16.39
15.69
14.81
14.06
13.76
14.13
15.21
16.83
18.63
20.12
20.82
20.54
19.5
18.37
18.04
19.12
21.51
24.3
25.95
25.06
20.88
13.65
4.44
-5.32
-14.35
-21.76
-27.06
-29.97
-30.42
-28.66
-25.4
-21.71
-18.79
-17.47
-17.93
-19.67
-21.93
-24
-25.65
-27.02
-28.42
-30.05
-31.84
-33.59
-35.11
-36.39
-37.61
-38.94
-40.41
-41.81
-42.7
-42.58
-41.03
-37.91
-33.43
-28.11
-22.62
-17.65
-13.74
-11.13
-9.79
-9.47
-9.75
-10.21
-10.45
-10.18
-9.21
-7.48
-5.1
-2.32
0.41
2.59
3.71
3.44
1.73
-1.1
-4.44
-7.57
-9.88
-11.02
-10.99
-10.01
-8.44
-6.63
-4.79
-3.04
-1.39
0.14
1.52
2.71
3.68
4.48
5.31
6.45
8.13
10.37
12.86
15.1
16.56
16.96
16.37
15.21
14.05
13.33
13.27
13.77
14.61
15.54
16.35
16.95
17.32
17.47
17.44
17.28
17.04
16.75
16.4
15.96
15.45
14.92
14.47
14.2
14.19
14.42
14.83
15.35
15.86
16.15
15.86
14.47
11.48
6.57
-0.21
-8.28
-16.72
-24.45
-30.6
-34.65
-36.49
-36.22
-34
-29.97
-24.35
-17.55
-10.27
-3.33
2.44
6.51
8.66
8.97
7.64
5
1.41
-2.66
-6.61
-9.8
-11.69
-11.97
-10.62
-7.98
-4.57
-1.05
2.02
4.28
5.73
6.62
7.32
8.06
8.82
9.37
9.44
8.95
8.08
7.25
6.9
7.32
8.55
10.28
12.02
13.08
12.82
10.79
6.96
1.86
-3.45
-7.66
-9.62
-8.72
-5.16
0.19
6.14
11.55
15.66
18.21
19.34
19.36
18.55
17.09
14.97
12.11
8.42
3.89
-1.32
-6.93
-12.48
-17.46
-21.37
-23.89
-24.87
-24.4
-22.81
-20.54
-18.06
-15.69
-13.5
-11.25
-8.52
-4.96
-0.42
4.83
10.16
14.78
18.02
19.52
19.33
17.83
15.58
13.05
10.57
8.26
6.09
4.03
2.1
0.44
-0.69
-1.02
-0.34
1.41
4.2
7.8
11.8
15.45
17.75
17.51
13.83
6.5
-3.68
-14.96
-25.22
-32.67
-36.4
-36.61
-34.24
-30.5
-26.36
-22.39
-18.91
-16.15
-14.38
-13.8
-14.43
-15.92
-17.68
-19.07
-19.62
-19.19
-17.95
-16.23
-14.34
-12.45
-10.61
-8.73
-6.77
-4.75
-2.8
-1.1
0.13
0.75
0.78
0.38
-0.13
-0.39
-0.13
0.72
2.02
3.46
4.68
5.42
5.57
5.22
4.6
3.93
3.38
3.02
2.84
2.78
2.8
2.88
3.02
3.23
3.52
3.87
4.25
4.61
4.89
5
4.9
4.56
4.04
3.48
2.99
2.65
2.45
2.32
2.16
1.95
1.71
1.48
1.29
1.15
1.03
0.94
0.96
1.2
1.74
2.56
3.55
4.52
5.3
5.81
6.06
6.13
6.1
6.02
5.88
5.65
5.34
5
4.69
4.51
4.47
4.56
4.65
4.61
4.31
3.72
2.92
2.08
1.38
0.94
0.74
0.69
0.61
0.37
-0.09
-0.73
-1.46
-2.2
-2.86
-3.43
-3.87
-4.16
-4.23
-4
-3.44
-2.56
-1.42
-0.16
1.07
2.15
2.95
3.39
3.44
3.15
2.62
2.06
1.64
1.5
1.63
1.92
2.19
2.31
2.25
2.1
2
2.07
2.36
2.8
3.25
3.55
3.58
3.34
2.9
2.38
1.9
1.53
1.24
0.98
0.69
0.35
0.02
-0.17
-0.14
0.17
0.77
1.57
2.44
3.26
3.86
4.16
4.15
3.86
3.42
2.93
2.49
2.13
1.86
1.66
1.52
1.41
1.34
1.3
1.25
1.18
1.08
0.94
0.76
0.58
0.4
0.25
0.13
0.01
-0.12
-0.32
-0.58
-0.9
-1.23
-1.5
-1.69
-1.77
-1.76
-1.68
-1.53
-1.29
-0.91
-0.4
0.22
0.86
1.43
1.87
2.18
2.41
2.59
2.73
2.83
2.85
2.81
2.73
2.68
2.66
2.67
2.67
2.65
2.62
2.59
2.6
2.61
2.59
2.51
2.36
2.17
1.98
1.81
1.64
1.43
1.12
0.69
0.16
-0.38
-0.84
-1.09
-1.08
-0.82
-0.38
0.12
0.58
0.97
1.29
1.63
2.06
2.61
3.28
3.96
4.55
4.96
5.16
5.2
5.12
4.97
4.76
4.5
4.19
3.86
3.61
3.49
3.52
3.65
3.8
3.85
3.77
3.55
3.25
2.94
2.67
2.45
2.25
2.02
1.71
1.28
0.74
0.13
-0.45
-0.92
-1.25
-1.44
-1.57
-1.74
-1.98
-2.28
-2.55
-2.72
-2.7
-2.5
-2.13
-1.64
-1.1
-0.57
-0.09
0.26
0.45
0.49
0.38
0.2
0.01
-0.14
-0.23
-0.25
-0.23
-0.21
-0.23
-0.3
-0.39
-0.46
-0.48
-0.41
-0.27
-0.11
0.04
0.16
0.23
0.24
0.16
-0.01
-0.26
-0.56
-0.87
-1.16
-1.39
-1.57
-1.68
-1.7
-1.56
-1.21
-0.63
0.17
1.08
1.94
2.6
2.96
3.05
3.01
3
3.13
3.38
3.59
3.65
3.49
3.22
3.07
3.27
3.91
4.94
6.14
7.27
8.12
8.63
8.84
8.83
8.73
8.64
8.64
8.78
9.07
9.5
9.98
10.41
10.65
10.59
10.21
9.59
8.91
8.33
7.87
7.4
6.59
5.12
2.77
-0.37
-3.94
-7.39
-10.23
-12.17
-13.24
-13.73
-14.03
-14.38
-14.85
-15.23
-15.21
-14.57
-13.24
-11.42
-9.45
-7.68
-6.33
-5.45
-4.93
-4.63
-4.45
-4.36
-4.39
-4.57
-4.85
-5.16
-5.39
-5.48
-5.44
-5.38
-5.42
-5.65
-6.06
-6.55
-6.94
-7.08
-6.91
-6.45
-5.83
-5.22
-4.77
-4.54
-4.46
-4.39
-4.16
-3.68
-3
-2.23
-1.55
-1.08
-0.85
-0.81
-0.88
-0.96
-1
-0.95
-0.79
-0.53
-0.22
0.06
0.24
0.27
0.15
-0.08
-0.36
-0.67
-1.02
-1.4
-1.81
-2.17
-2.43
-2.55
-2.6
-2.66
-2.82
-3.09
-3.4
-3.58
-3.48
-3.03
-2.25
-1.28
-0.3
0.52
1.13
1.53
1.83
2.12
2.49
2.95
3.45
3.91
4.26
4.48
4.64
4.8
5.05
5.41
5.87
6.39
6.91
7.34
7.62
7.66
7.45
7.03
6.47
5.84
5.2
4.55
3.88
3.18
2.45
1.68
0.85
-0.04
-0.97
-1.81
-2.4
-2.54
-2.13
-1.24
-0.08
1.13
2.21
3.09
3.8
4.43
5.03
5.61
6.18
6.72
7.23
7.7
8.11
8.42
8.62
8.7
8.65
8.49
8.23
7.87
7.41
6.87
6.3
5.75
5.26
4.86
4.54
4.27
4
3.73
3.44
3.15
2.88
2.63
2.42
2.23
2.04
1.8
1.47
0.98
0.32
-0.47
-1.32
-2.1
-2.75
-3.21
-3.52
-3.73
-3.91
-4.09
-4.29
-4.48
-4.66
-4.78
-4.82
-4.75
-4.61
-4.49
-4.5
-4.71
-5.08
-5.52
-5.88
-6.07
-6.1
-6.06
-6.04
-6.09
-6.15
-6.16
-6.07
-5.9
-5.7
-5.55
-5.43
-5.32
-5.15
-4.91
-4.65
-4.45
-4.37
-4.41
-4.54
-4.67
-4.77
-4.76
-4.61
-4.29
-3.75
-3.04
-2.24
-1.48
-0.87
-0.48
-0.27
-0.15
-0.04
0.14
0.36
0.55
0.64
0.58
0.36
0.03
-0.33
-0.61
-0.77
-0.76
-0.55
-0.14
0.42
1.07
1.69
2.19
2.5
2.68
2.85
3.14
3.63
4.28
4.91
5.35
5.46
5.21
4.73
4.17
3.68
3.35
3.24
3.44
4.01
5
6.29
7.61
8.52
8.61
7.66
5.69
2.99
-0.08
-3.16
-5.98
-8.37
-10.16
-11.21
-11.37
-10.67
-9.31
-7.7
-6.27
-5.33
-5.01
-5.24
-5.83
-6.61
-7.44
-8.23
-8.84
-9.13
-8.97
-8.26
-7.03
-5.44
-3.73
-2.16
-0.92
-0.07
0.47
0.88
1.33
1.96
2.77
3.69
4.62
5.51
6.42
7.51
8.96
10.87
13.15
15.6
17.85
19.53
20.33
20.11
18.97
17.31
15.7
14.75
14.85
15.98
17.65
19.01
19.15
17.46
13.84
8.81
3.27
-1.79
-5.54
-7.48
-7.4
-5.28
-1.26
4.35
11.01
17.88
23.88
27.79
28.63
25.88
19.71
11.02
1.25
-7.97
-15.22
-19.65
-21.12
-20.09
-17.32
-13.56
-9.32
-4.78
0.06
5.24
10.66
16.06
20.85
24.18
24.98
22.26
15.5
4.95
-8.18
-22.03
-34.52
-43.98
-49.49
-50.95
-48.86
-44.06
-37.48
-30.09
-22.93
-17.07
-13.36
-12.24
-13.51
-16.41
-19.85
-22.84
-24.78
-25.57
-25.51
-25.09
-24.63
-24.22
-23.63
-22.54
-20.66
-17.88
-14.33
-10.32
-6.23
-2.4
0.9
3.48
5.26
6.23
6.44
6.05
5.31
4.51
3.93
3.77
4.08
4.77
5.62
6.4
6.95
7.25
7.38
7.51
7.79
8.33
9.12
10.05
10.93
11.51
11.54
10.88
9.6
7.99
6.5
5.52
5.26
5.57
6.02
6.11
5.51
4.17
2.35
0.41
-1.34
-2.74
-3.77
-4.39
-4.47
-3.77
-2.02
0.89
4.84
9.44
14.15
18.5
22.18
25.13
27.51
29.55
31.49
33.55
35.85
38.37
40.92
42.96
43.67
42.09
37.48
29.66
19.17
7.23
-4.68
-15.27
-23.76
-29.93
-33.84
-35.63
-35.37
-33.2
-29.49
-25
-20.74
-17.71
-16.51
-17.14
-19.06
-21.42
-23.44
-24.66
-24.99
-24.66
-23.97
-23.11
-22.05
-20.62
-18.66
-16.13
-13.26
-10.44
-8.09
-6.47
-5.6
-5.34
-5.45
-5.76
-6.2
-6.8
-7.57
-8.45
-9.29
-9.94
-10.29
-10.35
-10.24
-10.1
-10.03
-10.01
-9.93
-9.67
-9.18
-8.51
-7.82
-7.32
-7.17
-7.38
-7.78
-8.05
-7.85
-6.94
-5.27
-3.08
-0.73
1.35
2.91
3.97
4.79
5.75
7.19
9.23
11.78
14.51
17.02
18.93
20.01
20.24
19.76
18.85
17.75
16.63
15.53
14.39
13.16
11.81
10.44
9.19
8.18
7.48
7.03
6.67
6.21
5.5
4.44
3.08
1.52
-0.09
-1.63
-3.03
-4.27
-5.36
-6.3
-7.06
-7.58
-7.77
-7.56
-6.89
-5.72
-4.08
-2.09
0.09
2.19
3.99
5.29
6.04
6.27
6.17
6.02
6.18
6.97
8.55
10.86
13.57
16.22
18.42
19.95
20.81
21.19
21.35
21.52
21.86
22.41
23.08
23.56
23.4
22.12
19.5
15.73
11.43
7.45
4.52
3.02
2.84
3.6
4.89
6.48
8.35
10.58
13.21
16.19
19.35
22.47
25.27
27.49
28.92
29.54
29.56
29.32
29.1
28.89
28.3
26.71
23.62
18.89
12.89
6.22
-0.59
-7.4
-14.43
-22.05
-30.41
-39.29
-48.02
-55.75
-61.66
-65.17
-66
-64.24
-60.25
-54.57
-47.83
-40.58
-33.32
-26.48
-20.46
-15.65
-12.36
-10.75
-10.66
-11.67
-13.19
-14.67
-15.73
-16.26
-16.3
-15.96
-15.32
-14.4
-13.18
-11.67
-9.9
-7.93
-5.79
-3.55
-1.29
0.78
2.42
3.38
3.58
3.16
2.49
2.02
2.09
2.77
3.81
4.71
4.97
4.24
2.44
-0.24
-3.47
-6.85
-10.05
-12.76
-14.77
-15.92
-16.17
-15.59
-14.38
-12.84
-11.25
-9.81
-8.54
-7.38
-6.27
-5.15
-4.06
-3.04
-2.11
-1.23
-0.31
0.72
1.88
3.07
4.19
5.15
5.91
6.51
7
7.4
7.7
7.87
7.92
7.9
7.93
8.1
8.45
8.91
9.38
9.73
9.93
10.01
10.03
10.01
9.9
9.57
8.98
8.18
7.36
6.72
6.36
6.25
6.21
6.05
5.7
5.19
4.64
4.13
3.65
3.12
2.5
1.85
1.31
1.08
1.27
1.8
2.49
3.12
3.53
3.73
3.81
3.92
4.14
4.51
4.92
5.26
5.41
5.31
4.98
4.5
4.01
3.62
3.41
3.43
3.67
4.06
4.55
5.02
5.41
5.71
5.99
6.41
7.12
8.16
9.4
10.6
11.5
12
12.28
12.73
13.75
15.51
17.89
20.42
22.56
23.95
24.54
24.62
24.71
25.29
26.74
29.21
32.56
36.22
39.15
39.91
36.97
29.33
17
1.29
-15.56
-31.11
-43.5
-51.98
-56.69
-58.22
-57
-53.12
-46.61
-37.85
-27.87
-18.24
-10.64
-6.27
-5.56
-8.11
-12.89
-18.62
-24.07
-28.26
-30.58
-30.86
-29.34
-26.52
-23.05
-19.5
-16.29
-13.69
-11.85
-10.82
-10.52
-10.75
-11.15
-11.28
-10.8
-9.56
-7.68
-5.47
-3.26
-1.31
0.32
1.71
3.02
4.35
5.65
6.81
7.73
8.38
8.91
9.48
10.24
11.19
12.19
12.99
13.37
13.2
12.52
11.56
10.64
10.07
10.06
10.6
11.49
12.4
13.01
13.13
12.81
12.29
11.95
12.21
13.45
15.9
19.49
23.76
27.9
30.86
31.72
30.02
26.06
20.77
15.46
11.31
8.92
8.19
8.49
9.04
9.33
9.29
9.26
9.73
11.09
13.47
16.7
20.43
24.2
27.47
29.62
29.94
27.66
22.17
13.22
1.12
-13.17
-28.22
-42.44
-54.47
-63.43
-68.85
-70.55
-68.37
-62.25
-52.39
-39.64
-25.58
-12.3
-1.79
4.7
7.06
6.15
3.36
-0.02
-3.14
-5.59
-7.14
-7.52
-6.38
-3.4
1.37
7.41
13.7
18.98
22.02
21.97
18.56
12.26
4.2
-4.09
-11.09
-15.75
-17.87
-18.11
-17.75
-18.11
-20
-23.45
-27.74
-31.77
-34.52
-35.32
-33.99
-30.71
-25.88
-20
-13.61
-7.3
-1.68
2.76
5.76
7.41
8.05
8.2
8.27
8.5
8.94
9.47
9.97
10.37
10.64
10.78
10.78
10.56
9.96
8.8
6.96
4.41
1.3
-2
-5.01
-7.22
-8.37
-8.47
-7.86
-7.01
-6.29
-5.9
-5.78
-5.83
-6.01
-6.39
-7.1
-8.2
-9.55
-10.87
-11.81
-12.13
-11.77
-10.85
-9.6
-8.18
-6.71
-5.23
-3.71
-2.17
-0.68
0.65
1.7
2.45
2.97
3.41
3.95
4.63
5.42
6.16
6.7
6.98
7
6.87
6.75
6.73
6.88
7.17
7.53
7.85
8.05
8.06
7.84
7.41
6.82
6.14
5.41
4.7
4.04
3.43
2.89
2.37
1.88
1.41
1
0.71
0.57
0.59
0.75
1.02
1.4
1.84
2.32
2.74
3.05
3.17
3.08
2.84
2.54
2.24
1.99
1.78
1.58
1.32
1.02
0.7
0.44
0.3
0.29
0.41
0.58
0.73
0.78
0.7
0.46
0.12
-0.27
-0.61
-0.82
-0.9
-0.89
-0.88
-0.98
-1.24
-1.6
-1.97
-2.21
-2.22
-1.97
-1.45
-0.72
0.16
1.11
2.04
2.88
3.55
4.01
4.24
4.27
4.19
4.11
4.1
4.21
4.43
4.69
4.91
5.04
5.05
5
4.98
5.04
5.18
5.3
5.3
5.13
4.79
4.36
3.97
3.71
3.57
3.42
3.13
2.66
2.05
1.46
1.04
1.02
1.56
2.57
3.8
4.93
5.76
6.23
6.51
6.87
7.89
9.98
12.98
16.2
18.73
19.92
19.71
18.58
17.37
17.35
19.35
23.11
27.42
30.76
32.05
30.97
27.98
24.04
20.87
20.05
22.23
27
33.25
39.44
43.61
43.58
34.62
14.83
-12.44
-39.63
-59.37
-68.29
-67.51
-60.81
-52.36
-44.99
-39.31
-33.37
-25.75
-16.32
-5.99
3.93
12.41
19
22.55
22.8
20.19
15.28
8.55
0.54
-7.95
-16.46
-24.01
-29.54
-31.95
-30.9
-27.22
-22.52
-17.96
-14.63
-12.97
-12.71
-13.3
-13.89
-13.8
-12.94
-11.61
-10.34
-9.63
-9.71
-10.44
-11.52
-12.55
-13.18
-13.37
-13.25
-13.04
-12.93
-12.96
-12.98
-12.81
-12.22
-11.08
-9.38
-7.24
-4.87
-2.57
-0.57
1.01
2.12
2.77
3
2.86
2.38
1.68
0.91
0.26
-0.05
0.05
0.53
1.23
1.93
2.47
2.79
2.94
3.06
3.29
3.73
4.39
5.22
6.11
6.89
7.39
7.45
7.04
6.27
5.4
4.75
4.53
4.79
5.33
5.84
6.03
5.77
5.14
4.47
4.16
4.69
6.39
9.37
13.4
17.79
21.5
23.36
22.44
18.45
11.95
4.18
-3.3
-9.12
-12.54
-13.57
-12.85
-11.25
-9.58
-8.3
-7.5
-7.1
-6.94
-6.93
-7.05
-7.3
-7.57
-7.65
-7.31
-6.42
-5.02
-3.37
-1.88
-0.88
-0.55
-0.8
-1.32
-1.72
-1.66
-1.03
0.09
1.44
2.76
3.86
4.64
5.13
5.39
5.45
5.3
4.91
4.32
3.63
2.97
2.46
2.17
2.08
2.14
2.28
2.44
2.6
2.76
2.91
3.07
3.21
3.33
3.39
3.42
3.41
3.42
3.48
3.64
3.9
4.22
4.53
4.82
5.09
5.42
5.93
6.72
7.78
8.95
9.99
10.65
10.81
10.56
10.14
9.91
10.08
10.76
11.84
13.17
14.57
15.94
17.22
18.43
19.55
20.62
21.72
23.01
24.65
26.73
29.23
31.99
34.81
37.56
40.2
42.72
45.04
46.8
47.46
46.36
42.99
37.28
29.68
21.11
12.67
5.37
-0.1
-3.5
-4.95
-4.93
-4.13
-3.42
-3.62
-5.38
-9
-14.36
-21.04
-28.44
-35.97
-43.01
-48.9
-52.74
-53.61
-50.86
-44.63
-36
-26.89
-19.38
-14.97
-14.01
-15.75
-18.74
-21.58
-23.39
-23.98
-23.67
-22.9
-22.02
-21.25
-20.77
-20.84
-21.7
-23.45
-25.79
-28.1
-29.52
-29.37
-27.38
-23.88
-19.6
-15.4
-11.95
-9.56
-8.16
-7.47
-7.23
-7.22
-7.33
-7.49
-7.62
-7.64
-7.46
-7.1
-6.62
-6.16
-5.77
-5.41
-4.95
-4.21
-3.12
-1.73
-0.3
0.91
1.63
1.83
1.61
1.24
0.96
0.93
1.18
1.61
2.09
2.51
2.81
2.95
2.95
2.84
2.68
2.54
2.49
2.61
2.91
3.38
3.95
4.55
5.14
5.71
6.33
7.02
7.77
8.53
9.18
9.6
9.76
9.67
9.36
8.89
8.31
7.67
6.99
6.29
5.57
4.77
3.87
2.87
1.89
1.14
0.79
0.88
1.27
1.62
1.62
1.09
0.09
-1.09
-2.06
-2.5
-2.28
-1.48
-0.35
0.79
1.64
2.02
1.86
1.27
0.45
-0.37
-1.03
-1.46
-1.69
-1.81
-1.88
-1.9
-1.83
-1.65
-1.4
-1.18
-1.1
-1.21
-1.4
-1.51
-1.37
-0.91
-0.2
0.57
1.2
1.54
1.54
1.27
0.9
0.59
0.52
0.72
1.11
1.53
1.75
1.64
1.28
0.9
0.79
1.12
1.85
2.71
3.38
3.66
3.55
3.19
2.73
2.31
1.98
1.86
2.13
3.02
4.66
6.88
9.22
10.94
11.4
10.23
7.58
4.02
0.37
-2.65
-4.59
-5.35
-5.14
-4.28
-3.06
-1.7
-0.25
1.24
2.71
4.09
5.23
5.97
6.15
5.68
4.53
2.8
0.67
-1.58
-3.64
-5.24
-6.15
-6.25
-5.49
-3.94
-1.74
0.87
3.59
6.11
8.15
9.52
10.07
9.72
8.51
6.6
4.33
2.19
0.74
0.37
1.24
3.1
5.46
7.76
9.62
10.91
11.73
12.22
12.34
11.83
10.29
7.39
3.09
-2.28
-8.05
-13.41
-17.64
-20.31
-21.34
-20.94
-19.55
-17.65
-15.7
-14.03
-12.91
-12.49
-12.8
-13.77
-15.17
-16.66
-17.84
-18.35
-17.99
-16.77
-14.91
-12.74
-10.56
-8.54
-6.74
-5.1
-3.57
-2.1
-0.75
0.39
1.23
1.74
1.95
1.97
1.89
1.82
1.83
1.96
2.25
2.67
3.22
3.83
4.43
4.95
5.32
5.52
5.55
5.42
5.16
4.78
4.32
3.85
3.45
3.2
3.1
3.08
3.04
2.88
2.55
2.14
1.78
1.62
1.74
2.13
2.71
3.37
4.04
4.65
5.21
5.72
6.18
6.55
6.84
7.04
7.12
7.12
7.07
7.05
7.21
7.68
8.58
9.85
11.33
12.73
13.84
14.56
15.01
15.46
16.17
17.29
18.81
20.54
22.24
23.64
24.52
24.75
24.34
23.47
22.46
21.75
21.77
22.7
24.37
26.24
27.47
27.17
24.69
19.79
12.76
4.35
-4.48
-12.81
-19.95
-25.56
-29.62
-32.25
-33.56
-33.56
-32.18
-29.42
-25.52
-21.02
-16.68
-13.26
-11.24
-10.72
-11.4
-12.77
-14.29
-15.56
-16.33
-16.42
-15.72
-14.11
-11.56
-8.17
-4.24
-0.14
3.68
6.91
9.32
10.76
11.06
9.94
7.11
2.47
-3.68
-10.51
-16.85
-21.48
-23.57
-22.98
-20.23
-16.27
-12.1
-8.52
-5.97
-4.62
-4.49
-5.46
-7.36
-9.82
-12.34
-14.36
-15.39
-15.22
-13.98
-12.09
-10.08
-8.4
-7.24
-6.55
-6.12
-5.75
-5.32
-4.77
-4.14
-3.44
-2.7
-1.98
-1.33
-0.87
-0.69
-0.84
-1.27
-1.9
-2.6
-3.23
-3.68
-3.88
-3.79
-3.4
-2.77
-1.96
-1.07
-0.22
0.49
0.99
1.29
1.5
1.76
2.2
2.85
3.59
4.21
4.54
4.52
4.26
3.94
3.72
3.7
3.84
4.03
4.16
4.15
3.97
3.63
3.15
2.58
1.97
1.41
0.96
0.63
0.42
0.27
0.1
-0.12
-0.37
-0.58
-0.65
-0.5
-0.12
0.43
1.05
1.64
2.14
2.55
2.91
3.23
3.49
3.67
3.73
3.71
3.67
3.7
3.86
4.13
4.43
4.69
4.81
4.76
4.57
4.3
4.01
3.78
3.63
3.53
3.45
3.3
3.06
2.73
2.39
2.13
1.96
1.84
1.65
1.31
0.82
0.29
-0.12
-0.26
-0.1
0.26
0.7
1.1
1.49
1.92
2.5
3.26
4.13
4.97
5.68
6.19
6.54
6.84
7.23
7.84
8.71
9.82
11.1
12.43
13.66
14.66
15.31
15.57
15.47
15.16
14.81
14.67
14.92
15.64
16.75
18.04
19.16
19.79
19.76
19.05
17.77
16.07
14.02
11.59
8.72
5.57
2.57
0.41
-0.19
1.19
4.49
9.11
14.12
18.62
21.99
24.06
25.05
25.36
25.47
25.74
26.37
27.34
28.25
28.33
26.5
21.71
13.36
1.71
-12.07
-26.2
-38.79
-48.47
-54.69
-57.58
-57.68
-55.53
-51.5
-45.88
-39.1
-31.88
-25.14
-19.75
-16.18
-14.33
-13.62
-13.29
-12.74
-11.72
-10.37
-9.02
-7.93
-7.18
-6.61
-6
-5.21
-4.25
-3.31
-2.63
-2.4
-2.63
-3.17
-3.68
-3.8
-3.25
-1.96
-0.11
1.91
3.65
4.76
5.16
5.04
4.81
4.9
5.57
6.89
8.7
10.62
12.16
12.66
11.49
8.21
2.91
-3.69
-10.35
-15.68
-18.68
-19.12
-17.56
-14.98
-12.35
-10.24
-8.79
-7.87
-7.34
-7.15
-7.3
-7.67
-8
-7.9
-7.08
-5.44
-3.13
-0.45
2.28
4.83
7.09
9.12
11.01
12.9
14.92
17.15
19.59
22.13
24.58
26.77
28.62
30.17
31.56
32.92
34.31
35.68
36.92
38.03
39.16
40.55
42.41
44.72
47.17
49.28
50.6
50.95
50.47
49.49
48.26
46.7
44.35
40.56
34.79
26.85
17.09
6.2
-5.01
-15.83
-25.76
-34.47
-41.74
-47.44
-51.63
-54.64
-57.04
-59.4
-61.98
-64.51
-66.22
-66.15
-63.73
-59.03
-52.86
-46.39
-40.68
-36.37
-33.54
-31.85
-30.86
-30.18
-29.65
-29.31
-29.35
-29.98
-31.29
-33.19
-35.32
-37.14
-38.1
-37.82
-36.11
-33.03
-28.77
-23.55
-17.63
-11.36
-5.22
0.29
4.7
7.74
9.35
9.62
8.73
6.88
4.32
1.35
-1.62
-4.16
-5.89
-6.6
-6.23
-4.91
-2.88
-0.41
2.17
4.56
6.49
7.75
8.21
7.87
6.78
5.09
3.04
0.89
-1.06
-2.58
-3.59
-4.16
-4.43
-4.57
-4.66
-4.67
-4.53
-4.21
-3.76
-3.26
-2.82
-2.45
-2.09
-1.61
-0.89
0.09
1.3
2.64
3.96
5.12
5.97
6.41
6.42
6.09
5.53
4.91
4.35
3.9
3.59
3.42
3.37
3.45
3.59
3.71
3.7
3.49
3.11
2.68
2.34
2.21
2.29
2.48
2.59
2.51
2.15
1.57
0.89
0.22
-0.38
-0.93
-1.49
-2.1
-2.68
-3.04
-2.97
-2.33
-1.13
0.45
2.14
3.66
4.82
5.58
5.99
6.21
6.36
6.54
6.73
6.87
6.85
6.6
6.13
5.49
4.79
4.07
3.34
2.59
1.82
1.14
0.66
0.49
0.59
0.81
0.94
0.77
0.27
-0.47
-1.23
-1.78
-1.97
-1.78
-1.34
-0.87
-0.58
-0.62
-0.96
-1.44
-1.82
-1.92
-1.65
-1.06
-0.23
0.74
1.77
2.8
3.74
4.41
4.7
4.56
4.11
3.58
3.21
3.11
3.23
3.39
3.41
3.26
3.03
2.88
2.9
3.04
3.1
2.89
2.34
1.55
0.74
0.14
-0.17
-0.24
-0.26
-0.39
-0.71
-1.13
-1.52
-1.76
-1.87
-1.94
-2.09
-2.4
-2.83
-3.23
-3.41
-3.24
-2.64
-1.69
-0.53
0.68
1.83
2.86
3.77
4.58
5.25
5.68
5.78
5.5
4.88
4.15
3.53
3.22
3.25
3.52
3.85
4.1
4.22
4.24
4.22
4.21
4.2
4.17
4.1
3.98
3.82
3.62
3.36
3.02
2.63
2.19
1.74
1.32
0.97
0.76
0.74
0.97
1.43
2.09
2.87
3.69
4.44
5.04
5.4
5.53
5.49
5.35
5.18
4.96
4.66
4.2
3.61
2.96
2.39
2.01
1.83
1.82
1.9
2.05
2.21
2.34
2.38
2.21
1.79
1.15
0.41
-0.3
-0.85
-1.23
-1.48
-1.69
-1.98
-2.42
-3.05
-3.82
-4.64
-5.37
-5.88
-6.13
-6.12
-5.94
-5.71
-5.47
-5.21
-4.86
-4.36
-3.67
-2.83
-1.91
-0.98
-0.02
1.03
2.26
3.7
5.29
6.88
8.24
9.19
9.64
9.67
9.39
8.96
8.45
7.86
7.15
6.34
5.54
4.88
4.44
4.2
4.02
3.74
3.25
2.61
1.99
1.6
1.59
2.03
2.85
3.97
5.3
6.76
8.28
9.78
11.17
12.41
13.5
14.49
15.36
16.1
16.65
16.99
17.2
17.46
18.02
19.06
20.67
22.74
25.02
27.19
28.94
30.01
30.28
29.7
28.29
26.17
23.54
20.68
17.94
15.61
13.83
12.56
11.57
10.52
9.14
7.27
4.85
1.77
-2.18
-7.28
-13.64
-20.91
-28.17
-34.07
-37.28
-37.02
-33.41
-27.43
-20.53
-14.03
-8.74
-4.76
-1.74
0.77
3.01
4.97
6.46
7.38
7.78
7.84
7.73
7.44
6.73
5.26
2.88
-0.18
-3.22
-5.32
-5.65
-3.85
-0.15
4.67
9.63
13.72
16.12
16.09
13.08
6.83
-2.45
-13.88
-26
-37.08
-45.66
-50.85
-52.56
-51.26
-47.69
-42.56
-36.47
-29.93
-23.47
-17.67
-13.04
-9.88
-8.14
-7.44
-7.17
-6.69
-5.58
-3.7
-1.23
1.44
3.86
5.71
6.88
7.46
7.76
8.08
8.69
9.72
11.13
12.71
14
14.43
13.38
10.47
5.84
0.26
-4.98
-8.46
-9.17
-6.84
-2.1
3.89
9.8
14.69
18.15
20.24
21.3
21.75
21.96
22.27
23.01
24.42
26.51
28.91
30.83
31.34
29.68
25.62
19.59
12.5
5.35
-1.11
-6.55
-11
-14.59
-17.35
-19.19
-20.02
-20.06
-19.81
-20.01
-21.23
-23.53
-26.33
-28.6
-29.26
-27.65
-23.83
-18.55
-12.9
-7.85
-3.97
-1.32
0.31
1.11
1.1
0.13
-1.9
-4.81
-8.12
-11.21
-13.54
-14.88
-15.38
-15.44
-15.45
-15.67
-16.12
-16.66
-17.07
-17.2
-16.92
-16.19
-15.01
-13.51
-11.94
-10.61
-9.8
-9.6
-9.85
-10.22
-10.35
-10.05
-9.4
-8.63
-8
-7.68
-7.67
-7.84
-8.07
-8.23
-8.26
-8.09
-7.69
-7.05
-6.25
-5.4
-4.57
-3.75
-2.85
-1.78
-0.48
1.01
2.56
4.01
5.15
5.78
5.78
5.14
4.12
3.21
3.02
4.05
6.47
9.97
13.85
17.19
19.11
18.98
16.54
12.04
6.18
-0.01
-5.34
-8.78
-9.64
-7.78
-3.62
1.98
7.93
13.16
16.8
18.33
17.64
14.97
10.93
6.36
2.17
-0.8
-1.94
-0.98
2
6.57
12.09
17.9
23.41
28.15
31.83
34.23
35.17
34.55
32.37
28.89
24.65
20.44
17.12
15.37
15.46
17.16
19.81
22.6
24.82
26.05
26.18
25.28
23.51
20.98
17.68
13.59
8.64
2.85
-3.71
-10.88
-18.51
-26.42
-34.42
-42.22
-49.31
-55.06
-58.75
-59.82
-58.05
-53.73
-47.7
-41.13
-35.25
-31
-28.79
-28.43
-29.26
-30.51
-31.54
-32.05
-32.05
-31.66
-30.89
-29.55
-27.38
-24.2
-20.14
-15.63
-11.25
-7.47
-4.52
-2.33
-0.66
0.69
1.77
2.47
2.67
2.33
1.59
0.74
0.17
0.18
0.93
2.38
4.3
6.41
8.48
10.4
12.2
14
15.9
17.91
19.94
21.8
23.34
24.5
25.41
26.33
27.57
29.27
31.37
33.59
35.62
37.29
38.61
39.85
41.33
43.24
45.63
48.35
51.17
53.79
55.8
56.58
55.39
51.53
44.61
34.78
22.75
9.59
-3.59
-15.88
-26.68
-35.6
-42.29
-46.39
-47.64
-46.09
-42.36
-37.61
-33.33
-30.87
-30.99
-33.57
-37.68
-41.9
-44.93
-45.99
-45.04
-42.6
-39.42
-36.04
-32.63
-29.06
-25.19
-21.08
-17.16
-14.05
-12.39
-12.48
-14.15
-16.74
-19.25
-20.61
-20.03
-17.28
-12.76
-7.49
-2.72
0.39
1.11
-0.63
-4.31
-8.96
-13.4
-16.49
-17.35
-15.58
-11.36
-5.49
0.81
6.22
9.73
11.03
10.53
9.28
8.57
9.49
12.56
17.55
23.54
29.24
33.44
35.39
35.05
32.98
30.1
27.2
24.77
22.91
21.6
20.92
21.13
22.44
24.66
26.92
27.83
25.98
20.55
11.79
0.95
-10.16
-19.82
-26.9
-30.97
-32.15
-30.8
-27.42
-22.59
-17.02
-11.53
-6.83
-3.34
-1.04
0.4
1.46
2.49
3.63
4.82
5.91
6.84
7.61
8.35
9.23
10.41
11.98
13.89
15.91
17.53
18.11
17.01
13.82
8.59
1.83
-5.55
-12.58
-18.48
-22.87
-25.82
-27.67
-28.82
-29.45
-29.5
-28.67
-26.67
-23.41
-19.11
-14.31
-9.65
-5.72
-2.85
-1.03
-0.03
0.49
0.83
1.19
1.67
2.26
2.88
3.43
3.77
3.82
3.52
2.84
1.83
0.56
-0.77
-1.95
-2.71
-2.89
-2.5
-1.74
-0.98
-0.56
-0.56
-0.81
-0.94
-0.51
0.8
3.08
6.16
9.6
12.9
15.6
17.43
18.37
18.59
18.41
18.11
17.86
17.59
17.17
16.62
16.15
16.07
16.69
18.24
20.78
24.06
27.53
30.6
33.05
34.83
36.09
37.08
38.33
40.49
43.77
47.75
51.44
54.2
55.33
54.26
50.51
44.29
36.4
27.75
19.06
10.88
4.43
0.27
-1.65
-2.2
-1.88
-0.74
1.01
2.49
2.4
0.15
-5.44
-15.83
-32.68
-56.45
-84.11
-109.57
-126.36
-137.62
-146.36
-155.89
-165.14
-174.34
-182.76
-188.39
-188.55
-181.18
-164.78
-138.68
-104.46
-65.14
-23.8
18.09
59.83
100.41
137.49
169.07
193.99
211.72
222.56
228.08
230.88
232.94
234.92
227.13
204
166.65
120.86
71.7
22.05
-24.8
-68.53
-106.72
-135.76
-151.9
-154.52
-143.36
-123.36
-101.1
-82.18
-67.45
-56.86
-49.03
-41.33
-32.33
-22.53
-14.61
-9.07
-5.13
-1.63
2.38
7.18
12.74
18.48
23.75
27.72
30.29
31.53
31.46
29.9
26.81
22.54
17.62
12.55
7.45
2.59
-1.9
-5.92
-9.41
-12.15
-13.84
-14.26
-13.43
-11.65
-9.21
-6.43
-3.61
-1
1.2
2.81
3.79
4.21
4.25
4.23
4.38
4.85
5.64
6.75
8.16
9.87
11.87
13.99
16.01
17.58
18.42
18.39
17.54
16.07
14.31
12.69
11.66
11.67
13.09
16.06
20.39
25.53
30.54
34.35
35.97
34.72
30.46
23.62
15.03
5.79
-2.98
-10.29
-15.43
-17.98
-17.89
-15.58
-11.86
-7.89
-4.92
-4.02
-5.73
-9.83
-15.43
-21.25
-26.03
-28.89
-29.6
-28.43
-26.07
-23.27
-20.73
-18.99
-18.35
-18.91
-20.44
-22.39
-23.94
-24.22
-22.56
-18.81
-13.46
-7.54
-2.38
0.87
1.63
0.11
-2.8
-5.85
-7.94
-8.54
-7.84
-6.55
-5.49
-5.16
-5.51
-6.08
-6.38
-6.21
-5.83
-5.71
-6.16
-7.07
-7.85
-7.73
-6.17
-3.2
0.52
4.01
6.3
6.82
5.5
2.69
-1.06
-5.13
-8.96
-12.04
-13.97
-14.49
-13.54
-11.35
-8.37
-5.2
-2.4
-0.43
0.46
0.16
-1.32
-3.81
-7.04
-10.56
-13.83
-16.36
-17.86
-18.28
-17.82
-16.8
-15.5
-14.13
-12.77
-11.43
-10.07
-8.73
-7.45
-6.28
-5.28
-4.44
-3.73
-3.1
-2.44
-1.71
-0.87
0.06
1.03
1.95
2.76
3.38
3.77
3.88
3.71
3.27
2.66
1.98
1.36
0.88
0.56
0.39
0.3
0.23
0.11
-0.09
-0.44
-0.92
-1.49
-2.04
-2.46
-2.64
-2.61
-2.49
-2.41
-2.46
-2.58
-2.61
-2.38
-1.8
-0.88
0.24
1.42
2.59
3.72
4.81
5.8
6.6
7.09
7.2
7
6.61
6.25
6.12
6.29
6.74
7.33
7.86
8.17
8.21
8.03
7.81
7.73
7.89
8.29
8.82
9.32
9.62
9.58
9.15
8.36
7.29
6.11
5
4.1
3.45
3.01
2.65
2.32
2.02
1.85
1.92
2.29
2.91
3.62
4.25
4.68
4.83
4.62
3.99
2.84
1.18
-0.84
-2.94
-4.75
-5.97
-6.48
-6.42
-6.05
-5.63
-5.26
-4.82
-4.09
-2.86
-1.06
1.16
3.57
5.93
8.09
10.07
11.94
13.79
15.61
17.34
18.83
19.93
20.57
20.68
20.28
19.44
18.27
16.9
15.5
14.26
13.39
13.15
13.74
15.24
17.51
20.19
22.71
24.56
25.44
25.43
24.97
24.71
25.25
26.99
30.03
34.1
38.63
42.7
45.23
45.19
42.05
36.03
28.18
20.04
13.05
8.04
4.99
3.21
1.87
0.44
-1.11
-2.43
-3.2
-3.44
-3.61
-4.38
-6.34
-9.68
-14.12
-19.04
-23.64
-27.14
-28.9
-28.46
-25.65
-20.64
-14.13
-7.22
-1.22
2.76
4.17
3.21
0.53
-3.13
-7.3
-11.93
-17.08
-22.68
-28.19
-32.74
-35.42
-35.69
-33.62
-29.79
-25.05
-20.17
-15.65
-11.72
-8.49
-6.04
-4.48
-3.86
-4.12
-5
-6
-6.6
-6.39
-5.21
-3.26
-0.91
1.49
3.74
5.94
8.3
11.09
14.47
18.48
23.12
28.35
33.95
39.4
43.88
46.33
45.95
42.49
36.45
28.91
21.06
13.82
7.6
2.36
-2.15
-6.14
-9.73
-13.03
-16.18
-19.44
-23.11
-27.33
-32.05
-37.05
-42
-46.64
-50.79
-54.4
-57.54
-60.29
-62.67
-64.52
-65.42
-64.75
-61.9
-56.54
-48.84
-39.55
-29.78
-20.66
-13.03
-7.23
-3.13
-0.4
1.28
2.14
2.27
1.84
1.16
0.68
0.82
1.75
3.25
4.73
5.45
4.92
3.15
0.71
-1.46
-2.48
-1.88
0.19
3.08
5.95
8.13
9.33
9.63
9.33
8.76
8.15
7.6
7.03
6.29
5.28
3.92
2.3
0.61
-0.79
-1.5
-1.18
0.24
2.54
5.31
8.03
10.22
11.56
11.88
11.31
10.15
8.77
7.65
7.26
7.85
9.36
11.45
13.63
15.59
17.27
18.59
19.65
20.66
21.67
22.64
23.42
23.88
24.2
24.63
24.96
25.05
25
24.88
24.64
24.07
22.81
20.77
17.94
13.79
8.27
2.1
-3.87
-8.94
-12.77
-15.46
-16.9
-16.94
-16.09
-14.33
-10.91
-5.21
2.81
12.55
20.13
21.96
21.16
19.69
16.74
12.52
7.43
1.88
-3.76
-9.1
-13.32
-15.69
-16.7
-16.95
-16.71
-16.3
-16.01
-15.97
-16.15
-16.1
-15.28
-13.92
-12.23
-10.11
-7.63
-5.06
-2.75
-1.02
0.22
1.26
2.09
2.79
3.67
4.89
6.57
8.73
11.27
14.08
16.9
19.11
20.05
19.19
16.13
10.64
2.9
-6.36
-15.74
-23.38
-27.49
-26.89
-21.47
-12.39
-1.8
7.88
14.61
17.2
15.45
9.92
1.69
-7.86
-17.27
-25.22
-30.72
-33.45
-33.69
-32.28
-30.16
-28.01
-26.07
-24.12
-21.71
-18.35
-13.72
-7.75
-0.69
6.9
14.14
20.06
23.79
24.84
23.3
19.69
14.85
9.7
5.07
1.72
0.29
1.24
4.71
10.36
17.25
23.91
28.62
29.78
26.48
18.76
7.73
-4.7
-16.37
-25.45
-30.88
-32.51
-30.91
-27.04
-21.94
-16.58
-11.8
-8.28
-6.43
-6.32
-7.62
-9.71
-11.88
-13.54
-14.42
-14.49
-13.93
-12.98
-11.81
-10.52
-9.11
-7.57
-5.91
-4.18
-2.48
-0.95
0.28
1.13
1.63
1.87
2
2.16
2.4
2.72
3.07
3.36
3.52
3.49
3.23
2.74
2.09
1.4
0.89
0.73
1.05
1.85
2.98
4.24
5.41
6.35
7.06
7.58
7.96
8.27
8.49
8.57
8.46
8.15
7.68
7.16
6.7
6.36
6.16
6.06
5.99
5.88
5.71
5.45
5.07
4.59
4
3.33
2.64
1.97
1.37
0.88
0.52
0.29
0.2
0.29
0.55
0.99
1.56
2.19
2.82
3.41
3.97
4.56
5.21
5.93
6.64
7.26
7.64
7.71
7.42
6.82
6.02
5.14
4.33
3.73
3.49
3.7
4.39
5.46
6.71
7.87
8.73
9.19
9.31
9.29
9.4
9.86
10.72
11.82
12.88
13.6
13.74
13.27
12.33
11.2
10.18
9.59
9.67
10.57
12.27
14.53
16.76
18.08
17.63
14.84
9.79
3.21
-3.71
-9.8
-14.28
-16.86
-17.69
-16.98
-14.91
-11.55
-7.1
-1.99
3.03
7.17
9.87
11.03
11.04
10.58
10.36
10.76
11.75
12.89
13.52
13.09
11.35
8.44
4.86
1.2
-2.07
-4.7
-6.69
-8.15
-9.19
-9.86
-10.19
-10.22
-10.11
-10.09
-10.37
-11.09
-12.25
-13.73
-15.37
-17
-18.52
-19.82
-20.75
-21.06
-20.44
-18.69
-15.77
-11.95
-7.78
-3.88
-0.77
1.31
2.48
3.06
3.41
3.77
4.2
4.62
4.92
5.1
5.28
5.72
6.67
8.23
10.29
12.54
14.59
16.15
17.13
17.68
18.09
18.71
19.88
21.88
24.89
28.85
33.28
37.15
39.09
37.77
32.51
23.57
12.24
0.37
-10.07
-17.57
-21.3
-21.12
-17.52
-11.45
-4.2
2.83
8.38
11.64
12.45
11.21
8.71
5.75
2.93
0.48
-1.7
-3.9
-6.46
-9.6
-13.27
-17.11
-20.52
-22.89
-23.88
-23.62
-22.79
-22.31
-23.03
-25.33
-28.92
-33.02
-36.64
-39
-39.74
-38.91
-36.82
-33.79
-30.04
-25.67
-20.8
-15.68
-10.7
-6.34
-2.96
-0.73
0.48
1.1
1.72
2.9
4.98
7.99
11.54
14.97
17.35
17.75
15.48
10.29
2.53
-6.82
-16.34
-24.51
-30.08
-32.42
-31.61
-28.43
-24.02
-19.58
-16.04
-13.89
-13.17
-13.6
-14.77
-16.21
-17.57
-18.54
-18.93
-18.62
-17.6
-15.99
-13.98
-11.84
-9.78
-7.93
-6.34
-4.99
-3.85
-2.88
-2.08
-1.41
-0.79
-0.11
0.74
1.84
3.17
4.66
6.15
7.49
8.52
9.14
9.28
8.98
8.37
7.65
7.05
6.72
6.69
6.8
6.83
6.53
5.76
4.54
3.04
1.51
0.16
-0.85
-1.53
-1.92
-2.09
-2.05
-1.77
-1.21
-0.42
0.54
1.52
2.39
3.09
3.6
3.92
4.04
3.91
3.51
2.9
2.24
1.71
1.45
1.51
1.8
2.19
2.55
2.84
3.08
3.28
3.47
3.58
3.56
3.4
3.14
2.83
2.52
2.18
1.76
1.22
0.62
0.05
-0.36
-0.57
-0.61
-0.59
-0.62
-0.75
-0.96
-1.1
-1.04
-0.67
0.04
1.03
2.13
3.15
3.93
4.41
4.67
4.85
5.1
5.48
5.91
6.24
6.36
6.26
6.03
5.82
5.77
5.86
5.97
5.94
5.64
5.06
4.31
3.54
2.84
2.21
1.51
0.55
-0.8
-2.45
-4.17
-5.6
-6.43
-6.52
-5.9
-4.74
-3.24
-1.54
0.23
1.97
3.52
4.73
5.56
6.18
6.95
8.23
10.19
12.65
15.1
16.9
17.56
16.91
15.18
12.85
10.51
8.61
7.38
6.77
6.47
6.06
5.08
3.29
0.81
-1.9
-4.13
-5.23
-4.88
-3.19
-0.67
2.02
4.39
6.19
7.5
8.54
9.49
10.39
11.14
11.57
11.51
10.93
9.87
8.46
6.85
5.22
3.73
2.59
2.06
2.36
3.57
5.44
7.4
8.66
8.47
6.46
2.84
-1.57
-5.61
-8.26
-8.96
-7.83
-5.56
-3.04
-1.03
0.11
0.38
0.03
-0.68
-1.63
-2.78
-4.12
-5.57
-6.92
-7.97
-8.63
-8.96
-9.19
-9.56
-10.18
-11.02
-11.89
-12.61
-13.1
-13.44
-13.8
-14.38
-15.27
-16.4
-17.61
-18.64
-19.3
-19.44
-19.04
-18.13
-16.86
-15.32
-13.56
-11.58
-9.29
-6.65
-3.67
-0.55
2.49
5.16
7.27
8.78
9.77
10.4
10.84
11.23
11.61
11.99
12.33
12.61
12.87
13.14
13.45
13.75
13.92
13.81
13.36
12.68
12.06
11.85
12.29
13.42
15.01
16.69
18.2
19.43
20.43
21.29
21.95
22.25
21.98
21.1
19.8
18.5
17.67
17.66
18.55
20.18
22.19
24.07
25.17
24.77
22.16
16.93
9.25
-0.05
-9.53
-17.63
-23.15
-25.63
-25.45
-23.59
-21.16
-19.06
-17.7
-17.14
-17.19
-17.72
-18.67
-20.02
-21.68
-23.38
-24.72
-25.3
-24.92
-23.61
-21.65
-19.39
-17.15
-15.07
-13.14
-11.27
-9.37
-7.48
-5.66
-4.04
-2.67
-1.54
-0.53
0.42
1.34
2.15
2.71
2.94
2.8
2.38
1.82
1.27
0.83
0.53
0.34
0.21
0.08
-0.06
-0.2
-0.29
-0.29
-0.18
0.01
0.24
0.42
0.55
0.62
0.67
0.73
0.8
0.85
0.84
0.81
0.83
1
1.37
1.89
2.47
3.04
3.54
3.99
4.42
4.83
5.15
5.29
5.2
4.89
4.47
4.04
3.67
3.36
3.03
2.61
2.1
1.57
1.13
0.9
0.87
0.96
1.03
0.95
0.69
0.31
-0.09
-0.4
-0.6
-0.7
-0.78
-0.88
-1.01
-1.14
-1.26
-1.36
-1.47
-1.58
-1.65
-1.56
-1.21
-0.6
0.18
0.95
1.52
1.73
1.57
1.13
0.57
0.05
-0.3
-0.39
-0.2
0.22
0.78
1.33
1.74
1.88
1.73
1.37
0.96
0.68
0.64
0.87
1.23
1.55
1.68
1.58
1.33
1.04
0.78
0.55
0.26
-0.13
-0.61
-1.07
-1.35
-1.34
-1.04
-0.53
0.03
0.5
0.79
0.89
0.86
0.82
0.89
1.11
1.43
1.72
1.87
1.82
1.63
1.46
1.4
1.49
1.64
1.74
1.7
1.51
1.22
0.89
0.56
0.26
0.02
-0.15
-0.23
-0.23
-0.22
-0.22
-0.26
-0.3
-0.31
-0.31
-0.38
-0.55
-0.8
-0.98
-0.92
-0.5
0.25
1.12
1.84
2.22
2.21
1.94
1.59
1.29
1.07
0.85
0.55
0.14
-0.29
-0.64
-0.77
-0.65
-0.28
0.24
0.8
1.3
1.66
1.85
1.86
1.74
1.53
1.28
0.99
0.68
0.31
-0.08
-0.47
-0.81
-1.05
-1.2
-1.25
-1.23
-1.1
-0.84
-0.39
0.22
0.93
1.63
2.21
2.61
2.87
3.03
3.16
3.24
3.28
3.24
3.14
3
2.85
2.7
2.52
2.26
1.93
1.57
1.28
1.16
1.23
1.42
1.61
1.64
1.42
0.93
0.23
-0.62
-1.53
-2.45
-3.32
-4.02
-4.48
-4.64
-4.57
-4.37
-4.17
-4.03
-3.92
-3.73
-3.36
-2.74
-1.94
-1.06
-0.23
0.45
0.91
1.18
1.32
1.39
1.5
1.69
1.98
2.34
2.7
3
3.23
3.4
3.52
3.55
3.44
3.15
2.67
2.07
1.45
0.93
0.53
0.23
-0.06
-0.42
-0.89
-1.46
-2.08
-2.65
-3.09
-3.31
-3.27
-2.92
-2.3
-1.46
-0.49
0.55
1.57
2.51
3.3
3.88
4.21
4.29
4.15
3.85
3.44
2.95
2.41
1.85
1.28
0.74
0.26
-0.14
-0.51
-0.86
-1.23
-1.63
-2.02
-2.4
-2.76
-3.15
-3.64
-4.26
-4.95
-5.56
-5.92
-5.89
-5.49
-4.84
-4.16
-3.62
-3.29
-3.13
-2.98
-2.73
-2.33
-1.83
-1.34
-0.94
-0.65
-0.42
-0.19
0.12
0.48
0.81
1.01
1.02
0.85
0.6
0.39
0.36
0.54
0.9
1.33
1.76
2.16
2.57
3.02
3.51
3.96
4.24
4.27
4.04
3.69
3.4
3.32
3.46
3.71
3.93
4.02
4.02
4.06
4.31
4.86
5.66
6.5
7.17
7.5
7.5
7.36
7.41
7.97
9.23
11.15
13.49
15.8
17.55
18.19
17.28
14.54
9.97
3.89
-3.05
-9.93
-15.73
-19.63
-21.18
-20.47
-18.07
-14.82
-11.56
-8.94
-7.27
-6.55
-6.53
-6.87
-7.2
-7.22
-6.76
-5.85
-4.67
-3.51
-2.66
-2.23
-2.09
-1.95
-1.4
-0.1
2.11
5.12
8.56
11.84
14.29
15.33
14.67
12.41
9.06
5.43
2.4
0.65
0.52
1.96
4.62
7.95
11.42
14.59
17.22
19.24
20.76
22.01
23.19
24.47
25.9
27.47
29.04
30.42
31.36
31.57
30.83
29.07
26.45
23.31
20.07
17.01
14.23
11.53
8.59
4.98
0.36
-5.52
-12.71
-21.07
-30.2
-39.53
-48.35
-55.99
-61.85
-65.43
-66.37
-64.43
-59.67
-52.58
-44.17
-35.82
-28.92
-24.43
-22.49
-22.43
-23.08
-23.28
-22.33
-20.2
-17.38
-14.58
-12.37
-11.02
-10.44
-10.37
-10.47
-10.4
-9.84
-8.58
-6.54
-3.85
-0.85
1.96
4.08
5.19
5.22
4.4
3.17
2.08
1.62
2.14
3.66
5.9
8.34
10.38
11.57
11.81
11.33
10.55
9.85
9.4
9.11
8.73
8.04
7.01
5.8
4.69
3.99
3.93
4.58
5.94
7.81
9.9
11.75
12.85
12.81
11.56
9.41
7.01
5.1
4.22
4.52
5.71
7.25
8.64
9.59
10.09
10.27
10.14
9.44
7.66
4.34
-0.65
-6.86
-13.34
-18.91
-22.59
-23.88
-22.96
-20.45
-17.21
-13.97
-11.23
-9.16
-7.75
-6.89
-6.45
-6.35
-6.5
-6.79
-7.07
-7.17
-6.89
-6.14
-4.84
-2.99
-0.61
2.25
5.49
8.93
12.3
15.25
17.42
18.46
18.2
16.64
14.05
11.02
8.24
6.44
6.09
7.26
9.58
12.41
15.05
16.96
17.92
17.96
17.29
16.14
14.72
13.28
12.17
11.86
12.78
14.97
17.84
20.04
19.88
15.9
7.6
-4.28
-17.92
-31.1
-41.89
-49.12
-52.39
-51.79
-47.6
-40.22
-30.41
-19.43
-8.98
-0.81
3.9
4.9
2.95
-0.62
-4.49
-7.76
-10.15
-11.71
-12.62
-12.9
-12.42
-11.13
-9.19
-7.03
-5.25
-4.33
-4.38
-5.05
-5.7
-5.63
-4.45
-2.21
0.63
3.44
5.76
7.43
8.66
9.8
11.16
12.82
14.6
16.19
17.24
17.37
16.22
13.45
8.82
2.38
-5.3
-13.15
-19.81
-24.12
-25.54
-24.34
-21.49
-18.19
-15.35
-13.27
-11.64
-9.81
-7.27
-3.89
0.02
3.84
6.92
8.85
9.5
9.01
7.67
5.79
3.66
1.53
-0.35
-1.71
-2.31
-1.97
-0.76
1.1
3.17
4.99
6.22
6.74
6.68
6.36
6.12
6.15
6.41
6.59
6.26
5.05
2.87
0.02
-2.88
-5.09
-6.02
-5.48
-3.73
-1.36
0.93
2.6
3.37
3.23
2.34
0.91
-0.89
-2.95
-5.12
-7.23
-9
-10.19
-10.65
-10.38
-9.58
-8.54
-7.54
-6.74
-6.14
-5.65
-5.16
-4.6
-3.97
-3.32
-2.71
-2.18
-1.73
-1.38
-1.12
-0.92
-0.76
-0.59
-0.38
-0.12
0.21
0.59
1.07
1.68
2.47
3.43
4.5
5.51
6.31
6.78
6.92
6.85
6.71
6.63
6.65
6.71
6.76
6.77
6.75
6.75
6.84
7.01
7.25
7.51
7.77
8.02
8.29
8.63
9.07
9.63
10.31
11.05
11.76
12.36
12.82
13.16
13.47
13.87
14.44
15.25
16.26
17.45
18.77
20.2
21.74
23.4
25.25
27.35
29.8
32.68
36.02
39.69
43.46
46.96
49.82
51.76
52.62
52.43
51.31
49.45
47.09
44.47
41.85
39.43
37.29
35.35
33.42
31.19
28.38
24.75
20.15
14.51
7.83
0.22
-8.14
-16.89
-25.45
-33.08
-38.94
-42.42
-43.32
-42.1
-39.73
-37.4
-36.09
-36.21
-37.59
-39.67
-41.91
-43.95
-45.75
-47.36
-48.75
-49.73
-50.04
-49.53
-48.33
-46.79
-45.35
-44.3
-43.65
-43.17
-42.51
-41.41
-39.83
-37.87
-35.71
-33.46
-31.12
-28.62
-25.94
-23.18
-20.55
-18.31
-16.63
-15.52
-14.81
-14.25
-13.57
-12.57
-11.2
-9.55
-7.85
-6.39
-5.43
-5.08
-5.27
-5.81
-6.44
-6.93
-7.12
-6.89
-6.16
-4.92
-3.18
-1.08
1.18
3.33
5.13
6.45
7.25
7.56
7.45
6.99
6.28
5.43
4.54
3.66
2.79
1.9
0.94
-0.09
-1.13
-2.07
-2.77
-3.11
-3
-2.44
-1.51
-0.36
0.82
1.89
2.78
3.53
4.21
4.94
5.82
6.9
8.23
9.76
11.37
12.83
13.91
14.44
14.37
13.83
13.01
12.07
11.09
10.05
8.92
7.75
6.75
6.14
6.12
6.72
7.8
9.08
10.33
11.41
12.3
13.11
13.91
14.71
15.35
15.61
15.23
14.07
12.23
9.96
7.63
5.53
3.82
2.5
1.43
0.44
-0.59
-1.72
-2.99
-4.42
-6.06
-7.91
-9.97
-12.11
-14.16
-15.85
-16.95
-17.3
-16.9
-15.94
-14.67
-13.35
-12.1
-10.86
-9.5
-7.86
-5.93
-3.86
-1.89
-0.23
1.06
2.07
3.01
4.04
5.22
6.45
7.55
8.31
8.63
8.56
8.23
7.84
7.57
7.53
7.8
8.37
9.13
9.87
10.32
10.27
9.69
8.82
8.03
7.72
8.14
9.26
10.85
12.68
14.65
16.82
19.34
22.24
25.31
28.14
30.2
31.07
30.46
28.25
24.37
18.84
11.76
3.51
-5.21
-13.39
-19.97
-24.12
-25.5
-24.39
-21.53
-17.86
-14.25
-11.34
-9.43
-8.58
-8.66
-9.47
-10.71
-12.05
-13.16
-13.77
-13.75
-13.13
-12.07
-10.85
-9.72
-8.9
-8.48
-8.44
-8.62
-8.83
-8.87
-8.61
-8.02
-7.17
-6.19
-5.23
-4.43
-3.84
-3.49
-3.35
-3.35
-3.43
-3.52
-3.58
-3.61
-3.61
-3.6
-3.58
-3.49
-3.27
-2.86
-2.22
-1.39
-0.45
0.51
1.43
2.26
2.95
3.48
3.75
3.71
3.28
2.48
1.41
0.24
-0.87
-1.77
-2.42
-2.84
-3.12
-3.28
-3.31
-3.15
-2.71
-1.94
-0.89
0.33
1.6
2.8
3.87
4.8
5.58
6.2
6.63
6.86
6.84
6.61
6.23
5.8
5.37
5.03
4.77
4.59
4.46
4.39
4.36
4.37
4.4
4.42
4.43
4.43
4.44
4.46
4.48
4.45
4.32
4.08
3.77
3.49
3.35
3.43
3.74
4.19
4.64
4.95
5.06
5.05
5.1
5.44
6.27
7.61
9.35
11.28
13.16
14.88
16.45
18
19.64
21.39
23.19
24.9
26.44
27.87
29.35
31.11
33.32
35.94
38.77
41.55
44.06
46.2
48.02
49.59
50.98
52.15
53.03
53.54
53.59
53.14
52.06
50.21
47.41
43.5
38.44
32.26
25.1
17.11
8.4
-0.98
-10.96
-21.31
-31.51
-40.53
-47.09
-49.97
-48.58
-43.32
-35.59
-27.31
-20.27
-15.51
-13.19
-12.76
-13.56
-15.15
-17.52
-20.82
-25.11
-30.14
-35.4
-40.31
-44.42
-47.52
-49.6
-50.75
-51.05
-50.44
-48.84
-46.23
-42.74
-38.74
-34.79
-31.49
-29.25
-28.23
-28.23
-28.84
-29.6
-30.21
-30.55
-30.67
-30.65
-30.45
-29.94
-28.93
-27.3
-25.09
-22.47
-19.71
-17.09
-14.78
-12.83
-11.17
-9.66
-8.21
-6.76
-5.35
-4.04
-2.89
-1.87
-0.9
0.13
1.24
2.37
3.41
4.25
4.85
5.29
5.66
5.98
6.21
6.23
5.98
5.52
5.02
4.69
4.63
4.78
4.94
4.92
4.59
4
3.31
2.69
2.28
2.08
2.09
2.25
2.57
3.03
3.56
4.07
4.47
4.71
4.8
4.83
4.9
5.01
5.11
5.14
5.04
4.8
4.43
3.85
2.92
1.54
-0.28
-2.3
-4.16
-5.49
-6.09
-6.02
-5.52
-4.86
-4.18
-3.57
-3.06
-2.79
-2.93
-3.57
-4.53
-5.38
-5.53
-4.49
-2.16
1.2
5.01
8.64
11.61
13.61
14.52
14.3
13.03
10.91
8.3
5.74
3.74
2.67
2.66
3.57
5.06
6.75
8.23
9.22
9.52
9.07
8
6.51
4.89
3.4
2.26
1.63
1.6
2.21
3.41
5
6.71
8.16
9.06
9.24
8.72
7.66
6.25
4.69
3.12
1.68
0.45
-0.48
-1.07
-1.37
-1.4
-1.2
-0.69
0.21
1.62
3.46
5.4
6.93
7.46
6.64
4.54
1.69
-1.05
-2.83
-3.16
-1.97
0.34
3.21
6.13
8.78
11.02
12.78
14.01
14.71
14.94
14.94
15.01
15.49
16.53
18.09
19.86
21.42
22.39
22.59
22.17
21.64
21.71
22.94
25.46
28.7
31.47
32.28
29.87
23.68
14.09
2.33
-9.79
-20.31
-27.56
-30.54
-29.07
-23.98
-16.95
-10.15
-5.7
-4.98
-8.24
-14.46
-21.68
-27.65
-30.6
-29.78
-25.6
-19.34
-12.65
-6.93
-3.02
-1.13
-1.02
-2.27
-4.43
-7.06
-9.6
-11.49
-12.37
-12.17
-11.21
-10
-8.99
-8.34
-7.66
-6.11
-2.82
2.61
9.88
18
25.62
31.56
34.96
35.72
34.49
32.3
30.11
28.64
28.38
29.62
32.35
35.75
38.88
40.93
41.25
39.3
34.78
28.01
19.89
11.72
4.03
-2.32
-6.07
-6.4
-3.78
0.18
3.58
5.16
4.65
1.55
-3.16
-6.94
-7.69
-5.84
-4.76
-9.36
-24.12
-51.38
-92
-142.43
-194.11
-236.39
-260.32
-260.89
-237.45
-193.43
-124.63
-40.33
38.79
93.6
117.89
118.23
106.3
92.25
81.46
74.15
64.64
46.87
19.53
-14.06
-47.94
-75.44
-90.82
-90.94
-76.33
-45.71
-6.23
32.22
61.73
79.11
85.53
84.12
77.67
67.88
55.23
40.41
26.58
17.74
16.1
20.78
28.78
36.35
40.66
40.29
35.23
27.74
20.92
17.04
16.64
18.72
21.49
23.32
23.1
20.16
15.29
9.98
5.69
3.16
2.42
2.86
3.7
4.24
3.8
2.29
0.09
-2.19
-4.08
-5.32
-5.89
-5.93
-5.66
-5.41
-5.34
-5.49
-5.73
-5.99
-6.1
-5.81
-4.82
-3.02
-0.47
2.53
5.53
8.08
9.54
9.55
8.18
5.78
2.68
-0.94
-5.08
-9.79
-15.04
-20.99
-27.38
-33.41
-38.07
-40.72
-41.31
-40.39
-38.95
-37.94
-38.63
-41.53
-46.14
-51.29
-55.72
-58.6
-59.51
-58.59
-52.38
-40.05
-23.85
-7.71
5.4
14.34
18.95
20.57
20.27
19.01
17.01
14.58
12.28
10.58
9.51
8.77
8.1
7.39
6.86
6.45
6.18
6.28
6.97
8.33
10.22
12.37
14.31
15.56
15.44
13.63
10.41
6.6
3.19
1.01
0.51
1.63
4.07
7.36
11.16
15.29
19.55
23.57
26.73
28.49
28.62
27.43
25.6
23.93
22.94
22.7
22.85
22.87
22.44
21.59
20.65
20.04
20.11
21
22.67
24.99
27.71
30.45
32.7
33.8
33.17
30.44
25.73
19.64
13.17
7.37
3.09
0.65
-0.14
0.1
0.69
1.11
1.18
1
0.74
0.38
-0.32
-1.73
-4.14
-7.47
-11.28
-14.89
-17.68
-19.28
-19.7
-19.21
-18.1
-16.59
-14.78
-12.78
-10.81
-9.24
-8.35
-8.22
-8.55
-8.91
-8.94
-8.65
-8.35
-8.44
-9.1
-10.12
-11.1
-11.75
-12.15
-12.73
-13.94
-15.9
-18.24
-20.21
-21.14
-20.78
-19.38
-17.56
-15.95
-14.87
-14.32
-13.98
-13.5
-12.59
-11.18
-9.34
-7.25
-5.11
-3.13
-1.48
-0.36
0.08
-0.24
-1.23
-2.69
-4.32
-5.83
-7.09
-8.17
-9.29
-10.68
-12.43
-14.41
-16.29
-17.74
-18.47
-18.4
-17.67
-16.58
-15.46
-14.6
-14.11
-13.93
-13.83
-13.49
-12.59
-10.94
-8.51
-5.49
-2.21
0.91
3.45
5.16
5.93
5.87
5.22
4.29
3.41
2.78
2.53
2.68
3.16
3.83
4.46
4.8
4.62
3.83
2.53
1.04
-0.2
-0.77
-0.44
0.81
2.74
5.04
7.35
9.39
10.94
11.83
11.95
11.29
10.03
8.46
6.96
5.79
5.04
4.59
4.23
3.8
3.28
2.77
2.43
2.37
2.66
3.31
4.3
5.58
7.06
8.58
9.95
11.07
11.95
12.72
13.54
14.45
15.38
16.17
16.75
17.22
17.86
18.97
20.68
22.81
24.92
26.39
26.63
25.3
22.27
17.64
11.71
4.95
-2.08
-8.71
-14.31
-18.39
-20.71
-21.37
-20.72
-19.22
-17.3
-15.27
-13.34
-11.68
-10.45
-9.78
-9.71
-10.13
-10.75
-11.27
-11.46
-11.21
-10.58
-9.69
-8.63
-7.48
-6.24
-4.94
-3.68
-2.55
-1.68
-1.15
-0.91
-0.87
-0.85
-0.67
-0.21
0.59
1.68
2.94
4.21
5.29
6.04
6.41
6.43
6.28
6.18
6.27
6.59
7.05
7.47
7.72
7.79
7.83
8.07
8.66
9.63
10.91
12.38
13.96
15.61
17.33
19.07
20.81
22.5
24.17
25.87
27.62
29.44
31.22
32.82
34.15
35.15
35.79
35.94
35.38
33.7
30.52
25.6
19.02
11.2
2.81
-5.38
-12.68
-18.67
-23.17
-26.27
-28.2
-29.21
-29.46
-29.03
-27.94
-26.3
-24.32
-22.31
-20.51
-18.97
-17.53
-15.87
-13.73
-11
-7.83
-4.51
-1.41
1.17
3.01
4.08
4.47
4.46
4.45
4.92
6.22
8.47
11.37
14.22
16.06
15.87
13
7.35
-0.45
-9.15
-17.26
-23.44
-26.86
-27.36
-25.32
-21.45
-16.55
-11.37
-6.6
-2.88
-0.68
-0.3
-1.66
-4.36
-7.76
-11.18
-14.07
-16.19
-17.57
-18.44
-19.02
-19.45
-19.7
-19.64
-19.17
-18.27
-17.08
-15.83
-14.7
-13.77
-12.98
-12.18
-11.26
-10.18
-9.02
-7.91
-6.96
-6.17
-5.52
-4.92
-4.33
-3.72
-3.08
-2.4
-1.61
-0.65
0.52
1.87
3.27
4.59
5.67
6.43
6.85
6.97
6.87
6.61
6.24
5.78
5.23
4.6
3.95
3.3
2.74
2.32
2.11
2.18
2.6
3.4
4.53
5.84
7.11
8.12
8.73
8.92
8.75
8.35
7.83
7.32
6.87
6.53
6.31
6.17
6.04
5.83
5.48
5.02
4.54
4.16
3.94
3.87
3.88
3.89
3.84
3.69
3.45
3.08
2.54
1.78
0.8
-0.36
-1.54
-2.55
-3.2
-3.38
-3.09
-2.41
-1.51
-0.55
0.36
1.15
1.83
2.4
2.93
3.42
3.9
4.34
4.74
5.08
5.38
5.63
5.82
5.93
5.9
5.73
5.47
5.21
5.08
5.13
5.3
5.48
5.55
5.43
5.12
4.71
4.28
3.89
3.54
3.21
2.85
2.43
1.93
1.36
0.75
0.18
-0.28
-0.57
-0.69
-0.67
-0.54
-0.3
0.06
0.51
0.98
1.34
1.43
1.15
0.5
-0.43
-1.48
-2.51
-3.43
-4.22
-4.9
-5.49
-6.04
-6.53
-6.95
-7.24
-7.34
-7.18
-6.75
-6.09
-5.25
-4.26
-3.11
-1.79
-0.27
1.38
3.03
4.47
5.52
6.1
6.2
5.98
5.62
5.28
5.07
4.99
4.97
4.95
4.9
4.89
5.04
5.45
6.07
6.78
7.38
7.71
7.76
7.67
7.6
7.65
7.79
7.91
7.89
7.73
7.54
7.44
7.5
7.63
7.69
7.51
7.07
6.45
5.82
5.34
5.05
4.9
4.74
4.46
4.02
3.44
2.79
2.13
1.49
0.85
0.17
-0.55
-1.23
-1.73
-1.89
-1.6
-0.9
0.03
0.92
1.52
1.75
1.67
1.49
1.4
1.46
1.58
1.58
1.33
0.82
0.21
-0.35
-0.78
-1.09
-1.36
-1.65
-1.92
-2.09
-2.13
-2.09
-2.11
-2.31
-2.72
-3.24
-3.74
-4.11
-4.34
-4.48
-4.59
-4.68
-4.74
-4.74
-4.72
-4.68
-4.63
-4.54
-4.3
-3.87
-3.27
-2.59
-1.97
-1.52
-1.26
-1.16
-1.16
-1.23
-1.34
-1.5
-1.73
-2.04
-2.43
-2.87
-3.27
-3.56
-3.64
-3.48
-3.11
-2.63
-2.15
-1.75
-1.44
-1.22
-1.01
-0.78
-0.51
-0.22
0.05
0.23
0.29
0.21
-0
-0.33
-0.73
-1.2
-1.71
-2.2
-2.59
-2.8
-2.78
-2.55
-2.19
-1.77
-1.36
-0.99
-0.67
-0.4
-0.23
-0.14
-0.13
-0.12
-0.04
0.15
0.39
0.64
0.85
1.03
1.26
1.57
1.97
2.39
2.79
3.18
3.57
3.99
4.41
4.77
4.98
5
4.89
4.74
4.62
4.56
4.49
4.35
4.14
3.92
3.78
3.78
3.9
4.08
4.24
4.3
4.26
4.15
4
3.84
3.67
3.47
3.24
2.96
2.66
2.38
2.12
1.87
1.55
1.08
0.4
-0.45
-1.37
-2.23
-2.93
-3.47
-3.94
-4.42
-4.95
-5.47
-5.89
-6.13
-6.19
-6.11
-5.95
-5.76
-5.54
-5.27
-4.93
-4.48
-3.91
-3.24
-2.5
-1.77
-1.13
-0.69
-0.48
-0.5
-0.7
-1.03
-1.45
-1.91
-2.37
-2.79
-3.12
-3.33
-3.4
-3.31
-3.04
-2.54
-1.81
-0.88
0.16
1.2
2.12
2.82
3.27
3.48
3.53
3.54
3.65
3.96
4.46
4.97
5.25
5.04
4.25
3
1.63
0.5
-0.07
0.01
0.64
1.6
2.63
3.48
3.96
3.91
3.33
2.37
1.39
0.86
1.21
2.67
5.16
8.25
11.35
13.87
15.37
15.71
15.03
13.72
12.29
11.28
11.1
11.92
13.65
15.88
18.06
19.68
20.4
20.26
19.66
19.29
19.89
22
25.56
29.82
33.34
34.42
31.55
24.12
12.67
-1.09
-14.81
-26.2
-33.69
-36.72
-35.73
-31.77
-26.09
-19.82
-13.9
-9.1
-6.06
-5.22
-6.68
-10.1
-14.65
-19.24
-22.8
-24.7
-24.9
-23.91
-22.51
-21.4
-20.86
-20.68
-20.24
-18.86
-16.06
-11.77
-6.52
-1.25
2.8
4.54
3.4
-0.33
-5.53
-10.45
-13.39
-13.29
-10.17
-5.02
0.56
5.08
7.65
8.18
7.27
5.77
4.46
3.76
3.74
4.13
4.49
4.3
3.24
1.25
-1.27
-3.56
-4.73
-4.1
-1.49
2.63
7.42
11.96
15.6
18.14
19.68
20.42
20.51
19.95
18.78
17.2
15.57
14.41
14.16
15.05
16.99
19.6
22.36
24.74
26.31
26.8
26.08
24.19
21.26
17.48
13.09
8.28
3.18
-2.09
-7.37
-12.41
-16.71
-19.59
-20.32
-18.38
-13.84
-7.55
-1.12
3.49
4.65
1.7
-4.69
-12.75
-20.22
-25.18
-26.67
-24.83
-20.57
-15.07
-9.34
-4
0.63
4.37
7.07
8.66
9.26
9.21
9.07
9.4
10.58
12.65
15.32
18
20.08
21.11
20.99
19.96
18.57
17.42
16.9
17.07
17.65
18.13
18.02
17.02
15.1
12.45
9.37
6.1
2.84
-0.28
-3.09
-5.43
-7.21
-8.48
-9.57
-10.94
-13.04
-16.05
-19.73
-23.53
-26.68
-28.56
-28.83
-27.53
-24.98
-21.68
-18.16
-14.92
-12.35
-10.68
-9.95
-10.06
-10.84
-12.08
-13.64
-15.34
-16.94
-18.15
-18.66
-18.26
-16.97
-15.07
-12.94
-10.97
-9.37
-8.08
-6.81
-5.18
-2.82
0.44
4.5
8.91
12.89
15.47
15.67
12.72
6.31
-3.27
-15.02
-27.4
-38.48
-46.32
-49.38
-46.95
-39.35
-28.02
-15.2
-3.38
5.26
9.48
9.11
4.96
-1.52
-8.7
-15.06
-19.48
-21.3
-20.45
-17.42
-13.13
-8.76
-5.43
-3.88
-4.35
-6.59
-10.06
-14.23
-18.66
-23.08
-27.35
-31.39
-35.1
-38.35
-40.97
-42.77
-43.57
-43.26
-41.83
-39.43
-36.34
-32.89
-29.37
-25.9
-22.47
-18.92
-15.11
-10.94
-6.44
-1.75
2.93
7.31
11.1
14.04
16
17.04
17.45
17.68
18.19
19.32
21.17
23.59
26.17
28.36
29.54
29.12
26.71
22.24
16.08
8.97
1.86
-4.34
-8.98
-11.72
-12.53
-11.52
-8.93
-5.1
-0.68
3.41
6.12
6.54
4.25
-0.5
-6.83
-13.5
-19.27
-23.24
-24.98
-24.51
-22.1
-18.22
-13.41
-8.26
-3.44
0.46
3.01
4.1
3.93
2.99
1.84
0.94
0.58
0.77
1.41
2.34
3.41
4.5
5.45
6.15
6.52
6.57
6.4
6.12
5.84
5.6
5.41
5.18
4.89
4.55
4.18
3.79
3.35
2.82
2.18
1.55
1.11
1.12
1.72
2.89
4.4
5.93
7.18
7.99
8.36
8.34
8.02
7.43
6.57
5.5
4.31
3.14
2.08
1.12
0.19
-0.79
-1.8
-2.7
-3.3
-3.42
-2.98
-2.07
-0.9
0.25
1.17
1.78
2.17
2.53
3.07
3.89
4.88
5.81
6.38
6.42
5.9
5
3.99
3.13
2.6
2.47
2.67
3.1
3.57
3.97
4.21
4.26
4.15
3.94
3.66
3.34
3
2.6
2.13
1.55
0.85
0.06
-0.71
-1.3
-1.52
-1.33
-0.8
-0.13
0.48
0.9
1.19
1.53
2.07
2.89
3.92
5.01
6.02
6.87
7.53
8.05
8.42
8.61
8.59
8.39
8.07
7.7
7.34
7.03
6.77
6.58
6.47
6.44
6.52
6.66
6.83
7.02
7.23
7.5
7.84
8.24
8.68
9.09
9.41
9.6
9.61
9.41
9.04
8.55
8.05
7.6
7.27
7.04
6.9
6.82
6.8
6.86
6.96
7.01
6.85
6.29
5.22
3.61
1.57
-0.7
-2.99
-5.09
-6.84
-8.17
-9.05
-9.52
-9.63
-9.41
-8.89
-8.07
-6.96
-5.62
-4.16
-2.72
-1.44
-0.35
0.6
1.53
2.54
3.66
4.84
5.99
7.05
8.04
9.02
10.02
11.05
12
12.75
13.16
13.2
12.92
12.39
11.73
11.06
10.42
9.81
9.16
8.37
7.32
5.98
4.38
2.68
1.09
-0.23
-1.18
-1.76
-2.02
-2.09
-2.08
-2.23
-2.78
-3.95
-5.89
-8.55
-11.62
-14.6
-16.98
-18.39
-18.71
-18.07
-16.73
-14.93
-12.82
-10.43
-7.78
-4.93
-2.07
0.56
2.75
4.38
5.48
6.22
6.78
7.3
7.85
8.4
8.88
9.24
9.42
9.41
9.23
8.88
8.37
7.7
6.91
6.05
5.18
4.41
3.84
3.53
3.5
3.7
4.03
4.4
4.7
4.89
4.92
4.77
4.41
3.84
3.07
2.14
1.11
-0.01
-1.22
-2.51
-3.79
-4.88
-5.51
-5.44
-4.56
-2.96
-0.91
1.19
2.99
4.22
4.76
4.64
3.92
2.73
1.17
-0.61
-2.45
-4.19
-5.62
-6.58
-6.94
-6.67
-5.82
-4.55
-3.07
-1.58
-0.16
1.14
2.37
3.54
4.61
5.45
5.95
6.07
5.84
5.4
4.84
4.17
3.33
2.21
0.75
-1.01
-2.93
-4.82
-6.45
-7.56
-7.96
-7.49
-6.14
-4.06
-1.6
0.79
2.64
3.61
3.57
2.59
0.92
-1.15
-3.27
-5.18
-6.67
-7.65
-8.13
-8.15
-7.81
-7.15
-6.19
-4.95
-3.47
-1.88
-0.34
0.99
2.02
2.78
3.39
4.01
4.77
5.71
6.8
7.97
9.11
10.14
10.96
11.54
11.86
12
12.07
12.22
12.54
13.04
13.69
14.39
15.02
15.44
15.49
15.05
14.05
12.51
10.53
8.28
5.91
3.58
1.41
-0.48
-1.96
-2.9
-3.3
-3.27
-2.99
-2.63
-2.28
-1.98
-1.74
-1.63
-1.81
-2.4
-3.41
-4.65
-5.83
-6.68
-7.16
-7.41
-7.76
-8.47
-9.66
-11.23
-12.93
-14.51
-15.78
-16.62
-16.95
-16.68
-15.7
-13.96
-11.54
-8.7
-5.79
-3.18
-1.13
0.32
1.25
1.79
2.06
2.07
1.77
1.11
0.13
-1.08
-2.37
-3.62
-4.74
-5.71
-6.58
-7.38
-8.15
-8.87
-9.48
-9.85
-9.88
-9.47
-8.66
-7.61
-6.55
-5.69
-5.14
-4.84
-4.58
-4.15
-3.38
-2.25
-0.91
0.44
1.59
2.43
2.98
3.37
3.71
4.09
4.52
4.98
5.42
5.84
6.25
6.69
7.21
7.85
8.64
9.57
10.57
11.51
12.19
12.45
12.19
11.46
10.41
9.23
8.07
7.02
6.08
5.2
4.33
3.37
2.24
0.84
-0.83
-2.69
-4.52
-6.09
-7.22
-7.9
-8.23
-8.4
-8.56
-8.78
-9.04
-9.26
-9.34
-9.19
-8.73
-7.98
-7
-5.93
-5
-4.39
-4.22
-4.49
-5.12
-5.98
-6.93
-7.87
-8.69
-9.31
-9.63
-9.6
-9.2
-8.52
-7.69
-6.87
-6.2
-5.74
-5.46
-5.26
-5.02
-4.65
-4.09
-3.3
-2.34
-1.22
0.03
1.41
2.9
4.47
5.98
7.26
8.1
8.37
8.07
7.32
6.32
5.23
4.12
2.93
1.6
0.15
-1.31
-2.57
-3.43
-3.79
-3.68
-3.25
-2.7
-2.17
-1.74
-1.4
-1.09
-0.74
-0.34
0.06
0.42
0.68
0.89
1.14
1.55
2.18
3
3.92
4.79
5.5
5.97
6.2
6.21
6.04
5.78
5.45
5.08
4.67
4.2
3.68
3.17
2.79
2.62
2.71
2.95
3.24
3.43
3.47
3.34
3.05
2.56
1.82
0.86
-0.22
-1.17
-1.72
-1.7
-1.11
-0.15
0.94
1.92
2.7
3.27
3.68
3.96
4.1
4.1
3.95
3.7
3.38
3.03
2.69
2.4
2.16
2.03
1.99
2.03
2.08
2.11
2.07
1.97
1.84
1.7
1.54
1.35
1.08
0.74
0.32
-0.12
-0.56
-0.95
-1.25
-1.4
-1.31
-0.87
-0.03
1.16
2.54
3.86
4.9
5.55
5.82
5.86
5.82
5.82
5.89
5.99
6.11
6.22
6.35
6.55
6.84
7.21
7.61
7.96
8.19
8.26
8.17
7.94
7.58
7.07
6.35
5.33
3.93
2.13
-0.01
-2.31
-4.5
-6.31
-7.51
-7.99
-7.79
-7.07
-6.04
-4.93
-3.88
-2.97
-2.22
-1.64
-1.17
-0.78
-0.41
-0.04
0.3
0.49
0.44
0.1
-0.47
-1.09
-1.51
-1.54
-1.12
-0.38
0.43
1.01
1.12
0.67
-0.27
-1.49
-2.72
-3.72
-4.32
-4.5
-4.31
-3.86
-3.33
-2.85
-2.54
-2.45
-2.56
-2.76
-2.89
-2.82
-2.47
-1.86
-1.1
-0.29
0.45
1.08
1.61
2.02
2.3
2.42
2.35
2.15
1.91
1.77
1.81
2.01
2.26
2.38
2.24
1.79
1.14
0.49
0.03
-0.14
-0.04
0.19
0.36
0.35
0.12
-0.26
-0.69
-1.09
-1.41
-1.68
-1.93
-2.18
-2.44
-2.7
-2.99
-3.34
-3.73
-4.14
-4.47
-4.62
-4.48
-4.04
-3.33
-2.48
-1.61
-0.86
-0.28
0.13
0.4
0.62
0.85
1.07
1.24
1.28
1.15
0.87
0.51
0.14
-0.21
-0.55
-0.91
-1.31
-1.72
-2.05
-2.24
-2.23
-2.04
-1.73
-1.39
-1.13
-1
-1
-1.07
-1.1
-0.97
-0.66
-0.24
0.16
0.39
0.39
0.19
-0.17
-0.64
-1.31
-2.24
-3.48
-4.92
-6.34
-7.47
-8.14
-8.32
-8.12
-7.69
-7.18
-6.63
-6.03
-5.37
-4.64
-3.92
-3.25
-2.7
-2.25
-1.87
-1.52
-1.19
-0.89
-0.7
-0.68
-0.83
-1.12
-1.45
-1.7
-1.83
-1.84
-1.83
-1.87
-1.97
-2.05
-1.98
-1.68
-1.21
-0.71
-0.39
-0.37
-0.65
-1.15
-1.69
-2.14
-2.37
-2.35
-2.05
-1.53
-0.87
-0.24
0.2
0.33
0.12
-0.36
-0.89
-1.27
-1.32
-0.97
-0.29
0.53
1.25
1.64
1.56
1.05
0.25
-0.58
-1.21
-1.49
-1.38
-0.96
-0.35
0.3
0.88
1.31
1.56
1.67
1.69
1.71
1.76
1.81
1.79
1.59
1.2
0.66
0.13
-0.23
-0.32
-0.09
0.36
0.9
1.36
1.63
1.65
1.43
1
0.44
-0.16
-0.74
-1.22
-1.55
-1.69
-1.67
-1.56
-1.5
-1.61
-1.95
-2.5
-3.1
-3.62
-3.94
-4.06
-4
-3.78
-3.35
-2.66
-1.72
-0.61
0.45
1.25
1.7
1.84
1.84
1.89
2.06
2.35
2.7
3.07
3.49
3.99
4.55
5.1
5.51
5.68
5.6
5.31
4.87
4.36
3.8
3.23
2.71
2.32
2.11
2.07
2.12
2.18
2.19
2.12
1.97
1.75
1.41
0.94
0.39
-0.15
-0.56
-0.77
-0.82
-0.82
-0.91
-1.2
-1.6
-1.96
-2.09
-1.85
-1.3
-0.59
0.08
0.52
0.66
0.51
0.14
-0.35
-0.86
-1.28
-1.52
-1.52
-1.27
-0.78
-0.08
0.75
1.65
2.52
3.27
3.84
4.24
4.56
4.87
5.25
5.68
6.1
6.42
6.62
6.76
6.97
7.39
8.11
9.16
10.44
11.86
13.25
14.54
15.66
16.67
17.66
18.78
20.17
21.94
24.16
26.81
29.81
32.99
36.13
39.01
41.51
43.58
45.27
46.72
48.08
49.46
50.75
51.6
51.42
49.52
45.41
39.1
31.21
22.75
14.77
7.9
2.19
-2.74
-7.38
-11.96
-16.37
-20.33
-23.67
-26.47
-28.9
-31.07
-32.86
-33.96
-34.1
-33.28
-31.8
-30.14
-28.65
-27.44
-26.4
-25.33
-24.13
-22.89
-21.76
-20.86
-20.22
-19.73
-19.31
-18.91
-18.56
-18.32
-18.14
-17.9
-17.32
-16.14
-14.22
-11.62
-8.62
-5.67
-3.24
-1.72
-1.34
-2.06
-3.66
-5.75
-7.87
-9.66
-10.93
-11.74
-12.31
-12.97
-13.96
-15.28
-16.77
-18.11
-19.06
-19.52
-19.62
-19.57
-19.61
-19.86
-20.27
-20.7
-20.93
-20.77
-20.08
-18.77
-16.86
-14.45
-11.69
-8.79
-5.95
-3.34
-1.07
0.82
2.36
3.65
4.84
6.06
7.39
8.77
10.08
11.16
11.95
12.47
12.86
13.25
13.73
14.28
14.87
15.46
16.02
16.58
17.14
17.68
18.14
18.48
18.71
18.91
19.17
19.56
20.1
20.75
21.45
22.14
22.72
23.08
23.03
22.36
20.87
18.39
14.76
9.89
3.74
-3.53
-11.54
-19.64
-27.03
-32.95
-36.84
-38.5
-38.02
-35.68
-31.9
-27.1
-21.78
-16.46
-11.6
-7.49
-4.1
-1.1
2
5.57
9.59
13.5
16.29
16.84
14.3
8.44
-0.13
-10.14
-19.89
-27.83
-32.88
-34.68
-33.56
-30.34
-25.99
-21.37
-17.13
-13.62
-10.97
-9.14
-8.01
-7.37
-6.95
-6.48
-5.66
-4.28
-2.26
0.32
3.25
6.25
9.11
11.73
14.22
16.77
19.6
22.75
26.06
29.17
31.69
33.32
33.97
33.71
32.61
30.72
27.97
24.28
19.64
14.13
7.92
1.2
-5.82
-12.81
-19.3
-24.68
-28.35
-29.97
-29.59
-27.76
-25.29
-22.97
-21.32
-20.46
-20.21
-20.25
-20.32
-20.36
-20.41
-20.55
-20.75
-20.84
-20.54
-19.6
-17.87
-15.43
-12.5
-9.38
-6.32
-3.47
-0.87
1.52
3.68
5.55
7.06
8.13
8.82
9.32
9.86
10.65
11.77
13.19
14.82
16.56
18.37
20.21
21.94
23.32
24.01
23.72
22.35
20.11
17.51
15.24
13.87
13.72
14.74
16.58
18.73
20.75
22.31
23.24
23.49
23.03
21.84
20
17.68
15.14
12.64
10.31
8.03
5.52
2.46
-1.23
-5.33
-9.37
-12.88
-15.62
-17.67
-19.36
-21.02
-22.84
-24.84
-27.03
-29.53
-32.61
-36.56
-41.45
-46.98
-52.53
-57.31
-60.67
-62.22
-61.84
-59.6
-55.67
-50.24
-43.64
-36.31
-28.81
-21.7
-15.39
-10
-5.4
-1.33
2.28
5.2
6.88
6.73
4.49
0.57
-3.92
-7.41
-8.44
-6.19
-0.82
6.56
14.28
20.61
24.29
24.77
22.27
17.62
12.03
6.8
3.07
1.5
2.16
4.48
7.42
9.85
10.95
10.38
8.35
5.32
1.89
-1.32
-3.7
-4.63
-3.63
-0.56
4.08
9.17
13.15
14.61
12.7
7.5
-0.03
-8.45
-16.3
-22.44
-26.3
-27.79
-27.14
-24.76
-21.14
-16.75
-12.12
-7.77
-4.14
-1.57
-0.22
-0.03
-0.76
-2.04
-3.48
-4.72
-5.54
-5.84
-5.64
-5.07
-4.29
-3.39
-2.39
-1.22
0.17
1.76
3.41
4.95
6.2
7.11
7.73
8.21
8.68
9.13
9.46
9.5
9.14
8.43
7.53
6.67
6
5.52
5.14
4.79
4.48
4.27
4.24
4.31
4.23
3.63
2.2
-0.18
-3.32
-6.79
-10.02
-12.44
-13.53
-12.88
-10.3
-5.91
-0.24
5.85
11.34
15.4
17.6
18.02
17.12
15.47
13.57
11.79
10.38
9.56
9.53
10.39
12.05
14.16
16.17
17.45
17.53
16.19
13.61
10.32
7.12
4.82
3.99
4.8
6.92
9.71
12.47
14.65
16.09
16.89
17.28
17.47
17.5
17.29
16.76
15.97
15.11
14.48
14.26
14.42
14.7
14.75
14.32
13.41
12.32
11.52
11.41
12.12
13.49
15.06
16.23
16.36
14.85
11.28
5.55
-1.96
-10.36
-18.41
-24.82
-28.68
-29.78
-28.55
-25.9
-22.79
-19.96
-17.74
-16.17
-15.12
-14.47
-14.18
-14.2
-14.44
-14.69
-14.65
-14.07
-12.84
-11.03
-8.89
-6.73
-4.82
-3.29
-2.16
-1.34
-0.72
-0.19
0.32
0.87
1.51
2.25
3.09
4.02
4.99
5.97
6.92
7.79
8.53
9.05
9.29
9.26
9.03
8.78
8.72
9.03
9.84
11.1
12.67
14.32
15.81
16.86
17.25
16.75
15.27
12.85
9.7
6.21
2.78
-0.21
-2.6
-4.38
-5.67
-6.58
-7.17
-7.42
-7.29
-6.8
-6.06
-5.21
-4.43
-3.72
-2.98
-2.03
-0.76
0.78
2.39
3.73
4.55
4.75
4.46
3.9
3.33
2.89
2.63
2.52
2.5
2.46
2.31
1.92
1.23
0.31
-0.64
-1.34
-1.53
-1.15
-0.35
0.58
1.36
1.81
1.89
1.65
1.13
0.33
-0.8
-2.24
-3.96
-5.77
-7.46
-8.77
-9.5
-9.51
-8.83
-7.64
-6.17
-4.67
-3.27
-1.95
-0.62
0.78
2.26
3.67
4.87
5.75
6.3
6.54
6.51
6.24
5.74
5.1
4.55
4.37
4.83
6.03
7.93
10.34
13.01
15.64
17.94
19.57
20.18
19.46
17.32
14.01
10.12
6.43
3.65
2.14
1.77
2.01
2.18
1.7
0.37
-1.63
-3.85
-5.89
-7.53
-8.83
-10
-11.21
-12.49
-13.63
-14.41
-14.68
-14.5
-14.1
-13.75
-13.6
-13.66
-13.78
-13.79
-13.59
-13.2
-12.72
-12.28
-11.96
-11.75
-11.55
-11.2
-10.55
-9.52
-8.16
-6.61
-5.09
-3.79
-2.79
-2
-1.22
-0.27
0.95
2.33
3.62
4.51
4.79
4.42
3.5
2.25
0.85
-0.56
-1.89
-3.03
-3.87
-4.29
-4.18
-3.56
-2.54
-1.3
-0.07
0.98
1.77
2.28
2.58
2.72
2.78
2.79
2.77
2.72
2.66
2.6
2.55
2.55
2.56
2.55
2.48
2.3
2.07
1.88
1.85
2.08
2.56
3.17
3.72
4.06
4.1
3.9
3.59
3.32
3.14
3.03
2.93
2.77
2.55
2.29
2.01
1.76
1.54
1.38
1.31
1.37
1.59
1.95
2.47
3.12
3.88
4.77
5.72
6.63
7.37
7.82
7.9
7.61
7.02
6.3
5.6
5.09
4.87
4.95
5.23
5.54
5.75
5.72
5.45
4.96
4.37
3.78
3.28
2.93
2.73
2.63
2.53
2.34
2.03
1.6
1.1
0.6
0.11
-0.37
-0.85
-1.31
-1.7
-1.93
-1.93
-1.7
-1.25
-0.62
0.15
1.01
1.92
2.79
3.53
4.07
4.37
4.44
4.33
4.09
3.75
3.35
2.92
2.52
2.17
1.91
1.71
1.54
1.34
1.11
0.84
0.55
0.28
0.06
-0.1
-0.22
-0.37
-0.64
-1.1
-1.81
-2.72
-3.72
-4.69
-5.52
-6.2
-6.8
-7.44
-8.18
-9.02
-9.87
-10.55
-10.89
-10.78
-10.22
-9.3
-8.23
-7.23
-6.49
-6.11
-6.09
-6.33
-6.67
-6.95
-7
-6.65
-5.84
-4.57
-3.05
-1.63
-0.68
-0.42
-0.79
-1.41
-1.79
-1.49
-0.34
1.51
3.75
6.05
8.23
10.29
12.35
14.42
16.35
17.79
18.3
17.57
15.49
12.23
8.29
4.26
0.7
-2.02
-3.76
-4.59
-4.66
-4.09
-2.98
-1.4
0.49
2.45
4.17
5.42
6.14
6.42
6.47
6.49
6.52
6.48
6.22
5.65
4.81
3.85
3.01
2.44
2.16
2.08
2.04
1.9
1.57
1
0.21
-0.74
-1.77
-2.72
-3.42
-3.74
-3.64
-3.2
-2.57
-1.94
-1.42
-1.08
-0.93
-0.91
-1
-1.14
-1.26
-1.28
-1.13
-0.77
-0.24
0.38
0.99
1.55
2.05
2.5
2.95
3.35
3.64
3.73
3.56
3.13
2.5
1.76
1.01
0.3
-0.31
-0.79
-1.06
-1.06
-0.72
-0.02
0.94
1.99
2.93
3.56
3.79
3.65
3.23
2.65
1.98
1.26
0.45
-0.48
-1.52
-2.58
-3.52
-4.21
-4.54
-4.49
-4.14
-3.62
-3.11
-2.77
-2.72
-2.94
-3.34
-3.75
-3.98
-3.93
-3.57
-2.96
-2.18
-1.33
-0.46
0.42
1.31
2.22
3.15
4.07
4.92
5.64
6.12
6.29
6.12
5.63
4.93
4.13
3.34
2.65
2.1
1.69
1.36
1.02
0.57
-0.04
-0.76
-1.44
-1.88
-1.92
-1.51
-0.78
0.06
0.75
1.11
1.11
0.86
0.48
0.11
-0.25
-0.68
-1.3
-2.14
-3.14
-4.07
-4.72
-4.92
-4.68
-4.22
-3.8
-3.65
-3.81
-4.12
-4.31
-4.13
-3.47
-2.41
-1.13
0.12
1.15
1.88
2.36
2.67
2.9
3.11
3.29
3.41
3.44
3.39
3.25
3.04
2.74
2.33
1.78
1.1
0.34
-0.41
-1.08
-1.63
-2.03
-2.31
-2.52
-2.69
-2.85
-3.05
-3.29
-3.56
-3.82
-4
-4.07
-4.06
-4.02
-4.04
-4.13
-4.25
-4.34
-4.31
-4.19
-4.06
-3.99
-3.98
-3.96
-3.78
-3.39
-2.82
-2.21
-1.7
-1.34
-1.08
-0.78
-0.39
0.11
0.61
1.04
1.34
1.51
1.6
1.62
1.55
1.36
1.03
0.62
0.24
0.03
0.1
0.46
1
1.52
1.83
1.78
1.41
0.82
0.22
-0.27
-0.6
-0.8
-0.95
-1.12
-1.35
-1.64
-1.95
-2.25
-2.52
-2.73
-2.87
-2.95
-3
-3.06
-3.19
-3.4
-3.66
-3.92
-4.11
-4.2
-4.16
-4.03
-3.81
-3.54
-3.2
-2.77
-2.23
-1.58
-0.82
0.01
0.85
1.65
2.33
2.83
3.12
3.24
3.23
3.2
3.2
3.28
3.45
3.71
4.04
4.42
4.79
5.08
5.22
5.19
5.04
4.84
4.7
4.62
4.54
4.38
4.01
3.42
2.63
1.7
0.73
-0.21
-1.01
-1.54
-1.68
-1.37
-0.65
0.24
0.98
1.24
0.8
-0.35
-2.02
-3.94
-5.83
-7.47
-8.74
-9.58
-9.98
-9.99
-9.69
-9.22
-8.71
-8.29
-7.97
-7.71
-7.41
-7.01
-6.48
-5.87
-5.27
-4.75
-4.33
-3.97
-3.59
-3.08
-2.41
-1.6
-0.77
-0.04
0.46
0.74
0.87
0.96
1.16
1.52
2.03
2.61
3.14
3.52
3.69
3.67
3.54
3.43
3.43
3.63
3.96
4.32
4.58
4.65
4.57
4.4
4.22
4.02
3.68
3.06
2.05
0.66
-0.99
-2.67
-4.16
-5.25
-5.81
-5.75
-5.02
-3.66
-1.83
0.2
2.03
3.26
3.62
3.03
1.73
0.09
-1.46
-2.62
-3.3
-3.54
-3.48
-3.2
-2.76
-2.2
-1.6
-1.09
-0.78
-0.74
-0.93
-1.2
-1.39
-1.41
-1.2
-0.82
-0.37
0.04
0.34
0.45
0.35
0.03
-0.44
-0.95
-1.36
-1.56
-1.51
-1.29
-1.05
-0.92
-0.98
-1.14
-1.29
-1.31
-1.18
-0.97
-0.75
-0.55
-0.33
-0
0.48
1.14
1.9
2.72
3.55
4.39
5.25
6.11
6.92
7.6
8.05
8.22
8.09
7.68
7.06
6.32
5.56
4.91
4.44
4.22
4.29
4.65
5.22
5.9
6.56
7.05
7.27
7.14
6.68
5.96
5.1
4.27
3.53
2.88
2.22
1.45
0.5
-0.55
-1.54
-2.32
-2.82
-3.13
-3.46
-4.03
-4.93
-6.04
-7.12
-7.86
-8.04
-7.64
-6.74
-5.54
-4.2
-2.85
-1.56
-0.43
0.42
0.88
0.87
0.42
-0.28
-0.97
-1.43
-1.52
-1.27
-0.79
-0.24
0.31
0.82
1.34
1.92
2.58
3.35
4.2
5.1
6
6.81
7.42
7.74
7.75
7.48
6.96
6.25
5.37
4.35
3.27
2.24
1.34
0.54
-0.31
-1.43
-3
-5.04
-7.4
-9.8
-11.96
-13.67
-14.77
-15.22
-14.96
-13.99
-12.41
-10.38
-8.18
-6.09
-4.31
-2.88
-1.77
-0.86
-0.04
0.72
1.39
1.96
2.36
2.63
2.8
2.92
3.01
3.03
2.91
2.64
2.29
2
1.91
2.1
2.49
2.92
3.19
3.15
2.75
2
0.98
-0.18
-1.27
-2.07
-2.36
-2.06
-1.25
-0.21
0.69
1.17
1.06
0.42
-0.62
-1.86
-3.1
-4.15
-4.85
-5.07
-4.74
-3.93
-2.77
-1.46
-0.16
1.02
1.97
2.61
2.89
2.78
2.36
1.73
1.02
0.34
-0.26
-0.73
-1.02
-1.07
-0.87
-0.48
-0.02
0.37
0.64
0.79
0.94
1.17
1.49
1.81
1.99
1.92
1.6
1.12
0.62
0.24
0.05
0.06
0.19
0.34
0.45
0.46
0.36
0.13
-0.27
-0.84
-1.54
-2.29
-2.95
-3.43
-3.68
-3.71
-3.63
-3.5
-3.32
-3.02
-2.53
-1.82
-0.94
-0
0.88
1.65
2.32
2.92
3.45
3.89
4.2
4.38
4.47
4.57
4.75
5.02
5.33
5.57
5.65
5.53
5.28
5.01
4.84
4.83
4.92
4.95
4.75
4.19
3.21
1.91
0.39
-1.21
-2.78
-4.26
-5.57
-6.62
-7.33
-7.68
-7.7
-7.47
-7.09
-6.65
-6.19
-5.75
-5.35
-5
-4.69
-4.36
-3.94
-3.41
-2.78
-2.08
-1.35
-0.61
0.16
0.96
1.75
2.43
2.95
3.28
3.52
3.79
4.18
4.69
5.2
5.59
5.78
5.84
5.9
6.08
6.4
6.74
6.87
6.6
5.86
4.71
3.32
1.92
0.66
-0.37
-1.12
-1.62
-1.92
-2.11
-2.23
-2.37
-2.57
-2.88
-3.37
-4.04
-4.85
-5.66
-6.3
-6.63
-6.61
-6.33
-5.95
-5.6
-5.28
-4.88
-4.29
-3.47
-2.53
-1.66
-1.06
-0.78
-0.72
-0.64
-0.36
0.2
0.94
1.63
2.08
2.19
2.06
1.92
1.95
2.27
2.81
3.41
3.89
4.21
4.44
4.72
5.17
5.79
6.46
7.04
7.44
7.7
7.93
8.26
8.74
9.31
9.86
10.31
10.65
10.92
11.22
11.61
12.09
12.62
13.14
13.61
14.01
14.32
14.51
14.51
14.27
13.76
12.92
11.73
10.19
8.3
6.17
3.95
1.87
0.19
-0.86
-1.1
-0.51
0.81
2.63
4.61
6.37
7.56
7.93
7.43
6.18
4.44
2.59
0.92
-0.38
-1.32
-2.02
-2.71
-3.56
-4.66
-6.01
-7.52
-9.14
-10.85
-12.68
-14.63
-16.6
-18.35
-19.62
-20.23
-20.2
-19.71
-19.08
-18.54
-18.19
-17.98
-17.79
-17.56
-17.32
-17.18
-17.25
-17.51
-17.77
-17.79
-17.33
-16.31
-14.83
-13.08
-11.3
-9.68
-8.28
-7.08
-6.01
-5.02
-4.09
-3.18
-2.21
-1.09
0.28
1.91
3.72
5.51
7.03
8.03
8.32
7.79
6.47
4.45
1.92
-0.86
-3.66
-6.29
-8.65
-10.69
-12.37
-13.62
-14.34
-14.44
-13.91
-12.76
-11.12
-9.14
-7.02
-5
-3.29
-2.07
-1.37
-1.07
-0.88
-0.47
0.43
1.9
3.83
5.98
8.1
10.02
11.66
13
14.11
15.05
15.95
16.92
18.11
19.6
21.42
23.46
25.62
27.74
29.73
31.52
33.01
34.12
34.75
34.91
34.67
34.14
33.39
32.37
30.92
28.88
26.14
22.77
18.93
14.77
10.46
6.08
1.76
-2.35
-6.04
-9.15
-11.61
-13.47
-14.79
-15.59
-15.81
-15.36
-14.22
-12.49
-10.43
-8.32
-6.41
-4.77
-3.44
-2.42
-1.78
-1.65
-2.11
-3.14
-4.53
-5.95
-7.13
-7.94
-8.49
-9
-9.68
-10.62
-11.76
-12.96
-14.12
-15.24
-16.4
-17.67
-19.09
-20.59
-22.09
-23.48
-24.68
-25.64
-26.29
-26.54
-26.3
-25.58
-24.48
-23.18
-21.87
-20.66
-19.57
-18.5
-17.34
-16.04
-14.65
-13.26
-11.99
-10.89
-9.95
-9.09
-8.26
-7.44
-6.65
-5.95
-5.37
-4.9
-4.51
-4.15
-3.79
-3.44
-3.16
-2.97
-2.91
-2.96
-3.06
-3.14
-3.17
-3.14
-3.09
-3.08
-3.12
-3.21
-3.33
-3.47
-3.69
-4.06
-4.64
-5.39
-6.2
-6.89
-7.32
-7.38
-7.06
-6.42
-5.5
-4.35
-3.05
-1.66
-0.28
0.98
2.07
2.99
3.77
4.45
5.02
5.42
5.61
5.6
5.47
5.33
5.25
5.28
5.35
5.37
5.28
5.06
4.76
4.46
4.25
4.15
4.14
4.16
4.13
4
3.72
3.3
2.76
2.16
1.56
0.99
0.49
0.04
-0.39
-0.86
-1.43
-2.11
-2.88
-3.66
-4.38
-5
-5.53
-5.98
-6.35
-6.58
-6.57
-6.2
-5.45
-4.36
-3.03
-1.59
-0.12
1.31
2.7
4
5.18
6.19
7.01
7.63
8.05
8.27
8.26
8.06
7.72
7.42
7.3
7.45
7.84
8.31
8.65
8.71
8.46
7.99
7.45
6.94
6.5
6.07
5.59
5.01
4.35
3.67
3.01
2.38
1.76
1.14
0.52
-0.11
-0.73
-1.36
-2.04
-2.76
-3.51
-4.22
-4.8
-5.21
-5.45
-5.61
-5.82
-6.2
-6.8
-7.57
-8.37
-8.96
-9.14
-8.75
-7.76
-6.24
-4.39
-2.43
-0.53
1.21
2.79
4.22
5.51
6.62
7.45
7.91
8
7.82
7.51
7.26
7.16
7.22
7.42
7.74
8.15
8.57
8.87
8.79
8.1
6.64
4.44
1.7
-1.26
-4.14
-6.73
-8.89
-10.59
-11.81
-12.59
-13.01
-13.22
-13.39
-13.63
-13.93
-14.17
-14.17
-13.84
-13.13
-12.14
-10.94
-9.57
-8.05
-6.38
-4.66
-3.11
-1.98
-1.5
-1.73
-2.53
-3.58
-4.58
-5.27
-5.57
-5.53
-5.23
-4.74
-4.06
-3.25
-2.38
-1.63
-1.16
-1.06
-1.29
-1.68
-2.04
-2.23
-2.21
-2
-1.64
-1.12
-0.34
0.8
2.36
4.29
6.44
8.57
10.5
12.14
13.54
14.84
16.14
17.48
18.74
19.8
20.57
21.06
21.36
21.52
21.52
21.28
20.72
19.88
18.93
18.08
17.49
17.13
16.87
16.52
15.98
15.31
14.64
14.12
13.83
13.79
13.95
14.29
14.76
15.32
15.87
16.29
16.44
16.23
15.59
14.51
13.01
11.15
9.07
7
5.21
3.93
3.25
3.07
3.14
3.21
3.09
2.73
2.19
1.5
0.71
-0.23
-1.33
-2.56
-3.77
-4.79
-5.45
-5.71
-5.65
-5.43
-5.23
-5.11
-5.04
-4.97
-4.88
-4.83
-4.97
-5.4
-6.13
-7.01
-7.82
-8.3
-8.34
-7.9
-6.99
-5.64
-3.81
-1.51
1.19
4.02
6.59
8.51
9.5
9.52
8.75
7.47
5.92
4.22
2.36
0.33
-1.81
-3.93
-5.87
-7.46
-8.68
-9.59
-10.26
-10.76
-11.08
-11.16
-10.97
-10.52
-9.9
-9.26
-8.75
-8.51
-8.65
-9.17
-10.01
-11.02
-12.07
-13.03
-13.84
-14.46
-14.8
-14.69
-13.9
-12.22
-9.58
-6.1
-2.07
2.15
6.29
10.25
14.04
17.7
21.2
24.4
27.09
29.09
30.3
30.71
30.36
29.26
27.44
24.94
21.88
18.38
14.56
10.42
5.85
0.74
-4.88
-10.74
-16.34
-21.06
-24.4
-26.06
-26.05
-24.58
-22
-18.67
-14.98
-11.29
-7.96
-5.3
-3.51
-2.62
-2.53
-3.06
-4.02
-5.25
-6.6
-7.89
-8.95
-9.59
-9.73
-9.42
-8.78
-7.98
-7.16
-6.4
-5.71
-5.06
-4.42
-3.73
-2.93
-1.99
-0.9
0.27
1.39
2.31
2.95
3.25
3.28
3.08
2.67
2.01
1.07
-0.14
-1.51
-2.9
-4.15
-5.16
-5.95
-6.6
-7.18
-7.73
-8.25
-8.65
-8.9
-8.97
-8.95
-8.92
-8.95
-9.06
-9.14
-9.08
-8.7
-7.93
-6.78
-5.37
-3.92
-2.58
-1.46
-0.61
-0.01
0.35
0.46
0.33
0.03
-0.36
-0.7
-0.9
-0.94
-0.85
-0.69
-0.47
-0.17
0.28
0.88
1.59
2.28
2.81
3.07
3.05
2.83
2.55
2.4
2.52
2.95
3.68
4.62
5.65
6.63
7.43
7.91
7.92
7.37
6.3
4.88
3.44
2.36
1.95
2.32
3.34
4.73
6.08
7.03
7.3
6.77
5.48
3.69
1.76
0.05
-1.19
-2
-2.55
-3.1
-3.74
-4.37
-4.79
-4.9
-4.77
-4.66
-4.85
-5.4
-6.02
-6.18
-5.29
-2.95
0.84
5.7
11
15.97
19.94
22.51
23.61
23.4
22.18
20.2
17.61
14.48
10.84
6.83
2.77
-0.92
-3.82
-5.73
-6.63
-6.59
-5.64
-3.84
-1.19
2.26
6.28
10.49
14.27
17.06
18.6
18.92
18.1
16.34
13.99
11.42
9.03
6.86
4.84
2.96
1.24
-0.78
-3.42
-6.72
-10.29
-13.41
-15.98
-18.03
-19.57
-20.58
-21.78
-23.69
-26.35
-29.18
-31.24
-32.7
-34.16
-36.17
-39.1
-44.01
-51.42
-60.88
-71.01
-79.83
-86.74
-91.62
-94.36
-88.82
-71.81
-45.2
-15.3
8.58
26.41
39.55
49.08
56.02
60.58
61.98
59.73
53.94
45.91
38.23
32.44
29.3
28.72
29.78
30.51
29.28
25.75
21.06
17.36
15.61
15.83
17.29
18.97
19.74
19.2
17.94
17.05
17.35
18.33
18.75
17.53
14.27
9.24
3.25
-2.48
-6.8
-8.88
-8.77
-7.03
-4.46
-1.83
0.24
1.38
1.63
1.36
1.01
0.81
0.78
0.84
0.92
1.09
1.38
1.82
2.33
2.75
2.85
2.42
1.38
-0.32
-2.23
-4.09
-5.68
-6.88
-7.71
-8.3
-8.84
-9.48
-10.25
-11.08
-11.8
-12.19
-12.06
-11.34
-10.03
-8.24
-6.05
-3.54
-0.73
2.24
5.24
8.09
10.62
12.7
14.28
15.33
15.85
15.85
15.31
14.33
13.1
11.9
10.97
10.46
10.32
10.33
10.24
9.86
9.18
8.36
7.63
7.17
6.95
6.81
6.49
5.77
4.6
3.1
1.5
0.03
-1.16
-2.07
-2.77
-3.41
-4.08
-4.89
-5.88
-7.05
-8.32
-9.52
-10.41
-10.77
-10.46
-9.49
-8
-6.17
-4.21
-2.31
-0.64
0.64
1.36
1.38
0.69
-0.58
-2.13
-3.65
-4.86
-5.64
-6.02
-6.09
-5.99
-5.81
-5.65
-5.53
-5.5
-5.57
-5.71
-5.9
-6.13
-6.38
-6.68
-7.09
-7.65
-8.41
-9.36
-10.47
-11.6
-12.63
-13.46
-14.05
-14.47
-14.84
-15.24
-15.61
-15.77
-15.46
-14.47
-12.76
-10.47
-7.86
-5.17
-2.56
-0.1
2.21
4.31
6.1
7.42
8.15
8.27
7.9
7.27
6.65
6.24
6.12
6.21
6.34
6.36
6.13
5.69
5.16
4.74
4.59
4.76
5.15
5.53
5.68
5.42
4.72
3.66
2.44
1.27
0.28
-0.51
-1.2
-1.96
-2.98
-4.36
-6.06
-7.93
-9.68
-10.99
-11.6
-11.31
-10.12
-8.18
-5.76
-3.21
-0.84
1.17
2.8
4.11
5.22
6.16
6.93
7.42
7.59
7.4
6.88
6.11
5.14
4.01
2.76
1.47
0.23
-0.94
-2.15
-3.65
-5.76
-8.69
-12.28
-16.06
-19.35
-21.51
-22.16
-21.23
-18.88
-15.28
-10.58
-4.99
1.14
7.2
12.41
16.14
18.05
18.26
17.21
15.46
13.5
11.72
10.38
9.63
9.41
9.52
9.57
9.22
8.31
6.96
5.52
4.37
3.7
3.3
2.68
1.25
-1.45
-5.5
-10.6
-16.14
-21.45
-26.05
-29.78
-32.8
-35.37
-37.7
-39.79
-41.49
-42.66
-43.34
-43.73
-44.05
-44.44
-44.76
-44.66
-43.78
-41.88
-38.98
-35.39
-31.55
-27.89
-24.6
-21.63
-18.67
-15.35
-11.43
-6.9
-1.93
3.28
8.64
14.2
20.01
25.95
31.67
36.74
40.86
44.03
46.51
48.59
50.32
51.48
51.74
50.9
49.06
46.62
44.01
41.51
39.14
36.82
34.5
32.26
30.28
28.67
27.38
26.17
24.8
23.15
21.27
19.32
17.47
15.7
13.93
11.99
9.81
7.46
5.1
2.87
0.85
-1
-2.73
-4.35
-5.79
-6.89
-7.44
-7.29
-6.4
-4.82
-2.75
-0.41
1.97
4.22
6.25
8.03
9.51
10.63
11.29
11.4
10.97
10.15
9.2
8.39
7.92
7.83
8.02
8.32
8.57
8.69
8.66
8.44
8.02
7.31
6.3
5.01
3.58
2.17
0.93
-0.06
-0.82
-1.39
-1.85
-2.26
-2.66
-3.1
-3.66
-4.45
-5.53
-6.85
-8.26
-9.46
-10.13
-10.04
-9.12
-7.46
-5.3
-2.87
-0.38
2.02
4.22
6.13
7.7
8.89
9.73
10.28
10.59
10.73
10.69
10.49
10.13
9.68
9.22
8.83
8.57
8.42
8.33
8.2
7.96
7.59
7.08
6.49
5.84
5.13
4.34
3.46
2.51
1.53
0.6
-0.27
-1.1
-1.98
-3
-4.23
-5.65
-7.2
-8.77
-10.21
-11.35
-12.04
-12.18
-11.69
-10.57
-8.87
-6.72
-4.27
-1.73
0.7
2.84
4.61
6
7.06
7.84
8.36
8.6
8.57
8.31
7.95
7.62
7.41
7.3
7.24
7.16
7.04
6.92
6.81
6.69
6.45
5.98
5.21
4.17
2.99
1.83
0.74
-0.29
-1.36
-2.53
-3.82
-5.17
-6.46
-7.64
-8.73
-9.82
-11.03
-12.44
-14.03
-15.74
-17.43
-18.98
-20.27
-21.23
-21.81
-21.98
-21.76
-21.22
-20.41
-19.41
-18.22
-16.84
-15.21
-13.27
-11
-8.43
-5.64
-2.81
-0.1
2.36
4.54
6.47
8.21
9.77
11.1
12.08
12.61
12.65
12.28
11.66
10.96
10.3
9.72
9.16
8.51
7.7
6.69
5.47
4.13
2.75
1.42
0.22
-0.86
-1.82
-2.72
-3.66
-4.69
-5.82
-7.02
-8.18
-9.16
-9.78
-9.91
-9.41
-8.24
-6.43
-4.11
-1.55
0.94
3.06
4.63
5.64
6.2
6.46
6.54
6.47
6.24
5.87
5.41
4.99
4.71
4.6
4.6
4.65
4.68
4.68
4.69
4.71
4.69
4.52
4.12
3.49
2.69
1.87
1.12
0.47
-0.12
-0.73
-1.42
-2.21
-3.09
-4.03
-5.04
-6.13
-7.27
-8.42
-9.49
-10.44
-11.22
-11.83
-12.21
-12.28
-11.95
-11.16
-9.95
-8.43
-6.73
-4.95
-3.14
-1.38
0.25
1.61
2.56
3.04
3.07
2.76
2.3
1.82
1.43
1.18
1.11
1.19
1.41
1.69
1.93
2.07
2.05
1.92
1.78
1.75
1.88
2.13
2.32
2.3
1.96
1.36
0.65
-0.01
-0.48
-0.78
-0.95
-1.08
-1.17
-1.21
-1.18
-1.11
-1.14
-1.36
-1.8
-2.31
-2.59
-2.28
-1.09
1.06
3.98
7.3
10.52
13.21
15.14
16.27
16.76
16.77
16.43
15.72
14.58
12.9
10.67
7.97
4.97
1.92
-0.98
-3.58
-5.89
-7.99
-10.03
-12.07
-14.07
-15.89
-17.37
-18.45
-19.21
-19.83
-20.5
-21.33
-22.33
-23.39
-24.39
-25.22
-25.73
-25.77
-25.22
-24.09
-22.63
-21.23
-20.28
-19.98
-20.15
-20.39
-20.31
-19.77
-18.99
-18.29
-17.77
-17.07
-15.42
-11.99
-6.28
1.53
10.68
20.12
29
36.93
44.05
50.87
57.87
65.26
72.75
79.57
84.74
87.39
87.14
84.21
79.37
73.63
67.99
63.2
59.73
57.73
56.94
56.68
55.9
53.61
49.34
43.54
37.35
31.96
27.75
23.88
18.48
9.55
-3.86
-21.04
-39.68
-56.68
-69.34
-76.22
-77.52
-74.8
-70.27
-66.07
-63.73
-64.06
-67.19
-72.84
-80.41
-89.05
-97.4
-103.7
-106.08
-103.18
-94.8
-82.35
-68.71
-57.43
-51.55
-52.47
-59.35
-69.42
-78.99
-84.76
-84.96
-79.85
-71.36
-62.24
-54.82
-50.07
-47.32
-44.65
-39.88
-31.53
-19.32
-3.91
13.76
33.24
54.69
78.33
103.64
128.73
150.75
166.83
175.11
175.2
167.74
153.57
133.24
107.33
77.21
45.63
16.47
-6.37
-20.39
-25.32
-23.01
-16.44
-8.41
-0.74
5.9
11.56
16.39
20.14
22.09
21.21
16.55
7.64
-5.2
-20.61
-36.39
-49.99
-59.23
-63
-61.62
-56.56
-49.89
-43.56
-38.85
-36.2
-35.39
-35.62
-35.56
-33.56
-28.2
-19.02
-7.04
5.45
15.83
22.45
25.43
26.49
27.71
30.18
33.42
35.88
36.15
34.01
30.58
27.35
25.01
22.82
19.05
12.26
2.42
-8.9
-19.41
-27.37
-32.49
-35.97
-39.56
-44.37
-50.14
-55.4
-58.23
-57.19
-52.01
-43.52
-33.17
-22.41
-12.32
-3.52
3.7
9.28
13.27
15.83
17.18
17.69
17.9
18.24
18.94
19.81
20.31
19.64
17.09
12.48
6.22
-0.72
-7.16
-12.14
-15.07
-15.65
-14.2
-11.56
-8.7
-6.34
-4.52
-2.75
-0.27
3.53
9.3
16.85
25.26
33.54
41.11
48.23
55.37
62.83
70.44
78.43
86.55
94.16
100.73
106.04
110.59
114.74
118.63
122.2
126.42
131.75
137.81
143.58
147.95
150.63
151.5
150.79
143.32
128.89
111.86
97.44
88.99
83.79
79.65
75.18
70.54
66.33
63.87
63.34
63.37
61.79
56.63
47.47
35.05
21.06
7.66
-2.65
-8.9
-12.28
-15.73
-22.76
-35.86
-56.26
-83.59
-115.88
-149.5
-180.44
-205.45
-222.86
-233.17
-238.95
-244.76
-255.88
-276.55
-307.76
-346.4
-385.42
-415.38
-426.86
-413.18
-372.89
-310.55
-235.73
-159.87
-92.92
-40.42
-2.54
24.45
45.23
62.37
75.24
81.25
78.41
67.44
51.89
36.47
24.54
16.51
10.33
3.55
-4.55
-12.07
-15.41
-11.56
-0.36
14.33
25.54
25.72
9.79
-22.41
-65.93
-112.53
-154.2
-186.42
-209.72
-228.36
-247.07
-267.65
-287.43
-300.58
-301.05
-285.75
-255.95
-216.49
-173.3
-130.97
-91.49
-54.37
-17.96
19.16
57.55
97.27
138.5
181.98
228.4
277.16
325.23
367.11
396.3
407.86
400.41
376.77
342.68
304.48
267.03
232.82
202.45
175.67
152.22
131.86
113.97
97.3
80.34
62.1
42.87
24.17
8.1
-3.58
-10.23
-12.42
-11.57
-9.29
-6.89
-5.2
-4.55
-4.98
-6.37
-8.67
-11.91
-16.33
-22.56
-31.43
-43.65
-59.27
-77.29
-95.51
-110.95
-120.5
-121.75
-113.5
-96.04
-71.04
-41.19
-9.71
20.28
46.29
66.86
81.7
91.49
97.33
100.27
101.01
99.89
97.13
93.1
88.28
83.13
77.89
72.49
66.63
60.16
53.15
46
39.3
33.51
28.85
25.2
22.18
19.42
16.68
13.93
11.32
9.05
7.22
5.83
4.74
3.73
2.6
1.19
-0.54
-2.51
-4.52
-6.36
-7.82
-8.86
-9.54
-9.99
-10.34
-10.65
-10.91
-11.11
-11.3
-11.57
-12.03
-12.75
-13.67
-14.65
-15.5
-16.12
-16.53
-16.87
-17.3
-18.01
-19.03
-20.29
-21.58
-22.58
-22.98
-22.49
-20.91
-18.14
-14.27
-9.55
-4.38
0.73
5.31
9.03
11.79
13.69
14.9
15.59
15.82
15.66
15.13
14.32
13.36
12.32
11.23
10.07
8.79
7.43
6.01
4.61
3.29
2.06
0.99
0.11
-0.56
-1.06
-1.47
-1.94
-2.59
-3.48
-4.6
-5.87
-7.21
-8.56
-9.84
-10.93
-11.71
-12.01
-11.66
-10.58
-8.78
-6.4
-3.67
-0.86
1.75
3.93
5.56
6.62
7.2
7.41
7.38
7.23
6.98
6.62
6.1
5.39
4.5
3.51
2.59
1.88
1.48
1.36
1.41
1.48
1.49
1.48
1.59
2.01
2.82
3.97
5.25
6.4
7.18
7.46
7.25
6.65
5.85
5.05
4.45
4.14
4.15
4.29
4.29
3.84
2.77
1.11
-0.93
-3.04
-5
-6.74
-8.34
-9.93
-11.54
-13.1
-14.38
-15.14
-15.23
-14.62
-13.42
-11.79
-9.93
-8.1
-6.58
-5.71
-5.76
-6.81
-8.63
-10.69
-12.27
-12.78
-12.02
-10.3
-8.33
-6.93
-6.57
-7.27
-8.61
-10.01
-11.07
-11.7
-12.12
-12.57
-13.12
-13.56
-13.44
-12.32
-9.93
-6.28
-1.66
3.49
8.73
13.65
18.02
21.69
24.59
26.67
27.89
28.2
27.62
26.22
24.19
21.85
19.47
17.28
15.32
13.53
11.79
9.98
8.09
6.18
4.41
2.91
1.78
1.06
0.67
0.47
0.25
-0.15
-0.84
-1.83
-3.04
-4.39
-5.83
-7.38
-9.1
-11
-13.02
-15.07
-17.03
-18.79
-20.32
-21.59
-22.59
-23.3
-23.68
-23.67
-23.19
-22.17
-20.54
-18.26
-15.4
-12.14
-8.74
-5.5
-2.66
-0.37
1.4
2.78
3.96
5.1
6.3
7.55
8.78
9.86
10.68
11.19
11.4
11.36
11.1
10.66
10.06
9.35
8.59
7.82
7.07
6.29
5.38
4.26
2.94
1.52
0.12
-1.1
-2.11
-2.97
-3.78
-4.66
-5.63
-6.65
-7.55
-8.15
-8.28
-7.87
-6.95
-5.69
-4.3
-2.98
-1.83
-0.89
-0.12
0.5
0.97
1.24
1.3
1.19
1.02
0.88
0.85
0.88
0.87
0.74
0.49
0.22
0.06
0.12
0.36
0.67
0.9
0.94
0.77
0.4
-0.13
-0.81
-1.62
-2.49
-3.3
-3.94
-4.4
-4.74
-5.11
-5.66
-6.43
-7.35
-8.25
-8.93
-9.18
-8.89
-8.01
-6.6
-4.78
-2.73
-0.63
1.37
3.2
4.81
6.16
7.17
7.75
7.87
7.57
6.99
6.3
5.63
5.02
4.42
3.78
3.05
2.27
1.5
0.82
0.25
-0.23
-0.68
-1.16
-1.71
-2.34
-3.04
-3.73
-4.35
-4.86
-5.26
-5.61
-5.97
-6.4
-6.88
-7.4
-7.94
-8.5
-9.13
-9.8
-10.43
-10.81
-10.7
-9.9
-8.36
-6.2
-3.68
-1.08
1.32
3.39
5.1
6.5
7.68
8.7
9.58
10.29
10.8
11.14
11.33
11.45
11.5
11.49
11.39
11.17
10.83
10.38
9.86
9.27
8.57
7.75
6.77
5.67
4.51
3.39
2.4
1.54
0.78
0.02
-0.82
-1.79
-2.87
-3.98
-5
-5.88
-6.61
-7.26
-7.89
-8.54
-9.18
-9.76
-10.2
-10.45
-10.45
-10.16
-9.47
-8.34
-6.74
-4.79
-2.72
-0.8
0.73
1.74
2.29
2.53
2.63
2.69
2.76
2.79
2.76
2.68
2.57
2.49
2.42
2.33
2.19
1.96
1.66
1.33
1.02
0.77
0.62
0.55
0.55
0.54
0.42
0.09
-0.52
-1.38
-2.37
-3.33
-4.13
-4.7
-5.04
-5.2
-5.27
-5.34
-5.49
-5.81
-6.33
-6.99
-7.63
-8.02
-7.96
-7.36
-6.3
-4.97
-3.57
-2.22
-0.97
0.23
1.43
2.6
3.69
4.59
5.21
5.49
5.37
4.88
4.14
3.43
3.09
3.43
4.6
6.46
8.63
10.58
11.84
12.09
11.24
9.42
6.97
4.37
2.22
1
0.95
1.95
3.55
5.13
6.17
6.4
5.8
4.52
2.73
0.58
-1.77
-4.07
-6.04
-7.43
-8.16
-8.39
-8.4
-8.45
-8.65
-8.92
-9.08
-8.94
-8.39
-7.38
-5.97
-4.2
-2.19
-0.1
1.91
3.64
5.01
6
6.7
7.17
7.49
7.66
7.66
7.52
7.27
6.95
6.61
6.25
5.83
5.37
4.91
4.55
4.45
4.74
5.48
6.65
8.13
9.7
11.17
12.4
13.35
14.1
14.74
15.35
15.93
16.43
16.8
17.03
17.16
17.23
17.29
17.32
17.26
17.01
16.45
15.49
14.12
12.32
10.16
7.72
5.16
2.62
0.25
-1.84
-3.6
-5.09
-6.4
-7.69
-9.07
-10.58
-12.1
-13.41
-14.24
-14.36
-13.69
-12.3
-10.4
-8.26
-6.17
-4.34
-2.9
-1.84
-1.1
-0.54
-0.01
0.62
1.43
2.41
3.5
4.59
5.56
6.32
6.85
7.2
7.48
7.77
8.08
8.29
8.25
7.89
7.26
6.55
6
5.68
5.41
4.75
3.16
0.14
-4.48
-10.48
-17.18
-23.6
-28.57
-30.97
-30.07
-25.76
-18.69
-10.23
-2.15
3.8
6.36
5.05
0.33
-6.6
-14.15
-20.72
-25.08
-26.61
-25.26
-21.51
-16.11
-9.91
-3.68
1.97
6.59
9.97
12.1
13.17
13.46
13.29
12.9
12.39
11.74
10.85
9.56
7.71
5.16
1.86
-2.12
-6.58
-11.26
-15.91
-20.31
-24.37
-28.05
-31.29
-34.04
-36.23
-37.78
-38.68
-38.89
-38.36
-37.02
-34.78
-31.66
-27.83
-23.63
-19.55
-16.04
-13.44
-11.76
-10.74
-9.92
-8.8
-7.1
-4.8
-2.17
0.34
2.29
3.43
3.8
3.73
3.77
4.44
6.12
8.75
11.84
14.4
15.23
13.24
7.75
-1.22
-12.81
-25.55
-37.6
-47.24
-53.3
-55.41
-53.92
-49.77
-44.1
-38.04
-32.53
-28.29
-25.68
-24.71
-24.91
-25.38
-25.04
-22.94
-18.6
-12.16
-4.2
4.61
13.83
23.38
33.44
44.22
55.89
68.58
82.17
95.91
107.86
114.57
111.79
96.08
66.71
26.75
-17.55
-58.98
-91.8
-113.24
-123.41
-123.85
-116.12
-101.37
-80.93
-57.14
-33.54
-13.89
-0.69
5.93
8.01
8.62
10.18
13.66
18.47
23.17
26.34
27.13
25.53
22.26
18.45
15.19
13.26
12.95
14.2
16.78
20.48
25.1
30.34
35.67
40.35
43.66
45.15
44.84
43.24
41.06
38.9
36.99
35.12
32.66
28.85
22.93
14.47
3.54
-9.1
-22.06
-33.57
-42.02
-46.36
-46.39
-42.61
-35.85
-26.95
-16.53
-5.07
6.87
18.65
29.53
38.93
46.53
52.19
55.81
57.2
56.16
52.65
46.93
39.41
30.39
19.72
6.89
-8.65
-26.94
-47.13
-67.5
-85.83
-99.95
-108.17
-109.56
-103.98
-92.08
-75.23
-55.46
-35.11
-16.5
-1.44
9.09
15.02
17.07
16.44
14.42
12.14
10.42
9.71
10.09
11.36
13.11
14.86
16.17
16.77
16.55
15.59
14.04
12.16
10.2
8.37
6.84
5.67
4.85
4.34
4.07
3.96
3.94
3.91
3.77
3.34
2.55
1.42
0.15
-0.9
-1.37
-1.01
0.22
2.18
4.63
7.33
10.1
12.78
15.24
17.3
18.77
19.56
19.69
19.31
18.64
17.88
17.18
16.62
16.23
15.97
15.78
15.54
15.17
14.61
13.87
13.02
12.1
11.13
10.03
8.72
7.12
5.27
3.25
1.21
-0.72
-2.47
-4.04
-5.43
-6.66
-7.7
-8.46
-8.81
-8.65
-7.93
-6.69
-5.06
-3.17
-1.12
1.03
3.24
5.43
7.46
9.09
10.13
10.49
10.23
9.55
8.71
7.92
7.28
6.8
6.44
6.14
5.88
5.61
5.31
4.96
4.56
4.14
3.75
3.42
3.15
2.87
2.5
1.98
1.32
0.64
0.02
-0.49
-0.96
-1.55
-2.46
-3.8
-5.49
-7.28
-8.77
-9.55
-9.31
-7.92
-5.48
-2.29
1.25
4.68
7.59
9.71
10.92
11.29
11
10.27
9.31
8.28
7.27
6.38
5.65
5.15
4.88
4.8
4.82
4.82
4.69
4.38
3.9
3.29
2.64
2.02
1.51
1.12
0.84
0.57
0.2
-0.42
-1.37
-2.66
-4.19
-5.81
-7.31
-8.53
-9.29
-9.53
-9.23
-8.43
-7.26
-5.81
-4.2
-2.51
-0.79
0.9
2.45
3.75
4.71
5.31
5.58
5.66
5.66
5.64
5.58
5.42
5.08
4.6
4.1
3.73
3.61
3.72
3.9
3.93
3.63
2.94
1.93
0.78
-0.33
-1.27
-2
-2.5
-2.77
-2.84
-2.75
-2.6
-2.57
-2.8
-3.35
-4.15
-4.99
-5.63
-5.87
-5.64
-5.01
-4.09
-2.99
-1.79
-0.52
0.76
1.95
2.9
3.44
3.49
3.11
2.5
1.93
1.63
1.71
2.11
2.62
3.04
3.24
3.2
3.02
2.8
2.63
2.5
2.36
2.15
1.84
1.44
0.98
0.5
0.02
-0.47
-1
-1.56
-2.16
-2.78
-3.4
-4.01
-4.57
-5.04
-5.32
-5.31
-4.92
-4.18
-3.17
-2.08
-1.08
-0.26
0.35
0.82
1.17
1.35
1.32
1.01
0.47
-0.18
-0.79
-1.29
-1.7
-2.11
-2.61
-3.16
-3.64
-3.9
-3.86
-3.58
-3.22
-3.02
-3.08
-3.41
-3.91
-4.41
-4.81
-5.09
-5.23
-5.29
-5.3
-5.3
-5.37
-5.57
-5.96
-6.49
-7.05
-7.43
-7.45
-6.97
-5.97
-4.52
-2.76
-0.85
1.03
2.72
4.1
5.13
5.86
6.42
6.97
7.61
8.34
9.08
9.67
10
9.96
9.54
8.78
7.78
6.63
5.44
4.27
3.13
2.04
1
0.02
-0.87
-1.67
-2.41
-3.12
-3.85
-4.59
-5.26
-5.75
-6
-6.02
-5.9
-5.79
-5.84
-6.11
-6.59
-7.17
-7.73
-8.13
-8.25
-8.01
-7.37
-6.37
-5.06
-3.54
-1.92
-0.32
1.16
2.47
3.52
4.29
4.79
5.05
5.16
5.2
5.24
5.33
5.45
5.57
5.66
5.69
5.7
5.7
5.74
5.82
5.94
6.12
6.38
6.8
7.46
8.36
9.45
10.56
11.54
12.3
12.83
13.23
13.55
13.83
14.03
14.1
14.05
13.96
13.86
13.75
13.49
12.93
12.03
10.92
9.92
9.36
9.46
10.22
11.43
12.82
14.19
15.48
16.74
18.08
19.52
21
22.39
23.6
24.53
25.16
25.48
25.44
24.95
23.87
22.08
19.55
16.35
12.72
8.96
5.38
2.22
-0.43
-2.58
-4.31
-5.75
-6.97
-8
-8.88
-9.57
-10.08
-10.38
-10.5
-10.39
-10.11
-9.71
-9.37
-9.32
-9.79
-10.93
-12.73
-15
-17.41
-19.61
-21.32
-22.41
-22.87
-22.77
-22.2
-21.25
-20.08
-18.9
-17.95
-17.42
-17.31
-17.49
-17.66
-17.57
-17.07
-16.25
-15.27
-14.34
-13.55
-12.89
-12.29
-11.68
-11.08
-10.56
-10.22
-10.08
-10.08
-10.11
-10.06
-9.92
-9.76
-9.74
-9.98
-10.5
-11.22
-12.01
-12.79
-13.58
-14.45
-15.46
-16.57
-17.59
-18.29
-18.51
-18.21
-17.5
-16.53
-15.41
-14.19
-12.93
-11.7
-10.66
-9.96
-9.74
-10.02
-10.72
-11.64
-12.51
-13.05
-13.03
-12.34
-11.02
-9.21
-7.11
-4.86
-2.56
-0.24
2.06
4.24
6.22
7.92
9.34
10.53
11.57
12.46
13.17
13.65
13.87
13.83
13.54
13.01
12.24
11.24
10.06
8.84
7.74
6.91
6.42
6.26
6.37
6.72
7.3
8.13
9.16
10.27
11.23
11.81
11.88
11.47
10.74
9.95
9.27
8.74
8.25
7.65
6.81
5.78
4.68
3.67
2.84
2.16
1.56
0.94
0.31
-0.29
-0.79
-1.19
-1.58
-2.07
-2.78
-3.72
-4.81
-5.93
-7.01
-8.02
-9.01
-10.04
-11.16
-12.37
-13.64
-14.88
-16.02
-16.96
-17.58
-17.79
-17.54
-16.79
-15.55
-13.89
-11.85
-9.56
-7.14
-4.76
-2.6
-0.8
0.57
1.5
2.08
2.38
2.51
2.56
2.64
2.83
3.16
3.6
4.08
4.48
4.73
4.81
4.79
4.78
4.87
5.08
5.34
5.54
5.57
5.36
4.93
4.29
3.5
2.57
1.5
0.29
-1.04
-2.47
-3.98
-5.56
-7.2
-8.88
-10.53
-12.03
-13.2
-13.91
-14.05
-13.57
-12.49
-10.92
-9.03
-7.05
-5.21
-3.71
-2.63
-1.94
-1.55
-1.34
-1.25
-1.26
-1.39
-1.63
-1.91
-2.1
-2.07
-1.76
-1.19
-0.48
0.25
0.94
1.57
2.16
2.7
3.11
3.3
3.22
2.92
2.52
2.16
1.91
1.76
1.62
1.45
1.21
0.94
0.69
0.47
0.25
0.03
-0.17
-0.29
-0.22
0.1
0.71
1.58
2.64
3.77
4.81
5.63
6.13
6.32
6.26
6.07
5.84
5.58
5.27
4.88
4.48
4.2
4.16
4.41
4.88
5.39
5.84
6.21
6.64
7.29
8.2
9.23
10.08
10.44
10.13
9.19
7.88
6.46
5.17
4.1
3.23
2.44
1.65
0.79
-0.15
-1.19
-2.27
-3.28
-4.06
-4.37
-3.99
-2.77
-0.71
2.04
5.14
8.21
10.89
12.9
14.07
14.24
13.3
11.19
8
4.04
-0.16
-3.96
-6.86
-8.68
-9.51
-9.7
-9.58
-9.35
-9
-8.43
-7.58
-6.53
-5.47
-4.65
-4.18
-4.06
-4.18
-4.39
-4.58
-4.72
-4.83
-4.97
-5.17
-5.46
-5.83
-6.25
-6.7
-7.17
-7.64
-8.12
-8.59
-8.98
-9.23
-9.21
-8.86
-8.17
-7.21
-6.13
-5.09
-4.18
-3.38
-2.63
-1.82
-0.95
-0.15
0.33
0.27
-0.46
-1.7
-3.08
-3.99
-3.83
-2.19
0.98
5.32
10.21
14.95
18.97
21.98
23.98
25.16
25.74
25.94
25.86
25.56
25.02
24.18
22.9
20.99
18.32
14.89
10.95
6.95
3.38
0.62
-1.22
-2.32
-3
-3.58
-4.2
-4.8
-5.17
-5.13
-4.61
-3.69
-2.61
-1.61
-0.87
-0.44
-0.24
-0.17
-0.17
-0.24
-0.45
-0.89
-1.61
-2.57
-3.64
-4.66
-5.49
-6.07
-6.46
-6.79
-7.27
-8.06
-9.22
-10.67
-12.19
-13.43
-13.97
-13.47
-11.76
-8.93
-5.3
-1.39
2.3
5.4
7.72
9.29
10.23
10.64
10.6
10.13
9.27
8.13
6.92
5.92
5.46
5.75
6.88
8.73
11.02
13.4
15.54
17.25
18.46
19.18
19.44
19.22
18.48
17.24
15.6
13.8
12.1
10.72
9.67
8.74
7.58
5.9
3.58
0.77
-2.14
-4.74
-6.75
-8.17
-9.2
-10.14
-11.22
-12.56
-14.12
-15.89
-17.84
-19.95
-22.08
-23.88
-24.84
-24.42
-22.27
-18.42
-13.32
-7.69
-2.28
2.34
5.9
8.37
9.83
10.36
10.04
9.05
7.71
6.53
6.01
6.43
7.67
9.2
10.33
10.41
9.14
6.71
3.67
0.7
-1.6
-2.95
-3.39
-3.18
-2.68
-2.23
-2.09
-2.47
-3.53
-5.32
-7.77
-10.61
-13.45
-15.87
-17.57
-18.51
-18.88
-19
-19.18
-19.55
-20.09
-20.69
-21.21
-21.55
-21.66
-21.49
-20.97
-20.03
-18.64
-16.78
-14.54
-12.05
-9.48
-6.97
-4.68
-2.74
-1.21
-0.15
0.47
0.74
0.77
0.71
0.65
0.66
0.75
0.94
1.26
1.72
2.32
3.02
3.72
4.33
4.81
5.12
5.31
5.4
5.39
5.29
5.12
4.97
4.94
5.1
5.46
5.91
6.32
6.61
6.76
6.84
6.95
7.09
7.25
7.38
7.45
7.54
7.77
8.27
9.18
10.54
12.34
14.46
16.77
19.06
21.17
22.98
24.45
25.62
26.57
27.37
28
28.44
28.63
28.56
28.28
27.85
27.32
26.64
25.73
24.46
22.75
20.6
18.1
15.45
12.87
10.57
8.66
7.11
5.71
4.2
2.38
0.25
-2
-4.02
-5.52
-6.31
-6.39
-5.88
-4.89
-3.53
-1.97
-0.54
0.19
-0.47
-3.1
-7.87
-14.43
-21.99
-29.55
-36.27
-41.63
-45.47
-47.8
-48.73
-48.28
-46.52
-43.62
-39.95
-35.99
-32.22
-28.9
-26.04
-23.44
-20.9
-18.31
-15.72
-13.29
-11.16
-9.43
-8.11
-7.11
-6.33
-5.7
-5.13
-4.6
-4.12
-3.71
-3.36
-2.97
-2.46
-1.73
-0.82
0.08
0.71
0.84
0.45
-0.26
-0.94
-1.23
-0.98
-0.19
0.98
2.37
3.89
5.52
7.3
9.2
11.11
12.84
14.21
15.13
15.64
15.86
15.95
16.04
16.22
16.54
17.07
17.94
19.31
21.17
23.33
25.34
26.61
26.61
25.07
22.11
18.18
13.99
10.3
7.79
6.92
7.87
10.43
13.99
17.67
20.47
21.53
20.37
17.02
12.03
6.29
0.82
-3.43
-5.81
-6.13
-4.64
-2.04
0.76
2.85
3.65
3.06
1.49
-0.35
-1.76
-2.31
-1.95
-0.96
0.25
1.24
1.67
1.17
-0.58
-3.82
-8.59
-14.55
-21
-27.04
-31.8
-34.7
-35.53
-34.37
-31.45
-27.08
-21.61
-15.56
-9.63
-4.69
-1.65
-1.22
-3.66
-8.58
-14.9
-21.09
-25.61
-27.52
-26.7
-23.91
-20.41
-17.38
-15.56
-15.05
-15.54
-16.53
-17.63
-18.56
-19.05
-18.8
-17.55
-15.27
-12.23
-9.02
-6.34
-4.74
-4.44
-5.29
-6.81
-8.4
-9.47
-9.63
-8.73
-6.92
-4.48
-1.74
1.05
3.78
6.5
9.22
11.88
14.28
16.16
17.29
17.58
17.12
16.14
14.88
13.58
12.34
11.22
10.24
9.41
8.74
8.23
7.85
7.52
7.18
6.81
6.53
6.55
7.11
8.32
10.09
12.14
14.09
15.68
16.85
17.82
18.93
20.46
22.49
24.78
26.77
27.72
26.89
23.82
18.54
11.62
4.13
-2.7
-7.76
-10.42
-10.63
-8.91
-6.14
-3.24
-0.97
0.29
0.5
-0.12
-1.22
-2.48
-3.66
-4.62
-5.29
-5.58
-5.47
-4.96
-4.15
-3.17
-2.14
-1.09
0.07
1.51
3.35
5.61
8.2
10.97
13.73
16.38
18.89
21.26
23.55
25.8
28.03
30.25
32.45
34.63
36.76
38.79
40.66
42.28
43.52
44.26
44.45
44.05
43.08
41.55
39.48
36.93
33.96
30.77
27.6
24.83
22.82
21.84
21.98
22.95
24.1
24.45
22.88
18.46
10.74
-0.01
-12.71
-25.71
-37.09
-45.18
-48.92
-48.12
-43.57
-36.9
-30.34
-26.14
-26.08
-30.9
-39.89
-51.06
-61.63
-68.81
-70.77
-67.09
-58.77
-47.79
-36.52
-27.19
-21.63
-20.98
-25.41
-33.91
-44.26
-53.56
-59.04
-59.13
-53.88
-44.9
-34.55
-24.98
-17.41
-12.05
-8.47
-6.19
-4.97
-4.81
-5.69
-7.36
-9.25
-10.7
-11.19
-10.57
-9.06
-7.1
-5.13
-3.31
-1.54
0.47
2.96
5.9
8.93
11.49
13.08
13.45
12.72
11.34
9.83
8.59
7.8
7.33
6.96
6.45
5.75
4.93
4.11
3.39
2.78
2.19
1.54
0.82
0.06
-0.65
-1.26
-1.8
-2.39
-3.14
-4.05
-5.05
-5.97
-6.63
-6.95
-6.94
-6.67
-6.25
-5.74
-5.17
-4.48
-3.63
-2.58
-1.33
0.04
1.4
2.56
3.35
3.66
3.48
2.96
2.28
1.67
1.27
1.17
1.36
1.84
2.54
3.38
4.26
5.08
5.75
6.23
6.53
6.69
6.74
6.67
6.41
5.9
5.11
4.09
2.91
1.72
0.62
-0.31
-1.02
-1.51
-1.77
-1.82
-1.65
-1.27
-0.71
0.02
0.91
1.93
3.05
4.21
5.28
6.12
6.56
6.53
6.07
5.33
4.56
3.96
3.67
3.72
4.03
4.5
5.01
5.45
5.75
5.85
5.76
5.51
5.19
4.89
4.63
4.41
4.14
3.76
3.21
2.47
1.6
0.66
-0.24
-1
-1.49
-1.62
-1.36
-0.77
0
0.83
1.62
2.34
3.03
3.71
4.39
4.96
5.32
5.39
5.18
4.8
4.4
4.11
3.96
3.94
4
4.09
4.23
4.42
4.68
4.94
5.11
5.07
4.79
4.29
3.69
3.11
2.64
2.32
2.14
2.03
1.93
1.76
1.48
1.11
0.68
0.29
0.05
0.07
0.41
1.07
1.96
2.94
3.86
4.58
5.06
5.3
5.4
5.46
5.5
5.53
5.5
5.34
5.02
4.58
4.11
3.73
3.55
3.63
3.99
4.53
5.14
5.71
6.13
6.38
6.5
6.56
6.6
6.63
6.64
6.6
6.57
6.69
7.15
8.11
9.58
11.43
13.38
15.09
16.31
16.95
17.06
16.87
16.66
16.78
17.53
19.1
21.48
24.34
27.08
28.91
29.18
27.61
24.38
20.03
15.28
10.78
7
4.12
2.07
0.63
-0.54
-1.9
-3.95
-7.05
-11.33
-16.47
-21.8
-26.5
-29.77
-31.04
-30.24
-27.77
-24.36
-20.84
-17.86
-15.84
-15.13
-15.68
-17.1
-18.87
-20.43
-21.35
-21.32
-20.02
-17.44
-14.21
-10.88
-7.75
-5.06
-2.91
-1.25
0.09
1.72
4.09
6.8
9.6
12.42
15.01
17.03
18.28
18.91
19.87
22.14
25.52
29.66
34.03
37.55
39.07
37.86
30.9
17.86
4.9
-5.33
-13.04
-18.17
-20.85
-21.47
-20.54
-18.7
-16.16
-13.24
-11.05
-9.99
-9.67
-9.61
-9.4
-8.84
-8.02
-6.84
-5.45
-4.68
-4.87
-5.8
-7.15
-8.65
-10.15
-11.59
-12.7
-13.24
-13.34
-12.94
-11.81
-9.93
-7.54
-5.01
-2.72
-0.8
0.74
1.79
2.42
2.84
3.22
3.74
4.5
5.55
6.88
8.41
9.9
11.15
12.08
12.69
13.16
13.76
14.73
16.14
17.75
19.05
19.39
18.21
15.29
10.84
5.47
-0.12
-5.33
-9.85
-13.65
-16.89
-19.77
-22.42
-24.93
-27.39
-29.77
-31.97
-33.62
-34.17
-33.03
-29.85
-24.75
-18.36
-11.68
-5.71
-1.2
1.44
2.1
0.84
-2.1
-6.16
-10.39
-13.55
-14.45
-12.49
-7.98
-2.07
3.75
8.26
10.93
11.9
11.6
10.27
7.86
4.14
-0.83
-6.53
-12.01
-16.22
-18.44
-18.49
-16.66
-13.5
-9.51
-5.1
-0.61
3.63
7.3
10.19
12.26
13.62
14.55
15.38
16.29
17.23
17.82
17.37
15.18
10.84
4.57
-2.66
-9.39
-14.17
-16.1
-15.13
-12.01
-7.93
-4.09
-1.43
-0.54
-1.72
-4.96
-9.88
-15.69
-21.22
-25.28
-26.91
-25.78
-22.15
-16.77
-10.51
-4.2
1.49
6.01
8.94
10.05
9.43
7.58
5.23
3.14
1.76
1.16
1.06
1.06
0.87
0.41
-0.21
-0.87
-1.55
-2.35
-3.42
-4.82
-6.42
-7.94
-9.07
-9.62
-9.64
-9.42
-9.32
-9.63
-10.36
-11.22
-11.68
-11.19
-9.43
-6.44
-2.65
1.26
4.56
6.81
7.93
8.23
8.24
8.48
9.22
10.49
12.13
13.93
15.7
17.35
18.77
19.88
20.67
21.15
21.43
21.53
21.34
20.48
18.46
14.91
9.8
3.62
-2.69
-8.02
-11.4
-12.33
-10.84
-7.46
-2.97
1.84
6.38
10.23
13.19
15.05
15.53
14.31
11.19
6.36
0.49
-5.3
-9.8
-12.18
-12.31
-10.77
-8.61
-6.84
-6.04
-6.2
-6.91
-7.68
-8.22
-8.58
-9.02
-9.75
-10.77
-11.81
-12.48
-12.47
-11.76
-10.64
-9.57
-9.02
-9.17
-9.9
-10.83
-11.45
-11.4
-10.52
-8.91
-6.84
-4.67
-2.76
-1.4
-0.74
-0.71
-1.03
-1.21
-0.76
0.61
2.86
5.61
8.26
10.23
11.2
11.13
10.2
8.68
6.79
4.68
2.49
0.45
-1.14
-2.01
-2.02
-1.25
0.03
1.48
2.84
3.91
4.66
5.08
5.19
5.03
4.64
4.09
3.51
3.05
2.93
3.33
4.34
5.87
7.56
8.89
9.33
8.58
6.72
4.19
1.66
-0.16
-0.71
0.32
2.92
6.77
11.21
15.39
18.33
19.19
17.5
13.36
7.41
0.76
-5.33
-9.75
-11.81
-11.37
-8.9
-5.21
-1.25
2.17
4.61
5.91
6.19
5.69
4.63
3.25
1.82
0.61
-0.15
-0.33
-0
0.59
1.14
1.45
1.47
1.39
1.47
1.9
2.74
3.86
5.04
6.05
6.78
7.28
7.69
8.24
9.13
10.45
12.13
13.94
15.58
16.74
17.26
17.24
17.02
17.09
17.9
19.72
22.44
25.57
28.35
29.93
29.56
26.83
21.84
15.24
8.15
1.94
-2.19
-3.62
-2.48
0.4
3.84
6.81
8.76
9.67
9.91
9.83
9.54
9.02
8.2
7.27
6.56
6.46
7.12
8.37
9.67
10.39
10.13
8.88
6.97
4.83
2.75
0.85
-0.81
-2.35
-3.73
-4.84
-5.55
-5.93
-6.32
-7.14
-8.49
-9.93
-11.07
-11.62
-11.69
-11.61
-11.79
-12.61
-14.17
-16.02
-17.34
-17.96
-18.26
-18.87
-20.19
-22.04
-24.15
-26.08
-27.22
-26.97
-25.94
-25.67
-28.06
-34.63
-45.95
-62.3
-83.25
-107.52
-128.38
-139.34
-137.32
-125.05
-108.95
-94.61
-85.57
-82.93
-85.88
-91.4
-95.84
-94.68
-83.37
-60.95
-26.17
18.05
65.58
109.43
144.77
168.69
180.59
181.52
173.72
160.33
144.31
128.84
113.28
99.2
87.07
76.4
66.52
57.54
50.66
46.88
46.51
48.83
52.87
56.94
59.56
59.84
57.56
53.03
46.5
38.32
29.05
19.89
11.56
4.28
-2.28
-8.81
-15.88
-23.76
-32.16
-40.44
-47.63
-53.27
-57.38
-60.41
-62.87
-65.22
-67.65
-70.16
-72.45
-73.86
-73.62
-71.16
-66.28
-59.34
-51.17
-42.64
-34.37
-26.53
-19.03
-11.99
-5.84
-1.25
1.27
1.77
0.88
-0.48
-1.58
-2.15
-2.35
-2.47
-2.59
-2.48
-1.79
-0.32
1.74
4
6.06
7.77
9.36
11.25
13.78
17.01
20.67
24.2
27.1
28.9
29.35
28.34
25.96
22.38
17.97
13.19
8.45
4.22
0.75
-1.85
-3.58
-4.48
-4.65
-4.23
-3.4
-2.54
-1.56
-0.54
0.49
1.53
2.55
3.56
4.63
5.86
6.98
8.62
10.81
13.52
16.68
20.2
24.01
27.93
31.64
33.85
34.61
33.06
28.47
20.38
8.87
-5.34
-20.86
-35.82
-49.31
-58.97
-64.37
-65.99
-64.9
-62.24
-58.85
-55.1
-45.19
-36.5
-27.94
-19.7
-12.05
-5.17
0.88
6.12
10.56
14.13
15.81
16.59
16.47
15.6
14.19
12.52
10.83
9.33
8.17
6.71
5.78
5.39
5.5
6.06
6.99
8.17
9.45
10.67
11.23
11.52
11.45
10.96
10.09
8.87
7.4
5.81
4.24
2.59
1.18
0.01
-0.95
-1.79
-2.6
-3.41
-4.19
-4.89
-5.51
-5.9
-6.1
-6.21
-6.4
-6.8
-7.5
-8.48
-9.65
-10.89
-12.09
-13.16
-14.08
-14.87
-15.55
-16.1
-16.5
-16.68
-16.54
-16.07
-15.26
-14.23
-13.08
-11.92
-10.77
-9.59
-8.31
-6.94
-5.56
-4.34
-3.43
-2.9
-2.73
-2.82
-2.99
-3.09
-2.95
-2.48
-1.71
-0.77
0.13
0.79
1.16
1.31
1.45
1.78
2.35
3.05
3.65
3.94
3.88
3.54
3.11
2.72
2.46
2.28
2.13
1.94
1.68
1.3
0.73
-0.1
-1.15
-2.3
-3.31
-3.91
-3.93
-3.37
-2.35
-1.07
0.33
1.76
3.21
4.62
5.88
6.84
7.37
7.44
7.11
6.53
5.82
5.08
4.37
3.75
3.28
3.01
2.95
3.02
3.09
3.03
2.82
2.53
2.32
2.27
2.36
2.44
2.31
1.84
1.02
-0.03
-1.15
-2.19
-3.08
-3.76
-4.23
-4.52
-4.7
-4.9
-5.22
-5.69
-6.22
-6.56
-6.46
-5.7
-4.27
-2.33
-0.14
2.05
4.07
5.89
7.54
9.12
10.69
12.24
13.69
14.91
15.79
16.25
16.37
16.34
16.43
16.9
17.91
19.45
21.35
23.32
25.03
26.16
26.53
26.12
25.06
23.56
21.88
20.24
18.79
17.6
16.57
15.52
14.17
12.23
9.5
5.98
1.88
-2.32
-6.02
-8.59
-9.52
-8.53
-5.68
-1.46
3.34
7.79
11.07
12.66
12.37
10.39
7.29
3.72
0.22
-2.81
-5.14
-6.67
-7.45
-7.96
-8.77
-10.35
-12.99
-16.75
-21.39
-26.48
-31.39
-35.52
-38.89
-41.58
-43.52
-44.45
-44.11
-42.34
-39.38
-35.71
-32.14
-30
-30.22
-32.65
-36.22
-39.51
-41.17
-40.61
-38
-31.13
-20.4
-8.72
0.6
6.06
7.44
6.55
4.58
2.14
-0.52
-3.18
-5.55
-6.99
-6.9
-5.22
-2.36
0.84
3.78
6.31
8.34
10.09
12
14.43
17.34
20.48
23.51
26.32
28.98
31.34
33.09
33.96
33.66
31.99
28.96
24.84
20.15
15.57
11.56
8.31
5.82
3.89
2.24
0.64
-0.96
-2.44
-3.59
-4.29
-4.64
-4.83
-5.1
-5.58
-6.29
-7.05
-7.65
-7.88
-7.63
-6.86
-5.56
-3.69
-1.29
1.54
4.53
7.31
9.55
11.07
11.97
12.53
13.1
13.89
14.83
15.62
15.86
15.29
13.84
11.71
9.23
6.67
4.2
1.79
-0.59
-2.92
-5
-6.49
-7.04
-6.52
-5.08
-3.19
-1.45
-0.4
-0.33
-1.19
-2.7
-4.4
-5.82
-6.53
-6.28
-5.09
-3.32
-1.58
-0.46
-0.29
-0.89
-1.68
-1.88
-0.92
1.14
3.76
6.11
7.54
7.84
7.23
6.21
5.33
4.88
4.74
4.6
4.15
3.27
2.11
0.99
0.29
0.53
2.02
4.69
8.1
11.76
15.17
18.07
20.29
21.71
22.65
23.33
23.77
23.83
23.5
22.91
22.43
22.27
22.42
23.19
24.6
26.36
27.9
28.72
28.46
27.11
24.74
18.9
9.14
-2.57
-12.99
-19.88
-22.41
-22.13
-20.35
-17.91
-15.21
-12.34
-9.34
-6.56
-4.58
-3.81
-4.44
-6.15
-8.58
-11.35
-13.92
-15.94
-17.53
-19.11
-21.02
-23.32
-25.68
-27.69
-29.07
-29.55
-29.15
-28.2
-27.13
-26.23
-25.55
-24.88
-24.05
-22.97
-21.59
-19.92
-18.09
-16.27
-14.63
-13.3
-12.31
-11.61
-11.07
-10.47
-9.58
-8.28
-6.64
-4.84
-3.11
-1.63
-0.49
0.37
1.04
1.66
2.34
3.12
3.99
4.89
5.77
6.59
7.34
8.03
8.63
9.09
9.39
9.54
9.64
9.84
10.28
11.04
12.07
13.18
14.06
14.44
14.13
13.13
11.64
9.95
8.41
7.25
6.56
6.29
6.2
6.04
5.59
4.79
3.74
2.65
1.74
1.14
0.82
0.63
0.43
0.2
0.02
0.01
0.28
0.76
1.27
1.59
1.54
1.11
0.41
-0.32
-0.84
-1.02
-0.82
-0.35
0.22
0.72
1.03
1.13
1.08
0.99
1.04
1.38
2.17
3.43
5.03
6.64
7.83
8.22
7.63
6.17
4.15
1.89
-0.46
-2.95
-5.74
-8.87
-12.15
-15.17
-17.45
-18.62
-18.56
-17.38
-15.36
-12.79
-9.99
-7.26
-4.95
-3.36
-2.7
-3
-4.08
-5.57
-7.07
-8.19
-8.72
-8.61
-7.96
-7.03
-6.04
-5.19
-4.56
-4.12
-3.82
-3.59
-3.37
-3.11
-2.77
-2.29
-1.61
-0.77
0.13
0.95
1.56
1.97
2.3
2.7
3.28
4.02
4.75
5.23
5.33
5.11
4.88
5.04
5.92
7.56
9.74
12.06
14.24
16.22
18.15
20.18
22.26
24.03
25.06
25.03
23.99
22.26
20.26
18.26
16.31
14.36
12.49
10.99
10.24
10.41
11.23
12.04
12.02
10.63
7.8
4.04
0.09
-3.37
-5.97
-7.71
-8.81
-9.57
-10.19
-10.76
-11.3
-11.85
-12.45
-13.21
-14.24
-15.66
-17.45
-19.5
-21.51
-23.11
-23.91
-23.68
-22.4
-20.25
-17.54
-14.63
-11.8
-9.27
-7.23
-5.84
-5.18
-5.25
-5.89
-6.86
-7.87
-8.72
-9.31
-9.61
-9.61
-9.26
-8.48
-7.22
-5.55
-3.69
-2
-0.86
-0.55
-1.13
-2.46
-4.19
-5.91
-7.19
-7.63
-6.96
-5.12
-2.27
1.11
4.38
6.89
8.29
8.61
8.25
7.78
7.68
8.07
8.75
9.32
9.45
9.03
8.28
7.57
7.25
7.53
8.43
9.83
11.64
13.78
16.12
18.41
20.25
21.19
20.94
19.54
17.48
15.44
14.13
13.91
14.69
16.02
17.23
17.67
16.89
14.7
11.23
6.9
2.36
-1.73
-4.83
-6.8
-7.94
-8.89
-10.32
-12.54
-15.35
-17.98
-19.51
-19.24
-17.07
-13.53
-9.47
-5.71
-2.68
-0.29
1.9
4.3
7.01
9.73
11.85
12.72
11.96
9.58
6.02
1.99
-1.81
-4.9
-7.12
-8.59
-9.51
-9.96
-9.88
-9.17
-7.85
-6.2
-4.75
-4.08
-4.57
-6.29
-8.98
-12.15
-15.27
-17.83
-19.49
-20.09
-19.69
-18.58
-17.14
-15.73
-14.55
-13.56
-12.57
-11.37
-9.87
-8.11
-6.19
-4.23
-2.28
-0.33
1.57
3.34
4.82
5.87
6.41
6.48
6.23
5.84
5.46
5.17
4.99
4.83
4.6
4.22
3.69
3.07
2.47
2.04
1.85
1.93
2.18
2.46
2.63
2.59
2.34
1.93
1.47
1.03
0.66
0.37
0.13
-0.1
-0.36
-0.64
-0.91
-1.12
-1.23
-1.21
-1.06
-0.77
-0.31
0.34
1.2
2.22
3.3
4.28
5
5.37
5.37
5.07
4.59
4.07
3.62
3.31
3.17
3.17
3.25
3.36
3.46
3.53
3.59
3.63
3.65
3.63
3.56
3.47
3.42
3.46
3.62
3.88
4.18
4.4
4.47
4.34
4.07
3.75
3.53
3.51
3.67
3.87
3.94
3.7
3.17
2.54
2.17
2.42
3.5
5.36
7.71
10.15
12.29
13.86
14.76
14.96
14.54
13.64
12.5
11.4
10.58
10.2
10.16
10.12
9.63
8.27
5.89
2.64
-1.02
-4.45
-7.09
-8.61
-8.95
-8.36
-7.26
-6.07
-5.06
-4.33
-3.76
-3.23
-2.62
-1.99
-1.49
-1.37
-1.85
-3.1
-5.07
-7.5
-9.98
-12.01
-13.19
-13.33
-12.48
-10.87
-8.77
-6.37
-3.81
-1.28
0.96
2.56
3.27
3.02
2.12
1.1
0.5
0.65
1.51
2.74
3.86
4.43
4.22
3.21
1.64
-0.07
-1.39
-1.83
-1.15
0.53
2.72
4.72
6.01
6.46
6.41
6.5
7.27
8.81
10.71
12.22
12.69
11.94
10.39
8.9
8.37
9.35
11.86
15.43
19.38
23.03
25.7
26.73
25.37
20.99
13.34
2.86
-9.18
-20.99
-30.77
-37.23
-39.89
-38.99
-35.18
-29.26
-22.03
-14.39
-7.33
-1.9
1.1
1.47
-0.3
-3.17
-6.01
-8.11
-9.49
-10.77
-12.75
-15.84
-19.79
-23.61
-26.09
-26.24
-23.75
-19.09
-13.26
-7.44
-2.56
0.92
2.98
3.9
4.01
3.59
2.83
1.84
0.75
-0.24
-0.96
-1.33
-1.39
-1.31
-1.26
-1.35
-1.57
-1.8
-1.9
-1.74
-1.28
-0.56
0.31
1.22
2.03
2.64
3
3.16
3.24
3.37
3.64
4.03
4.45
4.77
4.89
4.84
4.68
4.57
4.7
5.2
6.13
7.42
8.94
10.5
11.95
13.32
14.76
16.51
18.71
21.28
23.9
26.1
27.45
27.76
27.14
25.93
24.56
23.4
22.69
22.45
22.56
22.7
22.37
20.87
17.51
11.97
4.61
-3.36
-10.18
-14.14
-14.3
-10.96
-5.54
-0.06
3.66
4.58
2.63
-1.63
-7.37
-13.93
-20.81
-27.59
-33.72
-38.54
-41.36
-41.74
-39.6
-35.37
-29.9
-24.25
-19.48
-16.37
-15.22
-15.86
-17.73
-20.14
-22.43
-24.01
-24.32
-22.82
-19.09
-13.06
-5.31
2.86
9.75
13.76
14.03
10.88
5.63
0.17
-3.73
-4.98
-3.4
0.39
5.31
10.22
14.13
16.34
16.4
14.1
9.5
3.09
-4.23
-11.19
-16.54
-19.36
-19.43
-17.25
-13.79
-10.12
-6.98
-4.66
-3.03
-1.77
-0.59
0.68
2.13
3.85
5.91
8.34
10.97
13.41
15.08
15.48
14.41
12.07
9.08
6.16
3.89
2.5
1.82
1.46
0.99
0.16
-1.07
-2.57
-4.11
-5.45
-6.33
-6.48
-5.73
-4.01
-1.57
1.06
3.2
4.29
4.23
3.46
2.82
3.2
5.08
8.24
11.84
14.7
15.77
14.52
11.06
6
0.18
-5.59
-10.74
-14.89
-17.88
-19.62
-20.13
-19.48
-17.9
-15.7
-13.31
-11.13
-9.42
-8.24
-7.46
-6.82
-6.1
-5.16
-4.01
-2.8
-1.78
-1.18
-1.14
-1.62
-2.41
-3.13
-3.44
-3.14
-2.26
-1
0.38
1.62
2.62
3.37
3.93
4.34
4.65
4.84
4.92
4.89
4.74
4.48
4.13
3.79
3.56
3.54
3.72
4.01
4.26
4.39
4.39
4.34
4.34
4.46
4.64
4.81
4.91
4.94
4.92
4.87
4.7
4.29
3.57
2.56
1.42
0.37
-0.39
-0.76
-0.76
-0.48
-0.01
0.56
1.19
1.82
2.37
2.79
3.05
3.13
3.1
2.99
2.79
2.42
1.79
0.83
-0.44
-1.87
-3.25
-4.4
-5.19
-5.61
-5.72
-5.58
-5.23
-4.66
-3.87
-2.88
-1.76
-0.58
0.56
1.59
2.44
3.08
3.45
3.54
3.34
2.9
2.28
1.62
1.07
0.77
0.83
1.26
1.91
2.6
3.14
3.4
3.41
3.26
3.04
2.79
2.52
2.22
1.89
1.61
1.42
1.33
1.29
1.22
1.04
0.75
0.4
0.08
-0.18
-0.35
-0.47
-0.59
-0.71
-0.81
-0.85
-0.85
-0.81
-0.82
-0.93
-1.16
-1.5
-1.86
-2.23
-2.61
-3.09
-3.74
-4.56
-5.42
-6.1
-6.33
-6
-5.15
-4
-2.84
-1.87
-1.19
-0.73
-0.35
0.05
0.51
0.97
1.33
1.56
1.66
1.75
1.89
2.1
2.32
2.45
2.43
2.27
2.09
2.03
2.18
2.52
2.92
3.17
3.13
2.78
2.22
1.64
1.23
1.07
1.1
1.2
1.2
1.03
0.73
0.43
0.3
0.46
0.9
1.52
2.16
2.68
3.01
3.14
3.11
2.95
2.72
2.47
2.26
2.15
2.2
2.47
2.9
3.41
3.89
4.26
4.47
4.58
4.63
4.72
4.91
5.21
5.6
5.97
6.25
6.35
6.26
6.01
5.7
5.46
5.35
5.38
5.47
5.5
5.38
5.1
4.72
4.38
4.24
4.41
5
6
7.36
8.96
10.64
12.3
13.85
15.31
16.72
18.13
19.58
21.04
22.45
23.72
24.68
25.08
24.66
23.2
20.75
17.61
14.32
11.42
9.24
7.79
6.86
6.16
5.53
4.96
4.49
4.04
3.29
1.81
-0.75
-4.47
-9.09
-14.14
-19.18
-23.89
-28.09
-31.56
-33.94
-34.72
-33.46
-30.08
-25.09
-19.52
-14.68
-11.68
-10.98
-12.25
-14.4
-16.04
-15.91
-13.28
-8.13
-1.1
6.67
13.88
19.28
21.92
21.35
17.78
12.03
5.44
-0.53
-4.71
-6.55
-6.26
-4.62
-2.68
-1.34
-1.16
-2.34
-4.72
-7.97
-11.59
-15.06
-17.9
-19.78
-20.63
-20.57
-19.9
-18.88
-17.68
-16.3
-14.69
-12.8
-10.66
-8.36
-5.97
-3.5
-0.87
2.1
5.57
9.63
14.18
18.95
23.43
27.02
29.17
29.58
28.33
25.92
23.06
20.54
18.9
18.31
18.53
19.01
19.2
18.71
17.5
15.89
14.41
13.55
13.55
14.22
14.95
14.93
13.39
9.9
4.47
-2.38
-9.8
-16.76
-22.29
-25.7
-26.72
-25.51
-22.67
-19.06
-15.69
-13.41
-12.76
-13.76
-15.86
-18.13
-19.54
-19.34
-17.27
-13.71
-9.41
-5.27
-1.93
0.24
1.2
1.03
-0.12
-2.11
-4.73
-7.63
-10.41
-12.73
-14.48
-15.79
-16.92
-18.06
-19.23
-20.21
-20.75
-20.73
-20.22
-19.51
-18.92
-18.73
-19.02
-19.73
-20.61
-21.36
-21.68
-21.36
-20.37
-18.85
-17
-15.08
-13.21
-11.42
-9.68
-7.9
-6.02
-3.98
-1.68
0.99
4.03
7.28
10.39
12.87
14.32
14.61
13.95
12.8
11.65
10.88
10.57
10.62
10.81
10.98
11.08
11.11
11.07
10.89
10.47
9.73
8.63
7.24
5.69
4.11
2.59
1.19
-0.1
-1.33
-2.6
-4
-5.55
-7.16
-8.64
-9.76
-10.37
-10.47
-10.23
-9.91
-9.71
-9.69
-9.66
-9.31
-8.28
-6.3
-3.31
0.48
4.66
8.71
12.09
14.41
15.53
15.59
14.93
13.99
13.11
12.47
12.11
11.92
11.75
11.51
11.14
10.68
10.19
9.77
9.55
9.63
10.1
11.01
12.34
14.02
15.92
17.89
19.78
21.53
23.19
24.81
26.37
27.65
28.13
27.24
24.57
20.17
14.59
8.65
3.12
-1.5
-5.06
-7.61
-9.17
-9.76
-9.38
-8.22
-6.69
-5.32
-4.58
-4.71
-5.64
-7.16
-9
-10.98
-13.04
-15.18
-17.39
-19.61
-21.71
-23.52
-24.8
-25.41
-25.28
-24.45
-23.08
-21.31
-19.26
-17.01
-14.64
-12.24
-9.95
-7.92
-6.26
-5.01
-4.14
-3.56
-3.16
-2.84
-2.52
-2.17
-1.77
-1.33
-0.91
-0.55
-0.31
-0.16
-0.04
0.13
0.4
0.74
1.06
1.26
1.23
0.99
0.62
0.26
-0.01
-0.16
-0.26
-0.45
-0.84
-1.48
-2.29
-3.07
-3.6
-3.67
-3.24
-2.42
-1.44
-0.57
0.05
0.36
0.42
0.35
0.18
-0.05
-0.36
-0.71
-1
-1.13
-1.05
-0.79
-0.44
-0.08
0.26
0.62
1.09
1.71
2.45
3.19
3.79
4.12
4.12
3.8
3.24
2.54
1.81
1.15
0.63
0.3
0.14
0.11
0.12
0.09
0
-0.07
-0.02
0.29
0.88
1.7
2.61
3.42
4.03
4.45
4.79
5.23
5.89
6.78
7.78
8.68
9.31
9.48
9.12
8.22
6.85
5.1
3.08
1.01
-0.85
-2.16
-2.63
-2.07
-0.51
1.9
4.89
8.26
11.81
15.28
18.29
20.35
20.98
19.94
17.44
14.12
10.82
8.25
6.72
6.06
5.85
5.61
5.11
4.26
3.15
1.84
0.28
-1.62
-3.87
-6.4
-8.97
-11.24
-12.89
-13.63
-13.3
-11.9
-9.59
-6.71
-3.74
-1.14
0.73
1.76
2.07
1.9
1.5
1.01
0.43
-0.34
-1.39
-2.78
-4.5
-6.55
-8.96
-11.76
-14.94
-18.35
-21.7
-24.55
-26.46
-27.12
-26.4
-24.43
-21.52
-18.15
-14.82
-12
-9.98
-8.74
-7.99
-7.26
-6.07
-4.2
-1.76
0.86
3.2
4.94
6.01
6.59
6.93
7.21
7.43
7.51
7.43
7.28
7.28
7.67
8.49
9.54
10.43
10.78
10.4
9.39
8.09
6.94
6.25
6.13
6.47
7
7.46
7.6
7.32
6.63
5.66
4.63
3.77
3.2
2.93
2.84
2.74
2.49
2.02
1.38
0.68
0.14
-0.01
0.47
1.76
3.95
6.95
10.38
13.59
15.81
16.34
14.89
11.75
7.69
3.74
0.71
-1.11
-2.01
-2.65
-3.65
-5.29
-7.46
-9.87
-12.24
-14.5
-16.69
-18.78
-20.59
-21.77
-22.01
-21.19
-19.49
-17.35
-15.21
-13.38
-11.95
-10.81
-9.78
-8.71
-7.54
-6.3
-5.06
-3.87
-2.8
-1.85
-1.05
-0.38
0.16
0.62
1.05
1.5
1.97
2.41
2.7
2.77
2.63
2.38
2.25
2.42
2.92
3.58
4.12
4.27
3.95
3.23
2.34
1.53
0.95
0.66
0.68
0.98
1.54
2.31
3.18
4.03
4.73
5.22
5.48
5.56
5.46
5.16
4.57
3.63
2.38
0.94
-0.49
-1.72
-2.63
-3.19
-3.44
-3.46
-3.27
-2.89
-2.3
-1.56
-0.73
0.04
0.67
1.13
1.44
1.69
1.94
2.16
2.31
2.31
2.13
1.79
1.36
0.95
0.63
0.44
0.35
0.32
0.28
0.25
0.3
0.53
1.01
1.72
2.51
3.21
3.68
3.85
3.8
3.64
3.45
3.29
3.16
3.04
2.95
2.94
3.06
3.29
3.55
3.77
3.87
3.84
3.7
3.53
3.35
3.18
2.96
2.64
2.14
1.47
0.68
-0.13
-0.8
-1.28
-1.56
-1.76
-2.01
-2.37
-2.81
-3.19
-3.35
-3.23
-2.86
-2.36
-1.86
-1.42
-1.02
-0.62
-0.2
0.21
0.53
0.67
0.59
0.35
0.06
-0.13
-0.06
0.31
0.97
1.84
2.8
3.71
4.48
5.01
5.25
5.16
4.81
4.28
3.74
3.31
3.02
2.83
2.64
2.37
2.01
1.63
1.31
1.1
0.92
0.67
0.26
-0.32
-0.95
-1.46
-1.68
-1.52
-1.02
-0.3
0.5
1.23
1.81
2.19
2.34
2.29
2.09
1.83
1.61
1.52
1.59
1.78
2.03
2.25
2.4
2.46
2.42
2.28
2.06
1.78
1.5
1.27
1.14
1.13
1.19
1.26
1.26
1.13
0.87
0.52
0.14
-0.22
-0.55
-0.86
-1.18
-1.53
-1.91
-2.32
-2.7
-2.98
-3.07
-2.92
-2.47
-1.73
-0.77
0.29
1.31
2.15
2.71
2.96
2.94
2.74
2.49
2.28
2.17
2.16
2.23
2.37
2.54
2.7
2.78
2.73
2.5
2.13
1.72
1.42
1.31
1.41
1.61
1.81
1.9
1.8
1.52
1.09
0.56
-0.01
-0.55
-1.02
-1.4
-1.69
-1.89
-1.96
-1.85
-1.55
-1.1
-0.61
-0.22
-0.03
-0.05
-0.18
-0.25
-0.15
0.18
0.67
1.17
1.52
1.61
1.43
1.07
0.7
0.45
0.39
0.49
0.66
0.83
0.97
1.1
1.27
1.5
1.73
1.88
1.85
1.6
1.18
0.69
0.24
-0.1
-0.31
-0.4
-0.39
-0.33
-0.26
-0.25
-0.34
-0.58
-0.95
-1.34
-1.57
-1.47
-0.96
-0.11
0.91
1.91
2.71
3.25
3.55
3.8
4.21
4.88
5.77
6.71
7.49
7.95
8.04
7.82
7.71
8.08
9.14
10.75
12.52
14.02
14.96
15.27
15.15
15.28
16.23
18.18
20.8
23.48
25.59
26.74
26.85
26.08
25.11
24.55
24.75
25.74
27.35
29.37
31.46
33.09
31.36
24.37
12.14
-2.92
-17.51
-29.1
-36.54
-39.89
-40.03
-38.92
-37.13
-34.84
-32.22
-29.55
-27.23
-25.63
-25.07
-25.88
-27.49
-29.22
-30.62
-31.48
-31.96
-32.35
-32.89
-33.68
-34.58
-35.36
-35.55
-34.81
-33.01
-30.25
-26.8
-22.96
-19.02
-15.26
-11.89
-8.98
-6.55
-4.53
-2.82
-1.37
-0.17
0.72
1.28
1.53
1.66
1.89
2.41
3.28
4.39
5.5
6.41
7.03
7.39
7.55
7.61
7.59
7.48
7.3
7.14
7.14
7.41
7.99
8.72
9.43
9.89
9.99
9.73
9.19
8.46
7.64
6.76
5.8
4.78
3.71
2.63
1.6
0.69
-0.08
-0.7
-1.12
-1.26
-0.97
-0.09
1.46
3.65
6.37
9.42
12.68
16.05
19.54
23.15
26.88
30.71
34.62
38.59
42.54
46.22
49.13
50.66
50.3
47.89
43.69
38.36
32.66
27.25
22.61
19.03
16.75
15.77
15.85
16.32
16.23
14.66
11.09
5.7
-0.59
-6.47
-10.69
-12.56
-12.15
-10.27
-8.16
-7.04
-7.76
-10.52
-14.88
-19.91
-24.56
-27.91
-29.46
-29.23
-27.71
-25.73
-24.19
-23.85
-25.04
-27.64
-31.05
-34.35
-36.56
-36.81
-34.57
-29.82
-23.04
-15.23
-7.64
-1.41
2.73
4.6
4.5
3.02
0.82
-1.45
-3.1
-3.39
-1.65
2.46
8.67
15.96
22.84
27.8
29.83
28.7
24.98
19.81
14.59
10.67
9.07
10.19
13.65
18.31
22.5
24.63
23.75
19.98
14.52
9.24
5.92
5.64
8.4
13.17
18.31
22.15
23.54
22.23
18.96
15.11
12.16
11.03
11.77
13.48
14.73
14.14
10.95
5.41
-1.36
-7.76
-12.35
-14.43
-14.26
-12.95
-11.99
-12.61
-15.28
-19.46
-23.81
-26.82
-27.43
-25.58
-22.2
-18.86
-17.18
-18.14
-21.77
-27.15
-32.83
-37.36
-39.82
-40.09
-38.76
-36.92
-35.72
-36.05
-38.24
-42
-46.49
-50.69
-53.66
-54.95
-54.76
-53.84
-53.31
-54.22
-57.14
-61.99
-68.09
-74.27
-79.19
-81.59
-80.47
-75.35
-66.38
-54.4
-40.83
-27.37
-15.61
-6.58
-0.59
2.79
4.46
5.43
6.46
7.86
9.53
11.14
12.26
12.65
12.29
11.42
10.43
9.73
9.62
10.2
11.41
13.02
14.82
16.65
18.38
19.92
21.1
21.69
21.47
20.36
18.53
16.42
14.6
13.58
13.67
14.95
17.2
20
22.82
25.1
26.33
26.21
24.75
22.3
19.54
17.24
16.06
16.37
18.17
21.03
24.25
26.93
28.18
27.34
24.24
19.28
13.4
7.85
3.75
1.83
2.27
4.88
9.22
14.83
21.19
27.62
33.19
36.85
37.74
35.41
30.05
22.37
13.42
4.31
-3.91
-10.39
-14.48
-15.86
-14.63
-11.33
-6.86
-2.22
1.66
4.06
4.56
3.02
-0.39
-5.19
-10.68
-16.07
-20.66
-23.99
-25.79
-25.94
-24.41
-21.26
-16.76
-11.46
-6.07
-1.3
2.47
5.25
7.31
8.96
10.28
11.03
10.81
9.32
6.53
2.71
-1.65
-6.02
-9.94
-13.07
-15.27
-16.55
-17.16
-17.48
-17.91
-18.6
-19.4
-19.87
-19.51
-18.03
-15.55
-12.47
-9.3
-6.39
-3.75
-1.14
1.78
5.11
8.68
12.07
14.8
16.51
17.13
16.87
16.09
15.2
14.53
14.28
14.49
15.06
15.86
16.66
17.25
17.4
16.95
15.81
14.06
11.92
9.63
7.43
5.47
3.83
2.53
1.53
0.79
0.17
-0.47
-1.28
-2.34
-3.56
-4.77
-5.73
-6.28
-6.43
-6.29
-5.97
-5.59
-5.12
-4.54
-3.8
-2.93
-1.99
-1.03
-0.1
0.77
1.51
2.04
2.24
2.08
1.63
1.03
0.44
-0.06
-0.43
-0.73
-0.98
-1.24
-1.55
-1.98
-2.64
-3.51
-4.51
-5.43
-6.02
-6.13
-5.76
-5.01
-3.91
-2.42
-0.4
2.27
5.52
9.06
12.47
15.38
17.63
19.21
20.25
20.82
20.89
20.41
19.37
17.89
16.17
14.42
12.75
