6.4106e-05
-2.1956e-05
0.00023297
0.00072605
0.00095513
0.0006668
-0.00022077
-0.00097932
-0.0012122
-0.00094388
-0.00021218
0.00024414
7.7862e-05
-0.00014701
1.4858e-05
0.00021808
0.00015701
9.3522e-05
-4.5555e-05
-0.00068196
-0.0015083
-0.0019076
-0.0019448
-0.0018643
-0.0016897
-0.001456
-0.001013
-0.0003919
-0.00014225
-0.00055717
-0.0010899
-0.0015023
-0.001847
-0.0022859
-0.0025514
-0.0028862
-0.0037372
-0.0048413
-0.0056151
-0.0057817
-0.005892
-0.0061304
-0.0054911
-0.0040384
-0.0013498
0.0030581
0.0062564
0.0061252
0.0047076
0.0035311
0.0023828
0.001168
0.00032567
-0.00013401
-0.0003793
-0.00056657
-0.000702
-0.00086202
-0.00086589
-0.0010813
-0.0014739
-0.0015847
-0.0013382
-0.00088071
-0.00040744
0.00014437
0.0011418
0.0019083
0.0017861
0.0014567
0.0014651
0.0014347
0.00077981
0.00063025
0.001456
0.0020048
0.0018903
0.0017205
0.0016502
0.0017173
0.0018917
0.0020715
0.0024383
0.0026584
0.0023288
0.0016987
0.0011339
0.00089039
0.00089456
0.0009028
0.00095048
0.00090816
0.00037953
-0.00047518
-0.0011674
-0.0014943
-0.001511
-0.0014569
-0.0013556
-0.0011159
-0.0012487
-0.0017646
-0.0021117
-0.0021707
-0.002012
-0.001727
-0.0014241
-0.0010065
-0.00081424
-0.0011357
-0.0015326
-0.0018605
-0.0020547
-0.0019855
-0.0018183
-0.0015559
-0.0012112
-0.0012284
-0.0015037
-0.0016215
-0.0015637
-0.001471
-0.0012661
-0.00099675
-0.00058908
-0.00039496
-0.00063983
-0.00097586
-0.0011618
-0.0011499
-0.00096107
-0.00074929
-0.00050658
-0.0003481
-0.00058983
-0.001031
-0.0012677
-0.0012459
-0.0010977
-0.00087968
-0.00055281
-0.00017105
-0.00017351
-0.0005864
-0.0009823
-0.0011567
-0.0010752
-0.00083334
-0.00057963
-0.00018312
5.5893e-05
-0.0001683
-0.00050429
-0.00067062
-0.00058441
-0.00032338
-6.9867e-05
0.00021808
0.00066979
0.00064015
0.00015526
-0.00014516
-0.00014461
-5.7592e-05
0.00012512
0.000437
0.0011165
0.0018157
0.001842
0.0015134
0.0013488
0.0014008
0.0015477
0.0016633
0.001751
0.0019752
0.0018717
0.0011106
0.00026542
-0.00015635
-0.0001832
-0.00010274
-1.9941e-05
0.00030555
0.0005674
0.00012959
-0.00057547
-0.00086793
-0.00067157
-0.00031617
-1.6585e-05
0.0003847
0.00095368
0.00092697
0.00020166
-0.00047204
-0.00067529
-0.00058929
-0.00042815
-0.00038108
-4.381e-05
0.00041121
0.000215
-0.00026985
-0.00048934
-0.00055366
-0.00059334
-0.00060495
-0.00051795
-0.00013175
1.4985e-05
-0.00047778
-0.0010336
-0.0012012
-0.0011359
-0.0010461
-0.00097435
-0.00071739
-0.00035506
-0.00061162
-0.0012765
-0.0017326
-0.0018283
-0.0017585
-0.0016503
-0.0014742
-0.001063
-0.00089273
-0.0013231
-0.0018794
-0.0021237
-0.0020328
-0.001816
-0.0016369
-0.0013437
-0.0007872
-0.00057307
-0.00090694
-0.0012534
-0.0012567
-0.001107
-0.0010302
-0.00094962
-0.00072331
-0.00024603
-0.00015935
-0.00068377
-0.0011638
-0.001217
-0.0011426
-0.0011446
-0.0011469
-0.00084353
-0.00040011
-0.00049859
-0.00093445
-0.001157
-0.0011062
-0.0010092
-0.00093884
-0.00081138
-0.00034202
-3.2308e-06
-0.00037654
-0.00085137
-0.00097981
-0.00087693
-0.00073535
-0.00058178
-0.00038456
1.5637e-05
0.00025746
1.4585e-05
-0.00042502
-0.00063259
-0.00062154
-0.00063532
-0.00066303
-0.00056542
-0.00018785
-7.2291e-06
-0.0004505
-0.00092269
-0.00089533
-0.00055997
-0.00012035
0.00070066
0.0017037
0.0024333
0.002427
0.0016836
0.00078028
8.4977e-05
-0.00018184
-0.00018819
-0.00038839
-0.00049402
-0.00019841
-0.00029641
-0.00070798
-0.00092886
-0.00084271
-0.00063292
-0.0004934
-2.6969e-05
0.00094901
0.001641
0.0016991
0.0017867
0.0029568
0.0038686
0.0037002
0.0032089
0.0028374
0.0026703
0.0023989
0.0016675
0.00096734
0.00066515
0.00054074
0.0004965
0.00053462
0.00082377
0.00099376
0.00059122
8.5015e-05
-0.00013902
-0.00012647
-9.1597e-05
-5.2826e-05
0.00032214
0.00078089
0.00059178
5.339e-05
-0.00033664
-0.00047553
-0.00039076
-0.00026716
-0.00016932
0.00014338
0.00020489
-0.0002675
-0.00067464
-0.00079586
-0.00075626
-0.00070507
-0.00058114
-0.0002353
0.00016458
1.7234e-05
-0.00050122
-0.00083239
-0.00083668
-0.00084044
-0.00087767
-0.00082896
-0.00053701
-0.00034242
-0.00065938
-0.001069
-0.0011966
-0.0011598
-0.0010751
-0.0011376
-0.0010697
-0.0007798
-0.00089924
-0.0012966
-0.0014524
-0.0014096
-0.0013128
-0.0011935
-0.0010791
-0.00078459
-0.00064598
-0.0010541
-0.0015801
-0.0017543
-0.0016917
-0.0015886
-0.0015376
-0.0014225
-0.00098068
-0.00071464
-0.00099648
-0.0014137
-0.0015662
-0.0015385
-0.0014611
-0.001323
-0.0011693
-0.00083365
-0.00038365
-0.00031505
-0.00059112
-0.00083693
-0.0009612
-0.001173
-0.0014081
-0.0013779
-0.0012138
-0.0010048
-0.00071318
-0.00057099
-0.00067907
-0.00093759
-0.0012164
-0.001316
-0.0012314
-0.0012289
-0.0012619
-0.001023
-0.00060114
-0.0005025
-0.00070491
-0.00087628
-0.00092332
-0.0010079
-0.0010582
-0.00099928
-0.00090775
-0.00063608
-0.00020225
-0.00013202
-0.00040955
-0.00070668
-0.00096835
-0.0013217
-0.0016057
-0.0015941
-0.0014196
-0.0012183
-0.00086337
-0.00059543
-0.00072118
-0.00097386
-0.001063
-0.0010334
-0.001092
-0.0012791
-0.0014313
-0.0015252
-0.0013782
-0.00098969
-0.00089645
-0.0010775
-0.0011524
-0.0011087
-0.0010475
-0.0010656
-0.0010645
-0.00094048
-0.00076361
-0.00044762
-0.00022397
-0.00037183
-0.00063703
-0.0007892
-0.0008636
-0.00098654
-0.0011029
-0.0011826
-0.0011051
-0.00068324
-0.00036026
-0.00070819
-0.0010974
-0.0010718
-0.00095078
-0.0010663
-0.0012494
-0.0012056
-0.00095716
-0.00045768
0.00016834
0.00024249
-1.3646e-05
-0.00015701
-0.000244
-0.00025308
-0.00014714
3.1442e-05
0.00037787
0.00080068
0.0013161
0.0014176
0.00091542
0.0003239
2.1414e-05
-9.2161e-05
-0.0002329
-0.00028557
-9.5742e-05
0.00033491
0.00076213
0.00089183
0.00081554
0.00082514
0.0010421
0.0012676
0.0014098
0.0015975
0.0018775
0.0022701
0.0023453
0.0016733
0.0011588
0.0010072
0.00068222
0.00039108
0.00021125
0.00019039
0.00052439
0.0011223
0.0011898
0.00062926
-5.0603e-05
-0.00052465
-0.00092246
-0.0013387
-0.0017004
-0.0017963
-0.0014915
-0.0014342
-0.0018536
-0.0023961
-0.0027871
-0.0029896
-0.0029631
-0.0027331
-0.0025403
-0.0021273
-0.0016671
-0.0016486
-0.0017055
-0.0016854
-0.0018123
-0.0020705
-0.0021987
-0.0022235
-0.0021464
-0.001781
-0.001437
-0.0014053
-0.0015869
-0.001707
-0.0015959
-0.0013654
-0.0010874
-0.00075607
-0.00026328
0.00027874
0.00050602
0.00030736
7.7077e-05
-0.00012057
-0.00044283
-0.00071604
-0.00066477
-0.00027762
0.00013183
0.00046378
0.00059434
0.00050632
0.00038025
0.00027687
0.0001022
-8.8795e-05
-0.0002074
-0.00036636
-0.00030112
0.00010657
0.00048172
0.00031163
-0.00016103
-0.00042998
-0.00030263
2.0679e-05
0.00011673
9.3138e-05
0.00033189
0.00051471
0.00049379
0.00018315
-0.00021848
-0.00058426
-0.00095238
-0.0011128
-0.001047
-0.00088288
-0.00070742
-0.00029658
0.00042187
0.0014986
0.0028142
0.0034526
0.0032741
0.002564
0.0016704
0.0013961
0.0014715
0.001749
0.0025695
0.0036447
0.0050847
0.0068804
0.0082137
0.0085086
0.008054
0.0072715
0.0063359
0.0053041
0.0044239
0.0037739
0.0032692
0.0029382
0.0031162
0.0031223
0.0024616
0.0018327
0.001351
0.0010287
0.0010085
0.00083764
0.00036156
-0.00034399
-0.00099831
-0.0013744
-0.0013064
-0.0011568
-0.0014335
-0.0018484
-0.0022433
-0.0025204
-0.0024825
-0.0022328
-0.0019611
-0.0017221
-0.0013651
-0.0010665
-0.00067483
-0.00010195
-5.2342e-05
-0.00060326
-0.0011314
-0.0013068
-0.0012337
-0.0012529
-0.0014696
-0.0015265
-0.0013905
-0.0010161
-0.00027045
0.00019889
6.6459e-05
-0.0002703
-0.00059371
-0.000956
-0.0013127
-0.0015126
-0.0016489
-0.0016459
-0.0014208
-0.0010343
-0.00062003
-0.00065043
-0.0011123
-0.0016165
-0.0020348
-0.0024659
-0.0028335
-0.0028981
-0.0027836
-0.002565
-0.0020723
-0.001603
-0.0010516
-0.00037227
-0.00030656
-0.0008462
-0.0014861
-0.002196
-0.0028613
-0.0031395
-0.0030718
-0.0028191
-0.0024363
-0.0020168
-0.0014093
-0.00074966
-0.00031317
-3.0928e-05
0.00011805
0.00013143
4.6251e-05
-5.8966e-05
4.2893e-05
0.0003112
0.00042654
0.00050099
0.00071094
0.00059393
6.5608e-05
-0.00069342
-0.0014741
-0.001918
-0.0019621
-0.0017983
-0.0015772
-0.0013507
-0.0012107
-0.00094868
-0.00054667
-0.00049037
-0.0009682
-0.0019285
-0.0033332
-0.0045198
-0.0047277
-0.0039329
-0.0026686
-0.0012445
-9.5746e-06
0.00088401
0.0016125
0.0019558
0.0017266
0.0013943
0.0013407
0.0013393
0.0014177
0.0015535
0.0016443
0.0017208
0.0018987
0.0023238
0.0027548
0.0026597
0.0020794
0.0012128
0.00016421
-0.00081303
-0.0017305
-0.0026383
-0.0033804
-0.0034992
-0.0024741
-0.00027031
0.0022899
0.003988
0.0046744
0.004692
0.0044674
0.0042199
0.0038941
0.0034192
0.0030097
0.0028603
0.0029752
0.0033997
0.0040081
0.0041199
0.0036858
0.0030485
0.0024834
0.0021245
0.0018581
0.0015142
0.0011951
0.00099074
0.0010978
0.001506
0.0017126
0.0014278
0.0008972
0.00045238
0.00017607
-0.00019604
-0.00050402
-0.00068504
-0.00075027
-0.00073776
-0.0006145
-7.6591e-05
0.00050625
0.0004227
-0.00011511
-0.00067198
-0.0010031
-0.0010489
-0.00099744
-0.00086946
-0.0004684
5.7736e-05
0.00066577
0.0014657
0.0022508
0.0024114
0.001956
0.0014712
0.0013138
0.001342
0.0012231
0.0009431
0.00069894
0.00063893
0.00093446
0.0013575
0.0013043
0.00091045
0.00065771
0.00043846
7.8642e-05
-0.00032546
-0.00073136
-0.0011484
-0.0015222
-0.001656
-0.0014617
-0.001097
-0.0010666
-0.0013256
-0.0016242
-0.0020096
-0.0025332
-0.0031156
-0.0034647
-0.0035676
-0.0033793
-0.0031336
-0.0033588
-0.0038887
-0.0044449
-0.0051388
-0.0059182
-0.0066964
-0.0073879
-0.0077706
-0.007597
-0.006843
-0.0058038
-0.0050183
-0.0044289
-0.0037655
-0.0029053
-0.0020714
-0.0014182
-0.00086889
-0.00039628
-6.9744e-05
5.5828e-07
-0.00033632
-0.0010432
-0.0021551
-0.0033792
-0.0043648
-0.0047689
-0.0043505
-0.0033947
-0.0022899
-0.00089839
0.00017406
0.00071508
0.00095525
0.00093192
0.00091356
0.00099484
0.0010913
0.001288
0.001765
0.0023516
0.0026186
0.0022934
0.0016299
0.0010216
0.00054633
9.0802e-05
-0.00010446
0.00019049
0.00061631
0.0010466
0.0015872
0.0018667
0.001928
0.0020006
0.001858
0.0017281
0.0015288
0.00069723
-0.00099248
-0.0031183
-0.0054092
-0.007527
-0.0088643
-0.0093827
-0.009295
-0.0088832
-0.008229
-0.0074053
-0.0065367
-0.0054625
-0.0040415
-0.0026519
-0.0014976
-0.00029248
0.0009195
0.0018421
0.0025821
0.0031318
0.0035034
0.0040004
0.0043278
0.0041112
0.0036868
0.0032834
0.0029449
0.0027842
0.0027493
0.0027869
0.0030739
0.0036577
0.003948
0.0038481
0.0036987
0.0036913
0.0039158
0.0041002
0.004115
0.0041427
0.00429
0.004483
0.0043811
0.0039157
0.0032936
0.0028175
0.0025616
0.0023826
0.0023299
0.0024868
0.0028408
0.0032594
0.0032573
0.0028162
0.0023562
0.0020459
0.00176
0.0015457
0.0014345
0.0014872
0.0018585
0.0022022
0.0020686
0.0017329
0.0013839
0.0010389
0.00079201
0.00064416
0.00047222
0.0004378
0.00061937
0.0011065
0.001656
0.0017029
0.0013115
0.00083243
0.00041011
5.7786e-05
-0.00029998
-0.00049733
-0.00037314
-0.00011499
0.00028837
0.00080851
0.00088531
0.00046425
-3.3367e-05
-0.00044942
-0.00081177
-0.0010866
-0.0012519
-0.001273
-0.0013161
-0.0011721
-0.00082381
-0.00083209
-0.0012312
-0.0017678
-0.0025214
-0.0035084
-0.0045733
-0.00541
-0.005568
-0.0053294
-0.0050455
-0.0038804
-0.001881
-8.2187e-05
0.0011242
0.0018516
0.0024129
0.0027347
0.0023627
0.0014005
0.00018601
-0.0010421
-0.002153
-0.0030794
-0.0035774
-0.0036445
-0.0036574
-0.0040183
-0.0040775
-0.0037394
-0.0033573
-0.0029246
-0.0025804
-0.0020832
-0.0012097
-0.00021438
0.00074731
0.0014983
0.0016686
0.0016216
0.0017051
0.0018354
0.0020231
0.001864
0.001331
0.00099247
0.00095207
0.0010598
0.0010088
0.00056392
-4.7234e-06
-0.00032391
-0.00044003
-0.00053804
-0.00048664
-0.00023369
0.00018504
0.00062061
0.0010591
0.001901
0.0026245
0.0026849
0.0025402
0.0023749
0.0022013
0.0021351
0.0020596
0.001976
0.0020269
0.0021571
0.0023846
0.0029177
0.0034312
0.0034149
0.0028151
0.0019955
0.0013632
0.00092727
0.00035532
-0.00029318
-0.00064536
-0.00066211
-0.00049338
-4.4027e-05
0.00099551
0.0019816
0.0020934
0.0014633
0.0005554
-0.0003199
-0.0011731
-0.0016507
-0.0017418
-0.0016464
-0.0012612
-0.00048508
0.00068599
0.0018386
0.002478
0.0026568
0.0023892
0.001881
0.0010479
-0.00048017
-0.0027434
-0.0047563
-0.0056358
-0.005342
-0.0041063
-0.0021632
-0.00017675
0.0011669
0.0021837
0.0029682
0.0034348
0.0037169
0.0038052
0.0038215
0.0037646
0.0035627
0.0033389
0.0030571
0.0027959
0.0024691
0.0019057
0.0011723
0.00052929
9.2245e-05
-0.00037835
-0.0008194
-0.0010862
-0.0012579
-0.0012816
-0.0011521
-0.0010244
-0.00081821
-0.00029015
0.00039676
0.00070215
0.00058139
0.00029133
7.0022e-05
-0.0001266
-0.00043039
-0.00067925
-0.00082363
-0.00095275
-0.00098402
-0.00083779
-0.00044572
-0.00014303
-0.00012816
-0.00010678
8.7802e-05
0.00045657
0.00094535
0.0014931
0.0022911
0.0033347
0.0045676
0.0057381
0.006037
0.0054345
0.0046577
0.0036539
0.0024193
0.0011758
4.4067e-05
-0.0007112
-0.0011967
-0.0017312
-0.0022719
-0.0028587
-0.0033019
-0.0034232
-0.0034115
-0.0032071
-0.0028679
-0.0026416
-0.0024623
-0.0023262
-0.0021232
-0.0018871
-0.0018414
-0.0019068
-0.0018985
-0.0017896
-0.0016816
-0.0017048
-0.0017595
-0.0019018
-0.0022405
-0.0026194
-0.0028366
-0.0027981
-0.0026801
-0.0026525
-0.0026628
-0.0026299
-0.0024451
-0.002102
-0.0016394
-0.00095084
-0.00025623
0.00034786
0.00081071
0.0011219
0.0014138
0.0014536
0.0012341
0.00072423
9.5268e-05
-0.00026404
-0.00042795
-0.00057688
-0.00071686
-0.0010356
-0.0015261
-0.0018805
-0.0018984
-0.0016944
-0.001443
-0.0013562
-0.0013485
-0.0012123
-0.00097427
-0.000731
-0.00044357
2.0997e-05
0.00048515
0.00072073
0.00080086
0.00078899
0.00076544
0.000784
0.00080399
0.0008225
0.00099401
0.0013077
0.0017139
0.0022879
0.0027258
0.0027614
0.0026249
0.0024736
0.0022894
0.0019863
0.0015992
0.0012114
0.00098642
0.00094553
0.0010885
0.0015454
0.0020718
0.0023391
0.0024451
0.0023334
0.0020622
0.0017253
0.0013468
0.0010158
0.00076165
0.00061714
0.00060068
0.0007658
0.0012938
0.0018775
0.0020216
0.0018892
0.0016349
0.0011446
0.00061113
0.0001319
-0.00035944
-0.00067534
-0.00089059
-0.00087462
-0.00050676
4.7622e-05
0.00068083
0.00096638
0.00085168
0.00056249
0.00023686
-3.3631e-05
-0.00024161
-0.00048004
-0.00067772
-0.00073927
-0.00063531
-0.000417
-6.1071e-05
9.0041e-05
-0.00012518
-0.00035055
-0.00047153
-0.00051237
-0.00052585
-0.00065416
-0.00099055
-0.0012843
-0.0013126
-0.0011707
-0.0007107
-0.00021518
-0.00011655
-0.00031684
-0.00066359
-0.0010145
-0.0013032
-0.0016451
-0.0020377
-0.0022447
-0.0022618
-0.0022002
-0.0020044
-0.0016963
-0.0014606
-0.0014105
-0.0014719
-0.0018001
-0.0022475
-0.0025249
-0.002672
-0.0026783
-0.0024664
-0.0022466
-0.0021299
-0.0020575
-0.0018707
-0.0013847
-0.00096173
-0.00082046
-0.00081308
-0.00090233
-0.00094052
-0.00095667
-0.0010002
-0.0011061
-0.0012042
-0.0013251
-0.0014129
-0.0013408
-0.0011731
-0.00081484
-0.00039027
-0.00025868
-0.00022431
-0.00010536
3.1411e-05
9.9374e-05
8.6272e-05
0.00010079
0.00027345
0.0005667
0.00087636
0.001072
0.0011518
0.00098271
0.00081859
0.0010409
0.0011643
0.00084206
0.00025882
-0.00039916
-0.00093973
-0.0012518
-0.0013503
-0.0012606
-0.0011571
-0.0010024
-0.0007652
-0.00055691
-0.00027548
-6.9198e-05
-0.00012616
-0.00016553
-4.7148e-05
8.8924e-05
0.00015258
0.00018121
0.00039862
0.00068077
0.0008894
0.00123
0.0015622
0.0015437
0.0012555
0.00081968
0.00050784
0.00030761
0.00011793
3.3932e-05
3.7119e-05
0.00016542
0.0004092
0.00061842
0.0008797
0.0011577
0.0010994
0.00080324
0.00054075
0.00037008
0.00036268
0.00033504
0.00021372
0.00011258
7.2923e-05
0.00017807
0.00055752
0.0010149
0.0012346
0.0011408
0.00098284
0.00098357
0.0011876
0.0015134
0.0017066
0.0017637
0.0018021
0.0018768
0.0020723
0.0024185
0.0028656
0.0030829
0.0028737
0.0024895
0.0021506
0.0017503
0.0013767
0.0010728
0.00067536
0.00029123
0.0001024
0.00012212
0.00031227
0.00078624
0.0014891
0.001928
0.0017615
0.0013251
0.0010328
0.00076891
0.00056747
0.00047558
0.00038724
0.00034223
0.00058608
0.0010995
0.0016037
0.0017914
0.0017045
0.0014892
0.00109
0.00053636
6.5518e-05
-0.00045514
-0.0011975
-0.0018929
-0.0023736
-0.0024766
-0.0020609
-0.0013872
-0.00086015
-0.00047052
-0.00013059
1.5687e-05
-0.00016079
-0.00060773
-0.00089981
-0.00099303
-0.0011176
-0.0011744
-0.001023
-0.00077762
-0.00047279
-0.00035833
-0.00054606
-0.00078495
-0.00086359
-0.00087929
-0.00090726
-0.00088888
-0.00085092
-0.00082116
-0.00073684
-0.00064912
-0.00064871
-0.00067412
-0.00079164
-0.0010792
-0.0012736
-0.0012696
-0.0011917
-0.0011569
-0.0012491
-0.0012458
-0.0010915
-0.00098909
-0.00083547
-0.00062828
-0.00035479
-0.00013231
-2.8312e-05
1.1617e-06
-0.00010165
-0.00033838
-0.0005036
-0.00047244
-0.00037856
-0.00036105
-0.00036123
-0.00037533
-0.00010003
0.00051004
0.00095588
0.001037
0.00097566
0.00087399
0.00087226
0.00098545
0.0010045
0.00098099
0.0010259
0.00088184
0.00061944
0.00053249
0.00065212
0.0010185
0.0014901
0.0017579
0.0018495
0.0017945
0.0016348
0.0013677
0.0011238
0.0007084
0.00023327
-2.1971e-05
-8.2991e-05
-7.542e-05
0.00010755
0.00044927
0.00098263
0.0014163
0.0014581
0.0014207
0.0014639
0.0014339
0.001439
0.0014698
0.0015228
0.0015949
0.0016672
0.0018039
0.0021131
0.0025887
0.0028024
0.0026049
0.0021625
0.0016514
0.001296
0.0009766
0.00053363
0.00017632
-4.4664e-05
-0.00019643
-0.0001576
-1.1833e-05
0.00023652
0.00056326
0.00064861
0.0003687
2.2024e-05
-0.00025338
-0.00043385
-0.00066678
-0.0010391
-0.0012866
-0.0013852
-0.0014683
-0.0014882
-0.0014309
-0.0011586
-0.0009469
-0.00090771
-0.00094597
-0.0010913
-0.0012675
-0.0014111
-0.0015302
-0.0016441
-0.0017951
-0.001911
-0.0018406
-0.0016127
-0.0012187
-0.0007353
-0.00063647
-0.00082329
-0.00090388
-0.00092804
-0.0010319
-0.0011124
-0.0012261
-0.0013981
-0.0014752
-0.0014241
-0.001307
-0.00094558
-0.00070713
-0.00083487
-0.00099535
-0.0010785
-0.0011423
-0.0013655
-0.0018262
-0.0022371
-0.0024107
-0.0024506
-0.0022635
-0.0018332
-0.0014141
-0.0011316
-0.00094916
-0.00077132
-0.00050954
-0.0003478
-0.00035408
-0.00020848
-3.6436e-05
-0.0001119
-0.00023176
-0.00030978
-0.00021131
-3.62e-05
-0.00012045
-0.00025915
-0.00024924
-0.00023517
-0.00022063
-0.00014359
-0.00010706
-0.00017821
-0.00040883
-0.00051566
-0.0004224
-0.00014818
9.3629e-05
0.00011296
-7.7476e-06
-0.00012371
-0.00016699
-0.00023957
-0.00023201
-7.3882e-05
0.00020508
0.00055042
0.00087261
0.0011314
0.0011649
0.00099238
0.00089377
0.00094005
0.0010223
0.0010056
0.00084195
0.00092541
0.0012414
0.001524
0.0017737
0.0019745
0.0020148
0.0019142
0.0017399
0.0015539
0.0015476
0.0018072
0.0020349
0.0020955
0.0022863
0.002546
0.0028074
0.0030536
0.0029661
0.002836
0.0027017
0.0021812
0.0015109
0.001022
0.00064028
0.00042942
0.00044604
0.00050655
0.00052364
0.00041963
1.8988e-05
-0.00053366
-0.00089511
-0.0011927
-0.0015292
-0.0017701
-0.0019381
-0.0018855
-0.0017584
-0.0016933
-0.0015825
-0.0012759
-0.00081904
-0.00054469
-0.00049923
-0.00041451
-0.00041837
-0.00050294
-0.00051904
-0.00057838
-0.00072775
-0.00086184
-0.00083665
-0.00064655
-0.00040609
-9.4608e-05
0.00028932
0.00031627
-7.4359e-05
-0.0004603
-0.00068017
-0.00081709
-0.00086879
-0.00098133
-0.0011973
-0.0012426
-0.0011293
-0.00082682
-0.0004432
-0.0003148
-0.00043613
-0.0006085
-0.00078854
-0.00086776
-0.00091874
-0.0010339
-0.0012532
-0.0012729
-0.00085831
-0.00038259
-0.00011462
0.00023616
0.00055048
0.00050446
0.00038914
0.00034212
0.00023168
2.83e-05
-0.00030851
-0.00070608
-0.00097826
-0.0010728
-0.0010712
-0.0010556
-0.00095393
-0.00068153
-0.00047083
-0.00047012
-0.00061253
-0.00080416
-0.0009074
-0.00081416
-0.00052683
-0.00019559
-6.6555e-05
-0.00012199
-0.00013865
-4.3023e-05
0.00017978
0.00050813
0.00052837
0.00022285
-0.00016595
-0.00048356
-0.00051053
-0.00026514
-0.0001062
-0.00018538
-0.00030368
-0.00022689
3.6509e-05
0.0003525
0.00038338
2.2735e-05
-0.00031404
-0.00044753
-0.00024041
0.00012752
6.705e-05
-0.00034934
-0.00088396
-0.0012195
-0.0010994
-0.00081533
-0.00059187
-0.00035859
-0.00024242
-0.00025724
-0.00038388
-0.00048327
-0.00041545
-0.00032197
-0.00035837
-0.00037644
-0.00019859
5.7738e-06
-4.8557e-05
-0.00014757
1.1323e-06
0.0001683
0.00013481
6.9605e-05
-8.2586e-06
-3.8769e-05
6.5288e-05
0.00044579
0.00093364
0.0012048
0.0012644
0.001363
0.0015109
0.0018841
0.0023711
0.0024715
0.0023599
0.0022724
0.0021598
0.0020347
0.0019545
0.0018927
0.0017763
0.0016465
0.0016517
0.0018032
0.002015
0.0020793
0.0020533
0.0020849
0.0019875
0.0019145
0.0018601
0.0016431
0.0013754
0.0012372
0.0012631
0.0012844
0.0013361
0.0016215
0.001813
0.001771
0.0017884
0.0017808
0.0016888
0.0015147
0.0011874
0.00092606
0.00091759
0.0010257
0.001173
0.0013867
0.001601
0.0017492
0.0015766
0.0012553
0.0010375
0.00073925
0.00025817
-0.00022523
-0.00059247
-0.00080903
-0.00085161
-0.00082246
-0.00073825
-0.0005453
-0.00047495
-0.00057807
-0.00073822
-0.0009161
-0.0010983
-0.0012975
-0.0015148
-0.0015806
-0.0014207
-0.0011367
-0.00083151
-0.00041674
-0.00013027
-0.00011515
-0.00028017
-0.00057961
-0.00087758
-0.0011181
-0.0012917
-0.0012647
-0.0010879
-0.00080075
-0.00037719
0.00013931
0.00043252
0.00035687
0.00019697
-7.45e-05
-0.0005575
-0.00096358
-0.0012655
-0.0013866
-0.0011556
-0.00080201
-0.00046516
-4.2522e-05
0.00042696
0.00070595
0.00077672
0.0007515
0.00080382
0.00080193
0.00054586
0.00011855
-0.00025941
-0.00037423
-0.00032192
-0.00024644
-0.00017049
-0.0002101
-0.00030368
-0.00027525
-0.00017452
-5.2353e-05
7.5974e-05
6.3246e-05
-0.0001915
-0.0003625
-0.00042262
-0.00038542
-0.00014348
0.00022547
0.00071632
0.00099748
0.00094644
0.00081915
0.00083951
0.00099801
0.00096884
0.00072386
0.00044811
0.00023512
4.3613e-05
-6.065e-05
-9.2082e-05
0.00010805
0.00040056
0.00042741
0.00020025
-0.00011894
-0.00036392
-0.00053252
-0.00065873
-0.0008262
-0.0010809
-0.0013846
-0.0016497
-0.0015518
-0.0011539
-0.00090759
-0.00087081
-0.00090449
-0.00097215
-0.0010308
-0.00095614
-0.00082522
-0.00073256
-0.0004641
7.3397e-06
0.00045233
0.0010364
0.0017792
0.0020535
0.0020235
0.0019153
0.0016919
0.0013955
0.00098958
0.00071317
0.00065633
0.00060143
0.00070711
0.0010997
0.0016119
0.0021246
0.0024662
0.0024862
0.0024792
0.0027012
0.0028914
0.0027642
0.0023342
0.0018388
0.0014368
0.0011021
0.00089425
0.00074539
0.00064522
0.00068892
0.00061193
0.00031142
4.0033e-05
-0.00021427
-0.00047205
-0.00055026
-0.00045169
-0.000357
-0.00023286
3.0848e-05
0.00045643
0.00096271
0.001324
0.0013424
0.0012333
0.0010901
0.00091776
0.00073952
0.00044157
-0.00010302
-0.00068376
-0.0010481
-0.0010901
-0.00085524
-0.00049967
-0.00030998
-0.00054578
-0.00090282
-0.0011795
-0.0014177
-0.0015263
-0.0015317
-0.0015515
-0.0017241
-0.0018854
-0.0019235
-0.0019445
-0.0019971
-0.0019466
-0.0020619
-0.0022955
-0.0024024
-0.0024912
-0.0025485
-0.0025236
-0.0024917
-0.0023752
-0.0021744
-0.0018975
-0.0015935
-0.0014529
-0.0015081
-0.0016067
-0.0016364
-0.0016982
-0.0017359
-0.0017114
-0.0017657
-0.0017637
-0.0016271
-0.0013188
-0.0010183
-0.00085217
-0.00073906
-0.00070726
-0.00072688
-0.00066162
-0.00056506
-0.00064497
-0.00091532
-0.0012938
-0.0015917
-0.0015795
-0.0013931
-0.001265
-0.0010807
-0.0008638
-0.00079364
-0.00067698
-0.0005064
-0.000228
0.00013943
0.00036735
0.0003942
0.00042954
0.00043674
0.00040677
0.00032496
0.00023726
0.0002854
0.00037148
0.00028153
0.00013598
6.3348e-05
-2.2316e-05
-0.00027783
-0.00059907
-0.00079709
-0.00092607
-0.0011268
-0.0012419
-0.000974
-0.00063351
-0.00047633
-0.00040005
-0.00038218
-0.00033521
-0.00033714
-0.00049884
-0.00070966
-0.0010944
-0.0016603
-0.0021919
-0.0026965
-0.0028318
-0.0025961
-0.0024118
-0.0023799
-0.0023626
-0.0020686
-0.0014856
-0.00099473
-0.00067886
-0.00038743
-0.00011898
0.00020635
0.0006518
0.0012858
0.0017693
0.0019035
0.0018815
0.0017558
0.0016872
0.0017696
0.0017685
0.0016741
0.0016538
0.0015288
0.0013857
0.0014065
0.0017626
0.0022047
0.0023995
0.002499
0.0025664
0.00258
0.0025651
0.002455
0.0022155
0.0019133
0.0016742
0.0016072
0.0017304
0.0018981
0.0021094
0.0024756
0.0027258
0.0027431
0.0026688
0.0025871
0.0024855
0.0022925
0.0021397
0.0020041
0.0019475
0.001978
0.001908
0.0019003
0.0021951
0.002301
0.0020148
0.0017801
0.0016866
0.0015292
0.0011707
0.00084453
0.00076868
0.00079331
0.00084791
0.00098061
0.0013518
0.0017696
0.0018108
0.0014734
0.0010229
0.00063012
0.00038714
0.00018517
-4.9769e-05
-0.00034645
-0.00060387
-0.00062763
-0.00040956
-0.00023137
-8.7834e-06
0.00032762
0.00046297
0.00034676
5.5774e-05
-0.00033281
-0.0005822
-0.00071313
-0.0009078
-0.0010926
-0.0010234
-0.00089836
-0.00091892
-0.00086148
-0.00071599
-0.00050129
-0.00032425
-0.00041762
-0.00065175
-0.00098971
-0.0013713
-0.0016986
-0.0019331
-0.0021838
-0.0024583
-0.0025164
-0.0023698
-0.0022005
-0.0019405
-0.0016401
-0.0013244
-0.00099219
-0.00099994
-0.0013109
-0.0015223
-0.0016969
-0.0017667
-0.0018093
-0.0019545
-0.0019447
-0.0016393
-0.0012478
-0.00091067
-0.00050481
-0.00016984
-0.00010543
-0.00023724
-0.00052181
-0.00093178
-0.0012527
-0.0014309
-0.0014435
-0.001247
-0.0010181
-0.0008476
-0.00063882
-4.5796e-05
0.00055307
0.00085244
0.0010773
0.0010725
0.000593
3.7979e-05
-0.00024372
-0.00042487
-0.00058191
-0.000597
-0.00045837
-1.917e-05
0.00069695
0.0013266
0.0016584
0.0018666
0.0019225
0.0018257
0.00181
0.001813
0.0016
0.0012405
0.00095629
0.000896
0.001029
0.0012599
0.0016233
0.0021248
0.0023206
0.0022178
0.0020323
0.0017331
0.0015231
0.0014682
0.0013727
0.0012961
0.001314
0.00139
0.0015511
0.0017367
0.0017427
0.0013777
0.00076951
0.00037067
0.00024951
0.0002562
0.00018167
2.8292e-05
-2.5425e-05
5.383e-05
0.00016962
0.00039139
0.00078361
0.001074
0.0010745
0.00099934
0.00089536
0.00066282
0.00038223
0.00010425
-0.00014039
-0.00022143
-0.00017769
-0.00013182
-7.4107e-06
0.00028447
0.00060831
0.00073848
0.0007434
0.00074383
0.00056594
0.00027058
1.6859e-05
-4.9125e-05
-8.4683e-05
-0.00018841
-0.00015191
4.2985e-05
0.00016762
0.00035094
0.00069089
0.00076022
0.00035904
-0.00028646
-0.0007463
-0.00093354
-0.00095327
-0.00082654
-0.00074909
-0.0007759
-0.00081293
-0.0010312
-0.0012832
-0.0011187
-0.00085269
-0.00085356
-0.0012358
-0.0017151
-0.0019065
-0.0017283
-0.001554
-0.0015192
-0.0014785
-0.0012046
-0.00086811
-0.00053485
-0.0002446
-0.00011958
-0.00026575
-0.00050165
-0.00052363
-0.00062335
-0.0010679
-0.0014938
-0.001799
-0.001889
-0.0017592
-0.001686
-0.0015823
-0.0013448
-0.0010766
-0.00083359
-0.00081928
-0.00088499
-0.0008738
-0.00084524
-0.00080925
-0.00077662
-0.00072705
-0.0007091
-0.00069182
-0.00050864
-0.00012747
0.0002296
0.00039939
0.00054427
0.00056492
0.00048144
0.00043027
0.00030869
6.6679e-05
-0.00012919
-0.00027352
-0.00032353
-0.00029704
-0.00021507
-0.00018694
-4.5808e-05
0.00019239
0.00025108
0.00021873
0.00015484
-9.6782e-06
-0.00021598
-0.00045587
-0.00060407
-0.00066023
-0.00068037
-0.00068829
-0.00071601
-0.0004819
-0.00017146
-0.00020899
-0.00046159
-0.00074472
-0.00094573
-0.001041
-0.00091262
-0.0006404
-0.00030692
-2.4299e-05
9.207e-05
0.00011452
0.00016305
0.00030198
0.00021906
-0.00011916
-0.00037272
-0.00044798
-0.00042785
-0.00033483
-8.8271e-05
0.00021976
0.00046938
0.00084036
0.0012966
0.001501
0.0015788
0.0017542
0.0017916
0.0016907
0.001776
0.0020121
0.0023141
0.0025856
0.0027481
0.0027788
0.0027848
0.002808
0.002804
0.0026914
0.0022923
0.0016588
0.0007756
-0.00037163
-0.0013573
-0.0022543
-0.002839
-0.0029348
-0.0027815
-0.0025764
-0.0021633
-0.0015459
-0.00087067
-0.00033315
-0.00024201
-0.00053137
-0.00076554
-0.0006276
-0.00014317
0.00035934
0.00054437
0.00047948
0.00051732
0.00053456
0.00049515
0.00043443
0.00043544
0.00064283
0.00082133
0.00079009
0.00071808
0.00067646
0.00062326
0.000562
0.0004977
0.00043957
0.00039707
0.00031987
0.00012236
-7.2581e-05
2.3124e-05
0.00020853
0.00023571
3.1091e-05
-8.4451e-05
-5.8316e-06
-1.2382e-05
-0.00010652
-0.00022591
-0.00034236
-0.00048963
-0.00053078
-0.0002828
-7.7958e-05
-0.00015281
-0.00029366
-0.00041058
-0.00037478
-0.00022867
-0.00018462
-0.00027555
-0.00037579
-0.0003518
-0.00036787
-0.00044599
-0.00046387
-0.00024004
-1.5167e-05
3.7941e-05
8.5702e-05
0.00024982
0.00035813
0.00024605
-3.7894e-05
-0.00029595
-0.00046557
-0.00063638
-0.000671
-0.00048897
-0.00030133
-0.00015416
4.7986e-05
0.00018719
0.00020783
9.2269e-05
-7.106e-05
-2.5259e-05
4.166e-05
5.6096e-05
0.00014834
0.00026538
0.00034879
0.00051717
0.00077515
0.00099197
0.0010714
0.00090814
0.00063365
0.00048891
0.00048226
0.0003875
0.00017568
0.00010996
0.00017595
0.00027694
0.00046305
0.00067232
0.00095402
0.0012275
0.0012438
0.0011817
0.0012026
0.0011413
0.0010177
0.0010254
0.00098961
0.0008504
0.00082877
0.00096658
0.0012243
0.0016823
0.0022423
0.0024349
0.0021916
0.0018816
0.0015876
0.0012961
0.0011872
0.0011099
0.00096636
0.00093002
0.00099723
0.0011508
0.0013169
0.0015379
0.001665
0.0015261
0.0013353
0.0012359
0.0011222
0.00098938
0.00076564
0.0005541
0.00039535
0.00028296
0.00039527
0.00060077
0.00065175
0.00077717
0.00088296
0.00074439
0.00043931
9.5035e-05
-0.00021823
-0.00045058
-0.00065924
-0.00079557
-0.00089109
-0.00098316
-0.0009705
-0.00070963
-0.00032024
-8.5643e-05
2.8864e-05
9.2539e-05
6.3992e-05
6.4174e-05
3.4296e-05
-0.00026194
-0.00070348
-0.00099504
-0.0011688
-0.0012813
-0.0011296
-0.00070698
-0.00040363
-0.00039437
-0.00056371
-0.00081849
-0.00096213
-0.00094308
-0.0010123
-0.001139
-0.0012395
-0.0013192
-0.001314
-0.0012491
-0.0011042
-0.00072533
-0.0002431
7.2922e-06
-8.3665e-06
-0.00014211
-0.00047062
-0.00091524
-0.0012168
-0.0014196
-0.0016319
-0.001764
-0.0018053
-0.0017567
-0.0015413
-0.0012353
-0.00098898
-0.00087787
-0.0010023
-0.0012423
-0.0014621
-0.00173
-0.002284
-0.0029463
-0.0032575
-0.0031795
-0.0030037
-0.0028838
-0.0025697
-0.0020503
-0.0015787
-0.0011878
-0.0010141
-0.0010231
-0.00097257
-0.00068727
-0.00045745
-0.00026626
6.8492e-05
0.00035701
0.00040263
0.00034106
0.00038622
0.00053166
0.00071172
0.00077693
0.00078979
0.0009213
0.00097315
0.00084002
0.00071979
0.00067446
0.00072068
0.0007881
0.00095892
0.0013756
0.0018108
0.0021366
0.0022608
0.0021898
0.0020966
0.002011
0.001885
0.001884
0.0020134
0.0020146
0.0019783
0.0020893
0.0021788
0.0023217
0.0026566
0.0029052
0.0029083
0.0027491
0.0024238
0.0021123
0.0018813
0.0015535
0.0012985
0.0013502
0.001499
0.0017494
0.0023
0.0026424
0.0026282
0.0025348
0.0022316
0.0018847
0.0017911
0.001737
0.0015533
0.0013698
0.001264
0.0012751
0.0014183
0.0016779
0.0017686
0.0015762
0.0011093
0.00059492
0.00024828
5.1077e-06
-0.0001508
-0.00019398
-0.00020409
-0.00010555
2.829e-05
5.7767e-05
-0.00022408
-0.00076603
-0.0013243
-0.0018056
-0.0021068
-0.002097
-0.0019068
-0.0018287
-0.0017825
-0.0015428
-0.0011808
-0.0007482
-0.00070646
-0.00098772
-0.0012161
-0.0014248
-0.0016306
-0.0017172
-0.0017316
-0.001793
-0.0018661
-0.001724
-0.0013312
-0.00082976
-0.00045006
-0.00049387
-0.00079274
-0.0011083
-0.0013438
-0.0016005
-0.0018614
-0.0018693
-0.0016811
-0.0013642
-0.00099222
-0.00077819
-0.00090323
-0.0012051
-0.001483
-0.0015634
-0.0014269
-0.0014682
-0.001804
-0.0020402
-0.0020411
-0.0017794
-0.0014474
-0.0011911
-0.00083355
-0.00029238
0.00039324
0.00099748
0.0012372
0.0011972
0.001124
0.0011816
0.0011709
0.00099628
0.00083148
0.00086249
0.0010902
0.0013577
0.0014567
0.0013991
0.0011349
0.00071403
0.00031502
2.2918e-05
-7.725e-05
-3.7818e-05
-2.6776e-05
1.656e-05
7.6172e-05
0.00022968
0.00045369
0.00068201
0.0010064
0.0013294
0.0013619
0.0010786
0.00063282
0.0001213
-0.00026616
-0.00067541
-0.001034
-0.001151
-0.0011557
-0.00095542
-0.00054577
-0.00014859
2.5538e-05
-0.00012992
-0.00040603
-0.00058723
-0.00072248
-0.00082107
-0.0010436
-0.0013465
-0.0015079
-0.0013645
-0.00095406
-0.00039297
0.00031437
0.00095283
0.0012773
0.001333
0.001275
0.0011088
0.00069968
0.00028485
-4.7998e-05
-0.00049981
-0.00095077
-0.0011346
-0.0010865
-0.001008
-0.00099556
-0.00096057
-0.00084819
-0.00067039
-0.00051173
-0.00039191
-0.00033222
-0.00036129
-0.00048639
-0.00081756
-0.001147
-0.0011184
-0.0011299
-0.00092063
-0.00020707
0.00027783
0.00042266
0.00039167
0.00033523
0.00031552
0.0002407
0.00024687
0.0005336
0.00088843
0.0012167
0.0017363
0.0022161
0.0023563
0.0022576
0.0020685
0.001933
0.0018427
0.0016218
0.0013981
0.001399
0.001524
0.0017119
0.0019542
0.0022415
0.0023795
0.0021838
0.0017985
0.0013923
0.0010458
0.00078151
0.00058695
0.00044746
0.00034882
0.00026917
0.00033842
0.00073669
0.0012226
0.001388
0.0013557
0.0012895
0.001193
0.0010352
0.0007553
0.00031923
-3.2464e-05
-0.0003827
-0.00062015
-0.00047779
-2.0292e-06
0.00046024
0.00050244
0.00037924
0.00034017
0.00029113
0.00020621
6.411e-06
-0.00029075
-0.00054766
-0.00061066
-0.00062127
-0.00065617
-0.00057097
-0.00035297
-0.0002125
-0.00019726
-0.00030185
-0.00053733
-0.00085185
-0.0011272
-0.0012844
-0.0012564
-0.0010655
-0.00072198
-0.00031996
-1.5497e-05
0.00032469
0.00057277
0.00055857
0.00049741
0.00044043
0.00038843
0.00038321
0.00046875
0.00061779
0.00083252
0.00095198
0.00093338
0.00090373
0.0011318
0.0013056
0.0011113
0.00092405
0.00097421
0.0010511
0.0010516
0.001004
0.00097101
0.0010485
0.0011647
0.0013147
0.0016057
0.0020193
0.0022988
0.0022832
0.0022683
0.0023134
0.0023242
0.0022309
0.0021513
0.0021229
0.0020426
0.0020475
0.0022418
0.0025037
0.0028275
0.0032638
0.0034398
0.0032136
0.0028764
0.0025045
0.002265
0.0020982
0.0018849
0.0016497
0.001568
0.001712
0.0018798
0.0019809
0.0020299
0.002258
0.0025526
0.0025402
0.0023908
0.0022496
0.002172
0.0020357
0.0019155
0.0017195
0.0014586
0.0013542
0.0013879
0.0015805
0.0018386
0.0019108
0.0016203
0.001126
0.00086531
0.0006572
0.00036061
0.00024558
0.00023772
0.00028652
0.00053983
0.00088928
0.0011949
0.001502
0.0016238
0.0014934
0.001285
0.0010691
0.00080822
0.00056478
0.00039123
0.00021181
5.9914e-05
9.9608e-06
5.3646e-06
-4.4139e-05
3.8798e-05
0.00023217
0.00028841
0.00026792
0.00023807
9.4275e-05
-7.7059e-05
-0.00031338
-0.00058917
-0.00072271
-0.00077205
-0.00081092
-0.00075916
-0.00067946
-0.00053466
-0.00029049
-0.00016259
-0.0002965
-0.00040304
-0.00042227
-0.00047607
-0.00050794
-0.0005593
-0.00048762
-0.00017003
0.00014625
0.00042834
0.00052315
0.00045627
0.00044556
0.00021608
-0.0001387
-0.00035073
-0.00063458
-0.0008652
-0.00092475
-0.0011497
-0.0014586
-0.0016754
-0.0018329
-0.0018537
-0.0019543
-0.0021305
-0.0022954
-0.0024036
-0.0025246
-0.0026042
-0.002565
-0.0025001
-0.0024781
-0.0024778
-0.0023514
-0.0020139
-0.0015614
-0.0011516
-0.00080091
-0.00051642
-0.00036596
-0.00030686
-0.00027609
-0.00012006
1.8037e-05
-5.3954e-05
-0.00019229
-0.00015339
-3.1126e-05
7.732e-05
0.00021855
0.00038428
0.00030462
-7.3533e-05
-0.00044302
-0.00079377
-0.0010104
-0.00089946
-0.00076188
-0.00074998
-0.00072346
-0.00071277
-0.00087099
-0.0012064
-0.001562
-0.0018992
-0.002487
-0.0031808
-0.0035098
-0.0034246
-0.0031722
-0.0030888
-0.0030576
-0.0028043
-0.0024954
-0.0020912
-0.0015201
-0.0010769
-0.00082732
-0.0006046
-0.00046629
-0.00039229
-0.00022446
-9.8425e-05
-3.4128e-05
0.00017598
0.00041249
0.00072907
0.0011388
0.0011773
0.00085874
0.0006188
0.00045973
0.00044134
0.00058303
0.00065882
0.00062782
0.00062473
0.00080231
0.0010436
0.0012255
0.0012972
0.0010539
0.00072718
0.00057052
0.00049839
0.00043326
0.00036546
0.00029832
0.00037557
0.00063549
0.00082169
0.00087766
0.00091882
0.00096038
0.00099901
0.00095043
0.0009025
0.00097777
0.0011647
0.0012348
0.0011262
0.0010438
0.0011185
0.0011851
0.0010972
0.0010885
0.0012207
0.0013841
0.0016529
0.0018686
0.0019623
0.0018754
0.0017032
0.0015016
0.0013551
0.0012172
0.001053
0.00089594
0.00075892
0.00066233
0.0007097
0.00085538
0.00086336
0.00075326
0.00063616
0.00040797
0.00025435
0.00027384
0.00016358
1.9553e-05
3.4092e-05
0.00014625
0.00022792
0.00022211
0.00038681
0.00048036
0.00024343
-0.00020045
-0.00065472
-0.00083361
-0.0006869
-0.00051558
-0.00043091
-0.0005067
-0.00068805
-0.00068127
-0.00046047
-4.9414e-05
0.00043872
0.00075374
0.00086587
0.00081129
0.0006143
0.00045905
0.0002796
-0.00013336
-0.00055647
-0.00079276
-0.0010347
-0.0013155
-0.0015469
-0.0014263
-0.0010756
-0.00090064
-0.00090985
-0.0011791
-0.0014627
-0.0013135
-0.00097837
-0.00075554
-0.00049369
-0.00013759
0.00031913
0.00077674
0.0012345
0.0017019
0.0018452
0.0015927
0.0011005
0.00046661
-0.0001717
-0.00076348
-0.001189
-0.0013375
-0.0012564
-0.0010072
-0.00068697
-0.00039383
-0.00021084
-0.00020741
-0.00023111
-0.00014602
-3.2787e-05
6.5737e-05
8.8057e-05
-2.5598e-05
-0.00022323
-0.00040354
-0.00049444
-0.00036037
-0.0001327
-8.2397e-05
1.2722e-05
0.00023178
0.00032665
0.00036275
0.00035615
0.00028716
0.00035837
0.00051618
0.00052421
0.00019176
-0.00057277
-0.0013205
-0.0016735
-0.0019261
-0.0020208
-0.0017353
-0.0013516
-0.0011295
-0.00086095
-0.00048795
-0.00015622
6.1541e-05
0.00013199
0.0001435
0.00020813
0.00029746
0.00045561
0.00065119
0.00062537
0.00051867
0.00052501
0.00056782
0.00064373
0.00069435
0.00080424
0.00087886
0.00069649
0.00045961
0.00045686
0.00048917
0.00045099
0.00046454
0.00063412
0.0010026
0.0013715
0.0016208
0.0018729
0.0022651
0.0026278
0.0027823
0.0029453
0.0030574
0.0028931
0.0026676
0.0024028
0.0020541
0.0018876
0.0017612
0.0015962
0.0014851
0.0015046
0.0017101
0.0019131
0.001954
0.0019102
0.0017095
0.0015487
0.001502
0.0015516
0.0016541
0.0015655
0.0014234
0.001315
0.001264
0.001429
0.00157
0.0016507
0.0017328
0.001699
0.0015058
0.0014056
0.0014115
0.0013162
0.001091
0.000961
0.00093438
0.00087406
0.00093597
0.0013001
0.0017216
0.0017785
0.001531
0.0014018
0.0013788
0.0012911
0.0011435
0.0010526
0.0010004
0.00095533
0.00095144
0.0008589
0.00089364
0.0011099
0.0011243
0.00099883
0.00088616
0.00070523
0.00047481
0.00026949
7.2656e-05
-0.00016135
-0.00031056
-0.00036022
-0.00044527
-0.00049832
-0.00040617
-0.00018165
-0.00010984
-0.00017749
-0.00035097
-0.00069531
-0.0010146
-0.0012661
-0.0014879
-0.0016169
-0.0017048
-0.0017883
-0.0018823
-0.001711
-0.001321
-0.001112
-0.0011626
-0.0011916
-0.0013026
-0.0015391
-0.0017503
-0.0020086
-0.002306
-0.0025243
-0.0024515
-0.0020853
-0.0016713
-0.0013672
-0.0012106
-0.0011546
-0.0010822
-0.0010696
-0.0010776
-0.0010191
-0.0010633
-0.0010386
-0.00096054
-0.00089748
-0.00058727
-0.00013269
0.00021182
0.00049361
0.00066093
0.00065238
0.00058488
0.0006449
0.00074679
0.00070594
0.0005324
0.00047794
0.00059552
0.00067008
0.00079878
0.0010411
0.0012414
0.001249
0.0010882
0.00093981
0.00078528
0.00067313
0.00053865
0.00036516
0.00021915
0.00011227
0.00020536
0.00044561
0.00067011
0.0009838
0.0012922
0.001412
0.0013649
0.0012183
0.001042
0.00083983
0.0007344
0.00084249
0.00097452
0.001087
0.0012298
0.0012034
0.0010537
0.001021
0.00094703
0.00080559
0.0006248
0.00049181
0.00054252
0.00072381
0.00088126
0.001068
0.0011938
0.0012711
0.0014152
0.0014137
0.0013751
0.0015149
0.0016191
0.0016468
0.0016409
0.0015419
0.0014198
0.0012095
0.0010019
0.00077123
0.00043368
0.0002532
0.0002213
0.00020963
0.00029491
0.00039857
0.00042712
0.00049842
0.00043504
0.00019045
-0.00013199
-0.00032779
-0.00039346
-0.00041256
-0.00051758
-0.00057575
-0.00050749
-0.00053026
-0.00054755
-0.0004092
-0.00013359
0.00026194
0.00047622
0.00038688
0.00014272
-0.00014866
-0.00044508
-0.00068627
-0.00087621
-0.0010514
-0.0012315
-0.0013529
-0.0012325
-0.00096533
-0.00072544
-0.00075674
-0.0010433
-0.0012749
-0.0014578
-0.00163
-0.0018104
-0.0019019
-0.0018884
-0.001742
-0.0015931
-0.0013217
-0.00089865
-0.00059177
-0.00022254
4.8231e-05
-0.00014266
-0.00066111
-0.0011629
-0.0014494
-0.0014807
-0.0013485
-0.0011203
-0.0007722
-0.0005452
-0.0004079
-0.0002219
9.3125e-05
0.00058016
0.00088055
0.00079418
0.00065258
0.00054831
0.00040191
0.00038542
0.00039008
0.00027128
0.00018117
2.7369e-06
-0.00026196
-0.00050207
-0.00049965
-0.00025637
-0.00019524
-0.00039683
-0.00068129
-0.00085668
-0.00094663
-0.0011565
-0.0011464
-0.00068856
-0.00019185
0.00020099
0.00041772
0.0004233
0.00056694
0.00062008
0.00047833
0.00035806
0.00027911
0.00016985
2.3272e-05
-9.4339e-05
-4.8597e-05
4.7581e-05
-6.0077e-08
1.1566e-05
0.0002317
0.00028377
0.00014377
0.00010565
0.00019799
0.0002794
0.00023338
2.788e-05
-0.0001529
-8.5453e-07
0.00031566
0.00044022
0.0005282
0.00068367
0.00064809
0.00043381
0.00042082
0.00068069
0.00093522
0.0011086
0.0012995
0.0016093
0.0019189
0.001975
0.0017769
0.0014419
0.0010642
0.00075016
0.00047503
9.9129e-05
-0.00021412
-0.00047354
-0.0007361
-0.00087678
-0.00067325
-0.00024198
0.00017922
0.00049741
0.00083658
0.0011536
0.0013702
0.0015197
0.0016332
0.0017337
0.0016694
0.0013461
0.00098541
0.00079323
0.00083964
0.00094282
0.00081989
0.00054574
0.00031003
2.1499e-05
-0.00041948
-0.00074251
-0.00067024
-0.00045282
-0.0002434
5.1608e-06
0.00035056
0.00083769
0.0012056
0.0011801
0.0010417
0.0010177
0.0010249
0.0010034
0.00099103
0.00084853
0.00053908
0.00021906
-2.5243e-05
-5.5859e-05
0.00023118
0.00055195
0.0005639
0.0004712
0.00035315
9.4567e-05
-0.00014546
-0.00031823
-0.00051328
-0.00069437
-0.00076173
-0.00074869
-0.00074397
-0.00072299
-0.00075922
-0.00086744
-0.00096807
-0.0011206
-0.0012471
-0.0014717
-0.0018132
-0.0020544
-0.0021532
-0.0022296
-0.0022521
-0.0022881
-0.0022192
-0.0018764
-0.0014686
-0.0011469
-0.00087276
-0.00060787
-0.00028105
0.00014175
0.00037082
0.00039706
0.00046179
0.00033772
-0.00016312
-0.00072122
-0.001035
-0.0011155
-0.00092905
-0.00065988
-0.00047732
-0.00040665
-0.00053507
-0.00072783
-0.00083858
-0.00086544
-0.00074867
-0.00061905
-0.00030315
8.2539e-05
0.00019185
0.00011751
2.8497e-05
0.00011917
0.00036514
0.00052712
0.00058059
0.00065468
0.00059946
0.00046717
0.00056825
0.00062173
0.00046151
0.00034368
0.00019766
-2.0772e-05
-0.00012534
-0.00018094
-0.00012741
6.1569e-06
0.00014725
0.00029795
0.00020677
0.00016429
0.00032481
0.00037512
0.00035616
0.00033259
0.00036559
0.00048962
0.00062037
0.00092311
0.001607
0.0022857
0.0025672
0.0027014
0.0028516
0.0031138
0.0034211
0.0035139
0.0033988
0.0032213
0.0030731
0.0028884
0.0028276
0.0029334
0.0030661
0.0030673
0.0029871
0.0029782
0.002998
0.003039
0.0031062
0.0032371
0.0034057
0.0035922
0.0036806
0.0035419
0.0034089
0.0033296
0.0032422
0.0029933
0.0028377
0.0028102
0.0027438
0.0027834
0.0029296
0.0030643
0.0031549
0.0030442
0.0027676
0.0026399
0.0026787
0.0025562
0.0023402
0.0021767
0.001983
0.0018155
0.0017096
0.0017504
0.0019972
0.0020879
0.0019898
0.0018821
0.0017805
0.0016157
0.0013303
0.0010727
0.001023
0.0010959
0.0012005
0.001481
0.001615
0.0013637
0.00098859
0.00058866
0.0002894
0.00010796
-8.7078e-05
-0.00031976
-0.00040504
-0.00032805
-0.00016132
0.0001846
0.00045137
0.00028715
3.8623e-05
-4.8934e-05
-7.1056e-05
-6.8374e-05
-4.7441e-05
5.1938e-05
0.00025434
0.00033544
0.00037321
0.00037579
0.00032357
0.00032653
0.00026941
0.00013708
2.1055e-05
-5.5648e-05
-0.00023697
-0.00071012
-0.00096435
-0.0010114
-0.0010402
-0.00086563
-0.00067601
-0.00062189
-0.00063553
-0.00079861
-0.00090782
-0.00096807
-0.0011254
-0.0012474
-0.0013625
-0.0014823
-0.0014603
-0.0013734
-0.0012667
-0.0012096
-0.0011278
-0.00094058
-0.00086492
-0.00075281
-0.0005207
-0.00065251
-0.00097076
-0.0011042
-0.0011551
-0.0010795
-0.00077869
-0.00050402
-0.00053494
-0.00081394
-0.0010356
-0.0010498
-0.00097884
-0.00093747
-0.0010693
-0.0011798
-0.0010175
-0.0007565
-0.00050305
-0.00037167
-0.00020061
-0.00012377
-0.00038741
-0.00058488
-0.00052049
-0.00041135
-0.00023774
-0.00033043
-0.00062119
-0.00066075
-0.00059103
-0.00053059
-0.00042483
-0.00022637
0.00014834
0.00034868
0.00026996
0.00012023
-5.9658e-05
-0.00018736
-0.00042307
-0.00070546
-0.0008144
-0.0008909
-0.00088422
-0.00070268
-0.00035354
-2.5801e-05
0.00013194
0.00015348
8.9288e-05
-6.2965e-05
-0.00023633
-0.00046652
-0.00057044
-0.00047044
-0.00030572
-7.6604e-05
0.00017947
0.00054918
0.00098347
0.0010911
0.00088214
0.00068771
0.00058826
0.00049504
0.00041174
0.0002876
0.00011337
-0.00016435
-0.00040445
-0.00043115
-0.00032689
-7.4562e-05
0.00026058
0.00035121
0.00043175
0.00062921
0.00079764
0.00089577
0.00088716
0.00081221
0.00064039
0.00034765
0.00029847
0.00053057
0.00086638
0.0013575
0.0017501
0.0016152
0.0012506
0.00095163
0.00060694
0.00024433
-0.00012419
-0.00029369
-0.00015763
-5.052e-05
3.4142e-05
0.00025343
0.00049252
0.00060148
0.00053859
0.00029487
3.1815e-05
-9.1655e-05
-8.7272e-05
1.4112e-06
0.00025161
0.00045253
0.00065246
0.00085475
0.0010524
0.0012914
0.0014027
0.001378
0.0013065
0.0010144
0.0006099
0.00027901
4.4963e-05
3.3266e-05
7.3535e-05
-8.9854e-06
-3.7974e-05
0.00010466
0.00025735
6.3011e-05
-0.0004345
-0.00086586
-0.0012476
-0.0017774
-0.002342
-0.0029292
-0.0033635
-0.0034812
-0.0033842
-0.0032226
-0.0029477
-0.0026389
-0.0025412
-0.0023409
-0.0016612
-0.00099938
-0.00064925
-0.00045532
-0.00033661
-0.00029437
-0.00041105
-0.00054127
-0.00043719
-0.00035617
-0.00054646
-0.00073657
-0.00076876
-0.00064698
-0.0004736
-0.00052699
-0.00053469
-0.00042197
-0.00046431
-0.00066965
-0.00074464
-0.00076146
-0.00088701
-0.0009497
-0.00084279
-0.0007068
-0.00062483
-0.00052361
-0.00036933
-4.7486e-05
0.00041193
0.00077864
0.001088
0.0013632
0.001631
0.0017135
0.0015126
0.0010892
0.000501
-8.9998e-05
-0.00057676
-0.00074723
-0.00067626
-0.0006311
-0.00048461
-0.00031868
-0.00029117
-0.00017976
9.6585e-05
0.00037105
0.00047181
0.00045767
0.0005567
0.00076363
0.001054
0.0014301
0.0016694
0.0017658
0.0018095
0.0016194
0.0012198
0.00080505
0.00059407
0.00045867
0.00027755
-0.00010675
-0.00067336
-0.00093611
-0.00088197
-0.00076096
-0.00063992
-0.00052364
-0.00032235
-0.0001843
-2.0312e-05
0.00016402
0.00022079
0.0002485
0.00038188
0.00057888
0.00078159
0.00108
0.0015667
0.001966
0.0021836
0.0022697
0.0021824
0.0019841
0.0017186
0.001389
0.0012831
0.0014525
0.0015299
0.0015979
0.0018517
0.0022072
0.0025594
0.002819
0.0029908
0.0030645
0.0031368
0.0030395
0.0027093
0.0023364
0.0020785
0.0018067
0.0014843
0.0011487
0.00058688
-9.4224e-05
-0.00068761
-0.0012945
-0.0017931
-0.0020584
-0.0023908
-0.0027398
-0.0028672
-0.0029794
-0.0027136
-0.0022998
-0.0020817
-0.0017598
-0.001295
-0.0010639
-0.0010963
-0.0011163
-0.0010201
-0.00091273
-0.00078631
-0.00055869
-0.00037782
-0.00024384
-0.00014651
-0.00013969
-0.00016402
-0.00016691
-6.4828e-05
4.0935e-05
0.0001963
0.00036115
0.00041719
0.00047297
0.00052672
0.00042667
0.0002018
-3.6082e-05
-6.7818e-05
0.00020543
0.00055955
0.00084027
0.0010571
0.0012411
0.0012409
0.0010304
0.00076751
0.00063916
0.00059919
0.00041073
0.00012433
-0.00021225
-0.00057436
-0.00080383
-0.00087659
-0.0007113
-0.00020803
0.0002523
0.00047717
0.00046677
0.00034591
0.0003236
0.00028372
0.00016768
0.00022424
0.00045139
0.00065818
0.00083329
0.0010949
0.0014273
0.0016114
0.0014313
0.0012075
0.0010283
0.00086793
0.00080729
0.00070769
0.00055479
0.0003734
8.0862e-05
-0.0001859
-0.00016075
0.00010097
0.00034837
0.000507
0.00052227
0.00036586
2.2818e-05
-0.00042698
-0.0008353
-0.0011127
-0.0012166
-0.0011893
-0.0013717
-0.0017784
-0.0019382
-0.0018242
-0.0014366
-0.00083981
-0.00042958
-0.00019829
5.8961e-05
0.00032303
0.00047711
0.00061896
0.00081257
0.00091603
0.00086935
0.00091601
0.0011407
0.0012938
0.0013827
0.0013893
0.0012423
0.0010275
0.00087612
0.0011392
0.0015865
0.0017702
0.001888
0.002103
0.0022457
0.0022984
0.0023627
0.0023966
0.0024194
0.0025592
0.0026552
0.002754
0.0027429
0.0024793
0.0020497
0.0016512
0.0015328
0.0015916
0.0016019
0.0015093
0.001656
0.0019713
0.0021576
0.0021514
0.0019179
0.0016151
0.0014036
0.0012688
0.0010523
0.00095362
0.00085951
0.00072131
0.00051971
0.00056199
0.00082584
0.00097533
0.00094192
0.0007892
0.00075297
0.00071991
0.00046227
0.00022107
4.4261e-05
-0.00019811
-0.0002942
-0.00026502
-0.00019925
2.8249e-05
0.00016398
-5.8529e-05
-0.0003645
-0.00060722
-0.00092879
-0.0014544
-0.0022459
-0.0027479
-0.0026276
-0.0021403
-0.0014877
-0.00073666
-6.4564e-05
0.00018025
-9.864e-05
-0.00042361
-0.00056211
-0.00083296
-0.0012337
-0.0016392
-0.0019391
-0.0019605
-0.0019694
-0.001982
-0.0018079
-0.0015244
-0.0013551
-0.0014851
-0.0017297
-0.0017585
-0.0017282
-0.0018779
-0.0021518
-0.002316
-0.0023566
-0.0023339
-0.0021517
-0.0018858
-0.0015425
-0.0011708
-0.0011178
-0.0012806
-0.0014125
-0.0015272
-0.0017424
-0.0019994
-0.0021427
-0.0021489
-0.0021327
-0.001905
-0.0016956
-0.0016117
-0.0013068
-0.00096402
-0.00085551
-0.00078141
-0.00051507
-0.00022144
-0.00010977
-0.00011241
-8.5631e-05
5.1128e-05
0.00012675
0.00025406
0.00047507
0.00050135
0.00042136
0.00046545
0.00059641
0.00070265
0.00070267
0.00062939
0.00056228
0.00056546
0.00042521
0.00020392
0.00018981
0.00032645
0.00061307
0.00093058
0.0011633
0.0014506
0.0016831
0.0018651
0.0019489
0.0018889
0.0018466
0.0019948
0.0021581
0.0020356
0.0019122
0.0019855
0.0020259
0.0020578
0.0022488
0.0023516
0.0022278
0.0022369
0.0024512
0.002734
0.0030216
0.0032635
0.0033024
0.0030665
0.0025628
0.0021108
0.0020273
0.0021383
0.00219
0.0021228
0.0020217
0.0020154
0.0019398
0.0018605
0.0018493
0.0016848
0.0014852
0.0013301
0.0011278
0.0010407
0.0011072
0.0010962
0.0010583
0.0011694
0.0012568
0.0013221
0.0013472
0.0012273
0.0011159
0.0010607
0.00093933
0.00073162
0.00046253
0.00028692
0.00019876
8.4036e-05
-2.1201e-05
-0.00011259
-0.000151
-0.00014903
-0.00036433
-0.0007137
-0.00090815
-0.00085363
-0.0007399
-0.00074004
-0.00063979
-0.00032496
4.9689e-05
0.00041132
0.00071717
0.00095724
0.0008875
0.00048389
-4.0976e-05
-0.00045358
-0.00064407
-0.00060954
-0.00055643
-0.00037682
-6.1447e-06
0.00015237
0.00013056
0.0001182
0.0001903
0.00027739
0.0001047
-2.3724e-05
8.0664e-05
-4.7028e-05
-0.00039342
-0.00058581
-0.00064774
-0.00056715
-0.00039335
-0.00033211
-0.00026743
-0.00018415
-0.00031059
-0.0006715
-0.00099514
-0.0011341
-0.0012932
-0.0014329
-0.0014294
-0.001308
-0.001139
-0.0011521
-0.0013552
-0.0013716
-0.0012967
-0.001258
-0.0011513
-0.0010313
-0.0010579
-0.0012465
-0.0014208
-0.0014522
-0.0014469
-0.0015132
-0.0016473
-0.0017416
-0.0016061
-0.0012965
-0.0010067
-0.00088925
-0.00090754
-0.00095285
-0.0010779
-0.001417
-0.0020025
-0.0028575
-0.0037779
-0.0043146
-0.0043226
-0.003827
-0.0030225
-0.002181
-0.0013308
-0.00058241
-5.4547e-05
0.0004599
0.00075562
0.00085363
0.00083165
0.00083884
0.0008926
0.00097688
0.0011414
0.0013385
0.001467
0.0015489
0.0018029
0.0021488
0.0022454
0.0020956
0.0018746
0.0016635
0.0014615
0.0011864
0.00082148
0.0006261
0.00068285
0.00083979
0.0011091
0.0015829
0.0018852
0.0019272
0.0019455
0.0018861
0.0017146
0.0014839
0.0012966
0.0010954
0.00089243
0.00082831
0.00098753
0.0013808
0.0017549
0.0020038
0.0021712
0.0022487
0.0020989
0.0018868
0.0017799
0.0017147
0.001496
0.0012233
0.0010313
0.00085646
0.00083228
0.00088372
0.0009618
0.0011701
0.0013413
0.0012759
0.0011764
0.0011206
0.0010366
0.0010103
0.00087927
0.00068222
0.00052273
0.00033338
5.6597e-05
-0.0001457
-0.00021791
-0.00021228
-0.00012693
-0.00012023
-0.00019301
-0.00019599
-0.00020879
-0.00019675
-0.00015408
-0.00019715
-0.00031571
-0.00042934
-0.00041236
-0.00026933
-0.00016392
-5.0111e-05
9.5069e-05
0.00031627
0.00049147
0.00058939
0.00061031
0.00052947
0.00020571
-0.00027095
-0.00060066
-0.00061157
-0.00053908
-0.00039516
-2.5091e-05
0.00034875
0.00062618
0.00079464
0.00072253
0.00063219
0.00056418
0.00049708
0.00053504
0.00079215
0.0011892
0.0015093
0.0016794
0.001878
0.0020833
0.0019674
0.0015359
0.0010271
0.00060771
0.00036054
8.9382e-05
-0.0001894
-0.00027287
-0.00013583
0.00011248
0.00049903
0.00085681
0.00094861
0.00076137
0.00035453
-7.4954e-05
-0.00035495
-0.00063566
-0.00080021
-0.00084093
-0.00086438
-0.00082301
-0.00062744
-0.00023277
0.00024662
0.00042109
0.00038131
0.00033641
0.00022137
2.6791e-05
-0.00022197
-0.00035527
-0.00041479
-0.00038112
-7.5842e-05
0.00018866
0.00054617
0.00087388
0.00089189
0.00082005
0.00064896
0.00023615
-6.2072e-05
-0.00022514
-0.00040994
-0.00055349
-0.00058624
-0.00058873
-0.00060114
-0.00069003
-0.00086888
-0.0011715
-0.0015401
-0.0019766
-0.0024415
-0.0028113
-0.0029938
-0.0030268
-0.0028963
-0.0027164
-0.0023547
-0.0019409
-0.0016199
-0.001395
-0.0013207
-0.0011852
-0.00088828
-0.00060063
-0.00018551
0.0003018
0.00054417
0.00055492
0.00046654
0.00041133
0.00056353
0.00066606
0.00054565
0.00048377
0.00047217
0.00038449
9.3719e-05
-0.00029655
-0.00040913
-0.00042717
-0.00041758
-0.00032292
-0.00011977
0.00041219
0.0010239
0.0012595
0.0012823
0.0012857
0.0012289
0.001057
0.00093872
0.00094461
0.00082127
0.00064282
0.00050948
0.00044897
0.00056622
0.00079927
0.0010439
0.001225
0.0012545
0.0010663
0.00071991
0.00045278
0.00043471
0.00059297
0.00093463
0.0014007
0.0017472
0.0018683
0.0017962
0.0015539
0.0014241
0.001412
0.0014262
0.0014804
0.0015725
0.0018082
0.001973
0.0017649
0.0013516
0.00089267
0.00032476
-0.00038618
-0.00083902
-0.00085785
-0.00078731
-0.00073387
-0.0007177
-0.00073972
-0.00073886
-0.00064278
-0.00055908
-0.00044508
-0.00019838
0.00012674
0.00039933
0.0007147
0.0011742
0.001329
0.001208
0.0011405
0.0010681
0.00092836
0.00078749
0.00061083
0.00052147
0.00050874
0.00053517
0.00077636
0.0010985
0.0014599
0.0019409
0.0022884
0.0025005
0.0025182
0.0022481
0.0018496
0.0015682
0.0013564
0.001169
0.0011115
0.0012429
0.0015063
0.0017716
0.0019343
0.0019076
0.0016415
0.0012035
0.00069822
0.00031794
0.00010237
-4.848e-05
1.5112e-05
0.00027157
0.00037454
0.00036768
0.00047416
0.0004259
0.00014003
-1.8512e-05
-4.6449e-05
-0.00018286
-0.00043542
-0.00065557
-0.00086433
-0.00089902
-0.00074295
-0.00047126
-6.8032e-05
0.00046835
0.00096993
0.0013777
0.001815
0.0023703
0.0031879
0.0042263
0.0055589
0.0068723
0.0062295
0.0043003
0.0029066
0.0020487
0.0013974
0.0007861
5.1905e-05
-0.00059239
-0.0011379
-0.0018416
-0.0026281
-0.0031798
-0.0032608
-0.00318
-0.0029969
-0.002495
-0.0020019
-0.0016379
-0.0013494
-0.00088596
-0.00015304
0.00031816
0.0001224
-0.00023865
-0.00035219
-0.00052532
-0.00076294
-0.00085498
-0.001004
-0.0011287
-0.00099223
-0.00074812
-0.00051475
-0.0002855
-5.619e-05
0.00010484
0.00032377
0.00060605
0.00076763
0.00066253
0.00037737
0.00039836
0.00053021
0.00058157
0.00051037
0.00031921
0.00028301
0.00059189
0.0010434
0.0014905
0.0016634
0.0015274
0.0012824
0.00098708
0.00075262
0.00071027
0.00075562
0.00082837
0.00080902
0.00072509
0.00070114
0.00065249
0.00075788
0.00080146
0.00057264
0.00050387
0.00059204
0.00066633
0.00080154
0.00095019
0.00092971
0.00098551
0.0011742
0.0012516
0.0013895
0.0015868
0.0016678
0.0016636
0.0015483
0.0013736
0.001234
0.0011125
0.0010839
0.0011407
0.0012578
0.0014831
0.0015132
0.0013853
0.001318
0.0012846
0.0013164
0.0013505
0.0013539
0.0013522
0.0012679
0.0011513
0.001
0.00098477
0.0011762
0.0011111
0.00081094
0.00048885
0.00018095
0.00017434
0.00047411
0.00078605
0.00099894
0.0010339
0.0010158
0.0011158
0.0010925
0.00093825
0.0005961
0.0001689
-0.00016513
-0.00047978
-0.00056413
-0.00034922
-0.00022776
-0.00027348
-0.00032578
-0.00026848
-0.00018109
-0.00020572
-0.00047697
-0.00082565
-0.0012197
-0.0014757
-0.0014769
-0.0014498
-0.0014719
-0.0015933
-0.0017445
-0.0015254
-0.0011441
-0.00091638
-0.00077603
-0.00075045
-0.00077812
-0.00085637
-0.00092519
-0.00092196
-0.00097115
-0.001161
-0.0012489
-0.0010338
-0.00068369
-0.0005376
-0.00056631
-0.00064085
-0.00087981
-0.00089133
-0.00067245
-0.00038659
-9.1136e-05
-1.9285e-05
-4.4392e-05
6.475e-05
0.00015459
0.00020416
0.00029753
0.00043763
0.00093884
0.0014182
0.0014952
0.0014726
0.0014713
0.0015967
0.0016347
0.0014688
0.001325
0.0012095
0.00095511
0.00068533
0.00054405
0.00056162
0.00043972
8.1962e-05
-0.00011822
2.5952e-05
0.00034363
0.00051019
0.00048964
0.0004922
0.00054471
0.00065017
0.00077267
0.00088164
0.00083899
0.00064226
0.00040908
0.00021655
0.00014587
0.00010752
7.7716e-05
8.4903e-05
0.00015739
0.00047244
0.00073795
0.00084073
0.00088175
0.00084954
0.00076034
0.0006057
0.00036831
0.00023169
0.00022092
0.00026128
0.0003265
0.00044518
0.00065114
0.00080675
0.00090514
0.001187
0.0013619
0.0011666
0.00085577
0.00042749
-3.0759e-05
-0.00025399
-0.00039397
-0.00035719
-6.9514e-05
9.682e-05
0.00015478
0.00034237
0.00055412
0.00050801
0.00030733
0.00030231
0.0003018
0.0001105
-0.00021084
-0.00045631
-0.00066154
-0.00075386
-0.00066243
-0.00063568
-0.00069665
-0.00088792
-0.0014944
-0.0021446
-0.0024019
-0.0023437
-0.0023372
-0.0023848
-0.0023275
-0.0020711
-0.0017702
-0.0015522
-0.0013589
-0.0012549
-0.0012356
-0.0011311
-0.00090434
-0.00073119
-0.00066455
-0.0004985
-0.00035348
-0.00023747
-3.5467e-05
0.00021403
0.00040173
0.00038326
0.0002602
0.00017783
9.5346e-05
-4.8628e-05
-0.00029027
-0.00059624
-0.00081531
-0.00070481
-0.00027367
0.00022161
0.00054685
0.00066453
0.00070234
0.0007583
0.0008479
0.0008487
0.00054166
0.00018811
1.1578e-05
4.3554e-06
-1.5395e-05
-6.9996e-05
-0.00015954
-0.00048159
-0.00075926
-0.00078533
-0.00079483
-0.00088466
-0.0008788
-0.0007025
-0.00053115
-0.00047851
-0.00033745
-7.2062e-05
0.00013814
0.00027226
0.00045656
0.00072445
0.00083382
0.00080223
0.00069105
0.00058191
0.0004533
0.00024821
3.0275e-05
-9.057e-06
2.7342e-05
-1.6103e-05
-1.8367e-05
4.4285e-05
4.4544e-05
-0.00015244
-0.00032718
-0.00037519
-0.0004038
-0.00038403
-0.00033147
-0.00012425
0.00026821
0.00054765
0.00064033
0.00074636
0.00070909
0.00050744
0.00020251
-3.991e-05
-0.00026282
-0.00051816
-0.00057723
-0.00053058
-0.000464
-0.00021319
8.8283e-05
0.0002684
0.00026066
0.00027757
0.000488
0.00074634
0.0008272
0.00073466
0.00057319
0.00050686
0.00058057
0.00069934
0.00072418
0.00078991
0.0008961
0.00097003
0.00096155
0.0009462
0.00094267
0.00092342
0.00089098
0.00074432
0.00053843
0.00046701
0.00041028
0.00028834
0.00025538
0.0003638
0.00044342
0.00036175
0.00017812
-3.3387e-05
-0.00020101
-0.00035805
-0.00060472
-0.00074557
-0.00075681
-0.00075269
-0.00075438
-0.0007054
-0.00049333
-0.00012577
0.00015598
0.00012856
-8.9258e-05
-0.00028136
-0.00040101
-0.00049958
-0.00063404
-0.00083758
-0.0011133
-0.0012861
-0.0012272
-0.00094002
-0.00038118
0.00033904
0.00072647
0.00072853
0.0005875
0.00054411
0.00043537
0.00023495
5.2721e-05
-7.7931e-05
-0.00023672
-0.00039718
-0.00032797
-0.00016101
-6.5256e-05
-1.6557e-05
-7.4761e-05
-0.0002679
-0.00061551
-0.00088252
-0.00096053
-0.0011746
-0.0015077
-0.0015582
-0.0012571
-0.00093009
-0.00079838
-0.00061209
-0.00041248
-0.000437
-0.00066114
-0.00080985
-0.00084961
-0.00095802
-0.0012647
-0.0017627
-0.0022703
-0.0025937
-0.0030716
-0.0037479
-0.0042772
-0.0044921
-0.0044894
-0.0042928
-0.0034775
-0.0023637
-0.0016712
-0.0014875
-0.0015731
-0.0016655
-0.0017333
-0.0016734
-0.0014896
-0.0013058
-0.0011347
-0.0011172
-0.0014185
-0.001519
-0.0012051
-0.0010486
-0.0010806
-0.0010474
-0.00092008
-0.00073349
-0.00047206
-0.00012525
0.00018732
0.00041164
0.00026058
-0.00012396
-0.00042839
-0.00059283
-0.00051443
-0.00025082
6.8189e-05
0.00055266
0.001188
0.0016821
0.0020351
0.0023925
0.0027305
0.0028479
0.0027639
0.0027355
0.0028325
0.0028451
0.0027813
0.0028937
0.0028859
0.0027148
0.0026175
0.0026237
0.0028064
0.0030313
0.0029174
0.0026461
0.0024647
0.0022926
0.0021945
0.0020802
0.0018647
0.001688
0.0015906
0.0015685
0.0017243
0.0018901
0.0019077
0.0019272
0.0019494
0.0017924
0.0014661
0.0012275
0.0010061
0.00078761
0.00066266
0.00072243
0.00092504
0.0011702
0.0013447
0.0016213
0.001947
0.0019785
0.0016486
0.0011426
0.00073678
0.00046376
0.00019502
-0.00021506
-0.00090972
-0.001893
-0.002839
-0.0039137
-0.0050653
-0.0058075
-0.006295
-0.0060549
-0.0051363
-0.0043455
-0.0037578
-0.0032982
-0.0028496
-0.0023337
-0.0018575
-0.0012228
-0.00048037
8.6523e-05
0.00043056
0.0008597
0.0014065
0.0017959
0.0018121
0.0015852
0.0012749
0.0010435
0.0010155
0.0010442
0.001074
0.001139
0.0012635
0.0013821
0.0012781
0.0011774
0.0011992
0.0011964
0.0012053
0.0011387
0.0010357
0.0010167
0.00096139
0.0010396
0.0012597
0.0013783
0.0014382
0.0013611
0.0012012
0.0011075
0.0011056
0.0010926
0.001103
0.0011142
0.0010261
0.00099254
0.00095605
0.001074
0.0011934
0.0010519
0.00093058
0.00098625
0.0010373
0.0010219
0.0012121
0.0015421
0.001647
0.0015338
0.0011838
0.00087581
0.0007557
0.00052635
0.00016948
5.4551e-05
0.00019981
0.00031108
0.00030588
0.00052744
0.00081677
0.00088374
0.00080121
0.00053279
0.00042372
0.0006163
0.00091688
0.0010941
0.0011129
0.0012262
0.0014882
0.0016655
0.001701
0.0017125
0.0015911
0.0012934
0.00098225
0.00092492
0.0011756
0.0014341
0.0016028
0.0018812
0.0022418
0.0024785
0.002578
0.0026544
0.0027435
0.002684
0.0025128
0.0023828
0.0022676
0.0022202
0.0021343
0.0018564
0.0016717
0.0016007
0.0014514
0.0011322
0.00082115
0.00068988
0.00054346
0.00032565
0.00013587
0.00023588
0.00051504
0.00066693
0.0007993
0.0009233
0.00081428
0.00065283
0.00053481
0.0007196
0.0010738
0.0011229
0.0010392
0.00099191
0.00097061
0.00098717
0.00086885
0.00064569
0.00058203
0.00064836
0.00077504
0.0010579
0.0014028
0.0016204
0.001638
0.0016824
0.0017689
0.0017314
0.001544
0.0013808
0.0012618
0.0011883
0.0013026
0.0013967
0.0013012
0.0012935
0.0014594
0.0015649
0.0014294
0.0010889
0.00076258
0.00046364
0.00015544
-0.00012042
-0.00036783
-0.00044101
-0.00038108
-0.00040143
-0.00055578
-0.00067364
-0.00063366
-0.00068713
-0.00083795
-0.00094534
-0.0010625
-0.0011345
-0.0011355
-0.0011147
-0.0010763
-0.00093615
-0.00078245
-0.000764
-0.00065767
-0.00023268
-1.4827e-05
-0.00011752
-0.00029942
-0.00044615
-0.00061286
-0.00080231
-0.0010118
-0.0010339
-0.00089838
-0.00074796
-0.00051324
-9.5991e-05
0.00049138
0.0009568
0.0010863
0.0010644
0.0010307
0.00093033
0.00072759
0.00045
0.00020626
0.00012331
0.00010962
9.9122e-05
0.00013835
0.00045867
0.00078417
0.00094151
0.0011938
0.0015321
0.001587
0.0013415
0.001018
0.00078386
0.00054754
0.00035125
0.00025543
0.00026225
0.00049372
0.00070756
0.00066596
0.00050306
0.00033043
0.00025515
0.0001012
-4.3177e-05
-0.00014975
-0.00033592
-0.00051432
-0.00046215
-0.00014189
0.00015867
0.00023542
0.00025224
0.00035283
0.00025229
-0.00030405
-0.0011205
-0.0019134
-0.0024643
-0.0027058
-0.0027027
-0.0028139
-0.002804
-0.0026572
-0.002767
-0.0031745
-0.0035649
-0.0036643
-0.003612
-0.0033776
-0.0027521
-0.0020006
-0.0011552
-0.00035415
0.00015289
0.00058955
0.0010022
0.0011565
0.0012556
0.0013653
0.0012237
0.0010186
0.00083307
0.00066099
0.00063963
0.00071059
0.00074221
0.00070941
0.00077635
0.00098765
0.0013629
0.0017159
0.0019191
0.001908
0.0017446
0.0015573
0.0013828
0.0012548
0.0010416
0.00070579
0.00053258
0.00047296
0.00030932
0.00023276
0.00047948
0.00071386
0.00088384
0.0011218
0.0012939
0.0015097
0.0019044
0.002367
0.0030313
0.0037026
0.0039532
0.003776
0.0035366
0.003287
0.0028848
0.0026032
0.0024917
0.0022976
0.0021451
0.0022263
0.0024122
0.0027515
0.0032134
0.0033067
0.003089
0.0026812
0.0023118
0.0021879
0.0021115
0.0020096
0.0018829
0.0016652
0.0015825
0.0016081
0.0016302
0.0016088
0.0014805
0.0013441
0.001353
0.0012708
0.0011074
0.0009243
0.00081885
0.00087767
0.00088787
0.00083702
0.00080063
0.00091614
0.0010289
0.00096567
0.00097749
0.00095221
0.00073145
0.00044011
0.00018891
8.5139e-05
1.7868e-05
-0.00022212
-0.00040027
-0.00039401
-0.00021991
-0.00022097
-0.00061066
-0.0010574
-0.0014391
-0.0018245
-0.0021006
-0.0022833
-0.0021391
-0.001819
-0.0018407
-0.0020753
-0.002104
-0.0018195
-0.0015305
-0.0015119
-0.0014659
-0.0013273
-0.0011833
-0.0010316
-0.00089104
-0.00086122
-0.00085259
-0.00076899
-0.00071474
-0.0007175
-0.00059468
-0.00050953
-0.00065871
-0.00093305
-0.0011064
-0.0011468
-0.0012083
-0.0012482
-0.0011626
-0.0009792
-0.00074984
-0.00061181
-0.00051175
-0.00047494
-0.00042391
-0.00053753
-0.00088696
-0.0010047
-0.00097388
-0.00092299
-0.00078343
-0.00066153
-0.00061077
-0.00075743
-0.00095834
-0.00088869
-0.00040496
0.00031424
0.00080286
0.00092131
0.00099179
0.00088087
0.00080089
0.00095942
0.0010704
0.0011117
0.0010855
0.00091158
0.00076763
0.00074999
0.00077023
0.00072842
0.00065292
0.00061559
0.00061947
0.00067007
0.00091465
0.0012337
0.0014766
0.0014009
0.0014147
0.0015933
0.0016518
0.0015075
0.0010909
0.00077108
0.00068735
0.00066133
0.00077863
0.00085131
0.00088551
0.00099471
0.0011149
0.0010863
0.00087969
0.00068094
0.00045493
8.6512e-06
-0.00039849
-0.00045842
-0.00034213
-0.00037145
-0.00034928
-0.00034172
-0.00052763
-0.00062459
-0.00065819
-0.00086776
-0.001035
-0.0011891
-0.0014112
-0.0016679
-0.0018319
-0.0020837
-0.0026099
-0.0032016
-0.0035342
-0.0034354
-0.0034836
-0.0038626
-0.0037655
-0.0031224
-0.0019135
-2.0099e-05
0.0013845
0.0014696
0.0010094
0.00042628
-0.00030497
-0.0010254
-0.0015985
-0.0019
-0.0019526
-0.0019602
-0.0018275
-0.0017392
-0.0017793
-0.0018545
-0.0018325
-0.0017655
-0.0016439
-0.0013757
-0.00099263
-0.00053763
5.7997e-06
0.00034573
0.00034596
0.00029674
0.00016957
1.9165e-05
-0.00011207
7.0241e-06
0.0003027
0.00053553
0.00070971
0.00075718
0.00073218
0.00069559
0.00063017
0.00069844
0.0009005
0.00095117
0.00071802
0.0003332
-8.9097e-05
-0.00036713
-0.00050606
-0.00055613
-0.0004244
-0.00038449
-0.00070911
-0.0012541
-0.0017299
-0.0020173
-0.0021189
-0.0021696
-0.0020846
-0.0018716
-0.0019016
-0.00207
-0.0021766
-0.0021684
-0.002068
-0.0019694
-0.0017513
-0.0013621
-0.0012325
-0.0014216
-0.0015667
-0.0016717
-0.0015785
-0.0013437
-0.0011506
-0.00089237
-0.00062402
-0.00062897
-0.00088487
-0.0011903
-0.0014878
-0.0017995
-0.0020051
-0.0019095
-0.0015458
-0.0013286
-0.0013863
-0.0014571
-0.0013226
-0.0010814
-0.00093825
-0.00094845
-0.00091836
-0.00073779
-0.00068587
-0.0007513
-0.00071217
-0.00055823
-0.00036566
-0.00026493
-0.00019402
-6.8404e-05
-0.00011967
-0.00042288
-0.00072707
-0.00084837
-0.00080574
-0.0006911
-0.00051103
-0.00012259
0.00019316
0.00013726
-6.3702e-05
-0.00016704
-8.2816e-05
2.5424e-05
8.6136e-05
0.00027428
0.00055093
0.00045663
0.00014887
-2.9755e-06
9.1972e-05
0.00035226
0.00041442
0.00037151
0.00058622
0.00092449
0.00096101
0.00076489
0.0007306
0.00072468
0.00059679
0.00048692
0.00045712
0.00064031
0.00073206
0.00050538
0.00037879
0.00042821
0.00057284
0.00077868
0.00084859
0.00075077
0.0005633
0.00011061
-0.00035202
-0.00048012
-0.00027662
0.00010436
0.00048508
0.00077631
0.0010826
0.0013055
0.0012793
0.0011079
0.00092477
0.00074422
0.00070066
0.00073433
0.00086798
0.0010098
0.00091661
0.00080288
0.00079545
0.00065348
0.00028368
-8.4254e-05
-0.00036749
-0.00046907
-0.00056371
-0.00094301
-0.0012236
-0.0012245
-0.0011945
-0.0011551
-0.0010832
-0.0010125
-0.00089013
-0.0010291
-0.0013632
-0.001593
-0.0017824
-0.0019218
-0.0019083
-0.0017665
-0.0016263
-0.0015829
-0.0015817
-0.0017034
-0.0018493
-0.0018552
-0.0017742
-0.0016122
-0.0012777
-0.00088674
-0.00073345
-0.00082485
-0.00090254
-0.00088968
-0.00092947
-0.00094453
-0.00096216
-0.0010427
-0.00096949
-0.00081186
-0.00077387
-0.00073101
-0.00058677
-0.00054353
-0.00053608
-0.00051505
-0.00047653
-0.0003267
-0.00030797
-0.00040341
-0.00040542
-0.00021491
-2.3192e-05
8.9701e-05
0.00017255
0.00046672
0.00080994
0.0008556
0.00076147
0.00047002
0.00010129
-8.7706e-05
-0.00012562
-0.0001106
-2.3344e-05
0.00012653
8.52e-05
-0.00014814
-0.00032304
-0.00042687
-0.00059668
-0.00082361
-0.0010387
-0.0010275
-0.0009329
-0.0012172
-0.0015764
-0.0015723
-0.0014361
-0.0013212
-0.0009931
-0.00046055
8.3373e-05
0.00023575
-0.00011839
-0.00058999
-0.00093916
-0.0010613
-0.00093312
-0.00081963
-0.00070711
-0.00056832
-0.00064379
-0.00082041
-0.00091741
-0.00081553
-0.00055397
-0.00026779
9.4605e-06
0.00041159
0.00082248
0.0011538
0.0014832
0.002022
0.0022299
0.0020195
0.001705
0.001453
0.001379
0.0012994
0.0010539
0.00082835
0.00073698
0.00067564
0.00071323
0.00084016
0.0010205
0.001057
0.00071893
0.00020028
-0.00016715
-0.00021317
-0.00011727
-0.00011675
-2.7524e-05
0.00021962
0.00021343
0.00011542
2.2451e-05
-0.00021738
-0.00036916
-0.00039297
-0.0004181
-0.00033341
-0.00032779
-0.00045883
-0.00043736
-0.00042295
-0.00044249
-0.00048204
-0.00053183
-0.00029476
-7.7041e-05
-0.00017682
-0.00041714
-0.00076875
-0.0010302
-0.001094
-0.0010796
-0.001121
-0.0010736
-0.0010265
-0.0011286
-0.0012585
-0.0013246
-0.0013863
-0.0014559
-0.0015389
-0.0015134
-0.0014255
-0.001525
-0.0016592
-0.0016675
-0.0015663
-0.0014207
-0.0013221
-0.0012082
-0.00097218
-0.00075357
-0.0007999
-0.0009517
-0.0010007
-0.00098623
-0.00091293
-0.00078781
-0.00063671
-0.00042605
-0.00024732
-0.0002479
-0.00036777
-0.00044483
-0.00041827
-0.00040639
-0.00049804
-0.0006067
-0.00062098
-0.00050939
-0.00039749
-0.00036364
-0.00048026
-0.00068834
-0.00082146
-0.00086913
-0.00088101
-0.00083881
-0.00072887
-0.00056567
-0.0005628
-0.00069619
-0.0007676
-0.0007316
-0.00061757
-0.00057975
-0.00069806
-0.00082311
-0.00072448
-0.00038424
-0.00015729
-8.0871e-05
-4.3485e-05
-5.7053e-05
-2.3892e-05
-4.0192e-05
-3.536e-06
0.00027961
0.00056863
0.00072545
0.00067794
0.00056961
0.00054984
0.00050553
0.00047213
0.00048591
0.00047557
0.00053982
0.00059426
0.00070352
0.00084824
0.00073619
0.00049736
0.00029851
0.0001084
-6.8862e-06
-0.00011196
-0.0001616
-0.00010424
-6.4313e-05
-7.0055e-05
-0.00017848
-0.00027817
-0.00028636
-0.00028126
-0.00021448
-0.00025719
-0.00039217
-0.00037125
-0.00027098
-0.00011211
6.4876e-06
-5.3768e-05
-0.00015705
-0.00020478
-0.00027501
-0.00043337
-0.00055332
-0.00067438
-0.00083999
-0.00082226
-0.00064402
-0.00062408
-0.00065182
-0.00051363
-0.00028404
-0.00024671
-0.00037173
-0.00043739
-0.00041406
-0.00031329
-0.00017652
-0.00015027
-0.00014365
-0.00010256
-0.00012807
-0.00013445
-0.00010787
-0.00023079
-0.00046275
-0.00058903
-0.0005017
-0.0004958
-0.00069905
-0.00094888
-0.0011393
-0.0012549
-0.0013005
-0.0012316
-0.0009978
-0.00063328
-0.00037535
-0.0003791
-0.00033445
-6.0598e-05
0.00024541
0.00040355
0.00040976
0.00043178
0.0006354
0.00085408
0.00089535
0.00071089
0.00050169
0.00032421
0.00012275
2.5826e-06
1.4042e-05
3.6754e-05
0.00015927
0.00042763
0.00042227
0.00014672
-0.00016782
-0.00041845
-0.00060028
-0.00071518
-0.00075362
-0.00076291
-0.00075869
-0.00086578
-0.0012871
-0.0017645
-0.001837
-0.0017004
-0.0015952
-0.0014976
-0.0014503
-0.0012858
-0.0011717
-0.0013939
-0.0017285
-0.0018616
-0.0018365
-0.0020154
-0.0020833
-0.0018389
-0.0015373
-0.0012975
-0.0012571
-0.0014228
-0.0016499
-0.001815
-0.00197
-0.0020742
-0.0021607
-0.0022402
-0.0022324
-0.0020872
-0.0018377
-0.0016412
-0.00145
-0.0012719
-0.0012102
-0.0013149
-0.0014649
-0.0015018
-0.001452
-0.0013242
-0.0011719
-0.001208
-0.0014078
-0.0014766
-0.0013842
-0.0011464
-0.00099519
-0.0010753
-0.00099062
-0.00073643
-0.00057471
-0.00053928
-0.00057624
-0.00077372
-0.00093292
-0.00097312
-0.00097583
-0.00077344
-0.00054157
-0.00050556
-0.00038756
-0.00031481
-0.00042165
-0.0005304
-0.00071507
-0.0009124
-0.0010339
-0.0011172
-0.0010154
-0.00065939
-0.00023746
0.000305
0.0010948
0.0016611
0.0017254
0.0013241
0.00081136
0.00061706
0.00056154
0.00059257
0.00089717
0.0014376
0.0021273
0.0029168
0.0034771
0.0036196
0.0035047
0.0031972
0.0027643
0.0023914
0.002033
0.0016199
0.0013307
0.0012176
0.0014154
0.0015029
0.0011991
0.00091178
0.00076796
0.00082673
0.0010189
0.0010183
0.00076932
0.00032419
-0.00018035
-0.00063382
-0.00073524
-0.00068173
-0.00093562
-0.0012148
-0.0014355
-0.0016381
-0.0016861
-0.0017477
-0.0018965
-0.0020452
-0.0020684
-0.0019657
-0.0018423
-0.0017913
-0.0020467
-0.0023985
-0.0024938
-0.002338
-0.0020721
-0.0019396
-0.0018918
-0.0017062
-0.0014895
-0.001293
-0.00091168
-0.00056776
-0.00056029
-0.00077364
-0.0010578
-0.0013038
-0.0014134
-0.001417
-0.0014052
-0.0013173
-0.0011914
-0.001125
-0.0010087
-0.0009085
-0.0010758
-0.0013429
-0.0014608
-0.0015258
-0.0015471
-0.0014669
-0.0013273
-0.0010072
-0.0004726
-4.2467e-05
0.00027344
0.00045448
0.00024102
-0.00022117
-0.0006821
-0.0010661
-0.0013962
-0.0016011
-0.0015535
-0.0013062
-0.00091563
-0.0005285
-0.00015076
0.00020085
0.00039259
0.00042594
0.00038163
0.00022314
2.7048e-05
-9.8297e-05
-0.00018061
-0.0001506
-0.00012594
-0.00015005
-0.00012234
-0.00023871
-0.0005644
-0.001019
-0.0014953
-0.0018205
-0.0019519
-0.0019484
-0.0018925
-0.0017985
-0.0016075
-0.001299
-0.0010394
-0.0010718
-0.0013444
-0.0016812
-0.0021902
-0.002806
-0.0031565
-0.003018
-0.0025609
-0.0020025
-0.0015425
-0.0011191
-0.00065367
-0.00046959
-0.00059282
-0.00073888
-0.00066859
-0.00048062
-0.00045207
-0.00056936
-0.00061466
-0.00055577
-0.00039033
-0.00012128
0.00019666
0.00029657
0.00013514
-0.00016566
-0.00057601
-0.000906
-0.0011963
-0.0016253
-0.002047
-0.0021637
-0.0017845
-0.00089825
0.00014933
0.00086765
0.0013094
0.0015028
0.0015264
0.0015064
0.0015157
0.0015177
0.00141
0.0012612
0.0013236
0.0016432
0.0019169
0.001846
0.0015416
0.0012512
0.0011552
0.0012338
0.0012944
0.0013077
0.0013853
0.00144
0.0014603
0.0015673
0.0016002
0.0014111
0.0011444
0.00093962
0.00087925
0.00084795
0.00087836
0.00083552
0.00064323
0.00051637
0.00054385
0.00075002
0.00089529
0.00079722
0.00059707
0.00040448
0.0002356
0.00013477
0.00019612
0.00039098
0.00059274
0.00077606
0.0010013
0.0012973
0.0016251
0.0016985
0.0015071
0.0012317
0.001036
0.0009857
0.00096024
0.00085959
0.00074366
0.00072186
0.00083726
0.00091212
0.00076467
0.00054731
0.0004205
0.00038145
0.00031683
0.00018114
8.8141e-05
-0.00011083
-0.00046605
-0.00069499
-0.00067121
-0.00050392
-0.00045563
-0.00061766
-0.00079748
-0.00098243
-0.0011974
-0.0013767
-0.0015391
-0.0016287
-0.0015998
-0.0015866
-0.001687
-0.0019056
-0.0022831
-0.0027681
-0.0032358
-0.0035594
-0.0037576
-0.0038715
-0.0037877
-0.003406
-0.0027894
-0.0022945
-0.0019908
-0.001641
-0.0011973
-0.00081221
-0.0005472
-0.0004648
-0.00051785
-0.00060547
-0.00067371
-0.00074011
-0.0010167
-0.0015249
-0.0019976
-0.0023122
-0.0023743
-0.0020634
-0.001553
-0.0010549
-0.00052197
-0.0002504
-0.0002109
-0.00020001
-0.00016475
-9.8033e-05
-4.1113e-05
4.3298e-05
0.00026251
0.00060617
0.00091545
0.0011765
0.0012189
0.00096236
0.00059502
0.00031985
0.00018041
0.00014506
0.00016622
0.00017171
0.0002532
0.00048644
0.00069402
0.0008007
0.00079432
0.00065019
0.00058983
0.00057569
0.0003314
-0.00027305
-0.0011536
-0.0021951
-0.0031565
-0.0037747
-0.0039696
-0.0038557
-0.003616
-0.0033075
-0.0030263
-0.0027676
-0.0024267
-0.0018886
-0.0012981
-0.0008299
-0.00026538
0.00037435
0.00089706
0.0013422
0.0017478
0.0021288
0.0025184
0.0026136
0.0023495
0.0021087
0.0019549
0.0018336
0.0017327
0.001607
0.0015996
0.0017927
0.0020445
0.0022371
0.0022672
0.0021403
0.0021151
0.0022127
0.0022882
0.0023839
0.0025267
0.0028258
0.0031355
0.003154
0.0030618
0.0030444
0.0030355
0.0030317
0.0028436
0.0024963
0.0023256
0.0023412
0.002455
0.0023826
0.0020546
0.0018057
0.0017222
0.00166
0.0015773
0.0015378
0.0015285
0.0014896
0.0014278
0.0011284
0.00058307
1.8051e-05
-0.00041171
-0.00065575
-0.00073004
-0.00070934
-0.00057549
-0.00028184
7.1818e-05
0.00035634
0.00036314
0.00013713
-0.00011156
-0.0002548
-0.00032361
-0.00033572
-0.00020067
-5.4174e-05
6.9232e-05
0.00033709
0.00056936
0.00045491
0.00024708
8.2296e-05
-0.00010466
-0.00030175
-0.00049717
-0.00064762
-0.00073377
-0.00077553
-0.00073133
-0.00059646
-0.00050632
-0.00049882
-0.00067173
-0.0010418
-0.0015125
-0.0020673
-0.0025765
-0.0026884
-0.0025549
-0.0023573
-0.001746
-0.00086548
-8.5754e-05
0.00040893
0.00063277
0.0008135
0.00091471
0.00075978
0.00038996
-0.00024497
-0.00094758
-0.0015105
-0.0020145
-0.0023038
-0.0024428
-0.0024811
-0.0025931
-0.0027024
-0.0026464
-0.0025135
-0.0025148
-0.0026388
-0.0025624
-0.0022832
-0.001841
-0.001379
-0.0010943
-0.0011039
-0.0012028
-0.001148
-0.0010327
-0.00099437
-0.001123
-0.0012968
-0.0014758
-0.0016439
-0.0016795
-0.001629
-0.0017029
-0.0019306
-0.0020656
-0.0020634
-0.0018856
-0.0014662
-0.0010929
-0.00082474
-0.00061593
-0.0005157
-0.0002049
0.00020467
0.00033138
0.00035789
0.00039531
0.00034482
0.00023484
0.00014947
0.00013676
0.00028457
0.00048409
0.00072784
0.001127
0.0014035
0.0013692
0.0011911
0.0010074
0.00083036
0.00071805
0.00052707
0.00027477
0.00018459
0.00025315
0.00039161
0.00056973
0.000785
0.00095932
0.00094087
0.00068891
0.00029682
-0.00023135
-0.00075263
-0.00092521
-0.00079984
-0.00050755
-7.9192e-05
0.00039971
0.00090822
0.0013409
0.0015335
0.0016247
0.0016026
0.0014227
0.0010995
0.00052237
-0.00038564
-0.0012661
-0.0017263
-0.0017739
-0.0014696
-0.00082097
-5.8925e-05
0.00052684
0.00098103
0.0012864
0.0014945
0.001582
0.0015046
0.00147
0.0014458
0.0013548
0.001249
0.0011519
0.0011516
0.0011038
0.00085188
0.00052783
0.00019758
-6.4529e-05
-0.00024406
-0.00049895
-0.00071552
-0.00082327
-0.00096585
-0.0010684
-0.0010918
-0.0010447
-0.00081881
-0.00058642
-0.00056409
-0.00058943
-0.00063551
-0.00076732
-0.0010127
-0.0012914
-0.0014748
-0.0015686
-0.001571
-0.0015694
-0.0015368
-0.0013545
-0.0011917
-0.0011811
-0.0011215
-0.00093868
-0.00070009
-0.0004619
-0.00031931
-0.00012062
0.00024317
0.00064422
0.0010321
0.0011411
0.00088908
0.00060091
0.00019302
-0.00037926
-0.00091821
-0.0013613
-0.0016173
-0.0017441
-0.0019106
-0.0021283
-0.0024278
-0.0025972
-0.0026152
-0.0026308
-0.0024306
-0.0021345
-0.0019079
-0.0017305
-0.0017063
-0.0017417
-0.0017866
-0.0019095
-0.0019386
-0.0018015
-0.001677
-0.0016257
-0.0015411
-0.0013673
-0.0013137
-0.0013744
-0.0014751
-0.001646
-0.0016958
-0.0016775
-0.0016472
-0.0014644
-0.0012914
-0.0011506
-0.0010008
-0.00087757
-0.00055201
-0.00020477
-2.7843e-05
9.9528e-05
0.000222
0.00024877
3.4494e-05
-0.00023765
-0.00040747
-0.0005825
-0.00068726
-0.00065326
-0.00062181
-0.00057575
-0.00054114
-0.00058415
-0.00072424
-0.0008947
-0.001083
-0.001307
-0.0015116
-0.0016247
-0.0016315
-0.0015135
-0.0013011
-0.0010661
-0.0007277
-0.00041375
-0.00019988
-4.5082e-05
1.1381e-05
4.9036e-06
-4.648e-05
-7.2969e-05
-2.0017e-05
0.00011836
0.00031933
0.00054645
0.00079366
0.00097982
0.001089
0.0011605
0.0010943
0.00090804
0.00075109
0.00064909
0.00056924
0.00057169
0.0006312
0.00067527
0.00084107
0.001138
0.0013667
0.0015159
0.0014988
0.0012878
0.0010328
0.00086396
0.00083483
0.00088241
0.00090091
0.0010278
0.0012068
0.00136
0.0014972
0.0014689
0.0014154
0.0012429
0.00094437
0.00067355
0.0003359
6.1069e-05
-5.4078e-05
-0.00012739
-0.000118
-1.1198e-05
0.00014371
0.000324
0.00037199
0.00035113
0.0003074
0.00014692
-6.566e-05
-0.00027726
-0.00045869
-0.00059307
-0.00069692
-0.00065839
-0.00046784
-0.00024064
-0.00010389
-0.00014751
-0.00028009
-0.00042312
-0.00054531
-0.00064684
-0.00077367
-0.0009621
-0.0011342
-0.0011892
-0.0011291
-0.00080725
-0.00034429
-0.00011975
-0.00018956
-0.00028996
-0.00029362
-0.00026993
-0.00031019
-0.00045573
-0.00057301
-0.00065028
-0.00079728
-0.00088583
-0.0008382
-0.00080869
-0.00096415
-0.0012015
-0.0013628
-0.0014016
-0.0015007
-0.0016327
-0.0015985
-0.0015233
-0.0014899
-0.0014792
-0.0014223
-0.0012935
-0.0011377
-0.0010175
-0.00096706
-0.00095363
-0.0009507
-0.0010203
-0.0010599
-0.00090193
-0.00086441
-0.00093399
-0.00098223
-0.0010304
-0.00095387
-0.00083355
-0.00068634
-0.00063831
-0.00073458
-0.00075029
-0.00080495
-0.00095033
-0.0010441
-0.0010768
-0.000954
-0.0007501
-0.00059633
-0.00047399
-0.00040127
-0.00029581
-0.00024396
-0.00033347
-0.00037873
-0.0004417
-0.00059829
-0.00077052
-0.00091576
-0.00098948
-0.0010154
-0.0010588
-0.001065
-0.00090919
-0.00064703
-0.0004994
-0.00046928
-0.0004211
-0.00037205
-0.00035231
-0.00035938
-0.00030314
-0.00019229
-0.00018797
-0.00026657
-0.00025268
-7.1965e-05
8.69e-05
0.00012688
0.00016758
0.00012559
-6.0648e-06
-8.4764e-05
-0.00010516
-0.00014977
-0.00018549
-0.00023352
-0.00029138
-0.00025746
-0.00010539
2.8006e-05
0.00018537
0.00032555
0.00025592
0.00013395
6.4308e-05
2.3341e-05
-4.8623e-05
-0.00019338
-0.0003646
-0.00046342
-0.00048337
-0.00055818
-0.00054344
-0.00033338
-0.00013071
-6.357e-05
-2.8388e-05
3.2289e-06
5.8983e-06
0.00010173
0.00020972
0.00025862
0.00032442
0.00041442
0.00051586
0.00071418
0.0010743
0.001199
0.00095076
0.00067284
0.00048079
0.00024667
1.5055e-06
-0.00019862
-0.00031884
-0.00035625
-0.0003526
-0.00029404
-0.00021078
-2.4541e-05
0.00030396
0.00050252
0.00030755
7.8838e-06
-0.00013335
-0.00026748
-0.00036807
-0.0004239
-0.00046673
-0.00046405
-0.0004038
-0.00027417
-9.1956e-05
-6.6588e-05
-0.00025104
-0.00049281
-0.00072861
-0.00090648
-0.0010467
-0.0012334
-0.0014398
-0.0015919
-0.001672
-0.0017083
-0.0016084
-0.0012759
-0.00094437
-0.00071678
-0.00055193
-0.00053303
-0.00060347
-0.00061328
-0.00055017
-0.00059715
-0.00068316
-0.00065285
-0.00061243
-0.00062054
-0.00061598
-0.00063753
-0.00063149
-0.00067979
-0.00083423
-0.00094308
-0.00095869
-0.00083981
-0.00069983
-0.00072912
-0.00076514
-0.00074892
-0.00068957
-0.00053881
-0.00048004
-0.00050599
-0.00053531
-0.00058298
-0.00055119
-0.00042013
-0.00028553
-0.00016886
-7.3312e-05
-2.1599e-05
8.0362e-05
0.00019447
0.00025386
0.00012521
-0.00010991
-0.00021728
-0.00022077
-0.00014448
2.1684e-05
0.00028093
0.0005141
0.0006988
0.00083634
0.00092156
0.0010157
0.0010716
0.0010424
0.00095093
0.00088095
0.00081858
0.00074397
0.0007478
0.00079857
0.00092265
0.0011469
0.0012304
0.0012276
0.0013085
0.0014496
0.0015419
0.0015289
0.001485
0.001452
0.0013866
0.001306
0.0012243
0.0012116
0.0011465
0.0010032
0.00087257
0.00078124
0.00074804
0.00074097
0.00067902
0.00071082
0.00079005
0.00075679
0.00071233
0.00072126
0.00080608
0.00096082
0.0010468
0.0011274
0.0012235
0.001267
0.0012348
0.0012206
0.0013387
0.0014169
0.0013775
0.001243
0.001053
0.0009156
0.00075673
0.00047378
0.00019244
2.0465e-05
-6.8151e-05
-0.00016896
-0.00032882
-0.00049789
-0.00063256
-0.00078854
-0.00099639
-0.0011086
-0.001133
-0.0012071
-0.0012823
-0.0013334
-0.0013252
-0.0012672
-0.0013059
-0.0013841
-0.0014188
-0.0013602
-0.0014366
-0.0016502
-0.0017291
-0.001711
-0.0017075
-0.0017467
-0.0018333
-0.0019191
-0.0019503
-0.0018823
-0.0017714
-0.0016998
-0.0015768
-0.0014315
-0.0014454
-0.0015207
-0.0015213
-0.0014616
-0.0013507
-0.0012658
-0.0012194
-0.0010973
-0.00087639
-0.00063036
-0.00045813
-0.00030216
-0.00017816
-0.00023847
-0.00045028
-0.00058964
-0.00057309
-0.00051672
-0.00055044
-0.00058071
-0.00051145
-0.00040546
-0.00027606
-0.00025698
-0.00033234
-0.0004239
-0.00047257
-0.00051385
-0.00056172
-0.00043313
-0.0002449
-0.00021046
-0.00022165
-0.00021447
-0.00019455
-9.5867e-05
2.8553e-05
8.8619e-05
-1.1767e-05
-0.00014193
-0.00018012
-0.00016458
-9.0926e-05
-1.549e-05
-2.1895e-05
-0.00010455
-0.00024712
-0.0003345
-0.00025909
-4.6533e-05
0.00014762
0.00021882
9.3844e-05
-6.5161e-05
-0.00010258
-0.00015299
-0.00013877
-5.122e-05
-5.8465e-05
-7.101e-05
2.4384e-05
0.00021989
0.0003345
0.00031139
0.00023511
0.00010039
-4.5946e-05
-0.00013276
-0.0001148
7.11e-06
0.00010985
0.00014059
0.00024853
0.00049531
0.00063435
0.00061888
0.00054235
0.00040186
0.00027643
0.00016362
2.2889e-05
-7.6763e-05
2.289e-05
0.00023341
0.00037958
0.00045163
0.00050378
0.00059312
0.00059097
0.00042529
0.00017871
-0.00010851
-0.00039469
-0.00059076
-0.00056561
-0.00033483
-0.00014845
-0.00014156
-0.00026649
-0.00038459
-0.0003807
-0.0003611
-0.00035091
-0.00029787
-0.0003676
-0.00044307
-0.00045007
-0.00044265
-0.00039844
-0.00027936
-0.00012162
-7.9502e-05
-0.00017777
-0.00027466
-0.00034785
-0.00038675
-0.00034108
-0.00029012
-0.0003068
-0.00026111
-8.9722e-05
0.0001073
0.00019934
0.00020136
0.0001833
7.9111e-05
-6.7681e-05
-0.00019874
-0.00021135
-6.4492e-05
5.3837e-05
0.00010563
0.00014586
0.0001503
0.00024391
0.00040707
0.00051647
0.00057744
0.00054998
0.00055758
0.00060189
0.00061938
0.00059605
0.00054553
0.00053365
0.00058334
0.00062745
0.0006922
0.00076154
0.00077365
0.00072438
0.00057168
0.00046506
0.000475
0.00050819
0.0004686
0.00039627
0.00038692
0.00035689
0.00030192
0.00026051
0.00027865
0.0003887
0.00055639
0.0006832
0.00070467
0.00070639
0.00072978
0.00076449
0.00077479
0.0007293
0.0006466
0.00050668
0.00033864
0.00023431
0.00022501
0.00032686
0.00053261
0.0006841
0.00076462
0.00079461
0.00077817
0.00071195
0.00056709
0.00043794
0.00032967
0.000195
0.00013581
0.00011592
0.00023814
0.00043728
0.00043886
0.0003604
0.00029223
0.00021188
0.00012931
-7.998e-05
-0.00044889
-0.00083541
-0.0010593
-0.0010341
-0.0008989
-0.00073507
-0.00058742
-0.00054299
-0.00048653
-0.00039768
-0.00032891
-0.00030297
-0.00033392
-0.00038205
-0.00035179
-0.00031086
-0.0003565
-0.00042284
-0.0005117
-0.00061166
-0.00064208
-0.00062308
-0.00058112
-0.00053976
-0.00048403
-0.00048282
-0.00051579
-0.00051342
-0.00045878
-0.0004247
-0.00039849
-0.00033238
-0.00016614
6.8513e-05
0.00020539
0.00026455
0.00035352
0.00038348
0.00029592
0.00022037
0.00019153
0.00022122
0.00024818
0.00020236
0.00016519
0.00021502
0.00021842
0.00018099
0.00019111
5.8727e-05
-0.00012448
-0.00023694
-0.0002912
-0.00022835
-0.0001321
-7.2228e-05
-5.2953e-05
3.3763e-05
0.00026255
0.00036045
0.00028825
0.00021234
0.00011077
4.7011e-05
-1.5213e-05
-0.00011746
-0.00015104
-0.00010592
-4.4656e-05
1.9629e-05
3.791e-05
6.7567e-05
0.00012916
0.0001103
1.1951e-05
-0.00011581
-0.00011444
-8.793e-05
-0.0001252
-0.00014922
-0.00016196
-0.00012155
-2.9767e-05
6.6538e-05
0.0001771
0.00022036
8.1622e-05
-0.00016568
-0.00041371
-0.00061044
-0.00076885
-0.00093125
-0.0010737
-0.0010871
-0.00096386
-0.00083564
-0.00061384
-0.000362
-0.00026871
-0.00027354
-0.00037332
-0.00058226
-0.00074625
-0.00076272
-0.00071639
-0.00067567
-0.00059355
-0.00043771
-0.00024692
-0.00015633
-0.00017202
-0.00019684
-0.00024878
-0.00032738
-0.00039013
-0.00044123
-0.00050017
-0.00054413
-0.00047492
-0.0003411
-0.0001338
8.4343e-05
0.00017493
0.00017815
0.00010174
3.5815e-05
-2.6049e-05
-0.00020527
-0.00041168
-0.00057005
-0.00065186
-0.00061683
-0.00055474
-0.00040753
-0.00025473
-0.00024033
-0.0003179
-0.0003534
-0.00034605
-0.00044604
-0.00061312
-0.00080229
-0.00099336
-0.0010977
-0.0011309
-0.0012027
-0.0011984
-0.0010947
-0.00099551
-0.00086981
-0.00083468
-0.00086563
-0.00080502
-0.00079821
-0.0009396
-0.0010775
-0.0011018
-0.0010344
-0.0009235
-0.00089306
-0.00088167
-0.00078024
-0.00069145
-0.00062461
-0.00056965
-0.00050445
-0.00053765
-0.00069833
-0.00085369
-0.00097024
-0.00093508
-0.00083294
-0.0007385
-0.00061219
-0.000492
-0.00036794
-0.00027854
-0.00019702
-0.00012348
-0.0001053
-0.00021283
-0.000456
-0.00064984
-0.00066069
-0.00056128
-0.00046235
-0.00026902
-6.4524e-05
9.4537e-05
0.00026239
0.00033321
0.00028093
0.00016463
1.6785e-06
-0.0001538
-0.00027927
-0.0003275
-0.00023241
-3.3804e-05
0.00029128
0.00065446
0.00088414
0.0010285
0.0011108
0.0010956
0.00098155
0.00077212
0.00051207
0.0002664
4.0028e-05
-4.4024e-05
-8.5272e-05
-0.00011619
-3.6499e-06
0.00011261
0.00014368
8.1289e-05
-4.0132e-05
-0.00017263
-0.00030334
-0.00046533
-0.00068154
-0.00085142
-0.00092356
-0.00084438
-0.00067064
-0.00045595
-0.00025442
-0.00010076
3.281e-05
0.00017985
0.00033577
0.00037892
0.00028583
0.00013138
-3.6604e-05
-0.0001097
-7.6709e-05
1.7709e-05
0.00023118
0.00042876
0.00040339
0.0002966
0.00030946
0.00031342
0.00015607
-4.5314e-05
-0.00025649
-0.00044685
-0.0005995
-0.00069443
-0.00072493
-0.00072306
-0.00077175
-0.00083677
-0.00084374
-0.00085269
-0.00088125
-0.00089793
-0.00093341
-0.000959
-0.00096505
-0.00097639
-0.001011
-0.0011239
-0.0012936
-0.0014383
-0.00156
-0.001672
-0.0017347
-0.001709
-0.0016464
-0.0016211
-0.0016381
-0.0016613
-0.0017326
-0.001719
-0.001611
-0.001517
-0.0013961
-0.0013482
-0.0013453
-0.0013219
-0.001312
-0.0013422
-0.0013312
-0.0012718
-0.0012373
-0.0011503
-0.0010157
-0.00088458
-0.00085265
-0.00091061
-0.00097418
-0.0010024
-0.0010304
-0.0010102
-0.00093669
-0.00082193
-0.00063975
-0.00048663
-0.00042895
-0.00034287
-0.00023443
-0.00016987
-0.00024764
-0.00035569
-0.0004063
-0.00047368
-0.00048168
-0.00048395
-0.00050118
-0.00047755
-0.00049625
-0.00057057
-0.00059284
-0.00062283
-0.0006203
-0.00054403
-0.00055703
-0.00056473
-0.00051973
-0.0005026
-0.00049726
-0.00054675
-0.00071787
-0.0009691
-0.0012236
-0.0012735
-0.0011688
-0.0010751
-0.00097076
-0.00089873
-0.0009327
-0.00092721
-0.00080662
-0.00074358
-0.00065024
-0.0004285
-0.00012833
0.00022778
0.00054792
0.00068642
0.00067877
0.00065537
0.00062426
0.0005798
0.00057582
0.00059498
0.00061071
0.00064611
0.00067793
0.000736
0.00083874
0.0010259
0.0012011
0.0012526
0.0012397
0.0012681
0.001256
0.0012043
0.0011923
0.0011631
0.0011332
0.0010859
0.00101
0.0009822
0.00102
0.0011101
0.0012334
0.0013014
0.00129
0.0012187
0.0010832
0.00088314
0.0006942
0.00058833
0.00047971
0.00036529
0.0003368
0.00034658
0.00039121
0.00054843
0.00060401
0.00051363
0.00044437
0.00037774
0.00022814
9.5977e-05
4.7155e-05
-1.9168e-05
-7.4728e-05
-6.1163e-06
0.00015282
0.00031964
0.00044065
0.00039427
0.00019713
7.7944e-05
-2.0358e-05
-0.00016827
-0.00028191
-0.00035436
-0.0003734
-0.00032535
-0.00025224
-0.00018347
-0.00017308
-0.00016666
-0.00018737
-0.00030985
-0.00048326
-0.00065018
-0.00080019
-0.00084351
-0.00082965
-0.00093765
-0.0010949
-0.001159
-0.0011801
-0.0011561
-0.0010882
-0.0010117
-0.0008815
-0.00072621
-0.00067163
-0.00063936
-0.00069663
-0.00087106
-0.00096656
-0.00097111
-0.00096916
-0.0010096
-0.0010323
-0.00099748
-0.00093082
-0.00085181
-0.00076975
-0.00060294
-0.0004043
-0.00036565
-0.00047307
-0.00056657
-0.00060617
-0.0006488
-0.00076006
-0.00085013
-0.00091125
-0.00094144
-0.00091897
-0.00083655
-0.00062942
-0.00044323
-0.0004165
-0.00049043
-0.0006389
-0.0007752
-0.00089462
-0.0010606
-0.0010852
-0.00092026
-0.00080583
-0.00072788
-0.00055523
-0.00028213
-5.8467e-05
5.9138e-05
0.0001518
0.00019881
4.7897e-05
-0.00018961
-0.00034438
-0.00045024
-0.00046559
-0.0003545
-0.00025682
-0.00021168
-5.3339e-05
0.00021379
0.00034696
0.00036966
0.00029868
0.00016919
0.00020359
0.00041355
0.0005621
0.00060189
0.00059894
0.00054968
0.00047363
0.00044823
0.0005365
0.00068667
0.00076033
0.00071066
0.00056208
0.00042855
0.00042736
0.00045008
0.00043045
0.00040338
0.00033832
0.00023449
0.00012538
6.873e-05
4.907e-05
-7.7476e-05
-0.00028262
-0.00045444
-0.00066484
-0.00076634
-0.00068715
-0.00057307
-0.00048718
-0.00040913
-0.00027873
-5.7162e-05
0.00017329
0.00031409
0.00026256
0.00014599
4.4035e-05
-0.0001451
-0.00034437
-0.00042583
-0.00041717
-0.00042944
-0.00047839
-0.00044706
-0.00037159
-0.00033733
-0.00028399
-0.00028915
-0.00038312
-0.00048592
-0.00062108
-0.00076025
-0.000874
-0.00091035
-0.00091171
-0.00090233
-0.00084435
-0.00074809
-0.00066365
-0.00059885
-0.00050192
-0.00049023
-0.00061331
-0.00074027
-0.0008806
-0.00097799
-0.0009673
-0.00095436
-0.00093525
-0.00087286
-0.00082056
-0.0008729
-0.0010019
-0.0009606
-0.00082568
-0.00077143
-0.00083042
-0.00094561
-0.0010827
-0.0010267
-0.00090309
-0.00088562
-0.00085517
-0.00071281
-0.00056089
-0.0005472
-0.00065193
-0.00074834
-0.00088798
-0.00093948
-0.0008928
-0.00094451
-0.001019
-0.0010351
-0.0011117
-0.0011172
-0.0010035
-0.00090439
-0.00083944
-0.00080017
-0.00077693
-0.0007362
-0.000761
-0.0008745
-0.00096357
-0.0010367
-0.0010387
-0.000967
-0.00092229
-0.00085596
-0.00079738
-0.00073988
-0.000686
-0.00053945
-0.00031191
-0.00010282
1.9364e-05
1.6382e-05
-6.3353e-05
-0.00011864
-0.0001369
-0.00014466
-0.00015694
-0.00016832
-8.9033e-05
4.6604e-05
0.00010499
7.2598e-05
-2.0148e-05
-9.662e-05
-0.00010458
-0.00013824
-0.00014731
-4.9071e-05
1.0038e-05
2.5368e-05
2.3151e-05
3.8957e-05
3.0954e-05
8.6426e-06
6.6502e-05
0.00012475
9.5768e-05
2.8274e-05
-3.7237e-05
-8.7191e-05
-7.7496e-05
-3.3179e-05
-7.5238e-05
-5.1705e-05
6.8612e-05
0.00015168
0.00017629
0.00018517
0.00026282
0.00031884
0.00030992
0.0003061
0.00031272
0.00042279
0.0005807
0.00061631
0.00065526
0.00070582
0.00080988
0.0010096
0.0010912
0.0011404
0.0012205
0.0012631
0.0013202
0.0013267
0.0013605
0.001512
0.0015719
0.0015673
0.0016122
0.001676
0.0016973
0.0016954
0.0016357
0.0015188
0.0013281
0.00098504
0.00050602
2.2382e-05
-0.00045725
-0.000804
-0.00094764
-0.00096778
-0.00088586
-0.000723
-0.00064789
-0.00053843
-0.00034657
-0.00031701
-0.00041801
-0.00055982
-0.00063386
-0.00050606
-0.0003935
-0.00042515
-0.00047374
-0.00046481
-0.00044342
-0.00039388
-0.00036076
-0.00029677
-0.00026413
-0.00031975
-0.00035614
-0.00035308
-0.00030692
-0.00026362
-0.00028019
-0.00035261
-0.00038715
-0.00043204
-0.00051389
-0.00054639
-0.00056065
-0.00055262
-0.00058809
-0.00062003
-0.00064669
-0.00066911
-0.00067734
-0.00071204
-0.00075894
-0.00078481
-0.00075016
-0.0007166
-0.00070173
-0.00061219
-0.00054448
-0.00056133
-0.00059215
-0.00059023
-0.00061036
-0.00064049
-0.00063691
-0.00073616
-0.00090207
-0.00095535
-0.00094752
-0.0008087
-0.00059738
-0.00042449
-0.00029151
-0.00017411
-7.4828e-05
-7.355e-06
7.8874e-05
0.00013493
0.00015825
0.000174
0.00017611
0.00019832
0.00026793
0.0003712
0.00040313
0.00044028
0.00055239
0.0006773
0.00079192
0.00081533
0.00070984
0.0006313
0.00054108
0.00040021
0.00032955
0.00027911
0.00018134
0.00011305
0.00011178
0.00019828
0.00025757
0.00019742
7.425e-05
-7.8276e-05
-0.00020968
-0.00028616
-0.00033618
-0.00037939
-0.00044818
-0.00053662
-0.00057494
-0.00053485
-0.00041297
-0.00032661
-0.00039554
-0.00046991
-0.0005271
-0.00059919
-0.00063231
-0.00061385
-0.00052412
-0.00042273
-0.00035881
-0.00021639
-2.9986e-05
0.00021038
0.0005543
0.00075022
0.000701
0.00054281
0.0003477
0.00013422
-4.7336e-05
-0.00014851
-0.00019018
-0.00020973
-0.00021572
-0.00017091
-0.00013302
-3.3326e-05
3.5336e-05
-1.1484e-05
-0.00018166
-0.00039892
-0.00046537
-0.00045372
-0.0004636
-0.00043399
-0.0003446
-0.00023241
-0.00015041
-5.8115e-05
9.6604e-05
0.00025426
0.00030312
0.00024991
0.00015031
0.0001179
0.00011774
0.00014035
0.00011254
4.7452e-05
9.5281e-05
0.00018386
0.00031039
0.00052001
0.00069885
0.00072531
0.00067829
0.00071283
0.00078647
0.00067895
0.00047336
0.00031765
0.00019859
0.0001956
0.00023635
0.00026716
0.00031556
0.00043138
0.00052208
0.00047034
0.00034106
0.00027439
0.00027685
0.00027234
0.00017745
6.2385e-05
6.1419e-05
0.00013696
0.00025609
0.00038631
0.00054632
0.00073801
0.00085514
0.00089429
0.00078842
0.00063078
0.00054694
0.00044205
0.00029734
0.00027932
0.00038354
0.00041755
0.00041499
0.00047429
0.00050995
0.00042835
0.00032568
0.00025858
0.00012677
-1.9196e-05
-0.00026677
-0.00055586
-0.00079412
-0.0010405
-0.001212
-0.0012978
-0.0013103
-0.001355
-0.0014615
-0.0014744
-0.0014345
-0.0013546
-0.0013506
-0.0014708
-0.0015666
-0.0015262
-0.0014384
-0.0013877
-0.0014172
-0.0014856
-0.0015405
-0.0015835
-0.0015246
-0.0013665
-0.001216
-0.0012383
-0.0013821
-0.0014862
-0.0015061
-0.00147
-0.0014985
-0.0014767
-0.0013153
-0.00113
-0.0010128
-0.00085051
-0.00059699
-0.00036741
-0.00028925
-0.0003788
-0.00053599
-0.00064836
-0.00070408
-0.00076459
-0.00085855
-0.00087238
-0.00077437
-0.0006452
-0.00045204
-0.00018829
0.00010995
0.00026087
0.00016514
-4.5868e-05
-0.00023634
-0.00027638
-0.00026763
-0.00023015
-0.00018731
-0.00017486
-0.00012533
-1.0451e-05
0.00027083
0.00056359
0.00063711
0.000587
0.00047807
0.00033874
0.00018411
4.8241e-05
-1.4817e-05
-6.9531e-05
-5.8959e-05
1.6487e-05
0.00011828
0.00032729
0.00044736
0.00042472
0.00031558
0.00010829
-0.0001111
-0.00019817
-0.00022222
-0.00027899
-0.00035486
-0.00038925
-0.00032009
-0.00021647
-0.00021537
-0.00030729
-0.00040885
-0.00050156
-0.00065518
-0.00078875
-0.00089399
-0.0009664
-0.00092452
-0.00082499
-0.00081105
-0.00068604
-0.00060168
-0.00070392
-0.00074351
-0.00072721
-0.00077799
-0.00081635
-0.00086707
-0.00095167
-0.00095834
-0.00082895
-0.00075068
-0.0007539
-0.00065019
-0.00050733
-0.00044758
-0.00043721
-0.00044415
-0.00044524
-0.00041387
-0.00034276
-0.00028775
-0.00024407
-0.00014743
-0.00010094
-0.00024937
-0.00040095
-0.0004991
-0.00061454
-0.00061495
-0.00060371
-0.0006895
-0.00063889
-0.00053649
-0.00054661
-0.00064348
-0.00069729
-0.00069502
-0.00066912
-0.00055565
-0.00036334
-0.00019197
-5.6703e-05
2.2181e-05
0.00011464
0.00023961
0.00032313
0.00040127
0.00047624
0.00053259
0.00062518
0.0006862
0.00070811
0.00068249
0.00063387
0.0006031
0.00059037
0.00059571
0.00059854
0.00055771
0.00055988
0.00065542
0.00075689
0.00077744
0.00079762
0.00081733
0.00081114
0.00078097
0.0006741
0.00056198
0.00045091
0.00032896
0.00024088
0.00026281
0.00032319
0.00033142
0.000358
0.00037433
0.00041904
0.00048711
0.00040819
0.00023486
0.00017766
0.00018405
0.00016774
0.00013928
0.00010403
5.5995e-05
-2.0526e-05
-8.2254e-05
-2.4432e-05
0.00010184
0.00025007
0.00034671
0.0003831
0.00037225
0.00033714
0.00024333
8.4267e-05
-0.0001311
-0.00039836
-0.00067371
-0.00088435
-0.00089888
-0.00081625
-0.00076603
-0.00068275
-0.0005861
-0.00049245
-0.0004041
-0.00034735
-0.00030933
-0.00021827
-0.00020505
-0.00043268
-0.00068026
-0.00077841
-0.00092319
-0.00088677
-0.00052034
-0.00021691
-9.5737e-05
-7.6581e-05
-5.3141e-05
2.0097e-05
6.9839e-05
1.9976e-05
-4.4821e-05
-1.0899e-05
8.792e-05
0.00027687
0.00050555
0.0006394
0.00068488
0.00066489
0.00058047
0.00056318
0.00058377
0.00052709
0.00045528
0.00044726
0.00046552
0.00054069
0.00065056
0.00067831
0.00060572
0.00047528
0.00033616
0.00025964
0.00026815
0.00026754
0.00024528
0.00029465
0.00036552
0.00039727
0.00043215
0.00053549
0.00058333
0.00051334
0.00038211
0.00028021
0.00026077
0.00024815
0.00018066
0.00014869
0.00013252
9.6406e-05
6.2415e-05
5.3423e-05
0.0001093
0.00021903
0.0002686
0.00023787
0.00014188
0.00015692
0.00026627
0.00020494
-3.118e-07
-0.00016789
-0.00029564
-0.00041879
-0.00052104
-0.00050675
-0.00045088
-0.0004567
-0.00050655
-0.00061749
-0.00070353
-0.00068814
-0.00070386
-0.00078989
-0.00087893
-0.00094078
-0.00092816
-0.00088342
-0.0008363
-0.0007786
-0.00078894
-0.00078332
-0.00077423
-0.00080347
-0.00081787
-0.00080574
-0.0008162
-0.00085185
-0.00089739
-0.00085676
-0.00080387
-0.00075778
-0.00076413
-0.00082167
-0.00081028
-0.00076605
-0.00077795
-0.00076513
-0.00072215
-0.00064169
-0.00061517
-0.00068712
-0.00075093
-0.00078751
-0.00070528
-0.00056043
-0.00050406
-0.00050032
-0.00060299
-0.00071115
-0.00074144
-0.00072596
-0.00073264
-0.00081032
-0.00084762
-0.00077033
-0.00069359
-0.00060107
-0.00038436
-0.00014576
-2.0434e-05
6.983e-05
0.0001628
0.00013283
5.7316e-05
3.3116e-05
-3.2195e-05
-3.6143e-05
-3.7111e-05
-6.9745e-05
-2.7873e-05
8.4363e-05
0.00029203
0.00047213
0.00048452
0.0004397
0.00036108
0.00022211
9.9876e-05
7.9101e-06
-5.4469e-05
-2.2623e-05
1.0623e-05
9.8761e-05
0.00031066
0.00056995
0.00067437
0.00063929
0.00055162
0.00041084
0.00017327
-8.0127e-05
-0.00023418
-0.00027615
-0.0002318
-0.00016309
-3.24e-05
0.00017358
0.00033882
0.00041771
0.00046557
0.00051519
0.00048974
0.00033738
0.00014096
-1.1218e-05
-0.00012314
-0.00021366
-0.00026441
-0.00019048
-4.6402e-05
0.00013147
0.0003183
0.00045317
0.00041606
0.00028187
0.00020559
0.00019967
0.00022752
0.0002758
0.00028324
0.000207
7.8738e-05
-1.4895e-05
-2.8478e-05
5.5471e-05
0.00017698
0.00020065
0.00013121
3.9493e-05
-6.0287e-05
-8.0221e-05
-0.00011001
-0.00020175
-0.00022842
-0.00016815
-0.00015565
-0.00016727
-0.00016155
-0.00013024
-0.00012874
-0.00025463
-0.00037805
-0.00045666
-0.0005574
-0.0006541
-0.0007043
-0.00071516
-0.0007672
-0.00088745
-0.0010117
-0.0010778
-0.0010545
-0.00092545
-0.0008899
-0.00099096
-0.0011498
-0.0012826
-0.0013218
-0.0012366
-0.0010532
-0.00093994
-0.00096189
-0.00091328
-0.00075133
-0.00061945
-0.00044474
-0.00025124
-0.00016533
-0.00010507
-2.4111e-05
4.3472e-05
6.8461e-05
4.9263e-05
3.3706e-05
0.00011288
0.00024381
0.00040769
0.00058685
0.00073963
0.00073739
0.00069217
0.00067645
0.00066812
0.00065045
0.00057404
0.00054067
0.00056522
0.00053786
0.00041558
0.00027307
0.00027686
0.00030338
0.00015228
-0.00015478
-0.00046594
-0.00064536
-0.00075419
-0.00086305
-0.00092131
-0.00082934
-0.00065592
-0.00056783
-0.00041577
-0.00023747
-0.00016249
-0.00015619
-0.00016777
-0.00014894
-0.00014937
-0.00020112
-0.00021658
-0.00023627
-0.00022936
-9.0006e-05
6.1417e-05
0.00022649
0.00038771
0.00034185
0.00019995
9.4807e-05
3.5548e-05
-2.5105e-05
-0.00011379
-0.00021475
-0.00030304
-0.00027616
-0.00015605
-0.00010463
-0.00010148
-0.00017718
-0.00029363
-0.00038063
-0.00041734
-0.00038663
-0.00030454
-0.00029296
-0.00036099
-0.00042681
-0.00048202
-0.00054106
-0.00060268
-0.00059244
-0.00047687
-0.00043757
-0.00051007
-0.00060872
-0.0006414
-0.00064993
-0.00066236
-0.00069815
-0.00075541
-0.00078534
-0.00081732
-0.00084166
-0.00081092
-0.00065277
-0.00039689
-0.00020274
-7.02e-05
2.7058e-05
0.00012025
0.00016432
0.00015584
0.00010362
0.00011353
0.0001143
1.0449e-05
-6.901e-05
-5.8107e-05
-8.888e-05
-0.00020431
-0.00033882
-0.00037077
-0.00031771
-0.00031454
-0.00037735
-0.00048867
-0.0005399
-0.00057299
-0.00064603
-0.00074903
-0.00085513
-0.0008363
-0.00085011
-0.00087692
-0.00081275
-0.00074689
-0.00073059
-0.0006781
-0.00065076
-0.00057645
-0.00046049
-0.00043637
-0.00033746
-0.00016216
-3.0674e-05
0.00013739
0.00023858
0.0002456
0.00026999
0.00028757
0.00031997
0.00032482
0.00024461
0.00021446
0.00015711
-1.3878e-05
-0.00019397
-0.00037205
-0.00036488
-0.0002222
-0.00017372
-0.00015453
-0.00018782
-0.00022674
-0.00019049
-0.0001352
-0.00014491
-0.00018979
-0.00013957
-3.6873e-05
0.00012938
0.00041891
0.00066316
0.00079593
0.00083048
0.00077735
0.00061154
0.0003824
5.7761e-05
-0.00032102
-0.00057334
-0.0006327
-0.00058179
-0.00048374
-0.0003307
-0.00024259
-0.00029581
-0.00027057
-0.00010831
2.5912e-05
0.00011412
9.1998e-05
-5.0428e-05
-0.00020449
-0.00032078
-0.00033069
-0.00030969
-0.00038167
-0.00050838
-0.00060846
-0.00057646
-0.00044852
-0.00035752
-0.00028235
-0.00028492
-0.00029632
-0.00029477
-0.00041607
-0.00060399
-0.00087772
-0.0011998
-0.0013456
-0.0013763
-0.0012677
-0.0010136
-0.00080616
-0.00067969
-0.00059676
-0.00054409
-0.00043149
-0.00034583
-0.00034485
-0.00036608
-0.00036512
-0.00036508
-0.00027669
-0.00010795
4.2448e-05
0.00018591
0.00026326
0.00029542
0.00037049
0.00044671
0.00052172
0.00055613
0.00048765
0.00039684
0.0003451
0.00028023
0.00024655
0.00025253
0.00032813
0.00041385
0.0004801
0.00057656
0.00067586
0.00072529
0.000771
0.00076757
0.00075269
0.00075772
0.00070748
0.00065823
0.00060441
0.00051178
0.00042988
0.0003739
0.00035964
0.00036387
0.00044208
0.00057488
0.00069499
0.00077494
0.00088437
0.00094043
0.00091737
0.00086244
0.00078252
0.00070854
0.00062006
0.0005509
0.0005164
0.00056411
0.00070963
0.00087469
0.0010881
0.0012317
0.0012766
0.0012822
0.0013423
0.0014153
0.0014169
0.0013948
0.0013925
0.0013587
0.001301
0.0013204
0.0014182
0.0014579
0.001408
0.0013134
0.0012516
0.0011987
0.0011233
0.0010717
0.0010993
0.0010913
0.0010163
0.00096737
0.00096404
0.0010257
0.0011185
0.0011615
0.0011921
0.0011966
0.0011767
0.0011683
0.0011608
0.0011798
0.0012273
0.001283
0.0013279
0.0012496
0.0011274
0.0011519
0.0012615
0.0012791
0.0011991
0.0010496
0.00092113
0.00086395
0.00080213
0.00065832
0.00048123
0.00035784
0.00022156
2.445e-05
6.9426e-06
0.00012585
0.00021217
0.00025318
0.00021308
9.5022e-05
3.2312e-05
-7.2306e-06
-0.00011026
-0.00026695
-0.00039645
-0.00049768
-0.00054372
-0.00040192
-0.0002034
-0.00011499
-8.4689e-05
-6.9362e-05
-9.743e-05
-0.00020309
-0.00035228
-0.0004235
-0.00037748
-0.00031152
-0.00019356
2.4872e-06
0.00021721
0.00031993
0.0002678
0.00015307
0.00012132
6.3845e-05
-6.5969e-05
-0.00019607
-0.00026635
-0.0002795
-0.00035088
-0.00039158
-0.00037822
-0.00029172
-0.00015825
-9.3982e-05
-2.6366e-05
5.7474e-05
8.4869e-05
1.0678e-06
-9.3147e-05
-0.00024875
-0.00041754
-0.00059625
-0.00076657
-0.0007869
-0.00068094
-0.00056262
-0.0004816
-0.00032852
-0.00016535
-9.2253e-05
-8.902e-05
-0.00016442
-0.00022099
-0.00022925
-0.00022667
-0.00021289
-0.00011371
-4.7352e-05
1.392e-05
0.00016252
0.00030626
0.00041457
0.00043883
0.00035332
0.00025004
0.00018055
0.00017826
0.00020543
0.00027138
0.00038117
0.00043426
0.00049109
0.00061955
0.00075444
0.00089295
0.00095603
0.0008933
0.000758
0.00061713
0.00051365
0.00049931
0.00050734
0.00048863
0.00046749
0.00051927
0.00064867
0.00079822
0.0009294
0.0010294
0.0011275
0.0012381
0.0012162
0.0011258
0.0010272
0.00095466
0.00093717
0.00088129
0.00076166
0.00069133
0.0006943
0.00070359
0.00070961
0.00073358
0.00069014
0.00069259
0.00066475
0.00052832
0.00045877
0.00045193
0.00036895
0.00030274
0.00028695
0.00029606
0.00036196
0.00040496
0.00041411
0.00041859
0.00041154
0.0003912
0.0003501
0.00031074
0.00023642
0.00016469
0.00010859
0.00010055
0.00019042
0.00027847
0.00032969
0.00040452
0.00049923
0.00061096
0.00073808
0.00079096
0.0007196
0.00061709
0.00053562
0.00051584
0.00050901
0.00052444
0.00052431
0.00050167
0.00047914
0.00040733
0.00032601
0.00031539
0.00035547
0.00037775
0.00033829
0.0002689
0.00011503
-7.3247e-05
-0.00014831
-0.00014216
-0.00016805
-0.00024444
-0.00037037
-0.00052004
-0.00070094
-0.00078871
-0.00077094
-0.0008049
-0.00089427
-0.00095948
-0.00097306
-0.00091553
-0.00084473
-0.0008537
-0.00091314
-0.0009469
-0.0009371
-0.00092257
-0.00091115
-0.00086082
-0.00089547
-0.00098503
-0.0010491
-0.0010666
-0.0010675
-0.0010317
-0.0010212
-0.0010691
-0.001058
-0.0010382
-0.0010681
-0.0010915
-0.0011458
-0.0012412
-0.0013037
-0.0013286
-0.0012671
-0.0011264
-0.0010736
-0.00113
-0.0011981
-0.0011686
-0.0010685
-0.001006
-0.0010289
-0.0010316
-0.00096296
-0.00082023
-0.00063792
-0.00044314
-0.00027394
-0.00016922
-0.00015214
-0.00023382
-0.00027608
-0.00026078
-0.00036847
-0.00052245
-0.00065967
-0.0007462
-0.00080683
-0.00088751
-0.00095234
-0.0010358
-0.0011609
-0.0011889
-0.0011014
-0.00095146
-0.00085055
-0.00075646
-0.0006625
-0.00060189
-0.00049979
-0.00034063
-0.00021273
-0.00015831
-0.00014795
-0.0001549
-0.0001965
-0.00023435
-0.00029267
-0.00039042
-0.00051234
-0.00070432
-0.0009386
-0.0010921
-0.001129
-0.00099288
-0.00082849
-0.00074199
-0.00064054
-0.00048897
-0.00036131
-0.00027432
-0.00021573
-0.0002072
-0.0002371
-0.00028224
-0.00029548
-0.00028266
-0.00024737
-0.00018351
-0.00011609
-1.9418e-06
0.00010969
0.00022709
0.00027718
0.00020414
0.00014489
0.00012764
1.6209e-05
-0.00011275
-0.00020438
-0.00027779
-0.00040024
-0.00053784
-0.00058721
-0.00061588
-0.00064326
-0.000654
-0.00071194
-0.00082043
-0.00098742
-0.0011482
-0.0012749
-0.0013395
-0.0013703
-0.0013729
-0.0013801
-0.001347
-0.0012178
-0.001109
-0.00095909
-0.00075019
-0.00056917
-0.00036531
-0.00022057
-0.00012761
2.0199e-05
0.00015981
0.00024526
0.00031279
0.00027344
0.00014089
-5.3882e-06
-6.2849e-05
-5.2543e-05
-7.2021e-05
-0.00011558
-0.00016098
-0.00018609
-0.0001536
-7.0253e-05
1.7083e-05
7.5442e-05
0.00014947
0.00019941
0.00023566
0.00020426
0.00012812
9.9505e-05
0.00013251
0.00017966
0.00020928
0.00023396
0.00031647
0.0003952
0.00038384
0.00034766
0.00030079
0.00017353
-1.328e-05
-0.00021458
-0.00036972
-0.00048959
-0.00061955
-0.00074115
-0.00070399
-0.00056977
-0.00054007
-0.00055656
-0.00055645
-0.00064668
-0.00080708
-0.0009857
-0.0011743
-0.0013388
-0.0014731
-0.0015411
-0.0015367
-0.0014829
-0.0012223
-0.00086071
-0.00056245
-0.00034427
-0.0002422
-0.00019245
-0.00016358
-0.00020317
-0.00020161
-0.00017176
-0.00012469
-4.0826e-05
3.4776e-05
0.00010525
0.00014344
8.5735e-05
-2.8078e-05
-0.00011354
-0.00013263
-0.00010693
-6.7979e-05
6.4153e-05
0.00025299
0.00038934
0.0005282
0.00060978
0.00064621
0.00067046
0.00072356
0.00075426
0.00074479
0.00062177
0.00049559
0.00045127
0.00049718
0.00068929
0.00086398
0.00086706
0.00077707
0.00068205
0.00068791
0.00075441
0.00079032
0.00077526
0.00069843
0.0005894
0.00053149
0.00054824
0.00062362
0.00057526
0.00044202
0.00038909
0.00041648
0.0003785
0.00027207
0.00010212
-3.2386e-05
-4.9936e-05
-2.8309e-05
9.9472e-05
0.00019803
0.00019045
0.00018012
0.00014786
0.00010956
0.00010088
9.5077e-05
5.4194e-05
5.179e-05
4.7799e-05
3.9974e-05
0.00011499
0.00023366
0.00024376
0.00015591
5.3348e-05
-6.2554e-05
-0.00019681
-0.00026217
-0.0002705
-0.00020432
-0.00017018
-0.00015629
-7.8321e-05
-6.4772e-05
-0.00021139
-0.00032478
-0.00033894
-0.00033001
-0.00036657
-0.00038539
-0.00038211
-0.00034497
-0.00029085
-0.00019374
-3.2764e-05
7.1597e-05
2.2505e-07
-0.00015969
-0.00028305
-0.00031098
-0.00028451
-0.00024395
-0.00025371
-0.00033207
-0.00036496
-0.00036009
-0.00031352
-0.00014821
-4.9172e-05
-7.5865e-05
-0.00017911
-0.00029279
-0.00041208
-0.00053976
-0.00064456
-0.00069956
-0.00072711
-0.00074379
-0.00078835
-0.0007658
-0.00065169
-0.00055141
-0.00055522
-0.00059737
-0.00056068
-0.00051315
-0.00048948
-0.00046065
-0.00041383
-0.00036615
-0.00038549
-0.00041926
-0.00033501
-5.0566e-05
0.00014257
0.0001251
5.3272e-07
-0.00013113
-0.00026994
-0.00039609
-0.00046222
-0.00051477
-0.00056891
-0.00062159
-0.00063866
-0.00054263
-0.00032971
-0.00011719
-3.9955e-05
-3.4016e-05
-6.2233e-05
-7.6093e-05
-8.7285e-05
-0.00016139
-0.0002642
-0.00031273
-0.00033468
-0.00032137
-0.00021496
-1.7886e-05
0.00011539
0.00012266
7.2591e-05
-5.3577e-06
-0.00010678
-0.00019434
-0.00028071
-0.00038702
-0.00051197
-0.00060507
-0.00063287
-0.00057725
-0.00041057
-0.00018159
-6.139e-05
-5.426e-05
-0.00011103
-0.00013064
-0.00015143
-0.00016694
-0.00015703
-0.00018356
-0.00028457
-0.00034498
-0.00032149
-0.00023059
-7.6386e-05
2.1103e-05
-3.9403e-05
-0.00011848
-0.00017976
-0.00022581
-0.00023661
-0.00024357
-0.00026091
-0.00028233
-0.00028368
-0.00021209
-0.00012767
8.2727e-06
0.00021691
0.00032317
0.00021804
9.906e-05
2.9102e-05
-2.734e-06
7.6765e-06
-8.1196e-05
-0.00022038
-0.00022557
-0.00015118
-4.7644e-05
0.00010291
0.00032676
0.00044723
0.00039232
0.00029446
0.00027124
0.00025217
0.00021819
0.00017745
0.0001123
7.3207e-05
0.00013719
0.00027235
0.00049348
0.00077354
0.00093899
0.00088309
0.00077237
0.00067081
0.00059895
0.00055724
0.00042625
0.00028725
0.00019397
6.8166e-05
-4.8658e-05
-9.7119e-05
-9.6144e-05
-0.00020793
-0.00041651
-0.00061585
-0.00077675
-0.00095233
-0.0010691
-0.0011669
-0.0012995
-0.0013416
-0.001334
-0.0012707
-0.00099148
-0.00066728
-0.00048241
-0.00034577
-0.00019231
-6.649e-05
3.8254e-05
0.00011044
0.0001195
6.0197e-05
2.1706e-05
-1.421e-05
-1.497e-05
1.4736e-05
-1.8959e-05
-5.0118e-05
-6.8938e-05
-0.00012026
-9.986e-05
-0.00011898
-0.0001908
-0.00028993
-0.0004037
-0.00045614
-0.00031193
-0.00013508
-0.0001249
-0.00018397
-0.00021699
-0.00025114
-0.00026287
-0.00027212
-0.00026554
-0.00017492
-5.4553e-05
9.0336e-05
0.00032501
0.00054179
0.00068369
0.00066528
0.0004827
0.00021143
-0.00016758
-0.00051983
-0.00072953
-0.00086667
-0.00091593
-0.0009089
-0.00085714
-0.00078028
-0.00075666
-0.00075471
-0.00071616
-0.00065683
-0.00062421
-0.00064652
-0.00064363
-0.0005569
-0.00044574
-0.00037982
-0.00029861
-0.00021571
-0.00017221
-0.00017725
-0.00017553
-0.00022034
-0.00026722
-0.00030486
-0.00033782
-0.00040748
-0.0005645
-0.00063944
-0.00056318
-0.00043125
-0.0003358
-0.00031919
-0.00024971
-0.00010843
-2.4859e-05
-1.2328e-05
0.00011018
0.00028632
0.00038725
0.0004454
0.00053825
0.00063901
0.00074031
0.0007788
0.00073036
0.00064086
0.00057422
0.00053085
0.000498
0.00046248
0.0004031
0.00038903
0.00041555
0.00040234
0.00043045
0.00055229
0.00068068
0.00079821
0.00091085
0.00096713
0.0010598
0.0010678
0.00094547
0.00077521
0.00061047
0.00043878
0.00024246
3.0398e-05
-0.00018189
-0.00041025
-0.00055166
-0.0005981
-0.00064349
-0.00063462
-0.00064732
-0.0006849
-0.00066753
-0.00064488
-0.00046309
-0.00020689
3.6042e-05
0.00030148
0.00052117
0.00061472
0.00068128
0.00078036
0.00089493
0.00090546
0.00079437
0.00069784
0.00065607
0.00067389
0.00070729
0.00076123
0.00084808
0.00089499
0.0009383
0.00099661
0.00097018
0.00088325
0.00082749
0.00076125
0.00076802
0.00075372
0.00070414
0.00069076
0.00066282
0.00068965
0.00077747
0.00084077
0.0009455
0.0010716
0.0011077
0.0010779
0.0010483
0.0009757
0.00083285
0.00071972
0.00063099
0.00052847
0.00045573
0.00033734
0.00024953
0.00027832
0.00031947
0.00028885
0.00027759
0.00023554
0.00012067
1.8388e-05
-3.7174e-05
-8.0261e-05
-5.6884e-05
-1.6752e-05
-1.6193e-05
-5.9453e-06
-9.2894e-07
-1.7522e-05
5.4132e-06
3.0126e-06
-4.2291e-05
-0.00011808
-0.00019946
-0.00026465
-0.00029915
-0.00033342
-0.00037371
-0.00041978
-0.00042813
-0.00041646
-0.00040369
-0.00030545
-0.00021031
-0.00015532
-5.2798e-05
-1.3381e-05
-3.414e-05
-0.00010956
-0.00024668
-0.00045611
-0.0006212
-0.00071909
-0.00091095
-0.001027
-0.00093232
-0.00067387
-0.00034633
-0.00011597
3.5327e-05
0.00017869
0.0003528
0.00051112
0.00060713
0.00062045
0.0006584
0.00072234
0.0007835
0.00086738
0.00089887
0.00087111
0.0007973
0.00066213
0.00053187
0.00041935
0.00046558
0.00070154
0.00089992
0.00096051
0.00094275
0.00084772
0.00073675
0.0006749
0.00074743
0.00087074
0.00090896
0.00084624
0.00078303
0.00075507
0.00072934
0.00064584
0.00057819
0.00049291
0.00038452
0.00031147
0.00026559
0.00040979
0.00064786
0.00076009
0.00073279
0.00062444
0.00049578
0.00037385
0.00029154
0.00020964
0.00020348
0.00018044
0.00010706
5.3899e-05
0.00012772
0.00025352
0.00031062
0.0002634
0.0001688
7.4471e-05
-3.6044e-06
-7.6226e-05
-0.00014344
-0.00017927
-0.00020028
-0.00018504
-0.00010791
-8.8373e-06
0.00011735
0.00020402
0.00017633
7.3885e-05
-5.1642e-05
-0.00018546
-0.0003587
-0.00060082
-0.00076795
-0.00079944
-0.00078304
-0.00074177
-0.00058426
-0.00033377
-0.00015409
-0.00014899
-0.00020668
-0.00036703
-0.0005804
-0.00069656
-0.00073462
-0.00073382
-0.00068461
-0.00065215
-0.00059416
-0.00047751
-0.00038736
-0.0002833
-0.00020171
-0.00019836
-0.00018389
-0.0001738
-0.00019967
-0.00025807
-0.00033265
-0.00042085
-0.00049375
-0.00053661
-0.00057735
-0.00055613
-0.00047288
-0.00041408
-0.00037757
-0.00037008
-0.00041833
-0.00049978
-0.00054801
-0.00062413
-0.00070692
-0.00073629
-0.00068323
-0.00061932
-0.0004831
-0.00032021
-0.0003417
-0.00043467
-0.0004614
-0.00046591
-0.00036693
-0.00027017
-0.00026885
-0.00027451
-0.00030003
-0.00031321
-0.00029703
-0.00029855
-0.00031719
-0.00039477
-0.00050184
-0.00064425
-0.00072936
-0.0006987
-0.00069568
-0.00072761
-0.0007083
-0.00071451
-0.00068206
-0.00064612
-0.00067261
-0.00067502
-0.00063188
-0.00054975
-0.00042368
-0.00032738
-0.00025839
-0.00020053
-0.00018181
-0.00023385
-0.0002381
-0.00018224
-0.00013923
-7.8943e-05
-1.8031e-05
-4.4253e-05
-4.2238e-05
1.6529e-05
4.1645e-05
3.3841e-05
1.8006e-05
8.3756e-06
5.2321e-05
0.00013482
0.00018875
0.00015902
0.00016318
0.00018679
0.00015889
0.0001882
0.00027165
0.00028634
0.00024527
0.00014601
7.6304e-05
8.761e-05
0.00016014
0.00028015
0.00035997
0.00040829
0.00043981
0.00042612
0.00043071
0.00043195
0.0004274
0.00041392
0.00039818
0.00035984
0.00037166
0.00043525
0.0004435
0.00040417
0.0003522
0.00029953
0.00025871
0.0002319
0.00025672
0.00027971
0.00028849
0.0003318
0.00040707
0.00048322
0.00058676
0.00065981
0.0007075
0.0007223
0.00070953
0.00071938
0.00074497
0.00072107
0.0006764
0.00064979
0.0006342
0.00060197
0.00054922
0.00048477
0.00041799
0.00037237
0.00035923
0.00034592
0.00037652
0.00043286
0.00047452
0.00055097
0.00064917
0.00072376
0.00078271
0.00083302
0.00093128
0.00094907
0.00088209
0.00084926
0.00083335
0.00083156
0.00086935
0.000873
0.00080203
0.00076865
0.00078323
0.00077799
0.00080285
0.00078899
0.0007626
0.00074695
0.00071513
0.00069558
0.0006933
0.00068506
0.00070967
0.00072425
0.00073894
0.00071077
0.00068792
0.00073982
0.0007173
0.00064856
0.00062171
0.00061617
0.00062038
0.00059095
0.0005385
0.00050036
0.00044951
0.00037545
0.00030931
0.00025412
0.00026824
0.00030713
0.00030384
0.0002139
5.1175e-05
-0.00012689
-0.00036782
-0.0007383
-0.0011475
-0.001527
-0.0017657
-0.0017849
-0.0016685
-0.0014373
-0.0011004
-0.00073328
-0.00044066
-0.00025653
-5.4878e-05
9.0072e-05
0.00015398
0.00018932
0.00023705
0.00028305
0.00031111
0.00030596
0.00034384
0.00040526
0.00043462
0.00047333
0.00051775
0.00051484
0.00050298
0.00047622
0.00042003
0.00041318
0.00038968
0.00029415
0.00020662
0.00012468
0.00012168
0.00013511
0.00018577
0.00028439
0.00029615
0.00023392
0.00013763
2.7491e-05
-4.555e-05
-0.00010505
-0.00022919
-0.00030774
-0.00027529
-0.0002036
-0.00010164
-3.3067e-05
9.0065e-05
0.00021513
0.00020815
0.00012289
7.8311e-05
6.137e-05
4.4959e-05
-1.3947e-05
-8.9684e-05
-0.00014781
-0.00018403
-0.00019409
-0.0001902
-0.00014287
-2.7979e-05
0.00011831
0.00022924
0.00028596
0.00029963
0.00027102
0.00024107
0.00015769
6.5196e-05
5.6651e-06
-8.0319e-05
-0.00015491
-0.00013011
-6.812e-05
2.9175e-05
0.00014493
0.00022044
0.00026162
0.00027336
0.00023761
0.00015324
8.3967e-05
7.8919e-05
8.9588e-05
0.00011654
0.00018763
0.00032943
0.00044384
0.00053104
0.00058697
0.00056857
0.00048186
0.0003929
0.00029312
0.00022509
0.00018081
0.00016171
0.00016965
0.00025147
0.00034514
0.00047975
0.0006608
0.00072447
0.00071681
0.0007657
0.00078616
0.00077082
0.0007837
0.00082922
0.00088606
0.00096968
0.0010784
0.001238
0.0013563
0.0014165
0.0013784
0.0012587
0.0011326
0.00098358
0.00084973
0.00075993
0.0006636
0.00060133
0.00059356
0.00062123
0.00070594
0.0008213
0.00089367
0.00090936
0.0008921
0.00085398
0.00078853
0.00075795
0.0007018
0.00061111
0.00052171
0.0004579
0.00047677
0.00059859
0.00075392
0.00094901
0.0010384
0.0010443
0.0010084
0.00091903
0.00086115
0.0008336
0.00077793
0.00070899
0.00061651
0.00058035
0.00060151
0.00066893
0.0006819
0.00058616
0.00043619
0.00021867
-4.334e-06
-0.00016449
-0.00030125
-0.00041048
-0.00050147
-0.00057188
-0.00061885
-0.00057386
-0.00049679
-0.0004576
-0.00057814
-0.00084285
-0.0011448
-0.0013756
-0.0015085
-0.0015398
-0.0015038
-0.0013751
-0.0011753
-0.00099556
-0.00085651
-0.0007184
-0.00065204
-0.00059655
-0.0005244
-0.0004429
-0.00033288
-0.00019476
-6.511e-05
6.3517e-05
0.00012277
0.00011295
0.00010003
0.00010887
0.00017117
0.00020317
0.00014966
5.0045e-05
-5.4699e-05
-6.0334e-05
1.8283e-05
0.00013816
0.00023789
0.00028982
0.00032537
0.00039892
0.00048829
0.0005451
0.00051855
0.00050748
0.00050611
0.0005276
0.00055438
0.00050709
0.00049591
0.00047387
0.00038314
0.00029747
0.00024235
0.00020745
0.00020085
0.00019787
9.2954e-05
-5.8759e-05
-0.00016339
-0.00021331
-0.00019867
-0.00010419
-1.6692e-05
7.5945e-05
0.00015295
0.00021507
0.00026122
0.00027748
0.00031951
0.00038102
0.00039977
0.00039545
0.00038473
0.00042036
0.00053724
0.00067141
0.00073741
0.00069726
0.00057013
0.00040431
0.00017294
-1.4902e-05
-0.00010121
-0.00014346
-9.6108e-05
-3.3544e-05
3.6608e-05
0.00014977
0.00020549
0.00021924
0.00024964
0.00031093
0.00036893
0.00037933
0.00043133
0.00059113
0.00070256
0.00078394
0.00082366
0.00079314
0.00074467
0.00077056
0.00081725
0.00083424
0.00084548
0.00084298
0.00085114
0.0009198
0.0010497
0.0011391
0.0010823
0.0010116
0.00097272
0.00088213
0.00074403
0.0006432
0.00056765
0.00052726
0.00046893
0.00043401
0.0004635
0.00053321
0.00061148
0.00060232
0.00052845
0.00047467
0.00039943
0.00029387
0.00020685
0.00017611
0.00014621
9.0613e-05
1.9978e-05
7.4062e-06
8.1415e-05
0.00011273
5.0542e-05
1.0661e-05
-1.5666e-05
-5.7832e-05
-0.00012381
-0.00016292
-0.00019277
-0.00023618
-0.00022113
-0.00014502
-7.3052e-05
4.8726e-05
0.00015515
0.00028839
0.00052533
0.0007903
0.0011805
0.0016989
0.0022172
0.0026742
0.0023897
0.0016149
0.0010708
0.00074077
0.00045716
0.00019198
-8.7149e-05
-0.00029458
-0.00047979
-0.00075702
-0.0010454
-0.0012408
-0.0013019
-0.0013327
-0.0013354
-0.0012127
-0.001073
-0.00090764
-0.00075504
-0.0005736
-0.00026282
-3.0834e-05
-0.00011255
-0.00029622
-0.0003828
-0.00046534
-0.00055215
-0.00061289
-0.00065993
-0.00065124
-0.00059361
-0.00049652
-0.00042249
-0.00039256
-0.00038857
-0.00044415
-0.00046318
-0.00043105
-0.00033781
-0.00024607
-0.0003221
-0.00039652
-0.0003909
-0.00032206
-0.00025603
-0.00020694
-0.0001704
-0.00012064
-8.8096e-05
-3.3689e-05
4.5176e-05
9.0374e-05
0.00010552
0.00016092
0.00017788
0.00014145
0.00015636
0.00022141
0.00027215
0.00030187
0.00035675
0.00042145
0.00050008
0.00058933
0.00061182
0.00060127
0.00058576
0.00057899
0.00058978
0.00062805
0.0006606
0.00070851
0.00077031
0.00080493
0.00079204
0.00077199
0.00075114
0.00070234
0.00060546
0.00048239
0.00039932
0.0003354
0.0002662
0.00020504
0.00017818
0.00023801
0.00026056
0.00024923
0.00023404
0.00016451
7.5329e-05
-4.8375e-06
-5.6456e-05
-3.4188e-05
-6.7665e-06
9.7949e-06
7.1601e-05
0.00016422
0.00022705
0.00021833
0.00015405
9.195e-05
2.6944e-05
-4.2697e-05
-9.773e-05
-0.00013687
-0.00016568
-0.00017125
-0.00017153
-0.00012657
-6.6456e-05
-1.2692e-05
-4.1121e-05
-0.0001115
-0.00014606
-0.00019248
-0.00022548
-0.00023612
-0.00024478
-0.00023871
-0.00027536
-0.00026971
-0.00020103
-9.5386e-05
-2.2491e-05
-2.62e-05
-7.2139e-05
-0.0001195
-0.00017738
-0.00025883
-0.00037768
-0.00049629
-0.00060305
-0.00066066
-0.00064481
-0.00054567
-0.00042475
-0.00038235
-0.00038895
-0.00040778
-0.00045049
-0.00049036
-0.00056653
-0.00066528
-0.00074033
-0.00079981
-0.00081205
-0.00081907
-0.00078785
-0.00067895
-0.00064684
-0.00063068
-0.00056269
-0.00051771
-0.00053679
-0.00058355
-0.00063104
-0.00064509
-0.00062185
-0.00057944
-0.00048996
-0.00032155
-0.00012804
-2.1763e-06
3.8853e-05
6.4692e-05
7.3526e-05
7.7124e-05
6.5346e-05
4.4186e-05
3.9687e-05
4.6345e-05
4.7318e-05
5.3346e-05
9.6694e-05
0.00015217
0.0001472
0.00012283
9.4242e-05
0.00010075
9.9942e-05
5.7696e-05
2.8739e-05
4.5007e-05
8.5853e-05
0.00015084
0.00021959
0.00033769
0.00045479
0.00049636
0.00049076
0.00046032
0.0004326
0.00040877
0.00033864
0.00026749
0.00023819
0.00024201
0.00027423
0.00037578
0.00050762
0.00061679
0.00063593
0.00059427
0.00053096
0.00049292
0.00045851
0.00038374
0.00031224
0.00028495
0.00027879
0.00030061
0.00039473
0.00054739
0.00064749
0.00065747
0.0006006
0.00052569
0.00047757
0.00041031
0.00030345
0.00023402
0.00019943
0.00020857
0.00027422
0.0003852
0.00054038
0.00063569
0.00061081
0.00055864
0.00052698
0.00046613
0.00039079
0.00032186
0.00023766
0.00020824
0.00019317
0.0001738
0.00020332
0.00026234
0.00025537
0.00022949
0.00021326
0.00020082
0.00015331
9.4134e-05
4.8476e-05
3.1686e-06
-4.4297e-05
-3.7678e-05
2.9859e-05
