1565639203.00
64.000000
-0.00
-0.00
-0.00
-0.00
-0.00
-0.00
-0.00
-0.00
-0.00
-0.00
0.00
0.01
0.01
-0.00
-0.03
-0.05
-0.05
0.00
0.13
0.36
0.66
1.01
1.37
1.72
2.06
2.40
2.79
3.24
3.80
4.42
5.06
5.66
6.20
6.68
7.15
7.68
8.31
9.14
10.09
11.04
11.88
12.56
13.14
13.76
14.65
15.96
17.91
20.32
22.90
25.38
27.58
29.57
31.68
34.32
37.81
42.54
48.15
54.10
59.83
64.97
69.58
74.14
79.34
85.71
93.76
103.00
112.62
121.73
129.77
136.75
143.30
150.75
157.77
166.64
177.95
191.79
206.97
220.57
228.25
225.36
208.53
176.87
132.76
80.05
23.07
-34.95
-92.44
-149.16
-205.22
-260.34
-313.70
-363.84
-409.84
-451.00
-486.71
-516.06
-537.64
-549.68
-550.43
-538.82
-514.64
-479.13
-434.40
-383.08
-327.77
-270.67
-213.49
-157.49
-103.73
-53.14
-6.75
34.55
70.12
99.78
123.73
142.55
156.94
167.51
174.72
178.86
180.16
178.91
175.59
170.77
164.98
158.63
151.84
144.55
136.60
127.96
118.83
109.60
100.78
92.73
85.49
78.77
72.06
64.88
57.06
48.83
40.77
33.49
27.41
22.56
18.53
14.80
10.79
6.11
0.45
-6.25
-13.61
-20.44
-24.80
-24.48
-18.00
-5.53
10.81
27.56
41.26
49.72
52.66
51.39
47.82
43.50
39.24
35.23
31.55
28.39
26.08
24.72
24.00
23.35
22.13
19.91
16.72
13.03
9.66
7.51
7.19
8.69
11.25
13.57
14.34
12.84
9.30
4.76
0.53
-2.43
-3.84
-4.12
-3.94
-3.84
-4.02
-4.39
-4.72
-4.93
-5.02
-5.12
-5.29
-5.60
-5.91
-6.03
-5.75
-4.90
-3.46
-1.65
0.24
1.85
2.93
3.44
3.50
3.31
3.09
2.96
2.96
3.07
3.25
3.50
3.82
4.20
4.64
5.11
5.61
6.18
6.88
7.76
8.84
10.10
11.46
12.80
13.96
14.79
15.16
14.93
14.06
12.61
10.69
8.48
6.19
3.78
1.24
-1.49
-4.36
-7.27
-10.02
-12.44
-14.40
-15.86
-16.87
-17.41
-17.48
-17.08
-16.24
-15.08
-13.83
-12.68
-11.78
-11.18
-10.88
-10.93
-11.47
-12.56
-14.02
-15.29
-15.55
-14.01
-10.39
-5.04
1.05
6.71
10.97
13.42
14.15
13.52
11.95
9.74
7.10
4.33
1.73
-0.31
-1.61
-2.14
-2.13
-1.90
-1.70
-1.64
-1.58
-1.34
-0.71
0.33
1.68
3.08
4.28
5.10
5.49
5.51
5.23
4.76
4.16
3.52
2.92
2.39
1.93
1.46
0.85
0.02
-0.99
-2.03
-2.93
-3.61
-4.20
-4.92
-6.03
-7.65
-9.72
-12.02
-14.32
-16.46
-18.39
-20.16
-21.85
-23.53
-25.21
-26.82
-28.21
-29.17
-29.45
-28.77
-26.97
-23.96
-19.81
-14.75
-9.13
-3.40
2.00
6.69
10.44
13.21
15.09
16.30
17.04
17.50
17.79
17.93
17.91
17.72
17.33
16.75
16.00
15.16
14.31
13.58
13.07
12.81
12.78
12.85
12.86
12.66
12.15
11.33
10.25
9.06
7.89
6.82
5.88
5.01
4.11
3.08
1.89
0.55
-0.92
-2.50
-4.18
-5.92
-7.64
-9.18
-10.41
-11.29
-11.99
-12.80
-14.05
-15.89
-18.23
-20.65
-22.61
-23.59
-23.27
-21.61
-18.77
-15.07
-10.85
-6.46
-2.24
1.55
4.72
7.21
9.08
10.50
11.62
12.53
13.24
13.67
13.76
13.49
12.94
12.22
11.49
10.89
10.51
10.37
10.47
10.76
11.16
11.57
11.88
11.94
11.67
11.01
9.98
8.70
7.31
5.95
4.73
3.68
2.75
1.83
0.79
-0.49
-2.06
-3.86
-5.75
-7.53
-9.06
-10.29
-11.34
-12.38
-13.61
-15.18
-17.12
-19.39
-21.79
-23.98
-25.51
-25.87
-24.70
-21.91
-17.81
-12.96
-8.03
-3.54
0.23
3.32
5.85
7.95
9.65
10.96
11.91
12.58
13.11
13.59
14.04
14.38
14.51
14.39
14.06
13.66
13.32
13.09
12.97
12.91
12.88
12.87
12.91
12.96
12.98
12.82
12.38
11.59
10.47
9.09
7.55
5.95
4.36
2.86
1.48
0.23
-0.90
-1.95
-2.96
-4.01
-5.14
-6.41
-7.83
-9.36
-10.90
-12.35
-13.61
-14.73
-15.83
-17.10
-18.71
-20.66
-22.79
-24.68
-25.88
-25.93
-24.57
-21.77
-17.81
-13.15
-8.32
-3.79
0.18
3.48
6.19
8.37
10.11
11.43
12.35
12.91
13.21
13.35
13.37
13.29
13.07
12.72
12.29
11.87
11.54
11.35
11.31
11.37
11.47
11.47
11.24
10.70
9.80
8.66
7.44
6.29
5.28
4.35
3.34
2.09
0.49
-1.41
-3.47
-5.47
-7.21
-8.57
-9.61
-10.58
-11.81
-13.61
-16.11
-19.14
-22.34
-25.25
-27.50
-28.92
-29.59
-29.75
-29.71
-29.77
-30.20
-31.13
-32.54
-34.17
-35.60
-36.34
-36.00
-34.44
-31.77
-28.32
-24.52
-20.75
-17.31
-14.35
-11.90
-9.83
-7.88
-5.63
-2.67
1.28
6.21
11.81
17.53
22.78
27.11
30.41
32.87
34.92
37.03
39.58
42.71
46.29
49.95
53.19
55.45
56.31
55.61
53.53
50.64
47.64
45.22
43.74
43.08
42.64
41.55
39.12
35.11
29.96
24.59
20.03
16.99
15.55
15.21
15.20
14.93
14.23
13.36
12.80
12.91
13.71
14.89
15.93
16.31
15.69
14.00
11.46
8.45
5.38
2.56
0.08
-2.11
-4.08
-5.82
-7.13
-7.78
-7.66
-6.97
-6.16
-5.72
-5.95
-6.79
-7.92
-8.88
-9.41
-9.49
-9.41
-9.52
-10.11
-11.22
-12.61
-13.91
-14.71
-14.81
-14.24
-13.29
-12.32
-11.60
-11.20
-11.00
-10.77
-10.32
-9.64
-8.87
-8.27
-8.05
-8.29
-8.90
-9.65
-10.33
-10.80
-11.10
-11.39
-11.84
-12.58
-13.52
-14.50
-15.30
-15.79
-16.01
-16.16
-16.50
-17.26
-18.49
-20.05
-21.64
-22.84
-23.25
-22.59
-20.75
-17.85
-14.19
-10.15
-6.07
-2.28
1.03
3.75
5.84
7.33
8.28
8.79
8.95
8.89
8.70
8.41
8.03
7.52
6.87
6.15
5.48
4.97
4.74
4.77
4.93
5.09
5.12
5.02
4.83
4.63
4.41
4.10
3.62
2.96
2.15
1.27
0.37
-0.55
-1.58
-2.74
-4.02
-5.36
-6.66
-7.88
-9.04
-10.18
-11.32
-12.43
-13.47
-14.41
-15.30
-16.23
-17.35
-18.76
-20.51
-22.51
-24.51
-26.10
-26.79
-26.14
-23.93
-20.22
-15.37
-9.93
-4.53
0.33
4.29
7.21
9.17
10.33
10.97
11.36
11.70
12.07
12.43
12.64
12.56
12.15
11.45
10.61
9.80
9.22
8.97
9.06
9.39
9.74
9.84
9.47
8.50
7.02
5.21
3.35
1.70
0.45
-0.35
-0.75
-0.88
-0.88
-0.88
-0.96
-1.10
-1.24
-1.27
-1.15
-0.95
-0.83
-1.03
-1.72
-2.93
-4.53
-6.30
-8.01
-9.58
-11.08
-12.70
-14.71
-17.28
-20.44
-23.97
-27.47
-30.36
-32.04
-31.99
-29.98
-26.08
-20.72
-14.57
-8.41
-2.86
1.78
5.61
9.07
12.70
16.88
21.60
26.45
30.70
33.64
34.78
34.03
31.71
28.40
24.73
21.22
18.17
15.72
13.83
12.40
11.31
10.42
9.63
8.78
7.70
6.27
4.41
2.11
-0.55
-3.46
-6.48
-9.43
-12.09
-14.20
-15.55
-16.02
-15.63
-14.54
-12.98
-11.19
-9.31
-7.40
-5.46
-3.53
-1.67
-0.02
1.22
1.89
1.89
1.22
0.02
-1.44
-2.82
-3.79
-4.11
-3.70
-2.61
-1.05
0.75
2.57
4.23
5.64
6.77
7.58
8.06
8.17
7.90
7.29
6.39
5.35
4.38
3.73
3.64
4.28
5.64
7.50
9.46
11.12
12.17
12.55
12.48
12.30
12.34
12.73
13.35
13.92
14.17
13.95
13.35
12.58
11.89
11.34
10.76
9.80
8.13
5.64
2.55
-0.61
-3.19
-4.69
-4.95
-4.21
-2.98
-1.81
-1.11
-0.99
-1.20
-1.27
-0.65
1.03
3.91
7.77
12.18
16.64
20.87
24.89
29.01
33.74
39.46
46.26
53.77
61.15
67.32
71.16
72.00
69.79
65.17
59.24
53.10
47.47
42.42
37.36
31.38
23.64
13.81
2.28
-9.92
-21.44
-31.05
-37.94
-41.90
-43.23
-42.44
-39.96
-35.98
-30.53
-23.75
-16.13
-8.63
-2.45
1.37
2.43
1.23
-0.82
-1.83
-0.17
4.85
12.50
20.77
27.00
28.94
25.63
17.78
7.48
-2.71
-10.75
-15.85
-18.58
-20.45
-23.18
-28.18
-36.07
-46.78
-59.73
-73.97
-88.42
-101.88
-113.21
-121.49
-126.26
-127.70
-126.68
-124.47
-122.18
-120.11
-117.33
-111.79
-101.11
-83.61
-59.32
-30.25
0.17
28.30
51.50
68.83
80.87
89.01
94.53
98.12
99.93
99.91
98.20
95.07
90.74
85.10
77.66
67.88
55.49
40.86
24.94
8.97
-6.03
-19.54
-31.69
-42.94
-53.75
-64.22
-73.86
-81.57
-85.97
-85.77
-80.34
-69.98
-55.95
-40.09
-24.23
-9.71
2.92
13.66
22.73
30.16
35.62
38.52
38.37
35.01
28.75
20.28
10.41
-0.08
-10.49
-20.19
-28.61
-35.25
-39.81
-42.25
-42.77
-41.71
-39.40
-36.08
-31.91
-27.18
-22.35
-18.03
-14.77
-12.63
-11.10
-9.26
-6.27
-1.99
2.71
6.19
6.76
3.46
-3.38
-12.36
-21.48
-28.92
-33.22
-33.15
-27.46
-15.08
4.01
27.87
52.42
72.63
84.57
87.42
84.06
79.68
79.17
84.57
94.16
103.59
108.37
106.17
97.74
86.08
74.58
65.41
58.92
54.29
50.64
47.87
46.63
47.64
50.79
54.72
57.17
55.93
49.77
39.01
25.25
10.64
-2.95
-14.49
-23.92
-31.76
-38.77
-45.54
-52.33
-59.05
-65.28
-70.44
-73.97
-75.54
-75.24
-73.63
-71.65
-70.32
-70.35
-71.90
-74.51
-77.29
-79.32
-79.96
-79.07
-76.84
-73.65
-69.77
-65.38
-60.60
-55.63
-50.87
-46.70
-43.46
-41.20
-39.76
-38.82
-38.12
-37.54
-37.05
-36.68
-36.38
-36.03
-35.47
-34.60
-33.36
-31.78
-29.84
-27.47
-24.60
-21.17
-17.25
-13.07
-8.89
-4.95
-1.39
1.82
4.72
7.33
9.56
11.31
12.64
13.88
15.64
18.56
22.93
28.50
34.44
39.70
43.44
45.40
45.90
45.61
45.18
44.87
44.56
43.86
42.44
40.15
37.10
33.54
29.74
25.87
21.97
17.99
13.86
9.55
5.12
0.76
-3.28
-6.70
-9.28
-10.88
-11.46
-11.04
-9.72
-7.59
-4.83
-1.68
1.53
4.51
7.03
9.02
10.52
11.68
12.63
13.44
14.18
14.83
15.41
15.92
16.39
16.80
17.15
17.40
17.53
17.56
17.47
17.27
16.93
16.43
15.76
14.98
14.19
13.51
12.99
12.63
12.32
11.93
11.32
10.42
9.21
7.76
6.15
4.51
2.95
1.52
0.23
-1.01
-2.29
-3.76
-5.41
-7.18
-8.91
-10.44
-11.72
-12.83
-14.00
-15.45
-17.32
-19.51
-21.69
-23.38
-24.13
-23.67
-22.04
-19.52
-16.52
-13.40
-10.42
-7.68
-5.17
-2.87
-0.75
1.20
2.93
4.36
5.38
5.89
5.88
5.48
4.95
4.68
5.01
6.22
8.46
11.72
15.86
20.56
25.31
29.51
32.56
34.07
33.91
32.25
29.43
25.79
21.63
17.14
12.47
7.74
3.06
-1.50
-5.90
-10.09
-13.94
-17.20
-19.57
-20.80
-20.85
-19.92
-18.45
-16.93
-15.82
-15.35
-15.55
-16.22
-17.08
-17.89
-18.57
-19.21
-20.05
-21.26
-22.80
-24.30
-25.13
-24.57
-22.04
-17.12
-9.50
1.08
14.81
31.46
50.14
69.15
86.35
99.86
108.73
113.29
114.77
114.66
113.87
112.50
110.04
106.01
100.35
93.59
86.53
79.78
73.54
67.57
61.53
55.25
48.90
42.91
37.74
33.65
30.56
28.04
25.46
22.28
18.27
13.63
8.84
4.43
0.56
-3.11
-7.35
-13.02
-20.68
-30.28
-41.21
-52.52
-63.34
-73.09
-81.61
-88.97
-95.39
-101.06
-106.19
-110.91
-115.32
-119.34
-122.60
-124.50
-124.38
-121.78
-116.72
-109.82
-102.05
-94.49
-87.82
-82.13
-76.95
-71.51
-65.20
-57.92
-50.19
-43.10
-37.93
-35.68
-36.62
-40.07
-44.42
-47.57
-47.66
-43.62
-35.58
-24.77
-13.08
-2.36
6.20
12.37
16.81
20.59
24.63
29.15
33.68
37.24
38.97
38.61
36.69
34.30
32.59
32.28
33.48
35.86
39.01
42.73
47.02
51.84
56.82
61.18
63.99
64.50
62.47
58.22
52.45
45.87
38.93
31.78
24.44
17.02
9.90
3.64
-1.18
-4.27
-5.76
-6.11
-5.90
-5.66
-5.64
-5.86
-6.18
-6.45
-6.63
-6.81
-7.17
-7.91
-9.17
-10.98
-13.18
-15.42
-17.20
-18.03
-17.58
-15.78
-12.86
-9.28
-5.55
-2.16
0.59
2.63
4.18
5.60
7.30
9.45
11.84
13.90
14.94
14.45
12.41
9.31
5.93
2.97
0.79
-0.68
-1.80
-2.96
-4.49
-6.55
-9.19
-12.37
-15.95
-19.60
-22.87
-25.19
-26.10
-25.40
-23.16
-19.74
-15.56
-11.00
-6.29
-1.54
3.21
7.95
12.60
17.06
21.14
24.64
27.31
28.89
29.19
28.19
26.09
23.23
20.05
16.84
13.77
10.87
8.22
5.93
4.13
2.82
1.80
0.69
-0.85
-2.88
-5.04
-6.68
-7.17
-6.22
-4.06
-1.28
1.38
3.38
4.52
4.89
4.66
3.94
2.73
0.98
-1.35
-4.21
-7.48
-10.94
-14.38
-17.50
-20.02
-21.63
-22.12
-21.41
-19.58
-16.83
-13.40
-9.52
-5.35
-1.07
3.12
6.95
10.14
12.49
13.91
14.51
14.48
14.06
13.44
12.73
11.94
11.10
10.28
9.61
9.23
9.23
9.54
10.02
10.44
10.61
10.47
10.06
9.52
8.99
8.62
8.50
8.68
9.17
9.94
10.85
11.69
12.18
12.03
11.10
9.38
7.08
4.48
1.91
-0.42
-2.48
-4.41
-6.45
-8.77
-11.43
-14.31
-17.09
-19.34
-20.63
-20.61
-19.16
-16.45
-12.86
-8.89
-5.01
-1.48
1.62
4.36
6.76
8.78
10.29
11.15
11.32
10.93
10.20
9.38
8.66
8.09
7.67
7.34
7.03
6.70
6.37
6.04
5.71
5.38
5.02
4.60
4.12
3.63
3.19
2.91
2.83
2.94
3.16
3.35
3.31
2.87
1.98
0.67
-0.86
-2.38
-3.66
-4.69
-5.60
-6.69
-8.21
-10.29
-12.81
-15.47
-17.86
-19.54
-20.18
-19.58
-17.71
-14.70
-10.85
-6.51
-2.06
2.19
5.98
9.13
11.48
12.99
13.70
13.78
13.42
12.83
12.13
11.35
10.47
9.55
8.69
8.03
7.70
7.72
7.98
8.32
8.55
8.57
8.34
7.94
7.44
6.90
6.38
5.85
5.27
4.58
3.74
2.76
1.66
0.51
-0.65
-1.77
-2.88
-4.03
-5.37
-7.06
-9.22
-11.90
-14.94
-17.98
-20.49
-21.91
-21.79
-19.97
-16.65
-12.32
-7.61
-3.07
0.91
4.21
6.87
9.02
10.80
12.26
13.39
14.15
14.52
14.53
14.24
13.74
13.07
12.25
11.25
10.10
8.87
7.77
7.02
6.82
7.24
8.18
9.36
10.40
10.90
10.50
9.01
6.48
3.22
-0.26
-3.43
-5.92
-7.71
-9.07
-10.42
-12.04
-13.94
-15.83
-17.31
-18.06
-17.99
-17.24
-16.10
-14.92
-13.99
-13.56
-13.78
-14.68
-16.15
-17.86
-19.31
-19.95
-19.32
-17.20
-13.72
-9.29
-4.53
-0.03
3.76
6.67
8.75
10.21
11.31
12.20
12.89
13.34
13.51
13.40
13.09
12.69
12.29
11.89
11.48
11.07
10.69
10.44
10.36
10.41
10.49
10.45
10.23
9.87
9.45
9.07
8.69
8.22
7.52
6.52
5.26
3.88
2.57
1.45
0.55
-0.19
-0.88
-1.63
-2.53
-3.62
-4.90
-6.31
-7.75
-9.11
-10.31
-11.34
-12.30
-13.33
-14.62
-16.27
-18.25
-20.34
-22.13
-23.16
-23.05
-21.59
-18.81
-14.99
-10.56
-5.98
-1.66
2.15
5.27
7.67
9.39
10.55
11.29
11.79
12.17
12.43
12.52
12.38
12.01
11.48
10.95
10.59
10.44
10.51
10.70
10.95
11.25
11.61
12.03
12.38
12.49
12.18
11.38
10.17
8.78
7.46
6.40
5.61
4.95
4.25
3.38
2.36
1.29
0.35
-0.37
-0.90
-1.41
-2.08
-3.06
-4.36
-5.86
-7.38
-8.74
-9.87
-10.84
-11.75
-12.72
-13.80
-15.03
-16.42
-18.04
-19.87
-21.84
-23.66
-24.87
-24.95
-23.52
-20.51
-16.20
-11.18
-6.12
-1.58
2.13
4.92
6.90
8.27
9.25
9.99
10.61
11.18
11.71
12.17
12.55
12.80
12.92
12.89
12.75
12.54
12.31
12.12
11.95
11.79
11.61
11.38
11.11
10.82
10.53
10.25
9.99
9.74
9.47
9.15
8.72
8.09
7.23
6.13
4.88
3.62
2.48
1.56
0.82
0.21
-0.38
-1.02
-1.68
-2.32
-2.91
-3.49
-4.21
-5.20
-6.55
-8.17
-9.81
-11.24
-12.30
-13.04
-13.68
-14.47
-15.59
-17.04
-18.75
-20.57
-22.37
-23.94
-25.00
-25.15
-24.03
-21.45
-17.56
-12.80
-7.79
-3.13
0.78
3.79
6.01
7.66
8.98
10.15
11.21
12.12
12.73
12.91
12.53
11.58
10.19
8.58
7.05
5.95
5.49
5.80
6.75
8.06
9.27
9.95
9.86
9.02
7.80
6.69
6.18
6.53
7.64
9.15
10.52
11.23
11.01
9.84
7.96
5.78
3.73
2.18
1.26
0.90
0.88
0.87
0.64
0.09
-0.71
-1.65
-2.59
-3.49
-4.38
-5.33
-6.35
-7.40
-8.44
-9.49
-10.64
-12.05
-13.89
-16.19
-18.80
-21.38
-23.44
-24.51
-24.25
-22.54
-19.53
-15.57
-11.11
-6.64
-2.54
0.87
3.43
5.12
6.05
6.46
6.62
6.78
7.12
7.68
8.43
9.27
10.09
10.75
11.14
11.19
10.87
10.31
9.68
9.20
9.03
9.15
9.44
9.68
9.72
9.50
9.09
8.60
8.09
7.53
6.84
5.95
4.86
3.70
2.57
1.57
0.65
-0.25
-1.23
-2.31
-3.43
-4.53
-5.54
-6.49
-7.42
-8.42
-9.50
-10.64
-11.80
-12.96
-14.22
-15.71
-17.57
-19.75
-22.00
-23.87
-24.83
-24.42
-22.46
-19.05
-14.59
-9.61
-4.66
-0.21
3.45
6.17
7.97
9.01
9.54
9.83
10.06
10.33
10.57
10.69
10.59
10.23
9.71
9.17
8.79
8.68
8.85
9.19
9.53
9.71
9.64
9.32
8.83
8.23
7.54
6.71
5.74
4.61
3.42
2.25
1.15
0.08
-1.05
-2.32
-3.73
-5.21
-6.68
-8.14
-9.67
-11.36
-13.27
-15.36
-17.53
-19.71
-21.90
-24.17
-26.58
-29.11
-31.71
-34.24
-36.62
-38.71
-40.35
-41.32
-41.31
-40.05
-37.39
-33.29
-27.81
-21.11
-13.38
-4.92
3.88
12.50
20.40
27.11
32.33
35.97
38.10
38.96
38.84
38.09
37.05
36.02
35.15
34.40
33.60
32.53
31.02
29.10
26.92
24.76
22.81
21.09
19.45
17.69
15.64
13.32
10.89
8.54
6.38
4.32
2.28
0.22
-1.69
-3.14
-3.83
-3.63
-2.67
-1.29
0.08
1.07
1.44
1.07
-0.00
-1.68
-3.75
-5.95
-8.04
-9.90
-11.55
-13.14
-14.90
-16.95
-19.24
-21.50
-23.35
-24.32
-24.12
-22.61
-19.97
-16.52
-12.73
-8.98
-5.56
-2.59
-0.10
1.90
3.44
4.55
5.29
5.73
5.98
6.08
6.06
5.93
5.74
5.63
5.76
6.29
7.27
8.61
10.13
11.60
12.83
13.73
14.29
14.55
14.54
14.27
13.70
12.83
11.68
10.35
8.95
7.58
6.26
4.92
3.49
1.95
0.35
-1.23
-2.73
-4.17
-5.63
-7.20
-8.91
-10.76
-12.69
-14.71
-16.83
-19.01
-21.10
-22.82
-23.78
-23.63
-22.22
-19.64
-16.20
-12.30
-8.31
-4.48
-0.98
2.11
4.73
6.79
8.20
8.99
9.24
9.18
9.03
8.95
8.96
8.92
8.69
8.15
7.41
6.65
6.12
5.94
6.03
6.20
6.24
6.04
5.67
5.28
4.97
4.77
4.55
4.15
3.44
2.40
1.14
-0.21
-1.57
-2.92
-4.30
-5.77
-7.32
-8.93
-10.55
-12.20
-13.95
-15.89
-18.03
-20.23
-22.13
-23.30
-23.29
-21.84
-18.98
-14.97
-10.25
-5.31
-0.56
3.68
7.21
9.94
11.88
13.12
13.80
14.08
14.11
14.04
13.97
13.98
14.10
14.32
14.50
14.50
14.20
13.59
12.81
12.08
11.54
11.20
10.93
10.48
9.70
8.58
7.29
6.06
5.10
4.45
3.99
3.50
2.79
1.78
0.50
-0.95
-2.45
-3.94
-5.38
-6.75
-8.07
-9.34
-10.58
-11.91
-13.48
-15.42
-17.77
-20.34
-22.76
-24.46
-24.93
-23.83
-21.16
-17.28
-12.77
-8.26
-4.18
-0.69
2.28
4.91
7.30
9.41
11.10
12.23
12.77
12.84
12.66
12.42
12.25
12.19
12.17
12.14
12.06
11.97
11.96
12.10
12.44
12.93
13.42
13.72
13.66
13.18
12.37
11.44
10.60
9.95
9.46
8.97
8.32
7.46
6.43
5.36
4.33
3.37
2.39
1.33
0.13
-1.18
-2.54
-3.92
-5.29
-6.67
-8.05
-9.45
-10.87
-12.35
-13.94
-15.69
-17.57
-19.53
-21.54
-23.55
-25.49
-27.13
-28.09
-27.88
-26.10
-22.68
-17.94
-12.62
-7.52
-3.29
-0.17
1.95
3.45
4.67
5.79
6.81
7.62
8.17
8.51
8.78
9.12
9.57
10.07
10.47
10.67
10.71
10.75
10.99
11.55
12.39
13.37
14.30
15.09
15.75
16.34
16.89
17.37
17.73
17.94
18.01
18.03
18.07
18.06
17.86
17.27
16.18
14.64
12.88
11.17
9.69
8.45
7.31
6.05
4.53
2.72
0.70
-1.43
-3.56
-5.67
-7.69
-9.53
-11.09
-12.28
-13.15
-13.96
-15.03
-16.67
-18.94
-21.58
-24.00
-25.51
-25.58
-23.97
-20.85
-16.67
-12.00
-7.37
-3.16
0.43
3.29
5.45
6.97
7.91
8.33
8.26
7.76
6.87
5.73
4.49
3.36
2.45
1.82
1.38
1.00
0.52
-0.13
-0.94
-1.81
-2.66
-3.44
-4.15
-4.79
-5.34
-5.74
-5.84
-5.49
-4.59
-3.14
-1.29
0.70
2.52
3.93
4.86
5.43
5.82
6.18
6.49
6.54
6.03
4.74
2.66
0.03
-2.75
-5.29
-7.33
-8.85
-9.95
-10.82
-11.68
-12.66
-13.87
-15.34
-17.05
-18.90
-20.71
-22.18
-22.94
-22.65
-21.07
-18.20
-14.33
-9.98
-5.69
-1.92
1.12
3.47
5.31
6.81
8.07
9.06
9.70
9.94
9.84
9.52
9.13
8.76
8.42
8.10
7.81
7.63
7.64
7.90
8.39
8.98
9.48
9.71
9.59
9.15
8.51
7.84
7.32
6.99
6.82
6.64
6.26
5.53
4.46
3.16
1.83
0.67
-0.24
-0.92
-1.48
-2.04
-2.71
-3.53
-4.51
-5.61
-6.78
-7.98
-9.20
-10.41
-11.62
-12.83
-14.06
-15.35
-16.78
-18.38
-20.07
-21.59
-22.54
-22.46
-21.03
-18.22
-14.35
-9.93
-5.53
-1.55
1.81
4.53
6.68
8.32
9.50
10.29
10.79
11.19
11.61
12.08
12.50
12.69
12.52
11.98
11.22
10.47
9.92
9.69
9.73
9.96
10.23
10.42
10.42
10.16
9.60
8.76
7.79
6.89
6.26
6.00
6.06
6.20
6.11
5.55
4.42
2.82
1.03
-0.66
-2.04
-3.03
-3.74
-4.30
-4.85
-5.48
-6.21
-7.02
-7.91
-8.86
-9.88
-10.95
-12.05
-13.15
-14.32
-15.64
-17.25
-19.16
-21.19
-22.88
-23.68
-23.12
-21.01
-17.61
-13.43
-9.09
-5.08
-1.64
1.21
3.57
5.49
6.99
8.08
8.84
9.40
9.92
10.51
11.15
11.71
12.02
11.96
11.50
10.74
9.89
9.19
8.85
8.92
9.30
9.74
9.98
9.82
9.25
8.42
7.54
6.82
6.30
5.94
5.62
5.24
4.75
4.15
3.45
2.61
1.61
0.49
-0.67
-1.76
-2.70
-3.49
-4.24
-5.12
-6.24
-7.61
-9.12
-10.57
-11.79
-12.68
-13.28
-13.77
-14.38
-15.38
-16.89
-18.85
-20.97
-22.74
-23.60
-23.10
-21.05
-17.63
-13.28
-8.60
-4.16
-0.33
2.71
5.03
6.76
8.11
9.24
10.21
11.08
11.82
12.39
12.71
12.76
12.50
11.97
11.23
10.39
9.60
8.97
8.59
8.48
8.59
8.84
9.12
9.36
9.51
9.55
9.47
9.27
8.92
8.39
7.70
6.85
5.88
4.84
3.79
2.73
1.66
0.58
-0.48
-1.48
-2.40
-3.22
-4.01
-4.85
-5.81
-6.93
-8.15
-9.39
-10.56
-11.64
-12.70
-13.88
-15.34
-17.16
-19.27
-21.42
-23.22
-24.19
-23.97
-22.36
-19.44
-15.53
-11.11
-6.70
-2.68
0.72
3.45
5.57
7.19
8.39
9.28
9.95
10.47
10.93
11.34
11.66
11.80
11.71
11.38
10.91
10.47
10.24
10.29
10.62
11.08
11.54
11.85
11.95
11.83
11.51
11.02
10.35
9.53
8.62
7.70
6.87
6.20
5.68
5.22
4.71
4.07
3.27
2.38
1.48
0.63
-0.15
-0.88
-1.62
-2.45
-3.39
-4.46
-5.65
-6.93
-8.25
-9.59
-10.89
-12.13
-13.29
-14.46
-15.73
-17.26
-19.10
-21.12
-22.97
-24.15
-24.15
-22.66
-19.72
-15.69
-11.10
-6.53
-2.39
1.11
3.90
6.02
7.57
8.65
9.39
9.93
10.39
10.79
11.12
11.28
11.21
10.88
10.37
9.81
9.36
9.15
9.24
9.60
10.15
10.72
11.17
11.34
11.16
10.61
9.79
8.87
8.03
7.41
7.03
6.80
6.52
6.02
5.21
4.20
3.13
2.21
1.50
0.91
0.32
-0.43
-1.32
-2.30
-3.27
-4.19
-5.11
-6.10
-7.19
-8.30
-9.36
-10.35
-11.36
-12.61
-14.37
-16.78
-19.81
-23.13
-26.17
-28.29
-28.87
-27.52
-24.21
-19.29
-13.40
-7.37
-1.95
2.32
5.19
6.73
7.19
6.91
6.21
5.31
4.32
3.33
2.41
1.61
1.02
0.64
0.46
0.42
0.54
0.85
1.37
2.06
2.72
3.10
2.96
2.24
1.05
-0.30
-1.46
-2.17
-2.33
-1.99
-1.32
-0.49
0.32
1.02
1.56
1.96
2.33
2.76
3.34
4.10
4.98
5.89
6.72
7.42
7.90
8.11
8.01
7.54
6.72
5.56
4.12
2.40
0.39
-1.84
-4.13
-6.10
-7.33
-7.44
-6.30
-4.15
-1.48
1.13
3.27
4.76
5.69
6.28
6.73
7.14
7.50
7.79
8.01
8.27
8.72
9.51
10.68
12.12
13.60
14.83
15.61
15.80
15.46
14.70
13.69
12.53
11.28
9.95
8.59
7.28
6.14
5.22
4.52
3.96
3.38
2.71
1.91
1.04
0.13
-0.81
-1.85
-3.06
-4.46
-6.01
-7.55
-8.91
-9.99
-10.79
-11.48
-12.28
-13.43
-15.03
-17.02
-19.16
-21.04
-22.23
-22.33
-21.12
-18.61
-15.07
-10.92
-6.67
-2.75
0.57
3.21
5.26
6.89
8.30
9.56
10.68
11.61
12.27
12.60
12.63
12.43
12.07
11.67
11.33
11.10
11.00
11.05
11.23
11.50
11.77
11.95
11.89
11.52
10.80
9.81
8.71
7.67
6.81
6.13
5.52
4.85
3.98
2.89
1.58
0.11
-1.44
-3.03
-4.59
-6.06
-7.39
-8.57
-9.66
-10.74
-11.91
-13.23
-14.73
-16.42
-18.27
-20.22
-22.07
-23.51
-24.15
-23.62
-21.76
-18.68
-14.75
-10.48
-6.36
-2.73
0.28
2.71
4.67
6.29
7.62
8.71
9.55
10.15
10.56
10.78
10.84
10.72
10.44
10.06
9.64
9.28
9.04
8.91
8.86
8.84
8.80
8.72
8.54
8.19
7.62
6.84
5.88
4.88
3.94
3.10
2.32
1.52
0.58
-0.54
-1.82
-3.21
-4.64
-6.06
-7.42
-8.73
-10.02
-11.34
-12.78
-14.40
-16.23
-18.13
-19.85
-21.03
-21.27
-20.32
-18.11
-14.81
-10.78
-6.46
-2.27
1.48
4.58
6.99
8.76
10.02
10.92
11.59
12.08
12.38
12.48
12.38
12.15
11.91
11.74
11.68
11.66
11.59
11.38
11.04
10.69
10.46
10.42
10.52
10.62
10.54
10.15
9.40
8.34
7.09
5.73
4.36
2.99
1.64
0.33
-0.92
-2.08
-3.19
-4.30
-5.51
-6.83
-8.26
-9.67
-10.95
-12.02
-12.95
-13.89
-15.08
-16.66
-18.62
-20.76
-22.73
-24.15
-24.68
-24.07
-22.22
-19.22
-15.33
-10.96
-6.59
-2.60
0.74
3.40
5.44
7.00
8.17
9.02
9.61
10.02
10.34
10.64
10.95
11.23
11.40
11.40
11.21
10.91
10.66
10.62
10.90
11.53
12.42
13.38
14.20
14.70
14.79
14.46
13.76
12.75
11.51
10.08
8.56
7.06
5.70
4.56
3.66
2.96
2.37
1.82
1.25
0.61
-0.11
-0.91
-1.77
-2.69
-3.65
-4.65
-5.73
-6.91
-8.28
-9.88
-11.75
-13.86
-16.03
-17.92
-19.13
-19.26
-18.09
-15.72
-12.47
-8.86
-5.37
-2.29
0.26
2.35
4.11
5.64
6.98
8.14
9.05
9.68
9.94
9.81
9.34
8.64
7.94
7.43
7.27
7.49
8.02
8.73
9.45
10.09
10.55
10.82
10.89
10.72
10.30
9.65
8.80
7.81
6.77
5.75
4.80
3.92
3.04
2.06
0.92
-0.40
-1.81
-3.20
-4.41
-5.35
-6.01
-6.50
-6.96
-7.50
-8.23
-9.17
-10.32
-11.71
-13.31
-14.99
-16.47
-17.36
-17.29
-16.00
-13.49
-10.03
-6.02
-1.89
2.05
5.64
8.79
11.48
13.69
15.40
16.62
17.40
17.77
17.72
17.21
16.21
14.78
13.09
11.45
10.17
9.48
9.42
9.85
10.50
11.06
11.30
11.12
10.51
9.52
8.25
6.77
5.13
3.34
1.40
-0.66
-2.83
-5.05
-7.23
-9.30
-11.16
-12.77
-14.14
-15.35
-16.63
-18.21
-20.31
-22.99
-26.03
-29.01
-31.36
-32.56
-32.29
-30.52
-27.49
-23.63
-19.40
-15.17
-11.25
-7.85
-5.14
-3.27
-2.25
-1.93
-1.96
-1.88
-1.30
-0.11
1.50
3.07
4.15
4.53
4.32
3.91
3.69
3.85
4.32
4.80
5.00
4.76
4.12
3.22
2.21
1.16
-0.00
-1.33
-2.82
-4.37
-5.79
-6.95
-7.83
-8.55
-9.29
-10.21
-11.27
-12.22
-12.68
-12.28
-10.79
-8.23
-4.87
-1.10
2.64
6.00
8.76
10.87
12.43
13.65
14.72
15.73
16.60
17.14
17.09
16.34
15.02
13.46
12.04
11.06
10.56
10.41
10.40
10.38
10.32
10.31
10.38
10.48
10.45
10.12
9.43
8.47
7.49
6.73
6.33
6.25
6.27
6.17
5.78
5.12
4.33
3.54
2.79
2.00
1.03
-0.23
-1.73
-3.38
-5.06
-6.76
-8.54
-10.49
-12.56
-14.62
-16.40
-17.67
-18.33
-18.50
-18.45
-18.58
-19.18
-20.35
-21.91
-23.41
-24.24
-23.88
-22.09
-18.99
-15.03
-10.79
-6.75
-3.17
-0.06
2.72
5.29
7.69
9.85
11.67
13.12
14.26
15.19
16.04
16.83
17.49
17.89
17.93
17.58
16.94
16.15
15.34
14.64
14.13
13.88
13.95
14.31
14.85
15.31
15.42
14.90
13.70
11.90
9.77
7.58
5.48
3.49
1.48
-0.68
-3.06
-5.59
-8.12
-10.48
-12.54
-14.26
-15.67
-16.81
-17.67
-18.20
-18.39
-18.28
-17.98
-17.67
-17.53
-17.70
-18.33
-19.44
-20.95
-22.56
-23.86
-24.40
-23.87
-22.25
-19.82
-17.04
-14.44
-12.42
-11.19
-10.75
-10.91
-11.37
-11.68
-11.34
-9.92
-7.16
-3.08
1.94
7.35
12.51
16.96
20.46
23.04
24.88
26.15
26.98
27.34
27.18
26.47
25.27
23.70
21.91
20.02
18.11
16.21
14.40
12.79
11.48
10.59
10.12
10.03
10.23
10.63
11.17
11.79
12.46
13.06
13.47
13.57
13.24
12.48
11.34
9.95
8.47
7.02
5.67
4.44
3.30
2.25
1.25
0.31
-0.52
-1.19
-1.63
-1.80
-1.74
-1.56
-1.46
-1.67
-2.36
-3.58
-5.25
-7.15
-9.00
-10.57
-11.73
-12.54
-13.15
-13.85
-14.90
-16.46
-18.43
-20.47
-22.03
-22.57
-21.69
-19.33
-15.71
-11.31
-6.67
-2.25
1.64
4.82
7.26
9.01
10.16
10.83
11.12
11.13
10.92
10.54
10.05
9.44
8.73
7.96
7.19
6.56
6.22
6.25
6.65
7.28
7.91
8.32
8.41
8.19
7.75
7.21
6.62
5.98
5.25
4.43
3.60
2.85
2.26
1.81
1.40
0.92
0.34
-0.24
-0.67
-0.88
-0.91
-0.96
-1.27
-1.99
-3.08
-4.32
-5.46
-6.31
-6.85
-7.23
-7.65
-8.25
-9.02
-9.89
-10.72
-11.49
-12.32
-13.39
-14.86
-16.63
-18.34
-19.41
-19.30
-17.72
-14.80
-11.05
-7.09
-3.48
-0.45
2.00
4.02
5.71
7.05
7.94
8.30
8.20
7.80
7.34
7.02
6.93
7.02
7.18
7.29
7.26
7.08
6.80
6.54
6.40
6.44
6.62
6.83
6.91
6.72
6.24
5.50
4.61
3.65
2.72
1.88
1.21
0.77
0.56
0.52
0.53
0.41
0.01
-0.65
-1.47
-2.23
-2.83
-3.26
-3.67
-4.23
-5.04
-6.05
-7.07
-7.88
-8.35
-8.51
-8.50
-8.54
-8.80
-9.40
-10.40
-11.78
-13.47
-15.26
-16.84
-17.81
-17.85
-16.80
-14.73
-11.90
-8.66
-5.39
-2.35
0.32
2.56
4.40
5.87
7.01
7.80
8.23
8.30
8.12
7.81
7.55
7.44
7.50
7.62
7.66
7.50
7.09
6.50
5.83
5.22
4.77
4.55
4.58
4.79
5.10
5.38
5.53
5.51
5.32
4.99
4.53
3.92
3.14
2.20
1.22
0.32
-0.37
-0.84
-1.21
-1.66
-2.33
-3.22
-4.21
-5.10
-5.71
-5.99
-6.02
-5.93
-5.90
-6.07
-6.46
-7.07
-7.82
-8.68
-9.61
-10.63
-11.77
-13.01
-14.19
-14.99
-15.06
-14.11
-12.06
-9.12
-5.74
-2.47
0.29
2.34
3.76
4.77
5.61
6.40
7.18
7.88
8.51
9.10
9.72
10.41
11.10
11.65
11.91
11.81
11.42
10.91
10.43
10.01
9.59
9.03
8.26
7.29
6.25
5.26
4.43
3.73
3.11
2.54
2.06
1.76
1.74
1.97
2.30
2.52
2.46
2.02
1.31
0.45
-0.39
-1.18
-1.93
-2.77
-3.76
-4.95
-6.24
-7.53
-8.64
-9.50
-10.13
-10.66
-11.24
-12.06
-13.18
-14.60
-16.21
-17.87
-19.37
-20.52
-21.10
-20.93
-19.88
-17.96
-15.38
-12.45
-9.58
-7.16
-5.43
-4.42
-4.02
-3.95
-3.92
-3.68
-3.15
-2.41
-1.63
-1.00
-0.61
-0.41
-0.18
0.31
1.23
2.51
3.91
5.08
5.75
5.83
5.47
4.96
4.59
4.55
4.91
5.71
6.98
8.78
11.08
13.70
16.19
17.96
18.39
17.09
14.11
9.97
5.57
1.83
-0.62
-1.70
-1.81
-1.69
-2.02
-3.16
-5.07
-7.46
-10.00
-12.46
-14.80
-16.97
-18.81
-20.08
-20.62
-20.52
-20.09
-19.74
-19.64
-19.46
-18.35
-15.25
-9.21
0.15
12.51
26.89
41.98
56.47
69.38
80.21
88.91
95.69
100.88
104.75
107.49
109.26
110.23
110.68
110.88
110.94
110.73
109.90
108.08
105.22
101.78
98.70
97.06
97.66
100.61
105.36
110.92
116.33
120.96
124.45
126.55
126.73
124.16
117.89
107.26
92.31
73.84
53.26
32.08
11.60
-7.41
-24.60
-39.93
-53.34
-64.69
-73.69
-80.04
-83.62
-84.62
-83.55
-81.10
-78.04
-75.05
-72.60
-70.99
-70.37
-70.76
-72.06
-74.01
-76.19
-78.03
-78.96
-78.54
-76.66
-73.55
-69.84
-66.28
-63.55
-62.02
-61.70
-62.31
-63.45
-64.79
-66.15
-67.52
-68.99
-70.74
-73.02
-76.12
-80.36
-85.89
-92.58
-99.97
-107.42
-114.28
-120.19
-125.24
-129.94
-135.08
-141.39
-149.29
-158.66
-168.84
-178.83
-187.60
-194.60
-199.96
-204.49
-209.22
-214.74
-220.63
-225.28
-226.26
-221.00
-207.55
-185.22
-154.79
-118.37
-78.93
-39.77
-3.80
26.90
51.46
70.06
83.73
93.70
101.06
106.50
110.31
112.64
113.65
113.56
112.59
110.85
108.41
105.33
101.90
98.62
96.12
94.81
94.62
94.81
94.22
91.68
86.52
78.90
69.72
60.40
52.30
46.34
42.77
41.09
40.24
38.84
35.61
29.80
21.58
11.91
2.32
-5.77
-11.60
-15.23
-17.36
-18.74
-19.81
-20.45
-20.24
-18.82
-16.22
-12.82
-9.22
-5.87
-2.91
-0.22
2.40
5.03
7.55
9.61
10.86
11.06
10.25
8.77
7.15
5.94
5.58
6.25
7.85
10.09
12.61
15.08
17.33
19.33
21.15
22.84
24.37
25.65
26.51
26.89
26.83
26.50
26.11
25.79
25.55
25.30
24.91
24.32
23.54
22.68
21.88
21.25
20.84
20.62
20.50
20.31
19.87
19.06
17.87
16.39
14.83
13.36
12.08
10.93
9.75
8.34
6.57
4.46
2.13
-0.20
-2.33
-4.14
-5.64
-6.91
-8.13
-9.49
-11.14
-13.14
-15.39
-17.62
-19.43
-20.38
-20.13
-18.57
-15.82
-12.21
-8.14
-3.98
-0.02
3.59
6.75
9.42
11.55
13.15
14.22
14.86
15.16
15.23
15.17
15.08
15.02
15.05
15.19
15.44
15.74
16.05
16.32
16.51
16.63
16.68
16.69
16.65
16.54
16.30
15.86
15.16
14.19
12.96
11.58
10.17
8.87
7.70
6.65
5.61
4.46
3.16
1.68
0.09
-1.58
-3.25
-4.91
-6.53
-8.08
-9.60
-11.16
-12.90
-14.95
-17.41
-20.16
-22.88
-25.07
-26.15
-25.71
-23.61
-20.06
-15.56
-10.71
-6.02
-1.85
1.70
4.68
7.22
9.47
11.50
13.38
15.07
16.52
17.66
18.44
18.87
19.00
18.95
18.87
18.85
18.99
19.31
19.84
20.52
21.29
22.04
22.67
23.12
23.35
23.32
22.99
22.23
20.92
18.95
16.29
13.06
9.44
5.70
2.13
-1.04
-3.64
-5.68
-7.33
-8.90
-10.77
-13.17
-16.02
-18.93
-21.31
-22.66
-22.74
-21.77
-20.24
-18.77
-17.84
-17.71
-18.40
-19.84
-21.93
-24.48
-27.12
-29.26
-30.12
-28.95
-25.38
-19.64
-12.65
-5.74
-0.17
3.27
4.58
4.44
3.89
3.82
4.70
6.52
8.92
11.52
14.08
16.56
18.94
21.16
23.00
24.17
24.51
24.08
23.19
22.29
21.78
21.90
22.60
23.63
24.59
25.15
25.07
24.32
23.02
21.38
19.62
17.96
16.48
15.25
14.23
13.38
12.66
12.01
11.37
10.63
9.69
8.51
7.13
5.67
4.25
2.95
1.76
0.59
-0.69
-2.12
-3.67
-5.23
-6.73
-8.21
-9.75
-11.48
-13.48
-15.73
-18.09
-20.37
-22.34
-23.73
-24.23
-23.54
-21.51
-18.18
-13.91
-9.24
-4.78
-0.95
2.11
4.53
6.53
8.33
9.97
11.40
12.53
13.35
13.96
14.49
14.98
15.40
15.61
15.51
15.07
14.47
13.94
13.71
13.91
14.48
15.20
15.79
16.05
15.93
15.46
14.75
13.84
12.72
11.41
9.97
8.55
7.33
6.39
5.68
5.02
4.23
3.20
2.01
0.81
-0.25
-1.17
-2.05
-3.07
-4.32
-5.75
-7.22
-8.59
-9.80
-10.90
-11.98
-13.14
-14.42
-15.86
-17.49
-19.31
-21.24
-23.03
-24.27
-24.48
-23.32
-20.69
-16.88
-12.37
-7.73
-3.39
0.43
3.68
6.40
8.66
10.46
11.79
12.66
13.14
13.32
13.36
13.36
13.38
13.41
13.38
13.26
13.04
12.79
12.61
12.55
12.62
12.73
12.74
12.54
12.08
11.43
10.70
10.00
9.39
8.82
8.16
7.29
6.13
4.71
3.17
1.67
0.35
-0.77
-1.79
-2.83
-3.97
-5.24
-6.59
-7.98
-9.37
-10.77
-12.18
-13.60
-15.03
-16.48
-18.05
-19.80
-21.70
-23.58
-25.01
-25.54
-24.75
-22.48
-18.94
-14.58
-9.94
-5.53
-1.66
1.60
4.28
6.50
8.36
9.89
11.06
11.85
12.24
12.28
12.07
11.76
11.48
11.30
11.23
11.19
11.07
10.77
10.31
9.81
9.43
9.33
9.57
10.12
10.85
11.60
12.17
12.43
12.22
11.43
10.05
8.13
5.85
3.44
1.12
-0.97
-2.77
-4.28
-5.57
-6.71
-7.76
-8.78
-9.81
-10.80
-11.68
-12.38
-12.90
-13.35
-13.95
-14.96
-16.51
-18.58
-20.90
-23.04
-24.47
-24.72
-23.51
-20.80
-16.85
-12.09
-7.08
-2.34
1.75
4.99
7.41
9.16
10.42
11.35
12.00
12.38
12.48
12.30
11.89
11.36
10.77
10.22
9.79
9.54
9.49
9.63
9.84
9.97
9.94
9.74
9.49
9.32
9.33
9.45
9.55
9.45
9.10
8.53
7.80
6.98
6.05
4.97
3.73
2.43
1.23
0.24
-0.54
-1.29
-2.25
-3.63
-5.42
-7.47
-9.53
-11.45
-13.22
-15.00
-17.01
-19.38
-22.13
-25.08
-27.96
-30.45
-32.26
-33.14
-32.95
-31.66
-29.34
-26.18
-22.41
-18.22
-13.83
-9.41
-5.17
-1.30
2.03
4.71
6.77
8.29
9.46
10.42
11.26
12.02
12.68
13.25
13.76
14.31
14.93
15.63
16.29
16.75
16.86
16.53
15.79
14.72
13.47
12.20
11.07
10.25
9.87
10.00
10.56
11.32
11.86
11.70
10.47
8.08
4.81
1.29
-1.71
-3.50
-3.75
-2.54
-0.33
2.28
4.74
6.76
8.28
9.37
10.16
10.73
11.06
11.11
10.72
9.73
7.90
5.02
1.04
-3.80
-8.95
-13.67
-17.26
-19.33
-19.90
-19.35
-18.14
-16.63
-14.93
-12.96
-10.67
-8.15
-5.71
-3.72
-2.47
-1.98
-2.04
-2.29
-2.35
-2.00
-1.22
-0.18
0.85
1.68
2.24
2.68
3.19
3.91
4.77
5.51
5.82
5.54
4.76
3.77
2.92
2.40
2.19
2.06
1.76
1.09
-0.00
-1.47
-3.20
-5.06
-6.88
-8.49
-9.78
-10.77
-11.62
-12.57
-13.87
-15.62
-17.74
-19.99
-22.03
-23.51
-24.10
-23.61
-21.94
-19.16
-15.53
-11.42
-7.27
-3.47
-0.24
2.37
4.43
6.09
7.48
8.68
9.71
10.56
11.21
11.62
11.81
11.79
11.59
11.31
11.01
10.82
10.78
10.94
11.23
11.55
11.78
11.78
11.46
10.78
9.75
8.49
7.16
5.90
4.85
4.02
3.36
2.76
2.14
1.44
0.66
-0.21
-1.19
-2.34
-3.72
-5.35
-7.12
-8.90
-10.52
-11.91
-13.13
-14.33
-15.70
-17.34
-19.20
-21.08
-22.63
-23.44
-23.20
-21.72
-19.06
-15.49
-11.45
-7.41
-3.75
-0.68
1.80
3.85
5.64
7.30
8.86
10.24
11.35
12.11
12.50
12.56
12.36
12.01
11.60
11.22
10.96
10.81
10.80
10.91
11.14
11.48
11.88
12.26
12.49
12.49
12.22
11.70
10.99
10.11
9.07
7.83
6.44
4.98
3.64
2.59
1.88
1.42
0.99
0.39
-0.51
-1.67
-2.99
-4.31
-5.58
-6.79
-8.04
-9.43
-11.01
-12.80
-14.77
-16.88
-19.07
-21.22
-23.11
-24.42
-24.79
-23.94
-21.82
-18.65
-14.87
-10.99
-7.45
-4.48
-2.12
-0.26
1.25
2.50
3.53
4.29
4.74
4.87
4.77
4.58
4.52
4.71
5.21
5.93
6.75
7.56
8.32
9.07
9.83
10.55
11.09
11.29
11.06
10.44
9.63
8.85
8.32
8.11
8.20
8.43
8.62
8.60
8.27
7.66
6.81
5.86
4.88
3.87
2.78
1.50
-0.02
-1.78
-3.68
-5.58
-7.35
-8.95
-10.38
-11.71
-13.04
-14.47
-16.09
-17.89
-19.78
-21.51
-22.70
-22.95
-21.95
-19.60
-16.11
-11.88
-7.43
-3.27
0.30
3.17
5.44
7.28
8.87
10.30
11.55
12.50
13.07
13.21
13.01
12.59
12.07
11.56
11.12
10.78
10.64
10.74
11.11
11.63
12.12
12.37
12.25
11.79
11.08
10.29
9.54
8.87
8.27
7.74
7.21
6.64
5.91
4.95
3.71
2.31
0.89
-0.37
-1.45
-2.42
-3.49
-4.85
-6.55
-8.48
-10.37
-12.03
-13.37
-14.52
-15.71
-17.15
-18.95
-21.02
-23.18
-25.08
-26.37
-26.65
-25.59
-23.03
-19.07
-14.12
-8.81
-3.79
0.46
3.77
6.28
8.25
9.87
11.12
11.82
11.81
11.06
9.81
8.47
7.51
7.23
7.67
8.64
9.86
11.08
12.20
13.20
14.10
14.84
15.33
15.47
15.24
14.81
14.40
14.18
14.18
14.21
13.97
13.21
11.79
9.76
7.26
4.52
1.70
-1.02
-3.48
-5.48
-6.87
-7.58
-7.70
-7.47
-7.15
-6.95
-6.93
-7.03
-7.18
-7.38
-7.78
-8.64
-10.21
-12.63
-15.83
-19.48
-23.10
-26.11
-27.95
-28.26
-26.90
-23.96
-19.76
-14.74
-9.38
-4.13
0.65
4.75
8.07
10.67
12.65
14.09
15.05
15.51
15.47
14.97
14.09
12.99
11.82
10.74
9.91
9.43
9.33
9.62
10.17
10.85
11.49
11.96
12.22
12.23
11.99
11.50
10.81
10.02
9.24
8.60
8.08
7.60
6.97
6.02
4.67
3.00
1.22
-0.43
-1.73
-2.60
-3.12
-3.50
-3.97
-4.75
-5.89
-7.31
-8.84
-10.31
-11.64
-12.87
-14.10
-15.48
-17.12
-19.04
-21.16
-23.29
-25.11
-26.23
-26.24
-24.88
-22.09
-18.11
-13.42
-8.59
-4.14
-0.41
2.48
4.58
6.04
7.01
7.60
7.87
7.84
7.49
6.80
5.82
4.65
3.50
2.63
2.26
2.55
3.51
5.03
6.90
8.86
10.66
12.13
13.18
13.84
14.23
14.50
14.78
15.13
15.48
15.75
15.80
15.57
15.01
14.16
13.11
11.93
10.68
9.35
7.83
6.00
3.72
1.02
-1.94
-4.89
-7.55
-9.78
-11.62
-13.27
-14.98
-16.90
-19.08
-21.40
-23.65
-25.53
-26.76
-27.07
-26.26
-24.25
-21.08
-17.01
-12.42
-7.75
-3.42
0.28
3.20
5.35
6.83
7.81
8.47
8.97
9.42
9.83
10.22
10.52
10.73
10.81
10.76
10.57
10.20
9.61
8.81
7.85
6.78
5.65
4.44
3.13
1.69
0.21
-1.10
-1.97
-2.16
-1.52
-0.13
1.79
3.86
5.71
7.06
7.83
8.09
7.97
7.61
7.03
6.15
4.83
2.97
0.61
-2.11
-4.98
-7.81
-10.50
-13.01
-15.46
-17.98
-20.74
-23.85
-27.22
-30.50
-33.08
-34.22
-33.28
-29.97
-24.44
-17.33
-9.54
-1.99
4.56
9.66
13.15
15.14
15.85
15.64
14.88
13.93
13.11
12.64
12.61
12.99
13.63
14.31
14.85
15.13
15.18
15.12
15.13
15.24
15.38
15.30
14.75
13.60
11.91
9.98
8.18
6.80
5.98
5.61
5.45
5.18
4.56
3.47
2.00
0.38
-1.15
-2.38
-3.26
-3.87
-4.37
-4.94
-5.64
-6.51
-7.55
-8.75
-10.09
-11.48
-12.78
-13.81
-14.45
-14.73
-14.75
-14.62
-14.34
-13.78
-12.75
-11.14
-9.06
-6.81
-4.73
-3.06
-1.86
-1.00
-0.35
0.15
0.41
0.31
-0.24
-1.16
-2.24
-3.18
-3.77
-3.90
-3.66
-3.24
-2.89
-2.78
-2.95
-3.35
-3.85
-4.38
-4.95
-5.68
-6.72
-8.19
-10.10
-12.40
-14.92
-17.49
-19.92
-22.07
-23.83
-25.14
-26.01
-26.49
-26.69
-26.73
-26.70
-26.57
-26.16
-25.16
-23.30
-20.49
-16.98
-13.34
-10.24
-8.15
-7.03
-6.25
-4.82
-1.77
3.50
11.01
20.27
30.60
41.31
51.93
62.06
71.30
79.16
85.11
88.78
90.04
89.07
86.19
81.71
75.77
68.37
59.51
49.33
38.17
26.55
15.08
4.31
-5.33
-13.54
-20.20
-25.30
-28.99
-31.52
-33.15
-34.05
-34.29
-33.80
-32.49
-30.37
-27.59
-24.47
-21.39
-18.65
-16.41
-14.68
-13.38
-12.40
-11.68
-11.17
-10.87
-10.71
-10.64
-10.56
-10.48
-10.42
-10.48
-10.72
-11.16
-11.74
-12.38
-13.01
-13.64
-14.33
-15.12
-15.93
-16.57
-16.72
-16.03
-14.26
-11.36
-7.60
-3.41
0.62
3.99
6.35
7.62
7.95
7.60
6.90
6.11
5.40
4.79
4.25
3.66
2.97
2.13
1.23
0.37
-0.30
-0.67
-0.73
-0.47
0.06
0.82
1.73
2.72
3.66
4.46
5.05
5.42
5.57
5.50
5.14
4.37
3.09
1.30
-0.93
-3.43
-6.02
-8.53
-10.88
-13.03
-15.00
-16.88
-18.71
-20.49
-22.03
-23.00
-22.99
-21.69
-19.01
-15.21
-10.75
-6.17
-1.89
1.86
5.03
7.66
9.81
11.56
12.96
14.06
14.90
15.48
15.73
15.60
15.07
14.21
13.14
12.03
11.04
10.32
9.91
9.76
9.73
9.64
9.29
8.58
7.52
6.19
4.73
3.25
1.83
0.48
-0.78
-1.95
-3.09
-4.24
-5.49
-6.87
-8.36
-9.91
-11.48
-13.11
-14.87
-16.77
-18.66
-20.22
-21.03
-20.71
-19.07
-16.19
-12.42
-8.21
-4.01
-0.15
3.21
6.04
8.37
10.27
11.77
12.90
13.68
14.13
14.27
14.17
13.87
13.46
12.98
12.50
12.07
11.73
11.51
11.43
11.50
11.68
11.87
11.96
11.78
11.23
10.30
9.05
7.60
6.10
4.69
3.47
2.43
1.55
0.71
-0.20
-1.27
-2.54
-3.96
-5.45
-6.89
-8.21
-9.40
-10.55
-11.77
-13.24
-15.10
-17.39
-19.94
-22.36
-24.10
-24.60
-23.53
-20.88
-17.04
-12.58
-8.09
-4.00
-0.48
2.49
5.04
7.26
9.22
10.86
12.14
12.99
13.41
13.44
13.20
12.86
12.57
12.43
12.41
12.45
12.43
12.32
12.15
12.02
12.03
12.16
12.32
12.35
12.10
11.54
10.70
9.74
8.78
7.92
7.13
6.36
5.48
4.42
3.20
1.89
0.64
-0.42
-1.22
-1.84
-2.42
-3.15
-4.15
-5.43
-6.90
-8.40
-9.82
-11.10
-12.30
-13.53
-14.89
-16.45
-18.23
-20.12
-21.89
-23.23
-23.76
-23.12
-21.13
-17.87
-13.63
-8.90
-4.22
-0.05
3.36
5.92
7.75
9.03
9.94
10.64
11.20
11.66
11.98
12.15
12.17
12.09
11.98
11.88
11.82
11.76
11.67
11.54
11.41
11.40
11.58
11.97
12.44
12.79
12.82
12.42
11.64
10.66
9.71
8.97
8.51
8.23
8.00
7.68
7.18
6.50
5.69
4.83
3.95
3.02
1.94
0.58
-1.10
-3.08
-5.21
-7.36
-9.40
-11.34
-13.27
-15.30
-17.53
-20.06
-22.93
-26.15
-29.63
-33.10
-36.04
-37.80
-37.75
-35.50
-31.15
-25.20
-18.45
-11.70
-5.61
-0.52
3.45
6.34
8.27
9.40
9.89
9.97
9.84
9.68
9.63
9.79
10.21
10.88
11.72
12.62
13.41
13.96
14.24
14.31
14.30
14.29
14.25
14.05
13.50
12.51
11.15
9.65
8.26
7.14
6.27
5.48
4.56
3.40
2.11
0.92
0.09
-0.23
-0.17
0.00
-0.10
-0.74
-2.00
-3.72
-5.59
-7.31
-8.71
-9.78
-10.68
-11.63
-12.85
-14.39
-16.17
-17.93
-19.31
-19.93
-19.50
-17.91
-15.23
-11.72
-7.75
-3.71
0.04
3.27
5.86
7.83
9.26
10.27
10.91
11.16
10.92
10.13
8.87
7.38
6.03
5.13
4.90
5.29
6.11
7.07
7.98
8.80
9.56
10.31
10.99
11.48
11.58
11.19
10.36
9.28
8.18
7.24
6.50
5.87
5.17
4.30
3.22
2.02
0.80
-0.33
-1.35
-2.30
-3.23
-4.19
-5.18
-6.17
-7.11
-7.97
-8.75
-9.48
-10.21
-11.00
-11.91
-13.02
-14.35
-15.84
-17.26
-18.23
-18.32
-17.25
-14.94
-11.64
-7.80
-3.93
-0.42
2.55
4.96
6.83
8.22
9.12
9.58
9.63
9.38
8.94
8.43
7.94
7.53
7.21
6.98
6.79
6.62
6.49
6.41
6.40
6.46
6.57
6.66
6.69
6.62
6.40
6.00
5.38
4.50
3.42
2.23
1.07
0.07
-0.75
-1.44
-2.10
-2.85
-3.74
-4.75
-5.87
-7.03
-8.15
-9.18
-10.07
-10.83
-11.54
-12.32
-13.34
-14.66
-16.20
-17.71
-18.78
-18.99
-18.05
-15.89
-12.69
-8.86
-4.90
-1.26
1.74
4.02
5.64
6.78
7.57
8.08
8.31
8.21
7.83
7.31
6.85
6.62
6.73
7.18
7.85
8.62
9.33
9.89
10.22
10.27
10.04
9.60
8.98
8.21
7.26
6.05
4.59
2.93
1.28
-0.16
-1.19
-1.80
-2.11
-2.31
-2.64
-3.20
-3.99
-4.91
-5.84
-6.69
-7.49
-8.34
-9.36
-10.64
-12.21
-13.99
-15.86
-17.70
-19.34
-20.64
-21.34
-21.14
-19.80
-17.21
-13.55
-9.26
-4.95
-1.18
1.72
3.68
4.94
5.80
6.52
7.23
7.87
8.35
8.55
8.46
8.18
7.85
7.61
7.54
7.64
7.82
7.96
7.98
7.90
7.79
7.76
7.85
8.03
8.16
8.12
7.86
7.42
6.90
6.37
5.82
5.19
4.43
3.52
2.56
1.64
0.76
-0.16
-1.24
-2.58
-4.11
-5.66
-7.02
-8.06
-8.81
-9.40
-10.04
-10.86
-11.96
-13.39
-15.15
-17.15
-19.21
-20.98
-22.01
-21.89
-20.39
-17.56
-13.74
-9.41
-5.07
-1.12
2.21
4.82
6.71
7.94
8.62
8.91
9.00
9.07
9.21
9.40
9.58
9.64
9.56
9.43
9.38
9.55
9.96
10.51
11.01
11.33
11.38
11.20
10.88
10.44
9.88
9.17
8.31
7.39
6.55
5.94
5.59
5.38
5.11
4.58
3.70
2.50
1.15
-0.19
-1.37
-2.35
-3.16
-3.90
-4.65
-5.48
-6.40
-7.34
-8.28
-9.22
-10.23
-11.45
-13.01
-14.98
-17.28
-19.65
-21.68
-22.89
-22.90
-21.52
-18.82
-15.12
-10.88
-6.59
-2.67
0.63
3.22
5.16
6.61
7.75
8.70
9.50
10.10
10.42
10.39
10.03
9.44
8.75
8.05
7.35
6.67
6.01
5.48
5.22
5.30
5.68
6.22
6.69
6.99
7.12
7.19
7.33
7.57
7.82
7.93
7.80
7.36
6.64
5.66
4.46
3.08
1.58
0.03
-1.50
-3.03
-4.62
-6.33
-8.16
-9.99
-11.60
-12.84
-13.68
-14.24
-14.76
-15.53
-16.74
-18.46
-20.58
-22.83
-24.74
-25.79
-25.51
-23.64
-20.30
-15.95
-11.23
-6.77
-2.98
0.09
2.63
4.88
6.98
8.90
10.46
11.47
11.86
11.74
11.32
10.88
10.64
10.68
10.98
11.42
11.86
12.22
12.44
12.52
12.46
12.30
12.03
11.68
11.26
10.74
10.13
9.39
8.52
7.56
6.56
5.59
4.69
3.83
2.93
1.89
0.66
-0.78
-2.34
-3.93
-5.42
-6.74
-7.84
-8.74
-9.58
-10.56
-11.92
-13.80
-16.18
-18.78
-21.11
-22.61
-22.79
-21.42
-18.59
-14.70
-10.30
-5.99
-2.18
0.92
3.30
5.10
6.51
7.66
8.61
9.35
9.88
10.17
10.25
10.17
9.97
9.68
9.35
9.04
8.83
8.78
8.97
9.42
10.09
10.85
11.49
11.85
11.79
11.30
10.48
9.48
8.43
7.40
6.41
5.47
4.58
3.74
2.89
1.92
0.69
-0.91
-2.87
-5.01
-7.11
-8.95
-10.41
-11.49
-12.25
-12.77
-13.13
-13.43
-13.79
-14.37
-15.29
-16.56
-18.01
-19.26
-19.81
-19.18
-17.09
-13.63
-9.19
-4.39
0.14
3.95
6.86
8.91
10.26
11.12
11.61
11.84
11.90
11.84
11.75
11.65
11.56
11.49
11.44
11.42
11.39
11.29
11.07
10.74
10.39
10.17
10.19
10.47
10.88
11.22
11.33
11.12
10.63
9.94
9.14
8.29
7.35
6.28
5.01
3.52
1.84
0.11
-1.46
-2.69
-3.51
-3.99
-4.38
-4.95
-5.89
-7.18
-8.60
-9.95
-11.07
-12.04
-13.04
-14.29
-15.91
-17.87
-20.00
-22.06
-23.71
-24.62
-24.46
-22.99
-20.18
-16.31
-11.88
-7.51
-3.71
-0.73
1.47
3.12
4.43
5.49
6.26
6.64
6.64
6.39
6.18
6.34
7.07
8.40
10.16
12.03
13.78
15.26
16.47
17.47
18.27
18.75
18.69
17.89
16.33
14.17
11.76
9.44
7.45
5.82
4.44
3.16
1.84
0.52
-0.72
-1.74
-2.44
-2.87
-3.11
-3.34
-3.71
-4.28
-5.03
-5.92
-6.89
-7.95
-9.19
-10.72
-12.58
-14.74
-17.05
-19.30
-21.26
-22.65
-23.17
-22.56
-20.65
-17.46
-13.19
-8.28
-3.23
1.47
5.47
8.57
10.69
11.88
12.21
11.78
10.73
9.30
7.80
6.59
5.96
6.04
6.76
7.88
9.12
10.23
11.10
11.74
12.17
12.41
12.43
12.18
11.64
10.83
9.81
8.70
7.58
6.55
5.70
5.03
4.49
3.95
3.27
2.38
1.34
0.29
-0.62
-1.29
-1.74
-2.07
-2.41
-2.90
-3.60
-4.57
-5.83
-7.38
-9.19
-11.21
-13.37
-15.63
-17.96
-20.33
-22.60
-24.46
-25.44
-25.07
-23.06
-19.52
-14.94
-10.06
-5.61
-2.05
0.53
2.30
3.57
4.56
5.40
6.18
6.99
7.92
9.06
10.37
11.70
12.88
13.77
14.39
14.83
15.23
15.67
16.10
16.41
16.47
16.22
15.66
14.86
13.95
13.02
12.17
11.41
10.70
9.94
8.99
7.76
6.23
4.48
2.69
1.01
-0.44
-1.64
-2.72
-3.85
-5.23
-7.01
-9.19
-11.68
-14.21
-16.44
-18.02
-18.68
-18.34
-17.16
-15.53
-13.93
-12.81
-12.41
-12.72
-13.43
-14.11
-14.33
-13.79
-12.41
-10.25
-7.50
-4.36
-1.01
2.40
5.74
8.87
11.60
13.74
15.14
15.72
15.53
14.69
13.44
12.07
10.85
10.00
9.59
9.55
9.75
9.99
10.17
10.25
10.25
10.22
10.14
9.95
9.57
8.92
7.99
6.78
5.33
3.67
1.86
0.04
-1.62
-2.92
-3.71
-3.98
-3.81
-3.42
-3.02
-2.80
-2.86
-3.26
-4.01
-5.13
-6.62
-8.47
-10.61
-12.90
-15.13
-17.06
-18.39
-18.88
-18.32
-16.66
-13.97
-10.47
-6.49
-2.43
1.36
4.58
7.06
8.73
9.65
9.96
9.83
9.45
8.95
8.39
7.83
7.31
6.90
6.70
6.79
7.17
7.76
8.40
8.93
9.29
9.48
9.60
9.71
9.79
9.74
9.39
8.62
7.40
5.81
4.01
2.15
0.32
-1.43
-3.06
-4.49
-5.64
-6.40
-6.78
-6.91
-7.01
-7.37
-8.18
-9.55
-11.43
-13.71
-16.23
-18.76
-21.01
-22.57
-23.06
-22.16
-19.82
-16.30
-12.07
-7.75
-3.84
-0.61
1.97
4.10
6.05
7.96
9.82
11.48
12.77
13.56
13.88
13.88
13.73
13.57
13.43
13.27
13.01
12.63
12.13
11.60
11.11
10.72
10.46
10.31
10.18
9.98
9.60
9.02
8.24
7.35
6.41
5.47
4.50
3.46
2.31
1.07
-0.20
-1.43
-2.56
-3.58
-4.54
-5.51
-6.54
-7.68
-8.93
-10.33
-11.89
-13.63
-15.57
-17.69
-19.96
-22.28
-24.40
-25.96
-26.56
-25.81
-23.57
-19.98
-15.46
-10.56
-5.80
-1.56
1.97
4.69
6.52
7.36
7.18
6.06
4.31
2.41
0.84
-0.01
0.04
0.97
2.58
4.65
7.00
9.45
11.88
14.14
16.08
17.62
18.70
19.40
19.78
19.90
19.72
19.12
18.01
16.33
14.16
11.65
9.01
6.37
3.83
1.51
-0.49
-2.03
-3.05
-3.57
-3.77
-3.91
-4.25
-4.93
-5.97
-7.24
-8.58
-9.86
-11.02
-12.12
-13.27
-14.63
-16.31
-18.36
-20.71
-23.10
-25.17
-26.42
-26.38
-24.74
-21.48
-16.88
-11.50
-5.98
-0.93
3.25
6.40
8.55
9.86
10.53
10.73
10.58
10.20
9.70
9.21
8.84
8.67
8.69
8.82
8.94
8.89
8.61
8.14
7.63
7.32
7.35
7.77
8.42
9.05
9.41
9.38
9.02
8.55
8.15
7.93
7.78
7.53
7.00
6.13
4.95
3.55
1.97
0.23
-1.65
-3.61
-5.52
-7.22
-8.64
-9.85
-11.10
-12.76
-15.18
-18.62
-23.05
-28.04
-32.83
-36.43
-37.94
-36.83
-33.10
-27.27
-20.19
-12.83
-6.05
-0.54
3.30
5.37
5.87
5.31
4.39
3.83
4.06
5.16
6.84
8.67
10.23
11.30
11.89
12.15
12.30
12.53
12.97
13.64
14.44
15.20
15.72
15.84
15.45
14.57
13.24
11.54
9.54
7.34
5.02
2.76
0.71
-0.94
-2.04
-2.53
-2.45
-1.97
-1.35
-0.85
-0.69
-0.95
-1.60
-2.51
-3.58
-4.80
-6.23
-8.01
-10.22
-12.86
-15.78
-18.69
-21.20
-22.90
-23.41
-22.47
-20.06
-16.38
-11.84
-6.93
-2.17
2.10
5.65
8.44
10.54
12.11
13.28
14.09
14.50
14.33
13.49
12.00
10.12
8.26
6.82
6.03
5.83
5.97
6.14
6.16
6.06
5.95
6.00
6.26
6.65
7.04
7.31
7.40
7.32
7.11
6.79
6.35
5.78
5.12
4.46
3.90
3.54
3.36
3.23
2.91
2.20
0.99
-0.64
-2.44
-4.08
-5.31
-6.10
-6.60
-7.17
-8.16
-9.76
-11.86
-14.06
-15.80
-16.52
-15.85
-13.75
-10.49
-6.50
-2.29
1.75
5.36
8.43
10.89
12.71
13.86
14.37
14.33
13.88
13.18
12.33
11.39
10.38
9.30
8.22
7.21
6.38
5.82
5.58
5.63
5.89
6.16
6.26
5.99
5.28
4.17
2.89
1.66
0.69
0.02
-0.44
-0.85
-1.32
-1.91
-2.61
-3.41
-4.30
-5.30
-6.38
-7.46
-8.46
-9.27
-9.89
-10.42
-11.07
-12.03
-13.39
-15.07
-16.83
-18.28
-19.02
-18.76
-17.36
-14.94
-11.77
-8.24
-4.70
-1.40
1.52
4.00
5.98
7.43
8.31
8.64
8.52
8.08
7.48
6.82
6.20
5.69
5.38
5.36
5.68
6.28
7.01
7.64
7.99
7.98
7.65
7.11
6.52
5.98
5.55
5.19
4.81
4.29
3.52
2.44
1.04
-0.61
-2.37
-4.07
-5.55
-6.75
-7.74
-8.69
-9.79
-11.17
-12.78
-14.41
-15.70
-16.30
-15.95
-14.55
-12.21
-9.14
-5.63
-2.01
1.44
4.44
6.80
8.44
9.37
9.69
9.58
9.20
8.72
8.23
7.77
7.37
7.02
6.75
6.62
6.65
6.84
7.14
7.47
7.77
7.96
8.03
7.97
7.78
7.45
6.93
6.22
5.30
4.23
3.06
1.83
0.52
-0.88
-2.40
-4.01
-5.61
-7.11
-8.41
-9.49
-10.38
-11.18
-11.97
-12.86
-13.92
-15.19
-16.63
-18.07
-19.21
-19.69
-19.20
-17.61
-15.06
-11.86
-8.35
-4.82
-1.42
1.82
4.86
7.58
9.79
11.27
11.93
11.84
11.20
10.32
9.46
8.80
8.39
8.21
8.21
8.31
8.50
8.73
9.01
9.29
9.51
9.60
9.51
9.22
8.71
8.01
7.10
5.99
4.69
3.30
1.94
0.75
-0.19
-0.89
-1.47
-2.09
-2.84
-3.74
-4.71
-5.63
-6.47
-7.27
-8.12
-9.15
-10.43
-11.95
-13.64
-15.40
-17.09
-18.45
-19.17
-18.93
-17.50
-14.90
-11.45
-7.65
-4.09
-1.16
0.99
2.51
3.64
4.62
5.57
6.46
7.21
7.77
8.14
8.38
8.53
8.63
8.68
8.70
8.71
8.75
8.83
8.92
9.02
9.12
9.26
9.46
9.73
9.95
10.00
9.73
9.08
8.14
7.06
6.04
5.22
4.66
4.33
4.11
3.85
3.37
2.54
1.27
-0.45
-2.51
-4.76
-7.04
-9.23
-11.32
-13.44
-15.81
-18.62
-21.95
-25.60
-29.08
-31.67
-32.65
-31.49
-28.09
-22.87
-16.64
-10.38
-5.03
-1.18
0.99
1.67
1.39
0.80
0.51
0.95
2.28
4.36
6.84
9.33
11.48
13.15
14.34
15.12
15.59
15.79
15.79
15.70
15.67
15.87
16.33
16.86
17.08
16.61
15.25
13.14
10.63
8.14
5.87
3.76
1.54
-1.01
-3.92
-6.94
-9.63
-11.55
-12.49
-12.49
-11.90
-11.16
-10.71
-10.86
-11.70
-13.15
-14.96
-16.86
-18.58
-19.92
-20.67
-20.65
-19.72
-17.80
-14.98
-11.47
-7.60
-3.74
-0.20
2.81
5.22
7.03
8.31
9.14
9.59
9.74
9.68
9.50
9.30
9.15
9.06
9.02
8.95
8.83
8.62
8.38
8.23
8.28
8.58
9.09
9.67
10.11
10.25
9.98
9.32
8.38
7.26
6.07
4.85
3.60
2.31
0.98
-0.40
-1.87
-3.43
-5.11
-6.87
-8.67
-10.46
-12.17
-13.73
-15.05
-16.10
-16.88
-17.52
-18.20
-19.12
-20.38
-21.87
-23.27
-24.07
-23.79
-22.04
-18.74
-14.03
-8.37
-2.37
3.31
7.99
11.19
12.67
12.54
11.21
9.31
7.51
6.37
6.18
6.90
8.33
10.13
12.05
13.94
15.81
17.70
19.68
21.76
23.84
25.74
27.17
27.83
27.43
25.85
23.15
19.60
15.61
11.63
8.04
5.08
2.86
1.35
0.52
0.22
0.31
0.55
0.75
0.70
0.24
-0.73
-2.27
-4.44
-7.18
-10.36
-13.72
-16.91
-19.62
-21.62
-22.82
-23.24
-22.90
-21.81
-19.92
-17.21
-13.72
-9.66
-5.31
-1.03
2.87
6.10
8.53
10.10
10.81
10.78
10.14
9.08
7.83
6.58
5.50
4.68
4.13
3.82
3.74
3.87
4.19
4.66
5.15
5.53
5.65
5.44
4.92
4.17
3.29
2.34
1.36
0.29
-0.89
-2.22
-3.70
-5.27
-6.83
-8.31
-9.59
-10.60
-11.33
-11.81
-12.16
-12.53
-13.07
-13.86
-14.82
-15.69
-16.10
-15.72
-14.35
-12.02
-9.00
-5.65
-2.31
0.82
3.64
6.13
8.27
9.99
11.21
11.86
12.00
11.76
11.39
11.09
10.99
11.05
11.14
11.07
10.72
10.10
9.35
8.65
8.13
7.82
7.63
7.37
6.89
6.14
5.16
4.08
3.06
2.20
1.53
0.97
0.40
-0.29
-1.20
-2.34
-3.68
-5.11
-6.53
-7.86
-9.04
-10.11
-11.19
-12.40
-13.86
-15.54
-17.24
-18.57
-19.09
-18.44
-16.53
-13.53
-9.83
-5.90
-2.16
1.18
4.02
6.40
8.35
9.91
11.08
11.88
12.38
12.68
12.85
12.93
12.89
12.68
12.27
11.69
11.03
10.39
9.90
9.60
9.50
9.52
9.56
9.56
9.46
9.22
8.81
8.21
7.41
6.41
5.29
4.15
3.12
2.25
1.50
0.73
-0.24
-1.48
-2.99
-4.64
-6.29
-7.79
-9.10
-10.21
-11.18
-12.15
-13.25
-14.60
-16.21
-17.91
-19.34
-20.09
-19.79
-18.31
-15.78
-12.52
-8.94
-5.42
-2.23
0.46
2.65
4.39
5.83
7.10
8.27
9.34
10.22
10.83
11.08
10.97
10.49
9.69
8.62
7.40
6.21
5.27
4.77
4.78
5.18
5.76
6.23
6.37
6.06
5.35
4.41
3.46
2.70
2.21
1.95
1.77
1.47
0.87
-0.08
-1.37
-2.87
-4.49
-6.10
-7.63
-9.07
-10.46
-11.86
-13.34
-14.90
-16.40
-17.56
-18.04
-17.50
-15.80
-13.00
-9.41
-5.44
-1.57
1.84
4.57
6.56
7.93
8.90
9.64
10.29
10.88
11.30
11.45
11.25
10.71
9.97
9.21
8.61
8.26
8.13
8.17
8.26
8.35
8.41
8.41
8.31
8.02
7.43
6.43
5.03
3.33
1.57
-0.03
-1.24
-1.99
-2.32
-2.39
-2.38
-2.42
-2.55
-2.76
-3.05
-3.46
-4.09
-5.03
-6.32
-7.88
-9.56
-11.26
-12.99
-14.86
-16.99
-19.38
-21.80
-23.86
-25.05
-25.03
-23.67
-21.12
-17.77
-14.12
-10.62
-7.58
-5.12
-3.18
-1.64
-0.40
0.52
0.97
0.80
-0.08
-1.55
-3.34
-5.17
-6.86
-8.43
-9.97
-11.48
-12.81
-13.63
-13.63
-12.66
-10.83
-8.39
-5.62
-2.64
0.54
4.00
7.69
11.42
14.86
17.63
19.49
20.35
20.31
19.58
18.39
16.90
15.16
13.18
10.90
8.33
5.55
2.72
0.09
-2.08
-3.52
-3.98
-3.36
-1.72
0.69
3.46
6.16
8.47
10.22
11.48
12.39
13.08
13.57
13.82
13.77
13.41
12.85
12.18
11.48
10.78
10.09
9.42
8.81
8.31
7.90
7.55
7.17
6.69
6.16
5.67
5.30
5.06
4.84
4.47
3.80
2.77
1.44
-0.07
-1.62
-3.12
-4.51
-5.76
-6.87
-7.84
-8.69
-9.48
-10.34
-11.37
-12.63
-14.00
-15.24
-15.99
-15.95
-14.93
-12.97
-10.30
-7.25
-4.16
-1.30
1.19
3.26
4.96
6.33
7.42
8.26
8.83
9.12
9.16
9.00
8.75
8.50
8.29
8.09
7.86
7.61
7.38
7.23
7.20
7.23
7.24
7.14
6.89
6.51
6.07
5.63
5.20
4.78
4.32
3.79
3.17
2.46
1.72
0.99
0.30
-0.35
-1.03
-1.84
-2.83
-4.02
-5.31
-6.59
-7.80
-8.94
-10.09
-11.38
-12.89
-14.59
-16.42
-18.19
-19.68
-20.61
-20.72
-19.81
-17.86
-14.98
-11.44
-7.62
-3.89
-0.56
2.20
4.32
5.86
6.91
7.58
8.00
8.25
8.44
8.62
8.82
9.02
9.14
9.15
9.02
8.80
8.55
8.35
8.23
8.17
8.14
8.08
7.96
7.73
7.34
6.76
6.01
5.14
4.23
3.36
2.60
1.91
1.26
0.61
-0.05
-0.66
-1.22
-1.70
-2.18
-2.71
-3.40
-4.27
-5.31
-6.44
-7.55
-8.52
-9.27
-9.82
-10.31
-10.92
-11.88
-13.34
-15.27
-17.46
-19.52
-20.96
-21.38
-20.52
-18.41
-15.27
-11.50
-7.49
-3.62
-0.13
2.88
5.36
7.38
9.02
10.33
11.39
12.21
12.79
13.15
13.28
13.17
12.77
12.06
10.99
9.62
8.08
6.62
5.52
4.95
4.92
5.23
5.56
5.65
5.38
4.84
4.26
3.85
3.70
3.71
3.70
3.51
3.08
2.48
1.83
1.21
0.63
0.02
-0.68
-1.55
-2.63
-3.92
-5.37
-6.87
-8.25
-9.34
-10.06
-10.46
-10.76
-11.28
-12.29
-13.94
-16.05
-18.19
-19.70
-19.87
-18.22
-14.70
-9.75
-4.23
0.85
4.65
6.74
7.16
6.37
5.05
3.89
3.42
3.88
5.18
6.92
8.52
9.48
9.56
8.92
7.93
7.06
6.62
6.65
7.01
7.52
7.99
8.35
8.55
8.51
8.17
7.51
6.64
5.74
4.97
4.43
4.03
3.64
3.05
2.18
1.01
-0.33
-1.63
-2.71
-3.40
-3.72
-3.77
-3.81
-4.06
-4.68
-5.62
-6.74
-7.81
-8.71
-9.42
-10.01
-10.62
-11.35
-12.28
-13.46
-14.91
-16.52
-17.95
-18.65
-17.89
-15.10
-10.04
-3.10
4.84
12.60
19.00
23.24
24.98
24.31
21.67
17.66
12.96
8.25
4.23
1.51
0.45
1.13
3.35
6.68
10.71
15.18
19.95
24.94
30.02
34.96
39.42
43.10
45.68
46.93
46.63
44.59
40.80
35.41
28.81
21.50
13.91
6.22
-1.58
-9.53
-17.44
-24.73
-30.48
-33.88
-34.61
-33.18
-30.72
-28.61
-27.82
-28.52
-29.99
-31.15
-31.00
-29.16
-25.95
-22.16
-18.66
-16.09
-14.73
-14.58
-15.51
-17.33
-19.77
-22.41
-24.67
-25.92
-25.65
-23.62
-19.98
-15.22
-10.07
-5.21
-1.16
1.86
3.93
5.31
6.30
7.10
7.79
8.30
8.51
8.26
7.47
6.18
4.55
2.89
1.53
0.76
0.75
1.47
2.75
4.31
5.83
7.10
7.96
8.36
8.28
7.71
6.69
5.29
3.67
1.98
0.38
-1.10
-2.44
-3.71
-4.93
-6.09
-7.07
-7.76
-8.05
-7.94
-7.52
-6.99
-6.63
-6.72
-7.50
-9.08
-11.34
-13.94
-16.30
-17.85
-18.12
-16.95
-14.52
-11.29
-7.85
-4.72
-2.20
-0.32
1.12
2.39
3.73
5.17
6.60
7.78
8.50
8.67
8.35
7.72
6.99
6.37
6.02
6.06
6.54
7.44
8.67
10.07
11.41
12.47
13.10
13.24
12.92
12.26
11.35
10.29
9.10
7.79
6.33
4.74
3.03
1.27
-0.53
-2.33
-4.15
-5.99
-7.83
-9.65
-11.41
-13.15
-14.90
-16.74
-18.71
-20.76
-22.74
-24.39
-25.40
-25.51
-24.48
-22.25
-18.92
-14.78
-10.25
-5.77
-1.71
1.70
4.43
6.56
8.24
9.58
10.65
11.44
11.95
12.14
12.00
11.51
10.69
9.66
8.62
7.85
7.62
8.05
9.02
10.19
11.13
11.46
11.02
9.93
8.53
7.24
6.35
5.97
5.94
6.01
5.92
5.54
4.89
4.07
3.17
2.22
1.15
-0.12
-1.64
-3.37
-5.27
-7.28
-9.35
-11.44
-13.52
-15.53
-17.42
-19.19
-20.93
-22.73
-24.62
-26.51
-28.08
-28.88
-28.45
-26.51
-23.08
-18.52
-13.42
-8.43
-4.05
-0.53
2.18
4.28
5.98
7.38
8.48
9.26
9.76
10.14
10.64
11.51
12.81
14.44
16.16
17.68
18.82
19.57
19.99
20.18
20.20
20.02
19.61
18.94
18.09
17.17
16.27
15.44
14.64
13.77
12.73
11.47
10.01
8.45
6.93
5.63
4.64
3.99
3.62
3.38
3.12
2.77
2.30
1.72
1.02
0.15
-0.97
-2.46
-4.33
-6.49
-8.83
-11.21
-13.55
-15.82
-18.01
-20.00
-21.54
-22.31
-22.00
-20.44
-17.74
-14.20
-10.26
-6.37
-2.83
0.21
2.78
4.96
6.83
8.42
9.69
10.54
10.89
10.74
10.22
9.56
9.02
8.76
8.83
9.12
9.48
9.77
10.01
10.31
10.76
11.40
12.03
12.41
12.27
11.52
10.23
8.62
6.91
5.28
3.79
2.44
1.21
0.10
-0.92
-1.91
-2.99
-4.31
-6.00
-8.12
-10.58
-13.24
-15.90
-18.36
-20.45
-22.08
-23.19
-23.77
-23.79
-23.21
-21.98
-20.05
-17.41
-14.16
-10.49
-6.67
-3.04
0.13
2.68
4.56
5.88
6.83
7.55
8.12
8.56
8.87
9.09
9.29
9.58
9.97
10.40
10.72
10.82
10.70
10.55
10.63
11.19
12.27
13.65
14.90
15.53
15.12
13.47
10.62
6.84
2.55
-1.75
-5.59
-8.58
-10.52
-11.41
-11.45
-10.90
-10.05
-9.13
-8.28
-7.62
-7.28
-7.42
-8.21
-9.71
-11.88
-14.48
-17.22
-19.76
-21.73
-22.79
-22.63
-21.01
-17.80
-13.13
-7.39
-1.19
4.80
9.99
14.08
17.05
19.06
20.35
21.09
21.37
21.24
20.81
20.29
19.91
19.85
20.19
20.79
21.44
21.92
22.10
22.00
21.72
21.36
21.03
20.73
20.47
20.21
19.95
19.67
19.34
18.93
18.43
17.88
17.34
16.88
16.48
16.07
15.47
14.47
12.87
10.61
7.69
4.21
0.32
-3.81
-7.98
-11.99
-15.68
-18.94
-21.76
-24.20
-26.30
-27.97
-29.00
-29.07
-27.85
-25.20
-21.24
-16.35
-11.03
-5.73
-0.74
3.83
7.94
11.51
14.32
16.10
16.68
16.08
14.61
12.69
10.73
8.90
7.20
5.47
3.58
1.58
-0.35
-1.99
-3.20
-4.02
-4.61
-5.16
-5.79
-6.48
-7.10
-7.51
-7.65
-7.56
-7.30
-6.97
-6.55
-5.97
-5.17
-4.21
-3.31
-2.85
-3.29
-4.91
-7.78
-11.64
-16.02
-20.33
-24.12
-27.07
-29.11
-30.36
-31.08
-31.63
-32.36
-33.55
-35.28
-37.41
-39.62
-41.42
-42.34
-41.97
-39.99
-36.21
-30.55
-23.12
-14.27
-4.60
5.08
13.94
21.34
26.97
30.89
33.43
35.10
36.44
37.89
39.73
42.06
44.75
47.55
50.22
52.64
54.89
57.20
59.80
62.87
66.47
70.54
74.93
79.35
83.25
85.87
86.36
84.05
78.73
70.82
61.21
50.97
40.95
31.61
23.05
15.17
7.85
0.99
-5.62
-12.35
-19.71
-28.17
-37.90
-48.55
-59.33
-69.27
-77.52
-83.64
-87.57
-89.42
-89.29
-87.20
-83.28
-77.99
-72.17
-66.82
-62.65
-59.74
-57.44
-54.72
-50.69
-45.07
-38.28
-31.18
-24.61
-19.05
-14.50
-10.64
-7.20
-4.06
-1.32
0.89
2.54
3.78
4.91
6.21
7.78
9.56
11.27
12.66
13.55
13.92
13.89
13.59
13.13
12.52
11.69
10.53
8.95
6.97
4.67
2.22
-0.19
-2.37
-4.21
-5.66
-6.75
-7.59
-8.34
-9.20
-10.34
-11.85
-13.65
-15.53
-17.14
-18.12
-18.18
-17.21
-15.26
-12.50
-9.18
-5.60
-2.01
1.33
4.25
6.69
8.68
10.31
11.66
12.74
13.51
13.92
13.94
13.66
13.19
12.67
12.19
11.76
11.34
10.90
10.50
10.20
10.10
10.23
10.54
10.87
11.01
10.80
10.14
9.07
7.74
6.36
5.12
4.13
3.40
2.79
2.16
1.37
0.39
-0.78
-2.02
-3.26
-4.45
-5.58
-6.68
-7.75
-8.82
-9.92
-11.15
-12.61
-14.39
-16.39
-18.35
-19.82
-20.34
-19.55
-17.37
-13.99
-9.84
-5.45
-1.28
2.36
5.35
7.76
9.69
11.31
12.70
13.93
14.96
15.74
16.20
16.28
15.98
15.34
14.44
13.44
12.53
11.89
11.62
11.74
12.13
12.63
13.05
13.24
13.14
12.72
12.05
11.23
10.39
9.66
9.09
8.65
8.19
7.54
6.58
5.29
3.80
2.28
0.84
-0.51
-1.87
-3.30
-4.82
-6.35
-7.81
-9.13
-10.37
-11.63
-12.98
-14.47
-16.11
-17.84
-19.64
-21.38
-22.86
-23.71
-23.56
-22.10
-19.29
-15.37
-10.77
-6.04
-1.61
2.22
5.38
7.87
9.76
11.14
12.11
12.73
13.12
13.38
13.59
13.81
14.01
14.12
14.05
13.74
13.25
12.68
12.22
11.99
12.04
12.30
12.68
13.02
13.23
13.23
13.00
12.51
11.78
10.82
9.67
8.37
6.99
5.59
4.26
3.09
2.10
1.27
0.49
-0.39
-1.44
-2.67
-3.97
-5.21
-6.32
-7.31
-8.28
-9.35
-10.62
-12.13
-13.90
-15.93
-18.23
-20.67
-23.01
-24.86
-25.78
-25.43
-23.67
-20.64
-16.72
-12.40
-8.15
-4.33
-1.16
1.26
2.95
3.96
4.43
4.53
4.47
4.43
4.52
4.73
4.97
5.12
5.12
5.01
4.87
4.78
4.82
5.02
5.39
5.91
6.52
7.12
7.53
7.59
7.19
6.39
5.39
4.42
3.69
3.25
2.98
2.69
2.19
1.40
0.36
-0.82
-1.99
-3.09
-4.11
-5.04
-5.90
-6.67
-7.40
-8.14
-8.98
-9.99
-11.22
-12.63
-14.18
-15.75
-17.19
-18.29
-18.79
-18.40
-16.92
-14.38
-11.02
-7.25
-3.55
-0.24
2.50
4.68
6.38
7.65
8.51
8.98
9.11
9.01
8.81
8.57
8.30
8.00
7.63
7.28
7.05
7.04
7.28
7.73
8.27
8.79
9.21
9.46
9.48
9.23
8.65
7.76
6.65
5.44
4.27
3.20
2.20
1.19
0.09
-1.17
-2.58
-4.10
-5.66
-7.20
-8.66
-9.98
-11.14
-12.18
-13.20
-14.38
-15.86
-17.66
-19.62
-21.38
-22.48
-22.53
-21.32
-18.88
-15.48
-11.52
-7.41
-3.50
-0.02
2.92
5.28
7.06
8.31
9.12
9.63
9.98
10.26
10.49
10.60
10.46
10.03
9.36
8.64
8.10
7.94
8.21
8.78
9.46
10.06
10.51
10.80
10.95
10.93
10.65
10.03
9.05
7.85
6.62
5.59
4.83
4.30
3.85
3.29
2.50
1.49
0.33
-0.82
-1.86
-2.75
-3.53
-4.34
-5.28
-6.42
-7.73
-9.11
-10.45
-11.69
-12.93
-14.30
-15.94
-17.86
-19.88
-21.61
-22.61
-22.52
-21.18
-18.69
-15.35
-11.58
-7.75
-4.13
-0.80
2.22
4.92
7.23
9.06
10.31
10.98
11.19
11.15
11.02
10.89
10.77
10.55
10.23
9.85
9.58
9.57
9.91
10.53
11.24
11.84
12.13
12.08
11.75
11.24
10.69
10.14
9.60
9.03
8.35
7.49
6.42
5.13
3.65
2.07
0.50
-0.94
-2.23
-3.42
-4.58
-5.82
-7.21
-8.72
-10.25
-11.64
-12.78
-13.64
-14.28
-14.83
-15.48
-16.35
-17.54
-19.03
-20.72
-22.38
-23.70
-24.31
-23.90
-22.30
-19.56
-15.96
-11.93
-7.93
-4.30
-1.23
1.29
3.35
5.05
6.48
7.64
8.50
9.04
9.27
9.24
9.03
8.72
8.43
8.24
8.21
8.31
8.49
8.68
8.82
8.91
8.95
8.97
8.97
8.89
8.67
8.28
7.72
7.04
6.30
5.54
4.79
4.04
3.29
2.56
1.84
1.08
0.20
-0.88
-2.18
-3.61
-5.02
-6.25
-7.20
-7.92
-8.54
-9.29
-10.35
-11.84
-13.71
-15.83
-17.89
-19.54
-20.40
-20.18
-18.82
-16.43
-13.32
-9.81
-6.19
-2.64
0.70
3.70
6.23
8.20
9.60
10.52
11.16
11.66
12.09
12.43
12.60
12.56
12.34
12.04
11.82
11.78
11.99
12.38
12.88
13.36
13.69
13.82
13.75
13.53
13.24
12.92
12.58
12.17
11.65
10.98
10.17
9.25
8.25
7.20
6.10
4.95
3.77
2.59
1.48
0.48
-0.41
-1.26
-2.16
-3.19
-4.35
-5.60
-6.87
-8.11
-9.29
-10.44
-11.60
-12.81
-14.14
-15.68
-17.46
-19.47
-21.50
-23.23
-24.19
-24.03
-22.55
-19.85
-16.25
-12.15
-7.96
-3.94
-0.28
2.93
5.59
7.65
9.06
9.87
10.23
10.32
10.32
10.37
10.49
10.63
10.77
10.90
11.06
11.32
11.69
12.10
12.43
12.53
12.38
12.00
11.54
11.15
10.90
10.79
10.71
10.54
10.24
9.77
9.19
8.47
7.62
6.58
5.36
4.05
2.77
1.66
0.76
0.03
-0.68
-1.42
-2.21
-2.98
-3.71
-4.41
-5.22
-6.30
-7.74
-9.45
-11.26
-12.92
-14.27
-15.30
-16.16
-17.07
-18.28
-19.91
-21.90
-24.02
-25.84
-26.89
-26.71
-25.04
-21.87
-17.48
-12.36
-7.11
-2.24
1.89
5.14
7.55
9.28
10.51
11.40
12.07
12.59
12.99
13.23
13.28
13.07
12.55
11.79
10.94
10.20
9.79
9.81
10.23
10.90
11.61
12.20
12.57
12.74
12.80
12.84
12.92
13.04
13.14
13.13
12.90
12.41
11.64
10.64
9.48
8.26
7.05
5.90
4.81
3.79
2.84
1.97
1.19
0.46
-0.25
-1.02
-1.89
-2.86
-3.86
-4.85
-5.80
-6.75
-7.78
-8.99
-10.37
-11.89
-13.45
-15.01
-16.57
-18.19
-19.88
-21.48
-22.67
-23.03
-22.22
-20.09
-16.80
-12.72
-8.31
-4.01
-0.11
3.23
5.92
7.92
9.20
9.82
9.92
9.73
9.52
9.44
9.56
9.77
9.92
9.90
9.67
9.34
9.08
9.01
9.17
9.51
9.89
10.21
10.38
10.37
10.11
9.52
8.54
7.19
5.63
4.09
2.83
1.97
1.50
1.28
1.09
0.81
0.43
-0.01
-0.45
-0.89
-1.45
-2.20
-3.17
-4.25
-5.26
-6.07
-6.65
-7.11
-7.64
-8.33
-9.15
-9.95
-10.56
-10.95
-11.25
-11.66
-12.42
-13.58
-15.08
-16.68
-18.05
-18.91
-18.97
-18.07
-16.15
-13.26
-9.63
-5.58
-1.49
2.26
5.38
7.69
9.18
9.95
10.23
10.24
10.19
10.16
10.13
10.05
9.86
9.61
9.37
9.26
9.31
9.47
9.67
9.84
10.00
10.24
10.63
11.13
11.60
11.83
11.65
11.05
10.16
9.20
8.36
7.68
7.12
6.58
5.99
5.34
4.67
4.03
3.42
2.81
2.16
1.46
0.70
-0.10
-0.98
-1.94
-3.04
-4.26
-5.58
-6.95
-8.30
-9.56
-10.68
-11.61
-12.34
-12.94
-13.56
-14.43
-15.73
-17.46
-19.40
-21.07
-21.94
-21.59
-19.90
-17.01
-13.26
-9.07
-4.80
-0.75
2.83
5.71
7.75
8.91
9.36
9.37
9.27
9.24
9.30
9.31
9.12
8.66
8.02
7.38
6.95
6.83
7.01
7.41
7.90
8.41
8.90
9.33
9.65
9.80
9.69
9.29
8.61
7.75
6.82
5.93
5.14
4.45
3.81
3.13
2.32
1.35
0.29
-0.73
-1.59
-2.25
-2.77
-3.32
-4.01
-4.91
-5.93
-6.95
-7.89
-8.76
-9.64
-10.63
-11.79
-13.04
-14.28
-15.42
-16.49
-17.61
-18.89
-20.36
-21.82
-22.90
-23.17
-22.34
-20.34
-17.38
-13.84
-10.09
-6.43
-3.03
-0.03
2.48
4.37
5.58
6.20
6.39
6.42
6.46
6.58
6.75
6.87
6.83
6.62
6.27
5.89
5.61
5.57
5.90
6.62
7.64
8.72
9.60
10.09
10.10
9.70
9.04
8.29
7.57
6.89
6.24
5.58
4.89
4.20
3.54
2.92
2.31
1.65
0.83
-0.22
-1.49
-2.86
-4.14
-5.15
-5.82
-6.22
-6.49
-6.82
-7.34
-8.14
-9.28
-10.78
-12.62
-14.63
-16.51
-17.84
-18.20
-17.32
-15.17
-11.99
-8.18
-4.19
-0.41
2.89
5.55
7.57
9.01
10.01
10.70
11.19
11.52
11.70
11.69
11.51
11.18
10.73
10.17
9.59
9.06
8.71
8.68
8.98
9.54
10.17
10.66
10.80
10.56
9.97
9.16
8.30
7.50
6.80
6.20
5.68
5.18
4.69
4.11
3.38
2.45
1.35
0.19
-0.91
-1.80
-2.47
-3.05
-3.69
-4.58
-5.75
-7.15
-8.61
-10.00
-11.26
-12.43
-13.61
-14.86
-16.21
-17.65
-19.23
-21.00
-23.00
-25.17
-27.22
-28.75
-29.24
-28.37
-26.04
-22.50
-18.24
-13.82
-9.68
-6.04
-2.89
-0.11
2.44
4.85
7.15
9.37
11.55
13.70
15.82
17.83
19.59
20.98
21.96
22.60
23.07
23.52
24.06
24.66
25.18
25.48
25.42
24.95
24.12
23.03
21.84
20.65
19.51
18.40
17.26
16.00
14.59
13.02
11.31
9.48
7.48
5.24
2.73
-0.02
-2.83
-5.51
-7.82
-9.66
-11.07
-12.21
-13.32
-14.62
-16.14
-17.79
-19.34
-20.57
-21.41
-21.89
-22.28
-22.86
-23.92
-25.59
-27.80
-30.31
-32.70
-34.54
-35.44
-35.14
-33.63
-31.10
-27.96
-24.72
-21.83
-19.60
-18.09
-17.20
-16.66
-16.16
-15.41
-14.22
-12.48
-10.18
-7.36
-4.14
-0.66
2.94
6.53
10.02
13.39
16.62
19.72
22.63
25.20
27.26
28.63
29.20
29.00
28.14
26.85
25.33
23.75
22.18
20.67
19.20
17.78
16.39
15.04
13.73
12.45
11.22
10.02
8.87
7.75
6.59
5.32
3.89
2.30
0.64
-0.88
-2.10
-2.92
-3.42
-3.88
-4.63
-5.89
-7.69
-9.79
-11.75
-13.11
-13.52
-12.78
-10.91
-8.14
-4.80
-1.26
2.08
4.97
7.28
9.03
10.32
11.26
11.90
12.23
12.23
11.93
11.44
10.91
10.49
10.27
10.24
10.36
10.53
10.72
10.93
11.19
11.46
11.68
11.74
11.53
11.03
10.29
9.42
8.52
7.64
6.77
5.85
4.82
3.70
2.51
1.30
0.11
-1.05
-2.18
-3.29
-4.40
-5.53
-6.72
-7.97
-9.31
-10.69
-12.11
-13.55
-15.03
-16.59
-18.24
-19.98
-21.71
-23.27
-24.47
-25.07
-24.88
-23.75
-21.67
-18.73
-15.19
-11.34
-7.51
-3.94
-0.81
1.86
4.08
5.92
7.44
8.66
9.61
10.29
10.70
10.89
10.89
10.77
10.62
10.48
10.39
10.39
10.47
10.64
10.89
11.18
11.44
11.63
11.66
11.48
11.03
10.27
9.20
7.91
6.55
5.27
4.20
3.34
2.53
1.59
0.32
-1.28
-3.06
-4.77
-6.17
-7.16
-7.80
-8.33
-9.00
-10.01
-11.45
-13.32
-15.47
-17.67
-19.59
-20.82
-20.99
-19.80
-17.26
-13.63
-9.37
-5.05
-1.13
2.10
4.58
6.39
7.71
8.71
9.52
10.19
10.71
10.99
10.93
10.47
9.65
8.62
7.60
6.81
6.40
6.47
7.02
8.00
9.24
10.52
11.58
12.18
12.17
11.55
10.41
8.99
7.47
6.01
4.69
3.50
2.40
1.39
0.40
-0.59
-1.61
-2.70
-3.85
-5.06
-6.30
-7.53
-8.78
-10.12
-11.66
-13.46
-15.50
-17.59
-19.40
-20.56
-20.76
-19.83
-17.78
-14.80
-11.18
-7.26
-3.38
0.16
3.10
5.34
6.90
7.95
8.71
9.38
10.03
10.61
10.98
11.05
10.81
10.37
9.89
9.52
9.34
9.37
9.52
9.71
9.87
9.95
9.94
9.86
9.72
9.55
9.33
9.06
8.72
8.29
7.73
7.02
6.16
5.14
4.00
2.82
1.69
0.66
-0.24
-1.04
-1.81
-2.63
-3.58
-4.71
-6.06
-7.63
-9.33
-11.08
-12.73
-14.22
-15.53
-16.76
-18.03
-19.43
-20.91
-22.23
-23.02
-22.87
-21.50
-18.85
-15.19
-10.96
-6.66
-2.73
0.58
3.20
5.16
6.56
7.47
7.96
8.11
8.02
7.82
7.64
7.55
7.60
7.77
8.02
8.31
8.61
8.95
9.33
9.76
10.22
10.65
10.98
11.19
11.30
11.38
11.45
11.52
11.49
11.25
10.74
10.00
9.16
8.38
7.82
7.49
7.35
7.26
7.09
6.78
6.31
5.74
5.13
4.53
3.96
3.39
2.79
2.10
1.24
0.13
-1.26
-2.94
-4.80
-6.70
-8.45
-9.96
-11.20
-12.30
-13.42
-14.73
-16.27
-17.94
-19.51
-20.67
-21.11
-20.59
-18.98
-16.32
-12.86
-8.99
-5.18
-1.85
0.77
2.68
4.03
5.03
5.80
6.35
6.67
6.80
6.86
7.00
7.33
7.81
8.28
8.61
8.73
8.72
8.76
8.99
9.47
10.09
10.65
10.92
10.73
10.01
8.79
7.15
5.21
3.11
1.03
-0.86
-2.37
-3.39
-3.89
-3.94
-3.68
-3.27
-2.85
-2.48
-2.22
-2.16
-2.42
-3.15
-4.43
-6.23
-8.40
-10.71
-12.94
-14.97
-16.75
-18.33
-19.79
-21.23
-22.80
-24.58
-26.58
-28.68
-30.55
-31.78
-31.94
-30.81
-28.42
-25.05
-21.11
-16.99
-12.92
-8.94
-4.98
-0.91
3.30
7.64
12.06
16.47
20.74
24.66
27.90
30.07
30.87
30.22
28.44
26.16
24.11
22.86
22.63
23.17
23.97
24.49
24.29
23.23
21.37
18.94
16.17
13.25
10.29
7.35
4.50
1.78
-0.75
-3.06
-5.16
-7.10
-8.94
-10.65
-12.17
-13.35
-14.07
-14.29
-14.14
-13.78
-13.41
-13.11
-12.85
-12.49
-11.87
-10.81
-9.23
-7.12
-4.54
-1.58
1.63
4.99
8.38
11.65
14.55
16.73
17.74
17.11
14.53
10.04
4.02
-2.79
-9.59
-15.67
-20.69
-24.69
-27.96
-30.84
-33.54
-36.00
-38.05
-39.55
-40.59
-41.60
-43.27
-46.28
-51.04
-57.21
-63.49
-67.73
-67.39
-60.48
-46.52
-27.04
-5.41
14.08
27.55
32.55
28.67
17.38
1.76
-14.05
-25.42
-28.09
-19.34
0.88
29.59
61.44
90.57
112.55
125.70
131.01
131.04
128.19
123.75
117.75
109.69
99.36
87.24
74.28
61.42
49.15
37.50
26.26
15.43
5.36
-3.24
-9.68
-13.62
-15.28
-15.45
-15.21
-15.52
-16.85
-19.12
-21.73
-24.00
-25.47
-26.08
-26.23
-26.49
-27.30
-28.75
-30.58
-32.26
-33.27
-33.37
-32.66
-31.46
-30.18
-29.13
-28.42
-28.00
-27.75
-27.58
-27.47
-27.40
-27.36
-27.34
-27.31
-27.28
-27.28
-27.26
-27.04
-26.32
-24.74
-22.11
-18.45
-14.07
-9.48
-5.13
-1.31
1.92
4.64
6.99
9.02
10.69
11.88
12.51
12.58
12.20
11.57
10.90
10.34
9.96
9.74
9.62
9.53
9.46
9.41
9.40
9.40
9.36
9.20
8.86
8.33
7.61
6.75
5.78
4.72
3.58
2.35
1.01
-0.44
-1.98
-3.54
-5.05
-6.45
-7.73
-8.90
-10.04
-11.19
-12.43
-13.78
-15.28
-16.84
-18.25
-19.19
-19.25
-18.15
-15.83
-12.53
-8.68
-4.80
-1.28
1.64
3.89
5.53
6.70
7.49
8.02
8.34
8.45
8.37
8.14
7.85
7.63
7.56
7.66
7.85
8.02
8.06
7.97
7.81
7.70
7.67
7.69
7.66
7.46
7.02
6.35
5.53
4.68
3.91
3.29
2.80
2.35
1.82
1.13
0.27
-0.71
-1.68
-2.58
-3.39
-4.16
-4.96
-5.79
-6.63
-7.45
-8.28
-9.24
-10.49
-12.11
-14.02
-15.97
-17.53
-18.33
-18.09
-16.76
-14.48
-11.57
-8.41
-5.30
-2.48
-0.07
1.87
3.35
4.43
5.17
5.68
6.09
6.50
6.92
7.34
7.69
7.91
7.98
7.92
7.78
7.59
7.39
7.19
7.03
6.92
6.88
6.89
6.90
6.84
6.67
6.37
5.97
5.52
5.09
4.75
4.54
4.42
4.34
4.23
4.03
3.69
3.26
2.73
2.13
1.44
0.61
-0.40
-1.61
-2.97
-4.39
-5.76
-7.02
-8.21
-9.44
-10.86
-12.50
-14.28
-15.90
-16.97
-17.13
-16.19
-14.20
-11.40
-8.17
-4.86
-1.78
0.88
3.02
4.63
5.76
6.53
7.07
7.49
7.84
8.09
8.20
8.14
7.91
7.58
7.23
6.93
6.71
6.57
6.52
6.61
6.89
7.39
8.07
8.76
9.27
9.38
9.03
8.32
7.43
6.59
5.91
5.39
4.91
4.34
3.63
2.81
2.01
1.32
0.78
0.34
-0.10
-0.65
-1.37
-2.29
-3.36
-4.45
-5.46
-6.33
-7.04
-7.64
-8.25
-8.93
-9.75
-10.76
-11.94
-13.25
-14.55
-15.65
-16.26
-16.11
-15.03
-13.03
-10.30
-7.15
-3.91
-0.84
1.91
4.26
6.21
7.76
8.92
9.68
10.02
9.96
9.55
8.92
8.23
7.63
7.22
7.01
6.93
6.91
6.89
6.88
6.95
7.13
7.43
7.74
7.93
7.86
7.48
6.80
5.95
5.06
4.28
3.67
3.24
2.91
2.58
2.10
1.40
0.47
-0.57
-1.56
-2.31
-2.73
-2.86
-2.86
-2.90
-3.15
-3.65
-4.40
-5.28
-6.25
-7.22
-8.19
-9.17
-10.23
-11.41
-12.74
-14.17
-15.53
-16.52
-16.87
-16.36
-14.93
-12.70
-9.91
-6.87
-3.90
-1.26
0.89
2.51
3.64
4.41
4.90
5.16
5.19
5.00
4.65
4.27
3.99
3.84
3.78
3.71
3.58
3.43
3.38
3.55
3.97
4.52
5.03
5.34
5.38
5.18
4.80
4.32
3.75
3.12
2.42
1.66
0.82
-0.14
-1.21
-2.38
-3.56
-4.60
-5.41
-5.95
-6.34
-6.74
-7.31
-8.13
-9.14
-10.19
-11.14
-11.97
-12.77
-13.71
-14.94
-16.47
-18.13
-19.58
-20.41
-20.30
-19.05
-16.68
-13.42
-9.59
-5.58
-1.73
1.76
4.78
7.32
9.44
11.21
12.72
14.03
15.16
16.11
16.81
17.17
17.15
16.74
16.03
15.17
14.31
13.59
13.09
12.83
12.76
12.81
12.84
12.73
12.36
11.65
10.59
9.26
7.81
6.37
5.05
3.86
2.73
1.59
0.40
-0.80
-1.92
-2.87
-3.66
-4.35
-5.04
-5.77
-6.50
-7.08
-7.42
-7.52
-7.55
-7.77
-8.39
-9.52
-11.05
-12.74
-14.28
-15.37
-15.80
-15.44
-14.27
-12.37
-9.94
-7.25
-4.62
-2.35
-0.59
0.69
1.68
2.66
3.85
5.31
6.87
8.27
9.26
9.68
9.50
8.79
7.66
6.27
4.81
3.59
2.95
3.17
4.38
6.43
8.90
11.22
12.78
13.15
12.13
9.90
6.92
3.82
1.27
-0.27
-0.64
0.02
1.33
2.84
4.14
4.92
4.93
4.04
2.20
-0.48
-3.69
-6.93
-9.64
-11.33
-11.78
-11.08
-9.61
-7.96
-6.74
-6.49
-7.47
-9.69
-12.86
-16.44
-19.77
-22.19
-23.22
-22.58
-20.30
-16.69
-12.27
-7.67
-3.51
-0.24
1.94
3.08
3.43
3.34
3.14
3.05
3.17
3.53
4.11
4.84
5.64
6.36
6.84
6.96
6.63
5.92
5.01
4.15
3.58
3.46
3.80
4.55
5.56
6.68
7.72
8.49
8.74
8.28
7.04
5.18
3.07
1.20
-0.03
-0.46
-0.28
0.13
0.34
0.08
-0.69
-1.84
-3.20
-4.60
-6.00
-7.38
-8.74
-10.05
-11.26
-12.34
-13.27
-14.03
-14.59
-14.85
-14.68
-13.92
-12.47
-10.32
-7.64
-4.73
-1.94
0.45
2.30
3.65
4.68
5.56
6.40
7.15
7.74
8.09
8.20
8.13
7.97
7.76
7.58
7.52
7.66
8.11
8.90
9.92
10.95
11.74
12.09
11.90
11.20
10.13
8.87
7.64
6.61
5.93
5.63
5.62
5.71
5.70
5.43
4.81
3.90
2.80
1.64
0.53
-0.46
-1.32
-2.02
-2.55
-2.94
-3.20
-3.40
-3.63
-3.95
-4.41
-5.00
-5.70
-6.52
-7.54
-8.89
-10.64
-12.72
-14.81
-16.51
-17.39
-17.18
-15.85
-13.56
-10.62
-7.34
-3.97
-0.78
2.02
4.25
5.84
6.89
7.59
8.18
8.79
9.44
10.06
10.56
10.89
11.09
11.24
11.37
11.44
11.42
11.25
10.99
10.74
10.66
10.85
11.26
11.76
12.16
12.29
12.10
11.67
11.07
10.35
9.48
8.40
7.11
5.71
4.42
3.47
2.94
2.75
2.68
2.47
1.97
1.17
0.19
-0.80
-1.70
-2.41
-2.93
-3.29
-3.60
-4.00
-4.65
-5.68
-7.05
-8.64
-10.21
-11.56
-12.60
-13.40
-14.14
-15.05
-16.28
-17.82
-19.53
-21.08
-22.11
-22.28
-21.39
-19.42
-16.59
-13.29
-9.94
-6.91
-4.45
-2.60
-1.27
-0.25
0.63
1.52
2.48
3.43
4.30
4.99
5.49
5.82
6.04
6.22
6.38
6.60
6.95
7.54
8.45
9.67
11.10
12.55
13.74
14.47
14.61
14.16
13.26
12.10
10.88
9.77
8.85
8.15
7.64
7.26
6.98
6.72
6.42
6.01
5.44
4.64
3.58
2.25
0.68
-1.02
-2.71
-4.24
-5.49
-6.42
-7.11
-7.68
-8.25
-8.91
-9.70
-10.64
-11.80
-13.22
-14.86
-16.52
-17.84
-18.37
-17.77
-15.93
-13.05
-9.56
-6.00
-2.78
-0.08
2.10
3.91
5.49
6.89
8.02
8.73
8.95
8.70
8.15
7.54
7.14
7.05
7.26
7.66
8.10
8.49
8.78
8.99
9.12
9.18
9.11
8.90
8.57
8.19
7.84
7.58
7.42
7.33
7.26
7.15
6.97
6.67
6.23
5.60
4.75
3.67
2.41
1.10
-0.12
-1.11
-1.82
-2.26
-2.51
-2.67
-2.84
-3.09
-3.45
-3.94
-4.56
-5.28
-6.08
-6.88
-7.66
-8.42
-9.22
-10.19
-11.43
-12.95
-14.60
-16.08
-16.97
-16.95
-15.84
-13.72
-10.88
-7.71
-4.58
-1.73
0.70
2.71
4.33
5.61
6.59
7.25
7.56
7.46
6.98
6.24
5.47
4.96
4.90
5.33
6.12
7.01
7.70
8.05
8.01
7.67
7.18
6.65
6.15
5.69
5.28
4.90
4.55
4.25
3.99
3.78
3.59
3.40
3.24
3.13
3.09
3.11
3.09
2.90
2.37
1.43
0.16
-1.29
-2.66
-3.78
-4.58
-5.16
-5.67
-6.30
-7.11
-8.10
-9.16
-10.16
-10.98
-11.62
-12.13
-12.66
-13.34
-14.27
-15.39
-16.51
-17.32
-17.53
-16.89
-15.33
-12.93
-9.89
-6.50
-3.11
-0.06
2.37
3.98
4.76
4.86
4.61
4.35
4.33
4.64
5.20
5.87
6.48
6.94
7.21
7.31
7.30
7.24
7.17
7.14
7.18
7.28
7.43
7.60
7.72
7.75
7.64
7.36
6.90
6.28
5.54
4.78
4.06
3.44
2.92
2.43
1.91
1.32
0.69
0.08
-0.43
-0.86
-1.27
-1.80
-2.57
-3.60
-4.80
-5.99
-6.97
-7.69
-8.20
-8.67
-9.29
-10.22
-11.50
-13.10
-14.82
-16.42
-17.57
-17.94
-17.29
-15.57
-12.90
-9.64
-6.22
-3.02
-0.30
1.89
3.63
5.04
6.17
7.04
7.58
7.80
7.72
7.45
7.13
6.86
6.73
6.74
6.88
7.12
7.41
7.74
8.09
8.44
8.75
8.96
8.99
8.78
8.35
7.80
7.29
6.93
6.74
6.62
6.40
5.96
5.27
4.45
3.66
3.03
2.58
2.23
1.84
1.25
0.46
-0.48
-1.41
-2.21
-2.82
-3.31
-3.80
-4.46
-5.38
-6.56
-7.91
-9.26
-10.47
-11.47
-12.28
-13.01
-13.80
-14.74
-15.84
-17.00
-18.06
-18.82
-19.11
-18.81
-17.82
-16.13
-13.81
-10.98
-7.92
-4.94
-2.34
-0.30
1.17
2.20
2.97
3.60
4.15
4.58
4.89
5.14
5.45
5.94
6.69
7.64
8.70
9.75
10.72
11.60
12.43
13.19
13.85
14.33
14.58
14.58
14.33
13.85
13.16
12.27
11.22
10.10
9.01
8.06
7.29
6.68
6.17
5.67
5.08
4.37
3.52
2.61
1.71
0.93
0.34
-0.07
-0.35
-0.61
-1.02
-1.67
-2.62
-3.80
-5.12
-6.42
-7.59
-8.60
-9.52
-10.48
-11.66
-13.15
-14.90
-16.72
-18.24
-19.08
-18.92
-17.67
-15.47
-12.60
-9.44
-6.30
-3.39
-0.81
1.41
3.28
4.80
5.96
6.80
7.36
7.69
7.87
7.97
8.07
8.16
8.19
8.08
7.78
7.34
6.91
6.70
6.86
7.38
8.05
8.62
8.87
8.79
8.54
8.34
8.27
8.24
8.03
7.48
6.56
5.47
4.45
3.69
3.17
2.74
2.20
1.49
0.65
-0.17
-0.84
-1.33
-1.73
-2.20
-2.85
-3.74
-4.81
-5.96
-7.02
-7.90
-8.55
-9.02
-9.43
-9.88
-10.47
-11.22
-12.12
-13.19
-14.43
-15.80
-17.12
-18.09
-18.33
-17.56
-15.69
-12.93
-9.69
-6.44
-3.54
-1.11
0.86
2.52
3.96
5.24
6.31
7.09
7.54
7.67
7.56
7.31
7.05
6.84
6.74
6.75
6.86
7.11
7.53
8.14
8.91
9.72
10.37
10.69
10.57
10.02
9.16
8.14
7.13
6.21
5.44
4.80
4.26
3.77
3.26
2.68
2.01
1.24
0.40
-0.50
-1.43
-2.36
-3.27
-4.13
-4.91
-5.66
-6.45
-7.34
-8.37
-9.53
-10.80
-12.19
-13.71
-15.38
-17.13
-18.78
-20.06
-20.69
-20.46
-19.26
-17.17
-14.41
-11.28
-8.12
-5.22
-2.79
-0.92
0.40
1.26
1.80
2.17
2.49
2.86
3.30
3.78
4.22
4.57
4.84
5.08
5.40
5.90
6.57
7.36
8.15
8.83
9.37
9.78
10.08
10.32
10.47
10.47
10.28
9.86
9.30
8.69
8.19
7.90
7.82
7.90
8.01
8.01
7.82
7.44
6.90
6.27
5.58
4.81
3.94
2.90
1.71
0.43
-0.82
-1.93
-2.85
-3.60
-4.29
-5.11
-6.22
-7.73
-9.71
-12.09
-14.72
-17.36
-19.72
-21.51
-22.50
-22.67
-22.13
-21.17
-20.11
-19.25
-18.77
-18.70
-18.97
-19.45
-20.05
-20.69
-21.35
-22.04
-22.80
-23.64
-24.53
-25.35
-25.84
-25.67
-24.44
-21.80
-17.48
-11.32
-3.37
6.12
16.66
27.56
37.96
46.95
53.73
57.73
58.71
56.85
52.68
46.98
40.63
34.36
28.67
23.73
19.47
15.75
12.41
9.43
6.73
4.13
1.31
-2.03
-6.09
-10.77
-15.65
-20.22
-24.02
-26.94
-29.18
-31.19
-33.46
-36.33
-39.94
-44.20
-48.80
-53.18
-56.56
-58.04
-56.80
-52.40
-45.01
-35.34
-24.34
-12.81
-1.09
10.85
23.14
35.53
47.22
57.02
63.80
66.99
66.89
64.56
61.45
58.92
57.93
58.82
61.47
65.43
70.14
75.04
79.56
83.17
85.36
85.76
84.31
81.26
77.13
72.57
68.02
63.65
59.27
54.52
49.04
42.64
35.39
27.55
19.51
11.65
4.27
-2.43
-8.44
-13.84
-18.81
-23.52
-28.08
-32.51
-36.78
-40.78
-44.35
-47.35
-49.59
-50.97
-51.47
-51.18
-50.24
-48.81
-47.04
-45.04
-42.88
-40.64
-38.42
-36.31
-34.43
-32.86
-31.63
-30.71
-29.95
-29.19
-28.28
-27.15
-25.86
-24.50
-23.17
-21.90
-20.60
-19.22
-17.78
-16.48
-15.65
-15.65
-16.79
-19.19
-22.81
-27.53
-33.12
-39.40
-46.13
-53.07
-59.96
-66.56
-72.66
-78.07
-82.64
-86.18
-88.46
-89.16
-88.05
-85.00
-80.20
-74.09
-67.30
-60.48
-54.02
-47.91
-41.68
-34.56
-25.81
-14.98
-2.17
11.96
26.43
40.31
53.03
64.56
75.19
85.26
94.85
103.65
111.14
116.80
120.35
121.84
121.45
119.40
115.79
110.72
104.35
97.05
89.30
81.62
74.32
67.50
61.08
54.98
49.31
44.47
41.04
39.68
40.85
44.65
50.85
58.92
68.18
77.83
86.90
94.18
98.22
97.51
90.87
77.77
58.58
34.56
7.59
-20.24
-46.96
-71.05
-91.50
-107.84
-120.05
-128.51
-133.87
-136.91
-138.35
-138.77
-138.56
-137.89
-136.87
-135.53
-133.93
-132.10
-130.15
-128.11
-125.94
-123.38
-119.88
-114.59
-106.51
-94.69
-78.53
-58.04
-33.83
-7.11
20.50
47.15
71.09
90.91
105.94
116.33
122.91
126.70
128.31
127.56
123.58
115.41
102.74
86.34
67.90
49.39
32.24
17.03
3.62
-8.34
-19.13
-28.92
-38.05
-46.89
-55.52
-63.22
-68.28
-68.55
-62.48
-50.13
-33.50
-15.83
-0.24
11.43
19.11
24.08
27.96
32.00
36.69
42.09
48.15
55.07
63.21
72.91
84.28
97.08
110.77
124.69
138.17
150.67
161.71
170.70
176.91
179.39
177.14
169.49
156.37
138.49
117.24
94.27
71.07
48.53
26.89
5.92
-14.78
-35.49
-56.24
-76.84
-96.83
-115.52
-131.94
-144.98
-153.62
-157.24
-156.04
-151.08
-144.13
-137.17
-131.77
-128.56
-127.04
-125.76
-122.98
-117.40
-108.73
-97.88
-86.60
-76.84
-70.09
-66.99
-67.40
-70.66
-76.02
-82.70
-89.86
-96.56
-101.79
-104.74
-105.12
-103.23
-99.66
-94.84
-88.63
-80.34
-69.16
-54.83
-37.99
-20.12
-3.02
11.80
23.55
32.16
38.04
41.68
43.54
44.03
43.50
42.26
40.35
37.54
33.42
27.67
20.43
12.50
5.34
0.74
0.50
5.85
17.17
33.70
53.71
74.77
94.42
110.69
122.50
129.84
133.53
134.94
135.68
137.18
140.22
144.52
148.38
148.93
142.96
128.20
104.50
74.31
42.05
12.72
-9.78
-23.70
-29.57
-29.50
-26.05
-21.36
-16.81
-13.22
-11.12
-10.88
-12.65
-16.09
-20.32
-24.16
-26.60
-27.23
-26.42
-25.04
-24.01
-23.86
-24.60
-25.84
-27.16
-28.31
-29.30
-30.26
-31.32
-32.57
-34.10
-36.19
-39.34
-44.28
-51.83
-62.69
-77.17
-94.90
-114.60
-134.15
-150.93
-162.46
-167.13
-164.62
-155.94
-142.98
-127.69
-111.41
-94.55
-76.73
-57.32
-35.93
-12.72
11.64
36.34
60.72
84.37
107.05
128.46
148.08
165.28
179.52
190.52
198.36
203.30
205.52
204.95
201.24
193.94
182.66
167.32
148.27
126.46
103.45
81.26
62.02
47.35
37.88
32.96
30.97
29.90
28.16
25.04
20.81
16.23
12.00
8.33
4.84
0.98
-3.62
-8.85
-14.14
-18.81
-22.24
-24.28
-25.08
-24.98
-24.17
-22.58
-19.93
-16.00
-10.88
-5.05
0.77
5.86
9.77
12.30
13.44
13.07
11.07
7.41
2.46
-3.04
-8.06
-11.84
-14.15
-15.52
-16.87
-19.01
-22.20
-26.04
-29.79
-32.83
-35.08
-36.99
-39.27
-42.43
-46.55
-51.19
-55.60
-58.97
-60.77
-60.90
-59.71
-57.90
-56.32
-55.63
-56.20
-57.84
-59.82
-60.99
-60.08
-55.96
-47.90
-35.86
-20.67
-4.14
11.15
22.41
27.42
25.35
16.98
4.57
-8.91
-20.65
-28.77
-32.62
-32.81
-31.04
-29.78
-31.95
-40.14
-55.73
-77.93
-103.43
-126.82
-142.18
-144.89
-133.15
-108.71
-76.32
-42.47
-13.62
5.50
13.05
10.48
1.86
-7.72
-14.05
-15.29
-12.25
-7.46
-3.52
-1.71
-1.76
-2.46
-2.82
-2.68
-2.44
-2.27
-1.51
1.37
7.89
18.66
32.80
48.20
62.24
72.79
78.74
80.11
77.77
72.94
66.80
60.34
54.21
48.75
44.01
39.84
36.01
32.28
28.51
24.70
20.99
17.58
14.79
12.85
11.75
10.96
9.45
5.90
-0.84
-11.07
-23.96
-37.68
-49.90
-58.37
-61.37
-58.23
-49.66
-37.85
-25.98
-17.30
-13.75
-15.08
-18.87
-21.70
-20.92
-16.04
-8.85
-2.31
1.22
1.21
-0.94
-2.95
-3.04
-0.72
3.32
8.05
13.00
18.60
25.96
36.38
50.76
69.46
92.35
118.82
147.47
175.83
200.42
217.32
223.37
217.25
200.08
174.91
145.59
115.42
86.36
59.06
33.42
9.19
-13.74
-35.36
-55.75
-75.08
-93.37
-110.42
-125.79
-138.97
-149.56
-157.39
-162.36
-164.21
-162.35
-155.90
-144.12
-126.84
-104.87
-80.04
-54.96
-32.29
-14.14
-1.56
5.59
8.36
8.26
6.83
5.21
4.09
3.63
3.62
3.58
2.89
0.96
-2.64
-8.01
-14.83
-22.42
-29.90
-36.42
-41.42
-44.68
-46.26
-46.33
-44.94
-41.97
-37.17
-30.39
-21.70
-11.56
-0.79
9.62
18.68
25.66
30.20
32.40
32.65
31.58
29.76
27.60
25.30
22.88
20.29
17.48
14.42
11.09
7.48
3.55
-0.69
-5.14
-9.60
-13.81
-17.41
-19.89
-20.67
-19.09
-14.59
-6.96
3.47
15.80
28.69
40.77
50.95
58.64
63.68
66.05
65.71
62.49
56.34
47.54
36.97
25.97
15.96
7.96
2.21
-1.93
-5.68
-10.31
-16.61
-24.58
-33.43
-41.86
-48.52
-52.34
-52.79
-49.81
-43.70
-35.03
-24.48
-12.86
-0.96
10.45
20.79
29.65
36.82
42.22
45.83
47.65
47.70
46.05
42.79
37.97
31.64
23.85
14.82
4.93
-5.08
-14.31
-21.77
-26.71
-28.71
-27.91
-24.91
-20.70
-16.39
-12.93
-10.88
-10.37
-11.06
-12.35
-13.60
-14.34
-14.33
-13.61
-12.39
-10.87
-9.19
-7.44
-5.66
-3.94
-2.38
-1.10
-0.17
0.44
0.82
1.08
1.31
1.45
1.37
0.87
-0.22
-1.95
-4.25
-6.90
-9.61
-12.12
-14.21
-15.75
-16.70
-17.04
-16.79
-15.99
-14.77
-13.36
-12.05
-11.16
-10.90
-11.32
-12.28
-13.58
-15.01
-16.49
-18.08
-19.88
-22.00
-24.39
-26.91
-29.32
-31.36
-32.83
-33.58
-33.49
-32.46
-30.40
-27.25
-23.11
-18.20
-12.92
-7.77
-3.17
0.59
3.44
5.51
7.05
8.28
9.37
10.38
11.25
11.87
12.00
11.27
9.19
5.36
-0.32
-7.38
-14.79
-21.18
-25.33
-26.52
-24.79
-20.84
-15.68
-10.28
-5.25
-0.84
2.98
6.37
9.47
12.44
15.43
18.56
21.91
25.47
29.12
32.70
36.03
39.00
41.56
43.79
45.83
47.89
50.26
53.17
56.72
60.76
64.79
68.08
69.85
69.53
66.91
62.16
55.77
48.38
40.64
33.13
26.29
20.36
15.38
11.14
7.29
3.46
-0.51
-4.58
-8.50
-11.96
-14.86
-17.36
-19.85
-22.76
-26.33
-30.30
-34.00
-36.42
-36.65
-34.25
-29.50
-23.42
-17.48
-13.10
-11.10
-11.22
-12.01
-11.18
-6.39
3.77
18.91
36.62
52.89
63.24
64.15
54.10
34.12
7.49
-21.15
-47.14
-67.08
-79.79
-86.42
-89.72
-92.72
-97.34
-103.57
-109.55
-112.64
-110.72
-103.05
-90.42
-74.51
-57.04
-39.22
-21.78
-5.29
9.44
21.48
30.14
35.41
38.12
39.72
41.60
44.52
48.26
51.83
53.91
53.50
50.30
44.79
38.05
31.24
25.27
20.46
16.64
13.31
10.01
6.52
2.94
-0.46
-3.46
-6.00
-8.21
-10.28
-12.44
-14.75
-17.23
-19.79
-22.25
-24.40
-25.95
-26.63
-26.31
-25.04
-23.06
-20.71
-18.28
-15.96
-13.73
-11.45
-8.92
-6.00
-2.67
0.91
4.48
7.78
10.58
12.74
14.07
14.37
13.43
11.25
8.17
4.90
2.28
0.91
0.77
1.20
1.18
-0.19
-3.29
-7.87
-13.29
-18.85
-24.06
-28.69
-32.58
-35.54
-37.32
-37.71
-36.66
-34.43
-31.40
-27.96
-24.26
-20.22
-15.61
-10.24
-4.10
2.61
9.57
16.40
22.82
28.62
33.73
38.18
42.09
45.65
49.03
52.29
55.33
57.92
59.80
60.93
61.46
61.82
62.41
63.41
64.54
65.03
63.80
59.69
51.83
39.92
24.33
6.23
-12.57
-29.85
-43.38
-51.46
-53.28
-49.22
-40.76
-30.01
-19.23
-10.20
-3.98
-0.83
-0.42
-2.03
-4.79
-7.81
-10.30
-11.66
-11.62
-10.22
-7.81
-4.87
-1.88
0.78
2.88
4.31
4.99
4.96
4.31
3.20
1.87
0.51
-0.73
-1.81
-2.71
-3.43
-3.97
-4.28
-4.33
-4.11
-3.72
-3.27
-2.94
-2.81
-2.88
-3.06
-3.20
-3.22
-3.15
-3.15
-3.42
-4.11
-5.21
-6.64
-8.23
-9.90
-11.63
-13.46
-15.39
-17.26
-18.81
-19.68
-19.50
-18.10
-15.46
-11.75
-7.30
-2.45
2.45
7.14
11.40
15.03
17.85
19.73
20.62
20.62
20.00
19.10
18.20
17.44
16.80
16.13
15.31
14.29
13.19
12.15
11.28
10.55
9.86
9.03
7.92
6.50
4.79
2.88
0.86
-1.21
-3.28
-5.30
-7.24
-9.07
-10.82
-12.58
-14.47
-16.67
-19.26
-22.21
-25.29
-28.15
-30.43
-31.84
-32.29
-31.86
-30.74
-29.15
-27.30
-25.39
-23.63
-22.28
-21.58
-21.65
-22.45
-23.69
-24.98
-25.94
-26.41
-26.45
-26.29
-26.13
-25.97
-25.59
-24.66
-22.86
-19.98
-15.91
-10.64
-4.25
2.94
10.31
16.97
21.98
24.68
24.91
23.05
19.75
15.58
10.87
5.70
0.12
-5.59
-10.82
-14.71
-16.39
-15.28
-11.39
-5.41
1.39
7.62
12.25
15.17
17.27
20.26
26.12
36.30
51.26
70.09
90.76
110.57
127.00
138.40
144.41
145.91
144.42
141.39
137.47
132.39
125.14
114.58
99.98
81.36
59.54
35.93
12.28
-9.62
-28.28
-42.88
-53.42
-60.76
-66.25
-71.31
-76.92
-83.44
-90.71
-98.29
-105.71
-112.70
-119.18
-125.27
-131.13
-136.76
-141.82
-145.50
-146.61
-143.95
-136.79
-125.20
-110.16
-93.22
-76.02
-59.86
-45.42
-32.94
-22.37
-13.59
-6.41
-0.44
4.98
10.66
17.21
24.72
32.67
40.11
46.03
49.82
51.48
51.57
50.94
50.32
50.13
50.30
50.52
50.37
49.61
48.22
46.39
44.40
42.47
40.72
39.11
37.53
35.90
34.21
32.51
30.90
29.46
28.21
27.12
26.15
25.33
24.75
24.66
25.40
27.35
30.83
35.99
42.71
50.58
58.86
66.67
73.24
78.13
81.43
83.69
85.63
87.64
89.47
90.21
88.51
83.16
73.55
59.88
43.07
24.43
5.29
-13.17
-29.96
-44.29
-55.51
-63.27
-67.56
-68.77
-67.61
-64.98
-61.76
-58.63
-55.99
-53.92
-52.29
-50.89
-49.55
-48.24
-47.04
-46.09
-45.46
-45.19
-45.24
-45.57
-46.18
-47.02
-48.00
-48.80
-49.03
-48.24
-46.14
-42.68
-38.05
-32.59
-26.66
-20.55
-14.49
-8.62
-3.11
1.85
6.13
9.68
12.57
14.90
16.80
18.31
19.43
20.10
20.28
20.00
19.37
18.58
17.83
17.28
17.03
17.08
17.37
17.76
18.08
18.14
17.76
16.85
15.38
13.48
11.34
9.19
7.18
5.36
3.63
1.81
-0.23
-2.52
-4.94
-7.29
-9.40
-11.22
-12.83
-14.45
-16.33
-18.65
-21.49
-24.73
-28.07
-31.01
-33.00
-33.51
-32.25
-29.25
-24.85
-19.63
-14.16
-8.85
-3.91
0.67
4.97
9.02
12.75
16.06
18.81
20.98
22.60
23.74
24.48
24.88
24.98
24.83
24.52
24.18
23.90
23.78
23.83
24.05
24.35
24.66
24.85
24.79
24.36
23.54
22.39
21.09
19.82
18.68
17.65
16.54
15.18
13.44
11.39
9.21
7.16
5.43
4.00
2.74
1.39
-0.24
-2.25
-4.53
-6.90
-9.14
-11.10
-12.74
-14.12
-15.43
-16.91
-18.81
-21.27
-24.26
-27.52
-30.58
-32.84
-33.82
-33.23
-31.04
-27.51
-23.01
-17.94
-12.66
-7.44
-2.47
2.07
6.11
9.61
12.63
15.24
17.50
19.41
20.88
21.82
22.19
22.07
21.65
21.16
20.82
20.73
20.88
21.19
21.56
21.92
22.24
22.46
22.56
22.48
22.21
21.74
21.12
20.35
19.42
18.31
17.05
15.67
14.24
12.84
11.46
10.08
8.67
7.20
5.69
4.19
2.73
1.32
-0.08
-1.52
-3.05
-4.72
-6.52
-8.42
-10.36
-12.31
-14.21
-16.05
-17.87
-19.71
-21.65
-23.74
-26.04
-28.59
-31.31
-33.97
-36.14
-37.28
-36.88
-34.68
-30.76
-25.53
-19.61
-13.61
-8.00
-2.97
1.42
5.24
8.56
11.43
13.90
15.98
17.71
19.08
20.06
20.62
20.75
20.54
20.10
19.57
19.03
18.53
18.10
17.75
17.51
17.45
17.54
17.73
17.87
17.80
17.43
16.76
15.89
14.90
13.91
12.96
12.06
11.17
10.27
9.31
8.28
7.19
6.05
4.92
3.84
2.81
1.80
0.75
-0.39
-1.63
-2.96
-4.35
-5.82
-7.38
-9.02
-10.67
-12.23
-13.62
-14.84
-16.05
-17.48
-19.38
-21.81
-24.61
-27.38
-29.56
-30.61
-30.13
-27.99
-24.36
-19.62
-14.24
-8.71
-3.36
1.57
5.97
9.80
13.05
15.76
18.00
19.81
21.26
22.43
23.36
24.11
24.66
25.02
25.14
25.06
24.86
24.68
24.69
25.01
25.64
26.43
27.10
27.30
26.75
25.30
22.99
20.07
16.88
13.80
11.06
8.73
6.74
4.90
3.07
1.07
-1.26
-4.12
-7.65
-11.80
-16.26
-20.50
-23.91
-26.02
-26.60
-25.63
-23.27
-19.73
-15.28
-10.21
-4.92
0.10
4.29
7.04
7.75
5.89
1.18
-6.28
-15.99
-27.16
-38.97
-50.86
-62.53
-73.80
-84.23
-93.02
-99.10
-101.58
-100.11
-95.09
-87.39
-78.02
-67.70
-56.71
-45.09
-32.91
-20.48
-8.34
2.84
12.50
20.20
25.72
28.95
29.99
29.10
26.66
23.20
19.21
15.13
11.33
8.14
5.79
4.35
3.71
3.60
3.69
3.80
4.02
4.59
5.74
7.40
9.14
10.33
10.40
9.15
6.85
4.13
1.67
-0.02
-0.72
-0.47
0.63
2.43
4.81
7.62
10.58
13.28
15.28
16.19
15.86
14.35
11.90
8.87
5.57
2.28
-0.77
-3.33
-5.15
-5.98
-5.64
-4.10
-1.51
1.79
5.44
9.05
12.33
15.13
17.35
19.02
20.17
20.88
21.25
21.39
21.38
21.31
21.22
21.11
20.93
20.62
20.19
19.67
19.16
18.81
18.73
18.97
19.42
19.88
20.11
19.95
19.36
18.43
17.31
16.11
14.85
13.47
11.93
10.22
8.46
6.75
5.19
3.77
2.44
1.11
-0.30
-1.80
-3.37
-4.93
-6.43
-7.80
-9.00
-10.04
-11.00
-12.00
-13.21
-14.75
-16.69
-18.99
-21.50
-23.95
-26.00
-27.25
-27.38
-26.21
-23.81
-20.42
-16.45
-12.34
-8.44
-4.98
-2.03
0.45
2.58
4.48
6.25
7.89
9.34
10.53
11.39
11.98
12.39
12.75
13.11
13.43
13.60
13.52
13.16
12.59
11.99
11.52
11.30
11.36
11.62
11.91
12.06
11.94
11.52
10.87
10.10
9.27
8.37
7.36
6.19
4.93
3.68
2.59
1.70
0.96
0.23
-0.66
-1.78
-3.09
-4.51
-5.95
-7.39
-8.84
-10.33
-11.81
-13.21
-14.49
-15.68
-16.93
-18.44
-20.34
-22.52
-24.63
-26.19
-26.68
-25.80
-23.53
-20.11
-15.96
-11.53
-7.19
-3.22
0.22
3.04
5.24
6.92
8.20
9.28
10.29
11.32
12.33
13.24
13.91
14.24
14.21
13.88
13.41
13.00
12.81
12.92
13.29
13.80
14.27
14.53
14.46
14.05
13.35
12.51
11.69
11.00
10.47
10.04
9.58
8.96
8.15
7.18
6.16
5.19
4.31
3.51
2.72
1.87
0.90
-0.25
-1.60
-3.17
-4.89
-6.65
-8.31
-9.74
-10.94
-12.03
-13.23
-14.76
-16.71
-19.05
-21.51
-23.72
-25.23
-25.67
-24.84
-22.74
-19.61
-15.77
-11.63
-7.54
-3.75
-0.46
2.23
4.31
5.84
7.00
8.01
9.06
10.22
11.40
12.39
13.02
13.16
12.89
12.38
11.86
11.52
11.47
11.69
12.12
12.64
13.10
13.37
13.38
13.12
12.65
12.08
11.48
10.87
10.23
9.48
8.61
7.58
6.45
5.26
4.03
2.78
1.52
0.28
-0.88
-1.92
-2.82
-3.62
-4.43
-5.36
-6.45
-7.73
-9.11
-10.56
-12.07
-13.71
-15.57
-17.65
-19.84
-21.88
-23.41
-24.07
-23.63
-22.04
-19.43
-16.09
-12.35
-8.54
-4.90
-1.57
1.41
4.00
6.18
7.88
9.09
9.87
10.35
10.70
11.03
11.36
11.61
11.73
11.70
11.60
11.51
11.45
11.40
11.32
11.17
11.01
10.89
10.83
10.79
10.68
10.43
10.04
9.55
8.98
8.33
7.56
6.65
5.62
4.55
3.50
2.51
1.57
0.66
-0.26
-1.18
-2.11
-3.13
-4.25
-5.54
-6.95
-8.38
-9.70
-10.84
-11.85
-12.79
-13.80
-14.97
-16.38
-18.03
-19.85
-21.65
-23.13
-23.92
-23.72
-22.37
-19.95
-16.76
-13.15
-9.46
-5.93
-2.67
0.21
2.66
4.63
6.10
7.12
7.83
8.37
8.87
9.37
9.84
10.23
10.48
10.60
10.60
10.53
10.45
10.42
10.43
10.50
10.60
10.69
10.74
10.68
10.47
10.07
9.47
8.70
7.82
6.93
6.13
5.46
4.89
4.30
3.57
2.65
1.54
0.32
-0.88
-1.99
-2.98
-3.88
-4.74
-5.62
-6.55
-7.54
-8.56
-9.62
-10.67
-11.72
-12.79
-13.93
-15.20
-16.68
-18.35
-20.12
-21.73
-22.84
-23.06
-22.13
-20.01
-16.91
-13.26
-9.54
-6.14
-3.25
-0.86
1.14
2.86
4.35
5.58
6.53
7.23
7.74
8.13
8.44
8.61
8.64
8.52
8.32
8.13
8.06
8.13
8.30
8.52
8.72
8.90
9.02
9.05
8.92
8.59
8.04
7.32
6.51
5.71
5.00
4.39
3.85
3.31
2.65
1.84
0.89
-0.13
-1.13
-2.05
-2.92
-3.79
-4.74
-5.79
-6.88
-7.91
-8.84
-9.70
-10.64
-11.85
-13.45
-15.45
-17.67
-19.81
-21.44
-22.18
-21.74
-20.06
-17.32
-13.91
-10.27
-6.82
-3.81
-1.32
0.72
2.43
3.93
5.27
6.44
7.40
8.10
8.52
8.69
8.69
8.60
8.51
8.49
8.56
8.68
8.80
8.87
8.87
8.81
8.69
8.54
8.34
8.09
7.78
7.42
7.02
6.61
6.16
5.66
5.07
4.38
3.61
2.81
2.00
1.17
0.30
-0.66
-1.72
-2.87
-4.09
-5.32
-6.55
-7.76
-8.90
-9.96
-10.89
-11.70
-12.46
-13.31
-14.40
-15.84
-17.61
-19.60
-21.53
-23.02
-23.65
-23.10
-21.23
-18.17
-14.29
-10.12
-6.17
-2.78
-0.05
2.09
3.82
5.28
6.51
7.50
8.25
8.79
9.20
9.53
9.77
9.91
9.95
9.93
9.98
10.18
10.57
11.10
11.62
11.97
12.06
11.89
11.51
11.03
10.53
10.04
9.54
8.96
8.28
7.54
6.81
6.15
5.60
5.09
4.52
3.81
2.95
2.01
1.08
0.24
-0.55
-1.37
-2.32
-3.42
-4.65
-5.86
-6.95
-7.87
-8.62
-9.32
-10.07
-11.02
-12.27
-13.90
-15.94
-18.31
-20.80
-23.11
-24.85
-25.67
-25.32
-23.74
-21.09
-17.67
-13.84
-9.96
-6.28
-3.00
-0.19
2.16
4.09
5.68
6.98
8.03
8.85
9.45
9.90
10.23
10.54
10.83
11.11
11.34
11.49
11.56
11.64
11.81
12.14
12.57
12.99
13.24
13.21
12.90
12.39
11.79
11.20
10.66
10.14
9.60
8.99
8.30
7.53
6.67
5.69
4.59
3.40
2.20
1.07
0.07
-0.79
-1.59
-2.41
-3.32
-4.34
-5.42
-6.52
-7.62
-8.75
-9.94
-11.23
-12.63
-14.10
-15.64
-17.23
-18.85
-20.38
-21.60
-22.18
-21.78
-20.21
-17.50
-13.97
-10.07
-6.28
-2.95
-0.21
2.00
3.81
5.36
6.71
7.82
8.64
9.13
9.33
9.32
9.24
9.18
9.20
9.29
9.40
9.49
9.56
9.64
9.81
10.12
10.54
10.96
11.18
11.05
10.51
9.64
8.65
7.76
7.07
6.55
6.03
5.38
4.51
3.52
2.56
1.77
1.19
0.72
0.21
-0.46
-1.33
-2.36
-3.45
-4.52
-5.57
-6.64
-7.77
-8.99
-10.33
-11.76
-13.31
-14.94
-16.60
-18.11
-19.23
-19.67
-19.20
-17.76
-15.48
-12.62
-9.52
-6.48
-3.66
-1.12
1.17
3.23
5.04
6.55
7.68
8.39
8.72
8.80
8.81
8.88
9.07
9.34
9.53
9.54
9.35
9.03
8.78
8.74
8.94
9.29
9.62
9.78
9.71
9.45
9.06
8.60
8.10
7.55
6.95
6.29
5.58
4.80
3.92
2.92
1.84
0.74
-0.28
-1.14
-1.84
-2.41
-2.94
-3.50
-4.15
-4.94
-5.86
-6.94
-8.16
-9.49
-10.87
-12.28
-13.73
-15.27
-16.95
-18.70
-20.30
-21.36
-21.48
-20.41
-18.15
-14.96
-11.33
-7.73
-4.52
-1.87
0.25
1.94
3.36
4.64
5.83
6.94
7.96
8.83
9.53
10.04
10.36
10.50
10.49
10.37
10.20
10.05
9.98
10.04
10.22
10.49
10.79
11.04
11.16
11.11
10.85
10.39
9.74
8.95
8.06
7.12
6.20
5.35
4.60
3.93
3.32
2.69
2.02
1.29
0.51
-0.31
-1.17
-2.10
-3.13
-4.21
-5.29
-6.34
-7.34
-8.34
-9.41
-10.57
-11.77
-13.00
-14.26
-15.62
-17.10
-18.67
-20.09
-21.01
-21.07
-20.05
-17.91
-14.90
-11.38
-7.71
-4.24
-1.16
1.40
3.44
4.96
6.05
6.80
7.30
7.65
7.93
8.21
8.50
8.82
9.14
9.39
9.53
9.52
9.37
9.15
8.94
8.77
8.67
8.61
8.54
8.44
8.27
8.03
7.69
7.23
6.61
5.84
4.91
3.84
2.68
1.50
0.35
-0.71
-1.65
-2.46
-3.16
-3.80
-4.42
-5.08
-5.88
-6.86
-8.03
-9.38
-10.80
-12.21
-13.60
-15.01
-16.52
-18.19
-19.92
-21.45
-22.44
-22.51
-21.47
-19.31
-16.28
-12.79
-9.30
-6.13
-3.46
-1.25
0.68
2.46
4.19
5.83
7.33
8.60
9.65
10.47
11.04
11.32
11.28
10.92
10.37
9.83
9.49
9.51
9.87
10.41
10.94
11.20
11.08
10.51
9.57
8.35
6.98
5.55
4.12
2.70
1.26
-0.24
-1.89
-3.72
-5.77
-8.01
-10.35
-12.71
-14.99
-17.13
-19.03
-20.63
-21.83
-22.58
-22.90
-22.87
-22.61
-22.24
-21.89
-21.66
-21.65
-21.96
-22.61
-23.53
-24.49
-25.12
-25.01
-23.81
-21.36
-17.78
-13.48
-8.98
-4.80
-1.32
1.38
3.47
5.25
6.99
8.87
10.87
12.91
14.90
16.85
18.87
21.16
23.96
27.48
31.83
36.99
42.67
48.39
53.50
57.40
59.72
60.43
59.85
58.39
56.33
53.71
50.34
46.01
40.63
34.35
27.45
20.31
13.24
6.53
0.44
-4.76
-8.86
-11.81
-13.76
-15.05
-16.05
-17.08
-18.35
-19.95
-21.95
-24.46
-27.70
-31.90
-37.19
-43.44
-50.04
-55.95
-59.90
-60.83
-58.42
-53.29
-46.79
-40.48
-35.48
-32.07
-29.75
-27.68
-25.21
-22.17
-18.90
-15.79
-13.04
-10.54
-7.98
-5.15
-2.13
0.77
3.17
4.88
6.06
7.14
8.66
10.98
14.14
17.79
21.36
24.27
26.11
26.74
26.26
24.87
22.83
20.34
17.59
14.77
12.08
9.68
7.69
6.16
5.03
4.21
3.54
2.88
2.10
1.09
-0.19
-1.71
-3.40
-5.16
-6.94
-8.70
-10.43
-12.10
-13.59
-14.71
-15.23
-14.98
-13.92
-12.10
-9.67
-6.85
-3.85
-0.85
1.93
4.33
6.19
7.49
8.24
8.58
8.64
8.60
8.59
8.70
8.99
9.48
10.10
10.73
11.17
11.23
10.78
9.81
8.40
6.82
5.35
4.28
3.76
3.74
4.07
4.50
4.84
4.99
4.91
4.58
3.93
2.91
1.53
-0.05
-1.56
-2.72
-3.43
-3.78
-4.10
-4.79
-6.18
-8.42
-11.46
-15.03
-18.73
-22.01
-24.31
-25.12
-24.12
-21.33
-17.09
-12.00
-6.79
-2.06
1.72
4.40
6.08
6.99
7.49
7.88
8.39
9.14
10.12
11.23
12.21
12.84
12.86
12.23
11.05
9.67
8.50
7.92
8.15
9.14
10.65
12.29
13.67
14.42
14.30
13.21
11.28
8.82
6.31
4.20
2.80
2.20
2.15
2.29
2.18
1.57
0.37
-1.26
-3.09
-4.89
-6.48
-7.82
-8.95
-9.99
-11.10
-12.40
-13.93
-15.59
-17.09
-17.99
-17.89
-16.55
-14.02
-10.67
-6.98
-3.40
-0.19
2.57
4.90
6.84
8.38
9.55
10.40
11.09
11.73
12.39
12.97
13.29
13.16
12.53
11.54
10.49
9.73
9.49
9.85
10.65
11.66
12.58
13.15
13.22
12.73
11.71
10.27
8.61
6.98
5.61
4.66
4.18
4.02
3.92
3.62
2.92
1.80
0.38
-1.12
-2.47
-3.52
-4.27
-4.82
-5.34
-5.98
-6.81
-7.86
-9.12
-10.59
-12.27
-14.09
-15.94
-17.56
-18.62
-18.82
-17.95
-16.00
-13.19
-9.85
-6.39
-3.12
-0.23
2.21
4.21
5.83
7.09
8.02
8.72
9.26
9.77
10.26
10.71
11.01
11.07
10.86
10.46
10.03
9.75
9.71
9.91
10.24
10.58
10.80
10.84
10.68
10.34
9.84
9.25
8.58
7.89
7.26
6.72
6.30
5.95
5.59
5.12
4.49
3.65
2.63
1.46
0.19
-1.10
-2.37
-3.52
-4.50
-5.28
-5.86
-6.33
-6.78
-7.33
-8.07
-9.07
-10.37
-11.95
-13.74
-15.54
-17.07
-17.97
-17.91
-16.72
-14.47
-11.41
-7.97
-4.53
-1.41
1.18
3.17
4.57
5.45
5.96
6.29
6.64
7.15
7.81
8.50
9.04
9.28
9.18
8.83
8.36
7.90
7.54
7.29
7.14
7.11
7.19
7.34
7.48
7.49
7.28
6.79
6.09
5.28
4.51
3.83
3.25
2.73
2.22
1.72
1.23
0.78
0.36
-0.09
-0.62
-1.28
-2.05
-2.89
-3.71
-4.45
-5.09
-5.67
-6.23
-6.84
-7.54
-8.38
-9.40
-10.62
-12.03
-13.56
-15.07
-16.35
-17.13
-17.14
-16.18
-14.20
-11.35
-7.96
-4.50
-1.41
1.05
2.80
4.00
4.87
5.62
6.38
7.13
7.79
8.27
8.53
8.55
8.36
8.03
7.59
7.13
6.72
6.48
6.47
6.69
7.07
7.44
7.62
7.46
6.98
6.25
5.44
4.72
4.19
3.86
3.70
3.64
3.61
3.52
3.25
2.72
1.88
0.80
-0.37
-1.45
-2.32
-2.96
-3.48
-4.05
-4.82
-5.82
-6.93
-7.98
-8.83
-9.47
-10.05
-10.82
-11.97
-13.53
-15.32
-16.95
-18.02
-18.19
-17.31
-15.46
-12.83
-9.72
-6.43
-3.26
-0.43
1.92
3.75
5.11
6.11
6.86
7.43
7.82
8.04
8.09
8.00
7.81
7.57
7.27
6.88
6.40
5.88
5.41
5.15
5.18
5.51
6.02
6.55
6.90
6.95
6.68
6.14
5.46
4.81
4.28
3.89
3.55
3.15
2.59
1.82
0.91
-0.02
-0.85
-1.53
-2.07
-2.52
-2.96
-3.45
-4.00
-4.63
-5.33
-6.10
-6.94
-7.83
-8.79
-9.77
-10.80
-11.86
-12.99
-14.19
-15.44
-16.58
-17.35
-17.41
-16.48
-14.51
-11.69
-8.45
-5.26
-2.51
-0.36
1.23
2.39
3.25
3.89
4.34
4.60
4.70
4.70
4.67
4.65
4.65
4.61
4.49
4.30
4.11
4.04
4.18
4.53
5.00
5.42
5.64
5.58
5.30
4.89
4.44
3.99
3.52
2.99
2.40
1.75
1.09
0.43
-0.18
-0.73
-1.19
-1.56
-1.83
-2.06
-2.28
-2.58
-2.96
-3.45
-4.01
-4.57
-5.09
-5.59
-6.24
-7.29
-9.07
-11.77
-15.35
-19.43
-23.46
-26.87
-29.25
-30.45
-30.53
-29.70
-28.19
-26.20
-23.95
-21.68
-19.57
-17.66
-15.79
-13.63
-10.82
-7.17
-2.73
2.17
7.08
11.60
15.49
18.76
21.58
24.18
26.69
29.10
31.20
32.72
33.40
33.10
31.91
30.13
28.16
26.43
25.18
24.45
24.10
23.83
23.35
22.38
20.79
18.52
15.65
12.36
8.86
5.37
2.11
-0.78
-3.23
-5.25
-6.92
-8.42
-9.94
-11.67
-13.72
-16.08
-18.64
-21.24
-23.76
-26.17
-28.49
-30.71
-32.73
-34.30
-35.15
-35.04
-33.93
-31.92
-29.25
-26.18
-22.87
-19.42
-15.88
-12.32
-8.83
-5.46
-2.16
1.19
4.78
8.70
12.83
16.87
20.37
22.99
24.62
25.42
25.75
26.01
26.43
27.04
27.65
28.03
28.01
27.62
27.08
26.70
26.74
27.28
28.15
28.96
29.22
28.47
26.49
23.30
19.16
14.44
9.48
4.50
-0.40
-5.22
-9.91
-14.36
-18.46
-22.13
-25.36
-28.20
-30.66
-32.59
-33.76
-33.86
-32.74
-30.45
-27.28
-23.66
-20.04
-16.79
-14.08
-11.97
-10.37
-9.17
-8.21
-7.33
-6.43
-5.45
-4.39
-3.33
-2.34
-1.48
-0.71
0.04
0.87
1.90
3.15
4.57
6.00
7.27
8.20
8.68
8.69
8.27
7.51
6.50
5.32
4.09
2.86
1.67
0.53
-0.62
-1.87
-3.27
-4.88
-6.70
-8.69
-10.82
-13.00
-15.15
-17.15
-18.90
-20.37
-21.57
-22.56
-23.34
-23.78
-23.62
-22.51
-20.22
-16.75
-12.31
-7.34
-2.29
2.53
6.93
10.81
14.10
16.66
18.37
19.15
19.08
18.29
16.97
15.27
13.33
11.25
9.20
7.39
6.00
5.12
4.66
4.49
4.44
4.43
4.48
4.70
5.15
5.80
6.54
7.21
7.71
8.03
8.22
8.38
8.51
8.49
8.12
7.18
5.58
3.38
0.78
-1.94
-4.49
-6.69
-8.42
-9.66
-10.46
-10.94
-11.25
-11.54
-11.94
-12.47
-13.02
-13.33
-13.11
-12.05
-10.02
-7.01
-3.23
0.98
5.24
9.14
12.37
14.74
16.19
16.80
16.79
16.37
15.74
15.04
14.25
13.38
12.40
11.36
10.40
9.66
9.28
9.23
9.44
9.75
10.01
10.17
10.24
10.26
10.24
10.18
10.01
9.65
9.06
8.25
7.26
6.16
4.93
3.55
1.94
0.03
-2.11
-4.34
-6.39
-8.02
-9.05
-9.48
-9.38
-8.86
-7.99
-6.79
-5.37
-4.00
-3.08
-3.04
-4.10
-6.19
-8.92
-11.75
-14.20
-15.95
-16.86
-16.86
-15.91
-13.96
-11.03
-7.26
-2.96
1.41
5.39
8.58
10.75
11.85
12.07
11.72
11.17
10.72
10.56
10.69
11.01
11.36
11.65
11.85
12.02
12.24
12.61
13.21
14.04
15.07
16.19
17.22
17.92
18.07
17.47
16.05
13.87
11.03
7.72
4.01
0.01
-4.19
-8.36
-12.12
-14.96
-16.42
-16.24
-14.58
-11.97
-9.13
-6.81
-5.45
-5.18
-5.73
-6.66
-7.50
-7.87
-7.58
-6.64
-5.24
-3.70
-2.38
-1.61
-1.54
-2.11
-3.05
-4.00
-4.58
-4.57
-3.96
-2.91
-1.72
-0.64
0.20
0.83
1.45
2.24
3.37
4.84
6.51
8.20
9.73
11.00
11.97
12.60
12.83
12.55
11.68
10.27
8.48
6.60
4.91
3.62
2.79
2.32
2.04
1.77
1.42
0.95
0.38
-0.22
-0.82
-1.42
-2.02
-2.69
-3.51
-4.60
-6.07
-8.00
-10.39
-13.14
-16.02
-18.66
-20.61
-21.48
-20.98
-19.05
-15.93
-12.04
-7.94
-4.15
-1.04
1.28
2.91
4.09
5.06
6.00
6.95
7.85
8.66
9.33
9.91
10.50
11.23
12.15
13.24
14.36
15.30
15.83
15.78
15.10
13.87
12.24
10.39
8.47
6.57
4.73
3.02
1.51
0.29
-0.61
-1.21
-1.63
-2.04
-2.54
-3.12
-3.72
-4.25
-4.73
-5.29
-6.09
-7.21
-8.56
-9.87
-10.82
-11.20
-10.94
-10.17
-9.06
-7.70
-6.06
-3.98
-1.30
1.98
5.66
9.36
12.62
15.05
16.44
16.85
16.58
16.02
15.62
15.66
16.27
17.32
18.47
19.24
19.13
17.73
14.89
10.73
5.62
0.14
-5.10
-9.52
-12.61
-14.08
-13.95
-12.56
-10.51
-8.53
-7.12
-6.36
-5.92
-5.23
-3.89
-1.90
0.20
1.59
1.40
-0.89
-5.35
-11.67
-19.19
-27.10
-34.39
-40.01
-43.06
-43.01
-39.97
-34.76
-28.72
-23.41
-20.31
-20.39
-23.80
-29.63
-35.98
-40.44
-40.99
-36.84
-28.83
-19.13
-10.27
-4.06
-0.87
0.26
1.01
2.90
6.69
12.35
19.31
26.69
33.60
39.13
42.45
43.02
40.79
36.29
30.48
24.46
19.18
15.21
12.63
11.16
10.21
9.08
7.10
3.86
-0.61
-5.80
-10.83
-14.74
-16.85
-17.01
-15.58
-13.22
-10.53
-7.87
-5.32
-2.85
-0.53
1.47
2.95
3.82
4.20
4.38
4.64
5.10
5.70
6.23
6.52
6.53
6.40
6.33
6.58
7.26
8.40
9.91
11.62
13.33
14.90
16.26
17.47
18.68
20.05
21.63
23.37
25.09
26.55
27.62
28.26
28.61
28.91
29.37
30.11
31.11
32.20
33.11
33.50
33.05
31.51
28.80
25.06
20.68
16.22
12.29
9.38
7.72
7.13
7.17
7.29
7.14
6.63
5.90
5.05
3.85
1.64
-2.43
-8.95
-17.85
-28.13
-38.13
-45.96
-50.19
-50.13
-46.02
-38.74
-29.52
-19.63
-10.16
-1.98
4.37
8.72
11.32
12.73
13.68
14.82
16.49
18.67
21.01
23.02
24.20
24.18
22.80
20.14
16.48
12.26
8.01
4.20
1.11
-1.26
-3.08
-4.58
-5.87
-6.90
-7.45
-7.34
-6.52
-5.10
-3.41
-1.77
-0.45
0.39
0.70
0.44
-0.48
-2.18
-4.76
-8.24
-12.44
-17.06
-21.63
-25.67
-28.86
-31.16
-32.83
-34.39
-36.36
-39.01
-42.20
-45.38
-47.79
-48.72
-47.78
-44.93
-40.47
-34.85
-28.50
-21.87
-15.33
-9.25
-3.91
0.53
4.15
7.21
10.06
13.04
16.27
19.68
23.02
25.99
28.35
30.00
31.14
32.23
33.85
36.33
39.54
42.78
45.08
45.79
45.09
44.20
44.99
49.29
57.99
70.64
85.53
100.20
112.09
118.94
119.07
111.63
96.97
76.87
54.47
33.44
16.87
6.22
0.97
-0.90
-1.72
-3.04
-5.22
-7.78
-10.24
-12.70
-15.89
-20.56
-26.86
-34.04
-40.87
-46.25
-49.82
-52.04
-53.78
-55.82
-58.39
-61.21
-63.75
-65.52
-66.34
-66.19
-65.09
-63.00
-59.71
-55.13
-49.33
-42.73
-35.99
-29.82
-24.73
-20.81
-17.75
-15.04
-12.27
-9.35
-6.54
-4.26
-2.87
-2.49
-3.05
-4.44
-6.52
-9.14
-12.05
-14.89
-17.23
-18.91
-20.09
-21.21
-22.84
-25.25
-28.33
-31.59
-34.44
-36.41
-37.34
-37.40
-36.96
-36.47
-36.31
-36.74
-37.84
-39.47
-41.42
-43.41
-45.24
-46.84
-48.23
-49.47
-50.53
-51.35
-51.77
-51.65
-50.90
-49.50
-47.49
-44.94
-41.90
-38.43
-34.55
-30.28
-25.68
-20.85
-15.93
-11.09
-6.46
-2.14
1.87
5.60
9.19
12.78
16.54
20.54
24.75
28.98
32.89
36.08
38.21
39.16
39.05
38.26
37.28
36.48
36.00
35.71
35.23
34.17
32.30
29.68
26.64
23.61
21.02
19.14
18.07
17.74
18.00
18.55
18.96
18.78
17.64
15.44
12.43
9.25
6.62
5.15
5.04
6.05
7.66
9.25
10.40
11.01
11.23
11.39
11.79
12.64
13.99
15.80
17.91
20.18
22.44
24.58
26.51
28.16
29.50
30.48
31.10
31.40
31.51
31.60
31.79
32.04
32.13
31.69
30.40
28.15
25.08
21.52
17.82
14.17
10.57
6.92
3.19
-0.55
-4.08
-7.21
-9.81
-11.89
-13.48
-14.62
-15.26
-15.42
-15.21
-14.79
-14.39
-14.14
-14.06
-14.08
-14.06
-13.94
-13.69
-13.35
-12.98
-12.58
-12.15
-11.70
-11.24
-10.76
-10.20
-9.46
-8.47
-7.23
-5.86
-4.53
-3.43
-2.64
-2.11
-1.74
-1.40
-1.01
-0.59
-0.18
0.18
0.49
0.81
1.21
1.77
2.52
3.46
4.57
5.74
6.83
7.66
8.03
7.89
7.27
6.34
5.30
4.34
3.59
3.08
2.83
2.68
2.38
1.48
-0.40
-3.45
-7.50
-12.09
-16.69
-21.00
-25.09
-29.30
-33.88
-38.75
-43.36
-47.00
-49.09
-49.55
-48.72
-47.20
-45.43
-43.61
-41.67
-39.50
-37.19
-35.04
-33.41
-32.49
-32.09
-31.68
-30.57
-28.19
-24.37
-19.37
-13.79
-8.29
-3.37
0.79
4.25
7.21
9.82
12.07
13.87
15.14
15.88
16.25
16.47
16.73
17.08
17.45
17.68
17.65
17.38
16.98
16.65
16.52
16.59
16.76
16.87
16.77
16.39
15.74
14.87
13.82
12.65
11.44
10.26
9.18
8.24
7.39
6.55
5.68
4.76
3.84
2.96
2.13
1.35
0.59
-0.09
-0.64
-1.02
-1.29
-1.61
-2.14
-3.00
-4.11
-5.32
-6.38
-7.18
-7.72
-8.16
-8.67
-9.43
-10.50
-11.81
-13.26
-14.62
-15.63
-16.07
-15.73
-14.58
-12.69
-10.30
-7.70
-5.13
-2.77
-0.69
1.13
2.71
4.09
5.27
6.24
7.02
7.63
8.18
8.74
9.37
10.06
10.72
11.27
11.68
11.99
12.30
12.72
13.30
13.98
14.65
15.14
15.42
15.51
15.54
15.64
15.88
16.27
16.73
17.14
17.40
17.43
17.20
16.76
16.19
15.60
15.09
14.72
14.45
14.21
13.89
13.36
12.56
11.43
9.95
8.07
5.74
2.89
-0.50
-4.33
-8.45
-12.71
-17.11
-21.85
-27.37
-34.14
-42.44
-52.08
-62.37
-72.21
-80.37
-85.86
-88.19
-87.41
-84.04
-78.84
-72.63
-66.03
-59.49
-53.22
-47.27
-41.64
-36.27
-31.15
-26.30
-21.84
-17.95
-14.77
-12.37
-10.56
-8.96
-7.06
-4.40
-0.84
3.38
7.67
11.25
13.47
14.00
12.96
10.93
8.74
7.35
7.49
9.49
13.13
17.70
22.23
25.80
27.82
28.15
27.09
25.10
22.65
20.04
17.39
14.72
12.01
9.24
6.40
3.39
0.08
-3.68
-7.93
-12.56
-17.33
-21.93
-26.13
-29.89
-33.38
-36.85
-40.54
-44.53
-48.65
-52.53
-55.66
-57.52
-57.67
-55.81
-51.82
-45.83
-38.07
-28.71
-17.77
-5.10
9.38
25.35
41.84
57.25
69.76
78.03
81.72
81.78
80.16
79.11
80.54
85.45
93.81
104.68
116.48
127.19
134.71
137.26
133.80
124.43
110.29
93.27
75.38
58.19
42.56
28.70
16.40
5.45
-4.16
-12.12
-17.94
-21.16
-21.60
-19.52
-15.68
-11.11
-6.92
-3.92
-2.57
-2.99
-5.21
-9.31
-15.34
-23.18
-32.27
-41.64
-50.09
-56.58
-60.50
-61.81
-60.88
-58.22
-54.23
-49.14
-43.07
-36.14
-28.70
-21.22
-14.29
-8.38
-3.71
-0.24
2.26
4.12
5.60
6.85
7.88
8.65
9.11
9.35
9.53
9.94
10.77
12.11
13.76
15.40
16.63
17.15
16.88
15.96
14.64
13.19
11.71
10.18
8.43
6.28
3.68
0.72
-2.30
-5.07
-7.38
-9.24
-10.92
-12.84
-15.40
-18.81
-23.03
-27.68
-32.23
-36.07
-38.63
-39.46
-38.32
-35.23
-30.46
-24.48
-17.90
-11.31
-5.17
0.29
5.03
9.15
12.79
16.05
18.94
21.37
23.21
24.34
24.73
24.47
23.76
22.84
21.94
21.14
20.44
19.75
19.00
18.20
17.40
16.67
16.01
15.26
14.19
12.60
10.43
7.77
4.87
1.98
-0.76
-3.36
-5.98
-8.79
-11.90
-15.29
-18.82
-22.30
-25.57
-28.57
-31.38
-34.12
-36.97
-40.06
-43.44
-47.10
-50.95
-54.78
-58.25
-60.94
-62.31
-61.80
-59.00
-53.72
-46.14
-36.74
-26.25
-15.45
-5.02
4.53
12.97
20.25
26.46
31.78
36.38
40.39
43.83
46.65
48.77
50.10
50.58
50.27
49.28
47.82
46.14
44.50
43.10
42.07
41.37
40.87
40.39
39.75
38.88
37.78
36.51
35.13
33.64
32.01
30.26
28.38
26.46
24.61
22.88
21.27
19.69
18.02
16.14
14.05
11.83
9.65
7.66
5.90
4.28
2.64
0.80
-1.33
-3.72
-6.24
-8.73
-11.08
-13.24
-15.24
-17.11
-18.90
-20.71
-22.65
-24.89
-27.52
-30.45
-33.33
-35.59
-36.57
-35.77
-33.05
-28.67
-23.18
-17.26
-11.45
-6.09
-1.33
2.82
6.37
9.37
11.82
13.78
15.33
16.54
17.51
18.30
18.93
19.40
19.67
19.70
19.51
19.21
18.99
19.03
19.44
20.20
21.07
21.81
22.19
22.12
21.68
21.01
20.24
19.42
18.56
17.66
16.73
15.82
14.94
14.01
12.89
11.44
9.69
7.77
5.96
4.49
3.43
2.63
1.79
0.63
-0.98
-2.95
-5.04
-6.97
-8.58
-9.92
-11.16
-12.54
-14.29
-16.50
-19.12
-21.98
-24.73
-26.93
-28.08
-27.78
-25.84
-22.36
-17.69
-12.29
-6.67
-1.26
3.61
7.71
10.93
13.29
14.92
16.06
16.90
17.60
18.20
18.64
18.84
18.75
18.40
17.83
17.16
16.53
16.07
15.88
16.00
16.32
16.64
16.72
16.41
15.68
14.63
13.43
12.22
11.06
9.94
8.82
7.65
6.41
5.11
3.76
2.40
1.04
-0.27
-1.45
-2.48
-3.35
-4.08
-4.79
-5.61
-6.64
-7.98
-9.62
-11.51
-13.46
-15.30
-16.88
-18.18
-19.36
-20.66
-22.29
-24.24
-26.25
-27.78
-28.25
-27.19
-24.48
-20.37
-15.35
-10.03
-4.92
-0.36
3.52
6.68
9.14
10.92
12.04
12.59
12.71
12.61
12.49
12.44
12.50
12.59
12.64
12.62
12.56
12.57
12.72
13.09
13.66
14.34
15.01
15.50
15.69
15.51
14.94
14.03
12.84
11.44
9.91
8.30
6.67
5.07
3.48
1.88
0.20
-1.55
-3.32
-4.96
-6.35
-7.46
-8.35
-9.21
-10.24
-11.61
-13.36
-15.39
-17.45
-19.18
-20.12
-19.83
-18.01
-14.63
-9.87
-4.16
2.02
8.19
13.96
19.00
23.02
25.79
27.18
27.18
25.89
23.53
20.28
16.34
11.92
7.23
2.57
-1.82
-5.72
-9.03
-11.69
-13.68
-15.01
-15.73
-16.03
-16.21
-16.61
-17.49
-18.87
-20.55
-22.13
-23.28
-23.86
-23.95
-23.83
-23.76
-23.88
-24.14
-24.41
-24.56
-24.56
-24.45
-24.35
-24.30
-24.28
-24.18
-23.88
-23.30
-22.46
-21.44
-20.32
-19.17
-18.03
-16.93
-15.92
-15.06
-14.49
-14.29
-14.46
-14.88
-15.26
-15.20
-14.32
-12.38
-9.39
-5.57
-1.35
2.83
6.63
9.90
12.62
14.86
16.69
18.10
19.10
19.68
19.87
19.75
19.39
18.87
18.22
17.44
16.53
15.50
14.41
13.34
12.38
11.58
10.94
10.43
9.99
9.53
9.03
8.46
7.86
7.25
6.68
6.14
5.58
4.93
4.12
3.15
2.06
0.98
0.01
-0.81
-1.48
-2.12
-2.82
-3.65
-4.62
-5.67
-6.73
-7.75
-8.69
-9.56
-10.38
-11.23
-12.22
-13.48
-15.11
-17.07
-19.12
-20.83
-21.70
-21.29
-19.41
-16.17
-11.97
-7.28
-2.58
1.82
5.73
9.04
11.71
13.73
15.09
15.89
16.27
16.39
16.37
16.28
16.14
15.92
15.62
15.24
14.78
14.25
13.73
13.30
13.05
13.03
13.16
13.33
13.34
13.12
12.64
11.97
11.19
10.38
9.54
8.66
7.72
6.75
5.78
4.86
4.02
3.23
2.46
1.66
0.78
-0.20
-1.26
-2.41
-3.62
-4.93
-6.35
-7.91
-9.60
-11.36
-13.08
-14.70
-16.24
-17.80
-19.53
-21.49
-23.58
-25.51
-26.86
-27.19
-26.19
-23.77
-20.07
-15.44
-10.35
-5.26
-0.58
3.43
6.66
9.13
11.00
12.45
13.63
14.63
15.45
16.02
16.30
16.26
15.97
15.51
15.01
14.56
14.20
13.94
13.78
13.72
13.75
13.88
14.06
14.24
14.28
14.09
13.62
12.89
11.97
10.94
9.83
8.62
7.31
5.91
4.53
3.28
2.26
1.49
0.90
0.34
-0.31
-1.12
-2.07
-3.09
-4.11
-5.11
-6.15
-7.30
-8.59
-10.00
-11.44
-12.77
-13.93
-14.97
-16.02
-17.31
-18.99
-21.11
-23.51
-25.88
-27.76
-28.69
-28.32
-26.47
-23.26
-19.02
-14.25
-9.47
-5.08
-1.31
1.80
4.34
6.46
8.29
9.90
11.28
12.37
13.14
13.57
13.70
13.63
13.48
13.34
13.26
13.23
13.21
13.21
13.25
13.37
13.60
13.91
14.18
14.28
14.06
13.51
12.69
11.78
10.94
10.27
9.74
9.25
8.66
7.87
6.87
5.74
4.59
3.52
2.56
1.71
0.91
0.12
-0.72
-1.65
-2.68
-3.86
-5.16
-6.57
-8.04
-9.46
-10.72
-11.68
-12.25
-12.40
-12.25
-11.99
-11.90
-12.15
-12.76
-13.58
-14.29
-14.61
-14.32
-13.36
-11.79
-9.78
-7.51
-5.12
-2.78
-0.58
1.40
3.12
4.60
5.86
6.93
7.76
8.28
8.38
8.03
7.28
6.29
5.31
4.56
4.18
4.17
4.37
4.59
4.63
4.39
3.85
3.08
2.15
1.18
0.24
-0.54
-1.09
-1.32
-1.25
-0.96
-0.61
-0.30
-0.07
0.17
0.54
1.14
1.96
2.85
3.62
4.10
4.26
4.18
4.02
3.94
4.02
4.27
4.62
4.94
5.11
4.97
4.36
3.26
1.80
0.39
-0.41
-0.03
1.86
5.22
9.66
14.58
19.44
23.88
27.80
31.20
34.10
36.49
38.25
39.18
39.04
37.60
34.75
30.61
25.61
20.44
15.82
12.30
10.03
8.81
8.22
7.87
7.53
7.18
6.84
6.48
5.97
5.11
3.79
1.97
-0.20
-2.51
-4.72
-6.66
-8.30
-9.70
-11.02
-12.41
-13.97
-15.68
-17.43
-19.11
-20.70
-22.28
-24.05
-26.16
-28.66
-31.41
-34.15
-36.65
-38.86
-40.86
-42.79
-44.64
-46.15
-46.82
-46.11
-43.73
-39.71
-34.47
-28.61
-22.80
-17.55
-13.14
-9.63
-6.93
-4.82
-3.07
-1.48
0.04
1.46
2.70
3.66
4.33
4.76
5.03
5.20
5.29
5.23
5.00
4.60
4.08
3.51
2.95
2.42
1.92
1.41
0.90
0.42
0.00
-0.29
-0.41
-0.35
-0.10
0.30
0.73
1.04
1.03
0.56
-0.47
-2.06
-4.16
-6.59
-9.11
-11.38
-13.00
-13.66
-13.22
-11.78
-9.68
-7.38
-5.26
-3.50
-2.06
-0.78
0.56
2.05
3.67
5.32
6.83
8.10
9.01
9.52
9.60
9.27
8.58
7.57
6.35
5.04
3.82
2.83
2.19
1.85
1.57
1.01
-0.19
-2.17
-4.86
-7.89
-10.78
-13.11
-14.63
-15.34
-15.44
-15.23
-15.08
-15.35
-16.35
-18.33
-21.42
-25.58
-30.63
-36.25
-42.01
-47.40
-51.89
-54.96
-56.32
-55.94
-54.05
-51.00
-47.01
-42.02
-35.75
-27.88
-18.43
-7.79
3.34
14.22
24.37
33.61
41.86
48.94
54.38
57.64
58.35
56.65
53.25
49.18
45.48
42.83
41.32
40.61
40.10
39.22
37.60
35.11
31.77
27.69
22.92
17.53
11.61
5.39
-0.76
-6.47
-11.46
-15.65
-19.18
-22.30
-25.15
-27.73
-29.89
-31.46
-32.42
-32.92
-33.25
-33.61
-33.99
-34.10
-33.46
-31.65
-28.47
-24.04
-18.76
-13.11
-7.55
-2.37
2.23
6.17
9.41
11.98
13.98
15.61
17.02
18.30
19.45
20.38
20.97
21.22
21.19
21.05
20.97
21.08
21.43
22.01
22.71
23.40
23.91
24.08
23.83
23.21
22.34
21.41
20.59
19.97
19.54
19.20
18.85
18.42
17.87
17.14
16.20
15.01
13.53
11.75
9.70
7.44
5.04
2.58
0.12
-2.29
-4.68
-7.12
-9.71
-12.56
-15.66
-18.88
-21.92
-24.39
-25.89
-26.13
-25.03
-22.70
-19.45
-15.65
-11.68
-7.86
-4.40
-1.44
0.99
2.95
4.54
5.87
7.07
8.18
9.20
10.08
10.78
11.26
11.52
11.54
11.33
10.91
10.32
9.63
8.94
8.32
7.80
7.34
6.89
6.38
5.76
5.00
4.10
3.12
2.10
1.06
-0.02
-1.23
-2.64
-4.29
-6.11
-7.94
-9.62
-11.04
-12.16
-13.00
-13.54
-13.75
-13.57
-13.01
-12.21
-11.40
-10.82
-10.60
-10.77
-11.24
-11.91
-12.71
-13.56
-14.31
-14.69
-14.34
-12.96
-10.46
-7.08
-3.30
0.31
3.35
5.67
7.42
8.88
10.29
11.72
13.06
14.09
14.65
14.72
14.44
14.01
13.59
13.21
12.79
12.26
11.60
10.91
10.32
9.93
9.72
9.60
9.49
9.34
9.21
9.17
9.23
9.31
9.22
8.82
8.02
6.84
5.45
4.02
2.71
1.65
0.83
0.16
-0.54
-1.44
-2.62
-4.04
-5.51
-6.80
-7.74
-8.33
-8.75
-9.23
-10.01
-11.21
-12.86
-14.87
-17.08
-19.24
-20.95
-21.79
-21.42
-19.69
-16.78
-13.10
-9.20
-5.55
-2.43
0.12
2.20
3.95
5.48
6.82
7.95
8.88
9.62
10.22
10.67
10.95
10.98
10.69
10.13
9.43
8.79
8.36
8.17
8.13
8.11
8.01
7.86
7.74
7.73
7.81
7.87
7.75
7.37
6.73
5.91
5.00
4.03
2.96
1.77
0.43
-0.95
-2.20
-3.21
-3.93
-4.48
-5.06
-5.90
-7.04
-8.39
-9.73
-10.86
-11.75
-12.57
-13.58
-15.03
-16.94
-19.10
-21.13
-22.57
-23.06
-22.42
-20.67
-17.99
-14.65
-10.96
-7.19
-3.55
-0.22
2.69
5.11
6.98
8.33
9.25
9.86
10.29
10.60
10.79
10.82
10.65
10.31
9.89
9.48
9.19
9.05
9.08
9.25
9.50
9.75
9.92
9.92
9.68
9.17
8.42
7.47
6.41
5.34
4.35
3.50
2.78
2.14
1.47
0.71
-0.16
-1.08
-1.97
-2.77
-3.51
-4.26
-5.15
-6.22
-7.40
-8.59
-9.64
-10.52
-11.33
-12.30
-13.64
-15.45
-17.64
-19.90
-21.80
-22.91
-22.92
-21.73
-19.44
-16.30
-12.67
-8.89
-5.26
-1.97
0.86
3.21
5.09
6.55
7.66
8.47
9.06
9.49
9.79
9.99
10.11
10.14
10.09
9.95
9.73
9.47
9.20
8.99
8.87
8.83
8.81
8.71
8.46
8.02
7.49
6.96
6.50
6.10
5.68
5.11
4.32
3.37
2.42
1.61
0.99
0.50
-0.04
-0.75
-1.71
-2.88
-4.16
-5.45
-6.73
-7.97
-9.18
-10.35
-11.52
-12.79
-14.29
-16.11
-18.14
-20.12
-21.61
-22.15
-21.46
-19.46
-16.36
-12.54
-8.49
-4.62
-1.24
1.53
3.71
5.41
6.75
7.79
8.54
8.97
9.12
9.04
8.89
8.79
8.79
8.88
8.95
8.95
8.88
8.84
8.96
9.33
9.90
10.49
10.85
10.75
10.13
9.13
8.00
6.99
6.22
5.66
5.13
4.47
3.56
2.45
1.24
0.09
-0.94
-1.88
-2.83
-3.91
-5.20
-6.70
-8.30
-9.85
-11.21
-12.33
-13.27
-14.18
-15.22
-16.54
-18.15
-19.91
-21.58
-22.77
-23.11
-22.27
-20.19
-17.04
-13.23
-9.27
-5.60
-2.42
0.26
2.58
4.72
6.73
8.54
10.05
11.15
11.82
12.12
12.12
11.88
11.46
10.89
10.27
9.71
9.31
9.13
9.15
9.29
9.48
9.63
9.69
9.63
9.41
9.00
8.39
7.59
6.64
5.60
4.54
3.52
2.59
1.77
1.07
0.44
-0.19
-0.88
-1.70
-2.65
-3.75
-4.99
-6.33
-7.75
-9.20
-10.61
-11.91
-13.12
-14.34
-15.74
-17.46
-19.42
-21.37
-22.89
-23.53
-23.03
-21.40
-18.85
-15.72
-12.34
-8.92
-5.60
-2.44
0.47
3.05
5.24
7.00
8.40
9.45
10.23
10.74
11.04
11.18
11.24
11.28
11.34
11.41
11.49
11.57
11.72
11.97
12.34
12.77
13.11
13.20
12.97
12.45
11.78
11.14
10.64
10.28
9.91
9.32
8.37
7.03
5.45
3.87
2.50
1.48
0.76
0.18
-0.49
-1.39
-2.58
-4.03
-5.64
-7.30
-8.93
-10.50
-12.03
-13.59
-15.30
-17.24
-19.40
-21.64
-23.64
-25.00
-25.34
-24.46
-22.36
-19.29
-15.59
-11.59
-7.55
-3.66
-0.02
3.28
6.17
8.57
10.45
11.79
12.66
13.14
13.33
13.35
13.26
13.12
12.93
12.68
12.35
11.97
11.59
11.31
11.25
11.42
11.79
12.19
12.43
12.34
11.88
11.13
10.29
9.50
8.81
8.13
7.32
6.27
4.99
3.58
2.18
0.90
-0.25
-1.32
-2.39
-3.49
-4.61
-5.67
-6.66
-7.55
-8.41
-9.32
-10.42
-11.80
-13.51
-15.53
-17.74
-19.97
-21.93
-23.32
-23.82
-23.19
-21.31
-18.27
-14.37
-10.01
-5.65
-1.63
1.83
4.62
6.79
8.40
9.56
10.35
10.90
11.28
11.55
11.80
12.07
12.39
12.72
13.00
13.14
13.08
12.88
12.67
12.65
12.96
13.55
14.19
14.55
14.39
13.66
12.57
11.45
10.57
10.01
9.63
9.14
8.34
7.18
5.80
4.42
3.24
2.26
1.34
0.30
-1.05
-2.74
-4.68
-6.71
-8.64
-10.32
-11.70
-12.79
-13.72
-14.68
-15.85
-17.40
-19.38
-21.69
-24.07
-26.13
-27.47
-27.73
-26.74
-24.50
-21.18
-17.08
-12.54
-7.95
-3.65
0.06
3.03
5.24
6.84
8.09
9.23
10.39
11.57
12.62
13.39
13.83
14.00
14.05
14.08
14.14
14.19
14.19
14.16
14.16
14.29
14.53
14.77
14.82
14.53
13.90
13.09
12.31
11.71
11.31
10.97
10.50
9.73
8.64
7.36
6.07
4.93
3.99
3.18
2.36
1.43
0.35
-0.81
-1.97
-3.05
-4.07
-5.13
-6.34
-7.74
-9.27
-10.86
-12.43
-14.01
-15.69
-17.60
-19.78
-22.12
-24.28
-25.80
-26.21
-25.19
-22.72
-19.08
-14.76
-10.30
-6.14
-2.47
0.73
3.56
6.08
8.27
10.05
11.33
12.11
12.45
12.47
12.27
11.95
11.60
11.31
11.19
11.30
11.67
12.18
12.69
13.07
13.24
13.21
13.04
12.77
12.41
11.92
11.27
10.46
9.51
8.44
7.26
5.97
4.55
3.05
1.56
0.16
-1.09
-2.20
-3.27
-4.40
-5.70
-7.15
-8.72
-10.32
-11.86
-13.29
-14.65
-16.04
-17.60
-19.45
-21.57
-23.70
-25.43
-26.26
-25.77
-23.82
-20.57
-16.41
-11.84
-7.30
-3.12
0.53
3.60
6.10
8.09
9.68
10.96
12.06
13.03
13.95
14.81
15.57
16.14
16.40
16.28
15.81
15.16
14.56
14.23
14.23
14.51
14.89
15.21
15.39
15.41
15.26
14.90
14.24
13.23
11.89
10.40
8.96
7.76
6.80
5.94
4.97
3.75
2.32
0.86
-0.41
-1.36
-2.09
-2.83
-3.86
-5.34
-7.20
-9.19
-11.03
-12.55
-13.77
-14.85
-16.06
-17.58
-19.48
-21.74
-24.23
-26.75
-28.97
-30.50
-30.91
-29.89
-27.37
-23.60
-19.05
-14.27
-9.73
-5.69
-2.21
0.78
3.41
5.75
7.81
9.62
11.18
12.50
13.62
14.49
15.04
15.24
15.10
14.74
14.37
14.15
14.21
14.51
14.93
15.30
15.48
15.41
15.09
14.60
14.02
13.43
12.86
12.35
11.86
11.31
10.61
9.66
8.42
6.94
5.34
3.83
2.58
1.71
1.19
0.88
0.58
0.11
-0.63
-1.65
-2.86
-4.20
-5.62
-7.13
-8.71
-10.33
-11.91
-13.40
-14.78
-16.15
-17.69
-19.54
-21.69
-23.85
-25.49
-26.00
-24.88
-22.02
-17.71
-12.54
-7.23
-2.35
1.85
5.36
8.33
10.90
13.11
14.89
16.12
16.73
16.77
16.36
15.68
14.90
14.12
13.42
12.80
12.28
11.87
11.59
11.47
11.47
11.56
11.63
11.61
11.48
11.22
10.85
10.38
9.79
9.00
7.98
6.72
5.31
3.84
2.35
0.83
-0.82
-2.67
-4.70
-6.78
-8.72
-10.41
-11.89
-13.37
-15.15
-17.52
-20.60
-24.40
-28.74
-33.41
-38.24
-43.14
-48.16
-53.42
-59.02
-64.96
-71.10
-77.12
-82.60
-87.07
-90.08
-91.27
-90.39
-87.43
-82.65
-76.63
-70.09
-63.73
-57.96
-52.88
-48.30
-43.96
-39.71
-35.46
-31.23
-26.85
-21.95
-15.99
-8.38
1.31
13.26
27.34
43.09
59.68
76.02
90.86
103.08
112.05
117.71
120.65
121.72
121.77
121.30
120.41
118.93
116.59
113.24
108.83
103.40
97.02
89.74
81.71
73.10
64.24
55.51
47.29
39.89
33.44
27.90
23.04
18.57
14.23
9.81
5.21
0.33
-4.93
-10.67
-16.88
-23.33
-29.56
-35.02
-39.19
-41.87
-43.14
-43.41
-43.14
-42.82
-42.81
-43.37
-44.72
-47.03
-50.47
-55.10
-60.75
-66.90
-72.63
-76.81
-78.31
-76.36
-70.68
-61.60
-49.83
-36.32
-22.01
-7.85
5.25
16.47
25.13
30.93
34.03
34.98
34.60
33.77
33.20
33.36
34.50
36.56
39.33
42.40
45.36
47.87
49.75
51.08
52.10
53.19
54.72
56.90
59.68
62.70
65.29
66.63
65.96
62.82
57.26
49.76
41.14
32.24
23.65
15.58
7.83
-0.06
-8.52
-17.75
-27.55
-37.28
-45.98
-52.62
-56.31
-56.52
-53.19
-46.68
-37.78
-27.49
-16.92
-7.09
1.23
7.56
11.70
13.72
13.88
12.60
10.44
7.97
5.76
4.17
3.31
2.99
2.73
1.96
0.15
-3.03
-7.52
-12.86
-18.26
-22.76
-25.47
-25.80
-23.58
-19.08
-12.87
-5.68
1.62
8.13
12.93
15.29
14.85
11.81
6.87
1.13
-4.30
-8.57
-11.25
-12.30
-11.96
-10.54
-8.36
-5.74
-2.92
-0.18
2.32
4.51
6.45
8.28
10.06
11.75
13.12
13.89
13.84
12.94
11.39
9.59
8.07
7.30
7.59
9.04
11.39
14.07
16.27
17.11
15.91
12.42
6.96
0.34
-6.37
-12.12
-16.10
-17.82
-17.13
-14.20
-9.47
-3.67
2.23
7.12
9.95
10.02
7.19
2.04
-4.24
-10.15
-14.24
-15.60
-14.05
-10.23
-5.38
-0.96
1.77
1.98
-0.47
-5.12
-11.02
-16.95
-21.71
-24.31
-24.22
-21.49
-16.77
-11.26
-6.44
-3.72
-4.00
-7.34
-12.87
-19.09
-24.30
-27.19
-27.22
-24.68
-20.55
-16.16
-12.82
-11.59
-13.00
-16.94
-22.68
-28.99
-34.49
-37.98
-38.78
-36.79
-32.52
-26.87
-21.00
-16.12
-13.28
-13.09
-15.59
-20.17
-25.81
-31.35
-35.82
-38.61
-39.42
-38.16
-34.78
-29.37
-22.17
-13.70
-4.62
4.38
12.78
20.26
26.65
31.88
35.85
38.51
39.88
40.15
39.55
38.34
36.68
34.61
32.10
29.13
25.75
22.07
18.22
14.32
10.39
6.47
2.53
-1.40
-5.22
-8.80
-11.97
-14.57
-16.53
-17.87
-18.68
-19.09
-19.17
-18.91
-18.23
-16.99
-15.16
-12.77
-10.03
-7.13
-4.27
-1.50
1.18
3.79
6.33
8.72
10.78
12.38
13.42
13.89
13.84
13.33
12.45
11.26
9.83
8.32
6.89
5.71
4.91
4.54
4.53
4.75
5.06
5.34
5.63
6.01
6.60
7.48
8.66
9.97
11.24
12.28
12.99
13.40
13.57
13.54
13.28
12.67
11.56
9.91
7.79
5.36
2.84
0.42
-1.85
-3.99
-6.04
-8.02
-9.92
-11.71
-13.41
-15.10
-16.85
-18.68
-20.48
-21.99
-22.90
-22.89
-21.78
-19.59
-16.53
-12.97
-9.34
-6.01
-3.22
-1.00
0.76
2.29
3.78
5.36
6.98
8.48
9.68
10.40
10.57
10.27
9.64
8.83
8.01
7.28
6.72
6.37
6.25
6.35
6.55
6.68
6.55
6.03
5.15
4.09
3.13
2.54
2.44
2.76
3.28
3.70
3.79
3.46
2.77
1.89
0.98
0.13
-0.69
-1.53
-2.48
-3.52
-4.56
-5.50
-6.29
-6.97
-7.70
-8.63
-9.88
-11.44
-13.22
-15.11
-17.02
-18.87
-20.57
-21.90
-22.61
-22.41
-21.12
-18.73
-15.46
-11.71
-7.94
-4.54
-1.76
0.40
2.11
3.64
5.21
6.87
8.51
9.88
10.77
11.11
11.01
10.71
10.42
10.27
10.24
10.26
10.27
10.25
10.24
10.24
10.21
10.07
9.72
9.16
8.47
7.79
7.26
6.92
6.72
6.48
6.06
5.36
4.36
3.14
1.81
0.47
-0.81
-2.02
-3.17
-4.27
-5.34
-6.37
-7.37
-8.33
-9.29
-10.26
-11.27
-12.33
-13.47
-14.70
-16.02
-17.43
-18.90
-20.36
-21.70
-22.76
-23.31
-23.11
-21.97
-19.83
-16.80
-13.17
-9.33
-5.65
-2.38
0.40
2.68
4.52
5.95
6.96
7.57
7.84
7.86
7.73
7.50
7.18
6.75
6.23
5.67
5.15
4.72
4.36
4.02
3.62
3.14
2.54
1.81
0.94
-0.12
-1.35
-2.69
-4.03
-5.18
-5.91
-6.04
-5.46
-4.12
-2.13
0.27
2.76
5.02
6.79
7.97
8.56
8.67
8.43
7.93
7.28
6.58
5.92
5.38
4.97
4.68
4.44
4.18
3.89
3.59
3.28
2.96
2.62
2.23
1.79
1.30
0.79
0.27
-0.26
-0.78
-1.30
-1.82
-2.36
-2.94
-3.58
-4.25
-4.92
-5.52
-6.01
-6.40
-6.74
-7.07
-7.49
-8.04
-8.81
-9.85
-11.15
-12.64
-14.15
-15.57
-16.85
-18.05
-19.33
-20.87
-22.76
-24.92
-27.09
-28.89
-29.91
-29.77
-28.31
-25.54
-21.71
-17.26
-12.67
-8.35
-4.55
-1.35
1.35
3.67
5.74
7.56
9.09
10.20
10.83
10.99
10.79
10.41
9.98
9.60
9.29
9.02
8.81
8.66
8.63
8.71
8.85
8.95
8.90
8.67
8.27
7.80
7.30
6.80
6.25
5.58
4.69
3.57
2.30
1.00
-0.16
-1.06
-1.71
-2.22
-2.83
-3.73
-5.02
-6.65
-8.41
-10.08
-11.45
-12.46
-13.20
-13.88
-14.72
-15.85
-17.24
-18.69
-19.84
-20.27
-19.73
-18.21
-15.99
-13.59
-11.54
-10.18
-9.47
-9.02
-8.16
-6.16
-2.48
2.99
9.80
16.94
23.00
26.59
26.79
23.66
18.22
12.19
7.28
4.62
4.36
5.82
7.96
9.82
10.87
10.90
9.89
7.80
4.61
0.39
-4.50
-9.34
-13.20
-15.10
-14.27
-10.42
-3.86
4.42
12.92
20.00
24.38
25.64
24.56
23.09
23.80
29.06
40.02
55.84
73.57
88.75
96.72
94.13
80.07
56.38
27.00
-3.32
-30.36
-51.43
-65.55
-73.13
-75.40
-73.91
-70.19
-65.67
-61.52
-58.54
-56.84
-55.85
-54.42
-51.25
-45.43
-36.76
-25.86
-13.90
-2.26
7.92
15.94
21.59
25.14
27.23
28.63
30.06
31.85
33.85
35.39
35.67
34.19
31.09
27.14
23.40
20.72
19.26
18.53
17.68
16.04
13.41
10.17
6.94
4.20
2.12
0.48
-1.04
-2.65
-4.31
-5.81
-6.97
-7.80
-8.55
-9.51
-10.93
-12.77
-14.79
-16.69
-18.27
-19.54
-20.64
-21.77
-23.02
-24.36
-25.68
-26.76
-27.29
-26.91
-25.26
-22.14
-17.66
-12.29
-6.76
-1.79
2.15
4.95
6.71
7.65
7.98
7.88
7.68
7.84
8.95
11.48
15.65
21.26
27.82
34.67
41.17
46.82
51.29
54.38
55.95
55.92
54.25
51.04
46.52
41.10
35.28
29.50
24.08
19.10
14.53
10.32
6.50
3.23
0.68
-1.12
-2.36
-3.37
-4.42
-5.66
-6.99
-8.15
-8.92
-9.14
-8.86
-8.20
-7.32
-6.37
-5.50
-4.85
-4.57
-4.74
-5.35
-6.24
-7.20
-8.03
-8.65
-9.15
-9.65
-10.34
-11.26
-12.48
-14.01
-15.99
-18.64
-22.09
-26.33
-30.97
-35.35
-38.66
-40.26
-39.91
-37.79
-34.37
-30.19
-25.61
-20.81
-15.83
-10.71
-5.57
-0.59
4.07
8.35
12.26
15.85
19.06
21.81
24.00
25.71
27.22
29.01
31.56
35.12
39.60
44.53
49.30
53.31
56.17
57.81
58.41
58.30
57.83
57.18
56.33
55.03
52.92
49.64
45.13
39.79
34.63
31.06
30.43
33.30
38.95
45.27
49.35
48.49
41.12
27.30
8.55
-12.80
-34.19
-53.32
-68.25
-77.50
-80.20
-76.29
-66.63
-52.72
-36.37
-19.25
-2.92
11.11
21.15
25.64
23.61
15.37
2.65
-11.77
-24.99
-34.96
-40.89
-43.19
-42.81
-40.68
-37.35
-33.07
-28.09
-22.88
-18.14
-14.56
-12.48
-11.74
-11.75
-11.79
-11.32
-10.19
-8.60
-7.01
-5.96
-5.92
-7.13
-9.48
-12.56
-15.74
-18.49
-20.54
-22.03
-23.36
-24.88
-26.66
-28.41
-29.68
-30.12
-29.73
-28.85
-27.96
-27.47
-27.50
-27.87
-28.26
-28.34
-27.93
-27.03
-25.72
-24.12
-22.30
-20.28
-18.03
-15.55
-12.86
-10.07
-7.33
-4.82
-2.71
-1.14
-0.18
0.22
0.20
0.00
-0.15
-0.14
0.03
0.18
0.01
-0.74
-2.26
-4.56
-7.43
-10.49
-13.26
-15.29
-16.25
-15.95
-14.42
-11.85
-8.49
-4.66
-0.57
3.69
8.13
12.86
17.91
23.18
28.45
33.42
37.76
41.19
43.53
44.64
44.43
42.90
40.08
36.21
31.63
26.79
22.07
17.71
13.79
10.24
6.92
3.72
0.55
-2.56
-5.56
-8.29
-10.51
-11.93
-12.29
-11.38
-9.19
-5.85
-1.67
3.00
7.78
12.27
16.11
18.98
20.60
20.84
19.78
17.72
15.15
12.58
10.40
8.77
7.62
6.71
5.83
4.83
3.76
2.76
2.01
1.61
1.57
1.82
2.31
2.96
3.70
4.39
4.88
5.04
4.92
4.78
5.05
6.16
8.35
11.53
15.32
19.20
22.76
25.80
28.32
30.39
32.05
33.22
33.79
33.70
33.01
31.86
30.40
28.73
26.84
24.67
22.14
19.20
15.84
12.11
8.15
4.19
0.56
-2.40
-4.42
-5.38
-5.40
-4.73
-3.69
-2.55
-1.45
-0.42
0.61
1.70
2.86
4.03
5.08
5.84
6.21
6.13
5.65
4.89
4.01
3.13
2.35
1.74
1.37
1.35
1.83
2.93
4.67
6.88
9.30
11.64
13.71
15.45
16.97
18.39
19.70
20.70
21.08
20.52
18.90
16.37
13.30
10.15
7.30
4.93
3.10
1.74
0.77
0.10
-0.43
-1.04
-1.99
-3.50
-5.66
-8.38
-11.50
-14.88
-18.51
-22.49
-26.86
-31.55
-36.15
-40.09
-42.65
-43.27
-41.66
-37.92
-32.47
-25.97
-19.19
-12.79
-7.32
-3.04
0.03
2.15
3.75
5.35
7.40
10.08
13.27
16.51
19.20
20.75
20.85
19.47
16.95
13.73
10.28
6.90
3.77
0.99
-1.38
-3.23
-4.49
-5.15
-5.32
-5.22
-5.11
-5.20
-5.64
-6.51
-7.83
-9.58
-11.73
-14.13
-16.55
-18.70
-20.35
-21.34
-21.72
-21.67
-21.45
-21.28
-21.30
-21.52
-21.83
-22.08
-22.12
-21.86
-21.28
-20.42
-19.29
-17.88
-16.11
-13.94
-11.40
-8.61
-5.77
-3.01
-0.36
2.30
5.08
7.98
10.84
13.40
15.39
16.65
17.21
17.21
16.80
16.13
15.27
14.29
13.29
12.41
11.73
11.32
11.08
10.81
10.22
9.07
7.29
4.97
2.46
0.13
-1.67
-2.84
-3.47
-3.79
-4.08
-4.44
-4.91
-5.53
-6.46
-8.01
-10.63
-14.56
-19.78
-25.89
-32.23
-38.17
-43.33
-47.71
-51.60
-55.40
-59.39
-63.56
-67.60
-71.05
-73.39
-74.23
-73.34
-70.66
-66.35
-60.78
-54.49
-48.15
-42.37
-37.55
-33.81
-31.02
-28.99
-27.67
-27.26
-28.17
-30.85
-35.46
-41.67
-48.60
-55.01
-59.69
-61.83
-61.27
-58.35
-53.66
-47.60
-40.18
-31.06
-19.93
-6.85
7.49
21.87
34.90
45.48
53.09
57.86
60.37
61.34
61.37
60.83
59.94
58.87
57.85
57.14
56.86
56.92
56.92
56.34
54.81
52.33
49.33
46.59
44.89
44.77
46.44
49.77
54.48
60.16
66.21
71.79
75.84
77.40
75.91
71.56
65.23
58.17
51.56
46.10
41.91
38.77
36.31
34.30
32.65
31.37
30.43
29.73
29.13
28.48
27.63
26.40
24.57
21.88
18.11
13.17
7.15
0.30
-6.95
-14.08
-20.55
-25.90
-29.79
-32.05
-32.65
-31.73
-29.54
-26.43
-22.82
-19.11
-15.65
-12.62
-10.10
-8.04
-6.43
-5.30
-4.74
-4.83
-5.58
-6.88
-8.61
-10.63
-12.89
-15.41
-18.21
-21.27
-24.50
-27.68
-30.65
-33.25
-35.44
-37.28
-38.89
-40.39
-41.83
-43.22
-44.57
-45.87
-47.11
-48.15
-48.68
-48.17
-46.07
-42.02
-36.09
-28.86
-21.25
-14.30
-8.72
-4.79
-2.24
-0.52
1.00
2.72
4.71
6.77
8.53
9.66
10.03
9.67
8.78
7.64
6.46
5.42
4.58
3.95
3.57
3.53
4.04
5.37
7.95
12.23
18.68
27.60
38.90
51.92
65.37
77.57
86.99
92.85
95.51
96.35
97.04
98.47
99.97
99.25
93.33
80.06
59.38
33.72
7.25
-15.67
-32.00
-40.83
-43.22
-41.25
-37.05
-32.11
-27.29
-23.14
-20.27
-19.45
-21.26
-25.68
-31.84
-38.11
-42.59
-43.83
-41.33
-35.76
-28.64
-21.70
-16.27
-12.81
-11.02
-10.10
-9.27
-8.12
-6.65
-5.12
-3.89
-3.14
-2.86
-2.89
-3.01
-3.09
-3.11
-3.19
-3.51
-4.19
-5.33
-6.90
-8.87
-11.13
-13.57
-16.06
-18.45
-20.63
-22.51
-24.03
-25.15
-25.83
-26.03
-25.74
-25.02
-23.99
-22.77
-21.34
-19.64
-17.54
-15.02
-12.17
-9.23
-6.44
-3.94
-1.75
0.20
1.93
3.33
4.25
4.58
4.36
3.83
3.36
3.21
3.49
4.11
4.80
5.31
5.52
5.44
5.24
5.08
5.07
5.21
5.43
5.64
5.83
6.01
6.19
6.34
6.36
6.16
5.71
5.07
4.39
3.85
3.53
3.43
3.50
3.60
3.62
3.51
3.23
2.82
2.30
1.68
0.93
0.00
-1.17
-2.63
-4.40
-6.42
-8.60
-10.80
-12.87
-14.65
-16.02
-16.95
-17.51
-17.83
-18.08
-18.35
-18.62
-18.81
-18.83
-18.70
-18.51
-18.45
-18.72
-19.47
-20.77
-22.57
-24.72
-26.93
-28.81
-29.91
-29.84
-28.41
-25.66
-21.92
-17.65
-13.38
-9.51
-6.29
-3.78
-1.88
-0.40
0.81
1.90
2.90
3.80
4.55
5.10
5.46
5.70
5.91
6.26
6.86
7.80
9.08
10.66
12.39
14.12
15.67
16.90
17.74
18.14
18.18
17.93
17.58
17.28
17.15
17.21
17.39
17.57
17.64
17.57
17.39
17.19
17.07
17.13
17.38
17.78
18.26
18.70
19.01
19.06
18.76
18.02
16.84
15.29
13.48
11.52
9.43
7.10
4.30
0.80
-3.57
-8.68
-14.17
-19.53
-24.19
-27.73
-29.97
-30.97
-31.03
-30.56
-29.98
-29.61
-29.67
-30.17
-31.01
-32.01
-33.00
-33.88
-34.65
-35.35
-36.03
-36.70
-37.22
-37.36
-36.85
-35.40
-32.78
-28.84
-23.45
-16.61
-8.47
0.70
10.45
20.33
29.91
38.93
47.25
54.80
61.42
66.78
70.53
72.30
71.99
69.77
66.06
61.36
56.11
50.58
44.90
39.22
33.75
28.79
24.58
