-58.985
-37.493
73.463
127.89
93.745
25.175
-37.408
-54.583
-52.095
-63.596
-92.704
-64.189
49.565
94.122
41.912
-34.911
-42.62
-30.541
15.866
34.003
-72.595
-85.424
21.273
53.722
21.401
-15.031
6.7521
22.8
3.6007
-61.327
-131.37
-37.709
102.49
152.89
145.04
53.385
-20.958
-51.777
-80.609
-82.713
-105.44
-57.627
70.168
101.87
67.528
0.42215
-11.089
-3.5874
-3.7415
23.779
3.5812
-4.6758
54.962
65.584
30.089
9.0761
7.3228
-1.96
8.3018
-19.682
-63.928
18.445
99.767
98.415
85.657
77.556
34.797
-23.879
-96.078
-136.53
-95.109
-26.588
19.824
22.571
-7.4925
-32.698
-38.253
-36.898
-40.776
-47.189
-35.088
3.4187
5.2299
-22.547
-51.101
-49.012
-44.402
-60.005
-54.178
-69.554
-26.396
96.905
141.19
131.98
119.89
134.86
119.9
67.879
14.318
-101.05
-84.635
24.297
7.513
-17.119
-23.941
-28.376
-18.447
-30.228
-84.425
-133.44
-73.856
69.728
127.12
95.57
27.689
3.3275
8.615
0.23073
-11.034
-34.68
8.9509
163.45
245.07
227.34
111.38
-3.5099
-123.53
-269.34
-318.79
-339.4
-244.46
-17.336
36.528
22.538
51.428
66.924
54.35
32.772
12.293
-31.767
-33.878
105.15
166.88
120.28
68.19
45.163
19.765
-11.634
-43
-103.62
-132.06
-8.8711
44.538
16.325
6.5939
35.882
71.386
72.806
67.387
45.375
19.346
116.24
150.96
3.7998
-168.91
-239.4
-214.92
-236.18
-240.27
-175.71
-162.89
-11.03
178.23
178.41
108.58
69.361
51.407
23.02
-13.976
-51.992
-72.233
7.4266
107.14
107
82.374
86.203
144.22
228.99
290.78
276.48
100.37
57.217
162.84
57.671
-112.4
-230.32
-237.88
-222.38
-200.54
-207.85
-243.61
-59.382
190.82
136.87
-49.615
-127.84
-143.02
-173.56
-207.27
-268.27
-223.8
-24.534
169.4
159.31
77.757
83.784
64.205
18.7
-19.108
-77.509
16.907
141.95
107.78
19.652
3.6667
22.285
7.5773
-15.163
-69.259
-57.074
66.551
111.16
51.723
1.5711
22.927
31.066
21.496
8.6203
-49.651
-38.435
50.728
51.083
-13.439
-25.981
4.4174
-13.471
-33.807
-65.829
-75.491
48.477
154.33
144.86
97.049
107.92
131.26
108.56
24.136
-142.23
-143.22
32.171
62.616
24.066
58.797
123.7
159.26
118.29
-18.269
-190.02
-367.31
-354.43
-218.05
-90.293
42.414
123.6
-21.895
-169.78
-189.43
-162.82
-161.72
-67.062
112.33
172.84
142.17
123.22
121.1
106.05
66.946
-7.5008
-45.032
-98.347
-76.53
46.223
99.945
83.717
64.208
65.681
54.255
29.526
-10.462
-33.107
-84.72
-83.206
21.896
73.712
71.135
58.663
70.575
76.446
70.234
51.39
-4.8754
-65.698
-129.61
-142.54
-25.159
51.855
62.716
73.341
96.792
107.39
66.152
3.4296
-28.673
-61.307
-81.97
-102.88
-125.13
-35.327
48.43
47.816
31.474
31.877
40.155
38.019
30.155
13.14
1.1642
-32.189
-68.605
-10.732
58.369
57.635
40.657
44.142
52.592
42.165
24.107
6.0845
-11.822
-82.176
-157.23
-95.841
12.35
26.631
11.294
8.809
15.274
14.714
1.3313
-15.652
-32.272
-47.471
-61.692
-102.43
-53.511
42.884
51.734
29.503
22.211
31.527
33.515
17.178
0.82401
-12.651
-23.934
-43.031
-65.078
2.76
70.109
61.515
32.256
34.858
47.046
37.64
-7.4047
-61.873
-87.175
-129.4
-114.33
-6.0754
47.809
36.814
26.709
47.159
51.594
34.447
-8.359
-41.225
-59.562
-93.491
-41.708
59.464
72.143
22.418
-0.45263
9.2044
-6.6943
-28.702
-39.22
-31.711
-31.561
-50.736
11.74
95.711
105.14
87.802
83.471
76.875
29.774
-21.838
-60.486
-77.316
-93.899
-122.89
-57.775
45.811
61.048
33.489
19.292
20.14
17.953
-2.4606
-37.593
-49.105
-80.228
-63.879
20.421
47.373
27.134
28.191
63.617
78.129
40.182
-8.6663
-38.138
-92.56
-115.25
-53.884
-36.635
-73.809
-77.719
-24.842
29.13
10.428
-35.799
-40.123
-64.136
-0.53192
112.99
147.27
145.95
154.01
188.1
81.445
-45.856
-6.6311
13.958
29.172
58.417
18.005
-30.11
-17.033
-22.7
-35.854
-55.2
-62.926
-81.811
-91.045
3.4285
45.05
46.705
47.836
57.325
35.958
-62.864
-126.38
-170.17
-174.87
-65.344
8.8618
29.574
75.221
90.013
82.99
77.833
19.054
-57.265
-97.945
-35.892
40.647
46.289
40.629
19.387
-11.8
-20.275
-24.33
-14.704
-21.461
2.8213
94.764
97.58
58.258
24.674
1.7235
-8.4429
-24.817
-44.705
-83.822
-147.77
-90.486
8.5256
32.104
60.936
113.5
108.13
39.857
-44.956
-94.741
-134.35
-113.68
16.409
100.76
92.627
35.955
-29.976
-48.213
-36.167
-52.723
2.8336
28.498
6.8434
49.752
59.283
47.879
85.549
118.12
101.78
19.222
-60.729
-113.22
-201.16
-217.75
-164.82
17.009
237.37
199.48
96.145
30.551
1.5354
5.4113
-3.3978
9.0974
-0.67824
-11.127
2.7831
-34.283
-96.547
-119.72
-110.65
-2.7131
170.76
193.35
14.904
-120.45
-21.32
78.614
75.305
87.299
6.3288
-61.314
-62.489
-91.514
-119.22
-108.31
-34.36
122.01
193.98
144.82
88.641
34.627
-20.426
-4.7754
9.5281
-53.819
-157.78
-203.95
-138.47
-41.197
41.924
93.84
89.517
7.4605
-43.478
-21.969
27.473
32.317
17.569
-35.956
-52.183
-30.673
-32.713
-57.508
-71.69
38.421
116.59
69.402
-13.023
-82.859
-75.23
22.508
113.64
184.17
123.62
-13.872
-74.761
-92.217
-136.09
-102.89
-12.51
-6.6952
6.7032
59.899
62.98
49.415
29.281
64.048
130.74
49.741
-76.913
-177.99
-194.37
-103.94
-38.914
10.324
55.67
102.03
77.143
17.948
-46.923
-74.016
-100.04
-105.11
59.519
197.61
163.43
106.17
40.312
-35.339
-83.438
-27.682
27.117
28.038
77.449
104.2
44.421
-30.474
-44.115
-39.382
-118.23
-157.54
-125.28
-95.414
-27.22
52.561
111.56
102.38
25.95
7.7794
33.442
45.743
40.831
99.284
103.65
14.164
-54.469
-102.4
-134.82
-115.31
-51.888
22.183
1.3998
-9.961
85.945
153.06
164.03
183.49
124.12
-28.753
-135.72
-160.15
-183.47
-129.92
54.298
124.37
48.142
-12.528
-41.836
-70.56
-42.385
-8.178
25.361
94.762
84.766
-10.155
-37.669
14.971
-56.648
-214.35
-178.27
-151.79
-94.846
58.045
111.07
86.336
82.137
95.732
92.738
57.843
-40.987
-36.24
98.186
240.26
277.12
178.13
177.1
262.85
258.56
134.27
7.8262
-104.93
-241.13
-361.63
-359.3
-326.29
-292.65
-295.73
-287.06
-303.23
-302.51
-151.89
87.444
274.06
257.23
140.33
49.364
18.996
-27.313
-139.24
-86.189
120.72
152.74
104.81
66.135
3.9818
-47.781
-59.263
-90.565
-69.831
78.903
168.8
136.54
43.426
-32.675
-50.787
-50.722
-72.439
-104.68
-5.8105
143.63
179.2
135.25
82.37
32.118
-62.444
-126
-171.64
-151.01
-19.254
64.117
55.104
4.576
7.994
35.856
67.516
115.68
49.751
70.975
189.56
205.48
156.97
98.28
53.866
24.638
-13.444
-153.47
-94.188
105.42
48.869
-86.087
-103.97
-126.47
-218.91
-285.49
-334.34
-320.96
-156.27
55.355
158.16
149.6
134.43
118.09
87.196
40.013
-63.507
-40.08
132.89
225.92
221.28
138.94
90.039
16.816
-101.4
-193.35
-275.2
-197.09
17.045
83.243
55.935
18.631
5.0696
16.831
21.953
31.901
-27.829
-70.465
52.762
91.112
28.701
-31.084
-31.569
-4.7724
14.242
-16.165
-70.302
-37.486
53.622
57.68
51.572
75.987
69.549
7.7465
-15.829
-41.326
-112.41
-94.13
16.876
76.932
91.001
67.328
46.633
27.979
16.086
-4.2939
-19.661
-17.336
43.128
114.84
93.236
-5.1346
-96.919
-101.95
-78.351
-75.153
-67.232
-65.341
-36.844
68.909
108.8
17.432
-123.38
-151.5
-36.646
56.872
58.436
31.145
-27.412
-9.3199
35.974
24.899
25.445
32.579
35.882
25.468
-21.294
-62.102
-48.846
-49.476
-14.975
77.107
116.12
71.905
13.307
-23.65
-36.223
-38.799
-13.471
-12.456
-85.548
-42.804
53.405
44.916
44.134
87.325
89.727
47.888
-10.298
-72.832
-121.69
-114.28
-18.921
42.171
62.803
63.014
23.615
-16.137
-29.917
-33.064
-19.568
-6.5306
-27.54
27.266
91.447
58.84
17.132
-10.634
-32.447
-45.505
-61.556
-64.055
-119.03
-137.5
14.223
152.25
167.41
114.46
49.674
6.1401
-14.532
-38.503
-46.345
-59.376
-33.119
92.267
137.59
72.803
-6.8683
-42.709
13.053
61.212
2.3467
-94.318
-170.32
-73.533
52.163
50.813
33.258
10.831
6.6426
19.314
-12.842
-87.027
-152.5
-95.708
81.597
159.11
131.66
68.657
1.5723
-34.339
-53.68
-64.954
-77.559
-87.999
-2.2898
69.754
37.683
-22.47
-28.977
10.954
20.88
15.216
-23.244
-98.162
-30.175
57.559
46.332
18.266
-7.4713
-14.093
-5.7398
-34.958
-94.095
-107.22
24.336
130.97
128.92
105.57
24.47
-54.78
-63.627
-69.227
-79.413
-84.266
-22.713
62.765
64.587
13.763
-13.549
31.301
70.411
78.346
6.5149
-70.265
15.3
83.372
54.669
41.91
91.734
124.18
137.42
106.69
32.252
76.661
68.326
-97.949
-189.62
-191.6
-102.03
3.5592
-3.7579
-85.808
-91.317
-51.811
-7.3938
13.417
12.315
-7.4941
-60.62
-87.335
-75.005
-84.109
-69.216
15.23
50.364
3.3047
-40.117
-78.865
-87.108
-72.654
-80.277
-0.99717
93.075
89.216
56.178
60.772
75.683
59.475
-2.5488
-80.507
2.1505
82.534
43.023
5.6519
13.163
12.603
-0.3815
-55.827
-115.46
-43.335
58.789
79.782
45.054
-27.417
-71.1
-57.467
-41.689
-73.309
-76.428
3.8646
74.095
62.752
4.3983
-3.6182
26.557
40.915
-7.7072
-19.059
68.658
108.8
91.064
65.798
7.3853
-26.344
-40.511
-104.92
-58.983
50.301
61.184
30.864
38.26
74.75
106.7
28.868
-116.69
-79.231
53.275
138.27
145.3
35.091
-87.413
-134.01
-166.48
-87.337
78.854
122.81
91.589
25.452
-74.066
-106.46
-60.278
-48.089
-38.917
40.344
86.36
72.044
33.999
19.335
24.409
65.157
-30.041
-126.84
-56.985
12.98
18.924
-0.76889
-9.9627
-8.1362
6.0083
-31.109
-37.394
5.3973
27.686
26.588
46.399
54.266
18.35
-15.6
-80.757
-50.925
39.411
47.863
8.2417
-1.124
-4.4497
-13.958
-57.86
-80.86
-0.5573
67.392
74.978
37.098
-0.54758
-21.688
-28.078
-30.585
-56.952
-45.076
18.904
43.377
31.956
-2.7283
-37.744
-33.465
-20.45
-22.086
12.474
32.122
27.864
2.2543
-21.375
-5.4573
-15.016
-34.279
-45.43
-19.869
24.694
22.217
2.0243
-10.516
-1.531
4.3854
-5.2585
-41.626
-28.23
47.589
88.325
61.722
3.529
8.6497
0.19292
31.688
3.8595
-138.99
-32.623
114.72
118.64
56.73
-9.6794
-44.85
-83.449
-138.7
-139.57
33.052
149.37
153.05
117.95
134.72
141.47
144.12
35.032
-166.97
-198.25
-176.56
-145.78
-43.323
100.42
125.76
121.58
144.57
-19.18
-39.423
48.439
-92.35
-170.66
-136.24
-82.235
-13.77
8.3374
-54.998
-77.723
-43.505
-77.511
-196.86
-212.61
-223.65
-165.18
-126.77
-390.2
-169.65
306.96
382.48
472.38
511.57
353.95
222.72
136.21
12.073
-146.79
-196.39
-148.82
-98.852
-133.94
-300.89
-325.53
-112.15
46.501
156.31
239.82
198.7
120.91
70.696
48.876
-7.5415
-79.591
-148.19
-96.553
31.867
34.706
-16.504
-10.159
31.681
54.614
1.714
-101.37
-68.555
53.082
85.956
3.615
-28.923
-15.601
-17.545
-59.958
-131.41
-56.907
71.838
130.78
124.01
83.164
37.93
-8.8259
-30.053
-43.634
-19.26
48.702
82.191
72.545
41.182
-16.284
-38.373
-13.625
-9.2099
38.411
116.31
109.97
70.166
58.11
17.284
-58.357
-132.53
-134.1
-59.788
-11.545
1.9185
29.922
78.052
101.22
108.99
54.881
-1.6505
19.649
-12.038
-50.716
-18.027
-12.488
-72.11
-99.657
-130.46
-97.269
25.804
86.319
119.44
81.432
8.4972
-32.839
-91.007
-105.59
-23.052
32.68
36.205
15.091
-7.187
-21.886
-29.773
-43.543
10.276
96.527
86.392
35.205
-8.2682
-30.422
-12.851
-11.34
-57.109
-13.306
45.392
35.663
-0.49443
-31.327
-34.373
-15.945
-2.4718
-11.238
24.665
49.845
14.075
-29.126
-55.133
-42.032
-6.7581
-28.111
-20.831
15.307
21.02
26.156
32.827
29.143
19.779
-15.528
-50.687
-5.3987
19.374
4.1509
6.2122
13.663
0.17523
-13.8
-62.288
-69.193
9.822
56.318
55.228
45.181
20.915
-12.229
-12.41
-35.298
-45.226
-7.8656
20.398
29.186
22.116
-24.398
-65.128
-55.565
-30.981
16.322
52.847
50.708
10.804
-13.595
-2.3127
-30.254
-74.938
-52.375
26.986
55.56
25.416
-13.648
-1.9494
14.39
23.215
-12.344
-12.685
39.602
44.204
21.536
12.993
-5.1767
-23.325
-39.249
-50.068
-4.4569
29.28
19.322
-4.2709
7.9474
27.941
20.4
-23.599
-71.019
-18.025
46.672
41.322
3.4441
2.8458
6.1641
-1.278
-39.69
-56.631
-2.6319
29.602
45.002
41.823
25.913
5.3364
-12.915
-63.093
-63.026
10.06
38.178
27.998
5.5267
1.485
-21.744
-50.49
-69.342
-59.476
17.027
78.524
74.479
56.604
40.998
30.965
80.434
85.82
34.801
111.34
96.92
23.593
-20.661
-102.98
-143.49
-136.99
-273.27
-294.41
-106.46
118.97
112
-105.4
-129.86
-39.879
-73.995
-56.737
-42.689
-83.995
-46.024
-50.547
38.411
236.8
334.82
229.71
46.208
176.41
173.49
27.972
44.326
-31.482
-171.26
-125.89
-68.639
-87.209
-84.79
-66.851
79.257
235.7
240.6
151.5
11.858
-36.55
6.8264
-81.603
-126.41
-60.429
-34.851
15.503
80.263
0.43743
-61.459
-68.231
-99.161
-56.409
29.449
76.396
80.701
67.447
16.629
-56.015
-173.26
-224.73
-177.61
-99.208
59.22
109.8
86.26
9.902
-45.819
-8.8197
-8.4095
48.149
128.94
67.948
-67.117
-130.34
-141.53
-123.93
-91.27
-14.879
61.773
88.868
109.19
94.244
78.755
74.158
62.987
50.804
82.987
73.246
21.24
-6.9713
-20.047
4.1543
41.813
0.3015
40.232
193.29
222.83
51.926
-21.716
-15.197
-45.504
26.477
42.166
-92.836
-200.04
-131.52
17.967
1.4867
-9.905
34.286
-44.301
-114
-71.718
7.8525
56.364
78.339
12.519
-56.307
-63.476
-32.563
28.693
68.782
26.852
-13.55
-31.381
-44.389
-48.912
-60.874
-69.741
-21.099
14.67
9.8853
5.7153
20.919
28.987
25.682
1.0829
-6.8206
28.378
48.148
24.663
-2.6106
-1.4213
-2.9718
-6.0286
-24.596
-3.9051
64.461
20.523
-68.154
-77.59
-81.052
-90.392
-93.61
-91.162
-18.893
50.55
43.066
15.275
11.823
4.8585
-5.4736
-36.248
-53.619
8.6968
50.103
33.229
10.189
13.055
4.0915
-12.165
-35.681
-66.49
-20.164
47.058
48.299
18.965
15.543
15.315
-0.29877
-17.509
-54.122
-36.484
36.024
56.505
26.761
13.057
16.928
-0.57286
-13.256
-52.345
-51.069
32.489
69.843
53.256
31.993
29.326
17.201
0.28365
-19.701
-55.676
-24.143
50.595
59.943
42.14
31.996
25.628
17.579
-2.5607
-17.816
-40.864
-51.523
14.661
53.024
37.741
23.239
23.018
15.758
7.9989
-11.881
-24.377
-40.378
-59.177
-5.8287
41.761
28.612
14.586
16.092
14.488
7.5173
-9.3489
-17.624
-39.843
-38.507
21.402
42.938
22.846
11.062
12.765
11.705
-1.2734
-19.056
-26.51
-49.272
-22.317
34.835
34.089
15.054
14.776
16.952
9.8226
-0.80798
-16.869
-19.357
-35.92
-22.377
44.294
65.216
48.52
72.201
71.036
-28.844
-126.91
-178.86
-201.64
-203.42
-146.11
-97.75
-69.726
-44.534
35.01
149.64
160.31
133.25
154.65
133.59
67.758
-5.1335
-31.521
-15.588
2.8273
47.526
42.82
-53.671
-54.526
-6.013
6.4443
11.405
43.746
66.944
82.659
133.33
-12.243
-170.81
-40.467
55.724
30.919
48.494
90.273
63.462
-7.6684
-3.3883
-66.785
-121.92
-38.756
-17.809
-72.084
-69.792
-22.875
27.019
63.665
75.292
70.663
57.718
7.4464
-44.231
-113.22
-138.25
-56.13
24.649
47.14
91.402
95.188
96.16
83.441
13.829
-42.899
-78.684
-113.32
-73.572
17.927
23.832
1.9103
7.4314
-40.402
-64.129
-73.176
-49.916
105.41
80.016
-144.49
-183.41
-104.71
-124.59
-151.66
28.167
130.26
109.52
73.09
55.955
96.641
143.79
134.05
111.89
51.04
-40.322
-75.559
-51.108
-32.247
-40.055
-63.514
-71.693
-78.642
-84.615
-95.832
-124.77
-120.26
-145.03
-152.66
47.127
199.8
184.84
159.46
135.22
143.43
137.92
123.49
136.07
43.114
-68.513
-83.372
-67.175
-48.584
-56.493
-48.861
-51.086
-98.363
-93.18
-35.426
-47.793
19.569
15.374
4.5787
32.131
-2.284
-8.6137
-56.908
-54.56
-50.369
-57.431
-67.714
15.647
81.675
84.754
49.912
5.5023
-17.529
1.8552
12.497
-5.8636
-17.049
-12.047
22.476
64.632
70.892
38.837
38.621
78.21
100.72
92.56
34.796
-53.753
-51.9
-25.537
-36.326
-64.251
-53.36
17.423
27.992
-11.975
-26.306
5.6821
98.562
158.53
148.85
125.71
16.272
-77.264
-85.491
-106.13
-134.47
-142.85
-125.57
-42.018
45.986
97.65
128.07
111.37
81.561
75.152
2.8594
-110.87
-119.45
-78.858
-59.868
-37.495
-36.467
-37.902
-14.932
8.2513
32.297
62.817
89.296
115.19
67.88
-23.262
-81.375
-77.515
-52.095
-36.722
-36.805
-56.433
-35.196
14.142
35.013
50.588
90.246
100.44
97.201
38.685
-81.675
-140.21
-94.227
-24.478
-36.92
-47.344
-15.799
15.044
10.584
6.4522
-11.295
-12.24
25.595
85.945
161.29
95.85
-21.09
-54.868
-72.242
-82.747
-63.432
-56.256
-22.568
55.81
74.526
68.187
77.794
112.22
89.985
43.554
24.664
-60.953
-141.07
-107.04
-85.361
-73.227
-46.573
-57.08
-62.996
-30.457
5.3027
8.092
28.859
65.783
57.536
89.581
101.45
24.018
-30.614
-52.777
-53.385
-53.273
-49.99
-23.375
49.243
125.54
112.75
68.556
33.596
-13.204
-44.723
-56.099
17.419
141.88
91.742
-42.198
-135.56
-173.87
-121.08
-59.9
-65.571
-79.283
-66.408
-9.4703
66.457
122.58
81.424
31.863
68.979
35.469
-28.642
-63.041
-75.441
-66.72
-27.635
26.108
46.265
31.217
15.719
50.138
102.72
21.902
-26.714
30.564
26.906
-17.867
-40.68
-101.73
-97.782
-29.737
-0.98312
17.558
11.349
16.012
68.616
80.075
88.854
169.1
129.26
-44.969
-163.91
-180.43
-182.66
-118.64
-6.8992
72.629
90.975
115.21
111.85
18.229
-43.068
25.846
102.73
86.902
-29.535
-142.38
-143.84
-99.004
-52.987
-1.661
14.779
0.75974
49.088
96.764
114.35
90.338
105.07
118.38
-18.979
-180.27
-229.85
-160.1
-79.98
-21.02
22.375
80.126
102.79
70.623
25.839
-29.917
-32.968
12.321
67.451
127.55
73.473
-43.775
-92.986
-100.25
-112.6
-97.645
-10.281
84.763
110.19
102.44
77.574
26.107
10.073
11.403
14.236
75.737
57.308
-42.231
-86.655
-63.32
3.0764
76.924
50.904
-70.476
-112.48
-94.66
-67.261
-51.929
-10.318
56.833
84.614
79.785
55.49
13.284
-10.996
-28.44
-45.051
-29.947
-31.703
-85.651
-119.59
-84.055
1.1734
54.306
41.765
33.9
47.027
62.967
85.105
13.531
-63.05
-26.412
24.808
10.595
28.673
69.921
-16.524
-112.52
-87.968
-37.897
14.736
64.45
89.811
109.46
136.03
179.77
221.97
282.89
221.23
65.595
-94.201
-290.02
-323.9
-323.37
-408.69
-320.8
-187.85
-152.81
-61.19
66.912
101.3
87.444
62.565
98.909
121.65
133.63
108.11
49.128
30.959
7.1883
-20.772
-34.33
-33.121
-31.687
-62.327
-155.75
-118.31
20.677
71.518
60.396
12.523
-5.5561
-6.3622
-21.434
-37.128
-9.0085
80.783
105.95
60.234
13.777
7.6538
-1.6576
-17.687
-43.068
-49.075
27.067
126.28
165.18
174.91
197.91
183.1
95.296
-95.214
-165.57
7.4712
50.254
-44.001
-64.004
-80.088
-101.08
-99.644
-107.1
-125.41
-138.45
-42.159
53.109
44.643
7.0039
4.4784
16.484
2.0429
-26.495
-65.812
-97.616
-38.418
32.023
38.028
19.941
27.648
62.774
69.186
46.722
9.2821
-21.978
6.9886
53.289
41.961
18.362
4.6775
-0.64533
-15.438
-24.508
-34.003
-71.799
-40.229
41.134
51.05
34.586
32.493
29.868
22.611
23.227
29.127
-1.0793
-16.475
29.038
34.027
-7.7679
-24.517
-18.313
-20.926
-35.734
-69.721
-88.445
-113.11
-105.03
-56.063
-31.116
-24.951
7.003
48.263
94.094
167.55
172.03
87.871
-6.2788
-22.814
1.247
14.018
23.824
34.919
15.751
-31.078
-64.993
-70.641
-86.873
-81.275
-7.7499
33.877
32.209
27.623
30.156
18.792
-3.3756
-35.378
-53.28
-68.938
-28.147
75.594
140.41
149.22
154.23
166.7
29.656
-75.171
-56.309
-74.598
-117.53
-161.66
-156.92
-82.322
-28.847
-34.24
-22.722
7.0596
19.793
15.766
8.3248
1.371
-33.56
-21.809
54.441
96.364
105.95
122.56
131.06
42.978
-123.8
-205.77
-178.79
-96.851
59.979
200.79
262.42
253.18
175.54
-3.3352
-195.57
