-0.0095317
0.0038787
-0.02136
0.011465
-0.082928
0.64678
2.0203
3.7516
6.1757
8.2225
11.872
14.617
23.021
31.823
48.296
69.925
93.6
130.59
156.58
208.59
206.87
24.579
-206.69
-409.25
-538.21
-514.13
-327.6
-102.77
71.2
158.91
182.47
169.84
141.34
110.94
81.99
57.503
37.715
22.89
12.468
6.0278
2.5631
0.95693
0.32367
0.13604
0.17666
0.31667
0.54439
0.31985
0.55772
0.4766
1.0545
1.6028
2.4658
3.7893
3.7424
6.8019
5.1467
8.7553
4.9132
-7.5294
-26.522
-65.776
-39.896
11.968
26.571
41.997
26.64
-12.318
-10.559
6.8488
-13.602
-13.51
-10.016
-19.6
3.8755
41.711
30.101
3.9853
-4.0507
4.0315
-10.007
-39.099
-76.952
-84.786
-93.979
-117.73
-32.941
64.208
86.539
102.25
111.2
96.833
92.482
87.783
67.122
38.079
-29.357
-66.692
-14.448
32.788
29.899
7.3801
-4.3797
-6.8784
-17.634
-58.6
-92.577
-106.88
-93.549
-5.1171
69.576
79.369
61.518
46.469
29.905
13.913
-10.784
-30.43
-42.915
-54.921
-8.1379
34.831
26.513
12.437
9.9849
7.0658
2.8472
-12.593
-24.851
-36.933
-49.769
-4.914
37.293
30.104
11.639
9.5959
9.3231
3.9174
-8.3908
-23.745
-31.445
-52.003
-28.86
29.553
41.83
23.702
10.679
12.638
8.3759
-0.89106
-15.453
-28.045
-37.789
-54.879
-27.226
31.278
41.807
23.84
14.018
16.34
9.8167
0.95827
-12.255
-23.883
-32.168
-50.792
-37.673
20.864
44.416
25.229
10.26
14.397
12.644
3.2031
-9.2661
-21.299
-29.46
-47.298
-37.308
21.516
47.278
29.158
11.463
14.378
13.755
5.1939
-8.6958
-25.379
-36.57
-54.747
-43.735
16.784
44.962
27.966
10.527
14.187
15.537
7.4064
-6.4506
-20.178
-29.796
-50.871
-47.397
10.352
45.661
31.498
12.36
15.408
19.138
12.127
-1.0014
-16.389
-27.476
-44.57
-56.587
-7.5667
42.938
40.717
19.809
15.426
21.928
15.946
2.4366
-12.531
-24.866
-36.346
-57.664
-37.59
25.65
45.95
27.254
15.026
19.631
21.984
11.112
-2.9769
-17.645
-29.27
-46.291
-57.321
-5.0947
46.926
40.128
18.072
18.461
23.101
14.953
1.8837
-15.801
-28.747
-43.471
-67.437
-41.162
14.456
16.905
-13.418
-28.019
-26.919
-21.226
-2.6225
16.245
26.031
2.8142
-7.0237
40.461
64.665
41.392
20.636
20.444
14.033
0.64659
-20.073
-41.54
-62.717
-74.434
-22.869
42.72
50.091
29.163
36.029
63.892
61.359
40.036
7.0924
-29.643
-37.576
-52.708
-38.452
10.577
-25.731
-81.443
-126.8
-111.4
-23.103
21.587
38.79
34.555
15.177
-21.131
-57.505
-20.442
40.447
50.686
47.198
52.255
63.202
59.693
45.364
24.961
7.8231
-15.029
-55.126
-28.54
41.309
60.543
50.911
43.586
42.992
32.034
16.76
-9.5827
-25.447
-57.939
-71.735
-5.391
44.195
51.16
48.765
45.143
43.321
29.967
8.99
-12.879
-34.105
-50.59
-85.842
-64.41
20.08
48.819
50.525
51.322
49.325
42.702
33.978
13.115
1.9498
-16.367
-36.183
-52.54
-90.614
-57.47
21.689
42.054
38.697
38.653
36.469
33.195
19.623
-0.85368
-12.757
-32.485
-43.163
-68.9
-66.254
5.6992
42.049
33.56
24.612
27.445
28.452
14.441
-3.2481
-16.643
-32.197
-45.172
-72.631
-44.373
25.546
42.57
33.8
30.459
31.362
30.812
20.834
2.7681
-7.003
-25.094
-39.594
-73.629
-104.72
-66.345
-40.754
-32.721
-5.8269
29.079
64.041
69.727
69.433
131.12
137.7
27.498
-64.731
-129.51
-174.89
-112.38
-79.378
-91.334
-57.105
18
72.471
80.941
55.053
25.899
-29.178
-68.986
-22.818
46.968
60.078
57.113
107.42
135.77
222.93
191.32
-97.622
-236.14
-244.42
-142.32
18.025
73.314
51.301
62.823
26.401
3.3917
27.711
15.53
-24.575
-38.577
-3.6137
6.3078
-16.362
-45.429
-17.565
11.911
2.0816
-24.61
-28.718
-41.767
-39.623
12.7
31.965
20.513
20.433
21.371
65.167
45.358
-123.14
-168.49
-68.155
24.243
70.719
81.86
65.125
44.4
49.247
38.653
27.302
6.7856
-2.7168
59.165
106.92
86.96
-77.217
-217.84
-119.15
-9.5167
-17.555
-52.662
-52.128
-3.0943
44.211
39.486
21.844
7.2254
3.1863
-9.6571
-17.688
-29.547
-44.537
-0.21788
26.1
17.511
11.111
10.52
14.207
6.5862
-13.631
-36.751
-65.489
-46.048
11.455
34.356
29.265
17.763
14.399
16.727
8.6508
0.97919
-8.8741
-10.344
38.255
68.63
57.849
20.985
-11.163
-17.677
-26.98
-46.59
-44.16
-46.459
-11.562
68.261
85.205
45.312
13.765
28.361
45.702
28.106
-44.474
-105.22
-185.45
-166.77
-24.205
31
31.79
34.702
36.895
28.417
25.268
-1.0006
-14.93
-35.834
-57.49
-1.7714
57.463
58.143
45.282
39.309
36.307
29.124
14.228
-4.1124
-19.958
-34.439
-67.06
-53.706
21.245
48.563
37.913
20.39
13.633
7.3077
-5.1694
-22.514
-38.237
-47.686
-75.35
-76.446
-6.5539
37.883
26.576
4.0768
14.701
23.522
19.087
4.1448
-0.1021
-1.368
-7.4388
43.889
95.599
86.741
57.204
40.158
32.954
19.956
-1.1069
-33.468
-57.657
-73.232
-81.984
-38.542
18.125
27.791
20.825
19.962
30.876
36.033
17.143
-6.0093
-27.633
-49.669
-93.917
-119.5
-72.737
-29.663
-6.9189
18.406
53.964
68.726
54.347
25.84
12.917
-0.1437
-27.727
-62.787
-46.754
36.216
73.381
54.1
29.254
34.875
42.091
27.744
6.4633
-14.033
-43.075
-80.147
-77.952
-24.03
10.187
-4.2432
-19.016
-0.43993
9.3595
-2.7115
-21.848
-37.618
-57.81
-66.059
1.4008
75.939
94.44
97.626
119.85
140.25
165.4
153.63
56.064
-141.13
-361.07
-360.63
-185.67
20.339
121.24
117.39
111.68
92.478
65.514
29.598
-15.515
-52.473
-79.095
-79.712
-32.067
-5.3367
6.1429
7.7606
20.026
18.264
14.622
8.9161
1.737
-4.9045
-14.04
4.279
41.61
41.562
8.7201
-7.8391
-12.206
-16.852
-34.589
-61.598
-74.52
-110.63
-95.691
-31.596
10.348
41.711
30.622
14.965
15.5
-18.898
-81.051
-31.109
29.235
-21.239
-62.803
-33.962
8.6611
41.446
53.505
65.431
72.824
61.701
43.439
23.089
4.4029
-21.113
-29.954
36.684
127.94
123.84
50.928
9.578
-22.268
-14.68
-0.50812
-2.3572
-9.9727
-27.7
-27.92
8.5694
29.887
22.771
13.608
18.842
21.026
13.325
-5.4303
-22.639
-37.995
-56.564
-18.183
33.254
38.907
24.593
22.53
25.414
19.363
10.141
-7.7329
-18.908
-35.63
-57.913
-24.265
21.519
26.662
16.381
18.917
23.566
17.837
9.1579
-11.379
-26.481
-41.478
-57.368
-13.272
40.216
46.372
35.536
42.573
56.45
66.048
68.128
64.722
88.542
75.231
-3.7655
-56.602
-39.818
-80.927
-182.09
-136.06
-26.202
-2.2991
-35.574
-49.146
-21.864
-1.186
3.2429
16.961
20.299
15.337
12.39
6.9305
-3.6052
-5.1462
-28.865
-90.015
-147
-70.515
72.043
101.34
78.964
80.55
50.907
3.8687
-24.169
-17.21
4.5266
14.648
19.364
68.502
101.79
40.938
-26.984
-30.225
-22.189
-29.895
-50.851
-67.589
-104.55
-89.873
0.52633
31.999
1.6817
-27.916
-32.216
-37.825
-43.908
-45.468
-46.216
-61.577
-21.177
49.191
65.499
48.594
44.794
48.855
43.062
28.26
11.954
-2.4048
-29.662
-17.491
20.819
29.694
16.928
11.177
19.52
18.27
4.4974
-4.8176
-14.598
-44.814
-44.38
-10.867
-1.1065
-8.8496
-6.2563
7.6876
7.9712
-3.0667
-11.407
-22.873
-39.969
-9.28
32.777
38.354
30.225
36.764
47.759
58.172
63.617
83.181
104.69
131.69
252.13
304.8
193.46
52.229
-72.766
-228.43
-370.12
-402.85
-390.94
-408.71
-394.4
-255.94
-119.35
6.4101
157.02
194.49
153.89
133.64
103.26
74.303
45.071
-21.692
-12.583
68.965
76.569
39.462
22.499
37.321
27.291
17.758
25.483
23.673
-20.725
-31.864
30.21
67.435
55.353
27.123
30.864
46.737
31.528
24.39
25.59
-22.348
-40.239
28.991
71.047
64.203
40.502
21.145
3.2326
-17.96
-41.68
-61.805
-81.13
-43.241
36.778
71.62
45.957
7.4979
14.529
45.814
35.248
-7.0076
-50.028
-112.28
-117.05
-33.58
30.251
59.846
59.634
45.037
29.218
36.83
34.075
19.032
-13.812
-57.507
-12.06
52.047
58.267
44.3
29.287
20.19
22.002
2.5228
-21.16
-41.845
-77.446
-61.703
-19.9
8.277
35.549
32.889
26.299
34.369
23.441
22.993
31.587
25.883
116.2
184.7
134.21
55.454
6.4316
-2.1096
-6.5077
-43.648
-95.504
-133.67
-186.98
-199.23
-103.11
-35.216
-24.757
-16.382
-5.2288
5.7417
7.8048
-10.453
-4.1709
-25.496
-48.748
26.901
76.276
47.509
-8.8914
-42.472
-50.818
-45.147
-40.901
-31.831
-35.547
-69.793
-58.923
-2.9635
17.901
2.1227
-10.202
-0.4239
8.0182
3.7913
-13.736
-13.181
-41.808
-32.514
41.33
52.014
17.505
-1.0676
0.79102
2.2649
-6.9063
-27.197
-24.676
-55.731
-8.0151
113.43
120.01
69.811
45.339
42.366
18.04
-11.143
-48.079
-53.276
-68.526
-47.717
37.655
59.364
20.256
-13.304
-18.96
-27.123
-27.824
-47.36
-55.268
-56.441
-69.268
15.74
94.852
83.54
59.234
50.932
39.352
9.5545
-41.497
-73.262
-73.577
-99.158
-61.784
32.303
53.653
42.809
46.252
67.167
65.907
21.08
-42.319
-91.44
-121.85
-113.5
-25.551
53.922
74.18
61.653
57.299
55.614
26.209
-15.859
-60.53
-66.672
-97.915
-79.444
64.262
128.33
82.487
32.197
20.992
1.4328
-13.34
-33.129
-34.962
-56.053
-68.788
33.648
107.05
72.618
20.845
7.2836
-15.575
-28.127
-51.221
-56.625
-73.594
-96.276
12.4
98.487
86.356
57.583
56.876
56.318
35.812
10.954
-19.062
-29.019
-60.783
-70.302
39.631
91.934
50.052
22.588
19.348
-13.342
-51.996
-68.373
-82.784
-85.284
-95.654
-125.82
-49.054
44.948
30.161
-11.149
-35.77
-37.826
-6.4576
32.167
35.423
-23.01
-66.144
-68.306
-35.369
74.879
148.66
135.14
94.484
66.678
62.298
60.275
54.515
22.425
-29.266
-65.057
-81.883
-14.973
58.491
64.278
38.777
47.043
68.651
80.294
71.306
26.92
-5.324
-67.199
-128.35
-82.768
-27.906
-38.02
-64.339
-49.891
-26.858
-9.5521
16.607
26.018
63.298
121.45
173.44
255.49
221.91
80.768
10.689
24.491
-0.88367
-82.1
-132.89
-128.84
-122.16
-195.59
-191.52
-28.828
59.912
44.915
40.681
59.17
50.231
5.4065
-71.883
-121.12
-162.93
-159.7
-64.087
12.168
33.813
52.873
74.928
75.703
60.274
43.659
29.67
5.816
45.41
125.98
151.93
90.769
7.191
-16.386
-34.696
-79.247
-96.827
-83.001
-90.068
-36.162
45.59
62.07
44.314
36.099
26.538
-1.2503
-26.98
-48.863
-61.705
-93.199
-71.983
0.92617
19.743
-0.7881
-9.263
-14.971
-31.77
-49.095
-52.141
-28.575
-22.412
-12.644
67.967
114.44
79.613
49.688
46.297
29.226
0.088325
-19.421
-33.151
-48.738
-4.2095
70.11
96.718
82.546
76.291
73.025
56.101
37.83
0.34144
-74.153
-152.17
-139.6
-71.97
-46.681
-62.331
-53.691
-35.684
-15.503
0.23864
-3.8207
-17.451
-47.238
-24.687
41.022
61.553
52.975
43.908
48.173
41.711
25.968
11.116
-9.8848
-32.179
-63.066
-69.601
-12.677
36.56
48.563
47.144
64.178
69.258
55.268
31.417
4.9528
-12.909
-44.017
-48.822
14.889
65.109
110.1
139.61
116.64
39.586
-54.433
-111.94
-135.54
-147.47
-172.02
-109.05
3.2886
45.983
53.547
53.577
53.79
40.375
37.414
38.494
20.677
5.2499
-13.152
-19.816
11.277
21.517
-2.6048
-25.809
-22.897
-6.4939
-5.5338
-14.219
-14.721
-28.55
-38.881
-52.822
-13.473
75.563
79.624
39.043
27.575
35.495
22.274
-32.471
-121.4
-177.57
-179.32
-137.34
-72.483
39.105
125.55
113.82
62.18
59.903
65.772
31.106
4.4678
-15.664
-25.833
-40.684
-43.649
12.537
38.709
4.7761
-22.626
-12.279
-9.9647
-20.909
-13.491
-7.0376
-7.0927
-22.31
-27.26
29.475
64.24
33.49
1.1917
8.1701
12.146
-1.954
-16.692
-32.269
-39.964
-66.824
-62.674
4.7693
40.553
24.493
14.436
33.103
34.909
10.291
-22.195
-43.68
-63.991
-87.204
-60.531
-3.586
34.484
36.185
35.771
60.375
99.505
123.59
139.49
155.44
118.62
97.688
17.042
-150.29
-251.18
-257.47
-178.19
-94.626
-59.729
-77.676
-79.986
-104.45
-53.82
52.37
99.95
92.428
84.726
83.053
62.888
34.957
3.9711
-13.873
-53.489
-49.52
23.879
58.466
49.982
41.547
61.077
63.075
53.581
45.691
30.702
17.353
-17.609
-5.6712
71.893
104.06
82.185
49.324
44.283
37.702
9.1347
-62.776
-141.6
-187.5
-195.42
-116.74
-4.0574
42.232
45.592
55.321
79.321
75.8
34.494
-10.838
-34.213
-72.875
-72.589
0.07835
36.829
33.296
27.155
35.009
43.369
36.924
9.4081
-22.495
-45.818
-76.17
-78.29
-2.3073
47.958
50.491
56.329
74.989
90.61
66.454
11.443
-26.215
-49.517
-61.637
-87.586
-98.26
-20.791
27.348
20.662
20.819
28.465
29.749
21.453
5.658
-1.7497
-15.968
-33.639
-62.455
-73.204
-4.4234
41.408
26.996
8.2473
18.013
22.776
12.567
2.0692
-3.0153
2.2488
-4.9906
-1.9418
56.101
94.983
68.595
20.823
15.084
12.369
-20.294
-55.115
-83.652
-84.141
-98.507
-112.29
-19.181
46.401
22.678
2.21
8.3553
11.229
-5.0634
-28.356
-49.573
-48.95
-59.545
-87.295
-14.837
78.242
71.869
38.451
34.989
34.269
0.61438
-35.712
-59.173
-56.174
-50.657
-65.464
-16.909
60.96
54.084
10.465
-0.69717
19.245
10.155
-14.74
-36.321
-36.365
-40.198
-52.686
-3.1403
55.297
47.641
18.359
31.29
52.378
51.086
34.18
11.883
-8.0451
-58.898
-50.457
30.458
54.383
28.49
11.013
24.761
22.035
7.7877
-9.7208
-22.543
-33.501
-72.447
-42.031
34.132
31.529
4.6129
-2.3577
9.3426
4.9393
-0.50223
4.016
7.35
-7.2162
-49.502
-25.934
56.907
80.73
58.291
45.632
56.829
55.659
43.22
35.045
30.426
39.292
27.253
70.169
169.92
86.827
-125.13
-294.16
-286.64
-153.71
-60.835
-35.416
-12.762
-8.785
-32.698
35.151
120.43
144.47
161.55
197.36
220.2
197.28
125.21
61.384
40.417
-32.493
-78.717
-4.5172
3.5646
-32.681
-54.458
-77.602
-92.919
-92.981
-120.67
-157.21
-155.98
-184.68
-168.42
-52.91
-14.85
-61.704
-103.43
-124.8
-158.43
-141.64
-34.633
83.637
118.42
93.578
136.12
205.21
177.17
73.098
55.721
62.323
18.437
-7.5087
-15.08
0.81339
-1.8059
-5.7099
90.446
157.62
127.47
65.504
9.3545
-26.373
-79.724
-138.44
-172.38
-183.51
-168.52
-200.46
-149.63
16.116
59.403
40.401
43.317
61.122
76.538
79.411
68.714
76.284
54.131
11.322
-53.637
-47.052
41.596
70.536
78.542
100.76
133.59
172.34
165.99
75.221
-55.171
-130.66
-164.48
-241.85
-153.69
8.8763
25.594
-2.5566
11.394
34.736
24.107
10.117
-16.889
-28.519
-68.791
-132.5
-60.799
45.588
32.094
-6.2739
-14.88
3.3195
5.4712
-10.985
-37.884
-58.24
-71.653
-101.57
-73.416
30.176
76.789
85.328
95.643
112.01
119.53
99.815
57.552
12.682
-20.685
-56.278
-87.766
-20.39
51.804
45.751
25.951
28.609
36.906
25.798
4.4758
-17.43
-37.778
-51.999
-88.052
-74.052
15.412
46.114
17.349
-2.1985
1.5304
-7.3135
-24.165
-43.457
-39.274
-41.958
-63.268
-11.569
65.137
72.371
47.981
53.399
68.955
68.865
51.426
35.511
28.508
-1.8543
51.756
142.66
80.883
-56.392
-106.71
-96.312
-85.722
-78.933
-85.206
-87.207
-110.57
-84.105
6.7499
44.576
33.477
27.683
43.272
42.417
23.083
-11.27
-33.344
-65.402
-64.186
13.575
60.46
45.232
24.264
32.675
35.147
23.182
2.6351
-9.0187
-30.968
-26.578
45.041
90.826
60.928
17.542
7.607
-9.3162
-46.758
-79.98
-96.162
-109.01
-63.894
7.902
43.588
57.503
74.671
91.555
86.645
55.757
7.6034
-49.066
-81.306
-25.296
21.038
12.344
-1.2858
5.2886
8.0253
-4.0943
-24.407
-36.237
-57.997
-72.181
-19.288
22.431
12.993
7.3172
34.657
46.797
32.763
14.492
0.098549
-20.282
-11.416
37.884
56.452
33.888
12.172
14.603
15.562
-5.3944
-32.443
-47.333
-79.678
-57.605
15.827
34.79
19.866
19.361
28.688
26.711
18.181
-2.5314
-19.024
-52.122
-50.369
3.5198
21.637
2.121
-6.1387
14.351
29.279
37.233
29.735
17.156
-12.33
-53.835
-22.404
39.756
49.131
35.686
31.371
39.648
24.972
-0.17909
-22.318
-35.045
-28.008
-24.274
5.2293
72.372
90.216
60.098
-2.5758
-45.135
-45.725
-43.602
-50.104
-59.331
-56.124
-61.667
-53.762
19.522
73.179
55.324
20.298
33.122
63.179
73.803
41.262
42.201
20.744
-86.019
-47.16
68.694
138.07
169.17
151.61
91.646
47.934
-16.115
-140.44
-267.42
-427.5
-490.61
-332.43
-71.102
119.73
138.24
108.98
68.28
66.386
44.391
-19.591
-75.101
-81.14
-9.2638
57.51
68.454
71.484
94.359
124.18
164.34
172.74
182.93
74.516
-61.22
13.151
74.124
30.573
-57.74
-93.26
-89.403
-109.72
-210.18
-291.07
-275.27
-200.12
-107.79
25.672
135.4
161.19
133.41
97.827
39.085
-13.87
-41.017
5.7822
20.277
16.372
54.251
58.514
85.748
121.12
65.191
19.672
120.65
190.45
18.962
-131.66
-270.19
-262.09
-108.39
-27.849
-0.11402
3.0453
-13.604
113.32
202.93
185.95
148.26
137.77
124.07
35.386
-97.585
-177.77
-297.29
-368.6
-203.88
-36.627
17.461
1.7687
-5.7671
37.039
64.757
61.59
51.859
124.25
206.21
240.79
202.29
83.918
19.44
-66.017
-126.51
-84.101
-146.61
-235.62
-140.64
-38.629
-15.16
-37.263
-94.314
-123.97
-91.159
-19.18
35.702
22.505
100.6
210.45
179.66
122.82
74.434
6.9235
-47.836
-92.915
-114.03
-122.51
-106.31
2.3561
122.69
166.37
136.37
78.567
64.379
54.149
-68.959
-171.79
-243.6
-220.49
-39.66
43.978
78.417
104.43
131.52
150.12
135.04
74.462
26.541
-10.835
-103.38
-169.36
-162.42
-116.68
-41.744
-24.523
-34.901
15.718
44.545
40.926
47.527
28.677
68.761
80.425
36.363
-58.473
-135.63
-123.05
-65.877
-1.4339
20.428
6.7085
-38.263
-15.79
64.796
83.37
47.664
26.239
34.841
45.126
65.972
54.987
43.241
38.565
15.819
72.906
191.49
301.96
313.56
204.46
120.9
26.815
-103.85
-204.78
-272.89
-270.72
-204.04
-84.185
-28.545
37.629
17.791
-117.23
-162.89
-203.44
-100.67
0.95893
-141.05
-203.85
-76.726
95.027
147.1
89.116
99.094
147.11
151.85
84.626
33.71
0.31473
-43.73
40.673
85.97
52.686
0.66015
-25.115
34.512
50.68
0.20574
-33.34
-74.863
-169.35
-116.19
-6.8152
36.798
37.444
51.569
84.651
76.413
-13.666
-84.251
-111.94
-180.91
-117.31
-53.567
-10.462
17.874
22.641
78.538
123.69
163.85
170.86
139.82
77.572
44.075
49.5
6.6823
-65.134
-76.196
-35.824
-5.4899
-22.203
-35.256
-76.333
-115.86
-0.64101
50.431
-23.278
-36.627
20.33
-3.7192
-21.124
22.734
51.565
17.617
0.73872
38.307
47.564
59.608
-11.541
-47.072
12.031
26.228
5.4379
-16.887
38.308
93.838
16.492
-207.93
-312.12
-299.67
-212.41
-51.735
12.657
5.1509
65.529
49.483
-28.746
14.695
106.09
127.29
134.07
118.47
92.179
65.291
52.825
46.127
40.451
11.832
47.056
160.35
231.28
260.19
229.22
187.92
172.61
112.07
-5.389
-150.49
-255.04
-277.02
-231.79
-195.1
-150.76
-46.831
37.993
-13.796
-179.58
-257.95
-240.45
-286
-336.27
-428.36
-410.89
-25.955
214.65
183.56
135.43
154.81
207.93
269.98
346.88
353.23
198.83
55.394
62.588
87.953
77.562
67.311
68.083
69.508
64.34
46.21
-69.989
-209.53
-295.04
-298.48
-124.88
17.074
41.131
31.607
27.774
34.659
17.204
-21.78
-37.933
-26.156
-35.272
-38.325
18.298
80.331
73.255
27.149
-3.0042
-4.7857
1.7921
-13.053
-26.535
-45.311
-82.698
-54.793
11.975
43.644
41.207
35.695
34.681
32.699
17.817
-10.125
-27.813
-54.501
-50.012
-5.8355
19.88
23.724
29.819
48.321
62.912
59.455
28.553
3.117
-31.966
-56.551
-10.838
43.013
48.055
29.744
23.04
24.029
21.574
4.4379
-16.841
-34.73
-66.329
-52.749
9.4928
38.468
25.587
6.8248
10.265
22.931
16.559
-3.9049
-21.977
-49.451
-26.267
27.867
38.663
14.036
-5.0298
-7.1061
-14.662
-40.544
-65.614
-101.04
-126.67
-88.574
-59.392
-59.827
-26.482
49.053
76.111
60.627
66.599
53.514
2.096
-7.2428
46.895
79.25
66.385
43.209
54.133
58.077
38.24
10.628
-10.064
-41.814
-38.396
18.633
43.89
26.115
8.582
10.081
12.897
2.9475
-15.171
-31.725
-59.622
-40.561
0.44305
-1.9714
-24.982
-26.844
-1.015
17.413
9.7472
-2.0645
-29.605
-39.499
7.5549
33.658
25.751
11.263
11.586
22.101
19.12
10.412
4.6754
-11.763
15.777
87.17
111.44
81.431
58.15
42.373
34.749
32.638
0.46426
-45.759
-102.48
-107.57
-65.628
-58.279
-82.382
-99.467
-87.669
-62.283
-9.4155
11.651
-24.657
-39.56
5.0339
32.24
7.849
-23.757
-20.075
2.8176
34.152
20.681
-39.525
-43.073
25.453
54.184
33.546
4.6475
-13.664
-13.6
-16.661
-16.615
-20.465
-68.476
-37.712
43.326
95.702
113.4
55.63
17.532
25.779
-1.6102
-47.421
-86.497
-109.99
-44.651
54.204
79.867
39.579
13.845
43.721
90.81
77.081
19.381
-56.605
-101.64
-31.719
22.828
22.88
25.171
28.941
33.292
34.35
-0.49054
-44.256
-70.05
-23.134
60.431
50.76
12.762
-6.3796
-15.979
-0.12359
2.3417
-10.646
-30.683
-75.676
-67.011
-4.4234
15.893
11.593
23.137
41.175
30.791
-17.25
-53.82
-85.465
-103.66
-32.797
47.418
77.72
81.78
60.848
53.131
42.714
-1.8877
-36.567
-63.066
-37.317
41.478
62.636
44.067
17.403
-8.1424
-7.4688
-14.373
-39.616
-66.361
-93.349
-39.652
22.529
37.704
36.05
14.03
2.7787
4.1491
-11.081
-33.076
-62.094
-39.464
27.025
45.249
34.319
12.977
4.1021
1.7628
-10.887
-25.417
-54.836
-48.756
17.381
43.036
30.982
12.28
-0.56871
-6.2188
-20.968
-37.886
-57.9
-58.3
1.1904
43.381
41.255
13.658
-5.3693
-10.494
-26.105
-42.259
-71.529
-65.512
13.833
59.047
46.119
19.253
11.103
2.952
-15.596
-29.592
-55.108
-55.734
3.1747
36.78
22.194
1.2001
-7.3123
-13.925
-37.799
-52.028
-70.948
-76.692
35.642
126.89
108.33
56.365
35.167
31.782
23.267
5.8769
-24.712
-27.818
33.767
75.824
62.934
10.814
-36.084
-68.816
-94.068
-84.318
-87.645
-77.004
-9.7621
43.807
72.494
77.731
79.58
83.695
61.833
5.5355
-44.358
-15.747
51.163
83.23
76.162
49.152
25.52
-8.7489
-38.386
-66.75
-93.779
-45.222
21.902
35.365
23.084
13.991
16.23
3.6445
-14.658
-33.445
-55.336
-5.9196
49.742
56.827
51.491
37.891
38.153
33.545
-0.11535
-46.342
-81.944
-45.414
17.992
36.539
39.608
35.413
26.748
25.244
9.0345
-23.836
-66.625
-88.544
-10.342
62.104
93.395
110.76
116.74
159.48
202.99
191.05
130.17
78.817
-13.231
-84.672
-12.543
2.4193
-109.99
-231.33
-248.26
-212.29
-184.33
-214.4
-233.44
-211.6
-207.03
-41.367
136.14
148.2
111.35
89.079
72.182
58.959
34.42
-2.7926
-39.916
-92.058
-88.319
-22.446
13.615
32.413
43.012
43.98
46.712
38.869
19.048
-0.8119
-14.404
-35.248
-100.87
-108.82
-35.5
11.628
24.775
23.747
29.723
35.162
55.32
57.829
31.655
8.1032
-7.5108
-27.38
-78.314
-66.859
13.001
46.351
42.572
17.281
-5.596
-12.743
-18.104
-33.035
-51.082
-53.556
-59.578
-58.524
15.425
99.642
135.05
125.46
87.484
53.493
35.732
8.696
-14.106
-32.751
-64.732
-80.9
-111.19
-103.12
9.32
84.452
78.776
41.466
23.476
35.306
39.703
0.51509
-14.837
-5.5125
-12.293
-23.72
-56.823
-41.819
31.441
73.062
94.546
97.989
96.035
79.738
20.931
-59.761
-58.867
-37.856
-45.405
-62.577
-95.094
-71.219
7.8842
36.943
45.602
57.957
61.223
60.11
49.633
23.059
-24.367
-69.014
-118.76
-137.44
-29.625
68.904
73.353
56.508
44.178
35.703
27.373
5.1672
-10.959
-27.047
-45.163
-54.013
-94.917
-67.831
30.878
62.94
40.973
14.268
1.3393
13.415
40.121
48.845
85.332
109.6
142.59
204.05
181.81
179.2
177.08
79.654
-77.871
-183.52
-161.52
-167.67
-256.71
-380.32
-420.2
-391.39
-333.15
-226.24
-107.65
18.643
-5.0257
-107.03
-122.07
-72.661
12.634
189.56
283.79
265.02
283.63
281.02
267.22
267.22
195.12
151.45
157.36
107.16
78.199
85.653
80.421
18.121
-71.596
-121.44
-158.5
-149.05
-46.603
7.3737
2.6937
-18.014
-31.997
-38.748
-54.825
-93.816
-106.63
-91.174
-103.9
-75.237
8.5292
25.97
18.776
22.235
26.973
51.407
68.21
50.952
13.14
-26.7
-85.628
-94.505
-1.864
58.616
46.747
3.7326
-30.775
-40.791
-29.741
-13.052
-1.7693
0.20443
-39.348
-57.02
3.4818
44.273
39.152
28.202
23.167
6.1916
-9.0644
-35.068
-49.054
-46.993
-45.651
18.219
90.287
105.23
79.284
42.73
9.905
-7.2364
-23.841
-50.697
-66.879
-89.524
-60.186
23.757
69.364
63.818
37.346
21.122
12.419
-4.413
-44.316
-78.076
-119.26
-124.18
-28.088
62.849
92.011
83.046
68.533
60.544
60.181
41.813
12.996
-19.135
-55.666
-15.348
54.67
56.351
16.03
-27.494
-44.558
-41.594
-50.151
-27.814
-20.552
-43.888
6.6252
67.681
73.173
45.942
6.6321
-10.284
-15.882
-46.845
-64.132
-85.826
-78.201
20.748
77.933
61.056
21.025
-1.2343
8.7333
28.914
37.851
52.804
17.299
-23.766
12.573
31.062
-1.7752
-32.603
-32.941
10.043
30.643
5.4916
-12.169
-9.1694
25.618
26.914
28.392
60.666
54.485
27.914
1.453
-43.332
-109.83
-145.21
-72.319
1.2409
43.078
43.293
18.985
15.456
3.0044
-24.476
-45.236
-33.669
30.156
77.025
59.285
14.043
-34.02
-56.42
-52.496
-51.552
-32.984
-36.089
-27.475
34.034
56.522
23.186
-7.1427
38.489
91.352
95.607
65.015
3.4531
-44.293
13.605
68.209
37.268
-22.907
-9.482
20.807
34.464
73.029
54.091
26.96
57.103
17.732
-44.026
-63.969
-63.886
-64.913
-66.27
-35.199
-47.939
-114.16
-70.756
12.625
36.066
21.036
35.177
87.818
153.21
194.37
226.62
195.3
123.09
0.91064
-164.67
-177.33
-89.504
-81.604
-141.91
-164.16
-148.67
-120.34
-99.802
-81.337
-93.313
-93.918
-139.44
-176.31
-222.39
-290.75
-292.73
-462.67
-257.09
326.34
384.85
240.92
287.25
340.14
130.07
34.567
-7.2109
-46.133
-67.141
-29.544
26.388
135.32
202.52
178.48
121.44
66.988
48.182
48.667
34.503
13.138
-0.27559
-12.098
66.514
158.52
170.12
83.611
-53.414
-91.602
-69.618
-83.039
-226.68
-384.91
-363.66
-261.03
-75.163
61.93
132.01
183.01
119.98
12.456
-29.293
-15.751
6.5953
41.663
136.05
241.83
259.02
156.54
90.349
124.5
137.34
88.056
19.146
-51.475
-149.83
-169.75
-74.776
-72.73
-197.97
-300.51
-379.87
-332.99
-167.16
-100.93
-95.065
-5.8517
173.16
261.63
298.4
179.48
33.053
-4.2258
0.48697
26.969
99.878
124.79
115.48
133.79
144.56
142.86
131.86
42.718
-84.679
-81.195
-91.332
-79.733
71.999
173.05
72.599
-60.576
-74.894
-125.28
-208.95
-294.43
-340.22
-238.54
-2.8594
171.04
149.31
105.07
94.113
47.899
3.2175
-15.23
5.4163
85.639
116.87
116.6
124.04
102.36
94.344
58.828
-116.29
-345.01
-319.63
-79.636
39.435
52.259
41.762
43.732
24.376
34.948
25.056
52.981
188.08
258.49
241.9
249.72
217.74
6.7354
-206.06
-382.33
-606.81
-578.26
-306.44
-30.314
187.46
221.26
202.67
216.79
230.8
153.61
112.89
169.77
188.15
153.68
69.767
-64.424
-187.76
-367.09
-465.5
-318.62
-142.66
24.79
83.684
20.277
-52.007
-79.099
-114.88
-136
-153.21
-91.941
103.39
212.06
172.94
107.8
79.312
51.881
38.5
1.0266
-37.549
71.292
144.23
113.82
71.91
82.61
158.87
178.82
26.159
-43.971
125.09
185.54
-6.9167
-230.29
-444.17
-554.64
-447.43
-233.9
-67.809
21.867
94.86
230.31
234.69
188.95
154.51
74.482
55.554
99.471
84.583
-83.939
-122.98
85.049
140.3
67.614
30.202
77.067
69.476
-40.785
-62.127
-30.369
-45.805
-86.46
-138.77
-248.33
-279.06
-126.09
86.255
68.357
21.795
300.85
419.27
231.16
-39.96
-230.98
-162.84
-58.396
-20.657
37.538
60.564
67.382
120.03
71.944
12.523
-34.877
-103.25
-237.47
-421.29
-531.03
-421.33
-250.66
-87.851
69.479
174.79
235.74
288.61
252.27
146.74
22.659
-7.9095
56.73
110.76
123.58
89.974
66.966
84.015
114.98
104.43
33.272
-21.429
28.766
101.34
118.34
45.261
3.9451
-22.125
-107.98
-114.04
-48.012
-65.632
-65.107
10.504
38.275
31.145
35.759
43.974
45.828
52.532
77.1
80.304
40.494
19.908
-17.685
-20.038
14.507
33.245
122.21
209.69
157.18
100.16
39.264
-29.827
-23.288
-57.666
-88.817
-86.84
-82.782
-61.289
-48.91
-67.621
-47.514
-93.526
-110.68
-11.048
7.5077
-17.566
-44.559
-56.02
-23.287
-5.7574
-10.418
-15.838
-89.15
-66.003
1.3357
12.245
13.553
16.798
31.746
57.675
90.604
126.9
74.83
73.937
153.72
167.26
111.43
93.27
81.983
4.0645
-143.81
-325.58
-327.68
-207.21
23.761
142.78
134.82
160.3
105.41
-25.24
-120.92
-202.55
-214.13
-141.83
-95.715
-3.4432
61.055
64.721
10.219
-122.55
-131.14
11.47
45.832
-49.152
-100.25
-36.503
59.534
82.881
65.366
-39.611
-104.72
-71.492
-64.873
-173.45
-209.63
-62.639
56.604
59.27
31.335
35.433
14.862
-72.852
-152.47
-167.6
-115.35
19.206
208.19
307.51
226.14
100.29
30.513
14.91
-9.8882
-82.914
-103.47
12.983
130.68
169.2
144.49
161.23
165.01
140.15
160.83
160.25
178.27
187.45
60.991
-106.18
-258.49
-353.33
-379.65
-363.18
-302.92
-160
11.742
220.88
242.62
76.518
-68.164
-106.53
-33.037
95.933
162.48
137.8
150.65
200.21
265.31
182.81
47.64
-37.957
-80.782
-39.17
-96.045
-170.41
-111.74
-2.6993
-24.916
-169.33
-185.72
-105.29
-116.28
-39.794
-46.36
-102.72
61.527
129.97
47.037
115.55
240.76
215.36
172.3
124.43
89.585
127.75
157.97
105.79
14.002
-68.347
-160.61
-284.89
-365.3
-452.62
-603.28
-583.56
-407.49
-247.94
-129.26
-11.413
51.52
143.93
242.17
363.68
525.54
644.18
901.21
766.54
164.24
-75.584
-119.86
-219.79
-260.78
-132.22
-111.46
-86.779
-94.584
-90.915
-89.666
-63.687
-40.541
-17.893
-13.814
-35.906
-39.01
-40.43
-52.075
-52.322
-42.939
-16.666
12.04
32.191
45.629
50.521
57.65
42.296
21.767
-30.341
-128.92
-100.91
-5.3156
13.454
-2.2088
-31.61
-75.191
-79.894
-172.43
-381.38
-354.06
-183.19
-44.245
69.224
319.01
398.75
191.5
248.08
212.54
-52.216
-158.41
-72.716
-14.485
-12.016
-29.6
-19.24
17.944
-40.363
-38.015
29.012
147.55
102.95
88.271
244.66
279.07
175.19
93.808
37.44
-124.07
-276.76
-330.68
-407.17
-295.49
-89.807
18.354
134.56
234.54
270.2
190.41
24.674
-29.711
78.204
116.13
49.665
-7.8198
-30.396
-38.526
-52.031
-74.193
-84.719
-110.24
-95.001
-5.1864
41.449
45.364
47.744
39.377
61.281
80.437
53.384
-2.9142
-96.726
-119.22
-61.238
-49.592
-41.361
26.257
106.85
25.143
-126.79
-22.141
148.85
150.03
181.04
230.29
229.15
134.58
40.806
7.2567
-43.478
-143.93
-219.09
-326.84
-381.4
-302.33
-268.99
-277.48
-191.98
-1.3023
193.06
257.19
230.16
147.68
173.78
291.29
234.91
107.48
-40.315
-160.08
-169.11
-95.673
-57.122
-65.527
62.498
217.36
155.88
58.973
-33.463
-146.52
-111.54
65.791
93.002
-100.56
-129.1
-5.4811
-77.333
-129.1
15.028
124.39
153.86
199.39
213.35
134.39
14.47
-62.209
-117.76
-149.95
-178.47
-172.86
-90.407
-23.113
-62.485
-99.146
-144.48
-109.83
32.044
70.126
31.63
-11.128
-11.837
18.218
26.225
-14.981
-57.391
-96.818
-8.9782
114.21
116.71
76.714
50.593
65.706
70.058
32.929
-7.3581
-60.707
-94.987
-4.1144
91.879
55.577
-26.201
-30.645
1.225
1.6279
-14.607
-29.836
-95.813
-48.995
54.634
90.997
80.823
53.198
36.844
21.761
20.684
5.2006
-19.912
26.697
87.303
54.041
41.984
53.661
60.95
34.415
-18.816
-45.971
-54.861
-6.1256
187.25
241.6
54.9
-149.07
-227.53
-281.39
-375.78
-423.99
-333.42
-186.67
-54.96
118.45
246.78
248.34
185.7
183.6
187.5
168.11
117.63
31.103
1.4618
105.25
126.88
43.548
-63.187
-126.37
-25.598
0.57469
-81.703
-152.73
-269.33
-219.89
-71.01
112.2
210.73
221.43
294.94
316.82
174.07
32.498
-178.42
-260.3
43.859
253.2
148.49
19.337
-51.426
-154.85
-208.8
-222.2
-214.57
-228.42
-172.72
-6.7173
-23.367
-107.05
-80.116
0.74781
31.333
18.758
-64.593
-84.444
-48.821
78.757
258.67
261.22
235.25
185.76
159.38
318.36
394.82
302.09
189.91
92.641
31.977
65.082
45.378
-11.253
-82.057
-181.33
-330.37
-491.5
-726.45
-814.26
-564.14
-285.37
-25.694
281.76
353.1
309.66
287.91
198.38
225.03
295.98
246.7
115.67
76.721
71.635
21.727
-62.216
-242.01
-352.71
-273.38
-149.99
26.978
57.913
139.75
241.57
128.26
-33.989
-240.95
-453.08
-353.19
-178.24
-65.257
57.793
224.53
450.94
386.53
121.3
-124.5
-447.68
-646.5
-503.41
-359.08
-238.48
-93.49
58.715
208.5
304.4
397.24
400.23
184.81
48.496
-30.421
-105.28
-22.9
130.73
146.34
80.971
3.1861
89.538
131.39
-14.492
-149.5
-265.55
-275.87
-89.94
119.56
180.44
185.59
193.43
127.25
7.6116
-132.06
-249.84
-243.98
-127.41
22.96
169.86
160.32
95.362
101.35
152.31
135.47
67.163
-77.272
-130.35
4.6988
116.02
94.025
2.4344
21.762
85.583
77.445
6.3798
-67.701
-137.72
-100.73
61.789
105.89
58.78
41.788
29.16
16.685
6.1672
-14.473
-31.542
-94.481
-56.626
122.35
177.96
99.302
46.927
72.677
106
76.557
19.871
17.161
25.637
83.144
174.14
135.96
11.124
-163.67
-293.6
-297.81
-256.73
-245.01
-106.51
-27.449
-50.529
125.12
209.01
140.02
119.43
184.17
230.26
191.06
4.5475
-169.88
-295.87
-397.35
-314.35
-63.165
99.4
225.01
280.2
144.42
75.713
126.15
41.328
-169.65
-445.88
-498.68
-270.97
8.5345
153.84
170.89
194.03
146.58
27.292
-95.728
-202.42
-278.97
-152.75
106.15
174.58
88.597
70.643
135.76
218.04
130.09
-82.868
-271.07
-250.68
-49.53
34.363
131.86
203.48
154.06
53.542
41.409
24.165
17.817
-24.706
-72.673
-39.038
-8.9137
-56.219
-170.51
-216.83
-128.09
-12.781
20.825
-1.6762
-55.511
39.535
159.61
90.9
-34.961
11.765
83.11
70.829
90.251
72.527
-95.683
-99.637
112.23
200.81
155.61
115.64
127.81
90.407
38.853
18.856
30.029
94.201
202.02
194.18
52.607
-102.39
-246.64
-274.41
-244.57
-231.16
-264.98
-273.35
-280.52
-243.95
-144.17
-105.56
-100.21
-35.251
-2.1215
22.196
100.24
118.26
124.81
162.06
104.49
29.932
38.309
3.1969
-32.078
-30.184
-74.215
-112.75
-116.36
-104.64
-70.233
-8.4044
106.25
183.19
245.77
268.03
240.8
191.26
153.15
73.237
46.788
101.07
121.8
127.91
35.49
-96.947
-143.66
-130.24
-70.686
14.638
41.137
53.581
124.04
112.15
13.909
-67.266
-87.229
-20.361
86.283
130.12
119.2
-12.994
-120.12
-127.99
-104
-47.271
-19.685
60.303
154.54
116.46
13.028
-101.13
-226.84
-267
-237.66
-135.71
7.0266
127.35
190.58
23.54
-130.16
-176.4
-176.21
-147.82
-90.167
-75.799
-22.67
102.32
105.27
72.678
103.18
72.899
25.172
26.583
25.757
6.3399
-49.253
-7.476
88.944
88.327
46.573
49.864
114.67
93.336
-27.865
-31.755
-4.9353
-25.545
-33.206
38.764
139.74
129.12
-37.458
-184.57
-115.84
-67.079
-62.001
-32.762
-28.377
154.33
213.44
-9.9757
-269.2
-233.43
-148.31
-215.43
-233.51
-129.22
-82.494
-6.1716
142.68
150.91
108.22
71.807
65.72
48.715
28.423
10.986
-27.139
-43.851
28.648
75.543
81.536
62.013
63.613
66.597
24.511
39.967
87.362
67.225
72.875
113.88
89.84
-3.1435
-68.949
-44.781
-34.6
-72.531
-107.26
-118.15
-49.153
25.701
52.375
80.106
127.24
179.93
219.21
181.75
117.67
-25.506
-134.95
-223.09
-397.17
-356.72
-137.78
53.044
74.216
10.113
-33.904
-74.7
-77.187
41.953
89.067
59.204
44.584
38.455
19.061
11.178
1.9921
-47.061
-91.788
-35.61
24.205
23.961
23.692
3.0132
-4.2321
30.188
14.451
-16.458
-63.542
-27.769
90.715
115.18
84.234
63.018
61.777
75.553
33.37
-29.912
-68.159
-130.96
-64.078
70.012
76.605
39.812
47.522
65.51
85.42
76.277
56.246
44.26
-142.46
-281.17
-182
-80.776
-50.406
-3.697
37.874
41.097
11.422
-23.925
-80.707
-104.72
-2.7018
71.279
63.917
46.432
51.814
58.751
50.566
16.754
-12.945
-81.414
-101.02
12.452
98.503
93.49
53.932
14.906
-11.283
-42.061
-91.56
-96.051
-106.46
-86.644
32.843
112.35
93.978
70.992
60.973
69.599
95.34
112.88
228.18
156.96
-98.083
-140.74
-102.44
-68.996
-31.437
18.953
32.142
71.747
38.738
-58.489
-203.88
-240.27
-8.6324
184.37
183.25
106.94
98.159
124.49
47.549
-132.77
-202.07
-263.65
-297.56
-111.97
80.917
88.175
25.55
-30.866
-48.777
-86.091
-122.07
-137.49
-68.771
-23.547
1.1678
107.42
205.06
194.93
139.2
104.12
58.8
-20.899
-114.73
-144.51
-159.17
-153.39
-31.916
81.348
113.49
102.17
87.732
57.507
24.359
-21.969
-51.976
-84.109
-110.45
-24.107
54.032
47.805
33.571
61.851
72.62
38.137
-9.7112
-45.903
-57.208
-103.38
-83.404
44.705
109.03
80.506
33.894
33.142
30.711
15.203
-15.622
-35.898
-46.532
-81.682
-53.449
41.576
72.135
40.182
19.553
29.423
26.487
9.5829
-21.345
-30.206
-59.128
-69.409
12.788
70.984
58.938
34.795
40.932
41.25
20.309
-16.151
-43.302
-74.148
-89.641
-13.562
62.535
74.048
53.433
41.143
40.978
22.888
-2.9115
-38.58
-60.386
-93.215
-108.8
-33.562
28.841
25.061
7.9039
7.8506
21.301
25.457
15.953
2.802
-16.865
-23.049
-53.718
-57.962
29.368
70.616
53.001
28.026
26.796
32.24
22.905
6.3294
-11.542
-23.494
-42.138
-63.788
-8.9266
55.855
58.004
34.676
40.496
52.764
44.207
39.288
33.535
57.888
66.926
91.036
175.64
149.62
66.793
11.292
-101.84
-343.84
-481.58
-300.97
-61.897
25.816
39.023
61.183
55.453
84.836
83.742
44.692
4.1288
-33.69
-51.718
-35
-12.943
-9.3768
2.7194
-4.9217
-22.214
38.557
59.561
17.453
-1.3833
2.1456
-7.0517
-17.079
-22.898
-32.233
-30.619
-56.583
-53.217
11.002
39.07
21.286
15.466
29.379
39.827
41.081
35.261
48.051
64.085
138.29
163.66
53.051
-83.257
-131.97
-116.66
-142.36
-173.68
-186.03
-151.03
-84.816
-105.92
-73.102
69.369
116.36
91.053
74.705
76.793
71.985
53.454
21.644
-4.4315
-22.256
-58.939
-70.424
10.251
61.343
39.935
16.513
39.641
46.328
32.454
11.068
-1.935
-0.56942
-9.1783
1.0946
33.881
45.709
54.328
85.314
67.77
12.983
-32.736
-62.991
-98.486
-169.24
-119.42
18.095
134.69
163.47
98.537
77.021
38.105
21.671
-5.1985
-121.63
-206.52
-77.548
121.68
138.01
22.048
-62.9
-2.415
91.02
151.05
67.941
-0.18437
12.148
-13.616
-4.1212
-36.478
-35.988
18.415
16.731
112.82
183.95
64.89
-93.989
-151.9
-125.99
47.117
88.366
-23.565
-228.06
-265.92
-69.418
0.95207
-1.3622
-2.3349
0.56796
-63.897
-120.47
-16.941
126.53
191.29
253.57
234.39
91.831
-97.74
-268.86
-321.84
-281.54
-268.56
-216.58
-56.184
83.867
140.39
149.62
137.33
95.24
26.94
-27.659
-44.836
-39.512
-67.051
-79.453
7.7152
76.933
75.891
63.239
61.163
49.662
36.647
5.1127
-21.58
-31.588
-59.48
-33.513
48.043
80.049
76.601
75.504
79.694
93.592
93.277
16.062
-40.663
-73.121
-114.68
-93.898
-39.603
7.2781
38.372
15.534
-7.0754
-37.937
-75.415
-118.8
-144.83
-105.31
-86.734
-72.996
71.885
157.09
127.84
86.161
63.936
49.895
34.982
37.339
36.085
-39.357
-61.149
-3.3307
19.085
34.971
138.08
180.02
60.184
-72.435
-126.3
-155.08
-140.73
2.4494
91.145
107.88
75.879
42.769
53.116
68.474
25.626
11.653
17.989
-37.694
-62.018
-41.714
-12.238
-14.616
-36.227
-9.4407
75.886
102.89
17.881
-43.57
22.901
73.541
63.522
55.408
71.983
33.475
-57.122
-95.593
-139
-236.04
-172.74
-12.288
62.98
64.628
34.541
28.943
23.477
1.0021
-26.129
-51.657
-12.703
46.432
47.764
27.324
0.87911
-6.5727
9.2057
18.275
-38.689
-85.758
-8.8974
89.052
113.24
132.12
162.49
126.26
47.975
37.256
-79.26
-334.07
-358.31
-146.6
-23.264
3.355
-2.7713
0.76299
5.2015
-20.586
-40.833
-21.73
38.855
112.83
118.39
52.052
-13.56
-11.902
-24.391
-27.932
-16.318
-48.146
-10.581
50.782
59.964
37.488
45.103
58.48
21.403
-18.998
-132.79
-185.12
-28.918
37.12
40.521
48.067
44.235
37.138
11.73
-29.331
-58.985
