41.302
138.31
169.18
25.806
-241.47
-125.17
98.116
-121.66
-32.175
-78.879
67.005
135.61
31.538
-126.63
79.669
-25.701
-150.56
-55.333
145.01
114.45
-5.0785
-133.95
65.119
94.139
9.1885
82.202
-52.618
9.3615
-136.9
-145.2
-5.4719
-0.89762
-20.98
37.409
149.53
46.44
2.671
35.642
38.793
-78.051
-62.404
-18.207
65.428
104.66
-309.28
-57.654
-11.587
7.9768
119.02
95.852
210.1
-157.31
-53.069
112.95
-66.474
6.2849
-7.6781
-134.18
139.95
-78.941
-48.823
-34.024
128.33
-110.15
-63.51
-21.4
9.7429
77.167
-28.648
19.307
152.84
121.37
-89.191
-78.992
13.229
2.9095
-2.6273
114.09
-16.042
-37.954
74.151
170.66
-13.671
-325.37
-97.429
18.486
31.402
-46.693
56.502
170.41
127.79
-57.899
-62.989
-52.09
-138
-18.085
10.963
98.894
4.8622
149.48
140.43
-155.76
-8.2307
-50.097
-78.191
-114.78
-86.151
68.102
136.37
37.345
-201.25
-101.65
65.287
-38.486
22.299
94.371
74.028
74.618
18.863
-12.613
-142.75
-18.581
67.571
-2.1972
-38.337
43.715
40.182
-16.842
8.0195
113.78
66.161
158.08
-79.099
-162.98
28.393
-6.8128
-99.648
-172.57
63.342
152.75
39.57
-185.43
65.426
48.842
-17.391
9.0657
-2.7682
-81.261
-42.216
24.14
31.964
21.488
34.092
140.12
37.455
-19.205
122.76
-48.292
-30.166
-205.03
-0.098943
-507.09
34.814
457.81
-31.591
174.34
60.746
-95.504
-115.37
-196.02
-18.101
201.19
-14.67
-102.96
0.080732
79.931
89.109
49.434
-8.759
-47.341
-131.27
-45.995
112.06
207.8
474.16
-251.34
-347.84
109.8
-187.81
130.99
179.89
-97.073
-98.303
-66.636
-222.36
-356.4
292.67
266.64
86.348
7.0973
-33.462
55.214
-178.01
-191.61
115.66
83.79
4.591
6.4552
81.385
359.21
-1.4367
-327.28
56.911
32.544
-38.22
-97.92
-68.031
-83.826
-20.429
26.564
39.738
-33.125
10.76
64.173
9.1841
-28.028
42.02
52.294
-15.644
-18.233
38.113
6.4973
-22.347
58.104
194.36
354.68
-256.13
-252.28
-338.85
120.01
81.87
86.376
51.865
-73.029
-9.9336
164.23
-77.754
-253.37
3.0894
34.122
8.2465
-13.669
50.852
27.951
-13.606
18.017
150.63
112.42
-95.512
-78.026
-118.82
-11.247
-72.331
27.554
46.447
-9.811
-11.498
48.032
49.142
81.7
113.31
-17.082
-53.145
68.909
-153.84
78.648
-4.5264
-99.026
-49.419
-97.447
83.561
-41.113
153.58
60.76
5.7529
-124
-478.65
377.44
43.274
6.8656
202.12
-60.463
-373.93
-9.47
85.571
-15.561
28.281
93.497
35.384
-19.048
36.378
59.199
36.221
72.34
190.75
-29.168
-190.36
-22.324
175.35
-6.9727
-180.81
23.484
-72.996
-33.601
-7.6428
145.68
85.201
-219.25
-75.753
-116.09
12.103
47.324
4.6018
173.75
35.59
-125.89
-5.7881
19.355
-56.015
-32.025
54.227
-10.806
-16.414
88.889
32.068
-64.919
32.172
68.237
84.248
167.57
181.51
-202.8
-199.12
-1.2815
-17.162
-83.395
-120
1.5817
125.87
4.0577
46.986
-51.788
-103.47
25.609
36.238
-21.037
-30.513
41.888
28.828
10.725
41.925
119.13
-2.6948
-4.5548
45.011
27.435
-144.82
-89.343
-3.737
6.7119
8.6087
219.12
2.8544
-179.65
-4.742
-96.309
-5.2305
105.88
82.347
-70.955
-6.9504
31.581
-55.238
-79.663
-33.36
23.626
36.343
43.344
-0.62288
116.53
-21.212
-45.888
30.744
79.721
-162.07
-1.4433
-89.36
-119.44
32.29
138.94
201.58
120.56
-89.091
-263.7
-491.86
279.63
265.33
40.185
11.442
-46.625
-24.465
53.191
-221.84
63.626
85.595
-0.31943
-77.999
54.749
19.835
-14.308
52.446
26.817
-22.1
28.28
47.618
-5.4941
32.344
29.236
6.6673
124.38
93.396
122.48
-1.7834
-202.56
-124.24
-27.995
-175.06
160.34
-15.297
-39.017
47.687
-130.82
-108.26
68.198
157.82
82.633
-9.2272
-236.87
137.21
-84.339
-13.987
5.694
72.897
-98.447
-118.31
168.46
-26.919
103.69
-152.38
-121.25
52.042
17.302
137.75
-70.451
84.509
-28.996
-95.368
86.104
10.573
70.883
132.68
-150.34
-155.8
34.678
134.56
201.18
-133.21
-41.337
-7.8579
-181.9
18.273
34.222
45.962
-10.777
10.424
59.39
-38.792
14.598
39.537
21.565
13.032
-37.825
-4.7099
4.8616
-37.258
-4.0935
28.231
19.704
-18.099
104.58
-9.1372
40.398
68.13
-121.81
-99.163
-18.983
185.29
93.043
-372.64
-122.62
40.633
54.96
-18.261
-7.4122
112.17
190.07
-121.23
-85.123
137.21
-216.52
66.989
94.111
-75.184
-125.09
29.581
77.911
6.6752
15.726
42.272
195.79
-112.98
-209.78
21.408
57.896
6.313
-16.879
58.087
31.859
-10.398
-14.719
33.401
5.6742
-19.534
-10.295
93.059
115.52
-5.8908
-97.808
-57.298
-12.119
-33.733
9.6888
-57.515
79.496
17.369
72.907
4.1381
63.709
26.476
-146.15
-54.413
-149.9
159.33
10.486
-87.255
60.293
113.87
-126.98
-199.64
148.86
-3.2343
-160.64
-89.525
17.687
117.54
103.87
92.401
-59.276
-25.032
26.701
97.8
-48.397
-31.81
-50.896
-64.751
26.609
47.732
-51.217
-23.371
105.18
114.76
4.1091
-15.513
32.52
-105.04
11.04
140.06
-89.145
81.359
151
-298.4
-115.51
13.286
224.39
167
-116.26
-94.909
-105.45
-101.61
45.507
-44.407
-46.726
-17.267
-94.18
-8.8946
98.93
123.46
101.27
69.989
-22.55
-119.53
-41.193
-35.909
108.12
11.212
4.2873
-37.451
2.9808
-23.877
3.5008
13.463
-36.018
-2.5879
46.249
16.1
-34.416
25.474
39.483
40.555
29.197
74.798
-16.319
-79.944
-49.386
-36.947
70.675
83.73
106.94
147.81
-48.235
-236.64
-234.2
-31.653
200.54
90.707
-69.286
11.537
-103.21
-41.561
-44.025
-3.4557
22.195
-4.8319
-36.908
33.279
39.745
-28.521
-3.2525
25.123
-15.583
-20.14
45.653
10.097
-29.248
36.667
106.86
104.86
-33.857
-114.3
117.73
-78.262
-94.147
74.427
28.375
29.787
-26.334
247.51
-104.65
-349.67
-14.138
38.116
17.598
0.65148
51.187
14.656
-29.086
2.1393
33.266
2.7798
-19.181
51.565
165.11
72.028
-294.69
-0.55
93.137
-36.474
-2.811
42.955
-24.432
-32.905
5.5383
-60.432
-14.313
38.127
22.454
-10.396
47.979
64.657
-36.965
-66.6
23.008
19.474
-30.851
-30.741
30.556
26.859
-46.049
-37.846
34.827
25.161
-32.149
-33.797
35.398
21.546
-32.574
11.389
46.512
-8.6999
-96.527
-8.4948
79.37
17.589
-51.267
15.916
39.836
-28.836
-39.814
46.263
22.354
-43.098
-21.407
39.763
9.5704
-34.017
-14.353
-29.617
-50.797
-73.357
37.062
93.628
-3.4998
22.138
60.834
47.495
-29.334
-60.766
-18.195
-35.915
-23.569
86.528
126.25
-15.434
29.642
177.22
-46.262
-208.79
-26.416
111.26
58.778
65.392
45.063
-230.11
-212.61
36.655
93.905
125.54
38.097
14.091
13.45
-165.49
-50.919
-18.48
81.889
39.851
0.5987
45.799
-11.238
-223.56
-56.947
30.944
30.549
154.86
-84.711
-92.406
116.72
51.372
-14.676
-132.41
-103.29
21.091
-10.493
150.06
197.13
56.455
-118.33
-69.444
134.23
-10.316
7.8599
13.444
-146.02
-154.24
190.36
97.605
-27.133
136.64
-44.457
-200.87
75.519
-71.708
-115.39
-89.55
72.498
104.03
55.017
-44.411
219.22
-193.81
-292.49
93.381
39.34
-24.576
35.538
106.22
139.78
-22.142
-33.648
-29.386
108.5
115.62
-200.02
-163.13
106.87
54.341
-136.56
51.904
57.024
57.225
-80.147
-76.078
117.54
-37.771
-66.263
48.893
61.933
39.16
35.304
98.917
-67.862
-39.54
-22.765
35.626
191.25
-19.063
-155.9
-4.828
-174.91
-52.386
128.95
51.23
33.88
-200.54
-79.765
66.307
4.7358
72.883
38.408
-142.82
-3.5964
146.09
65.646
-165.91
-6.8562
-44.244
-10.501
40.845
59.426
-41.779
3.3901
30.752
-31.395
-12.089
66.389
18.022
-28.341
42.926
37.455
-19.89
29.992
38.334
-23.955
6.9344
38.589
-12.5
-18.739
30.676
13.331
-34.754
-1.2262
24.958
-4.709
11.346
62.556
59.599
91.479
-126.89
-147.52
59.465
-8.7809
0.079294
-105.88
-93.04
0.65291
23.138
168.04
115.47
-49.87
48.443
-196.8
-92.466
-78.021
-73.216
21.47
55.306
-12.985
-16.05
14.684
-50.311
56.937
39.591
-40.8
39.381
57.167
-23.934
3.3369
55.899
91.178
2.6634
173.56
73.356
-69.383
-103.69
-126.5
96.843
93.883
-162.28
-59.236
95.216
19.218
-53.821
102.54
-158.06
-64.025
9.3402
83.953
172.8
-36.64
-146.81
-4.8834
53.077
-142.05
25.993
29.528
-89.552
80.004
12.15
-56.213
90.738
28.453
-18.372
-31.116
43.719
-89.888
-92.296
93.674
165.91
24.604
-148.69
-129.87
-2.8442
-38.48
107.82
134.17
95.084
-92.309
-73.932
31.199
-86.381
178.31
27.194
-94.145
-175.16
-161.73
71.28
182.96
5.4336
195.75
-162.21
-236.59
85.119
55.726
-4.73
0.21287
84.745
34.525
-25.386
12.785
49.229
-4.0597
-18.746
37.919
29.269
-23.186
-8.8193
33.028
-1.7521
-22.692
50.189
164.31
-9.6929
-186.22
54.05
196.5
28.241
-259.4
33.533
-159.4
-19.984
106.45
-114.3
-49.716
-6.8593
12.041
11.825
57.981
85.042
22.08
-143.71
-23.669
131.35
-7.1621
-66.501
-74.305
130.61
-42.266
31.501
12.893
-73.806
-61.679
-45.449
51.797
138.4
28.813
-107.8
-33.194
13.622
41.117
-50.84
-68.143
114.19
54.625
29.043
-33.436
-127.58
4.2204
129.06
16.713
-73.607
-69.665
-19.082
-63.155
29.452
81.852
-0.58464
-12.884
54.53
24.788
-24.211
32.003
44.14
-28.14
-5.7628
70.73
138.51
-113.59
53.816
232.33
-9.7791
-288.93
-16.725
28.806
-131.73
79.389
-55.238
228.68
-214.92
-240.99
88.398
-6.9428
8.5735
-2.1956
70.416
38.918
33.196
231.19
-90.483
-225.96
-8.9708
154.65
-30.818
-27.852
165.23
-49.968
-164.36
-34.706
-41.466
-28.172
-49.141
113.04
27.474
-199.94
-81.214
92.94
102.86
-3.9489
21.432
77.575
6.5489
-15.635
37.86
17.042
-19.408
52.739
45.656
-25.185
-20.49
34.28
2.047
35.631
134.78
-57.538
57.221
15.619
-80.743
-39.476
-13.093
78.548
-34.157
-77.86
-66.657
38.983
61.024
-163.04
-38.237
138.23
-49.513
-164.42
74.795
310.19
0.14406
-395.4
-239.66
131.44
48.215
49.456
222.16
119.64
-77.686
-40.946
-39.636
-71.635
29.909
82.55
-98.146
-232.95
-33.338
123.62
14.906
38.019
64.506
-25.223
107.19
130.21
65.118
172.01
-152.72
-159.42
152.22
115.04
-9.7944
-115.41
-377.87
-98.429
87.942
61.287
54.593
136.21
72.957
-82.233
-103.28
-27.659
-19.528
5.2264
-36.539
43.44
55.753
135.23
24.453
-43.07
-27.08
-149.26
98.077
168.18
-141.3
-138.75
-63.579
82.652
75.387
-142.63
-34.688
14.546
-16.157
114.73
-14.837
-10.963
195.78
-28.001
-37.261
-241.21
-63.275
14.34
-4.8957
111.84
14.084
-3.0639
71.666
24.243
-19.954
44.212
35.449
-17.094
36.431
150.66
35.155
-10.868
35.129
-37.953
-12.619
-36.091
-10.275
-16.907
-60.32
-65.347
2.424
10.662
-31.053
55.307
29.645
-45.208
-14.828
-45.102
-86.981
35.912
4.9205
-56.013
-57.872
65.742
55.165
-17.177
29.257
51.865
-7.232
-22.345
29.163
4.6806
-27.63
26.406
-8.772
-50.743
46.862
14.99
-54.752
28.909
74.179
67.834
-2.6915
130.56
-26.924
-264.91
-47.282
111.73
234.14
81.059
-129.86
-126.65
-17.051
-106.98
-63.622
5.1487
-54.57
10.493
43.41
11.841
-32.592
12.605
47.564
-17.911
-23.281
52.757
35.316
-48.387
14.615
80.589
-1.4397
-44.602
33.811
30.058
-39.256
5.1245
45.739
-23.918
-34.735
49.626
14.893
-47.45
14.04
31.171
-18.252
24.614
16.095
35.353
-34.616
-9.4448
6.4686
-61.196
0.81222
35.263
91.954
72.125
-153.05
273.5
-95.64
-230.36
-262.55
-49.541
156.29
-16.318
46.786
-5.4698
-48.968
3.887
64.35
9.1008
-26.943
40.366
42.961
-31.322
10.095
62.084
-21.173
-42.602
54.926
37.965
-42.086
5.1184
49.359
-17.282
-13.226
32.906
-16.801
-36.513
34.701
13.576
-34.931
15.543
26.967
-36.616
5.0681
26.558
-22.761
-7.2076
11.557
-19.524
-0.64431
19.044
-26.063
-23.31
19.87
14.483
-29.163
-11.6
31.425
10.21
-32.927
-10.74
30.152
11.32
-30.649
-17.32
29.363
15.174
-25.621
-20.236
37.955
18.056
-21.915
-34.645
23.854
17.082
-28.605
-15.018
30.011
12.692
-40.067
-10.921
38.686
13.766
-34.252
-7.9
56.062
2.1538
-9.3841
105.49
217.83
22.293
-171.76
-124.29
25.743
231.26
67.25
-77.058
-410.59
-170.74
96.531
33.638
-5.8144
-60.129
-43.645
-55.07
-56.813
86.914
58.043
34.606
-17.627
-0.7866
90.964
21.033
-14.618
65.373
61.416
-24.897
21.746
68.699
-12.866
-31.946
36.257
9.8263
-41.95
20.109
13.089
-39.4
10.361
13.376
-43.029
3.8256
24.442
-33.683
-13.618
31.907
-20.721
-31.749
22.457
3.2407
-45.573
20.673
44.693
-14.731
-34.685
29.105
22.255
-34.014
-20.878
31.259
-25.713
-28.851
48.295
14.808
-37.699
-35.096
298.23
223.92
-170.7
-129.8
-142.86
-23.108
-56.789
-251.7
-72.969
170.98
-1.6565
-45.174
123.47
116.27
36.462
-28.847
34.674
68.242
-98.716
27.227
209.22
-124.07
-199.99
84.416
182.95
-74.45
-17.432
-22.977
-19.138
8.6342
22.996
-52.285
-24.911
-74.446
28.943
49.967
4.4045
-2.9949
8.1115
5.0705
-13.958
-83.079
26.837
13.311
-32.957
-64.722
51.731
78.267
-38.875
6.5019
53.715
-10.377
-68.783
6.865
63.928
36.789
-51.948
-9.1959
81.613
22.783
-86.769
-18.163
33.644
-44.901
-98.853
27.72
74.795
23.61
-49.997
28.9
11.431
4.4181
-14.037
56.268
34.539
-55.14
-69.155
68.867
42.203
-54.179
-44.795
50.106
47.721
-9.8942
-0.69963
31.792
16.699
-86.477
-32.982
37.489
3.5005
-45.887
-61.928
32.351
73.488
-50.843
-8.6363
35.607
23.952
16.322
-20.743
13.931
-15.496
15.382
-43.714
16.095
27.014
3.0421
6.071
12.281
19.153
-46.243
-2.1346
14.515
5.797
-42.927
-15.615
10.239
24.94
-17.114
15.131
29.174
-56.279
-25.046
42.778
55.088
6.1916
48.116
-70.076
-44.564
-43.49
-4.755
63.264
52.055
-89.092
-29.952
101.17
-14.504
-87.667
-4.1219
15.11
-8.9089
-52.906
48.743
132.05
20.008
-56.386
-2.7523
55.692
-6.065
-45.038
-6.3853
31.714
-68.127
-2.6012
22.39
0.65219
-2.7698
-28.122
42.458
-2.2803
-73.909
-22.345
37.43
47.242
-72.584
-2.6162
32.389
14.271
-47.592
17.015
87.65
-14.472
-75.274
18.187
44.536
16.418
-61.202
8.0677
40.07
-21.023
-18.634
60.175
1.2632
-72.853
-17.588
47.57
53.202
14.25
22.081
10.646
-64.014
-16.338
50.345
-42.073
-26.887
73.198
9.3606
-74.255
9.2614
17.27
-26.198
-45.604
30.14
45.082
-11.528
15.317
70.139
39.136
-127.23
1.4248
54.73
-3.7187
-86.374
-1.4122
57.757
4.5997
-63.138
6.2535
27.822
32.241
-45.42
-13.003
71.928
4.0373
-49.311
-45.768
44.185
17.175
-61.627
-30.057
41.29
16.002
-72.77
-18.257
28.633
-21.64
-21.616
-75.81
81.338
18.116
-66.297
49.871
82.553
17.037
-60.546
73.512
91.054
-79.297
-117.3
140.94
61.023
-119.77
-14.537
73.824
-27.26
-35.258
-33.987
98.415
5.7051
-30.675
-62.994
97.81
4.7087
-46.678
-19.055
-8.0503
62.414
19.479
-18.977
-36.993
-20.016
-30.2
3.3149
-31.317
71.918
16.09
-1.3459
-22.106
17.791
11.343
-72.645
9.012
4.3051
-37.8
22.105
125.83
52.904
-165.1
-20.6
-19.247
21.885
63.269
102.95
104.67
-31.608
-52.757
-231.12
-131.01
16.94
194.28
145.27
-36.223
-2.7575
19.049
-237.48
-12.927
96.271
-13.269
9.4644
-20.499
8.2392
-11.715
125.56
96.765
-37.834
-111.99
41.569
32.332
134.09
-13.042
-131.59
34.571
-78.229
-158.51
-20.143
14.553
-12.956
8.4705
59.764
107.74
181.17
0.43333
-166.84
-151.25
-89.391
174.87
43.863
-32.19
58.25
29.32
-31.116
-197.34
25.742
73.486
155.35
-103.26
19.957
-46.347
-35.948
167.49
7.5241
-44.783
-63.728
-36.482
28.378
-82.076
-62.543
3.7921
110.22
-2.6067
69.857
36.275
101.86
-72.903
-124.32
-19.268
-30.268
-54.11
66.691
52.185
145.12
133.84
-80.849
-64.488
-135.46
20.481
-89.299
-21.344
60.538
116.72
-42.573
-96.647
43.888
155.91
-31.476
-161.22
139.3
-51.473
-117.81
-73.815
122.72
40.344
-22.365
158.71
187.49
-115.3
-204.49
-135.37
-9.4463
-128.82
69.343
149.46
69.83
36.987
20.374
-21.729
-40.951
-6.8841
31.21
77.084
-42.059
-163.84
-44.781
2.4406
-35.354
72.806
2.5011
-38.865
21.059
82.359
110.31
179.12
-190.23
3.884
186.47
-89.586
-12.823
-110.02
0.67387
-45.296
-50.598
-52.538
19.961
242.55
48.216
-111.69
-61.014
-5.5727
-34.215
-62.969
19.358
27.048
-17.158
-39.095
35.292
-55.569
-219.4
124.41
174.43
24.151
-11.312
78.19
70.559
42.89
-9.1999
-137.85
-124.8
52.96
67.772
-53.724
-104.04
-6.7289
-17.169
25.312
24.462
-4.6216
59.392
208.57
-169.14
-76.55
186.5
71.073
-14.535
-82.254
-13.344
-49.508
-44.172
9.1387
-73.564
-25.706
145.7
55.44
-22.659
86.108
-119.31
-32.697
204.12
-39.082
-181.82
36.781
12.02
-9.6089
16.826
-117.69
118.47
-120.22
50.052
-8.3672
-183.76
23.844
-8.6822
68.839
11.368
12.773
371.77
183.49
-401.09
-182.62
62.735
80.585
-57.934
13.322
37.607
-35.885
-14.039
43.624
75.997
42.85
147.16
53.623
-226.43
-143.87
3.2933
-19.102
138.41
112.78
25.309
-0.35467
-171.02
116.36
-163.5
-190.22
101.27
-56.525
-37.312
97.033
-11.043
57.871
102.08
167.94
30.085
-235.46
114.57
-129.72
-102.13
97.977
-93.69
-34.436
139.49
30.022
8.4398
117.99
-95.341
-50.214
144.96
-121.74
-192.36
-4.7145
92.284
79.181
-40.95
26.406
-178.35
4.7307
221.33
12.774
-102.39
-85.571
63.542
-30.505
-21.893
76.734
-42.253
4.9833
57.364
69.293
39.542
21.08
88.842
-84.719
74.815
-51.07
-110.81
-43.998
-54.573
151.52
-46.298
-23.711
22.915
132.59
135.51
-305.77
-42.103
244.21
28.13
-147.26
-82.653
-99.037
33.219
164.18
182.8
-271.47
-199.23
39.32
198.83
55.46
25.117
-118.11
-123.57
-35.615
187.08
-43.246
-90.742
62.418
-52.574
-69.969
7.1099
59.526
116.54
23.68
-5.4791
95.255
-63.74
-67.073
-2.2558
57.992
-55.414
46.208
13.05
-151.93
-26.584
123.93
24.792
-26.606
11.067
109.71
-178.97
-34.367
170.68
-35.447
13.776
-101.73
-35.409
159.43
-52.098
-87.927
205.73
164.66
-100.34
-135.91
-146.06
-118.9
94.461
150.09
-156.59
10.947
95.652
-51.68
12.579
44.31
59.662
-146.02
-109.17
34.443
-36.197
54.074
69.852
-12.373
-4.2845
57.739
23.714
-29.926
32.208
43.966
-22.463
-17.36
59.582
1.3467
-80.037
72.868
23.105
-63.829
-19.921
78.036
92.609
126.99
-61.082
-85.208
-168.15
-81.24
64.807
-24.208
-2.9977
49.837
27.397
-37.822
22.705
4.6396
101.94
191.77
44.3
-214.5
-275.11
57.382
-19.312
48.935
147.93
-20.278
-108.15
141.91
50.397
-40.068
-100.97
-110.2
111.76
-52.635
1.6572
153.06
118.82
-279.89
128.31
-249.33
-44.135
111.25
41.059
-4.8756
-30.066
132.68
-71.947
-122.43
101.89
248.52
13.942
-121.03
-230.01
29.328
147.58
7.1892
-65.945
-86.057
84.503
80.237
-42.395
9.8193
41.647
-91.882
-53.618
9.5188
-52.835
20.097
138.31
-88.219
86.941
116.94
-26.11
-47.777
-123.64
-2.996
101.93
57.22
42.739
-61.714
-123.27
35.261
6.9637
34.399
-42.391
-173.88
49.475
-52.949
20.692
52.601
51.684
41.412
-20.84
13.988
123.46
-82.659
-84.585
60.345
-51.823
125.01
-19.876
-66.082
-42.852
-7.7045
47.169
-22.223
3.8806
30.377
-13.453
14.279
56.929
-2.8942
-12.744
57.605
163.17
25.546
-29.039
-170.88
-71.67
4.8957
82.386
18
-84.427
-3.6194
-84.934
49.827
52.682
23.547
10.27
52.252
70.59
-193.64
-83.804
13.309
-95.609
12.065
131.64
239.26
-278.69
-157.3
82.203
-18.619
-14.264
48.608
43.178
-40.401
7.3947
60.96
20.008
39.202
133.45
0.15127
-103.76
23.533
48.173
12.454
-196.23
-14.512
57.729
16.573
-31.36
6.506
56.293
20.831
-23.649
2.2921
34.456
0.87881
-35.686
13.972
31.109
-3.2334
-37.46
4.8097
20.973
-4.3942
-28.901
17.254
69.634
-78.049
-23.242
-13.767
16.795
52.726
-38.477
-5.9749
-6.8352
69.555
-47.64
26.906
44.933
91.414
-112.99
-136.84
29.71
-20.411
240.14
-56.062
-186.92
-26.04
-110.71
45.342
-30.604
76.954
243.99
261.47
-102.83
-157.13
-88.252
-193.78
-615.04
301.88
341.19
49.723
41.178
5.3615
143.47
-16.699
21.717
-92.983
-96.666
-143.87
-3.8424
11.425
5.9594
2.9834
86.635
16.848
34.474
135.1
67.835
-100.67
-52.92
192.3
9.5396
-7.441
65.391
-88.771
-157.18
-26.739
-15.403
43.597
150.37
31.024
-167.37
2.9108
-16.927
1.3673
-10.215
-174.71
-45.667
100.29
-19.449
-47.653
0.18214
21.696
15.009
40.294
22.119
41.576
-11.439
227.44
54.943
-346.08
-39.011
35.043
45.227
-27.474
47.103
55.747
-17.336
-10.426
47.491
7.2305
-27.345
22.399
38.731
-23.802
-2.5545
38.73
7.3812
-39.853
1.722
33.355
-7.95
-30.626
-37.048
-71.591
113.25
61.853
10.499
-19.841
-11.996
-4.3272
-5.0851
-16.981
-52.701
3.9717
22.893
-13.102
-30.978
-14.782
3.5053
7.2159
31.034
-3.8282
-23.781
-73.35
-7.3856
32.54
14.305
-25.727
33.184
-18.384
-45.242
46.38
46.818
-24.905
-35.15
37.83
15.052
-38.414
4.5195
71.328
18.512
-21.605
-23.585
4.0702
-60.551
56.775
7.9367
-11.557
4.1305
-41.499
63.446
30.533
-25.355
-24.517
-1.3822
7.0466
19.91
-4.4754
24.442
17.269
-53.223
-25.199
28.735
63.365
-63.402
-47.166
41.21
38.105
37.114
-115.24
-78.059
-57.84
-61.392
88.511
170.42
12.175
-120.77
27.11
95.855
-43.866
-30.09
31.517
22.011
-31.027
-49.242
47.974
39.49
-44.144
-52.951
42.216
18.008
-42.55
-123.14
-16.674
88.026
-74.174
18.039
91.29
47.839
-47.102
72.127
49.427
-75.928
-13.791
33.225
-2.7489
44.046
-15.788
-1.3211
15.647
-58.461
-39.396
26.953
19.18
-26.705
5.5171
54.645
-32.833
4.6558
51.938
97.34
-103.8
94.685
72.941
-165.3
-88.726
160.68
89.596
-114.02
47.174
34.658
-70.796
-91.566
-96.832
-36.184
142.88
79.657
-142.06
-203.1
3.5942
72.289
-7.1566
93.291
190.27
134.44
-173.85
-150.31
-1.5328
-71.012
15.939
11.373
-25.979
63.384
54.458
-71.401
115.95
20.593
-33.494
51.009
150.7
-19.973
-19.259
60.052
-47.755
-51.7
40.004
-25.275
-161.23
26.479
-42.215
33.325
91.684
11.817
-75.048
-89.071
38.606
-76.506
-29.836
53.686
151.81
-47.566
-143.61
49.026
-41.954
-57.494
3.0754
64.001
-17.085
120.82
72.108
-183.7
-59.802
60.105
93.083
104.75
-68.969
-110.36
19.822
41.109
-9.8677
-50.862
5.5618
91.075
-5.1886
39.116
158.29
-71.229
-142.87
9.6892
7.9426
-33.224
9.1413
18.662
78.077
83.081
94.341
-78.435
-114.79
25.665
84.095
-69.948
-152.68
159.21
155.67
-276.25
-109.53
23.04
45.654
10.869
-22.849
72.842
207.25
-89.119
-166.14
-13.221
-6.1717
-3.0138
-1.5452
15.435
-35.973
23.371
0.67196
-56.889
42.284
25.421
127.98
3.3622
-77.516
-1.248
-81.389
68.99
-60.62
137.34
68.949
23.396
166.54
-98.471
62.025
-231.24
-208.18
60.25
147.82
-43.488
-71.141
120.01
47.594
-189.03
-12.079
-18.439
1.0709
28.553
72.546
145.98
-248.46
-41.875
122.21
-81.459
-23.724
47.927
128.07
58.275
-110.02
82.397
-113.17
61.558
7.632
-48.851
85.628
53.177
-102.21
68.646
-230.61
-80.488
127.79
82.617
82.385
21.176
48.507
-92.693
-183.34
13.802
182.8
45.8
-57.197
-229.9
-103.55
84.43
58.944
-23.438
0.036906
72.894
13.098
-4.6828
62.234
57.2
-23.132
-20.704
62.772
42.731
32.857
75.45
50.478
76.707
-25.189
-35.122
163.13
-160.29
-100.79
-105.39
-13.677
-14.127
8.3524
-112.51
24.144
-12.66
-51.776
-38.333
70.151
-55.676
-41.434
74.931
-117.21
29.503
26.517
102.63
-31.111
-22.823
34.095
294.42
-208.75
-111.54
107.37
-109.89
51.541
133.09
182.77
-251.38
-182.5
33.328
155.06
1.4259
-77.19
44.659
-33.553
0.3256
198.51
38.398
-218.1
-117.08
29.435
44.676
-32.711
15.867
132.99
-21.556
51.125
-1.4399
109.84
-10.689
-108.71
42.344
43.625
-113.99
-15.99
45.572
93.257
-23.043
-115.35
-43.411
-10.312
104.03
137.25
-72.398
-61.022
-163.84
-101.55
16.081
72.708
57.543
74.906
-20.042
-48.257
20.683
-20.271
109.27
-19.162
-36.631
95.701
-61.478
-133.4
-4.8642
123.63
-92.323
-28.761
-13.681
17.177
36.486
150.66
36.751
-97.944
41.22
-121.44
-221.92
101.51
73.176
-13.641
59.769
51.663
98.25
0.27809
-142.89
125.02
-40.923
-87.131
-121.85
50.334
134.15
122.89
24.95
-190.89
-72.367
24.298
-57.344
48.347
-16.734
-21.6
44.385
87.602
166.94
-33.15
-130
48.431
59.728
101.82
-23.732
-88.88
-139.85
81.87
-24.86
8.1158
16.129
-99.03
-80.165
56.839
72.773
99.863
0.18193
-31.048
-103.13
-71.53
-99.893
40.491
90.72
32.546
62.581
36.745
40.795
-26.584
-52.922
-106.71
-67.938
15.175
68.179
-29.547
-8.2468
35.05
-34.164
37.482
-66.281
-5.4135
16.833
19.488
-39.876
26.257
77.003
-1.3036
65.51
135.39
70.047
-204.89
-193.97
43.391
116.82
159.4
-81.113
-7.2086
-49.755
-177.43
7.7915
90.842
79.957
-30.864
134.74
94.558
-261.52
118.76
-59.826
58.605
11.949
-110.59
32.984
8.7075
-116.51
65.605
224.11
70.892
-79.893
-272.09
-15.884
-27.22
10.89
133.81
25.882
12.422
-130.54
-33.693
19.257
26.452
-13.011
8.6046
41.315
-30.643
-23.046
77.358
-13.304
50.531
149.75
156.3
-88.88
-87.515
-12.205
-87.218
-52.81
72.381
-48.276
-45.022
77.534
-110.65
30.453
43.654
172.27
-144.93
-88.45
92.048
-80.367
-7.5037
-13.24
131.21
-94.809
-230.91
65.811
106.1
94.085
-32.898
18.681
-220.64
19.043
94.164
43.213
31.874
105
-110.84
-111.48
8.4961
34.751
-21.592
40.715
80.946
-70.069
-57.717
114.14
104.07
-32.163
43.888
-54.537
-74.097
-53.411
19.594
52.412
-9.6068
-37.438
32.563
39.142
26.973
76.547
-13.147
15.451
18.688
-84.001
-81.263
-0.58325
-14.294
-33.693
19.021
26.419
-24.484
-12.946
69.058
17.881
19.535
17.138
62.746
93.877
-95.994
-99.718
-57.329
18.607
63.516
-46.251
34.633
-1.6626
48.771
56.158
30.209
-177.28
-16.987
16.956
-239.24
-21.391
48.383
55.673
33.475
116.94
6.905
17.416
-65.23
-86.048
28.122
51.034
94.692
167.83
-24.417
-289.95
-14.836
80.623
19.187
-32.537
39.259
11.878
-6.9583
43.386
52.3
97.72
20.273
-69.935
-47.283
-11.911
21.648
-155.99
44.128
97.367
-132.93
-105.75
59.734
16.215
-46.659
-27.205
116
51.714
-73.357
-59.703
52.612
51.075
-11.849
32.44
-37.033
26.694
27.255
30.211
106.12
39.407
24.74
-171.05
-18.904
261.97
-267.79
-235.18
70.212
32.474
-2.339
27.132
51.949
-3.1494
9.8972
36.896
-21.552
-12.002
35.745
-12.483
-21.047
29.632
-2.0127
-22.628
30.553
15.927
-38.324
13.171
19.599
-28.975
13.193
24.632
-26.807
2.1489
34.399
-20.344
-17.863
22.709
-5.1264
-19.922
104.62
65.912
-148.21
63.554
97.031
-48.851
-42.094
-6.6432
-57.857
-110.25
-30.205
153.57
42.634
-25.396
-51.743
136.19
-151.53
-135.14
-36.087
-30.234
135.46
4.126
-96.137
-40.325
93.067
122.49
140
32.182
-130.08
-121.03
-117.52
39.965
-2.1478
-7.7495
18.198
40.22
1.5953
-32.144
56.794
47.968
67.534
-26.624
29.395
38.522
123.09
-102.11
-7.2447
68.335
-134.31
28.123
-48.6
-114.52
19.672
37.341
134.43
10.671
-149.94
162.89
-328.45
41.222
66.966
-29.945
28.341
101.61
33.799
10.758
126
86.294
-143.58
-139.45
158.51
-75.007
-100.32
204.94
-111.95
-258.63
-11.551
45.152
45.455
95.085
11.432
-19.987
-48.682
11.181
78.618
9.2611
-26.088
31.028
9.6124
-31.135
8.9269
35.525
-9.9426
0.91998
163.39
181.75
-115.24
-227.92
-95.324
-1.1533
14.98
49.47
-0.46043
57.203
23.685
33.332
117.28
-8.8776
5.2551
-174.99
-111.68
-87.635
98.659
156.42
-145.75
-79.363
25.772
7.2311
-12.128
37.935
62.236
9.8236
5.1509
113.5
32.966
-177.86
45.208
66.498
-46.27
-45.578
-15.971
-48.691
-60.678
294.53
-216.32
-90.236
128.81
-100.89
83.475
137.09
-81.004
-129.58
141.87
-52.383
-188.66
-148.57
109.81
75.767
92.73
196.68
64.477
-84.564
-150.55
-48.933
-162.69
4.5193
98.048
9.0936
20.478
92.703
28.733
-11.734
65.041
26.358
-18.807
30.494
13.451
-30.906
13.837
20.937
-19.001
-3.1334
20.415
-3.8839
-40.878
-6.2247
1.9155
-19.209
1.2014
10.238
-15.375
-13.908
16.706
-6.6632
-19.21
12.448
9.7689
-37.022
0.75888
-6.9977
16.716
16.899
103.62
48.979
-190.56
5.9889
-37.057
-55.852
-20.315
85.445
70.382
81.606
16.908
-115.24
30.408
-2.7052
-12.342
-23.362
-35.56
286.99
-157.38
-307.62
5.5421
165.59
68.573
-50.573
54.137
-17.229
-110.49
30.326
108.22
-39.031
-37.678
19.245
49.628
-111.37
10.897
144.89
58.907
-131.28
23.936
20.045
14.755
-75.363
-62.852
7.5609
121.87
-121.27
-177.65
10.09
127.83
-34.992
-74.395
6.1982
38.449
3.4803
52.554
50.941
-27.238
-10.457
-5.4349
82.162
0.84659
-8.8855
42.272
-3.196
-12.396
25.411
55.565
-127.33
26.062
172.81
17.959
-53.177
4.5548
91.722
-51.951
-48.124
16.805
5.4876
-11.541
68.492
-34.489
-106.39
-69.939
-130.53
-25.639
40.317
54.23
56.359
6.4989
-10.758
14.799
15.93
-25.066
-6.1321
21.847
-10.839
-23.558
26.358
13.69
-29.054
0.52118
21.488
-38.421
13.098
13.339
210.72
106.04
-148.14
-193.38
-48.154
-39.636
-28.297
31.083
22.584
40.063
-27.386
8.0723
40.689
-25.235
13.779
62.744
-6.4337
-18.956
53.372
33.851
-25.312
10.766
43.544
-2.3892
-33.935
3.7362
17.84
-25.443
-23.376
15.399
-1.18
-33.684
-8.0094
16.415
-16.558
-25.089
11.207
7.8413
-32.026
-13.291
25.527
4.5787
-35.629
8.8952
46.619
90.308
213.36
-50.233
-170.39
189.67
-82.82
-279.52
-2.0448
-58.348
-29.676
55.128
-138.56
-61.916
70.859
48.045
32.759
-37.517
60.903
74.825
-18.571
-0.97745
85.415
9.2115
-41.211
60.174
53.842
-40.93
15.049
64.112
-16.432
-27.949
38.378
-8.8479
-33.408
26.213
-0.13486
-41.43
12.777
17.976
-38.762
-2.7658
22.839
-31.648
-4.3344
19.417
-42.453
-10.878
37.899
6.813
-39.361
10.874
26.05
-13.049
-31.331
16.72
20.357
-36.129
-24.35
25.417
62.105
226.38
13.921
-130.45
-130.31
-171.34
-63.609
108.94
25.991
-120.43
-45.85
73.059
48.702
-58.876
3.1787
91.501
-0.20161
-37.729
72.622
66.006
-44.749
-2.6751
83.95
15.385
-45.305
25.598
33.888
-40.782
-8.5243
33.193
-20.705
-34.509
27.101
19.393
-36.005
-10.585
27.507
-23.653
-25.389
21.554
6.2431
-40.386
-3.5809
29.277
-11.35
-29.649
15.955
25.989
-31.917
-26.153
34.551
9.9035
-37.754
-5.2464
34.709
-11.67
-40.405
31.649
16.334
-19.663
-55.666
190.87
217.82
-237.95
-191.64
-61.435
79.638
-39.679
-24.892
64.563
17.376
-30.441
18.391
117.5
32.488
-26.925
58.617
77.855
0.10567
-10.85
-103.83
51.495
36.539
-137.71
-116.57
28.21
143.85
3.1443
40.681
-50.724
-70.573
-60.426
48.293
7.8336
13.688
17.772
-51.749
13.768
18.201
2.2327
-1.7615
-59.277
38.464
9.0202
-78.368
6.2843
-37.222
-13.189
22.048
63.306
42.904
-12.113
-33.127
14.709
-22.186
-57.744
50.539
42.115
-8.6161
-23.147
46.407
29.78
-55.641
25.992
86.708
29.592
-163.26
-86.769
43.741
85.541
-60.961
20.081
96.949
-47.588
-114.02
25.932
94.601
6.1438
-20.202
-2.0743
59.186
155.05
75.706
-57.153
-140.3
-54.796
26.201
41.533
-66.501
-46.88
35.826
-20.455
-27.354
20.137
53.286
-12.996
91.132
79.831
-202.21
-42.654
64.253
62.597
-15.299
-31.506
-4.6255
34.439
28.893
-78.282
-75.132
29.598
21.93
-11.587
-16.728
42.755
-52.699
-16.608
-75.004
8.6956
19.78
81.189
25.596
-130.16
124.85
-16.547
38.475
56.666
-190.99
12.777
1.4145
58.171
24.055
14.939
-38.096
44.284
13.311
19.794
-20.918
1.4867
82.345
-44.843
-45.097
67.415
25.528
-16.053
-41.159
-12.683
4.4237
31.515
-53.231
-62.871
43.784
71.186
44.932
-100.62
-11.729
-19.175
-85.102
-0.90304
18.827
85.972
26.303
-106.07
-15.434
55.875
37.643
-79.157
19.036
97.186
49.625
-176.49
14.616
107.78
94.557
-75.909
-199.95
43.6
23.121
0.79061
-29.751
79.537
154.39
111.78
-157.28
-33.369
66.82
65.95
-88.17
-43.83
6.9433
1.1183
69.08
-43.117
-22.763
-53.323
-28.956
21.932
4.8536
-24.898
14.838
61.535
-19.999
14.926
-13.335
-5.1227
-44.158
-18.046
96.615
130.08
52.39
-88.467
-163.75
-62.152
50.58
70.169
4.485
-20.15
-95.032
130.98
-78.315
-109.59
5.0339
187.5
60.28
-138.42
-69.355
132.65
17.054
-37.538
12.383
-15.134
-110.38
-82.079
-16.592
69.568
59.438
199.85
-64.585
29.492
-226.34
-146.92
115.04
10.912
2.9125
34.125
52.375
-1.9249
-17.48
42.135
36.022
-13.133
11.376
13.18
-12.197
-0.7349
51.84
49.511
66.665
100.93
-151.11
-71.759
-48.377
43.672
115.64
42.438
-53.504
-195.97
-63.338
9.493
65.485
118.5
-50.852
-17.61
63.495
-130.7
68.925
-15.93
40.127
-101.42
-218.56
75.006
40.293
14.804
-37.109
191.38
193.18
-122.94
-27.92
-0.14955
102.15
-350.24
3.8981
62.806
99.369
44.316
-170.33
10.679
5.9338
-1.9156
134.59
464.91
-156.3
-264.01
11.704
-28.477
-104.25
-117.62
30.179
97.441
14.056
-52.216
124.89
95.246
133.72
52.85
-277.9
-94.664
0.45972
-6.307
122.54
9.8825
120.68
-155.91
-76.702
86.837
-24.511
130.23
43.537
-65.245
-142.82
-38.312
-87.597
16.86
-33.556
32.418
23.218
18.819
-25.108
105.89
134.77
44.332
-64.411
-78.777
-105.29
14.423
106.83
-53.304
14.491
-49.903
-46.448
-28.975
-2.6676
151.21
126.73
-58.312
-108.71
39.539
154.78
-8.8508
-74.677
-18.147
-174.84
-18.475
10.521
57.923
-15.273
-38.125
28.454
17.679
-26.498
-6.7026
53.975
6.7355
19.871
217.92
-29.566
-67.316
-58.597
91.927
-74.51
-82.886
95.828
0.72762
-8.3836
214.54
-39.029
-190.92
-114.83
-38.75
-69.534
-46.251
64.73
23.792
-11.666
22.821
-1.6924
-36.624
17.889
52.339
-5.3885
-34.861
45.518
32.826
50.056
61.81
-9.6686
22.403
-44.056
-73.807
34.73
147.23
36.182
-127.78
142.01
-91.841
-91.907
-32.127
84.841
113.44
-130.99
-52.598
18.863
47.705
107.53
-78.646
77.751
-3.3181
-206.96
96.102
1.7699
202.75
-313.06
41.152
84.881
-127.24
-46.403
-49.495
98.908
-327.52
-4.071
295.24
54.522
-144.73
-20.894
95.598
102.53
35.941
21.323
-44.834
-4.7308
25.337
8.2393
-35.86
7.1717
22.352
-44.959
-16.959
57.518
17.552
-9.0999
35.231
-6.5043
8.0568
-46.823
11.727
-12.022
-77.822
11.247
29.356
47.086
-30.65
86.423
33.106
-81.432
-73.057
-0.20695
48.728
-4.7043
-47.127
22.669
18.873
-55.338
-46.817
49.409
36.927
-46.774
8.9515
131.65
-8.0765
-97.711
18.131
63.278
-41.762
-64.004
-44.786
52.564
54.654
-10.586
-66.188
40.723
46.364
-3.8131
-63.846
25.185
42.198
-21.273
-53.162
-50.815
43.045
10.966
-122.31
39.948
58.824
67.07
-17.508
-14.016
83.666
-20.668
-103.08
16.823
24.825
-0.94924
-46.419
87.641
48.957
42.437
-91.071
-43.353
206.91
153.76
-124.92
-102.68
-27.374
-134.12
-56.283
-47.196
-36.231
145.09
65.704
-12.266
128.5
101.01
-95.578
-227.57
-137.17
16.116
86.29
-7.7628
168.12
130.02
-45.068
-24.678
14.472
-1.3739
-25.011
-126.46
6.7985
89.729
-28.15
27.168
127.69
120.92
-226.93
-227.9
164.38
97.624
-131.7
-20.681
161.9
-213.33
-240.6
148.6
106.16
78.559
189.44
20.504
-72.183
-96.61
-186.22
-11.834
115.2
-86.546
-62.553
5.8515
5.0634
53.774
81.831
-8.5082
-8.6263
127.82
163.21
-351.44
16.761
151.75
117.2
25.732
-126.77
-10.224
-8.9877
158.31
224.11
-63.323
-231.26
-33.524
5.9846
101.39
-153.97
-146.75
-14.497
64.367
45.922
-9.3291
3.4119
-51.414
18.935
-8.042
-8.5866
2.3305
-12.732
63.365
38.897
97.214
-109.48
-141.41
1.0044
108.35
-22.289
-109.45
-34.934
198.25
87.112
-130.48
-111.7
-22.09
7.1451
-0.4459
283.21
-143.8
-31.108
-14
176.56
31.216
-105.35
-148.81
-59.092
151.11
-54.992
112.46
-13.135
-164.38
-7.6623
133.96
197.85
-102.61
29.762
11.82
-157.86
16.864
-44.595
18.874
-66.016
20.746
64.802
70.018
-27.114
13.457
-5.8255
-37.847
-43.853
3.9705
34.708
-3.5874
1.9344
107.69
202.81
-22.734
-62.056
-32.992
-161.42
-101.24
21.166
-21.58
-33.025
-6.9726
116.09
-24.561
46.838
123.97
119.52
-141.96
-98.833
190.81
-169.84
-128.29
28.568
17.41
-37.907
-46.246
129.62
51.683
-132.71
-57.401
36.345
31.11
-1.756
31.737
48.185
-8.6809
-22.382
15.064
2.0225
-35.261
22.159
25.524
-14.932
5.8873
12.599
-25.918
3.7446
41.577
-9.1795
-21.141
31.38
9.5989
-32.156
-13.783
25.724
-31.407
101.51
18.322
97.889
108.44
-249.3
-99.935
-94.692
119.04
70.328
148.8
7.1378
-445.38
-93.694
82.784
86.712
23.616
-5.4569
66.148
87.778
166.78
98.946
-96.963
24.043
-40.264
-238.08
-105.43
15.816
43.414
64.93
-61.975
22.683
37.255
108.63
67.081
-85.376
-53.303
-34.729
-18.882
0.92478
66.673
-3.622
2.8277
-24.86
-104.44
-15.954
32.137
43.993
-31.509
7.3575
113.72
107.39
-29.341
100.7
-106.06
-78.481
-53.81
-24.824
-0.42271
8.3681
121.85
22.112
5.1425
164.61
29.61
-249.12
-223.04
31.424
44.9
39.04
-74.521
41.558
79.194
233.09
-88.36
-39.638
79.681
-263.85
-91.167
66.687
172.94
125.73
-78.157
-6.7742
-102.33
-23.654
2.3106
-25.954
-68.202
-38.056
45.976
53.291
-21.412
17.009
28.124
7.3775
126.94
75.445
-10.267
-67.962
-68.627
-65.933
86.438
-56.055
-83.952
11.488
8.1038
4.6722
142.42
41.628
-54.046
-43.739
149.91
109.31
-216.72
-145.49
26.506
-25.296
-0.69061
147.8
104.75
67.007
-88.837
-92.926
-62.925
33.629
119.72
-61.36
174.84
-263.96
-230.22
93.252
-21.186
8.4165
39.142
12.457
-12.695
52.935
194.32
-23.219
-113.29
94.069
60.661
-7.7528
-241.68
57.266
-10.478
-100.54
143.84
167.59
-165.88
-141.64
51.235
-2.8398
-11.932
-8.6961
58.225
36.493
50.307
223.18
81.016
-315.64
-62.796
11.05
0.46954
-35.513
79.762
239.48
53.802
112.66
-129.6
-175.5
-238.52
39.301
221.65
-69.049
-80.834
-112.7
-58.348
150.81
45.133
-75.356
7.842
68.675
-3.1387
-80.449
-53.876
-34.961
25.691
18.161
-12.115
45.377
140.43
-2.779
-70.133
-2.6822
-51.041
75.637
134.88
156.51
26.054
-256.97
-80.349
231.24
-215.62
-130.34
22.869
-55.131
34.099
20.993
61.846
-4.802
39.396
24.281
-50.934
55.076
117.51
162.72
-97.019
-142.72
124.25
-96.737
-286.3
121.05
21.29
24.013
185.83
-10.021
-59.376
31.725
-19.128
-59.724
55.852
92.683
-313.14
59.121
131.24
53.049
24.527
-182.57
-64.264
172.23
-28.869
-28.658
-152.66
-51.682
75.645
-25.067
81.848
-13.55
16.518
83.154
55.24
79.195
81.632
-78.216
-121.47
-95.714
46.6
89.296
-100.81
50.888
1.6836
-61.616
-28.858
26.02
146.13
188.11
-77.577
-187.82
-88.716
52.894
-64.023
-7.9415
-1.4943
-10.754
-40.069
32.849
101.36
149.26
-80.67
-148.73
3.9982
-2.967
43.068
19.844
133.46
184.99
-336.58
-109.44
116.76
210.63
45.431
-144.69
-142.48
12.368
79.863
-8.1363
77.11
-33.985
48.689
-145.91
-75.269
48.603
-49.649
20.764
81.279
160.36
-41.95
-12.49
-69.08
-90.279
-6.9402
-7.4594
31.049
42.386
83.81
208.85
-275.16
-119.85
48.426
1.3101
64.454
90.998
-33.683
-236.09
65.343
75.556
72.788
-11.621
-3.0019
-106.6
79.049
69.187
48.659
-41.836
-114.21
74.409
-303.33
-40.605
78.758
69.358
-32.968
24.656
70.315
0.094084
-2.0731
73.193
91.914
163.9
-38.852
91.63
-20.358
-201.02
-96.096
-4.8108
124.08
95.362
-28.622
-122.49
-3.2698
131.51
8.6557
8.6199
-237.64
22.104
-16.641
17.874
11.647
47.126
82.433
75.823
-191.9
-82.555
70.214
-24.326
33.911
-5.3036
-64.874
-65.201
-46.999
-26.793
51.794
48.123
-48.598
39.914
22.3
47.743
268.17
145.9
-164.68
-144.93
43.19
-79.873
-53.654
-13.954
98.095
-64.837
-32.316
28.694
-71.091
0.93756
-2.5615
146.92
46.657
-28.405
40.307
57.673
-167.47
-114.36
131.13
162.43
22.94
-205.33
-70.393
-129.05
17.615
98.239
30.819
-29.34
-5.4572
31.017
31.709
-12.226
145.92
187.16
69.001
-191.2
-171.73
-41.728
107.22
115.15
-240.32
-52.468
107.48
133.53
-131.41
-134.83
151.32
91.23
10.263
108.09
40.865
-295.75
24.948
134.21
-0.35568
-14.442
-93.914
79.307
40.167
-267.9
57.97
12.541
-9.1186
48.065
-28.597
-39.507
-26.454
45.442
0.50154
-20.448
31.218
35.127
-34.306
6.9039
68.074
-15.892
63.985
127.29
132.46
-111.18
-142.44
60.804
-62.09
-57.387
17.596
-43.498
80.475
104.9
-170.38
-89.396
119
129.47
-89.815
-233.96
17.998
109.15
-37.961
-36.692
32.039
8.1148
6.9277
102.86
38.873
-14.273
-84.862
-14.425
0.45835
-30.805
33.684
-10.434
-35.422
63.346
124.85
138.86
-62.291
-147.48
-25.093
-67.281
96.567
-10.708
110.78
16.105
-26.646
-195.13
-109.49
120.41
93.236
140.44
-1.9821
-118.55
-107.48
98.286
102.27
-109.8
-102.75
-56.002
-60.548
-15.456
31.052
146.91
58.825
95.78
187.12
-128.02
-243.91
-76.226
122.51
-21.973
-60.887
9.7596
22.357
-10.507
15.934
10.403
-25.19
-4.5484
4.1445
-24.365
-4.687
70.883
-5.9257
226.09
25.267
-259.26
-61.721
31.494
52.081
-22.891
44.659
173.41
39.767
-217.09
-59.561
-63.445
13.706
88.852
156.68
221.76
-96.16
-329.47
-96.273
161.7
-56.053
-38.148
31.338
2.5009
-32.884
27.248
19.153
0.019583
11.039
115.14
110.46
-96.353
136.06
57.96
-369.88
-23.388
55.113
4.2769
-29.732
19.579
140.74
13.35
-67.993
51.84
-164.94
12.332
38.889
43.133
-12.833
34.787
-12.022
24.126
-13.092
-23.997
65.529
-125.46
103.29
-55.334
-133.18
57.755
-3.7451
45.89
128.14
-29.966
74.066
161.66
52.354
-224.28
-102.73
117.92
-135.03
-20.901
45.428
-132.11
-57.369
158.08
39.839
-97.452
-94.361
5.8872
-1.1325
-50.217
2.9398
7.5759
-10.143
-7.2589
49.899
102.13
74.109
69.682
48.975
-165.57
-63.435
8.2737
49.447
31.376
35.883
37.039
-1.0091
-53.141
-10.273
39.196
7.7282
-31.131
30.95
36.005
17.158
101.25
-61.416
-136.35
-42.696
-20.768
41.738
101.12
120.96
56.643
-141.28
-85.753
-33.086
30.865
34.745
-53.259
-15.353
23.588
18.081
-34.85
19.781
21.421
3.3434
-29.235
-2.2061
-104.59
-83.134
206.73
12.321
-59.048
-94.072
-18.696
17.808
-89.712
52.373
68.686
-7.4863
10.306
42.605
-16.352
2.4231
47.946
-6.5472
-19.686
80.461
81.187
-16.022
5.8709
-12.932
-1.7777
-114.79
5.5859
3.8012
0.033399
107.99
46.18
71.882
-46.052
-171.6
-36.184
-86.301
-48.925
58.898
-25.488
5.1566
-3.0169
59.638
-21.361
-6.3395
51.961
31.077
-10.124
-11.624
26.156
3.3481
-26.278
-0.94357
26.056
-15.468
-14.997
27.795
12.25
-30.25
4.5734
44.371
35.203
127.64
84.131
-63.608
-77.88
-119.73
2.6596
31.579
-42.142
-24.833
21.688
4.2493
-42.563
-13.96
33.181
11.679
-32.458
-17.735
30.775
9.8221
-34.225
-13.577
28.377
10.881
-66.048
-34.835
-71.584
-104.64
144.22
81.685
126.41
64.158
-38.211
-27.604
-23.678
-61.854
-69.489
43.003
71.891
-13.938
-11.971
72.404
16.072
-50.975
-48.898
22.469
-4.495
-62.426
29.387
27.136
-32.582
-16.977
49.747
31.944
-26.971
-21.248
37.848
-13.301
-37.087
18.349
12.708
-18.227
35.226
35.374
-46.686
-19.266
29.33
-34.958
-8.0598
34.984
-30.342
-20.749
45.333
1.5172
-51.658
17.057
30.202
5.0544
-0.25128
32.588
2.4316
-52.641
1.0096
35.942
-26.568
-45.81
6.1426
20.581
-50.796
25.166
101.27
139.11
1.5321
-156.8
77.549
6.0253
-276.03
-13.42
-0.39864
17.522
72.869
61.105
42.433
187.12
93.009
-212.7
-27.447
230.72
58.978
-187.25
-219.11
-17.849
53.547
-9.7972
-12.854
-101.14
-20.423
40.788
143.62
102.92
-222.05
37.265
31.517
-77.145
-12.821
94.334
83.554
46.145
-212.2
39.019
5.3314
6.6537
-28.792
-97.34
110.54
131.9
-28.417
-47.689
189.35
-17.969
-199.31
-2.8514
-35.456
-31.173
38.567
33.041
-3.1229
61.603
226.38
195.54
-350.34
-131.32
3.3404
7.7626
18.187
11.562
-19.727
21.187
26.642
-21.006
-4.7355
26.315
-7.1522
-20.969
43.74
-33.378
-22.836
12.525
87.862
93.055
55.004
-131.48
-147.38
13.457
-38.31
31.666
55.137
-10.682
112.36
-100.8
-100.41
50.831
153.21
95.658
-192.15
-131.1
17.832
57.977
82.958
-65.395
-3.9154
-11.455
42.166
-77.118
9.195
-98.155
-8.8848
57.191
-29.099
53.685
125.84
64.933
39.188
33.395
-161.19
-41.684
-126.78
-31.795
45.683
-11.87
83.195
123.52
204.22
-69.851
-187.72
-8.3585
-206.95
85.638
33.712
-23.152
102.52
32.979
20.861
47.687
-94.498
-74.32
-46.702
58.744
48.933
-6.2553
-70.164
25.434
19.562
-5.6661
9.4454
15.673
-27.366
110.39
150.21
-36.657
70.784
-59.843
-24.422
-63.012
-4.0687
-86.793
-80.394
60.531
-77.086
-7.5039
71.647
75.185
97.795
224.31
-228.88
-330.76
224.7
-74.92
-70.375
-128.45
77.945
186.07
267.52
-97.008
-437.11
70.557
48.833
-11.458
77.545
2.8045
-18.922
89.818
115.06
-91.949
-48.684
34.562
23.864
-86.271
90.608
18.696
-168.16
-53.338
91.184
15.248
-5.3978
6.6868
12.852
65.186
36.111
-79.29
-0.91735
32.043
-5.7115
186.69
94.372
-121.14
-262.32
22.775
-116.72
-46.457
76.75
37.953
46.932
-47.152
-65.81
102.6
68.997
132.51
-53.478
-59.354
35.449
65.523
68.713
-31.604
27.746
-126.31
-259.24
-92.487
103.61
138.56
306.03
88.06
-411.71
-132.75
-1.8255
88.576
173.05
117.68
-25.293
29.235
-231.73
-195.76
83.339
26.55
-1.4563
75.467
47.691
-32.295
4.966
53.762
40.321
99.596
101.35
56.569
-72.754
-46.139
-141.12
-34.666
-18.506
-101.86
68.546
-48.163
13.555
26.064
120.52
-77.449
-180.83
45.6
86.509
8.8964
-33.797
16.669
30.79
-14.64
-16.131
51.959
27.577
-12.17
31.807
21.334
-44.687
-5.1713
18.31
-45.113
30.702
152.77
175.14
54.92
-32.797
-175.14
-255.02
-33.131
27.062
115.07
46.682
-155.55
15.747
-5.7451
-78.791
-2.9997
48.785
37.273
-37.1
28.431
156.19
-38.134
25.494
62.441
-26.866
-3.6702
103.01
-151.43
-30.498
49.12
-217.97
161.15
-49.752
-237.75
-21.17
37.039
-49.994
35.95
222.36
78.724
-36.656
-119.47
33.283
7.7825
-48.272
9.0403
70.504
14.54
1.6401
69.834
24.111
-11.052
29.211
45.856
3.7948
12.468
30.142
0.91977
-51.985
10.086
0.39165
-25.161
-5.846
25.329
4.2904
-39.612
6.2089
-16.875
-11.04
-7.6782
37.09
-58.373
-71.206
36.46
17.512
-25.802
-17.867
85.121
-19.108
-14.653
-61.072
-32.386
18.354
6.2842
-50.913
-45.912
46.416
-16.63
5.381
48.109
60.552
-33.555
-63.1
20.591
17.945
-19.72
-21.814
36.943
25.791
-27.606
-0.14055
38.453
-9.0114
-43.276
26.025
37.433
-16.395
-36.267
25.769
-15.733
-71.52
-45.966
40.595
69.37
-13.134
-18.197
55.443
-32.796
-19.049
69.72
-2.6406
24.439
-55.965
27.479
41.836
35.633
91.095
-62.338
-84.97
-52.112
-44.775
32.785
17.435
-31.439
162.97
54.096
-62.374
220.71
-49.301
-269.73
-88.517
4.7764
57.924
21.483
96.31
116.93
-4.9692
-85.995
94.248
-43.674
-171.38
-11.755
142.43
-12.033
-82.401
25.486
64.048
-142.84
-104.58
50.244
133.68
70.118
-102.69
-86.589
-2.5575
48.442
28.719
-88.912
-64.589
13.381
-0.48065
15.809
-24.662
14.464
126.31
124.29
22.185
-46.533
-112.6
-91.085
97.415
198.48
-16.27
-92.57
-153.5
-53.64
-37.285
64.805
20.07
4.1933
49.238
77.127
65.954
66.33
22.515
81.677
-101.76
14.934
-108.08
-234.07
62.026
72.382
30.923
-117.45
-50.736
53.299
-14.759
62.692
171.83
-134
-25.457
-9.9221
-5.4537
-36.645
17.882
40.527
-29.9
9.0528
49.511
-7.2245
-19.156
35.494
-6.1502
-27.099
42.888
18.038
-32.745
16.923
51.737
-6.9061
82.683
157.52
-78.975
-54.514
-55.426
-36.045
-46.795
-23.231
41.087
-12.488
-58.387
-77.421
0.73301
67.779
-28.529
37.677
-5.8447
-37.521
34.757
105.6
178.36
-21.355
-47.193
34.537
-80.592
-66.055
-48.218
-388.52
-226.66
418.72
95.799
41.01
-50.9
-12.365
-73.134
-47.126
41.338
114.94
20.293
-18.984
42.953
59.688
-11.554
-5.579
67.859
26.76
91.859
54.669
85.659
-18.248
-240.81
-15.212
77.318
175.59
-185.54
-133.14
52.374
19.149
-26.476
-278.29
-41.196
129.7
15.588
20.57
12.315
32.584
87.268
98.344
-180.37
-101.95
-3.6127
88.273
226.72
-121.06
-47.893
-76.301
-76.147
11.691
20.819
29.932
-7.1725
86.336
6.3649
59.571
92.436
-83.086
43.882
-29.788
30.334
50.847
36.618
-139.18
-39.953
116.08
73.409
-59.635
-268.17
0.38883
-26.516
243.92
-56.757
-165.05
18.307
-87.813
109.29
40.749
-20.289
95.526
-7.2509
50.27
42.33
-211.34
-92.124
37.495
20.87
77.206
-43.792
16.846
-14.499
9.9994
35.524
19.71
-2.1353
80.064
2.4404
39.394
126.03
-61.817
-57.382
185.16
-36.278
-278.47
13.328
-59.205
28.638
28.286
-24.904
102.42
-40.464
8.0365
21.216
-56.62
55.469
109.69
21.644
-124.54
56.111
44.975
227.68
-63.914
-137.47
-60.111
-245.93
-151.94
-24.171
87.378
63.372
12.12
-40.788
65.392
10.912
-60.552
9.7776
61.515
6.4593
102.13
232.1
95.814
-274.53
-164.72
66.873
2.3113
118.65
-18.673
-25.976
-56.977
-22.97
28.167
-37.653
-34.593
10.763
13.322
51.616
114.79
-128.14
-113.89
37.166
52.399
-6.1654
4.1651
48.878
-1.1829
-33.555
14.34
74.091
-3.5918
-17.03
27.31
13.703
-9.2351
-19.738
-2.1504
-5.4744
-8.394
20.152
-5.0392
-33.98
7.9161
13.327
-27.999
-11.954
21.892
-1.6092
-17.458
22.113
13.895
-22.188
2.2525
21.325
-13.195
-15.981
-0.17787
-54.798
142.29
143.62
22.985
-46.233
26.826
42.188
219.94
30.078
-280.41
-197.41
-39.9
-32.461
-51.645
1.0312
11.742
-27.558
-59.363
-1.0205
51.651
6.2796
-28.193
12.104
7.5739
-21.714
41.093
22.563
-43.829
-20.566
37.557
-0.19332
-36.572
44.735
-15.213
-59.174
-46.968
74.451
5.5066
-3.7888
0.032718
-166.93
-49.224
150.96
108.53
-30.979
0.87085
89.658
23.515
-76.587
47.886
90.01
-38.924
-5.5154
61.916
-26.45
-52.85
58.226
36.524
-65.808
-10.118
62.145
-9.618
-67.478
21.866
43.644
-42.558
-48.626
43.129
14.739
-61.818
-0.88506
71.363
-9.5097
-65.87
24.344
43.543
-52.645
-49.173
60.283
39.088
-74.764
-34.849
76.784
31.184
-78.318
-8.7208
77.502
25.486
-82.752
-21.296
74.602
40.045
-47.833
-60.193
80.476
45.488
-8.2286
-91.455
36.471
52.488
20.305
-68.107
-28.389
57.295
23.31
-35.394
-60.615
43
26.561
-26.119
-56.548
36.43
36.869
-25.27
-53.561
40.661
25.357
-49.725
-9.152
49.693
-20.365
-49.424
40.486
44.125
-27.664
-55.68
49.88
41.311
-10.182
-54.922
44.46
72.203
-39.523
-94.315
7.0231
17.096
-29.842
-9.2403
81.496
43.043
-72.338
-52.318
13.16
12.26
-62.4
23.157
140.93
100.88
78.319
27.073
-339.51
-120.73
143.4
54.109
-46.326
13.271
61.736
-37.164
-74.601
65.875
41.112
-21.814
-101.68
43.322
72.374
20.142
-89.465
-42.254
87.816
36.533
-76.228
-56.365
100.79
36.268
-34.58
-98.875
65.982
43.904
2.9829
-86.191
24.94
64.607
14.126
-87.63
-0.33951
76.105
8.5809
-90.454
-34.84
132.97
114.92
97.109
-38.541
-163.44
-111.93
-16.644
46.383
-24.787
-105.7
-26.081
-115.16
265.95
66.201
-68.232
45.102
-8.7138
-34.768
-23.984
62.942
-33.927
-114.26
9.6185
71.279
-24.865
-103.16
77.561
171.23
35.026
-96.336
59.126
26.804
-74.041
-39.468
42.215
31.3
-43.716
-10.426
64.188
-11.406
-63.456
-77.161
70.579
29.348
-15.382
-71.324
37.745
59.797
17.86
-78.817
2.9113
68.761
3.3435
-68.848
-48.407
89.094
47.33
-0.78148
-96.482
22.231
46.378
-2.7787
-69.615
17.74
49.712
-8.5928
-80.492
24.701
53.021
0.87801
-81.574
9.8258
77.724
8.6911
-65.406
-7.6758
64.753
16.044
-51.063
-35.343
61.234
22.357
-63.234
-16.665
51.56
6.9448
-38.168
-27.666
59.443
15.845
-70.102
-49.84
114.54
41.517
-42.266
2.5403
-15.885
-327.86
-325.92
-178.04
276.3
407.39
191.6
88.685
4.887
-110.41
-33.069
111.74
56.677
-46.977
-40.414
78.959
32.865
-52.634
-8.6723
60.581
-19.549
-65.908
36.377
45.047
-52.39
-34.799
56.197
4.5936
-58.099
11.862
45.372
-44.295
-47.636
50.714
34.278
-41.935
-31.232
40.496
20.147
-36.539
59.953
84.097
-121.81
-65.624
7.5231
19.276
-34.941
4.3491
37.44
-23.554
-52.141
17.344
18.493
-44.437
-11.919
40.05
4.6406
-50.807
-5.4692
29.404
-29.212
-27.045
46.704
12.823
-53.379
5.7415
46.061
-38.726
-40.718
43.772
24.109
-51.195
26.883
59.869
-19.819
-28.627
46.55
12.789
-45.369
12.98
44.1
-32.64
-35.698
36.641
20.783
-44.947
-1.1407
45.407
-3.3439
-35.109
22.356
28.003
-25.632
-25.329
25.072
-4.2673
-39.102
7.6316
12.368
-37.444
5.1176
60.554
-49.072
-36.701
60.157
30.948
-30.346
-31.506
22.918
-13.363
-31.425
36.938
28.138
-48.389
0.84551
48.212
-28.794
-39.287
48.104
15.841
-53.325
6.8425
41.921
-38.852
-20.371
51.455
-8.7465
-47.669
42.34
35.262
-44.735
-1.5449
52.825
-14.132
-33.902
34.411
23.478
-40.91
-3.173
43.976
-17.365
-32.456
24.993
17.484
-44.372
-12.955
40.325
-3.2946
-37.144
25.588
27.735
-33.563
-26.543
34.518
7.7087
-38.92
8.9352
33.252
-25.074
-33.163
39.25
23.689
-36.026
-13.871
44.209
-13.751
-21.369
16.244
15.159
-59.905
-19.088
54.789
-4.6672
-46.851
32.869
47.741
-25.972
-9.1577
46.306
3.3537
-55.716
22.883
48.149
-8.0854
-42.926
35.632
33.171
-15.701
-33.079
20.522
18.938
-35.778
-19.433
31.04
7.3808
-43.718
-9.7877
36.566
6.3444
-41.237
-6.6785
33.165
-4.2329
-40.823
13.084
30.414
-21.764
-49.371
30.605
34.928
-21.522
-32.354
36.595
19.72
-44.886
-4.6355
45.317
-11.146
-53.43
29.775
45.213
-25.13
-21.736
46.176
-2.6841
-43.785
30.765
41.334
-29.72
-21.623
46.561
20.39
-33.305
-5.7496
36.641
-14.198
-42.407
24.059
30.807
-26.272
-30.079
33.221
15.028
-30.9
-7.924
29.626
-18.983
-42.807
20.102
27.925
-33.484
-21.842
40.597
11.376
-34.9
4.5025
32.904
-29.304
-44.182
36.444
35.132
-31.191
-24.726
52.023
20.516
-38.653
-5.7779
40.321
-11.003
-47.314
27.203
38.066
-26.324
-32.44
35.701
8.3156
-45.741
11.365
37.557
-32.492
-44.705
47.155
20.339
-0.8731
34.826
105.34
142.91
-51.813
-137.16
-103.9
-185.01
-20.238
153.8
-12.507
-35.703
79.159
19.41
-81.292
29.889
46.455
-23.376
-31.561
-9.7734
-43.352
-20.789
28.439
80.057
38.829
-11.015
-37.759
-52.949
53.419
12.406
-61.503
63.823
74.738
-42.653
4.3883
54.919
-19.066
-62.375
33.938
34.94
-42.786
11.951
54.599
-40.298
-26.274
42.951
-8.5051
-44.576
26.214
31.99
-41.384
-18.642
36.559
-1.5926
-39.82
5.0094
43.14
-17.302
-21.649
24.101
9.7797
-75.91
8.3167
63.345
-4.4721
-61.869
-11.772
40.475
-1.759
-47.604
12.446
43.169
-4.0535
-45.718
20.782
40.392
-31.288
-22.314
48.071
18.706
-62.376
-3.8931
59.894
1.783
-63.75
6.3362
51.061
1.1117
43.049
109.39
0.8078
-73.71
9.152
-7.8268
-84.732
-73.605
14.74
13.258
-36.936
-65.567
7.4604
71.1
-63.304
-49.286
86.334
5.4893
-13.632
41.856
38.947
-18.261
-55.968
48.624
54.129
-14.257
-26.144
52.279
23.3
-59.22
-37.296
27.164
1.3139
-36.979
31.063
25.301
86.896
134.99
-73.864
-236.93
-28.884
109.59
27.211
-80.041
48.647
53.901
-18.111
-11.882
52.223
6.1483
-95.553
-26.64
-59.713
67.543
118.27
90.775
-4.7882
-38.973
15.671
-51.798
-10.268
-26.363
4.3869
-45.249
-106.59
84.363
-50.648
-124.02
-118.8
31.347
182.27
-89.401
180.48
172.66
-416.75
-26.518
197.96
-7.8597
86.965
113.21
74.486
-42.039
63.853
128.01
-225.37
-213.8
85.123
80.805
-0.37728
-265.54
-47.331
163.49
-14.604
-32.555
-28.193
36.29
2.0273
-32.334
31.736
72.959
-10.54
-33.924
59.585
32.872
-40.22
18.766
80.651
-0.89751
-24.475
40.189
19.122
-42.611
-0.437
40.15
-22.794
-14.96
23.732
-21.291
-15.076
8.2078
-2.317
4.9057
210.84
7.2303
-160.58
58.718
-153.95
-212.73
51.647
18.354
11.424
-94.003
6.3384
72.779
9.0724
-27.211
59.473
58.195
-3.7787
-41.549
40.024
58.929
18.321
-38.018
1.5299
48.899
22.025
19.647
96.62
191.11
-64.267
-365.81
-175.31
86.461
47.04
-1.3665
-35.437
41.795
40.424
-17.657
-85.222
18.969
79.223
18.181
-32.015
41.201
57.381
2.2347
-40.3
24.057
32.286
-8.3419
-39.955
20.119
25.155
-22.67
-20.695
24.711
7.0811
-33.944
-2.6238
28.139
-4.8626
-33.957
9.8328
23.801
-18.145
-17.664
24.843
8.1651
-29.045
-10.226
24.674
-1.5765
-29.627
5.341
21.675
-16.375
-21.157
23.846
19.642
-15.931
-24.491
26.726
20.625
31.915
117.64
173.16
90.319
-86.524
-241.28
-298.9
-35.826
35.358
-63.209
58.764
65.058
34.897
31.945
0.97355
53.611
-8.1439
12.565
9.4292
46.209
75.45
-73.722
-85.1
-57.532
42.341
12.429
-12.539
-21.035
14.18
18.384
-32.783
20.561
29.85
-4.9609
-28.751
13.089
118.55
-15.201
-12.645
-5.3869
-57.317
-8.6586
59.592
-58.619
-50.214
-16.906
32.718
-6.3425
-54.777
49.664
48.864
-30.939
-9.4665
101.27
165.33
111.68
-53.465
-425.02
64.362
444.57
-184.68
-275.66
-43.323
-48.041
96.248
3.007
-57.638
21.956
83.021
-1.5622
-33.193
54.071
38.436
-49.296
10.702
57.813
-1.1635
-55.293
34.254
50.156
-1.0581
-51.648
14.289
30.967
-24.278
-36.39
31.946
21.861
-28.378
-39.037
37.591
27.651
-20.813
-38.612
27.469
14.911
-41.253
-20.755
35.345
-3.8724
-60.241
6.7448
42.671
-4.8021
-55.913
34.059
53.483
16.306
-50.719
15.303
42.401
-5.1855
-58.26
20.223
42.414
-14.299
-41.272
36.141
37.672
-14.419
-43.197
17.245
27.204
-13.334
-34.629
29.091
18.228
-33.768
-17.181
41.446
18.503
-34.906
-27.545
27.127
9.1602
-38.776
-6.2726
36.913
8.0463
-48.472
-2.2467
44.498
10.259
-40.873
-26.906
33.116
14.367
-41.986
1.2413
47.259
13.035
-42.233
-3.5148
46.724
7.4647
-40.268
6.185
31.3
-0.92605
-47.574
13.987
41.9
-10.632
-41.991
19.155
25.644
-33.352
-26.497
39.082
24.204
-41.616
-15.251
44.853
-2.7532
-46.346
4.4844
30.788
-39.191
-19.37
53.658
0.033009
-41.282
30.084
32.398
-30.099
12.376
44.044
-17.596
-17.8
37.92
-2.6836
-35.995
16.553
31.733
-27.798
-27.854
32.583
18.544
-20.877
-35.945
28.69
15.736
-24.149
-25.949
21.274
12.537
-41.577
-19.296
34.933
16.187
-34.582
-10.214
32.319
-5.3993
-40.087
8.3043
29.243
-30.755
-36.203
44.955
22.728
-29.731
19.161
152.7
-98.887
-135.18
40.38
41.588
-26.757
86.74
131.12
-20.373
-54.834
-57.762
-42.112
-142.99
70.66
16.792
20.264
-54.066
35.278
56.917
-33.768
-37.15
52.839
27.122
-58.786
-5.862
50.481
-5.9259
-52.872
31.267
64.567
-18.41
-53.134
38.196
41.022
-40.559
-18.095
49.886
11.25
-59.036
25.01
35.23
-46.89
-61.094
26.835
49.823
-31.088
-20.061
49.845
15.327
-54.825
11.963
52.168
1.4695
-57.115
16.19
37.352
35.916
-72.843
-28.297
71.155
10.949
-32.491
38.667
34.413
-40.584
-99.025
-1.5689
40.671
-13.155
-38.428
35.547
29.275
-37.641
-53.415
42.592
37.275
-30.253
-35.757
46.565
19.013
-41.831
19.498
68.927
-10.372
-54.983
33.742
37.869
-27.969
-47.123
43.172
31.561
-32.918
-27.717
42.868
27.076
-45.226
-6.0965
22.297
57.732
-93.937
-72.187
38.683
6.1942
-43.93
27.731
44.857
-3.2296
-32.229
21.497
20.144
-55.661
56.275
48.442
6.5335
-11.108
38.352
27.386
102.03
-34.098
-113.9
-86.296
-14.73
211.76
-62.808
64.128
-160.63
5.9352
-105.41
-175.54
81.049
62.382
310.75
83.433
-138.76
-122.59
-143.03
6.7676
60.029
24.38
-8.0694
97.528
-27.485
-202.12
136.18
-116.51
-73.723
-175.63
69.037
278.87
156.7
34.234
65.409
103.03
-133.65
-98.218
8.5965
-21.626
-70.999
-13.794
34.788
-20.552
-67.254
53.775
23.302
-39.924
13.719
41.68
27.65
-20.798
-47.386
34.009
24.191
-4.2529
-23.699
-31.234
8.887
36.99
-9.4864
-1.3601
22.444
10.204
-50.311
-34.26
65.612
-13.557
-56.109
-35.599
70.119
30.901
-57.748
-26.693
43.235
35.166
-54.295
-18.025
51.571
18.39
-15.57
7.5901
42.379
-11.016
-48.397
0.5818
52.26
20.496
-36.036
-7.1686
36.967
2.9542
8.0973
13.982
29.215
0.25087
-55.253
-24.738
16.713
-1.3223
-38.954
-23.054
40.6
3.7481
-76.679
-1.0665
91.092
-33.459
-68.704
11.262
46.201
-30.665
-68.839
18.136
45.227
-7.9231
-11.217
49.928
25.309
-23.156
-23.603
16.251
46.637
-11.404
10.423
30.928
-13.675
-42.089
16.258
25.27
-23.745
-51.797
16.367
15.131
-1.5242
-18.973
23.652
32.246
-13.266
-3.2645
25.686
-4.7136
-52.336
-2.6095
24.806
-11.609
-39.306
19.447
6.0479
-8.7573
-0.40029
47.75
7.4682
-40.345
7.3796
26.749
-15.442
-25.518
25.94
9.8384
-40.53
-12.781
42.549
-12.746
-30.909
36.384
32.922
-40.03
-31.178
48.5
43.211
-27.669
-6.4124
29.931
-8.5391
-42.203
13.471
28.234
-17.67
-45.661
6.6206
7.3358
-19.016
-4.8287
33.474
16.614
-18.191
31.472
30.414
-34.953
-32.015
19.936
-5.353
-58.113
3.4902
19.443
-27.206
19.127
45.277
-23.813
-27.346
32.097
-7.0617
-11.06
38.113
46.323
-22.115
-25.396
35.438
19.272
-22.988
-22.765
44.512
-18.899
-41.26
19.312
-9.2035
7.5099
-77.73
-21.095
9.8397
-29.995
-18.076
45.043
84.478
63.827
69.839
90.681
209.37
70.37
-405.9
-662.72
-180.39
353.92
240.54
59.805
-40.475
14.501
48.356
-15.411
-2.6126
50.239
14.046
-7.8335
34.823
29.214
-11.175
-5.3259
69.426
71.383
-76.871
-7.3719
7.4035
-36.573
-9.6248
12.921
17.175
8.4022
30.147
81.132
52.611
-19.057
-40.653
-46.728
-60.19
-13.157
31.471
-22.142
-33.552
-20.79
-27.549
18.398
31.469
-27.282
-26.569
-19.767
-80.337
-82.777
-200.61
-93.268
57.045
153.49
186.47
-169.01
50.907
52.535
75.627
163.37
127.76
97.469
88.781
-7.0972
-296.38
-157.76
46.577
-27.406
-64.203
-9.9717
74.495
90.703
19.14
30.656
-4.4217
-0.68314
-35.226
-51.606
-24.651
9.2898
-41.302
39.373
38.482
-3.2891
-59.226
-66.546
-54.715
-108.94
56.475
63.741
73.399
24.936
3.1492
100.82
38.347
-30.744
33.438
-11.26
-31.872
30.839
15.856
-5.7326
-77.299
9.3048
8.2593
-38.013
-35.092
21.525
23.407
-15.907
-5.9733
14.151
13.328
-6.8177
6.4283
-1.4099
-42.694
-14.424
24.421
4.1388
-46.386
-5.3324
33.36
14.247
-48.349
-8.7049
30.117
71.644
-43.279
18.2
35.604
-28.515
-15.799
-19.623
47.008
23.324
20.178
-59.932
-13.547
-32.854
-84.27
32.959
116.87
26.384
-89.951
41.566
61.498
-7.5641
-9.5759
159.01
-30.213
-11.922
-112.32
-31.446
101.53
-92.957
-60.824
38.68
92.542
-110.51
-65.293
44.458
108.29
-39.564
-150.78
31.234
107.01
14.935
22.432
-119.16
-39.445
17.139
-67.948
-0.13156
54.016
-7.9591
-60.251
22.467
54.166
40.171
-17.962
64.477
19.672
-24.515
31.251
113.11
-35.774
-67.898
-50.527
15.36
-7.5099
-77.55
130.19
131.75
132.63
21.274
-202.3
-43.52
-115.07
-120.93
159.08
65.117
-7.7314
35.545
-124.91
-138.98
45.979
-72.299
30.06
-59.357
-0.51639
214.41
92.81
-45.673
-151.2
38.444
94.465
14.96
-89.223
56.647
120.3
-48.314
-14.322
33.804
-82.173
-115.53
55.188
52.562
83.87
-159.2
-14.719
13.215
-12.375
31.084
128.65
111.04
-14.046
-61.88
81.708
-102.16
-96.122
70.251
-10.248
-120.46
14.397
70.069
30.988
-62.341
31.442
23.111
-71.256
-31.587
-74.886
-59.346
93.229
-7.7348
128.76
54.745
-215.52
-48.581
4.1779
57.373
-35.307
10.153
72.186
28.686
-34.738
46.33
62.113
105.88
25.255
-3.2436
19.872
-79.86
6.9222
-13.636
56.938
25.011
-54.548
81.42
25.449
-54.857
-179.21
-70.291
21.5
-18.719
39.997
15.43
-20.706
-9.6727
27.065
111.64
12.622
88.383
1.0366
-144.96
28.035
-153.61
-18.171
13.468
-81.89
136.98
44.066
-152.11
-93.191
89.309
11.686
-33.88
29.523
64.924
-17.484
-23.94
43.525
14.28
-27.02
69.098
103.72
181.98
-90.878
-47.362
5.4748
-159.24
-4.1584
63.36
118.59
-61.506
-59.062
28.198
-7.709
6.5644
108.19
56.083
-210.79
-42.914
58.424
57.2
68.655
7.3433
30.795
-203.82
-175.38
-0.54846
57.466
12.083
-17.607
10.136
81.631
135.34
-18.1
-15.469
-32.84
-46.433
-98.555
114.15
-20.805
-95.144
31.652
123.7
-38.314
-66.567
151.29
52.196
-153.72
-59.477
162.84
4.0874
-145.81
-47.606
63.842
201.93
-109.19
-144.1
164.24
112.74
-141.63
21.795
-60.1
-82.763
96.552
59.935
-39.1
-41.653
15.83
-50.007
-84.785
65.429
96.441
35.781
-44.217
-88.039
-76.341
28.406
103.45
-88.739
-73.073
57.129
96.747
35.799
-39.68
105.06
18.399
-131.74
-72.898
-61.454
-14.805
58.815
7.6454
-46.353
39.118
90.374
35.309
-13.373
38.111
-19.83
-29.69
30.153
27.564
-16.868
12.923
28.021
-2.8013
-0.45467
14.053
-34.357
-18.168
8.2272
-39.856
98.043
119.02
-23.018
-76.876
-31.176
5.494
-25.154
-44.112
13.674
-8.5065
24.317
43.403
-21.858
-12.559
-5.2035
-22.729
-23.727
16.062
26.217
-24.666
-19.098
-29.668
11.269
-42.814
27.627
20.834
-65.538
-25.301
15.152
50.786
-41.087
8.2784
41.034
10.571
-14.62
25.16
88.516
-11.527
-98.915
31.934
45.076
-28.038
-49.065
19.678
38.67
-31.285
-21.207
39.861
11.094
-81.256
2.665
56.413
6.008
-56.132
8.5573
47.232
-4.6571
-59.616
26.275
37.796
6.5908
-69.192
-16.068
24.498
62.727
-71.135
-48.622
105.29
49.708
-28.676
-35.195
50.349
21.302
2.5834
-96.091
4.6775
18.507
-20.9
-45.218
8.9887
53.441
39.457
-10.342
7.3472
-1.2691
-28.22
-41.709
-31.222
60.883
-37.68
-51.726
44.021
24.05
-22.085
11.982
94.104
102.7
-2.8735
-60.839
39.168
75.71
51.765
-200.27
-125.36
-51.793
66.413
14.779
22.871
94.836
124.1
-105.52
-19.975
-59.804
-103.57
-24.273
-37.749
166.28
96.951
7.3426
62.016
-63.361
-163.52
3.338
-49.309
28.058
59.919
-64.321
-63.248
52.066
-14.812
-141.91
45.033
85.766
166.75
-106.62
-35.194
52.501
-56.165
10.257
87.728
-11.42
-102.11
67.421
155.36
44.061
-145.63
-83.683
-2.9406
-44.549
3.0449
50.354
-11.364
12.858
55.792
53.232
188.05
29.805
-17.008
-143.26
102.72
-91.596
-55.16
-22.084
-34.456
50.596
-47.738
103.99
-26.546
-190.4
-47.281
144.9
18.711
-166.12
27.684
59.014
2.801
-28.415
149.74
-25.92
19.891
-50.108
-63.325
8.4012
-69.98
-47.715
33.761
97.898
48.243
-60.008
50.125
106.76
3.0543
-89.734
-52.397
33.99
-21.838
85.13
104.25
-217.77
-108.85
33.831
45.605
70.588
-41.405
17.875
92.808
29.267
-131.93
136.06
-71.489
-31.994
90.455
-157.62
-120.96
8.6986
83.387
131
82.809
-74.602
-57.33
9.931
115.41
175.77
-115.38
-83.416
-71.968
45.171
-30.366
34.987
25.638
-143.54
-15.196
-3.578
43.396
-6.5804
95.76
2.8481
-14.481
-157.33
-40.706
-69.235
75.717
210.22
105.4
-112.38
-103.14
-89.677
18.825
95.292
151.91
-149.36
-112.55
47.77
52.121
8.876
6.454
129.23
102.59
77.105
-119.2
-126.23
12.257
-35.939
33.212
-100.45
24.885
-10.645
0.36011
47.073
-92.06
-8.7749
9.8441
81.264
26.119
36.64
121.35
-286.47
-118.68
69.995
179.31
139.58
45.86
-170.65
-137.36
-48.635
56.255
-4.6142
91.689
-32.306
-185.63
-17.669
234.92
-9.7458
-92.734
101.14
109.55
-161.32
-111.86
24.968
-44.251
-59.853
47.92
194.91
116.12
-14.561
-64.14
54.163
-109.3
-23.096
23.446
-0.85666
-36.563
85.556
157.78
-31.069
30.284
-114.01
13.221
-131.37
-48.941
7.3412
42.203
-7.4446
223.65
102.73
-227.71
-49.457
-19.118
61.459
3.2862
111.9
14.897
-65.068
-244.58
-0.89358
9.0778
-25.589
5.6001
137.41
114.34
-59.486
-30.577
-40.612
-138.29
-8.5236
132.35
102.6
173.05
42.72
-265.88
-134.82
83.063
23.866
-16.127
-29.052
38.328
-107.36
-39.686
33.497
80.479
32.766
-30.927
14.12
41.477
168.63
62.82
-142.62
4.8094
-77.688
-65.041
0.044123
28.278
-15.377
20.975
140.08
23.598
-40.072
155.99
-216.48
-34.567
37.095
-148.22
42.494
-44.008
20.221
128.93
-56.876
-65.995
-80.457
44.222
23.813
-9.5513
-11.417
49.529
26.387
-28.224
29.952
99.951
101.28
-78.823
-118.72
-32.083
-28.656
12.959
24.396
-14.702
18.454
33.782
-29.5
-7.0397
52.056
-18.633
0.4426
-2.9041
19.723
128.76
56.528
-70.396
-109.08
30.739
75.45
-48.407
-85.033
11.382
23.253
-28.344
-18.098
31.794
8.2784
-37.452
-12.035
34.858
10.462
-25.243
-2.0333
26.997
-10.979
-19.988
6.7944
47.648
-35.636
127.48
125.58
6.4109
-70.333
-200.04
37.453
-158.57
21.282
202.73
-121.23
-10.173
-86.275
-105.95
-39.714
156.1
210.1
-99.515
-142.84
101.01
-27.462
-47.566
126.84
77.937
-53.45
11.224
-27.985
-107.18
-34.617
87.553
9.7212
146.11
134.05
-151.93
-18.512
9.4822
64.896
-90.07
-83.187
-10.046
-65.185
-3.0254
-40.636
-4.4203
131.97
95.212
-112.47
50.983
-21.339
-53.898
-51.107
32.578
211.71
2.4534
-206.61
31.216
19.7
0.25959
71.703
40.672
-92.982
-89.515
-47.822
-58.735
-4.3973
69.661
54.936
47.78
41.528
334.21
107.22
-402.25
-84.951
-33.243
27.798
21.153
-15.738
0.74624
117.93
77.283
4.1053
96.012
