25.58
228.53
-13.142
-123.55
86.295
-8.004
64.818
-156.41
-40.385
239.66
-197.35
-8.7969
-94.842
111.24
101.84
22.818
-125.23
45.881
92.917
68.964
-317.6
-202.17
192.3
229.49
214.13
116.07
-2.2543
-202.66
-276.2
-219.96
225.19
147.83
-95.521
-5.0567
125.56
-27.944
-149.19
-8.5734
87.866
173.58
127.59
6.2926
9.8443
-219.62
-208.64
8.9821
60.047
41.779
82.228
108.67
58.29
-133.07
-85.786
-50
-7.1339
-54.654
85.656
23.667
55.515
-69.667
-87.663
48.791
-80.663
37.284
48.869
106.48
54.021
75.228
70.52
-65.625
-108.96
-105.49
145.2
47.263
-100.27
1.5872
-122.86
-78.704
43.998
9.4501
58.699
21.251
-23.058
69.073
114.98
-195.9
99.654
-55.855
-248.92
66.768
118.23
100.51
21.218
30.729
80.509
-52.928
-53.58
256.91
-40.626
-287.84
-260.33
2.6692
212.55
81.915
-196.94
-148.45
224.3
142.95
-9.2072
7.8255
-50.033
41.807
-34.349
-2.5714
32.292
44.33
-62.804
-23.065
81.906
-59.967
98.736
22.068
-79.654
132.48
-71.455
-295.34
-13.109
266.95
-12.76
-251.9
121.88
228.55
-30.091
-103.54
-29.815
-21.944
55.088
-33.559
-84.379
-21.052
159.57
168.71
-77.336
-178.66
-81.953
141.7
72.898
-63.524
-114.97
-164.03
-56.806
136.3
224.15
-8.8493
-11.402
-68.018
116.52
96.337
-87.186
-213.11
21.376
39.171
-26.974
-61.607
-0.70649
62.66
69.837
7.4834
10.511
94.774
474.78
-94.204
-428.39
12.898
151.18
-39.253
-310.29
127.8
88.775
-155.7
-149.29
-52.673
133.26
85.929
61.288
5.6908
-10.707
-86.42
70.401
243.13
-108.73
-219.48
-95.583
99.926
166.78
56.362
-23.8
6.1333
-4.5513
-158.98
-93.994
27.822
-46.116
-44.998
67.042
68.153
-0.17744
58.322
92.057
15.952
-26.301
39.003
-1.5853
-36.678
21.307
21.105
-38.726
-0.19459
20.76
-24.983
-41.174
9.3052
2.2514
-20.912
15.693
10.803
-15.92
8.8011
7.1326
-15.217
-0.050447
8.08
-16.186
-8.0048
12.519
-10.817
-13.139
11.964
-7.8251
-15.513
12.436
-2.659
-21.741
12.429
12.568
-22.855
0.68376
23.399
-6.5384
-19.407
22.077
42.691
91.203
-57.418
-24.328
0.32629
-67.645
-65.736
4.9544
18.042
-34.306
-10.006
52.826
38.061
20.4
-16.387
12.541
37.709
17.612
-5.2835
-22.447
17.335
12.563
-6.567
-18.663
9.8294
6.814
-6.3222
-21.474
6.7853
10.461
-5.7483
-17.738
4.1294
8.9914
-12.106
-11.69
12.006
3.2037
-23.27
6.3985
20.314
1.8131
-27.365
6.5174
23.358
7.0492
-22.419
-6.3103
21.886
10.489
-13.86
-10.664
16.725
12.44
2.4533
42.425
140.67
75.96
-39.053
-31.945
131.33
-128.62
-181.19
39.18
-126.1
-202.37
18.994
104.95
-85.188
-14.097
-10.03
-41.296
-5.4021
56.53
27.168
44.638
98.706
42.546
-45.572
6.4914
79.652
24.377
-34.648
9.9069
29.079
-23.302
-19.739
30.322
0.49644
-36.815
8.0033
20.159
-26.153
-18.912
20.519
-0.40528
-24.3
-10.171
6.5724
-34.328
-22.975
-11.597
-12.975
63.087
194.17
81.26
-318.96
81.744
172.48
51.636
170.93
-206.78
-265.32
-257.09
27.558
113.06
87.769
60.818
-5.212
-62.828
-0.99911
36.828
-64.368
-3.8195
124.53
-45.742
-74.753
53.249
61.047
4.5627
-77.123
119.58
98.541
-139.76
-91.634
4.6442
99.957
-33.376
29.577
120.64
-56.953
-45.322
-45.429
105.78
-8.6451
-136.61
-29.613
66.211
-0.7015
-54.55
-69.548
-12.567
157.23
-10.858
-99.734
53.315
18.993
-47.556
-0.2128
84.017
86.721
134.44
12.516
72.16
-27.407
-185.93
-65.092
-23.318
178.31
-160.25
68.113
107.64
-259.22
-137.37
36.931
36.418
125.06
-134.3
-7.0272
42.02
68.427
141.66
13.637
-46.296
-60.021
-27.637
67.458
144.36
-209.04
-214.86
143.02
154.29
-156.42
-52.302
175.66
-199.9
22.692
112.17
-36.713
251.37
-62.766
-132.74
32.353
-20.495
64.198
-63.902
80.256
19.699
130.82
117.93
-218.16
-253.74
-215.19
-35.178
179.58
139.39
101.81
-97.24
-197.64
198.5
109.28
-88.128
-88.488
29.851
14.061
13.571
-124.74
45.927
167.05
-66.544
156.69
25.206
-152.33
-22.402
70.81
-2.3293
156.78
127.8
-88.535
-98.864
-163.5
-24.038
78.884
117.89
58.594
-44.281
-266.33
-223.38
194.9
174.19
-10.925
-44.026
36.147
-61.873
209.86
-75.344
-201.42
8.2021
179.94
-150.59
48.112
162.81
-265.9
159.92
195.61
-213.83
-180.39
-183.16
83.647
240.06
-111.98
-23.086
166.06
256.56
-173.48
-404.34
18.894
254.3
136.93
-0.99
-9.0661
236.32
30.028
-25.882
103.37
-278.07
-86.41
-91.158
-236.06
-7.2499
181.99
88.253
-30.34
-92.809
110.32
55.531
142.73
136.59
-269.14
-178.81
-173.53
53.333
186.59
203.53
-136.93
-38.406
102.74
-31.365
-44.267
-6.4349
-20.763
-20.464
-127.32
-48.692
185.79
16.387
-80.853
-21.416
25.398
95.175
101.13
31.161
-120.86
-20.941
129.39
65.648
16.905
-96.09
51.127
-151.67
-190.55
49.491
25.491
84.42
12.576
-0.15832
50.11
42.044
34.36
121.52
-101.81
-59.291
-76.675
-52.337
61.953
26.177
74.731
34.946
123.63
-200.11
-105.95
-71.235
50.058
63.08
-46.707
-55.467
77.221
72.549
-97.124
-42.709
44.597
49.58
48.839
-27.157
128.01
58.643
-131.33
-57.904
-28.197
12.437
-15.75
23.172
-34.797
33.22
7.5373
54.273
44.543
-98.852
-57.911
28.579
5.475
-51.954
-18.411
50.753
108.85
-72.671
-71.635
49.687
-56.997
-16.225
-20.947
60.025
18.775
14.28
24.306
13.158
23.365
75.915
90.385
-170.12
-29.466
98.236
-39.701
-81.662
-138.69
-7.0244
44.33
-42.608
-84.524
76.789
66.142
135.52
-55.985
0.892
126.7
-27.215
-37.701
-24.801
85.839
94.182
9.0875
-156.69
-16.856
77.944
84.893
17.165
-139.74
-128.06
32.153
-12.465
-10.084
-112.48
95.97
173.54
-203.24
-57.915
-56.547
103.49
40.585
223.24
54.936
-206.45
-243.77
-84.222
20.709
6.5354
130.29
22.832
414.81
109.02
-264.88
-116.61
-64.078
89.41
-32.529
-241.03
64.677
141.43
146.17
180.16
-259.04
-135.2
207.16
68.234
-66.955
-123.64
-13.832
-13.438
23.031
4.5925
129.29
-64.997
-319.01
123.18
81.209
112.3
110.85
-104.11
-95.709
-60.009
-24.98
124.49
26.379
53.461
78.514
134.4
-274.73
-271.74
-204.36
59.435
186.83
234.26
45.525
-23.412
76.126
-25.312
-124.84
-123.9
101.32
136.77
109.67
-224.89
-55.99
114.72
114.31
51.907
-222.35
-9.5122
50.978
64.127
16.507
81.003
62.004
-36.212
20.461
-195.73
-125.41
34.541
13.063
60.043
118.57
90.399
-143.19
-207.2
45.024
128.68
131.71
-88.473
-6.6625
-109.69
-160.69
-230.1
34.91
246.65
143.81
-101.66
59.931
28.016
5.8115
27.039
63.946
-50.288
-26.803
10.966
-50.89
125.53
16.921
-157.58
87.22
142.15
-130.03
-70.078
31.563
111.85
-20.174
-78.282
-14.683
-21.672
106.31
3.9872
-26.506
-178.47
-61.071
116.88
38.292
13.427
-53.623
-41.354
51.334
-17.478
160.69
-8.8943
-139.01
-23.962
-57.361
167.52
-122.95
6.645
-8.4187
-15.113
41.281
98.486
-138.52
30.216
102.79
75.538
-118.77
-16.595
-14.067
9.5433
-154.97
-92.512
220.42
168.65
97.199
-203.88
141.7
23.581
-166.18
11.459
-58.954
97.424
7.978
52.666
-15.098
-154.77
-231.62
107.24
97.838
125.44
157.8
-26.494
-176.75
-37.91
-8.6639
-10.855
-26.39
42.449
77.431
228.94
-142.4
-337.84
-90.349
121.88
109.51
64.055
74.546
131.16
-169.97
-101.98
139.32
152.68
-1.0397
22.261
-17.521
-258.67
3.9288
22.454
96.855
28.109
-51.473
-163.53
-45.388
21.292
68.642
41.76
-40.275
-31.268
163.26
50.089
-179
-0.78624
162.24
117.1
-95.274
-120.61
-114.55
-11.34
10.534
-8.4031
45.036
143.05
-134.51
-136.63
51.969
76.636
120.77
-37.702
117.12
193.09
-131.58
-168.79
47.217
10.18
-49.162
-90.547
-158.35
48.539
46.835
13.475
55.353
61.799
129.7
29.986
-4.2901
20.254
-45.115
-141.56
-112.94
56.958
86.073
15.475
8.9245
126.24
120.72
-80.327
-101.8
-20.375
-19.696
63.894
-111.28
-44.509
28.591
-69.155
-24.026
135.18
-44.284
-183.28
8.6634
56.499
89.629
68.461
37.339
-261.72
17.963
63.207
-125.5
93.105
190.3
-20.727
-108.74
-23.924
155.77
185.61
-47.932
-188.04
-93.378
131.21
63.804
-232.47
-129.23
66.877
10.287
202.64
181.96
-107.98
80.893
-19.203
-232.6
-97.549
154.49
0.99946
67.992
64.841
-141.44
32.123
187.8
-142.39
-107.67
46.388
-118.04
146.03
32.227
-83.179
-59.13
-59.917
-14.934
36.841
113.08
108.3
-120.9
-206.18
-53.324
71.937
42.865
224.27
101.9
-234.46
-78.538
66.853
116.69
94.515
-18.254
65.28
34.324
76.158
135.4
-141.49
-156.94
111.59
-181.77
-364.26
10.202
185.53
257.23
38.632
-145.06
-29.626
1.3707
-165
64.771
87.19
-42.604
128.34
-117.65
32.892
32.38
-219.5
-133.1
174.29
143.38
-183.3
-144.94
78.07
48.312
139.31
130.13
34.34
-25.449
51.063
3.0963
-87.353
52.118
-112.38
93.507
19.998
72.363
17.866
-118
-22.486
-60.939
113.81
-59.743
-15.91
13.327
-73.028
-94.979
148.27
-14.644
-313.57
24.354
90.253
156.98
38.562
4.0936
27.474
-28.676
48.043
159.77
-27.221
-147.85
-44.678
19.091
217.49
37.036
33.009
-59.451
-194
-27.963
-116.28
-214.09
29.401
137.23
75.503
71.128
0.73355
-38.372
4.9039
-8.1244
-8.6917
145.64
-0.6717
-35.062
-106.4
13.843
108.82
-31.74
-37.508
-57.409
30.13
38.792
-29.284
5.578
35.187
31.208
-37.244
117.06
73.565
-117.9
-20.979
-34.724
-34.64
33.581
8.4821
-0.1022
-27.131
88.433
54.207
-305.31
-18.539
58.214
-7.7471
-51.829
28.273
57.639
33.172
17.772
210.07
111.72
-26.707
-10.562
28.313
-65.255
-177.43
-177.43
-6.4755
203.63
31.593
-168.87
144.95
89.273
-76.799
-187.09
-87.556
111.14
136.4
-66.646
-7.7592
-95.238
69.407
56.798
-42.221
-65.395
105.35
75.828
-178.26
73.499
27.065
25.36
-95.78
-177.77
8.6624
134.13
-164.39
57.104
161.49
279.46
-121.14
-94.259
187.87
-124.13
15.192
-40.318
-114.39
157.67
119.96
-225.97
-240.49
73.246
200.17
-28.291
-178.09
-40.35
79.028
160.63
-4.6006
-17.814
-120.32
-5.8198
159.97
204.32
185.07
-45.284
-200.88
-107.88
-120.87
-58.069
71.416
24.664
-11.165
13.507
28.478
90.45
94.158
-164.26
-142.29
102.45
-164.19
-67.05
85.403
22.963
50.434
82.253
111.42
-3.8281
-20.683
102.77
-68.888
-230.18
69.659
137.08
12.007
-93.241
-59.215
-4.7631
-9.1126
6.965
-30.596
97.976
182.12
65.967
-28.313
-174.36
-247.25
36.06
82.864
221.84
258.1
-125.53
-327.99
-217.93
9.5491
191.48
115.91
-64.114
-194.56
32.401
134.11
157.39
-75.113
-144.33
93.775
147.68
111.79
-77.926
-272.61
-154.5
22.575
66.353
92.19
79.642
37.18
8.843
-29.209
-14.15
-26.15
-43.667
-36.687
42.915
-33.323
-101.02
16.206
42.868
10.026
27.657
208.7
98.725
-52.325
-124.57
-43.047
-28.209
-30.419
89.143
17.632
-111.96
-54.824
-52.86
120.51
140.93
41.59
-73.749
108.44
-54.979
-40.479
19.187
20.865
98.08
-68.816
-200.11
-6.149
3.8321
-26.959
-0.11902
74.581
-35.08
20.811
26.426
11.777
11.441
-85.542
-12.168
42.213
-23.161
129.41
8.0652
24.106
4.1928
-59.983
-60.394
-84.444
-265.22
183.28
274.05
-76.162
-218.81
-92.091
150.66
32.226
85.438
238.26
-160.1
-60.807
39.199
3.697
-57.348
-202.33
55.709
126.43
-56.84
-46.635
74.174
8.9936
-28.328
126.25
36.002
102.81
201.33
1.9182
-244.84
-153.87
-6.1674
149.54
-25.04
54.686
31.098
-63.573
-87.487
14.245
-36.937
-49.288
33.703
-4.7544
29.082
-12.348
-37.778
-91.861
-29.32
147.37
10.034
3.767
-53.985
3.0016
93.294
-53.019
-67.014
159.06
-59.181
-88.622
87.567
-81.096
153.06
-98.792
-326.59
-68.666
321.24
224.02
-77.533
-50.429
-106.69
22.595
1.41
80.036
211.36
-0.8044
-200.76
-103.81
27.872
161.34
-3.4484
-144.92
-40.707
52.332
156.77
-72.249
-74.63
52.953
-4.012
152.16
158.55
44.643
-328.79
-325.45
-69.816
32.804
152.31
107.51
52.675
-18.999
46.274
-16.657
-100.12
-126.83
25.159
18.994
-21.684
10.837
44.576
142.4
26.047
-110.48
39.216
132.81
169.76
-64.526
-81.239
-138.58
-53.222
-70.578
-125.48
82.088
91.828
81.87
15.559
57.365
47.241
-45.233
116.17
105.76
-151.36
-178.6
-10.099
-86.582
-33.15
202.88
-49.722
-199.4
-72.802
135.95
134.09
186.18
61.798
26.469
-160.99
-349.87
-37.315
163.01
222.97
94.724
-158.69
-216.97
75.811
174.51
193.35
-47.75
-82.616
-79.032
-135.69
-148.41
-25.554
83.326
20.326
-2.4769
34.547
67.915
83.876
89.38
269.99
117.39
-155.92
-250.04
-162.22
12.101
1.9614
-124.54
-46.384
48.801
66.755
133.81
26.129
12.208
-120.39
-54.307
-115.13
170.07
215.76
56.125
-151.45
-189.94
83.881
3.1724
-10.35
-11.932
-16.712
-0.87187
54.876
157.48
-4.3578
-164.36
107.44
-118.01
-19.693
82.962
9.2959
-13.576
-205.38
3.8579
138.02
-73.305
-70.41
37.909
54.135
99.573
-0.17006
11.285
38.298
-27.028
-101.75
86.954
89.508
-103.48
42.321
-50.251
12.979
73.085
-48.637
145.03
23.88
-122.39
-60.28
0.50941
19.796
0.645
-33.416
-46.999
33.102
61.348
40.499
-48.005
29.177
-41.418
-100.97
4.7619
26.387
63.995
-12.888
-105.88
57.81
130.78
79.728
-156.52
23.201
39.745
-12.542
-78.066
57.409
-9.0336
-40.059
-7.5813
74.357
-35.446
169.58
-155.02
-47.349
143.71
-150.93
-51.553
-81.77
69.775
34.907
-80.085
-297.63
70.741
86.786
126.46
10.718
-37.8
95.109
106.27
15.308
-50.14
32.627
-13.484
-7.6335
108.65
137.07
-146.99
-85.23
-97.154
8.0581
146.5
318.94
21.03
-133.41
-203.95
4.6554
-39.608
-115.05
113.7
0.78795
-145.06
-2.6635
39.757
56.084
-28.19
-106.56
-50.018
120.92
69.268
-38.184
-53.222
-64.994
-56.455
-85.938
73.354
-19.553
-30.513
76.323
112.71
152.09
1.431
118.13
61.98
-17.584
-91.475
-157.77
-64.676
53.829
-38.128
105.91
-111.8
150.47
-60.877
-120.71
43.766
-6.6785
-124.78
2.8378
126.15
150.17
60.111
-112.33
64.98
32.775
-184.29
35.593
-0.45311
-112.27
-43.894
51.407
63.208
316.22
129.64
-383.52
-40.232
55.921
-59.947
-131.21
190.98
113.55
-83.534
-112.7
41.077
66.922
-52.943
-43.956
57.636
44.268
-14.746
-128.08
-29.364
1.9279
-1.4889
-5.1989
74.65
43.999
-1.2556
-11.683
75.508
86.074
-74.108
-71.056
83.724
89.759
-97.193
-170.54
13.229
116.72
44.235
-102.03
109.87
146.21
125.92
-90.745
-228.16
-31.394
-75.129
-35.683
-22.94
27.075
-80.36
-45.117
155.27
110.98
17.031
75.209
-158.99
-75.615
37.027
-128.32
152.88
23.724
-140.95
-137.52
27.166
128.59
84.401
-22.611
-13.139
-57.57
23.673
21.937
304.12
119.68
-193.98
-99.936
-85.294
-26.478
60.335
33.443
-121.77
-7.2636
71.502
-1.5528
114.17
78.631
115.41
-112.78
-121.32
68.272
87.186
98.732
-259.76
-192.8
53.132
89.915
-23.603
57.945
68.367
-74.802
-74.733
-3.9112
20.818
62.224
0.22957
14.187
36.962
42.349
36.377
-137.45
-69.969
41.229
-70.599
-67.537
-139.53
9.3727
5.6299
13.732
103.43
66.427
-12.164
-19.776
65.348
82.887
0.29681
-4.8222
82.751
64.495
33.446
38.721
39.839
28.348
-35.835
-184.17
-86.644
-4.6523
68.946
-2.408
-3.5849
41.723
-12.146
-93.949
-86.219
18.485
26.009
82.272
121.12
-9.0802
-97.341
-16.904
-50.297
-33.809
145.83
-127.99
-79.094
145.08
59.706
1.476
20.227
-162.33
-29.864
32.239
-98.592
-129.54
29.739
82.255
128.51
27.868
24.195
244.74
-84.362
-165.18
15.146
225.94
80.241
-274.53
-9.5211
-0.34429
-108.7
-55.949
115.48
104.56
-42.06
-146.49
-12.247
-61.698
18.014
39.674
114.12
151.49
-10.472
10.135
11.003
-234.88
-84.821
31.325
67.645
80.564
43.578
-19.158
0.011426
61.033
-37.846
4.9774
11.406
-25.967
-79.478
-14.913
87.046
-90.35
-140.7
-14.787
76.703
60.242
45.522
-67.666
-36.211
52.196
13.727
55.763
55.73
102.22
-74.367
-68.149
29.345
124.07
-121.04
-86.795
196.57
-39.295
-81.517
-104.2
33.302
-4.5725
-43.932
-59.189
-1.2411
62.84
100.55
95.767
-79.253
-76.451
57.214
28.019
-78.566
-4.0303
-50.881
-22.586
-3.7827
108.11
57.721
70.528
-88.66
-49.942
-10.675
-27.715
-39.863
147.69
134.65
-88.728
-22.802
-52.412
-78.108
27.948
-30.156
-17.176
64.659
-13.251
-159.87
8.9064
57.177
131.28
117.87
-76.71
68.831
-141.73
-41.809
238.5
101.25
-164.58
-96.801
30.624
-115.27
9.4723
19.889
4.4319
131.9
92.35
-166.74
-55.819
-172.98
0.61216
160.68
125.42
-104.54
3.1589
-42.417
-52.406
-77.152
-40.529
144.04
-25.71
-71.899
171.38
111.17
-105.35
-197.06
52.032
72.485
278.97
27.844
-230.27
-56.693
71.503
-184.18
-60.826
88.2
54.358
92.241
47.442
-43.475
160.68
10.43
-357.62
-44.071
87.43
65.08
-5.1162
10.543
105.47
51.294
64.032
-10.28
54.662
-101.74
-68.413
9.9747
48.445
-53.256
9.7411
48.832
-75.538
-15.917
4.6819
7.1359
-12.376
27.719
151.47
-86.343
-108.55
-11.621
-33.559
55.115
-0.74521
-7.8297
-21.926
12.625
-9.5739
-43.691
-4.1147
37.438
75.91
-20.075
-39.628
37.548
28.096
-25.32
-57.175
-4.0609
37.361
-60.554
-123.46
2.7196
30.825
85.464
10.391
-21.114
55.378
-17.343
-22.094
-8.6789
-23.793
181.54
23.086
-121.16
-2.2016
171.5
-74.384
-60.144
74.807
-93.703
-57.178
-6.7861
-26.024
173.05
265.69
-160.02
-93.294
-199.07
-48.325
107
21.952
38.585
-130.1
-71.184
-24.117
106.45
180.48
32.309
-41.925
36.068
53.881
-162.07
-31.632
45.997
-87.755
-43.849
87.343
12.408
14.53
-71.223
-41.32
14.108
111.04
137.22
15.76
-195.82
-150.99
79.261
10.184
54.334
54.867
375.26
-177.57
-236.29
-18.426
-75.134
-16.67
183.89
12.244
-50.468
93.89
-89.58
14.457
-41.642
35.501
3.4731
32.796
4.2205
0.70507
-39.872
-65.291
-17.315
-53.951
-41.887
-35.874
53.42
139.35
216.03
-3.0813
-230.65
-61.149
-137.33
144.87
-48.201
18.525
52.775
123.29
238.59
-179.96
-114.16
-11.573
0.42833
-3.5076
33.371
30.635
-91.612
-119.84
-9.8835
117.1
18.886
95.612
130.23
-180.85
-43.154
-35.104
-40.452
13.821
-67.702
62.287
85.284
-112.81
-103.39
105.59
75.667
35.78
16.861
42.081
-116.47
-57.603
-23.825
124.75
245.3
-49.13
-109.16
59.306
37.377
-116.53
20.886
26.35
-167.83
-50.035
-24.154
107.37
42.99
51.873
-117.87
-103.53
55.843
105.79
-18.023
3.6396
135.22
36.678
-164.74
-55.64
193.79
14.189
-163.49
-34.124
124.58
127.62
-35.226
-185.39
20.911
109.19
-43.265
-89.174
-91.026
-101.23
77.215
36.631
117.15
-110.34
-90.822
-7.5356
27.895
165.13
95.959
-58.346
-116.94
25.471
75.778
-46.763
57.153
30.425
-75.755
-57.296
-27.02
110.3
90.255
27.098
-231.83
-37.085
57.846
-8.2606
24.42
35.472
-31.133
-15.131
-9.979
160.61
42.22
-72.041
-76.235
10.327
53.946
17.365
113.1
40.812
-66.862
-38.032
-80.822
6.7976
58.979
122.22
32.606
34.639
-511.41
-496.34
486.21
219.76
195.75
-54.984
-104.06
-119.16
37.728
12.343
-83.1
-91.482
166.15
12.005
-129.32
-54.977
27.29
229.27
118.66
23.773
-92.316
49.043
-183.81
-30.313
196.45
56.843
-154.29
-190.34
-35.068
86.792
98.376
122.8
-2.46
-1.9342
-85.038
-31.508
97.403
151.64
11.046
-310.56
-45.344
-5.6815
37.356
3.0844
-9.2134
88.975
343.96
325.35
-383.86
-279.43
130.53
-222.61
-170.35
34.758
146.83
73.146
52.303
-7.2798
-17.541
13.093
17.599
-58.546
-84.916
39.211
-29.238
75.286
8.2995
51.412
175.84
81.793
-240.44
-246.26
11.911
77.526
175.55
133.99
-96.1
-50.685
-71.645
73.504
101.35
-67.169
-234.96
-185.67
-6.2992
92.596
103.92
54.794
36.472
70.683
-26.029
-57.084
-119.26
122.27
337.32
-232.06
-178.2
56.271
114.37
138.49
-101.43
-123.98
10.703
39.367
-2.1876
-24.455
13.325
19.64
-32.741
-3.6528
-46.494
-24.079
57.25
27.088
60.39
-68.156
10.173
32.294
-33.552
-33.053
5.612
-7.4041
-12.172
21.749
6.8246
-16.641
11.871
11.367
-22.213
5.5713
11.877
-20.151
11.075
17.21
-29.338
0.69128
18.742
-14.784
1.0484
25.944
31.951
79.638
44.05
-7.5699
-7.2362
-92.285
-153.35
57.394
57.106
-41.58
-23.353
3.6651
-6.8374
-17.429
23.075
35.234
-2.9759
-16.599
21.775
19.651
-26.587
-1.5917
30.423
13.24
-36.589
-20.884
35.223
13.776
-6.9104
98.074
163.58
-76.043
-247.09
-118.41
-9.0396
56.99
31.958
-10.083
35.161
62.973
19.245
-13.203
30.114
32.44
-3.2543
-16.367
30.401
8.8465
-17.024
-20.363
16.848
4.1073
-19.716
-5.7432
10.266
-8.9307
-19.582
5.8873
10.857
-14.91
-14.751
9.5723
3.174
-15.982
-5.0137
10.529
-7.1759
-15.259
7.1798
10.413
-15.4
-13.671
17.726
10.367
-21.965
-0.092453
17.08
97.67
86.787
42.69
264.18
26.399
-253.08
-439.86
52.312
150.26
-116.45
-112.3
90.277
220.59
136.14
-138.83
-173.37
-189.77
1.389
122.67
-26.643
98.669
41.32
-32.238
-2.717
-45.171
13.474
-24.516
14.347
79.039
-64.853
-1.4009
85.946
17.316
-80.138
-43.916
67.202
6.7451
-152.86
-0.27691
72.267
-21.141
55.192
88.923
262.09
-103.69
-273.38
83.879
-46.403
-80.437
102.1
187.47
16.916
-120.42
-196.08
129.66
-24.592
-29.178
70.758
46.157
56.574
79.691
-129.22
-27.604
-85.265
-24.943
-79.236
77.839
73.382
109.82
173.85
-41.982
-96.764
2.8676
-29.754
6.6966
36.695
-7.0655
12.358
-40.786
-90.822
-123.11
-15.261
78.327
-103.81
88.037
-86.94
124.96
-30.868
3.4738
60.721
84.102
23.741
-175.69
5.8865
-122.57
200.41
-110.83
43.509
218.83
206.15
-140.92
-205.36
-47.215
-33.776
-52.386
-112.94
3.8902
33.081
21.009
-4.6285
-21.102
111.45
40.659
125.68
13.43
5.4312
-0.063819
20.553
-36.545
32.296
-144.52
34.327
46.331
-117.66
-138.84
29.742
38.973
95.786
-23.57
76.32
112.75
52.17
-195.4
-111.46
166.48
116.56
-162.47
-161.6
88.654
26.351
41.573
-3.5127
20.661
70.129
-74.243
-172.99
-73.815
-30.293
134.22
31.413
69.449
3.9932
91.012
77.904
-282.3
-116.49
147.85
203.93
19.432
38.258
14.362
-24.561
36.293
-1.2577
93.012
2.6641
-479.47
-145.65
251.83
41.754
103.05
-28.401
-112.38
-6.8132
-96.168
5.0023
77.325
250.5
272.64
-158.2
-265.2
-309.22
-101.07
267.79
104.6
-124.54
145.35
89.813
-104.54
-134.76
22.413
178.53
190.53
61.465
-257.51
-34.52
65.965
-55.143
57.042
92.662
-64.981
-23.844
-16.894
111.65
14.048
-211.11
-20.517
57.563
28.852
18.591
-9.5483
-171.34
-56.719
33.264
100.04
57.853
99.369
72.105
-47.233
-38.732
-75.372
-76.214
133.72
205.84
29.119
-191.97
-285.32
64.025
95.647
15.085
2.4751
-11.772
164.61
-162.75
-134.82
46.376
230.33
302.95
-391.04
-372.17
-26.795
88.673
47.14
85.336
-2.4648
24.838
76.985
48.701
-13.977
-12.303
67.515
36.821
79.634
65.012
-37.776
-2.3106
-106.85
-8.2609
58.583
16.161
14.033
-3.6519
11.69
-19.922
-140.11
-54.288
-27.44
-4.5242
4.9904
58.483
31.835
19.333
117.44
-162.95
-267.82
-38.819
33.298
122.53
41.467
30.309
-80.913
91.505
87.756
35.738
-53.122
-105.1
57.585
26.591
13.456
27.696
-36.141
11.895
19.744
57.582
36.179
-108.13
27.605
-17.126
14.679
67.404
33.443
151.22
-117.13
-82.296
11.15
1.9977
-55.725
-41.435
16.327
10.644
-15.652
-44.632
-6.3153
4.7921
26.559
-3.3605
-17.961
-3.0848
113.06
41.301
10.499
-198.89
-0.55037
161.6
-15.13
-262.79
86.747
113.19
-43.013
-161.8
-35.967
104.44
100.94
4.2234
-26.218
154.9
42.317
-144.54
67.068
-184.21
123.21
-0.025759
-48.134
-56.03
73.413
88.923
108.07
-80.332
-369.07
235.54
149.67
-166.39
-79.726
114.91
153.22
-46.983
-87.802
-23.958
-38.861
83.639
3.7518
2.7744
160.54
43.301
-186.91
-51.057
-83.661
136.85
-94.441
-93.085
23.153
61.515
-48.181
69.447
127.18
-195.77
101.68
85.534
112.39
-61.086
-160.48
-9.6421
-5.9012
-92.379
154.83
56.013
-177.21
-22.319
109.32
98.274
102.8
-176.31
8.5814
19.28
-69.058
-107.37
-185.97
216.31
35.739
-53.477
5.1181
-51.784
95.16
81.792
50.889
14.284
36.411
89.259
95.126
-9.4348
-142.74
-61.428
34.642
19.246
-84.499
-109.9
89.618
-3.6989
-52.822
-90.403
36.971
89.708
-54.835
27.658
-127.05
72.267
89.524
-34.81
8.0121
56.72
-124.39
48.935
-99.452
-15.054
-14.33
8.0015
-79.252
0.047309
246.54
65.02
-78.195
-100.52
65.758
133.13
90.569
4.2112
-215.58
-6.1005
103.16
-50.197
-114.22
22.731
-60.385
61.476
90.01
30.685
-27.609
-9.3046
125.77
-21.276
-95.715
-19.848
213.08
202.14
-160.89
-290.28
-11.728
-23.737
3.7669
212.08
92.566
-78.8
-144.22
7.7074
-78.38
-46.027
-44.1
-16.884
35.39
33.603
75.306
85.596
-28.755
-169.1
-111.84
43.732
3.6491
-15.765
63.844
96.611
166.07
160.62
-114.24
-466.16
104.38
328.22
75.679
-98.434
-20.528
-86.894
-55.694
183.76
9.9976
-74.46
18.909
-55.131
-50.567
-95.116
9.2286
55.314
73.634
-118.38
-187.76
78.959
103.4
118.57
42.902
93.688
71.484
-11.569
77.59
-240.44
-102.7
-88.504
-126.27
43.29
175.69
342.62
-49.93
-175.25
-132.58
-231.43
128.82
210.01
190.02
-154.11
-130.47
36.817
112.93
104.11
-218.19
-55.18
180.08
-18.334
-46.886
-13.233
-15.472
80.447
-80.699
-178.5
-189.34
51.439
107.42
91.491
55.725
14.107
144.24
211.59
-306.92
-242.56
148.27
206.17
33.72
-117.01
-68.558
55.959
-2.4909
-115.08
-23.318
107.52
23.582
-54.928
32.847
50.283
94.705
53.8
113.54
-137.3
-250.14
30.527
-45.355
18.8
13.365
-117.04
-61.1
36.915
105.09
53.861
118.28
225.52
-119.8
-273.4
-56.395
6.4915
203.31
119.29
-184.64
-82.475
-14.289
124.44
-22.953
12.754
70.132
16.505
8.5875
78.913
-100.81
-73.348
-121.77
-171.93
-73.371
172.33
47.016
54.454
24.674
-10.645
-3.8157
-83.035
37.805
79.463
197.49
-84.069
-7.2292
171.18
-77.928
-112.16
-132.91
-81.821
19.108
-37.198
71.904
58.256
41.05
124.64
-38.382
-109
-53.728
59.788
86.197
2.4826
31.676
24.691
-39.397
43.392
-116.29
-13.396
56.252
116.19
133.09
28.553
59.368
-150.18
-246.19
-115.6
17.161
-5.662
53.598
-14.181
-5.4609
-281.17
9.3276
73.884
307.87
123.32
-267.84
-148.45
150.16
70.648
41.94
-93.967
110.67
91.103
-80.777
-38.71
89.484
44.565
33.355
52.351
-278.26
-276.39
99.107
151.93
65.628
79.673
76.732
28.82
-66.319
-63.384
10.647
-41.337
-199.34
33.3
142.31
94.582
-69.817
47.107
43.531
147.09
10.241
69.763
-159.66
-185.95
79.245
62.406
-71.709
-195.47
51.648
13.561
-90.215
-19.348
315.21
63.889
-202.99
-155.48
40.034
15.709
-29.529
-67.893
16.468
56.228
196.24
37.079
-240.67
5.1797
110.42
70.275
8.0403
166.02
-117.98
-100.42
32.994
-92.134
42.78
23.181
3.528
-4.9981
123.3
-29.206
4.9427
91.151
-166.25
-134.01
126.95
65.437
34.972
-79.197
-177.11
-54.584
-10.075
45.601
80.411
-14.977
109.21
12.208
-16.542
-4.5133
-37.124
98.898
96.691
-41.29
-127.23
-36.23
133.61
-26.973
-90.013
2.1046
36.888
30.903
18.047
-35.269
-3.3219
34.212
20.935
101.39
-116.45
-47.851
22.334
-12.76
-91.781
-12.2
5.0397
70.245
84.557
0.70466
-107.37
-3.2611
7.2478
-44.311
111.16
1.7285
15.079
120.35
-198.74
-211.55
165.95
101.59
-131.43
-19.493
40.496
91.99
-35.979
168.62
-70.689
-52.859
0.57883
-15.829
-232.14
-105.89
151.37
230.35
-84.277
-80.691
91.311
16.778
49.69
3.3234
-32.476
141.37
-15.095
-40
-125.32
99.283
277.52
19.031
-61.954
-128.26
-317.76
-51.333
62.432
-74.649
22.741
85.406
28.765
99.155
-2.2327
-99.157
-10.121
94.649
-77.792
-155.46
14.865
-94.607
-58.011
61.017
375.62
373.43
-215.48
-403.7
13.506
241.79
-41.005
-182.25
117.87
69.436
-131.2
-17.293
32.37
10.527
-7.0748
-79.356
66.346
213.95
-24.525
-146.15
25.605
-72.406
-4.0393
45.739
95.472
39.081
-34.219
44.375
35.987
121.69
-25.767
-171.97
-121.13
-67.065
25.82
62.731
-74.913
-136.38
-78.123
53.261
97.686
216.43
-65
1.3142
160.93
141.83
-163.85
-64.861
129.11
-33.269
-114.65
-43.033
-14.19
-81.763
-8.9871
-23.862
6.5164
12.242
59.531
-219.08
-87.337
176.59
198.27
-18.771
-38.637
38.837
14.894
118.33
42.356
-276.14
48.67
165.86
-188.59
-78.282
198.11
27.478
-48.761
104.25
52.802
-188.01
-151.49
40.357
10.361
-21.141
183.66
60.973
-189.59
49.124
241.47
-9.939
-136.93
-255.27
-57.691
272.11
53.862
-49.041
-175.46
-93.205
-11.834
-13.498
69.588
129.89
171.79
148.42
61.99
-196.16
35.913
-103.26
81.867
80.265
-118.26
-70.07
-121.45
150.41
10.503
-45.915
106.92
-260.73
19.343
161.18
36.452
-242.48
55.737
75.845
-55.727
-86.313
120.01
21.361
-79.615
21.215
-53.949
-16.25
257.27
-67.331
-151.53
5.4983
91.518
-54.252
-10.237
180.34
-114.62
68.778
-91.047
-70.574
83.88
159.41
-31.319
-149.37
-100.26
47.502
-120.22
125.82
102.62
-1.7492
-103.17
-29.011
219.86
75.116
-227.19
3.2763
135.95
-149.34
-24.165
132.78
18.229
-171.71
-34.224
65.525
119.11
-140.77
-162.38
21.653
78.076
155.7
199.58
3.5601
-101.33
15.131
25.998
-139.24
20.392
161.55
50.907
-46.142
-364.7
18.86
180.05
189.26
-131.94
-42.468
115.75
31.482
-276.01
-51.68
-15.571
-124.52
-82.659
152.76
139.52
76.412
-8.5921
-25.276
197.46
108.75
-147.74
48.527
-191.57
-70.577
107.05
79.758
93.28
-95.317
-46.439
0.88308
105.66
-84.708
-159.11
-58.135
170.67
-0.78138
-37.58
-119.47
-37.917
83.837
-73.931
-53.858
94.325
167.43
-94.972
-47.497
195.47
134.42
-263.04
-126.9
28.467
36.284
18.527
232.47
184.46
-128.72
-371.18
-6.3105
9.0855
-86.228
74.119
27.465
-88.526
74.481
213.81
124.95
-60.051
-9.6896
-132.79
-94.258
87.817
170.39
182.33
-71.376
-108.64
58.708
-77.402
-56.336
-60.328
-113.32
-55.993
72.005
148.54
-44.308
-77.859
-155.48
-51.871
248.8
94.538
-180.73
83.564
34.388
-84.634
27.733
-19.49
102.28
-91.58
3.779
71
-1.6136
-70.522
-27.92
62.319
-15.651
-48.418
-43.816
81.323
36.865
90.556
-116.08
-146.53
109.95
175.57
-17.614
-266.26
-122.64
-8.9681
86.973
-44.191
132.83
178.02
-88.013
-8.0083
19.738
201.35
124.11
-193.28
-94.304
180.52
170.14
-150.4
-218.55
28.342
0.65508
256.61
32.054
-203.68
-84.57
-66.778
-143.68
-80.21
79.39
95.184
66.711
24.887
42.95
-123.86
20.021
63.583
21.926
-117.51
121.55
-110.1
4.421
110.28
-105.2
10.558
29.39
58.747
0.50554
30.376
-23.911
2.8279
-15.187
-76.778
42.492
46.012
160.05
-26.594
-102.47
21.482
-48.267
25.96
-95.702
-12.536
60.837
54.511
181.24
-239.82
-43.034
175.2
14.038
-202.17
-54.011
138.96
-55.823
-59.381
99.775
7.4802
-247.87
16.136
69.923
45.597
-31.801
-30.837
-0.061852
194.86
39.825
-100.35
-8.6006
-50.337
-13.66
-50.896
-3.4252
110.16
37.841
-84.073
80.245
36.74
-83.432
36.977
64.741
67.8
-175.15
-130.49
1.2528
131.7
84.042
2.4213
112.65
40.339
-7.9389
-85.957
-230.64
115.87
247.33
-66.087
-244.18
-23.843
239.33
23.265
-240.24
-136.76
-45.368
157.05
102.42
-239.17
-71.321
71.918
80.825
46.971
47.383
100.78
87.262
52.218
25.585
-42.024
29.159
86.172
102.89
-209.15
-109.23
-44.001
-8.5021
16.979
2.2142
48.651
-85.752
-100.74
64.233
73.25
23.265
-112.19
14.193
-9.9085
40.245
-86.987
-60.423
18.276
-102.21
-26.986
5.493
31.509
211.79
266.63
-33.488
-213.1
-139.4
-24.134
216.11
0.21979
-112.45
254.31
227.97
-133.04
-257.82
-223.95
-132.46
74.353
22.753
107.63
61.098
69.877
-4.1911
25.203
25.909
-2.1306
110.32
176.94
23.764
-225.49
34.111
-27.667
-174.54
117.88
168.71
-121.04
-102.54
94.653
-76.25
-283.85
-2.7086
156.1
120.09
-132.26
-73.739
55.61
40.156
-5.8832
-85.342
-68.074
108.44
-77.711
-134.45
229.18
209.28
-104.16
64.619
-36.681
-18.339
116.6
44.35
-139.75
-68.425
-47.815
-23.452
-150.02
39.345
250.09
30.928
-43.459
28.829
-73.895
29.303
54.325
-51.147
63.296
141.06
60.676
-23.413
-125.52
-189.97
-56.26
42.294
27.619
55.829
-18.686
134.35
88.842
-127.25
-119.73
-54.504
15.36
-18.582
-197.21
129.37
101.56
-132.64
-102.97
18.75
248.05
108.2
53.974
89.548
-40.235
-11.393
-144
77.491
58.504
-2.2193
-151.42
-184.9
90.862
43.428
60.094
31.627
94.837
61.281
70.585
-102.41
-424.54
-29.96
198.75
130.46
2.3946
47.676
-38.575
-73.142
71.223
19.471
-35.424
16.943
-25.702
-47.145
-136.05
-194.71
22.263
119.6
150.14
-19.377
22.066
133.81
12.871
-144.22
89.639
180.51
-23.62
-108.4
17.441
10.876
-145.15
-29.54
-118.53
38.837
75.074
146.3
-47.661
-10.33
100.37
-24.711
-59.692
1.4073
52.292
96.434
98.876
-177.89
-104.26
45.919
-163.1
-51.744
85.508
149.34
-12.056
-132.31
-58.192
-23.472
66.651
43.227
-80.9
-23.954
55.131
147.92
133.5
-212.27
-122.05
92.09
-23.445
-163.94
-114.41
135.06
95.017
40.509
5.0166
71.551
74.679
-108.66
-48.937
158.99
185.86
136.56
-272.17
47.547
-74.658
-136.21
-21.483
118.5
87.505
-106.89
-151.58
-75.389
196.77
101.71
-158.98
-128.74
15.08
95.107
107.8
199.09
20.354
-195.02
-22.289
117.34
48.581
-279.03
-68.055
75.583
103.78
100.44
52.167
-86.542
178.7
-124.98
-269.26
34.106
134.29
-32.002
-182.66
-245.9
116.88
323.53
1.8514
-47.302
8.7321
-121.78
-52.271
18.188
170.31
35.524
-28.622
11.946
73.364
34.484
47.14
0.31842
94.151
-211.12
-157.88
26.78
99.441
267.58
-126.55
-431.22
-20.345
45.13
53.677
168.56
137.11
-160.53
-111.57
38.701
7.7914
-28.172
-41.044
91.72
130.87
98.906
119.55
-95.962
-19.415
-83.197
-81.893
66.508
88.737
-48.109
-274.35
-143.26
118.56
186.18
6.1076
23.37
-51.481
-76.56
120.05
56.048
-133.47
170.1
113.63
-149.71
-130.29
14.913
23.652
-186.41
-142.31
82.427
98.137
120.32
47.908
71.434
33.932
-119.71
-22.491
-105.89
166.47
216.17
-155.08
-45.236
-47.527
73.925
63.052
106.8
71.899
-83.879
-268.89
-167.02
82.186
71.766
68.757
129.99
-204.89
-152.67
162.18
-1.6258
-19.729
-33.154
55.78
27.079
20.476
33.914
19.726
164.01
67.956
-131.2
-68.616
61.637
-5.7821
-11.152
38.094
-185.76
-68.914
147.48
144.49
-129.51
-82.599
-89.217
-49.756
104.58
93.159
55.902
32.098
-188.72
11.572
4.7209
-67.33
81.309
9.8736
-8.0348
-11.661
-213.04
-53.624
89.729
-29.704
103.3
62.524
130.56
44.132
-11.426
67.298
-162.44
-53.55
-17.903
1.3245
48.82
57.536
-72.376
-78.407
142.83
30.812
32.504
-31.515
-49.256
62.185
125.96
-40.612
-61.766
-54.171
-25.692
-0.96389
-23.528
-54.187
0.77697
44.588
157.56
-57.559
-30.111
21.905
-27.819
-87.795
-123
-10.267
26.1
7.6635
52.005
105.21
33.325
101.59
-46.077
-154.31
-42.079
-33.222
-69.032
92.402
94.881
73.229
78.777
-23.784
-43.357
20.415
-124.22
-9.6935
78.204
147.17
-28.01
-165.6
149.57
-98.299
-138.95
25.003
208.85
138.53
-119.32
-247.59
-280.99
236.38
130.31
27.038
-8.561
-90.161
109.6
-86.073
-32.878
-27.884
-81.899
14.745
87.44
182.14
217.93
45.748
-137.66
-206.34
-145.33
36.75
83.498
-12.222
-0.92179
145.49
-34.856
-129.82
11.206
82.616
-22.903
57.407
98.01
41.504
-95.941
-101.65
-44.27
32.099
-88.82
-132.55
125.81
185.81
-145.67
-150.18
-33.338
192.5
135.52
-149.04
11.137
165.15
68.002
-88.642
-127.3
-18.686
-116.2
-137.27
-1.1823
134.81
118.15
87.646
-123.63
-69.665
99.606
12.887
-109.58
115.51
138.52
-128.54
-32.508
66.012
67.205
112.86
-80.626
-32.216
13.416
-36.577
88.059
81.851
-52.192
-94.591
-79.727
-11.778
22.685
-25.554
1.5587
13.835
79.122
-100.53
-2.8875
73.947
40.765
152.28
-11.733
-20.749
-69.109
-66.835
-116.8
3.0731
-0.46935
-68.696
-51.165
108.08
-56.011
-75.417
43.365
162.95
36.157
-65.294
-208.5
-33.134
196.89
83.311
-66.069
59.15
-24.499
-37.5
79.383
59.933
-105.83
15.592
19.122
61.457
5.7657
-88.769
1.5802
64.048
-258.81
-63.186
159.97
45.393
66.298
18.354
-223.35
9.5677
19.54
119.99
65.984
-59.051
171.78
108.62
-69.97
-227.19
-91.026
161.29
-220.43
47.143
-19.458
92.895
71.798
26.867
165.47
90.067
-311.54
38.519
32.801
-185.15
-37.719
133.71
141.82
-85.091
-80.72
41.106
38.758
60.717
178.82
-39.638
-190.52
177.01
-228.27
-128.46
115.85
156.42
16.911
-290.71
31.549
139.75
-38.178
-99.062
1.6523
224.98
-3.8184
-152.85
86.011
151.02
-38.052
-171.07
104.29
2.323
-25.725
-83.226
-53.29
-30.674
87.619
138.7
-102.01
-13.153
111.84
-147.13
29.447
21.141
-221.26
28.742
79.775
1.4771
48.556
83.325
183.89
-63.635
-183.5
60.452
62.417
-273.32
-35.257
224.64
105.9
58.076
-133.7
-175.21
91.074
11.374
17.63
-12.281
188.21
26.384
-96.876
-73.507
-84.607
27.7
294.29
53.792
-263.18
-138.14
-207.6
-142.07
179.76
210.43
-35.341
-92.326
48.642
9.5434
97.391
106.55
-51.577
-31.745
79.47
-48.062
-86.146
59.748
63.268
-24.103
20.639
-71.368
-122.89
118.77
67.505
234.26
82.402
-146.19
28.128
-314.13
-50.885
43.555
30.554
-12.316
271.09
-94.007
-233.21
-64.257
90.035
166.26
-75.275
-76.773
-70.583
-25.726
-39.753
83.066
192.99
-194.42
81.286
55.344
-133.18
246.22
-8.5675
-76.218
-44.312
33.252
-22.948
-1.0566
-59.874
36.361
59.22
-43.153
-30.519
-48.986
-0.80116
205.08
91.051
-147.46
-53.296
172.73
-16.268
-170.58
0.23014
-91.428
-231.19
61.217
65.53
120.4
105.25
247.75
-62.932
-103.75
-56.893
-217.09
65.315
128.36
225.98
103.71
-85.328
-390.77
-224.23
112.39
126.57
162.37
26.779
-82.824
50.21
-44.662
-154.89
-111.3
67.63
46.544
75.409
34.714
164.55
-0.12547
-91.816
-51.051
41.694
288.72
82.95
-346.87
1.1024
-2.7515
-5.962
15.422
-7.6269
36.804
-96.42
82.472
-147.56
-113.27
-1.193
28.814
100.88
-36.223
-8.1657
133.2
-2.5814
41.913
26.911
-60.929
-87.524
-81.954
-74.451
-16.884
199.06
66.628
-62.97
67.295
42.922
-184.27
-43.684
18.642
-113.9
112.25
126.75
-12.183
-105.97
159.31
-56.682
-174.74
3.4577
113.83
172.11
227.29
56.694
-142.24
-107.57
-186.24
-81.006
-10.049
94.184
50.437
-55.543
12.989
88.41
-2.2509
-39.892
1.7196
98.875
45.242
-19.042
-115.69
-114.68
-10.723
107.52
89.977
-127.02
29.104
27.908
-98.077
-29.33
-37.366
25.949
190.8
28.924
-143.34
20.196
-42.208
52.453
-31.76
-65.426
89.032
93.798
-73.766
31.344
4.5616
-76.274
30.477
182.21
68.096
-42.258
-40.149
-72.565
-11.494
-32.286
115.98
-52.58
56.759
-120.38
-289.49
17.23
-21.34
10.819
39.72
222.72
-52.284
-79.559
26.111
82.177
46.045
-28.38
144.52
-77.175
-38.764
-55.171
-215.94
-56.368
25.664
-39.943
28.716
71.738
70.235
66.907
147.27
36.724
-63.699
-30.121
106.53
93.102
-241.83
-209.99
87.129
152.88
145.94
-25.284
3.6758
-83.392
16.542
124.98
-104.85
-196.54
166.37
23.076
-210.23
4.3496
28.431
111.85
59.108
-61.682
-64.407
-125.86
3.5213
28.291
-46.832
44.188
58.222
93.473
201.14
-197.24
-62.795
181.8
-55.124
-331.76
46.821
144.5
70.316
-2.2584
-102.91
31.689
50.032
226.32
-66.747
-197.57
-27.085
-12.256
67.821
159.83
194.51
-151.6
-250.67
-33.292
67.702
-35.711
-111.42
-13.93
39.725
269.14
257.67
6.0029
-401.84
-198.31
111.82
96.682
12.777
-37.648
-25.349
-8.758
133.7
230.24
-161.53
-45.612
-42.206
-200.09
-95.261
102.24
126.37
25.458
28.544
2.6344
-88.596
16.334
50.75
-60.763
40.699
31.649
-131.79
54.947
128.96
-75.834
-60.865
62.396
44.54
94.537
-69.116
-50.474
106.25
-27.537
-50.428
41.272
-7.4255
-44.441
-27.692
44.092
-9.0198
-64.731
33.643
44.654
-18.394
-69.79
-13.902
-28.193
137.65
-32.765
-49.863
45.271
-101.48
-182.3
136.37
175.53
-35.657
-16.556
-62.763
7.3786
53.096
0.29431
-17.277
129.39
-138.93
-2.6106
-72.692
-51.026
-3.4955
-18.512
31.626
81.643
55.023
-86.679
156.91
11.5
27.425
237.99
-307.19
-55.8
42.481
-13.065
2.8933
8.7694
-61.475
-39.376
16.032
25.463
-18.323
-13.532
48.909
29.985
-32.819
-7.0054
38.094
-3.078
-29.61
25.458
30.607
-26.957
-15.617
40.737
6.5343
-37.434
9.8365
29.41
-38.545
-10.981
82.611
21.261
148.2
-45.587
-315.86
44.01
59.836
101.43
184.26
-27.131
-96.208
-146.18
-260.94
125.11
90.194
-30.053
6.7332
23.684
-2.1226
21.639
137.07
-54.774
-17.593
-170.07
-183.05
149.47
54.044
35.371
52.398
23.583
26.879
60.246
50.576
-76.827
-46.772
-108.51
49.642
1.5791
35.697
36.15
5.2662
25.221
74.9
-105.4
79.123
-20.1
-116.4
147.5
-56.103
-44.767
7.788
-7.766
-38.247
-16.702
32.389
-24.416
-0.84159
-0.6462
25.884
-1.6467
-36.465
32.495
24.888
-45.775
-52.779
52.306
-3.7839
-3.0145
-41.593
58.124
21.728
13.586
-36.733
15.193
25.399
-8.3138
-14.711
-15.418
30.12
12.021
-63.148
4.822
57.023
35.745
-31.789
-27.198
30.501
15.027
-78.916
6.9672
45.167
-0.10912
-29.348
-57.517
63.522
24.59
-33.058
-23.867
24.993
8.4262
-38.259
-5.9709
83.072
-1.4538
-79.282
40.002
36.732
-36.456
4.4691
26.402
-1.648
-73.167
50.381
57.984
-32.755
-15.671
6.49
41.393
13.293
-47.357
-47.711
45.598
14.489
-77.345
14.493
44.205
6.6844
-5.0669
-22.376
23.44
19.866
-74.132
-19.029
49.905
64.896
-22.498
-30.413
34.868
-8.3765
-113.84
20.086
64.931
-29.864
-53.039
19.493
68.638
32.334
-31.602
-41.55
-22.742
48.368
-4.695
-60.293
54.203
11.469
3.451
-7.9485
8.6184
-5.8663
10.697
-43.486
29.074
47.374
11.288
-57.864
-18.172
27.184
12.945
21.954
-71.022
22.984
27.399
4.8421
-31.528
11.311
25.029
-3.8412
-63.167
8.6597
32.888
37.59
-40.86
12.785
18.468
2.2708
-44.104
16.296
54.747
-5.7867
-31.125
-9.284
-6.0376
-6.5775
-43.751
-70.243
-19.491
114.01
201.38
8.2382
104.12
-81.475
66.926
102.84
-435.65
-314.68
236.33
102.32
-240.69
69.811
224.14
137.01
88.116
24.507
-291.14
-255.52
-126.92
119.75
213.34
-13.315
44.311
67.348
25.065
-6.1495
-48.641
32.794
-52.684
-44.727
26.612
-15.743
-17.671
-26.292
55.756
43.289
5.0562
-54.628
33.588
56.253
-40.84
-49.966
76.664
3.7745
-28.268
-30.28
34.034
18.685
-34.812
0.67707
22.124
-21.813
-54.356
36.419
37.811
-2.4653
-43.813
17.808
31.498
-15.915
-38.182
39.308
95.124
80.749
-144.61
112.71
285.61
-66.891
-327.93
-55.89
-110.93
9.7628
20.445
-210.17
120.62
28.772
-57.78
152.05
27.553
-14.165
52.017
74.643
-5.0987
-36.334
42.393
27.09
-56.931
-28.292
41.962
-11.475
-48.699
1.277
33.62
-12.895
-4.5419
35.047
-23.124
-25.035
25.066
-3.8331
-31.86
16.983
15.414
-30.282
0.85036
22.79
-27.072
-9.7224
19.467
-7.4964
-22.627
28.07
19.724
-27.639
14.111
23.402
-22.716
-11.638
32.663
14.439
-32.782
-3.0785
29.9
3.8683
-34.661
-4.813
23.54
3.6676
-37.343
-11.116
16.473
16.285
-6.3212
130.03
35.784
-49.406
-25.306
-11.532
51.625
-22.389
-42.184
-60.205
-3.8368
5.6554
-4.9772
-49.394
-6.0534
27.826
8.7329
-42.918
-18.534
39.039
19.916
-47.174
-30.134
49.665
23.169
-43.888
-57.364
42.989
43.15
-49.665
-6.703
61.27
22.073
-64.676
0.088595
64.237
15.948
-58.927
8.926
59.113
16.666
-67.664
7.1118
61.982
22.168
-29.847
-56.599
46.794
34.818
-3.7548
-59.112
23.777
44.034
15.705
-60.452
-42.702
38.808
22.669
-18.779
-53.121
33.806
26.452
3.6194
-54.979
-6.0896
34.035
4.9862
-56.154
9.7157
46.296
14.338
-51.325
-25.159
45.777
27.75
-12.134
-65.701
62.174
62.262
-28.071
-109.31
14.708
92.21
4.9667
-117.39
-6.6978
114.84
28.601
-193.92
-52.913
84.983
86.5
-1.4303
-32.278
55.687
46.7
-12.064
-22.436
36.092
22.437
-27.724
-14.172
33.843
9.1005
-33.391
-5.7903
20.944
-0.55783
-36.255
-1.0781
24.64
5.3761
-27.938
-11.559
19.779
-8.3212
-19.76
14.718
14.485
-29.075
1.7804
41.799
12.05
-44.04
-0.27761
32.749
9.2033
-28.544
-40.955
30.65
21.08
2.1167
-47.411
2.1213
29.769
10.991
-37.828
-17.384
39.384
20.604
-15.206
-45.057
12.841
40.731
16.533
-61.274
-19.794
25.473
21.437
-37.314
-34.044
-13.954
-6.7079
136.41
-68.338
79.072
113.11
-97.209
-156.07
-25.268
43.174
5.6045
20.682
27.265
5.3073
33.233
45.274
-21.956
20.842
6.1153
43.706
99.273
-226.39
-91.579
10.922
5.8305
27.232
35.79
44.17
-1.2441
-105.66
-9.7782
102.3
3.4996
-69.707
-22.532
113.83
38.643
-41.194
-26.474
60.588
-2.0574
-66.901
-83.223
-183.07
186.09
146.55
-175.33
81.473
23.9
52.96
-33.237
3.1831
-149.72
101.91
1.1739
-74.217
98.695
86.168
55.522
388.62
-368.02
-335.52
54.227
13.228
42.79
3.3599
14.896
3.6353
6.1888
3.7707
2.7977
2.2724
3.7566
-1.304
2.7793
2.669
-2.6096
0.84174
0.46098
0.75458
5.6165
-4.7435
1.5563
4.4637
-7.7272
6.2449
-1.8934
0.44038
-0.76712
1.9419
-1.8448
0.25211
1.1454
-0.18145
0.59535
-0.32894
0.039039
-0.34655
-1.0167
1.0122
3.0697
-2.0421
1.6578
-2.8962
-3.9374
1.4991
8.0435
-2.0294
-3.7278
1.2133
2.3272
-1.172
-3.5143
-1.1401
5.4627
4.1907
-5.9433
-2.8211
4.0787
-2.9106
5.5257
-2.3196
-4.163
4.6948
-2.9575
-3.3144
7.1703
-0.53546
-1.3336
0.010892
-1.4517
-0.20623
2.3624
-0.47563
-2.1583
2.3783
-0.56348
0.82392
-0.81676
-1.0055
1.8635
-1.0453
0.052009
-0.78235
2.0077
0.044062
-1.3597
-0.53668
1.0534
3.5084
-5.6484
-1.1834
7.0361
2.0524
-5.3226
-11.156
8.3665
7.597
-3.6165
-1.1928
-0.50434
1.9053
-1.6259
-0.29233
0.10088
0.34864
0.10917
0.46584
-0.53639
0.317
-0.14762
0.19024
0.22357
-0.54566
0.81034
-0.50576
-0.51263
1.2021
-0.63219
-0.84102
0.65551
0.99937
-0.39042
-0.86529
0.69411
-0.074437
0.75339
-1.1398
0.79857
-1.4176
3.0873
-3.9818
4.3521
-4.1042
2.8408
-0.095663
-1.2415
5.3589
-14.09
9.3919
4.4075
-5.6931
-2.3412
6.8125
0.49546
-4.9506
-3.0357
3.991
4.4168
-0.75957
-2.6626
-2.6748
-2.1255
1.9732
0.47551
1.2576
0.90303
0.086799
-0.11039
0.036023
0.09257
1.5964
1.7651
-0.40041
-0.47182
-1.7412
-3.2683
-1.5805
0.2832
6.8905
2.8513
-6.4698
-5.8119
5.5335
6.5269
-6.1632
-4.4304
8.4148
-0.65054
-7.9974
9.7499
-6.8214
1.0194
3.5748
-4.8273
7.3652
-7.4276
5.1586
-5.5891
5.2098
-3.729
5.4014
-5.9097
1.022
0.98948
-2.1928
0.30569
5.8732
-1.2286
-2.1257
0.56709
-0.61862
-0.15352
0.21674
-0.94425
1.7319
-1.3463
0.42819
0.11568
0.61528
-0.48178
-0.145
0.18642
-0.58973
0.31184
0.03312
0.26473
0.58835
-0.77729
-0.84592
1.096
0.20347
0.070243
0.82143
-1.3307
-0.51823
0.39296
0.90173
0.73655
-1.841
-0.44308
1.2604
0.076874
0.37192
-0.61814
-0.19241
-0.42947
1.032
-0.64743
0.38973
0.63468
-1.7021
1.1865
0.80935
-1.5392
1.6841
-1.2504
-0.01048
0.17412
0.40353
-0.59181
0.41105
0.37127
-0.87897
0.55709
0.35639
-0.54904
0.29255
-0.022709
0.22626
-0.80183
0.22259
0.34377
0.099409
0.74744
-0.92996
-0.31131
0.73938
-0.05235
-0.54027
0.73269
-0.38429
-0.4901
0.62926
0.059239
-0.25488
-0.53972
1.0179
-0.66637
0.72789
-0.45348
-0.019607
1.0545
-1.1329
-0.060629
0.12663
-0.60569
1.1676
-0.62168
0.33739
1.0674
-0.26838
-1.7893
0.87058
0.69601
-2.0263
1.2327
1.1472
-0.45645
-1.1281
1.1668
-0.29808
-0.24867
-0.27261
1.3777
-0.22053
-1.5423
-0.1295
1.2414
0.0644
-0.16437
0.49077
-1.4567
0.63383
0.7032
0.67538
-1.9342
-0.16087
1.1461
-0.15758
0.70585
1.06
-2.4791
-0.41804
0.71792
1.1469
-1.3501
1.2933
0.82842
-0.62119
-1.4446
-0.23009
0.6882
-0.87088
1.7466
0.28372
-0.58003
0.89326
-1.7968
0.36213
0.55877
-1.6201
0.995
0.58694
-0.29394
0.84174
-0.051541
-0.00053648
0.51501
-1.3199
-0.27931
-0.23745
0.58164
0.019531
0.20582
0.23177
-0.86547
0.96445
-0.8016
0.46034
0.51632
0.79618
-1.3197
-0.12619
0.99958
-1.324
-0.72767
1.3062
-0.15878
-1.4325
3.0042
-1.1989
-0.40411
1.4819
-0.57474
-0.66782
0.53687
-0.52948
-0.51477
-0.24338
-0.42771
1.2464
0.10524
0.59369
-0.10953
0.35627
-0.48309
-1.569
0.64177
0.51759
-0.48803
0.45784
0.23099
-0.46152
0.9623
0.85617
-0.76778
-1.1003
-1.3294
1.5856
0.28462
-0.93093
1.0044
1.8277
-2.1358
1.1423
-2.833
0.83164
0.46332
-0.77313
2.8442
0.0073936
-0.89229
-1.0787
-0.020387
-0.53699
1.3124
0.25181
-0.1882
0.033605
-0.72651
-0.081625
0.61136
-0.25585
0.27233
0.76326
-0.71313
-0.97708
0.10646
2.3423
-1.2419
-1.9724
0.93573
1.1528
0.53911
-0.56359
-0.65301
-0.94792
1.9401
-0.18953
-1.18
-0.12583
0.66367
0.94267
-0.87523
-0.79326
1.2004
0.7883
-1.6094
-0.11762
1.3298
0.29048
-2.694
1.1133
2.4112
-2.3086
-0.33828
1.2874
0.44061
-1.1495
0.38666
0.27865
-0.84367
-0.76519
2.0213
-0.21282
-1.4762
1.2381
-0.78623
0.20849
1.5681
-0.87214
-1.0058
0.30644
-0.39483
1.3321
0.87771
-2.0177
0.59805
-0.14604
-0.29571
0.62502
-0.95844
0.87363
0.13323
-1.246
2.1399
-1.4504
-0.093933
1.3616
-1.3475
1.0869
-0.91213
0.29916
0.19988
-0.99795
1.2983
-1.82
1.0169
0.82293
0.39595
-0.71631
-0.14154
-1.1251
1.7092
0.073836
-1.8271
0.90994
1.0989
-0.82102
-0.19591
-0.72062
0.74744
0.88775
-0.97508
0.10216
0.33708
0.032819
-0.082769
0.58922
-0.89939
-0.47172
0.91948
0.11654
-0.71689
-0.28895
0.84763
0.27016
-0.92073
0.94515
-0.15989
-0.85302
0.0066457
1.1721
-0.94234
0.21658
0.73284
-0.093817
-1.0149
0.26169
-0.0061627
0.3608
-0.63383
0.51311
0.43514
0.1982
-1.2878
0.060847
1.1166
-0.025012
-0.95593
0.24931
0.84945
-0.79848
-0.44715
0.59831
0.33686
0.34559
-0.37521
-0.59521
-0.17988
0.38821
0.73727
-0.55763
0.041422
0.13874
-0.21949
0.30026
-0.48051
-0.14474
-0.066029
0.29093
0.57458
0.15478
-0.16882
-0.95796
0.40591
0.03461
0.72003
-0.52224
-0.68286
0.44547
-0.039928
0.4354
-0.30387
0.12692
-0.32518
0.60187
-0.078141
-0.081105
-0.68146
1.0189
-0.32075
-0.08937
0.63215
-0.87918
0.14949
0.31783
-0.82408
0.047933
0.59064
0.084856
0.1544
-0.40286
0.27466
-0.65069
0.41453
0.15116
0.018311
0.39437
-0.49218
0.44361
-1.3166
0.66575
0.20992
0.21393
-0.04847
0.10843
-0.15032
-0.86116
0.4786
0.85124
-0.3373
0.61601
-0.38125
-1.3675
0.67165
1.2824
-1.5738
0.077695
0.85032
-0.50718
0.50285
-0.67577
0.6257
-0.30388
0.45107
-0.40206
-0.17346
-0.075516
-0.2224
0.78976
0.60616
-0.75417
0.13321
-0.51765
-0.1004
-0.47672
0.18748
0.80466
0.65719
-0.64552
-0.76035
1.0241
-0.25986
-1.1468
1.0234
0.87274
-1.0338
-0.033188
-0.71946
0.41755
1.2595
-0.63777
-0.20123
0.21385
0.39564
-0.65345
-0.51744
0.5562
0.43826
0.060949
-0.98637
0.044326
0.38754
0.42232
-0.42037
0.51214
-0.58588
-0.41173
0.67721
-0.52169
1.8457
-0.59158
-1.0514
0.40861
-0.17122
0.097489
-1.0162
0.99644
0.74835
-0.3585
-0.63672
0.055428
-0.86815
1.3683
-0.37146
-0.43
-0.036418
1.0367
-0.10951
0.17004
0.71732
-1.9799
-0.036788
0.73501
-0.061325
0.35522
-0.052596
-0.14447
-0.33748
-0.355
0.93273
-0.38987
0.18439
0.029622
0.012751
0.11524
-0.40767
-0.24832
0.23536
0.095777
0.29884
-0.18095
-0.90643
1.0024
0.5234
-0.59271
-0.0068506
0.11823
-0.051679
-0.26937
0.10511
0.10402
-0.28441
0.80045
-0.82726
0.57646
-0.2885
-0.64838
0.60895
0.44281
-0.54423
-0.45961
0.19596
0.34871
0.43407
0.78873
-0.77691
-0.583
0.31183
-0.69153
1.0542
-0.4488
-0.3467
-0.084619
0.50659
-0.41119
0.66317
0.45543
-1.7956
0.86086
0.38547
0.27464
-0.91814
0.40694
-0.14092
0.30897
-0.35349
0.71371
-0.43905
-0.43328
0.38075
0.2234
0.15563
-0.86591
0.333
-0.18832
0.963
-1.0103
-0.095816
0.33931
0.48228
0.45891
-1.1555
-0.021646
0.35555
-0.56776
1.2504
-0.97324
0.035527
0.65042
-0.39815
-0.52282
0.41258
0.76777
0.29218
-0.1672
-1.5175
-0.90676
2.2559
0.020845
0.12859
-1.4151
0.60165
1.091
-1.2096
0.014186
0.17464
-0.60205
1.6962
-1.9939
1.4463
-0.30555
-0.45728
-0.089837
-0.35525
0.75201
0.068528
0.62379
-2.2771
2.1366
-0.45349
-0.14191
0.14911
-1.8068
2.8257
-2.1791
1.0235
-0.54429
0.79109
0.82313
-1.2139
0.97439
-1.5876
1.0788
-0.06032
-1.1246
1.1306
-0.65119
0.4908
0.32545
-0.7957
0.96042
-1.0384
1.1206
0.21477
-0.38769
0.11004
-1.0122
1.3776
0.023626
-3.8814
-1.0595
3.5412
1.2921
-0.70542
-0.015449
-0.10824
-1.1287
1.4707
0.24187
-0.99598
-0.15692
0.35264
1.4065
0.36336
0.13256
-1.0323
-2.4023
1.3228
-0.96046
-2.2107
3.4562
2.1603
1.6453
-1.3795
-1.0937
-1.2139
-0.64191
0.78695
0.42058
-1.2061
-0.058929
1.8224
-0.9104
-1.0013
0.38851
0.76989
0.3325
-0.47369
-1.331
1.469
0.28121
-0.84436
-0.28482
0.74669
0.48212
-0.49209
-0.72609
-1.1373
2.6053
-0.77929
1.713
-6.3758
9.9127
-18.483
3.1655
-123.62
20.7
229.97
-48.444
-39.952
26.016
20.556
-60.804
26.274
-125.03
-118.08
282.24
-42.703
56.363
-70.995
-64.113
14.353
-3.3991
-7.1203
101.65
-94.961
61.167
-73.118
53.019
2.2058
34.261
4.3785
-96.028
69.178
-18.809
-0.94078
-28.51
-65.4
64.959
91.752
-46.427
-33.973
48.957
-53.498
-40.022
93.149
2.0117
-60.731
-12.736
49.722
0.7101
23.22
-22.788
-58.731
25.496
22.938
-6.5608
0.36249
-40.956
36.984
75.485
-46.122
-15.34
20.176
14.654
-96.751
-59.442
73.862
46.378
22.371
10.036
-7.1494
-66.735
36.818
10.9
-15.208
-22.251
3.5497
-30.619
-207.17
-62.891
222.36
311.02
-56.892
32.234
-89.48
13.182
48.05
-37.591
-94.985
-16.674
72.778
-47.114
162.23
-279.49
60.399
-51.356
-223.79
341.78
94.482
-181.96
-126.61
-98.963
-50.557
280.37
300.54
218.67
-255.14
-542.7
235.59
75.081
69.052
-38.838
23.343
-77.541
-20.144
43.613
0.99553
0.82288
-2.279
-39.95
9.1477
56.524
-13.745
-27.066
71.197
22.245
-83.234
-15.467
37.849
2.6564
-24.51
3.3468
-2.0825
19.705
-2.9523
-9.7287
-0.068258
-50.984
112.47
-13.572
-40.549
7.9153
-18.749
-5.613
5.5133
-40.37
50.169
-104.2
79.373
49.407
-67.49
39.946
18.505
69.299
-183.79
38.665
37.725
16.817
-6.2508
46.692
56.273
44.841
-135.08
-32.027
121.15
-70.322
-39.372
-55.826
71.155
-4.3764
16.661
-30.47
35.755
-49.155
56.283
-1.6877
-82.245
57.599
-10.602
44.265
-15.003
-43.895
20.958
13.605
18.097
-20.865
27.865
21.132
-16.595
-116.63
38.646
61.094
-49.002
-49.61
96.127
49.306
-20.84
-112.6
26.672
112.36
