3.0509
-4.2272
13.435
12.535
128.53
83.645
-488.05
15.952
227.09
22
-1.669
14.688
-47.316
23.456
23.609
-21.48
7.483
-6.3794
-30.429
-69.579
62.515
82.328
-26.463
-8.4785
-15.462
13.703
-38.633
-15.011
22.48
53.338
11.231
-24.207
-23.499
18.201
-59.62
-1.0085
59.611
74.413
-12.724
-139.27
4.5619
75.697
-22.959
-29.099
43.546
20.839
51.835
-14.226
-46.951
-62.434
-35.757
49.27
16.233
13.284
-16.57
61.229
53.436
-25.202
-119.86
-80.024
107.09
24.101
-38.313
12.763
29.76
123.27
-114.23
-184.11
122.68
56.049
-6.0975
-29.017
-18.783
52.98
49.459
40.157
-116.21
-128.28
112.3
39.186
1.5479
-18.609
38.745
-36.289
-46.643
38.12
10.506
11.276
22.892
-18.084
6.1461
25.888
34.911
-32.567
-120.91
82.948
8.0585
0.48327
-30.86
-12.129
26.218
-17.672
10.969
16.124
10.158
-39.259
-16.139
46.518
-7.3582
-12.679
-4.2633
9.3493
1.7486
-9.5517
-4.8539
11.918
3.4042
16.757
19.581
-7.8389
-23.396
-41.656
9.9819
2.7133
18.475
3.7933
-7.0239
3.7209
10.891
-0.81505
-12.228
4.1759
9.1009
0.84858
-18.342
1.3308
17.905
5.9225
-6.4348
-8.5215
9.118
6.0526
-3.104
-8.889
5.5131
19.593
7.9214
-26.387
-4.5537
3.7835
-0.93217
-10.474
-0.80602
6.5585
2.2542
-5.6585
-7.8701
6.6412
4.8464
-2.9312
-11.131
6.0226
6.3237
2.1911
-12.423
1.7012
8.0836
5.0247
-8.1386
-10.031
11.361
6.0483
-2.7519
-13.391
7.0686
9.9565
14.798
21.731
22.599
39.313
-151.47
-59.739
144.07
51.814
-2.9959
-71.55
-31.612
-44.754
82.161
13.469
-105.14
-68.032
92.907
16.599
27.326
-28.01
-21.19
15.407
25.309
19.856
19.561
48.427
70.235
-14.444
-71.012
-55.481
-122.48
-2.4488
72.969
76.916
-2.2438
-11.847
-23.352
-3.4501
-104.23
2.4313
55.203
8.25
28.484
3.4263
-11.146
2.4696
18.265
7.7118
-9.8097
-3.3408
24.236
18.528
32.162
-12.312
45.901
-114.89
-35.657
64.293
49.918
26.29
7.6182
-172.22
-26.903
80.968
23.257
29.274
-8.6061
18.625
35.268
-15.804
-64.304
-150.77
87.101
69.159
-33.564
18.081
24.925
-14.303
-19.117
-0.012304
25.581
11.017
33.362
-28.622
-12.398
127.74
-147.39
-64.517
115.34
26.659
10.113
-73.286
-34.284
85.042
-8.6711
-98.711
109.01
28.673
-60.307
-101.87
54.836
112.55
-145.1
-72.668
70.542
32.576
12.982
-26.768
4.6574
58.862
30.044
-37.404
-4.1607
40.27
64.873
-37.627
-49.242
-45.308
36.514
-113.43
-13.728
68.648
6.2512
13.76
-23.057
16.608
11.509
35.221
-12.265
17.788
-9.1912
-10.54
-1.625
98.273
-74.061
-71.456
45.159
-3.8167
30.884
43.292
-11.471
-143.49
55.807
33.275
-2.976
37.948
68.488
-79.744
-128.64
108.9
47.128
-73.874
24.725
59.359
-48.013
-14.207
116.02
-71.1
-69.664
-39.903
-15.258
-35.385
71.539
20.404
39.13
19.024
33.782
-117.93
22.539
-17.962
-35.433
110.97
-52.601
-25.342
-23.643
87.514
-25.015
-6.6897
1.4463
5.1278
7.5033
26.318
41.26
-74.514
-34.561
1.9411
39.445
-46.273
-59.698
-4.8931
77.021
87.478
-49.95
40.064
-19.826
-73.195
36.28
13.362
54.758
-34.898
-72.13
56.069
48.966
-74.277
2.3086
-9.0987
-94.014
24.532
63.157
8.7571
-18.002
4.7934
6.3562
8.4571
22.771
4.9831
18.486
58.017
-41.014
-102.5
51.336
54.032
39.572
-55.18
-47.278
15.109
15.45
-11.565
10.474
28.521
-5.8773
-35.174
-1.3739
9.8719
4.7205
14.3
-21.148
-17.311
-27.55
31.187
5.0255
2.2976
-2.2123
0.40056
-13.925
-0.21538
16.685
-1.9851
-0.3544
13.097
7.7208
-4.3904
-7.3066
17.179
2.0259
-44.087
8.3641
7.6262
-4.9877
17.829
6.0831
16.324
-21.137
15.971
7.4029
-38.638
0.22305
15.984
35.849
41.318
-10.29
-59.915
-16.564
7.3598
-36.894
-26.33
17.366
-3.802
27.645
-19.924
-53.154
82.657
70.738
27.958
-124.69
-21.249
7.1062
-14.558
38.963
14.121
-9.5824
-0.9504
54.508
2.344
-57.39
-38.999
36.567
41.171
-27.939
-54.367
102.49
75.656
-145.56
-21.458
-30.558
32.288
34.26
-2.2323
-7.3766
6.6639
29.556
0.83658
17.144
64.484
-8.9931
-180.06
56.433
102.38
-101.14
-8.0463
11.138
34.878
12.574
-30.378
33.128
-36.104
-9.0078
68.212
3.1144
32.784
-43.304
-79.689
-30.22
9.1577
29.855
32.134
23.196
57.554
-58.046
-112.31
23.322
71.434
-19.405
-7.2835
64.836
-47.008
82.231
-15.995
-53.552
28.952
-68.757
-6.2706
59.857
-62.06
-15.936
35.665
17.752
43.205
66.34
-139.99
-17.749
105.99
4.5599
-107.8
-41.573
42.523
71.525
35.383
-2.0121
-72.268
-22.337
139.52
-123.78
-5.6423
-36.102
46.719
94.522
11.776
-105.97
-76.82
53.133
0.31437
18.691
9.6962
1.5337
1.1071
13.583
13.261
-23.85
3.296
10.707
36.762
-27.807
-68.945
37.873
16.149
55.266
17.982
-98.161
-24.574
16.543
24.148
20.889
-14.429
-1.9003
47.504
70.745
-106.98
-88.782
56.929
14.178
-5.1144
28.099
20.728
-42.869
26.501
60.124
-45.355
-85.492
35.834
70.016
-6.8406
-142.97
42.977
-4.3883
9.2035
47.68
15.629
-16.089
-33.198
-1.218
17.583
35.491
-4.611
-44.356
12.312
9.8856
21.324
-3.4331
-3.5462
10.438
5.6362
-7.2701
-1.7042
8.6391
-4.587
-1.8384
2.4061
13.29
4.7343
-10.354
27.988
10.92
27.629
-74.741
-53.811
11.492
1.7924
10.234
8.4864
1.3972
-9.0951
-13.565
9.83
18.974
-13.187
-33.969
35.88
33.442
106.53
-53.979
-165.2
-2.5405
23.963
47.649
47.026
44.664
9.8147
-83.862
-56.092
4.8874
-0.59573
22.695
9.8661
30.919
9.7634
-23.43
22.39
99.939
-68.464
-43.201
-33.869
-46.391
52.431
13.846
0.10235
-1.617
-28.763
17.273
15.848
43.054
19.176
-46.32
-5.4922
-29.928
9.5714
72.365
8.8213
-127.82
-40.215
54.943
46.651
-8.5184
84.053
-65.421
-127.89
83.75
34.618
8.3786
-36.581
9.3612
16.13
21.745
-23.926
58.055
36.01
-10.584
-98.812
-95.49
96.697
-16.054
103.12
-26.956
-126.09
46.601
41.212
-3.4688
20.46
-33.022
-11.567
90.789
12.666
-151.24
-7.0835
62.711
18.005
25.146
1.435
-93.197
76.593
16.468
-55.53
26.864
-0.21779
-7.9832
85.435
52.838
-109.26
-121.82
18.256
124.04
4.7152
-60.964
10.08
19.729
-39.473
-115.87
44.646
50.398
46.604
48.647
-38.712
-52.847
27.119
19.752
11.147
-27.122
98.331
29.534
-144.19
11.221
-9.0981
39.317
24.645
44.986
-15.324
-10.32
-19.37
-122.95
33.295
-5.7175
42.947
-17.702
23.658
63.917
61.721
-129.87
-67.67
42.352
34.059
20.74
18.938
-30.509
68.223
-4.3084
-184.06
55.676
93.25
-67.977
-18.328
44.65
94.624
-48.578
-80.821
6.6878
18.42
16.413
-9.6404
12.482
-0.52105
0.46258
-4.5681
37.802
-4.3651
32.267
29.581
-152.61
3.9296
91.407
-32.527
58.951
9.2564
-75.947
-73.616
12.193
-19.146
53.696
-0.907
12.222
3.5261
1.8777
7.0128
-0.86283
-2.7481
2.6349
21.892
2.6515
-27.849
-29.506
51.224
13.803
-27.669
13.073
4.8436
23.249
-23.375
-14.96
31.536
-38.236
-13.478
-3.9497
21.935
-24.476
10.292
17.01
68.08
-54.641
30.368
32.855
-94.864
-14.338
99.236
15.195
-53.851
-40.908
-68.238
20.114
32.255
46.413
9.4924
-77.019
31.211
14.84
15.532
-1.5272
-32.403
32.733
52.261
23.268
-16.363
-120.14
-83.447
76.419
37.021
5.8991
27.056
18.092
27.773
31.99
-82.431
-42.292
5.6739
3.6642
21.046
66.412
-14.994
-143.51
39.201
41.778
2.4415
7.2203
21.662
13.506
46.177
32.592
-113.88
20.443
-84.944
37.751
92.126
-67.933
-32.032
-37.849
85.434
40.798
3.419
-79.296
-22.6
17.69
1.9178
117.25
43.509
-164.49
-121.57
59.246
168.7
66.155
-81.338
-65.912
-12.076
1.0827
-113.96
-15.589
145.81
-14.691
11.886
26.938
17.582
-63.062
4.0996
17.09
-11.646
-22.644
16.792
23.677
-0.71165
-17.987
15.26
13.092
6.5465
-16.304
-28.012
17.452
8.9663
10.845
-69.077
17.025
38.928
88.173
-124.17
-8.5529
106.3
-3.3461
72.095
-51.678
-79.695
6.2134
-66.631
-47.469
-6.7126
37.412
31.418
57.546
77.858
-17.353
-1.9205
-11.114
-48.031
37.301
13.918
-85.217
-86.215
64.201
-11.774
24.259
23.66
43.517
-33.782
-17.205
28.112
27.147
-27.28
-27.41
40.253
22.125
-21.655
-4.8199
-3.7742
2.1769
13.216
18.584
55.78
-125.37
-66.556
59.15
21.76
12.632
-9.1873
15.965
13.929
-0.79845
8.7703
129.95
-44.453
-90.334
-28.365
-136.12
121.26
-72.784
-53.144
91.25
20.559
22.974
-15.357
34.021
-0.37147
33.736
-30.495
-43.287
56.893
8.4566
28.536
-66.929
32.813
-39.522
-40.855
29.375
25.047
12.92
-3.2319
49.206
46.601
-151.18
-81.334
73.533
61.82
38.151
-98.546
-22.193
69.955
35.727
-36.648
-31.478
35.585
-26.303
51.649
19.545
-65.631
-5.3034
1.8078
13.504
2.509
-16.197
89.127
51.62
-60.533
-115.4
-51.4
69.796
10.491
17.266
35.082
-29.246
51.536
-31.848
-66.077
46.55
17.495
24.122
-50.237
-22.237
5.3802
8.5775
9.513
17.181
6.526
-7.031
0.032462
-12.79
7.5958
-8.0219
-3.9559
-0.75072
0.47456
3.463
-6.419
-0.71914
9.6369
14.713
-4.2181
-9.7908
17.607
6.4084
-12.818
-19.027
-12.784
16.751
-9.8738
1.0357
19.949
14.962
7.3828
-21.586
26.327
33.732
38.644
4.4408
-70.173
-4.6828
-31.752
-53.825
-44.96
107.01
-58.083
-98.726
111.23
74.38
-32.646
-89.912
46.877
19.94
22.03
-32.331
-38.368
49.523
5.0263
42.274
-34.003
-28.014
33.785
5.2538
-19.528
-18.406
32.71
35.213
-24.072
136.23
-29.782
-185.12
64.444
28.691
-67.183
58.516
38.843
-89.221
1.0406
27.944
-4.6346
4.2113
39.791
-31.436
-39.357
50.594
-5.546
-57.736
37.79
83.885
-60.286
-135.09
126.11
5.7839
0.5122
75.372
-49.214
-128.24
32.258
80.21
-5.5948
-14.293
-15.809
-9.8793
3.9156
-11.965
35.271
95.987
-139.06
-38.144
84.927
10.321
38.27
-100.61
38.233
41.992
-7.3854
55.918
-46.917
-33.671
1.5123
22.643
-11.08
-28.718
-42.277
22.148
24.279
26.061
11.366
-27.915
11.62
-10.805
-47.909
-5.268
4.3354
-8.7892
50.39
65.335
30.607
-86.2
49.492
-127.3
37.023
60.7
-40.245
-60.95
0.36341
72.023
-3.8589
-0.66509
23.911
13.824
-33.477
-64.247
41.575
50.895
-14.637
21.064
49.125
-36.942
-19.593
-12.075
8.8486
7.8032
-27.144
-6.8141
-46.079
-49.879
-8.3427
38.628
68.989
2.8415
11.3
-59.38
84.427
22.104
-62.33
16.554
-22.994
-12.272
10.995
7.1483
29.224
-22.797
-23.844
33.745
27.144
-15.201
-21.618
29.946
5.6268
-24.215
-37.517
8.0256
19.893
11.631
-0.92388
49.492
-64.686
-29.475
56.559
-55.346
31.663
-12.781
-33.641
7.1768
13.654
16.324
4.5181
3.4049
-8.7564
15.662
22.182
8.1482
-101.76
-32.661
54.938
93.365
-31.218
-4.9186
38.081
-38.623
-23.605
-67.546
38.141
-25.926
28.767
17.519
-23.409
42.797
-2.2759
-10.023
23.617
39.579
-42.39
-27.504
5.9023
-12.002
5.1343
24.144
18.66
-31.661
37.879
-23.384
-18.215
18.5
13.456
34.623
72.178
-107.17
-80.318
20.901
30.7
53.564
3.483
-27.513
-0.65512
15.705
-8.9807
-105.69
29.884
52.525
-14.697
-74.952
36.239
49.189
98.159
-19.129
-149.66
27.911
4.2447
-29.741
37.346
0.20881
38.006
-0.45585
4.6975
-10.86
-13.202
13.508
3.0798
7.0692
22.491
-10.819
-22.189
14.553
-5.9337
24.859
-5.0708
-5.2091
-3.7837
-11.91
-4.1039
-9.1449
8.5674
32.592
10.827
-97.29
45.58
-31.318
0.092809
0.74945
27.134
49.474
25.361
-25.502
-28.202
-26.567
-33.716
5.8215
14.855
-16.81
34.014
-2.112
28.411
40.814
-37.309
-8.6368
47.005
-63.505
-25.225
-33.824
62.508
-36.155
-19.055
5.3583
33.218
33.133
51.225
-15.147
-111.11
0.19709
12.905
80.802
-8.4814
7.0931
9.3251
-41.661
-52.5
33.075
18.947
-19.532
6.4001
11.733
-3.6779
12.302
-36.747
17.137
11.95
9.4111
51.868
-31.675
-4.2966
-48.398
9.738
13.621
23.801
-31.456
-52.278
6.7331
89.892
-7.1956
-57.391
60.38
59.38
-117.62
-33.356
113.03
-134.24
13.71
81.944
53.252
-38.486
-65.003
-30.213
32.752
68.485
43.057
-73.392
-22.807
-25.551
-7.3498
51.578
8.6774
1.9484
-22.275
-19.429
-16.928
47.421
26.473
8.4016
-41.649
13.207
-15.73
11.16
-18.075
-6.7744
5.4243
-3.1715
5.8417
-4.5603
-0.17167
4.427
12.683
5.9466
0.9016
-10.328
15.174
31.625
78.292
-46.781
-81.136
72.651
-24.591
67.058
-55.212
-131.73
37.482
26.392
-17.482
11.995
8.7053
-7.1266
11.425
13.009
15.98
6.2985
-14.572
-41.617
25.313
-0.41419
-80.543
-5.0378
29.908
28.969
13.918
9.2587
-0.38042
7.3429
20.675
51.127
9.8758
-78.235
-3.8071
8.933
-3.7182
1.1289
3.2843
-1.1875
-10.893
-12.891
-29.337
0.39512
34.521
31.099
-7.7116
-17.201
10.093
-4.6635
-8.855
11.793
-10.231
-8.046
13.397
-14.512
-6.9918
11.484
-29.697
1.5446
23.463
-19.089
52.184
41.98
-68.716
9.1564
7.7355
3.4513
23.737
-36.794
-38.059
51.678
-4.4261
-57.119
42.626
-0.8382
-18.88
-0.094343
-46.281
7.055
23.026
34.161
-10.307
-34.038
13.563
23.939
-2.6182
33.031
-0.15188
-10.02
29.275
0.45574
5.0132
-1.8181
-1.2885
-0.89322
-2.8188
45.874
19.594
49.414
-45.326
-69.575
-29.159
-10.736
-3.2692
-7.9998
-6.3114
-14.179
-14.679
5.647
3.7438
0.48662
20.467
29.875
-22.74
-11.68
20.922
-6.5369
-8.5009
8.3462
9.2714
-4.7312
14.606
8.0059
35.254
-6.6834
-64.038
-4.9146
13.754
3.0642
8.4336
4.0888
-12.73
12.355
-1.7117
-8.9757
10.533
-16.417
-11
16.852
15.364
-12.646
2.1702
8.5011
-26.281
-9.1874
16.076
8.0771
13.422
-1.4357
2.9254
14.915
-19.277
-12.359
16.888
6.3108
-12.464
10.957
40.241
-47.154
5.0826
-1.0879
3.2385
7.3062
-10.144
-11.701
13.587
8.1603
-5.5311
44.65
-35.907
-0.22577
-7.3033
28.603
-42.322
-44.024
16.122
-7.5952
98.625
-111.75
31.114
97.227
-52.028
-30.277
-8.4263
11.357
-1.344
-20.8
13.747
5.7392
-12.352
9.4945
12.953
-4.7102
3.778
-0.7301
-13.611
-40.107
-45.461
99.321
42.894
-54.71
-82.597
58.584
40.143
-39.536
-12.604
47.109
-15.71
-19.478
72.232
17.226
14.512
-132.89
-32.778
64.55
30.206
18.893
16.46
-49.05
-35.337
21.373
60.012
-20.855
14.702
-30.056
-19.891
12.488
-1.5564
-3.1033
-7.5323
-1.0535
-0.89629
21.827
12.347
-11.31
-0.71869
6.8109
-5.0202
-3.206
5.8963
-2.1674
-7.2945
4.2101
4.7873
34.584
-17.396
-14.224
-23.736
-4.709
-33.649
-67.086
21.601
-9.2665
99.968
10.024
-30.562
24.346
-2.0997
11.485
10.998
-11.596
-2.094
17.179
6.4851
-1.358
-0.21531
1.9426
-3.0015
1.8881
6.0212
-10.173
6.2367
10.284
44.279
2.3195
-60.276
-3.3294
-29.536
-1.9591
-8.3897
8.1952
29.683
20.436
-50.788
-34.755
45.871
31.039
-15.218
-29.571
27.844
47.559
14.478
-45.609
-104.85
77.77
60.489
-221.34
26.25
105.8
23.682
2.2945
92.216
4.1576
-101.61
-108.01
16.716
54.425
6.1112
39.439
62.112
-21.641
-73.16
20.52
1.2533
34.45
-12.881
-66.856
39.437
-3.7413
5.8624
5.1458
13.57
51.719
-35.089
6.098
27.637
-46.423
-94.297
66.776
-8.828
55.908
-76.74
-12.236
84.623
-22.828
25.395
13.331
-104.73
21.837
-6.5587
55.93
10.41
-26.649
31.139
-48.155
15.364
61.605
49.185
10.493
-171.18
-33.24
41.751
44.207
20.868
-55.854
8.6722
32.034
84.366
-98.698
-13.078
83.517
-53.591
-40.279
-11.954
21.47
26.149
-6.2047
40.178
-9.523
53.968
-19.31
24.431
-164.09
-34.887
65.834
34.493
26.449
-19.73
7.6861
15.072
-2.4547
43.81
12.835
-71.42
-135.54
39.613
62.844
10.477
49.79
-4.51
5.081
43.88
-18.094
-50.21
-34.841
2.9474
25.416
51.928
12.472
-41.119
-9.439
-37.8
7.7379
26.005
-7.8463
-12.298
21.663
12.674
-27.535
9.9122
-1.4472
9.6657
28.576
-11.489
-27.706
-0.0051091
17.17
-10.598
13.682
21.692
-34.389
-10.765
-5.2335
47.571
63.016
-31.396
-58.228
-140.86
66.685
68.017
10.429
-0.56471
7.2448
12.11
-43.005
16.705
32.912
-73.087
-78.829
105.4
-17.814
-26.804
25.972
6.1528
22.734
3.1833
-5.8858
15.905
-37.394
-2.2909
6.2141
19.663
2.5462
-1.538
20.383
43.203
29.658
-67.53
-35.566
25.117
17.027
-47.723
-10.234
32.198
-12.823
-44.5
122.32
-27.92
-91.473
22.243
-32.517
39.64
53.062
-56.976
28.566
4.8662
11.062
-28.652
-24.364
75.939
-86.151
1.6497
66.028
-65.315
54.257
-9.427
54.396
-66.912
0.59597
-2.3905
-63.345
-6.8258
15.345
53.829
-15.101
65.366
46.563
-92.514
-25.968
-4.4919
52.429
32.631
-20.824
-44.064
-12.805
28.361
-25.976
8.9319
54.374
57.775
-26.515
-162.61
29.622
62.253
23.095
-20.048
-36.999
42.087
-19.538
-41.95
33.021
-12.788
40.955
9.5143
1.7411
-20.659
-30.408
21.444
-19.591
21.702
4.2068
-0.99498
21.589
-1.7007
-1.5194
24.193
-10.458
-0.73182
22.582
-81.042
-0.15015
41.867
-41.962
20.609
31.667
27.938
-10.032
-20.193
18.827
17.29
-19.82
-22.597
12.282
-67.836
-25.172
21.778
16.679
11.976
-67.89
24.053
34.932
47.97
66.044
-194.72
71.846
62.387
3.1626
-2.8441
-76.26
37.222
-45.781
49.692
43.386
76.865
-72.686
-85.925
76.861
-2.6677
-120.69
78.318
-24.449
82.778
-44.534
24.86
-28.954
-1.2277
-0.88832
-24.97
10.549
13.741
10.908
30.75
-12.682
-32.393
2.1306
80.781
-28.605
-88.679
19.162
-9.9989
14.732
29.326
-25.243
-14.077
34.72
80.319
-87.142
-32.06
71.187
-26.308
32.06
-81.296
16.774
4.1271
10.808
17.378
9.5533
-28.48
-17.433
47.006
24.048
-33.748
-20.923
0.14566
19.712
31.74
0.78393
-57.455
8.7668
67.655
-51.871
-48.801
45.954
49.791
13.739
-105.9
-66.528
167.23
-43.339
-53.323
-7.5767
42.501
46.452
-189.03
26.786
86.346
67.346
-22.361
-68.704
54.372
-29.434
6.4149
10.024
14.276
31.688
-23.078
-21.108
37.424
28.78
-137.81
83.336
27.651
11.684
-21.37
-53.782
15.386
14.912
11.028
-26.099
-15.9
49.643
18.169
-16.873
11.823
11.358
-30.516
4.3266
86.972
-70.851
-22.56
-25.094
-117.1
30.504
18.453
19.19
69.199
104.57
-20.249
-32.419
-23.008
-150.03
-38.383
79.085
50.138
-9.5239
-19.088
47.835
2.6506
-13.752
13.878
45.191
-4.8019
-37.067
-21.528
26.257
17.631
-8.2894
0.57205
-9.5168
38.246
-22.355
-42.776
47.848
26.094
-8.0438
4.8856
-60.512
-51.659
16.549
45.328
5.8015
-11.041
-0.5644
-2.1984
-1.731
0.5364
-2.693
13.092
4.6197
-8.7827
9.2371
8.7184
-0.68772
-16.337
95.224
1.3537
-109.41
27.396
-2.5458
21.705
-2.2881
-21.915
20.646
65.507
-88.134
-25.263
-3.1019
-37.283
50.228
14.291
32.981
38.446
-42.236
-59.16
-10.608
-9.5576
23.797
14.985
-14.735
78.07
-63.226
-67.456
49.031
-11.02
41.64
-68.767
-6.148
53.617
55.732
18.753
-37.356
-37.663
-26.912
25.371
26.189
-0.65934
-28.938
24.542
11.997
-0.73374
-36.307
15.466
2.4039
-8.4997
1.1695
16.558
17.838
64.381
-29.622
-101.89
49.721
14.931
-9.9043
42.805
-22.101
-59.831
-14.289
25.737
38.486
-14.34
8.8223
25.857
10.824
13.484
-109.3
-6.0664
-15.891
43.654
99.24
-64.839
-126.86
93.599
20.514
-37.415
-10.446
49.673
-4.3686
-4.3218
10.572
-8.8328
-18.346
28.75
21.705
12.612
-12.912
-19.22
24.062
1.5592
12.793
-1.6827
-12.877
-19.579
-7.5886
8.9545
13.381
-40.205
4.7696
4.6554
49.28
91.905
-43.571
-95.467
-100.3
14.012
58.598
100.07
-143.76
-25.516
32.332
28.873
75.923
-0.55002
-49.092
-55.41
8.7024
46.917
49.737
-21.356
-28.785
-19.72
99.584
31.891
-86.016
-12.455
-70.955
68.31
-8.3319
-7.571
5.8287
52.649
17.916
-108.96
25.95
20.385
-1.204
90.227
-114.75
-18.597
8.4739
14.023
18.568
-6.1973
25.268
50.82
-55.769
-23.97
11.565
4.978
-21.461
37.764
22.212
-41.679
-70.281
120.63
4.083
-16.653
-61.866
-16.601
110.59
-23.332
-137.84
17.745
52.555
24.284
0.25981
0.97471
41.305
-42.271
1.7748
28.162
-18.137
-29.143
15.624
42.142
28.868
-49.878
-76.645
40.304
13.185
-4.8084
-5.6855
-0.76255
49.376
44.556
-110.33
34.614
13.328
-45.834
46.231
25.427
-61.066
-59.933
109.37
35.371
-18.612
-41.334
70.456
-132.64
-121.39
155.8
19.674
40.463
-52.564
-10.09
79.951
-15.982
-90.65
22.503
84.929
9.487
-100.04
31.788
16.057
-80.434
42.221
80.461
-67.728
26.274
24.03
-75.436
-15.081
18.857
-13.834
51.149
59.135
-30.496
-61.48
57.133
0.18923
-2.833
-31.601
-25.149
6.9024
47.514
40.068
-1.7959
-78.507
13.989
-2.0106
6.2573
-2.1995
-7.3867
-84.887
-32.934
47.804
59.103
31.507
-26.198
10.313
2.7601
-1.7805
-1.0555
11.285
3.013
-15.289
2.0186
13.518
-0.88659
-3.5407
0.31566
10.667
-1.3966
32.804
-7.8967
22.925
-15.028
-29.591
-1.5126
-34.597
42.034
1.4154
5.9002
-8.037
-14.147
-7.9022
-4.3056
-43.211
-41.775
31.237
16.409
65.199
-23.594
-11.112
80.938
-46.249
-32.925
16.503
10.08
-23.927
-11.083
10.856
24.942
-19.72
-22.242
17.47
9.2703
-7.0945
-4.8593
14.26
10.521
54.514
40.908
-34.999
-48.568
-31.702
-64.068
87.7
36.994
-23.009
14.13
-64.689
-162.23
29.721
47.158
66.936
29.249
-23.939
6.1622
14.932
-11.489
-12.208
13.746
7.1721
-21.155
7.3854
26.569
1.9499
-7.5998
-0.69373
8.8096
12.128
2.4835
-3.0764
13.974
-5.2927
-4.2266
-8.9922
-12.213
22.966
76.451
-40.905
-55.222
-3.5708
45.465
31.43
-114.74
-5.1242
-2.9924
29.125
58.361
-22.106
-19.254
-24.334
73.703
-79.498
-54.238
100.66
-10.908
-5.7071
-26.93
10.977
-12.042
2.7006
22.613
29.79
-40.822
11.1
55.832
-89.966
37.782
81.79
-58.749
-94.971
78.608
-21.325
1.5272
64.091
-47.007
-19.302
0.67179
-2.8044
5.3685
7.5283
-0.53551
2.9936
33.962
-13.624
-13.451
48.376
-27.662
-52.525
-1.0373
21.128
63.353
11.563
-109.9
-23.66
44.807
35.903
-13.722
27.187
57.961
-119.15
-72.534
41.976
58.423
45.378
44.978
-38.298
-139.55
45.133
8.9796
76.651
-16.423
-98.445
30.097
34.566
25.213
35.242
-29.602
-19.448
-1.4491
-44.345
54.224
-50.159
-0.10508
26.956
44.316
-35.538
-33.36
48.271
19.043
-1.1797
-12.691
60.462
0.38434
-98.078
-20.345
-3.5667
14.303
25.587
73.927
-9.3234
-33.038
-66.286
28.163
5.8514
-48.463
27.216
37.599
0.71978
-9.3092
2.1999
1.1875
-0.18751
3.1243
-39.305
97.157
-45.149
-9.2036
-10.201
-43.681
37.536
14.776
70.083
-95.343
-27.586
54.097
-12.691
46.38
8.2272
-50.673
-28.642
-16.742
20.776
31.963
-1.0682
-19.582
2.9769
39.987
-9.4124
-59.597
17.098
3.5898
46.789
4.0604
-65.654
-16.969
1.957
20.799
5.4423
-6.2763
15.445
41.246
-4.6017
66.462
-62.327
-42.714
35.855
-49.167
11.435
24.505
-2.4152
58.033
-103.64
12.85
8.0547
5.4558
-16.398
52.91
-6.7915
-39.66
44.942
25.011
-54.519
-12.684
11.934
-7.9611
24.383
-14.81
11.122
6.2903
-19.307
28.958
-28.151
3.0426
0.81716
8.0366
-10.78
25.498
40.618
-56.066
-12.513
34.018
-57.25
-14.578
67.276
-12.385
-38.838
-3.3935
21.927
5.1717
15.258
20.824
70.025
-53.275
-120.37
0.35716
40.381
19.568
19.613
-10.01
23.621
38.317
-35.202
18.236
10.249
-53.395
-28.596
12.066
52.313
29.27
-130.79
45.719
90.056
-114.25
-15.528
40.131
-1.9945
-6.3841
27.391
18.251
-27.118
-14.037
17.947
0.97831
-3.8414
0.41019
11.364
-2.9199
-8.9239
23.294
2.8166
-20.71
6.3639
14.559
-2.9551
-7.3112
4.3686
1.8146
-5.5738
4.113
5.4648
-11.175
2.5049
5.0551
0.21643
-0.78319
3.1069
0.33341
4.5724
-2.9649
-4.0928
-6.9315
-7.1561
2.0157
-0.8782
-1.2992
4.3806
-0.045316
-3.1054
3.794
3.256
12.487
42.523
-20.36
-61.658
-30.537
27.926
19.727
-9.8432
98.703
-65.058
-119.11
71.393
27.105
-16.933
23.788
23.319
-104.45
36.141
67.162
10.47
-70.201
3.7793
22.031
-8.1387
22.793
1.3479
0.85856
-14.417
15.325
-2.2537
-17.842
19.571
18.718
-26.696
2.0386
-18.471
8.4334
-5.645
1.2294
9.2953
7.3406
2.1407
45.645
-25.669
-17.178
8.8703
-74.238
68.658
-3.9779
19.738
-40.353
-42.659
21.667
11.52
-7.6943
7.5421
33.513
8.8931
6.5162
-29.238
0.92196
11.97
36.197
26.85
-45.059
-140.79
76.361
9.5257
-8.2003
15.117
-8.387
3.2325
1.1498
26.576
4.2999
-31.744
18.623
-20.733
8.3126
17.188
31.438
15.108
52.206
-56.97
-134.92
90.791
-24.765
23.972
31.808
43.242
8.0654
-131.4
-20.838
55.526
3.0184
18.984
67.407
-54.524
-124.42
66.451
25.355
28.84
-5.4061
19.226
-20.767
-55.299
67.378
21.692
-81.784
17.858
14.466
37.932
13.923
-121.72
-11.196
102.9
-17.036
17.607
-18.359
-21.294
17.977
17.428
-81.356
61.81
67.885
-24.317
-48.177
-15.484
15.47
5.2845
14.754
9.9466
-16.832
-2.4542
-8.7948
-13.378
3.4234
1.0784
73.16
8.6632
-100.47
12.356
16.377
-2.4006
1.6319
8.4233
-3.744
2.6674
8.37
21.163
-8.0578
13.145
-1.9177
-42.745
15.025
26.249
-4.297
-10.792
26.351
39.179
-182.73
-24.59
113.4
16.464
10.582
-33.885
7.9037
-20.272
37.818
11.596
-7.9734
-7.4291
-3.4116
8.7111
31.971
-6.1105
-39.386
-8.0227
20.973
-4.8387
-11.992
6.5987
-5.4102
20.144
7.8961
55.081
-93.616
-29.348
43.524
7.267
37.395
4.2746
-53.805
-15.565
59.545
35.842
-115.73
-47.142
195.37
-4.1955
-123.19
-44.576
25.085
-28.277
20.267
4.8053
23.417
45.213
-54.53
33.053
33.454
-34.132
-21.202
26.239
38.254
-33.693
-16.398
40.094
11.121
21.707
-94.404
2.7917
-9.4737
24.71
4.3009
1.8247
11.395
4.8346
15.353
57.266
-24.107
-71.339
-62.537
35.043
15.529
16.547
59.808
0.41478
-76.586
-3.1957
37.046
-1.378
-41.888
27.08
5.9337
-4.4131
4.1068
9.0287
-9.9537
-9.7942
10.753
12.234
-4.5751
-6.8924
2.3819
10.989
-9.7109
8.4222
13.348
20.004
-44.495
-12.14
9.9226
-13.498
0.39447
40.808
10.856
17.2
-36.685
-52.517
64.794
-35.862
32.37
3.7383
-90.388
18.655
83.346
0.036896
34.361
-102.47
-16.588
-3.4775
57.775
45.106
-34.443
-54.855
20.039
22.928
28.262
-67.482
-53.987
44.478
4.3176
5.4689
18.402
71.989
-34.481
-29.173
-6.8726
-18.424
4.9722
2.6516
13.089
2.6493
-5.8117
7.9405
8.9379
-2.0246
-7.4759
6.2373
6.2574
-5.7805
-3.4042
8.0853
6.7025
-5.8477
4.0424
4.9325
-6.1896
-5.455
-13.32
5.856
7.5321
2.7857
-9.2414
-7.5317
8.7793
1.4977
-0.88151
-11.621
2.6803
22.791
-20.633
-4.9397
-8.1832
4.9286
8.7423
0.24557
-6.8809
5.087
5.2865
20.781
15.287
-39.727
24.487
-6.3928
8.4987
1.7743
-10.481
11.166
-19.877
-31.017
16.908
2.8743
32.627
7.4996
-36.437
-58.375
13.594
28.704
-11.448
61.095
5.1658
-84.907
14.242
42.485
18.522
-17.526
-6.0612
29.946
105.75
-131.23
-85.095
70.081
9.2913
21.264
-49.585
-20.373
12.323
32.716
57.271
24.17
-42.087
-52.456
-58.772
33.338
47.641
-7.155
-12.28
-4.0072
22.616
25.435
-12.431
112.5
-104.59
-73.258
123.98
-39.002
-145
16.614
31.923
22.671
10.512
-7.8091
4.2591
-3.0671
32.184
27.501
21.279
-33.484
44.295
-47.093
-71.056
-10.257
39.528
66.076
-24.331
-7.7302
-12.02
20.709
-66.542
13.426
73.395
7.9148
-15.951
62.979
-20.822
-145.81
-46.958
113.28
19.722
0.040323
8.7628
-48.182
56.147
20.337
12.577
-67.234
-4.2902
20.794
-4.7412
-5.7828
-2.1606
25.144
9.5789
41.977
-46.842
-84.271
26.427
21.253
10.118
-20.608
6.2265
24.864
-32.071
37.808
-13.563
11.529
41.623
34.746
-144.67
-26.819
131.13
-51.353
-6.9044
7.7251
14.601
-11.323
-3.0399
10.302
3.0287
-14.523
-11.644
4.6045
22.595
-8.4209
-10.975
8.5364
-7.7143
-5.8947
-7.3958
2.138
-49.346
-42.408
101.51
73.653
-2.2752
-40.294
-20.481
14.1
-78.174
-4.9815
89.694
86.328
-87.45
-50.051
-4.4661
44.079
22.583
-14.915
-21.343
-5.7844
4.571
-52.241
-71.384
17.409
51.29
-8.3189
30.884
88.184
44.499
-126.87
-67.164
93.598
-24.854
19.47
-40.927
207.12
63.668
-225.85
-68.316
76.758
48.269
-7.5481
-19.086
-57.447
18.255
13.353
-0.45032
32.365
-20.776
-18.266
21.823
-55.788
22.449
-8.88
11.24
1.8795
2.6981
11.888
14.46
35.192
-49.739
-0.8685
13.195
-27.97
23.893
-11.771
7.197
-15.913
22.62
-8.8298
10.093
6.0159
-39.26
-0.64109
13.506
15.565
49.187
147.44
8.9282
-291.3
-217.22
202.58
99.481
7.8728
-13.49
-61.847
-160.01
75.917
125.82
51.486
11.229
-14.453
7.5308
-2.966
-10.911
-30.175
10.502
-4.2212
4.9112
11.998
1.5738
12.584
110.36
0.15537
-118.1
-45.441
2.9932
28.928
-3.6414
-3.3258
2.4702
7.0315
-2.8511
-6.0263
33.87
20.361
-68.057
-31.749
25.654
21.348
26.013
-36.941
-26.539
7.9814
44.021
15.264
44.592
8.5152
-58.232
-106.95
-30.141
77.787
20.484
27.721
23.165
-28.337
-63.504
88.037
-0.77359
31.542
-82.714
-106.75
71.261
12.88
31.021
-73.958
28.095
42.913
3.7589
-11.394
1.9717
18.906
17.531
-17.443
0.78321
17.931
27.761
-41.917
-25.418
58.066
30.942
-36.704
39.886
98.261
-42.687
-157.69
-108.8
83.002
49.117
-53.519
-18.918
44.575
8.2013
9.6144
35.104
23.549
-53.506
-0.80156
16.814
32.28
-25.723
-47.494
-61.194
68.89
52.877
-72.916
-16.514
32.461
43.882
41.488
2.2563
-106.08
40.401
25.054
-27.16
18.677
38.047
-32.769
-69.509
60.147
12.354
-36.983
-40.844
53.837
33.176
-10.788
-30.674
3.2671
54.187
-12.321
-29.628
-7.4334
34.86
0.60844
-45.711
18.436
-17.996
11.48
-1.7033
-37.498
20.804
51.596
-1.1497
60.233
-32.632
-103.65
79.768
49.187
-84.157
-83.307
87.324
-7.546
-7.4643
-6.5629
12.228
34.976
-24.572
-11.562
34.526
63.084
-64.731
-70.385
30.758
18.785
17.128
0.9649
14.86
0.93728
-35.033
-39.619
-3.3079
10.537
13.843
8.4877
-4.4224
8.3775
7.9344
5.2366
46.543
-31.203
-57.739
49.621
-22.625
44.285
-49.315
14.57
-28.034
-67.754
63.67
20.504
-16.274
2.6401
36.28
26.989
-7.397
-68.626
-14.318
48.828
-11.522
58.198
65.25
-111.82
-11.789
-5.2855
22.25
-15.317
46.632
-8.359
-18.607
12.879
17.411
35.993
-97.901
-74.297
137.55
49.769
-47.799
-81.059
-57.558
72.865
-14.472
34.864
59.501
-45.313
-22.03
-27.767
23.802
13.007
8.9134
22.758
19.217
-39.225
-54.818
-22.412
36.185
20.925
40.489
14.847
17.993
-102.29
15.341
75.137
-67.695
43.871
-68.264
6.4538
48.983
52.991
-7.889
-108.56
8.3221
6.4098
20.269
32.82
44.896
14.989
-33.898
-27.962
-4.5413
-22.041
20.274
-10.742
77.201
-129.59
16.962
91.794
-106.94
-4.9558
50.832
-16.552
34.894
-27.02
1.9911
10.851
-2.1915
13.003
11.167
-2.7253
-13.71
-38.232
17.331
58.026
4.0582
1.271
-85.448
-132.08
101.28
68.268
39.812
-10.592
-35.467
44.744
-12.768
-71.962
33.472
48.82
97.165
-74.235
-48.801
-5.977
3.6797
-7.8053
-1.959
6.3175
18.278
-32.501
-168.83
-62.825
145.31
112.09
25.734
30.211
-21.637
-111.27
9.8511
82.717
29.345
56.015
-78.088
-86.699
16.213
-14.392
20.607
17.251
71.119
-10.251
-58.65
-19.785
-3.261
-30.687
0.18146
15.767
-51.468
58.327
77.064
-23.287
17.517
28.434
-14.674
113.22
49.098
-61.298
-81.425
-53.18
-12.547
-4.2367
-1.9988
-1.4728
3.0378
-2.2709
0.035794
-10.153
-8.8059
-68.309
-56.851
81.91
-4.1948
16.138
21.8
6.2494
-1.0363
27.227
-0.35347
-9.0194
16.417
1.0822
-3.5236
9.3877
3.0073
-5.8667
11.576
-1.9527
-6.5762
17.757
-15.979
10.372
4.6227
88.862
-16.931
-153.65
57.738
3.081
11.531
32.621
-11.852
-11.694
-4.2543
-5.0902
10.252
-18.041
-15.369
2.5695
-7.7979
-29.674
-50.234
98.102
-13.987
-19.509
0.55532
14.569
33.321
2.9893
-22.734
27.157
-9.4931
-39.981
10.96
18.997
-26.499
-32.598
55.749
36.91
0.60211
-63.408
1.9675
31.151
-12.265
28.642
-6.2519
-20.66
-56.524
-10.312
57.068
24.525
27.331
27.743
21.694
-174.32
30.756
68.921
12.272
-27.176
-59.154
94.747
-125.09
-4.4766
127.43
-34.731
-13.218
5.3169
14.005
-19.947
7.6186
8.7764
-5.6452
5.149
-4.1645
15.098
-0.16214
-18.766
-0.08224
-3.1748
-13.695
9.2217
1.8919
-14.016
14.906
-34.204
2.1197
87.581
-43.25
23.583
-24.931
-76.251
28.073
31.537
-1.1131
-2.0946
14.87
1.8006
-15.12
21.218
37.523
5.867
-106.94
-28.235
57.36
46.591
10.923
-48.853
7.082
21.2
6.3226
2.0966
-14.358
-22.571
51.388
-15.952
-11.88
-22.165
0.58702
46.755
-24.401
82.717
105.64
-220.88
14.29
16.542
-8.1641
8.1078
8.2798
-17.91
-7.7005
21.16
-6.0829
38.126
-21.055
-9.8672
-2.8595
-9.7889
-7.6304
-16.389
20.505
10.53
-30.801
19.981
-2.6099
19.315
-32.034
-6.9344
13.301
32.247
-4.7185
-25.085
-6.9326
2.0899
-0.63748
-10.146
20.393
15.459
-4.0507
-6.4629
20.633
-23.031
11.262
20.859
17.253
19.724
-90.337
-7.4526
32.181
13.542
-7.2757
0.005039
-23.014
1.1976
30.236
-10.143
-8.0311
8.8501
20.754
-16.847
-0.55296
1.5928
-6.0655
5.7601
37.474
56.01
-36.941
-21.202
-41.061
-40.904
31.846
38.387
-41.665
-18.605
15.252
4.0501
-3.8049
11.574
9.7534
-11.6
0.6818
7.0211
-8.7093
-45.308
-0.17449
45.555
14.69
-12.145
-2.736
-7.6585
-1.6328
13.094
-2.7948
-3.6669
11.28
22.768
-21.689
-7.0585
10.002
-4.6668
-14.687
10.994
20.33
15.439
-4.6789
-26.806
-18.8
-9.3349
42.001
-13.123
-13.132
-5.2903
24.393
0.7945
-10.149
7.2498
19.267
-14.514
-30.313
-19.649
10.576
31.599
-40.157
13.581
49.974
74.949
-49.959
-72.547
18.397
1.1043
-7.4039
41.018
-26.668
-32.818
12.531
27.104
-44.91
-103.22
19.883
60.389
14.523
15.111
28.421
14.05
-11.67
3.9136
32.008
103.89
-37.563
-97.993
9.1288
5.7321
-10.668
-2.2482
0.33536
-8.9891
-10.608
6.3089
8.578
-7.7052
-9.0961
3.5348
7.6445
-11.261
-0.0094916
4.0467
32.368
-24.845
-38.511
31.143
-5.9126
23.749
2.3933
0.10377
-2.8964
-14.387
-15.795
-5.1029
-32.908
-161.92
69.386
162.19
13.361
-22.682
1.7707
22.329
-60.201
10.188
33.329
59.987
49.957
20.495
-77.173
-73.042
-26.304
-156.48
74.724
80.578
14.602
42.356
-8.7684
-6.4646
13.837
15.443
14.657
-77.817
33.601
39.606
34.259
-71.636
-49.353
40.394
17.385
-1.5498
9.7269
-7.2436
-56.482
8.164
-18.364
7.6967
37.073
50.607
-38.422
-50.106
8.7742
21.729
2.9432
15.99
-32.892
48.975
-38.378
46.136
26.019
-54.875
17.59
-15.322
27.358
-79.557
10.396
57.818
67.276
-97.727
-61.094
82.536
-15.289
-4.2346
-6.9646
32.102
39.242
-14.809
-96.531
80.236
73.189
-6.2763
-80.066
-91.262
6.5577
4.6638
32.011
4.5923
-12.863
24.858
48.057
-34.047
-62.614
28.374
41.788
0.33077
-3.3713
12.906
30.513
-18.134
-30.955
13.057
7.1324
2.1309
-16.083
1.836
12.06
2.1419
-12.461
-8.729
16.035
15.105
18.898
-32.152
-26.151
4.568
10.323
-2.3601
34.112
-57.905
-74.801
69.766
46.351
-19.338
14.274
69.121
-37.76
-26.532
-36.921
31.757
40.599
-21.351
24.83
-37.946
-110.47
-122.81
112.3
66.382
18.393
22.171
14.249
-6.8022
-2.2876
23.827
-15.459
-26.068
66.762
84.363
-99.56
-90.121
8.7577
40.931
2.5867
-5.6493
-4.6543
10.858
-7.3783
0.58363
32.83
34.458
-64.383
-28.538
72.652
-34.005
-71.144
27.994
29.966
45.586
-32.947
-46.917
23.174
31.745
-10.478
4.2168
-9.622
-14.781
-14.392
22.179
16.837
21.821
-63.276
4.1237
69.304
-63.238
-24.138
59.233
-7.4874
-13.765
51.335
-48.707
-51.571
51.765
11.498
-9.6392
-15.757
3.0531
27.154
6.779
46.433
-19.774
-78.613
32.181
-11.509
-29.885
-15.179
23.653
29.235
-0.4787
70.774
-33.437
22.234
-50.335
-108.39
92.595
64.227
-11.192
8.2394
-78.619
-67.408
100.14
-39.733
33.318
78.148
-21.538
-107
0.83684
36.565
3.1986
15.524
-9.4933
-32.944
61.468
-37.043
55.348
-68.806
-25.402
43.044
18.04
-26.361
29.769
2.7688
-19.817
-0.47458
8.6663
-8.3549
14.496
-60.334
48.563
31.446
-33.346
-9.0443
28.982
-3.4658
11.929
-26.709
-36.587
18.796
103.44
-20.63
-70.449
20.78
-31.197
19.09
4.4218
14.578
6.4476
44.224
-69.746
-39.485
-11.201
16.399
3.7777
9.9505
13.683
-4.4547
-3.4295
13.257
17.808
-36.283
11.819
76.09
-54.559
-44.896
11.852
18.549
-5.2273
37.768
-15.005
-84.798
45.775
56.8
-15.564
-5.2174
-47.526
2.5309
39.016
-13.45
1.2896
30.086
-31.005
38.052
-51.373
-6.6004
41.947
-8.2071
10.871
-9.5834
-27.929
35.15
-1.2629
-62.778
27.466
7.8555
-1.43
-1.0379
22.432
14.234
14.143
-37.247
-1.1421
1.5927
8.5556
-23.385
10.35
42.245
-17.825
-56.596
79.634
-34.138
-63.594
42.106
-40.65
22.009
-1.8226
26.224
15.028
8.2346
-8.6885
25.78
-10.412
-50.619
35.303
83.267
-80.763
-7.678
-19.113
-37.232
42.36
5.3671
-2.6618
5.0224
8.5103
2.563
-10.564
-1.6165
17.999
71.187
11.377
-133.71
-80.668
67.796
21.741
15.656
3.8365
18.504
4.0015
-43.501
11.786
11.9
-0.01888
10.683
8.521
-10.204
-0.83312
21.508
-10.341
22.756
35.108
-112.43
-29.038
108.07
9.3938
-76.625
-34.478
2.6369
10.148
41.279
7.9191
-9.0674
7.8652
64.182
14.006
-138.62
33.566
77.903
-26.07
-17.969
-2.6574
67.745
-33.827
-104.52
52.645
12.859
-57.759
36.803
-1.2208
46.688
-11.134
-4.3142
-4.7293
20.456
-59.877
70.27
0.26135
-78.367
105.72
-82.068
5.9576
-15.529
30.037
7.792
5.3799
-26.712
-24.365
56.936
-7.8879
20.736
53.829
-31.207
-68.506
27.639
13.33
-28.252
23.921
3.5362
-10.412
15.545
-34.831
-0.2779
32.406
-40.134
-23.703
1.6659
26.172
9.0112
-15.918
-3.0248
10.842
3.4855
-12.472
3.4123
10.599
-4.8713
-33.528
-3.149
30.522
-30.093
-24.934
36.385
44.887
34.519
-16.177
-47.416
34.078
-7.0818
-2.9441
-16.565
122.82
-69.659
-68.746
27.075
13.18
7.024
2.2211
12.687
-45.7
-17.89
48.205
57.219
-57.854
-122.26
92.153
-0.67634
43.586
-27.276
3.0807
-36.937
-11.163
24.281
-2.9162
7.2672
1.4124
16.715
-19.939
1.9696
13.357
-5.901
31.073
-40.846
-9.6171
6.8042
24.28
28.411
12.67
-28.772
-15.918
-42.89
38.208
-20.277
33.692
-13.356
-22.41
27.173
17.864
-3.7354
-26.845
36.875
24.603
-9.3395
-69.111
30.347
-32.924
6.4262
24.095
9.1542
-51.654
-17.224
61.678
14.685
-19.756
7.1018
2.7496
-8.962
4.683
-23.296
-8.4751
42.575
-8.2661
-11.788
4.5933
14.775
62.408
-130.7
1.2079
7.8451
37.595
36.139
48.393
6.0433
-129.72
-49.081
57.789
11.595
-10.715
5.0069
24.13
4.4753
0.68827
10.071
32.316
-24.699
34.166
22.458
-84.588
-16.17
59.628
29.73
-31.687
-68.885
-19.467
86.298
4.3489
-34.567
16.027
-26.502
-46.747
25.748
14.528
20.126
-4.7653
51.576
-23.507
-104.09
51.666
-12.927
6.5369
18.591
10.655
21.695
63.771
-24.687
-55.765
-47.079
-27.029
35.262
29.684
8.4899
-13.07
39.308
4.7594
-15.523
15.132
-48.532
-7.0715
17.221
23.854
47.147
-18.159
-23.722
-40.137
-21.554
29.343
21.017
8.6491
3.9837
-27.973
-31.679
31.159
20.789
-0.7084
-3.7293
32.513
-72.454
32.525
-1.9643
-68.367
34.795
69.441
5.5192
-29.613
-52.845
3.4028
72.133
73.901
-76.127
-89.814
55.919
6.6711
-36.485
46.267
-9.8553
26.032
-11.637
-28.198
-18.415
32.81
51.312
33.484
-75.704
-124.16
81.908
49.408
-51.325
-20.423
21.07
31.232
26.807
-2.291
-9.6292
7.8914
-29.999
-10.563
-4.454
-1.5866
16.961
15.893
-43.409
-41.743
29.301
19.016
-4.1201
34.259
74.225
-14.692
-4.2092
-65.282
51.08
-24.724
-55.247
-10.72
24.152
25.516
-4.1106
2.6429
1.0767
0.7779
-13.726
-47.517
29.104
27.776
26.695
-14.613
-62.862
13.715
54.758
-15.869
17.599
37.222
-47.946
-38.256
-23.77
45.787
-10.995
-4.5368
23.456
-23.466
16.309
5.368
15.889
-30.888
5.9891
19.531
37.153
-6.9646
-99.576
35.39
61.069
-19.154
-36.43
3.9375
4.2792
19.742
-10.296
38.601
3.5275
-31.585
-9.4136
-28.509
18.791
13.139
30.09
-61.666
-4.0482
39.277
-24.828
10.274
-0.26011
47.182
-21.842
-76.487
40.268
9.17
4.7373
-8.14
8.8142
20.207
-9.6205
6.1587
-1.7323
36.621
-24.061
-52.839
28.323
-1.9541
50.934
-89.852
19.673
68.533
-34.242
-22.035
26.941
12.019
6.5456
-93.278
29.528
39.736
-23.514
21.052
-31.045
40.694
-44.247
9.7378
9.8105
-25.821
42.754
0.29318
0.46034
-27.838
6.6603
-8.4486
-3.2084
11.321
8.4222
-3.4776
0.86073
17.834
-2.5006
0.036545
18.699
15.197
-44.82
58.383
-1.8514
-3.4848
-84.389
-46.971
51.837
9.0514
24.851
42.732
-46.293
-43.073
20.888
7.0461
5.0861
26.205
-12.877
-11.023
10.386
-11.799
15.816
-52.019
10.297
28.046
-8.4655
0.80018
11.616
41.389
20.778
-30.854
-9.9365
-23.086
-55.613
4.968
24.196
16.189
-7.3445
-0.27996
6.5626
10.155
-2.0429
34.326
52.772
24.28
-29.277
-32.797
-25.927
-54.163
-138.21
38.251
121.98
-34.364
14.295
56.594
-33.449
12.665
31.146
-37.044
18.803
-25.985
-17.855
11.107
15.91
-23.351
57.014
-3.0511
-20.647
-17.534
-21.569
28.919
-11.302
2.6103
-2.9195
31.492
-4.138
-19.687
12.68
0.52518
-3.1424
6.8077
-1.2526
-1.1783
1.7842
-11.377
-1.3103
10.129
41.47
-42.894
-25.477
57.896
-55.171
-85.591
125.85
-20.365
-43.439
-25.044
121.69
-10.941
-83.708
24.354
88.458
-89.278
-48.102
32.842
4.2021
-32.382
64.722
50.197
-64.046
-42.559
-31.712
73.929
20.968
-20.143
38.946
51.472
-37.155
-66.343
-41.231
56.341
-2.7989
-39.057
40.02
16.255
-9.9224
-5.7575
0.82781
-7.1579
8.7873
41.54
6.0609
24.288
-65.322
-2.7128
10.618
-29.662
13.769
-2.8881
39.555
-22.208
4.2908
75.515
-47.968
-73.014
45.747
2.9277
-22.362
-62.878
-30.409
95.431
-14.95
17.599
-18.307
-8.1576
4.1363
28.447
70.184
-61.211
-88.434
43.614
20.262
37.329
15.374
-159.75
50.254
58.444
-16.081
22.68
-9.3151
19.349
-29.256
28.779
-30.685
6.4552
20.988
5.4445
7.5825
63.04
-11.819
-85.557
-2.2145
41.642
55.386
-81.011
1.6406
50.419
24.243
-22.113
-96.432
7.7873
-3.0466
-11.222
-24.904
22.539
36.768
49.704
32.253
18.115
-28.584
-78.732
-18.167
-15.294
-38.185
4.0316
30.322
44.885
4.7675
12.943
38.37
-18.309
-30.539
-9.2994
18.284
3.1198
-1.524
-2.2661
-11.275
14.873
7.8674
-18.48
-7.0405
10.055
39.101
-0.057582
-31.767
39.383
1.286
-40.218
-20.018
21.486
10.053
-23.708
3.9086
6.2022
-16.311
12.383
10.911
1.9561
-19.51
-6.5309
-13.693
-35.223
-41.352
59.654
60.294
0.69809
-11.238
0.94865
13.551
-0.26039
-12.392
0.78721
7.9695
-8.5195
-13.722
15.238
10.157
-11.758
-17.635
8.6225
12.197
2.2739
-14.778
5.0358
8.565
6.0891
-16.64
61.227
-13.206
5.8761
-41.261
-54.732
51.964
9.1411
-28.822
-15.47
-1.2267
-29.246
-28.491
46.742
23.871
7.1374
-56.932
1.9651
42.214
19.974
-12.782
2.931
27.711
17.384
0.68461
-9.6075
1.3564
-21.636
-13.174
15.236
16.728
-0.81168
2.2553
-13.251
27.454
6.9225
26.257
48.845
-48.849
-18.338
-93.596
3.1781
120.83
-12.967
-187.84
-108.98
138.56
53.865
10.047
11.956
3.835
-7.8133
3.0365
10.011
19.93
-4.1813
6.0823
3.1122
-8.5723
-19.397
6.0757
-2.3284
-5.7467
-0.70888
10.292
-4.6465
1.5735
31.466
12.204
-23.197
-81.57
29.569
7.7252
55.495
23.724
-65.171
-15.551
41.771
120.59
-40.878
-80.188
-146.24
-131.24
226.57
98.112
-22.499
-73.154
11.296
23.87
-55.027
28.484
61.345
-15.675
-48.115
-6.1481
10.482
14.474
3.9996
9.2478
8.7606
-6.2284
-32.862
25.48
-6.018
4.5266
43.739
19.05
-83.906
-8.689
42.056
18.421
9.7956
-48.325
-6.4627
25.533
47.642
-87.657
5.7882
22.085
24.853
-35.767
-7.2339
47.651
16.697
24.302
-115.28
-16.032
-8.3189
33.986
59.071
-47.476
-22.126
29.729
-8.3816
41.127
-5.1974
4.9463
-51.84
49.205
45.682
-49.426
-0.069158
-9.7393
-12.578
9.7828
24.545
32.389
-36.054
-50.006
16.868
20.449
-12.371
2.6075
38.901
-14.282
-100.19
74.388
-2.5459
-15.605
10.872
-19.634
1.3025
21.942
5.0136
11.851
24.291
23.326
-15.364
-89.326
-29.514
52.93
53.969
-32.892
-11.332
32.08
61.392
-22.867
-65.205
54.774
21.725
-53.467
-99.598
19.54
32.124
11.311
-0.51235
9.9415
14.359
-15.034
33.596
-13.707
4.6946
16.901
-15.332
-45.717
15.013
22.933
8.8391
2.2135
-24.399
16.505
42.639
3.6694
-6.6193
-65.398
-24.344
15.673
21.517
3.0398
-28.61
50.086
-15.745
-4.1472
-1.447
40.102
-16.261
-75.891
35.008
17.519
5.4226
27.691
6.4628
-23.818
-6.1125
-6.2286
8.0784
2.9312
-14.881
4.9658
16.876
-35.092
-15.716
20.675
18.796
-7.8204
-1.6975
20.714
-18.096
-6.2043
72.675
-8.9854
-164.89
89.751
49.712
-25.201
31.179
-45.918
-101.16
53.915
49.453
65.993
-11.773
-86.529
2.4789
-7.8718
28.314
-4.6154
19.483
20.276
0.22366
-32.637
9.7812
-1.1939
-6.5438
8.9753
10.969
-1.5093
-7.5677
7.0095
7.9894
-2.1395
-5.8533
5.1868
5.2626
-2.7289
-7.6886
2.9731
3.6245
-0.98569
-9.4461
0.26341
4.4989
2.1661
-7.3415
4.7285
17.18
49.105
-103.4
-31.16
65.673
8.8216
-0.53407
-51.357
16.643
14.631
6.363
-5.6384
18.165
20.782
-69.104
15.536
58.585
-41.567
-7.1033
56.099
-50.78
-18.396
2.1357
8.6742
15.019
3.051
-8.422
20.79
9.875
-30.969
-27.151
19.836
31.693
-34.085
5.1136
15.996
-1.7602
11.803
7.2029
-18.413
-24.677
17.151
17.178
-2.2853
21.902
-60.343
-47.294
32.878
48.047
3.1246
-42.256
20.811
3.1
10.948
-23.892
12.977
21.089
14.055
8.3638
-14.497
37.975
-93.253
-17.193
25.021
-6.9295
11.2
3.581
28.989
-15.709
38.557
-31.402
9.3447
-5.8673
-40.268
50.7
1.9679
-24.645
-1.4222
-2.5149
29.585
-30.04
-7.3857
-2.1531
8.4715
-0.89512
4.1316
17.106
14.979
2.68
10.339
-12.119
-13.191
-48.998
-24.051
41.547
-0.68189
4.2852
1.5646
19.359
31.177
-42.713
72.678
28.648
-51.281
-33.172
-10.639
-15.586
-5.9045
-74.179
-6.7622
47.169
76.453
10.48
-64.235
34.748
17.968
-21.327
-58.162
63.724
14.451
18.231
-32.426
-23.722
1.0338
11.027
1.3777
18.401
-20.86
-26.567
24.166
9.4261
2.3351
-12.936
9.4239
3.406
13.428
1.4158
-0.61987
1.5934
-16.88
-3.6882
5.1439
4.3376
7.1828
-2.6843
32.938
53.531
-57.768
-129.94
-28.244
92.024
38.834
-22.166
4.1925
28.727
-48.849
56.471
35.955
-75.561
-44.426
50.273
21.878
-83.202
29.819
31.249
54.171
-16.862
-93.028
18.668
35.44
12.61
-1.6242
21.106
-18.002
-3.906
4.6591
-54.361
43.513
51.018
-7.3584
-110.28
53.494
31.111
-34.835
10.1
31.572
59.568
-20.721
-134.56
25.191
37.477
10.141
12.512
56.42
45.052
-55.96
-94.878
-76.798
87.982
16.107
23.254
-41.946
-5.0126
20.84
-26.435
27.554
57.54
-6.3777
-24.343
21.976
19.091
-123.53
-36.527
68.934
1.0763
2.4847
29.921
63.949
-45.133
-78.037
71.611
21.468
-41.788
-23.854
54.705
7.5578
-10.499
-33.955
0.99862
28.671
77.45
-10.809
-86.53
-24.237
20.118
-2.5597
24.795
-3.7008
-51.347
8.9993
6.1412
21.468
-21.752
-8.2783
40.244
8.9095
-49.158
40.558
5.5256
-14.125
-28.414
8.1484
-23.726
75.463
-24.439
28.317
-21.283
-81.421
18.383
32.242
18.414
5.2669
57.71
36.563
-117.52
-50.719
35.881
3.8667
10.978
26.134
64.11
-38.558
-76.594
15.025
39.701
14.999
38.018
-53.148
-65.366
69.024
29.67
-55.239
-6.5533
17.756
1.9718
-10.972
-6.6199
16.254
6.1014
1.8315
-0.79645
-0.40987
31.325
-29.434
-31.815
13.869
52.805
-34.171
-93.367
59.366
30.747
-22.412
16.633
5.0577
-8.676
-13.873
-10.498
0.0037685
-1.323
14.585
-1.8499
0.37193
20.2
12.799
-16.085
0.11208
12.82
10.144
16.663
-5.1025
19.21
0.38327
1.3536
-73.173
-48.229
32.15
34.421
-18.841
10.409
-12.868
4.4534
20.616
-16.384
8.77
2.0947
-0.30011
-2.1997
-5.3134
8.7548
-6.4517
5.1425
-30.368
19.748
60.666
-47.412
-12.032
-5.2279
10.159
2.6237
-5.097
-8.472
15.091
11.959
28.631
1.3851
-54.748
11.355
7.8613
-21.642
18.143
-20.497
-7.5443
30.062
15.363
46.08
-43.777
-66.807
3.6734
31.916
-3.1669
23.448
-0.51116
-20.741
24.258
0.081707
-24.924
-2.4938
20.385
-51.632
12.491
85.371
-32.314
-39.061
31.777
-19.008
-12.541
10.824
38.742
-6.5141
-59.669
11.651
50.165
-20.649
-55.489
16.927
45.129
11.125
-21.779
10.18
-3.3609
-26.881
16.237
25.833
-5.4834
-24.648
5.5472
-29.491
1.5184
52.668
-21.23
-1.4734
-16.373
9.1826
26.023
41.147
-45.03
-40.807
12.331
5.9709
-12.889
14.582
-2.9856
11.497
-46.546
36.83
25.184
-61.915
-10.204
37.294
46.102
-9.3925
-2.9101
-2.062
-44.837
16.618
55.374
-74.094
34.609
12.947
14.28
16.386
-30.526
-101.22
91.322
-22.967
-8.7188
37.632
-41.962
14.288
6.7295
23.55
42.699
13.991
-152.08
8.778
76.923
-19.867
0.2203
0.37394
-3.457
8.1805
-37.202
34.092
45.7
18.602
13.279
-55.585
-48.775
57.461
-71.17
-3.6588
39.47
4.0598
15.729
-30.001
35.911
-5.8664
3.0264
26.797
-46.849
61.559
-7.5963
-88.262
25.755
15.394
10.967
4.1536
8.935
-4.0614
-22.842
9.4059
60.673
-64.472
5.7052
-30.251
15.988
54.558
-66.953
-2.8807
23.826
-22.283
-8.4016
40.597
36.035
-34.262
-89.761
64.233
5.6945
31.686
37.192
-43.274
-87.511
49.212
-7.0652
28.286
29.766
-26.276
-2.8389
25.38
-39.926
-9.5942
42.735
-16.363
28.405
-53.463
19.561
28.516
-22.82
-55.681
66.951
47.22
-81.345
-35.712
33.174
46.539
-38.559
-10.634
19.975
52.75
4.5804
-78.715
14.298
13.74
-11.724
22.734
-27.13
10.931
27.631
-14.09
15.519
-34.337
-61.371
27.358
58.719
-15.89
-8.3291
-7.0623
14.883
2.519
-0.12081
51.925
19.366
-32.811
-7.0764
1.2796
10.711
-0.082279
-98.492
-44.541
63.73
19.95
13.7
8.0458
1.2663
-7.832
-8.444
10.536
15.242
-32.571
28.557
-55.715
-5.9335
37.286
30.77
-10.442
40.483
6.8102
-66.784
-8.0155
2.5637
69.769
23.599
-119.27
-39.951
106.28
-29.745
-14.094
6.4929
27.555
46.397
-74.085
25.204
12.55
-42.763
-15.651
10.633
22.595
-0.50617
-9.4521
5.6495
3.8395
8.7173
-5.5222
43.569
-32.984
-8.391
22.165
-43.541
-13.904
23.687
18.376
-5.7433
12.457
-16.015
36.498
15.126
-23.719
-14.913
-43.979
-71.909
75.817
44.415
-3.9779
-1.8687
-3.4927
-1.6847
5.9714
48.671
32.558
-79.907
-15.828
-90.926
-104.9
182.02
7.0128
16.519
-22.555
-35.77
26.141
85.906
-29.305
-51.052
-18.24
69.226
-11.572
-60.09
73.045
2.9623
22.782
-109.22
-64.594
130.19
-19.971
7.0063
-1.7735
36.967
-22.98
-55.85
36.311
72.204
19.148
-193.78
-64.953
127.45
36.596
45.489
137.55
-68.455
-231.38
48.817
24.155
44.553
-7.1048
-2.1949
16.864
-9.8693
12.624
8.59
-3.4776
80.211
122.59
-173.16
-41.488
66.086
-84.523
-72.437
105.81
76.055
-76.706
-15.052
-16.937
3.0868
2.5978
-0.5615
1.234
-1.4242
-8.1599
4.9021
-5.2411
-3.974
-0.1445
8.9364
10.553
-0.59092
-8.8717
-2.6522
7.0606
-6.2003
5.2543
-3.0789
15.621
18.643
-7.3514
-17.532
-5.314
3.5549
-11.288
4.5002
6.7358
-3.6491
4.3293
2.9606
-7.2815
1.3289
3.8838
-5.9922
3.1208
5.8493
-6.8226
-0.47267
8.9467
-3.0795
-4.2665
6.7021
-0.74748
-5.9208
6.3051
2.896
-6.7554
1.4515
5.748
-5.466
-0.36051
5.2686
-6.1339
0.97269
7.0086
-3.9193
-4.0191
6.6093
0.07325
-5.5494
3.0937
2.9135
-6.89
3.5574
5.2635
-3.6304
-5.2477
6.5079
2.238
-5.9588
0.18658
7.2378
-5.9928
-3.9793
7.7263
-0.32151
-7.0179
5.9416
4.0675
-4.9985
-4.8872
6.1226
-2.1037
-6.7957
3.9856
-3.1181
7.7874
21.529
-5.425
-13.087
-2.1289
-7.9771
-0.47727
8.6524
-0.94947
-2.8219
-6.1102
7.793
2.9297
-2.5044
-8.8172
6.3257
5.3538
-1.3006
-8.4089
5.2217
5.6135
-0.23386
-10.152
8.7576
-17.422
-30.559
-174.22
-4.5036
181.04
285.77
48.954
-212.53
-46.604
-18.929
-9.1706
-10.631
9.2962
-1.1694
-4.5852
-5.6597
5.9534
2.0113
-2.1649
-6.3906
5.4905
4.1917
-1.2517
-5.7176
2.1925
5.4143
-1.4245
-4.2135
0.60937
1.9015
-2.2655
0.1801
4.1496
-2.5291
-2.9192
7.2045
0.57412
-6.1392
-0.9532
8.2983
-0.53566
-1.1417
-6.5719
1.7189
6.3376
-2.2094
-4.4164
-1.0595
7.5269
-1.013
-3.0551
-5.6392
6.9364
3.3207
-2.2811
-6.3318
3.8286
4.2715
-2.1303
-5.6402
2.9213
5.5409
-1.7715
-6.8908
2.5901
6.1298
-1.2772
-6.4913
1.9051
6.276
-1.0284
-6.882
0.17989
7.6761
-1.5987
-3.8209
-3.2878
7.5205
0.60421
-3.3127
-4.3575
4.5193
1.9042
-0.40407
-4.3089
1.9335
2.0847
-0.88914
-5.4083
4.2737
4.335
-1.636
-5.8454
3.9001
3.4309
-2.5497
-3.8297
1.2217
5.183
-0.93672
-5.1073
0.78876
3.6723
0.43768
-4.1816
-1.0987
5.3452
0.17169
-3.8567
-1.9311
5.4139
-0.12499
-3.316
-1.5553
5.4744
-1.6061
-2.0126
-2.2894
5.1463
0.20872
-1.7105
-3.4485
4.36
0.83625
-2.1878
-1.4451
1.2267
0.023674
-3.0958
1.8543
15.866
24.638
-1.0163
-24.027
-11.778
-5.8927
-2.3229
-1.9524
1.1782
0.047159
-0.055461
0.035395
0.12748
-0.033881
1.0118
0.55693
-0.096956
-0.081527
0.64165
1.1315
-0.48096
0.21775
0.68296
-0.88237
-0.94733
2.1278
0.32937
-0.92624
1.1057
0.28353
-0.51936
0.078878
1.4162
-0.00058176
-0.27675
-0.45131
0.036483
-0.69935
0.79824
-0.13156
0.098934
1.6207
1.3748
-0.87849
-0.45233
-2.789
-0.71473
2.3698
-1.2009
1.8665
1.5444
8.4306
-6.4334
-8.5763
2.1485
2.3159
0.31619
1.0734
-7.9566
-24.935
-108.76
148.99
193.03
-201.34
18.794
146.31
-139.14
-69.711
-21.664
32.139
65.044
-42.948
7.1995
-0.52414
-6.7204
14.351
-14.942
22.478
-16.756
-8.6984
0.28079
-16.422
27.272
-7.2073
12.415
-4.2637
-10.09
7.2532
-17.783
3.9003
-6.7581
-8.9821
40.57
9.7346
-12.457
-24.184
-63.798
55.488
-118.31
140.1
227.28
-107.78
-43.882
-30.599
5.2761
1.0629
-19.861
-5.8477
-11.155
-25.444
-0.19716
2.0628
2.1216
-4.2541
2.6443
3.4594
0.002157
1.3478
-0.055092
1.6763
-0.38097
2.3526
3.919
-0.12552
-2.6176
-0.025014
0.55908
2.0653
0.50754
0.3673
0.64595
-0.85457
1.2876
0.048511
-0.1105
-0.066581
1.3583
0.27147
-0.98304
1.102
-0.5866
0.69025
-2.2072
1.7052
0.63456
-0.10046
0.15719
-0.40612
-0.96074
1.5155
0.62607
-2.006
1.5217
-0.18492
1.0751
0.17141
-1.0819
0.38358
-0.53247
1.5341
-0.44579
-0.25361
0.5003
-0.30599
-0.98845
0.4224
0.6027
0.64783
-1.2731
0.098708
0.47478
-0.20594
-0.5934
1.0684
0.58706
-1.177
0.54557
0.31132
-0.44879
0.084204
-0.80389
1.248
-0.53681
-0.58443
-0.46434
-0.42781
1.8866
-0.56662
-0.075892
-0.066055
-1.5643
-0.069084
0.81207
1.6883
0.37065
-7.1674
0.10137
5.5717
-3.3336
3.2266
6.7189
-2.1567
-0.10214
-0.60282
-2.1972
0.15037
1.8925
-1.5014
-0.21383
0.097124
-0.0718
1.4889
-0.7818
-1.8619
-0.16129
1.3758
-1.0757
-0.80835
0.98706
0.65889
-0.72093
0.27626
0.58283
-1.3072
-0.38202
-0.54004
1.6789
0.31991
-1.7829
0.11043
0.75768
0.69207
-1.1651
-0.14747
0.29616
0.47776
-0.38062
0.85459
-0.0081046
-1.4217
0.53316
1.0931
-0.075904
-0.1405
-1.6532
1.0426
0.44198
-0.10098
-1.3239
0.28726
1.9932
-0.66439
-1.2983
-0.528
0.55047
1.2479
-0.38425
-1.1265
0.76909
0.26891
-0.24763
0.99733
-1.402
0.64557
-0.42288
-0.60782
0.50729
-0.3987
0.56752
0.7172
0.10626
-0.99491
0.023803
1.5489
-1.2891
-0.59388
-0.42017
1.894
-0.29955
0.63215
-1.3341
-1.5023
1.4348
-0.11325
0.84205
-0.94471
0.65467
0.8099
-0.20667
-1.4524
0.87637
-0.76271
0.24512
-0.92794
0.62601
1.3945
-0.8159
-0.18461
-0.46273
1.0437
-0.018781
-0.3858
-0.54943
0.80558
1.0566
-1.2052
-0.039891
0.54592
0.061558
-0.63616
-0.6248
0.65358
0.91282
-0.41436
-1.6652
0.27017
0.70632
0.83164
-0.053563
-1.1191
0.52042
0.12323
-0.31244
-0.85624
1.3824
-0.05503
0.34736
-0.16207
-0.94479
1.0665
-0.75768
0.0026857
-0.50983
0.6422
0.77259
0.019708
-1.7547
1.1316
0.42711
-0.045685
-0.83042
0.25077
0.69302
0.10292
-0.70048
-1.2124
1.2421
0.44886
-0.38117
-1.3648
0.76551
2.1199
-0.89593
-1.1343
-0.26789
0.96291
-0.024697
-0.62939
0.23834
0.075021
0.51651
-0.23832
-0.64943
1.1343
-0.96934
1.4013
-2.5222
14.506
11.21
-5.5799
-10.67
-12.955
1.2128
-0.66813
-0.27994
-0.13504
1.3291
0.68243
-1.8349
0.098165
1.4536
-0.91808
-0.37357
0.91527
0.90841
-0.82942
0.3335
0.80413
0.59591
0.57475
-1.6905
0.92761
0.64242
-1.3888
-2.3003
-9.0306
-53.52
-97.349
235.26
-83.4
-202.36
403.02
-93.167
-133.83
36.821
-47.083
-38.385
137.39
-9.3745
2.7782
101
-83.365
-52.656
-62.554
41.702
-3.9602
-42.454
31.77
28.841
-58.466
51.035
14.698
-16.846
17.614
-9.4921
4.0248
9.0579
-6.5587
13.984
25.073
112.35
-32.848
-94.032
-33.76
-7.0393
28.724
-2.423
-29.509
3.693
29.014
-41.429
-13.106
37.763
6.3415
-15.008
21.595
-24.858
18.044
2.8653
34.007
-18.323
-86.484
54.285
0.18914
-5.1833
-3.1609
-34.465
38.996
-5.0274
12.28
58.933
-40.61
-4.6549
-0.92256
3.0018
-5.6538
-3.7329
-4.8871
0.69281
4.4217
74.552
3.8785
-51.531
-5.96
-18.438
-30.59
10.81
29.65
-36.433
-64.6
24.802
23.241
16.721
7.4673
7.3136
-4.6473
-4.2651
1.3358
3.8238
20.399
7.6503
0.142
17.065
-20.022
-26.136
-23.211
6.0758
35.028
-1.4027
-1.401
-16.077
-25.292
-34.378
70.301
2.0843
-34.523
6.2894
24.488
5.792
-16.181
-6.3377
5.2159
12.215
55.444
44.425
-35.994
-46.51
-22.886
-1.2102
13.527
19.559
-8.6459
-70.446
-28.342
32.694
11.652
22.668
24.599
-15.77
0.26423
27.291
-42.723
-66.74
-11.685
31.185
7.4576
19.027
37.563
-8.6125
-1.6202
60.445
28.029
21.26
22.799
-59.965
-29.358
-16.396
-2.8293
-6.5509
-2.7909
-4.4933
-0.54949
-34.241
-61.426
7.5252
47.518
3.3243
25.75
23.336
-23.886
-7.7343
13.296
-11.878
-15.329
28.373
3.6654
-35.503
22.92
25.633
17.813
17.067
-6.8244
2.7032
-1.0201
-3.6551
-20.106
-9.6389
16.779
15.393
-18.436
11.735
15.013
58.486
40.877
-29.324
-31.633
-52.414
-23.767
-14.831
-9.1236
-9.8363
-25.885
-38.821
19.738
76.716
-9.4992
13.969
-4.2085
-31.944
10.454
1.8308
-2.9969
7.7622
1.1681
-0.3565
9.1714
-9.5636
-18.47
-13.764
5.4246
-46.555
-38.364
-61.428
235.84
76.592
-108.55
66.179
35.189
-81.744
-74.866
-34.598
96.646
-18.083
1.6729
19.468
14.188
-37.17
-30.247
-3.1155
26.769
-7.122
-3.4472
6.5071
25.862
21.218
-48.377
-2.248
10.571
-41.107
-12.199
34.921
-37.337
32.171
45.805
-37.785
-63.654
49.408
57.575
-0.50604
15.418
-44.703
-34.011
8.5401
31.645
4.9418
36.246
-14.789
-5.2074
13.879
-121.27
-72.393
139.81
63.888
-25.087
-2.8959
-0.085683
-23.296
-3.8884
24.362
-12.404
-11.081
16.259
-36.381
-28.423
49.103
35.868
-79.749
-12.173
110.27
3.9537
-62.353
-5.6383
-4.568
-4.0591
14.827
9.3845
-11.063
7.8447
8.7417
-11.183
4.2574
-9.6014
5.9615
17.512
65.209
-10.667
-32.265
-6.9378
10.163
-84.514
35.099
-147.11
26.216
130.47
50.221
-48.725
6.8165
-0.25932
-32.815
44.61
0.48356
-15.696
-24.057
17.869
12.039
-13.701
6.2621
20.556
-7.1379
-26.433
8.8614
11.806
-26.849
-38.221
-0.9757
-45.174
11.387
23.383
36.397
25.422
-9.7826
14.26
20.207
-13.401
-6.8889
20.928
5.6212
-18.967
2.2405
19.901
-2.6512
-19.36
4.3726
12.081
-9.9079
-10.235
20.21
12.69
57.211
-48.631
-148.56
55.917
40.543
-2.2579
-0.70347
8.6716
1.6878
-10.46
0.39426
-0.68458
18.293
7.9775
-22.898
-33.193
23.909
29.734
-12.392
-11.336
-3.3452
-6.6772
37.659
38.754
4.3746
-47.763
-8.9176
-19.777
-19.173
21.312
16.162
-19.991
-8.5742
24.537
-5.7439
-12.171
12.814
8.308
-19.654
-2.3804
19.481
3.9896
-20.981
2.7348
14.53
-12.656
-30.002
30.006
26.239
-31.897
13.817
-4.1051
-38.275
-11.859
44.242
14.856
-20.873
-3.2245
26.124
6.3347
-10.483
15.218
3.6978
-14.728
8.9765
11.771
-6.6342
-14.159
9.691
9.0895
-11.455
-9.3643
10.23
1.2999
-15.9
0.58985
14.576
-6.5886
-7.635
4.5118
10.944
0.5518
46.499
55.882
-61.246
-40.16
-12.538
-1.1225
-20.762
-20.448
12.456
10.151
-28.57
-22.025
-5.1617
-2.4926
84.242
84.475
-21.844
-113.86
-92.726
11.898
39.893
127.41
6.765
-35.75
-3.3521
-15.049
-6.4
13.987
-4.008
-0.26463
-11.791
-6.6823
23.963
18.59
-20.038
-3.4125
3.7331
-17.62
-1.0078
14.254
-4.0101
-23.624
25.951
13.898
-5.4007
-26.531
16.431
8.1711
-0.10636
-11.452
-7.3201
14.708
3.7518
30.61
9.4293
-11.257
-0.35447
-26.683
-37.469
11.182
29.821
-34.264
-26.242
-23.309
-31.963
144.36
-40.761
-0.69036
4.1994
1.5369
-11.084
20.436
4.5001
1.1211
9.1771
-11.465
-36.601
70.44
-71.338
-44.061
16.75
47.91
7.0267
-36.685
69.826
-39.934
-39.334
-25.416
9.2626
72.422
13.042
-6.2604
1.9838
-0.82086
-3.4368
3.4058
1.4907
-16.599
-12.766
10.248
-9.2851
4.0876
-7.5213
-4.461
4.0375
4.0812
-7.34
1.7211
8.0302
-5.5695
-0.1076
8.1406
-1.9865
-7.9092
1.2591
9.8253
-2.7833
-5.324
-0.42248
-5.879
11.183
9.5388
-10.025
-2.4098
10.711
17.061
-18.826
-12.648
-4.4354
-2.3681
3.6213
3.7734
9.7378
-8.7465
-3.3807
10.607
0.54329
-10.213
-0.68262
10.519
-56.803
36.005
44.229
-24.41
10.54
13.184
-13.587
-42.329
-0.61937
30.187
0.77632
-9.9719
7.3193
5.3941
-9.6904
-2.9521
29.53
2.4243
-28.433
3.2112
7.6933
29.535
-7.9253
-64.245
-7.045
32.12
17.706
-11.229
-0.85631
7.8198
1.5036
-6.3176
33.3
-13.956
-100
67.925
32.71
-21.849
-4.3112
11.106
5.0276
-1.8265
5.4088
5.5527
-11.545
2.1731
11.607
-7.976
-12.243
2.2265
7.4536
-3.0101
-2.9585
2.8393
1.5283
-9.8567
-0.85615
5.5122
-2.6139
-9.0643
5.5723
7.3065
-4.9749
-6.5501
4.6181
-2.2248
-4.2064
6.4813
14.537
-10.256
-11.067
14.078
9.3699
-7.6991
-10.81
10.009
1.7238
-10.667
5.7088
8.0984
-4.7289
-7.2029
2.71
11.447
-10.545
-8.1192
5.9006
4.5283
-0.64717
3.274
4.2947
-6.3276
1.4043
4.1724
-1.0418
-22.743
-2.9011
11.216
-1.0841
2.2065
16.607
6.2986
-21.61
2.4746
10.768
1.4279
-7.9584
1.3381
-0.51618
-20.877
0.20119
25.294
2.2929
-20.917
4.5517
8.3441
4.0467
-10.055
-10.807
19.329
10.762
-17.28
-9.1587
13.985
3.9436
-7.049
-5.6716
11.645
9.2865
-3.3822
-11.437
-6.2137
-4.0403
-1.5512
5.7779
14.931
-0.41276
-24.499
6.3017
8.6518
-4.382
-1.511
5.9847
-5.6008
-5.5537
9.6228
1.6748
-4.5301
-1.3974
2.8748
-9.0288
-1.7071
9.8906
-1.2363
-7.5478
19.298
2.0904
-1.0298
6.0251
-0.16103
-3.7255
-8.5138
16.859
-3.7815
-1.4401
-13.275
-11.733
19.871
10.635
-11.639
-9.1913
2.1086
-10.158
-5.7275
9.1041
9.0773
0.79129
-8.3915
-6.6918
10.172
5.4839
-7.0082
-11.835
5.1104
11.463
-9.1986
-9.5181
22.287
5.8103
2.9013
-10.901
3.9823
-3.8529
-6.2527
9.2315
12.951
1.505
-12.656
-4.6129
3.2245
-3.2301
-8.839
2.4095
1.5344
-8.4269
-5.0115
9.8311
12.404
1.872
0.46613
-19.943
1.1979
6.6753
2.1418
0.15446
13.492
1.1911
-16.355
-0.26615
8.1338
3.9879
-9.8409
-7.1523
0.39594
8.8314
2.9386
-7.2319
2.5385
5.683
-5.3915
-12.337
-13.243
13.992
8.1849
1.9448
-14.607
6.1206
6.1004
-2.3947
-11.942
-1.9941
9.9193
3.2571
17.908
1.9864
-6.4853
0.76441
-14.173
2.1137
26.16
0.24072
-13.738
-10.658
6.7318
5.5633
-5.039
-6.8938
11.652
1.7801
-9.3155
-14.827
4.7121
9.4451
4.2678
6.4501
14.077
-7.6386
-21.55
2.0274
11.285
6.2726
-16.713
-8.871
10.31
1.1001
-21.728
-8.5648
24.246
16.155
-17.064
-9.5789
12.209
4.3905
-6.5896
4.1115
10.984
1.5697
-7.2633
-0.30226
8.1395
-1.0163
-12.44
-9.9923
10.592
-4.7709
-10.824
-5.333
13.54
8.63
6.0855
-1.0262
-4.3436
-7.9501
-6.7933
25.029
-1.1412
-19.663
4.9583
4.1988
-3.3516
8.3126
3.4643
-11.555
-4.3762
9.2801
7.7869
16.844
-10.764
-6.6706
-4.1351
-10.967
12.155
15.292
-6.2809
-14.866
-1.3401
4.4234
0.37548
-10.151
2.1722
5.4801
-7.1569
-4.7087
0.96858
8.6586
-5.5923
17.821
8.9577
-24.647
0.65795
11.774
8.9782
-21.096
-10.034
14.268
7.4011
-2.8481
-17.551
4.4936
12.491
-2.4436
-2.8417
6.468
2.0917
-10.418
-8.2566
-3.7702
-12.091
4.9284
6.2396
10.99
2.9293
-0.57193
8.0141
-3.6968
-9.1052
9.444
3.7328
7.392
-7.6578
-13.221
8.2765
10.208
3.1492
-4.2104
0.60099
5.6892
0.87011
-8.7973
-5.4394
3.4331
-4.1447
-13.85
2.8137
-4.4239
9.1778
-0.79626
-1.4323
-4.6043
9.6854
2.8301
-0.51227
1.6083
-17.215
2.5852
11.895
-1.6083
-8.7314
-11.914
9.2535
26.404
2.0851
-20.052
4.0028
6.4278
-8.6452
-11.381
15.225
9.6131
2.7261
4.3856
-1.9614
-17.637
-1.6955
-8.0105
16.544
-2.1573
-9.6956
-31.096
-2.539
37.868
28.143
24.302
-8.1239
-21.451
42.463
-138.23
-41.426
125.92
-16.87
-7.0213
20.518
26.403
17.106
-42.749
24.275
9.1162
-50.938
-45.108
29.717
19.294
5.1466
33.721
-29.372
-35.719
-10.968
25.76
28.345
-0.97336
4.2442
6.7403
27.13
-41.131
-20.774
34.143
29.87
-36.578
-40.564
38.506
-10.404
-3.7378
16.776
11.351
-10.609
-33.186
9.1018
13.189
-7.9292
-1.7167
14.631
-4.2234
-10.571
15.199
5.1002
-2.4955
-11.604
2.0609
1.5011
-4.9329
3.3867
7.6172
1.5506
-2.4421
-5.3614
-4.8476
8.5051
-8.2457
-4.6828
9.3424
2.475
2.3907
-5.5111
-7.4827
4.2584
-1.9879
-3.4127
6.0758
-6.4995
0.58856
-10.236
17.875
4.8628
-15.967
-17.947
17.203
20.118
-17.858
-8.7675
19.001
3.2705
-3.5385
-19.445
0.8254
29.092
21.133
-26.834
28.565
-19.405
-22.274
-0.41485
0.72685
8.5303
5.8633
-1.6899
-12.848
7.0973
6.9496
-7.9221
-12.048
12.874
6.1068
-0.80368
-16.499
5.1202
10.137
2.91
-7.9947
-14.044
10.603
6.8928
-0.72512
-11.706
-11.445
-6.4836
20.535
9.8083
-0.55467
12.617
-5.3089
-7.5777
3.8788
4.2454
-12.928
2.7502
9.8458
-0.28402
-9.0472
-13.652
12.724
8.4219
2.8682
-14.569
-3.7
