30.02
33.89
30.52
28.84
37.5
59.97
94.49
132.28
162.89
178.86
176.32
155.72
119.17
68.44
3.41
-74.49
-163.83
-258.89
-343.07
-393.86
-394.28
-344.6
-261.56
-176.17
-98.32
-30.53
28.25
80.53
125.92
163.08
192.59
218.54
241.31
261.95
275.92
277.35
262.8
231.82
187.01
132.45
73.1
13.95
-38.58
-81.61
-113.19
-130.72
-133.45
-123.87
-107.86
-93.06
-86.93
-89.42
-100.87
-117.24
-130.23
-131.86
-118.48
-92.25
-58.99
-24.73
7.75
37.6
65.3
91.75
116.16
137.02
151.58
157.87
155.83
146.75
131.28
108.79
79.11
42.31
-0.29
-46.56
-93.18
-135.38
-168.83
-181.48
-169.07
-132.85
-78.87
-13.94
55.16
123.06
185.98
244.69
298.15
342.8
375.98
394.76
398.67
388.02
357.99
312.46
259.18
205.86
157.56
118.02
82.47
49.6
19.35
-7.68
-30.32
-48.94
-66.33
-88.17
-109.27
-129.29
-147.36
-162.87
-174.9
-181.74
-182.46
-177.54
-168.95
-158.83
-151.14
-148.13
-151.09
-160.13
-173.97
-191.07
-210.34
-231.49
-254.4
-280.57
-310.92
-346.37
-387.71
-434.15
-482.5
-526.56
-557.75
-567.3
-550.7
-508.84
-448.37
-379.54
-312.62
-254.79
-208.78
-173.57
-145.88
-122.24
-99.1
-73.05
-42.23
-7.65
26.27
53.21
68.22
70.95
66.21
62.29
67.81
87.27
119.43
158.86
199.17
235.69
265.64
286.65
296.01
292.83
278.74
258.39
237.9
222
211.38
202
187.01
160.66
124.28
85.5
54.52
38.87
40.02
53.17
69.76
81.59
84.76
84.17
89.96
111.97
154.58
215.3
287.01
361.53
432.61
479.45
485.68
447.06
374.57
285.07
191.4
100.38
15.91
-58.39
-119.29
-163.22
-189.93
-203.86
-213.58
-227.72
-251.15
-283.3
-320.53
-355.78
-379.81
-385.26
-369.98
-338.16
-299.05
-263.72
-241.21
-234.96
-241.26
-249.45
-246.71
-223.89
-179.19
-118.14
-49.9
13.7
62.78
92.57
103.69
99.97
86.11
66.26
43.83
21.78
3.34
-10.61
-19.78
-25.1
-28.26
-30.58
-31.73
-29.13
-18.74
5.19
41.79
87.65
134.67
172.03
189.3
180.31
145.3
90.95
32.32
-19.72
-52.71
-60.09
-43.7
-12.96
19.46
43.45
56.15
66.79
80.88
106.98
147.32
196.47
244.59
282.79
306.77
292.33
276.04
257.37
238.45
219.27
198.91
177.07
154.73
133.44
114.49
102.55
92.88
84.77
78.14
74.08
74.52
80.94
92.32
104.01
111.41
103.05
74.27
27.15
-28.83
-79.69
-111.94
-117.8
-97.94
-58.83
-14.89
22.5
46.28
54.48
48.89
32.85
9.63
-17.97
-46.27
-73.11
-94.88
-108.58
-113.31
-110.96
-105.72
-102.5
-104.68
-112.24
-122.61
-130.62
-131.22
-121.96
-104.06
-82.01
-61.59
-47.36
-40.76
-40.07
-41.64
-41.96
-39.36
-34.1
-27.89
-22.68
-19.8
-19.84
-22.58
-26.87
-30.43
-29.98
-22.02
-4.63
21.07
50.79
78.08
96.88
103.46
97.31
80.61
57
30.31
4.04
-18.49
-34.64
-42.69
-42.84
-37.34
-29.68
-23.12
-19.46
-18.54
-18.86
-18.97
-18.22
-16.88
-15.59
-14.59
-13.27
-10.56
-5.43
2.1
10.96
19.36
25.42
28.05
27.5
25.72
25.79
30.7
42.29
60.37
82.68
105.22
122.88
130.24
122.79
98.54
59.35
11.21
-36.78
-75.51
-99.18
-107.85
-107.14
-105.23
-108.83
-120.03
-135.28
-147.64
-150.32
-139.68
-116.41
-85.05
-51.72
-22.01
0.41
14.34
20.24
19.73
14.89
7.97
1.29
-2.68
-1.73
5.42
19.09
38.03
59.83
81.72
101.24
117.02
129.29
139.4
148.99
159.14
169.57
178.63
183.8
181.93
169.99
145.85
109.28
63.28
14.73
-26.41
-49.2
-45.21
-11.49
48.56
126.3
210.48
289.01
350.82
386.82
391.95
366.5
316.16
250.66
180.53
113.74
53.08
-3.38
-59.68
-118.13
-177.86
-235.86
-289.12
-336.19
-373.21
-394.89
-396.61
-377.76
-341.93
-295.18
-243.88
-193.48
-147.84
-108.98
-78.82
-56.1
-39.89
-29.69
-25.28
-26.77
-34.34
-47.71
-65.79
-87.56
-111.14
-135.35
-159.43
-183.12
-206.84
-231.49
-257.73
-285.22
-311.93
-333.59
-344.84
-340.17
-315.87
-271.75
-211.54
-141.59
-69
0.34
62.88
116.7
161
195.59
220.47
236.07
243.58
245
242.79
239.57
237.47
237.81
240.52
243.43
242.4
232.66
210.99
177.68
137.2
96.6
63.04
41.22
32.07
33.54
42.42
55.54
70.19
83.39
91.24
89.61
75.68
49.77
16.06
-18.17
-45.11
-59.18
-58.73
-46.32
-27.64
-9.26
3.37
7.45
3.33
-6.1
-16.68
-24.33
-26.28
-21.66
-11.39
2.29
16.76
29.49
38.59
43.15
43.2
39.41
32.83
24.53
15.35
5.9
-3.45
-12.53
-21.15
-29.15
-36.47
-43
-48.53
-52.73
-55.22
-55.79
-54.68
-52.67
-50.8
-50.03
-50.84
-53.04
-55.84
-58.14
-58.92
-57.66
-54.57
-50.6
-46.9
-44.13
-41.92
-38.66
-32.18
-20.88
-4.64
14.74
34.06
49.81
59.53
62.4
59.49
53.12
45.83
39.56
34.96
31.43
27.64
22.53
15.91
8.82
2.88
-0.64
-1.6
-1.39
-2.12
-5.56
-12.04
-20.46
-28.69
-34.92
-38.48
-39.92
-40.67
-42.07
-44.55
-47.54
-49.96
-50.9
-50.24
-48.71
-47.15
-46.15
-45.54
-44.4
-41.73
-37.04
-30.7
-23.9
-18.02
-13.94
-11.69
-10.28
-8.27
-4.58
1.05
7.9
14.67
20.06
23.51
25.05
25.16
24.09
21.33
16.05
7.81
-2.88
-14.25
-23.77
-29.17
-29.42
-25.22
-19.01
-13.78
-12.1
-15.25
-22.88
-33.31
-44.22
-53.36
-59.1
-60.88
-59.08
-54.72
-49.01
-42.45
-34.44
-23.19
-6.16
19.05
53.55
96.31
143.72
189.89
228.01
251.79
257.28
244.01
215.02
175.77
132.53
90.81
54.32
25.17
4.39
-7.41
-9.6
-1.66
16.32
43.09
75.63
109.05
137.31
154.43
156.45
143.14
118.38
89.17
63.37
46.88
41.87
46.84
57.93
70.83
82.21
89.97
92.7
89.41
79.19
62.11
39.81
15.61
-6.23
-21.9
-29.84
-31.64
-31.44
-34.48
-44.56
-62.35
-85.2
-108.17
-126.38
-137.02
-140.36
-139.19
-137.49
-138.49
-143.7
-152.87
-164.5
-176.71
-187.84
-196.68
-202.26
-204.02
-201.52
-194.58
-183.41
-168.43
-150.31
-129.9
-108
-85.26
-62.52
-40.71
-21
-4.68
7.31
14.62
17.65
17.36
14.76
10.56
5.02
-1.54
-8.63
-15.18
-20.05
-22.58
-23.04
-22.72
-23.33
-26.08
-31.03
-37.24
-43.17
-47.71
-50.55
-52.05
-52.56
-51.99
-49.47
-43.83
-34.52
-21.95
-7.8
5.66
16.47
23.6
27.13
28.07
27.78
27.55
28.38
30.68
34.21
38.03
40.69
40.52
36.33
27.71
15.33
0.7
-14.29
-27.98
-39.41
-48.47
-55.79
-62.24
-68.59
-75.28
-82.17
-88.44
-92.72
-93.15
-87.98
-76.25
-58.55
-37.08
-15.07
4.66
21.02
35.29
50.38
69.19
92.72
119.13
144.32
163.71
174.29
176.06
172.1
167.29
166.4
172.29
185.14
202.99
223.17
243.87
264.47
284.82
304.33
321.63
335.19
344.31
349.76
353.24
356.2
358.63
358.12
351.11
334.74
308.11
271.87
227.56
176.8
121.35
63.82
6.46
-48.76
-100.23
-147.1
-190.06
-230.52
-269.18
-304.97
-333.7
-352.11
-358.74
-354.5
-343.03
-330.51
-323.13
-323.75
-329.74
-331.67
-321.26
-293.91
-249.92
-194.89
-139.37
-96.02
-76.26
-87.07
-126.8
-191.13
-272.48
-359.96
-429.97
-458.56
-431.62
-354.1
-263.59
-179.32
-109.62
-56.86
-16.29
15.19
39.96
60.13
77.37
93
109.95
127.04
141.39
151.82
159.49
166.34
173.24
179
181.44
180.95
177.24
170.71
162.78
154.49
145.17
132.66
114.81
91.32
65.51
40.43
17.93
-1.44
-17.8
-30.92
-39.35
-40.75
-33.42
-17.55
2.53
19.6
26.6
19.49
-1
-29.71
-58.87
-80.73
-89.63
-84.03
-66.48
-42.58
-19.26
-2.71
3.13
-2.43
-17.19
-37.18
-58.04
-76.12
-88.68
-93.93
-90.83
-79.62
-62.07
-41.38
-21.1
-3.53
11.6
27.23
47.6
75.86
112.14
152.98
192.97
227.14
253.25
272.29
287.17
300.31
311.51
317.68
314.07
296.93
265.39
222.22
172.59
122.17
75.49
35.03
1.82
-24.04
-42.84
-55.54
-63.99
-70.94
-79.15
-90.14
-103.34
-115.86
-123.9
-124.5
-117.18
-104.34
-90.41
-79.96
-75.89
-78.38
-85.06
-92.4
-97.52
-99.43
-99.14
-98.66
-99.49
-101.43
-102.59
-100.4
-93.11
-80.9
-65.73
-50.46
-37.47
-27.73
-20.78
-15.47
-10.83
-6.67
-3.36
-1.22
-0.01
1.13
3.16
6.61
11.06
15.42
18.37
19.02
17.27
13.78
9.64
5.89
3.28
1.99
1.76
1.88
1.36
-0.65
-4.61
-10.14
-16.04
-20.57
-22.25
-20.51
-16.08
-10.89
-7.32
-7.37
-11.92
-20.51
-31.67
-43.6
-54.85
-64.71
-73.23
-81.01
-88.76
-96.95
-105.45
-113.48
-119.78
-123.15
-122.85
-118.95
-112.29
-104.08
-95.35
-86.52
-77.4
-67.27
-55.28
-40.56
-22.4
-0.43
25.07
52.83
80.64
106.02
127.21
144.07
158.1
171.42
185.26
198.97
210.1
215.58
213.67
205.07
192.74
180.39
170.61
163.82
158.02
149.85
136.18
115.53
89.01
60.05
33.83
15.78
9.77
16.84
34.54
57.52
78.93
92.4
93.49
80.52
54.71
19.34
-21.48
-63.8
-104.41
-140.68
-169.86
-188.44
-192.11
-176.94
-141.16
-86.55
-18.52
55.22
126.86
190.5
242.75
282.19
308.71
322.86
326.12
320.83
309.67
294.63
275.75
251.01
217.31
172.47
116.57
52.79
-13.53
-76.59
-131.29
-174.1
-203.12
-217.68
-218.31
-207.04
-187.57
-164.95
-144.38
-129.38
-120.58
-115.73
-111.06
-103.4
-91.87
-77.99
-64.67
-54.63
-48.89
-46.78
-46.67
-47
-47.17
-47.38
-48.01
-49.09
-50.24
-50.86
-50.8
-50.5
-50.77
-52.62
-56.49
-61.96
-67.98
-73.37
-77.57
-80.94
-84.47
-89.04
-94.81
-100.84
-105.58
-107.81
-107.2
-104.37
-100.33
-95.65
-90.02
-82.78
-73.47
-62.37
-50.69
-39.92
-31.05
-24.23
-18.85
-14.03
-9.29
-4.72
-0.62
2.73
5.55
8.44
12.07
16.77
22.37
28.21
33.34
36.95
38.55
38.2
36.19
32.94
28.68
23.65
18.31
13.41
10.07
9
10.14
12.4
13.9
12.9
8.72
2.13
-4.85
-9.93
-11.68
-10.16
-6.59
-2.5
1.28
5.12
10.08
16.94
25.37
33.7
39.63
41.52
39.2
33.76
26.86
19.61
12.28
4.72
-2.98
-10.21
-16.05
-19.98
-22.05
-22.52
-21.16
-16.9
-8.38
4.8
20.99
36.46
46.72
48.51
41.34
27.52
10.97
-4.39
-15.98
-22.77
-24.89
-23.19
-19.08
-14.61
-12.23
-13.98
-20.13
-28.52
-34.99
-35.23
-27.33
-13.37
0.58
6.93
-0.02
-20.93
-50.79
-80.82
-102.35
-110.63
-106.82
-96.92
-88.49
-86.89
-92.7
-102
-108.98
-109.28
-102.2
-90.59
-78.44
-68.39
-60.73
-54.22
-48.23
-44.06
-44.5
-51.77
-65.11
-79.81
-88.51
-84.13
-62.73
-24.86
25.16
81.47
138.44
192.1
240.11
281.41
316.07
345.12
370.26
392.95
413.77
431.42
442.85
444.05
431.29
402.35
357.39
298.91
231.04
158.83
87.13
19.8
-40.59
-92.74
-136.23
-171.27
-198.63
-219.78
-236.58
-250.86
-263.62
-274.44
-281.74
-283.63
-278.84
-267.51
-251.04
-231.41
-210.46
-189.62
-169.95
-152.5
-137.94
-125.64
-113.19
-96.31
-70.38
-32.51
16.54
72.12
126.36
170.62
198.48
207.32
198.76
177.88
151.61
126.87
108.93
100.14
100.1
106.83
118.5
134.49
155.37
181.24
209.65
234.59
247.45
239.68
206.12
147.63
70.65
-15.11
-99.67
-175.29
-237.78
-285.19
-316.87
-331.97
-329.05
-307.13
-267.85
-217.56
-167.09
-128.78
-111.7
-117.65
-140.29
-167.94
-188.74
-195.12
-185.33
-162.12
-129.85
-92.19
-52.06
-12.39
23.51
52.13
71.43
81.47
83.68
80.05
72.22
61.51
49.66
39.66
34.67
37.11
46.9
60.98
74.81
84.14
87.34
86.04
83.91
84.68
90.62
101.8
116.39
131.48
143.26
147.14
138.22
112.36
67.71
6.23
-66.12
-140.68
-207.76
-258.57
-286.53
-288.22
-264.16
-218.84
-160.39
-98.79
-43.39
-0.19
29.49
48.48
61.42
72.04
82.05
90.81
96.76
98.7
96.66
91.74
85.61
79.97
75.91
73.79
73.08
72.74
71.71
69.19
64.82
58.51
50.45
41.02
30.64
19.78
8.99
-1.24
-10.61
-19.06
-26.82
-34.2
-41.58
-49.33
-57.7
-66.75
-76.24
-85.79
-94.74
-102.45
-108.36
-112.19
-114.04
-114.09
-112.35
-108.27
-100.91
-88.96
-71.39
-47.73
-18.29
16.24
55.01
97.33
142.41
188.58
233.02
272.01
302.21
321.68
329.94
326.83
311.17
280.56
232.51
166.97
88.28
5.08
-72.18
-134.97
-178.85
-203.34
-209.52
-197.68
-166.88
-116.71
-49.82
26.94
103.56
169.61
216.78
240.02
237.15
208.45
156.4
86.01
4.99
-77.38
-152.17
-212.77
-255.55
-279.16
-283.36
-268.85
-238.4
-197.9
-156.16
-122.75
-104.31
-101.64
-109.36
-118.45
-120.29
-110.62
-90.65
-65.7
-41.97
-23.48
-10.51
-0.53
9.74
22.26
36.71
51.54
65.22
77.19
87.5
95.92
101.01
100.66
93.71
81.52
68.35
59.5
58.23
63.47
69.9
70.43
60.01
37.94
7.66
-25.38
-56.34
-82.18
-101.1
-111.28
-110.75
-98.73
-77.66
-54.27
-37.71
-35.43
-49.14
-73.22
-97.31
-111.41
-110.82
-97.87
-79.69
-63.58
-52.9
-45.88
-37.69
-24.01
-3.74
20.94
46.63
71.36
95.83
122.46
153.28
188.1
224.3
258.4
287.88
312.23
331.89
346.24
351.85
342.64
312.37
257.79
181.04
89.58
-5.89
-94.48
-167.59
-219.94
-249.14
-255.24
-240.43
-209.01
-167.46
-123.3
-83.44
-52.27
-30.92
-17.64
-9.45
-3.85
0.3
2.69
2.44
-0.95
-7.08
-14.78
-22.67
-29.89
-36.49
-42.98
-49.82
-56.86
-62.99
-66.58
-66.2
-61.39
-53.1
-43.44
-34.83
-28.92
-25.97
-24.69
-23.22
-20.08
-14.9
-8.45
-1.88
4.08
9.58
15.23
21.49
27.85
32.84
34.73
32.57
26.78
19.18
12.12
7.39
5.44
5.34
5.43
4.41
2.04
-0.91
-3.1
-3.66
-2.7
-1.33
-0.88
-2.09
-4.58
-7.15
-8.5
-7.89
-5.59
-2.44
0.65
3.11
4.51
4.71
3.68
2.15
2.41
8.37
24.7
54.86
99.11
153.53
210.85
262.76
302.36
325.75
331.99
321.9
296.55
256.61
202.93
137.41
63.83
-12.56
-86.15
-152.37
-208.16
-251.87
-282.58
-299.36
-301.46
-288.94
-263.62
-229.26
-191.23
-154.92
-124.29
-101.03
-84.45
-72.43
-62.47
-52.63
-42
-30.54
-18.86
-7.78
1.79
9.06
13.42
14.77
13.81
11.89
10.66
11.3
13.91
17.42
20.28
21.27
20.25
18.09
16.18
15.68
17.15
20.54
25.39
31.15
37.1
42.46
46.39
48.29
48.04
45.89
42.16
36.95
30.1
21.68
12.82
6.14
5.09
12.25
27.72
48.1
67.68
81.02
85.78
84.65
84.37
92.38
112.38
141.9
172.63
193.94
197.29
179.21
141.64
89.85
29.62
-34.34
-98.29
-158.67
-211.77
-254.27
-284.36
-302.08
-308.69
-305.33
-292.28
-269.68
-239.09
-204.43
-171.28
-144.79
-127.21
-117.02
-109.8
-100.29
-84.53
-60.74
-28.75
11.06
57.81
109.83
163.98
216.03
261.98
299.37
327.27
345.29
352.22
345.25
320.99
277.12
214.27
137
53.04
-29.36
-103.12
-162.87
-204.59
-224.88
-222.05
-196.73
-152.42
-95.26
-33.8
23.28
69.98
104.81
131.28
154.89
180.58
210.24
241.05
264.29
267.96
241.48
180.37
89.08
-21.21
-135.77
-241.63
-322.89
-367.14
-370.66
-339.93
-291.43
-236.78
-183.71
-137.36
-99.99
-71.39
-49
-27.8
-2.04
32.05
74.15
117.94
153.9
173.89
175.19
160.83
137.98
114.52
95.98
84.05
75.69
65.72
49.76
26.33
-3.19
-35.25
-65.46
-89.73
-104.72
-109.2
-103.76
-90.54
-72.61
-53.55
-36.59
-23.73
-15.15
-9.18
-3.54
3.67
12.94
23.09
31.46
34.99
31.39
20.11
2.71
-17.74
-37.34
-52.53
-61
-62.06
-56.59
-46.37
-33.45
-19.67
-6.66
4.09
11.13
13.19
9.78
1.52
-9.87
-22
-32.64
-40.32
-44.59
-45.82
-44.93
-43.04
-41.29
-40.68
-41.69
-44.06
-46.84
-48.84
-49.09
-47.26
-43.38
-37.6
-29.68
-18.82
-3.96
15.81
40.98
71.6
107.2
146.75
188.17
228.07
261.79
283.98
289.8
275.92
241.37
187.6
118.22
38.52
-45.15
-125.87
-196.99
-252.94
-290.48
-309.3
-311.83
-302.24
-284.91
-263.27
-239.25
-213.56
-186.1
-156.58
-124.58
-89.67
-51.73
-11.64
27.98
62.95
88.91
103.26
106.33
101.23
92.21
82.49
73.2
63.39
51.19
35.17
15.23
-7.27
-29.78
-49.02
-61.44
-63.44
-51.98
-25.21
16.56
70.57
131.59
192.56
245.9
284.89
305.01
304.9
286.37
253.28
210.23
161.55
110.38
58.54
6.96
-43.26
-89.71
-127.58
-149.83
-148.95
-119.49
-60.94
20.93
114.88
207.07
284.94
340.31
370.56
377.48
365.25
338.05
299.42
252.42
200.39
147.28
97.08
52.48
13.95
-20.33
-52.99
-85.07
-114.8
-138.37
-152.44
-157.07
-156.8
-159.15
-171
-195.43
-230.2
-269.34
-306.48
-337.59
-361.64
-379.07
-389.44
-390.46
-379.19
-354.71
-320.17
-282.61
-250.45
-229.88
-222.53
-225.3
-231.98
-235.78
-231.11
-214.23
-183.16
-137.45
-78.41
-9.32
64.64
137.49
203.72
259.33
302.48
333.4
354.09
367.62
376.81
382.68
383.22
373.4
346.8
298.61
228.68
142.39
49.34
-40.22
-118.68
-182.65
-232.17
-268.56
-292.64
-304.44
-304.55
-294.99
-279.11
-259.85
-237.98
-211.77
-178.53
-137.03
-89.49
-41.72
-0.98
26.85
39.58
39.39
31.67
23.06
19.23
23.25
34.65
49.7
62.89
69.19
66.62
57.53
48.12
45.98
56.93
82.53
119.77
162.13
201.43
229.97
241.69
232.78
202.26
152.44
89.17
21.39
-40.55
-87.14
-111.88
-112.44
-90.2
-49.03
6
69.03
133.34
191.27
234.87
257.37
255.05
228.19
180.75
118.98
49.34
-22.69
-93.08
-158.87
-217.88
-268.74
-310.68
-343.28
-365.75
-376.4
-372.61
-352.01
-313.97
-260.95
-198.54
-134.02
-74.39
-24.08
15.48
45.36
67.42
83.24
93.89
100.74
106.48
115.08
130.67
155.27
186.98
219.32
243.02
249.07
232.28
193.51
139.85
82.67
34.19
3.96
-3.59
10.29
39.8
76.55
111.88
138.26
150.18
144.39
120.15
79.93
29.77
-21.02
-61.67
-82.65
-78.54
-49.72
-2.2
53.91
107.15
147.25
167.29
164.99
143.11
108.69
71.21
40.08
22.09
20.17
33.42
58.49
90.79
125.23
156.34
178.29
185.58
174.36
143.96
97.93
43.67
-9.33
-51.97
-77.93
-84.93
-74.78
-52.34
-24.03
3.56
24.6
34.54
30.48
11.35
-21.61
-64.98
-113.91
-163.29
-208.84
-247.62
-277.64
-297.24
-304.92
-300.01
-283.43
-258.2
-228.98
-200.52
-176.15
-157.06
-142.49
-131.13
-122.2
-115.81
-112.54
-112.61
-115.44
-119.88
-124.74
-129.48
-134.25
-139.59
-145.76
-152.41
-158.7
-163.76
-167.08
-168.49
-167.82
-164.72
-158.57
-148.71
-134.85
-117.08
-95.66
-70.43
-40.54
-4.75
37.47
85.06
134.86
182.29
223.02
254.5
276.92
292.73
305.29
317.2
329.27
340.38
348.18
350.14
344.21
329.35
305.56
274.01
236.9
197.48
159.5
126.15
98.88
76.13
53.54
25.08
-14.56
-67.66
-132.1
-202.01
-269.57
-327.46
-371.09
-399.31
-413.81
-417.13
-410.39
-392.09
-358.72
-306.9
-236.06
-150.34
-58.25
29.75
104.72
162.11
202.65
230.87
252.13
270.12
285.71
297.62
304.12
304.26
297.97
285.4
266.14
239.26
204.21
162.12
116.68
73.61
39.04
17.43
10.4
16.87
34.35
60.19
91.83
126
157.63
179.77
185.22
169.29
131.66
76.91
12.53
-53.92
-117.07
-174.07
-223.12
-261.78
-286.19
-292.58
-279.62
-250.19
-211.1
-170.64
-135.54
-108.69
-89.15
-73.76
-59.5
-44.97
-30.64
-17.99
-8.32
-2.32
0.13
-0.38
-3.01
-7
-11.6
-16.21
-20.42
-23.9
-26.47
-27.87
-28.07
-27.23
-25.83
-24.43
-23.44
-22.98
-22.81
-22.68
-22.42
-22.07
-21.63
-20.78
-18.82
-14.94
-8.67
-0.18
9.62
19.54
28.41
35.36
39.92
42.08
42.28
41.36
40.41
40.49
42.07
44.87
47.94
50.14
50.84
50.2
49.04
48.03
47.17
45.65
42.33
36.47
28.29
18.78
9.09
0.02
-8.29
-16.21
-24.1
-32.12
-40.15
-48.05
-55.81
-63.59
-71.39
-78.89
-85.5
-90.48
-93.11
-92.71
-88.8
-81.02
-69.4
-54.66
-38.49
-23.39
-11.96
-6.12
-6.14
-10.62
-16.96
-22.28
-24.53
-23.04
-18.66
-12.9
-7.39
-3.05
0.13
2.71
5.5
8.99
13.38
18.44
23.97
29.72
35.31
40.12
43.15
43.27
39.67
32.59
23.37
14.27
7.6
4.77
5.59
8.31
10.38
9.48
4.77
-2.84
-11.03
-17.36
-20.49
-20.63
-19.39
-18.47
-18.66
-19.35
-19
-16.15
-10.39
-2.59
5.85
13.58
19.87
24.58
27.79
29.53
29.84
29.04
27.73
26.78
26.77
27.69
29
29.97
30.01
28.89
26.74
23.76
20.2
16.34
12.77
10.38
10.11
12.7
18.17
25.99
35.21
44.95
54.64
64.02
72.84
80.66
86.9
91.05
93.2
93.95
94.19
94.47
94.5
93.07
88.61
79.95
67.14
51.56
35.47
21.04
9.54
0.99
-5.76
-12.35
-20.49
-31.44
-45.76
-63.35
-83.39
-104.32
-124.05
-140.19
-150.47
-153.44
-148.81
-137.65
-122.38
-106.22
-92.48
-83.88
-81.85
-86.17
-95.11
-105.7
-114.54
-118.62
-116.13
-106.87
-92.26
-74.77
-56.98
-40.76
-26.6
-13.7
-0.53
14.59
32.97
55.13
81.13
110.76
143.6
178.93
215.58
251.88
286.05
316.65
342.66
363.23
377.27
383.03
378.53
362.5
335.14
298.68
256.38
211.56
166.02
119.89
72.1
21.75
-31.3
-86.07
-140.45
-191.42
-235.06
-266.99
-282.95
-280.72
-260.68
-226.9
-185.75
-143.91
-106.31
-75.14
-50.31
-29.92
-12.47
3.29
17.41
29.51
39.31
47.01
53.14
57.9
61.91
64.24
63.12
55.03
35.75
2.07
-46.38
-106.28
-172.16
-236.68
-294.92
-334.72
-345.42
-321.99
-268.56
-196.71
-119.11
-52.63
0.89
42.02
71.66
89.45
94.89
89.7
76.16
57.54
35.89
13.25
-10.91
-37.37
-67.34
-101.54
-139.68
-180.34
-213.5
-230.42
-225.5
-200.38
-161.4
-116.6
-72.6
-33.31
-0.18
27.17
48.96
65.77
77.76
85.42
89.43
90.58
89.99
88.99
89.07
90.89
94.3
98.53
102.29
104.6
103.02
95.36
80.3
57.95
29.72
-3
-38.46
-75.24
-112.62
-150.17
-187.85
-226.42
-267.05
-310.53
-357.35
-405.46
-450.44
-487.06
-510.77
-519.99
-517.05
-507.16
-490.47
-470.26
-448.76
-426.39
-402.96
-376.99
-347.73
-315.64
-281.37
-241.96
-195.81
-143
-86.2
-30.95
20.91
68.76
112.33
152.4
196.3
247.82
305.13
361.21
404.26
431.8
445.19
447.29
443.03
447.79
472.03
516.96
575.22
630.91
681.3
727.53
770.62
812.98
869.02
946.48
1041.3
1139.2
1216.9
1269.6
1299.2
1308.1
1214
980.98
635.32
250.48
-51.05
-274.1
-440.09
-565.39
-671.61
-759.61
-813.53
-824.26
-796.65
-746.58
-699.16
-659.89
-627.54
-599.86
-567.59
-514.42
-433.38
-331.19
-223.47
-131.31
-58.45
-1.86
43.22
89.88
153.76
240.68
344.02
450.51
544.6
622.8
685.46
687.59
603.85
444.82
252.12
69.25
-79.51
-191.04
-269.64
-323.93
-363.39
-387.48
-392.96
-379.47
-352.18
-318.57
-285.67
-256.46
-232.07
-212.74
-192.71
-167.54
-136.89
-104.74
-75.8
-56.17
-47.38
-48.3
-56.46
-65.62
-70.53
-69.43
-64.1
-57.89
-53.5
-52.02
-53.81
-58.85
-65.3
-71.05
-75.02
-76.87
-76.73
-74.11
-68.17
-58.35
-45.22
-30.14
-14.79
-1.36
9.14
16.51
22.36
28.36
35.5
42.51
45.62
41.45
28.3
9.14
-10.52
-23.17
-24.17
-11.58
13.26
46.46
85.55
129.75
181.26
233.01
272.81
287.49
274.77
240.41
188.81
127.29
48.55
-51.15
-167.98
-290.76
-410.63
-513.47
-575.17
-580.09
-529.48
-443.26
-345.76
-263.99
-190.33
-113.56
-25.64
75.69
183.95
287.07
372.38
420.91
422.13
380.47
309.54
227.1
147.23
75.55
12.6
-43.07
-96.11
-145.65
-188.05
-222.94
-249.95
-266.79
-270.74
-253.83
-212.25
-145.9
-57.39
46.84
152.02
235.75
281.61
287.5
263.24
221.04
170.67
120.06
74.96
38.24
11.4
-4.74
-11.05
-10.83
-9.41
-11.6
-19.03
-31.05
-46.05
-61.7
-75.18
-84.33
-88.41
-88.58
-86.2
-81.96
-75.86
-67.73
-57.79
-46.46
-34.44
-22.44
-11.64
-2.65
4.53
10.31
15.17
18.88
20.88
21.04
20.54
21.24
25.5
35.2
51.4
74.23
102.33
133.74
164.1
191.74
216.38
238.61
258.87
277.38
294.14
306.96
310.95
299.53
266.52
207.49
122.13
15.38
-104.35
-218.17
-304.84
-351.13
-357.47
-334.48
-295.99
-252.27
-208.57
-166.58
-126.87
-91.03
-61.64
-39.75
-23.7
-10.61
3.28
20.65
42.26
66.44
89.88
107.5
115.48
112.31
97.93
74.25
44.13
10.27
-24.87
-59.6
-92.94
-123.61
-143.16
-147.9
-137.02
-111.75
-74.96
-30.18
18.84
68.38
115.42
158.4
195.46
225.74
249.74
267.64
279.63
286
287.01
283.15
275.67
265.19
252.58
239.09
225.99
214.14
204.33
196.99
192.29
189.36
191.3
198.33
209.63
223.47
237.29
248.55
255.22
256.43
252.24
243.06
229.12
211.23
190.46
166.9
140.68
112.41
83.46
55.25
28.62
3.51
-20.17
-42.14
-64.63
-88.85
-113.85
-136.32
-152.78
-161.76
-164.59
-164.42
-164.99
-175.72
-203.59
-249.61
-308.07
-370.23
-428.62
-478.82
-519.07
-549.05
-578.98
-618.03
-668.82
-726.52
-783.59
-834.64
-877.69
-912.88
-940.92
-975.54
-1029.2
-1105.2
-1196.1
-1289.6
-1375.2
-1447.4
-1504.2
-1463.2
-1277.2
-954.53
-557.77
-162.98
179.55
452.18
657.58
806.02
904.85
958.81
968.43
939.47
886.77
828.82
780.39
749.15
736.29
738.63
742.46
734.49
709.45
671.65
629.23
587.28
545.18
497.82
441.04
368.88
279.86
179.76
80.04
-7.56
-75.95
-123.96
-155.61
-174.6
-184.58
-186.6
-178.03
-153.98
-110.94
-50.24
25.57
100.53
154.5
174.32
161.02
126.5
84.95
45.98
12.64
-16.64
-45.54
-75.11
-102.86
-125.35
-140.28
-147.1
-145.93
-136.7
-119.34
-95.5
-68.04
-41.15
-20.69
-11.65
-13.61
-19.06
-15.95
6.45
51.35
113.57
181.94
243.9
290.32
317.55
326.57
320.44
302.72
277.02
248.71
224.23
208.64
202.65
201.3
195.57
176.54
139.73
87.06
26.59
-31.54
-79.56
-115.07
-140.63
-160.77
-179.4
-193.41
-197.51
-185.27
-153.88
-107.51
-57.91
-20.7
-9.67
-30.98
-80.47
-145.37
-208.09
-252.24
-267.34
-251.13
-208.46
-148.34
-80.08
-12.02
49.48
100.89
140.96
169.99
188.4
196.22
193.51
182.3
165.83
148.88
137.58
137.75
152.8
182.18
221.79
265.38
307.14
340.15
357.17
352.28
322.57
268.94
196.33
112.86
21.77
-64.76
-133.13
-174.73
-189.05
-181.47
-159.24
-129.24
-97.1
-66.33
-37.1
-9.41
16.52
40.09
61.09
78.3
89.87
93.88
90.27
82
71.89
62.03
53.05
44.47
34.64
21.55
2.31
-24.44
-54.1
-82.84
-108.45
-131.01
-152.06
-173.79
-197.85
-226.71
-260.11
-294.76
-326.61
-352
-368.57
-374.83
-370.84
-358.89
-346.26
-339.35
-340.19
-345.66
-348.2
-338.4
-308.16
-254.31
-165.32
-51.29
61.43
146.15
191.31
202.21
191.61
171.14
147.37
122.59
94.57
63.55
33.73
9.91
-3.81
-6.67
-0.55
10.94
24.38
35.26
41.98
46.1
50.97
59.55
73.18
92.34
115.09
140.66
167.82
196.33
225.65
253.22
273.87
281.05
270.19
241.14
199.11
151.54
106.06
67.67
37.36
12.94
-9.1
-31.23
-53.69
-74.68
-92.29
-105.45
-114.39
-120.26
-124.18
-126.56
-126.43
-122.27
-112.85
-98.35
-80.7
-62.71
-46.95
-34.44
-24.52
-15.51
-5.69
5.56
17.63
29.16
38.84
46.01
50.96
54.6
57.89
61.32
64.58
66.72
66.69
63.87
58.42
51.46
44.56
39.14
35.86
34.37
33.58
32.33
29.96
26.58
22.88
19.73
17.71
17.02
17.5
18.89
21
23.48
25.83
27.39
27.42
25.48
21.61
16.25
10.13
3.97
-1.81
-7.16
-12.24
-17.39
-22.93
-29.08
-35.92
-43.49
-51.75
-60.66
-70.24
-80.48
-91.38
-102.81
-114.33
-125.05
-133.62
-138.48
-138.35
-132.59
-121.47
-106.23
-88.7
-70.95
-54.85
-41.67
-31.84
-25.01
-20.12
-15.6
-9.67
-0.73
12.3
29.6
50.29
72.46
93.47
110.54
121.71
126.31
125.22
120.38
113.82
106.93
100.02
92.75
84.64
75.71
66.6
58.38
51.82
47.02
43.26
39.44
34.72
28.98
22.82
17
11.88
7.09
1.77
-4.76
-12.32
-19.74
-25.4
-28.2
-28.27
-27.06
-26.5
-28.1
-32.04
-37.14
-41.49
-43.34
-41.83
-37.07
-29.92
-21.4
-12.32
-3.22
5.62
14.05
21.95
29.15
35.55
40.91
45.02
47.59
48.41
47.32
44.42
39.98
34.48
28.58
22.84
17.7
13.25
9.28
5.46
1.56
-2.39
-6.21
-9.75
-13.15
-16.79
-21.03
-25.9
-30.82
-34.76
-36.67
-36
-32.94
-28.46
-23.88
-20.41
-18.77
-19.1
-21.04
-24.07
-27.57
-30.93
-33.53
-34.6
-33.34
-29.37
-22.98
-15.36
-8.26
-3.33
-1.38
-2.14
-4.3
-6.14
-6.3
-4.23
-0.39
4.06
7.79
9.93
10.31
9.87
10.35
13.61
20.99
32.36
45.97
58.79
67.63
70.14
65.63
55.08
40.55
24.46
8.85
-4.86
-15.87
-23.84
-28.7
-30.64
-30.16
-28.08
-25.25
-22.54
-20.38
-18.69
-16.93
-14.29
-10.14
-4.46
1.94
7.8
11.72
12.92
11.59
8.8
6.04
4.53
4.67
5.96
7.42
7.95
6.84
4.02
-0.05
-4.54
-8.51
-11.26
-12.37
-11.95
-10.53
-9
-8.36
-9.39
-12.23
-16.24
-20.15
-22.41
-21.82
-18.05
-11.77
-4.42
2.26
7.04
9.46
9.85
8.93
7.43
5.79
4.25
3.12
2.78
3.6
5.66
8.48
11.09
12.33
11.5
8.72
4.94
1.54
-0.28
-0.02
1.99
4.83
7.34
8.58
8.1
5.96
2.54
-1.57
-5.73
-9.3
-11.52
-11.68
-9.09
-3.38
5.26
15.81
26.63
35.8
41.71
43.61
41.65
36.73
29.97
22.25
14.03
5.4
-3.51
-12.32
-20.34
-26.94
-31.84
-35.35
-38.33
-41.73
-46.09
-51.16
-55.94
-59
-59.11
-55.66
-48.73
-39.03
-27.56
-15.39
-3.6
6.77
14.78
19.79
21.62
20.8
18.36
15.61
13.71
13.33
14.55
16.98
20
23.09
25.94
28.53
30.84
32.8
34.01
33.95
32.25
28.92
24.5
19.96
16.36
14.45
14.38
15.59
17.12
18.02
17.68
16.05
13.59
10.89
8.39
6.23
4.04
1.29
-2.35
-6.74
-11.11
-14.33
-15.47
-14.23
-11.17
-7.58
-5.08
-4.95
-7.95
-14.15
-23.03
-33.65
-44.55
-53.91
-59.83
-60.89
-56.6
-47.71
-36.04
-23.89
-13.4
-5.94
-1.92
-0.9
-1.89
-3.69
-5.14
-5.35
-3.84
-0.64
3.79
8.72
13.28
16.72
18.47
18.36
16.63
13.91
10.98
8.53
6.85
5.78
4.86
3.63
1.93
0.15
-1.01
-0.85
0.92
4
7.57
10.64
12.49
12.84
12.06
10.86
10
9.95
10.81
12.38
14.3
16.16
17.5
17.94
17.15
15.03
11.75
7.75
3.65
0.11
-2.37
-3.62
-3.68
-2.89
-1.79
-0.93
-0.91
-2.19
-4.89
-8.83
-13.52
-18.21
-22.19
-24.96
-26.07
-25.33
-22.81
-18.73
-13.61
-8.12
-2.84
1.89
6.01
9.69
13.02
15.86
17.92
18.85
18.55
17.22
15.23
12.91
10.5
8.02
5.57
3.54
2.35
2.3
3.27
4.62
5.55
5.38
3.91
1.51
-1.16
-3.36
-4.6
-4.55
-3.27
-1.05
1.53
3.65
4.51
3.66
1.3
-1.81
-4.5
-5.71
-4.92
-2.26
1.57
5.65
9.2
11.83
13.52
14.56
15.27
15.89
16.41
16.68
16.43
15.44
13.63
10.96
7.24
2.26
-4.19
-12.02
-20.65
-28.98
-35.74
-39.97
-41.44
-40.67
-38.68
-36.52
-34.77
-33.51
-32.35
-30.76
-28.44
-25.37
-21.74
-17.91
-14.25
-11.15
-8.98
-8.05
-8.47
-10.11
-12.59
-15.4
-18.09
-20.39
-22.35
-24.2
-26.19
-28.35
-30.48
-32.13
-32.93
-32.74
-31.66
-30.01
-28.09
-26.15
-24.38
-23.06
-22.49
-22.91
-24.25
-26.02
-27.46
-27.97
-27.52
-26.78
-26.93
-29.02
-33.57
-40.2
-47.83
-55.15
-61.28
-66.21
-70.66
-75.78
-82.37
-90.57
-99.84
-109.39
-118.64
-127.42
-135.46
-141.35
-142.2
-134.24
-114.67
-83.67
-45.04
-4.99
30.66
58.9
80.16
96.65
109.79
118.7
120.98
115.53
104.66
94.17
90.69
98.21
116.12
140.08
164.99
187.98
209.57
232.15
257.4
284.1
307.87
322.66
323.33
307.71
277.11
236.05
190.49
146.12
106.96
74.61
48.6
27.4
9.71
-4.93
-16.35
-24.55
-30.38
-35.63
-42.34
-51.77
-63.59
-75.95
-86.2
-92.02
-92.38
-87.85
-80.22
-71.63
-63.62
-56.68
-50.38
-44.03
-37.34
-30.67
-25
-21.27
-19.9
-20.5
-22.03
-23.29
-23.41
-22.18
-19.92
-17.17
-14.34
-11.66
-9.23
-7.22
-5.94
-5.65
-6.43
-8
-9.72
-10.89
-10.98
-9.92
-7.98
-5.57
-3.06
-0.7
1.29
2.55
2.67
1.36
-1.38
-4.99
-8.52
-10.9
-11.38
-9.82
-6.82
-3.42
-0.73
0.43
-0.01
-1.54
-3.24
-4.2
-3.89
-2.31
0.15
2.84
5.07
6.26
5.98
4.02
0.48
-4.16
-9.13
-13.48
-16.56
-18.23
-18.79
-18.82
-18.84
-19.02
-19.28
-19.37
-19.06
-18.25
-16.88
-14.88
-12.31
-9.41
-6.66
-4.66
-3.85
-4.2
-5.28
-6.37
-6.73
-6.12
-4.68
-2.83
-1.1
0.19
1.02
1.55
2.09
2.88
3.98
5.34
6.86
8.54
10.53
13.14
16.75
21.57
27.54
34.07
40.23
45.01
47.62
47.85
46.18
43.49
40.67
38.34
36.68
35.56
34.9
34.64
34.82
35.29
35.46
34.26
30.36
22.69
10.88
-4.45
-21.82
-39.2
-54.5
-66.02
-72.62
-73.81
-69.7
-61.01
-48.99
-35.42
-22.16
-10.83
-2.29
3.52
7.5
10.86
14.74
19.9
26.59
34.75
44.01
53.7
62.82
69.98
73.58
72.29
65.65
54.47
40.82
27.57
17.58
12.96
14.43
21.21
31.34
42.24
51.45
57.09
58.1
53.89
44.06
27.99
4.97
-25.4
-62.7
-105.31
-150.82
-196.66
-240.64
-280.85
-315.15
-340.51
-353.27
-350.36
-330.78
-296.78
-253.46
-206.96
-162.2
-121.17
-83.05
-45.7
-7.62
31.03
68.55
102.84
132.52
157.21
177.14
192.54
203.55
210.32
213.56
214.55
214.56
214.1
212.28
207.46
198.48
185.9
172.2
160.66
153.57
150.65
149.11
144.82
134.18
115.6
89.76
58.63
24.22
-12.35
-50.91
-91.35
-132.7
-172.72
-208.19
-235.9
-253.62
-260.58
-257.49
-246.01
-227.99
-205.12
-178.87
-150.75
-122.51
-96.12
-73.3
-55.07
-41.46
-31.52
-23.86
-17.25
-10.93
-4.81
0.67
5.02
7.92
9.4
9.93
10.14
10.68
11.94
13.82
15.75
17.05
17.2
16.16
14.46
12.99
12.5
13.29
15.08
17.31
19.38
20.98
22.05
22.63
22.74
22.22
20.99
19.25
17.59
16.8
17.58
20.09
23.9
28.18
31.97
34.64
36.09
36.6
36.57
36.29
35.74
34.57
32.36
28.86
24.23
19.11
14.39
10.94
9.19
9.04
9.84
10.74
11.04
10.39
8.88
6.72
4.23
1.64
-0.86
-2.98
-4.35
-4.76
-4.2
-2.99
-1.74
-0.99
-1.07
-1.95
-3.32
-4.68
-5.69
-6.14
-6.05
-5.64
-5.15
-4.78
-4.62
-4.69
-4.87
-4.98
-4.85
-4.27
-3.14
-1.48
0.48
2.39
3.79
4.38
4.16
3.54
3.18
3.67
5.23
7.5
9.72
10.92
10.35
7.85
3.82
-0.85
-5.08
-8.04
-9.33
-9.02
-7.67
-6
-4.59
-3.74
-3.3
-2.95
-2.34
-1.33
-0.04
1.21
2.13
2.54
2.45
2.04
1.47
0.84
0.14
-0.65
-1.52
-2.3
-2.8
-2.9
-2.58
-1.97
-1.36
-0.91
-0.8
-0.97
-1.18
-1.14
-0.57
0.69
2.6
4.86
7.07
8.69
9.29
8.72
7.16
5.05
2.95
1.33
0.34
-0.02
-0.01
0.08
0.06
-0.19
-0.65
-1.3
-2.1
-3.05
-4.12
-5.27
-6.4
-7.39
-8.16
-8.67
-8.92
-8.97
-8.87
-8.66
-8.39
-8.15
-8.02
-8.16
-8.66
-9.49
-10.41
-11.04
-10.94
-9.79
-7.54
-4.36
-0.7
2.93
6.03
8.3
9.58
9.91
9.52
8.69
7.75
7.05
6.84
7.25
8.25
9.63
11.07
12.13
12.38
11.52
9.49
6.49
2.93
-0.72
-4.1
-6.95
-9.11
-10.49
-11.03
-10.69
-9.52
-7.75
-5.73
-3.87
-2.5
-1.71
-1.41
-1.27
-0.89
0.01
1.55
3.6
5.94
8.25
10.32
11.98
13.1
13.55
13.14
11.78
9.61
7.05
4.69
3.1
2.5
2.73
3.29
3.62
3.36
2.53
1.46
0.55
0.12
0.19
0.55
0.93
1.12
1.1
0.99
1.05
1.38
1.98
2.61
2.97
2.76
1.82
0.15
-2.12
-4.66
-7.11
-8.99
-9.97
-9.89
-8.8
-6.99
-4.77
-2.43
-0.1
2.22
4.64
7.21
9.85
12.31
14.17
15.07
14.69
12.88
9.79
5.77
1.29
-3.11
-7.02
-10.24
-12.81
-15.01
-17.2
-19.7
-22.55
-25.57
-28.38
-30.61
-32.14
-33.06
-33.55
-33.8
-33.8
-33.49
-32.86
-31.96
-30.9
-29.78
-28.51
-26.8
-24.34
-20.9
-16.49
-11.41
-6.11
-1.15
2.99
6.08
8.08
9.28
10.18
11.29
13.11
15.97
19.91
24.74
30.09
35.35
39.93
43.23
44.85
44.63
42.69
39.37
35.21
30.8
26.6
22.95
19.93
17.4
15.11
12.77
10.18
7.36
4.49
1.78
-0.65
-2.92
-5.4
-8.46
-12.18
-16.22
-19.77
-21.85
-21.71
-19.12
-14.44
-8.47
-2.22
3.41
7.73
10.42
11.47
11.15
10.02
8.76
8
8.15
9.15
10.73
12.39
13.75
14.58
14.82
14.47
13.49
11.79
9.17
5.65
1.47
-2.83
-6.67
-9.52
-11.26
-12.12
-12.62
-13.27
-14.31
-15.61
-16.73
-17.27
-17.01
-16.18
-15.28
-14.84
-15.09
-15.86
-16.61
-16.71
-15.71
-13.66
-10.94
-8.2
-6.02
-4.72
-4.34
-4.58
-5.09
-5.44
-5.37
-4.72
-3.49
-1.72
0.4
2.62
4.59
6.1
7.06
7.61
8.02
8.59
9.56
10.98
12.79
14.73
16.59
18.13
19.22
19.77
19.77
19.3
18.42
17.21
15.67
13.85
11.77
9.55
7.33
5.17
2.97
0.45
-2.66
-6.41
-10.45
-14.04
-16.32
-16.63
-14.84
-11.31
-6.8
-2.08
2.21
5.76
8.53
10.59
12.15
13.43
14.8
16.44
18.38
20.27
21.56
21.62
20.04
16.85
12.5
7.65
2.91
-1.31
-4.93
-7.9
-10.26
-11.95
-12.98
-13.4
-13.4
-13.13
-12.71
-12.15
-11.33
-10.13
-8.52
-6.7
-4.95
-3.57
-2.89
-3.06
-4
-5.49
-7.08
-8.2
-8.37
-7.28
-4.92
-1.61
2.08
5.48
7.99
9.33
9.55
9
8.22
7.77
8.06
9.24
11.18
13.56
15.98
18.14
19.77
20.67
20.62
19.44
17.08
13.68
9.62
5.5
1.89
-0.76
-2.35
-3.14
-3.65
-4.38
-5.66
-7.47
-9.39
-10.97
-11.82
-11.8
-11.2
-10.5
-10.15
-10.35
-11.07
-12.01
-12.86
-13.27
-12.98
-11.77
-9.63
-6.71
-3.41
-0.25
2.21
3.66
4.1
3.86
3.42
3.23
3.53
4.31
5.56
7.2
9.17
11.39
13.6
15.36
16.17
15.65
13.67
10.46
6.52
2.4
-1.34
-4.32
-6.37
-7.62
-8.36
-8.99
-9.79
-10.79
-11.75
-12.27
-11.97
-10.68
-8.54
-5.97
-3.49
-1.55
-0.43
-0.25
-0.93
-2.28
-4.01
-5.72
-6.9
-7.13
-6.15
-3.91
-0.74
2.76
5.92
8.11
8.99
8.48
6.87
4.67
2.62
1.42
1.46
2.85
5.2
7.87
10.22
11.73
12.16
11.51
9.98
7.84
5.52
3.43
1.98
1.36
1.46
1.88
2.1
1.68
0.55
-0.97
-2.43
-3.43
-3.83
-3.84
-3.78
-4
-4.66
-5.82
-7.41
-9.29
-11.24
-12.83
-13.62
-13.16
-11.27
-8.11
-4.19
-0.27
2.93
4.94
5.65
5.34
4.53
3.79
3.52
3.88
4.72
5.7
6.48
6.84
6.74
6.3
5.61
4.7
3.54
2.12
0.53
-1.02
-2.23
-2.87
-2.8
-2.16
-1.29
-0.53
-0.11
-0.04
-0.09
0.07
0.64
1.68
2.95
3.98
4.3
3.55
1.7
-1
-4.11
-7.08
-9.44
-10.87
-11.32
-10.83
-9.64
-7.98
-6.18
-4.52
-3.25
-2.45
-2.05
-1.78
-1.32
-0.39
1.13
3.16
5.44
7.72
9.78
11.51
12.88
13.85
14.35
14.31
13.77
12.84
11.77
10.86
10.26
9.98
9.81
9.32
8.12
5.96
2.79
-1.2
-5.67
-10.31
-14.88
-19.27
-23.5
-27.54
-31.3
-34.4
-36.36
-36.58
-34.65
-30.39
-24.06
-16.22
-7.69
0.72
8.32
14.59
19.33
22.54
24.54
25.85
27.03
28.47
30.35
32.53
34.79
36.96
38.97
40.78
42.27
43.1
42.8
41.03
37.69
33
27.3
20.99
14.4
7.97
2.27
-1.89
-3.78
-3.16
-0.42
3.43
6.97
8.98
8.67
5.75
0.41
-6.85
-15.5
-24.87
-34.32
-43.34
-51.57
-58.79
-64.86
-69.47
-72.19
-72.62
-70.66
-66.66
-61.41
-55.76
-50.19
-44.52
-38.15
-30.39
-20.99
-10.27
0.91
11.66
21.36
29.79
37.17
43.8
49.74
54.83
58.7
60.96
61.4
59.98
56.74
51.64
44.71
36.17
26.57
16.91
8.34
1.85
-2.3
-4.66
-6.5
-9.25
-13.84
-20.25
-27.43
-33.71
-37.3
-37.01
-32.5
-24.34
-13.73
-2.2
8.59
16.95
21.55
22.16
20.26
19.63
25.37
42.01
70.91
108.72
147.53
177.33
189.7
180.51
151.39
108.05
57.89
8.26
-35.17
-68.47
-89.78
-99.54
-101.14
-100.22
-102.83
-112.87
-129.17
-145.33
-151.78
-140.13
-107.38
-58.09
-2.94
45.2
76.08
85.44
75.07
51.02
20.49
-10.43
-37.8
-59.04
-72.48
-77.25
-73.47
-63.34
-50.4
-38.79
-32.36
-33.35
-41.96
-56.49
-73.87
-90.17
-101.95
-107.36
-106.48
-101.68
-96.45
-93.75
-94.72
-98.13
-101.09
-100.95
-96.66
-89.6
-82.63
-78.22
-76.75
-76.05
-72.43
-62.8
-46.36
-25.01
-2.22
18.7
36.12
49.96
60.98
69.76
76.53
81.71
86.48
92.41
100.19
108.4
113.22
109.72
94.3
66.62
29.89
-10.18
-47.83
-78.98
-101.63
-115.13
-118.78
-111.33
-91.59
-59.69
-18.14
28.24
73.49
112.1
140.48
157.47
163.82
161.23
151.53
136.27
116.79
94.73
72.09
51.25
34.35
22.73
16.7
15.54
17.89
22.18
26.91
30.86
33.18
33.43
31.67
28.38
24.36
20.46
17.22
14.79
12.92
11.15
9.22
7.22
5.68
5.05
5.36
5.98
5.84
3.87
-0.45
-6.8
-14.11
-20.96
-26.19
-29.39
-30.89
-31.45
-31.84
-32.38
-32.92
-33.14
-32.93
-32.82
-33.68
-36.39
-41.14
-47.29
-53.69
-59.52
-64.93
-71.09
-79.14
-88.97
-98.66
-105.18
-106.09
-101.02
-92.09
-82.65
-75.39
-70.94
-67.87
-63.96
-57.44
-47.52
-33.48
-14.15
12.82
49.73
97.14
152.41
209.45
259.81
294.38
305.98
291.76
255.28
206.58
159.81
128.28
119.43
132.17
157.9
185.39
206.04
217.19
221.41
222.97
223.9
222.29
213.95
195.7
168.35
137.12
109.48
91.73
86.03
89.82
96.79
99.85
93.96
77.94
54.52
28.56
4.51
-15.58
-32.35
-48.37
-66.33
-87.9
-113.04
-140.18
-166.92
-190.87
-210.27
-224.08
-232.02
-234.4
-232.26
-227.28
-221.81
-218.57
-220.01
-227.48
-240.59
-257.07
-273.04
-284.07
-286.25
-277.38
-257.61
-229.48
-197.18
-165.42
-138.02
-116.57
-99.85
-84.54
-66.7
-43.9
-16.43
12.68
39
58.58
69.8
73.65
72.81
70.38
68.41
67.68
67.9
68.42
68.8
68.9
68.6
67.72
65.94
62.96
58.91
54.32
49.99
46.91
45.72
46.51
48.75
51.27
52.72
52.09
49.09
44.21
38.45
32.72
27.52
22.85
18.48
14.36
10.78
8.29
7.21
7.39
8.13
8.53
7.93
6.17
3.65
1.05
-1.01
-2.13
-2.14
-1.11
0.8
3.15
5.22
6.04
4.78
1.18
-4.13
-9.56
-13.22
-13.57
-10.16
-3.82
3.64
10.28
14.72
16.47
15.95
13.94
11.19
8.12
5.02
2.18
0.04
-0.9
-0.45
1.12
3.06
4.42
4.37
2.45
-1.38
-6.81
-13.19
-19.76
-25.59
-29.72
-31.45
-30.44
-27.02
-22.05
-16.73
-12.14
-9.05
-7.65
-7.6
-8.06
-7.98
-6.39
-2.81
2.6
8.99
15.1
19.86
22.78
24.16
24.71
25.02
25.19
24.71
22.96
19.62
15.11
10.38
6.36
3.54
1.73
0.41
-0.73
-1.45
-1.1
0.86
4.22
7.86
10.13
9.6
5.88
-0.25
-7.1
-12.88
-16.46
-17.72
-17.28
-16.01
-14.53
-13
-11.29
-9.3
-7.14
-5.21
-3.84
-3.05
-2.35
-1.01
1.46
4.87
8.37
10.89
11.75
11.12
9.97
9.57
10.78
13.62
17.24
20.45
22.41
22.92
22.34
21.21
19.77
17.86
15.14
11.5
7.27
3.32
0.65
-0.09
1.1
3.42
5.56
6.24
4.69
0.86
-4.6
-10.65
-16.23
-20.55
-23.25
-24.36
-24.11
-22.82
-20.82
-18.54
-16.32
-14.53
-13.35
-12.83
-12.74
-12.62
-11.98
-10.51
-8.23
-5.53
-3
-1.08
0.06
0.74
1.58
3.1
5.56
8.72
12.03
14.71
16.19
16.12
14.4
11.22
6.99
2.38
-1.66
-4.09
-4.16
-1.73
2.5
7.07
10.33
10.99
8.73
4.19
-1.37
-6.65
-10.78
-13.47
-14.81
-15.06
-14.49
-13.25
-11.71
-10.35
-9.64
-9.8
-10.62
-11.52
-11.74
-10.84
-8.72
-5.79
-2.68
0.03
1.99
3.16
3.8
4.46
5.79
8.33
12.2
16.94
21.56
24.85
25.89
24.4
20.82
16.09
11.23
7.01
3.95
2.3
2.22
3.7
6.38
9.52
12.06
12.98
11.66
8.2
3.29
-2.1
-7.02
-10.83
-13.16
-13.83
-12.9
-10.73
-7.99
-5.55
-4.18
-4.24
-5.52
-7.41
-9.19
-10.4
-10.98
-11.1
-10.93
-10.45
-9.43
-7.6
-4.84
-1.31
2.57
6.23
9.11
10.72
10.94
10
8.37
6.56
4.97
3.7
2.74
2
1.49
1.39
1.91
3.08
4.7
6.4
7.69
8.27
8.04
7.06
5.55
3.81
2.14
0.82
0.04
-0.27
-0.4
-0.66
-1.34
-2.47
-3.84
-5.18
-6.32
-7.33
-8.43
-9.71
-11.08
-12.24
-12.81
-12.6
-11.66
-10.25
-8.7
-7.25
-6.01
-5.06
-4.56
-4.65
-5.47
-7.01
-8.95
-10.73
-11.73
-11.45
-9.75
-6.91
-3.44
0.1
3.31
6.1
8.38
9.96
10.46
9.39
6.59
2.48
-1.8
-4.82
-5.39
-3.21
1.04
5.97
10.17
12.81
13.92
14.1
13.99
13.97
14.02
13.96
13.69
13.36
13.19
13.34
13.68
13.91
13.71
12.9
11.59
10.01
8.37
6.76
5.02
2.92
0.36
-2.57
-5.49
-7.88
-9.23
-9.38
-8.48
-7.08
-5.8
-5.06
-4.94
-5.23
-5.67
-6.05
-6.43
-6.93
-7.63
-8.44
-9.05
-9.18
-8.72
-7.76
-6.46
-4.92
-3.06
-0.84
1.6
3.91
5.53
6.05
5.39
3.87
2.08
0.65
-0.01
0.14
0.87
1.73
2.26
2.14
1.24
-0.41
-2.63
-5.07
-7.42
-9.29
-10.38
-10.45
-9.39
-7.26
-4.47
-1.62
0.66
1.91
1.96
0.96
-0.75
-2.72
-4.6
-6.07
-6.89
-7.02
-6.61
-5.96
-5.45
-5.23
-5.08
-4.46
-2.76
0.35
4.68
9.54
14.01
17.19
18.49
17.77
15.36
11.83
7.94
4.43
1.92
0.75
0.95
2.19
3.92
5.6
6.83
7.45
7.53
7.29
6.89
6.42
5.89
5.17
4.19
2.88
1.28
-0.61
-2.75
-5.13
-7.68
-10.22
-12.48
-14.11
-14.88
-14.77
-14.08
-13.31
-12.93
-13.14
-13.66
-14
-13.51
-11.79
-8.77
-4.8
-0.53
3.35
6.29
8.05
8.62
8.26
7.33
6.26
5.41
4.98
5.06
5.57
6.37
7.3
8.15
8.69
8.68
7.85
6.02
3.21
-0.43
-4.51
-8.66
-12.49
-15.71
-18.09
-19.34
-19.3
-17.84
-15.22
-11.88
-8.47
-5.65
-3.84
-3.19
-3.51
-4.49
-5.79
-7.14
-8.33
-9.15
-9.33
-8.62
-6.89
-4.22
-0.94
2.47
5.49
7.78
9.28
10.21
10.96
11.81
13
14.55
16.52
18.9
21.61
24.35
26.45
27.09
25.52
21.64
16.07
10.02
4.68
0.73
-1.97
-4.14
-6.64
-9.97
-14.03
-18.35
-22.37
-25.69
-28.19
-29.72
-29.97
-28.53
-25.01
-19.42
-12.23
-4.27
3.65
10.9
17.29
22.77
27.23
30.2
30.93
28.84
23.86
16.84
9.28
2.87
-1.14
-2.26
-0.79
2.56
7.05
12.1
17.34
22.33
26.56
29.46
30.69
30.34
28.93
27.1
25.23
23.34
21.03
17.93
13.83
8.87
3.33
-2.43
-8.19
-13.73
-18.78
-23
-26.07
-27.82
-28.4
-28.21
-27.69
-27.17
-26.62
-25.72
-24.09
-21.49
-17.93
-13.8
-9.7
-6.25
-3.79
-2.25
-1.21
-0.25
0.96
2.41
3.87
5.15
6.26
7.45
9.06
11.12
13.21
14.56
14.43
12.56
9.37
5.83
2.99
1.56
1.55
2.42
3.4
3.84
3.47
2.25
0.37
-1.97
-4.52
-7.06
-9.33
-11.1
-12.3
-12.95
-13.19
-13.11
-12.68
-11.78
-10.35
-8.48
-6.47
-4.61
-3.09
-1.9
-0.91
-0.02
0.72
1.3
1.78
2.46
3.74
5.81
8.51
11.19
13.03
13.35
12.09
9.75
7.22
5.42
5.07
6.54
9.78
14.13
18.43
21.09
20.55
15.86
7.2
-4.02
-15.56
-25.05
-30.89
-32.49
-30.29
-25.3
-18.73
-11.6
-4.8
0.95
5.2
7.8
9.15
9.96
11.04
12.9
15.49
18.23
20.4
21.53
21.67
21.25
20.83
20.67
20.6
20.23
19.19
17.44
15.3
13.27
11.75
10.81
10.14
9.19
7.37
4.39
0.36
-4.14
-8.32
-11.37
-12.8
-12.55
-11.03
-8.89
-6.86
-5.38
-4.6
-4.47
-4.89
-5.98
-7.98
-11.09
-15.14
-19.52
-23.29
-25.56
-25.91
-24.58
-22.35
-20.07
-18.26
-16.96
-15.86
-14.66
-13.29
-11.95
-10.83
-9.97
-9.18
-8.3
-7.45
-7.05
-7.64
-9.41
-12.07
-14.72
-16.39
-16.43
-14.81
-12.22
-9.5
-7.43
-6.34
-6.08
-6.25
-6.49
-6.56
-6.44
-6.19
-5.79
-5.12
-3.91
-1.89
1.05
4.72
8.72
12.58
16
19.03
22.04
25.57
30.02
35.41
41.26
46.75
51.03
53.47
53.9
52.53
49.68
45.62
40.49
34.4
27.66
20.77
14.39
9.03
4.71
0.96
-2.84
-7.17
-12.02
-16.96
-21.43
-24.97
-27.5
-29.18
-30.24
-30.79
-30.79
-30.36
-29.83
-29.65
-30.2
-31.4
-32.71
-33.39
-32.93
-31.4
-29.45
-27.83
-26.96
-26.64
-26.1
-24.57
-21.71
-17.87
-13.85
-10.46
-8.03
-6.37
-4.95
-3.19
-0.86
2
5.06
8.03
10.78
13.4
16.06
18.83
21.56
23.84
25.25
25.59
24.99
23.95
23.12
23.04
23.86
25.2
26.35
26.56
25.28
22.51
18.67
14.5
10.82
8.17
6.7
6.11
5.75
4.82
2.68
-0.96
-5.81
-11.13
-15.97
-19.33
-20.61
-19.63
-16.66
-12.33
-7.46
-2.92
0.56
2.44
2.59
1.17
-1.4
-4.67
-8.21
-11.66
-14.62
-16.65
-17.35
-16.51
-14.34
-11.33
-8.18
-5.49
-3.45
-2
-0.84
0.28
1.4
2.32
2.75
2.46
1.42
-0.05
-1.51
-2.39
-2.27
-0.96
1.36
4.24
7.14
9.57
11.36
12.49
13.13
13.44
13.43
13.05
12.22
10.94
9.26
7.28
5.02
2.55
-0.04
-2.6
-4.84
-6.53
-7.42
-7.42
-6.53
-4.8
-2.29
0.94
4.68
8.58
11.95
14.01
13.92
11.19
5.92
-1.13
-8.66
-15.3
-19.98
-22.28
-22.4
-20.98
-18.8
-16.47
-14.33
-12.47
-10.8
-9.23
-7.67
-6.11
-4.59
-3.23
-2.09
-1.24
-0.65
-0.22
0.11
0.39
0.67
0.98
1.43
2.12
3.05
4.03
4.67
4.51
3.29
1.07
-1.67
-4.27
-6.19
-7.21
-7.51
-7.47
-7.5
-7.78
-8.3
-8.89
-9.35
-9.54
-9.36
-8.73
-7.67
-6.28
-4.74
-3.35
-2.34
-1.69
-1.18
-0.44
0.93
3.18
6.31
10.13
14.12
17.72
20.37
21.67
21.5
20
17.53
14.59
11.73
9.29
7.5
6.33
5.44
4.44
3
1.03
-1.31
-3.69
-5.89
-7.86
-9.79
-12
-14.61
-17.46
-20.27
-22.77
-24.85
-26.61
-28.12
-29.38
-30.41
-31.21
-31.96
-32.83
-33.75
-34.29
-33.72
-31.35
-26.97
-21.09
-14.74
-9.03
-4.63
-1.43
1.15
3.75
6.63
9.54
11.97
13.46
13.85
13.36
12.42
11.4
10.53
9.68
8.65
7.2
5.23
2.87
0.49
-1.36
-2.11
-1.32
1.11
4.91
9.5
14.2
18.42
21.76
24.13
25.69
26.89
28.35
30.69
34.25
38.94
44.02
48.37
50.85
50.65
47.64
42.24
35.16
27.06
18.35
9.31
0.23
-8.41
-16.09
-22.34
-27.11
-30.68
-33.53
-36.07
-38.36
-40.02
-40.45
-39.19
-36.24
-32.13
-27.8
-24.12
-21.62
-20.14
-19.08
-17.52
-14.76
-10.55
-5.18
0.64
6.19
10.86
14.48
17.18
19.23
20.86
22.14
23.01
23.34
23.2
22.72
22.11
21.47
20.68
19.44
17.46
14.66
11.28
7.8
4.68
2.23
0.47
-0.86
-2.09
-3.5
-5.13
-6.85
-8.39
-9.54
-10.19
-10.43
-10.48
-10.55
-10.77
-11.05
-11.05
-10.32
-8.55
-5.75
-2.36
0.95
3.62
5.45
6.74
8.05
9.92
12.45
15.27
17.63
18.84
18.66
17.39
15.86
15.02
15.48
17.26
19.72
21.83
22.62
21.61
18.89
15.06
10.88
6.9
3.26
-0.24
-3.9
-7.84
-11.87
-15.53
-18.38
-20.19
-20.99
-21.08
-20.77
-20.26
-19.45
-18.08
-15.91
-12.89
-9.3
-5.71
-2.73
-0.85
-0.22
-0.63
-1.67
-2.94
-4.24
-5.59
-7.15
-8.98
-10.92
-12.61
-13.59
-13.52
-12.29
-10.1
-7.32
-4.38
-1.54
1.04
3.4
5.71
8.21
11.22
15.01
19.72
25.19
31.06
36.67
41.31
44.37
45.49
44.56
41.72
37.24
31.46
24.78
17.67
10.62
4.17
-1.22
-5.34
-8.34
-10.74
-13.22
-16.31
-20.2
-24.5
-28.55
-31.73
-33.68
-34.56
-34.7
-34.37
-33.46
-31.54
-28.03
-22.59
-15.48
-7.43
0.52
7.41
12.68
16.28
18.61
20.28
21.83
23.55
25.35
26.89
27.71
27.44
26.03
23.69
20.93
18.22
15.85
13.93
12.27
10.73
9.21
7.7
6.33
5.13
3.95
2.57
0.74
-1.67
-4.53
-7.5
-10.12
-12.03
-13.11
-13.52
-13.5
-13.31
-13.14
-12.95
-12.67
-12.15
-11.33
-10.36
-9.49
-9.05
-9.25
-10.15
-11.5
-12.82
-13.57
-13.34
-12.15
-10.42
-8.72
-7.55
-6.98
-6.68
-6.17
-5.17
-3.79
-2.49
-1.75
-1.73
-2.05
-1.98
-0.77
1.8
5.3
8.86
11.5
12.63
12.2
10.66
8.67
6.83
5.49
4.78
4.71
5.32
6.64
8.58
10.91
13.16
14.76
15.2
14.23
11.99
8.94
5.8
3.21
1.62
1.19
1.83
3.22
4.88
6.24
6.63
5.58
2.88
-1.22
-5.97
-10.38
-13.51
-14.85
-14.46
-12.84
-10.64
-8.47
-6.7
-5.55
-5.09
-5.26
-5.92
-6.73
-7.3
-7.31
-6.71
-5.63
-4.34
-2.99
-1.5
0.33
2.62
5.19
7.66
9.57
10.72
11.3
11.78
12.57
13.72
14.91
15.58
15.37
14.27
12.63
10.84
9.09
7.21
4.79
1.44
-2.89
-7.84
-12.74
-16.84
-19.65
-21.08
-21.22
-20.37
-18.72
-16.39
-13.47
-10.14
-6.75
-3.73
-1.53
-0.31
-0.01
-0.31
-0.77
-0.99
-0.76
-0.05
1.04
2.33
3.74
5.28
7.12
9.34
11.85
14.36
16.36
17.35
16.99
15.26
12.4
8.85
5.06
1.31
-2.3
-5.85
-9.47
-13.36
-17.54
-21.95
-26.32
-30.19
-33.05
-34.36
-33.79
-31.36
-27.51
-22.9
-18.32
-14.45
-11.7
-10.13
-9.56
-9.66
-10.09
-10.59
-10.88
-10.74
-9.9
-8.25
-5.82
-2.79
0.49
3.62
6.17
7.75
8
6.69
3.79
-0.42
-5.33
-9.99
-13.43
-14.92
-14.21
-11.56
-7.64
-3.19
1.12
4.9
7.94
10.18
11.57
12.04
11.51
10.02
7.78
5.13
2.54
0.41
-1
-1.69
-1.76
-1.44
-0.98
-0.53
-0.21
-0.13
-0.35
-0.92
-1.79
-2.75
-3.38
-3.25
-1.95
0.66
4.35
8.52
12.41
15.34
16.91
17.08
16.11
14.43
12.51
10.71
9.37
8.63
8.46
8.65
8.83
8.61
7.74
6.18
4.05
1.58
-1.05
-3.74
-6.35
-8.74
-10.67
-11.93
-12.47
-12.42
-12.05
-11.65
-11.33
-11.05
-10.68
-10.24
-9.8
-9.5
-9.26
-8.76
-7.48
-4.98
-1.31
2.91
6.68
9.1
9.79
9.09
7.81
6.75
6.39
6.66
7.21
7.7
8.08
8.44
8.88
9.26
9.14
8.09
5.95
3.13
0.48
-1.15
-1.22
0.09
2.02
3.62
4.2
3.51
1.84
-0.34
-2.62
-4.76
-6.67
-8.21
-9.19
-9.44
-8.92
-7.85
-6.5
-5.03
-3.41
-1.42
1.04
3.81
6.4
8.32
9.28
9.44
9.24
9.08
9.02
8.89
8.45
7.75
7.2
7.24
8.07
9.23
9.89
9.14
6.71
3.13
-0.44
-2.71
-3.04
-1.59
0.77
2.99
4.39
4.78
4.39
3.36
1.68
-0.84
-4.16
-7.69
-10.32
-10.85
-8.65
-3.96
2.11
8.25
13.38
17.14
19.65
21.09
21.48
20.48
17.78
13.47
8.28
3.31
-0.45
-2.56
-3.3
-3.35
-3.45
-3.92
-4.74
-5.82
-7.28
-9.49
-12.86
-17.48
-22.83
-27.98
-31.93
-34.08
-34.45
-33.46
-31.63
-29.25
-26.44
-23.21
-19.85
-16.85
-14.73
-13.71
-13.51
-13.47
-12.89
-11.44
-9.19
-6.54
-3.72
-0.61
3.23
8.15
14.06
20.31
25.95
30.18
32.69
33.72
33.8
33.41
32.83
32.07
31.16
30.23
29.51
29.17
29.15
29.18
28.85
27.88
26.18
23.86
21.2
18.45
15.76
13.21
10.83
8.7
6.98
5.86
5.45
5.77
6.68
8
9.52
10.99
12.2
12.9
12.86
11.96
10.21
7.81
5.07
2.34
-0.08
-2.03
-3.43
-4.22
-4.4
-4.08
-3.58
-3.38
-4.09
-6.17
-9.72
-14.51
-19.91
-25.15
-29.58
-32.77
-34.46
-34.64
-33.39
-30.9
-27.5
-23.52
-19.31
-15.04
-10.62
-5.73
-0.13
6.23
12.97
19.35
24.65
28.4
30.65
31.97
33.09
34.6
36.65
38.94
40.92
42.21
42.75
42.92
43.36
44.57
46.74
49.56
52.31
54
53.91
51.66
47.56
42.38
36.99
32.17
28.23
24.98
21.76
17.81
12.46
5.33
-3.51
-13.6
-24.23
-34.62
-44.08
-52.25
-59.14
-65.15
-70.97
-77.41
-85.07
-94.06
-103.78
-112.87
-119.6
-122.36
-120.15
-112.84
-101.23
-86.76
-71.31
-57.04
-45.99
-39.6
-37.97
-39.56
-41.47
-40.44
-34.63
-24.46
-12.64
-2.83
2.13
1.57
-2.85
-8.27
-11.9
-12.44
-10.07
-5.97
-1.28
3.3
7.68
11.94
15.78
18.6
19.56
18.26
15.07
11.18
8.17
6.98
7.64
8.99
9.38
7.57
3.31
-2.46
-8.19
-12.23
-13.63
-12.35
-9.1
-4.93
-0.87
2.49
5.04
6.9
8.46
9.91
11.26
12.16
12.39
11.86
10.9
10.12
9.96
10.54
11.37
11.73
10.88
8.56
5.27
2.02
-0.06
-0.11
1.92
5.36
9.07
11.97
13.52
14.03
14.35
15.37
17.44
19.89
21.44
20.83
17.48
11.91
5.36
-0.88
-6.11
-10.47
-14.71
-19.42
-24.47
-28.91
-31.11
-29.54
-23.46
-13.11
0.11
14.01
26.28
35.14
39.57
39.64
36.16
30.28
23.32
16.49
10.64
6.3
3.48
1.49
-0.6
-3.73
-8.3
-13.91
-19.67
-24.43
-27.43
-28.59
-28.45
-27.83
-27.42
-27.53
-27.91
-28.27
-28.38
-28.16
-27.8
-27.46
-27.15
-26.75
-26.07
-25.01
-23.6
-22.02
-20.41
-18.77
-17
-14.93
-12.32
-9.1
-5.3
-1.16
3.04
6.98
10.43
13.36
15.81
17.8
19.32
20.17
20.16
19.22
17.31
14.45
10.63
5.87
0.28
-5.82
-11.94
-17.57
-22.35
-26.14
-29.01
-31.04
-32.27
-32.58
-31.87
-30.07
-27.16
-23.17
-18.24
-12.59
-6.64
-1.1
3.29
6.05
7.19
7.4
7.68
9.01
12.05
16.86
23.08
30.1
37.41
44.72
51.98
59.32
66.96
75.04
83.51
91.97
99.73
105.83
109.29
109.39
105.86
98.88
89.08
77.36
64.75
52.23
40.62
30.32
21.36
13.46
6.26
-0.37
-6.07
-10.21
-12.27
-12.22
-10.86
-9.46
-9.35
-11.17
-14.62
-18.5
-21.28
-21.76
-19.51
-14.86
-8.61
-1.67
5.27
11.65
16.98
20.65
22.04
20.82
17.15
11.84
6.12
1.25
-1.85
-2.84
-2.02
-0.08
2.27
4.4
6.08
7.43
8.65
9.93
11.14
11.81
11.33
9.27
5.6
0.81
-4.26
-8.84
-12.5
-15.32
-17.72
-20.11
-22.55
-24.69
-25.89
-25.65
-23.88
-21.07
-18.01
-15.42
-13.64
-12.37
-10.99
-8.91
-5.94
-2.56
0.33
1.76
1.19
-1.19
-4.55
-7.73
-9.77
-10.23
-9.29
-7.57
-5.77
-4.3
-3.19
-2.27
-1.34
-0.41
0.3
0.47
-0.11
-1.49
-3.53
-6
-8.7
-11.49
-14.33
-17.13
-19.83
-22.31
-24.53
-26.45
-28
-29.11
-29.56
-29.18
-27.75
-25.2
-21.65
-17.43
-13.02
-8.88
-5.34
-2.45
-0.12
1.85
3.73
5.61
7.56
9.64
11.93
14.42
17.08
19.66
21.86
23.48
24.47
25.03
25.5
26.14
27.02
27.93
28.45
28.12
26.63
23.96
20.38
16.36
12.43
9.05
6.48
4.73
3.62
2.75
1.71
0.15
-2.03
-4.72
-7.52
-10
-11.79
-12.77
-12.99
-12.64
-11.97
-11.18
-10.44
-9.86
-9.57
-9.64
-10.01
-10.53
-10.88
-10.73
-9.85
-8.2
-5.96
-3.47
-1.18
0.56
1.51
1.71
1.43
1.08
1.08
1.68
2.85
4.21
5.23
5.36
4.29
2.11
-0.7
-3.49
-5.67
-6.89
-7.22
-7.08
-7
-7.38
-8.27
-9.4
-10.28
-10.49
-9.73
-8.02
-5.47
-2.38
0.94
4.1
6.65
8.15
8.38
7.43
5.74
4
2.83
2.52
3.02
4.01
5.15
6.2
7.14
7.9
8.44
8.59
8.17
7.11
5.56
3.8
2.24
1.2
0.86
1.16
1.79
2.26
2.14
1.16
-0.53
-2.55
-4.43
-5.94
-7.1
-8.17
-9.42
-10.76
-11.84
-12.13
-11.23
-9.18
-6.51
-3.92
-2.05
-1.22
-1.29
-1.93
-2.72
-3.27
-3.45
-3.18
-2.52
-1.6
-0.55
0.46
1.26
1.79
2.11
2.32
2.53
2.76
2.85
2.58
1.85
0.69
-0.58
-1.57
-1.94
-1.63
-0.9
-0.23
-0.17
-0.96
-2.62
-4.88
-7.33
-9.56
-11.27
-12.28
-12.5
-11.96
-10.74
-9.04
-7.16
-5.37
-3.92
-2.86
-2.11
-1.44
-0.66
0.37
1.72
3.37
5.3
7.41
9.52
11.39
12.75
13.37
13.16
12.13
10.37
7.91
4.73
0.82
-3.64
-8.3
-12.64
-16.14
-18.48
-19.66
-19.93
-19.68
-19.25
-18.82
-18.4
-17.91
-17.16
-16.03
-14.45
-12.41
-9.98
-7.28
-4.39
-1.33
1.9
5.29
8.78
12.15
15.24
17.91
20.1
21.87
23.22
24.11
24.44
24.15
23.23
21.67
19.52
16.8
13.57
9.97
6.25
2.7
-0.43
-3.08
-5.36
-7.51
-9.74
-12.04
-14.25
-16.07
-17.31
-17.95
-18.23
-18.49
-18.98
-19.72
-20.42
-20.68
-20.16
-18.82
-16.99
-15.2
-14.08
-14.05
-15.34
-17.97
-21.9
-26.95
-32.7
-38.48
-43.43
-46.84
-48.4
-48.42
-47.6
-46.64
-45.65
-43.94
-40.02
-32.17
-19.19
-0.89
21.52
45.62
68.3
86.47
97.82
101.55
98.61
91.41
82.87
75.36
69.89
65.91
61.77
55.69
46.61
34.6
20.66
6.11
-7.83
-20.2
-30.13
-36.75
-39.32
-37.69
-32.54
-25.49
-18.64
-13.85
-12.04
-12.9
-15.15
-17.14
-17.51
-15.76
-12.19
-7.66
-3.04
1.11
4.67
7.77
10.45
12.44
13.32
12.86
11.42
10.1
10.31
13.1
18.53
25.45
31.91
35.99
36.69
34.42
30.82
27.94
27.37
29.44
33.08
36.41
37.58
35.71
31.31
25.93
21.44
19.04
18.7
19.24
18.91
16.28
10.96
3.62
-4.41
-11.79
-17.64
-21.65
-23.81
-24.09
-22.32
-18.51
-13.17
-7.59
-3.62
-3.1
-7.11
-15.43
-26.6
-38.38
-48.51
-55.38
-58.26
-57.2
-52.76
-45.78
-37.17
-28.09
-19.79
-13.47
-10.1
-10.11
-13.24
-18.63
-24.97
-30.79
-34.75
-35.95
-34.11
-29.68
-23.61
-17.15
-11.49
-7.41
-5.1
-4.32
-4.56
-5.35
-6.35
-7.32
-8.07
-8.41
-8.2
-7.4
-6.26
-5.23
-4.86
-5.5
-7.04
-8.87
-10.02
-9.53
-6.82
-1.8
5.13
13.4
22.54
32.3
42.48
52.68
61.98
69.06
72.46
71.1
64.53
52.92
36.85
16.99
-5.84
-30.41
-54.65
-75.67
-90.2
-95.51
-90.49
-76.02
-54.81
-30.53
-6.77
13.87
29.96
41.15
47.73
50.23
49.17
45.12
38.7
30.75
22.14
13.71
6.08
-0.35
-5.44
-9.16
-11.51
-12.47
-12.01
-10.23
-7.46
-4.29
-1.37
0.69
1.63
1.59
1.02
0.52
0.47
1.04
1.98
2.87
3.23
2.83
1.76
0.3
-1.14
-2.32
-3.09
-3.45
-3.43
-3.06
-2.35
-1.37
-0.3
0.64
1.18
1.18
0.67
-0.19
-1.16
-2.07
-2.76
-3.16
-3.12
-2.54
-1.29
0.65
3.24
6.27
9.31
11.84
13.37
13.66
12.78
11.11
9.21
7.54
6.39
5.75
5.42
5.18
4.88
4.48
4.02
3.56
3.19
2.98
3.02
3.32
3.76
4.12
4.2
3.83
3.02
1.92
0.72
-0.38
-1.36
-2.31
-3.43
-4.88
-6.74
-8.93
-11.24
-13.36
-14.96
-15.79
-15.67
-14.59
-12.69
-10.18
-7.36
-4.53
-1.98
0.09
1.56
2.44
2.93
3.26
3.64
4.18
4.88
5.58
6.09
6.35
6.29
5.99
5.47
4.74
3.73
2.48
1.03
-0.43
-1.68
-2.62
-3.22
-3.59
-3.87
-4.17
-4.5
-4.81
-5.04
-5.17
-5.3
-5.52
-5.94
-6.52
-7.2
-7.75
-8
-7.77
-6.9
-5.4
-3.27
-0.64
2.33
5.39
8.25
10.65
12.43
13.63
14.41
15.03
15.7
16.53
17.54
18.65
19.79
20.84
21.66
21.97
21.46
19.87
17.15
13.52
9.44
5.43
1.93
-0.92
-3.22
-5.23
-7.13
-8.97
-10.56
-11.66
-12.06
-11.83
-11.3
-10.92
-11.11
-11.95
-13.23
-14.45
-15.11
-14.76
-13.22
-10.57
-7.04
-2.99
1.14
4.87
7.77
9.48
9.86
9.08
7.54
5.78
4.32
3.47
3.3
3.58
3.98
4.21
4.13
3.81
3.41
3.11
2.93
2.76
2.43
1.87
1.11
0.34
-0.22
-0.5
-0.61
-0.76
-1.2
-2.01
-3.03
-3.96
-4.5
-4.56
-4.32
-4.12
-4.34
-5.18
-6.54
-8.13
-9.49
-10.22
-10.08
-8.98
-7.04
-4.51
-1.7
1.07
3.53
5.43
6.64
7.14
6.99
6.43
5.7
5.07
4.64
4.41
4.23
3.94
3.5
2.91
2.33
1.77
1.26
0.74
0.22
-0.33
-0.88
-1.43
-2.02
-2.66
-3.33
-3.87
-4.12
-3.91
-3.26
-2.32
-1.35
-0.67
-0.47
-0.92
-1.98
-3.51
-5.16
-6.53
-7.17
-6.73
-5.23
-2.96
-0.53
1.45
2.61
2.87
2.5
1.92
1.49
1.35
1.53
1.81
2.06
2.2
2.29
2.42
2.62
2.81
2.79
2.49
2.01
1.65
1.75
2.48
3.64
4.71
5.06
4.33
2.59
0.36
-1.71
-3.13
-3.81
-3.95
-3.9
-3.83
-3.77
-3.63
-3.4
-3.26
-3.61
-4.75
-6.7
-9.03
-11.01
-11.92
-11.35
-9.47
-6.82
-4.11
-1.87
-0.32
0.66
1.29
1.74
2.11
2.41
2.64
2.83
2.99
3.12
3.14
3.03
2.79
2.53
2.43
2.63
3.18
3.96
4.77
5.33
5.43
4.93
3.83
2.31
0.62
-0.95
-2.2
-3.03
-3.47
-3.59
-3.56
-3.54
-3.71
-4.17
-4.88
-5.69
-6.23
-6.13
-5.04
-2.91
0.01
3.2
6.06
8.08
9.06
9.09
8.5
7.67
6.87
6.2
5.63
5.1
4.63
4.28
4.05
3.93
3.71
3.2
2.31
1.12
-0.12
-1.14
-1.69
-1.73
-1.35
-0.77
-0.25
0.05
0.06
-0.15
-0.47
-0.8
-1.09
-1.49
-2.08
-3.05
-4.47
-6.27
-8.23
-10.03
-11.27
-11.57
-10.8
-8.92
-6.21
-3.07
-0.02
2.53
4.3
5.16
5.17
4.47
3.32
1.99
0.78
-0.14
-0.73
-1.04
-1.18
-1.25
-1.26
-1.11
-0.75
-0.19
0.53
1.21
1.71
1.92
1.86
1.6
1.28
0.99
0.8
0.7
0.63
0.55
0.4
0.12
-0.4
-1.24
-2.48
-4.06
-5.76
-7.2
-7.93
-7.6
-6.11
-3.61
-0.43
2.93
5.96
8.23
9.49
9.72
9.17
8.22
7.29
6.67
6.45
6.54
6.75
6.95
7.02
6.89
6.46
5.61
4.27
2.56
0.82
-0.57
-1.29
-1.28
-0.8
-0.27
-0.12
-0.6
-1.64
-2.96
-4.23
-5.29
-6.16
-7.12
-8.43
-10.21
-12.3
-14.31
-15.74
-16.15
-15.35
-13.39
-10.6
-7.44
-4.38
-1.77
0.16
1.42
2.16
2.58
2.91
3.24
3.62
4.03
4.42
4.72
4.86
4.72
4.23
3.39
2.27
1
-0.31
-1.52
-2.51
-3.27
-3.81
-4.16
-4.36
-4.45
-4.45
-4.31
-4
-3.45
-2.81
-2.29
-2.15
-2.5
-3.32
-4.33
-5.1
-5.28
-4.59
-2.96
-0.57
2.23
4.99
7.23
8.63
9.11
8.79
7.92
6.84
5.78
4.81
3.85
2.85
1.9
1.15
0.8
0.9
1.33
1.85
2.19
2.27
2.18
2.12
2.25
2.6
3.01
3.24
3.07
2.48
1.6
0.65
-0.16
-0.8
-1.39
-2.18
-3.42
-5.21
-7.33
-9.28
-10.5
-10.54
-9.3
-6.97
-3.97
-0.78
2.2
4.63
6.3
7.05
6.88
6.01
4.82
3.78
3.25
3.34
3.87
4.54
5.07
5.36
5.47
5.52
5.54
5.45
5.14
4.49
3.53
2.37
1.17
0.02
-1.1
-2.19
-3.26
-4.21
-4.93
-5.32
-5.43
-5.5
-5.8
-6.61
-7.97
-9.63
-11.07
-11.71
-11.08
-9.09
-6.04
-2.48
0.97
3.86
6.05
7.52
8.39
8.74
8.65
8.3
7.93
7.81
8.1
8.75
9.53
10.15
10.4
10.17
9.53
8.59
7.4
5.98
4.41
2.8
1.42
0.47
0.04
0.09
0.4
0.71
0.84
0.71
0.35
-0.07
-0.44
-0.73
-1.03
-1.58
-2.51
-3.77
-5.07
-5.93
-5.9
-4.74
-2.57
0.23
3.14
5.71
7.72
9.05
9.71
9.7
9.11
8.1
7.04
6.37
6.46
7.5
9.33
11.51
13.49
14.82
15.26
14.9
13.96
12.75
11.49
10.23
8.93
7.42
5.59
3.43
1.08
-1.24
-3.36
-5.17
-6.79
-8.38
-10.09
-11.98
-14
-16.02
-17.99
-19.9
-21.78
-23.61
-25.21
-26.24
-26.29
-25.05
-22.42
-18.57
-13.88
-8.85
-3.95
0.47
4.17
7.01
8.81
9.42
8.67
6.55
3.27
-0.74
-4.9
-8.65
-11.69
-13.95
-15.63
-16.97
-18.22
-19.45
-20.67
-21.82
-22.91
-23.96
-25.01
-25.98
-26.67
-26.74
-25.68
-23.14
-19
-13.59
-7.58
-1.9
2.6
5.46
6.81
7.31
7.81
9.12
11.65
15.37
19.87
24.53
28.77
32.14
34.46
35.66
35.79
34.99
33.43
31.29
28.75
26.06
23.44
21.14
19.33
18.11
17.37
16.85
16.15
14.96
13.14
10.72
7.96
5.09
2.35
-0.25
-2.77
-5.32
-7.91
-10.39
-12.58
-14.27
-15.35
-15.82
-15.77
-15.43
-15.02
-14.77
-14.84
-15.26
-15.82
-16.18
-15.93
-14.72
-12.42
-9.11
-5.11
-0.82
3.3
6.9
9.71
11.54
12.31
12.1
11.13
9.7
8.18
6.93
6.18
5.98
6.23
6.69
7.06
7.14
6.79
6.02
5
3.89
2.76
1.67
0.54
-0.7
-2.08
-3.57
-5.06
-6.44
-7.6
-8.46
-8.94
-9.08
-9.03
-9
-9.25
-9.86
-10.75
-11.57
-11.84
-11.15
-9.34
-6.61
-3.44
-0.4
2.03
3.62
4.42
4.6
4.38
3.97
3.53
3.23
3.27
3.8
4.88
6.4
8.16
9.83
11.27
12.45
13.42
14.22
14.79
14.89
14.23
12.62
10.07
6.88
3.41
0.06
-2.96
-5.6
-7.93
-9.92
-11.49
-12.51
-12.93
-12.87
-12.57
-12.25
-11.99
-11.68
-11.01
-9.75
-7.78
-5.21
-2.31
0.55
3.08
5.08
6.38
6.92
6.67
5.72
4.3
2.82
1.71
1.27
1.62
2.55
3.71
4.68
5.19
5.2
4.8
4.23
3.65
3.2
2.85
2.55
2.17
1.63
0.9
0.01
-0.96
-1.85
-2.56
-3.03
-3.29
-3.49
-3.78
-4.31
-5.16
-6.29
-7.57
-8.72
-9.43
-9.46
-8.65
-6.97
-4.56
-1.7
1.29
4.05
6.29
7.87
8.72
8.94
8.65
8.02
7.23
6.43
5.7
5.05
4.44
3.73
2.78
1.49
-0.07
-1.72
-3.15
-4.18
-4.76
-4.99
-5.07
-5.17
-5.35
-5.61
-5.88
-6.07
-6.21
-6.28
-6.28
-6.22
-6.13
-6.08
-6.14
-6.35
-6.57
-6.53
-5.88
-4.39
-2.02
0.99
4.22
7.18
9.5
10.98
11.56
11.34
10.47
9.12
7.5
5.83
4.33
3.12
2.27
1.67
1.21
0.78
0.32
-0.17
-0.61
-0.89
-0.97
-0.86
-0.69
-0.6
-0.7
-0.97
-1.34
-1.68
-1.89
-1.97
-2.11
-2.47
-3.21
-4.35
-5.8
-7.39
-8.92
-10.23
-11.05
-11.16
-10.31
-8.45
-5.68
-2.4
0.96
3.99
6.39
8.07
9.08
9.47
9.32
8.76
7.93
7.11
6.49
6.21
6.21
6.3
6.2
5.68
4.61
3.09
1.38
-0.22
-1.5
-2.45
-3.22
-3.99
-4.82
-5.67
-6.33
-6.64
-6.49
-5.96
-5.15
-4.33
-3.67
-3.29
-3.3
-3.69
-4.33
-4.97
-5.32
-5.03
-3.95
-2.08
0.39
3.08
5.58
7.5
8.59
8.85
8.48
7.73
6.92
6.28
5.93
5.95
6.27
6.82
7.42
7.89
8.03
7.68
6.81
5.53
4.09
2.72
1.57
0.61
-0.24
-1.08
-1.92
-2.69
-3.32
-3.75
-4
-4.1
-4.13
-4.17
-4.39
-4.93
-5.88
-7.21
-8.67
-9.82
-10.2
-9.51
-7.71
-5.05
-2.04
0.87
3.25
4.88
5.74
5.95
5.74
5.33
4.89
4.52
4.3
4.21
4.29
4.46
4.62
4.63
4.39
3.84
2.99
1.95
0.77
-0.46
-1.76
-3.09
-4.4
-5.56
-6.47
-7.12
-7.54
-7.86
-8.08
-8.2
-8.2
-8.05
-7.85
-7.79
-8.04
-8.69
-9.61
-10.47
-10.85
-10.4
-8.93
-6.53
-3.54
-0.44
2.32
4.41
5.76
6.47
6.71
6.71
6.58
6.42
6.27
6.21
6.19
6.12
5.91
5.36
4.43
3.16
1.73
0.36
-0.72
-1.49
-2.04
-2.56
-3.23
-4.12
-5.16
-6.16
-6.85
-7.02
-6.62
-5.79
-4.85
-4.17
-3.95
-4.18
-4.57
-4.71
-4.25
-3.05
-1.2
1.01
3.22
5.18
6.74
7.78
8.29
8.23
7.64
6.7
5.63
4.63
3.84
3.27
2.83
2.53
2.41
2.6
3.19
4.1
5.03
5.67
5.75
5.2
4.21
2.99
1.71
0.38
-1.08
-2.67
-4.29
-5.75
-6.87
-7.63
-8.22
-8.89
-9.82
-11
-12.1
-12.71
-12.5
-11.32
-9.38
-7.1
-4.9
-3.07
-1.64
-0.43
0.77
2.04
3.31
4.4
5.12
5.51
5.71
5.91
6.23
6.62
6.9
6.89
6.48
5.77
5
4.35
3.87
3.48
3.01
2.33
1.43
0.42
-0.49
-1.12
-1.42
-1.41
-1.24
-1.14
-1.33
-2.01
-3.22
-4.81
-6.47
-7.68
-7.9
-6.84
-4.56
-1.43
1.97
5.03
7.36
8.82
9.52
9.69
9.48
8.99
8.25
7.34
6.34
5.4
4.58
3.88
3.17
2.33
1.33
0.18
-1
-2.11
-3
-3.63
-3.97
-4.06
-3.98
-3.74
-3.42
-3.04
-2.63
-2.14
-1.57
-0.96
-0.44
-0.26
-0.62
-1.69
-3.37
-5.25
-6.74
-7.28
-6.52
-4.49
-1.62
1.46
4.12
5.96
6.87
6.96
6.51
5.76
4.99
4.36
4
3.96
4.22
4.7
5.24
5.65
5.75
5.46
4.77
3.81
2.74
1.65
0.59
-0.51
-1.74
-3.2
-4.89
-6.69
-8.37
-9.66
-10.38
-10.49
-10.17
-9.67
-9.35
-9.45
-9.97
-10.66
-11.03
-10.63
-9.12
-6.52
-3.13
0.55
3.97
6.78
8.78
9.97
10.32
9.92
8.86
7.3
5.56
3.92
2.61
1.65
0.92
0.2
-0.6
-1.4
-2.04
-2.33
-2.33
-2.15
-2.09
-2.29
-2.77
-3.35
-3.8
-3.97
-3.86
-3.65
-3.49
-3.51
-3.69
-3.94
-4.19
-4.41
-4.65
-4.9
-5.07
-4.94
-4.22
-2.74
-0.49
2.26
5.05
7.38
8.9
9.5
9.25
8.41
7.22
5.91
4.65
3.54
2.67
2.09
1.8
1.72
1.75
1.8
1.79
1.7
1.5
1.23
0.89
0.45
-0.14
-0.93
-1.9
-3
-4.08
-4.97
-5.53
-5.76
-5.77
-5.72
-5.77
-6
-6.43
-6.88
-7.1
-6.78
-5.63
-3.52
-0.56
2.94
6.51
9.68
12.14
13.79
14.59
14.62
13.93
12.6
10.73
8.53
6.25
4.18
2.53
1.34
0.56
0.05
-0.35
-0.79
-1.31
-1.9
-2.46
-2.92
-3.22
-3.35
-3.41
-3.53
-3.77
-4.14
-4.55
-4.81
-4.84
-4.68
-4.45
-4.42
-4.75
-5.39
-6.08
-6.42
-5.97
-4.51
-2.09
1.01
4.33
7.43
9.98
11.72
12.5
12.3
11.17
9.36
7.22
5.17
3.57
2.57
2.01
1.55
0.87
-0.17
-1.41
-2.55
-3.3
-3.58
-3.52
-3.46
-3.56
-3.78
-3.83
-3.31
-2.02
-0.15
1.9
3.59
4.55
4.75
4.39
3.74
2.99
2.12
1
-0.44
-2.03
-3.44
-4.21
-4.08
-3.02
-1.31
0.63
2.41
3.78
4.69
5.25
5.63
5.98
6.35
6.74
7.11
7.4
7.6
7.69
7.67
7.56
7.28
6.81
6.08
5.07
3.83
2.43
0.91
-0.71
-2.43
-4.24
-6.05
-7.7
-9
-9.79
-10.05
-9.94
-9.72
-9.69
-10.03
-10.67
-11.35
-11.66
-11.25
-9.99
-7.97
-5.38
-2.43
0.7
3.95
7.21
10.26
12.79
14.53
15.31
15.25
14.69
14
13.48
13.23
13.17
13.06
12.71
11.94
10.73
9.14
7.32
5.44
3.6
1.84
0.08
-1.73
-3.66
-5.63
-7.53
-9.18
-10.43
-11.31
-11.91
-12.39
-12.96
-13.74
-14.77
-15.91
-16.88
-17.34
-16.97
-15.61
-13.28
-10.27
-7
-3.98
-1.6
-0.14
0.36
0.01
-0.92
-2.12
-3.3
-4.24
-4.86
-5.12
-5.06
-4.64
-3.86
-2.75
-1.35
0.17
1.65
2.97
4.09
5.05
5.87
6.54
6.94
6.93
6.43
5.52
4.39
3.29
2.4
1.73
1.18
0.59
-0.1
-0.76
-1.16
-1
-0.08
1.69
4.21
7.29
10.61
13.82
16.56
18.49
19.4
19.19
17.95
15.89
13.4
10.81
8.49
6.68
5.42
4.57
3.84
2.91
1.55
-0.23
-2.22
-4.09
-5.52
-6.38
-6.73
-6.8
-6.83
-6.98
-7.16
-7.19
-6.79
-5.73
-4
-1.74
0.65
2.73
4.15
4.85
4.99
4.88
4.84
4.91
4.93
4.58
3.65
2.24
0.76
-0.27
-0.54
-0.17
0.3
0.24
-0.8
-2.76
-5.16
-7.3
-8.61
-8.93
-8.51
-7.98
-7.96
-8.93
-11.09
-14.43
-18.78
-24.02
-30.12
-37.05
-44.62
-52.36
-59.56
-65.45
-69.51
-71.66
-72.28
-72.05
-71.53
-70.99
-70.24
-68.79
-66.03
-61.54
-55.2
-47.27
-38.28
-28.9
-19.87
-11.86
-5.31
-0.28
3.53
6.8
10.4
15.22
21.95
30.83
41.67
53.81
66.34
78.3
88.91
97.69
104.44
109.14
111.89
112.76
111.91
109.52
105.83
101.1
95.51
89
81.36
72.3
61.69
49.72
36.95
24.3
12.75
3.18
-3.9
-8.41
-10.65
-11.17
-10.63
-9.53
-8.22
-6.77
-5.17
-3.44
-1.67
-0.11
0.89
1.05
0.2
-1.61
-4.12
-7.06
-10.16
-13.25
-16.3
-19.32
-22.18
-24.72
-26.76
-28.14
-28.9
-29.18
-29.13
-28.83
-28.21
-27.16
-25.66
-23.86
-21.93
-19.93
-17.64
-14.71
-10.89
-6.26
-1.36
2.94
5.95
7.43
7.73
7.58
7.66
8.18
8.91
9.24
8.56
6.59
3.51
-0.13
-3.58
-6.17
-7.5
-7.56
-6.78
-5.77
-5.1
-5.02
-5.36
-5.63
-5.34
-4.18
-2.28
-0.08
1.8
2.87
2.8
1.61
-0.35
-2.51
-4.04
-4.18
-2.28
1.89
8.01
15.22
22.34
28.16
31.69
32.42
30.29
25.68
19.37
12.23
5.28
-0.64
-4.87
-7.19
-7.72
-6.99
-5.65
-4.29
-3.34
-2.91
-2.96
-3.3
-3.76
-4.22
-4.76
-5.55
-6.87
-9.08
-12.37
-16.83
-22.22
-28.01
-33.42
-37.7
-40.24
-40.81
-39.66
-37.2
-33.98
-30.44
-26.85
-23.43
-20.34
-17.71
-15.58
-13.96
-12.68
-11.54
-10.32
-8.86
-7.2
-5.46
-3.89
-2.8
-2.4
-2.77
-3.83
-5.3
-6.76
-7.85
-8.26
-7.86
-6.74
-5.1
-3.23
-1.47
-0.14
0.63
0.76
0.33
-0.44
-1.23
-1.68
-1.46
-0.35
1.63
4.26
7.13
9.73
11.62
12.49
12.27
11.15
9.44
7.58
5.91
4.64
3.82
3.33
3
2.66
2.23
1.67
1.06
0.39
-0.33
-1.11
-1.91
-2.62
-3.09
-3.2
-2.98
-2.64
-2.45
-2.66
-3.38
-4.44
-5.52
-6.22
-6.22
-5.42
-3.92
-1.94
0.26
2.46
4.54
6.45
8.12
9.4
10.08
9.96
9.01
7.37
5.43
3.58
2.18
1.41
1.18
1.32
1.61
1.97
2.35
2.71
2.95
2.92
2.5
1.71
0.66
-0.49
-1.67
-2.84
-4.09
-5.51
-7.17
-9.01
-10.85
-12.37
-13.21
-13
-11.51
-8.76
-5.04
-0.82
3.38
7.09
9.97
11.85
12.62
12.34
11.23
9.67
8.15
7.06
6.62
6.77
7.26
7.75
7.94
7.7
7.03
5.97
4.62
3.08
1.49
0.03
-1.11
-1.79
-2
-1.84
-1.51
-1.25
-1.3
-1.76
-2.67
-3.94
-5.42
-6.84
-7.94
-8.43
-8.16
-7.06
-5.19
-2.72
0.14
3.1
5.85
8.01
9.26
9.47
8.76
7.53
6.29
5.51
5.33
5.64
6.11
6.45
6.53
6.45
6.37
6.44
6.63
6.73
6.56
5.98
5.03
3.92
2.8
1.81
0.88
-0.13
-1.41
-3.03
-4.99
-7.18
-9.41
-11.51
-13.2
-14.22
-14.28
-13.17
-10.84
-7.46
-3.43
0.81
4.74
7.99
10.33
11.68
12.16
12.01
11.5
10.93
10.54
10.38
10.42
10.48
10.38
10
9.3
8.32
7.13
5.8
4.33
2.81
1.34
0.12
-0.67
-1.03
-1.12
-1.29
-1.87
-2.99
-4.43
-5.84
-6.89
-7.46
-7.76
-8.16
-8.91
-9.98
-11.08
-11.69
-11.44
-10.23
-8.25
-5.86
-3.42
-1.19
0.75
2.34
3.55
4.33
4.7
4.76
4.7
4.81
5.28
6.23
7.56
9.01
10.22
10.85
10.77
9.98
8.72
7.31
6.07
5.17
4.59
4.19
3.7
2.96
1.84
0.36
-1.34
-3.06
-4.57
-5.7
-6.39
-6.76
-6.99
-7.27
-7.73
-8.26
-8.62
-8.52
-7.72
-6.14
-3.93
-1.34
1.23
3.35
4.67
4.93
4.11
2.48
0.51
-1.29
-2.5
-2.98
-2.84
-2.27
-1.52
-0.74
0.02
0.7
1.25
1.59
1.69
1.54
1.29
1.04
0.87
0.77
0.6
0.2
-0.51
-1.53
-2.72
-3.83
-4.64
-5.06
-5.17
-5.31
-5.8
-6.8
-8.2
-9.59
-10.42
-10.26
-8.93
-6.62
-3.81
-1.03
1.31
2.96
3.87
4.13
3.85
3.23
2.47
1.78
1.3
1.14
1.28
1.6
1.96
2.14
1.96
1.37
0.38
-0.89
-2.25
-3.56
-4.69
-5.57
-6.23
-6.64
-6.81
-6.74
-6.41
-5.95
-5.45
-5.08
-4.96
-5.16
-5.69
-6.39
-7.07
-7.44
-7.25
-6.41
-4.86
-2.74
-0.2
2.47
4.95
6.83
7.79
7.73
6.8
5.5
4.39
3.95
4.34
5.38
6.58
7.54
7.95
7.72
6.99
5.9
4.6
3.15
1.63
0.12
-1.23
-2.34
-3.15
-3.75
-4.32
-5.03
-6.02
-7.3
-8.74
-10.18
-11.39
-12.23
-12.52
-12.16
-11.13
-9.44
-7.26
-4.83
-2.38
-0.14
1.83
3.49
4.78
5.65
6
5.78
5.07
4.1
3.09
2.32
1.86
1.62
1.46
1.22
0.84
0.37
-0.11
-0.52
-0.87
-1.21
-1.7
-2.4
-3.32
-4.36
-5.41
-6.3
-6.96
-7.35
-7.56
-7.73
-8.01
-8.47
-9.01
-9.4
-9.38
-8.69
-7.2
-4.97
-2.19
0.83
3.75
6.25
8.13
9.2
9.5
9.14
8.32
7.35
6.48
5.86
5.55
5.44
5.31
4.93
4.18
3.02
1.55
-0.05
-1.59
-2.94
-4.01
-4.86
-5.57
-6.25
-6.96
-7.69
-8.41
-9.04
-9.6
-10.13
-10.68
-11.23
-11.64
-11.64
-10.85
-8.98
-5.94
-1.88
2.74
7.32
11.25
14.03
15.4
15.41
14.31
12.47
10.31
8.18
6.39
5.17
4.58
4.55
4.87
5.25
5.48
5.41
5.08
4.63
4.18
3.77
3.29
2.64
1.68
0.54
-0.6
-1.53
-2.15
-2.54
-2.95
-3.66
-4.82
-6.41
-8.13
-9.54
-10.21
-9.87
-8.47
-6.18
-3.37
-0.51
1.96
3.73
4.69
4.87
4.46
3.65
2.66
1.65
0.73
-0.04
-0.66
-1.09
-1.3
-1.33
-1.3
-1.33
-1.52
-1.89
-2.36
-2.78
-2.99
-2.86
-2.4
-1.75
-1.12
-0.72
-0.7
-1.15
-2.09
-3.42
-4.93
-6.28
-7.12
-7.15
-6.23
-4.4
-1.88
0.95
3.72
6.06
7.69
8.5
8.47
7.65
6.23
4.42
2.44
0.54
-1.07
-2.23
-2.84
-2.87
-2.41
-1.62
-0.7
0.06
0.51
0.57
0.28
-0.2
-0.73
-1.22
-1.67
-2.15
-2.75
-3.49
-4.41
-5.5
-6.74
-8.09
-9.37
-10.31
-10.55
-9.79
-7.88
-4.97
-1.37
2.48
6.03
8.87
10.73
11.57
11.52
10.92
10.06
9.27
8.75
8.52
8.45
8.39
8.19
7.79
7.21
6.55
5.9
5.36
4.91
4.38
3.53
2.04
-0.23
-3.18
-6.42
-9.39
-11.6
-12.87
-13.34
-13.47
-13.72
-14.24
-14.83
-14.95
-14.09
-12.02
-8.94
-5.31
-1.7
1.47
4.03
6.01
7.49
8.56
9.2
9.4
9.18
8.63
7.92
7.19
6.53
6
5.64
5.43
5.27
5.01
4.41
3.29
1.6
-0.58
-2.93
-5.04
-6.58
-7.37
-7.41
-6.93
-6.17
-5.35
-4.65
-4.1
-3.68
-3.23
-2.39
-0.61
2.72
8.05
15.35
23.93
32.63
40.13
45.48
48.35
48.97
47.75
45.02
40.83
35.25
28.7
22.08
16.66
13.54
13.07
14.61
16.85
18.28
17.84
15.27
11.05
6.07
1.21
-2.96
-6.36
-9.21
-11.87
-14.56
-17.26
-19.7
-21.59
-22.87
-23.79
-24.88
-26.54
-28.82
-31.26
-33.15
-33.95
-33.58
-32.52
-31.34
-30.43
-29.64
-28.43
-26.2
-22.71
-18.21
-13.27
-8.47
-4.16
-0.28
3.38
7
10.59
13.88
16.44
17.82
17.76
16.22
13.61
10.56
7.77
5.81
4.87
4.79
5.18
5.64
5.95
6.15
6.4
6.83
7.48
8.2
8.77
8.9
8.23
6.47
3.39
-0.93
-6
-10.87
-14.52
-16.13
-15.51
-13.16
-10.11
-7.41
-5.76
-5.3
-5.72
-6.57
-7.41
-7.97
-8
-7.11
-4.85
-0.86
4.8
11.58
18.4
24.11
27.86
29.27
28.61
26.52
23.7
20.75
18.06
15.77
13.9
12.38
11.07
9.93
8.95
8.2
7.75
7.6
7.58
7.4
6.77
5.5
3.54
1.04
-1.72
-4.46
-6.91
-8.92
-10.41
-11.5
-12.29
-12.92
-13.47
-13.99
-14.48
-14.98
-15.44
-15.72
-15.58
-14.7
-12.82
-9.85
-6.05
-1.81
2.34
6.05
9.19
11.75
13.74
15.07
15.52
14.93
13.36
11.13
8.83
7.02
6.03
5.83
6.1
6.45
6.63
6.62
6.52
6.47
6.42
6.15
5.39
4.05
2.26
0.41
-1.09
-2
-2.36
-2.42
-2.54
-2.96
-3.68
-4.52
-5.22
-5.67
-5.99
-6.47
-7.4
-8.85
-10.55
-11.97
-12.52
-11.78
-9.69
-6.55
-2.85
0.91
4.39
7.42
9.95
11.91
13.18
13.65
13.28
12.19
10.7
9.23
8.11
7.48
7.23
7.13
6.96
6.63
6.18
5.68
5.18
4.56
3.67
2.4
0.83
-0.81
-2.19
-3.09
-3.54
-3.77
-4.15
-4.93
-6.15
-7.59
-8.87
-9.75
-10.24
-10.64
-11.41
-12.81
-14.75
-16.71
-17.91
-17.74
-15.95
-12.78
-8.8
-4.64
-0.74
2.73
5.71
8.11
9.75
10.4
10.03
8.9
7.53
6.51
6.2
6.56
7.26
7.82
7.94
7.68
7.28
7.08
7.2
7.45
7.49
6.9
5.55
3.6
1.47
-0.44
-1.85
-2.76
-3.42
-4.08
-4.87
-5.7
-6.36
-6.62
-6.44
-6.03
-5.73
-5.85
-6.5
-7.52
-8.57
-9.26
-9.37
-8.79
-7.55
-5.73
-3.4
-0.6
2.52
5.69
8.53
10.65
11.82
12.05
11.53
10.57
9.5
8.43
7.37
6.24
4.97
3.64
2.38
1.31
0.46
-0.26
-1.06
-2.15
-3.59
-5.3
-7.02
-8.44
-9.39
-9.81
-9.87
-9.76
-9.62
-9.45
-9.21
-8.8
-8.23
-7.67
-7.32
-7.35
-7.76
-8.35
-8.81
-8.96
-8.68
-8.07
-7.23
-6.17
-4.77
-2.83
-0.22
3.03
6.57
9.9
12.5
13.98
14.26
13.51
12.02
10.11
8.05
6.01
4.17
2.7
1.77
1.45
1.6
1.91
2.01
1.7
0.94
0.03
-0.68
-0.99
-0.91
-0.73
-0.79
-1.28
-2.13
-3.13
-4.01
-4.6
-4.96
-5.24
-5.54
-5.81
-5.88
-5.58
-4.99
-4.41
-4.25
-4.8
-6.04
-7.6
-8.92
-9.56
-9.33
-8.4
-7.11
-5.75
-4.38
-2.9
-1.24
0.54
2.13
3.19
3.41
2.84
1.76
0.61
-0.27
-0.77
-1.01
-1.18
-1.34
-1.4
-1.12
-0.34
0.93
2.45
3.84
4.71
4.74
3.87
2.18
-0.08
-2.65
-5.29
-7.85
-10.18
-12.2
-13.78
-14.78
-15.17
-15.05
-14.59
-14
-13.28
-12.22
-10.47
-7.78
-4.15
0.04
4.19
7.68
10.07
11.31
11.66
11.51
11.19
10.87
10.48
9.87
8.97
7.79
6.45
5.09
3.77
2.47
1.11
-0.37
-1.91
-3.32
-4.34
-4.72
-4.38
-3.5
-2.39
-1.27
-0.34
0.45
1.28
2.3
3.59
5.1
6.59
7.86
8.73
9.03
8.65
7.51
5.69
3.45
1.23
-0.5
-1.34
-1.09
0.21
2.34
4.95
7.68
10.21
12.21
13.38
13.5
12.54
10.59
7.96
5.09
2.37
0.06
-1.78
-3.28
-4.55
-5.64
-6.52
-6.99
-6.95
-6.48
-5.81
-5.29
-5.16
-5.44
-6
-6.58
-7
-7.24
-7.41
-7.61
-7.8
-7.86
-7.66
-7.17
-6.52
-5.93
-5.6
-5.56
-5.58
-5.32
-4.53
-3.18
-1.51
0.14
1.45
2.34
2.94
3.54
4.26
5.08
5.76
6.06
5.89
5.36
4.7
4.13
3.76
3.47
3.1
2.58
1.97
1.47
1.3
1.52
1.98
2.44
2.66
2.51
2.03
1.32
0.49
-0.4
-1.4
-2.56
-3.96
-5.57
-7.33
-9.17
-11.01
-12.78
-14.34
-15.54
-16.12
-15.84
-14.56
-12.28
-9.22
-5.78
-2.4
0.61
3.09
5.08
6.64
7.79
8.44
8.47
7.84
6.64
5.17
3.73
2.55
1.67
0.98
0.38
-0.23
-0.75
-1.04
-1.02
-0.74
-0.37
-0.21
-0.46
-1.12
-2.11
-3.18
-4.09
-4.72
-5.17
-5.56
-6.03
-6.65
-7.36
-8.04
-8.61
-9.06
-9.42
-9.68
-9.78
-9.56
-8.86
-7.58
-5.75
-3.51
-1.16
0.95
2.51
3.3
3.27
2.5
1.28
-0.08
-1.29
-2.18
-2.8
-3.23
-3.54
-3.79
-3.92
-3.85
-3.57
-3.14
-2.6
-2.07
-1.61
-1.21
-0.9
-0.7
-0.59
-0.64
-0.87
-1.25
-1.83
-2.65
-3.81
-5.34
-7.17
-8.98
-10.41
-11.01
-10.54
-8.98
-6.62
-3.83
-1.03
1.52
3.66
5.26
6.28
6.67
6.45
5.7
4.62
3.34
2.04
0.81
-0.32
-1.26
-1.97
-2.42
-2.58
-2.48
-2.18
-1.7
-1.11
-0.56
-0.16
-0.08
-0.46
-1.28
-2.45
-3.78
-5.03
-6.01
-6.7
-7.16
-7.56
-8.03
-8.54
-8.91
-8.78
-7.85
-5.93
-3.16
0.08
3.21
5.69
7.23
7.77
7.55
6.92
6.15
5.47
4.96
4.65
4.52
4.59
4.79
5
5.06
4.83
4.28
3.51
2.73
2.11
1.74
1.54
1.26
0.69
-0.32
-1.76
-3.51
-5.25
-6.74
-7.78
-8.35
-8.63
-8.85
-9.2
-9.71
-10.23
-10.41
-9.86
-8.26
-5.51
-1.8
2.47
6.76
10.55
13.41
15.15
15.79
15.52
14.62
13.34
11.91
10.49
9.18
8.02
7.07
6.3
5.66
5.06
4.41
3.68
2.9
2.15
1.47
0.91
0.42
-0.1
-0.7
-1.42
-2.24
-3.12
-3.99
-4.87
-5.8
-6.86
-8.16
-9.67
-11.23
-12.52
-13.14
-12.75
-11.2
-8.58
-5.18
-1.36
2.54
6.25
9.52
12.13
13.83
14.45
14.04
12.83
11.28
9.87
8.97
8.63
8.71
8.84
8.68
8.14
7.31
6.42
5.69
5.19
4.74
4.18
3.35
2.3
1.25
0.42
-0.17
-0.62
-1.14
-1.97
-3.11
-4.5
-6.06
-7.78
-9.75
-11.9
-13.98
-15.46
-15.77
-14.47
-11.51
-7.27
-2.34
2.61
7.09
10.82
13.62
15.36
16.01
15.62
14.4
12.74
11.04
9.63
8.71
8.26
8.17
8.25
8.34
8.28
7.97
7.35
6.45
5.4
4.39
3.61
3.14
2.92
2.77
2.52
2.07
1.42
0.68
-0.02
-0.58
-1
-1.4
-1.94
-2.75
-3.84
-5.12
-6.38
-7.38
-7.86
-7.65
-6.7
-5.03
-2.73
-0.01
2.89
5.62
7.87
9.4
10.09
10.01
9.33
8.32
7.22
6.16
5.24
4.41
3.61
2.82
1.99
1.19
0.55
0.15
0.09
0.36
0.91
1.63
2.45
3.23
3.9
4.36
4.46
4.11
3.21
1.75
-0.22
-2.56
-5.21
-8.06
-10.97
-13.73
-16.01
-17.36
-17.44
-15.98
-12.97
-8.72
-3.66
1.59
6.4
10.29
12.91
14.16
14.14
13.17
11.63
9.95
8.4
7.1
6.04
5.07
4.11
3.14
2.25
1.6
1.32
1.4
1.68
2.03
2.24
2.19
1.91
1.46
0.96
0.43
-0.19
-1.02
-2.08
-3.33
-4.57
-5.6
-6.31
-6.72
-7.05
-7.56
-8.36
-9.36
-10.28
-10.67
-10.19
-8.69
-6.26
-3.16
0.25
3.62
6.69
9.24
11.16
12.34
12.77
12.47
11.58
10.24
8.71
7.17
5.79
4.65
3.79
3.2
2.8
2.55
2.37
2.26
2.16
2.07
1.95
1.78
1.49
1.06
0.45
-0.34
-1.23
-2.12
-2.89
-3.44
-3.76
-3.87
-3.86
-3.87
-4.04
-4.5
-5.35
-6.56
-7.94
-9.15
-9.76
-9.36
-7.73
-4.96
-1.43
2.35
5.82
8.67
10.8
12.29
13.26
13.73
13.65
12.95
11.67
10.05
8.44
7.16
6.38
6.04
5.92
5.83
5.63
5.34
5.08
4.92
4.86
4.8
4.59
4.17
3.59
2.95
2.3
1.61
0.76
-0.32
-1.6
-2.92
-4.06
-4.88
-5.43
-5.89
-6.53
-7.55
-8.96
-10.59
-12.13
-13.22
-13.49
-12.7
-10.84
-8.13
-5.02
-2.01
0.48
2.29
3.47
4.2
4.63
4.87
4.87
4.66
4.3
3.96
3.77
3.76
3.85
3.88
3.78
3.5
3.14
2.8
2.57
2.48
2.5
2.49
2.25
1.6
0.45
-1.12
-2.91
-4.61
-5.96
-6.83
-7.24
-7.34
-7.27
-7.23
-7.35
-7.68
-8.22
-8.85
-9.37
-9.5
-8.99
-7.61
-5.32
-2.3
1.14
4.55
7.46
9.49
10.51
10.63
10.19
9.58
9.15
9.07
9.3
9.63
9.8
9.62
9.04
8.11
7.03
6.01
5.31
5.02
5.12
5.36
5.47
5.2
4.5
3.5
2.43
1.5
0.75
0.15
-0.34
-0.75
-1.03
-1.11
-0.97
-0.66
-0.26
0.21
0.83
1.82
3.42
5.87
9.31
13.81
19.23
25.28
31.56
37.52
42.78
47.12
50.63
53.56
56.23
58.8
61.13
62.93
63.86
63.77
62.73
60.97
58.79
56.31
53.46
50.01
45.56
39.69
31.94
21.93
9.42
-5.54
-22.57
-41.02
-60.07
-78.95
-97.06
-113.93
-129.03
-141.58
-150.47
-154.57
-153.18
-146.42
-135.51
-122.46
-109.56
-98.7
-90.85
-85.72
-81.86
-77.16
-69.37
-57.08
-40.23
-20.31
-0.11
17.33
29.79
36.73
39.45
40.45
42.3
46.56
53.28
61.08
67.91
72.14
73.08
71.32
68.18
65.08
62.85
61.46
60.28
58.43
55.41
51.21
46.31
41.33
36.74
32.73
29.19
25.78
22.11
17.83
12.62
6.42
-0.57
-7.86
-14.56
-19.57
-21.86
-20.8
-16.45
-9.75
-2.37
3.74
7.03
7.01
4.43
1.11
-0.84
0.14
4.36
10.6
16.64
20.28
20.32
17.23
12.9
9.81
9.85
13.48
19.56
25.81
29.52
28.37
21.1
7.77
-10
-29.27
-46.36
-57.81
-61.37
-56.71
-45.53
-30.85
-16.07
-3.97
3.63
5.93
2.94
-4.66
-15.56
-28
-39.97
-49.71
-56.12
-58.93
-58.62
-55.95
-51.7
-46.37
-40.31
-33.83
-27.36
-21.56
-16.96
-13.91
-12.44
-12.14
-12.51
-13.01
-13.3
-13.26
-13.02
-12.62
-12.11
-11.42
-10.33
-8.72
-6.56
-4
-1.22
1.57
4.2
6.48
8.16
9.06
9.01
8.06
6.46
4.59
2.73
0.92
-1.04
-3.36
-5.93
-8.32
-9.77
-9.58
-7.47
-3.74
0.79
5.12
8.39
10.18
10.42
9.42
7.63
5.43
3.1
0.78
-1.53
-4
-6.83
-10.28
-14.48
-19.4
-24.83
-30.26
-35.08
-38.73
-40.84
-41.35
-40.51
-38.82
-36.85
-35.14
-34.05
-33.58
-33.53
-33.46
-32.85
-31.34
-28.8
-25.34
-21.2
-16.64
-11.79
-6.68
-1.23
4.58
10.75
17.28
24.14
31.28
38.46
45.15
50.49
53.47
53.2
49.32
42.27
33.22
24.01
16.54
12.3
11.82
14.54
18.94
23
24.84
23.16
17.54
8.48
-2.64
-13.82
-22.76
-27.51
-27.26
-22.82
-16.53
-11.43
-10.03
-13.15
-19.51
-26.41
-30.87
-30.86
-25.93
-17.09
-6.1
5.21
15.46
23.78
29.67
32.93
33.53
31.71
27.98
22.98
17.47
12.1
7.39
3.63
0.93
-0.84
-1.94
-2.59
-2.87
-2.57
-1.32
1.27
5.3
10.43
15.82
20.28
22.6
21.95
18.11
11.56
3.32
-5.24
-12.67
-17.78
-19.86
-18.76
-14.96
-9.39
-3.13
2.84
7.93
11.93
14.96
17.2
18.78
19.71
19.99
19.67
18.88
17.78
16.54
15.21
13.81
12.33
10.79
9.29
7.9
6.73
5.74
4.83
3.77
2.33
0.4
-2
-4.6
-7.02
-8.89
-9.99
-10.33
-10.15
-9.93
-10.11
-11.03
-12.66
-14.64
-16.32
-17.06
-16.36
-14.18
-10.84
-6.98
-3.3
-0.34
1.67
2.81
3.33
3.59
3.89
4.49
5.52
7.03
8.88
10.85
12.56
13.66
13.88
13.22
11.92
10.38
9.01
8.11
7.8
7.95
8.29
8.54
8.48
8.01
7.13
5.94
4.49
2.8
0.82
-1.53
-4.24
-7.21
-10.21
-12.9
-14.85
-15.65
-15.03
-12.93
-9.57
-5.47
-1.21
2.62
5.62
7.72
9.05
9.85
10.37
10.78
11.16
11.62
12.32
13.44
15.05
17.01
18.93
20.35
20.83
20.29
18.97
17.34
15.91
14.98
14.47
14.05
13.38
12.16
10.39
8.27
6.05
4.03
2.35
1.02
-0.09
-1.08
-2.05
-2.84
-3.16
-2.68
-1.15
1.33
4.41
7.55
10.28
12.3
13.55
14.13
14.07
13.39
12.06
10.12
7.84
5.62
3.88
2.95
2.98
3.91
5.63
7.91
10.52
13.18
15.57
17.4
18.42
18.59
17.99
16.84
15.38
13.8
12.2
10.63
9.18
7.9
7.03
6.7
7.11
8.33
10.29
12.77
15.63
18.76
22.13
25.77
29.56
33.27
36.66
39.55
41.85
43.51
44.29
43.61
40.86
35.57
27.94
18.86
9.43
0.53
-7.78
-16.39
-26.92
-40.99
-59.99
-84.48
-114.11
-147.55
-182.85
-217.44
-248.75
-274.84
-294.61
-307.94
-314.95
-315.12
-307.12
-289.3
-260.49
-221.08
-173.2
-120.06
-64.99
-10.67
41.23
89.62
133.43
171.3
201.54
222.72
234.26
236.78
232.04
222.54
210.57
197.55
183.62
167.83
148.96
127
103.36
80.94
63.12
52.18
48.36
49.74
52.99
54.71
52.77
46.53
36.91
25.57
14.06
3.25
-6.78
-16.47
-26.3
-36.39
-46.59
-56.62
-66.31
-75.74
-85.1
-94.5
-103.74
-112.02
-117.72
-118.67
-112.65
-98.4
-76.36
-48.78
-19.4
7.54
28.43
41.16
45.36
42.24
33.97
23.05
11.91
2.37
-4.49
-8.34
-9.37
-7.86
-3.88
2.88
12.69
25.48
40.43
56.13
70.93
83.48
92.91
98.74
100.52
97.52
88.97
74.6
55.19
32.77
10.12
-9.76
-24.45
-32.59
-34.12
-30.37
-23.81
-17.44
-13.83
-14.41
-19.11
-26.83
-36.23
-46.53
-57.54
-69.08
-80.16
-88.62
-91.83
-87.98
-77.34
-62.52
-47.35
-35.39
-28.56
-26.96
-29.22
-33.55
-38.14
-41.11
-40.18
-32.6
-16.36
8.26
37.53
64.95
83.44
88.71
81.43
67.56
55.89
53.74
63.6
82.18
102.7
118.64
126.9
128.38
125.87
121.38
114.6
104.07
89.77
74.94
65.47
67.12
82.19
107.91
137.98
165.68
186.98
201.45
210.81
217.01
220.93
222.74
222.47
220.36
216.1
208.09
193.14
167.62
129.31
78.74
19.34
-43.62
-104.66
-159.3
-204.63
-239.11
-262.62
-276.35
-282.51
-283.61
-281.37
-275.96
-266.03
-249.72
-226.15
-196.41
-163.53
-131.53
-103.86
-82.65
-68.57
-61.32
-60.31
-64.67
-72.89
-82.4
-89.64
-90.63
-82.38
-63.86
-36.55
-4.3
27.6
54.1
71.87
80.28
81.27
78.19
74.22
71.4
70.15
70
70.64
72.5
76.53
83.54
93.24
103.91
112.75
116.66
113.32
102.05
83.92
61.22
36.64
12.17
-11.37
-34.13
-56.36
-77.28
-94.84
-106.54
-110.95
-109.18
-105.17
-104.25
-110.72
-125.53
-145.57
-164.84
-176.92
-177.38
-165.06
-141.55
-109.72
-72.08
-30.49
13.12
55.81
93.28
121.19
136.96
141.27
137.89
131.74
126.2
121.41
114.51
102.03
82.36
57.22
30.87
7.77
-10.01
-23.75
-37.35
-55.29
-80.34
-112.65
-149.27
-185.14
-213.99
-229.9
-228.53
-208.35
-171.02
-121.01
-64.76
-8.99
40.39
79.26
105.57
119.59
123.88
122.98
122.21
125.88
135.41
148.55
160.1
164.13
156.64
137.09
108.23
74.65
41.04
10.49
-16.02
-39.58
-62.54
-86.93
-112.45
-135.64
-150.45
-150.83
-134.08
-103.2
-66.28
-32.97
-10.14
1.3
5.88
10.17
18.37
29.98
40.52
44.67
39.64
26.6
9.87
-5.5
-16.01
-20.96
-22.06
-21.97
-22.61
-24.25
-25.47
-24.29
-19.34
-10.63
0.29
10.97
18.77
21.89
19.89
13.84
5.93
-1.21
-5.6
-6.49
-4.59
-1.61
0.48
0.33
-2.51
-7.59
-13.77
-19.82
-24.47
-26.64
-25.44
-20.37
-11.52
0.32
13.79
27.36
39.84
50.89
61.06
71.4
82.64
94.28
104.3
109.72
108.11
98.95
84.36
68.51
55.78
49.1
48.81
53.14
59.37
65.4
70.35
74.38
77.81
80.4
81.28
79.26
73.52
63.92
51.04
35.88
19.39
2.17
-15.41
-32.99
-49.77
-64.32
-74.96
-80.52
-80.99
-77.83
-73.43
-70.1
-69.11
-70.51
-73.84
-79.28
-88.14
-102.2
-122.06
-145.59
-167.77
-182.2
-183.61
-170.02
-143.35
-108.17
-69.62
-31.58
3.99
36.28
64.61
87.6
103.45
110.78
109.66
101.9
90.47
78.4
67.58
58.11
48.7
37.75
24.63
10.26
-3.32
-14.33
-22.3
-28.57
-35.24
-43.69
-53.51
-62.29
-66.97
-65.42
-57.62
-45.73
-33.17
-23.05
-17.18
-15.85
-18.11
-22.57
-27.7
-32.13
-34.68
-34.45
-30.84
-23.74
-13.66
-1.5
11.43
23.62
33.49
39.51
40.48
36.08
27.08
15.33
3.41
-6.23
-11.95
-13.25
-10.7
-5.38
1.51
8.92
16.02
22.22
27.38
31.76
36.11
41.07
46.92
53.27
59.35
64.61
69.16
73.73
79.05
85.3
91.6
96.69
99.68
100.84
101.65
103.9
108.35
114.07
118.75
119.86
116.06
108.06
98.16
89.22
83.27
80.77
80.74
81.7
82.81
84.16
86.62
90.9
96.9
103.4
108.22
108.62
101.9
85.93
59.65
23.6
-20.33
-69.01
-118.88
-166.7
-210.09
-247.8
-279.65
-306.52
-329.7
-350.29
-367.72
-379.32
-380.15
-364.62
-328.91
-272.88
-200.85
-120.15
-38.67
37.33
104.23
160.69
206.61
242.03
266.81
280.58
283.28
275.44
258.64
235.24
208.04
179.54
150.8
121.06
88.07
49.09
2.09
-53.17
-114.54
-177.58
-235.91
-282.29
-310.08
-315.46
-299.06
-266.24
-225.82
-187.07
-157.12
-139.52
-134.24
-138.58
-148.08
-157.15
-159.61
-149.9
-124.69
-84.51
-33.96
19.86
70.08
112.45
145.82
171.01
188.8
198.72
199.71
191.74
177.22
160.9
148.07
142.3
143.83
149.69
155.31
156.91
153.06
145.14
136.4
130.12
127.94
128.95
130.02
127.21
118.01
102.91
85.87
73
70.19
80.31
101.62
128.48
153.2
169.42
174.36
169.6
160.03
151.35
147.43
148.3
150.09
146.58
132
103.38
61.55
10.88
-41.82
-88.57
-121.8
-136.2
-130.78
-110.25
-84.36
-65.1
-62.35
-80.27
-116.14
-162.47
-210.7
-254.78
-292.51
-324.56
-352.39
-376.24
-394.52
-404.2
-401.91
-384.89
-352.03
-304.72
-246.64
-183.09
-119.61
-60.47
-7.6
39.53
82.81
123.6
161.1
191.95
211.47
216.15
206.33
187.3
167.79
156.45
157.78
170.14
186.79
199.3
201.11
189.55
164.88
128.22
80.31
22.46
-40.95
-100.62
-143.67
-159.04
-142.42
-99.91
-46.61
-0.86
22.74
18.94
-7.18
-44.04
-81.09
-112.49
-138.4
-162.52
-188.5
-217.01
-244.41
-263.32
-265.1
-245.17
-203.82
-146.58
-82.38
-21.21
28.09
59.87
72.88
69.86
53.09
24.91
-12.97
-58.3
-108.29
-160.66
-213.95
-266.97
-300.91
-299.31
-254.47
-174.06
-76.4
20.83
107.25
180.25
242.05
295.6
339.19
369.55
381.62
373.48
348.65
314.33
278.5
248.12
226.25
210.9
196.53
177.32
150.79
118.87
85.19
52.26
21.42
-8.69
-39.8
-75.04
-115.91
-161.46
-208.93
-256.6
-304.75
-352.77
-399.95
-422.07
-399.16
-324.86
-211.55
-81.29
45.88
150.54
235.24
301.78
350.2
377.17
381.39
364.36
334.43
303.87
283.45
279.4
288.51
301.94
305.74
288.99
249.06
192.89
133.3
82.87
50.24
35.91
35.17
37.76
35.09
23.69
5.51
-15.7
-37.96
-61.45
-88.16
-118.2
-152.43
-186.62
-211.59
-217
-197.36
-154.85
-97.95
-38.02
14.82
47.47
52.95
31.93
-9.68
-65.64
-132.52
-208.97
-293.69
-384.38
-485.93
-599.46
-718.78
-831.55
-924.15
-986.15
-1011.9
-1000.6
-906.98
-721.53
-476.79
-230.07
-27.35
115.36
204.34
253.9
278.04
286.79
278.78
252.28
213.88
175.77
149.8
142.66
155.68
187.51
234.54
285.61
331.53
369.1
398.78
422.02
438.26
445.72
444.64
436.98
422.5
402.17
378.61
356.24
337.45
320.73
295.34
256.98
210.03
164.15
131.96
112.48
101.57
95.61
90.55
83.95
76.34
67.31
54.65
33.22
-1.67
-50.06
-108.62
-171.64
-232.65
-283.9
-320.68
-329.74
-304.08
-246.93
-170.31
-90.84
-20.87
30.62
69.27
100.46
127.75
150.39
165.92
172.11
166.26
147.54
117.58
81.23
43.19
7.41
-24.94
-54.59
-82.35
-111.47
-144.41
-182.32
-224.12
-268.99
-316.54
-366.18
-415.48
-440.07
-420.27
-351.33
-248.92
-138.61
-42.25
28.72
73.33
97.11
108.14
110.06
103.89
90.05
70.8
50.1
32.11
19.53
12.82
10.23
6.78
-2.45
-19.67
-43.19
-68.62
-92.28
-109.85
-118.59
-117.41
-108.02
-92.7
-72.93
-48.91
-19.9
14.24
51.24
88.15
122
149.56
168.56
178.29
179.59
174.65
166.02
156.01
146.37
138.08
131.15
125.05
119.22
113.17
106.97
101.18
96.57
94.1
94.45
97.67
103.07
110.94
118.49
123.97
126.51
126.09
123.49
119.75
115.44
110.58
104.46
96.35
86.27
75.04
64.08
55.41
51.03
52.56
61.26
77.35
99.44
124.33
146.89
160.77
161.26
147.33
122.32
92.98
66.71
48.65
40.57
40.97
46.24
53.29
60.79
68.55
76.46
83.51
87.44
85.45
80.1
72.98
65.72
59.97
56.6
55.39
55.21
54.63
52.75
49.47
44.95
40.04
35.73
32.55
30.35
28.42
25.97
22.59
18.44
13.75
9.13
5.19
2.18
-0.19
-2.48
-5.33
-9.02
-13.44
-18.46
-23.74
-28.98
-34.24
-40.01
-46.85
-55.2
-65.03
-75.85
-87.03
-97.9
-108.08
-117.71
-127.43
-137.99
-150.03
-163.52
-177.98
-192.59
-206.63
-219.73
-232.13
-244.49
-257.72
-272.84
-290.57
-311.25
-334.26
-357.81
-378.82
-393.49
-398.32
-391.35
-373.02
-345.9
-313.8
-280.4
-248.21
-218.08
-189.73
-162.49
-136.12
-111
-87.88
-67.42
-49.6
-33.81
-19.11
-4.75
9.32
22.22
32.57
39.29
41.98
41.36
38.93
36.18
34
32.37
30.67
28.21
24.89
21.19
17.94
16.2
16.57
19.18
23.55
28.86
34.13
38.58
41.68
43.33
43.74
43.26
42.23
40.89
39.54
38.67
39.04
41.3
45.79
52.05
58.72
63.94
66
64.02
58.46
50.93
43.57
38.21
35.64
35.28
35.68
35.46
33.71
30.68
27.24
24.32
22.31
20.86
19.04
16.02
11.55
6.19
1.13
-2.43
-3.72
-2.78
-0.43
2.23
4.33
5.47
5.7
5.32
4.54
3.49
2.37
1.49
1.47
3.03
6.75
12.63
20.09
27.95
34.76
39.37
41.09
40.02
36.89
32.97
29.27
26.51
24.73
23.39
21.82
19.58
16.72
13.66
11.07
9.51
9.27
10.29
12.21
14.62
16.92
18.67
19.5
19.25
18.02
16.24
14.49
13.16
12.55
12.42
12.4
12.04
10.94
9.13
6.95
5.09
4.17
4.78
6.9
10.27
14.28
18.16
21.28
23.17
23.71
22.99
21.39
19.36
17.45
16.26
16.11
17.04
18.71
20.47
21.58
21.49
19.92
17.16
13.87
10.82
8.6
7.25
6.36
5.29
3.48
0.86
-2.13
-4.81
-6.56
-7.04
-6.43
-5.32
-4.44
-4.43
-5.64
-7.92
-10.74
-13.36
-14.94
-14.85
-13.05
-9.83
-5.87
-1.91
1.42
3.84
5.31
6
6.18
5.92
5.47
5
4.75
4.9
5.56
6.67
8.01
9.44
10.76
11.96
12.97
13.75
14.19
14.22
13.83
13.12
12.3
11.51
10.86
10.27
9.66
9.11
8.75
8.75
9.15
9.75
9.98
9.25
7.03
3.23
-1.55
-6.42
-10.33
-12.62
-13.17
-12.43
-11.02
-9.4
-7.68
-5.56
-2.9
0.28
3.46
6.09
7.79
8.63
9.1
9.74
10.91
12.39
13.88
14.85
15.08
14.53
13.28
11.39
8.82
5.58
1.78
-2.15
-5.58
-7.86
-8.62
-7.96
-6.33
-4.34
-2.54
-1.06
0.21
1.45
2.7
3.72
4.01
3.17
1.01
-2.26
-5.99
-9.39
-11.7
-12.55
-11.87
-10.06
-7.64
-5.18
-3.07
-1.34
0.06
1.21
2.04
2.44
2.34
1.9
1.43
1.4
2.12
3.54
5.31
6.85
7.63
7.38
6.26
4.66
3.09
1.83
0.88
-0.03
-1.13
-2.57
-4.32
-6.09
-7.62
-8.71
-9.33
-9.52
-9.39
-8.98
-8.32
-7.4
-6.23
-4.91
-3.66
-2.57
-1.7
-0.84
0.27
1.96
4.42
7.48
10.72
13.6
15.73
16.86
17.08
16.61
15.82
14.96
14.31
13.96
13.92
14.15
14.46
14.87
15.36
15.99
16.68
17.29
17.47
16.89
15.34
12.82
9.7
6.53
3.86
2.01
1.07
0.81
0.84
0.89
0.85
0.79
0.87
1.23
1.87
2.69
3.45
3.9
3.77
2.82
1.05
-1.27
-3.49
-4.81
-4.69
-3
-0.23
2.86
5.43
7.1
7.97
8.44
8.95
9.57
10.09
10.04
9.21
7.61
5.62
3.74
2.34
1.59
1.37
1.51
1.65
1.62
1.24
0.47
-0.7
-2.15
-3.7
-5.19
-6.32
-6.97
-7.04
-6.58
-5.8
-5.02
-4.63
-4.92
-6
-7.67
-9.51
-11.04
-11.94
-12.18
-11.95
-11.57
-11.12
-10.46
-9.23
-7.17
-4.29
-0.95
2.24
4.78
6.43
7.46
8.25
9.15
10.09
10.72
10.62
9.58
7.81
5.89
4.43
3.69
3.61
3.7
3.53
2.89
1.94
1.05
0.59
0.64
0.97
1.25
1.15
0.6
-0.2
-0.95
-1.41
-1.56
-1.56
-1.74
-2.31
-3.4
-4.9
-6.59
-8.33
-9.99
-11.53
-12.86
-13.83
-14.08
-13.45
-11.86
-9.44
-6.61
-3.68
-0.87
1.74
4.11
6.22
7.71
8.31
7.93
6.76
5.32
4.22
3.81
4.04
4.58
4.95
4.87
4.36
3.7
3.17
2.87
2.6
1.97
0.65
-1.39
-3.77
-5.89
-7.19
-7.35
-6.52
-5.27
-4.22
-3.78
-4.03
-4.79
-5.63
-6.29
-6.56
-6.34
-5.61
-4.35
-2.56
-0.43
1.64
3.21
3.96
3.79
2.9
1.69
0.55
-0.25
-0.75
-1.11
-1.44
-1.71
-1.8
-1.53
-0.9
-0.01
0.9
1.66
2.24
2.8
3.49
4.31
5.19
5.82
5.96
5.55
4.76
3.91
3.37
3.35
3.89
4.87
6.04
7.07
7.72
7.8
7.18
6.05
4.72
3.67
3.33
3.79
4.91
6.28
7.45
8.15
8.35
8.13
7.62
6.9
6
5.07
4.29
3.88
3.94
4.44
5.02
5.35
5.3
4.9
4.37
3.88
3.42
2.74
1.6
-0.24
-2.57
-4.83
-6.36
-6.69
-5.76
-3.92
-1.83
-0.14
0.76
0.75
-0.04
-1.43
-3.11
-4.75
-5.85
-6.02
-5.05
-3.04
-0.42
2.28
4.48
5.97
6.72
6.98
6.99
6.95
6.94
6.97
7
6.94
6.8
6.48
6.06
5.58
5.12
4.62
3.96
3.09
1.86
0.23
-1.78
-4.07
-6.5
-8.94
-11.3
-13.57
-15.65
-17.45
-18.84
-19.76
-20.29
-20.72
-21.4
-22.48
-23.85
-24.94
-25.11
-23.72
-20.69
-16.34
-11.47
-6.9
-3.19
-0.67
0.77
1.34
1.28
0.71
-0.33
-1.75
-3.31
-4.58
-5.25
-5.07
-4.11
-2.67
-1.26
-0.34
-0.14
-0.67
-1.7
-2.98
-4.25
-5.36
-6.21
-6.76
-6.96
-6.71
-6.02
-4.94
-3.8
-3.02
-3.02
-4.1
-6.32
-9.46
-13.05
-16.47
-19.13
-20.64
-20.9
-20.18
-18.92
-17.55
-16.35
-15.41
-14.69
-14.19
-13.95
-14.04
-14.41
-14.75
-14.66
-13.72
-11.82
-9.15
-6.22
-3.57
-1.71
-0.87
-1.05
-2.12
-3.82
-6.06
-8.75
-11.82
-15.08
-18.36
-21.34
-23.73
-25.43
-26.47
-27.11
-27.69
-28.41
-29.23
-29.83
-29.67
-28.13
-24.88
-19.72
-12.66
-3.89
6.35
17.73
29.66
41.24
51.52
59.61
65.22
68.77
71.11
73.19
75.46
77.73
79.2
79.06
76.96
73.24
68.86
64.64
61.11
58.21
55.54
52.76
49.92
47.39
45.55
44.46
43.59
42.23
39.78
36.03
31.44
26.75
22.53
18.81
15.13
10.69
5.06
-1.58
-8.48
-14.38
-18.23
-19.45
-18.23
-15.3
-11.61
-7.93
-4.59
-1.68
0.95
3.26
5.13
6.37
6.91
6.75
5.99
4.68
2.76
0.31
-2.52
-5.18
-6.88
-6.84
-4.75
-0.99
3.46
7.36
9.8
10.54
10.06
9.31
9.04
9.39
9.7
8.95
6.33
1.81
-3.76
-9.02
-12.69
-14.17
-13.64
-11.78
-9.31
-6.62
-3.69
-0.38
3.32
7.02
9.92
11.2
10.41
7.72
3.94
0.25
-2.36
-3.44
-3.21
-2.42
-1.76
-1.51
-1.35
-0.7
0.99
3.61
6.56
8.75
9.23
7.67
4.51
0.82
-2.3
-4.2
-5.22
-6.3
-8.6
-12.6
-17.8
-22.89
-26.37
-27.31
-25.76
-22.56
-18.74
-14.91
-10.97
-6.45
-1.12
4.7
10.11
14.21
16.58
17.6
18.04
18.6
19.4
19.71
18.74
15.97
11.85
7.6
4.85
4.86
8.1
14.1
21.74
29.62
36.32
40.73
42.16
40.5
36.17
30.3
24.09
18.77
14.96
12.38
10.06
6.61
0.86
-7.66
-18.22
-29.18
-38.04
-42.2
-39.79
-30.24
-14.69
4.16
22.62
37.23
45.31
45.77
38.92
26.34
10.03
-8.42
-28.18
-49.93
-74.98
-104.92
-140.06
-178.6
-216.52
-248.52
-270.81
-282.71
-287.05
-288.23
-289.61
-291.67
-292.15
-287.86
-276.56
-258.22
-234.57
-208.1
-181.3
-156.49
-135.74
-120.39
-110.4
-103.23
-94.54
-79.78
-56.72
-26.44
7.06
39.03
66.64
89.34
108.7
126.71
144.65
162.58
179.62
194.89
207.85
218.63
227.92
236.67
245.62
255.55
267.28
281.6
298.59
316.46
330.7
334.68
322.02
289.26
237.94
174.38
107.41
45.12
-7.86
-50.93
-86.29
-117.14
-146.07
-174.86
-204.45
-235.07
-265.94
-295.36
-321.34
-342.33
-357.74
-367.2
-369.53
-362.11
-341.62
-306.05
-256.58
-198.38
-138.81
-84.63
-39.38
-2.9
27.21
52.95
74.26
89.2
95.6
92.99
83.49
71.34
61.22
56.41
57.88
64.4
73.74
83.91
94.3
105.78
120.2
139.71
165.85
199.25
239.22
283.27
326.84
363.79
387.73
394.02
381.71
353.86
316.31
275.25
235.08
197.44
162.12
128.48
96.71
67.82
42.66
21.19
2.36
-14.91
-30.82
-44.35
-54.06
-59.17
-60.37
-59.9
-60.5
-64.32
-72.14
-83.23
-96.13
-109.4
-121.96
-133.26
-142.87
-150.36
-155.47
-158.61
-161.25
-165.71
-174.25
-187.84
-205.12
-222.41
-234.54
-236.61
-225.36
-199.94
-161.82
-113.85
-59.6
-2.74
53.1
104.55
148.77
184.04
210.57
230.57
247.88
266.47
288.32
311.97
332.27
341.8
333.52
303.6
253.21
188.42
118.48
53.21
0.35
-36.09
-56.2
-63.34
-62.62
-59.26
-57.28
-58.68
-63.4
-69.88
-76.06
-80.29
-82.11
-82.27
-82.62
-85.03
-90.46
-98.25
-106.33
-112.02
-113.22
-109.28
-100.96
-89.87
-77.6
-65.04
-52.6
-40.76
-30.39
-22.69
-18.58
-17.96
-19.5
-20.97
-20.14
-15.78
-8.21
0.86
8.84
13.37
13.27
8.91
2.11
-4.61
-9
-9.92
-7.49
-2.93
2.08
6.16
8.53
9.21
8.69
7.79
7.14
7.32
8.51
10.51
12.75
14.28
14.29
12.45
9.41
6.68
6.23
9.5
16.59
25.93
34.65
39.82
39.56
33.84
24.41
14.07
5.53
0.29
-1.67
-2.12
-3.81
-9.51
-20.7
-36.35
-52.5
-62.52
-59.76
-40.28
-5.75
35.9
72.32
90.83
83.18
48.76
-4.59
-63.44
-112.84
-141.14
-142.64
-118.03
-72.41
-12.36
56.21
128.68
200.43
265.5
315.89
343.26
341.94
311.6
258.28
192.25
124.37
62.56
10.39
-32.17
-66.88
-95.08
-117
-131.97
-139.34
-139.33
-133.4
-124.24
-115.16
-109.44
-108.93
-113.45
-120.7
-127.46
-131.23
-131.56
-130.32
-130.45
-134.27
-142.04
-152.13
-161.77
-168.42
-170.46
-166.98
-157.75
-143.02
-123.91
-102.58
-81.89
-64.3
-50.96
-41.3
-33.65
-26.23
-17.96
-8.52
2.31
15.25
31.4
51.22
73.32
94.25
109.66
116.31
113.77
104.49
92.41
80.55
69.3
56.44
38.99
15.56
-12.06
-39.22
-60.63
-72.78
-75.54
-71.49
-63.98
-55.38
-46.52
-37.46
-28.78
-22.09
-19.07
-19.92
-22.27
-21.78
-14.04
2.94
27.51
54.94
79.34
95.95
102.78
100.87
93.42
84.35
77.04
73.22
72.78
74.08
75.19
74.98
73.91
73.75
76.37
82.5
90.8
98.35
102.13
100.33
93.33
83.39
73.52
65.94
61.33
58.69
56.2
52.3
46.32
38.57
29.75
20.43
10.9
1.43
-6.88
-11.95
-11.1
-2.35
14.16
35.57
56.93
72.98
79.94
76.54
63.68
43.49
18.04
-10.96
-41.81
-72.32
-99.58
-120.66
-133.67
-138.57
-137.04
-131.84
-125.42
-119.02
-112.48
-104.81
-95.08
-83.06
-69.45
-55.35
-41.58
-28.33
-15.03
-0.86
14.61
30.98
47.17
61.87
74.01
83.17
89.42
93.02
94.03
92.36
88
81.36
73.35
65.07
57.37
50.44
43.72
36.15
26.66
14.61
0.28
-15.15
-29.73
-41.42
-48.77
-51.49
-50.48
-47.55
-44.68
-43.22
-43.66
-45.59
-48.36
-51.41
-54.51
-57.55
-60.16
-61.71
-61.42
-58.68
-53.46
-46.39
-38.45
-30.68
-23.73
-17.81
-12.86
-8.85
-5.89
-4.18
-3.74
-4.21
-4.95
-5.22
-4.47
-2.5
0.58
4.45
8.8
13.41
18.04
22.42
26.12
28.74
30
29.88
28.57
26.46
23.88
21.09
18.04
14.49
10.1
4.62
-1.94
-9.34
-17.11
-24.79
-31.93
-38.2
-43.39
-47.15
-49.06
-48.81
-46.34
-42
-36.54
-30.88
-25.94
-22.34
-20.36
-19.7
-19.89
-20.38
-20.68
-20.57
-20
-19.12
-18
-16.72
-15.15
-13.32
-11.43
-9.91
-9.37
-10.09
-11.95
-14.17
-15.7
-15.43
-12.59
-6.85
1.75
12.97
26.57
42.1
58.76
75.12
89.44
100.18
106.58
109.01
108.85
107.83
107.08
106.65
105.38
101.54
93.91
82.59
69.11
55.77
44.48
35.66
28.3
20.48
10.56
-1.7
-15
-27.13
-36.23
-41.85
-45.02
-47.51
-50.87
-55.57
-60.96
-66.06
-70.19
-73.35
-76.11
-79.07
-82.26
-85.36
-87.86
-89.19
-89.26
-88.26
-86.42
-84.06
-81.45
-78.9
-76.68
-74.89
-73.02
-70.18
-65.12
-56.49
-43.24
-24.94
-1.88
24.6
52.35
78.71
101.11
117.81
128.42
133.64
134.85
133.38
129.93
124.67
117.56
108.6
98.06
86.48
74.26
61.69
49.01
36.42
24.36
13.47
4.37
-2.49
-6.88
-9.03
-9.51
-9.06
-8.52
-8.46
-9.03
-10.04
-11.01
-11.43
-11.05
-9.92
-8.35
-6.86
-5.75
-4.96
-4.07
-2.38
0.69
5.19
10.66
16.25
20.93
24.13
25.8
26.34
26.31
26.17
25.94
25.51
24.74
23.71
22.6
21.55
20.37
18.58
15.79
11.75
6.76
1.3
-4.16
-9.48
-14.91
-20.75
-27.04
-33.25
-38.62
-42.38
-44.29
-44.66
-44.11
-43.36
-42.85
-42.82
-43.34
-44.46
-46.08
-47.88
-49.36
-49.75
-48.35
-44.77
-39.13
-32.06
-24.56
-17.8
-12.77
-10.09
-9.81
-11.43
-14.02
-16.6
-18.25
-18.48
-17.21
-14.69
-11.41
-7.84
-4.41
-1.28
1.44
3.86
6.01
7.83
9.17
9.82
9.76
9.1
8.13
7.1
6.17
5.19
4.02
2.57
0.82
-1.14
-3.23
-5.35
-7.5
-9.56
-11.36
-12.48
-12.4
-10.78
-7.51
-2.86
2.54
7.89
12.58
16.24
18.85
20.7
21.98
22.77
22.88
22.02
19.98
16.84
13
8.95
5.19
1.99
-0.44
-2.04
-2.82
-2.79
-2.09
-1.07
-0.22
-0.04
-0.93
-3
-6.17
-10.13
-14.23
-17.45
-18.59
-16.73
-11.78
-4.79
2.53
8.88
14.3
20.6
30.56
46.39
68.2
93.5
117.87
136.6
146.4
146.18
136.95
120.97
101.14
80.42
61.77
47.73
39.94
38.36
41.05
44.79
45.97
41.95
31.83
16.64
-1.29
-19.06
-33.98
-44.11
-48.48
-47.41
-42.48
-36.38
-32.25
-32.77
-39.28
-51.25
-66.43
-81.72
-94.34
-102.67
-106.59
-107.16
-105.78
-103.59
-101.04
-98.05
-94.34
-89.79
-84.44
-78.26
-71.08
-62.4
-51.85
-39.41
-25.86
-12.69
-1.7
5.68
8.94
8.49
5.65
2
-0.9
-1.86
-0.1
4.87
13.12
24.15
36.63
48.74
58.52
64.71
67.2
66.96
65.51
63.95
62.37
59.84
55.14
47.51
37.22
25.33
13.16
1.45
-9.82
-21.11
-32.77
-44.37
-54.69
-62.1
-65.06
-62.86
-55.91
-45.57
-33.81
-22.62
-13.48
-7.17
-3.86
-3.18
-4.57
-7.43
-11.03
-14.64
-17.5
-19.16
-19.46
-18.71
-17.35
-15.6
-13.44
-10.63
-7.22
-3.99
-2.32
-3.82
-9.62
-19.74
-32.77
-46.35
-57.68
-64.6
-66.16
-62.65
-55.47
-46.39
-37
-28.28
-20.55
-13.58
-6.94
-0.18
6.92
14.16
21.19
27.6
33.2
37.9
41.89
45.26
47.89
49.51
49.66
48.31
45.82
43.06
40.9
39.98
40.25
41.2
42.18
42.58
42.37
41.74
40.81
39.39
37.14
33.72
29.26
24.46
20.22
17.29
15.89
15.58
15.51
14.87
13.3
10.9
8.34
6.37
5.65
6.42
8.51
11.43
14.47
17.05
18.61
19
18.23
16.6
14.32
11.69
9.02
6.52
4.38
2.74
1.61
0.78
0.03
-0.92
-2.13
-3.38
-4.26
-4.42
-3.8
-2.66
-1.69
-1.57
-2.67
-4.9
-7.63
-10.11
-11.73
-12.41
-12.51
-12.79
-13.82
-15.7
-18.09
-20.2
-21.32
-20.91
-18.85
-15.24
-10.47
-4.89
1.21
7.45
13.49
18.85
23.05
25.85
27.32
27.77
27.69
27.45
27.18
26.89
26.45
25.83
25.15
24.55
24.09
23.66
23.08
22.12
20.7
18.78
16.34
13.39
10.15
7.05
4.82
4.14
5.2
7.44
9.67
10.47
8.78
4.48
-1.7
-8.38
-14.13
-17.95
-19.41
-18.63
-16.15
-12.7
-9.04
-5.94
-3.78
-2.59
-2.04
-1.7
-1.24
-0.74
-0.45
-0.74
-1.83
-3.58
-5.56
-7.31
-8.48
-9.03
-9.3
-9.62
-10.32
-11.55
-13.33
-15.61
-18.33
-21.41
-24.78
-28.29
-31.62
-34.26
-35.66
-35.52
-34.04
-31.88
-29.86
-28.77
-28.9
-29.97
-31.26
-31.99
-31.65
-30.23
-27.98
-25.23
-22.29
-19.3
-16.37
-13.61
-11.14
-9.05
-7.43
-6.31
-5.73
-5.64
-5.74
-5.56
-4.55
-2.31
1.13
5.22
9.2
12.18
13.69
13.76
12.8
11.37
10.03
9.13
8.72
8.63
8.35
7.24
4.75
0.54
-5.29
-12.06
-18.86
-24.79
-29.29
-32.39
-34.44
-35.92
-37.13
-37.99
-38.08
-36.87
-34.04
-29.57
-24.08
-18.44
-13.64
-10.42
-8.9
-8.72
-9.16
-9.48
-9.13
-7.92
-5.78
-2.72
1.26
6.15
11.72
17.39
22.43
26.23
28.48
29.35
29.28
28.7
27.84
26.52
24.36
20.99
16.37
10.85
5.07
-0.32
-5
-8.96
-12.54
-15.96
-19.13
-21.6
-22.74
-22.06
-19.63
-16.1
-12.37
-9.3
-7.2
-5.83
-4.55
-2.83
-0.29
2.89
6.33
9.6
12.35
14.44
15.77
16.27
15.86
14.67
12.94
11.12
9.58
8.49
7.71
6.96
6.1
5.28
4.98
5.64
7.36
9.63
11.45
11.83
10.32
7.36
4.17
2.26
2.73
5.8
10.78
16.27
20.94
23.91
25.17
25.28
25.06
25.06
25.29
25.43
25.02
24.03
22.74
21.81
21.68
22.29
23.1
23.22
22.16
19.84
16.77
13.58
10.71
8.2
5.81
3.29
0.58
-2.05
-4.41
-6.41
-8.31
-10.47
-13.07
-15.87
-18.18
-19.25
-18.46
-15.75
-11.56
-6.68
-2.1
1.44
3.26
2.94
0.17
-4.97
-11.89
-19.52
-26.32
-30.95
-32.51
-31.1
-27.45
-22.7
-17.83
-13.34
-9.32
-5.62
-2.31
0.35
1.77
1.63
-0.19
-3.36
-7.13
-10.66
-13.18
-14.31
-14.06
-12.89
-11.31
-9.77
-8.49
-7.18
-5.33
-2.34
1.97
7.28
12.84
17.76
21.37
23.3
23.74
22.95
21.16
18.47
14.93
10.9
7.09
4.39
3.54
4.83
7.77
11.41
14.57
16.46
16.8
15.89
14.3
12.55
10.82
8.8
6.06
2.22
-2.64
-7.95
-12.88
-16.66
-19
-20.07
-20.31
-19.96
-18.87
-16.56
-12.57
-6.83
0.12
7.42
14.07
19.42
23.27
25.7
26.86
26.84
25.63
23.3
20
16.11
12.07
8.38
5.37
3.26
2.01
1.36
0.99
0.52
-0.16
-0.95
-1.52
-1.6
-1.18
-0.52
-0.06
-0.16
-0.85
-1.86
-2.91
-3.85
-5
-6.81
-9.65
-13.36
-17.17
-19.98
-20.79
-19.24
-15.69
-11.11
-6.65
-3.08
-0.59
1.16
2.7
4.4
6.07
7.28
7.35
5.93
3.22
-0.16
-3.36
-5.67
-6.76
-6.84
-6.23
-5.37
-4.43
-3.32
-1.84
0.07
2.32
4.6
6.51
7.76
8.11
7.49
6.02
4.01
1.85
-0.06
-1.52
-2.61
-3.55
-4.69
-6.18
-7.98
-9.88
-11.76
-13.49
-15.01
-16.17
-16.55
-15.85
-13.92
-10.94
-7.39
-3.85
-0.65
2.11
4.49
6.64
8.49
9.81
10.33
9.95
8.82
7.36
6.04
5.12
4.62
4.26
3.67
2.53
0.78
-1.35
-3.37
-4.69
-5.06
-4.47
-3.25
-1.77
-0.4
0.66
1.32
1.6
1.63
1.45
1.16
0.75
0.22
-0.46
-1.25
-2
-2.46
-2.38
-1.72
-0.64
0.59
1.75
2.89
4.31
6.28
9.03
12.36
15.74
18.59
20.45
21.15
20.86
19.97
18.74
17.36
15.85
14.15
12.29
10.3
8.16
5.75
2.84
-0.82
-5.33
-10.4
-15.48
-19.77
-22.64
-23.73
-23.01
-20.78
-17.47
-13.48
-9.06
-4.4
0.33
4.83
8.69
11.57
13.22
13.63
13.14
12.28
11.55
11.34
11.59
12.04
12.47
12.86
13.44
14.67
16.85
19.95
23.66
27.34
30.36
32.47
33.74
34.52
35.27
36.27
37.66
39.54
41.88
44.57
47.55
50.61
53.48
55.93
57.84
59.45
61.15
63.29
65.95
68.77
70.88
71.16
68.44
61.69
50.32
34.54
15.65
-3.74
-20.24
-30.97
-34.75
-33.19
-30.25
-30.77
-38.4
-54.25
-76.93
-103.65
-131.57
-157.98
-179.86
-193.28
-193.74
-177.9
-145.93
-102.65
-56.6
-17.16
8.91
19.43
16.54
4.84
-10.87
-26.93
-40.8
-50.28
-53.17
-47.74
-33.8
-13.59
8.64
28.05
41.18
47.18
47.76
46.01
44.65
44.88
46.22
47.35
47.09
45.16
42.09
38.53
34.71
30.3
24.66
17.41
8.85
-0.25
-8.91
-16.41
-22.57
-27.65
-32.06
-36.05
-39.41
-41.61
-42.06
-40.52
-37.12
-32.52
-27.59
-23.2
-19.96
-18.03
-17.23
-17.21
-17.61
-18.15
-18.73
-19.28
-19.65
-19.75
-19.42
-18.64
-17.58
-16.47
-15.55
-14.85
-14.13
-12.95
-11.04
-8.38
-5.36
-2.64
-0.88
-0.49
-1.57
-3.95
-7.31
-11.39
-15.79
-20.12
-23.83
-26.47
-27.82
-28.16
-28.03
-28.09
-28.69
-29.48
-29.84
-29.04
-26.76
-23.29
-19.34
-15.66
-12.65
-10.26
-8.13
-6.09
-4.15
-2.61
-1.77
-1.71
-2.08
-2.26
-1.66
0.08
2.82
6.01
9.01
11.1
11.82
10.98
8.69
5.28
1.29
-2.9
-6.74
-9.93
-12.28
-13.75
-14.38
-14.36
-13.93
-13.37
-12.96
-12.76
-12.6
-12.16
-11
-8.95
-6.27
-3.62
-1.77
-1.25
-1.98
-3.38
-4.8
-5.84
-6.7
-8.1
-10.78
-14.95
-20.13
-25.23
-29.09
-31.21
-31.7
-31.49
-31.73
-33.41
-36.81
-41.6
-46.89
-51.54
-54.71
-55.96
-55.55
-54.29
-53.39
-53.96
-56.46
-60.24
-63.11
-61.61
-51.67
-30.03
4.51
50.07
101.63
152.13
194.38
223.09
236.08
234.57
221.96
202.47
179.86
156.51
133.64
111.6
90.43
70.04
50.37
31.45
13.43
-3.13
-17.54
-28.93
-36.73
-40.8
-41.68
-40.48
-38.57
-37.3
-37.53
-39.38
-42.03
-44.14
-44.4
-42.11
-37.57
-31.79
-25.98
-20.97
-16.96
-13.44
-9.68
-5.25
0
5.83
12.01
18.44
25.17
32.19
39.4
46.27
51.96
55.51
55.91
52.59
45.38
34.71
21.47
6.92
-7.61
-20.85
-31.77
-39.79
-44.74
-46.93
-47
-45.65
-43.53
-41.1
-38.62
-36.21
-33.97
-31.97
-30.25
-28.71
-27.24
-25.76
-24.27
-22.97
-22.14
-21.94
-22.16
-22.34
-21.8
-19.98
-16.78
-12.4
-7.49
-2.69
1.57
5.33
8.79
12.16
15.33
17.73
18.74
17.88
15.16
11.14
6.68
2.63
-0.4
-2.24
-2.96
-2.6
-1.34
0.62
2.86
4.77
5.66
5.2
3.45
0.92
-1.44
-2.85
-2.96
-1.95
-0.59
0.25
-0.07
-1.61
-3.89
-5.99
-7
-6.47
-4.41
-1.31
2.26
5.91
9.48
12.82
15.7
17.67
18.31
17.51
15.55
13.08
10.8
9.1
7.9
6.89
5.88
4.91
4.31
4.45
5.36
6.78
8.22
9.09
9.12
8.31
6.98
5.53
4.31
3.36
2.46
1.16
-0.97
-4.16
-8.2
-12.54
-16.43
-19.21
-20.5
-20.28
-18.77
-16.3
-13.07
-9.31
-5.3
-1.35
2.06
4.51
5.73
5.84
5.26
4.69
4.72
5.64
7.31
9.23
10.88
11.87
12.15
11.84
11.13
10.08
8.6
6.66
4.29
1.74
-0.66
-2.7
-4.24
-5.38
-6.33
-7.22
-8.23
-9.53
-11.22
-13.3
-15.69
-18.02
-19.76
-20.33
-19.28
-16.52
-12.44
-7.73
-3.18
0.59
3.33
5.14
6.24
6.91
7.3
7.49
7.6
7.78
8.16
8.81
9.63
10.39
10.92
11.01
10.57
9.7
8.57
7.41
6.42
5.63
4.98
4.44
3.94
3.46
3.02
2.55
1.88
0.82
-0.79
-2.92
-5.25
-7.32
-8.65
-8.91
-7.95
-5.88
-2.95
0.51
4.05
7.27
9.8
11.49
12.36
12.49
12.08
11.24
10.06
8.6
7
5.41
4.05
3.13
2.55
2.17
1.69
0.82
-0.62
-2.53
-4.63
-6.52
-7.81
-8.37
-8.24
-7.68
-7
-6.56
-6.54
-7.02
-8.02
-9.45
-11.13
-12.61
-13.35
-12.66
-10.05
-5.46
0.61
7.17
13.16
17.71
20.51
21.74
21.83
21.24
20.21
18.89
17.4
15.92
14.68
13.87
13.57
13.7
14.08
14.5
14.9
15.21
15.49
15.71
15.87
15.95
15.92
15.79
15.55
15.19
14.61
13.81
12.75
11.54
10.4
9.72
9.92
11.35
14.22
18.36
23.49
29.16
35.09
41.25
47.89
55.16
62.68
69.37
73.42
73.26
68.26
59.28
48.49
38.41
30.87
26.3
24.08
23.12
22.68
22.39
21.84
20.18
16.23
9.3
0.26
-8.35
-13.47
-13.33
-9.05
-4.48
-4.18
-10.96
-23.99
-39.17
-51.19
-56.21
-53.3
-44.29
-32.47
-21.01
-12.65
-10.04
-16.23
-34.3
-65.84
-109.2
-158.95
-207.31
-247.15
-274.62
-290.07
-296.39
-296.1
-288.97
-271.94
-241.32
-195.74
-137.93
-73.96
-11.06
44.9
90.39
123.78
144.33
151.77
146.77
131.65
110.38
87.21
65.37
46.26
30
16.97
8.73
7.59
15.1
30.34
49.31
66.55
77.39
79.95
75.57
67.67
59.72
53.6
49.07
44.38
37.94
29.62
21.38
16.62
18.41
27.7
42.46
58.35
70.42
75.53
73.35
66.08
56.9
48.19
40.5
33.07
25.05
16.41
8.27
1.74
-2.84
-6.09
-8.94
-11.67
-13.29
-12.14
-6.93
2.35
14.09
25.66
34.51
39.04
38.91
34.82
27.86
19.07
9.35
-0.44
-9.36
-16.4
-20.97
-23.04
-23.24
-22.56
-21.81
-20.96
-19.34
-15.88
-9.75
-1.04
9.35
20.02
29.66
37.57
43.95
49.41
54.6
59.83
64.94
69.8
74.71
80.68
89.08
101.03
116.49
133.88
150.5
163.26
169.9
169.69
163.64
154.14
144.4
137.55
135.8
139.58
146.81
153.22
153.24
141.89
116.63
78.57
32.21
-15.86
-59.21
-93.42
-116.85
-130.38
-136.31
-137.31
-135.7
-133.22
-130.89
-129.08
-127.36
-124.33
-117.85
-105.92
-87.49
-63.41
-36.6
-11.37
7.76
17.1
14.64
0.55
-22.83
-51
-77.42
-94.39
-94.77
-74.68
-35.82
13.76
61.48
94.33
103.45
87.08
50.1
1.04
-52.18
-104.91
-155.59
-203.8
-247.17
-280.21
-295.36
-285.95
-248.83
-186.16
-105.34
-17.49
64.65
129.62
170.14
185.47
181.99
171.27
165.58
172.6
192.2
216.52
234.28
236.22
219.33
187.6
149.07
111.61
79.55
53.5
32.01
14.35
1.57
-4.42
-2.82
4.22
11.86
14.8
10.36
-0.14
-11.66
-18.48
-17.46
-9.73
0.07
6.64
7.13
2.34
-4.51
-10.19
-13.14
-13.78
-13.01
-10.8
-6.14
1.75
11.61
19.99
23.13
19.2
9.71
-1.42
-10.39
-15.78
-19.24
-23.8
-31.32
-40.57
-47.66
-47.91
-38.42
-19.45
5.93
33.07
57.39
75.5
85.58
87.05
80.53
67.29
48.96
26.8
1.78
-25.71
-55.76
-88.66
-125.2
-165.97
-210.79
-257.8
-302.86
-340.17
-363.85
-370.48
-360.94
-340.27
-315.56
-292.87
-274.66
-259.27
-242.65
-220.84
-192.3
-158.46
-122.27
-86.53
-52.75
-21.15
8.38
35.21
57.86
74.44
83.74
85.95
82.58
75.95
68.2
60.82
54.43
49.19
45.03
41.8
39.18
36.45
32.71
27.38
20.54
13.01
6.08
0.76
-2.67
-4.67
-6.08
-7.62
-9.48
-11.53
-13.74
-16.3
-19.73
-24.39
-30.11
-36
-40.86
-43.41
-42.85
-39.05
-32.63
-24.84
-17.13
-10.95
-7.06
-5.43
-5.13
-4.73
-2.76
1.64
8.48
17.13
26.66
36.28
45.54
54.37
62.73
70.42
77.1
82.23
85.39
86.51
85.97
84.27
81.86
78.84
74.91
69.79
63.21
55.29
46.22
36.18
25.17
13.22
0.69
-11.63
-22.4
-30.39
-34.73
-35.38
-33.12
-29.16
-24.81
-21.12
-18.7
-17.65
-17.74
-18.38
-18.81
-18.2
-15.87
-11.53
-5.43
1.47
7.84
11.99
12.52
8.7
0.7
-10.08
-21.64
-31.7
-38.58
-41.57
-41.23
-39
-36.51
-34.99
-34.61
-34.89
-34.8
-33.56
-30.96
-27.49
-23.95
-20.95
-18.68
-16.67
-14.39
-11.23
-7.01
-1.93
3.57
8.94
13.8
17.75
20.48
21.63
21.22
19.64
17.7
16.65
17.54
21.09
27.12
34.64
41.97
47.35
49.5
48.03
43.71
37.91
32.38
28.13
25.38
23.46
21.37
18.43
14.52
10.36
6.67
4.1
2.65
1.9
1.27
0.49
-0.3
-0.53
0.59
3.31
7.41
12.05
16.33
19.8
22.61
25.38
28.53
31.85
34.26
34.52
31.87
26.88
21.15
16.4
13.63
12.42
11.48
9.48
6.17
2.44
-0.23
-0.64
1.14
3.87
5.84
5.78
3.49
-0.1
-3.63
-6.14
-7.26
-7.36
-7.09
-6.81
-6.33
-5.16
-2.88
0.37
3.85
6.56
7.77
7.43
6.14
4.84
4.19
4.16
4.05
2.93
0.24
-3.74
-7.99
-11.3
-13
-13.23
-12.97
-13.44
-15.3
-18.32
-21.47
-23.45
-23.54
-22.02
-19.93
-18.36
-17.86
-18.18
-18.6
-18.6
-18.3
-18.45
-19.72
-22.16
-24.78
-26
-24.38
-19.49
-12.11
-3.83
3.67
9.44
13.45
16.37
18.88
21.18
22.85
23.04
21.04
16.79
11.05
5.15
0.45
-2.18
-2.66
-1.55
0.2
1.69
2.48
2.53
2
0.93
-0.79
-3.55
-7.65
-12.95
-18.78
-23.95
-27.31
-28.17
-26.87
-24.57
-22.9
-23.11
-25.43
-28.85
-31.55
-31.75
-28.46
-21.91
-13.37
-4.66
2.67
7.65
10.14
10.74
10.31
9.84
10.05
11.25
13.08
14.76
15.3
14.01
10.93
6.9
3.27
1.13
0.6
0.58
-0.88
-5.34
-13.14
-22.9
-32.36
-39.36
-42.98
-44.06
-44.65
-47.44
-55.03
-69.62
-92.52
-123.31
-158.56
-191.49
-213.24
-215.57
-194.35
-151.38
-94.07
-32.24
25.99
76.87
121.15
161.76
200.7
237.04
266.98
285.45
288.1
272.93
241.25
198.05
151.55
111.88
88.07
85.1
101.7
130.56
161.23
184.08
193.81
190.63
178.52
162.02
143.9
124.15
101.17
73.73
42.27
9.36
-21.15
-45.63
-62.04
-70.57
-73.44
-74.16
-75.95
-80.6
-88.04
-96.53
-103.79
-108.23
-109.44
-107.97
-104.92
-100.87
-95.72
-88.83
-79.22
-66.47
-50.94
-34.19
-18.54
-6.43
0.55
2.27
0.12
-3.38
-5.73
-5.25
-1.66
4.02
10.05
14.68
16.53
14.82
9.59
1.5
-8.12
-17.46
-24.95
-29.82
-32.31
-33.44
-34.5
-36.04
-37.65
-38.32
-36.84
-32.77
-26.5
-18.97
-11.01
-2.9
5.56
14.63
23.96
32.47
38.66
41.43
40.74
37.84
34.54
32.25
31.17
30.36
28.37
24.26
18.24
11.52
5.77
1.94
0.09
-0.71
-1.53
-3.05
-5.14
-7.27
-8.86
-9.72
-10.12
-10.31
-10.43
-10.29
-9.68
-8.66
-7.7
-7.49
-8.45
-10.5
-12.75
-14.06
-13.59
-11.15
-7.27
-2.73
1.98
7.02
12.85
19.95
28.13
36.3
43
47
47.95
46.51
43.97
41.33
39.03
36.82
34.29
31.43
28.73
26.86
26.12
25.96
25.19
22.65
17.79
11.17
4.2
-1.66
-5.6
-7.75
-9.14
-10.93
-13.73
-17.34
-20.93
-23.63
-24.95
-25.11
-24.67
-24.35
-24.5
-25.02
-25.37
-24.99
-23.48
-20.68
-16.73
-11.81
-6.17
-0.04
6.22
12.02
16.83
20.18
22.05
22.85
23.33
24.18
25.75
27.8
29.56
30.29
29.55
27.46
24.55
21.5
18.7
16.29
14.11
12.08
10.24
8.75
7.58
6.33
4.35
1.1
-3.56
-9.11
-14.72
-19.56
-23.26
-26.06
-28.41
-30.72
-32.96
-34.81
-35.88
-36.09
-35.6
-34.72
-33.55
-31.8
-29.04
-24.85
-19.22
-12.53
-5.55
1.11
7.04
12.06
16.08
18.83
19.91
19.06
16.35
12.32
7.9
4.07
1.47
0.29
0.23
0.82
1.63
2.52
3.7
5.39
7.71
10.52
13.5
16.1
17.84
18.39
17.71
16.09
14.01
11.84
9.71
7.47
4.58
0.53
-5.07
-12.06
-20
-28.09
-35.59
-41.91
-46.57
-49.26
-49.61
-47.38
-42.61
-35.89
-28.26
-21.01
-15.23
-11.39
-9.21
-7.82
-6.23
-3.82
-0.33
4
8.98
14.39
20.17
26.32
32.72
39.15
45.12
50.14
53.52
54.76
53.5
49.85
44.35
37.91
31.47
25.67
20.88
17.13
14.4
12.7
12.03
12.18
12.53
12.29
10.67
7.43
3.04
-1.34
-4.25
-4.49
-1.32
5.03
13.65
23.12
31.97
39.08
43.95
46.73
47.95
48.4
48.74
49.58
51.32
54.17
57.89
61.71
64.28
63.98
59.61
50.86
38.79
25.49
13.3
3.86
-2.6
-7.32
-12.35
-19.56
-29.72
-42.26
-55.85
-69.28
-82.28
-95.52
-109.96
-125.97
-142.78
-158.92
-173.2
-185.49
-196.65
-207.47
-217.52
-224.6
-225.68
-218.53
-203.26
-182.47
-159.72
-137.16
-113.9
-86.42
-50.88
-5.92
45.68
97.43
141.65
172.01
185.15
180.64
160.04
125.86
81.52
31.72
-17.52
-59.69
-89.33
-103.38
-101.82
-86.62
-60.1
-23.65
22.45
77.39
137.78
196.66
244.32
270.89
269.62
239.61
186.35
120.49
54.95
1.94
-30.05
-37.95
-24.61
2.24
32.17
54.76
62.42
51.82
24.1
-16.64
-65.47
-118.33
-172.5
-226.42
-278.53
-326.14
-364.91
-389.18
-393.61
-375.35
-335.62
-280.06
-217.31
-156.02
-101.99
-56.87
-18.75
15.85
49.46
82.15
111.48
133.71
146.03
148.27
143.4
136.96
135.38
143.45
162.35
189.53
219.85
247.71
268.83
280.49
281.54
271.99
253.35
229.15
204.8
185.84
175.37
172.14
170.78
165.12
151.78
132.38
112.69
98.67
92.49
90.91
87.35
75.93
55.2
28.78
3.15
-16.01
-26.93
-32.61
-39.07
-52.77
-78.31
-116.8
-165.38
-217.6
-264.6
-297.51
-310.45
-302.59
-278.65
-247.39
-218.08
-197.75
-188.85
-189.19
-193.32
-194.57
-186.76
-165.82
-130.98
-85.59
-37.13
4.59
30.74
37.23
26.79
8.2
-7.22
-10.39
1.47
23.61
45.82
57.33
51.78
30.52
2.18
-21.27
-29.39
-17.26
13.31
55.77
102.34
146.4
183.64
211.09
226.57
228.9
218.99
200.04
177.29
155.71
137.54
121.8
105.2
85.52
64.56
48.37
43.71
54.18
77.43
105.49
128.28
137.05
127.17
99.6
59.27
11.22
-40.6
-93.6
-142.83
-176.83
-184.89
-165.43
-125.31
-73.91
-20.06
29.81
74.95
114.16
145.69
167.06
174.84
167.86
143.46
97.45
32.66
-42.16
-116.55
-182.15
-235.2
-277.61
-320.73
-366.81
-414.73
-461.17
-501.94
-533.67
-555.34
-555.88
-534.7
-496.4
-447.5
-395.19
-344.49
-297.52
-254.27
-213.7
-175.03
-140.25
-110.73
-85.8
-64
-43.21
-21.85
0.52
23.45
45.74
64.61
78.47
87.56
92.99
96.65
100.63
106.56
115.43
127.31
140.23
152.01
160.99
166.19
168.08
168.35
169.47
173.84
182.86
195.94
211.16
225.81
236.78
241.16
236.36
220.56
193.53
157.52
117.44
79.53
48.59
25.51
6.46
-14.92
-43.55
-79.29
-115.97
-143.82
-154.1
-143.21
-114.26
-75.3
-35.69
-2.35
22.13
39.19
52.73
66.97
84.79
107.05
132.71
159.75
186.33
211.47
235.16
257.91
280.28
302.79
326.38
352.5
382.66
416.99
452.65
483.37
500.93
498.03
471.23
422.58
358.76
288.52
219.58
156.58
100.47
49.67
1.74
-45.1
-91.15
-135.12
-174.36
-205.6
-225.72
-232.91
-227.69
-213.29
-194.91
-178.24
-167.62
-164.72
-168.7
-177.2
-187.79
-199.13
-210.97
-223.07
-234.27
-242.08
-243.6
-237.1
-223.12
-204.1
-182.87
-160.97
-137.78
-111.25
-79.8
-43.98
-6.99
26.49
52.69
70.43
81.58
89.41
96.46
102.7
105.73
102.47
91.58
75.01
57.65
45.57
43.17
51.3
66.93
84.8
99.54
107.86
109.3
105.6
99.42
92.94
87.45
83.99
84.21
90.9
107.24
135.39
174.59
220.46
265.7
302.1
323.29
326.23
311.66
282.62
242.44
193.41
136.99
75.39
13.35
-41.84
-82.33
-103.22
-105.55
-96.98
-89.26
-93.48
-115.99
-156.32
-207.79
-260.32
-303.82
-330.87
-338.38
-327.65
-303.49
-272.37
-240.46
-211.8
-187.45
-165.86
-144.43
-121.48
-97.16
-73.7
-54.13
-40.72
-34
-32.49
-33.48
-34.1
-32.37
-27.81
-21.21
-13.74
-5.67
3.84
16.17
32.14
50.86
69.65
85.19
94.8
97.64
94.93
89.26
83.25
78.53
75.21
72.11
67.55
60.02
48.76
34.02
17.03
-0.22
-15.44
-26.84
-33.76
-36.96
-38.33
-40.09
-43.62
-49.1
-55.52
-61.27
-65.19
-66.95
-66.99
-66.13
-64.72
-62.47
-58.69
-52.89
-45.32
-37.27
-30.66
-27.13
-27.46
-31.08
-36.61
-42.54
-47.94
-52.65
-56.9
-60.77
-63.89
-65.69
-65.86
-64.83
-63.85
-64.56
-68.12
-74.83
-83.92
-93.93
-103.44
-111.51
-117.72
-122.2
-125.23
-126.84
-126.98
-125.6
-122.75
-118.72
-113.77
-107.87
-100.52
-90.67
-77.1
-58.74
-35.3
-7.33
23.82
56.31
88.13
117.25
141.75
159.91
170.68
174.07
171.77
166.86
162.95
162.91
167.66
176.12
185.91
194.71
201.12
204.98
206.43
205.21
200
188.8
169.89
142.81
108.89
70.97
32.54
-3.31
-34.43
-59.69
-78.39
-89.91
-93.52
-88.66
-75.47
-55.47
-31.66
-8.13
10.76
21.41
21.74
11.56
-7.4
-31.73
-57.21
-79.73
-96.31
-105.57
-107.93
-105
-99.13
-92.56
-86.92
-82.99
-80.42
-78.05
-74.55
-69.21
-62.57
-56.36
-52.33
-50.73
-49.32
-43.77
-29.77
-5.56
26.81
62.28
95.02
121.11
139.54
151.27
157.33
157.2
148.84
130.58
103.21
70.8
39.77
16.43
4.21
2.75
8.5
16.74
23.7
27.66
28.88
28.63
28.08
27.52
26.47
24.19
20.04
13.96
6.19
-2.61
-11.56
-19.53
-25.47
-28.81
-29.82
-30.07
-31.88
-37.74
-49.06
-65.52
-85
-104.37
-120.68
-131.87
-137.44
-138.03
-135.07
-130.16
-124.53
-118.62
-111.98
-103.58
-92.15
-77.16
-59.05
-39.47
-20.36
-2.79
13.84
32.14
55.72
88.09
131
183.34
240.52
294.82
337.1
358.97
355.54
326.43
275.69
209.96
136.6
62.18
-7.73
-67.71
-112.26
-135.95
-134.85
-107.77
-57.58
9.06
82.35
150.97
204.08
233.4
235.07
210.24
164.35
105.06
40.39
-22.63
-77.77
-119.26
-141.99
-142.75
-122.03
-84.93
-40.32
1.81
33.71
51.93
57.17
52.4
40.87
24.58
4.58
-18.02
-41.05
-61.51
-76.56
-85.01
-88.26
-89.62
-92.86
-100.24
-111.45
-123.78
-133.52
-137.8
-135.69
-128.5
-118.59
-108.37
-99.15
-91.15
-84.11
-77.98
-73.23
-70.55
-70.26
-71.64
-73.28
-73.4
-70.67
-64.87
-56.92
-48.52
-41.34
-36.53
-34.12
-33.28
-32.77
-31.46
-28.9
-25.53
-22.46
-20.86
-21.67
-24.98
-30.26
-36.76
-43.75
-50.68
-56.8
-60.66
-59.81
-51.58
-33.98
-7.08
26.29
60.99
90.61
109.5
114.33
104.97
84.5
58.46
33.29
14.57
5.58
6.4
14.31
25.17
35.02
41.33
43.44
41.87
37.65
32.04
26.91
24.97
29.81
44.75
71.45
108.76
152.16
194.34
227.27
243.81
239.75
214.79
172.43
118.56
59.51
0.11
-57.16
-111.24
-161.24
-204.64
-237.21
-253.92
-250.98
-227.46
-185.33
-128.78
-62.75
7.23
75.01
133.22
174.07
190.99
181.2
147.66
99.15
48.35
7.95
-12.86
-10.69
12.02
48.99
92.45
135.26
171.57
197.25
209.36
206.15
187.56
155.14
111.94
61.37
6.45
-50.5
-107.04
-159.47
-202.29
-229.31
-236.35
-223.6
-196.82
-166.39
-144.21
-139.97
-157.31
-192.34
-234.52
-270.16
-286.82
-277.48
-242.25
-187.13
-121.41
-54.69
4.61
49.28
73.51
74.51
54.64
22.15
-10.47
-31.52
-35.19
-23.63
-4.57
14.41
30.85
48.57
74.32
112.53
160.9
210.28
248.33
264.41
253.53
217.12
162.05
98.14
35.91
-15.54
-49.91
-64.62
-61.19
-44.2
-19.65
7.26
33.44
58.02
81.08
102.06
118.59
126.96
123.91
108.44
82.69
51.11
18.93
-9.31
-30.2
-41.03
-39.51
-24.17
4.16
40.79
77.15
103
109.47
92.23
52.59
-3.18
-66.1
-126.85
-177.49
-212.28
-227.87
-223.65
-202.06
-168.34
-129.84
-94.35
-67.55
-51.26
-43.09
-37.98
-30.74
-18.39
-0.84
20.06
42.46
66.22
93.15
125.46
163.57
204.48
242.13
269.08
279.23
269.94
242.44
201.17
151.61
98.23
43.21
-13.12
-70.32
-125.69
-173.23
-205.2
-215.28
-202.12
-170.76
-131.07
-93.84
-66.67
-51.72
-46.26
-45.49
-45.13
-43.18
-39.5
-34.75
-29.44
-23.82
-18.55
-14.76
-13.96
-17.06
-24.13
-34.12
-45.16
-55.37
-63.17
-67.83
-69.55
-69.56
-69.56
-70.97
-73.94
-76.91
-77.04
-71.54
-59.44
-42.45
-24.7
-11.2
-5.72
-9.32
-20.05
-33.88
-46.05
-52.45
-50.37
-38.84
-18.91
6.36
32.03
52.33
62.5
60.92
50.2
36.22
25.28
20.32
19.18
15.92
4.66
-15.89
-40.5
-59.73
-64.76
-52.5
-27.31
1.57
25.23
39.2
44.34
44.27
41.57
36.17
26.29
11.28
-6.39
-21.52
-29.11
-27.12
-17.61
-5.22
6.04
15.01
23.58
34.54
48.85
63.95
74.68
75.8
64.97
44.64
21.04
1.85
-7.15
-4.39
7.42
23.1
37.99
49.63
58.32
65.52
71.99
76.82
77.94
73.85
65.05
54.51
46.1
42.67
44.19
47.82
49.49
46.02
36.89
24.22
11.82
3.07
-0.35
0.88
4.52
7.92
9.05
7.23
2.74
-3.45
-10.31
-17.04
-22.97
-27.44
-29.81
-29.8
-27.48
-23.67
-19.55
-16.39
-15.1
-15.84
-18.12
-20.96
-23.39
-24.66
-24.63
-23.74
-22.79
-22.67
-23.86
-26.47
-30.06
-34.05
-37.91
-41.47
-44.79
-47.77
-50.02
-50.83
-49.59
-45.99
-40.31
-33.36
-26.12
-19.47
-13.62
-8.37
-3.23
2.12
7.69
13.03
17.44
20.31
21.32
20.71
19.1
17.35
16.07
15.52
15.42
15.21
14.49
13.12
11.3
9.44
7.84
6.55
5.31
3.78
1.79
-0.5
-2.86
-5.05
-7.06
-9.15
-11.71
-15.07
-19.21
-23.73
-27.81
-30.5
-31.1
-29.3
-25.41
-20.1
-14.06
-7.74
-1.32
5.06
11
15.78
18.72
19.36
17.89
15.13
12.18
9.86
8.49
7.86
7.56
7.37
7.36
7.8
8.85
10.4
11.99
13.05
13.15
12.2
10.42
8.27
6.03
3.8
1.27
-2.01
-6.32
-11.63
-17.49
-23.35
-28.57
-32.66
-35.14
-35.61
-33.79
-29.38
-22.44
-13.4
-3.17
7.1
16.26
23.48
28.45
31.23
32.3
32.2
31.41
30.3
29.2
28.33
27.86
27.86
28.09
28.15
27.51
25.76
22.69
18.52
13.66
8.56
3.76
-0.45
-3.9
-6.71
-9.1
-11.46
-14.1
-17.13
-20.48
-23.83
-26.98
-29.85
-32.59
-35.34
-37.99
-40.04
-40.71
-39.3
-35.5
-29.63
-22.43
-14.97
-8.22
-2.88
0.72
2.55
2.92
2.36
1.44
0.73
0.59
1.09
2.04
3.24
4.54
5.92
7.64
10.05
13.41
17.73
22.63
27.48
31.63
34.64
36.47
37.41
37.81
37.9
37.62
36.68
34.74
31.64
27.57
22.83
17.72
12.32
6.65
0.85
-4.61
-9.02
-11.71
-12.26
-10.93
-8.44
-5.67
-3.31
-1.56
-0.3
0.63
1.17
1.24
0.74
-0.02
-0.43
0.18
2.1
5.06
8.32
11
12.55
12.89
12.34
11.37
10.18
8.75
6.81
4.19
0.9
-2.78
-6.52
-10.13
-13.58
-17.13
-20.86
-24.66
-28.11
-30.57
-31.51
-30.85
-28.91
-26.32
-23.75
-21.37
-18.94
-15.91
-11.74
-6.15
0.78
8.54
16.47
23.75
29.79
34.12
36.43
36.68
34.91
31.56
27.12
22.24
17.4
12.88
8.65
4.48
0.2
-4.23
-8.5
-12.27
-15.18
-17.15
-18.22
-18.58
-18.21
-16.95
-14.81
-12.12
-9.67
-8.32
-8.7
-10.76
-13.81
-16.92
-19.33
-20.89
-21.77
-22.26
-22.35
-21.56
-19.4
-15.58
-10.43
-4.63
0.84
5.32
8.51
10.45
11.45
11.64
11.3
10.65
10.06
9.81
10.16
11.17
12.6
14.13
15.33
15.98
16.01
15.58
14.89
14.04
12.99
11.57
9.59
6.93
3.67
0.08
-3.43
-6.5
-8.88
-10.61
-11.91
-12.95
-13.93
-14.95
-16.01
-17.08
-18.08
-18.87
-19.16
-18.7
-17.17
-14.53
-10.95
-6.88
-2.95
0.39
2.87
4.6
5.83
6.9
8.01
9.19
10.23
10.93
11.27
11.43
11.68
12.17
12.71
12.85
12.15
10.43
7.9
5.1
2.62
0.8
-0.47
-1.57
-2.91
-4.65
-6.66
-8.59
-10.08
-10.95
-11.17
-10.95
-10.67
-10.65
-11.16
-12.19
-13.52
-14.71
-15.38
-15.16
-13.92
-11.74
-8.79
-5.36
-1.7
2.03
5.64
8.88
11.59
13.62
14.89
15.51
15.49
14.95
14.03
12.9
11.71
10.72
10.12
9.9
10.01
10.2
10.24
10.06
9.7
9.3
8.94
8.54
7.85
6.68
4.91
2.72
0.46
-1.55
-3.14
-4.43
-5.69
-7.17
-8.89
-10.76
-12.52
-13.86
-14.6
-14.47
-13.39
-11.34
-8.46
-5.04
-1.38
2.24
5.79
9.2
12.38
15.08
16.87
17.38
16.48
14.47
11.88
9.39
7.37
5.89
4.68
3.41
1.84
-0.01
-1.96
-3.78
-5.34
-6.68
-7.9
-9.04
-10.02
-10.72
-11.05
-11.06
-11.02
-11.19
-11.75
-12.74
-13.99
-15.29
-16.51
-17.48
-18.09
-18.23
-17.59
-16
-13.35
-9.87
-5.97
-2.23
0.96
3.42
5.19
6.5
7.5
8.29
8.93
9.46
9.99
10.69
11.7
12.96
14.24
15.2
15.44
14.79
13.29
11.29
9.26
7.7
6.79
6.43
6.12
5.1
2.62
-1.86
-8.22
-15.53
-21.98
-25.32
-23.68
-16.34
-4.44
9.18
20.94
27.76
28.3
23.3
15.12
6.58
0.18
-2.85
-2.66
-0.74
0.37
-2.67
-13.29
-33.87
-64.33
-101.16
-138.28
-168.89
-188.22
-195.4
-193.46
-187.63
-182.72
-181.26
-182.65
-184.17
-182.23
-173.82
-157.37
-132.79
-101.64
-66.85
-32.02
-0.36
26.28
47.98
66.21
82.06
95.57
105.5
110.13
108.2
99.91
86.36
69.14
49.91
30.36
12.89
0.46
-4.36
-0.98
8.35
18.77
24.92
23.6
15.27
4.06
-4.43
-5.55
2.35
17.82
37.27
56.67
72.92
84.18
89.59
88.88
82.1
70.16
54.98
39.58
27.57
22.37
25.86
37.84
55.72
75.36
92.29
103.1
106.37
102.7
94.39
84.22
74.82
67.95
64.37
64.12
66.75
71.35
76.61
80.9
82.53
80.4
74.5
65.68
54.92
42.35
26.67
5.8
-21.48
-53.84
-86.9
-114.33
-130.46
-132.6
-122.22
-104.13
-84.21
-67.15
-55.22
-48.4
-45.47
-45.08
-46.12
-47.77
-49.24
-50.02
-50.21
-50.65
-52.43
-56.16
-61.56
-67.24
-71.41
-72.43
-69.43
-62.29
-51.25
-36.96
-20.39
-3.09
12.97
26.05
35.5
42.12
47.66
53.81
60.91
67.47
70.81
68.53
59.88
46.74
33.02
23.23
20.82
26.9
39.94
56.41
72.1
83.35
87.98
85.57
77.05
64.36
49.68
35.2
22.7
13.33
7.59
5.09
4.58
4.15
1.88
-3.57
-12.38
-23.38
-34.63
-43.99
-49.92
-51.86
-50.31
-46.25
-40.75
-34.5
-27.82
-21.01
-14.43
-8.53
-3.55
0.63
4.48
8.45
12.66
16.73
19.68
20.43
18.37
13.84
8.14
3.25
0.99
2.27
6.61
12.1
16.28
17.08
13.88
7.66
0.6
-5.17
-8.49
-9.42
-8.86
-7.63
-6.18
-4.91
-4.53
-6.27
-11.29
-19.37
-28.19
-34.04
-33.36
-24.92
-10.92
4.17
15.66
21.07
21.08
18.83
17.76
19.81
24.66
29.91
32.65
30.45
22.64
10.46
-2.98
-13.65
-18.09
-14.63
-4.39
9.23
21.63
28.96
29.68
25.09
19.26
17.64
25.46
45.81
78.26
118.19
157.27
185.67
194.47
178.58
138.45
80.08
13.18
-51.54
-105.12
-142.4
-162.11
-166.25
-158.26
-141.78
-119.75
-94.42
-67.91
-42.25
-19.46
-1.03
12.56
21.94
28.22
32.54
35.55
37.25
37.36
35.48
31.35
25
16.77
7.55
-1.41
-8.76
-13.66
-16.3
-17.72
-19.26
-21.67
-24.68
-27.1
-27.83
-26.59
-24.42
-22.92
-23.17
-25.04
-27.02
-27.33
-25.16
-21.37
-18.06
-17.42
-20.03
-24.36
-27.41
-26.02
-18.4
-4.8
12.76
31.4
48.24
61.22
69.4
72.8
72.18
68.65
63.46
57.58
51.4
44.56
36.05
24.69
9.59
-9.15
-30.44
-51.99
-70.82
-84.04
-89.62
-87.16
-78.01
-64.98
-51.33
-39.77
-31.42
-25.55
-20.01
-12.35
-1.18
13.19
29.16
44.85
59.28
72.62
85.62
98.69
111.41
122.47
130.76
136
138.89
140.55
141.7
142.36
142.33
141.92
142.23
144.95
151.36
161.81
175.68
191.68
208.04
222.59
232.32
233.91
224.83
204.46
175
140.95
107.38
77.99
54.12
34.75
17.97
2.47
-11.96
-24.84
-36.09
-47.11
-60.99
-81.71
-113.01
-156.7
-211.1
-270.36
-324.82
-363.08
-375.26
-356.46
-308.69
-240.84
-166.03
-97.65
-45.83
-15.11
-4.4
-8.73
-21.48
-36.65
-50.35
-60.84
-68.22
-73.35
-76.99
-79.42
-80.83
-81.75
-83.08
-85.91
-90.5
-95.71
-99.3
-98.81
-92.82
-81.79
-67.91
-54.02
-42.51
-34.18
-28.13
-22.53
-15.48
-6.15
4.88
15.8
24.39
28.96
29.24
26.53
23.02
20.76
20.58
21.87
22.91
22
18.26
12.14
5
-1.59
-6.5
-9.44
-10.49
-9.76
-7.07
-2.13
4.93
13.17
20.75
25.8
26.89
23.93
18.15
11.53
6.03
2.82
1.94
2.57
3.75
4.79
5.63
6.58
7.91
9.61
11.2
11.99
11.42
9.39
6.31
2.88
-0.22
-2.75
-4.81
-6.84
-9.33
-12.4
-15.89
-19.41
-22.52
-25.01
-27.02
-28.76
-30.33
-31.49
-31.58
-29.88
-26.06
-20.32
-13.48
-6.62
-0.65
4.08
7.77
10.85
13.59
15.73
16.79
16.27
14.09
10.7
7.01
3.83
1.73
0.74
0.46
0.53
0.71
1.02
1.51
2.19
2.74
2.77
2.19
1.14
0.26
0.26
1.66
4.45
8.03
11.38
13.47
13.64
11.77
8.18
3.57
-1.29
-5.74
-9.39
-12.07
-13.79
-14.64
-14.69
-14.05
-12.87
-11.36
-9.75
-8.4
-7.54
-7.25
-7.44
-7.85
-8.07
-7.79
-6.83
-5.25
-3.24
-1.09
0.98
2.8
4.29
5.38
6.07
6.35
6.21
5.79
5.25
4.63
3.88
2.92
1.65
0.09
-1.56
-3.11
-4.38
-5.34
-6.15
-7.04
-7.93
-8.53
-8.38
-7.12
-4.69
-1.5
1.8
4.48
6.02
6.37
5.85
4.92
4.01
3.24
2.47
1.46
0.03
-1.82
-3.88
-5.93
-7.76
-9.27
-10.59
-11.89
-13.17
-14.34
-15.08
-14.98
-13.84
-11.67
-8.69
-5.39
-2.45
-0.36
0.57
0.3
-0.86
-2.59
-4.64
-6.76
-8.71
-10.15
-10.6
-9.53
-6.5
-1.51
5.1
12.49
19.66
25.76
30.17
32.57
32.82
31.18
28.01
23.85
19.37
15.22
11.93
9.83
9
9.1
9.69
10.27
10.36
9.64
8.07
5.79
3.16
0.63
-1.5
-3.17
-4.45
-5.63
-6.93
-8.45
-10.05
-11.55
-12.69
-13.49
-14.2
-15.06
-16.27
-17.53
-18.35
-18.14
-16.57
-13.67
-9.96
-6
-2.26
1.08
4.25
7.45
10.7
13.73
16.08
17.36
17.4
16.47
15.01
13.55
12.29
11.03
9.39
6.87
3.44
-0.61
-4.6
-7.83
-9.9
-10.82
-11.02
-10.94
-11.02
-11.32
-11.66
-11.8
-11.55
-10.89
-10.05
-9.3
-9.04
-9.58
-10.99
-13.04
-15.17
-16.62
-16.72
-15.11
-11.93
-7.88
-3.88
-0.75
0.98
1.26
0.52
-0.77
-2
-2.73
-2.83
-2.26
-1.18
0.11
1.33
2.37
3.09
3.47
3.59
3.42
3.04
2.55
2.06
1.71
1.59
1.59
1.47
0.97
-0.1
-1.7
-3.49
-5.17
-6.37
-7
-7.24
-7.41
-7.86
-8.71
-9.85
-10.81
-11.15
-10.39
-8.37
-5.26
-1.5
2.38
5.91
8.8
10.93
12.24
12.74
12.43
11.2
9.05
6.02
2.27
-1.77
-5.57
-8.6
-10.48
-10.95
-10.15
-8.33
-5.9
-3.26
-0.78
1.31
2.86
3.64
3.65
2.85
1.4
-0.55
-2.76
-5.09
-7.37
-9.54
-11.49
-12.93
-13.45
-12.54
-9.88
-5.58
-0.22
5.2
9.69
12.52
13.48
12.89
11.35
9.5
7.7
6.03
4.42
2.84
1.4
0.32
-0.18
-0.1
0.31
0.69
0.72
0.39
-0.07
-0.29
-0.02
0.62
1.29
1.47
0.68
-1.23
-4.05
-7.34
-10.6
-13.51
-15.95
-17.99
-19.69
-20.91
-21.25
-20.08
-16.91
-11.61
-4.69
2.92
10.08
15.78
19.4
20.75
20.11
18.04
15.13
12
9.21
7.28
6.45
6.75
7.83
9.18
10.27
10.81
10.66
9.92
8.78
7.39
5.96
4.57
3.35
2.28
1.44
0.67
-0.15
-1.1
-2.3
-3.71
-5.28
-6.94
-8.67
-10.32
-11.7
-12.57
-12.73
-11.98
-10.23
-7.41
-3.63
0.89
5.84
10.68
14.91
17.98
19.48
19.34
17.76
15.14
12.01
8.85
6.01
3.7
2.06
1.07
0.78
1.12
1.95
3.05
4.19
5.13
5.65
5.69
5.21
4.3
3.03
1.5
-0.24
-2.1
-4.05
-6.07
-8.09
-10.01
-11.63
-12.69
-12.89
-12.06
-10.18
-7.5
-4.37
-1.09
2.14
5.33
8.63
12.23
15.93
19.29
21.59
22.17
20.8
17.8
13.98
10.29
7.53
5.88
5.11
4.69
4.19
3.49
2.82
2.54
2.96
4.06
5.51
6.97
7.95
8.11
7.36
5.67
3.21
0.29
-2.73
-5.51
-7.7
-9.16
-10.06
-10.64
-11.35
-12.45
-13.96
-15.51
-16.48
-16.15
-13.98
-9.99
-4.57
1.44
7.2
12.02
15.48
17.34
17.53
16.07
13.19
9.4
5.46
2.44
1.21
2.14
4.95
8.75
12.48
15.23
16.66
16.94
16.62
16.25
16.01
15.76
15.07
13.56
11.09
7.93
4.61
1.6
-0.77
-2.54
-3.95
-5.33
-6.75
-8.21
-9.6
-10.86
-12.04
-13.19
-14.16
-14.53
-13.85
-11.68
-7.92
-3.02
2.21
6.8
9.98
11.36
10.99
9.24
6.69
3.96
1.59
-0.03
-0.75
-0.64
-0.02
0.67
1.04
0.96
0.63
0.48
0.89
1.89
3.23
4.5
5.24
5.07
3.49
-0.21
-6.84
-16.99
-30.38
-45.6
-60.22
-71.71
-78.61
-81.15
-81.24
-81.47
-83.8
-88.48
-94.3
-99.55
-103.36
-106.4
-110.4
-116.82
-125.64
-135.01
-141.9
-144.05
-141.23
-135.14
-128.11
-121.34
-113.88
-103.28
-87.25
-65.27
-39.17
-12.14
13.35
37.29
62.36
92.27
128.89
169.93
208.46
234.86
240.08
219.03
172.31
106.35
31.52
-40.3
-98.03
-133.24
-140.76
-119.07
-70.31
-0.49
80.75
160.8
225.62
262.64
264.32
231.14
172.75
105.74
48.6
15.77
13.79
40.61
88.08
145.82
204.21
255.51
293.99
315.47
317.36
299.35
