-15.97
-17.1
-13.67
-7.44
-0.72
4.66
8.41
11.4
15.09
20.02
25.45
29.37
29.98
26.84
21.59
17.38
16.82
20.78
27.58
33.87
36.19
32.86
24.69
14.62
5.81
0.27
-2
-2.43
-2.69
-3.78
-5.4
-6.64
-6.51
-5.01
-3.22
-2.66
-4.3
-8.04
-12.65
-16.58
-19.01
-20.33
-21.91
-25.35
-31.24
-38.85
-46.25
-50.86
-50.63
-44.65
-33.36
-18.47
-2.45
12.34
24.26
33.4
41.73
52.94
70.92
97.9
132.43
168.33
195.97
205.02
188.35
144.51
78.57
-0
-80.22
-152.38
-209.68
-247.96
-265.09
-260.65
-236.2
-195.72
-145.56
-93.14
-44.95
-5.05
25.66
48.47
65.35
77.82
86.3
90.46
89.91
84.9
76.16
64.84
51.83
37.93
23.9
10.63
-1.04
-10.49
-17.52
-22.55
-26.21
-29.11
-31.6
-33.38
-33.81
-32.31
-28.64
-23.11
-16.7
-10.52
-5.45
-2.11
-0.66
-0.93
-2.09
-2.49
-0.12
6.42
16.86
28.92
39.06
44.1
43.25
38.92
35.69
37.99
47.61
62.5
77.96
88.91
92.16
87.24
76.09
61.49
45.9
31.22
18.88
9.98
5.15
4.13
5.32
6.35
4.95
-0.05
-7.93
-16.29
-22.1
-22.34
-15.56
-2.32
14.62
30.64
41.08
43.05
36.93
26.55
17.94
16.83
26.24
44.79
67.07
85.19
91.76
82.29
57.13
21.36
-16.84
-48.94
-69.11
-75.95
-72.46
-63.66
-54.12
-45.54
-36.49
-24.39
-7.8
12.08
31.08
44
46.71
37.44
17.56
-9.37
-38.68
-65.75
-86.64
-98.91
-101.89
-96.69
-86.08
-73.56
-62.5
-55.18
-52.25
-53.01
-55.73
-58.84
-61.02
-61.46
-59.67
-54.93
-46.07
-31.63
-10.56
17.1
49.55
83.31
113.3
134.2
141.66
133.83
112.24
81.53
47.79
16.83
-7.6
-24.75
-36.15
-44.24
-50.94
-56.81
-61.32
-63.79
-64.18
-63.34
-62.48
-62.61
-64.08
-66.89
-70.91
-75.73
-80.23
-82.23
-79.19
-69.51
-53.99
-36.31
-21.67
-14.36
-15.61
-23.09
-32.14
-38.54
-40.45
-38.51
-34.86
-31.05
-26.79
-20.59
-11.1
1.72
16.01
28.86
37.69
40.88
38.43
31.4
21.36
9.91
-1.52
-11.57
-19.06
-23.07
-23.5
-21.07
-17.21
-13.53
-11.05
-10.14
-10.49
-11.47
-12.51
-13.52
-14.32
-14.86
-14.91
-14.12
-12.19
-9
-4.34
2.01
9.78
18.38
26.7
33.53
38.12
40.64
42.05
43.68
46.59
50.93
56.1
61.03
64.7
66.76
67.65
68.33
70.08
73.84
79.6
86.36
92.11
94.43
91.56
82.79
69.11
53.34
40.13
34.69
41.45
61.43
90.62
120.21
138.78
136.47
108.89
59.34
-2.35
-63.23
-111.63
-140.32
-147.52
-135.88
-110.76
-78.24
-43.99
-12.79
12.04
28.42
35.62
34.4
26.68
14.9
1.9
-10
-19.33
-25.48
-28.65
-29.63
-29.12
-27.83
-26.55
-26.06
-27.14
-30.29
-35.33
-41.41
-47.23
-51.37
-52.92
-51.87
-48.86
-44.97
-41.33
-38.52
-36.87
-36.3
-36.45
-37.02
-37.57
-37.56
-36.49
-33.9
-29.52
-23.49
-16.53
-9.49
-3.51
0.42
2.08
1.72
0.05
-2.05
-3.93
-5.44
-6.81
-8.31
-10.21
-12.1
-13.41
-13.42
-11.43
-7.16
-0.43
8.41
18.35
28.02
35.92
41.14
44.07
46.27
49.74
56.03
65.14
75.22
83.52
87.62
86.4
80.63
72.38
63.75
56.37
51.01
47.76
46.65
47.86
51.17
55.38
58.19
56.5
48.13
32.98
13.71
-4.97
-18.5
-24.42
-23.34
-18.4
-13.43
-10.95
-11.52
-13.89
-16.15
-17.28
-17.58
-17.88
-18.81
-19.96
-19.93
-17.22
-11.15
-2.45
6.87
14.48
18.8
19.72
18.44
17.01
17.07
19.19
22.47
24.76
23.75
17.53
5.36
-12.17
-33.39
-56.12
-78.26
-98.34
-115.89
-131.13
-144.92
-158.26
-171.68
-185.16
-197.72
-207.41
-211.82
-208.79
-196.79
-175.8
-147.2
-113.78
-79.45
-48.25
-23.38
-6.55
2.39
5.54
5.85
6.38
9.3
15.18
23.03
31
36.84
38.93
36.92
31.98
26.66
24.11
26.84
35.56
48.94
64.04
78
89.39
99.09
109.81
124.52
144.4
167.61
189.53
204.26
207.02
195.99
172.8
141.84
108.5
77.4
51.54
32.31
20.22
15.23
16.91
23.73
32.72
39.68
40.17
31.29
12.73
-12.73
-40.46
-65.31
-83.4
-93.22
-95.59
-92.98
-88.36
-84.45
-82.83
-84.19
-88.1
-93.33
-98.41
-101.65
-101.56
-97.14
-88.39
-76.06
-61.75
-47.27
-34.15
-23.5
-15.67
-10.4
-7.03
-4.76
-2.68
0.01
3.82
8.9
15.05
21.91
28.93
35.58
41.53
46.56
50.63
53.74
56.03
57.49
58.19
57.94
56.41
53.48
49.32
44.27
38.99
34.17
29.97
26.34
23
19.53
15.84
12.17
8.89
6.38
4.89
4.34
4.58
5.45
6.87
8.73
10.74
12.41
13.24
12.68
10.63
7.49
4.02
0.96
-1.24
-2.89
-4.52
-6.61
-9.42
-12.67
-15.51
-17.16
-17.2
-15.51
-12.55
-9.01
-5.5
-2.6
-0.64
0.45
0.7
0.3
-0.69
-2.13
-3.99
-6.08
-8.26
-10.25
-11.77
-12.79
-13.26
-13.35
-13.12
-12.74
-12.23
-11.71
-11.09
-10.39
-9.63
-8.87
-8.11
-7.23
-6.05
-4.1
-1.04
3.21
8.03
12.34
14.71
14.13
10.19
3.45
-5
-14.06
-23.01
-31.65
-39.95
-47.68
-54.54
-60.24
-64.87
-68.8
-72.31
-74.82
-74.83
-70.29
-59.67
-43.32
-23.3
-3.14
14.2
27.15
36.05
42.45
47.7
52.2
55.41
56.86
56.76
56.47
57.32
59.79
63.46
66.85
68.73
68.52
66.64
64.23
62.15
60.56
58.76
55.87
51.12
44.54
36.64
28.63
22.32
19.49
21.78
29.82
43.02
59.09
74.94
87.16
93.13
91.61
82.79
68.31
50.15
30.14
9.21
-11.98
-32.73
-51.95
-68.17
-79.85
-85.95
-86.25
-81.79
-74.49
-66.3
-58.62
-51.86
-45.47
-38.43
-29.73
-18.68
-5.32
9.56
24.44
37.51
47.13
52.41
53.17
49.98
43.9
36.28
28.74
22.61
18.83
17.31
16.79
14.74
8.02
-5.75
-27.16
-54.31
-83.49
-110.4
-131.78
-146.07
-153.6
-155.83
-154.24
-149.87
-143.05
-133.79
-121.93
-106.99
-87.92
-62.9
-30.43
9.51
54.17
97.81
133.12
153.54
156.08
141.98
116.48
86.2
56.66
30.97
9.69
-7.78
-22.22
-33.68
-42.05
-47.46
-50.8
-53.36
-56.36
-60.34
-64.88
-69.03
-71.79
-72.34
-69.86
-63.38
-51.87
-34.04
-9.38
21.74
57.23
93.33
125.4
149.05
161.38
161.68
151.88
135.36
116.07
97.06
79.51
62.97
45.82
26.41
4.34
-18.81
-39.63
-54.01
-58.5
-51.95
-36.17
-15.33
5.62
22.9
35.21
43.28
48.55
51.65
51.36
45.22
30.6
6.42
-26.5
-65.43
-107.29
-149.7
-191.48
-232.47
-271.87
-307.59
-335.7
-351.53
-351.26
-333.85
-301.52
-258.95
-211.43
-162.53
-113.01
-61.52
-6.22
53.25
114.52
173.31
224.72
264.81
291.64
305.12
306.29
296.63
277.83
251.4
218.96
182.23
142.72
102.23
62.6
25.74
-6.78
-34
-55.94
-73.13
-86.32
-96.05
-102.77
-107.25
-111
-116.07
-124.08
-135.13
-147.03
-156.07
-158.23
-151.1
-135.26
-114.08
-92.3
-74.72
-64.4
-61.9
-65.38
-71.12
-74.41
-70.63
-56.01
-28.5
10.96
58.06
105.44
144.19
166.13
166.55
146.1
111.02
70.86
35.31
11.17
0.74
3.03
15.44
35.86
63.17
96.37
132.9
167.94
195.55
210.69
211.52
200.1
181.44
161.01
142.5
126.92
113.26
100.28
87.59
76.01
66.9
61.28
58.89
58.46
58.35
57.45
55.79
53.82
52
50.26
48.31
46.16
44.72
45.96
51.96
63.89
80.89
100.02
117.36
129.55
135.3
135.58
133.18
131.1
130.96
132.22
132.04
126.36
110.97
83.14
42.32
-9.45
-68.53
-130.62
-192.09
-250.56
-304.52
-353
-394.92
-429.17
-454.5
-469.81
-474.02
-466.08
-445.43
-412.13
-367.4
-313.5
-252.99
-188.06
-120.33
-51.4
16.43
79.5
132.93
171.68
191.56
190.62
169.29
130.58
79.52
22.87
-32.35
-80.57
-119.35
-150.16
-176.86
-203.37
-230.72
-255.81
-272.01
-272.4
-252.55
-212.72
-157.65
-94.07
-28.42
35.25
95.46
152.24
205.55
254.33
296.03
327.04
344.03
344.84
329.42
300.29
261.69
218.65
175.55
135.13
98.29
65.24
36.35
12.71
-3.78
-11.72
-11.3
-4.48
5.37
14.35
19.66
19.68
14.01
3.49
-10.47
-25.95
-40.56
-51.76
-57.41
-56.17
-48.04
-34.44
-17.72
-0.49
15.45
29.74
43.49
58.82
77.8
100.86
126.11
149.19
164.47
166.94
154.05
126.53
88.33
45.22
2.68
-35.08
-65.48
-87.24
-99.88
-103.43
-98.89
-88.49
-75.4
-63.09
-53.96
-48.41
-45.02
-41.45
-35.4
-25.7
-12.75
1.8
15.94
27.81
36.28
41.12
42.5
40.8
36.49
30.13
22.67
15.93
12.38
14.53
23.8
39.54
59.05
78.34
93.6
102.81
106.09
105.42
103.55
102.59
103.48
106.36
110.81
116.47
123.42
131.49
140.36
149.13
156.62
161.42
162.2
157.52
145.31
123.56
90.67
46.35
-7.83
-68.14
-129.94
-188.75
-241.77
-288.61
-330.24
-368.3
-403.88
-436.65
-464.86
-485.55
-495.23
-490.92
-471.22
-436.63
-390.15
-336.21
-279.6
-224.55
-174.07
-130.47
-96.07
-74.01
-67.15
-77.19
-102.63
-138.71
-178.51
-214.66
-240.56
-250.89
-242
-211.46
-159.27
-88.58
-5.56
81.1
162.52
231.86
285.37
322.35
344.11
352.81
350.48
339.92
323.9
305.8
288.71
275.27
267.36
265.69
269.43
275.59
279.69
276.13
260.57
230.78
187.76
135.17
77.85
20.64
-33.06
-80.48
-119.61
-148.1
-163.57
-164.44
-150.41
-123.63
-88.15
-49.49
-12.88
17.39
38.86
51.48
56.45
56.2
53.01
48.76
44.66
41.62
40.03
39.78
40.35
40.8
40.52
39.16
37.07
34.86
33.29
33.01
34.25
37.11
41.04
45.19
48.22
49.27
48.74
48.51
51.52
60.19
75.18
94.33
113.6
128.66
136.68
137.26
131.85
122.31
110.12
95.94
80.04
63.1
46.47
31.82
20.4
12.47
7.14
2.94
-1.68
-7.95
-16.23
-25.79
-34.57
-39.98
-39.83
-33.49
-22.5
-10.08
0.18
6.05
7.11
4.87
0.99
-3.69
-9.75
-18.71
-32.06
-50.26
-72.22
-95.97
-118.77
-138.39
-153.13
-162.3
-166.19
-165.83
-162.84
-158.42
-153.66
-149.04
-144.95
-141.75
-139.95
-140.19
-142.7
-147.42
-153.56
-160.29
-167.03
-173.9
-181.47
-190.34
-200.69
-211.62
-221.19
-226.51
-224.39
-211.9
-187.34
-150.92
-104.79
-52.92
0.2
50.05
93.15
127.41
152.2
168.02
175.8
176.88
172.68
165.05
155.78
146.46
138.44
132.82
130.56
132.04
137.15
144.85
153.21
159.82
162.68
160.85
154.7
145.62
135.25
125.15
116.69
110.98
108.92
110.8
115.83
121.98
126.57
127.3
123.01
114.01
101.83
88.47
75.89
65.88
59.83
58.43
61.3
66.33
69.65
66.79
54.25
30.95
-0.81
-35.83
-67.77
-90.84
-101.81
-100.79
-90.78
-76.34
-61.93
-50.35
-42.41
-37.66
-35.4
-35.72
-39.72
-49.14
-65.81
-91.33
-126.59
-172.03
-226.98
-288.55
-351.34
-407.7
-449.43
-470.41
-468.67
-446.2
-407.66
-357.62
-298.67
-231.93
-158.93
-83.21
-11.42
48.77
91.52
115.19
123.13
121.86
118.04
115.96
117.13
120.81
125.71
131.23
137.66
145.71
155.74
167.08
178.45
188.65
196.92
203.01
206.86
208.13
205.93
199.06
186.29
167.33
143.44
117.26
92.15
71.36
56.66
48.18
44.25
42.38
40.82
39.46
40.44
47.12
62.94
89.37
125.32
166.83
208.15
243.83
270.07
285.6
291.23
288.91
280.63
267.9
252.2
235.1
218.46
203.96
192.03
181.44
169.34
152.11
127
93.6
54.21
13.02
-24.83
-54.53
-72.01
-74.5
-61.09
-33.26
4.79
46.37
83.36
108.48
117.48
110.39
90.94
64.6
36.36
9.05
-16.86
-42.52
-69.26
-98.15
-129.59
-163.64
-200.59
-240.41
-282.47
-324.24
-361.28
-388.78
-403.22
-403.48
-390.03
-364.11
-326.5
-277.8
-219.24
-153.4
-85.6
-22.22
31.54
74.42
108.28
135.46
155.62
164.54
156.34
125.26
69.98
-4.56
-86.93
-163.15
-221.01
-253.6
-259.48
-240.71
-203.16
-155.44
-108.49
-74.22
-63.94
-86.17
-144.15
-233.74
-331.81
-407.35
-433.38
-401.99
-326.84
-231.09
-134.41
-47.33
27.19
90.48
143.48
184.71
212.61
227.77
233.91
236.12
238.9
244.78
253.93
265.77
275.56
279.4
276.14
267.72
258.08
250.23
246.13
245.48
245.95
243.39
234.1
216.05
187.68
152.3
113.6
75.44
39.8
8.06
-19.74
-43.31
-61.8
-74.62
-81.15
-86.78
-90.78
-93.14
-93.62
-92.5
-89.5
-83.62
-74.78
-63.88
-53.37
-44.01
-36.12
-28.74
-20.71
-11.14
0.35
10.98
20.44
23.97
17.89
0.15
-28.25
-64.46
-104.47
-143.26
-178.53
-212.34
-248.4
-288.85
-334.33
-384.22
-438.29
-496.77
-558.01
-599.18
-601.31
-554.67
-463.85
-345.97
-222.28
-111.08
-31.65
20
51
65.49
66.3
55.99
37.24
15.47
-5.14
-21.13
-28.57
-27.17
-20.67
-13
-6.61
-1.63
3.61
10.93
21.84
38.52
60.39
84.68
109.42
134.41
161.28
192.23
228.59
270.56
318.26
368.85
417.61
460.07
493.08
515.31
527.14
529.96
525.22
514.23
494.45
460.4
406.88
332.2
239.86
138.11
37.24
-59.55
-144.35
-210.4
-254.82
-279.07
-286.78
-281.31
-265.43
-242.54
-216.83
-191.42
-168.87
-149.83
-132.37
-112.98
-88.11
-56.35
-19.25
19.47
57.94
91.06
113.03
119.71
110.39
87.63
56.86
24.36
-4.32
-28.64
-47.52
-63.54
-80.29
-97.49
-114.03
-127.13
-134.86
-137.79
-138.69
-141.37
-148.69
-160.97
-174.24
-184.06
-186.64
-179.88
-163.27
-136.45
-99.91
-54.55
-1.94
57.56
122.02
188.13
251.58
308.15
354.67
389.62
414.12
419.59
402.81
365.78
315.73
261.46
209.28
161.67
116.94
72.39
25.51
-23.4
-73.14
-122.15
-169.14
-213.35
-253.77
-292.36
-328.82
-361.15
-384.93
-395.44
-388.72
-362.94
-318.64
-253.98
-174.87
-89.21
-5.8
67.23
122.23
153.56
159.61
144.28
116.27
85.99
62.86
51.73
52.92
63.63
81.94
105.86
134.17
164.77
193.56
215.55
224.86
216.8
188.89
141.46
77.35
2.59
-74.84
-145.79
-198.68
-226.6
-228.94
-210.54
-178.47
-139.75
-99.13
-59.31
-21.85
11.49
37.99
55.32
62.06
58.7
47.4
32.53
16.76
2.54
-8.94
-17.9
-24.76
-30.44
-35.54
-39.57
-40.52
-36.35
-25.29
-7.11
16.74
44.02
71.05
93.88
109.29
115.78
112.83
101.81
85.46
64.85
46.99
38.05
39.23
45.75
49.25
41.26
17.71
-19.89
-64.51
-106.88
-141.97
-170.03
-197.64
-229.19
-265.39
-302.06
-331.41
-343.04
-327.12
-279.32
-201.23
-99.97
14.16
128.99
233.07
309.01
344.11
336.3
291.58
221.04
136.16
46.72
-40.65
-121.6
-193.77
-255.01
-303.86
-343.72
-377.52
-407.02
-432.16
-450.83
-459.72
-455.88
-436.9
-401.71
-352.25
-292.17
-225.76
-156.33
-85.3
-12.06
65.98
146.06
225.64
301.13
368.69
424.76
467.1
495.14
509.78
513.16
508.36
499.91
491.45
485.08
480.22
473.47
459.4
432.47
389.13
329.7
259.57
186.9
120.58
67.79
31.96
12.48
6.05
8.53
17.02
31.18
52.03
80.61
117.07
160.45
208.42
257.72
303.72
340.43
361.98
363.23
342.16
301.11
247.13
189.59
137.49
96.83
68.6
49.76
32.24
6.88
-32.99
-89.09
-158.94
-236.12
-312.13
-378.13
-424.33
-445.62
-439.94
-408.27
-355.27
-291.9
-231.82
-188.47
-171.06
-178.22
-205.84
-245.84
-287.75
-322.24
-347.18
-365.96
-386.57
-418.14
-462.09
-519.54
-587.57
-658.25
-700.77
-687.76
-604.98
-463.09
-314.57
-176.95
-52.98
61.03
172.75
282.29
383.32
470.24
538.41
577.29
581.43
544.94
469.81
367.53
260.31
152.18
43.45
-65.12
-170.06
-257.45
-316.28
-339.65
-318.75
-255.45
-163.76
-62.08
31.86
107.07
163.4
203.42
231.19
249.97
260.14
260.2
251.1
235.42
217.01
201.36
191.08
187.31
189.46
194.91
200.82
206.43
212.17
219.4
233.35
253.13
276.61
299.54
315.02
315.83
297.74
260.59
209.64
153.93
102.6
62.83
37.29
24.25
19.75
20.36
23.25
27.29
31.71
34.55
33.38
25.36
7.98
-20.81
-56.66
-97.18
-139.81
-181.79
-221.17
-256.6
-286.68
-309.68
-323.86
-327.46
-321.28
-306.78
-284.53
-255.93
-223.48
-189.22
-154.43
-119.93
-85.95
-54.81
-28.4
-5.8
14.29
32.37
49.72
68.31
89.89
116.16
145.12
174.24
202.88
230.31
253.83
270.14
275.56
265.21
248.41
230.05
188.25
110.32
5.05
-117.55
-245.6
-366.64
-470.24
-547.46
-596.17
-616.58
-610.07
-577.48
-521.16
-445.29
-356.09
-263.26
-176.33
-108.29
-42.2
26.86
92.75
143.3
171.31
181.74
172.81
159.02
148.2
140.03
125.22
92.91
46.98
-9.44
-69.1
-123.41
-163.58
-187.21
-196.01
-195.54
-188.41
-172.73
-145.5
-104.47
-52.42
4.11
53.71
85.32
90.45
67.61
23.28
-31.41
-82.42
-117.44
-128.15
-114.33
-82.63
-45.82
-18.09
-9.55
-23.74
-55.36
-93.01
-123.13
-135.99
-127.61
-100.47
-61.44
-17.6
26.01
67.99
109.18
151.97
191.84
221.37
237.12
236.31
219.66
191.34
157
121.04
85.01
47.97
10.42
-23.39
-45.68
-47.11
-21.62
29.6
97.58
168.8
230.63
276.67
307.86
329.84
350.06
374.61
406.51
445.04
486.24
523.56
549.74
558.63
546.66
514.43
466.86
411.6
356.58
307.74
267.64
235.89
210.23
187.78
166.09
143.63
119.4
92.89
64.23
34.45
5.6
-19.84
-39.81
-53.58
-62.27
-68.64
-76.11
-87.75
-105.54
-129.72
-157.87
-184.99
-204.36
-209.82
-198.95
-174.98
-146.37
-123.68
-114.89
-121.42
-138.09
-155.97
-166.87
-166.82
-156.32
-138.67
-117.22
-93.85
-68.6
-41.43
-13.16
14.11
37.89
56.88
71.7
84.75
99.17
117.07
138.1
159.19
174.97
179.18
166.97
136.2
88.09
26.69
-42.53
-114.35
-184.31
-249.41
-308.31
-360.41
-405.23
-442.09
-470.38
-490.26
-503.19
-511.44
-517.62
-524.64
-535.38
-552.44
-577.37
-609.8
-646.37
-680.29
-702.08
-702.76
-676.9
-625.07
-553.81
-472.78
-391.39
-316.08
-249.15
-189.87
-136.74
-89.34
-48.46
-15.63
8.71
25.81
38.39
49.81
63.19
80.69
103.17
131.52
166.75
210.03
260.97
316.25
368.78
409.9
432.33
432.33
410.97
373.19
326.38
277.37
231.04
189.18
153.62
126.66
110.41
105.3
108.83
115.93
119.69
113.6
91.89
54.93
8.47
-39.7
-83.66
-121.82
-155.81
-188.28
-219.9
-249.52
-270.31
-272.87
-250.25
-201.51
-132.04
-50.23
34.81
127.22
216.41
285.33
321.82
324.75
301.18
258.99
205.89
147.6
88.35
29.61
-25.67
-76.81
-122.22
-159.94
-189.73
-210.05
-219.24
-216.02
-200.96
-173.55
-127.47
-67.36
-2.18
57.83
106.63
141.8
163.69
173.27
173.86
169.05
160.81
156.69
154.26
151.53
146.78
138.51
125.02
106.53
83.83
57.67
29.93
2
-23.06
-42.05
-51.37
-56.09
-56.79
-53.41
-46.34
-35.7
-22.75
-8.31
6.03
18.27
25.97
28.11
24.22
14.62
1.17
-13.74
-26.88
-35.69
-38.81
-36.34
-28.36
-15.41
1.98
23.73
50.01
81.3
117.45
157.47
199.77
243.08
286.4
329.05
370.85
411.86
452.29
492.46
532.57
572.04
608.69
637.92
652.95
647.3
617.77
566.05
499.29
427.67
360.82
304.96
261.79
229.48
205.06
186.16
171.26
159.36
149.39
139.5
127.61
112.48
94.05
73.52
52.89
33.64
16.43
0.87
-14.09
-29.57
-45.84
-62.22
-77.21
-88.93
-96.33
-99.41
-99.32
-98.11
-97.87
-100.04
-104.98
-112
-119.52
-126.06
-130.49
-132.45
-132.4
-131.3
-130.25
-130.31
-132.26
-136.63
-144.05
-155.08
-170.07
-189.15
-211.79
-236.76
-262.36
-286.75
-308.27
-325.98
-339.76
-350.18
-358.46
-366.09
-374.79
-386.09
-400.79
-418.09
-435.43
-448.56
-452.76
-444.5
-422.75
-389.55
-349.17
-306.69
-266.26
-230.43
-200.04
-175
-154.58
-137.61
-122.35
-106.6
-88.34
-66.67
-42.76
-19.54
-0.76
10.64
14.16
12.08
8.52
7.89
13.24
25.2
42.17
60.99
78.23
91.2
98.48
100.24
97.65
92.59
86.99
82.22
78.53
74.91
69.31
59.29
43.11
20.67
-6.12
-33.67
-57.72
-74.8
-83.16
-83.15
-76.93
-67.54
-57.88
-50.1
-45.4
-44.54
-48.35
-57.97
-74.28
-97.3
-125.27
-154.69
-181.19
-200.8
-211.47
-213.19
-207.26
-194.79
-175.75
-149.38
-115.57
-76.62
-37.75
-6.16
11.41
11.06
-6.8
-37.57
-73.91
-107.49
-130.78
-138
-125.96
-94.62
-47.11
10.67
71.53
128.53
177
215
243.1
263.54
278.69
290.34
299.22
305.34
308.14
307.22
302.41
293.83
282.17
268.74
255.9
246.51
243
245.5
250.84
252.83
244.42
221.03
182.94
135.85
88.26
47.57
16.86
-5.81
-24.95
-43.81
-61.2
-71.6
-67.63
-43.99
-0.57
57.43
121.51
182.96
235.11
274.17
297.86
304.62
293.67
266.26
227.51
186.34
152.95
134.95
134.17
146.05
162.28
175.06
180.48
179.26
174.55
168.98
162.89
155.01
144.24
131.13
117.84
106.19
96.02
84.89
68.87
45.35
14.65
-19.93
-53.32
-80.18
-96.49
-100.73
-94.66
-83.6
-74.19
-71.9
-78.62
-91.8
-105.52
-113.04
-109.65
-94.3
-70.42
-42.45
-13.39
15.86
45.16
74.01
100.78
123.35
139.88
146.08
140.56
125.83
106.98
88.26
71.47
56.26
41.31
25.37
0.72
-36.77
-85.08
-137.82
-189.9
-239.64
-288.02
-336.79
-387.19
-450.94
-534.25
-633.56
-737.88
-836.97
-924.54
-997.37
-1053
-1088.7
-1117.1
-1146.2
-1174.3
-1192.9
-1196.6
-1187.2
-1172.5
-1161.7
-1069.9
-864.48
-576.83
-278.01
-21.42
177.76
327.28
438.37
518.36
571.58
587.32
562.9
506.68
438.81
375.05
322.09
279.72
246.12
220.72
192.68
156.26
114.35
76.39
50.48
41.5
49.5
73.28
111.68
156.06
199.95
241.5
282.42
323.1
361.37
393.48
416.37
428.57
426.49
409.13
378.97
341.22
300.92
261.83
226.34
196.09
172.06
153.08
137.69
124.61
113.02
102.12
91.19
79.82
68.1
56.62
45.98
36.88
29.71
24.69
21.98
21.76
24.1
28.84
35.58
43.6
52.09
60.43
68.58
77.26
87.67
100.99
117.78
137.97
161
186.42
214.1
243.88
274.95
304.94
329.96
345.65
348.83
338.63
316.23
283.76
243.2
196.4
145.79
95.69
52.4
22.81
11.82
20.13
43.99
77.06
113.48
149.36
183.11
214.2
242.11
265.63
283.03
292.78
294.13
288.39
277.32
262.61
245.61
227.28
208.27
188.15
165.4
138
106.56
72.44
36.8
0.08
-37.81
-76.41
-115.07
-152.72
-188.06
-216.61
-235.33
-244.41
-246.79
-245.47
-240.81
-230.91
-212.71
-183.59
-138.41
-75.4
1.55
83.88
162.28
229.73
281.3
313.58
299.09
225.13
103.01
-37.65
-169.26
-278.12
-361.78
-422.37
-461.69
-479.22
-469.65
-430.64
-367.48
-293.03
-222.42
-167.2
-132.37
-116.32
-112.98
-112.59
-108.43
-99.74
-90.09
-83.32
-80.53
-80.49
-81.35
-82.22
-81.9
-80.42
-79.87
-82.75
-90.1
-100.76
-112.17
-121.79
-127.87
-130.14
-127.78
-121.36
-111.97
-100.37
-86.77
-71.18
-54.29
-37.58
-23.37
-13.58
-9.88
-12.79
-21.33
-33.14
-45.16
-54.2
-57.78
-55.26
-46.29
-31.18
-10.91
13.66
41.78
72.49
104.39
138.21
170.54
197.84
217.16
227.19
228.28
222.24
211.8
199.33
185.9
169.97
150.04
125.05
95.86
64.73
34.92
10.52
-4.73
-8.56
-2.14
12.91
31.11
47.27
55.31
49.82
29.05
-4.42
-44.82
-87.5
-127.62
-162.57
-191.83
-216.92
-238.25
-251.89
-250.25
-225.67
-176.82
-107.01
-24.65
59.32
133.38
182.32
195.28
171.5
133.23
92.1
52.08
9.41
-35.6
-80.06
-118.82
-145.13
-153.69
-143.11
-118.86
-87.52
-54.69
-23.05
6.89
36.81
70.33
111.21
161.83
220.45
284.14
348.33
406.74
451.03
473.04
468.14
437.08
385.79
322.06
254.41
189.1
128.96
73.91
22.98
-23.34
-62.79
-92.82
-112.88
-124.51
-130.97
-136.11
-143.22
-154.42
-170.43
-190.85
-214.17
-237.59
-256.32
-264.28
-256.14
-229.88
-188.54
-139.9
-93.88
-58.95
-39.27
-33.87
-38.22
-46.93
-55.78
-62.53
-66.4
-67.04
-64.25
-58.15
-49.6
-40.34
-32.5
-27.66
-26.02
-26.3
-26.06
-22.83
-15.14
-3.19
10.94
24.14
33.19
36.16
33.09
25.98
17.95
11.83
9.24
10.12
13.57
18.64
25.11
33.51
44.42
57.81
72.74
87.63
100.86
111.19
117.76
119.76
116.47
107.46
93.36
75.91
57.54
39.99
23.38
6.05
-14.24
-38.47
-65.36
-91.09
-111.35
-123.54
-128.44
-130.02
-134.08
-145.46
-165.96
-193.92
-225.19
-254.84
-279.59
-298.76
-314.05
-328.31
-343.85
-361.45
-380.23
-398.16
-412.28
-419.19
-414.82
-395.2
-357.4
-301.3
-230.27
-151
-71.4
1.92
65.11
117.54
160.09
193.52
217.51
230.75
232.13
222.17
203.06
177.93
149.95
121.72
94.88
70.95
51.62
38.76
34.02
38.32
51.48
72.39
99.49
130.92
164.82
199.1
231.18
257.95
276.06
282.55
275.78
255.95
225.31
188.15
150.06
116.96
93.91
83.82
86.83
100.02
118.06
134.47
143.37
141.07
127.05
104.1
77.34
52.57
34.23
24.08
20.9
21.46
22.26
20.94
16.91
10.87
3.89
-3.52
-11.44
-20.04
-29.09
-37.67
-44.64
-49.21
-51.33
-51.43
-50.23
-48.55
-47.32
-47.92
-51.96
-60.49
-73.07
-87.19
-98.9
-104.6
-103.13
-96.68
-89.96
-88.12
-94.08
-106.94
-122.03
-132.5
-131.61
-114.76
-80.59
-31.3
27.7
88.63
142.71
181.84
200.51
197.3
175.31
141.03
102.37
66.35
37.39
16.86
3.6
-4.75
-10.22
-13.66
-14.76
-12.59
-6.55
2.99
14.65
26.56
37.05
45.05
50.01
51.5
49.2
43.03
33.52
22.06
10.63
0.88
-6.39
-11.52
-15.51
-19.25
-23.13
-26.74
-29.22
-29.64
-27.24
-21.74
-13.54
-3.79
5.85
13.56
18.12
19.54
19.08
18.77
20.41
24.62
30.48
35.98
38.71
36.71
29.19
16.39
-0.6
-20.31
-41.23
-62.02
-81.47
-98.63
-112.64
-122.57
-127.32
-125.65
-116.79
-100.78
-79
-54.15
-29.54
-8.11
8.45
20.26
29.47
39.2
52.29
69.89
90.18
108.5
118.21
112.94
89.77
51.83
8.66
-26.13
-39.63
-24.95
15.7
71.12
124.93
161.17
169.13
145.78
95.44
27.95
-43.96
-107.02
-150.19
-167.04
-157.16
-126.34
-84.48
-42.06
-6.8
17.86
32.82
41.3
46.74
51.58
56.66
61.55
65.54
68.24
70.01
72.04
75.69
81.45
87.8
91.05
86.52
70.63
43.2
8.38
-26.37
-53.27
-67.81
-71.06
-69.35
-70.8
-81
-99.28
-118.62
-128.8
-121.71
-95.65
-56.32
-13.91
22.17
47.29
62.46
71.48
76.98
78.2
71.83
55.27
29.99
2.37
-18.65
-25.89
-17.71
1.05
21.89
37.04
43.21
42.67
40.79
41.99
47
52.49
53.71
48.3
38.22
29.17
27.71
37.78
58.71
86
113.7
137.08
154.21
165.39
171.86
174.68
174.18
170.48
164.15
156.44
148.83
142.42
137.2
131.99
124.81
113.27
95.53
71.13
41.41
9.67
-19.7
-42.68
-57.01
-63.11
-63.85
-63.21
-64.56
-69.63
-78.44
-90.16
-104.07
-120.04
-138.08
-157.84
-178.02
-196.88
-213.01
-226.07
-236.76
-246.48
-256.19
-265.77
-274.11
-279.67
-281.48
-279.85
-276.21
-272.31
-269.23
-266.31
-260.9
-248.89
-225.94
-188.94
-137.28
-73.41
-2.77
67.19
128.6
174.91
202.47
211.22
204.64
188.65
169.78
153.48
142.95
138.91
140.21
144.98
151.53
158.87
166.49
173.7
179.34
181.62
178.68
169.2
153.07
131.59
107.2
82.84
61.06
43.38
29.88
19.26
9.37
-2.1
-16.73
-34.81
-55.23
-76.05
-94.99
-110.37
-121.24
-127.34
-128.88
-126.26
-120.28
-112.29
-104.38
-99
-98.37
-103.71
-114.58
-129.23
-145.04
-159.76
-172.12
-182.24
-191.18
-200.39
-210.85
-222.35
-233.16
-239.89
-238.17
-223.64
-193.38
-147.19
-88.26
-22.56
42.64
100.65
146.95
179.94
200.58
211.51
215.8
216.2
214.79
212.89
211.2
209.88
208.94
208.34
208.35
209.43
212.37
217.8
225.91
236.12
247.02
256.71
263.09
264.33
258.95
245.87
224.34
194.33
157.08
115.33
73.01
34
0.57
-27.6
-53.66
-82.15
-116.96
-159.3
-207.14
-255.85
-299.95
-335.11
-359.27
-372.89
-378.35
-378.8
-377.33
-376.1
-375.52
-373.97
-367.89
-352.51
-323.43
-278.4
-218.79
-149.87
-79.62
-16.24
34.45
70.71
94.98
112.18
127.43
143.89
161.79
179.17
193.46
203.09
208.33
210.74
211.91
212.21
210.69
205.67
195.96
181.79
164.52
145.94
127.22
108.19
87.82
65.18
40.37
15.01
-8.28
-26.79
-39
-45.15
-47.21
-48.26
-51.36
-58.7
-70.81
-86.23
-101.4
-111.03
-109.24
-91.22
-55.52
-5.49
50.81
102.72
140.39
157.81
154.33
133.87
102.85
67.72
33.61
3.95
-19.06
-34.29
-41.86
-43.49
-42.45
-42.47
-46.57
-55.85
-69.41
-84.95
-99.81
-112.03
-120.52
-124.93
-125.29
-121.83
-115
-105.73
-95.36
-85.21
-76.11
-68.06
-60.4
-52.34
-43.53
-34.07
-24.32
-14.51
-4.55
5.86
16.83
28.1
39.01
48.95
57.86
66.43
75.83
87.14
100.8
116.12
131.32
143.96
151.59
152.37
145.53
131.49
111.76
88.7
65.19
44.3
28.64
20.01
18.87
24.15
33.54
44.22
53.65
60.29
63.77
64.44
62.86
59.24
53.4
45.1
34.55
22.57
10.64
0.53
-6.58
-10.44
-12.03
-13.17
-15.95
-22.11
-32.54
-47.12
-64.71
-83.48
-101.21
-115.83
-126.13
-131.99
-134.54
-135.53
-136.58
-138.42
-140.59
-141.68
-139.95
-134.25
-124.24
-110.45
-93.89
-75.84
-57.58
-40.45
-25.65
-13.84
-4.99
1.91
8.4
16.21
26.46
39.13
53.26
67.14
78.83
86.82
90.43
89.8
85.81
79.89
73.45
67.72
63.52
61.12
60.21
60.06
59.73
58.29
55.15
50.28
44.34
38.66
34.95
34.66
38.23
44.59
51.22
54.88
52.85
43.94
28.82
9.58
-11.01
-30.59
-47.47
-60.68
-69.74
-74.65
-75.98
-74.84
-72.54
-69.8
-66.57
-61.94
-55
-45.59
-34.4
-22.53
-10.64
1.47
14.44
28.43
42.38
54.01
60.88
61.9
58.27
53.17
50.47
52.9
60.86
72.16
83.13
90.02
90.36
83.66
71.24
55.62
39.59
25.44
14.43
6.51
0.18
-7.01
-17.39
-31.85
-48.64
-63.3
-69.5
-61.34
-35.86
4.9
53.58
99.56
132.59
146.63
141.77
123.7
100.68
79.86
65.12
56.86
53.85
55.18
61.2
72.66
89.04
107.45
122.93
130.45
126.57
110.53
83.57
47.86
5.36
-42.34
-93.69
-146.77
-199.11
-248.38
-293.11
-333.43
-370.44
-404.66
-434.5
-455.25
-460.04
-442.15
-398.27
-330.55
-246.82
-158.57
-77.32
-11.32
36.37
67.69
87.79
102.23
115.03
127.5
138.54
145.77
147.02
141.46
130.2
116.17
102.94
93.86
91.19
95.55
105.92
119.78
133.16
141.24
139.1
123.08
92.03
48.04
-4.08
-57.79
-106.26
-143.64
-165.85
-171.21
-160.88
-138.91
-111.61
-86.14
-68.38
-61.11
-63.12
-69.84
-75.07
-73.32
-61.13
-37.98
-5.92
31.03
67.65
98.58
119.45
127.85
123.72
109.09
87
60.63
32.66
5.18
-19.94
-41.25
-57.77
-69.35
-76.85
-81.55
-84.71
-86.95
-88.22
-87.98
-85.67
-80.62
-72.23
-59.91
-43.41
-23.31
-0.93
22.26
45.66
70.07
97.21
128.29
162.51
196.63
225.94
246.35
256.11
256.13
248.95
236.7
219.9
197.47
168.29
132.52
92.52
52.6
17.53
-8.81
-24.69
-30.81
-29.98
-26.15
-23.78
-26.89
-38.31
-58.93
-86.94
-117.86
-145.33
-162.99
-166.82
-156.8
-136.91
-113.33
-91.75
-75.17
-63.54
-55.15
-48.67
-44.21
-42.62
-44.14
-47.17
-48.79
-46.4
-39.54
-30.28
-21.8
-16.16
-12.45
-7.33
3.09
20.57
43.54
67.53
87.22
98.85
101.22
95.43
83.55
67.73
49.67
31.02
13.8
0.35
-7.32
-8.6
-4.81
1.04
5.51
6.28
3.08
-2.23
-6.9
-8.62
-6.66
-2.04
3
6.08
5.49
0.68
-7.69
-18.14
-28.85
-38.18
-44.91
-48.55
-49.36
-48.21
-46.32
-44.6
-43.26
-41.63
-38.51
-32.86
-24.36
-13.75
-2.68
6.89
13.45
16.26
15.66
13.13
11.25
13.27
22.03
38.58
61.08
85.01
104.61
115.57
117.08
112.4
107.21
106.9
114.26
128.57
146.88
165.62
182.18
194.96
202.56
203.19
195.02
177.53
152.3
123.33
95.8
74.7
63.7
64.71
77.98
101.96
133.02
165.35
191.97
206.44
205.15
188.58
160.98
128.2
94.94
63.11
31.8
-1.28
-37.75
-76.75
-114.41
-144.97
-162.97
-166.02
-156.78
-142.73
-133.75
-138.08
-158.66
-191.47
-227.36
-256.04
-270.33
-268.91
-256.16
-239.58
-226.43
-221.06
-223.7
-231.1
-237.86
-238.37
-228.58
-207.19
-175.73
-137.98
-98.78
-62.78
-33.53
-12.98
-1.43
2.42
1.05
-2.55
-6.06
-8.55
-10.94
-15.32
-23.8
-37.17
-54.37
-72.66
-88.46
-98.49
-100.42
-93.27
-77.54
-55.15
-29.4
-4.64
14.61
24.91
25.4
18.53
9.36
3.78
6.24
17.96
36.76
58.48
79.16
96.69
111.11
123.26
133.32
140.2
142.2
138.67
131.34
123.81
119.83
120.8
124.65
126.6
121.6
106.82
82.94
53.67
23.53
-3.76
-26.24
-43.44
-55.36
-62.07
-63.81
-61.37
-56.13
-49.77
-43.39
-37.17
-30.68
-23.51
-15.92
-8.84
-3.39
-0.21
0.74
0.06
-1.43
-2.98
-3.83
-3.39
-1.22
2.33
6.14
8.66
9.24
9.09
11.36
20.14
37.88
63.77
93.51
120.72
139.42
146.19
140.84
125.6
103.89
78.82
52.64
26.72
1.51
-23.36
-48.86
-75.66
-103.01
-127.91
-145.5
-150.83
-141.24
-118
-86.14
-52.42
-22.55
0.51
16.75
27.58
34.1
36.03
32.23
22.38
8.08
-7.03
-18.76
-24.32
-23.74
-19.63
-15.76
-15.16
-18.63
-24.82
-31.13
-35.11
-35.63
-32.95
-28.37
-23.33
-18.85
-15.34
-12.85
-11.21
-10.17
-9.53
-9.09
-8.95
-9.46
-11.09
-14.14
-18.44
-23.15
-26.94
-28.59
-27.42
-23.73
-18.57
-13.24
-8.75
-5.53
-3.52
-2.51
-2.47
-3.34
-4.97
-6.83
-8.03
-7.64
-5.24
-1.26
3.01
5.91
6.18
3.53
-1.19
-6.33
-10.18
-11.53
-10.04
-6.19
-1.1
3.96
7.77
9.44
8.59
5.37
0.43
-5.14
-10.14
-13.57
-14.75
-13.64
-10.78
-7.11
-3.74
-1.65
-1.21
-2.1
-3.57
-4.57
-4.43
-3.07
-1.08
0.63
1.07
-0.17
-2.85
-6.1
-8.68
-9.44
-7.63
-3.09
3.73
11.9
20.24
27.61
33.17
36.6
38.05
37.98
36.94
35.27
33.05
30.24
26.87
23.22
19.94
17.63
16.55
16.5
16.71
16.22
14.31
10.79
6.1
1.33
-2.31
-3.9
-3.25
-0.84
2.35
5.48
8.17
10.53
12.96
15.83
19.14
22.56
25.7
28.23
30.1
31.34
31.91
31.73
30.79
29.24
27.32
25.32
23.23
20.79
17.68
13.65
8.95
4.22
0.28
-2.21
-3.06
-2.64
-1.69
-0.93
-0.87
-1.49
-2.45
-3.32
-3.69
-3.31
-2.15
-0.37
1.62
3.15
3.54
2.3
-0.61
-4.6
-8.68
-11.94
-13.88
-14.72
-15.18
-15.92
-17.17
-18.52
-19.12
-18.12
-15.05
-9.99
-3.49
3.6
10.27
15.54
18.73
19.67
19.01
18.03
18.18
20.42
24.58
29.29
32.54
32.7
29.22
22.86
15.25
8.14
2.8
-0.27
-1.33
-1.03
-0.1
0.81
1.14
0.51
-1.29
-4.24
-8.09
-12.41
-16.7
-20.43
-23.14
-24.58
-24.66
-23.55
-21.76
-19.83
-18.22
-17.07
-16.21
-15.28
-14.05
-12.5
-10.81
-9.38
-8.49
-8.22
-8.39
-8.79
-9.09
-9.1
-8.75
-7.97
-6.85
-5.47
-4
-2.58
-1.42
-0.63
-0.25
-0.14
0.07
0.68
2.07
4.22
6.76
9.16
10.89
11.55
11.21
10.3
9.2
8.34
7.86
7.71
7.84
8.32
9.22
10.65
12.63
14.84
16.79
17.9
17.79
16.38
14.05
11.42
9.16
7.83
7.46
7.71
7.82
7.06
5.2
2.6
0.09
-1.35
-1.14
0.48
2.68
4.3
4.45
3.09
0.98
-0.8
-1.46
-0.94
-0.03
0.31
-0.54
-2.51
-4.76
-6.18
-6.04
-4.35
-1.78
0.62
2.07
2.27
1.38
-0.12
-1.69
-2.88
-3.46
-3.36
-2.87
-2.23
-1.88
-2.09
-2.95
-4.32
-5.9
-7.35
-8.27
-8.66
-8.64
-8.82
-9.86
-12.31
-16.09
-20.39
-23.73
-24.38
-21.23
-14.14
-4.25
6.51
16.11
23.21
27.48
29.47
30.09
30.08
29.65
28.32
25.35
20.28
13.29
5.46
-1.65
-6.65
-8.88
-8.84
-8.01
-8.29
-11
-16.41
-23.58
-30.84
-36.42
-39.22
-38.96
-36.22
-32.18
-28.26
-25.87
-26
-28.87
-33.4
-37.33
-37.66
-31.92
-19.68
-3.25
12.66
22.86
23.86
15.46
1.12
-13.46
-22.63
-23.12
-15.01
-1.4
13.33
25.53
33.46
37.84
40.92
45.22
52.02
60.91
69.89
76.37
78.29
74.69
66.14
54.27
41.4
29.87
21.56
17.36
16.97
19.1
21.83
23.32
22.06
17.23
8.88
-2.22
-14.51
-25.91
-34.33
-38.56
-38.75
-36.66
-34.92
-35.76
-39.91
-46.17
-52.02
-54.69
-52.56
-45.59
-35.47
-24.68
-15.53
-9.15
-4.87
-0.44
7.04
19.42
36.48
55.17
70.37
76.24
68.01
43.63
4.59
-43.91
-93.85
-135.72
-160.91
-163.77
-143.4
-104.07
-53.77
-1.66
44.74
81.3
107.71
126.19
140.06
152.37
164.97
178.54
192.12
203.44
209.04
205.31
189.68
161.93
124.5
81.62
37.82
-3.8
-42.29
-78.42
-112.93
-145.03
-172.04
-190.43
-197.96
-195.09
-185.28
-173.38
-163.49
-157.25
-153.56
-149.75
-143.24
-132.92
-119.12
-102.78
-84.43
-64.01
-41.41
-17.08
7.69
31.65
54.25
76.09
98.16
120.98
143.54
163.5
178.59
187.55
190.84
189.41
183.39
171.18
150.26
118.95
78.37
33.17
-9.96
-44.56
-66.8
-76.74
-77.85
-75.58
-75.33
-80.71
-92.33
-107.77
-122.11
-130.05
-128.25
-117.01
-100.67
-85.87
-78.77
-82.31
-94.86
-110.58
-121.58
-121.01
-105.34
-75.85
-37.82
1.18
33.85
55.33
64.12
61.8
51.4
36.58
20.95
8.41
3.38
9.9
29.7
60.45
95.38
125.14
141.04
138.03
115.97
78.93
33.18
-14.58
-58.26
-92.84
-114.66
-122.16
-116.6
-101.86
-83.24
-65.66
-51.86
-42.2
-35.3
-29.43
-23.46
-17.24
-11.25
-6.11
-2.41
-0.42
0.05
-0.4
-0.84
-0.42
1.2
3.66
5.95
7.28
7.39
6.82
6.41
6.73
7.67
8.45
8.36
7.24
5.79
5.21
6.62
10.38
15.95
22.21
28.06
33.1
37.77
43.14
50.15
59
68.93
78.33
85.51
89.29
89.32
85.98
80.15
72.77
64.74
56.75
49.19
42.26
36.06
30.81
26.89
25.16
26.59
31.98
41.53
54.52
69.15
82.86
93.05
97.93
97.21
92.21
85.48
79.96
77.7
79.18
83.1
86.88
88.13
85.68
79.94
72.87
67.28
65.74
69.72
79.17
92.59
107.69
122.04
133.08
138.79
137.99
130.15
115.54
95.05
70.08
42.4
13.88
-14.94
-42.94
-66.94
-81.47
-80.1
-58.48
-17.42
36.03
90.09
129.68
144.32
131.84
98.41
54.49
9.28
-32.55
-70.44
-105.43
-142.23
-183.08
-226.86
-270.58
-311.63
-349.97
-387.97
-428.43
-472.07
-522.61
-580.72
-643.09
-704.68
-761.44
-813.49
-865.24
-921.81
-947.17
-911.12
-799.13
-622.6
-412.77
-201.77
-10.83
150.6
282.07
388.08
468.95
524.99
560.54
580.89
590.94
593.65
589.68
578.39
558.9
526.06
468.72
388.05
292.21
194.62
109.8
49.75
21.01
22.92
44.98
72.86
94.64
103.08
97.88
83.04
63.46
42.49
21.46
-0.53
-23.21
-43.38
-58.28
-63.84
-58.45
-43.66
-23.08
-0.9
19.35
35.53
47.61
56.1
61.84
65.33
66.96
66.85
64.39
58.1
45.29
23.99
-6.1
-42.26
-79.47
-111.78
-134.43
-145.61
-144.03
-131.75
-112.34
-89.53
-66.31
-45.31
-29.47
-22.18
-26.52
-43.42
-70.32
-100.26
-123.31
-130.02
-115.31
-80.65
-33.49
15.75
57.66
86.4
100.91
103.52
97.94
87.81
76.25
66.46
61.75
64.89
76.32
93.32
109.96
118.58
112.41
88.32
48.55
0.34
-46.19
-81.4
-98.91
-96.85
-77.36
-44.87
-4.13
41.33
89.29
138.02
184.81
225.22
253.54
264.73
256.62
231.2
194.2
152.59
112.09
75.56
43.26
14.82
-8.45
-22.88
-24.07
-9.73
17.95
52.31
84.63
107.51
117.42
114.9
103.06
85.11
62.52
34.78
0.52
-41.15
-89.61
-142.43
-195.72
-244.6
-283.57
-307.14
-310.84
-292.47
-252.93
-196.21
-128.11
-54.63
19.54
91.69
160.7
226.48
289.18
348.48
402.73
448.49
480.39
492.42
479.92
441.53
380.42
303.45
219.24
135.49
57.58
-11.71
-71.42
-121.31
-161.72
-193.6
-218.97
-240.66
-261.74
-284.31
-308.78
-333.49
-354.98
-369.22
-373.16
-366.36
-351.25
-332.29
-313.5
-296.29
-278.28
-254.26
-218.91
-169.63
-108.31
-40.92
24.64
80.93
122.8
147.85
155.95
148.22
126.32
92.02
47.33
-5.63
-64.79
-127.74
-191.37
-251.1
-301.32
-336.3
-352.09
-347.93
-326.79
-294.73
-258.92
-225.6
-198.15
-176.81
-159.14
-141.77
-121.85
-97.61
-68.76
-35.91
-0.13
37.05
73.85
108.43
139.15
165.25
187.26
206.77
225.51
243.93
260.62
272.81
278.11
276.45
270.99
266.91
269.22
280.18
298.35
319.63
339.63
355.94
368.98
381.02
393.82
406.57
415.04
412.98
394.46
356.65
301.26
233.94
162.58
94.78
36.11
-10.63
-44.82
-67.11
-78.44
-79.64
-71.79
-56.54
-36.31
-14.38
5.43
19.19
23.51
16.18
-3.37
-34.22
-74.65
-122.81
-176.86
-234.47
-291.97
-344.12
-385.27
-411.63
-423.62
-426.11
-425.9
-427.63
-430.13
-426.62
-408.14
-368.7
-309.05
-236.65
-161.94
-93
-32.65
20.7
69.3
111.86
142.48
153.33
139.03
100.07
42.98
-22.49
-87.06
-143.99
-189.04
-218.99
-230.41
-220.28
-187.73
-135.97
-72.22
-5.53
56.29
109.08
152.64
189.31
222.43
255.19
290.23
329.39
372.9
418.09
458.85
486.68
493.53
474.86
431.98
371.41
302.21
232.85
168.85
112.63
64.63
24.67
-7.97
-34.86
-59.1
-84.55
-114.45
-150.17
-190.94
-235.03
-280.9
-327.15
-371.41
-409.33
-434.33
-439.62
-421.11
-379.19
-318.7
-247.07
-171.71
-98.45
-31.41
26.59
73.6
108.89
134.09
153.44
172.95
198.27
231.98
271.99
311.55
341.22
351.9
338.07
299.34
240.4
169.19
94.12
21.78
-44.37
-103.51
-156.34
-203.4
-245.01
-281.34
-313.47
-343.71
-374.79
-407.99
-441.5
-469.86
-485.16
-480.29
-451.81
-401.95
-338.09
-270.1
-206.7
-152.99
-109.89
-75.3
-46.23
-20.3
3.93
27.27
50.56
74.79
100.89
129.08
158.97
189.78
220.92
252.54
285.86
323.09
366.81
418.4
476.33
535.24
586.39
620.19
629.67
613.21
575.4
525.05
471.69
422.17
379.16
341.75
307.65
275.27
244.29
215.17
187.68
160.22
130.11
94.81
53.11
5.69
-44.89
-95.41
-143.07
-186.47
-225.95
-263.23
-300.8
-341.23
-386.3
-435.86
-486.66
-532.07
-563.57
-573.72
-559.36
-523.61
-474.62
-421.93
-372.25
-326.95
-282.83
-235.38
-182.57
-126.16
-70.67
-20.31
23.04
59.38
88.65
109.75
121.41
124.68
124.39
127.57
139.12
157.36
173.12
173.84
150.99
106.14
51.42
3.96
-22.32
-22.76
-2.69
26.92
55.46
76.62
88.85
93.27
91.12
82.92
68.94
49.66
25.94
-1.23
-30.81
-60.81
-87.09
-103.53
-104.1
-86.35
-54.4
-18.99
5.71
7.42
-19.83
-73.71
-144.68
-219.43
-284.77
-330.7
-352.15
-349.56
-328
-295.4
-259.85
-226.97
-198.51
-173.25
-148.75
-123.32
-97.13
-71.2
-45.74
-19.32
10.39
44.55
81.29
115.7
141.96
155.95
157.63
150.89
141.36
133.46
128.41
124.54
119.33
111.83
103.93
99.76
103.68
118.12
142.5
173.25
205.36
233.82
254.9
266.58
268.74
262.85
251.18
236.16
219.49
201.86
182.95
162.2
139.56
116.55
96.64
84.81
86.09
103.12
134.21
172.18
206.1
224.4
219.28
189.98
143.21
90.58
44
11.45
-5.56
-10.91
-10.97
-10.97
-12.42
-12.81
-7.55
7.74
35.1
73.18
117.68
162.76
202.9
234.25
255.02
264.71
263.35
250.84
227.06
192.54
149.42
101.59
54.36
12.71
-20.88
-46.73
-67.51
-86.58
-106.36
-127.64
-149.88
-171.98
-193.4
-215.7
-240.12
-265.93
-289.51
-305.41
-309.05
-298.79
-276.17
-244.87
-211.43
-180.05
-151.06
-121.65
-88.87
-52.58
-15.83
17.19
43.08
55.11
48.24
20.29
-27.11
-89.43
-161.17
-236.49
-309.41
-374.61
-434.89
-494.69
-557.18
-621.48
-683.94
-741.46
-792.87
-838.05
-837.71
-765.37
-618.09
-421.86
-214.42
-24.11
136.43
265.53
366.76
444.74
497.26
523.01
523.98
505.41
474.7
437.74
397.41
355.46
313.06
266.3
211.78
148.02
79.75
19.65
-19.75
-31.66
-15.29
24.14
75.11
126.98
171.87
206.74
232.32
252.11
267.47
280.22
291.49
299.16
301.36
295.81
281.68
258.74
225.83
176.46
108.53
29.39
-48.04
-108.97
-146.58
-162.55
-171.78
-183.43
-201.86
-223.19
-243.38
-262.68
-276.29
-285.61
-292.44
-285.62
-255.39
-214.35
-163.36
-95.85
-14.73
73.5
158.45
230.2
281.68
308.52
308.65
285.13
241.09
173.29
90.62
10.87
-47.33
-74.95
-76
-63.08
-48.07
-40.27
-44.36
-57.85
-77.11
-99.63
-124.95
-153.61
-187.85
-223.6
-254.89
-276.35
-283.06
-273.51
-249.28
-213.82
-170.56
-117.95
-59.65
-0.18
56.26
106.84
149.11
180.93
200.8
208.56
206.04
196.27
183.06
169.57
157.75
148.14
140.33
133.02
125.1
116.44
107.32
98.85
92.27
87.88
85.49
84.83
84.92
85.45
86.92
89.9
95.31
105.89
120.06
136.22
152.73
167.13
177.45
182.49
181.42
174.02
160.41
140.42
111.34
76.58
38.56
-0.15
-36.84
-68.94
-95.6
-115.14
-125.75
-125.94
-114.76
-94.44
-69.58
-46.08
-28.87
-19.73
-16.14
-12.97
-5.62
8.23
26.13
42.24
49.66
43.63
23.05
-9
-46.75
-84.21
-115.63
-137.19
-147.54
-148.12
-142.5
-135.76
-133.87
-136.2
-145.09
-160.83
-180.53
-197.98
-205.83
-199.24
-179.6
-155.21
-138.21
-139.7
-162.23
-197.89
-231.29
-246.5
-233.94
-194.15
-136.3
-72.99
-15.57
30.05
62.99
85.17
99.06
106.97
110.97
113.13
115.36
117.83
118.72
113.9
98.32
68.65
25.43
-25.6
-74.47
-109.99
-123.84
-112.95
-79.94
-31.79
22.5
73.39
111.85
129.6
120.31
81.92
18.84
-56.88
-128.85
-182.12
-208.89
-210.69
-196.03
-174.78
-153.22
-132.74
-111.62
-88.77
-65.94
-47.14
-35.69
-31.88
-32.71
-33.41
-30.67
-23.96
-14.93
-5.73
2.94
12.08
23.43
38.3
57.24
79.76
104.99
131.61
157.06
177.31
187.05
181.66
160.11
126.84
91.22
64.53
55.62
67.15
95.44
132.81
171.57
207.16
238.72
267.21
293.03
314.22
325.92
322.43
299.67
257.44
200.52
137.39
77.45
27.72
-9.08
-36.03
-59.42
-84.18
-110.33
-131.8
-139.1
-124.15
-84.31
-23.16
48.67
116.88
167.94
192.36
187.68
157.96
112.72
64.78
28.27
12.18
18.61
44.06
82.29
128.42
179.25
232.26
283.58
328.22
356.54
358.07
327.1
266.01
186.33
103.09
29.35
-41.33
-106.46
-159.43
-194.28
-205.1
-196.15
-170.04
-129.1
-80.97
-34.28
4.72
30.15
38.09
27.87
2.03
-33.08
-69.67
-100.29
-118.61
-119.76
-104.49
-78.45
-48.85
-21.16
3.41
25.58
45.31
59.82
64.45
53.64
25.33
-15.78
-58.53
-89.14
-97.79
-82.73
-50.41
-11.9
21.34
41.93
48.25
43.57
33.3
21.97
11.79
2.65
-6.74
-18.47
-34.4
-55.66
-82.06
-111.71
-141.01
-165.02
-179.37
-182.58
-177.61
-171.68
-173.68
-190.33
-222.83
-266.03
-310.04
-344.29
-361.65
-360.78
-346.17
-325.38
-305.34
-289.13
-274.75
-256.44
-228.06
-186.5
-133.79
-76.57
-23.67
17.23
41.95
50.24
44.73
29.4
8.73
-12.47
-29.78
-39.98
-42.38
-39.95
-38.75
-45.54
-64.45
-94.34
-127.93
-154.05
-161.58
-143.53
-99.88
-37.45
32.41
97.72
149.33
182.97
199.29
202.39
197.96
191.65
187.89
189.27
195.91
205.76
215.78
224.12
232.15
244.38
265.98
299.1
339.64
377.24
398.93
394.69
362.02
307.21
242.06
178.97
126.54
87.78
61.14
43.05
29.48
16.61
0.77
-21.41
-51.66
-88.33
-125.69
-155.67
-171.57
-172.09
-163.28
-156.66
-164.26
-193.04
-241.57
-300.78
-357.81
-401.13
-424.45
-427.7
-415.8
-395.81
-374.13
-354.58
-337.72
-321.09
-300.82
-273.63
-238.21
-195.96
-150.19
-104.26
-60.35
-19.23
19.21
55.09
88.11
118.24
146.51
175.4
207.9
245.81
288
330.05
365.66
389.12
397.95
394.04
383.25
373.03
369.1
372.66
379.06
379.03
362.26
321.84
257.57
176.83
92.15
16.79
-39.55
-73.44
-87.74
-89.18
-85.24
-82.21
-84.31
-93.71
-110.62
-133.11
-157.2
-177.96
-191.33
-195.96
-194.25
-191.25
-192.22
-199.84
-212.36
-224.04
-227.4
-216.1
-187.21
-142.01
-85.03
-22.46
39.42
95.66
143.46
182.34
213.29
237.37
254.45
262.72
259.2
241.19
207.68
160.09
101.48
35.11
-36.39
-110.56
-183.43
-248.47
-297.35
-323.04
-323.19
-301.96
-268.28
-231.86
-198.82
-169.92
-142.16
-112.34
-80.57
-51.41
-31.9
-27.79
-39.86
-62.57
-85.71
-98.2
-92.42
-67.29
-28.73
12.8
46.37
64.92
67.54
58.93
46.42
36.39
31.93
32.48
35.53
38.39
39.24
36.87
30.28
18.42
1.06
-20.13
-41.09
-55.83
-58.45
-45.21
-16.13
25.37
73.88
124.34
173.72
221.31
267.57
312.57
355.25
393.66
426.1
452.01
471.88
486.32
495.09
496.84
489.95
473.98
450.48
422.66
393.89
366.14
339.25
311.43
280.46
244.89
204.56
160.3
113.62
66.41
20.87
-20.48
-55.35
-81.86
-98.92
-106.35
-104.83
-95.53
-80.06
-60.21
-37.86
-14.93
6.88
26.13
41.63
52.36
57.43
56.11
48.08
33.42
12.71
-13.04
-42.77
-75.59
-111.08
-149.21
-190.13
-233.85
-280.01
-327.59
-374.81
-419.43
-458.85
-490.73
-513.31
-525.66
-527.48
-518.84
-499.99
-471.38
-434.32
-391.67
-348.24
-309.96
-282.4
-268.93
-269.2
-279.09
-291.87
-300.29
-298.44
-283.12
-254.23
-214.82
-171.07
-131.26
-103.73
-93.9
-101.52
-119.92
-138.18
-145.38
-134.97
-107.16
-67.63
-24.03
17.7
55.07
88.37
118.3
144.2
164.09
176.31
181.28
182.08
183.47
190.05
204.5
226.55
252.97
278.51
297.24
304.29
297.24
276.87
246.87
212.56
179.1
149.91
126.16
107.24
91.81
78.79
67.86
59.35
53.72
51.23
51.49
53.4
55.17
54.88
51.48
45.71
40.2
38.48
43.09
53.4
65.23
72.29
69.17
54.2
30.6
4.86
-16.58
-30.42
-37.81
-42.8
-49.3
-58.29
-67.17
-71.36
-67.44
-55.27
-38.41
-22.38
-12.41
-11.61
-20.86
-39.12
-64.05
-92.25
-118.74
-137.25
-141.09
-125.31
-88.83
-36.06
23.93
79.33
119.04
135.71
127.56
98.59
56.75
11.17
-30.88
-65.48
-92.6
-114.32
-132.49
-146.79
-154.32
-150.93
-133.12
-99.89
-53.75
-0.7
50.78
91.7
114.69
116.21
97.32
62.9
19.48
-27.02
-72.42
-113.54
-146.94
-168.03
-171.76
-155.16
-119.19
-68.99
-11.73
46.19
100.53
148
183.97
201.96
195.79
164.08
113.62
59.29
19.42
9.22
34.68
90.75
163.72
236.38
293.44
324.54
325.3
297.08
246.59
184.77
125.31
81.26
61.36
67.55
94.74
133.65
174.66
210.63
237.35
252.17
252.32
234.84
198.29
145.17
82.98
22.7
-25.05
-53.92
-63.7
-59.18
-47.45
-34.34
-22.96
-13.64
-5.76
0.92
5.27
5.13
-1.77
-17.12
-41.28
-73.82
-113.38
-157.6
-202.3
-241.18
-266.7
-272.17
-254.43
-215.32
-161.67
-102.57
-46.33
2.27
42.7
77.67
111.1
145.9
182.87
220.07
253.35
277.22
286.39
277.35
249.73
206.79
154.01
97.87
44.15
-2.67
-39.41
-63.95
-75.14
-73.5
-61.7
-44.87
-29.45
-21.5
-24.77
-39.79
-64.06
-93.29
-123.67
-153.19
-182.6
-214.31
-250.86
-293.05
-339.01
-384.44
-423.77
-451.65
-463.7
-457.27
-431.59
-388.46
-333.04
-273.93
-221.65
-185.57
-170.71
-175.73
-194.1
-217.46
-239.51
-257.94
-273.13
-285.3
-291.8
-287.25
-265.89
-225.32
-168.72
-104.19
-41.64
11.23
51.09
78.95
97.83
110.67
118.8
122.3
121.28
117.26
113.69
115.1
125.66
147.66
181.39
225.1
276.09
331.17
386.46
437.18
477.53
501.72
505.21
486.58
447.07
390.18
320.71
244.18
167.1
97.03
42.03
8.66
1.48
19.96
58.65
108.27
157.49
195.3
213.14
206.7
175.88
127.69
71.26
16.21
-30.18
-64.87
-89.14
-107.09
-123.32
-142.95
-166.18
-193.8
-225.76
-260.82
-296
-326.28
-345.21
-346.75
-329.4
-291.48
-237.88
-175.76
-111.79
-50.08
8.39
64.17
128.83
180.98
216.64
229.67
218.69
189.38
153.25
123.27
108.25
108.93
116.21
121.52
115.62
94.96
62.06
22.68
-18.44
-59.88
-103.7
-154.63
-212.56
-276.12
-340.5
-398.59
-442.73
-466.77
-467.93
-447.94
-413.9
-373.75
-336.74
-309.04
-291.89
-281.24
-269.84
-250.41
-218.74
-175.84
-125.89
-75.51
-30.2
7.77
39.88
69.87
101.51
136.19
172.26
206.38
234.94
256.15
270.57
280.42
288.22
295.75
303.88
313.17
324.59
338.95
356.01
373.08
384.72
383.9
364.45
323.39
262.52
187.93
107.89
30.73
-37.01
-91.47
-131.54
-158.39
-174.66
-183.18
-185.46
-181.45
-169.52
-147.8
-115.8
-75.12
-28.83
20.06
69.73
119.13
166.01
204.86
227.22
225.29
197.05
149.91
100.14
67.54
67.5
104.5
169.99
245.7
311.01
350.51
358.44
338.69
301.01
256.04
211.63
171.79
137.75
109.87
89.3
77.59
75.27
80.12
86.59
87.2
75.52
48.95
9.77
-36.23
-82.7
-125.58
-164.24
-200.29
-235.18
-268.16
-295.82
-314.03
-320.21
-314.84
-301.09
-283.18
-264.75
-248.48
-236.86
-233.05
-240.69
-261.7
-293.72
-328.75
-355
-361.42
-343.2
-304.91
-259.41
-222.34
-204.58
-207.39
-222.4
-236.72
-239.78
-228.06
-205.12
-177.59
-149.98
-121.77
-88.56
-46.06
6.27
64.13
120.54
169.49
208.62
239.46
265.5
289.7
312.75
333.44
350.24
363.16
374.71
389.13
409.73
436.25
463.23
481.08
479.38
451.32
396.85
322.83
240.27
159.88
88.49
27.94
-23.65
-69.19
-110.61
-148.1
-181.04
-208.9
-231.79
-249.95
-262.87
-269.12
-266.85
-254.98
-234.22
-207.07
-176.93
-146.82
-118.38
-92
-68.2
-48.99
-38.08
-39.67
-56.04
-85.64
-122.64
-158.55
-184.98
-196.55
-192.5
-176.34
-154.22
-132.21
-114.64
-103.03
-97.1
-95.65
-97.99
-104.53
-116.36
-133.97
-155.68
-176.91
-191.22
-193.26
-181.45
-159.02
-132.52
-108.31
-89.39
-73.92
-56.72
-32.63
0.14
39
78.43
113.05
140.4
161.63
180.09
199.02
219.87
242.16
264.41
285.54
305.38
324.38
342.48
358.45
369.96
374.6
370.92
359.04
340.37
316.7
289.54
259.72
227.41
192.24
153.45
110
61.47
8.94
-44.33
-93.44
-133.78
-163.33
-183.92
-200.26
-217.15
-236.56
-256.33
-271.56
-277.81
-273.7
-261.73
-246.89
-233.73
-224.3
-217.71
-211.17
-201.89
-188.17
-169.61
-146.63
-119.98
-90.28
-57.96
-23.32
13.55
52.46
92.73
132.84
170.72
204.59
233.81
259.04
281.41
301.08
316.24
323.52
319.54
302.68
273.9
236.06
192.06
143.86
92.86
40.97
-8.36
-50.89
-83.7
-107.29
-126.2
-147.14
-175.61
-212.85
-255.09
-295.34
-326.59
-344.79
-349.9
-344.99
-333.79
-318.59
-298.93
-272.35
-235.94
-188.39
-130.94
-67.34
-2.67
58.07
111.02
153.85
185.33
205.33
214.58
214.97
209.78
203.09
199.02
200.41
208.1
220.85
235.94
250.18
260.95
267.12
269.07
268.21
265.96
262.45
256.15
244.35
224.32
194.55
155.58
109.61
59.36
7.21
-45.57
-98.64
-151.88
-204.67
-255.3
-300.83
-337.62
-362.18
-372.08
-367.15
-349.53
-323.17
-292.51
-260.94
-229.88
-199.13
-167.67
-134.91
-101.65
-69.97
-42.23
-20
-3
10.95
24.92
41.6
62.2
86.18
111.86
137.68
162.46
185.37
205.22
219.92
227.05
225.08
214.19
196.32
174.17
149.8
124.1
97.42
70.57
45.41
24.24
8.42
-2.4
-10.18
-16.85
-22.81
-26.53
-25.78
-19.6
-9.65
0.24
6.08
5.84
0.51
-6.78
-12.78
-16.57
-19.94
-26.21
-37.68
-53.73
-70.62
-83.42
-88.73
-86.64
-80.62
-75.57
-75.13
-80.19
-88.91
-98.44
-106.64
-113.08
-118.53
-123.88
-129.06
-133.02
-134.71
-133.92
-131.33
-127.73
-122.97
-115.33
-102.4
-82.98
-58.68
-34.17
-14.88
-4.11
-0.53
1.67
10.17
30.58
63.5
104.55
146.76
184.24
214.81
240.33
264.79
291.58
321.07
350.08
373.14
384.85
382.24
365.99
340.01
309.62
279.42
251.78
227.01
204.65
184.59
167.56
154.2
143.87
134.15
121.62
103.73
80.38
54.18
29.11
8.62
-5.73
-14.5
-19.25
-21.49
-22.08
-21.54
-20.64
-20.68
-22.89
-27.5
-33.46
-38.71
-41.37
-41.01
-39.1
-38.27
-41.02
-48.48
-60.03
-74.18
-89.52
-105.73
-123.56
-143.96
-167.31
-192.72
-218.44
-242.68
-264.64
-284.7
-304.02
-323.49
-342.63
-359.54
-371.47
-376.18
-372.82
-361.97
-344.79
-322.04
-293.63
-259.07
-218.85
-175.24
-132.06
-93.31
-61.37
-35.92
-14.5
5.95
27.47
49.99
71.73
90.28
103.46
109.69
107.86
97.19
77.81
51.45
22.09
-4.34
-21.2
-23.54
-10.19
15.09
44.37
68.29
79.7
76.49
62.76
46.88
37.92
41.91
59.97
88.75
122.66
156.38
186.37
210.97
229.36
240.63
243.6
237.34
221.83
198.22
168.54
135.11
100.04
65.22
32.51
3.9
-18.19
-31.17
-32.75
-21.81
0.82
31.91
66.27
97.79
121.26
133.59
134.61
126.82
114.58
102.7
95.19
94.07
98.8
106.38
112.06
110.73
98.4
73.84
39.19
-0.27
-37.72
-66.9
-83.94
-88.63
-84.26
-76.39
-70.89
-72.13
-81.75
-98.42
-118.55
-137.47
-151.07
-156.92
-154.67
-145.73
-132.55
-117.61
-102.94
-89.88
-79.02
-70.32
-62.98
-55.6
-46.57
-34.87
-20.67
-5.44
8.63
19.76
27.22
31.47
33.61
34.59
34.81
34.29
33.09
31.59
30.3
29.29
27.9
24.82
18.83
9.7
-1.45
-12.47
-21.09
-25.91
-26.97
-25.53
-23.41
-22.1
-22.09
-22.76
-22.78
-20.79
-15.94
-8.46
0.5
9.08
15.4
18.25
17.47
13.97
9.31
5
2.03
0.74
0.91
2.23
4.45
7.48
11.01
14.27
16.04
15
10.61
3.48
-4.6
-11.3
-14.75
-14.36
-11.13
-7.06
-4.26
-3.86
-5.72
-8.49
-10.56
-10.76
-8.99
-6.14
-3.64
-2.82
-4.4
-8.25
-13.56
-19.32
-24.63
-28.83
-31.41
-31.84
-29.59
-24.26
-15.93
-5.22
6.63
18.1
27.75
34.56
38.2
39.02
37.97
36.23
34.94
34.56
34.88
35.14
34.54
33.07
31.82
32.55
36.73
44.5
54.01
61.87
64.36
58.93
45.62
27.25
8.66
-5.12
-10.62
-7.17
3.06
16.03
27.24
33.3
32.52
25.01
12.12
-4.25
-22.02
-39.23
-54.19
-65.66
-72.89
-75.86
-74.89
-70.61
-63.79
-55.39
-46.58
-38.61
-32.62
-29.16
-28.25
-29.29
-31.44
-33.87
-36
-37.56
-38.49
-38.84
-38.68
-38.15
-37.39
-36.5
-35.5
-34.33
-32.93
-31.23
-29.35
-27.62
-26.49
-26.43
-27.51
-29.15
-30.16
-29.07
-24.69
-16.7
-5.86
6.29
17.86
27.15
33.04
35.13
33.57
29.03
22.36
14.2
4.89
-5.55
-16.93
-28.41
-38.14
-43.59
-42.29
-32.86
-15.77
6.85
31.68
55.29
74.86
88.62
95.9
96.87
92.36
83.52
71.75
58.35
44.46
30.8
17.59
4.53
-9.06
-23.87
-40.12
-57.07
-73.08
-85.91
-93.6
-95.23
-91.55
-84.81
-77.85
-72.99
-70.82
-69.96
-67.55
-60.65
-47.76
-29.72
-9.82
7.39
17.62
18.54
10.55
-3.31
-18.45
-30.31
-35.74
-33.85
-25.89
-14.61
-2.84
7.44
15.76
22.81
29.67
36.91
44.16
50.44
54.67
56.51
56.54
55.97
56
57.13
58.94
60.2
59.6
56.37
50.6
43.12
34.94
26.68
18.4
9.88
1.03
-7.69
-15.43
-21.29
-24.99
-26.96
-28.06
-29.02
-29.83
-29.89
-28.21
-24.3
-18.38
-11.62
-5.69
-2.3
-2.6
-6.84
-14.4
-23.91
-33.68
-42.02
-47.61
-49.6
-47.74
-42.37
-34.3
-24.87
-15.53
-7.68
-2.13
0.9
1.78
0.93
-1.4
-5.11
-9.87
-14.64
-17.72
-17.3
-12.45
-3.97
5.7
13.29
16.18
13.49
6.53
-1.95
-9
-12.61
-12.24
-8.66
-3.21
2.8
8.45
13.3
17.01
19.18
19.35
17.14
12.52
5.92
-1.81
-9.7
-16.73
-22.04
-24.89
-24.61
-20.81
-13.59
-3.67
7.58
18.44
27.31
32.96
34.84
33.01
28.01
20.78
12.37
3.93
-3.63
-9.75
-14.3
-17.38
-19.08
-19.35
-17.99
-14.98
-10.72
-6.06
-2.03
0.62
1.74
1.61
0.62
-1.14
-4
-8.38
-14.21
-20.54
-25.69
-27.81
-25.88
-20.05
-11.69
-2.56
6
13.36
19.6
24.89
29.19
32.08
33.25
32.65
30.6
27.59
23.89
19.47
14.29
8.56
2.99
-1.3
-3.24
-2.38
1.09
6.15
11.41
15.46
17.23
16.22
12.81
8.08
3.45
0.29
-0.69
0.24
1.96
3.07
2.4
-0.2
-4.02
-7.76
-10.23
-10.95
-10.18
-8.76
-7.5
-6.91
-6.95
-7.23
-7.27
-6.66
-5.22
-2.81
0.61
4.94
9.76
14.4
17.97
19.7
19.24
16.65
12.52
7.72
3.23
-0.1
-1.68
-1.31
0.62
3.34
5.69
6.62
5.49
2.46
-1.56
-5.1
-6.62
-5.26
-0.89
5.43
11.95
16.75
18.42
16.61
12.17
6.84
2.62
1.06
2.59
6.35
10.51
12.86
11.71
6.58
-1.58
-10.74
-18.61
-23.58
-25.26
-24.32
-22.11
-19.8
-18.09
-17.2
-17.06
-17.6
-18.83
-20.66
-22.74
-24.64
-25.9
-26.29
-25.84
-24.57
-22.48
-19.46
-15.38
-10.23
-4.17
2.73
10.47
19.1
28.49
37.93
46.08
51.33
52.4
48.84
41.41
31.86
22.48
15.59
12.79
14.57
20.01
26.97
32.63
34.6
31.81
25
16.56
9.47
6.08
7.21
12.15
19.35
27.37
35.49
43.41
50.85
56.72
59.31
56.82
48.4
34.95
19.08
4.11
-7.38
-14.47
-18.19
-20.53
-23.25
-26.99
-31.2
-34.82
-37.14
-38.34
-39.08
-40.08
-41.36
-42.21
-41.63
-38.81
-33.62
-26.5
-18.23
-9.56
-1.13
6.39
12.16
15.3
15.23
11.96
6.49
0.46
-4.19
-5.83
-3.65
1.88
9.04
15.21
17.53
14
4.37
-9.5
-24.04
-35.45
-41.22
-41.42
-38.72
-37.07
-39.61
-46.86
-56.44
-64.01
-65.74
-60.02
-48.5
-35.2
-24.48
-19.13
-19.41
-23.42
-28.22
-31.25
-30.88
-26.6
-18.61
-7.6
5.29
18.16
28.2
32.03
26.5
9.93
-17.17
-52.12
-90.93
-130.06
-167.76
-204.45
-241.31
-278.24
-311.87
-335.63
-342.03
-326.15
-288.62
-236.05
-179.1
-128.64
-92.43
-73.37
-69.69
-76.84
-89.45
-102.54
-111.99
-114.69
-108.62
-93.2
-69.41
-39.68
-7.5
23.43
50.38
72.58
91.62
110.79
133.56
161.86
195.09
230.44
264.28
293.79
317.91
336.79
350.35
356.87
352.84
334.2
298.53
247.1
185.47
122.45
67.76
29.16
10.2
9.56
22.21
41.72
62.31
80.29
93.91
102.46
105.21
100.77
87.13
62.26
25.09
-23.39
-79.08
-134.55
-180.16
-206.33
-207.11
-182.87
-140.68
-91.71
-47.01
-13.43
8.01
20.86
30.18
39.63
50.1
60.44
69.36
77.02
85.47
97.69
115.71
139.14
164.41
185.77
197.62
196.87
184.33
164.47
143.27
125.4
112.02
100.68
86.96
67.34
41.3
11.77
-16.11
-37.6
-50.32
-54.97
-54.49
-52.39
-51.17
-51.46
-52.52
-52.87
-51.35
-47.71
-42.49
-36.78
-31.66
-27.77
-25.12
-23.3
-21.66
-19.8
-17.76
-15.97
-15
-15.15
-16.14
-17.13
-17.14
-15.43
-11.93
-7.19
-2.16
2.12
4.8
5.29
3.46
-0.37
-5.06
-8.63
-8.64
-2.89
9.25
26.04
43.43
56.23
59.98
52.86
36.49
15.25
-5.32
-20.57
-28.09
-27.88
-21.81
-12.48
-2.35
6.66
13.23
16.72
16.97
14.55
10.66
6.78
4.31
4.12
6.37
10.56
15.8
21.01
25.16
27.6
28.16
27.47
26.72
27.24
29.77
34.15
39.22
43.39
45.51
45.2
42.93
39.46
35.18
30.02
23.6
15.78
7.09
-1.3
-8.04
-12.22
-13.76
-13.43
-12.33
-11.45
-11.25
-11.73
-12.65
-13.95
-15.74
-18.16
-21.06
-23.67
-24.85
-23.42
-18.93
-11.94
-3.92
3.31
8.42
11.01
11.72
11.74
12.16
13.39
15.06
16.31
16.39
15.11
12.82
10.05
7.17
4.07
0.42
-4.08
-9.2
-14.2
-18.11
-20.13
-20
-17.92
-14.43
-10.08
-5.44
-1.04
2.56
4.93
5.98
6.1
6.01
6.37
7.47
8.96
9.96
9.52
6.98
2.36
-3.57
-9.46
-13.95
-15.89
-14.88
-11.44
-6.82
-2.75
-0.9
-2.38
-7.31
-14.89
-23.72
-32.41
-40.02
-46.28
-51.4
-55.55
-58.7
-60.47
-60.31
-57.66
-51.93
-42.34
-27.87
-7.82
17.64
46.69
75.82
100.62
117.12
123.18
119.07
107.34
91.56
75.24
60.81
49.21
40.12
32.53
25.48
18.53
11.86
5.96
1.11
-2.94
-6.83
-11.16
-15.95
-20.5
-23.78
-25.18
-25.1
-24.97
-26.7
-31.75
-40.43
-51.79
-63.93
-74.83
-82.98
-87.66
-88.95
-87.41
-83.79
-78.74
-72.72
-66.15
-59.51
-53.39
-48.48
-45.18
-43.28
-41.72
-38.94
-33.54
-25.18
-14.99
-5.28
1.34
3.49
1.77
-1.08
-1.13
5.24
19.96
42.67
70.87
100.79
128.49
150.8
165.93
173.74
175.61
174.02
171.71
170.8
171.98
174.29
175.4
172.4
162.92
145.57
120.1
87.23
48.57
6.74
-34.23
-69
-92.15
-99.9
-92.26
-73.78
-52.53
-37.41
-34.98
-47.43
-72.38
-104.88
-139.79
-173.61
-204.41
-230.9
-251.34
-263.57
-266.46
-261.49
-253.57
-249.32
-253.91
-267.64
-284.79
-295.43
-289.62
-261.85
-213.28
-150.71
-82.63
-15.62
47.43
105.81
158.06
199.79
224.15
224.94
200.28
154.68
97.99
42.17
-2.42
-29.25
-36.16
-24.98
-0.51
30.36
59.84
81.22
90.86
89.21
79.99
67.72
55.09
42.15
27.32
9.76
-8.79
-23.98
-31.13
-28.14
-17.24
-4.37
3.76
3.12
-5.59
-17.3
-25.24
-24.43
-14.01
2.67
20.1
33.61
41.72
46.58
52.39
62.76
78.44
96.76
112.92
122.54
123.81
118.38
110.37
104.23
102.54
104.97
108.77
110.25
106.45
95.83
78.31
54.45
24.76
-10.22
-49.08
-88.88
-125.29
-153.73
-171.22
-177.67
-176.21
-172.41
-171.87
-177.89
-190.58
-207.81
-226.67
-244.49
-258.4
-264.54
-258.99
-238.81
-203.01
-153.63
-95.96
-37.23
16.08
60.36
95.8
123.88
145.96
163.57
178.74
193.75
210.73
231.29
256.38
285.69
314.55
334.11
333.91
305.73
246.32
159.06
52.97
-61.07
-162.57
-230.92
-256.74
-246.18
-213.3
-171.07
-126.08
-81.18
-36.76
6.51
46
78.26
101.2
115.47
122.94
128.34
132.59
136.12
138.4
137.37
130.67
117.49
99.48
79.62
61.66
47.44
39.68
39.6
46.46
57.95
70.98
83.39
92.19
94.31
85.2
64.38
33.48
-4.08
-43.68
-81.23
-114.18
-142.54
-168.5
-205.13
-254.11
-310.79
-365.51
-405.38
-418.05
-396.83
-344.44
-260.98
-162.36
-67.62
6
49.02
62.53
57.25
49.64
56.25
87.99
144.19
215.7
285.72
336.12
353.93
335.98
288.77
225.94
163.2
112.82
82.85
74.32
81.26
92.8
97.18
86.23
59.39
24.54
-6.48
-22.82
-21.2
-7.69
6.05
9.02
-3.95
-30.94
-65.41
-100.9
-133.37
-161.69
-185.21
-201.48
-205.07
-190.18
-153.88
-98.27
-30.81
38.72
101.39
151.86
188.62
213.14
226.37
227.27
212.65
177.93
119.76
37.05
-67.08
-184.49
-302.15
-405.73
-481.75
-520.84
-520.41
-484.48
-423.77
-351.18
-277.45
-208.43
-147.38
-95.27
-52.12
-17.96
8.52
27.17
38.47
43.93
45.83
44.07
38.2
28.72
17.15
7.11
-1.65
-11.32
-24.21
-25.43
-2.04
52.95
136.43
226.24
317.58
407.38
492.38
569
631.44
671.58
682.42
659.27
599.99
508.1
388.29
248.54
100.22
-43.44
-171.62
-275.91
-350.28
-392.71
-403.27
-386.05
-347.01
-292.14
-227.6
-160.73
-98.55
-46.71
-9.26
11
13.67
1.72
-19.24
-44.2
-70.66
-98.32
-129.18
-166.13
-214.48
-277.2
-353.69
-439.64
-529.95
-619.08
-698.96
-760.27
-794.19
-799.24
-776.54
-730.13
-664.61
-586.61
-503.35
-418.7
-333.93
-222.64
-82.31
68.68
202.88
304.63
373.53
416.56
442.24
456.36
462.12
456.26
438.97
414.38
390.32
378.56
378.03
384.86
393.79
399.62
394.85
377.8
351.18
323.54
302.7
292.33
294.02
308.06
335.43
363.94
389.22
392.85
367.31
315.33
247.21
174.95
106.71
46.12
-7.48
-53.48
-91.65
-119.06
-134.41
-139.09
-136.31
-129.84
-122.78
-117.95
-115.46
-115.07
-114.07
-110.43
-103.92
-95.65
-87.19
-79.94
-74.82
-71.46
-69.5
-67.4
-64.08
-59.3
-53.83
-48.56
-44.44
-42.37
-42.6
-45.27
-50.19
-57.22
-66.03
-76.61
-88.4
-100.5
-111.43
-119.84
-123.75
-121.8
-113.3
-98.37
-78.33
-55.04
-31.13
-8.96
9.6
22.98
30.21
31.25
26.7
17.68
5.84
-7
-19.12
-28.93
-35.32
-37.59
-35.28
-28.39
-18.04
-4.93
10.1
25.72
40.86
54.41
65.63
73.99
79.06
80.87
79.89
76.87
72.3
66.81
60.82
54.75
48.88
43.07
37.52
32.36
28.21
25.58
25.24
27.91
33.94
43.37
55.59
70.59
85.62
98.53
106.41
106.88
98
78.95
50.31
13.64
-28
-70.68
-109.21
-139.48
-157.93
-162.34
-152.12
-128.1
-93.01
-50.33
-3.66
44.27
90.23
131.72
166.9
194.22
212.68
221.48
220.43
205.9
182.64
154.65
125.41
97.78
73.37
53.02
36.44
23.17
13.06
6.51
3.44
3.43
6.25
11.49
19.07
28.37
37.57
43.97
43.67
32.41
7.79
-28.94
-73.69
-120.61
-164.63
-204.29
-237.98
-264.9
-284.49
-295.38
-295.71
-284.49
-262.16
-228.58
-189.31
-148.27
-108.19
-71.11
-38.38
-10.41
12.73
31.19
45.44
55.71
63.62
71.05
79.49
89.66
101.34
113.6
124.88
132.91
135.37
131.41
120.81
104.55
84.18
61.8
39.86
20.56
5.57
-4.16
-7.89
-6.2
-0.16
8.39
16.93
22.94
24.19
19.35
8.13
-8.4
-28.41
-48.99
-67.11
-80.12
-86.3
-85.16
-77.16
-64.01
-48.09
-32.41
-18.99
-9.48
-4.32
-2.9
-3.88
-4.98
-3.99
3.06
16.6
36.25
60.81
88.44
117.11
144.34
169.2
190.92
208.67
222.35
232.02
238.24
241.61
243
242.89
241.62
239.35
235.8
230.8
223.57
213.65
200.7
184.9
166.32
144.95
120.26
90.5
60.47
32.67
8.93
-9.7
-22.64
-30.06
-32.96
-32.44
-29.81
-26.06
-22.54
-20.09
-18.81
-18.56
-19.09
-20.61
-23.1
-26.82
-31.8
-38.29
-46.25
-55
-63.83
-72.3
-80.69
-89.39
-99.12
-110.24
-122.93
-136.99
-151.64
-166.13
-180.16
-194.05
-208.38
-223.86
-241.34
-261.54
-285.26
-312.46
-341.66
-369.46
-390.92
-400.76
-395.35
-374.34
-340.91
-300.72
-259.78
-222.58
-190.95
-164.5
-141.84
-121.77
-103.69
-87.34
-72.67
-59.3
-47.06
-35.91
-25.94
-17.66
-11.55
-7.66
-5.42
-3.55
-0.35
5.39
13.83
23.56
31.98
36.11
34.09
26.41
16.01
7.19
3.61
6.91
15.81
27.16
37.78
45.57
50.75
54.82
59.78
66.34
74
81.35
86.67
89.26
89.05
86.61
82.25
76.25
68.26
58.26
46.86
35.2
25.49
19.69
19.29
24.16
32.9
42.91
51.28
55.77
55.16
50.12
42.01
32.75
23.63
15.12
7.43
0.55
-4.67
-7.08
-4.81
3.31
17.03
34.32
51.44
64.18
69.14
65.19
53.8
38.91
25.48
17.71
17.74
24.84
35.87
46.42
52.47
51.69
43.72
30.21
14.11
-1.41
-14.05
-22.33
-26.17
-26.35
-23.58
-19.06
-13.88
-9.08
-5.47
-3.71
-3.46
-3.85
-3.58
-1.29
3.39
9.7
16.01
20.37
21.43
19.26
14.79
10.04
6.72
6.05
8.16
12.26
16.6
19.41
19.18
14.63
5.71
-6.81
-21.15
-34.95
-45.62
-51.58
-52.03
-47.32
-39.21
-29.56
-20.22
-12.41
-6.64
-2.5
0.53
3.22
6.03
9.09
12.49
16.2
20.04
23.83
27.26
30.11
32.37
34.26
36.25
39.06
43.18
48.53
54.63
60.47
64.85
66.59
64.94
59.31
49.99
37.82
24.05
10.54
-0.99
-9.52
-15.02
-18.16
-20.61
-24.15
-29.77
-37.27
-45.09
-50.93
-52.84
-49.89
-42.21
-31.25
-18.95
-7.29
2.27
8.97
12.88
14.41
14.55
14.48
15.01
16.6
19.14
21.67
23.61
24.71
24.78
24.25
23.35
22.04
20.07
17.1
12.49
6.23
-1.29
-9.65
-18.14
-26.01
-32.73
-37.93
-41.6
-44.25
-46.11
-47.37
-47.58
-45.95
-41.22
-32.51
-19.38
-2.18
17.4
37.38
55.31
69.03
77.28
79.39
75.6
66.86
54.69
40.86
27.24
15.7
7.46
3.68
4.07
7.7
12.91
17.92
21.12
21.74
19.59
14.97
8.92
2.17
-3.97
-8.42
-10.38
-9.91
-7.97
-6.19
-6.12
-7.93
-10.85
-13.05
-12.64
-8.86
-2.2
5.58
12.54
16.87
17.7
14.75
8.45
-0.05
-9.2
-16.52
-19.4
-15.47
-3.83
14.39
35.4
54.24
65.81
66.62
56.14
36.78
12.85
-10.95
-31.24
-46.84
-58.22
-66.43
-72
-74.09
-70.84
-60.9
-44.4
-23.73
-3.25
12.42
19.95
18.22
8.92
-4.64
-18.8
-30.86
-39.32
-44.11
-45.29
-42.94
-37.2
-28.17
-16.97
-5.72
2.56
5.28
1.16
-8.69
-21.16
-32.33
-38.78
-39.13
-34.33
-26.79
-19.17
-13.19
-9.05
-5.77
-1.96
4.26
14.65
31.06
54.9
85.14
117.16
142.65
151.93
137.36
97.93
40.62
-20.4
-67.83
-87.69
-73.94
-30.52
30.56
93.24
143.04
170.55
172.71
151.79
112.9
62.03
4.86
-53.5
-108.99
-159.14
-204.11
-246.63
-290.34
-337.49
-386.14
-429.53
-457.99
-462.08
-436.54
-382.51
-307.82
-223.99
-142.53
-71.55
-14.15
30.86
66.68
95.6
118.09
132.46
137.21
132.52
120.8
105.74
90.69
77.69
67.42
60.82
59.52
65.58
79.21
96.87
111.64
115.72
104.44
79.16
47.17
18.72
2.51
3.09
20.52
52.85
98.41
156
223.52
295.92
364.65
419.42
452.43
460.77
447.94
421.65
390.79
362.03
338.42
319.11
300.59
278.81
250.19
213.01
166.93
112.97
53.09
-10.06
-73.48
-133.91
-188.13
-233.78
-269.23
-294.07
-309.33
-317.45
-322.03
-327.38
-336.92
-351.53
-368.57
-382.61
-387.33
-378.66
-356.51
-324.48
-287.73
-250.37
-214.11
-178.48
-142.9
-108.33
-77.84
-55.3
-43.24
-41.51
-47.56
-57.95
-69.7
-80.66
-89.53
-95.23
-96.31
-91.25
-78.3
-56.06
-24.41
15.49
61.4
110.15
158.64
204.09
244.25
276.43
297.65
305.35
299.21
282.94
264.4
253.27
256.45
274.63
301.21
325.3
337.21
333.09
316.25
294.63
276.39
265.68
261.03
257.27
248.86
232.39
207.13
174.22
134.61
89.17
38.62
-16.23
-73.63
-131.41
-187.39
-239.91
-286.9
-326.03
-354.8
-371.75
-377.91
-376.61
-371.57
-364.88
-355.72
-341.17
-318.68
-288.37
-253.33
-217.88
-184.81
-153.83
-122.61
-89.23
-54.71
-23.48
-1.16
8.6
6.1
-4.34
-16.44
-24.87
-26.37
-20.47
-8.25
8.84
29.95
54.95
83.19
113.52
143.24
169.19
188.82
200.73
204.53
200.81
190.9
176.25
158.94
140.54
121.56
100.82
75.61
43.28
3.6
-38.99
-76.61
-101.03
-107.76
-98.54
-80.68
-63.87
-55.71
-58.78
-70.22
-83.81
-92.36
-90.11
-74.19
-45.59
-9.77
25.21
51.57
65.03
67.56
67.05
73.4
94.19
131.62
182.12
238.36
292.08
335.4
361.57
364.99
342.38
294.58
227.83
153.57
84.53
30.17
-6.74
-30.39
-49.62
-73.89
-109.2
-156.21
-209.95
-261.68
-301.75
-322.29
-319.66
-295.19
-254.56
-205.52
-156.15
-112.57
-78.45
-54.92
-41.28
-35.25
-33.52
-32.51
-29.69
-25.09
-20.47
-18.33
-19.55
-22.23
-22.76
-17.71
-5.6
12.18
31.94
49.86
63.17
70.21
70.77
65.74
57.33
49.42
46.85
53.74
71.18
95.7
119.91
135.48
136.57
122.45
97.51
69.23
44.54
27.48
18.37
15.03
15.17
17.51
21.85
27.74
33.72
37.41
36.7
31.18
22.67
14.13
7.69
3.33
-1.28
-9.69
-24.58
-46.07
-71.39
-95.94
-115.19
-126.65
-130.92
-130.87
-129.64
-128.37
-124.54
-113.09
-89.27
-51.9
-4.8
44.02
85.24
111.34
118.8
109.04
87.33
61.2
38.06
23.35
18.58
20.95
24.17
20.73
4.94
-24.53
-63.58
-103.9
-136.17
-153.89
-155.86
-146.64
-133.97
-124.93
-122.68
-125.57
-128.39
-125.98
-116.31
-100.83
-83.1
-65.98
-49.78
-32.64
-12.85
9.75
32.85
53.25
69.14
81.71
94.7
112.88
139.48
174.23
213.44
250.85
279.94
295.85
296.69
283.41
259.15
228.08
193.99
159.63
126.24
93.88
62.22
30.79
-0.55
-31.75
-63.11
-95.07
-127.95
-161.72
-195.26
-226.63
-254.4
-278.75
-301.53
-325.75
-353.46
-384
-414.25
-439.45
-455.03
-457.92
-446.51
-420
-377.78
-319.97
-248.39
-167.5
-84.35
-6.75
59.28
111.21
149.89
178.24
199.32
215.2
227.16
236.15
243.31
250.58
260.32
274.97
296.64
326.3
362.89
402.45
438.08
461.27
464.73
445.16
404.58
349.62
288.8
229.49
175.74
128.22
85.32
45.29
7.14
-29.5
-64.78
-99.43
-133.64
-166.89
-197.6
-223.81
-244.56
-260.82
-275.17
-290.53
-309.11
-330.19
-350.45
-364.75
-367.79
-355.66
-327.53
-285.34
-233.06
-176.11
-119.34
-66.67
-20.79
16.19
42.85
58.05
61.53
54.12
37.59
14.48
-12.45
-39.8
-63.67
-80.36
-86.67
-81.3
-65.8
-44.2
-21.25
-0.68
16.5
32.18
49.23
70.21
95.88
125.29
155.6
183.73
206.87
223.41
233.64
239.19
242.51
245.05
247.02
247.1
244.03
237.91
230.8
225.66
224.06
225.32
226.19
222.91
213.64
199
181.48
163.39
145.58
126.65
104.78
78.85
49.43
18.11
-13.3
-43.19
-70.35
-92.86
-108.87
-116.61
-116.18
-109.81
-102.05
-97.89
-100.52
-109.93
-122.61
-133.03
-136.19
-130.01
-115.93
-98.55
-83.31
-74.08
-71.5
-73.24
-75.34
-74.66
-69.84
-61.59
-51.43
-40.59
-29.52
-18.58
-8.43
-0.71
2.17
-1.55
-12.38
-28.81
-47.34
-63.04
-71.48
-69.82
-58.52
-41.27
-23.58
-10.44
-4.45
-4.76
-7.9
-10.4
-10.26
-8.27
-6.45
-6.74
-9.11
-11.27
-9.13
1.68
24.59
60.73
107.49
159.03
206.74
241.44
255.67
246.03
213.58
163.87
105.25
46.37
-5.51
-46.19
-74.75
-93.3
-106.02
-117.86
-133.29
-154.88
-183.12
-216.63
-252.65
-287.34
-316.21
-334.91
-339.92
-329.69
-304.97
-268.97
-226.39
-182.72
-142.42
-108.08
-80.49
-58.83
-41.62
-27.19
-14.38
-2.11
10.38
23.9
39.13
55.95
73.36
89.41
102.12
110.29
113.82
113.67
111.13
107.33
102.88
98.05
92.75
86.92
80.66
73.96
66.8
58.96
50.47
41.48
32.46
23.6
15.14
7.28
0.33
-5.24
-9.12
-11.13
-11.83
-12.08
-12.95
-14.79
-17.26
-19.26
-19.76
-18.27
-15.49
-12.92
-12
-13.16
-15.43
-17.11
-16.27
-12.27
-5.64
1.87
8.66
14.17
19.39
25.97
35.01
46.03
56.93
64.61
66.38
61.4
50.72
37.35
25.22
18.48
20.54
33.21
55.4
82.68
107.93
123.19
122.39
104.05
71.6
32.37
-5.42
-35.49
-54.93
-64.2
-65.43
-61.44
-54.24
-45.58
-36.92
-30.05
-26.39
-26.6
-30.03
-34.83
-38.61
-39.07
-35.08
-26.11
-13.05
2.64
18.88
33.44
44.29
50.39
52.29
51.47
50.55
51.53
55.1
60.36
65.1
66.92
64.19
56.86
46.15
34.51
24.65
18.89
17.96
20.15
21.38
16.44
1.65
-22.66
-50.73
-72.86
-78.66
-61.37
-20.82
36.57
99.56
155.66
194.24
208.16
194.36
153.88
91.95
17.17
-59.33
-126.52
-175.8
-202.89
-208.07
-195.29
-170.47
-139.86
-109.26
-83.22
-64.93
-55.36
-53.36
-55.58
-58.03
-57.15
-51.31
-41.2
-28.98
-17.33
-7.73
-0.05
7.23
15.88
26.91
39.59
51.59
59.7
61.02
54.25
40.28
22.08
4.1
-9.25
-15.24
-13.97
-8.37
-3.18
-2.46
-7.76
-17.5
-27.61
-33.79
-33.43
-26.5
-14.92
-1.84
9.94
18.58
22.42
20.34
11.98
-1.17
-14.76
-22.35
-18.19
-0.32
27.14
54.63
70.84
67.36
42.35
1.12
-46.38
-89.62
-120.6
-135.63
-134.83
-120.24
-94.65
-61.38
-24.1
12.95
44.99
68.11
79.84
79.75
70.14
55.17
39.03
25.16
15.11
8.59
4.94
3.62
4.96
9.87
18.52
30
42.57
54.69
65.47
75.27
84.12
91.07
94.08
90.52
79
60.87
39.75
19.96
4.92
-4.52
-9.83
-13.37
-16.92
-20.93
-24.35
-26.02
-25.72
-24.26
-23.14
-23.39
-24.46
-24.48
-20.77
-11.51
2.91
19.83
35.18
44.95
46.75
40.76
29.05
14.78
0.87
-11.07
-20.83
-28.85
-35.93
-42.35
-47.52
-50.39
-49.93
-46.08
-39.93
-34.05
-30.88
-31.86
-36.21
-41.1
-42.99
-39.29
-29.98
-17.48
-5.72
1.9
4.01
1.75
-2.19
-5.01
-5.24
-2.86
1.05
5.01
8.11
9.99
10.77
10.73
9.94
8.26
5.44
1.68
-2.74
-6.77
-8.94
-8.19
-3.71
4.12
14.07
24.25
33.15
39.61
43.52
45.42
45.84
45.52
44.99
44.84
45.07
45.55
45.33
43.6
39.84
34.27
27.7
21.12
15.3
10.13
5.37
0.72
-3.2
-5.63
-6.39
-5.95
-5.81
-7.2
-10.09
-12.98
-13.6
-9.87
-1.41
10.05
22.13
32.51
39.93
44.32
46.27
46.27
45.03
43.93
44.78
49.39
58.2
69.29
78.34
80.77
73.16
55.23
30.06
2.91
-20.31
-35.35
-39.94
-34.39
-20.61
-1.69
18.49
35.55
45.23
44.85
33.4
12.68
-13.68
-41.28
-65.91
-84.57
-95.94
-100.23
-98.58
-92.81
-84.42
-74.52
-63.47
-51.01
-36.59
-19.92
-1.17
19.35
40.78
62.5
83.32
101.46
114.36
119.27
114.2
99.05
76.18
49.46
23.74
2.65
-12.36
-22.28
-30.37
-40.85
-57.41
-81.97
-113.92
-149.37
-182.73
-208
-220.67
-219.02
-204
-178.28
-145.38
-108.55
-70.43
-33.75
-1.45
23.77
39.9
46.82
46.36
41.53
35.45
30.61
27.85
26.44
24.99
21.95
17.19
12.03
9.09
10.91
18.68
31.09
44.91
56.37
62.22
61.31
54.11
41.72
25.67
7.49
-10.55
-24.81
-31.3
-27.78
-15.15
1.94
16.39
22.26
17.02
2.7
-15.16
-30.71
-40.44
-44.08
-43.71
-42.07
-40.5
-38.71
-35.3
-28.6
-17.84
-3.13
14.89
35.31
56.85
78.08
96.77
110.08
115.42
110.91
96.91
76.07
52.9
32.51
19.38
15.55
20.38
31.13
43.59
53.81
58.94
57.59
50.08
38.08
23.71
9.26
-3.29
-12.57
-18.15
-20.53
-21.28
-22.16
-24.58
-29.03
-34.73
-40.39
-44.6
-46.69
-46.51
-44.47
-40.95
-36.28
-31.12
-26.79
-25.86
-30.8
-42.93
-61.06
-81.57
-99.54
-110.71
-113.19
-107.75
-97.03
-83.95
-70.22
-56.38
-42.08
-27.11
-11.57
3.9
18.83
33.13
47.33
62.11
77.74
94.07
110.21
125.25
138.01
147.98
154.95
159.06
160.43
158.79
153.72
144.23
129.56
109.01
82.11
48.8
9.81
-32.99
-75.84
-113.55
-140.88
-154.1
-152.64
-139.71
-120.96
-102.35
-87.85
-78.39
-72.35
-67.36
-61.88
-55.86
-50.4
-46.54
-44.07
-41.1
-34.81
-22.49
-3
22.85
52.28
81.55
106.88
125.09
133.82
131.9
119.36
97.5
69.12
38.12
8.72
-15.53
-32.85
-43.17
-47.76
-48.27
-46.06
-41.88
-36.17
-29.37
-22.37
-16.66
-13.44
-13.01
-14.61
-16.61
-17.02
-14.61
-9.43
-2.86
2.83
5.72
5.19
1.78
-3.02
-7.71
-11.03
-12.75
-12.91
-11.48
-8.15
-2.26
6.14
16.05
25.03
30.41
30.02
23.8
14
4.36
-1.71
-2.89
-0.4
2.62
3.15
-0.17
-6.06
-11.68
-14.4
-13.43
-10.28
-8.01
-9.3
-15.12
-24.13
-33.49
-40.23
-43.02
-42.39
-40.27
-38.81
-39.25
-41.32
-43.36
-43.26
-39.54
-32.26
-22.75
-13.18
-5.57
-1.17
-0.43
-3.17
-8.37
-13.83
-16.46
-12.1
2.74
29.01
63.99
101.47
133.58
154
160.29
154.01
139.41
120.83
100.87
79.97
57.59
33.57
8.9
-14.21
-33.63
-47.9
-56.74
-61.01
-61.93
-60.66
-58.01
-54.54
-50.37
-45.77
-40.87
-35.81
-31.58
-28.91
-28.59
-30.62
-34.28
-38.02
-40.19
-39.4
-34.87
-27.41
-18.65
-10.67
-4.98
-2.37
-2.15
-3.08
-4.21
-5.14
-6.77
-10.25
-16.49
-25.36
-35.77
-46.27
-55.74
-63.77
-70.1
-74.54
-76.14
-73.99
-68.12
-59.76
-51.58
-45.72
-42.96
-40.93
-35.58
-22.73
-0.39
29.9
63.75
95.31
120.14
135.75
142.74
142.77
137.85
129.41
118.52
106.71
96.03
88.98
86.97
89.87
95.26
99.4
98.51
90.59
76.16
58.05
40.19
25.84
16.43
11.66
9.99
10.11
11.53
15.05
21.88
32.32
45.06
56.93
64.61
65.27
58.27
44.86
27.87
10.69
-3.96
-14.48
-21.12
-25.38
-30.6
-40.69
-59.06
-87.07
-122.69
-160.91
-195.14
-219.61
-231.25
-230.85
-221.87
-208.62
-194.77
-182.23
-171.59
-162.67
-155.28
-149.04
-143.14
-136.27
-126.21
-111.4
-91.11
-66.09
-38.25
-10.34
15.18
36.99
54.77
69.69
83.23
96.82
110.99
125.07
137.1
144.36
144.51
136.58
121.71
102.82
83.78
67.7
55.81
47.28
39.62
30.32
18.48
5.19
-6.91
-14.81
-16.56
-12.6
-5.09
2.51
6.76
5.23
-2.72
-15.71
-30.09
-40.14
-39.7
-24.12
7.32
49.71
93.01
125.47
137.86
127.31
98.22
60.13
24.03
-1.65
-13.31
-11.83
-1
14.68
31.29
45.12
52.67
51.02
38.59
16.14
-12.3
-40.52
-61.57
-70.22
-64.88
-48.32
-26.51
-6.59
5.63
7.7
0.88
-10.86
-22.49
-29.79
-30.86
-26.14
-17.96
-9.07
-1.43
4.17
7.95
10.76
13.03
14.37
13.91
10.73
4.77
-2.86
-10.45
-16.55
-20.22
-21.14
-19.04
-13.38
-3.24
11.9
31.23
52.55
72.7
89.29
102.06
112.73
123.35
134.46
144.04
148.37
144.37
131.84
113.81
95.58
82.26
76.6
78.16
85.04
96.42
113.53
138.59
172.18
211
247.54
272.54
277.83
260.53
225.31
182.34
142.06
110.55
87.56
68.59
48.78
24.56
-4.07
-33.5
-58.84
-77.6
-91.37
-104.44
-120.71
-141.56
-168.52
-201.43
-237.63
-271.75
-297.83
-311.7
-311.82
-298.94
-276.16
-253.84
-244.68
-258.85
-300
-365.42
-448.34
-540.7
-634.34
-693.02
-687.39
-610.46
-483.85
-340.54
-205.21
-88.24
8.64
87.37
150.89
198.21
227.98
242.09
247.14
251.23
260.58
277.55
301.18
330.42
358.75
378.8
386.13
380.7
365.11
341.85
312.05
276.06
231.23
179.97
124.97
69.75
19
-22.9
-53.61
-73.46
-84.38
-88.85
-89.83
-90.17
-91.14
-92.26
-92.39
-91.01
-88.74
-86.61
-85.49
-85.69
-87.23
-89.29
-90.7
-90.46
-88.51
-85.62
-82.84
-81.1
-80.87
-82.74
-86.91
-92.27
-96.07
-94.08
-82.14
-58.41
-24.93
12.62
46.63
70.78
82.57
83.64
78.3
70.86
63.78
57.37
50.94
44.09
37.39
32.15
29.25
28.53
28.81
28.44
26.03
21.13
14.58
7.63
1.39
-3.94
-9.06
-15.22
-23.78
-35.54
-50.22
-66.44
-82.1
-94.87
-103.21
-105.85
-102.35
-92.97
-78.44
-59.79
-38.2
-15.09
8.08
29.59
47.91
61.76
70.38
73.64
72.04
66.42
57.93
47.74
36.78
25.82
15.32
5.58
-3.18
-10.76
-17.11
-22.17
-25.91
-28.31
-29.38
-29.22
-28.05
-26.17
-23.97
-21.83
-20.14
-19.25
-19.3
-20.41
-22.37
-25.05
-28.25
-31.9
-35.84
-40.03
-44.31
-48.49
-52.45
-55.85
-58.61
-60.78
-62.73
-64.78
-67.28
-70.26
-73.51
-76.68
-79.01
-79.96
-79.34
-77.17
-73.55
-68.43
-61.21
-50.72
-37.97
-22.93
-5.65
13.45
33.72
54.41
74.84
94.64
113.76
132.34
151.22
171.43
194.03
219.69
247.84
276.05
300.07
314.86
316.29
303.03
276.85
242.05
203.76
166.39
132.47
102.86
77.35
55.48
36.92
21.13
7.39
-5.17
-16.98
-27.64
-35.91
-40.32
-40.05
-35.56
-28.73
-22.04
-17.5
-15.71
-15.66
-15.17
-11.83
-3.78
9.55
27.18
46.59
63.86
74.48
74.38
60.96
34.45
-1.74
-41.73
-78.79
-107.35
-124.31
-129.18
-123.68
-110.76
-93.62
-75.19
-57.8
-42.93
-30.97
-21.28
-12.39
-2.94
7.6
18.8
29.52
38.76
46.31
52.92
59.53
66.86
74.84
82.71
89.61
95.09
99.58
104.92
114.23
131.51
160.69
203.61
257.98
316.41
367.62
399.82
404.95
381.51
334.66
273.67
207.86
143.46
82.76
25.57
-28.4
-78.1
-121.47
-156.82
-184.21
-205.97
-225.56
-246.05
-269.05
-294.37
-320.38
-344.75
-364.94
-378.53
-383.43
-378.23
-362.73
-338.2
-307.18
-272.58
-236.73
-201.09
-166.5
-133.78
-104.24
-79.55
-60.96
-48.64
-41.29
-36.59
-32.32
-27.22
-21.39
-15.99
-12.58
-12.22
-14.83
-19.05
-22.5
-22.71
-18.08
-8.73
3.44
15.49
24.97
30.81
33.7
35.41
37.49
40.66
44.42
47.64
49.32
48.92
46.24
41.38
34.55
26.06
16.56
6.85
-2.35
-10.58
-17.7
-23.69
-28.27
-30.9
-31.04
-28.53
-23.84
-18.07
-12.6
-8.68
-7.07
-7.48
-8.74
-9.09
-6.96
-1.76
5.65
13.11
17.93
17.97
12.81
3.97
-5.47
-12.16
-13.89
-10.69
-4.9
-0.2
0.08
-5.01
-13.26
-19.97
-20.09
-10.84
6.92
29.03
49.81
64.18
68.97
63.17
47.63
25.13
0.47
-19.59
-28.1
-20.5
2.47
33.87
62.63
77.85
73.63
51.25
18.3
-14.97
-39.91
-52.22
-52.1
-42.6
-27.26
-8.45
12.55
34.97
57.47
78.12
94.98
106.89
113.96
117.37
118.31
116.57
110.1
95.47
69.3
30.45
-18.56
-71.32
-119.02
-152.91
-167.44
-162.12
-141.74
-114.63
-89.44
-72.37
-65.55
-67.59
-75.13
-84.85
-94.44
-102.44
-107.64
-108.48
-103.45
-91.8
-74.62
-54.8
-36.29
-22.39
-14.44
-11.51
-10.92
-9.84
-6.62
-1.56
3.74
7.56
9.23
9.62
10.25
12.36
15.91
19.59
21.56
20.73
17.56
14.01
12.74
15.79
23.56
34.62
46.32
55.81
61.35
62.84
61.65
60.04
59.99
62.49
67.07
72.17
75.7
75.91
71.83
63.78
53.64
44.56
40.19
43.32
54.35
70.37
85.6
93.1
87.57
67.68
36.87
2.23
-28.24
-48.54
-56.54
-53.94
-44.8
-33.5
-23.12
-15.2
-10.26
-8.77
-11.66
-19.92
-33.56
-50.64
-67.16
-78.06
-79.17
-68.99
-49.52
-25.66
-3.27
12.87
20.59
20.65
15.92
9.83
5.16
3.17
3.71
5.72
7.86
9.15
9.19
8.18
6.64
5.08
3.89
3.25
3.17
3.63
4.48
5.54
6.53
7.11
6.93
5.75
3.56
0.69
-2.34
-4.8
-5.98
-5.21
-1.98
3.88
11.88
20.57
27.72
30.95
28.82
21.77
12.26
3.96
0.33
3.11
11.56
23.11
34.68
44.01
50.59
55.35
59.52
63.74
67.29
68.5
65.72
58.37
47.37
34.78
22.87
13.14
5.96
1.11
-1.42
-1.09
2.51
8.33
12.93
11.1
-1.96
-27.73
-62.61
-98.53
-126.09
-138.62
-135.13
-120.45
-102.47
-88.43
-81.71
-81.23
-83.03
-82.72
-77.65
-67.44
-53.2
-36.13
-16.82
4.67
28.04
51.85
73.78
91.31
102.8
108.05
108.2
105.02
100.4
96.19
94.02
95.43
101.34
111.42
123.54
134.15
139.08
134.91
119.99
94.66
61.09
22.77
-16.2
-51.48
-79.19
-96.47
-102.21
-97.48
-85.36
-69.93
-55.1
-43.39
-35.35
-29.87
-24.83
-18.08
-8.32
4.33
18.47
31.76
41.83
46.99
46.73
41.82
34.02
25.78
19.71
18.2
23.13
35.48
54.98
79.92
107.52
134.8
159.58
181.28
200.62
218.67
235.51
249.19
255.78
250.74
230.79
195.49
147.74
92.9
36.9
-15.45
-61.63
-101.49
-136.47
-168.67
-199.54
-229.18
-256.13
-277.76
-291.35
-295.38
-290.14
-277.89
-261.95
-245.32
-229.69
-215.13
-200.69
-185.36
-168.8
-151.51
-134.26
-117.56
-101.27
-84.82
-67.84
-50.58
-34.16
-20.15
-9.86
-3.74
-1.13
-0.36
0.47
2.87
7.6
14.46
22.68
31.24
39.21
45.94
51.08
54.6
56.57
56.87
55.19
51.42
46.03
40.36
36.34
35.63
38.67
44.27
50.01
53.13
51.89
46.12
37.06
26.74
17.32
10.63
8.07
10.47
17.44
27.2
36.66
42.18
41.11
32.81
18.79
2.09
-13.92
-26.6
-34.56
-37.6
-36.43
-32.17
-26.21
-20.03
-15.11
-12.5
-12.52
-14.47
-16.9
-17.99
-16.26
-11.21
-3.75
4.04
9.67
11.3
8.78
3.85
-0.49
-1.36
2.45
9.87
18.08
23.98
25.81
23.99
20.71
18.47
18.9
21.8
25.74
29.11
30.97
31.07
29.24
24.92
17.62
8.22
-0.35
-3.67
1.74
15.59
32.35
42.89
38.5
15.67
-21.41
-62.29
-94.74
-110.24
-107.15
-90.58
-68.88
-49.67
-37
-30.96
-29.26
-29.28
-29.53
-30.1
-31.64
-34.42
-37.68
-39.91
-39.64
-36.61
-32.13
-28.8
-29.55
-36.35
-49.36
-66.92
-86.14
-103.7
-116.65
-122.81
-121.1
-111.82
-96.39
-76.83
-55.02
-32.25
-9.07
13.97
35.76
54.37
67.63
74.29
74.94
72.06
69.04
68.79
72.36
78.79
85.61
90.08
90.41
86.42
79.33
71.02
63.1
56.01
49.14
41.63
33.48
26.18
22.39
24.46
33.08
46.41
60.66
71.4
75.2
70.47
57.67
38.68
16.02
-7.53
-29.18
-46.29
-56.54
-58.5
-52.35
-40.09
-25.19
-11.5
-1.93
2.38
2.09
-1.02
-5.1
-9.04
-12.54
-15.48
-17.5
-17.69
-15.09
-9.42
-1.38
7.36
14.94
19.92
21.98
21.84
20.92
20.64
21.73
23.92
26.03
26.49
24.12
18.58
10.47
0.88
-9.09
-18.6
-27.14
-34.15
-39.07
-41.38
-41.01
-38.61
-35.55
-33.35
-33.28
-35.61
-39.55
-43.6
-46.04
-45.83
-42.94
-38.35
-33.46
-29.58
-27.47
-27.28
-28.92
-32.08
-35.92
-38.45
-36.48
-26.44
-6.32
22.33
53.97
80.42
93.92
90.19
69.9
37.93
1.07
-34.44
-64.45
-86.83
-100.7
-105.62
-101.7
-90.04
-73.29
-55.34
-40.33
-31.36
-29.45
-33.21
-39.16
-43
-41.02
-31.44
-15.15
4.81
24.48
40.76
52.6
61.14
68.72
77.24
86.94
96.15
102.22
103.03
98.35
90
81.01
74.16
70.79
70.47
71.6
72.56
72.48
71.59
70.62
70.13
70.03
69.78
68.88
67.37
65.85
64.98
65.05
65.69
66.16
65.72
63.95
60.78
56.22
50.23
42.83
34.36
25.58
17.44
10.76
5.71
1.85
-1.63
-5.33
-9.36
-13.24
-16.3
-18.02
-18.13
-16.64
-13.7
-9.46
-4.18
1.66
7.39
12.32
15.89
17.92
18.57
18.14
16.83
14.49
10.76
5.28
-1.78
-9.59
-16.67
-21.5
-23.05
-21.25
-17.06
-12.04
-7.83
-5.57
-5.66
-7.81
-11.3
-15.31
-19.06
-21.96
-23.57
-23.63
-22.09
-19.14
-15.16
-10.64
-6.23
-2.55
-0.04
1.07
0.89
-0.15
-1.4
-2.25
-2.21
-1.18
0.5
2.26
3.41
3.4
2.03
-0.54
-3.96
-7.74
-11.38
-14.45
-16.54
-17.34
-16.68
-14.62
-11.63
-8.62
-6.61
-6.5
-8.58
-12.35
-16.66
-19.99
-21.08
-19.55
-16.06
-11.89
-8.52
-6.69
-6.17
-6.08
-5.52
-4.25
-2.95
-2.71
-4.21
-7.23
-10.68
-13.21
-14.25
-14.45
-15.28
-18.19
-23.64
-30.7
-37.57
-42.48
-44.46
-43.77
-41.38
-38.15
-34.28
-29.18
-22.09
-12.67
-1.55
9.82
19.59
26.36
29.52
29.37
26.86
23.07
18.93
15.06
11.84
9.57
8.41
8.4
9.2
10.21
10.78
10.61
10.01
9.9
11.37
15.14
21.06
28.06
34.45
38.69
40.01
38.64
35.61
32.18
29.22
26.93
24.88
22.49
19.53
16.33
13.63
12.08
11.89
12.49
12.89
12.07
9.55
5.67
1.42
-2.03
-3.9
-3.96
-2.6
-0.42
2.11
4.76
7.45
10.12
12.55
14.43
15.58
16.04
16.24
16.85
18.54
21.71
26.43
32.37
38.89
45.2
50.52
54.38
56.9
58.7
60.77
63.78
67.68
71.29
72.71
69.94
61.74
48.08
29.87
8.51
-14.71
-38.53
-61.28
-80.51
-93.13
-96.41
-89.26
-73.29
-52.51
-32.39
-17.91
-11.91
-14.34
-22.76
-33.5
-43.06
-49.24
-51.54
-51.06
-50.17
-51.77
-58.78
-72.92
-93.67
-117.22
-136.65
-143.35
-129.64
-91.99
-33.13
37.86
107.81
163.27
194.32
197.09
174.26
133.73
85.98
41.25
7.08
-13.02
-19.77
-17.22
-10.99
-6.45
-7.27
-14.9
-28.67
-46.37
-65.11
-81.99
-94.82
-102.44
-105.22
-104.88
-104.1
-105.34
-109.72
-116.39
-122.42
-124.02
-118.24
-104.47
-85.2
-65.48
-51.06
-46.22
-52.11
-66.06
-82.68
-95.95
-101.53
-98.22
-87.78
-73.47
-57.96
-42.14
-25.19
-5.94
15.62
37.68
57.15
71.29
79.27
82.73
84.92
89.16
97.14
108.27
120.19
130.01
135.71
137.07
135.53
133.37
132.54
133.59
135.61
136.87
135.85
132.02
125.81
117.91
108.48
96.86
82.05
63.65
42.8
22.18
5.33
-5.09
-8.42
-6.54
-2.89
-0.75
-1.58
-4.31
-6.11
-4.07
2.97
13.65
24.68
32.51
34.74
31.1
23.01
12.58
1.49
-9.52
-20.55
-31.87
-43.5
-54.96
-65.54
-74.5
-81.38
-86.12
-89.08
-91.03
-92.84
-95.27
-98.51
-102.16
-105.25
-106.64
-105.52
-101.68
-95.57
-88.14
-80.25
-72.44
-64.97
-57.97
-51.32
-44.55
-36.95
-27.93
-17.58
-6.73
3.39
11.96
19.26
27.05
37.65
52.65
71.64
91.8
109.12
120.25
123.77
120.38
111.88
99.73
84.3
65.45
43.53
20.43
-0.58
-16.03
-23.84
-24.63
-21.51
-18.43
-18.23
-21.41
-26.06
-29.05
-27.65
-20.56
-8.55
6.12
20.76
33.4
43.31
50.86
56.67
60.64
61.84
58.79
50.65
38.25
24.2
12.03
4.55
2.61
4.46
6.74
5.84
-0.47
-12.08
-26.84
-41.68
-53.79
-61.54
-64.6
-63.47
-59.06
-52.41
-44.62
-37.03
-31.05
-27.69
-27.13
-28.34
-29.34
-27.95
-22.67
-13.07
0.13
15.68
32.42
49.99
69.31
92.16
120.14
153.03
187.63
217.76
235.87
235.61
214.3
173.86
120
59.83
-0.31
-56.03
-104.94
-146.05
-179.37
-205.63
-226.25
-242.51
-254.58
-261.06
-259.61
-248.45
-227.74
-199.94
-168.67
-136.9
-105.61
-73.88
-40.52
-5.88
27.32
55.04
74.29
85.21
91.6
99.38
113.68
136.17
164.18
191.77
212.33
221.15
216.62
200.11
174.59
143.16
108.49
72.82
38.4
7.43
-18.27
-37.97
-52.11
-62.02
-69.29
-75.01
-79.61
-82.78
-83.82
-81.82
-76.12
-66.69
-54.35
-40.93
-28.7
-19.54
-14.09
-11.24
-8.68
-4.07
3.61
13.53
23.24
29.92
31.73
28.39
20.93
10.76
-1.25
-15.03
-30.6
-47.29
-63.11
-75.19
-80.93
-79.13
-70.73
-58.35
-45.46
-35.04
-28.74
-26.5
-26.87
-27.76
-27.17
-23.89
-17.88
-10.33
-3.19
1.73
3.66
3.38
2.81
4.32
9.51
18.3
28.97
38.89
45.53
47.43
44.62
38.32
30.42
22.77
16.73
12.92
11.24
10.92
10.79
9.73
6.98
2.49
-3.15
-8.95
-13.9
-17.45
-19.64
-20.89
-21.61
-21.81
-21.05
-18.7
-14.5
-8.77
-2.71
2.01
3.76
1.43
-5.44
-16.4
-30.22
-45.1
-58.78
-69.16
-74.79
-75.38
-72.06
-67.23
-63.6
-63.19
-66.35
-71.5
-75.94
-77.24
-74.76
-70.21
-66.86
-67.27
-71.22
-74.87
-72.17
-58
-31.14
4.45
40.78
69.15
83.52
82.57
69.68
51.07
33.14
20.58
15.51
17.65
25.25
35.85
46.95
56.29
62.11
63.12
58.54
48.28
33.02
14.31
-5.65
-24.41
-39.83
-50.51
-56.03
-56.99
-54.57
-50.12
-44.59
-38.41
-31.49
-23.53
-14.21
-3.41
8.68
21.65
34.64
46.63
56.53
63.62
67.68
68.96
67.83
64.37
58.39
49.85
39.38
28.52
19.38
13.66
11.86
13.12
15.7
17.97
18.91
18.28
16.27
13.11
9.19
5.21
2.6
3.06
7.88
16.88
28.01
37.74
42.1
38.17
25.17
4.99
-18.6
-41.33
-60.24
-74.79
-86.69
-98.56
-112.15
-127.19
-141.23
-150.93
-153.57
-148.09
-134.94
-115.27
-90.19
-60.45
-27.34
6.67
37.79
61.88
75.91
79.16
73.52
62.57
50.37
40.2
34.13
32.92
36.45
44.04
54.43
65.79
75.7
81.51
81.06
73.47
59.49
41.46
22.73
6.68
-4.14
-8.38
-5.97
2.2
14.74
29.96
46.05
61.22
73.98
83.27
88.63
90.24
88.79
85.34
81.04
76.98
73.79
71.31
68.6
64.14
56.51
45.05
30.32
13.81
-2.52
-17.01
-28.61
-36.98
-42.19
-44.72
-45.25
-44.64
-43.66
-42.72
-41.59
-39.61
-36.2
-31.41
-26.3
-22.64
-22.09
-25.4
-31.94
-39.99
-47.51
-52.94
-55.76
-56.51
-56.35
-56.43
-57.34
-58.79
-60.09
-60.62
-60.34
-59.79
-59.69
-60.35
-61.33
-61.79
-61.02
-59.16
-57.3
-56.78
-58.43
-61.89
-65.63
-67.53
-65.94
-60.36
-51.74
-42.09
-33.42
-26.91
-22.09
-16.87
-8.23
6.27
27.21
52.54
77.87
97.93
108.35
107.34
96.32
79.4
61.95
49.04
44.06
47.95
59.34
75.05
91.17
103.95
110.62
109.79
101.8
88.53
73.18
59.64
51.5
51
58.27
71.21
86.46
100.8
112.24
120.57
126.73
131.61
134.84
134.54
127.82
112.19
86.91
53.5
15.49
-22.74
-57.22
-85.45
-106.58
-121.05
-129.81
-133.75
-133.43
-129.44
-122.61
-114.19
-105.65
-98.13
-92.01
-86.84
-81.69
-75.71
-68.53
-60.44
-52.22
-44.57
-37.88
-31.96
-26.35
-20.56
-14.46
-8.21
-2.24
2.98
7.15
10.18
12.15
13
12.64
10.81
7.31
2.06
-5.07
-14.2
-25.39
-38.44
-52.64
-66.55
-78.28
-85.94
-88.27
-85.12
-77.46
-67.12
-56.12
-46.18
-38.24
-32.38
-27.91
-23.57
-18.01
-10.21
-0.12
11.3
22.14
30.26
33.98
32.68
26.99
18.43
8.92
0.29
-5.97
-8.57
-6.49
0.88
13.47
30.24
49.09
67.49
83.15
94.74
102.3
106.95
110.16
113.04
115.85
117.99
118.54
116.65
111.87
104.13
93.49
80.15
64.47
47.31
29.83
13.28
-1.6
-14.93
-27.41
-39.81
-52.06
-62.93
-70.45
-72.75
-69.04
-59.98
-47.19
-32.22
-15.97
1.67
21.21
42.84
65.93
88.98
110.17
128.11
142.43
153.64
162.87
171.11
178.73
185.28
189.45
189.36
182.98
168.47
144.58
111.11
69.24
21.51
-28.57
-77.39
-121.97
-160.35
-191.34
-213.87
-226.75
-228.74
-219.45
-199.98
-173.28
-143.57
-115.16
-91.3
-73.54
-61.73
-54.7
-50.75
-48.24
-45.88
-43
-39.82
-37.21
-36.13
-36.92
-38.98
-40.89
-41.11
-38.97
-34.88
-30.15
-26
-22.78
-19.8
-15.89
-10.29
-3.27
3.87
9.58
12.91
14.09
14.45
15.54
18.21
22.11
25.88
27.94
27.46
24.79
21.27
18.57
17.77
19.04
21.61
24.48
26.9
28.76
30.33
31.86
33.23
33.94
33.39
31.26
27.75
23.47
19.19
15.46
12.41
9.79
7.25
4.71
2.44
1
0.95
2.48
5.18
8.13
10.27
10.88
9.85
7.66
5.02
2.45
-0.02
-2.75
-6.13
-10.11
-14.18
-17.38
-18.8
-17.97
-15.11
-11.18
-7.53
-5.45
-5.69
-8.32
-12.57
-17.07
-20.23
-20.74
-17.99
-12.52
-5.81
0.21
3.87
4.62
3.2
1.36
0.97
3.05
7.2
11.85
14.91
14.69
10.54
3.12
-5.64
-12.79
-15.06
-10.02
2.78
20.93
39.39
52.07
53.89
42.85
21.05
-6.25
-32.56
-52.36
-62.57
-62.85
-54.91
-41.61
-26.33
-12.55
-3.77
-2.91
-11.64
-29.65
-54.35
-81.26
-105.29
-122
-128.62
-124.43
-110.24
-87.8
-59.21
-26.67
7.65
41.64
73.61
102.86
129.77
155.56
181.27
206.52
229.02
245.27
252.09
248.52
236.81
221.79
208.82
201.36
199.5
200.12
198.78
192.15
179.73
163.74
147.41
132.79
119.31
104.14
84.03
57.52
26.26
-5.4
-32.64
-52.74
-66.65
-78.49
-93.24
-114.1
-140.96
-171.08
-200.87
-227.92
-251.8
-273.61
-294.54
-314.77
-333.19
-347.85
-356.47
-356.84
-346.58
-323.41
-285.95
-235.04
-174.51
-111.06
-52.68
-6.06
25.42
42.55
49.49
51.67
53.4
56.5
60.33
63.05
63.31
61.07
57.65
54.65
52.91
51.85
49.89
45.43
38.03
29.11
21.19
17.02
18.17
24.16
32.74
40.63
45.06
44.8
40.81
35.55
32.01
32.28
36.65
43.64
50.71
55.64
57.42
56.65
54.88
53.67
53.64
54.21
54.23
52.72
49.72
46.25
43.58
42.33
41.82
40.39
36.15
28.14
16.78
3.67
-9.22
-20.56
-30.1
-38.63
-47.24
-56.69
-67.11
-78.14
-89.17
-99.62
-108.92
-116.32
-121.02
-122.26
-119.73
-113.82
-105.63
-96.59
-88
-80.64
-74.54
-69.12
-63.53
-57.05
-49.3
-40.4
-30.85
-21.37
-12.83
-5.96
-1.23
1.16
1.56
0.6
-0.76
-1.46
-0.65
2.28
7.59
15.28
25.08
36.45
48.31
59.2
67.49
71.9
72.13
68.92
63.83
58.61
54.47
51.65
49.6
47.41
44.38
40.47
36.1
31.87
28.15
24.87
21.69
18.27
14.6
10.99
7.96
5.86
4.59
3.66
2.41
0.4
-2.38
-5.5
-8.41
-10.63
-12.05
-12.83
-13.2
-13.26
-12.82
-11.46
-8.74
-4.5
1.05
7.18
12.99
17.59
20.34
20.99
19.7
16.87
13.04
8.69
4.15
-0.31
-4.43
-7.97
-10.75
-12.62
-13.57
-13.62
-12.86
-11.46
-9.64
-7.86
-6.71
-6.78
-8.37
-11.32
-14.98
-18.41
-20.79
-21.67
-21.18
-19.82
-18.14
-16.54
-15.08
-13.59
-11.95
-10.19
-8.58
-7.61
-7.78
-9.55
-13.33
-19.61
-29.04
-42.2
-59.26
-79.22
-99.72
-117.31
-128.28
-130.38
-123.85
-111.7
-98.66
-89.49
-87.2
-92.44
-104.27
-121.23
-142.17
-165.89
-190.08
-210.69
-222.76
-222.63
-210.12
-189.08
-165.75
-145.35
-129.2
-114.26
-95.07
-67.28
-30.16
13.09
57.17
97.28
130.72
157.15
177.44
192.6
203.57
211.3
217.26
222.99
229.37
235.71
239.58
237.77
227.66
208.62
182.39
152.69
123.95
100.09
83.58
75.22
74.34
79.41
88.38
98.87
108.51
115.06
116.95
113.73
106.21
96.13
85.46
75.57
66.72
58.3
49.49
40.05
30.81
23.31
19.03
18.3
20.05
22.12
22.41
19.77
14.42
7.65
0.82
-5.23
-10.72
-16.46
-23.23
-30.88
-38.27
-43.44
-44.37
-39.96
-30.29
-16.73
-1.43
13.32
25.78
35.17
42.31
49.57
60.3
77.86
104.13
138.18
176.03
211.49
238.18
251.94
252.01
240.74
221.97
199.19
174.35
147.93
119.98
91.03
62.37
35.42
10.82
-11.64
-32.58
-52.46
-70.85
-86.7
-98.8
-105.81
-105.8
-95.74
-71.87
-31.94
22.23
83.2
139.15
177.53
190.1
176.14
142.33
99.5
57.48
21.6
-8.06
-34.42
-59.97
-83.87
-102.09
-109.61
-103.9
-87.43
-67.33
-52.7
-50.56
-62.96
-86.19
-113.26
-137.47
-155.32
-167.26
-176.3
-185.54
-196.48
-208.7
-220.68
-230.91
-238.31
-242.07
-241.46
-236.01
-225.87
-212.31
-197.43
-183.42
-171.99
-163.94
-159.35
-158
-159.7
-164.11
-170.48
-177.46
-183.24
-185.99
-184.31
-177.36
-164.78
-146.79
-124.15
-98.34
-71.46
-45.36
-20.85
3.11
29.21
60.51
98.47
141.77
186.28
226.58
258.44
280.44
294.05
302.28
307.63
310.9
311.15
306.45
295.09
276.49
251.31
221.39
189.5
158.72
131.61
109.39
91.04
73.25
51.94
23.83
-12.31
-55.45
-103.05
-151.88
-197.84
-236.38
-262.31
-269.99
-255.17
-216.9
-158.28
-85.21
-4.16
80.66
166.37
250.55
330.12
400.67
456.76
493.31
507.46
499.3
472.55
430.98
377.51
314.51
244.13
168.27
88.33
5
-81.39
-168.65
-254.73
-337.22
-412.52
-471.23
-501.36
-492.95
-443.32
-368.37
-280.16
-187.55
-97.28
-13.13
59.48
115.05
149.13
159.3
145.98
113.81
68.23
14.12
-44.74
-106.39
-170.36
-236.17
-301.34
-359.46
-399.38
-410.14
-385.09
-324.82
-237.77
-137.58
-38.62
48.29
118.28
172.74
215.67
251.45
283.56
313.91
342.55
366.92
381.6
379.41
354.66
305.83
237.85
161.6
90.76
37.11
6.68
-1.37
6.94
23.55
41.1
54.59
61.99
63.66
61.11
55.48
46.27
30.56
3.8
-38.1
-96.23
-166.85
-241.16
-307.54
-355.09
-377.07
-373.29
-350.37
-319.82
-294.36
-283.33
-288.88
-305.2
-320.89
-323.47
-304.69
-263.47
-205.37
-139.33
-73.06
-10.25
48.05
100.3
142.16
166.13
164.69
134.49
78.99
8.39
-64.04
-127.85
-178.48
-216.51
-244.47
-263.24
-270.65
-263.46
-239.62
-200.25
-150.94
-99.6
-53.12
-15.07
14.65
40.64
64.82
82.54
90.06
85.56
69.29
45.22
20.25
1.96
-4.11
3.3
22.14
49.27
81.6
117.47
156.76
199.06
241.44
277.3
296.87
290.91
255.32
193.8
118.39
46.01
-8.15
-37.17
-45.5
-46.78
-56.82
-85.61
-133.15
-189.76
-240.83
-273.17
-279.82
-261.25
-223.35
-173.7
-118.39
-61.2
-4.22
50.92
102.19
147.3
185.01
216.41
245.17
276.16
312.62
353.93
395.01
428.16
446.3
446.15
429.49
402.22
371.77
344.37
323.5
309.87
302.46
299.76
300.22
302.03
302.59
298.85
288.32
270.34
246.72
221.06
196.91
175.59
154.97
130.23
96.29
50.49
-5.68
-66.92
-125.92
-176.14
-213.66
-237.73
-250.2
-254.22
-253.51
-252.05
-254.04
-263.14
-281.05
-306.06
-332.46
-352.2
-358.14
-347.63
-324.18
-296.24
-273.28
-261.24
-260.12
-264.39
-266.48
-260.43
-244.29
-219.59
-189.61
-157.13
-123.14
-87.4
-49.07
-7.7
36.88
84.39
134.05
183.65
228.81
263.27
280.06
274.03
243.83
192.37
125.49
49.67
-29.43
-107.18
-178.61
-237.35
-276.06
-288.6
-272.67
-231.09
-171.36
-103.26
-36.94
18.81
56.84
72.33
63.11
30.17
-22.1
-86.43
-153.52
-213.43
-256.75
-276.12
-267.61
-232.2
-175.98
-108.63
-40.29
21.83
75.17
121.04
161.49
196.32
222.16
233.8
227.16
201.86
162.1
115.78
72.34
40.58
26.58
32.94
58.16
96.84
140.47
179.14
203.77
208.15
190.24
152.52
101.32
45.6
-4.86
-41.61
-59.99
-60.34
-47.41
-28.05
-7.92
11.16
31.56
57.92
93.66
137.68
183.81
223.02
246.7
249.72
231.78
196.59
149.87
97.42
43.26
-10.29
-61.54
-108.82
-149.75
-181.49
-201.99
-211.4
-213.04
-213.42
-219.34
-234.01
-255.38
-276.18
-287
-280.37
-253.65
-209.46
-154.48
-95.42
-35.69
24.3
85.65
148.4
207.61
253.88
281.4
285.33
261.65
213.99
153.5
95.68
54.29
35.04
32.98
34.87
25.14
-5.39
-54.51
-110.51
-158.87
-189.92
-203.33
-206.79
-210.76
-222.91
-243.69
-266.01
-279.66
-276.14
-252.38
-211.55
-160.62
-107.01
-56.24
-10.38
31.22
69.87
106.15
139.33
168.14
191.72
209.66
220.99
223.51
213.83
188.54
146.39
89.93
25.86
-36.25
-86.34
-116.57
-122.99
-106.29
-71.51
-26.96
17.57
53.42
75.61
84.75
87.23
93.22
112.5
150.38
204.47
264.54
315.64
343.48
340.17
308.14
259.89
213.27
184.21
180.34
198.62
227.77
254.05
267.14
263.01
243.02
210.52
167.81
115.55
54.18
-14.12
-84.68
-151.7
-210.76
-260.4
-302.02
-338.08
-370.04
-397.42
-418.24
-430.23
-431.82
-422.93
-404.81
-379.83
-351.12
-322.04
-295.21
-271.76
-250.95
-230.86
-209.98
-188.41
-168.04
-151.28
-139.09
-129.59
-118.63
-101.53
-75.53
-40.83
-0.22
42.67
85.26
126.96
168.93
213.19
261.31
313.21
366.47
416.12
455.62
478.8
482.22
466.61
436.66
398.99
359.42
321.19
285.02
250.54
217.76
187.46
160.23
135.21
109.64
80.03
44.13
2.49
-41.46
-82.92
-117.86
-144.39
-162.95
-175.44
-184
-190.26
-195.13
-198.92
-201.46
-202.28
-200.84
-196.62
-189.23
-178.36
-163.66
-144.89
-122.24
-96.78
-70.84
-47.62
-30.24
-20.47
-17.86
-19.93
-23.32
-25.2
-24.31
-21.11
-17
-13.5
-11.5
-11.3
-12.84
-16.11
-21.14
-27.73
-35.24
-42.59
-48.73
-53.07
-56.04
-58.82
-62.85
-68.98
-76.64
-83.91
-88.02
-86.45
-77.82
-62.58
-42.78
-21.61
-2.67
10.83
16.49
13.46
2.52
-13.71
-31.53
-47.05
-57.34
-61.36
-59.81
-54.23
-45.8
-34.95
-21.57
-6
10.26
24.75
34.96
39.65
39.49
36.88
34.56
34.46
37.18
42.69
51.43
64.67
84.2
110.47
141.32
171.55
194.2
202.88
194.04
168.41
130.49
87.11
45.04
9.28
-17.59
-35.17
-44.3
-46.52
-43.5
-37.38
-30.58
-25.45
-23.43
-24.22
-25.28
-22.38
-10.97
12.13
46.86
89.49
133.17
169.75
192.39
197.49
185.62
160.64
127.72
91.24
54.24
18.9
-11.86
-33.58
-41.31
-31.8
-5.82
31.09
70.23
103.01
123.95
131.86
129.14
119.18
104.28
84.81
59.95
29.2
-6.2
-43.01
-76.93
-103.73
-120.86
-127.94
-126.59
-119.77
-110.76
-102.2
-95.51
-90.82
-87.24
-83.64
-79.21
-73.95
-68.53
-63.87
-60.63
-58.8
-57.78
-56.59
-54.52
-51.22
-46.91
-42.3
-38.14
-35.16
-33.9
-34.68
-37.53
-42.17
-48.06
-54.43
-60.53
-65.73
-69.86
-73.2
-76.43
-80.1
-84.04
-86.88
-85.85
-77.32
-58.02
-26.53
15.78
64.55
113.62
156.75
189.08
207.97
212.75
203.99
182.9
151.36
112.17
69.22
27.06
-10.21
-40.06
-62.13
-77.86
-89.33
-98.13
-104.89
-109.55
-111.93
-112.33
-111.54
-110.5
-109.84
-109.65
-109.75
-109.9
-110.07
-110.15
-109.88
-108.68
-106.05
-101.97
-97.14
-92.92
-90.87
-92.11
-96.93
-104.73
-114.27
-124.08
-132.9
-139.94
-144.89
-147.99
-149.88
-151.33
-152.97
-154.63
-155.04
-151.79
-141.94
-123.05
-94.05
-55.88
-11.02
37.27
85.87
132.39
175.29
213.87
248.07
278.31
305.11
328.51
347.5
359.84
362.74
354.3
335.19
309.29
282.98
263.12
254.65
258.76
272.53
289.99
304.1
309.01
301.53
281.71
252.22
217.11
180.16
143.66
108.07
72.24
34.03
-8.74
-57.18
-110.33
-164.34
-212.28
-245.22
-254.54
-235.35
-189.27
-125.23
-57.69
-2.26
28.88
30.32
3.66
-44.38
-105.01
-169.53
-230.14
-279.68
-311.55
-320.85
-306.09
-270.9
-223.78
-176.02
-137.68
-114.46
-106.24
-108.4
-114.76
-120.61
-124.37
-127.22
-131.27
-137.53
-144.88
-150.44
-150.87
-144.43
-131.7
-115.59
-100.42
-90.42
-88.41
-95
-108.27
-123.98
-136.58
-140.45
-131.43
-108.01
-71.84
-27.24
20.17
65.14
104.03
135.37
159.43
177.27
189.71
196.63
197.09
189.8
174.26
151.48
124.44
97.6
75.81
62.95
60.71
68.19
82.04
97.48
109.56
114.71
112.28
105.05
98.69
99.68
112.49
137.03
168.01
196.32
212.48
210.59
190.78
159.23
125.4
98.2
82.57
78.34
81.36
85.96
87.73
84.6
76.34
63.27
45.23
21.45
-8.67
-44.4
-83.18
-120.54
-150.82
-168.08
-167.35
-146.13
-106.08
-54.01
-0.79
41.73
64.95
66.73
52.21
31.36
14.73
9.53
17.99
38.44
67.75
103.5
144.22
188.46
233.22
273.11
300.88
309.57
294.81
256.45
198.9
129.85
58.1
-8.9
-66.55
-113.61
-151.65
-183.85
-214.01
-244.97
-277.48
-309.13
-334.52
-346.33
-337.47
-303.76
-246.11
-171.25
-90.4
-16.87
37.27
63.96
61.33
34.36
-5.9
-44.81
-67.86
-64.78
-32.65
23.02
90.05
153.56
200.3
222.05
216.78
187.52
140.29
82
19.18
-42.01
-95.86
-137.39
-163.39
-173.26
-169.37
-156.31
-139.35
-122.82
-109.01
-98.15
-88.68
-77.93
-62.78
-40.46
-9.54
29.22
72.58
115.02
149.73
170.1
171.12
150.15
107.2
45.02
-30.98
-112.99
-191.96
-259.18
-308.13
-335.86
-343.49
-335.68
-319.42
-302.14
-289.73
-284.7
-285.3
-285.95
-279.42
-259.63
-223.9
-173.67
-113.28
-47.88
17.8
79.73
133.75
174.96
198.98
204.28
194.14
176.66
162.67
161.77
179.22
214.39
261.45
311.45
354.88
383.59
392.13
378.62
344.96
296.52
240.81
185.53
136.54
96.89
66.72
44.47
28.3
17.34
12.11
14.28
25.63
47.21
78.5
116.85
158.13
197.68
231.54
257.22
273.89
281.57
280.39
269.98
249.45
218.18
176.75
127.48
74.28
21.87
-25.13
-63.32
-91.03
-108.48
-117.53
-121.52
-124.98
-132.77
-148.69
-173.32
-202.4
-226.87
-235.72
-220.45
-180.18
-123.92
-68.37
-31.65
-25.75
-51.72
-99.74
-154.11
-199.75
-227.05
-233.02
-219.22
-189.34
-148.02
-101.55
-58.71
-30.04
-24.75
-46.04
-88.12
-136.97
-175.11
-188.13
-170.15
-124.75
-62.01
6.89
73.87
135.23
189.5
234.2
264.16
272.82
255.76
213.77
153.57
85.25
18.32
-41.23
-91.4
-132.37
-163.87
-184.29
-191.92
-187.25
-174.37
-160
-150.42
-148.42
-152.02
-155.55
-152.41
-138.13
-111.93
-76.43
-36.05
4.94
43.63
78.56
109.15
134.82
154.8
168.72
177.61
184.45
193.7
209.09
231.02
254.88
271.73
271.62
248.06
201.07
137.25
66.96
-0.23
-58.91
-108.59
-151.85
-191.1
-226.06
-253.54
-269.38
-271.2
-260.24
-241.16
-219.91
-201.08
-186.09
-173.25
-159.68
-143.65
-126.09
-110.36
-100.55
-99.18
-105.93
-117.67
-129.96
-138.93
-142.69
-141.52
-137.35
-132.45
-128.67
-126.84
-126.77
-127.28
-126.33
-121.15
-108.76
-86.77
-54.31
-12.6
35.34
85.33
132.94
174.1
205.38
224.17
229.25
221.68
205.24
186.13
171.1
165.47
171.11
186.29
206.95
228.76
249.33
268.8
289.08
311.66
335.7
357.17
369.79
367.38
346.35
307.19
253.58
190.63
122.55
51.88
-19.47
-88.36
-149.23
-195.22
-221.04
-226.18
-216.03
-200.08
-188.15
-186.34
-195.59
-211.99
-229.36
-241.38
-242.95
-230.57
-202.33
-158.35
-101.18
-35.97
30.78
93.01
147.18
193.08
233.08
270.1
305.48
337.94
363.54
377.18
374.58
353.69
315.37
262.95
201.04
134.3
66.79
1.68
-58.49
-111.79
-157.32
-195.47
-227.79
-256.1
-281.28
-302.7
-318.22
-325.31
-322.23
-309.15
-288.05
-261.93
-233.44
-204.08
-174.26
-143.97
-113.65
-84.64
-58.95
-38.32
-23.39
-13.36
-6.25
0.27
7.98
17.65
29.13
41.7
54.82
68.28
82.01
95.49
107.55
116.29
119.63
116.22
106.12
90.73
72.46
53.84
36.76
22.22
10.31
0.61
-7.4
-13.96
-19.15
-22.77
-24.58
-24.38
-22.15
-18.31
-13.84
-10.06
-8.3
-9.32
-13.04
-18.73
-25.42
-32.54
-40.23
-49.23
-60.27
-73.59
-88.66
-104.38
-119.56
-133.29
-145
-154.25
-160.68
-163.86
-163.7
-160.73
-156.19
-151.82
-149.22
-149
-150.58
-152.22
-151.75
-147.39
-138.48
-125.37
-109.32
-91.85
-74.33
-57.88
-43.35
-31.34
-21.94
-14.5
-7.22
2.59
18.06
41.79
74.87
116.42
163.85
213.6
262.06
306.16
343.43
372.04
390.98
400.38
401.97
398.91
394.84
392.19
390.68
386.63
374.12
347.4
303.34
242.93
171.02
94.49
19.9
-48.11
-107.64
-159.16
-204.59
-246.51
-287.01
-326.76
-364.27
-395.85
-416.19
-420.07
-403.92
-367.22
-312.78
-246.25
-174.98
-106.76
-48.47
-4.43
24.92
43.62
59.46
81.43
116.51
166.69
227.96
291.47
346.48
383.39
396.26
383.64
348.21
295.62
232.69
165.92
100.13
37.76
-21.23
-78.33
-134.42
-187.94
-233.98
-265.15
-274.1
-256.55
-213.5
-151.88
-82.88
-18.82
30.11
58.29
65.44
55.63
35.06
9.74
-16.21
-41.06
-64.64
-86.99
-107.01
-122.08
-128.82
-124.78
-109.65
-85.59
-56.19
-24.8
6.5
37.16
67.32
96.49
122.48
141.56
149.43
143.02
121.93
89.05
49.79
10.36
-24.57
-53.44
-77.68
-100.24
-122.85
-144.05
-158.99
-161.3
-146.37
-114.26
-70.48
-24.31
14.42
38.7
46
38.09
19.35
-5.06
-30.79
-54.7
-74.77
-89.84
-99.52
-104.03
-104.29
-101.74
-98.22
-95.82
-96.41
-101.12
-110.05
-122.12
-135.27
-146.75
-153.57
-152.88
-142.45
-121.27
-90
-51.34
-9.25
32.23
70.53
105.18
137.26
168.15
198.05
225.82
249.41
267.45
279.93
288.08
293.03
294.36
289.73
275.54
248.62
207.6
153.72
90.4
22.37
-45.04
-106.49
-157.01
-192.91
-212.56
-216.93
-209.33
-194.22
-175.74
-156.41
-137.14
-117.87
-98.8
-80.75
-64.48
-49.9
-35.15
-17.08
7.96
42.52
86.96
138.77
192.96
242.86
281.45
303.06
304.72
287.14
254.3
212.3
167.7
125.81
89.79
60.55
37.24
17.93
0.48
-16.64
-33.72
-49.55
-61.92
-68.47
-67.62
-58.63
-41.36
-15.59
18.71
60.09
104.23
143.3
167.69
169.2
144.59
96.96
34.68
-32.25
-96.19
-153.98
-207.11
-258.14
-307.45
-351.09
-381.35
-389.74
-370.95
-325.56
-260.21
-186.13
-114.29
-51.9
-0.51
43.19
84.91
129.2
174.95
220.18
257.39
278.8
279.26
258.34
220.07
170.97
117.07
61.88
6.87
-47.43
-98.76
-142.79
-174.65
-191.22
-192.43
-180.81
-159.86
-132.55
-102.16
-72.78
-50.14
-40.14
-46.38
-67.7
-98.02
-128.65
-151.75
-163.47
-163.72
-154.67
-138.5
-116.48
-89.42
-59.08
-28.77
-2.87
14.5
21.34
18.49
9.41
-1.01
-7.91
-7.93
0.01
14.54
32.39
49.76
63.66
72.97
78.65
83.16
89.03
97.57
108.44
119.88
129.82
137.02
141.53
144.29
146.14
146.84
144.9
138.48
126.66
110.56
93.32
78.98
70.62
68.98
72.14
76.5
78.56
76.41
70.5
63.05
56.99
54.44
55.86
59.95
64.36
66.6
64.99
59.51
52.18
47.05
49.65
65.64
98.7
148.49
209.41
271.16
321.29
349.07
349.02
322.59
276.92
221.72
165.62
113.55
66.45
22.49
-20.77
-64.83
-109.71
-154.45
-197.53
-237.2
-271.49
-298.4
-316.67
-326.55
-330.52
-332.85
-338.11
-349.18
-365.49
-382.75
-394.42
-394.28
-378.9
-348.72
-307.24
-258.95
-207.34
-154.25
-100.59
-47.74
1.41
42.8
73
90.89
98.51
100.25
100.72
102.89
107.18
112.05
115.19
114.85
110.3
101.73
90.09
76.88
64.17
54.22
48.73
47.94
50.45
53.83
55.97
56.13
54.86
52.93
49.97
43.98
32.34
13.55
-11.45
-39.44
-66.71
-90.97
-111.99
-130.49
-146.12
-156.6
-158.89
-151.62
-137.29
-121.82
-111.8
-110.84
-117.63
-126.91
-132.64
-131.05
-121.5
-105.27
-83.29
-55.24
-20.53
19.82
62.12
100.95
131.38
151.1
160.92
163.45
161.19
155.56
147.11
136.66
125.73
116.38
110.34
108.4
110.21
114.62
120.28
125.9
130.59
133.66
134.6
132.7
126.47
113.67
92.14
61.53
24.8
-11.94
-41.75
-59.91
-66.21
-64.81
-61.49
-60.22
-61.28
-62.01
-59.45
-52.82
-44.29
-37.5
-35.26
-37.77
-42.84
-47.25
-48.77
-46.87
-42.54
-37.29
-32.34
-28.34
-25.29
-23.06
-21.49
-20.54
-20.12
-19.99
-19.89
-19.67
-19.44
-19.32
-19.13
-17.98
-14.53
-7.69
2.52
14.41
25
31.26
31.48
26.06
17.45
9.02
3.73
2.95
6.26
11.96
17.99
22.65
24.86
24.36
21.61
17.88
15.23
15.98
21.84
32.78
46.44
58.5
64.16
60.28
46.84
27.36
7.46
-7.2
-13.14
-10.05
-0.38
11.85
22.63
28.83
28.71
21.68
8.07
-10.89
-33.19
-56.09
-76.48
-91.39
-98.8
-98.13
-90.7
-79.28
-67.44
-58.48
-54.5
-55.95
-61.71
-69.65
-77.44
-83.24
-86.14
-86.03
-83.29
-78.42
-71.8
-63.64
-54.26
-44.25
-34.36
-25.25
-16.71
-7.55
4.26
20.52
41.88
67.16
93.55
117.59
136.27
147.85
151.79
148.36
137.95
121.04
98.56
72.31
45.11
20.34
0.75
-12.44
-19.93
-23.8
-26.19
-28.27
-29.65
-28.69
-23.64
-13.81
-0.13
15.09
29.17
40.11
47.32
51.45
53.83
55.61
57.34
59.03
60.71
62.87
66.68
73.47
84.06
98
113.37
127.17
136.48
139.77
137.68
133.12
129.96
131.31
137.94
147.43
155.02
155.26
144.04
119.92
84.42
41.11
-5.74
-52.31
-95.88
-134.56
-167.17
-193
-211.92
-224.41
-231.52
-234.5
-234.31
-231.53
-226.24
-218.53
-208.68
-197.43
-185.54
-173.75
-162.35
-151.21
-139.87
-127.83
-114.95
-101.58
-88.64
-77.29
-68.65
-63.16
-60.54
-59.71
-59.15
-57.42
-53.55
-47.32
-39.17
-30.11
-21.15
-13.11
-6.52
-1.5
2.21
5.18
8.31
12.6
18.88
27.5
38.14
49.84
61.43
71.93
80.83
88.17
94.32
99.85
105.21
110.47
115.07
117.94
117.5
112.37
101.97
86.95
69.15
50.85
33.83
18.57
4.43
-9.78
-24.68
-39.73
-53.33
-63.59
-69.14
-69.74
-66.15
-59.7
-51.79
-43.58
-35.97
-29.65
-25.14
-22.51
-21.27
-20.4
-18.71
-15.33
-10.08
-3.28
4.35
12.19
19.76
26.54
31.68
34.05
32.62
27.17
18.84
9.97
3.23
0.42
1.6
5.07
8.4
9.68
8.45
5.67
2.98
1.84
2.72
5.16
8.29
11.47
14.58
18.04
22.38
27.83
34.26
41.16
47.81
53.54
57.69
59.81
59.71
57.6
53.96
49.61
45.33
41.67
38.69
35.94
32.69
28.36
22.77
16.3
9.7
3.64
-1.35
-5.09
-7.68
-9.22
-9.85
-9.66
-8.85
-7.77
-7.01
-7.18
-8.83
-12.37
-17.74
-24.4
-31.26
-36.66
-38.89
-36.69
-30.06
-20.58
-11.11
-4.52
-2.31
-3.75
-6.11
-6.11
-1.74
6.64
16.46
24.31
27.74
26.43
22.1
17.55
15.22
16.3
20.6
26.97
33.75
39.22
41.87
40.74
35.79
28.08
19.69
13.11
10.38
12.41
18.61
27.12
35.42
41.08
42.46
38.84
30.59
18.76
4.96
-8.87
-20.55
-28.02
-29.57
-24.47
-13.6
0.57
14.45
24.51
28.47
26.14
19.27
10.56
2.49
-3.6
-7.43
-9.34
-9.62
-8.35
-5.59
-1.88
1.69
3.69
3
-0.53
-5.73
-10.4
-11.98
-8.49
0.48
13.37
26.75
36.45
39.04
33.34
21.11
6.61
-5.13
-10.32
-7.8
0.8
12.02
22.22
28.9
31.04
28.86
23.1
14.51
3.82
-8.09
-20.26
-31.84
-42.54
-52.77
-63.38
-74.93
-87.15
-98.82
-108.14
-113.48
-113.78
-108.43
-96.86
-78.47
-52.77
-20.11
17.89
58.31
97.59
132.48
160.79
181.58
194.97
201.66
202.73
199.74
194.64
189.5
186.04
184.91
185.14
184.23
178.69
165.09
141.17
106.87
64.57
18.72
-25.4
-63.29
-92.52
-113.2
-127.53
-138.47
-148.43
-158.46
-168.15
-176.14
-181.02
-181.85
-178.35
-170.83
-159.87
-146.17
-130.68
-114.78
-100.24
-88.82
-81.68
-78.88
-79.37
-81.36
-82.96
-82.58
-79
-71.13
-57.89
-38.64
-13.92
14.12
42.05
66.39
85.01
97.81
106.14
111.52
114.3
113.37
106.99
94.34
76.41
56.07
36.93
21.89
12.13
6.97
4.28
1.35
-4.23
-14.15
-29.12
-48.9
-72.56
-98.4
-123.73
-144.76
-157.02
-156.7
-142.68
-117.99
-89.48
-65.14
-50.36
-45.05
-43.85
-39.33
-26.46
-5.34
19.48
42.45
61
77.08
95.25
118.86
147.06
174.58
194.57
202.56
198.62
186.65
171.52
155.79
138.54
116.73
87.94
52.65
14.56
-21.44
-51.92
-76.26
-95.99
-112.46
-125.05
-131.12
-128
-115.29
-95.79
-74.28
-54.98
-39.46
-26.43
-13.54
0.37
14.18
25.12
30.76
30.52
26.14
20.6
16.56
15.25
16.18
17.83
18.46
16.99
13.3
8.34
3.63
0.69
0.45
2.79
6.61
10.11
11.56
10.01
5.9
0.99
-2.25
-1.67
3.36
11.51
19.74
24.68
24.09
17.83
7.81
-3.01
-11.97
-17.81
-20.85
-22.37
-23.56
-24.78
-25.5
-24.81
-22.02
-17.43
-12.13
-7.6
-4.87
-3.89
-3.58
-2.47
0.53
5.65
12.13
18.69
24.15
27.66
28.84
27.72
24.79
20.95
17.3
14.8
13.74
13.71
13.66
12.71
10.67
8.26
6.69
6.84
8.74
11.46
13.78
14.63
13.54
10.56
6.1
0.95
-3.63
-5.65
-2.97
5.9
20.63
38.49
54.76
64.05
62.28
48.31
24.68
-3.16
-28.49
-45.54
-51.23
-45.96
-33.24
-18.26
-6.15
-0.5
-2.67
-11.57
-23.91
-34.45
-36.85
-25.18
4.36
51.5
111.32
175.37
234.3
280.74
311.3
326.82
330.74
327.21
319.52
309.61
298.3
285.72
271.62
255.65
237.66
217.54
195.23
170.4
142.43
110.79
75.68
38.43
1.62
-31.61
-58.85
-79.5
-95.11
-108.47
-121.94
-135.87
-148.08
-154.73
-152.14
-138.9
-116.5
-88.84
-60.55
-35.12
-14.35
0.96
9.53
8.88
-4.17
-31.39
-71.47
-119.31
-167.13
-206.77
-232.02
-240.04
-231.2
-208.41
-175.59
-137.21
-97.59
-60.68
-29.79
-7.42
4.85
6.42
-2.6
-21.6
-49.82
-86.53
-130.74
-180.81
-234.08
-286.75
-334.35
-372.82
-399.46
-413.57
-416.4
-410.46
-398.95
-384.8
-370.28
-356.36
-342.74
-327.72
-308.82
-283.57
-250.24
-208.72
-160.37
-107.61
-53.25
0.12
50.33
95.64
134.92
168.13
196.53
222.81
250.25
281.54
317.28
355.12
389.81
414.48
422.75
410.81
378.75
330.37
271.7
208.97
146.56
86.39
28.18
-29.15
-86.16
-141.92
-194.04
-239.42
-275.09
-299.07
-310.8
-311.24
-302.61
-287.98
-270.35
-251.81
-233.01
-213.04
-190.18
-163.1
-131.87
-98.07
-64.13
-31.73
-1.11
28.64
58.26
86.71
110.9
127.03
133.24
131.51
127.63
128.8
140.15
162.55
192.8
225.96
258.37
289.16
319.71
351.62
385.07
418.28
448.49
473.31
491.16
500.9
500.87
488.5
460.98
416.87
357.41
287
212.38
141.14
79.91
33.03
1.82
-15.25
-21.89
-23.11
-24.17
-29.65
-42.48
-62.91
-87.82
-110.95
-124.41
-121.54
-100.1
-64.14
-23.39
9.98
25.91
20.09
-5.17
-42.93
-85.37
-127.15
-166.63
-204.61
-241.65
-275.85
-302.44
-315.65
-311.52
-290.23
-256.82
-219.43
-186.37
-163.16
-150.78
-146.1
-143.84
-139.35
-130.37
-117.55
-103.32
-90.25
-79.79
-71.77
-65.19
-58.96
-52.82
-47.51
-44.21
-43.8
-46.25
-50.44
-54.57
-56.78
-55.68
-50.77
-42.45
-31.59
-19.27
-6.42
6.24
17.98
27.84
34.59
37.06
34.58
27.55
17.32
5.92
-4.69
-13.18
-19.02
-22.28
-23.08
-21.51
-17.47
-11.14
-3.26
4.88
11.4
14.4
12.42
5.02
-7.2
-22.41
-38.13
-52.01
-62.4
-68.88
-72.05
-73.12
-73.16
-72.87
-72.67
-73.12
-75.2
-80.07
-88.33
-99.27
-110.67
-119.41
-122.68
-119.25
-110.06
-98.08
-87.23
-81.01
-81.25
-87.63
-97.88
-108.87
-117.71
-122.75
-123.66
-120.53
-113.08
-100.12
-80.18
-52.45
-17.56
22.44
64.68
106.88
148.32
189.9
233.01
277.77
322
361.02
389.02
400.38
391.45
361.88
314.97
256.49
192.46
127.77
65.03
5.7
-50.05
-101.83
-147.73
-183.61
-204.29
-206.61
-190.2
-158.14
-113.68
-61.15
-4.3
53.64
110.48
163.52
207.53
237.37
250.09
249.98
243.59
237.16
232.32
226.35
212.39
180.58
123.56
39.27
-63.93
-174.74
-282.05
-378.39
-458.31
-505.8
-507.65
-457.92
-384.56
-307.3
-240.56
-186.56
-149.38
-130.7
-129.02
-142.22
-159.46
-170.8
-164.39
-134.48
-81.99
-14
61.23
136.1
202.55
253.92
286.45
299.46
291.83
263.63
216.51
155.26
86.5
15.66
-50.19
-103.81
-138.12
-150.54
-142.92
-120.69
-89.71
-54.62
-19.44
12.91
39.39
58
67.56
68.03
60.19
45.79
28.16
11.43
0.99
1.69
16.24
43.5
78.13
112.01
137.24
149.63
149.42
140.65
128.27
115.72
103.93
92.23
79.92
67.38
56.89
50.72
50.01
54.31
61.77
70.03
77.16
83.81
88.89
92.81
95.46
95.99
92.96
84.83
70.72
50.84
26.62
0.29
-24.57
-45.6
-61.57
-72.45
-78.96
-82.13
-83.01
-82.32
-80.73
-77.16
-71.5
-64.07
-55.4
-45.83
-35.48
-24.13
-11.41
2.82
20.1
40.39
62.69
85.45
107.24
126.94
143.9
158.01
159.94
150.22
132.1
109.5
85.66
62.98
42.85
25.66
11.1
-1.56
-11.86
-20.55
-28.94
-38.32
-49.24
-61.5
-74.48
-87.05
-97.93
-104.73
-106.01
-101.18
-90.02
-73
-50.26
-22.67
7.77
37.96
65.26
86.89
100.72
106.03
104.03
97.07
87.97
79.14
71.7
65.59
59.79
52.59
42.4
28.54
10.89
-10.16
-33.62
-58.07
-82.2
-104.3
-123.57
-140.69
-157.42
-175.34
-194.17
-210.88
-218.66
-213.36
-193.42
-161.44
-123.31
-85.69
-53.44
-28.23
-9.27
4.76
14.44
19.49
19.44
14.65
6.96
-0.76
-5.53
-5.36
-0.39
7.8
17.03
25.72
33.45
41.27
50.82
63.03
77.73
92.37
103.22
106.68
100.32
83.2
56.17
21.9
-15.43
-49.98
-75.55
-86.93
-81.95
-62.62
-35.12
-7.56
13.52
24.91
27.63
25.07
21.01
17.66
15.58
14.39
13.95
15.5
20.59
30.39
44.17
59.59
73.77
84.28
90.05
91.51
90.29
86.71
82.86
79.32
75.3
69.62
61.51
51.38
40.97
32.66
28.56
29.81
35.66
43.66
50.72
54.01
51.72
43.62
30.52
13.93
-4.84
-24.65
-44.06
-61.8
-77.41
-91.91
-107.26
-125.48
-146.86
-167.35
-182.04
-185.41
-174.39
-150.08
-117.62
-83.57
-53.45
-29.83
-12.41
0.13
9.22
15.22
17.9
17.31
14.46
10.92
8.46
8.41
10.48
13.76
16.92
18.99
19.92
20.66
22.7
27.46
35.79
47.37
61.03
74.97
87.23
96.39
101.68
102.75
99.77
93.02
82.91
69.97
54.89
38.55
22.24
7.22
-5.39
-14.82
-20.89
-23.82
-24.21
-22.8
-20.44
-17.72
-15.11
-12.8
-10.97
-9.76
-9.17
-9.1
-9.31
-9.52
-9.34
-8.34
-6.08
-2.4
2.65
8.96
16.1
23.46
30.4
36.31
40.72
43.5
44.58
44.14
42.83
41.42
40.69
41.52
44.5
50.05
58.37
68.99
81.3
94.68
108.5
122.17
135.41
147.98
159.84
171.08
181.19
189.84
196.73
201.46
203.64
202.72
197.79
187.32
173.82
158.15
140.99
123.12
105.32
88.44
73.31
60.57
50.56
43.4
38.27
34.29
30.75
27.09
23.01
18.46
13.49
8.02
1.87
-5.72
-15.34
-27.11
-40.54
-54.59
-67.91
-79.34
-88.29
-95.03
-100.77
-106.98
-114.87
-124.74
-136.25
-148.51
-160.82
-172.85
-184.95
-197.78
-211.85
-227.31
-243.93
-261.61
-280.18
-299.08
-316.41
-329.04
-333.29
-326.73
-309.86
-286.22
-261.55
-241.08
-227.58
-220.3
-215.99
-210.87
-202.61
-191.12
-177.85
-164.55
-151.9
-139.44
-126.24
-112.14
-98.62
-88.48
-84.75
-88.7
-98.92
-111.6
-122.19
-127.64
-127.65
-124.44
-120.9
-118.76
-117.49
-115.12
-109.7
-100.95
-90.47
-80.81
-74.03
-70.4
-68.58
-66.34
-62.06
-55.65
-48.94
-44.83
-45.71
-51.71
-59.56
-63.34
-56.29
-33.81
4.1
52.04
100.73
139.88
161.88
164.29
150.34
127.75
106.07
93.62
95.02
110.2
134.88
162.75
188.13
207.83
221.91
232.62
242.55
253.08
263.87
273.52
280.89
286.1
290.22
294.31
298.25
300.08
296.74
285.34
264.63
235.43
200.36
162.76
126.05
93.31
67.45
51.2
46.76
55.08
75.08
103.26
134.2
161.5
179.16
182.95
171.24
144.91
106.98
61.43
12.23
-37.52
-85.9
-132.03
-175.84
-217.6
-257.64
-295.63
-329.8
-356.41
-370.36
-366.85
-343.71
-303.07
-251.22
-196.43
-145.76
-102.76
-67.28
-37.3
-11.59
8.96
21.8
24.71
17.56
2.95
-15.36
-34.28
-52.67
-71.13
-90.45
-110.05
-127.44
-139
-141.61
-134.24
-118.26
-96.78
-73.5
-51.39
-32.11
-15.9
-2.17
9.76
20.04
28
32.33
31.65
25.3
13.61
-1.79
-18.3
-32.93
-42.72
-45.42
-40.03
-27.22
-9.24
10.43
28.33
42.22
51.91
59.12
66.36
75.23
85.5
95.08
101.25
102.32
98.79
93.48
90.18
92.15
100.59
114.45
131.17
147.87
162.66
174.67
183.86
190.13
193.02
191.78
186
176.01
162.96
148.49
133.85
119.6
105.55
91.15
75.97
59.98
43.65
27.6
12.49
-1.47
-14.25
-26.1
-37.31
-48.04
-58.43
-68.29
-77.39
-85.1
-90.76
-93.52
-92.63
-87.62
-78.19
-64.81
-48.26
-29.93
-11.53
5.26
19
28.83
34.38
36.03
34.55
31.13
27.03
23.39
20.93
19.85
19.92
20.35
20.19
18.29
13.77
6.03
-4.89
-18.2
-32.45
-45.77
-56.56
-63.81
-67.58
-68.61
-68.02
-66.83
-65.42
-63.7
-61.25
-57.6
-52.44
-45.72
-37.56
-27.98
-17.14
-5.15
7.48
19.76
30.29
37.67
40.96
40.08
35.98
30.13
24
18.35
13.27
8.23
2.51
-4.36
-12.68
-22.43
-33.53
-45.88
-59.64
-75.07
-92.64
-112.84
-135.72
-160.46
-184.98
-206.23
-220.88
-226.69
-223.46
-213.3
-199.73
-185.98
-173.55
-161.98
-149.56
-134.93
-117.88
-99.25
-79.61
-58.25
-33.27
-3.26
30.85
65.27
94.81
116.13
129.86
140.78
154.97
175.93
201.82
226.36
242.38
245.84
238.15
224.68
211.4
201.37
193.89
186.04
176.04
165.37
158.16
158.34
166.26
176.9
181.32
170.88
141.65
97.53
49.42
10.63
-9.07
-7.67
8.38
27.81
40.16
39.98
27.86
7.78
-16.2
-41.57
-66.17
-85.9
-93.66
-81.86
-47.1
6
64.56
112.13
136.17
133.91
113.37
89.69
78.54
89.98
125.79
179.74
240.26
294.27
330.23
340.51
323.11
281.72
224.29
160.7
99.95
48.04
7.43
-22.36
-43.2
-57.17
-66.32
-72.99
-79.98
-90.5
-107.19
-131.49
-163.66
-202.98
-247.87
-295.57
-341.21
-377.46
-395.55
-388.09
-352.37
-292.86
-220.82
-150.39
-93.49
-55.13
-32.07
-15.48
4.4
34.07
74.9
123.96
176.1
225.47
266.31
293.04
300.76
286.63
251.47
200.2
140.86
82.07
30.37
-11.46
-44.18
-70.47
-93.05
-113.19
-130.55
-143.77
-151.48
-153.26
-150.09
-143.86
-136.53
-129
-120.69
-110.21
-96.38
-79.59
-62.11
-47.54
-39.14
-38.15
-42.93
-49.51
-53.47
-52.06
-45.91
-38.84
-36.16
-41.98
-56.87
-77.2
-96.36
-107.79
-107.73
-96.94
-79.78
-61.92
-47.75
-38.84
-34.12
-31.44
-29.41
-28.21
-29.42
-34.6
-43.88
-55.43
-65.85
-71.38
-69.28
-58.78
-41.23
-19.83
1.2
17.9
27.58
29.55
25.02
16.3
5.69
-5.38
-16.58
-28.24
-40.28
-51.74
-61.02
-66.95
-69.84
-71.43
-73.9
-78.41
-84.41
-90.05
-93.97
-96.64
-100.33
-107.6
-118.69
-130.49
-137.91
-136.98
-127.93
-115.84
-108.25
-110.79
-124.26
-144.31
-164.07
-178.12
-184.61
-184.83
-180.93
-173.73
-162.21
-144.77
-121.28
-93.68
-65.32
-38.96
-15.31
6.86
29.76
54.76
81.74
109.31
136.26
162.41
188.74
216.09
243.58
267.92
284.14
287.55
275.75
249.68
212.62
168.3
119.22
66.49
11.61
-41.56
-86.3
-114.97
-122.5
-109.17
-81.24
-48
-17.88
5.2
22.6
39.25
60.73
90.51
128.95
173.22
218.5
259.26
290.54
309.23
314.74
309.14
295.97
278.8
259.85
239.59
217.76
194.39
170.83
149.39
132.31
119.85
109.86
98.58
82.68
61.5
37.99
18
7.47
9.92
23.67
42.3
57.21
61.18
51.41
30.42
5.1
-16.13
-24.39
-13.95
16.7
64.09
119.92
172.88
211.37
227.55
218.6
190.06
150.07
106.69
64.64
24.4
-15.82
-56.94
-96.43
-129.75
-147.22
-142.97
-116.17
-72.75
-24.09
16.29
37.12
33.03
3.83
-40.18
-88.74
-132.97
-168.06
-193.59
-212.16
-227.12
-225.96
-225.84
-220.27
-204.02
-173.16
-127.54
-71.93
-15.39
31.48
60.1
64.85
50.86
24.98
-5.22
-34.76
-62.48
-90.15
-120.06
-153.02
-189.43
-224.86
-257.05
-284.77
-307.65
-324.43
-332.07
-325.72
-300.4
-254.47
-188.19
-107.56
-21.78
59.32
128.02
180.25
216.17
239.6
255.92
271.47
289.43
308.96
324.98
330.15
317.85
285.05
233.93
170.81
103.98
40.14
-17.2
-67.77
-112.95
-154.15
-192.2
-227.61
-261.31
-294.19
-326.05
-353.94
-371.63
-371
-345.13
-291.5
-214.16
-123.15
-31.39
49.16
110.73
151.45
174.87
187.78
197.39
208.47
221.56
232.86
235.8
223.55
192.23
143.37
84.33
26.92
-15.76
-33.12
-19.76
23.34
88.79
164.38
235.35
287.53
310.65
300.8
261.28
201.37
133.24
68.28
14.09
-27.12
-57.88
-83.33
-108.54
-136.22
-165.68
-193.34
-214.5
-225.21
-224.18
-213.28
-196.73
-179.29
-164.57
-153.92
-146.63
-140.91
-134.89
-127.33
-117.83
-106.31
-92.97
-78.57
-64.68
-53.32
-46.27
-43.94
-44.47
-44.02
-38.04
-23.23
0.51
29.48
57.34
77.62
86.29
83.29
72.13
58.15
46.02
38.09
34.12
32
28.96
22.4
10.52
-7.62
-31.71
-59.56
-86.96
-108.49
-119.71
-119.5
-111.43
-102.85
-102.4
-116.21
-145.38
-185.2
-226.68
-259.54
-275.62
-271.2
-247.9
-211.81
-170.87
-131.95
-98.24
-68.5
-38.46
-4.1
35.48
76.65
113.15
139.8
155.53
164.21
172.55
186.61
208.85
238.03
270.93
304.78
338.11
369.38
394.83
407.69
399.97
366.22
307.06
230.12
147.3
70.28
6.16
-44.33
-85.56
-123.72
-163.02
-203.49
-241.02
-269.42
-283.12
-279.43
-259.26
-226.01
-184.04
-136.65
-85.7
-32.3
21.88
74.06
120.99
160.04
190.23
211.5
223.72
226.48
219.77
205.03
185.96
167.15
150.9
135.28
114.54
82.77
39.1
-9.24
-48.38
-63.39
-45.46
2.93
68.2
130.62
171.96
181.93
160.35
115.4
58.56
-0.02
-54.68
-104.09
-149.3
-191.54
-231.07
-267.92
-302.89
-337.7
-374.16
-411.9
-446.98
-472.48
-481.07
-467.91
-432.86
-380.56
-318.52
-254.79
-195.75
-144.99
-103.46
-70.07
-42.46
-17.63
7.29
34.05
62.57
90.96
116.3
135.87
147.87
151.86
148.43
138.71
124.24
107.14
90.43
77.88
72.97
77.61
90.98
109.51
128.04
142.03
149.28
150.38
147.92
144.4
140.93
136.92
131.34
124.19
117.51
114.29
116.26
121.56
124.46
117.21
93.83
53.66
2.66
-48.1
-86.29
-102.77
-94.42
-64.53
-20.61
28.54
75.5
115.42
145.8
165.86
175.96
177.84
174.84
171.76
173.72
184.59
205.35
233.6
264.56
292.9
314.77
328.43
334.05
332.6
325.39
313.78
299.47
284.26
269.5
255.21
239.89
221.1
196.95
167.25
133.79
99.5
67.02
37.73
11.48
-12.51
-34.97
-55.98
-75.46
-93.46
-110.1
-125.34
-138.65
-149.07
-155.98
-159.55
-161.05
-162.09
-163.6
-164.91
-164.23
-159.77
-150.88
-138.92
-126.38
-115.73
-107.97
-102.12
-95.24
-83.21
-61.87
-28.08
18.4
74.15
131.87
181.94
215.53
227.74
219.47
196.73
167.96
140.4
118.07
101.56
89.54
80.72
74.71
71.81
71.62
72.37
70.69
62.8
45.97
19.15
-16.67
-59.29
-106.04
-154.42
-201.98
-246.41
-285.53
-317.31
-340.76
-355.85
-363.44
-364.63
-360.47
-351.62
-338.94
-323.96
-308.85
-296.09
-287.45
-283.44
-283.02
-283.92
-282.92
-276.29
-260.3
-231.74
-189.39
-134.96
-73.3
-11.43
43.93
89.05
124.7
155.27
186.31
220.94
257.87
291.45
314
319.5
305.76
274.83
231.5
181.65
130.79
84.07
46.31
21.36
10.72
11.9
18.06
19.64
7.88
-21.54
-66.2
-117.62
-164.13
-195.02
-204.21
-191.86
-163.75
-128.58
-94.78
-67.97
-49.72
-38.7
-32.47
-29.6
-29.98
-33.75
-39.87
-45.36
-46.26
-39.61
-25.59
-7.63
9.17
20.93
26.56
27.64
26.37
23.44
17.17
4.63
-15.73
-42.21
-69.61
-91.33
-102.35
-101.53
-91.98
-79.63
-70.5
-68.19
-72.82
-81.62
-90.82
-98.02
-103.51
-110.19
-122.13
-142.12
-169.53
-200
-227.06
-244.59
-249.84
-244.58
-234.37
-226.02
-224.43
-230.06
-238.69
-243.14
-236.36
-214.69
-179.31
-135.21
-88.63
-44.2
-2.93
37.16
79.23
125.38
175.42
227.02
276.95
322.04
359.94
389.69
411.99
429.55
446.99
469.73
501.86
543.79
590.64
632.98
659.5
660.83
632.77
577.47
501.78
414.68
324.47
237.21
156.9
86.33
27.58
-17.87
-49.9
-70.65
-84.55
-97.08
-113.52
-137.51
-170.22
-210.33
-254.28
-296.89
-332.75
-357.47
-368.89
-367.72
-357.13
-341.48
-324.8
-309.71
-297.16
-287.13
-279.11
-272.4
-265.9
-257.54
-244.21
-222.54
-190.34
-147.7
-97.41
-44.1
7.59
54.58
96.7
136.46
177.46
222.13
269.91
316.87
356.99
384.56
396.05
391.2
372.18
341.87
302.61
255.63
201.6
141.77
78.41
14.31
-48.26
-108.34
-166.1
-221.57
-273.36
-318.35
-352.3
-371.53
-374.48
-362.37
-338.67
-307.91
-274.23
-240.42
-208.06
-177.81
-150.01
-124.79
-101.87
-80.36
-58.5
-34.29
-5.64
28.73
69.1
114.11
161.07
206.69
248.17
284.52
316.64
346.81
376.78
406.06
431.23
446.51
445.7
424.46
381.95
320.99
247.06
166.56
85.25
7.71
-62.95
-124.85
-177.18
-219.95
-254.21
-281.86
-305.72
-328.65
-352.29
-376.31
-397.96
-413.2
-417.74
-408.7
-385.02
-347.64
-298.92
-241.98
-180.55
-118.48
-59.72
-7.65
35.63
69.57
95.08
114.32
130.42
146.69
165.56
187.1
207.94
221.9
222.06
203.68
166.38
114.34
54.44
-6.04
-61.14
-106.46
-138.22
-153.06
-148.7
-125.64
-88.02
-42.64
3.23
44.03
76.2
97.33
104.62
94.96
66.54
20.79
-36.81
-98.47
-157.03
-208.31
-251.02
-284.76
-307.79
-316.51
-307.09
-278.33
-233.53
-179.89
-125.91
-78.23
-39.56
-9.04
16.53
40.81
66.76
96.56
132
174.75
225.68
283.78
345.05
402.6
448
474.23
478.78
465.57
444.19
426.7
423.08
437.23
465.55
498.61
525.02
535.77
526.99
499.93
459.36
410.9
359.06
306.7
255.33
205.98
159.81
118.23
82.12
51.33
24.58
-0.31
-25.74
-53.62
-84.67
-117.94
-150.73
-179.51
-201.41
-215.57
-223.58
-228.83
-234.95
-244
-255.72
-268.38
-280.16
-290.35
-299.08
-306.08
-309.46
-306.09
-293.4
-271.5
-244.61
-219.66
-203.71
-200.51
-209.12
-224.13
-238.07
-244.7
-241.1
-228.63
-211.83
-196.75
-188.87
-191.28
-203.91
-222.97
-241.89
-253.15
-250.25
-229.45
-190.93
-138.62
-78.67
-18.15
37.01
83.17
119.35
146.9
169.2
191.04
217.47
251.96
293.97
337.96
373.91
390.56
379.57
339.09
274.5
196.23
115.86
42.35
-19.52
-68.71
-106.4
-134.71
-156.19
-173.54
-188.95
-202.46
-211.08
-209.21
-190.97
-153.54
-98.81
-33.14
35.36
99.55
154.8
198.19
226.65
236.07
222.34
183.74
123.12
48.14
-31.47
-107.51
-175.93
-236.61
-290.82
-338
-374.67
-395.77
-397.86
-382.14
-354.78
-324.32
-297.88
-277.79
-261.24
-242.74
-217.8
-185.34
-148.34
-111.65
-79.3
-52.8
-30.87
-10.82
9.71
31.95
55.94
81.42
108.87
139.76
176
218.73
267.19
318.02
365.83
404.48
428.78
435.99
426.27
402.11
367.49
326.68
283.18
239.49
196.77
155.18
114.53
75
37.33
3.1
-25.82
-48.22
-64
-74.3
-80.76
-84.81
-86.98
-87.16
-85.19
-81.35
-76.38
-70.7
-63.6
-52.91
-35.89
-10.95
20.69
54.28
82.48
97.44
93.48
68.94
26.94
-25.31
-78.08
-121.04
-145.45
-146.05
-122.81
-81.31
-32.06
12.11
39.54
42.52
18.92
-28.02
-90.73
-158.92
-221.4
-267.96
-291.32
-288.6
-261.96
-217.59
-163.48
-106.84
-52.01
-0.41
48.52
95.54
140.82
184.02
225.37
266.18
308.27
352.17
395.27
431.65
452.8
451.46
424.93
377.27
318.16
259.24
209.75
173.24
148.12
128.5
109.32
88.26
65.94
44.3
24.03
3.84
-19.02
-46.18
-79.27
-117.12
-157.01
-195.7
-229.7
-255.48
-268.94
-266.26
-243.83
-202.95
-146.96
-81.36
-11.91
57.55
125.55
191.88
247.44
295.2
326.28
332.6
309.52
258.28
186.15
103.5
20.07
-57.93
-127.53
-190.62
-248.39
-300.21
-343.6
-375.04
-391.92
-393.91
-383.38
-363.86
-341.37
-320.7
-305.09
-296.01
-292.81
-293.31
-294.56
-293.85
-289.07
-280.6
-269.08
-255.14
-238.99
-220.04
-197.4
-170.53
-139.41
-104.54
-67.31
-28.56
11.29
51.79
92.19
131.22
167.12
198.59
225.19
247.67
268.07
288.45
309.07
327.27
337.4
332.57
307.99
263.34
203.56
136.62
70.09
8.33
-47.07
-95.3
-133.45
-155.69
-155.5
-129.48
-80.24
-16.32
50.51
109.77
155.27
186.03
204.99
216.03
221.26
219.87
208.59
183.69
143.26
89.04
26.48
-36.71
-93.44
-139.67
-175.22
-202.57
-224.14
-240.31
-248.6
-244.8
-225.09
-187.8
-133.95
-66.81
8.81
86.81
159.52
217.76
252.63
258.52
236.58
195.92
151.52
119.17
109.26
122.78
151.29
180.9
197.92
193.73
166.36
119.42
59.3
-7.42
-75.31
-140.26
-199.31
-250.57
-292.67
-324.6
-345.3
-353.87
-350.33
-336.17
-314.56
-289.43
-264.07
-239.51
-213.84
-183.38
-144.64
-97.34
-45.68
2.26
37.55
54.37
53.26
40.92
27.38
21.62
27.67
44.04
65.97
89.09
111.99
136.6
165.65
199.86
237.19
273.82
306.91
335.96
362.16
386.33
407.76
424.06
433.19
435.07
431.31
423.38
410.64
389.71
356.16
307.99
246.56
177.99
110.56
51.21
3.23
-34.22
-64.81
-92.82
-120.53
-150.05
-181.58
-214.76
-248.85
-282
-310.38
-328.8
-332.83
-320.47
-297.47
-272.35
-253.63
-245.07
-243.09
-238.22
-219.95
-182.05
-124.08
-54.93
16.13
82.2
140.65
192.86
241.76
289.47
326.03
360.45
386.48
399.22
395.33
374.08
338.17
292.97
244.92
199.2
160.05
125.91
95.04
65.57
36.08
5.73
-26.46
-61.59
-100.46
-141.44
-183.76
-224.2
-259.43
-287.24
-307.34
-321.64
-333.61
-347.26
-365.03
-388.83
-416.66
-443.37
-462.11
-466.64
-453.97
-425.68
-386.88
-343.35
-299.78
-257.08
-213.17
-165.61
-113.74
-59.96
-8.92
34.85
69.36
95.67
117.3
137.91
158.57
176.79
187.3
184.46
164.9
129.05
81.19
28.06
-22.72
-64.08
-90.25
-97.37
-83.68
-49.53
2.32
66.28
133.99
194.7
236.8
250.21
229.71
177.97
106.52
32.96
-24.53
-53.38
-50.5
-22.33
19.2
61.56
95.6
116.85
124.27
118.71
101.59
74.7
40.28
0.9
-41.23
-85.13
-131.42
-181.18
-233.88
-285.69
-329.22
-355.3
-355.87
-327.23
-271.43
-195.58
-109.34
-21.89
59.77
131.37
190.53
235.92
267.36
286.47
