16.169
238.82
-94.417
-516.43
-102.6
65.91
173.19
98.607
272.55
17.74
-233.91
3.1472
33.42
-27.365
19.896
-57.968
67.713
96.475
19.018
-96.263
-353.47
232.74
177.69
-69.786
-21.942
-22.822
-12.706
82.632
46.641
-67.614
11.994
97.883
-164.23
-186.61
139.42
49.884
-12.925
63.472
2.0863
42.292
29.008
-44.907
-22.373
-33.856
-36.158
1.552
156.87
38.746
-48.96
12.315
28.116
-154.51
-180.94
-135.11
15.531
144.62
95.586
3.5873
80.343
84.868
-70.364
-30.7
-24.269
-13.752
24.62
61.429
64.989
-100.45
-88.874
41.831
-75.994
88.456
42.473
-73.231
-154.71
292.04
63.206
-82.313
-8.1852
-67.831
-80.739
18.693
73.043
25.748
-17.963
-15.651
-13.743
-29.677
27.402
41.824
-29.166
24.32
5.8573
-9.6105
-11.065
-15.075
-9.3664
-1.01
11.978
0.16913
14.768
63.49
-12.766
-9.3278
-8.2672
-125.48
24.113
68.61
8.0998
1.4186
-7.8198
20.458
-41.348
-1.59
-8.9263
19.981
-5.7359
33.742
-18.145
-26.627
52.931
-12.276
-57.038
36.801
7.5078
21.339
-4.536
-52.703
-1.5383
43.897
-9.4887
-20.811
29.256
16.624
4.609
-81.022
-26.791
105.03
-8.0863
-32.108
44.241
-51.533
-0.46317
62.371
17.557
-49.105
-33.322
-13.074
10.657
24.303
-16.589
9.2108
16.328
34.728
-39.229
-40.311
2.1593
17.314
32.202
-12.866
-17.006
-4.7963
22.113
17.305
1.3108
-37.668
21.809
21.571
-48.001
-29.287
80.256
-5.1026
-35.556
-6.2521
1.7374
-14.779
-13.118
39.907
-10.699
17.853
-6.2469
-0.37087
15.328
52.314
-51.008
-33.903
23.563
19.157
5.9314
-14.3
-0.82497
-26.724
13.444
-7.1001
-25.888
32.472
-2.9802
-35.837
17.863
40.115
13.794
-58.691
-23.593
47.087
3.2721
-8.3551
-1.9494
14.197
26.222
-26.48
-5.5999
1.2949
34.841
-61.584
-35.906
103.88
-32.413
-11.648
-27.251
12.33
30.528
-7.2707
-55.514
29.46
10.892
14.837
16.537
-27.334
5.8184
6.671
21.581
-51.053
9.3267
-20.091
31.78
32.417
-9.5653
0.89031
6.9688
-60.536
-14.321
12.867
3.1221
53.969
47.645
49.836
34.836
-84.523
-160.41
-25.262
26.848
26.502
45.798
0.9398
-6.3744
3.5899
6.1731
31.582
-49.847
-27.533
-15.862
-2.2609
23.86
39.478
-0.23453
-55.512
55.974
42.569
36.072
-66.832
53.95
19.434
-104.25
28.998
-2.8539
13.135
-21.645
2.7457
15.866
13.809
-12.265
-4.215
7.6748
3.3222
7.9511
-5.7962
-6.7564
-4.253
-0.53294
-7.6224
19.875
-4.2804
-15.239
4.8609
15.316
7.8179
-16.684
-6.0031
6.1507
-10.43
5.5461
-2.685
29.139
-0.012191
17.486
-63.059
-43.92
44.454
23.749
12.369
13.133
-46.103
-25.348
-0.18166
-1.13
36.086
14.885
-23.077
12.274
45.557
11.895
-43.408
-95.441
40.994
27.957
39.775
5.9034
-66.363
-15.296
31.84
25.228
-23.443
20.939
10.91
-58.866
42.29
25.586
20.666
-25.487
31.475
-48.648
-72.993
29.075
35.091
-0.82328
-20.381
-27.551
6.961
50.861
-15.093
-9.8509
61.913
10.318
-34.597
-102.53
-8.8272
73.096
27.802
-14.159
-0.50752
-0.84385
7.0132
29.614
-11.862
21.581
13.203
-52.887
-26.572
12.793
-1.4178
-21.99
3.9438
56.572
3.6764
-45.146
6.9831
12.065
1.1044
38.931
15.524
-103.24
-29.387
46.333
36.594
-29.361
55.942
-50.46
-6.9126
29.869
34.041
38.712
-98.005
-65.362
73.628
23.985
-27.622
-8.6086
40.423
29.323
1.2686
-59.548
19.014
-26.84
-38.748
37.738
-27.148
20.685
48.943
15.373
-49.533
-19.743
-30.535
11.568
125.14
-3.1388
-94.072
23.214
7.898
14.407
-18.549
-37.303
7.401
70.592
-32.536
-11.92
-29.135
8.2851
52.593
-37.398
11.301
-14.283
-30.643
2.0442
44.463
5.0418
17.676
19.557
-32.005
-44.161
-42
38.452
53.536
-33.543
4.4617
48.3
-107.35
8.7042
109.16
-29.03
-48.57
1.9059
-15.091
10.128
47.364
7.5738
-12.112
-23.526
-1.6931
12.734
-45.744
-0.34378
28.055
32.672
50.326
-44.657
-14.552
-8.1031
4.1184
17.574
-52.19
10.771
48.327
-45.836
-23.767
18.075
51.399
-1.4155
-26.324
-31.348
1.098
39.765
3.9651
-13.974
-2.0025
-0.88699
-9.6424
29.689
-7.8
0.19796
-2.7394
-1.0521
-3.7491
-3.9946
-9.779
-9.3623
-4.1764
-8.758
35.047
49.966
-55.971
-53.055
62.904
10.634
-6.5193
-35.802
14.045
-22.734
15.816
11.858
-18.2
9.5519
-4.9995
14.955
106.31
-77.503
-32.96
31.073
-24.822
-17.888
-32.94
57.758
9.9935
6.152
17.483
16.53
-56.268
-18.232
-33.256
3.3698
46.978
14.849
41.105
-73.673
11.68
46.885
-22.644
-10.849
-26.91
10.365
17.089
-2.5386
42.089
-41.169
-46.739
16.998
58.997
-70.071
-10.175
45.144
-24.561
16.458
29.695
23.067
-59.908
-42.39
63.395
41.275
-18.987
7.8909
-58.351
-35.59
66.445
2.9164
1.7257
-7.595
-2.671
-23.386
43.454
25.761
-22.825
-7.9352
-40.438
-33.287
23.531
28.991
2.0785
16.414
-16.393
-2.1315
19.839
3.5983
-15.645
-15.693
14.631
-32.724
-17.825
35.626
3.8259
-18.189
18.402
30.759
3.5295
-22.92
0.25516
0.41574
-2.0977
39.33
-0.88428
-75.693
37.834
20.803
-6.8601
0.71389
-40.576
43.808
-4.6577
-14.08
-11.813
-17.792
10.606
25.515
45.003
-66.324
-14.026
25.481
-18.424
-4.3048
17.289
51.762
26.167
-85.708
-18.356
72.384
52.117
-72.694
-20.212
-76.519
-22.103
88.915
62.698
-41.824
-71.92
44.145
46.693
7.3339
-30.91
10.569
-56.461
28.36
4.0901
2.594
23.292
-1.5595
-6.9688
16.859
-19.401
16.81
11.901
-54.444
12.755
-39.365
53.576
1.2919
-16.453
23.757
-50.458
-14.004
78.55
7.0427
-17.567
-7.3627
23.926
-64.861
-25.826
60.704
12.417
-14.76
12.223
-61.987
42.635
-6.3856
-33.644
84.641
-23.987
-30.373
6.6019
23.564
21.807
-34.201
-9.6629
-1.9392
27.52
10.576
-24.752
-12.918
2.8981
-40.486
-24.715
30.227
15.572
12.544
6.5133
0.48472
9.5971
-2.6175
-2.3942
0.40045
40.997
16.511
-36.889
29.02
-11.796
-27.419
-7.7024
8.5335
0.70294
-8.2145
7.9025
42.312
-29.287
-32.606
-18.793
-28.169
45.676
9.3954
-5.5169
-9.1781
32.405
-43.07
-66.333
79.45
10.181
68.635
-7.6568
-79.325
-54.939
1.6824
93.048
-32.454
21.37
57.269
-34.377
-54.788
19.069
-6.4029
-26.271
45.064
20.188
-22.111
-4.4566
7.1921
41.616
-10.14
-46.16
-16.189
5.0244
12.293
-32.042
1.9887
44.863
21.511
-45.751
-15.469
46.471
-10.66
-1.5636
-0.92857
9.6065
35.99
6.7088
-68.585
-20.465
20.337
-18.858
8.8722
9.8276
20.787
-35.147
50.413
-37.587
-22.498
-21.002
5.1949
53.176
11.18
3.2291
6.3745
-26.372
20.458
80.501
-120.93
-50.874
28.935
46.92
28.156
17.599
-65.853
-15.555
43.439
-8.9648
65.875
-5.9281
-88.195
-8.7241
36.523
16.403
-6.4278
-16.879
-50.907
68.434
34.954
-33.859
-59.269
17.683
55.398
8.5307
-55.79
-1.1354
17.553
-1.7409
44.602
-9.1476
-43.078
-9.9989
13.499
18.042
36.881
-3.0785
-67.817
-48.206
91.88
18.196
-25.022
-42.161
-18.38
68.517
-8.5921
-17.412
20.578
35.324
25.791
-89.523
-40.696
72.806
-54.15
60.716
-28.057
4.9957
19.813
13.682
16.617
-89.535
-33.448
43.819
46.158
5.2106
-21.318
7.6946
-4.5925
41.826
-22.906
12.253
-1.4925
-49.784
49.634
3.2606
-81.078
42.473
-24.014
-14.498
55.77
-12.716
-56.153
7.522
47.483
-8.0576
-15.726
19.626
8.5305
7.4041
14.08
-14.312
-34.962
13.407
16.359
-36.026
5.166
4.6159
27.046
4.9533
-24.518
-8.569
15.404
6.4849
-47.176
3.1699
69.221
16.472
-22.766
-10.962
-5.5326
-8.1344
19.306
-6.362
-9.7984
1.3907
-36.3
25.952
3.6815
0.15176
5.4864
-8.0641
0.86619
-3.4412
-12.477
-18.574
21.552
38.976
62.08
-37.181
-59.177
52.54
10.296
-4.222
-42.312
-13.645
114.8
-112.83
-16.68
70.389
-34.089
-20.695
56.411
-31.738
10.379
0.19158
-21.076
-16.286
6.7807
-43.832
-33.799
42.279
47.092
36.001
-29.165
-35.859
45.303
22.043
-21.453
-2.7567
-25.624
-18.801
14.76
-32.966
34.204
78.48
-41.21
-46.264
7.7641
-14.15
-20.079
70.457
-7.5491
-38.791
81.194
-26.246
-20.331
-33.115
-54.28
75.627
68.081
-27.805
-99.457
-24.097
56.342
36.07
22.186
-34.903
12.854
56.784
-44.114
-39.652
-0.93112
42.37
-1.6225
11.949
-1.6307
-7.4381
-56.988
34.821
8.6821
14.212
-13.968
-56.64
-28.778
8.9531
58.316
44.158
-35.401
-53.42
51.549
4.9165
-19.975
24.345
10.599
-61.243
36.613
29.139
-57.909
81.589
-15.251
-44.748
-9.8398
-27.178
54.26
-17.476
-5.7367
-0.48845
19.787
-20.781
7.7443
23.179
59.588
31.954
-28.814
-48.116
-45.367
-54.612
16.681
50.728
-4.5164
-8.0826
-13.184
29.047
10.858
-6.4476
63.435
-60.985
-57.457
73.484
-32.69
-21.979
30.91
7.1232
24.661
8.5516
-48.074
-28.799
14.327
46.296
-13.93
-20.345
12.689
-55.546
63.464
45.372
-52.833
-32.145
20.303
20.326
7.8503
8.2149
-35.177
15.853
4.946
7.5098
-7.0137
-35.801
18.032
-6.1609
-9.0692
4.2459
25.263
34.985
-33.873
-40.68
-17.632
75.493
23.868
-75.829
29.906
-11.579
2.5857
-5.5578
8.5901
79.742
-41.521
-71.766
3.2893
18.034
38.525
-45.864
-19.274
7.5531
19.981
35.159
-37.944
-9.1728
48.287
12.066
-55.027
46.445
22.719
8.7346
-73.547
14.838
-0.66992
17.855
-32.353
29.031
-1.0118
-33.807
24.771
-42.812
22.002
19.774
38.134
-31.64
7.0999
17.13
-74.299
-2.7577
50.364
-3.6056
-7.229
-5.4738
-26.334
44.001
14.985
8.0771
6.0304
-38.053
1.113
0.69829
2.0504
8.5954
9.9997
-15.33
-17.148
47.211
-43.748
-31.879
23.338
60.523
-66.983
-18.004
59.861
6.6725
-27.32
32.048
35.003
-37.177
-43.112
-29.619
3.2997
13.883
-5.0958
26.821
40.33
-31.975
-17.583
39.15
-21.918
-42.99
52.776
-16.682
2.4506
63.448
-39.487
-95.612
67.341
-0.35729
1.6154
-0.72637
-13.917
-0.50469
20.918
-17.196
21.262
44.684
-0.2162
-63.033
-58.007
44.92
27.103
-13.831
5.0758
-7.9533
-5.22
100.53
29.295
-115.82
-18.076
-9.4326
40.088
43.097
-3.0718
-43.525
-28.084
-65.027
41.536
87.479
10.336
-32.22
-31.309
54.417
17.834
-29.507
9.1147
14.072
-10.536
-76.154
-20.874
33.387
41.646
-43.806
-32.686
84.662
-28.553
-5.5803
23.261
-0.71157
-14.456
-3.8255
-23.947
20.598
25.834
-11.705
-31.437
-14.774
70.543
3.3878
-51.168
-14.226
-2.3565
37.692
29.055
-24.049
-15.011
50.681
-19.467
-48.31
27.007
-10.759
-14
29.413
14.293
-33.931
-0.96107
27.836
-28.361
1.0054
9.3526
23.664
-6.9503
-20.129
-10.398
-12.023
-16.37
35.774
-24.018
23.695
17.341
6.3481
15.396
12.447
-12.309
-85.854
6.1005
54.593
0.39023
22.928
-10.821
-2.5147
9.5947
-23.531
22.237
-20.359
-1.7233
9.7769
-10.269
-5.5489
-0.85297
40.593
15.384
-73.753
-1.0078
57.748
20.123
-35.015
-95.502
31.18
61.992
10.454
-21.234
-42.157
51.943
-10.282
-15.183
32.555
-7.2104
-25.015
10.135
6.7262
-16.8
-7.3198
-1.5044
16.447
7.4228
10.867
5.1235
-25.482
27.226
-20.399
13.828
-27.884
-23.548
21.034
60.906
-24.665
-64.753
21.912
27.172
-5.3805
17.01
7.7126
-30.986
-7.1741
-3.1422
27.477
-28.14
-8.005
101.25
-16.614
-74.851
-21.177
-6.0071
-8.2295
10.041
18.354
4.1546
-5.8286
9.8967
3.2607
-5.3336
-18.714
35.558
38.494
-27.131
57.341
-7.5571
-23.909
16.11
-36.192
18.305
-6.8551
-30.343
-10.894
3.5146
-16.421
18.623
-12.151
-31.519
18.082
-3.3222
29.016
-22.82
-16.477
74.553
-31.37
-20.936
-13.235
8.9649
13.793
-3.1731
0.13726
-2.2918
12.186
7.466
-1.7689
-3.2584
1.5897
-16.823
27.755
25.783
15.734
-9.6372
-17.989
-24.073
4.2693
-31.872
-4.5004
24.01
7.7787
10.817
4.2734
61.146
-80.987
-24.863
62.658
-33.424
-0.54017
30.537
-52.192
21.859
13.992
6.2969
-21.352
1.3515
20.33
-0.16766
-14.548
-13.508
14.428
61.77
-69.826
-58.064
41.779
-19.878
6.4895
18.649
19.676
18.004
-10.939
13.863
-32.309
10.303
-26.427
18.183
4.5253
11.611
8.8566
-4.3486
-26.148
-12.2
20.783
-36.435
50.479
44.306
-29.27
0.62684
-2.4284
-44.801
-58.782
36.51
11.941
7.9809
72.923
51.325
-52.275
-150.95
48.789
33.294
32.176
5.219
-34.58
-58.284
44.771
17.303
12.212
16.201
39.367
-38.503
-14.58
-4.9359
4.606
-15.849
17.138
21.756
-18.864
-3.039
-15.133
19.249
-31.452
-9.3644
14.713
18.848
6.8217
-15.03
17.892
22.26
0.1039
-6.3975
0.10847
-29.312
-24.599
45.301
-27.256
-10.385
16.484
14.581
1.6264
-7.3196
-1.6757
29.189
-14.166
-21.305
-40.77
13.95
2.7472
-0.39635
61.205
-47.841
9.8948
10.433
3.861
4.568
-27.918
17.998
-25.426
1.8078
18.425
22.976
-5.6677
-19.135
38.7
-33.95
7.4058
27.187
-61.535
-46.825
42.146
31.419
14.597
31.619
7.4713
-91.694
23.171
22.064
-72.658
29.412
-18.722
92.761
35.249
-37.141
-9.8025
-81.649
-1.2428
-12.536
17.412
25.306
2.0531
18.894
10.043
-7.4265
9.0725
1.3703
-46.312
26.41
10.653
14.954
-4.4085
-0.94417
-25.476
-6.3604
46.068
61.146
-48.973
-32.862
8.7412
-16.182
-22.839
26.758
38.687
141.44
13.451
6.7404
-345.83
-209.39
249.89
54.606
71.164
16.391
-9.5716
-23.465
35.476
38.016
-42.695
-81.969
12.449
8.5213
5.1764
20.379
-12.688
-15.97
0.16733
13.311
-0.62735
-2.9331
-39.211
29.221
58.726
29.114
-12.392
-57.051
-30.279
12.956
41.853
21.494
46.174
-41.48
-29.259
-30.781
-21.988
30.565
37.856
-42.233
16.931
-25.752
-28.539
42.208
40.957
-17.49
-32.331
57.087
43.535
-12.713
-36.783
-93.711
-21.173
76.267
-39.43
40.402
5.6234
-9.3375
10.464
60.019
-29.775
14.438
5.3458
0.076188
-39.454
-46.37
-95.095
33.671
98.218
6.461
-12.157
2.6837
-6.0956
3.1208
44.942
-37.56
0.75365
18.889
-5.0957
-12.387
27.528
-26.634
-18.957
-52.284
11.201
93.863
10.867
-91.065
-19.93
53.239
22.799
4.8768
-70.809
29.252
46.032
-33.369
40.736
27.479
-83.977
-26.517
-23.416
39.264
32.878
17.296
12.206
7.1715
2.1461
-27.074
-6.8543
8.2549
7.8535
-10.421
-15.653
-3.2516
2.144
1.9906
-11.203
4.2447
37.549
7.5685
-31.554
-15.744
-9.5301
-29.833
-4.0921
29.375
17.044
13.837
-1.7073
2.2437
29.402
31.774
-66.156
-26.849
19.214
-7.8807
9.856
29.74
6.0306
5.9862
-19.962
-34.24
10.553
54.607
-0.5026
-70.144
4.1297
2.5257
-47.635
42.048
58.599
-23.894
-11.712
15.722
-3.4714
-27.975
-28.56
14.912
22.98
34.643
-4.8729
8.3526
-45.732
33.901
51.057
4.5185
-87.908
-21.51
12.256
-17.421
-24.593
72.776
62.37
-88.964
-20.818
45.347
9.6034
-25.661
-12.875
18.445
17.535
7.3107
-22.281
-2.2098
25.897
-4.0062
-10.58
12.26
11.204
-0.70571
-31.422
-33.115
-0.59817
26.449
-1.7437
-28.866
47.89
-0.94214
-25.982
3.2884
-18.982
27.075
23.809
-12.192
28.579
-27.417
14.379
-20.106
-6.9993
20.705
-5.7118
-46.044
29.783
-6.5047
23.313
-10.462
12.172
-6.0993
-4.591
-5.8008
-1.1925
6.1244
5.2318
4.6973
-16.557
14.657
29.042
-13.501
-30.315
29.071
10.926
-30.375
-27.543
16.942
-13.72
1.0947
39.884
-42.2
-0.87113
36.775
-27.897
15.705
13.33
-9.0941
0.4429
-1.1721
41.239
-4.0219
-46.52
1.0713
15.091
-26.466
-46.524
9.9257
57.387
-11.381
-21.471
32.919
35.36
-7.0491
-41.543
42.211
-26.005
-24.161
13.402
-20.431
-25.117
18.335
56.393
-2.1763
-11.552
-22.785
30.394
29.427
-38.584
-33.651
31.157
0.77073
8.9784
39.897
-37.897
-70.421
21.222
28.657
-23.646
0.78685
36.46
-7.3147
9.3588
21.333
-63.068
-6.6234
27.857
41.571
9.45
-49.32
-28.559
9.1905
22.639
-3.0268
-22.195
37.475
7.4944
-27.478
-2.0586
39.644
-1.3085
-44.242
-16.794
27.315
26.775
-19.251
-14.907
-33.919
48.848
16.566
-15.316
-27.027
-0.67074
22.885
-3.4783
1.0559
5.0941
17.772
36.216
-22.562
-35.125
10.803
14.429
-18.963
-15.947
7.6344
0.078134
-17.984
41.876
14.003
-9.7784
-10.592
21.762
-33.339
35.166
-42.876
-30.072
42.614
-32.899
-53.247
16.329
70.454
-12.356
-8.0107
11.923
23.596
11.869
18.04
-16.88
-2.4186
-29.055
-37.089
-61.147
37.678
57.779
2.3474
15.444
-27.132
-5.3981
28.087
20.841
-5.7071
-33.351
3.4454
18.668
-8.8019
-1.2662
-24.215
-22.737
-6.8986
34.35
3.4584
18.119
29.267
-33.463
-19.183
17.359
8.4877
-57.538
54.673
-2.7762
2.1963
7.9693
-29.137
-29.202
46.86
8.107
-9.9852
-5.7217
-20.181
-21.639
7.6258
24.514
28.217
24.317
-17.923
-39.344
17.445
-12.152
19.509
27.142
-22.817
-19.572
18.047
-11.21
-6.9715
12.298
16.638
24.951
-38.457
-40.649
-12.39
35.226
24.04
-25.697
34.077
-19.454
-0.16356
18.309
-24.885
53.338
-14.67
-76.188
19.501
-38.311
49.002
-1.7644
4.0012
26.6
4.1034
-7.6558
-14.145
-22.315
-14.147
7.7127
8.9757
9.5525
12.683
-10.777
18.493
81.411
-15.512
-64.048
-21.927
-18.606
3.5033
5.0248
5.494
20.327
7.3138
-36.988
-7.6552
12.74
14.855
31.221
-12.19
-26.77
17.615
-12.91
42.024
-16.13
1.9538
-17.799
-3.2551
-18.113
3.4173
-8.5924
-11.464
10.642
16.389
3.1255
-6.5613
1.8968
49.839
-15.065
13.558
9.5891
-14.765
-30.835
-85.591
68.674
38.913
1.608
-49.695
-5.2673
45.053
-29.046
-35.027
64.302
8.9451
-44.915
15.879
43.109
35.213
-31.789
-135.14
43.591
48.389
33.65
11.181
-49.383
25.912
-43.777
-25.834
59.874
1.0982
-3.1871
-41.632
3.732
8.6884
-14.688
31.011
55.529
-18.026
-15.208
-14.43
-33.746
34.181
-61.529
-2.6554
55.38
39.516
9.6934
-59.299
27.111
41.623
-56.806
-16.995
-21.508
21.914
33.068
2.8264
11.268
0.78317
-10.736
-4.5928
-27.392
5.9186
-14.416
6.2668
3.0769
-6.3974
-7.5819
14.7
56.569
5.7213
-57.488
-25.407
7.2748
6.9672
-8.7084
18.851
30.306
-15.05
-19.267
7.9299
1.0393
-39.571
50.533
5.082
-31.631
12.777
41.699
19.289
-24.476
-43.135
-48.505
56.688
15.738
4.5223
-5.8167
-11.533
24.406
-15.499
-26.445
2.3061
13.767
-11.652
10.455
45.207
8.855
-66.651
-60.114
39.291
44.316
-9.7756
-12.394
-6.1786
9.5558
2.7671
56.16
-8.379
-59.995
-4.9595
49.944
-6.4379
-33.046
11.867
-21.834
11.048
4.957
27.729
-26.868
49.661
-30.45
-24.075
15.829
19.968
-5.9937
9.4547
-33.927
35.406
40.862
-81.262
-23.643
2.6637
51.74
-18.618
16.528
15.383
-55.961
-5.1414
21.455
-14.252
-0.42825
14.285
36.628
-43
-29.356
30.376
-19.251
17.943
8.2554
-7.2334
-3.1185
-20.089
16.029
54.731
29.144
22.602
-36.57
-62.992
-1.8439
-6.4617
23.512
-11.82
-8.7478
22.969
0.53279
-2.9246
15.05
8.0898
-28.902
16.262
8.3991
-12.402
2.0358
4.4568
-15.278
-0.53381
-2.5094
15.499
14.961
1.6654
-50.285
-2.4065
10.209
-2.6207
30.319
-7.332
11.78
-18.539
-15.809
14.051
-5.6504
-10.184
-21.518
15.67
10.703
25.804
-12.766
40.453
4.7391
-10.223
3.1099
-41.319
-29.936
21.207
9.9137
-2.0538
-5.012
6.4244
4.3406
-1.0903
5.1103
41.619
12.44
-34.943
-53.386
20.2
15.616
-23.907
-18.671
30.583
14.749
-7.9818
39.155
3.1497
-86.058
-31.907
54.182
31.281
13.525
-17.043
0.70329
4.4754
20.196
-35.376
-30.869
72.986
33.198
-46.307
-82.812
-33.903
67.277
55.351
6.9721
-58.091
-6.1786
41.371
-24.8
9.4404
34.836
15.808
-138.77
35.864
72.859
7.516
-30.94
4.0746
34.791
46.952
-57.258
-76.149
20.454
-9.4879
4.4968
12.163
19.586
-16.991
-24.839
47.876
6.764
-7.747
26.948
-7.0378
-2.1352
-22.046
-5.2809
9.9884
11.103
-55.974
59.044
-29.871
19.767
29.433
-54.829
2.4209
39.799
-2.4942
11.808
-19.243
-29.798
-41.983
12.482
-7.719
40.604
52.76
4.015
-26.944
-21.175
16.164
4.8738
24.708
-27.084
-42.297
16.794
49.791
-12.494
-51.234
6.2797
6.0337
-11.501
-23.048
25.972
-17.073
9.0341
31.597
16.652
11.567
-2.727
-44.168
31.728
-28.831
6.8602
62.983
6.8244
10.099
-88.539
-36.07
40.666
-17.676
-40.331
71.093
-33.881
46.051
28.026
-7.9328
-71.715
41.473
12.096
-30.724
7.0551
12.923
-22.735
18.898
11.608
-6.2988
1.1138
-1.8233
-14.196
-0.32839
8.5761
5.0002
-4.5435
-9.5109
31.132
31.264
-56.591
-38.324
52.889
3.187
-16.046
-37.916
-5.5281
25.656
-0.40295
21.938
15.108
6.6536
-31.911
-14.63
1.9226
16.712
47.587
-28.444
-33.464
19.034
1.0524
28.618
-3.5108
-49.93
-5.3585
19.354
20.699
1.5055
20.01
-25.379
-31.838
30.51
-27.891
6.1339
43.752
5.112
-55.151
25.625
50.241
-33.267
-59.025
59.149
-43.87
-34.1
-22.725
49.243
42.859
-8.6434
18.657
-22.696
-8.0039
2.6485
-1.3395
-32.175
13.329
-21.124
-4.1882
73.59
78.001
-36.059
-52.982
-20.749
2.8392
33.796
-50.843
26.971
-15.823
-5.3447
12.885
7.4354
10.882
13.504
-24.006
-19.708
8.0947
-21.748
57.425
-15.529
-1.1397
-0.28315
7.1914
-19.683
-20.032
-22.452
-17.764
45.176
99.43
-66.482
-15.698
25.238
-37.3
-11.52
29.959
11.899
-17.412
-16.102
11.457
13.227
-49.28
9.2031
56.351
12.117
10.176
-51.029
2.6868
12.019
-18.352
-13.14
-9.3912
14.32
28.227
-39.924
-5.0939
-4.2405
8.5798
45.9
12.536
0.31946
-13.365
-36.003
38.356
6.3324
-26.878
25.473
-20.933
-31.407
-2.6279
17.049
13.682
-3.5299
6.8952
7.292
1.9018
0.40069
-25.479
10.606
0.21065
4.9409
-20.621
22.296
67.387
-31.841
-50.476
-16.933
2.0984
8.9613
6.9319
22.924
-55.592
21.189
28.209
-4.8201
-3.7625
-15.09
24.765
-17.764
-7.6414
-3.6664
7.1056
17.33
2.4307
-10.425
-4.6964
-7.0233
1.225
41.292
-10.075
-61.915
5.6006
22.165
47.93
-51.283
-2.2828
-7.7249
-31.429
153.4
44.06
-95.858
-27.661
-41.084
39.757
4.1356
-73.145
43.942
32.294
50.596
15.929
-76.421
-88.091
22.218
40.884
-6.6913
-18.543
42.731
45.447
-40.219
-9.6508
-20.721
10.857
25.292
11.616
145.28
146.14
-505.83
-66.95
169.43
59.621
31.751
38.844
-22.193
-25.963
-17.829
21.846
3.0037
-11.275
4.8565
5.9219
15.632
-6.5413
-16.175
-1.7138
5.5531
21.893
43.076
50.207
-70.274
-46.242
-45.041
-36.764
1.3206
52.18
8.9658
-1.5177
35.568
33.255
-13.714
-45.614
-3.9447
30.395
-0.37089
0.79764
-41.926
27.609
6.7913
22.996
-19.109
-39.121
6.6818
28.146
24.906
-13.245
-47.25
18.262
1.412
23.247
9.5933
-38.783
0.81498
3.1388
10.405
10.757
-16.479
-0.29126
27.508
41.428
-21.902
-56.634
27.422
16.737
-97.652
4.4069
84.99
21.382
13.834
-61.031
-21.535
11.139
22.255
79.63
-23.872
-54.957
-72.282
17.405
-14.785
17.357
56.012
12.214
12.852
45.516
-71.117
-18.026
23.17
-1.9568
12.027
-65.445
-8.0337
23.859
-31.402
38.423
6.3908
13.195
2.5615
8.2828
28.604
55.421
-4.8743
-110
0.87294
43.261
0.70868
-14.219
3.7347
2.9679
-30.756
-4.261
-9.3698
-12.997
29.575
39.141
38.614
-24.273
-49.991
9.143
32.501
84.561
-98.088
-126.65
85.686
-66.79
7.2219
102.86
-20.793
-13.496
-42.219
8.1688
55.702
34.652
21.943
-101.73
-11.676
54.519
30.768
-0.67608
-29.017
-19.02
13.849
-18.809
10.64
3.4725
-92.809
99.249
-0.26354
-7.5781
-5.426
34.416
31.078
-69.62
-2.5884
0.19576
-12.132
9.3503
6.9728
22.468
-11.554
-4.6771
1.4959
-0.50508
14.806
-2.2944
-1.6255
1.5051
-6.2094
-6.313
2.1568
3.6397
0.59837
-5.5479
-4.1071
38.101
31.972
-77.723
-11.472
-8.3177
60.534
64.225
-86.818
-15.259
49.415
5.8826
-34.829
5.2245
-83.265
10.634
50.028
27.541
5.2106
-54.681
19.135
-30.563
0.38875
11.91
29.706
16.908
11.804
-35.677
-15.124
25.869
50.293
20.329
-75.754
9.5824
4.0633
-22.311
10.847
15.881
-18.848
-6.3546
16.296
-28.818
-0.39261
34.079
5.4219
-41.434
3.9082
17.568
-5.5605
4.5671
24.856
5.485
4.26
4.0538
-80.529
0.82201
33.215
10.172
8.447
-13.893
-11.499
24.945
15.617
-23.957
-24.33
24.953
42.518
-9.4159
-22.594
33.963
-8.3808
-96.744
16.997
2.1533
7.449
34.141
2.5108
1.1272
-24.024
-14.61
11.279
-7.4903
18.452
15.444
-14.557
33.306
13.551
-23.607
-1.6226
-16.919
2.3209
10.313
27.265
34.763
-60.293
13.157
-15.245
-26.252
14.631
-12.709
27.035
35.795
-26.261
-29.353
-7.61
32.974
-18.053
14.288
-43.187
14.538
50.798
3.4881
-8.1762
-39.017
-37.455
14.583
43.393
3.0511
-30.728
29.844
-5.522
-35.285
23.471
38.856
2.4629
-16.681
-66.027
20.195
56.436
-20.096
-25.807
-5.4639
11.023
-4.9033
6.6505
40.201
-1.2122
-57.872
33.478
47.356
-64.96
-25.297
35.777
39.125
-17.859
-17.599
62.748
-82.015
-43.425
36.25
-1.5317
31.862
11.225
-29.645
-0.60636
26.401
-27.826
5.7535
42.563
-12.481
-10.357
-9.099
-7.2009
-20.548
58.767
44.384
-112.52
-41.315
39.153
9.8964
21.611
26.092
-3.7432
24.303
-35.794
-10.191
23.767
-13.866
-26.914
12.438
6.1808
-11.327
17.968
-21.727
-9.9807
-2.7863
62.306
91.888
-146.4
46.506
34.549
-81.806
32.913
35.153
-58.273
1.5065
-17.686
-14.049
-34.2
7.7951
34.851
7.8251
18.338
16.951
27.758
-21.967
67.549
22.789
-95.732
-11.908
10.585
13.522
26.513
-4.6033
-73.322
-4.3398
31.521
0.84031
-5.9664
-1.36
9.1639
18.618
-26.911
-5.3743
35.53
-13.331
-27.921
-21.517
43.943
38.115
-10.042
44.305
-29.705
-127.52
38.982
70.736
-7.8313
-27.622
-13.219
18.036
-3.12
43.195
-6.6673
-92.262
54.513
41.234
56.606
-87.964
-86.15
61.756
16.203
9.0841
17.326
-37.179
-32.494
10.77
37.34
50.645
-11.003
-45.317
28.999
-7.8366
-12.17
21.311
4.023
-9.1351
3.9075
-53.076
-31.123
43.406
22.904
1.0093
1.8777
5.0525
-21.718
1.0017
34.43
-20.437
-15.091
-7.2764
40.642
48.729
-48.079
-46.338
-19.619
9.4518
123.5
-148.74
28.104
8.8369
5.1775
61.934
-21.357
20.702
7.6221
-47.074
60.392
16.482
-68.32
-106.17
-80.113
146.89
-35.233
83.333
-64.331
85.849
34.409
-50.499
-156.31
66.829
143.34
10.582
-69.776
-66.937
-82.979
71.545
115.01
31.95
-56.66
82.909
-117.39
-37.922
-13.608
-0.57249
62.686
-36.761
20.548
18.262
-34.633
-18.253
33.005
-0.06962
2.1301
-1.8739
43.096
-33.553
19.723
63.906
-96.107
-9.4239
20.029
11.481
-31.468
-47.553
53.283
-32.343
36.598
5.7801
0.79667
70.364
-0.73815
-42.076
-80.426
27.038
52.735
-49.728
45.376
-8.0297
9.254
-24.821
-54.809
2.2332
51.33
1.5651
-39.076
75.773
35.453
-41.323
-53.471
0.36138
8.3605
4.0986
124.8
-55.415
-57.137
-28.796
-8.5693
-41.386
72.867
46.238
-13.304
-37.41
50.59
-33.933
-12.166
28.62
-34.961
6.67
6.6475
55.4
-48.019
-36.188
13.148
-6.8262
1.5567
51.739
10.534
-34.449
-21.001
-11.958
59.902
33.673
-146.59
50.293
12.221
-42.019
4.9131
35.652
61.98
-12.595
10.895
-9.3626
-9.0221
35.047
-44.272
-33.682
-0.21638
53.384
-86.074
-11.933
43.008
32.057
23.563
-36.083
-31.138
67.037
63.162
-91.406
-76.426
67.718
47.278
30.089
-45.893
-54.95
4.2817
9.3831
1.8504
-0.20116
-11.802
-26.741
28.551
15.565
-27.806
45.291
22.41
5.4739
-74.423
12.136
119
-51.346
-78.455
-24.718
24.532
66.602
-16.921
-14.374
4.4228
-14.866
-10.352
31.672
0.70825
-8.6173
21.15
-27.731
-101.46
144.33
33.65
-0.13627
-36.259
-148.34
-16.921
129.67
-47.12
13.534
102.51
-34.46
15.771
-41.75
-63.161
74.18
-36.723
42.927
10.931
-37.067
-34.074
59.595
9.9585
-26.521
-4.7327
-19.446
-8.468
39.932
-52.846
-24.981
60.196
0.76559
43.295
7.5624
-23.497
-38.009
-33.74
29.459
-2.2521
-12.719
20.778
6.4653
44.213
14.435
-82.156
51.925
-20.178
-69.852
20.094
45.217
-6.0452
-6.8088
7.2485
16.131
2.109
-50.402
-186.79
125.15
93.471
121.04
-75.795
-46.334
84.766
-119.65
-23.709
39.731
26.527
16.702
-21.04
46.58
2.4472
-76.316
-55.648
8.6576
60.945
86.713
-63.356
30.809
23.057
-43.328
-3.2088
-32.944
12.583
-39.884
113.66
31.069
-82.237
-7.5054
-32.928
-12.961
-29.866
20.645
13.307
-27.333
25.174
38.283
-28.809
-17.104
42.006
61.778
-13.866
-41.916
-37.966
50.982
21.126
-14.131
29.674
-108.64
52.849
34.993
-34.782
-21.781
22.64
22.519
-23.101
-21.141
-1.1288
53.54
-38.286
-16.269
14.171
18.425
35.378
21.833
-19.228
-48.971
-37.121
-44.917
29.502
35.692
112.52
-31.324
-109.61
-1.5961
-8.9172
38.201
99.684
-41.82
-61.668
-0.27555
-3.1983
-15.21
7.9211
54.234
-61.98
37.436
10.612
-8.582
-9.7045
-14.222
45.651
-5.3996
-19.27
-1.2301
8.1518
14.765
-24.896
-12.483
-36.707
-32.387
76.037
113.79
3.0608
-68.596
25.059
-58.911
-70.191
-119.5
129.93
113.45
10.959
-10.554
-13.726
-56.888
21.667
10.519
-49.479
-4.4428
39.442
12.499
-19.596
-100.73
109.8
-3.2058
93.505
38.167
-100.89
-152.08
49.692
46.736
48.092
-64.393
21
-11.69
39.286
75.908
-49.183
-26.882
-18.918
-26.492
66.833
-37.957
-9.3015
-36.912
38.941
20.705
1.0054
25.382
-9.5792
-69.686
-12.371
124.23
40.4
-99.591
-50.871
-3.9417
55.104
112.81
-49.527
-162.58
-41.828
156.54
-80.329
6.8577
121.43
-32.186
-17.315
-19.975
-2.1047
47.848
-74.183
-9.0951
79.674
-15.002
-49.91
11.941
-18.215
26.162
32.419
-35.537
-27.525
5.5359
-16.054
25.258
93.196
-31.002
-117.71
-49.549
105.85
63.845
75.28
-2.2931
-116.43
-45.702
-41.572
79.31
22.012
-47.985
8.0964
51.976
71.384
-34.452
-115.47
15.115
-29.255
44.916
8.6706
-7.038
-0.30531
76.993
-15.939
-61.02
3.1595
-0.72512
-9.4154
-23.813
77.895
-21.244
31.619
-20.512
-18.659
15.603
-21.765
31.116
-25.638
15.462
-27.417
-39.549
-76.849
94.857
79.744
-18.505
-12.114
55.373
-39.905
-58.004
61.894
60.622
-40.549
-102.9
35.338
12.815
-0.90225
-11.1
-1.7295
2.5089
0.5031
-0.36407
9.4445
-3.4629
-5.1582
-1.0158
6.3037
23.99
-22.796
-30.85
17.029
5.0442
17.726
23.707
-2.9944
-32.216
9.2566
12.055
-51.421
-24.312
74.005
-6.7124
-36.595
43.046
19.474
-15.728
5.7719
-28.453
-17.998
-8.2694
28.203
-10.226
11.287
39.266
-51.782
-15.62
22.999
8.065
13.581
11.344
-7.7029
-7.8751
-80.635
0.75706
63.803
-10.626
-40.884
-2.7421
51.806
41.362
69.422
-5.9209
-102.53
15.209
-2.9931
-37.645
26.223
64.036
-35.602
-55.367
41.449
18.694
-8.8108
-10.494
5.8241
-8.4659
-1.3805
-12.648
5.6441
11.919
-9.3508
8.1442
17.439
26.857
-47.423
-55.331
-24.725
32.359
36.097
-14.659
-1.2296
6.7381
4.6917
6.9548
25.034
-14.993
12.419
20.298
-50.567
-1.5219
4.2804
3.3421
-9.6905
2.2764
30.412
-8.2103
9.018
-11.012
13.638
8.281
-34.648
-7.8549
38.766
-62.213
-9.6755
33.321
43.384
-11.03
-32.034
-14.468
0.19281
38.403
-4.201
9.4016
-33.372
16.476
33.707
31.298
-69.219
-46.711
46.606
-1.2117
17.331
0.086421
-40.788
-4.2142
52.294
55.247
-46.844
-35.344
15.545
-14.578
3.1712
-29.493
-24.969
1.349
36.488
25.85
-13.589
-55.417
10.42
92.112
4.6676
15.542
27.338
-79.558
-2.6874
11.975
21.566
-39.902
-22.695
11.377
-2.1729
7.1435
-2.562
4.9053
46.347
-19.744
-20.122
-19.708
8.0714
9.2101
43.202
-18.517
-28.567
18.692
7.1462
-15.771
-66.378
-4.0665
83.703
17.604
-8.6541
-21.083
-55.134
34.112
50.394
-26.532
-22.695
18.424
-31.072
10.491
63.409
-60.017
-16.892
-4.792
31.719
15.976
-7.3521
-29.978
-21.787
73.466
10.906
3.2631
51.698
-18.857
-76.377
-26.957
2.8105
-36.078
39.299
49.204
35.313
8.0325
-38.679
-15.523
-57.275
-8.565
8.5317
-19.325
23.861
27.406
8.8969
8.1566
6.2356
2.8167
2.5391
12.77
5.2176
-23.566
-23.46
-19.288
-45.908
-23.288
77.021
42.26
-15.149
-18.017
-3.1434
65.387
-2.1854
-40.064
-30.301
63.035
81.065
-152.03
33.042
28.427
-36.693
-78.092
5.8352
71.737
106.77
-3.8657
-46.66
-74.917
-43.112
68.361
-34.971
2.1642
13.843
22.631
1.7687
-8.2276
42.731
-74.482
-29.466
55.597
17.119
-22.175
28.466
2.789
-48.143
15.537
6.3447
51.248
65.254
-26.269
-30.925
-24.292
-10.089
-3.1082
-13.465
-19.44
-20.403
-3.1667
26.237
-137.48
100.94
101.03
-51.269
-21.22
32.258
11.56
-11.388
31.852
-30.905
-0.85472
-86.834
81.347
23.233
-41.663
-19.601
-53.006
84.764
52.461
3.2953
-36.715
-16.099
-39.296
31.441
62.608
-21.099
-95.773
126.6
-24.905
-54.806
-14.045
-37.002
9.5141
86.185
5.5381
-50.441
56.233
-2.8845
-13.488
-12.087
-6.4377
3.949
-29.973
-25.627
11.905
23.309
77.997
-9.3849
-35.331
-24.104
-2.8031
-15.985
36.992
14.093
-45.761
25.496
-10.879
8.9556
4.5844
-10.457
28.858
-23.741
-59.667
68.712
-9.9745
-6.5312
1.5699
-4.9749
-9.9815
48.607
-33.216
-12.573
11.163
-5.4519
4.6841
-1.1995
-12.946
-6.8725
11.08
47.582
17.356
-9.3836
-69.729
-56.237
82.761
-6.1664
-20.387
19.889
6.0274
-14.116
12.076
33.525
65.898
-65.107
-75.327
10.181
19.06
31.408
-43.225
22.246
5.1472
43.86
-76.448
1.0475
32.254
-16.177
11.455
-10.365
48.991
15.985
41.54
17.341
-70.617
-7.4704
-72.805
-81.793
-69.57
89.769
74.624
-1.1573
36.714
65.117
-10.233
-108.33
0.92487
46.553
-36.072
67.37
38.314
-13.418
-46.629
-35.856
-17.329
22.301
31.292
-13.367
-16.814
8.9463
2.2761
-13.062
-2.4613
19.774
22.658
-8.8952
4.7625
28.389
24.607
-117.17
4.5631
56.676
-7.5654
14.863
-18.146
3.4058
10.848
-70.608
34.756
28.233
-72.116
27.87
45.149
28.317
-4.531
-29.208
-51.937
16.583
34.678
24.543
-41.894
-48.87
60.45
3.1231
-43.791
28.583
28.502
20.149
-0.79968
-25.661
-29.885
37.808
-33.685
-10.506
21.785
28.746
-27.203
-18.907
-3.0409
6.5962
37.119
56.785
-37.256
-18.287
-42.139
21.135
16.009
18.966
-27.363
-26.314
9.502
-18.127
24.997
37.552
-44.459
-32.426
23.186
-26.124
-47.078
22.541
65.672
21.766
13.679
14.91
21.568
-8.4336
59.115
20.829
-45.291
24.864
-68.402
-110.22
-29.526
83.893
-27.384
-54.199
-13.846
-20.229
42.248
61.651
124.52
-58.068
-39.46
-5.3663
-17.814
15.005
24.433
3.8288
-25.183
-10.21
-1.5025
0.36998
-0.28104
0.49876
-2.0284
3.3516
-4.0819
-9.5749
-4.2057
-11.192
25.809
16.861
2.0879
1.0117
-1.3779
-2.1879
-7.0067
-16.942
25.245
2.4305
-29.547
45.132
-18.078
63.247
28.27
-104.49
-32.003
76.98
-96.098
4.5559
71.845
58.459
-59.464
-52.878
3.0814
-6.9833
-1.5777
-0.20995
0.60102
-2.4753
-35.401
6.1902
29.77
27.383
47.388
-15.967
40.469
117.49
-94.086
-98.397
46.229
-9.4593
24.89
-46.981
-10.456
45.404
-43.126
-42.636
12.07
31.467
-10.026
8.2329
14.086
-17.294
14.305
7.0588
25.746
-25.468
-27.151
9.2387
31.066
-66.74
-35.324
96.813
0.29762
-11.635
-11.79
64.439
-26.165
-48.975
18.392
-3.2778
-10.983
3.8037
-3.0182
-0.72745
9.0294
13.879
-10.732
13.096
-49.353
22.244
177.86
-101.55
-27.246
-18.071
12.309
9.7885
-33.895
-81.188
-36.176
94.209
21.485
17.888
-16.608
8.862
14.812
6.0925
-69.557
31.011
8.5653
2.1532
16.829
0.70892
-93.803
-39.565
106.83
-38.886
-107.21
-92.284
290.44
65.419
-94.803
-0.022957
35.162
21.031
-24.604
-29.591
-9.3845
41.4
46.053
-27.727
-120.11
21.57
0.70493
17.679
20.193
8.0783
-10.37
19.974
28.038
-40.065
-18.427
0.76862
17.488
-28.196
-31.263
79.617
34.467
-6.4405
23.088
-19.06
-5.1019
-32.919
-87.432
-107.17
76.105
79.171
-69.632
37.209
67.494
9.2013
-11.567
-34.011
-16.572
64.032
19.9
-104.52
52.901
-128.44
-73.623
-23.763
-67.094
274.2
203.94
-42.28
-106.22
80.082
83.405
-59.656
-112.16
-100.76
83.366
-65.214
78.375
11.152
-97.402
90.804
-2.4033
-29.443
-67.338
64.287
50.411
-101.57
56.51
-23.244
-5.7501
14.496
-30.56
-0.74039
-13.193
52.81
76.958
0.51369
-9.7851
-40.747
-41.654
2.2573
4.7299
17.631
1.4921
-21.196
22.358
34.845
-51.01
-46.99
-5.0349
70.049
11.012
-21.982
39.428
-94.533
103.16
11.128
-79.853
-40.524
48.023
10.866
9.0536
20.44
3.6178
-33.439
-46.018
25.111
56.092
7.7047
-4.7101
-6.5517
-30.868
-8.722
-14.122
-17.761
58.741
-34.501
-22.537
70.585
-62.063
-26.745
66.847
-15.029
27.652
-19.066
3.4054
14.305
-30.831
-7.4115
-37.726
-22.847
71.895
7.7455
-45.296
50.302
69.987
47.781
-183.31
45.237
39.463
-40.476
50.89
-89.574
26.671
34.2
13.42
-4.7185
-16.551
-7.6017
-1.0248
0.20491
6.7511
20.207
-12.89
-11.679
28.426
-18.292
-6.6911
2.4469
-12.548
-4.8907
-3.1824
13.103
41.649
-16.501
-61.653
74.101
0.79752
-55.349
49.738
-14.575
-7.6679
-2.274
-36.09
8.3561
22.212
16.695
18.171
-44.557
-13.296
16.779
16.617
8.1232
-34.02
-10.021
39.42
-9.1716
-12.048
10.646
55.242
-20.285
-39.202
11.737
2.652
-21.413
31.491
-24.232
18.937
7.5573
-34.909
-28.985
34.798
-23.49
-23.897
41.977
23.916
34.402
2.1347
-35.29
31.191
-48.69
-26.738
66.32
-39.366
8.0274
-14.845
-3.9779
62.817
-22.491
5.1307
-23.079
-0.71193
1.6764
15.182
-42.939
-3.4139
14.49
-22.173
-2.2993
9.2026
12.685
-57.024
27.882
33.898
18.451
23.494
-13.876
3.5949
9.7919
-25.217
-10.63
8.5969
-4.0234
-2.2137
-29.078
9.5472
61.249
-61.557
19.579
43.643
-23.611
-12.662
-23.666
21.586
-4.5308
-47.758
27.682
15.53
23.516
-10.544
-28.616
-1.4785
22.88
-1.1302
21.993
-4.6801
-46.832
27.304
20.59
-19.745
1.9284
-6.0768
-4.2913
-4.1921
47.807
-12.029
39.764
-82.063
-85.367
90.854
41.793
-17.015
-33.143
61.916
-20.894
-34.746
-33.471
31.889
25.271
8.5195
12.246
4.5468
51.213
-44.828
-68.786
-2.8184
6.3128
-12.743
16.288
-12.267
4.5936
-16.817
57.186
-0.90976
-24.771
-13.651
79.728
-2.5436
16.128
-54.593
-50.707
4.2453
26.219
37.388
-1.0353
-73.947
10.446
60.171
-36.312
29.378
-7.9376
24.413
-5.0427
-38.786
-30.282
0.1708
64.319
-18.052
-5.7753
-41.639
66.664
8.77
-18.196
8.995
7.7556
-2.7055
-13.717
-15.921
-73.584
22.104
64.699
-67.298
46.148
26.188
7.8393
12.961
-63.407
3.1385
9.5845
73.847
-28.486
-82.596
12.488
10.48
23.979
10.513
-1.7232
1.7096
-28.866
70.291
-42.233
-27.93
15.437
-10.288
0.28479
14.584
31.326
-26.953
-29.093
55.667
-25.232
19.06
-31.872
-25.698
0.72139
46.7
-19.615
48.872
-38.996
-27.519
11.809
13.352
2.046
-16.345
9.4802
55.468
-47.392
-44.532
31.494
-3.9959
39.713
-25.639
-10.198
8.3543
-1.0939
1.0272
-17.988
60.8
14.721
8.5204
9.8913
-224.57
78.829
30.748
78.149
-29.368
-22.064
5.6573
18.168
40.18
-50.601
10.072
-7.7672
17.065
-50.062
-13.611
17.98
32.029
-2.1054
8.8108
26.222
-66.022
-19.415
38.003
3.4917
-5.276
3.2186
14.343
8.8796
-0.072751
22.138
-15.076
-38.948
10.218
-11.659
-14.436
16.455
-7.9342
-49.969
-13.866
203.95
-18.046
-108.19
20.55
-22.623
39.419
-10.811
-51.371
35.346
30.38
-11.656
-7.2468
-20.905
-3.6857
-11.237
7.1676
20.333
-5.7606
24.187
-17.711
-30.403
-0.010141
20.837
13.571
-3.2028
-22.195
25.727
16.266
33.727
52.33
-85.47
-137.09
-19.461
106.32
54.922
-14.257
-20.796
-12.695
24.93
3.7778
20.76
-43.023
-26.337
43.318
-29.475
-14.164
44.795
1.1504
-6.4243
-4.4525
-1.1496
-2.5649
5.7336
-11.268
-0.75849
11.34
28.175
-24.376
26.478
10.669
-53.05
5.6826
24.198
-6.7582
-25.302
14.571
-1.4213
-6.0897
16.316
-7.9022
-22.946
34.026
12.059
-26.671
-0.57921
2.9552
-26.9
28.307
40.073
-44.827
-22.191
42.058
-14.152
-11.803
1.8409
-8.4653
20.295
-1.3685
22.794
-38.744
-2.5994
31.035
-7.7971
-10.134
-0.91903
-9.3651
-4.7924
33.026
49.363
-36.081
-64.99
-17.579
29.516
52.158
0.76816
-22.372
-58.807
7.6823
78.441
23.79
43.121
-65.612
-76.072
1.7453
-4.1947
-24.813
61.713
61.801
-17.374
-56.529
-15.513
42.336
4.2786
-7.6577
-1.2
-7.3302
12.593
-2.992
-14.635
-4.4814
19.506
-1.2275
4.1015
-36.104
49.991
-16.239
-25.275
24.844
22.051
16.802
7.1388
-89.797
-24.728
57.888
-15.522
26.226
-11.751
36.206
8.0966
-55.533
2.8674
-6.9113
-3.4125
7.8146
35.048
21.414
2.5784
-80.972
-14.361
35.756
30.027
-10.423
-14.253
29.599
-16.149
8.6855
-15.155
-31.874
55.959
30.708
-55.823
0.39039
19.161
-0.56109
16.718
-23.575
-31.508
16.361
-40.407
5.3908
62.13
-3.1745
-1.0796
-7.3878
29.166
-73.241
8.5709
19.673
-14.992
17.341
16.741
4.4497
5.8747
5.8417
6.2796
-27.274
-22.672
2.5058
0.27925
6.9361
-3.3808
10.484
-6.3316
1.2378
1.8638
2.117
21.221
8.1832
-38.806
-5.17
5.1376
13.306
2.8149
51.858
-13.478
-97.762
-32.578
60.32
77.778
-20.676
-13.191
-1.0099
-27.628
-5.4977
12.948
3.4548
22.567
28
-0.13321
-110.04
13.167
49.811
-8.9618
-3.6026
-1.5028
24.8
5.3927
-14.945
14.217
-8.102
-53.145
62.61
64.515
127.04
145.09
-156.64
-261.05
-100.61
-195.25
-37.594
296.07
232.06
-148.4
-52.829
115.77
-43.887
-88.201
-3.7125
165.51
-17.089
-28.721
-51.888
57.146
-10.849
-17.565
-20.972
34.093
-14.89
-110.4
118.24
15.611
-2.4776
-38.706
-1.27
24.873
14.907
-41.383
47.174
-17.216
-41.591
9.8145
21.388
-8.1118
6.2253
4.3497
8.3813
-34.648
35.715
-57.53
51.087
-49.446
50.068
-19.055
14.654
-17.382
-7.105
24.333
9.3131
-28.072
16.107
0.12964
10.876
-36.724
-27.206
51.257
36.801
-52.754
-4.8743
46.696
21.143
-88.676
-12.684
64.665
4.9597
-7.6827
28.36
-18.784
-170.81
132.06
57.744
-23.218
-10.925
-39.459
60.982
54.301
-5.7574
-98.68
42.788
16.337
-103.69
58.616
-8.9582
35.134
-3.5099
11.709
-14.15
-35.033
8.1525
14.49
9.2983
-28.953
29.515
-33.365
36.808
-13.794
-25.717
8.5458
51.843
-3.1316
-52.107
28.017
9.3562
3.8836
-57.376
-11.262
42.826
13.175
40.316
-11.721
-16.657
-5.5436
-16.677
20.689
-25.588
-14.789
28.904
-1.6493
-21.431
48.356
-22.331
-12.107
2.8301
-11.681
26.126
17.417
-19.095
-42.993
7
12.235
0.47448
14.881
-2.1414
-40.95
2.6092
46.565
15.957
-1.4724
17.097
-69.197
38.048
16.181
-2.4976
-7.8966
-6.8984
-31.32
3.1873
53.907
-32.319
31.294
-89.233
32.523
59.795
-45.949
24.594
-14.096
11.872
-38.613
-2.652
8.1499
-16.734
24.808
39.334
0.23703
-3.8955
-49.742
15.645
76.622
-47.901
-26.892
-11.799
33.469
-42.34
-38.444
126.08
-10.597
-51.202
11.39
2.6954
-10.024
-4.9431
-9.3974
41.795
-45.573
19.048
27.062
9.4175
-14.505
-40.61
-35.927
54.18
-18.934
3.4253
22.558
-19.334
-0.23911
22.931
12.753
-54.793
38.151
4.378
11.997
-30.066
2.7529
4.4428
-18.421
-34.278
65.995
43.857
-45.942
-30.15
25.432
-21.24
5.4691
21.342
-22.554
-2.0831
34.524
-0.50608
-10.797
-17.327
10.48
20.312
46.759
-59.355
-62.685
20.158
10.619
-8.0513
23.207
9.8122
-4.6579
3.8427
-8.1572
31.004
10.844
-54.202
-17.43
20.682
-0.65539
22.22
-18.347
-8.3069
23.889
40.233
-0.78537
-65.079
-1.8009
-1.5043
-10.751
18.163
9.4573
2.7997
-2.5583
0.62489
5.7271
10.576
30.365
-48.874
-49.607
47.198
42.193
8.8325
11.019
-47.69
-17.432
-3.5482
28.814
-21.877
0.96028
3.3002
22.309
-18.603
-15.865
10.884
17.606
9.3309
-22.015
-16.342
20.508
12.77
-25.198
-12.249
19.469
64.672
-101.82
-11.088
83.636
-26.277
-7.0858
37.758
-49.81
-25.717
62.864
44.975
-60.643
-18.829
5.3682
-2.7423
-16.555
13.346
35.169
4.1084
-72.257
3.7296
43.649
-40.282
11.883
26.624
-11.938
9.0629
46.985
31.555
-69.233
-3.8992
-0.67111
2.5682
-2.5994
-10.721
-13.423
23.666
13.773
-30.871
53.626
14.53
-85.515
15.21
43.053
-56.37
-10.519
102.63
-35.814
-84.52
3.1669
26.358
16.014
42.782
23.845
-64.543
-25.842
0.342
47.358
46.043
-13.596
-50.322
-10.842
27.514
18.209
-67.996
11.242
53.017
-41.98
14.671
11.606
34.1
-35.033
-30.366
-18.735
20.229
49.793
-26.581
-10.141
23.557
-5.61
-35.666
-13.586
25.425
31.571
-52.995
33.257
6.0413
60.276
-34.28
-15.046
-9.2591
-12.837
0.32261
-25.387
1.7145
38.72
5.8981
9.8195
-41.041
-7.9468
40.804
-24.624
29.921
2.4353
-63.243
34.693
11.378
6.734
-12.287
-22.535
23.277
-19.76
28.383
23.503
-44.74
-7.7678
-13.425
4.2689
11.533
31.581
3.1852
-20.237
14.394
29.872
-43.846
4.0832
4.113
-22.068
-13.768
13.013
3.3624
10.571
65.611
-57.869
-23.38
-9.607
15.617
11.345
13.19
45.333
-4.0047
-75.504
25.966
-19.108
-20.51
32.273
-5.2031
-16.42
-23.331
28.741
33.1
49.612
-9.5218
-28.291
-51.566
-25.745
80.176
-65.896
6.3905
55.465
3.2216
25.881
17.117
-21.234
-110.87
25.617
16.778
-23.425
26.264
-8.1215
19.615
35.837
-42.931
12.898
10.071
-11.377
15.631
-30.692
35.254
-19.063
3.6465
-23.542
23.316
-5.5548
-10.801
28.55
5.6012
-57.758
31.26
-43.362
43.547
27.583
-33.475
35.991
-33.795
16.84
10.97
-54.999
36.796
11.398
-51.408
27.718
111.5
-62.54
-106.18
53.261
34.451
3.3757
-26.953
-2.9999
0.30425
12.97
-11.255
-14.683
-61.295
102.95
-16.999
-11.684
2.53
11.074
17.619
7.5693
27.491
-33.032
-83.999
1.118
22.86
5.4128
15.418
17.891
40.735
-10.466
-49.241
12.953
-37.154
13.587
-31.064
16.421
23.227
4.3067
42.847
12.863
-21.394
-5.5082
10.543
-36.455
-25.277
27.926
16.127
-13.587
21.349
-29.005
-3.6269
32.16
0.15048
-9.4556
-12.628
-4.3022
-3.9558
-7.3577
-2.5788
49.746
-31.119
-12.083
43.407
-34.287
-10.157
3.7564
30.881
10.833
-16.368
-4.9164
-29.838
-18.974
16.203
68.259
-45.749
-1.8039
-1.0401
-0.52284
4.0334
-4.6711
27.979
-1.291
-36.99
8.0386
-10.187
33.1
11.039
-3.5852
-43.79
21.161
-7.9087
3.9691
0.9855
8.0362
0.57598
5.0529
-21.283
-21.086
51.824
-2.6178
-4.955
-9.4905
15.048
-28.574
-5.3222
0.92219
-5.4984
20.387
25.978
4.8849
-58.56
19.791
20.686
-48.223
22.075
-4.1898
35.646
20.136
-69.502
6.5926
6.6036
14.283
10.528
0.93402
-13.609
-6.7402
32.276
11.232
5.2499
-19.932
4.281
9.6703
-33.436
9.5193
-7.39
-11.773
-26.289
10.466
53.379
-7.8304
-18.858
15.393
-0.36238
-27.064
1.8641
11.328
19.065
-20.478
1.5677
2.6785
33.345
-44.202
-30.878
47.371
-21.607
12.394
19.108
-48.425
10.421
43.662
5.2728
-12.745
-38.378
22.606
-6.2092
-16.911
4.0796
0.45272
16.441
4.3373
4.6735
1.7963
14.056
12.112
7.5773
-33.49
-59.344
53.992
14.708
15.637
-25.012
-8.3034
-10.885
16.214
-11.815
2.7231
16.66
-4.9401
-26.132
5.7539
-76.809
-66.531
262.56
4.5598
-93.037
-59.141
101.75
-37.611
-87.628
94.022
-8.5195
-38.227
20.107
28.814
-9.6177
-48.144
4.5483
18.36
-41.927
24.959
22.783
41.974
-23.634
-37.031
-7.8883
2.2513
22.849
32.081
-37.531
-26.346
-29.274
-5.6203
-13.205
195.29
18.42
-192.53
68.471
18.09
-8.9803
-17.989
-2.8227
22.993
12.899
-0.98025
30.907
-31.542
-130.68
-36.151
81.23
-7.9583
-36.573
39.053
-36.019
53.524
57.55
6.7202
28.673
6.1362
10.426
48.45
-41.015
-91.594
7.2134
43.457
186.11
-23.645
-212.23
-36.755
58.618
44.546
-108.85
-44.86
82.833
-146.4
64.7
78.877
45.927
0.070122
-64.572
15.09
48.369
-35.269
-18.203
15.525
69.345
-44.843
-121.69
214.65
-19.427
-29.325
-82.878
-82.973
106.5
84.174
-40.957
-24.513
-0.53116
-2.1867
-15.976
41.754
36.361
-13.747
-55.616
-19.544
-12.783
-42.271
-4.4086
6.7939
59.495
26.68
-11.378
-101.67
47.771
72.152
-29.881
24.752
-13.142
-57.932
31.071
-4.4733
38.049
-11.454
71.727
-104.28
3.2476
-21.599
296.75
51.625
2.8928
-10.166
31.668
-494.22
-504.28
55.101
162.16
70.777
192.37
381.39
59.714
-115.99
-23.876
24.914
180.05
-117.97
-81.493
222.87
-113.16
-704.96
-50.423
338.9
13.951
8.9635
73.715
284.3
59.057
-123.47
-99.665
247.21
-13.584
159.47
-93.478
-303.82
-281.51
-329.49
-29.711
436.64
28.346
-325.12
-64.837
52.292
257.19
376.07
76.179
-6.0868
14.469
-15.699
6.7182
-0.25899
-56.511
-50.375
-21.532
-150.82
-57.276
154.5
213.83
567.94
-175.9
-578.38
2.9442
-23.119
-116.23
-40.321
14.441
115.87
201.53
53.542
-239.97
-279.45
206.86
202.74
35.567
-274.72
-11.345
201.03
128.94
171.76
-86.309
-75.76
-305.25
-289.44
-17.609
-13.075
-2.9856
137.72
370.22
6.1372
-279.56
-165.28
-161.43
-7.8727
496.29
524.92
-306.61
-97.403
189.48
-520.35
-82.291
312.69
-18.786
1.3916
-77.356
-98.215
140.74
111.43
-42.365
-16.793
-26.898
4.4123
-16.515
-8.7184
34.774
5.2114
7.191
-16.061
-21.656
19.276
-0.48181
-9.5098
4.7041
2.5478
-14.434
-0.76799
21.649
-5.4225
-1.5629
-10.327
-8.4705
-16.363
34.387
-9.2473
-7.3437
2.3214
2.4489
11.729
-23.779
1.733
1.0604
27.984
-7.5245
-1.2028
-5.2946
5.512
-8.3719
-19.608
27.01
-45.419
58.287
3.2251
-12.793
7.4559
-12.732
-0.32583
-4.0689
-33.347
-14.588
28.471
27.244
4.2835
-15.986
-3.9559
12.293
27.598
-23.984
-36.706
24.642
-9.2926
13.399
1.8424
11.173
-7.2459
-39.941
17.986
-18.896
19.66
34.707
-18.895
5.1204
-4.357
2.5338
-12.47
27.237
-9.9429
-35.708
-1.3626
30.82
7.2298
-8.5012
20.74
-8.7214
-28.334
-5.2878
22.779
-12.947
7.9557
-2.9889
18.018
0.72698
-7.5154
-15.457
-8.0496
41.508
-32.778
1.9381
-2.0915
-7.2683
5.768
-6.5241
-5.6755
43.475
-12.251
4.529
-1.7435
-4.5908
-12.683
10.71
-4.2758
0.92447
-12.248
1.1219
11.143
-16.848
31.929
-8.7947
-8.4853
-5.8257
2.499
-8.7796
5.2865
-10.955
26.484
-18.382
-18.889
25.856
-8.5475
13.519
0.931
2.9648
-4.4812
12.098
-17.862
-48.02
57.036
5.2014
25.858
-26.514
-20.355
0.028943
7.6226
7.4542
-5.5188
4.1727
-14.101
-19.206
17.401
25.186
-2.358
72.147
12.65
2.7124
189.31
-215.31
-459.89
186.7
189.86
-52.703
-45.481
72.662
70.164
-79.549
-23.451
30.501
2.0345
76.798
18.693
59.022
-83.06
-135.92
51.989
69.925
80.649
-51.578
109.06
-30.194
-185.43
14.522
-87.453
105.62
2.8966
14.671
-25.657
21.315
15.942
-0.88008
17.479
1.6662
-7.6844
-33.615
40.469
-60.012
-5.6573
76.326
-7.1575
-47.995
-3.6182
14.067
-0.54047
10.628
-8.7125
0.056273
-15.821
-15.46
-1.8191
20.449
46.962
19.603
9.3071
-4.8437
-9.9149
-15.884
-11.888
-3.8744
-4.6496
-0.078823
-1.3438
-4.3635
1.556
-1.5839
-3.1116
1.9362
-2.183
-2.2892
5.0263
-0.9007
-0.92979
-8.0323
-16.457
-7.2573
-7.1
11.613
23.916
2.9537
9.6221
0.92605
-8.9871
5.3886
1.2242
-3.9579
8.7605
-5.6919
-18.672
-4.1119
19.16
8.4916
-6.7301
14.265
-0.88369
7.9997
7.2718
35.928
47.705
-72.946
-67.901
-17.19
70.078
49.416
-107.09
11.708
113.86
54.051
6.2061
-86.214
41.062
-260.74
-346.56
285.78
164.2
54.687
-5.9081
7.9165
-9.838
6.3412
9.236
-7.8487
2.0067
-5.8444
-5.1852
15.72
15.933
-7.6944
-3.5226
5.7232
-5.0782
-10.961
0.24167
-0.15084
-67.442
60.829
40.337
-9.2705
1.5051
11.982
11.236
96.401
9.0352
-25.247
82.456
108.16
-136.65
-175.23
-45.249
-24.808
45.472
-135.52
-41.177
7.3305
-32.028
84.4
-45
59.509
77.178
62.341
8.307
-37.597
-49.516
8.0486
27.65
-28.987
