20.91
17.53
13.86
10.87
9.2
8.97
9.8
11.05
12.08
12.44
11.98
10.71
8.8
6.43
3.78
1
-1.81
-4.57
-7.34
-10.26
-13.51
-17.16
-21.05
-24.81
-27.87
-29.68
-29.95
-28.71
-26.21
-22.81
-18.76
-14.22
-9.26
-4.11
0.77
4.74
7.2
7.75
6.42
3.64
0.14
-3.39
-6.35
-8.44
-9.59
-9.91
-9.64
-9.15
-8.87
-9.19
-10.44
-12.69
-15.72
-19.11
-22.43
-25.47
-28.37
-31.59
-35.63
-40.65
-46.24
-51.38
-54.56
-54.27
-49.38
-39.48
-25
-7.29
11.65
29.41
43.7
52.72
55.57
52.51
44.79
34.26
22.9
12.35
3.75
-2.23
-5.27
-5.27
-2.53
2.2
7.67
12.37
14.99
14.81
11.93
7.07
1.11
-5.31
-12.01
-19.14
-26.77
-34.54
-41.52
-46.53
-48.6
-47.46
-43.71
-38.6
-33.44
-29.07
-25.56
-22.37
-18.76
-14.29
-9.04
-3.51
1.64
5.98
9.4
12.04
14.04
15.35
15.74
15
13.08
10.3
7.27
4.68
3.09
2.71
3.37
4.57
5.73
6.23
5.68
3.87
0.89
-2.9
-6.93
-10.49
-12.89
-13.54
-12.07
-8.37
-2.66
4.6
12.7
20.87
28.3
34.35
38.68
41.24
42.26
42.1
41.1
39.55
37.62
35.48
33.3
31.28
29.58
28.27
27.31
26.6
26.01
25.53
25.2
25.12
25.3
25.57
25.61
24.98
23.27
20.25
15.95
10.7
5.07
-0.27
-4.68
-7.66
-8.98
-8.67
-7.06
-4.62
-1.89
0.64
2.66
4.02
4.66
4.58
3.82
2.43
0.51
-1.78
-4.28
-6.77
-9.06
-10.91
-12.13
-12.69
-12.72
-12.6
-12.8
-13.64
-15.06
-16.53
-17.21
-16.32
-13.58
-9.35
-4.49
0.03
3.61
6.23
8.36
10.57
13.2
16.08
18.68
20.49
21.24
21.03
20.16
18.79
16.83
14.01
10.19
5.61
1
-2.68
-4.7
-4.87
-3.66
-1.86
-0.21
0.96
1.74
2.37
2.96
3.29
2.91
1.47
-1.16
-4.72
-8.79
-13.08
-17.6
-22.59
-28.33
-34.74
-41.31
-47.09
-51.01
-52.31
-50.76
-46.78
-41.14
-34.78
-28.47
-22.75
-17.89
-14.06
-11.29
-9.54
-8.59
-8.1
-7.66
-7
-6.13
-5.34
-5.17
-6.18
-8.74
-12.88
-18.35
-24.66
-31.23
-37.45
-42.8
-46.8
-49.07
-49.47
-48.1
-45.44
-42.14
-38.85
-35.9
-33.13
-29.97
-25.74
-20.08
-13.18
-5.71
1.52
8.04
13.89
19.53
25.3
31.09
36.14
39.38
39.9
37.4
32.35
25.67
18.45
11.61
5.89
1.85
0.01
0.69
3.8
8.8
14.62
19.94
23.6
24.86
23.6
20.21
15.36
9.76
4
-1.55
-6.57
-10.74
-13.64
-14.73
-13.64
-10.24
-4.83
1.9
9.05
15.75
21.35
25.51
28.22
29.73
30.39
30.6
30.69
30.87
31.23
31.74
32.27
32.72
33.02
33.18
33.27
33.29
33.2
32.88
32.23
31.25
30.06
28.93
28.16
27.92
28.19
28.71
29.09
28.94
27.99
26.17
23.69
20.96
18.46
16.7
16.01
16.42
17.76
19.63
21.62
23.43
24.9
25.99
26.64
26.77
26.21
24.84
22.73
20.09
17.3
14.71
12.53
10.66
8.85
6.74
4.12
1.07
-2.12
-5.06
-7.52
-9.6
-11.63
-14.11
-17.36
-21.34
-25.66
-29.68
-32.79
-34.64
-35.14
-34.46
-32.8
-30.27
-26.99
-23.13
-19.05
-15.28
-12.34
-10.56
-9.96
-10.22
-10.84
-11.37
-11.6
-11.58
-11.48
-11.52
-11.78
-12.19
-12.54
-12.61
-12.29
-11.65
-10.97
-10.64
-11
-12.13
-13.84
-15.62
-16.88
-17.16
-16.27
-14.33
-11.68
-8.73
-5.77
-2.95
-0.34
2.03
4.06
5.62
6.52
6.61
5.87
4.38
2.38
0.22
-1.68
-2.9
-3.17
-2.52
-1.37
-0.48
-0.76
-3
-7.57
-14.29
-22.51
-31.31
-39.86
-47.76
-55.35
-63.68
-74.21
-87.97
-104.7
-122.25
-136.9
-144.51
-142.1
-129.15
-107.78
-81.92
-55.77
-32.45
-13.42
1.33
12.5
20.91
27.3
32.4
37.15
42.61
49.78
59.19
70.79
83.98
97.69
110.77
122.21
131.49
138.63
144.08
148.51
152.46
156.19
159.67
162.69
165.03
166.53
167.1
166.66
165.13
162.46
158.84
154.68
150.46
146.52
142.77
138.75
133.84
127.63
120.17
111.96
103.61
95.45
87.29
78.59
68.83
58.03
46.97
37.02
29.59
25.58
25
27.04
30.47
34.03
36.8
38.26
38.22
36.58
33.35
28.68
22.96
16.96
11.65
8.03
6.87
8.67
13.61
21.54
31.85
43.33
54.17
62.29
65.85
63.85
56.43
44.64
29.89
13.37
-4.25
-22.7
-41.67
-60.48
-78.23
-94.14
-107.92
-119.84
-130.42
-139.95
-148.13
-154.28
-157.84
-158.89
-158.48
-158.29
-159.9
-164.11
-170.63
-178.34
-185.94
-192.6
-198.26
-203.47
-208.92
-215.12
-222.21
-230.04
-238.16
-245.65
-250.89
-251.65
-245.7
-231.77
-210.33
-183.74
-155.44
-128.86
-106.35
-88.82
-75.92
-66.48
-58.96
-51.67
-42.98
-31.74
-17.77
-2.01
13.69
27.51
38.35
46.26
52.13
57.02
61.49
65.42
68.29
69.59
69.1
66.89
63.29
58.76
53.95
49.72
46.97
46.43
48.34
52.28
57.36
62.49
66.81
69.89
71.74
72.62
72.83
72.58
71.99
71.24
70.47
69.91
69.72
70.06
71.05
72.88
75.75
79.77
84.67
89.6
93.22
93.99
90.68
82.93
71.45
57.79
43.82
31.12
20.6
12.47
6.43
1.98
-1.44
-4.42
-7.67
-11.9
-17.53
-24.4
-31.63
-37.85
-41.83
-43.03
-41.83
-39.28
-36.56
-34.34
-32.57
-30.67
-28.03
-24.5
-20.52
-16.95
-14.55
-13.62
-13.93
-14.91
-15.96
-16.76
-17.32
-17.85
-18.57
-19.43
-20.16
-20.36
-19.61
-17.71
-14.7
-10.8
-6.28
-1.39
3.69
8.66
13.1
16.45
18.14
17.89
15.96
13.24
11.12
11.04
13.93
19.83
27.73
35.85
42.13
44.78
42.75
35.89
24.87
10.85
-4.92
-21.41
-37.86
-53.71
-68.42
-81.35
-91.82
-99.31
-103.72
-105.47
-105.42
-104.63
-103.99
-103.91
-104.13
-103.67
-101.02
-94.74
-84.02
-69.21
-51.75
-33.58
-16.31
-0.57
14
28.24
42.8
57.66
72.3
86.12
98.98
111.16
122.94
133.92
142.88
148.22
148.93
145.36
139.36
133.38
129.32
127.63
127.74
129.14
132.37
138.89
149.66
163.5
176.61
183.72
180.51
165.44
140.1
107.87
72.03
34.34
-4.83
-45.36
-86.24
-124.94
-157.84
-181.01
-190.97
-185.48
-164.45
-130.9
-90.99
-52.35
-21.12
0.62
15.47
28.57
43.99
61.81
77.91
86.44
83.3
68.55
45.96
20.62
-3.79
-26.2
-47.41
-68.25
-88.62
-107.58
-124.23
-138.29
-149.72
-157.95
-161.5
-158.52
-147.59
-128.26
-100.82
-65.86
-24.36
21.59
67.83
108.75
138.79
154.81
157.32
149.67
135.35
115.59
89.05
53.91
11
-34.37
-73.26
-96.49
-98.37
-79.02
-44.18
-2.52
37.53
70.26
93.36
107.2
113.13
112.2
104.98
92.15
75.33
57.33
41.61
30.97
26.39
26.56
28.26
28.21
24.45
17.08
7.8
-1.02
-7.43
-10.51
-10.6
-9.19
-8.34
-10.01
-15.27
-23.72
-33.46
-41.66
-45.51
-43.16
-34.34
-20.41
-3.76
13.01
27.7
38.91
45.94
48.61
47.03
41.56
32.73
21.31
8.29
-5.18
-17.96
-29.29
-39.02
-47.71
-56.34
-65.79
-76.48
-88.28
-100.6
-112.59
-123.15
-131.15
-135.54
-135.83
-132.31
-126.01
-118.24
-110.02
-101.72
-93.33
-85
-77.48
-72
-69.57
-70.1
-72.29
-74.2
-74.38
-72.78
-70.6
-69.4
-69.95
-71.53
-72.26
-69.98
-63.4
-52.66
-39.23
-25.27
-12.82
-3.28
2.74
5.32
5.03
2.76
-0.32
-2.9
-3.84
-2.6
0.37
3.54
4.85
2.56
-3.8
-13.24
-23.74
-33.41
-41.58
-49.19
-58.37
-71.2
-88.52
-109.29
-130.9
-150.12
-164.32
-172.31
-174.5
-172.46
-168.22
-163.48
-159.21
-155.61
-152.34
-148.8
-144.5
-139.14
-132.68
-125.27
-117.04
-108.09
-98.34
-87.51
-75.14
-60.85
-44.4
-25.79
-5.17
17.41
42.23
69.81
100.48
133.57
166.85
196.61
218.54
229.18
227.36
214.73
195.34
174.15
155.27
140.73
130.33
122.39
115.04
107.03
98.05
88.5
79.1
70.56
63.45
58.11
54.54
52.58
52.16
53.38
56.42
61.12
66.51
70.85
72.26
69.77
64.11
57.52
52.65
51.11
52.78
56.15
59.56
62.32
64.87
68
71.73
74.93
75.84
73.19
67.08
58.84
50.17
42.1
34.61
26.99
18.73
10.14
2.3
-3.72
-7.53
-9.85
-11.98
-15.07
-19.4
-24.25
-28.29
-30.36
-29.93
-27.3
-23.31
-19
-15.39
-13.24
-13.09
-15.07
-18.82
-23.5
-28.01
-31.25
-32.57
-31.98
-30.16
-28.26
-27.56
-29.03
-32.98
-38.88
-45.4
-50.79
-53.4
-52.19
-47.18
-39.34
-30.31
-22.01
-16.2
-14.16
-16.18
-21.28
-27.18
-30.9
-30.02
-23.9
-14.09
-3.57
4.85
10.09
13.33
17.16
23.82
33.72
45.15
55.27
61.68
63.58
61.8
57.89
53.08
47.71
41.52
34.2
25.92
17.46
9.79
3.83
0.16
-0.95
0.49
4.15
9.35
15.12
20.54
25.17
29.26
33.35
37.65
41.45
43.37
42.3
38.58
34.35
32.73
36
44.1
54.28
62.37
64.76
60.04
49.41
35.73
22.05
10.46
1.81
-3.86
-6.68
-6.62
-3.53
2.42
10.55
19.71
28.66
36.57
43.24
49.09
54.76
60.62
66.5
71.8
75.95
78.94
81.42
84.35
88.31
92.96
97.04
98.98
97.66
93.03
86.13
78.51
71.56
66
61.78
58.32
54.9
50.96
46.23
40.64
34.29
27.38
20.19
13.04
6.31
0.34
-4.51
-7.94
-9.8
-10.15
-9.36
-8.12
-7.34
-7.94
-10.54
-15.33
-21.96
-29.67
-37.43
-44.17
-49.13
-51.95
-52.74
-51.94
-50.17
-48.11
-46.4
-45.54
-45.84
-47.26
-49.32
-51.17
-51.86
-50.69
-47.54
-42.91
-37.64
-32.58
-28.32
-25.06
-22.7
-21
-19.69
-18.57
-17.52
-16.6
-15.98
-15.85
-16.28
-17.1
-17.95
-18.44
-18.47
-18.27
-18.38
-19.36
-21.5
-24.69
-28.48
-32.26
-35.53
-37.95
-39.36
-39.71
-39
-37.3
-34.74
-31.46
-27.58
-23.14
-18.18
-12.93
-7.86
-3.77
-1.52
-1.77
-4.75
-10.09
-16.94
-24.37
-31.58
-38.2
-44.28
-50.09
-55.93
-61.88
-67.83
-73.49
-78.59
-82.97
-86.65
-89.69
-92.08
-93.63
-93.94
-92.59
-89.29
-84.08
-77.46
-70.28
-63.6
-58.37
-55.3
-54.72
-56.46
-59.83
-63.64
-66.18
-65.66
-60.6
-50.27
-35.18
-17.05
1.38
17.15
27.87
32.43
31.25
25.92
18.52
10.97
4.79
1.16
1.16
5.77
15.52
29.91
47.12
64.29
78.34
87.23
90.63
89.91
87.34
85.09
84.27
84.75
85.54
85.47
83.89
80.81
76.82
72.6
68.56
64.62
60.32
55.13
48.77
41.31
33.06
24.4
15.49
6.32
-3.2
-12.98
-22.62
-31.26
-37.72
-40.82
-39.66
-34
-24.43
-12.29
0.64
12.33
20.98
25.32
24.98
20.61
13.73
6.12
-1.02
-7.84
-16.04
-28.32
-47.12
-73.36
-105.73
-141.08
-175.53
-205.86
-230.17
-247.69
-257.98
-260.32
-253.7
-237.47
-212.06
-179.06
-140.67
-98.71
-54.27
-8.57
36.35
77.17
110.37
133.84
148.01
154.93
156.29
151.51
137.97
112.98
76.71
33.51
-9.19
-43.91
-66.04
-75.04
-73.38
-64.29
-50.1
-32.19
-11.92
8.75
27.74
44.03
58.46
72.97
88.95
105.75
120.53
129.72
131.08
124.86
113.78
101.65
91.64
85.17
81.86
80.35
79.19
77.34
74.18
69.19
61.96
52.35
40.57
27.31
13.69
1.03
-9.28
-15.99
-18.45
-16.89
-12.52
-7.2
-2.83
-0.48
-0.03
-0.27
0.35
2.92
7.5
13.26
18.98
23.94
28.54
34.2
42.81
55.84
73.54
94.73
117.12
138.1
155.42
167.74
174.58
176.22
173.39
166.86
157.18
144.33
127.56
105.41
76.11
38.4
-7.48
-59.11
-112.07
-160.86
-200.35
-227.13
-240.08
-240.2
-229.85
-212.01
-189.84
-166.58
-145.32
-128.5
-117.34
-111.31
-108.37
-105.94
-102.18
-96.83
-91.17
-87.06
-85.84
-87.46
-90.47
-92.61
-91.65
-86.09
-75.46
-60.42
-42.65
-24.6
-8.87
2.8
10.46
16.36
24.38
38.31
59.89
87.54
116.78
141.94
158.76
166.12
166.42
164.3
164.51
169.98
180.7
193.77
204.57
208.43
202.23
185.5
160.23
130.03
98.46
67.74
38.29
9.51
-18.9
-45.83
-68.88
-85.49
-94.54
-97.23
-96.56
-96.03
-98.14
-103.98
-113.77
-127.54
-145.1
-165.31
-185.08
-199.29
-202.16
-189.54
-161.05
-120.48
-74.34
-29.36
9.73
40.83
63.82
79.24
87.49
88.87
84.15
74.99
63.68
52.36
42.22
33.2
24.17
13.77
1.17
-13.38
-28.53
-42.38
-53.05
-59.37
-61.17
-59.22
-54.85
-49.51
-44.38
-40.25
-37.48
-36.01
-35.5
-35.37
-34.94
-33.65
-31.1
-27.09
-21.63
-14.84
-7.08
1.11
8.93
15.41
19.72
21.31
20.2
16.99
12.65
8.27
4.69
2.2
0.5
-1.02
-2.98
-5.6
-8.65
-11.64
-14.24
-16.62
-19.5
-23.72
-29.7
-36.94
-43.95
-48.71
-49.46
-45.43
-37.28
-26.81
-16.38
-7.98
-2.68
-0.43
-0.45
-1.61
-2.76
-2.85
-0.91
3.84
11.5
21.19
31.13
39.43
45.14
49.23
54.44
64.12
80.35
102.64
127.83
151.45
169.71
181.1
186.65
188.73
189.4
189.08
186.48
179.41
166.03
145.51
117.94
83.83
43.78
-1.11
-48.32
-93.08
-128.68
-148.06
-146.34
-122.99
-82.57
-33.46
14.73
53.95
79.34
89.57
85.98
71.5
49.7
24.27
-1.43
-24.68
-43.89
-58.94
-70.99
-81.77
-92.56
-103.46
-113.21
-119.73
-121.22
-116.84
-106.95
-92.78
-75.83
-57.36
-38.3
-19.22
-0.51
17.72
35.69
54.02
73.24
93.34
113.11
130.2
141.66
145.02
139.17
124.87
104.48
81.15
57.87
36.72
18.74
4.05
-7.64
-16.54
-22.65
-25.86
-26.36
-24.69
-21.65
-17.78
-12.98
-6.37
3.22
16.48
32.95
50.8
67.3
79.76
86.47
87.28
83.53
77.36
70.82
65.1
60.45
56.52
53.02
50.17
48.76
49.56
52.62
56.7
59.5
58.36
51.48
38.88
22.61
6.18
-6.68
-13.28
-12.72
-5.86
5.13
17.58
28.95
36.97
39.85
36.2
25.1
6.27
-19.96
-53.06
-92.81
-139.55
-193.66
-254.22
-317.71
-377.76
-426.36
-456.51
-464.86
-452.94
-426.38
-392.41
-357.06
-323.39
-291.75
-260.95
-229.92
-198.24
-165.74
-131.56
-93.67
-49.44
2.79
62.29
125.45
186.71
240.62
284.38
318.89
348.02
376.02
404.59
430.96
448.54
449.81
430.08
390.09
335.96
276.92
222.29
179.21
151.99
142.17
148.61
167.06
190.1
207.76
210.27
191.17
149.58
90.38
21.58
-49.47
-118.97
-187.15
-255.84
-325.01
-390.44
-444.12
-477.02
-482.86
-460.77
-415.46
-354.88
-287.2
-218.29
-151.24
-87.86
-30.76
15.84
47.33
61.19
59.15
47.26
33.66
25.17
24.72
31.02
40.2
48.58
54.55
58.63
62.15
65.71
68.52
69.21
67.04
62.63
57.66
53.68
51.2
49.53
47.65
45.11
42.46
40.98
41.86
45.41
50.95
57.24
63.18
68.16
72.08
74.88
76.06
74.63
69.39
59.64
45.79
29.43
12.89
-1.56
-12.5
-19.75
-24.29
-27.7
-31.6
-37.05
-44.17
-52.13
-59.49
-64.67
-66.51
-64.71
-59.88
-53.24
-46.27
-40.36
-36.5
-35.24
-36.58
-39.94
-44.14
-47.77
-49.64
-49.24
-46.97
-43.93
-41.34
-39.96
-39.92
-40.77
-41.9
-42.77
-42.95
-42.11
-40.02
-36.61
-32.17
-27.34
-22.93
-19.48
-16.96
-14.71
-11.62
-6.6
0.93
10.79
22.03
33.19
42.68
49.31
52.63
53.09
51.91
50.61
50.4
51.71
54.05
56.29
57.19
56
52.74
48.26
43.9
40.91
40.01
41.12
43.41
45.66
46.81
46.32
44.26
41.01
36.94
32.06
26.17
19.14
11.16
2.66
-5.83
-14.08
-22.09
-29.94
-37.34
-43.61
-47.77
-49.15
-47.79
-44.53
-40.73
-37.65
-35.98
-35.68
-36.15
-36.55
-36.13
-34.35
-30.98
-25.97
-19.56
-12.26
-4.9
1.52
6.07
8.15
7.84
5.89
3.5
1.87
1.76
3.2
5.71
8.63
11.61
14.74
18.47
23.22
29.08
35.62
42
47.36
50.97
52.47
51.89
49.52
45.94
41.91
38.24
35.64
34.43
34.51
35.36
36.33
36.98
37.23
37.34
37.56
37.81
37.62
36.34
33.69
30.06
26.6
24.62
24.94
27.34
30.55
32.8
32.7
29.92
25.41
20.95
18.47
19.29
23.59
30.47
38.25
45.17
49.81
51.49
50.21
46.53
41.32
35.46
29.44
23.09
15.22
3.77
-13.46
-37.38
-66.18
-94.75
-115.75
-122.03
-109.64
-79.6
-37.75
7.43
47.86
78.27
96.89
104.76
104.17
97.39
86.19
71.97
56.03
39.6
23.59
8.46
-5.71
-18.93
-31.15
-42.3
-52.3
-61
-67.96
-72.17
-72.28
-67.34
-57.54
-44.64
-31.28
-19.69
-10.44
-2.23
6.94
18.19
30.72
42.26
50.76
56.1
60.63
67.93
80.8
99.55
121.81
143.64
161.14
171.63
173.75
167.22
152.41
130.28
102.36
70.39
35.82
-0.76
-39.77
-82.01
-127.61
-175.24
-221.92
-263.94
-298.15
-322.93
-338.31
-345.4
-345.55
-339.79
-328.81
-313.29
-294.1
-272.27
-248.86
-224.94
-201.67
-180.53
-163.26
-151.39
-145.52
-144.55
-145.7
-145.37
-140.34
-128.89
-111.19
-89
-64.88
-41.34
-20.23
-2.59
11.36
21.92
29.69
35.46
40.04
44.21
48.51
52.99
57.08
59.65
59.48
55.72
48.36
38.26
26.92
15.96
6.78
0.18
-3.56
-4.64
-3.51
-0.72
3.13
7.46
11.76
15.6
18.71
21.07
22.93
24.74
27.02
30.14
34.13
38.66
43.27
47.63
51.73
55.91
60.51
65.41
69.95
73.2
74.62
74.6
74.37
75.4
78.53
83.65
90.16
97.88
107.57
120.69
138.19
159.26
181.02
199.48
211.21
214.75
210.66
200.49
185.29
165.06
139.37
108.76
75.84
45.01
20.75
5.55
-1.55
-4.5
-8.41
-17.03
-31.25
-48.91
-66.29
-79.94
-88.1
-90.98
-90.03
-86.85
-82.46
-76.92
-69.63
-59.75
-46.6
-30.1
-11.01
9.03
27.72
42.83
53.13
59.02
62.48
66.33
72.93
82.95
94.78
104.96
109.19
103.81
86.95
59.22
23.59
-15.18
-51.64
-80.9
-99.8
-107.53
-105.56
-96.91
-85.02
-72.66
-61.43
-51.95
-44.21
-38.11
-33.46
-29.96
-27.02
-23.89
-20.08
-15.6
-11.16
-7.78
-6.31
-7.07
-9.65
-13.22
-17.11
-21.09
-25.48
-30.79
-37.16
-43.76
-48.67
-49.41
-44.07
-32.47
-16.73
-0.99
9.62
10.29
-2.47
-29.88
-70.35
-119.09
-168.49
-209.72
-235.44
-242.39
-232.86
-213.62
-193.03
-177.63
-169.84
-168.1
-168.59
-167.59
-162.93
-154.24
-142.34
-128.38
-113.48
-98.63
-84.71
-72.38
-61.97
-53.15
-44.92
-35.7
-23.45
-6.19
17.12
45.65
75.94
102.48
119.18
121.64
109.05
84.94
56.13
30.51
14.51
11.32
20.53
39.13
63.14
89.17
115.15
139.95
162.87
183.2
200.19
213.53
223.43
230.38
234.4
234.65
229.58
218.02
200.16
178.12
155.34
135.35
120.49
111.39
107.39
107.52
111.21
118.42
129.1
142.56
157.29
171.41
183.37
192.5
199.07
203.71
206.81
208.22
207.48
204.21
198.5
191.03
182.77
174.63
167.28
161.21
156.96
155.35
157.29
163.47
173.88
187.64
203.16
218.66
232.71
244.39
253.14
258.4
259.28
254.68
243.66
226.07
202.85
176.01
147.99
120.94
96.12
73.75
53.29
33.98
15.28
-2.99
-20.8
-38.1
-54.92
-71.47
-87.98
-104.69
-121.77
-139.35
-157.49
-176.21
-195.46
-215.14
-235.17
-255.52
-276.34
-298
-321.1
-346.34
-374.25
-404.95
-437.95
-472.04
-505.18
-534.6
-557.11
-569.58
-569.53
-555.8
-528.87
-490.84
-444.83
-394.34
-342.36
-291.04
-241.69
-195.32
-152.85
-114.95
-81.46
-50.81
-20.03
14.22
53.83
97.64
140.88
176.39
197.08
198.51
179.97
143.87
94.19
35.29
-28.2
-90.68
-145.2
-184.5
-203.19
-199.9
-177.83
-143.45
-103.83
-64.52
-28.83
1.18
23.36
35.19
35.11
24.25
7.21
-9.33
-19.49
-21.11
-16.71
-12.02
-12.79
-21.68
-37.07
-54.21
-67.59
-73.48
-70.87
-60.8
-45.15
-25.85
-5.23
13.29
25.47
28.09
21.42
10.51
3.74
8.86
28.6
58.69
89.84
112.53
122.16
121.2
117.05
117.66
127.18
144.57
165.48
185.5
202.7
217.59
231.51
244.67
255.45
261.14
259.9
251.99
239.86
226.93
215.94
207.78
201.47
195.11
186.81
175.48
160.82
143.01
122.46
99.7
75.35
50.28
25.54
2.16
-19.04
-37.78
-54.28
-69.06
-82.46
-94.3
-103.9
-110.5
-114.04
-115.4
-116.33
-118.32
-121.52
-124.26
-123.73
-117.66
-105.96
-91.25
-77.76
-69.23
-67
-69.46
-73.08
-74.22
-70.6
-61.87
-49.12
-33.98
-17.98
-2.4
11.5
22.33
28.84
30.54
28.08
23.27
18.44
15.44
14.94
16.25
17.94
18.74
18.35
17.39
17.04
18.22
20.93
24.16
26.21
25.45
21.06
13.46
4.23
-4.5
-10.87
-13.9
-13.72
-11.24
-7.54
-3.48
0.56
4.54
8.78
13.92
20.97
31.03
44.52
60.35
75.42
85.3
85.86
75.32
55.71
32.44
12.21
0.13
-2.41
1.88
7.76
9.98
5.27
-7.08
-25.87
-49.26
-75.37
-102.22
-127.48
-148.6
-163.79
-173.13
-178.9
-184.68
-193.19
-204.68
-216.24
-222.98
-220.22
-205.32
-178.3
-141.02
-95.97
-45.44
8.36
62.39
112.33
153.07
180.32
192.4
191.32
182.05
170.24
159.6
150.39
140.02
125.41
105.53
82.69
61.57
46.77
40.47
41.48
46.24
50.91
53.16
52.8
50.95
48.79
46.64
44.03
40.23
34.89
28.29
21.15
14.28
8.34
3.81
0.98
-0.06
0.48
2.14
4.16
5.78
6.35
5.5
3.17
-0.47
-4.89
-9.25
-12.59
-13.96
-12.79
-9.16
-3.76
2.45
8.58
14.06
18.65
22.27
24.68
25.59
24.9
23
20.83
19.37
19.08
19.41
19.1
16.77
11.78
4.63
-3.27
-10.23
-14.82
-16.18
-13.96
-8.45
-0.67
7.61
14.17
17.34
16.86
14.49
13.53
17.36
27.85
44.5
64.71
85.03
102.7
116.6
127.37
136.67
146.16
156.58
167.16
175.84
180.08
178.1
170.16
158.61
146.99
138.1
132.1
125.83
113.82
90.36
51.72
-2.45
-68.74
-140.59
-209.36
-265.58
-300.58
-308.52
-288.23
-244.17
-185.59
-124.06
-70.03
-30.1
-6.03
4.33
4.93
-0.7
-10.57
-24.18
-41.49
-61.7
-82.39
-99.64
-109.13
-108.27
-97.97
-83.17
-71.44
-69.92
-82.07
-105.95
-135.13
-161.87
-180.7
-190.3
-193.09
-192.51
-190.44
-186.08
-177.27
-163.05
-145.8
-131.43
-127.25
-138.37
-164.75
-200.2
-234.18
-255.68
-257.32
-237.79
-201.66
-156.65
-110.06
-66.12
-25.72
12.23
48.65
83.13
114.03
139.96
160.91
178.48
194.83
210.93
225.42
234.69
233.93
219.19
188.75
143.62
86.6
21.15
-49.47
-121.83
-191.54
-252.59
-297.97
-321.52
-320.1
-294.84
-250.73
-194.49
-132.36
-68.9
-7.2
50.04
99.7
138.43
163.92
176.19
177.98
173.87
168.65
165.6
165.82
168.29
170.96
171.94
170.37
166.8
163.1
161.92
165.89
176.49
192.98
212.05
228.69
238.05
237.66
228.59
214.86
201.28
190.84
183.43
176.36
166.32
151.22
130.88
106.44
79.16
49.75
18.61
-13.48
-44.91
-73.48
-97.11
-114.43
-124.9
-128.62
-125.99
-117.81
-105.38
-90.51
-75.14
-60.6
-47.25
-34.5
-21.54
-8.08
5.11
16.28
23.27
24.38
19
8.01
-6.48
-21.72
-35.02
-44.41
-48.98
-48.9
-45.23
-39.56
-33.75
-29.47
-27.91
-29.43
-33.57
-39.38
-45.8
-52.1
-58.01
-63.55
-68.76
-73.46
-77.17
-79.43
-80.09
-79.67
-79.42
-81.02
-86.24
-96.3
-111.21
-129.34
-147.32
-160.7
-165.14
-158
-139.59
-113.42
-85.39
-61.86
-47.74
-45.05
-52.86
-67.98
-86.32
-103.9
-117.34
-123.91
-121.47
-108.48
-84.39
-49.98
-7.41
39.88
87.75
132.03
169.28
197.17
214.78
222.51
221.79
214.55
202.65
187.51
170.06
150.95
130.98
111.4
93.9
80.2
71.53
68.42
70.6
77.25
87.05
98.05
107.47
112
108.6
95.73
74.25
47.43
19.86
-4.44
-23.49
-37.92
-50.22
-63.42
-79.66
-99.58
-122.4
-146.49
-170.05
-191.32
-208.69
-220.87
-226.99
-227
-221.91
-213.69
-204.82
-197.6
-193.45
-192.45
-193.33
-193.93
-191.77
-184.72
-171.4
-151.48
-125.73
-95.86
-64.09
-32.67
-3.21
23.68
48.44
72.17
95.88
119.89
143.46
164.89
182.02
192.91
196.46
192.72
183.01
169.49
154.88
141.81
132.4
127.94
128.67
133.97
142.85
154.56
169.06
187.12
209.98
238.69
273.52
313.38
355.75
396.77
431.95
457.02
469.03
467.05
452.51
428.67
399.49
368.43
337.51
307.15
276.68
245.04
211.45
175.48
136.9
95.5
51.13
3.82
-46.05
-97.66
-149.74
-200.47
-247.45
-287.84
-318.85
-338.43
-345.9
-342.17
-329.37
-310
-286.29
-259.9
-232.01
-203.76
-176.38
-151.14
-128.94
-110.08
-94.32
-81.24
-70.52
-62.16
-56.37
-53.36
-53.05
-55
-58.41
-62.25
-65.42
-67.07
-66.86
-65.16
-62.87
-61.1
-60.69
-61.85
-64.28
-67.28
-70.17
-72.38
-73.48
-73.16
-71.29
-67.96
-63.6
-58.87
-54.39
-50.56
-47.38
-44.63
-42.06
-39.59
-37.32
-35.51
-34.45
-34.44
-35.75
-38.46
-42.35
-46.66
-50.25
-51.89
-50.64
-46.24
-39.08
-30.2
-20.94
-12.76
-7.01
-4.66
-6.01
-10.51
-16.71
-22.63
-26.26
-26.16
-21.78
-13.57
-2.77
8.87
19.49
27.42
31.48
31.28
27.36
21.13
14.49
9.33
6.91
7.53
10.38
13.85
16.08
15.63
11.89
5.32
-2.88
-11.2
-18.52
-24.35
-28.84
-32.43
-35.47
-37.96
-39.57
-39.89
-38.71
-36.18
-32.67
-28.65
-24.43
-20.11
-15.63
-10.95
-6.22
-1.74
2.09
4.97
6.76
7.6
7.68
7.19
6.11
4.33
1.72
-1.56
-4.97
-7.6
-8.66
-7.69
-5.05
-1.77
0.81
1.74
0.96
-0.66
-1.67
-0.74
2.66
8.09
14.4
20.39
25.28
28.91
31.63
33.81
35.56
36.55
36.18
33.91
29.51
23.22
15.68
7.72
0.06
-6.82
-12.74
-17.74
-21.92
-25.36
-28.18
-30.57
-32.83
-35.17
-37.58
-39.59
-40.35
-38.94
-34.86
-28.28
-20.07
-11.47
-3.54
3.13
8.5
12.78
16.06
18.22
18.92
17.91
15.29
11.48
7.14
2.97
-0.51
-3.02
-4.51
-5.13
-5.09
-4.63
-3.96
-3.24
-2.62
-2.19
-1.87
-1.3
0.16
3.16
8.11
14.7
21.9
28.28
32.55
34.06
32.99
30.09
26.08
21.19
15.05
7.01
-3.32
-15.7
-29.12
-42.15
-53.36
-61.68
-66.48
-67.6
-65.28
-60.17
-53.35
-46.41
-41.2
-39.31
-41.52
-47.3
-54.85
-61.55
-64.77
-62.75
-55.06
-42.68
-27.56
-11.93
2.35
14.05
22.76
28.57
31.93
33.42
33.53
32.71
31.27
29.37
27.13
24.61
21.89
19.1
16.37
13.88
11.79
10.2
9.06
8.09
6.68
4.03
-0.44
-6.72
-13.85
-19.96
-22.9
-20.95
-13.54
-1.5
13.28
28.53
42.31
53.38
61.23
65.87
67.53
66.54
63.36
58.56
52.89
47.14
41.99
37.93
35.1
33.34
32.19
31.07
29.38
26.73
22.98
18.16
12.45
5.99
-0.99
-8.03
-14.37
-18.94
-20.62
-18.62
-12.84
-3.95
6.78
17.85
27.95
36.19
42.11
45.59
46.73
45.72
42.76
38.19
32.39
25.84
19.12
12.84
7.53
3.57
1.08
-0.11
-0.38
-0.26
-0.27
-0.96
-2.85
-6.31
-11.44
-17.79
-24.36
-29.67
-32.17
-30.79
-25.31
-16.53
-5.95
4.69
13.9
20.81
25.12
26.95
26.59
24.41
20.82
16.31
11.48
6.94
3.22
0.63
-0.7
-0.75
0.41
2.59
5.4
8.11
9.71
9.16
5.8
-0.31
-8.26
-16.33
-22.58
-25.36
-23.81
-18.05
-9.12
1.41
11.8
20.61
26.93
30.53
31.8
31.59
30.75
29.9
29.09
27.91
25.77
22.25
17.49
12.17
7.26
3.57
1.41
0.5
0.18
-0.24
-1.36
-3.53
-6.9
-11.43
-16.76
-22.07
-26.16
-27.71
-25.76
-20.18
-11.78
-2.02
7.48
15.51
21.42
25.22
27.15
27.55
26.7
24.85
22.29
19.37
16.41
13.6
11.04
8.72
6.66
4.99
3.88
3.44
3.53
3.67
3.11
1.05
-2.89
-8.44
-14.49
-19.36
-21.36
-19.37
-13.24
-3.84
7.25
18.31
27.98
35.53
40.78
43.94
45.44
45.74
45.3
44.59
43.99
43.77
43.97
44.51
45.21
46
46.92
48.1
49.69
51.63
53.66
55.33
56.14
55.67
53.57
49.62
43.81
36.45
28.44
21.23
16.56
15.84
19.41
26.16
33.79
39.66
41.73
39.26
32.81
23.74
13.55
3.32
-6.2
-14.5
-21.16
-25.89
-28.8
-30.45
-31.73
-33.49
-36.22
-39.91
-44.21
-48.68
-52.98
-56.92
-60.48
-63.57
-66.01
-67.43
-67.29
-65.05
-60.36
-53.27
-44.33
-34.51
-24.88
-16.35
-9.49
-4.45
-1.14
0.62
1.02
0.31
-1.22
-3.21
-5.32
-7.27
-8.99
-10.51
-11.86
-13.07
-14.05
-14.67
-14.94
-15.06
-15.42
-16.52
-18.69
-21.88
-25.5
-28.58
-30.02
-29
-25.29
-19.31
-12.04
-4.64
1.83
6.66
9.54
10.53
10.02
8.58
6.8
5.13
3.75
2.55
1.24
-0.32
-2.06
-3.62
-4.57
-4.72
-4.23
-3.59
-3.38
-4.06
-5.73
-8.17
-10.98
-13.58
-15.29
-15.41
-13.32
-8.75
-1.92
6.41
15.13
23.11
29.56
34.1
36.78
37.89
37.78
36.75
34.99
32.56
29.42
25.5
20.8
15.42
9.67
3.96
-1.27
-5.74
-9.42
-12.58
-15.68
-19.27
-23.69
-28.93
-34.47
-39.3
-42.17
-42
-38.24
-31.14
-21.72
-11.39
-1.57
6.66
12.82
16.85
19.03
19.71
19.24
17.8
15.49
12.34
8.39
3.84
-0.94
-5.43
-9.11
-11.71
-13.32
-14.38
-15.47
-17.13
-19.67
-23.11
-27.27
-31.84
-36.44
-40.54
-43.49
-44.56
-43.18
-39.06
-32.46
-24.09
-15.08
-6.76
-0.4
2.98
2.91
-0.37
-5.86
-12.02
-17.19
-20.1
-20.2
-17.73
-13.43
-8.1
-2.37
3.44
9.08
14.17
18.06
20.03
19.54
16.5
11.4
5.16
-1.18
-6.59
-10.36
-11.99
-11.32
-8.35
-3.41
2.94
9.88
16.43
21.69
25.03
26.24
25.6
23.72
21.34
19.07
17.15
15.54
13.94
12.06
9.81
7.25
4.63
2.2
0.14
-1.46
-2.71
-3.82
-5.27
-7.59
-11.17
-16.03
-21.6
-26.86
-30.58
-31.77
-30.03
-25.62
-19.32
-12.13
-4.96
1.47
6.73
10.61
13.02
13.98
13.62
12.07
9.53
6.22
2.46
-1.35
-4.87
-7.78
-9.94
-11.26
-11.82
-11.71
-11.11
-10.27
-9.61
-9.57
-10.51
-12.49
-15.12
-17.6
-18.97
-18.4
-15.48
-10.41
-3.86
3.22
9.87
15.33
19.1
20.97
21
19.46
16.81
13.6
10.37
7.52
5.21
3.43
2.1
1.19
0.68
0.59
0.83
1.16
1.21
0.65
-0.73
-3.01
-6.03
-9.49
-12.94
-15.78
-17.36
-17.1
-14.73
-10.37
-4.57
1.84
7.91
12.86
16.23
17.94
18.2
17.38
15.87
13.88
11.52
8.78
5.74
2.56
-0.43
-2.83
-4.37
-4.98
-4.9
-4.52
-4.3
-4.59
-5.64
-7.56
-10.35
-13.75
-17.29
-20.2
-21.57
-20.59
-16.88
-10.62
-2.57
6.17
14.4
21.16
25.82
28.2
28.51
27.23
25.03
22.45
19.88
17.36
14.8
12.07
9.14
6.19
3.56
1.52
0.18
-0.55
-1
-1.57
-2.59
-4.2
-6.29
-8.46
-10.17
-10.79
-9.81
-6.88
-1.87
5.07
13.51
22.68
31.55
39.02
44.13
46.32
45.51
42
36.25
28.8
20.25
11.31
2.83
-4.3
-9.37
-12.14
-12.95
-12.62
-12.17
-12.49
-14.19
-17.49
-22.32
-28.46
-35.45
-42.57
-48.71
-52.54
-52.82
-48.83
-40.82
-29.98
-18.18
-7.35
1.09
6.6
9.47
10.5
10.48
9.98
9.2
8.13
6.75
5.18
3.61
2.2
1.01
0.01
-0.92
-1.85
-2.87
-4.07
-5.64
-7.87
-11.08
-15.38
-20.54
-25.82
-30.04
-31.97
-30.63
-25.68
-17.56
-7.38
3.44
13.54
21.91
28.01
31.76
33.3
32.94
31.05
27.99
24.2
20.07
15.97
12.23
9.14
6.96
5.82
5.6
5.95
6.38
6.39
5.72
4.35
2.42
0.19
-2.11
-4.16
-5.53
-5.63
-3.89
0.05
6.01
13.31
20.9
27.72
33.01
36.48
38.26
38.68
38.01
36.36
33.71
30.05
25.59
20.8
16.39
13.06
11.23
10.9
11.61
12.65
13.31
13.05
11.65
9
5.18
0.31
-5.26
-10.98
-16.01
-19.37
-20.22
-18.13
-13.29
-6.44
1.24
8.55
14.5
18.47
20.29
20.16
18.45
15.63
12.07
8.05
3.77
-0.65
-5
-9.03
-12.5
-15.21
-17.18
-18.54
-19.58
-20.59
-21.82
-23.43
-25.52
-28.08
-30.88
-33.38
-34.88
-34.62
-32.05
-27.08
-20.11
-11.94
-3.55
4.15
10.41
14.8
17.1
17.36
15.81
12.84
8.94
4.68
0.58
-2.94
-5.56
-7.17
-7.84
-7.8
-7.36
-6.84
-6.51
-6.6
-7.28
-8.68
-10.8
-13.44
-16.07
-17.86
-17.87
-15.35
-10
-2.18
7.14
16.65
25.1
31.6
35.81
37.94
38.56
38.4
38.07
37.98
38.17
38.34
37.96
36.49
33.61
29.5
24.83
20.49
17.23
15.3
14.25
13.12
10.78
6.36
-0.46
-9.39
-19.51
-29.42
-37.44
-41.95
-41.72
-36.19
-25.7
-11.34
5.3
22.45
38.48
52.01
61.97
67.63
68.63
65.16
57.96
48.27
37.54
27.12
17.98
10.45
4.34
-1.12
-6.92
-14.09
-23.51
-35.57
-50.03
-65.96
-81.9
-96.09
-106.87
-112.97
-113.86
-109.84
-102.02
-91.98
-81.17
-70.27
-59.07
-46.91
-33.48
-19.88
-8.86
-4.17
-8.9
-24.04
-48.04
-77.49
-108.42
-137.28
-161.18
-177.54
-184.02
-179.02
-162.65
-137.34
-107.66
-78.91
-55.42
-39.22
-29.9
-25.38
-23.09
-20.8
-17.1
-11.11
-2.46
8.77
22.02
36.53
51.53
66.33
80.3
92.78
102.98
110.08
113.42
112.72
108.12
100.07
89.06
75.6
60.21
43.59
26.7
10.69
-3.35
-14.69
-23.26
-29.65
-34.94
-40.24
-46.29
-53.12
-60
-65.56
-68.34
-67.23
-61.86
-52.74
-40.98
-27.89
-14.56
-1.67
10.42
21.52
31.26
39.12
44.5
47.08
46.99
44.94
42.08
39.58
38.25
38.4
39.76
41.82
44
45.91
47.26
47.8
47.29
45.55
42.69
39.32
36.51
35.48
37.12
41.51
47.74
54.27
59.52
62.49
63.12
62.12
60.42
58.6
56.65
54.13
50.62
46.15
41.29
36.8
33.35
31.18
30.18
30.12
30.73
31.81
32.89
33.14
31.34
26.27
17.33
5.03
-8.74
-21.19
-29.47
-31.63
-27.37
-18.07
-6.29
5.3
14.71
21.23
25.08
26.98
27.39
26.32
23.38
18.36
11.48
3.55
-4.38
-11.39
-17.1
-21.64
-25.37
-28.6
-31.29
-33.25
-34.35
-34.87
-35.49
-37
-39.88
-43.83
-47.75
-50.04
-49.15
-44.21
-35.3
-23.48
-10.41
2.14
12.78
20.8
26.2
29.47
31.22
31.85
31.39
29.55
26.02
20.83
14.45
7.79
1.96
-2.18
-4.21
-4.33
-3.15
-1.59
-0.48
-0.56
-2.26
-5.75
-10.83
-16.89
-22.95
-27.77
-30.17
-29.37
-25.28
-18.54
-10.31
-1.87
5.72
11.85
16.35
19.26
20.69
20.68
19.33
16.87
13.72
10.34
7.15
4.3
1.74
-0.72
-3.18
-5.59
-7.69
-9.26
-10.23
-10.88
-11.72
-13.34
-16.08
-19.86
-24.05
-27.65
-29.53
-28.85
-25.35
-19.38
-11.84
-3.84
3.63
9.94
14.81
18.26
20.4
21.33
21.14
19.95
18
15.64
13.31
11.39
10.11
9.43
9.09
8.75
8.12
7.12
5.85
4.46
3
1.32
-0.86
-3.69
-6.98
-10.12
-12.21
-12.46
-10.5
-6.52
-1.27
4.26
9.13
12.76
14.98
16.03
16.31
16.24
16.04
15.76
15.26
14.41
13.13
11.54
9.86
8.32
7.1
6.2
5.45
4.65
3.55
1.97
-0.18
-2.94
-6.26
-9.95
-13.66
-16.85
-18.88
-19.12
-17.2
-13.14
-7.42
-0.87
5.51
10.82
14.39
15.97
15.61
13.68
10.7
7.27
3.96
1.22
-0.72
-1.85
-2.32
-2.44
-2.5
-2.7
-3.13
-3.82
-4.79
-6.08
-7.82
-10.08
-12.85
-15.88
-18.65
-20.43
-20.5
-18.36
-13.95
-7.73
-0.59
6.38
12.21
16.26
18.42
18.94
18.27
16.86
15.03
12.92
10.61
8.23
5.99
4.1
2.72
1.89
1.48
1.27
1.06
0.7
0.07
-0.99
-2.65
-5.04
-8.13
-11.59
-14.75
-16.81
-16.99
-14.83
-10.43
-4.36
2.45
8.97
14.29
17.88
19.61
19.73
18.66
16.83
14.53
11.86
8.82
5.5
2.11
-1.01
-3.51
-5.13
-5.87
-5.92
-5.62
-5.28
-5.19
-5.51
-6.39
-7.95
-10.27
-13.32
-16.78
-20.03
-22.17
-22.11
-19.07
-12.73
-3.45
7.85
20.02
32.13
43.61
54.18
63.45
70.74
75.05
75.48
71.73
64.41
55.08
45.68
38.05
33.27
31.54
32.25
34.32
36.7
38.57
39.69
40.2
40.51
40.9
41.34
41.44
40.67
38.74
35.91
32.95
30.94
30.85
33.22
38.01
44.73
52.63
60.76
68.07
73.34
75.38
73.2
66.36
55.13
40.49
23.79
6.46
-10.28
-25.43
-38.35
-48.72
-56.66
-62.8
-68.15
-73.73
-80.15
-87.39
-94.74
-100.96
-104.78
-105.1
-101.3
-93.4
-82.23
-69.34
-56.71
-46.2
-38.94
-34.96
-33.35
-32.9
-32.74
-32.71
-33.2
-34.55
-36.55
-38.35
-38.82
-37.38
-34.37
-31.16
-29.5
-30.8
-35.38
-42.35
-49.91
-56
-59.02
-58.25
-53.9
-46.74
-37.66
-27.34
-16.28
-5.06
5.44
14.01
19.39
20.91
18.87
14.62
9.93
6.31
4.32
3.45
2.53
0.4
-3.51
-8.94
-15.08
-21.02
-26.17
-30.45
-34.17
-37.74
-41.36
-44.9
-48.08
-50.55
-52.16
-52.96
-53.09
-52.67
-51.75
-50.21
-47.88
-44.55
-40.05
-34.22
-27.05
-18.84
-10.24
-2.26
3.97
7.47
7.79
5.11
0.29
-5.41
-10.65
-14.32
-15.85
-15.21
-12.94
-9.94
-7.14
-5.36
-4.97
-5.85
-7.37
-8.7
-9.13
-8.3
-6.35
-3.75
-1.05
1.37
3.52
5.71
8.3
11.55
15.36
19.28
22.59
24.35
23.71
20.13
13.64
5.12
-3.66
-10.34
-12.45
-8.32
2.17
17.23
33.54
47.31
55.56
57.23
53.35
46.36
38.88
32.5
27.33
22.39
16.74
10.38
4.71
1.94
3.97
11.36
22.9
35.99
47.66
55.65
59.17
58.9
56.47
53.64
51.47
50.07
48.8
46.72
43.25
38.37
32.73
27.18
22.51
19.16
17.33
17.03
18.25
20.8
24.26
27.81
30.57
31.9
31.74
30.64
29.41
28.64
28.35
28.05
27.09
25.15
22.54
20.09
18.64
18.56
19.48
20.5
20.7
19.67
17.69
15.44
13.41
11.44
8.76
4.43
-1.82
-9.32
-16.56
-22.02
-24.89
-25.53
-25.1
-24.8
-25.11
-25.48
-24.73
-21.79
-16.45
-9.58
-2.74
2.46
5.04
4.98
2.97
0.01
-3.16
-6.24
-9.38
-12.77
-16.28
-19.41
-21.46
-21.85
-20.59
-18.28
-15.85
-14.12
-13.4
-13.4
-13.53
-13.38
-13.09
-13.35
-14.92
-18.15
-22.61
-27.22
-30.65
-31.96
-30.87
-27.72
-23.06
-17.32
-10.66
-3.15
4.95
12.93
19.75
24.33
26.02
24.8
21.36
16.79
12.17
8.24
5.27
3.07
1.23
-0.69
-3.07
-6.06
-9.66
-13.64
-17.56
-20.87
-22.95
-23.3
-21.66
-18.14
-13.13
-7.27
-1.15
4.75
10.13
14.85
18.79
21.74
23.4
23.48
21.8
18.51
14.07
9.25
4.87
1.61
-0.21
-0.68
-0.26
0.39
0.62
-0.09
-2.07
-5.53
-10.61
-17.29
-25.25
-33.63
-41.1
-46.11
-47.44
-44.73
-38.7
-30.97
-23.47
-17.71
-14.23
-12.52
-11.37
-9.55
-6.42
-2.29
1.7
4.1
3.73
0.21
-5.93
-13.39
-20.52
-25.74
-27.91
-26.62
-22.28
-16.15
-10.16
-6.37
-6.23
-9.97
-16.17
-22.19
-25.06
-22.61
-14.33
-1.44
13.64
28.16
39.88
47.37
50.15
48.51
43.43
36.31
28.76
22.26
17.76
15.33
14.23
13.25
11.26
7.65
2.61
-2.97
-7.88
-11.02
-11.8
-10.23
-7.02
-3.27
-0.1
1.58
1.42
-0.33
-2.85
-4.96
-5.52
-3.77
0.38
6.3
12.9
18.95
23.51
26.14
26.91
26.13
24.23
21.58
18.53
15.47
12.84
11.09
10.53
11.21
12.84
14.85
16.45
16.84
15.38
11.85
6.52
0.25
-5.79
-10.46
-13.11
-13.81
-13.24
-12.32
-11.65
-11.16
-10.13
-7.48
-2.31
5.68
16.08
27.8
39.31
49.07
55.85
59.06
58.9
56.3
52.68
49.5
47.75
47.45
47.53
45.9
40.14
28.47
10.83
-10.53
-31.34
-46.54
-52.08
-46.43
-31.06
-9.75
13.06
33.61
49.64
60.17
65.05
64.57
59.44
51.18
42.22
35.63
34.2
39.29
49.85
62.15
70.87
71.13
60.55
40.67
16.72
-4.17
-15.73
-14.94
-3.12
14.81
32.47
44.23
46.78
39.49
23.86
2.55
-21.23
-44.25
-63.7
-77.8
-86.3
-90.64
-93.66
-98.48
-107.08
-118.87
-129.82
-133.09
-121.04
-88.23
-34.36
34.35
106.46
169.24
213.21
235.31
238.99
231.3
218.77
204.71
189.11
170.65
149.07
125.81
102.76
80.35
56.85
29.55
-2.81
-38.2
-71.34
-95.8
-106.91
-104.07
-91.07
-74.78
-62.83
-61.37
-73.71
-100.1
-138.31
-184.47
-233.71
-280.8
-320.69
-349.21
-364.03
-365.22
-355.25
-337.96
-317.23
-295.83
-275.15
-255.82
-238.52
-224.31
-214.09
-207.86
-204.18
-200.51
-194.28
-183.98
-169.82
-153.38
-136.48
-120.1
-103.63
-85.12
-62.39
-34.42
-2.39
30.34
59.36
81
93.93
99.57
101.15
101.98
103.83
106.36
107.96
107.07
103.43
98.26
93.47
90.65
90.38
92.35
95.98
100.86
106.74
113.05
118.49
121.18
119.56
113.29
103.61
92.87
83.28
75.96
70.68
66.6
63.11
60.55
60.02
62.65
68.89
78.31
89.7
101.63
112.79
122.18
129.27
133.9
136.37
137.19
136.9
135.85
134.24
132.27
130.29
128.91
128.75
130.05
132.43
134.94
136.49
136.33
134.26
130.69
126.36
122.01
118.29
115.63
114.18
113.66
113.36
112.16
108.82
102.48
92.97
80.91
67.45
53.77
40.63
28.19
16.13
4
-8.28
-20.32
-31.37
-40.7
-47.99
-53.46
-57.7
-61.44
-65.08
-68.66
-71.91
-74.51
-76.29
-77.35
-77.93
-78.26
-78.41
-78.25
-77.52
-76
-73.48
-69.9
-65.16
-59.14
-51.79
-43.36
-34.44
-25.89
-18.5
-12.45
-7.02
-0.65
8.44
21.54
38.77
58.74
78.81
95.66
105.98
107.03
97.15
76.18
45.84
9.8
-26.52
-56.67
-74.41
-75.11
-57.26
-23.23
21.04
67.37
107.71
136.26
150.73
152.29
144.35
130.8
114.82
98.34
82.26
66.99
52.72
39.57
27.56
16.65
6.84
-1.84
-9.66
-17.41
-26.34
-37.57
-51.25
-66.15
-79.84
-89.67
-94.05
-93.2
-89.07
-84.5
-82.16
-83.77
-89.78
-99.51
-111.55
-124.14
-135.61
-144.91
-152.16
-159.18
-168.96
-184.39
-206.07
-230.78
-251.17
-257.8
-242.68
-203.06
-143.51
-75.24
-12.5
32.22
52.18
47.87
25.52
-6.28
-39.97
-71.03
-97.88
-120.52
-138.92
-152.3
-159.41
-159.46
-153.06
-142.16
-129.13
-115.85
-102.93
-89.81
-75.41
-59.09
-41.21
-23.21
-7.14
5.16
12.72
15.76
15.47
13.31
10.33
6.9
2.76
-2.49
-8.95
-16.19
-23.32
-29.18
-32.69
-32.95
-29.46
-22.38
-12.71
-2.5
5.62
9.26
7.26
0.26
-9.42
-18.7
-24.94
-26.86
-24.76
-20.25
-15.36
-11.88
-10.72
-11.69
-13.6
-14.74
-13.63
-9.7
-3.59
3.09
8.58
11.74
12.47
11.43
9.24
5.98
1.04
-6.31
-16.28
-28.03
-39.53
-48.12
-50.93
-45.64
-31.23
-8.33
20.68
52.42
83.6
112.2
137.96
161.77
184.47
205.45
222.14
230.5
226.49
207.55
173.6
127.29
73.78
19.96
-26.91
-60.68
-78.14
-79.95
-70.52
-56.31
-43.46
-35.71
-33.53
-34.78
-36.05
-34.49
-28.5
-18.13
-4.83
9.11
21.13
29.19
32.33
31.2
27.69
24.26
22.88
24.31
27.94
32.33
35.97
37.89
38.08
37.2
36.34
36.55
38.43
41.93
46.38
50.72
53.9
55.21
54.4
51.53
46.82
40.66
33.74
27.06
21.83
19.04
18.99
21.05
23.79
25.63
25.46
23.12
19.45
15.94
14.29
15.78
20.93
29.34
39.86
51.07
61.7
70.95
78.51
84.23
87.81
88.66
86.27
80.71
73.06
65.3
59.81
58.47
62.02
69.92
80.66
92.41
103.6
113.18
120.59
125.49
127.59
126.66
122.77
116.43
108.69
100.85
94.03
88.75
84.7
81.08
77.04
72.19
66.59
60.4
53.25
44.17
32.05
16.79
0.08
-14.68
-23.72
-24.99
-19.65
-12.21
-9.16
-16.53
-37.66
-71.99
-115.17
-160.46
-200.64
-230.01
-245.82
-248.77
-242.43
-231.65
-220.73
-211.97
-205.32
-199.25
-192.08
-183.04
-172.37
-160.58
-147.56
-132.37
-113.77
-91.19
-65.47
-38.78
-14.05
5.99
19.51
25.7
24.68
17.45
5.86
-7.34
-18.84
-25.7
-26.34
-21.37
-13.5
-6.55
-3.9
-7.25
-16.15
-28.57
-41.94
-54.29
-64.66
-72.91
-79.15
-83.26
-84.75
-83.16
-78.52
-71.59
-63.62
-55.75
-48.38
-40.95
-32.38
-21.87
-9.64
2.87
13.56
20.61
23.44
22.94
21.01
19.61
19.85
21.65
24.02
25.67
25.51
22.87
17.32
8.58
-3.49
-18.61
-35.57
-52.11
-65.24
-72.17
-71.62
-64.78
-55.32
-48.29
-48.16
-57.06
-73.97
-95.28
-116.37
-133.43
-144.34
-148.54
-146.09
-136.9
-120.82
-98.51
-72.38
-46.62
-25.97
-13.72
-10.16
-12.26
-15.07
-14.12
-7.47
3.41
14.62
21.83
22.49
16.9
7.84
-1.05
-7.08
-9.54
-9.66
-9.55
-10.97
-14.66
-20.27
-26.73
-32.49
-35.79
-34.93
-28.84
-17.71
-3.37
11.12
22.46
28.37
28.33
23.48
16.03
8.52
3.55
4.04
13
32.66
63.08
101.19
141.02
175.49
198.98
209.3
208.16
199.9
189.11
178.63
168.61
157.22
142.39
123.39
101.63
80.02
61.8
49.15
42.54
40.85
42.06
44.11
45.38
44.91
42.07
36.5
28.11
17.2
4.48
-8.93
-21.62
-32.1
-39.09
-41.84
-40.57
-36.49
-31.49
-27.47
-25.66
-26.44
-29.66
-35.24
-43.56
-55.25
-70.68
-89.35
-109.83
-130.25
-149.02
-165.28
-178.81
-189.47
-196.77
-199.76
-197.43
-189.37
-176.01
-158.52
-138.35
-116.87
-95.12
-73.86
-53.77
-35.55
-19.82
-6.87
3.58
12.37
20.74
29.85
40.33
52.05
64.22
75.84
86.12
94.85
102.38
109.29
115.94
122.17
127.38
130.96
132.61
132.69
131.9
131.01
130.49
130.43
130.6
130.67
130.36
129.46
127.72
124.81
120.38
114.15
106.03
96.27
85.49
74.61
64.68
56.59
50.76
47.02
44.44
41.66
37.26
30.19
20.2
7.88
-5.58
-18.76
-30.39
-39.66
-46.24
-50.15
-51.61
-50.87
-48.18
-43.85
-38.32
-32.13
-25.86
-19.98
-14.74
-10.22
-6.4
-3.36
-1.36
-0.86
-2.31
-5.85
-11.04
-16.78
-21.6
-24.11
-23.5
-19.88
-14.07
-7.28
-0.65
5.09
9.59
12.67
14.21
14.13
12.53
9.83
6.73
4.03
2.48
2.52
4.28
7.55
11.88
16.58
20.88
23.99
25.31
24.55
21.74
17.3
11.91
6.41
1.62
-1.75
-3.34
-3.17
-1.56
1.04
4.12
7.35
10.5
13.28
15.33
16.21
15.62
13.64
10.85
8.16
6.52
6.47
7.91
10.1
12.08
13.08
12.85
11.74
10.63
10.44
11.88
15.17
19.98
25.4
30.25
33.39
34.09
32.34
28.85
24.73
20.99
18.22
16.36
14.95
13.51
11.83
10.14
8.82
8.21
8.23
8.46
8.27
7.16
5.04
2.35
-0.1
-1.45
-1.04
1.29
5.23
10.13
15.27
20.01
23.9
26.68
28.19
28.35
27.23
25.09
22.35
19.54
17.08
15.21
13.95
13.1
12.46
11.87
11.32
10.81
10.38
9.97
9.42
8.52
7.07
4.98
2.38
-0.39
-2.68
-3.79
-3.06
-0.16
4.8
11.13
17.82
23.73
27.97
30.08
30.14
28.56
25.94
22.86
19.74
16.89
14.54
12.87
11.95
11.75
12.06
12.61
13.1
13.35
13.31
12.96
12.27
11.08
9.14
6.26
2.43
-2.09
-6.63
-10.36
-12.5
-12.53
-10.36
-6.3
-0.96
4.96
10.87
16.21
20.51
23.21
23.79
21.86
17.43
11.07
3.81
-3.04
-8.32
-11.41
-12.33
-11.74
-10.68
-10.19
-11.03
-13.52
-17.52
-22.59
-28.23
-34
-39.65
-45.1
-50.24
-54.87
-58.51
-60.3
-59.2
-54.2
-44.81
-31.48
-15.67
0.46
14.71
25.63
32.85
37.08
39.61
41.71
44.31
47.89
52.62
58.54
65.46
72.95
80.18
86.22
90.36
92.5
93.17
93.31
93.85
95.14
96.82
97.8
96.63
92.01
83.22
70.45
54.68
37.45
20.36
4.7
-8.75
-19.8
-28.61
-35.62
-41.36
-46.46
-51.61
-57.43
-64.25
-71.9
-79.61
-86.18
-90.38
-91.4
-89.11
-84.02
-77.01
-69
-60.67
-52.45
-44.6
-37.39
-31.12
-26.07
-22.38
-19.91
-18.2
-16.52
-14.04
-9.95
-3.74
4.69
15.01
26.54
38.54
50.4
61.79
72.64
83.08
93.38
103.87
114.71
125.69
136.01
144.48
149.92
151.73
150.29
146.74
142.11
136.47
128.61
116.58
98.89
75.59
48.72
21.54
-2.72
-22
-35.78
-44.67
-49.56
-51.09
-49.56
-45.19
-38.55
-30.58
-22.58
-15.99
-12.19
-12.22
-16.49
-24.47
-34.55
-44.48
-52.21
-56.68
-58.15
-57.9
-57.33
-57.17
-57.16
-56.44
-54.38
-51.11
-47.51
-44.66
-43.22
-43.12
-43.75
-44.49
-45.06
-45.68
-46.61
-47.81
-48.71
-48.45
-46.3
-42.05
-36.1
-29.19
-22.07
-15.27
-9.18
-4.19
-0.8
0.52
-0.36
-2.99
-6.43
-9.59
-11.74
-12.83
-13.44
-14.4
-16.2
-18.69
-21.23
-23.04
-23.78
-23.84
-24.2
-25.94
-29.63
-35.01
-41.05
-46.38
-49.91
-51.15
-50.26
-47.75
-44.14
-39.73
-34.72
-29.35
-24
-19.15
-15.23
-12.52
-11.15
-11.24
-12.89
-16.05
-20.36
-25
-28.92
-31.16
-31.32
-29.68
-27.16
-24.8
-23.4
-23.27
-24.34
-26.4
-29.33
-33.2
-38.04
-43.77
-50.07
-56.55
-62.87
-68.94
-74.79
-80.4
-85.5
-89.71
-92.73
-94.7
-96.39
-98.94
-103.37
-110.1
-118.73
-128.35
-137.94
-146.94
-155.42
-163.76
-172.17
-180.19
-186.55
-189.53
-187.55
-179.85
-166.68
-149.06
-128.28
-105.35
-80.77
-54.75
-27.61
-0.15
26.38
50.5
70.92
86.74
97.61
103.65
105.36
103.68
99.89
95.42
91.44
88.42
85.97
83
78.31
71.33
62.55
53.46
45.84
40.87
38.44
37.23
35.46
31.96
26.93
21.92
18.99
19.57
23.63
29.78
36.1
41.11
44.42
46.57
48.35
50.16
51.73
52.41
51.65
49.46
46.51
43.82
42.42
42.85
45.01
48.18
51.25
52.99
52.59
49.85
45.16
39.17
32.35
24.55
15.16
3.51
-10.52
-26.03
-41.18
-53.65
-61.47
-63.65
-60.53
-53.48
-44.34
-34.79
-25.91
-18.22
-11.82
-6.73
-2.9
-0.16
1.98
4.27
7.62
12.62
19.35
27.26
35.44
42.92
48.97
53.14
55.23
55.2
53.15
49.43
44.61
39.48
34.77
31
28.36
26.8
26.09
26.03
26.4
26.99
27.56
27.87
27.71
26.94
25.56
23.67
21.42
18.89
16.13
13.23
10.46
8.27
7.33
8.3
11.51
16.81
23.52
30.78
37.89
44.57
50.98
57.18
62.91
67.37
69.68
69.28
66.37
61.73
56.26
50.46
44.41
38.12
31.92
26.61
22.97
21.19
20.37
18.89
15.23
8.82
0.32
-8.72
-16.74
-22.9
-27.24
-30.38
-32.94
-35.19
-37
-38.1
-38.43
-38.24
-37.94
-37.84
-37.92
-37.86
-37.13
-35.38
-32.63
-29.45
-26.55
-24.61
-23.73
-23.5
-23.1
-21.73
-19.07
-15.36
-11.36
-7.95
-5.77
-5.03
-5.51
-6.67
-8.04
-9.26
-10.28
-11.28
-12.51
-14.09
-15.94
-17.73
-19.06
-19.62
-19.31
-18.28
-16.67
-14.6
-12.12
-9.32
-6.48
-4.24
-3.33
-4.29
-7.15
-11.28
-15.65
-19.19
-21.27
-22.06
-22.4
-23.64
-26.91
-32.48
-39.18
-44.56
-45.75
-40.83
-29.92
-15.35
-0.84
10.22
16.09
17.24
15.59
13.37
12.05
12.11
13.45
15.97
19.66
24.32
29.14
32.7
33.61
31.3
26.49
20.98
16.76
15.05
15.83
18.01
20.11
21.09
20.77
19.59
18.23
17.08
16.11
15.12
14.06
13.31
13.43
14.68
16.58
18.07
17.86
15.23
10.42
4.53
-0.98
-4.97
-7
-7.29
-6.39
-4.77
-2.59
0.18
3.49
7.11
10.62
13.6
15.78
17.04
17.4
16.78
15.17
12.65
9.65
7.09
6.17
7.96
12.91
20.44
29.08
36.91
42.17
43.74
41.32
35.18
25.94
14.26
0.87
-13.3
-27.06
-39.1
-48.2
-53.63
-55.47
-54.52
-52.11
-49.57
-47.74
-46.72
-45.81
-43.93
-40.03
-33.49
-24.34
-13.14
-0.7
12.23
25.07
37.4
48.89
59.22
68.23
76.09
83.45
91.22
100.11
110.17
120.45
129.36
135.37
137.89
137.77
137.08
138.43
144.08
155.2
171.62
191.81
213.27
232.9
247.63
255.03
253.82
244.19
227.67
206.72
183.97
161.53
140.54
121
102.11
82.69
61.81
39.17
15.25
-8.86
-31.82
-52.6
-70.6
-85.73
-98.13
-108.06
-115.78
-121.51
-125.49
-127.93
-128.89
-128.37
-126.31
-122.84
-118.35
-113.46
-108.83
-104.96
-102.02
-99.86
-98.1
-96.28
-94.02
-91.12
-87.61
-83.71
-79.68
-75.77
-72.1
-68.71
-65.54
-62.56
-59.85
-57.54
-55.82
-54.8
-54.49
-54.66
-55
-55.11
-54.64
-53.43
-51.48
-48.95
-45.98
-42.71
-39.2
-35.53
-31.81
-28.3
-25.26
-22.96
-21.53
-21.03
-21.39
-22.48
-24.14
-26.12
-28.19
-30.06
-31.53
-32.49
-32.96
-33.06
-33
-33.06
-33.52
-34.61
-36.45
-39.01
-42.09
-45.49
-49.03
-52.63
-56.31
-59.93
-63.16
-65.47
-66.22
-64.92
-61.42
-55.94
-49.04
-41.39
-33.62
-26.23
-19.54
-13.83
-9.22
-5.81
-3.57
-2.36
-1.99
-2.2
-2.82
-3.67
-4.73
-6.1
-8
-10.85
-15.11
-21.15
-29.01
-38.31
-48.3
-58.11
-66.99
-74.58
-80.91
-86.25
-90.89
-94.9
-98.1
-100.09
-100.47
-98.95
-95.37
-89.77
-82.33
-73.41
-63.58
-53.59
-44.21
-36.09
-29.49
-24.24
-19.81
-15.62
-11.27
-6.88
-3.03
-0.48
0.17
-1.17
-3.99
-7.26
-9.89
-10.96
-10.08
-7.33
-3.21
1.67
6.71
11.45
15.62
19.26
22.66
26.4
31.16
37.47
45.4
54.46
63.77
72.36
79.39
84.13
85.91
84.02
77.95
67.91
55.15
41.88
30.64
23.29
20.26
20.39
21.56
21.73
19.85
16.16
11.75
7.86
5.06
3.05
0.94
-2.13
-6.49
-11.58
-16.36
-19.85
-21.63
-22.04
-21.8
-21.38
-20.61
-18.57
-14.2
-7.01
2.4
12.44
21.1
26.77
28.85
27.85
25.01
21.81
19.44
18.54
19.26
21.23
23.8
26.13
27.45
27.28
25.69
23.19
20.5
18.23
16.53
15.1
13.43
11.17
8.34
5.43
3.21
2.36
3.28
5.86
9.57
13.55
16.92
18.96
19.3
18.01
15.46
12.16
8.59
5.1
1.81
-1.2
-3.86
-6.03
-7.46
-7.94
-7.31
-5.54
-2.79
0.64
4.35
7.87
10.83
12.97
14.17
14.53
14.2
13.43
12.57
12.14
12.76
14.96
19.03
24.83
31.95
39.96
48.57
57.27
64.95
69.55
68.46
59.8
43.57
22.14
-0.48
-20.42
-35.52
-46.04
-53.75
-60.26
-65.69
-68.52
-66.71
-59.4
-47.84
-35.16
-24.95
-19.62
-19.37
-22.38
-25.73
-26.78
-24.22
-18.32
-10.44
-2.23
5.25
11.79
17.87
23.98
30.22
36.09
40.72
43.38
43.88
42.71
40.66
38.55
36.78
35.23
33.5
31.14
28.1
24.62
21.3
18.67
17.07
16.41
16.26
15.99
14.98
12.88
9.73
6.01
2.46
-0.17
-1.3
-0.78
1.14
3.97
7.13
10.09
12.47
14.1
14.92
14.9
14.09
12.57
10.45
7.98
5.47
3.3
1.81
1.19
1.47
2.43
3.76
5.1
6.21
6.94
7.28
7.29
7.06
6.65
6.13
5.61
5.17
4.98
5.31
6.56
9.16
13.47
19.55
27.08
35.24
43.04
49.55
54.21
56.99
58.34
58.99
59.69
61.08
63.78
68.27
74.69
82.56
90.58
96.93
99.89
98.58
93.4
85.8
77.52
69.7
62.34
54.37
44.41
31.53
15.65
-2.53
-22.01
-41.86
-61.5
-80.44
-98.04
-113.29
-124.83
-131.28
-131.77
-126.43
-116.56
-104.41
-92.49
-82.82
-76.38
-72.91
-71.22
-69.85
-67.65
-64.18
-59.64
-54.54
-49.18
-43.37
-36.4
-27.44
-16.02
-2.54
11.65
24.59
34.28
39.45
39.93
36.72
31.49
25.99
21.49
18.58
17.26
17.31
18.54
20.86
24.13
27.93
31.58
34.23
35.29
34.57
32.38
29.23
25.43
20.92
15.43
8.67
0.74
-7.86
-16.43
-24.34
-31.32
-37.43
-42.85
-47.61
-51.4
-53.63
-53.64
-51
-45.71
-38.19
-29.15
-19.44
-9.78
-0.74
7.29
14.02
19.19
22.57
24.07
23.9
22.74
21.59
21.47
23.08
26.48
30.99
35.55
39.04
40.7
40.24
37.78
33.57
27.86
20.84
12.84
4.43
-3.57
-10.21
-14.74
-16.84
-16.69
-14.87
-12.17
-9.31
-6.78
-4.84
-3.48
-2.59
-2
-1.59
-1.29
-1.09
-1.02
-1.08
-1.24
-1.4
-1.52
-1.62
-1.83
-2.31
-3.17
-4.38
-5.77
-7.02
-7.91
-8.38
-8.59
-8.81
-9.29
-10.07
-10.93
-11.51
-11.41
-10.41
-8.49
-5.85
-2.78
0.39
3.42
6.07
8.12
9.4
9.83
9.49
8.66
7.79
7.33
7.58
8.59
10.08
11.64
12.85
13.47
13.45
12.99
12.38
12.02
12.33
13.66
16.16
19.58
23.16
25.79
26.36
24.17
19.22
12.12
3.86
-4.61
-12.54
-19.39
-24.67
-27.89
-28.73
-27.2
-23.79
-19.45
-15.23
-11.87
-9.62
-8.23
-7.14
-5.84
-4.06
-1.83
0.66
3.16
5.56
7.87
10.14
12.45
14.7
16.7
18.2
19.06
19.36
19.41
19.67
20.42
21.69
23.14
24.28
24.68
24.23
23.17
21.95
20.96
20.41
20.21
20.06
19.68
18.86
17.51
15.58
13
9.71
5.74
1.28
-3.27
-7.42
-10.76
-13.13
-14.75
-16.21
-18.22
-21.37
-25.83
-31.19
-36.54
-40.77
-42.87
-42.37
-39.45
-34.84
-29.58
-24.62
-20.64
-17.92
-16.48
-16.23
-17.08
-18.88
-21.38
-24.17
-26.71
-28.49
-29.15
-28.61
-26.95
-24.37
-21.03
-17.11
-12.79
-8.34
-4.08
-0.4
2.31
3.72
3.61
1.91
-1.12
-4.83
-8.29
-10.53
-11.12
-10.41
-9.62
-10.34
-13.88
-20.58
-29.51
-38.71
-45.86
-48.99
-47.11
-40.43
-30.18
-18.19
-6.46
3.28
9.87
12.82
12.32
9.14
4.35
-0.91
-5.67
-9.31
-11.59
-12.58
-12.55
-11.73
-10.19
-7.81
-4.47
-0.22
4.6
9.31
13.22
15.89
17.2
17.4
16.9
16.03
14.97
13.77
12.59
11.65
11.25
11.56
12.47
13.5
14.06
13.59
11.82
8.82
4.89
0.44
-4.09
-8.3
-11.74
-14.05
-14.9
-14.22
-12.18
-9.15
-5.63
-2.13
0.95
3.26
4.54
4.7
3.8
2.11
0.05
-1.91
-3.4
-4.2
-4.36
-4.03
-3.43
-2.78
-2.12
-1.5
-0.86
-0.22
0.35
0.68
0.63
0.08
-0.96
-2.46
-4.27
-6.21
-8.02
-9.27
-9.42
-7.9
-4.34
1.26
8.36
15.99
23.07
28.69
32.4
34.21
34.53
33.94
33
32.14
31.56
31.35
31.39
31.51
31.52
31.31
31.04
31.11
32.09
34.43
38.1
42.3
45.49
45.75
41.39
31.6
16.76
-1.58
-21.24
-40.1
-56.54
-69.65
-79.17
-85.15
-87.8
-87.41
-84.43
-79.48
-73.24
-66.33
-59.13
-51.69
-43.91
-35.58
-26.63
-17.17
-7.55
1.73
10.09
16.99
22.09
25.33
26.98
27.49
27.42
27.27
27.32
27.69
28.24
28.63
28.47
27.37
25.2
22.21
19.03
16.53
15.56
16.68
20.1
25.48
31.84
37.59
40.73
39.34
32.3
19.79
3.39
-14.43
-31.24
-45.44
-56.57
-65.04
-71.44
-75.99
-78.35
-77.85
-74.09
-67.25
-58.16
-48.09
-38.3
-29.71
-22.76
-17.46
-13.59
-10.98
-9.59
-9.47
-10.58
-12.59
-14.73
-15.99
-15.42
-12.53
-7.43
-0.86
6.19
12.81
18.38
22.69
25.75
27.71
28.7
28.79
28.08
26.74
24.99
23.11
21.41
20.16
19.6
19.84
20.86
22.49
24.44
26.38
28.04
29.28
30.12
30.73
31.36
32.2
33.39
34.83
36.34
37.64
38.56
39.2
39.93
41.4
44.34
49.44
57.22
67.77
80.67
94.74
108.04
118.05
122.22
118.61
106.53
86.77
61.46
33.44
5.58
-19.89
-41.72
-59.52
-73.53
-84.21
-92.06
-97.39
-100.47
-101.52
-100.78
-98.52
-94.97
-90.33
-84.69
-78.19
-70.97
-63.25
-55.26
-47.12
-38.87
-30.45
-21.88
-13.3
-4.96
2.82
9.72
15.51
20.05
23.29
25.31
26.3
26.6
26.58
26.56
26.67
26.99
27.52
28.31
29.49
31.15
33.24
35.52
37.62
39.24
40.23
40.63
40.6
40.25
39.62
38.75
37.7
36.64
35.73
35.01
34.27
33.1
31.06
28.02
24.19
20.06
16.03
12.09
7.71
2.02
-5.7
-15.65
-27.27
-39.55
-51.34
-61.92
-71.06
-78.86
-85.42
-90.56
-93.76
-94.42
-92.19
-87.31
-80.53
-72.89
-65.4
-58.65
-52.75
-47.44
-42.31
-37.05
-31.54
-25.76
-19.7
-13.26
-6.22
1.59
10.2
19.35
28.54
37.04
44.05
48.77
50.64
49.52
45.78
40.32
34.34
28.94
24.85
22.12
20.37
18.96
17.45
15.62
13.39
10.59
6.89
1.85
-4.72
-12.66
-21.3
-29.78
-37.27
-43.17
-47.2
-49.22
-49.15
-46.92
-42.57
-36.31
-28.61
-20.1
-11.47
-3.35
3.74
9.43
13.54
16
16.98
16.82
16.02
15.12
14.6
14.77
15.73
17.31
19.15
20.79
21.82
22.01
21.39
20.28
19.13
18.31
17.98
17.94
17.77
16.95
15.27
13
10.9
10
11.2
14.81
20.39
26.89
33.09
38.07
41.47
43.56
44.89
46.08
47.57
49.65
52.34
55.35
57.85
58.63
56.43
50.61
41.62
30.92
20.38
11.42
4.44
-1.1
-6.18
-11.42
-16.76
-21.71
-25.79
-28.88
-31.25
-33.15
-34.44
-34.49
-32.5
-28.05
-21.4
-13.6
-6.17
-0.66
1.92
1.46
-1.3
-4.96
-7.96
-9.18
-8.24
-5.54
-2.15
0.67
1.82
0.63
-2.9
-8.14
-14.01
-19.21
-22.75
-24.13
-23.6
-21.86
-19.81
-18.08
-16.83
-15.71
-14.12
-11.52
-7.69
-2.8
2.7
8.27
13.47
18.13
22.17
25.65
28.52
30.65
31.98
32.63
32.99
33.75
35.65
39.08
43.97
49.65
55.07
59.23
61.42
61.48
59.65
56.45
52.28
47.37
41.78
35.63
29.25
23.24
18.28
14.9
13.24
13.08
14.04
15.78
18.19
21.31
25.09
29.13
32.6
34.54
34.2
31.53
27.14
21.98
16.91
12.26
7.82
3.15
-1.98
-7.29
-12.07
-15.54
-17.24
-17.36
-16.55
-15.63
-15.26
-15.62
-16.5
-17.33
-17.46
-16.24
-13.32
-8.74
-3.05
2.74
7.3
9.46
8.53
4.51
-1.99
-10.14
-19.22
-28.84
-38.86
-49.11
-59.24
-68.66
-76.81
-83.43
-88.63
-92.68
-95.72
-97.57
-97.7
-95.57
-90.98
-84.3
-76.39
-68.37
-61.24
-55.65
-51.72
-49.14
-47.32
-45.52
-43.15
-39.79
-35.39
-30.23
-24.85
-19.83
-15.64
-12.53
-10.41
-9
-7.91
-6.85
-5.68
-4.38
-3.04
-1.73
-0.47
0.76
2
3.29
4.63
6.06
7.61
9.28
11
12.57
13.65
13.9
13.17
11.65
9.89
8.66
8.66
10.17
12.9
16.04
18.58
19.66
18.9
16.43
12.77
8.53
4.29
0.45
-2.69
-4.94
-6.23
-6.58
-6.19
-5.37
-4.41
-3.55
-2.93
-2.7
-2.99
-4.04
-6.08
-9.21
-13.32
-18.07
-22.92
-27.21
-30.31
-31.67
-30.89
-27.82
-22.65
-15.91
-8.42
-1.04
5.57
11.12
15.73
19.72
23.35
26.67
29.44
31.4
32.39
32.66
32.78
33.43
35.07
37.61
40.43
42.54
43.01
41.22
37.06
30.75
22.67
13.23
2.89
-7.68
-17.51
-25.39
-30.31
-31.79
-30.22
-26.69
-22.6
-19.17
-17
-16.16
-16.34
-17.23
-18.71
-20.85
-23.75
-27.39
-31.55
-35.93
-40.2
-44.14
-47.56
-50.33
-52.3
-53.38
-53.6
-53.09
-52.15
-51.03
-50
-49.24
-48.82
-48.73
-48.75
-48.4
-47.03
-43.97
-38.85
-31.75
-23.31
-14.44
-6.01
1.39
7.57
12.54
16.32
18.83
19.91
19.55
18.04
15.98
14.05
12.71
12.1
11.96
11.87
11.53
10.86
9.98
9.05
8.14
7.12
5.72
3.65
0.68
-3.19
-7.72
-12.4
-16.47
-19.11
-19.62
-17.61
-13.23
-7.05
0.08
7.22
13.63
18.78
22.34
24.16
24.17
22.54
19.65
16.1
12.61
9.77
7.89
6.95
6.62
6.51
6.35
6.06
5.81
5.78
6.03
6.43
6.63
6.19
4.8
2.39
-0.75
-4
-6.57
-7.64
-6.63
-3.31
2.11
9.12
17.02
25.19
33.14
40.59
47.37
53.33
58.25
61.85
63.84
63.98
62.18
58.58
53.58
47.77
41.72
35.85
30.22
24.61
18.54
11.54
3.22
-6.53
-17.54
-29.28
-40.93
-51.54
-60.23
-66.43
-69.99
-71.02
-69.74
-66.25
-60.55
-52.65
-42.82
-31.71
-20.19
-9.14
0.81
9.32
16.22
21.36
24.63
25.99
25.71
24.38
22.76
21.54
21.04
21.2
21.58
21.78
21.51
20.72
19.49
17.93
16.04
13.89
11.59
9.34
7.32
5.49
3.61
1.25
-1.78
-5.26
-8.43
-10.38
-10.36
-8.3
-4.83
-0.99
2.18
3.99
4.15
2.56
-0.74
-5.65
-11.75
-18.12
-23.45
-26.35
-25.98
-22.34
-16.35
-9.36
-2.61
3.22
8.06
12.18
15.83
18.94
21.2
22.24
21.94
20.56
18.64
16.68
14.95
13.38
11.71
9.85
8.02
6.76
6.65
8.04
10.92
15
19.92
25.42
31.3
37.27
42.76
47.01
49.24
49.11
46.83
43.1
38.77
34.48
30.53
26.86
23.27
19.62
15.92
12.24
8.62
4.98
1.06
-3.41
-8.57
-14.3
-20.04
-24.94
-28.04
-28.66
-26.62
-22.38
-16.85
-11.07
-5.84
-1.54
1.74
4.13
5.65
6.24
5.77
4.28
2.02
-0.51
-2.8
-4.52
-5.65
-6.49
-7.46
-8.93
-11.03
-13.69
-16.75
-20.11
-23.81
-27.99
-32.8
-38.18
-43.86
-49.32
-53.93
-57.1
-58.43
-57.82
-55.44
-51.72
-47.28
-42.72
-38.62
-35.34
-33.01
-31.58
-30.87
-30.69
-30.92
-31.47
-32.24
-33.02
-33.53
-33.47
-32.67
-31.22
-29.37
-27.48
-25.83
-24.45
-23.18
-21.73
-19.88
-17.65
-15.32
-13.37
-12.3
-12.41
-13.55
-15.1
-16.1
-15.57
-12.89
-8.09
-1.87
4.63
10.33
14.5
17.03
18.22
18.53
18.25
17.45
16.09
14.17
11.95
9.89
8.39
7.66
7.55
7.77
8.02
8.22
8.51
9.08
9.96
10.9
11.42
10.98
9.21
6.02
1.67
-3.3
-8.14
-12.04
-14.24
-14.26
-11.99
-7.71
-2.02
4.3
10.57
16.29
21.12
24.82
27.22
28.21
27.81
26.28
24.07
21.75
19.77
18.38
17.64
17.43
17.61
18.05
18.65
19.24
19.59
19.47
18.69
17.19
14.98
12.05
8.42
4.08
-0.75
-5.6
-9.7
-12.23
-12.58
-10.63
-6.75
-1.71
3.65
8.59
12.63
15.5
17.05
17.26
16.29
14.49
12.42
10.62
9.49
9.16
9.5
10.28
11.32
12.56
13.97
15.49
16.95
18.09
18.76
18.84
18.29
17.01
14.83
11.56
7.2
2.15
-2.79
-6.61
-8.44
-7.89
-5.21
-1.09
3.61
8.2
12.31
15.81
18.68
20.81
22.04
22.21
21.34
19.67
17.59
15.51
13.61
11.82
9.87
7.44
4.34
0.6
-3.51
-7.61
-11.27
-14.14
-15.88
-16.34
-15.57
-13.88
-11.84
-10.11
-9.13
-8.93
-9.03
-8.65
-7.11
-4.08
0.14
4.87
9.28
12.73
14.92
15.86
15.76
14.87
13.4
11.56
9.6
7.74
6.17
4.99
4.15
3.49
2.89
2.34
1.92
1.76
1.91
2.22
2.36
1.81
0.19
-2.67
-6.61
-11.14
-15.53
-19.05
-21.12
-21.46
-20.09
-17.36
-13.76
-9.84
-6.14
-3.16
-1.32
-0.92
-2.07
-4.57
-7.94
-11.51
-14.59
-16.65
-17.48
-17.16
-16.02
-14.49
-12.97
-11.78
-11.03
-10.71
-10.77
-11.22
-12.21
-13.97
-16.66
-20.12
-23.76
-26.65
-27.88
-26.87
-23.59
-18.49
-12.19
-5.16
2.37
10.26
18.29
25.96
32.56
37.41
40.17
40.96
40.27
38.77
37.03
35.55
34.66
34.55
35.3
36.7
38.27
39.35
39.34
37.99
35.55
32.71
30.33
29.07
29.14
30.3
32.08
34.18
36.67
40.1
45.27
52.95
63.54
76.85
92.01
107.6
121.91
133.21
140.08
141.59
137.49
128.32
115.3
100.24
85.18
71.87
61.41
53.95
48.86
45.12
41.88
38.82
36.25
34.76
34.73
35.99
37.83
39.34
39.89
39.5
38.88
39.17
41.45
46.39
53.99
63.69
74.51
85.21
94.46
100.87
103.16
100.35
92.1
78.91
62.15
43.76
25.72
9.44
-4.62
-16.93
-28.58
-40.7
-53.96
-68.32
-83.22
-97.74
-110.84
-121.53
-128.87
-132.04
-130.31
-123.31
-110.98
-93.8
-72.6
-48.45
-22.41
4.51
31.52
57.87
82.79
105.27
123.84
136.52
141.1
135.85
120.39
96.36
67.24
37.54
11.39
-8.67
-22.07
-30
-34.37
-36.86
-38.47
-39.54
-40.26
-41.04
-42.68
-46.17
-52.33
-61.37
-72.73
-85.2
-97.2
-107.39
-115.01
-120.16
-123.45
-125.58
-126.84
-127.01
-125.67
-122.67
-118.46
-114.06
-110.71
-109.31
-110.19
-112.99
-116.92
-121.19
-125.17
-128.63
-131.65
-134.72
-138.59
-144.27
-152.68
-164.02
-176.98
-188.42
-193.87
-188.99
-171.34
-141.72
-104.21
-64.84
-29.54
-2.56
14.04
19.92
15.94
3.95
-12.62
-28.66
-38.01
-35.4
-18.59
10.3
45.34
78.69
103.08
113.82
109.79
93.52
70.62
48.51
34.57
34.03
48.12
73.56
103.8
131.52
151.24
160.74
160.91
154.35
143.8
131.32
118.27
105.92
95.77
89.38
87.8
90.89
96.96
102.88
104.79
99.23
84.13
59.32
26.37
-12.12
-53.29
-94.22
-131.75
-162.23
-181.92
-187.96
-179.64
-159.19
-131.35
-102.01
-76.5
-58.38
-49.08
-48.21
-54.25
-64.94
-77.67
-89.89
-99.52
-105.46
-107.6
-106.6
-103.53
-99.39
-95.06
-91.21
-88.34
-86.59
-85.58
-84.49
-82.32
-78.39
-72.64
-65.59
-57.91
-49.91
-41.28
-31.36
-19.66
-6.43
7.23
19.72
29.65
36.39
40.29
42.44
44.06
45.98
48.45
51.2
53.71
55.39
55.59
53.76
49.48
42.81
34.49
26.05
19.59
17.2
20.28
29.14
42.79
59.38
76.64
92.57
105.77
115.56
121.85
125.02
125.72
124.93
123.76
123.31
124.2
126.39
129.08
131.18
131.9
131.29
130.2
129.92
131.42
134.85
139.34
143.37
145.38
144.16
139.01
129.71
116.49
100.36
83.28
68.14
58
54.82
58.28
65.39
71.22
70.72
60.6
40.6
13.35
-16.96
-46.29
-72.17
-94.11
-113.17
-130.98
-149
-168.07
-188.22
-208.69
-227.96
-243.81
-253.85
-256.17
-250.28
-237.52
-220.87
-203.96
-189.8
-179.83
-173.51
-168.84
-163.2
-154.31
-140.86
-122.77
-101.1
-77.77
-55.1
-35.25
-19.69
-8.92
-2.51
0.57
1.61
1.67
1.53
1.67
2.41
3.87
6.05
8.77
11.68
14.36
16.57
18.21
19.38
20.2
20.63
20.38
18.97
16.03
11.56
6.08
0.65
-3.45
-5.07
-3.62
0.73
7.17
14.48
21.41
27
30.73
32.47
32.42
30.95
28.51
25.55
22.45
19.56
17.1
15.18
13.8
12.88
12.27
11.8
11.25
10.47
9.28
7.54
5.09
1.78
-2.46
-7.52
-12.95
-18.01
-21.76
-23.25
-21.87
-17.44
-10.35
-1.42
8.23
17.43
25.08
30.33
32.7
32.14
29.08
24.33
18.91
13.79
9.73
7.04
5.65
5.15
4.97
4.6
3.77
2.45
0.78
-1.09
-3.19
-5.7
-8.95
-13.12
-18.09
-23.34
-28.01
-31.15
-31.96
-30.02
-25.33
-18.31
-9.71
-0.51
8.17
15.27
19.91
21.63
20.55
17.3
12.93
8.6
5.27
3.45
3.17
4.1
5.7
7.5
9.18
10.64
11.85
12.76
13.2
12.92
11.63
9.1
5.24
0.14
-5.92
-12.38
-18.4
-22.93
-24.9
-23.6
-18.87
-11.24
-1.84
7.93
16.76
23.54
27.57
28.5
26.49
22.07
16.19
9.96
4.43
0.3
-2.17
-3.07
-2.69
-1.39
0.51
2.65
4.56
5.76
5.81
4.47
1.69
-2.38
-7.4
-12.87
-18.1
-22.26
-24.51
-24.26
-21.41
-16.33
-9.77
-2.58
4.48
10.82
16.03
19.61
21.14
20.38
17.47
13.2
8.93
6.38
7.08
11.93
20.95
33.35
47.89
63.27
78.45
92.62
105.1
115.22
122.34
125.9
125.52
121.01
112.62
101.39
89.45
80.04
76.57
81.05
92.77
107.85
120.28
124.08
115.53
94.37
63.66
28.56
-5.28
-33.08
-51.88
-61.14
-62.93
-61.58
-62.3
-68.91
-81.84
-97.43
-109.51
-112.41
-104
-86.97
-67.69
-53.56
-50.22
-60.08
-82.33
-113.83
-150.09
-185.85
-215.29
-232.67
-233.41
-215.43
-180.09
-132.15
-78.7
-27.46
14.91
44.19
59.2
61.75
55.74
45.66
35.22
26.49
19.77
14.17
8.43
1.38
-7.89
-20.06
-35.31
-53.09
-71.82
-89.07
-102.24
-109.44
-110.04
-104.7
-94.64
-80.91
-63.91
-43.54
-19.83
6.42
33.47
59
80.94
98.19
111.01
120.67
128.62
135.76
142.05
146.81
149.41
149.87
148.87
147.26
145.41
142.92
138.83
132.39
123.66
113.94
105.5
101.11
103.12
112.64
128.7
147.82
164.4
172.06
165.54
142.45
104.1
54.92
0.91
-52.1
-99.67
-139.09
-169.37
-190.91
-205.14
-214.05
-219.09
-220
-214.24
-197.82
-167.75
-124.84
-75.34
-29.99
-0.62
4.17
-17.81
-61.9
-118.99
-179.15
-234.78
-281.65
-317.9
-342.44
-353.84
-350.77
-333.25
-303.72
-267.01
-228.78
-193.59
-163.45
-137.6
-113.55
-88.6
-60.89
-29.87
4.08
39.89
76.07
110.73
141.75
167.32
186.38
199.09
206.59
210.58
212.64
213.89
215
216.33
217.94
219.5
220.17
218.9
215.04
209.13
202.89
198.71
198.49
202.61
209.73
217.29
222.15
221.22
211.69
191.35
159.23
116.16
64.94
9.54
-46.27
-100.09
-150.92
-198.06
-239.79
-272.62
-292.31
-295.69
-282.39
-255.1
-218.3
-175.97
-130.08
-80.74
-27.92
26.37
77.22
117.91
142.64
149.32
141.06
125.35
111.21
105.68
111.44
126.47
145.69
163.79
177.44
186.17
191.56
195.41
198.06
197.57
190.26
172.13
140.54
95.58
40.29
-20.11
-79.61
-132.79
-175.66
-205.76
-221.82
-223.34
-210.52
-184.54
-147.94
-104.7
-59.74
-17.92
17.05
43.39
61.53
73.58
82.39
90.58
99.89
110.97
123.65
137.65
152.96
169.77
187.9
205.83
220.29
226.71
220.52
198.81
161.35
110.68
51.23
-11.64
-72.18
-124.49
-162.75
-182.41
-182
-164.38
-136.61
-107.73
-85.51
-73.98
-72.96
-79.69
-91.13
-105.44
-121.82
-139.27
-155.48
-167.07
-171.14
-166.96
-156.69
-144.44
-134.15
-127.47
-122.88
-116.33
-103.24
-80.87
-49.94
-14.69
18.49
43.66
57.56
60.69
56.74
50.57
45.91
43.86
42.73
39.41
31.08
16.87
-1.68
-20.97
-36.61
-44.75
-43.1
-31.38
-11.09
15.12
44.41
74.17
102.23
126.67
145.6
157.27
160.59
155.58
143.73
127.69
110.46
94.55
81.26
70.63
61.86
53.94
46.31
39.07
32.84
28.22
25.31
23.48
21.43
17.71
11.39
2.6
-7.32
-16.17
-21.78
-22.83
-19.47
-13.19
-6.18
-0.35
3.46
5.58
7.09
8.98
11.45
13.9
15.26
14.81
12.59
9.4
6.24
3.75
1.9
0.17
-1.86
-4.11
-5.93
-6.48
-5.29
-2.65
0.37
2.37
2.16
-0.85
-6.52
-14.2
-23.05
-32.37
-41.51
-49.86
-56.65
-60.94
-61.71
-58.18
-50.02
-37.55
-21.76
-4.2
13.22
28.51
39.98
46.45
47.57
43.75
36.17
26.4
16.16
6.99
0.06
-3.99
-5.12
-3.82
-0.89
2.91
7.11
11.68
16.8
22.53
28.49
33.73
37.05
37.38
34.2
27.82
19.23
9.82
1.06
-5.89
-10.3
-11.93
-10.98
-7.94
-3.44
1.96
7.83
13.92
20.07
26.1
31.77
36.82
41.06
44.51
47.37
50.02
52.7
55.44
57.95
59.71
60.27
59.52
57.85
55.98
54.57
53.75
52.95
51.02
46.87
40.03
31.04
21.26
12.32
5.45
1.13
-0.78
-0.67
1.28
5.09
10.74
17.81
25.34
32.07
36.88
39.17
38.88
36.21
31.24
23.79
13.74
1.43
-12.02
-24.82
-35.21
-42.06
-45.41
-46.36
-46.53
-47.33
-49.44
-52.71
-56.47
-60.09
-63.38
-66.71
-70.98
-77.09
-85.6
-96.45
-108.78
-121.18
-131.96
-139.67
-143.47
-143.23
-139.52
-133.26
-125.33
-116.47
-107.02
-97.13
-86.74
-75.7
-63.75
-50.61
-36.13
-20.43
-4.06
11.93
26.32
37.95
46.15
50.88
52.74
52.73
52.01
51.48
51.63
52.39
53.25
53.5
52.49
49.88
45.63
39.93
33.1
25.5
17.66
10.31
4.43
0.99
0.63
3.36
8.41
14.52
20.26
24.44
26.41
25.97
23.3
18.8
13
6.68
0.77
-3.73
-6.06
-5.98
-3.9
-0.75
2.41
4.87
6.45
7.4
8.12
8.77
9.22
9.09
8.1
6.26
3.86
1.27
-1.24
-3.58
-5.75
-7.66
-9.02
-9.37
-8.31
-5.76
-1.97
2.53
7.21
11.69
15.77
19.4
22.44
24.61
25.47
24.69
22.16
18.12
13.07
7.62
2.24
-2.84
-7.53
-11.85
-15.76
-19.18
-22.06
-24.53
-26.88
-29.54
-32.94
-37.3
-42.47
-47.84
-52.52
-55.46
-55.82
-53.33
-48.32
-41.82
-35.1
-29.35
-25.24
-22.87
-21.88
-21.75
-22.04
-22.5
-22.94
-23.12
-22.71
-21.37
-18.88
-15.32
-11.04
-6.57
-2.4
1.12
3.9
5.96
7.4
8.26
8.52
8.09
6.84
4.71
1.76
-1.77
-5.37
-8.44
-10.33
-10.61
-9.17
-6.31
-2.57
1.45
5.26
8.6
11.4
13.59
15.12
15.89
15.88
15.17
14.07
12.95
12.15
11.8
11.82
11.94
11.87
11.45
10.68
9.66
8.52
7.27
5.74
3.74
1.1
-2.22
-6.04
-10.08
-14.02
-17.48
-20.05
-21.26
-20.66
-17.87
-12.85
-5.92
2.15
10.37
17.76
23.55
27.39
29.28
29.45
28.25
26.05
23.25
20.32
17.72
15.87
14.94
14.79
14.94
14.86
14.12
12.58
10.49
8.34
6.61
5.58
5.19
5.04
4.57
3.29
1.08
-1.79
-4.62
-6.5
-6.65
-4.6
-0.39
5.54
12.47
19.54
25.93
30.89
33.82
34.31
32.3
28.14
22.54
16.39
10.46
5.23
0.78
-3.04
-6.41
-9.38
-11.79
-13.46
-14.3
-14.49
-14.37
-14.35
-14.74
-15.71
-17.25
-19.3
-21.75
-24.4
-26.9
-28.69
-29.12
-27.62
-23.98
-18.45
-11.75
-4.86
1.26
5.92
8.78
9.94
9.73
8.7
7.41
6.47
6.33
7.25
9.12
11.43
13.38
14.17
13.33
10.93
7.62
4.3
1.75
0.19
-0.77
-2.05
-4.59
-8.88
-14.75
-21.36
-27.51
-32.04
-34.19
-33.71
-30.82
-26.05
-20
-13.29
-6.64
-0.83
3.36
5.29
4.8
2.34
-1.1
-4.31
-6.29
-6.53
-5.05
-2.34
1.04
4.57
7.89
10.68
12.7
13.75
13.82
13.09
11.8
10.11
8.03
5.45
2.5
-0.31
-2.01
-1.56
1.71
7.69
15.41
23.52
30.7
36.15
39.66
41.38
41.59
40.43
37.94
34.19
29.34
23.66
17.47
11.07
4.72
-1.34
-6.97
-12.06
-16.62
-20.69
-24.35
-27.65
-30.7
-33.61
-36.53
-39.55
-42.53
-45
-46.28
-45.71
-42.95
-38.13
-31.79
-24.57
-16.99
-9.32
-1.8
5.24
11.17
15.29
17.05
16.35
13.61
9.62
5.21
1.01
-2.67
-5.82
-8.6
-11.26
-13.99
-16.97
-20.36
-24.35
-29.17
-35.11
-42.4
-50.91
-60.06
-68.86
-76.25
-81.58
-84.91
-86.89
-88.3
-89.34
-89.37
-87.14
-81.48
-72.13
-60.05
-47.12
-35.3
-25.87
-19.05
-14.29
-10.73
-7.86
-5.61
-4.12
-3.37
-2.93
-2.03
0.07
3.62
8.17
12.71
15.99
17
15.26
10.91
4.51
-3.15
-11.4
-19.77
-27.97
-35.75
-42.73
-48.3
-51.73
-52.36
-49.72
-43.81
-35.06
-24.31
-12.58
-0.87
9.96
19.21
26.37
31.06
33.1
32.67
30.44
27.58
25.48
25.3
27.53
31.79
37.03
42.02
45.81
47.96
48.34
46.83
43.22
37.4
29.75
21.49
14.55
10.95
12.13
18.36
28.56
40.79
52.84
62.89
69.89
73.62
74.64
73.95
72.66
71.7
71.58
72.3
73.43
74.23
73.84
71.39
66.2
58.05
47.51
36.04
25.84
19.18
17.55
20.94
27.71
35.2
40.85
43.27
42.79
41.14
40.56
42.74
48.24
56.39
65.83
75.08
82.99
88.89
92.47
93.61
92.32
88.79
83.49
77.26
71.05
65.64
61.37
57.9
54.42
49.91
43.52
34.82
23.87
11.06
-3.19
-18.55
-34.82
-51.85
-69.3
-86.5
-102.47
-116.05
-126.05
-131.66
-132.6
-129.17
-122.12
-112.43
-101.15
-89.38
-78.31
-69.24
-63.22
-60.63
-60.88
-62.35
-63
-61
-55.38
-46.18
-34.22
-20.66
-6.72
6.42
17.57
25.6
29.76
29.91
26.56
20.61
12.77
3.41
-7.31
-18.85
-29.8
-38.1
-41.86
-40.5
-35.38
-29.37
-25.63
-26.09
-30.63
-37.47
-44.31
-49.64
-53.21
-55.65
-57.37
-57.74
-55.04
-47.27
-33.14
-12.82
12.09
39.26
66.39
91.62
113.59
131.26
143.92
151.45
154.57
154.73
153.49
151.79
149.3
144.59
135.93
122.45
104.73
84.64
64.39
45.52
28.35
12.41
-2.69
-16.43
-27.29
-33.52
-34.39
-30.98
-26.16
-23.49
-25.77
-33.7
-45.73
-58.72
-69.36
-75.43
-76.54
-74.05
-70.45
-68.44
-70.06
-76.38
-87.34
-101.97
-118.78
-136.12
-152.46
-166.49
-177.13
-183.61
-185.58
-183.37
-178.02
-171.02
-163.75
-156.96
-150.36
-142.74
-132.46
-118.18
-99.42
-76.84
-52.1
-27.49
-5.36
12.28
24.12
29.77
29.78
25.59
19.17
12.55
7.43
4.98
5.77
9.94
17.39
27.79
40.6
54.81
68.98
81.41
90.69
96.14
98.14
97.93
97.07
96.79
97.49
98.68
99.37
98.61
96.04
92.18
88.36
86.38
88.11
94.87
106.72
121.86
136.44
145
141.8
122.45
85.51
33.32
-28.35
-91.77
-149.06
-193.84
-222.07
-232.23
-224.96
-202.65
-168.95
-128.36
-85.7
-45.39
-10.99
15.43
33.38
43.96
49.4
52.48
55.75
60.96
68.65
78
87.22
94.2
97.3
95.89
90.46
82.45
73.73
66.28
61.74
61.3
65.52
74.27
86.63
101.02
115.36
127.5
135.68
138.94
137.36
131.91
123.92
114.54
104.31
93.15
80.7
66.87
52.2
37.89
25.31
15.42
8.46
3.96
1.03
-1.25
-3.82
-7.7
-14.18
-24.47
-39.11
-57.34
-76.92
-94.59
-107.21
-112.64
-110.33
-101.07
-86.37
-67.83
-46.91
-25.11
-4.2
13.91
27.58
36.12
40.14
41.39
42.07
43.79
46.83
49.99
51.14
48.28
40.6
28.99
15.77
3.64
-5.63
-12.07
-17.4
-24.13
-34.13
-47.63
-63
-77.5
-88.56
-94.86
-96.76
-95.82
-93.77
-91.56
-88.95
-84.87
-78.31
-69.24
-59
-49.9
-44.23
-43.06
-45.69
-49.87
-52.8
-52.33
-47.79
-39.9
-30.01
-19.24
-7.99
3.62
14.85
23.64
26.78
21.2
5.72
-17.73
-44.39
-68.34
-84.88
-92.26
-92.18
-88.54
-85.5
-85.87
-90.35
-97.99
-107.11
-116.17
-124.11
-130.27
-134.03
-134.73
-131.7
-124.47
-112.82
-96.84
-76.99
-54.02
-29.01
-3.33
21.45
43.74
62.07
75.28
82.61
83.92
79.87
71.93
62.3
53.44
47.35
45.09
46.49
50.46
55.5
60.33
64.26
67.13
69.15
70.62
71.71
72.42
72.52
71.59
69.19
64.97
58.94
51.6
43.76
36.25
29.64
23.97
18.89
13.76
7.91
0.8
-7.85
-17.86
-28.55
-38.77
-47.26
-53.05
-55.93
-56.47
-55.61
-54.08
-51.81
-48
-41.46
-31.42
-18.03
-2.52
13.26
27.34
38.29
45.48
49.09
49.92
48.92
46.97
44.64
42.25
40.2
39.08
39.77
42.96
48.7
56.05
63.16
67.86
68.51
64.62
56.94
47.01
36.43
26.29
16.96
8.38
0.44
-6.61
-12.22
-15.64
-16.22
-13.68
-8.35
-1.23
6.09
11.77
14.21
12.62
7.28
-0.6
-9.27
-17.05
-22.7
-25.52
-25.32
-22.4
-17.77
-13.34
-11.79
-15.77
-26.78
-44.11
-64.76
-84.5
-99.45
-107.58
-109.21
-106.29
-101.03
-94.72
-87.4
-78.37
-67.12
-53.88
-39.57
-25.24
-11.5
1.61
14.16
25.89
35.82
42.55
44.86
42.46
36.37
28.79
22.49
19.79
21.78
27.81
35.71
42.6
45.99
44.78
39.68
32.77
26.64
23.29
23.53
26.94
32.47
39.06
46.22
53.89
62.12
70.71
79.1
86.6
92.7
97.28
100.63
103.45
106.85
112.29
121.21
134.21
150.07
165.11
173.93
171.15
153.83
123.19
84.55
45.36
12.13
-11.93
-27.6
-38.3
-47.57
-57.12
-66.04
-71.78
-71.87
-65.48
-53.88
-39.65
-25.39
-12.73
-1.99
6.99
14.06
18.27
18.17
12.78
2.48
-10.67
-23.56
-33.27
-38.27
-39
-37.39
-35.7
-35.3
-36.06
-36.83
-36.67
-35.9
-36.42
-40.81
-50.76
-65.6
-82.18
-95.96
-103.11
-102.15
-94.44
-83.34
-72.51
-64.51
-60.17
-58.74
-58.63
-58.08
-55.72
-50.92
-43.83
-35.4
-27.05
-20.1
-15.39
-13.05
-12.71
-13.83
-15.91
-18.55
-21.23
-23.12
-23.39
-21.55
-17.85
-13.29
-9.22
-6.64
-5.83
-6.23
-6.85
-6.84
-5.86
-4.29
-2.96
-2.66
-3.74
-5.87
-8.05
-8.91
-7.17
-2.03
6.55
17.89
30.71
43.5
54.72
63.07
67.62
68.03
64.66
58.49
50.76
42.54
34.36
26.1
17.38
7.93
-2.03
-11.91
-20.98
-28.67
-34.68
-38.81
-40.76
-40.1
-36.62
-30.69
-23.45
-16.52
-11.18
-7.62
-4.61
0.08
8.6
21.74
38.3
55.3
69.03
76.42
76.02
68.28
54.99
38.35
20.25
2.11
-15.04
-30.25
-42.93
-53.19
-62.14
-71.4
-82.04
-93.6
-103.79
-109.57
-108.76
-101.41
-89.89
-77.45
-66.44
-57.13
-48.04
-37.41
-24.77
-11.44
0.39
9.15
15
19.71
25.63
34.38
46.1
59.66
73.31
85.33
94.44
99.81
101.18
99.05
94.73
90.06
86.61
84.93
84.23
82.95
79.89
75.25
70.83
69.39
73.31
83.65
99.99
120.87
144.53
169.1
192.31
211.16
222.2
222.67
211.97
192.46
168.74
145.75
126.54
110.99
96.3
78.92
56.77
30.48
3.05
-21.91
-42.07
-57.56
-70.65
-84.52
-101.59
-122.51
-146.14
-170.34
-192.97
-212.68
-229.12
-242.63
-253.78
-263.01
-270.37
-275.57
-277.96
-276.53
-270.03
-257.22
-237.48
-211.34
-180.75
-148.81
-119.08
-94.85
-78.63
-71.91
-75.22
-87.96
-108.35
-133.13
-157.73
-176.84
-185.63
-181.07
-162.84
-133.57
-98
-61.77
-29.61
-4.09
14.98
30.2
45.12
62.44
82.49
102.94
119.82
129.51
130.73
125.3
117.48
111.95
111.6
116.47
124.07
131.14
135.43
136.58
135.58
133.63
131.01
126.85
119.97
109.81
97.18
83.85
71.56
60.91
51.08
40.24
26.82
10.49
-7.6
-25.42
-41.08
-53.76
-63.93
-72.83
-81.76
-91.27
-100.91
-109.42
-115.3
-117.31
-114.86
-107.96
-96.94
-82.31
-64.67
-44.94
-24.65
-5.82
9.51
20.12
26.33
30.18
34.77
42.93
56.03
73.2
91.74
108.15
119.46
124.2
122.68
116.71
108.87
101.7
97.03
95.6
96.94
99.66
101.87
101.58
97.02
86.91
70.98
50.5
28.43
9.03
-3.5
-6.88
-1.91
7.53
16.11
19.43
15.88
7.01
-3.81
-13.46
-20.61
-25.88
-30.88
-36.7
-43.27
-49.52
-54.42
-57.69
-60.01
-62.42
-65.58
-69.24
-72.53
-74.48
-74.68
-73.44
-71.41
-69.07
-66.31
-62.46
-56.66
-48.4
-37.83
-25.77
-13.39
-1.78
8.24
16.32
22.39
26.55
28.94
29.7
29.07
27.46
25.43
23.57
22.35
21.94
22.1
22.3
22
20.92
19.17
17.12
15.16
13.34
11.36
8.8
5.55
2.11
-0.48
-1.14
0.71
4.8
10.03
15.05
18.8
20.96
21.93
22.45
23.2
24.52
26.4
28.64
31.03
33.45
35.82
38.02
40.02
41.8
43.48
45.17
46.87
48.29
48.86
47.88
44.75
39.23
31.49
22.11
12.01
2.25
-6.08
-12.08
-15.36
-16.14
-15.19
-13.53
-11.91
-10.53
-9.13
-7.3
-4.96
-2.56
-0.9
-0.65
-1.94
-4.16
-6.2
-6.85
-5.26
-1.08
5.48
13.86
23.23
32.65
41.12
47.6
51.13
50.95
46.69
38.53
27.32
14.44
1.7
-9.11
-16.49
-19.59
-18.41
-13.81
-7.35
-0.83
4.21
6.93
7.36
6.27
4.78
3.85
4
5.22
7.22
9.67
12.51
15.89
20.02
24.84
29.95
34.58
37.9
39.14
37.8
33.59
26.47
16.77
5.34
-6.37
-16.52
-23.41
-26.04
-24.63
-20.38
-15.04
-10.11
-6.42
-4.08
-2.85
-2.49
-2.89
-3.94
-5.21
-5.93
-5.26
-2.69
1.55
6.53
10.98
13.86
14.9
14.61
14.04
14.17
15.46
17.59
19.56
20.19
18.52
14.2
7.52
-0.74
-9.6
-18.02
-25.05
-29.86
-31.78
-30.42
-25.79
-18.44
-9.35
0.17
8.75
15.23
18.81
19.23
16.78
12.22
6.63
1.06
-3.69
-7.27
-9.77
-11.57
-13.11
-14.7
-16.44
-18.33
-20.27
-22.31
-24.64
-27.65
-31.79
-37.39
-44.57
-53
-61.91
-70.24
-76.78
-80.55
-81.05
-78.45
-73.67
-68.22
-63.77
-61.77
-62.81
-66.5
-71.35
-75.39
-76.8
-74.52
-68.59
-59.88
-49.7
-39.2
-29.17
-20.08
-12.36
-6.5
-3.05
-2.34
-4.18
-7.87
-12.35
-16.6
-19.82
-21.61
-21.86
-20.59
-17.86
-13.74
-8.26
-1.51
6.34
14.93
23.69
31.83
38.45
42.79
44.61
44.18
42.27
39.7
37.05
34.39
31.51
28.2
24.65
21.54
19.73
19.83
21.68
24.38
26.56
26.95
24.81
20.14
13.47
5.59
-2.69
-10.58
-17.17
-21.51
-22.69
-20.21
-14.24
-5.8
3.55
12.16
18.73
22.65
24.09
23.67
22.24
20.53
19.04
18.05
17.67
17.94
18.74
19.71
20.27
19.67
17.3
12.91
6.86
-0.05
-6.93
-13.19
-18.86
-24.36
-30.16
-36.22
-41.8
-45.72
-46.9
-44.93
-40.26
-33.96
-27.27
-21.14
-16.12
-12.54
-10.61
-10.55
-12.47
-16.13
-20.93
-25.96
-30.36
-33.53
-35.21
-35.47
-34.58
-32.82
-30.54
-28.05
-25.68
-23.6
-21.88
-20.48
-19.29
-18.33
-17.7
-17.54
-17.69
-17.61
-16.38
-12.91
-6.38
3.36
15.64
29.1
42.14
53.28
61.55
66.59
68.55
67.91
65.35
61.65
57.66
54.23
52.02
51.38
52.13
53.65
55.12
55.83
55.44
54.06
52.11
49.99
47.85
45.46
42.33
37.93
32.04
24.87
17.07
9.57
3.32
-1.03
-3.15
-3.15
-1.42
1.48
4.9
8.11
10.45
11.35
10.51
7.97
4.22
0.01
-3.82
-6.61
-8.09
-8.42
-8.03
-7.45
-7.08
-7.12
-7.65
-8.64
-10.12
-12.21
-15.01
-18.55
-22.71
-27.2
-31.62
-35.59
-38.71
-40.66
-41.14
-39.88
-36.71
-31.73
-25.25
-17.97
-10.78
-4.64
-0.35
1.67
1.38
-0.78
-4.14
-7.89
-11.34
-13.98
-15.54
-15.99
-15.38
-13.93
-11.94
-9.83
-8.13
-7.33
-7.74
-9.34
-11.83
-14.72
-17.57
-20.13
-22.32
-24.11
-25.32
-25.6
-24.53
-21.75
-17.21
-11.19
-4.26
2.86
9.48
15.02
19.11
21.58
22.44
21.93
20.4
18.29
16.05
14.08
12.66
11.97
12.03
12.79
14.11
15.78
17.6
19.33
20.78
21.74
21.99
21.28
19.35
16.09
11.57
6.26
0.96
-3.3
-5.6
-5.33
-2.48
2.35
8.17
13.8
18.24
20.85
21.37
19.84
16.5
11.71
5.99
0.03
-5.35
-9.33
-11.36
-11.34
-9.69
-7.23
-4.93
-3.51
-3.34
-4.32
-6.19
-8.64
-11.43
-14.39
-17.26
-19.57
-20.7
-20.13
-17.65
-13.52
-8.35
-2.87
2.39
7.16
11.35
14.79
17.09
17.71
16.22
12.56
7.26
1.35
-4.01
-7.86
-9.82
-10.13
-9.58
-9.1
-9.52
-11.3
-14.42
-18.4
-22.53
-26.09
-28.61
-29.99
-30.47
-30.34
-29.75
-28.43
-25.9
-21.64
-15.48
-7.7
0.96
9.6
17.36
23.64
28.02
30.2
30.01
27.53
23.19
17.91
12.83
9.08
7.32
7.63
9.56
12.35
15.29
17.94
20.12
21.91
23.43
24.73
25.69
25.88
24.61
21.15
14.94
5.97
-5.09
-16.9
-27.83
-36.41
-41.72
-43.61
-42.58
-39.56
-35.56
-31.43
-27.75
-24.8
-22.64
-21.16
-20.2
-19.5
-18.87
-18.05
-16.88
-15.29
-13.4
-11.52
-10.09
-9.49
-9.85
-11.06
-12.85
-14.94
-17.24
-19.86
-22.92
-26.42
-30.07
-33.34
-35.6
-36.42
-35.69
-33.66
-30.84
-27.73
-24.71
-22.06
-20.05
-19.02
-19.39
-21.34
-24.64
-28.57
-32.19
-34.64
-35.46
-34.48
-31.64
-26.68
-19.31
-9.52
1.95
13.58
23.35
29.55
31.31
28.82
23.06
15.27
6.66
-1.72
-8.84
-13.7
-15.47
-13.78
-8.99
-2.1
5.52
12.52
17.95
21.46
23.23
23.74
23.54
23.09
22.59
22.03
21.34
20.47
19.52
18.77
18.55
19.15
20.64
22.85
25.35
27.59
29.07
29.4
28.45
26.46
23.95
21.79
20.95
22.24
25.95
31.61
38.02
43.6
46.93
47.26
44.75
40.31
35.21
30.6
27.25
25.46
25.22
26.28
28.26
30.63
32.7
33.69
33
30.32
25.82
20.1
14.07
8.67
4.6
2.17
1.24
1.38
2.04
2.78
3.4
3.97
4.86
6.55
9.48
13.85
19.48
25.75
31.75
36.68
40.14
42.26
43.57
44.55
45.34
45.54
44.57
42.07
38.33
34.46
31.93
32.01
35.01
39.83
44.16
45.07
40.03
27.83
9.17
-13.49
-36.67
-56.82
-71.34
-79.1
-80.66
-78.02
-73.94
-71.16
-71.48
-75.14
-80.74
-85.81
-87.94
-85.84
-79.92
-72.04
-64.58
-59.23
-56.2
-54.18
-51.16
-45.31
-35.92
-23.45
-9.22
5.4
19.61
33.45
47.54
62.47
78.19
93.84
108.1
119.73
128
132.64
133.51
130.15
121.88
108.22
89.42
66.59
41.34
15.2
-10.64
-35.14
-56.77
-73.12
-81.47
-79.89
-68.38
-49.26
-26.26
-3.06
17.98
36.07
51.37
64.1
73.9
79.99
81.67
78.7
71.35
60.23
46.25
30.74
15.83
4.36
-0.72
2.7
14.8
33.28
53.8
71.2
81.14
81.44
72.79
58.35
42.41
28.82
19.51
14.14
10.64
6.37
-0.97
-12.71
-29.22
-49.78
-72.59
-94.83
-113.39
-126.07
-132.94
-136.86
-142.43
-153.69
-171.86
-194.18
-214.87
-227.55
-227.89
-215.06
-191.42
-161.14
-128.57
-97.19
-69.41
-46.6
-29.1
-16
-5.19
6.22
20.92
40.23
63.38
87.55
108.57
122.13
124.81
114.96
93.17
62.34
27.29
-6.16
-32.51
-48.24
-52.96
-49.5
-42.82
-37.99
-38.16
-43.53
-51.59
-58.48
-60.75
-56.45
-45.49
-29.2
-9.59
11.08
30.38
45.73
54.62
55.29
47.45
33.01
15.74
0.33
-9.18
-10.85
-5.53
3.52
11.81
15.29
11.69
1.09
-14.32
-31.01
-45.3
-54.22
-56.29
-51.65
-41.92
-29.49
-16.77
-5.43
3.94
11.7
18.62
25.53
32.77
40.2
47.33
53.53
58.27
61.29
62.78
63.45
64.42
66.91
71.57
77.91
84.12
87.43
85.12
75.64
59.24
37.88
14.25
-9.33
-31.67
-52.61
-72.3
-90.14
-104.38
-112.72
-113.48
-106.88
-95.31
-82.35
-71.1
-62.6
-55.49
-46.91
-34.41
-17.56
1.41
18.56
29.99
33.77
30.74
24.12
17.95
15.33
17.32
22.87
29.74
35.75
39.71
41.6
42.21
42.63
44.06
47.63
53.95
62.34
70.1
72.7
65.22
44.77
12.2
-27.66
-68
-102.75
-128.59
-145.11
-153.23
-153.37
-144.88
-127.08
-101.06
-70.69
-41.74
-19.6
-7.02
-3.24
-5.04
-8.68
-11.7
-13.44
-14.55
-15.93
-18.07
-21.09
-25
-29.97
-36.12
-43.17
-50.24
-56.02
-59.29
-59.31
-55.98
-49.44
-39.79
-27.01
-11.21
6.87
25.6
42.79
56.32
64.96
68.91
69.59
69.05
69.02
70.33
72.75
75.22
76.52
75.93
73.52
70.12
66.89
64.84
64.47
65.63
67.7
69.84
71.03
70.28
66.63
59.52
49.04
36.25
22.97
11.3
2.7
-2.46
-5
-6.34
-7.72
-9.61
-11.67
-13.2
-13.75
-13.43
-12.82
-12.57
-12.97
-13.83
-14.68
-15.23
-15.53
-16.03
-17.19
-19.21
-21.76
-24.21
-25.95
-26.68
-26.5
-25.77
-24.8
-23.68
-22.22
-20.25
-17.81
-15.23
-12.9
-11.01
-9.35
-7.37
-4.55
-0.77
3.59
7.79
11.24
13.82
15.95
18.11
20.4
22.32
23.07
22.19
20.12
18.09
17.55
19.19
22.52
25.93
27.5
25.88
20.81
12.99
3.67
-5.75
-13.95
-19.56
-21.21
-17.9
-9.48
3.01
17.51
31.72
43.85
53.06
59.45
63.53
65.81
66.66
66.55
66.16
66.31
67.55
69.87
72.59
74.82
75.78
75.13
72.76
68.47
61.81
52.33
40.12
26.39
13.36
3.52
-1.33
-0.96
3.25
8.97
13.99
17.04
18.13
18.16
18.15
18.66
19.48
19.86
19.06
16.87
13.8
10.91
9.26
9.34
10.86
12.87
14.43
15.23
15.84
17.5
21.4
27.87
36.03
43.97
49.45
50.78
47.27
39.38
28.25
15.22
1.41
-12.34
-25.28
-36.55
-45.06
-49.69
-49.58
-44.5
-35.05
-22.54
-8.75
4.48
15.66
23.84
28.66
30.2
28.87
25.25
20.05
14.11
8.42
4.05
1.89
2.38
5.32
9.81
14.55
18.22
19.94
19.38
16.8
12.63
7.24
0.77
-6.85
-15.54
-24.81
-33.67
-40.74
-44.72
-44.8
-40.96
-34.01
-25.36
-16.61
-9.17
-3.94
-1.24
-0.9
-2.46
-5.3
-8.88
-12.67
-16.22
-19.15
-21.1
-21.86
-21.31
-19.56
-16.89
-13.71
-10.49
-7.7
-5.77
-5.12
-6.02
-8.66
-12.86
-18.03
-23.16
-26.95
-28.18
-26.14
-20.88
-13.2
-4.37
4.34
12.03
18.23
22.81
25.69
26.77
25.93
23.21
18.93
13.71
8.27
3.29
-0.75
-3.64
-5.37
-6.1
-6.12
-5.75
-5.38
-5.41
-6.26
-8.22
-11.47
-15.88
-20.88
-25.61
-29.06
-30.35
-29.07
-25.32
-19.66
-12.83
-5.52
1.74
8.58
14.67
19.6
22.92
24.24
23.35
20.38
15.82
10.42
5
0.29
-3.22
-5.41
-6.44
-6.65
-6.5
-6.36
-6.57
-7.41
-9.07
-11.68
-15.16
-19.14
-22.89
-25.46
-25.88
-23.6
-18.6
-11.53
-3.51
4.23
10.69
15.27
17.88
18.7
18.08
16.33
13.71
10.4
6.64
2.71
-1.02
-4.24
-6.77
-8.61
-9.94
-11.02
-12.05
-13.24
-14.75
-16.82
-19.75
-23.78
-28.83
-34.32
-39.15
-42
-41.74
-37.87
-30.72
-21.34
-11.16
-1.6
6.3
11.97
15.31
16.54
16.07
14.41
12.07
9.5
7.05
4.88
2.99
1.28
-0.34
-1.91
-3.35
-4.6
-5.63
-6.69
-8.17
-10.56
-14.26
-19.31
-25.33
-31.53
-36.8
-40.08
-40.5
-37.62
-31.63
-23.19
-13.41
-3.54
5.34
12.41
17.36
20.19
21.15
20.61
18.96
16.52
13.61
10.52
7.49
4.72
2.32
0.37
-1.1
-2.14
-2.83
-3.33
-3.91
-4.9
-6.66
-9.5
-13.51
-18.44
-23.58
-27.84
-30.01
-29.13
-24.83
-17.54
-8.35
1.32
10.18
17.35
22.47
25.54
26.74
26.28
24.4
21.39
17.72
14
10.84
8.74
7.87
8.08
8.93
9.89
10.45
10.32
9.45
7.95
5.94
3.44
0.29
-3.68
-8.48
-13.73
-18.59
-21.92
-22.59
-19.9
-13.85
-5.17
4.87
14.88
23.62
30.3
34.57
36.52
36.44
34.8
32.11
28.92
25.71
22.83
20.44
18.49
16.77
15.12
13.45
11.82
10.38
9.23
8.38
7.64
6.75
5.37
3.2
0.05
-4.12
-9.05
-14.19
-18.66
-21.5
-21.89
-19.4
-14.21
-6.96
1.36
9.68
16.99
22.44
25.43
25.61
22.98
17.89
11.02
3.22
-4.75
-12.27
-19.04
-24.95
-30.03
-34.34
-37.95
-40.99
-43.7
-46.48
-49.92
-54.69
-61.32
-70.01
-80.49
-92.07
-103.78
-114.7
-124.03
-131.08
-135.07
-135.32
-131.5
-124.02
-114.03
-102.99
-92.07
-81.85
-72.7
-65.43
-61.67
-63.03
-69.61
-78.7
-84.76
-81.22
-63.44
-31.04
11.6
56.96
97.27
127.15
144.73
151.05
148.54
139.57
125.63
107.52
86.08
62.7
39.76
20.57
8.77
7.59
18.98
42.99
77.7
119.3
162.49
201.02
228.67
240.66
235.03
213.65
181.94
147.29
116.64
94.43
81.62
76.37
75.64
76.94
79.08
81.86
85.22
88.42
90.26
89.63
86.13
80.14
72.47
63.57
53.29
41.02
26.17
8.86
-9.89
-28.26
-44.18
-55.95
-62.8
-65.06
-64.07
-61.64
-59.45
-58.55
-59.11
-60.65
-62.46
-64.04
-65.29
-66.34
-67.35
-68.17
-68.36
-67.3
-64.45
-59.53
-52.7
-44.65
-36.46
-29.37
-24.37
-21.9
-21.7
-23.01
-24.9
-26.58
-27.48
-27.13
-25.03
-20.63
-13.56
-3.94
7.39
18.95
29.09
36.49
40.54
41.37
39.62
36.09
31.52
26.57
21.94
18.51
17.24
18.88
23.73
31.31
40.53
49.83
57.72
62.98
64.93
63.34
58.41
50.82
41.74
32.74
25.59
21.77
22
25.89
32.06
38.34
42.58
43.11
39.25
31.21
19.89
6.31
-8.65
-24.45
-40.99
-58.45
-77.06
-96.75
-116.83
-135.69
-150.99
-160.01
-160.38
-151.01
-132.78
-108.73
-83.52
-62.04
-47.92
-42.28
-43.66
-48.86
-54.42
-57.87
-58.37
-56.32
-52.49
-47.15
-39.95
-30.43
-18.72
-6.17
4.83
11.66
12.37
6.48
-5.01
-20
-35.98
-50.54
-61.97
-69.43
-73.12
-74.05
-73.61
-72.98
-72.66
-72.46
-71.96
-71.12
-70.59
-71.56
-74.9
-80.46
-86.69
-91.19
-91.6
-86.49
-75.77
-60.43
-42.23
-23.38
-6.52
5.51
10.14
5.94
-6.64
-25.04
-45.18
-62.65
-74.05
-77.71
-73.85
-63.85
-49.63
-33.08
-15.96
-0.12
12.67
21.14
25.01
25.28
23.83
22.56
22.47
23.29
23.82
22.78
19.67
15.01
10.01
5.95
3.65
3.4
5.19
8.94
14.56
21.73
29.72
37.42
43.62
47.53
49.07
48.85
47.91
47.22
47.32
48.33
50.07
52.22
54.25
55.2
53.72
48.44
38.79
25.71
11.78
0.4
-5.78
-6.05
-2.09
3.01
6.32
6.48
4.09
0.9
-1.42
-2.22
-1.98
-1.58
-1.54
-1.59
-1.03
0.64
3.16
5.55
6.69
6.02
3.89
1.37
-0.27
-0.31
1.19
3.43
5.46
6.55
6.52
5.56
3.98
2.02
-0.25
-2.58
-4.45
-5.13
-4.03
-1.01
3.45
8.44
13.11
17.02
20.28
23.24
26.1
28.63
30.29
30.58
29.41
27.2
24.65
22.3
20.3
18.39
16.23
13.71
11.17
9.21
8.36
8.73
9.92
11.11
11.45
10.4
7.83
3.96
-0.84
-6.07
-11.17
-15.36
-17.69
-17.19
-13.38
-6.5
2.39
11.83
20.5
27.75
33.69
38.7
42.95
46.09
47.47
46.62
43.86
40.4
37.92
37.81
40.52
45.44
51.29
56.83
61.44
65.28
68.98
73.17
78.03
83.26
88.43
93.38
98.67
105.4
114.74
127.4
143.16
161.18
180.6
201.19
223.53
248.42
275.83
304.16
330.2
350.19
361.33
362.92
356.56
345.25
331.95
318.48
305.13
291.07
275.19
256.63
235.05
210.41
182.77
152.22
118.99
83.57
46.78
9.52
-27.41
-63.52
-98.71
-133.26
-167.78
-203.04
-239.52
-276.93
-313.8
-347.52
-374.99
-393.71
-402.65
-402.62
-396.09
-386.01
-375.03
-364.96
-356.83
-351.38
-349.33
-351.1
-356.21
-362.54
-366.51
-364.01
-352.16
-330.92
-303.71
-276.62
-256.26
-247.24
-250.4
-262.6
-278.11
-290.82
-296.21
-292.2
-278.94
-257.84
-230.76
-199.49
-165.76
-131.03
-96.3
-61.84
-27.33
7.53
42.07
73.99
99.65
115.5
119.8
113.89
102.04
89.93
82.53
82.38
89.24
100.82
113.98
125.73
133.57
135.5
130.09
117
97.49
74.55
52.18
34.04
22.09
16.31
15.45
18.33
24.71
35.2
50.1
68.3
86.73
100.99
106.57
100.25
81.09
50.71
13.07
-26.38
-61.78
-88.18
-102.68
-105.03
-97.2
-82.44
-64.02
-44.47
-25.61
-8.8
4.7
13.95
18.78
20.18
20.17
21.04
24.43
30.77
39.28
48.29
56.01
61.17
63.33
63.14
62.06
61.85
63.85
68.24
73.87
78.63
80.44
78.31
73.05
67.01
63.21
63.95
69.59
78
85.01
85.74
76.43
56
26.7
-6.56
-37.91
-62.55
-78.18
-85.17
-85.58
-81.67
-74.76
-65.13
-52.63
-37.55
-21.15
-5.41
7.74
17.14
22.79
25.64
27.02
28.01
29.08
30.1
30.68
30.53
29.72
28.7
28.05
28.24
29.31
30.84
32.1
32.33
30.98
27.87
23.15
17.08
10.01
2.34
-5.34
-12.15
-17.06
-19.11
-17.86
-13.51
-6.86
1
9.04
16.53
22.94
27.92
31.03
31.91
30.45
26.99
22.29
17.42
13.36
10.7
9.58
9.73
10.61
11.67
12.5
12.92
12.86
12.34
11.33
9.73
7.35
4.04
-0.21
-5.2
-10.37
-14.9
-17.79
-18.12
-15.42
-9.77
-1.96
6.79
15.09
21.8
26.21
28.13
27.76
25.59
22.26
18.49
14.99
12.31
10.73
10.15
10.19
10.33
10.16
9.52
8.62
7.78
7.26
7.05
6.78
5.78
3.41
-0.79
-6.74
-13.77
-20.56
-25.54
-27.25
-24.89
-18.54
-9.2
1.57
12.11
21.14
27.88
32.12
34
33.8
31.91
28.77
24.99
21.26
18.26
16.45
15.93
16.41
17.31
18.01
18.1
17.44
16.17
14.58
12.79
10.72
8.03
4.4
-0.34
-5.88
-11.44
-15.92
-18.27
-17.73
-14.16
-8.02
-0.23
8.08
15.87
22.33
26.9
29.31
29.49
27.59
23.97
19.26
14.23
9.65
6.15
3.95
2.98
2.89
3.32
3.99
4.76
5.54
6.17
6.43
6.03
4.74
2.44
-0.81
-4.76
-8.98
-12.87
-15.71
-16.85
-15.83
-12.57
-7.4
-1
5.73
11.96
16.97
20.27
21.6
20.91
18.41
14.54
9.92
5.27
1.23
-1.72
-3.36
-3.77
-3.17
-1.89
-0.31
1.26
2.55
3.38
3.65
3.28
2.21
0.36
-2.33
-5.71
-9.41
-12.73
-14.85
-14.99
-12.74
-8.22
-2.02
4.91
11.59
17.2
21.22
23.42
23.8
22.54
19.92
16.36
12.33
8.35
4.9
2.34
0.86
0.5
1.15
2.54
4.31
5.98
7.08
7.21
6.17
3.94
0.68
-3.38
-7.98
-12.8
-17.39
-21.11
-23.18
-22.87
-19.75
-13.97
-6.28
2.15
10.12
16.71
21.49
24.41
25.67
25.52
24.2
21.99
19.24
16.41
14
12.39
11.75
11.99
12.77
13.62
14.15
14.24
14.06
13.98
14.26
14.81
15.06
14.2
11.64
7.42
2.33
-2.35
-5.3
-5.67
-3.25
1.62
8.29
16.01
23.98
31.38
37.34
41.18
42.55
41.62
39.09
35.91
33.03
31.03
29.92
29.2
28.11
26.02
22.69
18.38
13.66
9.07
4.87
0.96
-2.99
-7.26
-11.9
-16.74
-21.5
-25.91
-29.75
-32.76
-34.58
-34.8
-33.08
-29.38
-23.94
-17.32
-10.2
-3.37
2.56
7.09
9.95
11.14
10.9
9.61
7.76
5.73
3.82
2.22
1
0.16
-0.35
-0.66
-0.92
-1.3
-1.85
-2.63
-3.66
-5.01
-6.78
-9.06
-11.78
-14.65
-17.13
-18.6
-18.48
-16.48
-12.73
-7.8
-2.48
2.35
6
8.13
8.65
7.71
5.51
2.3
-1.63
-5.84
-9.74
-12.7
-14.21
-14.12
-12.75
-10.71
-8.74
-7.39
-6.94
-7.4
-8.66
-10.66
-13.33
-16.53
-19.94
-22.9
-24.67
-24.61
-22.51
-18.57
-13.39
-7.77
-2.41
2.24
5.91
8.44
9.74
9.7
8.33
5.8
2.52
-0.92
-3.95
-6.17
-7.45
-7.85
-7.63
-6.99
-6.03
-4.77
-3.23
-1.56
-0.1
0.72
0.47
-1.08
-3.85
-7.36
-10.87
-13.52
-14.55
-13.59
-10.7
-6.4
-1.44
3.43
7.63
10.84
12.91
13.7
13.08
11
7.67
3.55
-0.64
-4.19
-6.68
-8.06
-8.6
-8.73
-8.76
-8.81
-8.84
-8.77
-8.66
-8.72
-9.34
-10.86
-13.43
-16.9
-20.74
-24.14
-26.18
-26.06
-23.33
-18.03
-10.75
-2.49
5.54
12.2
16.73
18.79
18.52
16.38
12.94
8.87
4.72
1.01
-1.85
-3.65
-4.43
-4.51
-4.3
-4.18
-4.35
-4.78
-5.4
-6.28
-7.62
-9.8
-13.06
-17.3
-22.06
-26.49
-29.7
-30.94
-29.83
-26.41
-21.07
-14.43
-7.31
-0.5
5.36
9.8
12.61
13.82
13.65
12.42
10.57
8.53
6.7
5.33
4.46
3.95
3.6
3.19
2.64
1.95
1.19
0.44
-0.34
-1.26
-2.53
-4.34
-6.81
-9.84
-13.03
-15.74
-17.2
-16.78
-14.24
-9.82
-4.19
1.8
7.37
11.98
15.39
17.53
18.43
18.1
16.64
14.26
11.28
8.21
5.51
3.56
2.49
2.19
2.42
2.87
3.31
3.66
3.88
3.97
3.8
3.16
1.84
-0.24
-2.94
-5.82
-8.27
-9.64
-9.44
-7.47
-3.88
0.89
6.27
11.66
16.55
20.59
23.47
25.02
25.18
24.03
21.88
19.17
16.44
14.13
12.51
11.62
11.26
11.16
11.02
10.6
9.83
8.72
7.35
5.82
4.15
2.3
0.24
-2.08
-4.52
-6.8
-8.55
-9.35
-8.91
-7.11
-4.05
-0.04
4.47
8.95
12.91
15.89
17.61
17.96
17.01
15.02
12.4
9.56
6.85
4.49
2.54
0.95
-0.38
-1.59
-2.75
-3.92
-5.13
-6.43
-7.87
-9.56
-11.59
-13.99
-16.65
-19.25
-21.36
-22.48
-22.2
-20.37
-17.11
-12.79
-7.97
-3.25
0.84
3.89
5.64
5.98
4.98
2.86
-0.02
-3.22
-6.26
-8.74
-10.47
-11.42
-11.75
-11.68
-11.44
-11.2
-11.1
-11.23
-11.66
-12.42
-13.55
-15.11
-17.08
-19.39
-21.8
-23.84
-24.9
-24.35
-21.78
-17.15
-10.88
-3.75
3.29
9.31
13.63
15.95
16.31
15.08
12.96
10.68
8.88
7.98
8.07
8.95
10.25
11.52
12.38
12.58
12.03
10.78
8.96
6.67
4.04
1.08
-2.15
-5.61
-9.09
-12.24
-14.5
-15.28
-14.15
-11
-6.21
-0.47
5.29
10.25
13.79
15.62
15.74
14.32
11.71
8.33
4.71
1.34
-1.32
-3.01
-3.62
-3.19
-1.84
0.22
2.75
5.45
8.02
10.17
11.68
12.39
12.2
11.08
9.1
6.53
3.86
1.81
1.11
2.26
5.3
9.79
14.92
19.8
23.77
26.58
28.38
29.52
30.36
31.01
31.3
30.95
29.71
27.64
25.03
22.29
19.79
17.66
15.77
13.86
11.71
9.21
6.44
3.54
0.64
-2.25
-5.18
-8.26
-11.48
-14.65
-17.29
-18.75
-18.43
-16.06
-11.91
-6.83
-1.9
1.91
4.11
4.74
4.22
3.01
1.43
-0.44
-2.59
-4.86
-6.91
-8.24
-8.54
-7.76
-6.26
-4.63
-3.49
-3.23
-3.94
-5.42
-7.24
-9.05
-10.66
-12.13
-13.67
-15.5
-17.62
-19.71
-21.19
-21.43
-19.94
-16.59
-11.69
-5.86
0.11
5.45
9.54
11.97
12.59
11.49
8.99
5.65
2.12
-0.94
-3
-3.78
-3.28
-1.78
0.23
2.17
3.6
4.19
3.85
2.69
0.94
-1.24
-3.76
-6.64
-9.93
-13.53
-17.08
-19.92
-21.19
-20.2
-16.63
-10.81
-3.64
3.65
9.89
14.3
16.64
17.13
16.25
14.53
12.35
10
7.72
5.74
4.35
3.74
3.9
4.56
5.26
5.54
5.08
3.88
2.08
-0.14
-2.83
-6.22
-10.58
-15.88
-21.62
-26.83
-30.36
-31.41
-29.78
-25.97
-20.95
-15.75
-11.12
-7.5
-5.02
-3.73
-3.7
-4.9
-7.17
-10.05
-12.89
-15.06
-16.19
-16.3
-15.71
-14.96
-14.53
-14.66
-15.4
-16.6
-18.05
-19.58
-21.16
-22.78
-24.38
-25.79
-26.65
-26.49
-24.85
-21.54
-16.76
-11
-5
0.55
5.2
8.7
10.99
12.02
11.76
10.26
7.76
4.81
2.1
0.25
-0.44
-0.1
0.83
1.8
2.33
2.19
1.32
-0.24
-2.42
-5.13
-8.24
-11.57
-14.84
-17.68
-19.68
-20.39
-19.36
-16.34
-11.37
-4.86
2.41
9.44
15.3
19.25
21
20.62
18.5
15.17
11.23
7.22
3.62
0.8
-1.08
-2.03
-2.29
-2.16
-1.95
-1.91
-2.11
-2.61
-3.45
-4.79
-6.83
-9.69
-13.31
-17.37
-21.23
-24.14
-25.35
-24.31
-20.88
-15.43
-8.72
-1.82
4.27
8.83
11.56
12.57
12.21
10.85
8.84
6.43
3.92
1.62
-0.12
-1.04
-1.08
-0.4
0.67
1.75
2.54
2.85
2.56
1.66
0.1
-2.18
-5.19
-8.83
-12.79
-16.51
-19.31
-20.48
-19.59
-16.58
-11.89
-6.27
-0.6
4.37
8.17
10.54
11.45
10.94
9.14
6.29
2.78
-0.89
-4.19
-6.7
-8.19
-8.64
-8.2
-7.12
-5.76
-4.47
-3.63
-3.51
-4.21
-5.71
-7.9
-10.67
-13.93
-17.59
-21.51
-25.4
-28.9
-31.6
-33.12
-33.21
-31.74
-28.76
-24.54
-19.61
-14.65
-10.44
-7.64
-6.69
-7.73
-10.6
-14.9
-19.98
-24.98
-28.95
-31.04
-30.81
-28.34
-24.27
-19.51
-14.9
-11.07
-8.38
-7.04
-7.26
-9.14
-12.49
-16.73
-20.86
-23.85
-24.97
-24.03
-21.35
-17.54
-13.15
-8.45
-3.45
1.91
7.61
13.38
18.74
23.09
25.83
26.6
25.32
22.33
18.2
13.64
9.22
5.29
1.88
-1.14
-3.88
-6.33
-8.39
-9.93
-11.03
-12
-13.35
-15.56
-18.89
-23.16
-27.81
-31.96
-34.73
-35.4
-33.59
-29.25
-22.6
-14.1
-4.39
5.7
15.26
23.46
29.68
33.68
35.64
36.01
35.43
34.54
33.81
33.65
34.28
35.86
38.45
41.95
46.16
50.74
55.24
59.16
62.04
63.48
63.24
61.34
58.06
53.92
49.54
45.48
42.07
39.51
37.92
37.49
38.37
40.46
43.24
45.7
46.68
45.31
41.4
35.61
29.14
23.37
19.37
17.73
18.55
21.55
26.11
31.29
35.83
38.37
37.68
33.11
24.73
13.44
0.81
-11.2
-20.62
-25.86
-26.05
-21.3
-12.76
-2.42
7.42
14.68
18.04
17.2
12.75
5.91
-1.95
-9.73
-16.81
-23.04
-28.58
-33.6
-38.12
-41.97
-44.93
-46.84
-47.71
-47.56
-46.37
-44
-40.37
-35.77
-30.96
-27.03
-24.97
-25.07
-26.68
-28.36
-28.59
-26.41
-21.77
-15.4
-8.22
-0.9
6.39
13.73
21.1
28.12
34
37.94
39.45
38.53
35.7
31.67
27.1
22.51
18.21
14.46
11.5
9.62
8.94
9.36
10.43
11.4
11.44
10
7.03
3.08
-0.88
-3.7
-4.47
-2.84
0.97
6.19
11.85
17.08
21.29
24.32
26.22
27.2
27.41
26.91
25.72
23.86
21.46
18.72
15.88
13.1
10.4
7.66
4.71
1.43
-2.17
-5.93
-9.66
-13.31
-17.07
-21.26
-26.1
-31.32
-36.11
-39.23
-39.46
-36.17
-29.62
-20.97
-11.83
-3.76
2.25
5.88
7.4
7.3
6.07
4.04
1.48
-1.36
-4.11
-6.36
-7.75
-8.03
-7.27
-5.73
-3.87
-2.2
-1.17
-1.08
-2.1
-4.31
-7.68
-12.11
-17.35
-22.86
-27.78
-31.12
-31.98
-29.9
-25.06
-18.21
-10.49
-2.98
3.51
8.51
11.87
13.53
13.5
11.84
8.81
4.91
0.81
-2.87
-5.74
-7.73
-9.04
-9.93
-10.61
-11.11
-11.46
-11.71
-12
-12.67
-14.04
-16.37
-19.68
-23.66
-27.59
-30.47
-31.26
-29.18
-24.06
-16.39
-7.32
1.82
9.85
16
20.03
22.04
22.3
21.14
18.87
15.83
12.45
9.14
6.22
3.88
2.07
0.6
-0.8
-2.32
-4.06
-5.95
-7.91
-9.88
-11.89
-14.16
-16.95
-20.45
-24.54
-28.73
-32.12
-33.7
-32.6
-28.52
-21.81
-13.4
-4.51
3.74
10.54
15.51
18.57
19.86
19.64
18.2
15.89
13.1
10.24
7.68
5.67
4.39
3.84
3.91
4.34
4.86
5.2
5.16
4.59
3.42
1.56
-1.08
-4.53
-8.63
-12.94
-16.71
-19
-18.98
-16.25
-10.96
-3.88
3.93
11.36
17.63
22.27
25.16
26.31
25.76
23.65
20.21
15.89
11.28
7.01
3.56
1.19
-0.12
-0.56
-0.41
0.04
0.57
1.01
1.18
0.87
-0.15
-2.08
-5.01
-8.77
-12.85
-16.45
-18.71
-18.88
-16.61
-12.05
-5.8
1.3
8.38
14.74
19.81
23.25
24.85
24.55
22.49
19.06
14.83
10.48
6.6
3.53
1.37
0
-0.84
-1.41
-1.89
-2.37
-2.91
-3.6
-4.63
-6.28
-8.84
-12.5
-17.13
-22.18
-26.66
-29.45
-29.53
-26.41
-20.27
-11.99
-2.85
5.83
13.04
18.25
21.36
22.61
22.36
20.99
18.86
16.28
13.57
11
8.8
7.08
5.83
4.9
4.06
3.1
1.9
0.48
-1.1
-2.84
-4.94
-7.67
-11.24
-15.56
-20.08
-23.87
-25.93
-25.47
-22.27
-16.63
-9.26
-1.02
7.19
14.64
20.73
25.04
27.39
27.83
26.68
24.47
21.72
18.93
16.44
14.45
13.07
12.3
12.12
12.38
12.87
13.37
13.65
13.58
12.99
11.71
9.48
6.02
1.26
-4.47
-10.43
-15.48
-18.5
-18.74
-16.05
-10.97
-4.46
2.4
8.75
13.99
17.88
20.32
21.31
20.9
19.22
16.61
13.55
10.67
8.47
7.24
6.96
7.33
7.89
8.23
8.18
7.72
7
6.13
5.1
3.69
1.62
-1.3
-5.04
-9.21
-13.1
-15.79
-16.51
-14.77
-10.61
-4.52
2.64
9.95
16.55
21.85
25.52
27.49
27.91
27.08
25.42
23.34
21.2
19.24
17.54
16.08
14.73
13.35
11.85
10.23
8.5
6.75
4.99
3.16
1.09
-1.43
-4.59
-8.44
-12.81
-17.22
-20.92
-23.05
-22.88
-20.04
-14.75
-7.74
-0.06
7.21
13.25
17.67
20.38
21.55
21.41
20.2
18.2
15.76
13.27
11.12
9.59
8.83
8.79
9.3
10.11
10.89
11.38
11.35
10.67
9.26
7.06
3.98
-0.01
-4.76
-9.87
-14.65
-18.28
-20
-19.44
-16.67
-12.19
-6.79
-1.27
3.69
7.64
10.34
11.77
12
11.23
9.73
7.79
5.69
3.67
1.94
0.63
-0.19
-0.51
-0.42
-0.08
0.37
0.77
0.98
0.87
0.3
-0.86
-2.7
-5.15
-7.92
-10.49
-12.19
-12.39
-10.66
-7
-1.77
4.24
10.17
15.18
18.68
20.45
20.55
19.18
16.6
13.07
8.86
4.3
-0.16
-4.09
-7.1
-9.03
-9.88
-9.86
-9.2
-8.13
-6.84
-5.51
-4.35
-3.69
-3.84
-5.06
-7.35
-10.45
-13.81
-16.69
-18.31
-18.12
-15.9
-11.91
-6.83
-1.53
3.1
6.42
8.16
8.41
7.48
5.77
3.64
1.4
-0.75
-2.63
-4.19
-5.52
-6.86
-8.53
-10.69
-13.17
-15.43
-16.7
-16.3
-13.99
-10.15
-5.65
-1.42
1.98
4.63
7.14
10.33
14.68
20.14
26.08
31.6
35.88
38.5
39.39
38.8
37.05
34.44
31.23
27.65
24
20.61
17.81
15.88
14.87
14.6
14.54
14.07
12.63
9.98
6.34
2.36
-1.3
-4.15
-6.13
-7.56
-8.85
-10.19
-11.39
-11.95
-11.32
-9.3
-6.05
-2.11
1.84
5.31
8.03
9.98
11.19
11.67
11.4
10.33
8.5
6.04
3.15
0.06
-2.96
-5.6
-7.57
-8.68
-8.95
-8.62
-8.18
-8.12
-8.73
-10.13
-12.24
-14.91
-17.99
-21.26
-24.26
-26.32
-26.65
-24.74
-20.57
-14.79
-8.48
-2.8
1.39
3.71
4.24
3.33
1.45
-0.9
-3.34
-5.54
-7.28
-8.53
-9.36
-9.9
-10.25
-10.46
-10.54
-10.55
-10.61
-10.92
-11.66
-12.93
-14.76
-17.11
-19.84
-22.62
-25.02
-26.5
-26.58
-25.03
-21.97
-17.84
-13.28
-8.93
-5.26
-2.57
-0.92
-0.28
-0.49
-1.32
-2.49
-3.71
-4.76
-5.51
-5.89
-5.96
-5.76
-5.43
-5.14
-5.1
-5.47
-6.36
-7.79
-9.73
-12.13
-14.96
-18.19
-21.56
-24.59
-26.59
-26.85
-24.94
-20.9
-15.32
-9.1
-3.21
1.64
5.12
7.23
8.14
8.04
7.08
5.38
3.09
0.53
-1.94
-3.95
-5.3
-5.97
-6.14
-6.04
-5.93
-6
-6.34
-6.97
-7.91
-9.14
-10.66
-12.51
-14.68
-17.05
-19.32
-21.01
-21.51
-20.29
-17.09
-12.12
-5.98
0.44
6.26
10.86
13.9
15.41
15.59
14.7
13.01
10.75
8.14
5.45
2.92
0.73
-1.02
-2.34
-3.28
-3.94
-4.42
-4.85
-5.4
-6.26
-7.66
-9.82
-12.86
-16.75
-21.2
-25.63
-29.22
-31.08
-30.5
-27.19
-21.42
-13.99
-5.93
1.72
8.19
13.05
16.16
17.61
17.6
16.41
14.4
11.96
9.49
7.34
5.74
4.74
4.25
4.06
3.93
3.65
3.07
2.15
0.86
-0.86
-3.13
-6.16
-10.11
-14.88
-20.02
-24.72
-28.03
-29.13
-27.65
-23.79
-18.23
-11.88
-5.58
0.07
4.68
8.08
10.17
10.86
10.23
8.53
6.25
3.99
2.25
1.32
1.16
1.49
1.92
2.18
2.12
1.78
1.22
0.51
-0.39
-1.57
-3.16
-5.26
-7.97
-11.31
-15.18
-19.25
-22.92
-25.38
-25.8
-23.64
-18.87
-12.04
-4.11
3.8
10.79
16.33
20.26
22.62
23.55
23.13
21.54
19.1
16.34
13.94
12.51
12.33
13.26
14.78
16.24
17.06
16.99
16.12
14.81
13.48
12.49
12.03
12
12.13
12.02
11.36
9.99
8.03
5.77
3.56
1.68
0.32
-0.33
-0.06
1.44
4.42
8.91
14.61
20.88
26.93
31.98
35.53
37.4
37.75
37.04
35.91
35.04
35.04
36.32
38.93
42.51
46.33
49.35
50.67
49.95
47.71
45.37
44.78
47.43
53.71
62.6
71.99
79.53
83.46
83.22
79.34
72.98
65.35
57.47
50.19
44.38
40.94
40.5
43.08
47.92
53.67
58.99
63.03
65.5
66.32
65.06
60.75
52.37
39.57
23.32
5.89
-10
-22.28
-30.32
-34.88
-37.37
-38.83
-39.57
-39.32
-37.93
-35.98
-34.82
-36.03
-40.74
-49.07
-60.13
-72.48
-84.69
-95.94
-106.09
-115.57
-124.87
-134.15
-142.99
-150.44
-155.37
-156.89
-154.56
-148.38
-138.6
-125.58
-109.84
-92.4
-75.02
-60.09
-50.01
-46.22
-48.5
-55.03
-63.05
-70.12
-75.08
-78.21
-80.6
-83.05
-85.4
-86.47
-84.77
-79.49
-70.98
-60.56
-49.74
-39.41
-29.54
-19.65
-9.53
0.22
8.37
13.74
16.02
16.07
15.43
15.59
17.14
19.68
22.18
23.68
23.82
23.01
22.36
23.42
27.87
37.12
51.75
70.9
92.17
112.01
126.83
134.29
134.13
128.16
119.33
110.52
103.42
98.28
94.39
90.97
87.83
85.55
84.82
85.64
86.78
85.78
79.91
67.29
47.9
23.88
-1.04
-22.71
-37.8
-44.72
-43.86
-37.21
-27.69
-18.27
-11.31
-8.01
-8.19
-10.35
-12.15
-10.95
-4.57
7.99
26.06
47.31
68.31
85.46
96.09
99.32
96.25
89.51
82.13
76.46
73.25
71.55
69.37
64.79
57.08
47.15
37.29
30.08
27.02
27.6
29.32
28.67
22.6
9.85
-8.63
-30.3
-52.32
-72.68
-90.6
-106.11
-119.27
-129.67
-136.75
-140.56
-142.28
-143.77
-146.5
-150.36
-153.22
-151.84
-143.42
-127.2
-105.04
-80.69
-58.15
-39.93
-26.03
-14.29
-1.7
13.88
32.53
52.18
69.73
82.78
90.99
96.31
101.84
109.88
120.43
130.98
137.83
137.97
130.57
117.52
102.48
89.64
82.23
81.63
86.94
95.25
102.47
104.8
100.14
89
74.12
58.99
46
35.41
25.55
14.38
1.11
-13.17
-26.26
-36.37
-43.35
-48.56
-53.75
-59.82
-66.42
-72.77
-78.78
-85.56
-94.77
-107.36
-122.79
-139.14
-154.28
-166.92
-177.09
-185.42
-192.1
-196.29
-196.38
-190.78
-178.85
-161.19
-139.49
-116
-93.23
-73.6
-59.31
-52.03
-52.61
-60.67
-74.5
-90.98
-105.86
-114.49
-112.99
-99.64
-75.75
-45.43
-14.19
13.21
34.37
49.75
61.55
72.06
82.36
92.07
100.12
105.66
108.66
109.91
110.42
111.03
112.2
114.23
117.27
121.24
125.68
129.73
132.38
132.82
130.74
126.16
119.2
109.72
97.28
81.51
62.45
40.86
18.13
-4.08
-24.24
-41.27
-54.63
-64.22
-70.43
-74.19
-76.83
-79.83
-84.31
-90.6
-98.21
-106.26
-114.07
-121.48
-128.74
-136.03
-142.85
-147.96
-149.8
-147.26
-140.14
-129.05
-114.79
-97.68
-77.43
-53.7
-27.09
0.31
25.05
43.39
52.75
52.77
45.39
34
21.88
11.16
2.58
-3.82
-7.62
-7.61
-2.26
8.94
24.33
40.02
50.96
53.08
45.05
28.97
9.66
-7.22
-17.18
-18.22
-11.03
1.93
17.63
33.49
47.77
59.4
67.6
71.92
72.54
70.68
68.44
68.14
71.06
76.69
82.82
86.61
86.22
81.72
75.13
69.23
66.29
67.13
71.1
76.59
81.67
84.49
83.48
77.64
67.08
53.4
39.59
29.22
24.98
27.48
34.94
43.78
50.18
51.52
47.22
38.53
27.61
16.38
5.95
-3.43
-11.89
-19.4
-25.68
-30.4
-33.78
-36.87
-41.38
-49.05
-60.58
-74.92
-89.34
-100.55
-106.19
-105.95
-101.63
-96.14
-92.04
-90.41
-90.74
-91.58
-91.6
-90.23
-87.6
-84.05
-79.54
-73.46
-64.98
-53.62
-39.58
-23.72
-7.26
8.54
22.54
33.87
41.89
46.24
46.86
43.95
37.97
29.61
19.76
9.39
-0.54
-9.24
-16.25
-21.44
-24.91
-26.79
-27
-25.26
-21.33
-15.35
-8.12
-0.97
4.71
8.15
9.49
9.74
10.23
11.86
14.69
17.97
20.65
22.03
22.18
21.81
21.82
22.78
24.62
26.75
28.43
29.19
28.96
27.99
26.53
24.69
22.38
19.48
16.16
13.06
11.23
11.98
16.4
24.92
36.95
50.86
64.28
74.76
80.58
81.26
77.64
71.44
64.6
58.49
53.72
50.13
47.31
44.92
42.88
41.27
40.06
38.95
37.43
34.95
31.2
26.14
20.02
13.18
5.96
-1.42
-8.71
-15.57
-21.52
-25.98
-28.47
-28.78
-27.11
-24.05
-20.39
-16.89
-14.07
-12.07
-10.83
-10.16
-9.96
-10.23
-10.95
-11.98
-13.01
-13.66
-13.61
-12.74
-11.15
-9.07
-6.71
-4.19
-1.5
1.42
4.63
8.13
11.75
15.22
18.14
20.09
20.84
20.5
19.76
19.76
21.9
27.3
36.33
48.46
62.43
76.71
90.03
101.75
111.78
120.35
127.73
134.04
139.4
144.05
148.33
152.53
156.73
160.81
164.77
169.13
175.18
184.49
197.95
214.86
232.54
247.07
254.68
253.39
243.58
227.71
208.93
189.71
171.01
152.44
133.05
112.08
89.4
65.19
39.55
12.19
-17.5
-49.97
-85.03
-121.98
-160.05
-198.96
-239.09
-280.94
-324.02
-365.95
-402.5
-428.63
-440.27
-435.89
-416.96
-387.3
-351.87
-315.81
-283.97
-260.79
-249.68
-251.87
-265.08
-283.16
-297.48
-299.59
-284.3
-251.39
-205.34
-153.29
-102.34
-57.47
-20.92
7.08
27.21
40.22
46.75
47.82
45.13
40.97
37.46
35.63
34.81
33.01
28.08
19.11
7.25
-4.62
-13.16
-16.21
-13.75
-7.77
-1.24
3.21
4.22
1.9
-2.66
-7.87
-12.21
-14.53
-14.15
-10.93
-5.27
2.06
10.05
17.79
24.59
30.13
34.37
37.44
39.42
40.36
40.15
38.79
36.41
33.36
30.08
26.98
24.3
22.11
20.33
18.82
17.46
16.03
14.23
11.74
8.34
4.22
0.05
-3.03
-3.84
-1.54
3.88
11.57
19.97
27.31
32.11
33.65
32.04
28.13
23.06
17.9
13.34
9.73
7.12
5.51
4.88
5.19
6.27
7.85
9.54
10.96
11.87
12.18
11.91
11.11
9.66
7.33
3.86
-0.87
-6.65
-12.89
-18.63
-22.79
-24.49
-23.28
-19.18
-12.73
-4.74
3.87
12.13
19.11
23.97
26.16
25.58
22.63
18.26
13.69
10.1
8.28
8.42
10.19
12.83
15.56
17.77
19.29
20.23
20.85
21.29
21.34
20.53
18.3
14.46
9.45
4.46
1.09
0.9
4.78
12.68
23.64
36.25
49.26
62
74.6
87.48
101.02
115.2
129.54
143.55
157.26
171.19
185.96
201.68
217.7
233.08
247.51
261.79
277.51
295.67
315.11
331.92
340.4
335.25
313.79
277.07
229.11
174.83
117.91
59.88
0.89
-58.6
-116.35
-168.34
-210.15
-239.07
-255.46
-262.68
-265.41
-267.26
-269.36
-270.46
-268.31
-261.67
-251.29
-239.44
-228.36
-218.64
-208.59
-195.03
-174.96
-147.29
-113.54
-77.43
-43.62
-16.05
3.14
13.94
17.89
16.88
12.06
3.31
-10.45
-30.32
-56.43
-87.46
-120.61
-152.17
-178.21
-195.3
-201.18
-195.26
-178.76
-154.49
-126.12
-97.26
-70.81
-48.61
-31.49
-19.48
-11.93
-7.47
-4.12
0.2
6.91
16.1
26.52
36.46
44.86
52.04
59.46
68.6
79.48
90.12
96.98
96.66
87.64
71.31
51.44
32.47
17.55
7.25
-0.17
-7.42
-16.56
-28
-40.74
-53.15
-63.98
-72.6
-78.63
-81.33
-79.39
-71.45
-57.06
-37.37
-15.01
7.02
26.69
43.87
60.17
77.79
98.04
120.63
143.82
165.46
183.98
198.65
209.26
215.42
216.45
211.79
201.87
188.45
174.07
160.95
149.86
139.84
128.75
114.42
95.75
73.05
47.73
21.57
-4.05
-28.41
-51.52
-73.76
-95.65
-117.56
-139.62
-161.63
-183
-202.41
-217.8
-226.62
-226.88
-218.16
-202.2
-182.41
-162.42
-144.47
-128.63
-113.3
-96.43
-76.95
-55.21
-32.86
-12.07
4.88
15.77
18.66
12.48
-2.05
-21.97
-42.59
-59.04
-68.13
-69.31
-64.34
-55.99
-46.72
-37.91
-30.23
-24.07
-19.91
-17.96
-17.73
-17.87
-16.69
-13.02
-7.02
-0.24
5.03
6.74
3.96
-2.68
-11.19
-18.95
-23.54
-23.55
-19.03
-11.48
-3.42
2.51
4.31
1.19
-6.42
-17.3
-30.03
-43.6
-57.65
-72.31
-87.73
-103.66
-119.2
-132.98
-143.63
-150.45
-153.7
-154.38
-153.62
-151.86
-148.39
-141.29
-128.1
-106.58
-75.4
-34.8
12.91
63.04
108.92
143.22
160.35
158.87
142.84
120.86
103.02
97.11
105.77
126
150.84
172.21
183.51
181.32
166.03
141.59
114.58
92.32
80.7
82.14
94.93
114.4
135.26
153.65
167.83
177.38
181.86
180.19
171.39
155.99
136.83
118.39
105
99.17
100.88
108.17
118.23
128.25
135.8
138.85
135.93
126.67
111.97
93.81
74.36
55.18
36.9
19.67
3.9
-9.44
-19.21
-24.73
-26.46
-25.81
-24.34
-22.99
-21.65
-19.5
-15.77
-10.32
-4.01
1.63
4.94
4.94
1.92
-2.51
-5.76
-5.48
-0.59
8.03
18.01
26.64
32.31
35.19
36.91
39.31
43.38
48.77
54.33
59
62.44
64.95
66.86
68.05
67.83
65.22
59.5
50.31
37.59
21.51
2.5
-18.45
-39.67
-59.16
-75.27
-87.4
-96.3
-103.71
-111.54
-121.17
-133.08
-146.96
-161.99
-177.17
-191.52
-204.29
-215.09
-224.14
-232.04
-239.53
-246.87
-253.28
-256.84
-254.94
-245.2
-226.63
-200.57
-170.9
-143.45
-124.59
-119.29
-129.31
-152.24
-181.72
-209.03
-225.52
-225.02
-205.44
-169.4
-123.38
-76.05
-35.95
-9.27
1.8
-0.55
-10.77
-21.95
-28.02
-25.33
-13.21
6.63
31.19
56.99
80.76
99.61
111.34
115.01
111.48
103.37
94.38
88.04
86.37
89.35
95.14
101.26
105.67
107.56
107.53
107.19
108.45
112.7
120.35
130.63
141.86
152.04
159.51
163.42
163.87
161.73
158.32
155.1
153.39
153.86
155.91
157.28
154.31
143.23
121.76
90.56
53.23
15.04
-19.13
-46.26
-65.57
-77.55
-82.82
-81.52
-73.63
-59.96
-42.61
-24.68
-9.08
2.55
10.36
15.82
20.65
25.98
32.06
38.51
44.76
50.33
54.84
57.88
58.99
58.09
55.69
53.03
51.57
52.23
54.82
58
59.98
59.64
57.3
54.67
54.05
57.07
63.81
72.7
81.24
86.9
87.93
83.52
73.46
57.74
36.48
10.23
-19.48
-49.88
-77.3
-98.05
-109.6
-111.51
-105.8
-96.38
-88.02
-84.83
-89.03
-100.25
-115.72
-131.24
-142.62
-146.92
-143.28
-132.84
-118.09
-101.82
-86.24
-72.61
-61.29
-52.11
-44.76
-38.94
-34.32
-30.37
-26.28
-21.09
-13.88
-4.18
7.86
21.48
35.49
48.7
60.13
69.09
75.25
78.49
78.98
77.18
73.77
69.4
64.27
57.93
49.33
37.26
20.91
0.2
-24.23
-51.36
-80.09
-109.26
-137.52
-163.18
-184.32
-199.17
-206.6
-206.31
-198.73
-184.82
-165.81
-143.25
-119
-95.05
-73.16
-54.32
-38.55
-25.1
-13.07
-2.02
7.78
15.55
20.54
22.56
22.21
20.76
19.9
21.39
26.89
37.75
54.62
77.11
103.38
130.13
153.19
168.46
173.33
167.4
152.7
132.96
112.45
94.68
81.7
73.93
70.47
69.7
69.8
69.19
66.68
61.64
54.1
44.79
35.16
27
21.89
20.41
21.6
23.03
21.66
15.07
2.51
-14.86
-34.76
-54.92
-73.97
-91.39
-106.7
-118.67
-125.09
-123.59
-112.96
-94.18
-70.48
-46.21
-25.31
-9.95
-0.08
6.15
11.24
17.31
25.46
35.68
47.25
59.26
70.82
81.08
89.13
93.98
94.9
91.97
86.46
80.7
77.36
78.39
84.37
94.13
105.21
114.64
119.72
118.6
110.56
96.01
76.27
53.31
29.45
7.02
-11.8
-25.17
-31.81
-31.31
-24.5
-13.55
-1.46
8.79
15.24
17.29
15.44
10.45
2.71
-7.63
-20.17
-33.57
-45.54
-53.76
-57
-56.04
-53.4
-52.17
-54.5
-60.6
-68.65
-75.84
-79.57
-78.49
-72.75
-63.67
-52.92
-41.78
-30.76
-19.68
-8.06
4.42
17.63
31.1
44.34
57.1
69.56
82.04
94.64
107.06
118.66
128.79
137.11
143.78
149.42
154.84
160.78
167.59
174.88
181.55
185.96
186.57
182.44
173.55
160.5
144.01
124.29
101.06
74.09
43.94
12.6
-16.63
-40.09
-54.86
-59.88
-56.32
-47.16
-36.32
-27.48
-23.06
-23.64
-27.94
-33.54
-38.06
-40.47
-41.8
-44.84
-53.1
-69.14
-93.33
-123.49
-155.54
-184.83
-207.55
-221.6
-226.71
-223.77
-214.21
-199.32
-180.25
-158.19
-134.71
-111.92
-92.17
-77.51
-69.07
-66.66
-68.78
-72.99
-76.72
-77.96
-75.79
-70.44
-62.84
-54.19
-45.4
-36.95
-28.96
-21.57
-15.16
-10.35
-7.82
-7.9
-10.29
-14.08
-17.98
-20.78
-21.68
-20.44
-17.38
-13.18
-8.75
-4.89
-2.19
-0.95
-1.22
-2.89
-5.8
-9.86
-15.01
-21.21
-28.36
-35.98
-43.15
-48.41
-50.11
-47.02
-39.03
-27.45
-14.67
-3.33
4.71
8.84
9.42
7.02
1.82
-6.26
-17.01
-29.18
-40.37
-47.81
-49.39
-44.47
-33.8
-18.84
-1.01
18.62
39.03
58.87
76.46
90.39
100.26
107.07
112.73
119.02
126.4
133.7
138.65
139.05
133.73
122.85
107.47
88.74
67.4
43.85
18.46
-8
-34.24
-58.74
-79.99
-96.61
-107.1
-109.78
-103.23
-87.16
-63.38
-36.15
-11.25
5.94
12.37
8.44
-2.43
-15.29
-25.69
-31.08
-31.05
-26.64
-19.3
-10.23
-0.24
9.99
19.72
28.19
34.92
40.17
44.85
50.4
58.21
69.06
82.73
97.89
112.31
123.35
128.48
125.95
115.21
97.2
74.16
49.29
26.09
7.55
-4.38
-9.1
-7.28
-0.48
9.4
20.44
30.7
38.09
40.37
35.45
22.11
0.98
-25.02
-50.98
-71.41
-82.06
-81.54
-71.7
-56.67
-41.19
-28.81
-21.03
-17.45
-16.67
-17.32
-18.64
-20.56
-23.38
-27.52
-33.34
-41.14
-51.06
-62.76
-75
-85.66
-92.27
-92.93
-87.24
-76.74
-64.3
-52.99
-44.83
-40.17
-38
-36.86
-35.73
-34.48
-33.45
-32.86
-32.22
-30.51
-26.65
-20.17
-11.75
-3.04
3.78
6.88
5.46
0.07
-7.57
-15.27
-21.22
-24.69
-26.1
-26.48
-26.75
-27.04
-26.79
-25.23
-22.02
-17.66
-13.28
-10.02
-8.51
-8.62
-9.71
-11.04
-12.16
-13.01
-13.71
-14.26
-14.21
-12.77
-8.96
-1.98
8.58
22.45
38.77
56.16
72.99
87.7
99.08
106.52
110
110.02
107.3
102.58
96.44
89.34
81.7
74
66.85
60.86
56.52
54.07
53.37
53.94
55.01
55.7
55.21
52.98
48.86
43.06
36.25
29.28
23.17
18.77
16.66
16.85
18.8
21.54
23.95
25.11
24.5
22.03
17.94
12.52
6.12
-0.97
-8.42
-15.82
-22.79
-28.93
-33.94
-37.65
-39.93
-40.81
-40.37
-38.75
-36.1
-32.53
-28.14
-23.05
-17.57
-12.24
-7.85
-5.11
-4.35
-5.22
-6.77
-7.67
-6.69
-3.2
2.64
9.97
17.5
23.99
28.53
30.69
30.52
28.36
24.84
20.69
16.63
13.35
11.29
10.57
10.9
11.65
11.92
10.79
7.6
2.17
-5.12
-13.44
-21.85
-29.55
-36.12
-41.47
-45.63
-48.52
-49.77
-48.9
-45.53
-39.67
-31.91
-23.37
-15.42
-9.36
-6.1
-5.97
-8.75
-13.72
-19.88
-26.13
-31.54
-35.51
-37.81
-38.54
-38.05
-36.73
-34.93
-32.96
-31.11
-29.75
-29.32
-30.28
-33.06
-37.84
-44.4
-51.92
-58.86
-63.27
-63.18
-57.37
-45.81
-29.9
-12.02
5.1
19.26
29.16
34.53
35.79
33.71
29.17
23.13
16.71
11.02
7.03
5.24
5.47
6.93
8.52
9.23
8.42
5.95
1.98
-3.2
-9.36
-16.46
-24.45
-33.09
-41.85
-49.8
-55.86
-59.09
-58.96
-55.59
-49.65
-42.13
-34
-26.02
-18.67
-12.22
-6.9
-2.99
-0.84
-0.77
-2.93
-7.15
-12.79
-18.78
-23.79
-26.75
-27.13
-25.25
-22.04
-18.64
-15.99
-14.46
-14.01
-14.44
-15.59
-17.34
-19.38
-20.98
-21.05
-18.44
-12.49
-3.47
7.39
18.31
27.48
33.65
36.34
35.9
33.21
29.39
25.45
22.14
19.87
18.7
18.47
18.83
19.36
19.63
19.38
18.53
17.24
15.81
14.53
13.45
12.41
11.07
9.17
6.84
4.66
3.68
5.08
9.82
18.24
29.69
42.5
54.16
61.92
63.6
58.28
46.64
30.69
13.09
-3.69
-17.92
-28.75
-36.04
-40
-41.02
-39.64
-36.63
-32.96
-29.59
-27.27
-26.26
-26.39
-27.32
-28.78
-30.75
-33.39
-36.86
-41.02
-45.31
-48.83
-50.54
-49.58
-45.52
-38.51
-29.17
-18.44
-7.4
2.89
11.54
17.87
21.6
22.92
22.46
21.15
19.83
18.97
18.58
18.35
17.92
17.19
16.41
16.05
16.49
17.94
20.27
23.22
26.44
29.5
31.89
32.9
31.84
28.27
22.32
14.88
7.43
1.65
-1.02
0.09
4.79
12.16
20.83
29.45
36.97
42.77
46.58
48.37
48.2
46.24
42.84
38.52
34.03
30.12
27.27
25.58
24.7
24.02
22.99
21.37
19.36
17.42
15.97
15.16
14.65
13.82
11.97
8.63
3.71
-2.36
-8.77
-14.48
-18.45
-19.84
-18.23
-13.65
-6.65
1.96
11.17
20.02
27.66
33.47
37.1
38.44
37.69
35.32
31.96
28.27
24.86
22.19
20.52
19.92
20.24
21.15
22.23
23.05
23.3
22.85
21.73
20.14
18.23
16.04
13.47
10.35
6.63
2.6
-1.1
-3.56
-3.88
-1.49
3.73
11.38
20.62
30.26
38.88
45.06
47.76
46.79
42.91
37.66
32.6
28.62
25.51
22.13
17.13
9.61
-0.45
-12.4
-25.27
-38.21
-50.42
-61.04
-68.98
-73.26
-73.37
-69.86
-64.26
-58.69
-54.95
-53.93
-55.41
-58.34
-61.35
-63.2
-63.06
-60.42
-55.1
-47.15
-37.17
-26.15
-15.5
-6.66
-0.67
2.16
2.32
0.8
-1.3
-3.36
-5.53
-8.77
-14.33
-23.18
-35.34
-49.78
-64.62
-77.79
-87.68
-93.39
-94.78
-92.23
-86.54
-79.01
-71.49
-66.17
-64.65
-67.01
-71.18
-73.48
-70.14
-59.18
-41.68
-21.52
-3.76
7.59
11.12
8.39
2.84
-1.83
-3.03
0.24
7.8
18.97
32.93
48.57
64.15
77.19
84.98
85.69
79.38
68.42
56.8
48.63
46.49
50.42
58.21
66.38
71.75
72.51
68.62
61.46
53.25
46.53
43.62
46.5
56.48
73.77
96.97
122.73
145.97
161.13
163.89
152.93
130.65
102.4
74.37
51.1
34.03
21.5
10.31
-2.29
-17.16
-33.14
-48.04
-60.09
-69.04
-76.41
-84.89
-97.39
-116.07
-141.73
-173.6
-209.41
-245.74
-278.32
-302.7
-314.86
-312
-293.15
-259.52
-214.34
-162.36
-108.91
-58.91
-16.09
17.41
41.17
56.28
64.93
69.77
73.18
76.6
80.19
83.08
84.23
83.27
81.15
79.87
81.63
87.67
97.4
108.53
118.1
123.81
124.94
122.42
117.95
112.94
107.87
102.59
97.16
92.54
90.7
93.78
102.72
116.56
132.5
147.11
157.68
162.95
162.86
157.61
146.77
129.41
105.04
74.63
41.04
8.18
-20.53
-43.3
-60.3
-72.58
-80.8
-84.59
-82.96
-75.65
-64.15
-51.62
-41.67
-36.52
-35.95
-37.48
-37.87
-34.87
-28.27
-19.64
-11.25
-4.72
-0.39
2.29
3.99
4.74
3.81
0.29
-6.17
-14.98
-24.69
-33.61
-40.31
-44.06
-44.86
-43.19
-39.84
-35.7
-31.56
-28.1
-25.67
-24.31
-23.78
-23.78
-24.16
-25.06
-26.78
-29.57
-33.29
-37.32
-40.66
-42.21
-41.23
-37.56
-31.7
-24.53
-17
-9.85
-3.48
1.9
6.12
8.89
9.89
8.98
6.4
2.83
-0.8
-3.63
-5.25
-5.77
-5.66
-5.47
-5.52
-5.86
-6.37
-7
-7.98
-9.69
-12.45
-16.21
-20.41
-24.09
-26.17
-25.82
-22.6
-16.55
-8.15
1.84
12.35
22.12
29.88
34.65
36
34.22
30.21
25.16
20.18
16.02
12.99
11.13
10.3
10.33
10.99
11.96
12.86
13.31
13.03
11.96
10.15
7.64
4.44
0.52
-4
-8.69
-12.75
-15.21
-15.21
-12.38
-6.9
0.47
8.69
16.75
23.85
29.46
33.27
35.14
35.05
33.14
29.86
25.88
22.07
19.17
17.56
17.07
16.96
16.23
14.08
10.25
5.27
0.22
-3.67
-5.58
-5.39
-3.64
-1.26
0.98
2.77
4.53
7.17
11.78
19.19
29.62
42.43
56.26
69.36
80.02
87.04
90.04
89.55
86.92
83.93
82.27
82.91
85.52
88.41
89.04
84.92
74.7
58.75
39.07
18.45
-0.59
-16.49
-28.84
-38
-44.48
-48.67
-50.71
-50.73
-48.94
-45.73
-41.47
-36.38
-30.48
-23.59
-15.48
-5.99
4.77
16.34
27.85
38.18
46.31
51.61
54.17
54.74
54.48
54.59
56.02
59.49
65.5
74.34
85.95
99.63
113.88
126.49
135.08
137.8
133.97
124.11
109.6
92
72.53
51.92
30.62
9.24
-11.44
-30.66
-48.19
-64.6
-81.29
-99.85
-121.41
-146.08
-172.81
-199.77
-224.74
-245.44
-259.65
-265.31
-260.94
-246.25
-222.71
-193.38
-161.81
-130.58
-100.21
-69.27
-35.79
0.95
39.3
75.47
104.88
123.93
130.98
126.43
112.11
90.63
65.07
38.86
15.61
-1.46
-10.37
-10.81
-4.17
6.96
19.62
31.06
39.2
42.97
42.41
38.66
33.45
28.51
24.94
22.96
22.25
22.45
23.58
26.08
30.34
36.37
43.63
51.37
59.13
67.08
75.85
85.9
96.87
107.38
115.59
120.05
120.39
117.38
112.31
106.44
100.77
96.24
94.09
95.71
101.99
112.61
125.79
138.85
149.17
154.99
155.69
151.54
143.54
133.4
123.73
117.67
117.7
124.26
134.91
144.96
149.46
145.45
133.23
115.79
96.96
79.37
63.38
47.46
29.46
7.97
-17
-44.41
-72.87
-101.55
-130.47
-160.4
-192.3
-227.09
-265.49
-308.03
-354.79
-404.7
-454.86
-500.3
-534.92
-553.43
-553.46
-536.7
-508.48
-475.62
-443.99
-416.83
-394.53
-375.68
-358.4
-341.1
-322.57
-301.54
-276.55
-246.23
-209.9
-167.81
-121.1
-71.43
-20.68
29.2
76.02
117.54
151.84
177.85
195.59
206.03
210.61
210.82
208.1
203.89
199.43
195.26
190.74
184.11
173.08
156.12
133.34
106.51
78.27
50.76
24.9
0.47
-23
-45.19
-64.61
-79.2
-87.45
-89.3
-86.51
-81.94
-78.48
-77.84
-80.02
-83.61
-86.62
-87.49
-85.69
-81.43
-75.12
-66.79
-56.15
-43.16
-28.72
-14.75
-3.48
3.56
6.2
5.63
3.69
1.86
0.86
0.77
1.57
3.56
7.23
12.79
19.85
27.36
34.1
39.19
42.31
43.65
43.52
42.31
40.47
38.81
38.53
41.05
47.47
58.08
72.12
87.88
103.23
116.34
126.15
132.68
136.59
138.74
139.49
138.42
134.58
127.07
115.59
100.63
83.17
64.23
44.66
25.39
8.08
-4.79
-10.39
-6.76
5.82
24.42
44.32
60.8
71
74.86
74.61
73.34
73.44
75.75
79.83
84.92
90.73
97.49
105.26
113.1
118.7
119.2
112.56
98.9
80.81
62.57
48.28
40.22
37.87
38.46
38.32
34.78
27.35
17.91
9.76
5.95
7.87
14.63
23.33
30.25
32.06
26.97
15.05
-1.86
-20.81
-38.23
-50.76
-55.75
-51.92
-39.73
-21.36
0.03
21.31
40.44
56.67
70.03
80.36
86.39
85.8
75.92
54.82
22.03
-21.12
-71.47
-124.17
-173.08
-211.51
-233.7
-236.82
-222.25
-195.65
-165.21
-138.82
-121.17
-112.5
-109.22
-106.22
-99.29
-86.71
-69.35
-49.62
-30.07
-12.49
2.37
14.33
23.13
27.89
27.41
20.8
8.15
-9.43
-30.43
-53.84
-79.61
-108.33
-140.11
-173.67
-205.96
-232.94
-250.72
-256.63
-249.6
-229.95
-199.09
-159.37
-114.2
-67.91
-24.94
11.46
40.34
63.28
83.4
103.7
125.8
149.58
173.87
197.53
219.95
240.79
259.11
272.87
279.21
275.79
262.09
240.01
213.33
186.08
161.17
139.69
121.29
105.22
91.23
79.79
71.55
66.61
63.98
61.69
57.51
49.64
37.15
20.13
-0.48
-23.13
-45.86
-66.71
-84.15
-97.61
-107.74
-116.04
-124.21
-133.29
-143.03
-152.07
-158.69
-161.69
-160.96
-157.29
-151.8
-145.45
-139.01
-133.36
-129.92
-130.47
-136.5
-148.28
-164.34
-181.59
-196.05
-203.89
-202.22
-189.59
-166.18
-133.82
-95.9
-56.83
-21.14
7.56
27.33
37.92
40.1
35.07
24.36
10.32
-3.61
-13.37
-15.63
-9.41
3.56
19.74
35.75
49.9
62.33
73.99
85.17
94.88
101.46
103.77
102.17
98.19
93.73
89.98
87.18
84.78
81.89
77.58
70.98
61.52
49.3
35.33
20.99
7.21
-6.24
-20.49
-36.18
-52.12
-64.96
-70.57
-66.33
-52.97
-34.49
-16.31
-2.59
5.43
9.32
11.81
14.8
18.37
21.09
21.41
19.06
15.54
13.75
16.65
25.99
41.53
61.2
81.97
101.04
116.78
128.76
137.31
142.77
145.19
144.63
141.71
137.77
134.46
132.69
131.83
129.78
123.89
112.31
95.05
74.14
52.84
34.3
20.35
11.04
4.93
0.01
-5.2
-10.98
-16.41
-19.96
-20.49
-17.91
-13.45
-9.25
-7.65
-10.39
-18.48
-32.06
-50.57
-72.8
-96.89
-120.47
-141.08
-156.68
-166.09
-169.16
-166.65
-159.83
-150.03
-138.47
-126.21
-114.04
-102.4
-91.24
-80.05
-68.02
-54.64
-40.28
-26.28
-14.34
-5.32
1.85
10.48
24.96
48.72
82.12
121.6
160.8
192.92
213.41
221.36
219.06
210.29
198.56
186.34
175.61
168.74
168.72
178
196.7
221.31
245.04
260.04
260.2
243.37
211.64
169.77
122.95
75.14
28.65
-15.02
-54.3
-87.1
-111.52
-126.94
-134.76
-138.15
-140.97
-146.23
-154.98
-166.09
-176.98
-184.71
-187.18
-183.67
-174.78
-161.97
-146.89
-131.07
-115.67
-101.65
-89.7
-80.23
-73.29
-68.44
-64.92
-61.79
-58.11
-53.1
-46.28
-37.59
-27.42
-16.64
-6.4
2.08
7.88
10.55
10.3
7.91
4.5
1.41
-0.05
1.11
5.33
12.16
20.22
27.47
31.77
31.7
27
18.75
9
0.08
-6.04
-8.18
-6.08
-0.28
8.06
17.41
26.08
32.52
35.62
35.03
31.09
24.67
16.66
7.68
-2.13
-12.83
-24.28
-35.79
-46.04
-53.49
-56.95
-56.17
-51.96
-45.96
-40.02
-35.63
-33.6
-33.98
-36.34
-39.95
-44.04
-47.81
-50.63
-52.14
-52.45
-52.17
-52.21
-53.43
-56.26
-60.51
-65.48
-70.27
-74.21
-77.07
-79.11
-80.84
-82.72
-84.75
-86.46
-86.98
-85.47
-81.44
-75.04
-66.99
-58.15
-49.18
-40.25
-31.15
-21.53
-11.27
-0.52
10.34
20.86
30.64
39.31
46.48
51.84
55.33
57.37
58.82
60.72
63.74
67.8
72
74.94
75.32
72.45
66.39
57.88
47.88
37.35
27.15
18.19
11.6
8.58
10.05
16.11
25.77
37.04
47.5
55.09
58.7
58.35
54.92
49.66
43.73
37.92
32.69
28.3
24.95
22.77
21.73
21.55
21.57
20.89
18.61
14.16
7.63
-0.15
-7.88
-14.15
-17.98
-19.05
-17.63
-14.33
-9.8
-4.48
1.25
6.99
12.16
16.08
18.16
18.17
16.32
13.21
9.53
5.93
2.86
0.65
-0.35
0.2
2.64
6.95
12.67
18.88
24.43
28.36
30.22
30.12
28.49
25.72
21.97
17.13
11.13
4.15
-3.19
-9.96
-15.13
-17.82
-17.42
-13.69
-6.71
3.03
14.66
27.02
38.83
49.04
57.01
62.69
66.46
68.9
70.48
71.37
71.41
70.29
67.75
63.8
58.88
53.84
49.7
47.29
46.82
47.74
48.83
48.66
46.08
40.72
32.88
23.49
13.67
4.47
-3.19
-8.65
-11.53
-11.95
-10.53
-8.32
-6.36
-5.53
-6.29
-8.85
-13.38
-20.14
-29.31
-40.78
-53.84
-67.15
-78.96
-87.69
-92.37
-93.07
-91.17
-89.25
-90.8
-99.23
-116.73
-142.94
-174.51
-205.58
-229.55
-241.22
-238.33
-222.08
-196.05
-164.42
-130.12
-93.97
-55.29
-13.41
30.81
74.34
112.92
142.69
161.88
171.3
173.76
172.53
169.98
167.02
163.69
159.92
156.3
154.02
154.17
156.89
161
164.08
163.37
156.68
143.24
124.13
102.17
81.02
64.01
52.9
47.33
45.25
44.19
42.54
40.19
38.18
37.56
38.34
39.32
38.88
36.09
31.35
26.1
21.64
17.98
13.71
7.12
-2.36
-13.2
-22.52
-27.75
-28.48
-26.7
-25.69
-27.95
-33.67
-40.81
-46.48
-48.75
-47.59
-44.47
-41.29
-39.11
-37.81
-36.41
-33.72
-28.71
-20.59
-8.82
6.67
25.22
45.25
64.74
82.06
96.69
109.54
122.28
136.4
152.16
168.23
182.15
190.93
191.56
181.34
158.37
122.9
78.89
34.86
2.48
-7.5
9.77
50.01
100.55
145.04
170.23
170.84
150.26
117.12
80.09
44.31
11.21
-19.03
-44.85
-62.86
-69.86
-65.72
-54.58
-43.48
-39.04
-44.06
-56.38
-70.51
-80.92
-85.12
-84.55
-83.24
-85.05
-91.28
-100.17
-108.13
-111.88
-110.1
-104.09
-96.74
-91.07
-88.96
-90.44
-94.14
-98.14
-100.89
-101.64
-100.38
-97.36
-92.7
-86.18
-77.38
-65.98
-52.13
-36.45
-19.77
-2.89
13.65
29.46
44.03
56.41
65.21
68.86
66.04
56.14
39.43
16.96
-9.72
-38.67
-67.64
-93.83
-114.04
-125.06
-124.72
-113.02
-92.71
-68.88
-47.46
-33.44
-29.36
-35.08
-48.58
-67.35
-89.46
-113.94
-140.42
-168.59
-198.03
-228.36
-259.66
-292.44
-327.21
-363.71
-400.33
-433.98
-460.65
-476.41
-478.59
-466.53
-441.88
-408.06
-369.35
-329.73
-291.93
-257.13
-225.1
-194.83
-165.17
-135.32
-104.97
-74.14
-43.09
-12.2
17.78
45.67
70.04
89.55
103.63
112.83
118.82
123.88
130.04
138.34
148.49
159.17
168.66
175.55
179.17
179.61
177.41
173.27
167.8
161.48
154.71
147.77
140.83
133.75
126.15
117.53
107.68
97.11
87.2
79.93
77.29
80.47
89.37
102.47
117.29
131.04
141.43
147.06
147.61
143.65
136.32
127.01
116.94
106.83
96.53
85.02
70.66
51.9
28.09
0.01
-30.03
-58.62
-82.11
-97.53
-103.23
-99.28
-87.26
-69.91
-50.41
-31.53
-14.94
-0.76
12.3
26.11
42.14
60.69
80.86
101.21
120.57
138.48
155
170.09
183.21
193.56
200.91
206.04
210.47
215.07
218.73
218
208.6
187.87
156.89
120.7
86.38
59.88
43.67
36.29
34.1
33.69
33.18
32.03
29.76
25.19
17
5.33
-6.99
-14.79
-12.84
1.23
24.87
50.95
70.11
74.33
59.71
27.62
-16.07
-63.08
-105.31
-137.05
-156.47
-165.77
-170.18
-175.86
-187.65
-207.63
-234.98
-266.94
-300.17
-331.54
-358.11
-376.66
-383.82
-376.8
-354.76
-319.53
-275.42
-227.74
-180.84
-136.87
-95.63
-55.63
-15.52
24.78
63.94
99.73
129.89
152.74
167.55
174.52
174.64
169.34
160.02
147.66
132.54
114.48
93.61
71.08
49.44
32.1
22
20.36
25.93
35.72
46.31
55.27
61.76
66.25
69.61
72.44
75.09
78.08
82.49
89.66
100.43
114.19
128.71
140.85
147.73
147.76
140.88
128.02
110.37
89.12
65.82
42.91
23.78
11.65
8.04
11.48
17.91
22.4
21.71
15.63
6.74
-1.51
-6.73
-8.34
-6.9
-2.72
5.06
18.11
37.61
63.19
92.74
123.35
152.47
178.68
201.46
220.64
235.86
246.52
252.33
253.69
251.79
248.02
243.31
237.55
229.65
217.95
200.99
178.09
149.41
115.67
77.62
35.84
-9.02
-55.65
-101.39
-142.01
-172.32
-187.37
-183.95
-161.8
-123.88
-75.81
-24.64
22.66
60.37
84.62
93.45
86.6
65.33
32.5
-7.52
-49.16
-86.51
-114.5
-130.1
-132.76
-124.13
-107.39
-86.32
-64.65
-45.6
-31.69
-24.59
-25.11
-33.45
-49.56
-73.55
-105.64
-145.8
-192.76
-243.44
-292.96
-335.67
-366.97
-384.91
-390.88
-388.79
-383.08
-376.45
-368.73
-357.18
-338.46
-310.84
-275.6
-236.71
-198.89
-165.52
-137.3
-112.6
-88.92
-64.62
-39.59
-14.77
9.02
31.91
54.84
78.37
101.61
121.93
136.06
141.85
139.66
132.51
124.91
121.12
123.91
134.3
152.04
176.2
205.1
235.92
264.68
287.04
299.96
303.27
299.86
294.41
290.85
290.51
291.7
291.06
285.73
274.76
259.25
241.33
223.09
206.25
192.48
183.91
182.77
190.18
204.72
222.12
236.25
241.4
234.5
216.21
190.3
161.78
134.77
111.18
90.51
70.72
49.46
25.11
-2.76
-33.47
-65.71
-98.13
-129.97
-161.38
-193.73
-229.58
-271.99
-323.18
-382.68
-446.04
-504.79
-548.28
-566.83
-554.76
-512.34
-445.9
-366.36
-286.7
-219.24
-173.09
-152.37
-155.29
-174.96
-201.65
-225.97
-241.59
-246.21
-240.63
-226.65
-205.23
-176.32
-140.01
-97.92
-53.57
-11.38
24.99
53.78
75.16
90.13
99.28
102.04
97.12
83.51
61.64
33.91
4.38
-22.11
-41.46
-51.43
-52.33
-46.67
-37.77
-28.33
-19.15
-9.07
4.24
22.73
46.81
74.85
103.86
130.59
152.71
169.38
181.09
188.99
194.12
197.02
197.72
196.13
192.37
186.96
180.57
173.56
165.56
155.39
141.58
123.08
99.98
73.8
47.06
22.23
0.72
-17.63
-34.3
-50.96
-68.39
-85.8
-101.22
-112.5
-118.51
-119.72
-118.03
-115.72
-114.37
-114.21
-114.32
-113.41
-110.57
-105.56
-98.49
-89.29
-77.38
-61.98
-42.9
-21.34
-0.21
16.6
25.59
25.1
15.81
0.23
-18.56
-37.97
-56.03
-70.71
-79.19
-77.93
-63.88
-36.31
1.95
44.96
85.73
119.01
143.26
160.75
175.55
191.04
208.04
224.75
237.99
244.73
242.99
231.8
210.78
180.3
142.02
99.47
57.67
21.66
-5.42
-23.52
-35.28
-44.37
-53.45
-63.21
-72.78
-81.05
-87.67
-93.15
-97.99
-101.8
-103.27
-101.04
-95.1
-87.59
-82.4
-83.6
-93.56
-111.41
-133.24
-153.47
-167.16
-171.99
-169.01
-161.81
-154.73
-150.88
-150.96
-153.31
-154.84
-152.41
-143.69
-127.64
-104.36
-74.83
-40.76
-4.45
31.3
63.53
89.64
108.04
118.6
122.77
123.19
122.96
124.57
129.02
135.56
142.06
145.99
145.56
140.63
132.83
124.99
120.08
120.5
127.72
142.1
162.61
186.22
207.76
220.64
218.74
198.92
162.64
115.96
67.35
24.58
-7.91
-29.74
-43.38
-52.07
-58.21
-63.08
-67.6
-73.07
-80.88
-91.49
-103.35
-113.01
-116.31
-110.57
-96.12
-76.44
-56.68
-41.55
-33.63
-32.98
-37.8
-45.6
-53.8
-59.95
-61.89
-58.4
-50.08
-39.71
-31.33
-28.32
-31.39
-38.16
-44.45
-46.74
-43.92
-37.39
-29.49
-21.59
-13.27
-3.02
10.16
25.54
40.7
52.66
59.38
60.72
58.38
55.27
54.62
59.05
69.7
85.33
102.33
115.51
120.12
113.93
98.39
78.11
58.7
44.41
36.64
34.09
34.32
35.49
37.18
39.87
43.7
47.3
47.95
42.55
29.1
7.72
-19.54
-49.65
-79.73
-107.79
-132.91
-154.79
-173.5
-189.23
-202.4
-213.43
-222.38
-228.21
-228.45
-219.79
-199.31
-166.18
-122.58
-73.44
-25
17.24
50.19
73.67
89.72
101.13
110
117.18
122.48
125.59
126.83
127.3
128.33
130.54
133.09
133.64
129.07
116.72
95.56
66.91
34.13
1.77
-25.8
-45.53
-56.57
-60.32
-59.89
-59.13
-61.31
-68.04
-79.01
-92.29
-105.36
-116.38
-124.75
-131.07
-136.28
-140.77
-144.05
-145.06
-142.91
-137.49
-129.54
-120.15
-109.98
-98.99
-86.56
-72.03
-55.31
-37.05
-18.4
-0.58
15.51
29.39
40.83
49.68
55.59
58.15
57.09
52.64
45.67
37.72
30.51
25.23
22.07
20.03
17.28
12.11
3.71
-7.32
-19.06
-28.96
-34.74
-35.14
-30.24
-21.31
-10.29
1.1
11.8
21.6
30.64
38.75
45.16
48.78
49.1
46.8
43.81
42.46
44.07
48.19
52.78
55.57
55.46
53.26
50.98
50.45
52.02
54.48
56
55.5
53.53
51.91
52.64
56.72
63.82
72.82
82.78
93.64
105.9
119.75
134.16
146.73
154.6
155.75
149.86
138.31
123.12
105.73
86.17
63.41
36.46
5.68
-26.61
-56.64
-80.54
-95.62
-101.2
-98.57
-90.31
-79.58
-69.32
-61.89
-58.79
-60.63
-67.1
-76.97
-88.09
-97.83
-103.71
-104.27
-99.77
-92.44
-85.87
-83.76
-88.35
-99.23
-113.07
-124.63
-128.78
-122.6
-106.75
-85.11
-63.08
-45.04
-32.54
-24.1
-16.62
-7.66
2.75
12.05
16.75
14.53
5.83
-6.29
-17.55
-24.25
-24.52
-18.32
-6.69
8.98
27.27
46.73
65.89
83.61
99.61
114.63
129.75
145.33
160.11
171.43
176.46
173.8
164.28
150.42
134.83
118.73
101.68
82.77
62.33
42.96
28.86
23.77
28.74
41.04
55.12
65.04
67.12
61.56
52.03
43.88
41.61
46.95
58.13
70.65
78.93
78.26
66.25
43.29
12.12
-22.96
-56.83
-84
-99.1
-97.85
-78.55
-43.78
-0.9
39.23
65.59
71.21
55.89
26.29
-7.3
-35.61
-54.14
-63.81
-68.62
-71.93
-74.01
-72.24
-63.68
-48.05
-29
-12.72
-4.9
-7.78
-19.16
-33.75
-46.1
-53.04
-54.76
-53.89
-53.47
-55.14
-58.39
-61.12
-61.04
-57.02
-49.8
-41.48
-34.42
-29.93
-27.62
-25.73
-22.2
-15.83
-6.91
3.07
12.32
19.72
25.38
30.3
35.7
42.22
49.57
56.69
62.38
65.91
67.35
67.52
67.55
68.45
70.7
74.12
78.09
81.85
84.75
86.48
86.91
86.02
83.68
79.69
73.93
66.52
58.02
49.31
41.35
34.84
29.95
26.28
23.1
19.81
16.29
12.96
10.53
9.6
10.25
12.03
14.24
16.36
18.35
20.58
23.39
26.61
29.34
30.18
27.8
21.63
12.21
1.04
-10.05
-19.66
-27.3
-33.33
-38.44
-43
-46.68
-48.64
-48.14
-45.15
-40.55
-35.82
-32.32
-30.63
-30.39
-30.53
-30
-28.41
-26.16
-24.27
-23.78
-25.19
-28.15
-31.59
-34.12
-34.59
-32.56
-28.44
-23.28
-18.45
-15.02
-13.42
-13.35
-14.02
-14.43
-13.86
-11.97
-8.87
-4.99
-0.92
2.59
4.77
4.86
2.34
-2.88
-10.25
-18.71
-26.85
-33.4
-37.5
-38.95
-38.21
-36.19
-34.03
-32.7
-32.79
-34.35
-36.84
-39.39
-41.15
-41.55
-40.57
-38.62
-36.31
-34.21
-32.63
-31.62
-30.99
-30.53
-30.04
-29.39
-28.56
-27.64
-26.81
-26.26
-26.14
-26.44
-26.97
-27.42
-27.5
-27.08
-26.19
-25.03
-23.8
-22.58
-21.2
-19.26
-16.25
-11.85
-6.09
0.53
7.25
13.26
18.07
21.56
23.91
