1.7105
-2.1462
9.3135
16.091
111.53
120.2
-466.37
9.1105
170.81
21.832
12.322
-6.4689
4.0219
-5.4131
-2.6164
13.915
-3.3666
-4.0466
1.579
-2.7015
-8.2925
11.092
-10.01
-0.76673
2.3883
-8.1519
16.421
-6.45
7.5407
5.4819
-7.3724
11.435
-11.683
-1.3089
5.7725
-9.7537
8.0358
-3.6615
4.9965
7.0041
-12.189
11.567
-4.6984
-3.3804
1.8354
-11.528
7.4337
-4.1488
6.5474
4.7772
-5.7786
8.2003
-12.165
4.0577
-4.2871
-4.7848
6.9715
-6.5432
12.439
-5.3662
-1.3119
6.6741
-8.9805
10.61
-7.6035
-1.7157
6.1412
-13.764
6.3014
1.307
6.314
5.3329
-14.434
15.291
-7.4281
4.3455
14.278
40.183
-10.826
-94.266
-19.457
29.233
7.6771
14.288
8.5944
15.987
-5.9929
-1.6868
5.3155
-9.0588
10.772
-7.4812
4.1817
1.9816
-9.8213
7.8034
-5.3814
-17.397
-9.4537
-23.251
37.565
-1.7563
11.291
23.042
-36.14
-6.905
5.4413
15.93
-4.6406
23.787
-17.963
-8.8285
14.621
0.82721
13.426
-7.5284
6.2601
-9.3887
13.187
4.6748
-24.206
10.253
-14.885
2.0674
2.9502
-5.8427
8.6446
13.487
-11.307
-23.372
-5.8914
9.0324
-1.6486
-0.79843
0.81297
2.5796
4.3481
-3.9284
7.0115
-7.536
-1.8212
-2.632
6.6248
7.0435
-6.4738
6.5732
-9.9049
1.398
-3.4549
3.947
10.943
-10.018
5.0587
-5.0904
5.8365
1.4356
-7.485
9.277
-11.086
4.8383
-7.9405
2.8261
8.1299
-9.0394
16.705
-4.9925
-1.3404
9.9165
-9.2754
9.9369
-8.6229
-3.5636
7.6346
-11.224
5.3927
-6.4732
2.4575
14.403
-9.0645
9.7956
-11.871
-5.716
11.776
-11.604
10.565
-7.7462
6.2664
-2.8354
-8.2129
10.84
-6.3783
6.218
-6.7603
4.9059
1.0926
-2.9709
10.096
-13.256
5.7315
-5.6436
-3.0885
7.0714
-7.3079
15.389
-2.0725
-1.7948
6.6064
-9.7637
5.8807
-4.8677
-8.2554
7.2815
-1.9294
-2.8644
4.0641
-5.2867
9.9354
-0.72088
-5.371
8.9867
-7.3754
0.41398
8.6214
-14.512
11.317
-9.5289
-8.0313
15.383
-5.4316
2.0155
4.1523
-9.7466
5.7325
-9.0424
-7.8762
7.6729
-3.8267
22.614
1.3097
56.302
-270.56
218.23
58.251
-102.23
49.938
-16.327
-12.364
-41.517
-4.996
-40.583
271.3
-80.695
-112.18
76.45
-120.52
9.3178
-30.064
12.817
30.708
-53.247
57.31
60.478
-64.716
135.2
263.91
-31.826
-473.48
-76.59
17.937
-93.812
-50.295
-52.819
295.16
473.34
-243.74
-0.72762
-49.801
54.98
-33.262
-315.6
188.16
245.25
-13.794
-242.55
152.85
93.483
-38.397
-89.994
-44.353
93.954
-64.845
-92.092
-62.049
-93.178
-46.966
193.43
101.27
0.78075
-56.07
-189.25
192.14
66.203
-48.662
-21.593
-11.041
17.995
3.8372
12.837
16.925
-16.381
-33.418
45.246
-29.161
-19.289
-9.9694
-14.537
39.275
-14.357
-6.5179
-16.679
8.5941
16.792
-27.607
-1.3754
62.711
-34.302
-8.4236
3.9692
1.4299
11.475
-6.0002
10.528
7.1727
-22.39
27.319
5.2164
-17.568
7.2549
-26.023
-3.5077
11.603
-24.128
-0.36495
47.934
-7.0643
82.455
7.2812
-99.026
-5.0891
-53.199
-13.832
-5.1293
25.878
35.669
-40.508
5.6923
4.6091
20.277
-30.522
-20.746
25.717
-11.289
14.296
13.195
51.955
15.284
92.173
-29.082
-48.981
-45.429
-23.049
19.586
-9.9386
12.121
-11.591
11.303
-2.1671
-4.9338
-2.7987
2.4779
8.7087
-19.679
13.811
10.258
-34.147
10.522
36.774
-8.1115
-14.65
21.072
-1.7432
0.99072
-11.067
-19.918
20.522
-1.1742
10.553
-11.248
-7.5473
-4.7358
-5.5082
14.193
-17.162
19.713
-7.9687
-7.822
12.753
-16.883
17.471
6.0511
-13.856
14.498
-39.778
17.306
15.856
-11.044
0.90888
-6.147
33.092
-22.768
-0.68924
-15.662
-44.92
10.233
-11.926
-80.984
58.848
127.79
31.497
36.518
62.023
-84.782
95.553
-47.293
-49.854
-100.18
-158.77
-189.18
215.02
239.49
-121.06
-150.75
522.62
-60.742
-343.52
-229.72
408.96
324.8
-308.61
250.44
-271.45
-383.26
67.65
85.709
48.613
39.464
-3.0349
12.384
4.2309
-1.0828
-13.533
15.064
-34.587
14.869
26.42
10.771
-31.06
-19.086
-224.82
229.08
606.39
-148.11
-135.89
-172.39
-279.73
-99.933
107.39
-4.3816
-21.578
-5.7544
76.137
68.395
27.052
-40.04
-82.405
25.931
205.88
-28.539
-111.61
67.142
190.69
-195.4
-20.129
35.926
38.618
-30.296
-16.619
4.7511
12.567
-21.293
13.51
-5.1091
-1.6055
-1.7716
-10.559
0.089464
6.279
11.705
26.112
-7.8803
-54.151
25.94
90.302
-134.73
-112.58
72.245
40.501
25.877
-10.955
7.8783
1.6916
-4.255
10.539
-8.0562
3.045
2.1662
7.6135
-3.3785
2.0801
15.32
-8.171
7.1608
-7.1811
-5.441
8.7918
-11.102
5.627
-8.7596
-22.298
30.066
3.5259
20.942
28.554
28.225
-84.693
150.03
212
-65.247
-284.28
-4.0279
-50.582
-17.138
35.186
-21.838
20.092
1.4288
-9.5334
1.0523
-5.0584
-14.666
16.45
18.293
7.0556
-5.8077
40.271
-47.552
-13.866
18.585
36.486
-23.852
-0.35786
-12.984
-0.96783
-182.24
126.79
318.89
-220.49
-40.347
33.988
54.755
-26.219
71.73
-62.047
-45.359
-12.968
4.5387
-6.0465
3.4268
-0.052237
-2.7909
7.8868
-5.3962
5.5548
2.2571
-6.345
2.3626
-4.6056
-0.048502
3.5592
0.039735
2.8337
-1.3799
-1.271
4.9505
-10.035
3.2223
-2.1981
-6.4174
2.7504
3.6208
0.27723
1.3887
-7.3169
12.847
-11.455
133.3
23.577
-176.6
-28.307
-117.84
-254.79
292.83
544.97
-141.08
-86.863
-155.85
-45.416
40.074
197.16
-377.52
-19.406
241.43
-5.7051
98.52
-205.77
74.863
157.98
-299.6
-76.277
21.352
-124.63
355.58
195.31
-594.38
244.25
207.04
-146.22
185.33
-127.91
-78.655
28.693
-133.55
19.466
125.32
350.71
-140.72
-71.565
-85.889
-40.646
209.86
68.543
-191.11
-92.051
64.415
-45.192
-75.298
-13.242
-42.165
3.4984
7.6634
-26.719
45.568
18.898
23.929
-20.836
2.3887
11.025
-22.787
1.4441
95.271
-15.231
-27.429
-24.549
68.072
26.517
-24.391
0.70722
-56.604
2.5508
17.744
1.7294
1.162
-10.512
12.97
16.364
0.66923
-2.6645
-6.2129
89.399
197.36
-72.16
-362.98
46.783
198.47
18.965
-14.109
39.119
47.262
103.88
-254
-502.66
-54.999
556.45
189.05
-148.15
-76.09
-32.658
-1.7404
-6.3324
31.118
-8.4334
-9.4195
5.9825
-8.2911
1.2964
0.89932
7.8957
12.776
-8.2754
2.1327
3.6132
-12.085
3.093
7.6781
2.6936
42.693
1.4371
-57.581
-26.575
12.163
11.856
0.048174
-17.37
6.8968
12.461
-0.7848
2.3939
-14.585
9.0476
15.422
-4.9186
9.1081
-0.95713
-4.7502
13.105
-11.8
4.7401
13.311
-11.08
2.2186
-3.4356
6.6665
9.3565
-8.2683
0.089653
-0.20167
-1.5168
10.854
-3.7254
15.862
29.547
-32.681
-37.791
-0.44876
-6.6486
21.138
4.8539
42.743
19.957
222.85
98.223
-235.22
-353.44
-10.067
136.68
-47.558
59.506
51.398
6.0927
50.618
3.8388
-2.242
3.2905
-140.42
135.21
74.473
-123.55
26.196
147.92
-62.796
108.21
277.98
130.66
-221.05
-690.92
-34.356
411.44
-165.59
-570.79
-85.313
207.94
611.47
26.917
-206.82
57.454
-10.795
-7.5206
-36.239
-349.59
-13.457
425.03
136.61
21.673
-40.864
-28.635
-17.227
7.6738
0.98102
-4.2952
-1.4343
-21.482
17.365
9.536
-16.613
51.249
-26.187
-214.84
136.84
125.03
279.58
33.735
-270.92
-174.18
-76.11
29.4
355.99
308.31
-42.482
-55.363
-318.74
-681.82
-437.68
7.7379
321.02
373.29
168.77
-60.738
-25.076
63.631
137.48
209.7
177.99
-319.68
-196.68
37.333
-13.098
64.679
-63.882
80.913
135.51
-80.205
-61.907
-97.9
-84.889
-20.606
134.2
73.958
196.59
-385.77
68.717
281.1
-151.7
-34.967
-7.8983
46.135
-22.686
25.596
-15.595
10.796
-4.4331
0.11147
6.0942
-5.4144
7.9389
-20.755
-5.4384
11.258
-6.2404
-2.0762
-8.0999
9.1603
1.4176
2.5684
-0.96193
3.4729
-1.6576
22.109
32.783
244.75
-11.11
-332.39
4.5889
-9.7709
-135.98
-276.2
358.39
99.912
6.6144
229.11
-113.7
-154.23
-87.075
452.04
259.18
-377.27
-509.16
28.526
-170.5
87.371
305.92
65.268
-7.4555
-70.068
-61.6
37.684
37.62
33.152
-7.8719
-14.272
-8.184
-49.664
-0.094764
21.24
12.012
4.0433
1.3718
7.8021
2.4677
3.7687
-10.558
1.5298
5.5176
-8.0272
-3.2133
-3.7305
-6.0989
11.528
33.694
7.7232
-25.057
-1.1584
-5.2726
7.774
11.856
-15.186
-5.8933
27.649
-5.2463
-24.275
61.27
35.142
-14.798
143.77
-113.81
-372.24
188.81
142.83
-60.224
89.26
-56.746
-93.811
-22.313
434.46
20.414
-235.7
-91.775
-85.627
361.48
-33.605
-284.28
-426.94
264.81
212.5
16.019
-2.4345
-11.796
-1.0728
-18.36
30.502
30.014
249.23
264.36
-75.482
-1.3665
-93.729
-136.63
-70.552
-135
-192.74
-164.6
199.21
-170.31
-1605.7
923.12
569.18
-137.92
99.893
-13.86
43.283
-6.2057
43.832
126.78
319.48
107.52
-9.0933
-23.997
-25.321
-4.737
-6.445
-2.1933
-5.861
-2.4613
-11.18
-14.117
-9.3797
7.4491
-4.3199
17.1
-8.8123
-24.082
0.20315
4.9486
8.2472
-4.41
-5.9121
-6.8588
-20.638
-6.3008
4.9241
0.68999
-2.2963
-9.8193
-56.033
153.22
254.07
106.64
-651.02
-321.93
79.326
947.42
0.19519
-460.7
-58.127
-32.994
1.8419
-3.2345
60.611
-2.9459
-65.519
-35.406
-1.1234
9.4855
22.306
39.761
8.5788
-44.73
-22.24
5.9764
0.69269
-2.4949
12.404
-9.9848
-17.987
20.189
1.7928
-44.138
52.795
23.252
-23.914
-56.375
1.4742
47.181
-9.6418
7.1691
1.1458
-2.5664
6.0231
3.0601
-2.5505
0.90392
-5.9464
5.4143
2.8205
-6.969
5.2962
2.2425
-5.5284
3.551
-11.32
-8.1973
11.638
16.603
7.3765
-9.5782
15.912
28.639
-54.896
-5.1262
50.082
-92.138
-5.2713
58.361
6.1079
-8.4774
45.532
-68.415
-49.917
50.568
-11.862
50.214
36.579
-45.629
-14.591
9.2149
-4.5825
8.1857
-7.136
6.8556
-0.7959
-6.6468
8.9856
-6.6219
3.9748
11.901
-6.2582
14.659
-5.5237
-42.286
20.811
20.958
18.71
8.6063
-69.274
-3.0564
31.681
0.03549
7.76
2.3865
-10.407
-1.32
-13.579
-10.647
13.177
2.5109
16.445
19.771
6.4344
-5.7426
-8.8431
4.9161
-42.531
-24.865
27.525
14.255
-14.135
6.7342
7.2551
-11.129
22.674
31.155
-27.704
-26.585
9.7866
28.52
-35.307
-36.692
52.024
10.935
-6.5022
8.6847
-56.301
9.0445
32.558
-22.998
3.4244
37.393
-13.35
-13.328
-17.794
2.8178
31.528
-11.834
5.1563
0.47462
-14.834
7.6406
31.775
9.3471
-40.195
-12.25
7.0877
46.52
11.931
-88.115
-2.9766
37.899
18.508
15.778
-47.168
-1.1277
25.511
-7.8366
18.312
-11.024
17.858
-39.973
-43.351
31.552
9.4631
-22.493
24.896
34.913
15.181
19.728
-20.27
-15.556
-1.3629
-8.9686
20.608
-13.73
-41.711
53.14
-57.786
-23.847
60.313
-2.2196
-1.8238
1.7697
-16.629
-5.6124
-1.707
-8.8281
7.408
14.286
13.395
27.113
-33.857
-42.283
54.122
10.145
24.915
-35.742
-32.081
-46.047
56.217
48.063
2.4757
-24.091
-6.5087
-7.0332
-11.595
29.349
-21.269
-5.2438
15.9
-22.751
-1.1792
7.3921
0.84324
35.244
-16.599
-32.789
28.276
-4.9314
15.162
-35.495
6.3011
16.624
-12.754
3.6654
8.9375
-12.936
8.4563
0.17082
-11.049
15.086
2.7855
-12.576
4.973
-6.095
36.648
-40.952
-41.476
39.415
14.036
13.066
-43.776
-0.71178
6.1744
19.85
6.6575
13.23
-14.101
-0.068636
7.3135
-10.254
11.068
-6.446
-11.13
2.0803
-7.4601
13.65
14.316
-13.827
24.514
-49.531
-5.527
51.936
-71.095
16.81
46.319
-23.2
-2.9197
14.875
20.217
6.9012
-52.605
1.0456
5.1951
6.7219
19.566
-10.083
5.1101
6.215
-11.177
9.1452
-3.3559
1.5831
12.132
10.241
-1.4505
-23.337
-3.3386
-13.777
-11.616
19.744
17.363
-36.418
2.5952
23.694
-12.931
0.74137
-0.28405
-7.6686
12.531
-1.0193
-5.7697
-13.274
4.7715
17.149
3.7792
-4.2359
10.946
-9.5838
-0.75212
-3.7853
-14.469
28.587
7.7573
-13.408
2.7449
-16.142
0.22524
7.9409
-18.601
5.7252
-6.1517
3.9506
41.714
-26.463
12.21
-15.06
9.2416
2.7627
-39.05
22.934
3.4703
22.477
-40.1
-2.9781
8.446
-3.317
1.0249
-6.7953
17.525
1.4124
28.869
-22.554
-31.594
54.702
53.217
-29.131
-57.532
-12.796
7.015
30.522
-14.441
-5.7298
5.0979
-12.865
-2.3822
-0.67092
2.8833
15.746
-0.15701
-9.129
26.19
-19.488
-17.408
32.994
-48.791
9.4515
16.143
-15.864
20.314
13.543
7.0186
7.6154
-7.6112
-18.868
-9.6798
6.7432
12.25
-1.947
-2.618
7.8333
-19.665
13.691
-15.598
-27.929
27.516
18.093
-0.48051
16.291
-8.7524
-7.2015
16.1
-17.938
-19.121
-3.908
-13.804
12.581
4.1627
22.16
6.7997
-7.6142
19.75
-1.2519
-18.377
1.1481
-10.729
-14.557
-43.637
56.238
32.667
-4.85
-14.916
6.129
-17.657
-23.752
47.9
16.521
2.2664
-8.9246
-12.627
17.243
-16.542
-50.785
6.1279
13.674
7.418
-44.189
-11.353
26.278
12.057
43.425
-31.857
-32.873
6.8976
16.639
15.256
21.309
-65.037
-15.34
79.866
20.322
24.369
17.978
-17.596
-36.275
-34.552
1.9798
-4.1511
-25.681
50.577
-26.104
22.835
41.217
-79.537
-3.0483
1.8937
19.788
32.795
-11.57
-8.208
28.309
-11.004
-32.496
12.542
-27.666
-1.166
22.445
68.143
-10.074
-113.86
36.1
42.066
-10.55
0.64715
4.7885
-9.6792
7.8957
-12.805
-11.337
21.532
-13.22
-5.6646
12.597
28.185
-28.765
-38.054
17.152
39.513
5.0011
-9.5078
4.1557
-19.854
0.51702
7.0387
-11.625
17.223
-6.6525
-16.152
19.45
7.7101
-4.8244
-11.73
-7.6112
6.8526
0.04753
3.1829
-5.0945
-21.861
9.3637
37.988
-10.121
2.182
-4.4201
-26.382
11.444
-5.2304
-1.7614
13.974
-8.8563
15.268
-9.3047
-20.823
21.02
-13.565
-16.766
-64.229
68.048
81.459
-1.4466
-13.284
1.0998
13.567
-29.425
-24.191
-4.5243
9.9899
-3.1439
-2.5129
12.29
-35.562
-0.061514
20.091
14.169
-15.331
-16.96
32.322
-49.904
-29.4
38.936
72.55
21.132
-99.164
-75.28
5.9783
64.009
23.424
28.129
4.9486
0.26074
-0.33019
-4.33
6.6092
-3.6253
10.187
5.6494
-10.487
7.5966
-7.6984
-2.9027
3.6567
-9.3341
6.6697
7.277
-9.258
1.1163
-2.0072
-11.098
7.1985
0.85342
-15.103
-1.4017
-11.172
7.3309
13.466
-10.99
-3.0621
-14.899
10.709
13.353
-13.681
10.778
-1.8963
-9.1484
14.042
-10.307
17.575
6.1819
-7.154
17.32
-16.005
1.15
4.6333
-16.181
13.511
-4.1178
-1.1737
4.1244
-6.2875
-3.047
-8.5672
-0.20215
7.3485
-9.8476
-0.11917
4.1205
-1.5184
10.256
-6.0292
-8.7853
13.556
-8.7956
-6.543
2.0559
-7.1327
20.289
-5.0821
-16.264
21.203
-1.1608
-2.1922
11.436
-15.9
-0.18989
4.0789
-14.445
4.5611
-12.614
3.8338
21.917
-11.968
2.719
19.661
-22.557
8.5369
-0.58783
-9.8285
19.266
-0.40716
-12.257
8.942
-5.0981
4.832
17.645
-21.568
2.261
13.108
-12.5
13.913
0.62771
-10.606
12.166
-10.307
-4.1478
8.6416
-36.183
21.319
23.621
-34.304
-2.7768
9.411
-5.1248
16.862
-11.781
6.327
12.761
-29.75
6.8367
16.206
-15.267
10.362
-1.993
3.1755
14.512
-15.871
-5.1215
9.169
3.9705
11.238
9.3297
-20.205
7.5184
-4.1966
-6.0664
8.2014
-19.576
7.5521
6.0116
-6.5624
19.383
1.4651
1.7038
-2.3301
-20.052
2.9902
1.3215
-21.574
8.2623
6.5823
-10.583
14.486
-3.7736
5.758
5.2774
-24.746
22.845
-1.0465
-9.0567
16.238
-12.319
1.975
6.7631
-39.875
25.233
8.0964
-21.056
9.788
2.2661
55.77
226.7
253.26
-82.527
-632.19
-79.673
255.1
-602.04
296.52
153.53
11.815
-79.161
-135.65
278.9
59.342
14.71
26.829
27.514
2.9708
29.843
-12.88
-3.379
5.7344
4.2407
97.644
129.74
66.095
-290.53
-50.687
4.0806
-193.97
-63.403
256.95
232.2
55.804
46.669
21.656
-322.88
-161.04
129.36
72.371
-54.33
-93.861
-483.05
33.401
433.78
-52.097
-157.83
270.21
255.09
-129.5
-210.73
-86.737
-79.797
127.82
243.68
12.266
77.917
-198.78
-68.71
176.47
-73.809
17.932
-11.232
-80.935
-133.4
90.491
145.13
0.32684
-86.597
36.489
-6.8853
-35.565
9.077
41.303
27.753
-63.325
-81.337
-117.1
189.79
-31.764
33.277
340.25
-134.28
-406.18
331.45
-24.646
-202.07
98.421
-192.63
103.4
12.359
-324.79
135.8
322.87
144.47
285.35
273.24
-18.575
-478.7
-340.04
13.164
140.43
51.296
-379.69
-26.229
109.57
52.426
16.079
-108.19
-168.26
-102.18
662.42
168.87
-374.67
19.955
-73.231
80.596
66.794
-20.937
-79.464
-196.11
94.424
165.87
27.294
55.222
22.636
11.358
-79.137
-4.3296
-20.698
-151.53
11.655
100.6
14.607
19.44
81.195
168.13
-212.31
-382.34
-111.7
199.45
182.65
52.332
103.03
-17.573
-6.2616
-4.0942
74.8
55.405
-255.03
-223.43
149.49
179.75
6.3143
30.518
-66.261
-71.385
22.359
52.493
4.7651
-25.3
-2.4621
31.401
24.036
218.36
-53.007
-236.26
-41.672
-93.1
-32.947
55.328
59.213
10.764
-11.963
-7.3731
26.589
-5.2387
19.36
-2.5739
41.702
52.335
-55.798
49.964
-79.797
-75.438
-170.31
457.8
170.08
-116.25
-157.81
-291.38
138.39
15.083
31.081
-6.879
22.342
-1.1306
-60.964
-59.936
330.63
-101.54
-113.82
-163.72
83.952
304.65
-43.881
-96.267
-322.15
63.778
188.23
12.315
-63.192
108.2
-1.6757
6.2544
-212.58
25.503
116.96
149.62
-54.6
-116.13
253.48
-79.289
-181.19
-302.81
-218.71
31.572
831.35
213.43
-439.22
-100.05
101.27
277.27
-35.981
-449.27
-490
398.25
125.8
79.332
20.835
-58.352
47.611
28.277
2.8991
1.651
277.55
-47.221
-501.34
-155.38
452.01
494.7
-60.695
-265.75
-206.22
-26.844
-55.793
45.812
-170.59
-48.584
-166.59
-65.125
221.65
-44.862
156.02
185.09
88.413
281.7
-199.98
-403.45
-193.1
-173.84
499.1
513.53
-348.3
39.66
-232.83
-133.8
72.548
-250.35
393.04
327.65
-127.84
-86.009
-84.046
-191.01
-45.959
85.484
113.54
-28.105
-4.1094
-39.132
-66.515
144.63
22.889
-19.412
22.8
-10.192
-1.1068
21.607
-5.66
-17.126
15.691
-40.589
7.5537
11.958
-9.7387
3.582
4.0235
-11.449
20.355
-11.923
-7.7589
15.172
-30.307
24.253
-5.2986
-24.885
-314.86
-91.985
445.29
816.43
-105.99
-636.06
-35.266
-176.36
131.47
-52.479
24.521
-39.739
-180.19
417.53
124.17
-174.98
125.71
-108.34
-198.32
53.138
90.504
-59.339
-80.299
-55.398
3.7073
22.873
61.693
29.617
-37.873
-21.75
-39.423
-33.299
7.0512
9.4139
-21.439
12.976
-74.189
192.68
-2.5733
-31.369
-41.318
-179.89
-66.237
186.82
137.14
48.926
-46.358
-8.0961
-49.159
34.004
74.21
47.108
-28.692
-41.332
-10.957
-7.0161
7.3126
4.6214
-4.7791
3.0111
-6.0863
3.5632
-1.5124
-22.632
5.8241
6.5201
0.8767
2.8768
-4.1385
3.3298
1.8343
-6.8507
-1.951
15.468
-19.203
-6.8798
-0.58752
-1.7146
-2.5666
16.315
-23.466
66.599
-110.67
-207.79
161.44
-19.614
94.457
176.63
193.71
144.66
-126.41
-667.76
-138.46
306.96
57.809
122.07
72.118
-52.267
-127.84
64.337
-44.688
-182.14
104
181.69
50.676
159.66
303.11
-72.413
-330.59
-56.732
-120.87
-424.79
192.8
318.65
30.85
119.17
-137.44
-190.74
-93.822
5.3943
41.796
29.028
-69.887
90.457
47.047
-2.663
-2.3818
-25.285
1.9821
-46.681
-116.92
-87.209
30.125
226.28
-102.94
30.082
510.8
194.66
-485.09
-194.77
-10.85
59.129
126.01
-95.562
76.362
-247.57
-44.922
283.19
17.161
5.3308
32.568
20.338
-15.328
66.665
15.24
-178.93
7.9825
48.926
159.69
110.7
-281.7
-124.94
166.32
-351.93
-68.177
335.97
90.6
31.282
140.85
-246.34
-120.46
57.807
48.249
129.56
33.276
-153.78
-0.34259
119.93
-65.953
-75.466
-36.579
-14.288
-94.614
-306.38
197.74
369.78
51.523
135.02
-121.78
-177.63
-53.745
125.93
-11.253
-149.1
-68.833
-72.914
303.36
112.73
-190.01
72.4
-12.166
-65.17
-12.247
-3.9902
25.985
-40.714
7.6574
-13.116
11.157
18.1
-13.514
70.691
-27.063
-15.186
-57.039
58.732
168.65
-113.53
-51.297
-4.8005
-27.822
-18.885
19.618
139.53
-8.1142
-48.248
-34.253
-27.037
2.6413
-12.255
-0.54343
9.9832
-10.11
17.686
-45.486
90.285
38.255
-73.765
-4.1196
-17.133
3.5425
-3.9679
-1.4667
15.803
-4.9596
9.7617
9.2165
-7.4318
8.2782
-27.309
-58.42
279.98
-13.769
-152.05
-69.105
-37.228
33.825
-5.3956
17.525
-18.956
165.11
-20.051
-104.74
-29.751
-23.22
-70.466
118.74
63.761
-104.69
0.51068
-54.654
18.68
439.43
-37.763
-286.26
-71.315
-114.53
-13.8
109.67
-55.226
94.154
151.18
-16.857
-118.85
-57.719
32.771
13.876
-6.2516
-11.085
-52.68
-0.29956
61.307
47.31
-7.037
48.551
115.17
-128.99
-89.939
-184.51
199.74
93.645
-70.556
26.236
-8.5349
33.859
25.271
-49.039
-1.9967
-58.351
-33.472
41.851
-8.4734
-45.879
-12.662
-69.999
388.78
6.9174
-345.51
99.869
-102.1
13.421
163.1
-44.413
-92.391
220.53
-97.893
-228.36
144.71
230.33
-172.23
-164.31
93.489
115.98
-115.69
12.288
15.911
-27.762
69.97
-44.59
37.705
162.36
-120.46
-175.5
-13.055
134.55
89.129
-127.67
-3.7033
43.847
63.909
62.217
-57.41
-96.523
-31.714
-58.988
40.786
124.64
-42.763
-47.464
-56.213
74.437
130.1
-80.091
-86.535
40.822
141.46
-14.562
-38.113
-145.36
-19.465
115.97
73.104
-188.99
68.087
-17.281
-62.045
169.84
-31.179
23.159
-84.367
2.5844
43.999
-22.618
-7.9969
-10.996
-24.226
33.231
-59.725
52.357
123.3
-121.44
17.901
20.418
-82.248
-12.124
59.572
43.47
76.383
-57.433
11.412
-14.828
-76.495
15.67
-12.542
-28.1
35.374
-27.016
47.567
-7.5002
-85.787
119.14
-90.12
44.623
98.92
-24.291
-7.1205
-1.0861
-12.163
-68.507
-27.613
-19.89
343.98
120.7
-389.26
-153.2
143.47
160.98
-92.479
-264.73
158.5
68.403
18.413
-129.91
38.917
-20.642
153.7
256.37
-169.61
-337.33
-12.017
251.54
279.38
-144.84
-349.19
-273.38
286.15
60.627
-308.83
252.48
307.89
-255.74
26.853
-30.956
-7.146
-49.976
173.12
226.77
-66.471
-187.65
-117.27
-55.995
311.43
69.602
-447.61
-181.97
66.705
601.72
317.03
-243.4
59.587
93.466
-535.32
-337.1
7.5833
162.99
135.89
53.978
-30.438
-231.82
-43.178
400.84
275.61
-431.42
193.36
195.4
-56.023
-172.12
-229.78
-100.42
-130.07
286.1
174.15
159.3
104.72
-51.954
-479.69
9.5482
452.87
-116.93
-450.59
-274.29
20.39
247.04
236
308.74
10.018
-198.39
194.85
-11.508
-338.59
234.26
254.9
-319.49
-319.04
217.58
37.75
-2.8651
316.93
-20.532
-471.85
86.011
126.34
-242.65
-32.151
309.79
211.35
-106.65
-223.16
200.91
252.51
-418.38
-105.98
-34.536
-123.44
425.87
-192.16
-178.87
331.17
195.59
-164.55
-4.1749
-28.231
-97.526
20.448
-329.84
-73.161
369.83
87.438
-42.497
-126.76
-33.362
38.132
169.03
338.38
-86.213
-224.92
-299.37
39.952
-2.059
81.463
79.148
-42.052
-101.71
341.08
-59.939
-218.13
69.442
-157.85
356.08
-121.24
-29.81
-172.05
-154.21
224.96
208.6
189.46
-458.87
-96.144
526.51
99.189
-279.19
-198.59
-27.695
19.949
-1.4045
-285.69
150.3
270.9
-189.92
56.567
239.04
-57.38
-32.472
-139.29
-163.38
256.17
185.09
-295.52
-33.932
410.47
-329.92
77.175
117.51
-112.44
-0.14277
-10.985
-39.66
-50.312
-92.382
20.34
-78.014
139.21
312.26
-229.98
2.9604
-10.929
-125.68
-198.53
147.42
314.5
-21.765
-103.56
9.591
-44.175
-175.73
255.17
190.31
-129.42
-143.4
-45.292
-13.491
26.782
-22.517
-28.878
-61.46
224.38
-4.847
-52.906
2.148
-52.949
80.434
-19.324
29.412
11.472
-82.458
-32.089
180.38
308.41
-26.772
-74.722
-465.97
-439.44
117.15
826.69
41.201
-296.73
-112.8
0.5507
-49.041
-36.972
-68.27
-21.244
27.353
-175.98
88.184
372.66
170.33
-186.48
-320.05
89.81
159.88
-136.25
304.09
-21.397
-206.93
-133.47
32.94
115.78
-30.084
-7.2375
70.244
68.13
-134.94
-40.935
249.54
-69.083
-66.936
-188.05
-30.141
44.834
31.618
174.92
-124.91
113.05
96.532
-294.01
-47.948
66.962
224.07
200.84
-172.2
-151.51
-21.565
14.953
23.135
-237.3
-7.9342
488.51
-126.01
-56.737
-60.493
-4.2524
-60.746
-68.002
45.204
147.12
60.277
-202.73
61.777
328.51
-167.91
-116.47
-25.782
-114.98
-69.352
-57.55
288.44
74.359
1.1328
-118.09
-19.117
58.615
16.93
-34.819
-34.443
29.353
-195.3
98.966
64.004
71.738
142.72
-169.33
-42.758
-53.341
74.363
-38.709
-10.323
78.331
-46.812
23.262
-34.26
-31.583
-45.418
106.55
70.68
-114.85
-144.94
-8.5739
399.5
-203.45
-21.915
48.483
-161.3
-48.966
261.63
25.793
-1.1531
-71.604
-33.267
-30.084
-2.836
10.233
-10.846
-46.354
-95.865
121.32
-27.118
-113.05
151.52
-30.407
37.068
-87.267
14.683
244.81
-27.741
-198.92
192.71
146.08
114.75
-135.77
-92.694
-41.013
-128.94
6.0372
-99.402
-111.42
75.882
94.382
-8.1906
179.4
157.12
-495.59
147.57
235.78
-247.02
28.792
-68.38
135.83
334.45
-386.39
203.09
193.6
-136.78
-272.13
-70.203
14.599
-9.9662
56.567
-54.118
29.079
-7.6466
40.028
-68.511
-25.579
125.91
14.268
-220.9
95.647
492.66
-148.69
-15.678
-67.33
-188.42
-96.068
-33.111
71.577
214.93
-12.481
-58.304
53.709
-46.218
-196.15
54.671
-32.754
17.537
225.9
59.321
-92.774
-127.76
261.18
-240.71
-233.72
268.99
202.51
-468
95.958
321.1
187.24
-139.19
-24.905
-118.16
-52.778
-73.532
-27.267
51.023
6.4795
24.304
-32.083
-36.296
27.472
71.935
13.465
31.009
-8.7245
-63.82
-30.039
10.763
183.26
127.43
-177.08
-89.125
-148.49
27.153
2.9341
234.77
-29.577
226.34
-515.84
-222.92
619.53
382.95
-557.1
-192.35
142.31
9.5276
10.273
-25.484
-20.507
-9.0768
-85.998
25.637
349.54
28.996
-291.44
-159.01
12.691
123.59
120.41
-59.384
9.7314
-62.389
-97.604
165.69
318.3
-175.43
-187.88
-11.718
16.035
-17.481
-31.465
-69.931
109.48
144.5
-169.1
-38.022
96.093
-81.939
-60.345
222.06
114.53
-99.89
-2.1843
-308.83
101.51
406.04
-423.57
-32.364
261.19
-91.086
81.327
58.374
-331.96
252.65
25.504
-95.98
-64.868
-14.135
-46.093
-133.7
266.19
189.17
-261.08
21.759
12.377
120.5
136.21
-84.225
-153.98
-2.2359
24.417
-101.4
-4.6115
97.065
-35.016
208.63
-323.85
40.535
156.99
-85.679
57.641
-183.4
200.54
138.5
-9.0188
-117.7
-43.233
-68.84
-178.64
72.637
34.715
167.45
136.14
21.808
-123.95
-24.283
-42.906
-73.178
-17.404
-120.4
218.89
293.51
-233.93
-248.91
119.53
136.84
-92.678
60.797
-35.213
-28.651
-42.031
-7.9512
142.42
-79.26
79.26
43.765
-19.656
-69.994
-173.13
88.56
-7.545
29.961
209.21
-237.69
-98.848
75.001
163.58
4.2157
-83.115
-24.344
-40.828
78.758
-37.517
118.59
-30.429
-150.38
45.925
88.196
-16.537
-1.7529
-45.276
5.663
-12.762
28.913
12.241
-5.5771
-5.8172
-1.555
-1.0661
-8.2046
9.7799
-2.2887
-22.043
68.403
-162.88
28.969
107.72
-133.34
138.72
131.83
86.477
-85.78
-113.44
45.019
-68.65
-18.508
14.668
-178.76
-66.128
306.86
-43.015
23.474
-74.661
-72.167
257.31
57.53
-195.24
-372.67
180.64
144.15
51.161
-155.67
68.775
185.21
-36.791
97.979
-163.29
-1.423
-33.089
-1.6035
-29.45
-8.5905
0.89805
-35.785
-5.9437
4.6975
53.876
11.344
41.91
2.8466
-23.471
-18.592
-64.818
117.57
-5.8275
-102.81
-20.343
166.14
78.336
-170.53
107.45
-108.83
-44.227
-70.52
323.75
-44.825
-187.9
-88.985
255.69
-197.89
36.666
71.414
-78.402
35.084
-5.0742
30.552
-46.919
0.57812
-80.209
34.12
46.334
-15.331
-30.383
89.849
177.61
-176.71
-88.528
142.93
-120.62
152.84
-99.794
17.423
-103.81
71.536
-6.4985
-98.868
46.277
59.175
-7.043
48.187
-5.0194
-82.6
37.2
-94.95
45.959
30.604
184.32
-72.167
-80.514
319.88
62.793
-313.92
-148.4
7.6044
2.9925
-52.935
-27.916
-32.803
176.08
245.07
-76.692
-98.404
-118.15
9.8489
-75.777
-107.43
449.99
-191.1
-88.936
78.116
-148.25
26.529
38.779
65.46
301.23
-227.31
-111.67
51.437
-62.513
76.167
-32.805
-30.734
34.906
-38.79
-3.7506
12.865
-0.43169
9.3913
-67.036
-25.722
41.121
-118.76
176.68
111.8
38.028
-7.8576
1.3852
-19.582
-27.311
44.885
-83.383
157.42
-144.02
7.807
-18.251
-245.32
203.25
159.36
-36.13
-293.13
22.412
412.7
-201.2
-147.31
-8.6124
19.702
11.332
36.252
17.805
-112.52
-18.094
145.2
-105.7
43.57
-43.681
-102.94
89.048
286.04
45.937
-108.39
-20.016
-75.056
2.6557
-124.74
101.48
89.553
46.137
-134.3
99.662
57.473
-85.038
-54.253
-273.3
39.838
261.05
-170.54
-197.92
255.37
56.376
179.88
-21.224
-72.847
-119.73
-27.105
-0.23525
-77.769
65.749
61.264
103.85
-38.198
-1.2396
-73.407
73.871
29.817
35.976
-29.471
-40.346
-37.4
22.315
-4.5718
22.33
-40.475
-29.915
82.695
-14.576
-21.188
-17.797
38.127
-29.932
-0.41016
4.6767
-4.558
12.282
-0.031582
-1.1355
4.7215
-4.8247
22.568
-1.9077
115.07
-8.8511
-15.115
-36.6
17.082
127.67
-179.71
-260.97
390.64
-119.44
-291.65
125.9
-99.961
107.85
-38.507
113.11
3.3797
2.097
40.153
70.807
29.51
-62.687
-79.016
-340.22
-259.21
231.79
46.937
523.4
655.28
-521.41
-499.37
-152.83
46.809
183.35
633.02
60.941
-535.24
-16.867
-127.79
-117.01
294.75
-63.233
-13.068
-209.32
-278
231.55
185.51
82.263
136.95
-58.254
-1.0123
-116.44
41.534
123.76
135.04
143.06
-167.4
-301
-91.099
43.444
100.55
10.849
27.447
24.535
-144.28
-51.959
-76.153
88.689
140.11
36.256
26.327
-44.834
-60.444
37.638
143.94
-78.057
-232.33
-123.55
83.188
182.43
110.87
80.377
-22.794
-48.307
-67.423
-88.968
-25.967
-28.057
-68.962
58.472
159.21
198.69
-13.823
-194.12
-100.78
-59.145
-96.57
152
17.704
-4.1335
39.458
-61.475
148.36
7.7979
68.318
56.76
-109.53
-273.61
-276.45
93.094
342.65
-41.082
83.502
44.624
-290.66
233.72
288.91
-71.032
-248.28
-156.89
73.465
37.853
-192.47
173.11
185.68
-57.727
-240.56
116.31
39.026
-88.119
31.359
58.187
80.539
57.739
-32.785
-125.53
32.514
-67.27
86.244
23.94
-70.037
13.439
-23.772
126.27
-201.8
38.573
243.1
-21.768
-31.808
-5.4525
-34.09
-132.24
158.87
-75.07
1.1498
-200.54
127.86
-100.91
4.738
175.4
-21.046
60.178
72.966
-82.956
-105.93
117.02
1.3296
-36.699
-50.843
-93.078
-45.226
67.802
95.186
174.35
183.85
-341.37
-278.97
73.582
19.315
251.32
16.992
-281.1
362.53
9.0744
-165.02
-240.46
143.45
179.64
-96.907
-110.85
-89.603
-18.215
327.58
186.99
-49.153
-169.64
-90.109
0.21383
-53.96
-4.1238
-17.705
-187.74
-159.28
255.26
303.94
4.1447
-163.63
-96.677
152.29
98.351
-228.36
342.13
-95.784
-238.17
151.31
-60.532
89.31
42.854
-91.567
-68.964
-115.74
50.105
58.354
-42.694
-19.839
29.48
25.092
24.118
3.2172
-2.4781
-38.97
-13.493
137.26
-63.976
-25.561
49.118
-29.936
23.06
-20.943
41.55
10.088
16.738
2.6959
-61.025
-109.48
-101.85
348.62
-198.63
45.402
274.45
-7.5307
-29.546
-152.97
-50.677
-81.312
49.547
-64.626
-6.4789
69.25
-39.458
9.1589
10.839
11.057
-71.963
7.4115
11.334
-6.1261
22.008
4.514
-7.1434
19.924
-0.13684
-43.156
34.121
91.707
-44.665
-29.7
-65.396
-20.033
3.141
136.54
157.06
0.26663
-116.07
2.6979
-49.047
-166.15
240.22
-175.66
33.553
-5.8009
83.849
171.58
-269.73
39.697
-239.11
305.57
240.92
-276.66
28.008
-220.84
28.289
307.79
-185.74
139.32
-128.6
-211.82
181.06
-39.208
35.779
150.11
9.8212
-15.781
-31.475
-71.693
18.262
118.08
-27.182
-9.4291
-131.14
-50.703
58.44
-30.987
18.666
-42.305
-28.437
36.17
-8.3149
116.99
288.27
-109.9
-461.65
148.34
305.98
34.305
-134.57
-31.975
47.558
4.0132
-70.348
-138.66
-74.12
75.359
31.454
21.358
-4.2542
10.16
31.16
-3.2781
35.027
-107.92
10.993
77.118
-38.306
44.043
-19.936
16.677
42.818
-34.156
24.481
14.833
-8.9879
-22.922
-49.951
25.784
-4.906
2.7805
1.4973
-17.166
-156.72
219.51
258.24
-253.72
-19.462
-33.237
33.379
-40.368
46.016
-43.031
-76.557
-111.04
74.604
583.52
-97.332
-620.47
-52.158
392.61
-82.884
-20.949
-30.121
14.717
26.568
-12.726
42.463
-14.512
34.527
35.274
-54.591
-25.231
-5.3018
1.3046
-8.164
-16.383
56.727
60.992
-62.021
-140.46
79.988
51.213
-85.968
52.836
-3.7259
-17.432
81.13
-52.469
17.387
42.589
3.7379
22.823
-222.51
17.303
88.758
43.896
54.827
-60.51
58.68
18.993
-90.714
52.488
-77.708
-126.84
164.08
-52.594
-19.445
279.49
104.12
-219.83
-168.46
-2.2348
-89.26
28.796
219.32
-12.825
-12.884
-83.203
14.948
65.273
-54.875
82.233
-256.43
204.18
-11.648
-247.78
256.7
77.724
23.718
-134.44
-4.3945
-35.582
0.046153
152.08
506.46
62.326
-529
-463.12
-226.29
218.46
53.964
20.61
205.56
116.86
29.534
-55.947
46.863
-62.054
-2.5555
1.0616
43.059
215.48
-288.21
-183.71
253.93
-50.852
-80.071
15.991
-2.2289
46.304
-195.94
3.1228
197.04
20.835
154.66
248.53
-273.9
-223.9
-21.627
-26.904
-22.147
33.113
138.83
2.6125
-34.424
51.023
48.222
-27.291
15.505
-46.158
-32.965
26.985
-28.001
4.2778
-134.42
-101.17
161.98
243.2
-236.63
-14.376
64.674
-84.793
53.641
82.109
-18.167
-1.8428
46.531
-6.3477
45.601
-95.883
44.854
141.79
-218.32
-87.992
-190.97
105.68
365.12
93.939
-180.86
18.52
-7.8687
-192.7
21.253
41.139
-77.212
30.922
67.608
-7.8018
33.153
-22.788
0.26217
13.187
-27.663
-13.174
1.1274
9.298
6.7218
-1.8673
15.471
-10.24
-3.7124
10.596
-9.5258
-7.6321
-11.416
27.326
-1.9603
6.7078
-15.57
16.179
10.724
5.8466
8.9523
-9.3733
3.7286
11.082
-18.213
8.301
-19.717
49.16
-92.829
-23.433
166.23
-59.943
-55.628
-2.3308
70.174
47.395
-32.959
-133.52
16.378
26.226
115.21
34.198
25.839
-23.641
60.605
-40.489
-117.73
-150.83
13.418
60.638
-51.32
178.56
-64.252
24.149
132.22
-358.04
340.43
-60.225
-164.32
200.99
-68.229
-56.277
-8.6234
4.1462
-138.95
-94.329
84.924
-89.453
356.79
-18.926
64.197
178.9
-302.6
-104.19
-23.049
-36.186
48.494
127.16
15.149
-97.084
-39.616
51.688
18.167
-25.449
-3.6559
10.99
1.0281
-65.994
43.513
12.327
-66.186
49.777
107.34
45.539
-19.655
-46.664
-21.265
18.358
-47.524
-22.525
-14.283
2.841
13.011
10.78
-7.3718
6.7071
14.697
27.061
-1.7419
-5.9268
23.124
-5.6509
2.7273
-5.7988
-10.587
6.1933
-11.399
-6.1712
10.484
-4.9901
8.1354
2.8152
-8.0959
-5.9373
11.95
4.1855
1.7018
-23.082
9.0269
7.1717
-14.154
3.6679
7.7159
-31.919
25.833
-17.541
-58.659
191.78
-31.981
-128.85
56.088
-41.22
-4.9155
-135.74
300.51
-142.23
241.24
68.192
-274.99
-156.14
5.5958
86.013
-16.695
121.41
-53.138
-173.08
32.274
411.47
-3.7927
-294.93
-87.217
16.385
-88.859
-2.5103
347.27
-109.29
-206.22
128.37
205.44
-135.7
-40.643
-173.73
-117.42
214.34
41.473
29.567
170.33
-130.41
-94.452
-67.815
-72.941
245.36
25.275
-248.78
112.97
61.737
107.61
-201.61
1.3179
146.76
-19.169
33.723
-68.716
-37.134
-26.479
8.8505
85.055
2.2395
-79.199
-25.631
47.861
57.301
-95.871
73.242
73.75
-83.698
-45.417
-34.391
177.43
-50.692
-8.0149
-52.605
-202.26
175.11
160.2
-79.344
-196.3
151.57
23.054
77.478
-30.862
16.936
-84.02
23.167
-62.074
-136.4
110.89
24.684
-8.321
15.564
-19.889
-173.91
126.39
256.63
-13.124
34.707
-229.44
301
56.502
-378.86
-28.61
-144.02
261.52
48.029
-185.08
34.542
-9.2846
253.23
-58.816
-76.287
-3.3651
-25.161
-30.092
72.362
-79.922
-30.533
35.896
-76.299
64.67
-134
275.2
58.52
-184.92
136.96
-138.71
55.527
-25.851
-81.818
125.31
35.948
-55.938
-49.129
54.622
-19.441
56.11
-186.53
-34.287
94.992
153.64
56.82
-30.086
-186.07
-32.463
42.853
37.664
63.396
-47.038
79.817
74.82
-114.16
-198.32
139.25
116.39
-274.35
226.68
154.78
-116.11
-81.759
-26.498
-38.982
-92.419
-40.367
127.59
25.126
-60.471
161.37
-44.364
-160.54
162.9
60.84
139.22
-117.07
-124.89
-57.578
-23.187
319.19
-157.44
-108.69
-19.911
18.859
43.518
-22.336
-0.3146
1.2961
-80.546
-94.802
276.1
51.646
-180.72
109.75
136.2
-151.23
10.411
-65.635
-5.9859
38.725
-29.453
32.337
11.811
-29.077
-57.057
-21.222
28.247
29.879
6.3855
1.4222
6.8184
-72.477
28.178
28.991
63.209
-16.388
-39.843
-53.342
-80.568
115.05
97.278
64.167
56.591
-103.31
-149.23
-37.649
62.258
173.84
-68.724
-113.59
106.13
24.921
-5.593
150.71
-64.267
-506.48
106.83
170.6
40.964
355.71
-60.732
-275.57
-101.6
47.824
-84.479
19.871
-43.067
310.54
-82.51
-310.74
289.79
96.441
-2.7095
-109.92
-47.57
-3.1333
23.648
-8.6708
-8.9645
13.181
-14.876
-167.47
20.393
157.08
113.36
123.73
-127.12
-167.66
-40.621
49.221
-54.203
-33.116
228.34
91.682
-90.734
-170.6
148.43
-79.666
2.065
-14.639
-64.22
-142.76
99.3
185.46
102.77
-145.45
69.536
239.21
-121.63
20.516
-176.94
25.497
-45.338
-67.395
29.091
-49.292
6.0316
-19.023
27.636
29.348
-32.756
56.365
87.395
-94.706
-8.6616
33.358
27.577
-19.647
10.596
-23.169
26.453
13.902
-22.996
-45.677
-4.0391
69.288
19.903
370.74
-1.9088
146.5
-1040.3
-969.61
879.94
179.35
274.4
138.36
490.14
98.879
-534.53
22.024
-65.73
-17.265
141.51
17.776
-174.76
-87.306
-13.573
-21.005
60.479
3.4799
-45.634
52.844
44.86
-103.35
229.99
-224.68
-203.72
200.58
8.6171
154.78
139.16
-149.17
12.24
121.5
-265.85
-81.827
55.109
-63.678
166.27
29.447
-3.8271
-33.198
-71.665
13.153
72.617
2.4428
-41.256
-4.5799
29.998
34.718
-22.615
13.193
38.648
-42.249
-28.599
-4.0179
-4.2622
38.358
-6.6492
-13.325
18.252
-18.098
-4.6315
7.2641
0.52743
9.7467
95.92
-89.223
-48.164
-75.669
3.5323
279.21
-239.58
-70.635
149.66
120.89
109.06
-246.26
-152.01
114.29
4.4574
-5.6079
2.7999
143.12
-90.609
-20.975
136.67
-363.23
146.64
153.93
12.915
-35.094
-102.96
37.522
18.031
7.4029
-7.8372
-18.693
6.3237
22.008
46.058
-134.7
-37.087
23.619
75.215
22.062
39.712
-13.93
-38.695
46.964
-3.8815
9.6644
54.851
-54.718
-51.041
-39.729
-54.76
-12.38
87.546
42.09
-32.961
-130.98
-102
214.54
83.19
22.418
-3.5706
97.484
217.57
-115.72
-205.7
-101.84
-23.502
-19.711
5.0347
89.133
-48.407
-75.475
-14.084
136.49
35.21
-152.43
21.727
84.272
119.21
-75.964
-48.417
-98.547
207.79
-24.967
-152.17
52.746
60.113
-132.2
61.643
-167.06
182.92
115.01
227.04
-212.96
-279.8
127.06
-34.212
167.89
-47.477
32.496
-158.35
52.95
-162.51
17.987
94.905
39.728
242.94
-292.33
89.721
-10.595
-133.11
239.63
-52.988
-204.61
48.668
87.124
3.6396
158.13
-54.342
-182.23
159.54
-13.298
47.694
-5.4896
-46.874
-52.381
-39.912
31.913
-24.178
-82.154
-11.828
204.45
8.9869
-32.586
-5.0723
-86.839
1.2224
56.215
-51.484
25.303
-132.32
178.4
253.8
-180.12
-91.93
30.287
-24.129
-35.615
-19.508
-1.381
12.04
-197.5
270.35
-61.884
52.33
141.49
-197.77
44.016
-58.174
-7.2131
13.515
-6.7605
0.30471
-20.329
46.882
-2.7181
-117.62
-29.647
-0.98905
204.57
216.33
-93.243
-122.17
-20.091
-59.1
-18.564
39.464
-28.481
1.8016
19.349
6.8628
2.6576
-26.406
-36.859
-2.5191
-21.987
-55.993
387.53
-84.981
-162.78
-23.314
25.04
-72.339
115.26
124.91
-194.22
-48.267
-98.577
229.01
29.329
15.077
11.31
-215.47
131.83
196.62
-202.29
-112.58
-87.747
126.8
121.66
48.568
-37.567
-62.522
-42.531
-32.141
-91.704
61.132
127.14
149.39
-118.85
-288.3
219.09
104.1
-69.444
-9.6199
-6.1665
-19.295
-8.5114
-6.9627
-28.576
14.694
-15.167
3.2182
5.1681
-102.27
216.33
131.51
-194.73
15.617
-28.599
-24.305
-0.7162
5.5695
-13.816
20.418
4.0314
-1.3667
10.762
-5.3044
16.881
-14.527
-17.887
17.978
-8.4281
0.24504
13.847
-1.8425
15.147
2.3848
-11.698
9.7364
-1.8601
-1.002
15.624
-7.9951
-10.644
-6.1318
-73.665
-18.392
223.87
35.604
-58.665
-85.848
-31.452
18.278
-26.26
-6.1078
-20.08
-33.601
82.677
-33.193
11.705
-160.39
-59.694
241.32
20.737
35.606
107.41
139.79
-187.07
-102.96
355.35
-104.07
-286.45
-189.94
163.46
103.26
-174.09
92.408
28.796
184.1
-32.904
-206.53
-28
15.976
-208.44
138.05
-119.37
-72.62
284.11
-16.313
-128.57
61.402
387.6
-249.12
53.846
-29.111
55.048
-138.72
-17.491
17.022
46.13
-176.01
124.24
70.22
83.754
78.538
-173.72
32.971
96.608
7.829
-179.92
23.888
-518.79
478.68
257
1.9139
-53.102
-277.29
-39.541
62.421
-66.77
148.26
357.84
-332.81
-319.2
411.63
126.83
-244.77
-102.08
-144.29
34.432
401.72
42.882
-133.1
-154.05
13.953
4.9226
28.413
-124.59
24.523
328.89
-57.435
-61.632
-44.816
-102.58
23.377
19.063
-4.476
-13.143
-12.153
33.56
-18.858
-59.778
-11.286
15.977
2.4536
9.569
85.702
-24.687
106.66
-32.584
-105.93
89.623
-42.047
-23.479
34.305
-10.723
9.1478
-205.23
239.77
70.245
-37.78
3.8918
-66.021
-40.2
-15.072
-170.37
91.692
226.15
34.452
-16.648
-80.324
30.252
-38.733
-50.702
-8.8693
1.1083
-12.656
18.294
-3.5399
4.9845
-7.9691
4.6359
28.412
-57.186
-161.08
55.008
300.3
28.832
-120.91
-13.215
-1.3419
-13.427
-0.025228
16.799
37.879
-62.005
-61.02
-46.867
-71.215
177.87
129.01
-104.15
68.857
-233.02
63.378
66.46
-128.78
151.35
155.42
-126.22
-167.26
303.87
-184.55
-62.356
-28.048
-59.516
7.3973
13.254
346.46
-105.24
-93.761
-50.625
-55.117
36.006
-72.195
31.152
41.695
-8.184
59.74
19.226
-60.504
-21.501
-40.452
-0.63875
88.266
271.61
-66.109
-212.79
-51.329
-3.8302
-19.546
-10.164
62.374
12.413
-43.42
-59.218
9.7824
213.35
-54.398
34.542
39.211
4.9983
23.286
-19.932
-130.91
-204.11
138
269.71
-291.09
101.73
37.785
-105.48
-18.119
-8.7669
87.098
15.552
-20.023
-50.523
230.92
-262.91
103.77
166.09
-229.95
-154
-42.049
44.929
164.39
70.268
30.286
68.502
55.358
-162.83
-275.58
143.47
125.59
26.162
-15.903
-52.835
-2.1429
3.6534
-15.006
54.984
-6.2783
-9.9885
106.18
-5.5156
-129.98
-93.824
20.465
98.451
25.751
-52.271
-14.343
63.993
62.397
-30.049
-27.122
0.49226
-77.888
-49.781
-100.7
165.72
162.13
66.971
-245.63
-0.45401
135.66
-152.06
-68.523
64.423
43.644
45.396
99.197
-116.7
-30.653
-40.703
-52.115
17.566
196.76
58.854
44.832
256.03
53.837
-116.97
-172.95
-356.1
-546.46
-321
463.15
598.36
102.3
-75.393
-67.041
94.857
47.071
220.57
-145.69
-232.21
-96.205
-9.3571
42.978
30.324
-11.984
-122.82
42.237
172.4
-33.194
-50.471
8.9427
-11.081
-59.621
111.15
0.51376
-70.683
46.591
42.139
-36.811
32.029
-250.97
237.89
337.16
-337.19
34.644
-12.087
-130.09
-94.239
143.91
-26.357
221.51
-228.74
-81.797
192.61
163.51
-302.58
-61.42
216.09
1.7415
-19.072
-39.428
-165.06
121.79
87.852
33.657
-27.737
-161.56
2.6547
131.62
119.38
-233.71
30.29
36.416
81.635
22.302
-21.921
-26.691
-26.774
-34.156
3.3675
39.186
-21.438
3.3713
-27.211
-20.608
-141.93
178.44
278.86
-303.85
28.765
-14.653
137.61
-36.139
103.72
6.5888
-92.878
-201.96
-159.77
111.4
268.73
-33.842
-110.59
32.291
49.274
51.747
-155.25
42.203
76.805
-36.854
9.0423
-39.41
-9.0224
-41.385
120.31
43.758
-69.509
-70.349
-159.47
221.91
104.85
-3.6469
21.474
-159.02
-7.4919
-45.577
-34.047
42.401
9.2281
14.035
-3.4807
1.6969
-7.4452
19.176
-5.3437
16.465
-10.504
15.532
1.3319
-7.0585
16.712
-6.6614
4.6843
2.7067
-16.741
-28.903
32.299
54.379
-8.0305
62.953
41.993
-117.05
-29.922
-35.081
-74.603
245.65
-98.282
-9.4377
59.379
-45.577
-38.551
4.6491
-17.723
-76.621
-42.524
171.64
42.984
-6.4036
49.715
-239.02
-53.862
10.339
105.54
89.896
72.653
53.158
-221.25
-36.884
77.893
-24.511
-28.19
-22.243
42.678
22.034
-20.049
10.094
-2.3551
-61.906
78.933
-14.822
123.35
55.035
-23.546
-116.42
-11.046
-1.027
8.9785
-16.496
-47.146
51.766
23.357
-66.052
-31.945
50.281
97.763
116.25
-166.22
-25.607
14.286
-17.825
15.225
50.283
-64.111
-98.167
92.306
76.648
-50.847
-46.329
-48.693
-105.62
487.28
234.15
-429.37
-194.85
-102.82
190.81
54.193
-55.426
-46.453
-7.3632
-13.132
101.65
38.341
-48.2
-63.624
5.8657
48.121
-41.129
82.795
-60.397
-61.039
142.48
35.109
-91.316
-90.592
48.451
27.05
8.4975
-7.9217
122.38
64.4
-174.43
-85.192
24.045
13.548
27.249
-34.583
-30.776
-18.021
217.77
106.78
-263.16
-6.7983
37.942
-12.971
45.384
-82.528
2.2996
33.968
-66.332
26.221
292.33
-191.17
-125.23
0.83282
4.974
269.5
-119.21
-85.644
-48.736
17.151
54.571
-40.02
71.549
-66.109
-94.707
156.5
55.874
-127.4
46.701
2.8352
71.12
-91.196
-64.89
-81.238
-21.933
213.37
84.645
-59.948
-73.175
20.251
-58.168
-22.355
-27.544
211.68
-51.185
-95.592
-7.9798
0.78888
-106.09
-45.734
402.77
-181.33
-176.07
366.27
89.136
-206.46
-174.22
-7.6767
-86.282
-1.5947
85.174
4.8683
43.504
42.236
17.628
-31.952
1.6151
36.357
-134.59
33.772
79.664
15.965
26.924
-80.138
6.05
-10.386
40.853
-49.474
-17.776
-33.558
332.59
-40.711
-289.02
10.836
55.242
67.788
4.394
-45.79
12.213
10.597
-2.6209
31.713
-26.821
-107.04
112.83
75.169
-209.2
164.4
38.813
-125.94
62.663
-89.887
-33.122
-223.77
251.85
273.96
-224.08
-109.97
254.89
91.138
-315.92
-0.12421
48.994
0.070072
-134.42
196.38
178
-217.74
-36.771
21.691
-10.117
7.2657
-42.187
31.133
66.609
-18.274
8.1355
-11.609
-35.277
3.8242
24.634
-51.632
3.7189
50.396
54.422
5.5825
-25.97
-18.877
7.9649
-19.502
66.2
5.0264
-80.586
-99.268
124.11
159.84
-218.8
-88.214
191.02
-69.861
53.639
148.83
-221.78
-67.786
217.7
-170.38
-23.249
106.87
-123.66
130.34
188.82
-78.315
-64.072
-123.11
-93.106
1.6196
-111.57
-20.197
62.973
322.44
80.017
-145.65
-1.9936
132.73
-45.861
-226.51
7.6753
-13.359
10.919
13.698
15.27
6.5933
-1.4889
12.746
-8.5286
10.679
-39.652
-109.86
-297.37
241.96
282.34
7.5736
42.664
-51.853
-33.493
24.156
37.173
-9.184
-35.077
-10.622
14.865
1.6775
4.5525
-21.031
-28.657
33.807
26.826
-0.54495
52.345
-26.336
0.58803
0.41522
134.25
-147.14
-101.24
-5.7645
-6.3637
-5.2966
-53.366
38.284
22.811
2.5875
-74.166
17.863
62.102
-13.941
-29.702
49.924
55.864
106.58
-72.121
-109.65
2.6669
41.077
32.827
-5.2776
10.043
-15.405
18.207
10.452
102.91
9.2238
2.043
57.667
-188.63
-90.482
3.4075
-17.505
10.934
-44.2
6.2163
44.125
-2.5339
13.198
13.908
-5.2844
-0.38039
-30.651
-84.925
17.217
54.786
81.975
8.6624
15.99
-21.577
-32.87
10.106
-33.344
34.124
20.396
57.066
35.502
-22.649
155.45
216.53
-137.71
-318.96
-120.88
45.544
7.7339
7.5238
-2.7925
11.373
21.408
-9.9629
11.58
-9.1333
2.3674
-2.4499
3.1226
0.38411
-9.8047
-57.422
-109.65
153.29
79.011
27.646
6.7011
-13.045
11.702
-14.551
-58.691
-3.5304
60.006
22.704
-4.6858
3.7292
26.988
48.927
55.574
68.517
133.82
-211.46
-287.93
65.799
54.555
-98.509
-31.046
-58.855
59.351
-5.4735
-58.769
145.15
95.43
-24.482
-53.533
77.194
20.077
-53.138
-25.199
35.159
-33.792
-176.35
-124.38
94.036
224.24
92.065
-154.68
70.508
271.77
-45.211
-303.56
75.293
-40.399
-54.779
153.08
-72.277
-23.601
77.482
-6.0836
-49.865
-43.518
-56.838
75.484
58.928
-276.34
267.13
30.143
-13.91
-9.4621
-35.222
27.824
20.082
-44.39
-82.365
10.255
10.096
21.5
-10.463
9.8795
3.7943
-0.56931
19.049
-19.548
20.546
-12.476
26.794
-12.776
9.5403
15.943
-17.858
16.301
-24.405
23.463
-6.9884
-5.7832
47.422
-67.202
10.284
3.6088
22.164
24.866
-76.617
-6.5062
256.54
-221.55
-240.61
160.25
104.27
67.231
60.026
-34.444
-115.65
-129.05
0.89485
140.38
131.62
214.18
-202.14
-154.35
136.22
-105.34
-185.38
105.91
-5.3846
-19.23
30.194
-7.5255
60.044
30.292
-38.29
7.515
-7.9779
22.589
2.3678
-25.454
21.412
-17.61
-8.7922
10.906
-5.3898
25.348
-20.342
15.646
6.0539
-29.451
8.4085
-20.2
33.014
13.077
-5.4746
1.1295
-22.723
-258.83
-4.6069
291.05
129.07
19.758
-156.14
-29.669
-36.032
-56.966
174.83
86.28
-96.883
-141.07
-83.955
180.58
148.89
-22.579
-132.33
-50.797
-17.759
68.658
64.045
-59.493
-8.7448
-1.8151
-21.021
9.0614
-120.69
47.453
126.57
29.576
38.126
-7.52
-133.6
-24.468
113.15
20.337
-27.164
37.393
-68.299
-94.508
114.36
28.569
-28.091
-67.822
-161.2
137.29
184.09
-200.27
-51.798
184.29
25.667
-31.096
-37.056
23.797
-76.918
29.312
-15.571
-13.879
23.954
-94.458
30.122
64.923
115.79
-127.1
-4.6598
85.1
-102.95
44.838
-19.127
256.18
-244.12
-37.771
-55.901
-116.63
232.02
10.796
-0.82755
9.7283
-9.371
-31.729
0.036038
-15.309
28.099
43.11
-34.709
0.99614
13.873
-14.803
1.5377
-9.7709
-25.392
19.116
-8.5484
-5.4979
24.123
-12.146
14.799
46.034
-46.476
-2.3257
-6.7218
-16.953
-9.9887
-66.175
-35.61
100.3
61.722
-51.845
24.917
65.335
52.662
-111
-48.612
14.43
-66.594
54.8
43.116
-31.696
5.3945
-61.916
68.157
3.2949
-15.117
52.82
-49.939
2.2687
2.3821
-36.036
6.1541
68.46
-48.938
-30.534
-4.7256
90.125
308.08
-184.31
-319.37
27.104
174.34
30.518
-47.811
6.2382
-57.619
-105.09
132.64
69.93
80.91
-73.572
-203.94
15.153
44.366
83.576
25.543
-130.14
-25.093
46.681
-9.4518
17.932
103.5
174.73
-288.64
-90.091
180.57
-67.382
58.602
136.41
-142.01
-16.744
9.2999
-21.747
-77.72
10.086
62.582
16.461
-54.579
43.727
65.93
-49.217
-26.813
24.026
33.003
8.1957
-45.486
-6.6638
-20.569
55.871
11.32
-31.034
59.792
-174.16
102.75
-11.216
53.081
-85.862
106.44
-14.997
-232.62
109.77
21.621
65.883
22.798
68.01
-143.42
-30.745
100.4
34.777
-32.901
-10.242
-11.743
141.98
-176.32
-7.8865
50.051
-27.654
18.384
9.295
-5.615
-3.5903
15.421
-72.239
-30.027
83.731
110.46
-7.3149
-109.51
-46.233
-9.7717
97.745
30.792
-59.046
41.617
126.49
-91.601
-206.81
62.585
36.924
180.39
42.043
-98.588
-150.63
-54.271
-48.191
-14.619
210.04
108.65
-126.83
-186.78
97.337
28.991
-145.72
236.89
137.6
-33.921
115.46
-198.24
-179.51
4.1515
-15.206
48.098
56.811
212.15
60.43
-103.79
-132.55
-101.25
-32.641
-168.97
182.12
-78.935
-77.055
147.44
242.84
-21.104
-199.03
158.94
15.264
31.058
-256.25
-55.497
148.5
-67.416
34.156
49.437
12.291
33.438
155.73
-56.645
-146.01
28.456
16.432
-44.634
-45.139
-32.041
64.585
177.18
16.142
-121.17
-89.042
44.19
11.955
47.605
-171.97
151.81
88.748
40.271
-134.27
-63.41
-2.5651
-2.6536
-141.28
16.554
200.69
-70.549
-40.038
87.115
17.079
7.3864
-24.451
22.215
34.302
-102.67
29.036
-31.664
162.54
27.77
-125.94
-104.92
-103.14
224.12
203.44
-273.23
21.811
-37.568
130.28
-34.749
-157.23
-129.13
209.76
220.36
-106.71
-64.458
-160.1
-193.27
221.83
410.15
-414.24
93.138
278.38
-460.44
134.43
244.4
-73.39
-34.118
3.864
-54.804
1.3603
-5.3628
17.459
-28.351
-74.861
-225
55.123
231.26
103.16
101.45
-75.94
-61.588
-64.684
-18.315
9.0976
-19.24
-24.375
28.487
6.3306
-35.545
6.6915
22.29
20.417
-86.223
-8.3599
324.68
-91.808
-211.79
50.497
188.12
-367
265.64
104.47
-328.72
368.13
-62.212
-309.58
116.43
137.01
-111.91
-73.162
57.251
-32.337
96.398
73.763
-3.3296
16.645
-58.285
2.3477
186.51
-215.89
-15.587
-140.82
18.034
217.79
31.423
-137.15
-74.613
47.612
-17.411
-46.136
157.08
0.23297
-10.027
-14.109
-43.592
-59.151
20.861
120.23
-31.846
60.261
-16.027
-175.06
12.853
46.236
92.863
19.649
-92.555
-10.179
-2.4794
-11.711
31.795
12.1
-3.9967
9.0104
-55.552
-13.074
-3.6627
-77.027
206.68
127.78
-178.69
-29.993
35.178
-32.478
3.9859
30.281
-41.092
1.3807
-34.898
-12.286
-130.24
297.84
219.11
-407.9
183.89
-273.64
-78.257
464.43
133.62
-223.63
-174.88
-147.71
148.79
61.658
25.202
-131.09
-95.148
292.16
124.62
-84.343
-170.39
-101.05
-203.39
257.24
184.06
116.06
66.754
-351.83
-172.15
157.98
40.276
34.011
43.922
-149.64
43.367
341.87
-123.77
-106.76
-94.564
-114.18
198.06
101.88
-188.22
-170.59
360.4
-32.018
-159.51
-140.45
-61.609
314.07
24.546
7.5008
253.08
-314.07
-87.479
76.541
-78.312
-144.65
192.2
146.41
-42.638
-9.7103
-140.56
40.883
-40.461
-61.17
37.635
42.657
-62.95
60.893
34.907
-18.308
-10.673
7.6427
66.646
-27.475
-28.283
10.658
-2.2207
-15.322
-46.759
46.878
3.715
13.727
-3.4615
5.5635
-1.9845
21.954
-29.568
-26.227
62.765
2.6711
18.661
-25.506
-27.016
6.7688
-5.4603
-13.759
18.761
-10.054
-61.322
117.65
104.83
85.897
19.21
-95.203
-105.54
-36.678
-85.694
-148.83
214.22
30.432
-65.897
162.42
-86.274
-67.38
-33.379
50.958
-157.17
52.67
179.12
-60.488
-209.61
75.726
307.84
-29.346
-89.191
-73.073
-29.774
-72.641
49.716
38.12
-5.4905
77.524
33.469
20.393
-76.44
-137.62
-20.183
36.278
67.22
116.21
-91.189
22.721
7.4059
-13.182
31.065
19.067
-9.0436
-64.612
4.2709
-0.20992
-48.771
34.098
53.849
34.63
70.468
-53.244
-0.28501
-13.103
-235.25
146.85
121.04
-64.263
98.99
-183.82
143.04
-132.07
-141.99
173.59
124.62
32.04
-204.38
63.271
0.44984
-100.88
26.856
1.3446
11.789
-49.17
8.8632
126.54
61.908
36.799
-112.44
-90.698
70.105
3.118
-85.399
198.92
47.502
-121.96
-41.851
-169.43
113.89
2.1438
-94.956
238.03
-5.3714
-43.294
-158.76
-2.8268
111.16
3.3922
-38.946
-57.551
70.405
-0.45067
38.524
-58.016
47.011
78.31
-87.539
-55.902
99.342
42.782
0.97093
22.924
-208.69
57.038
348.19
-316.3
-79.017
38.455
201.36
-23.812
6.7826
-135.95
-240.34
94.306
58.512
104.8
-20.835
278.07
-60.79
-327.08
9.8025
-18.673
153.87
-92.146
4.5099
-88.667
194.82
118.39
59.697
-84.16
127.24
-240.85
45.005
-10.192
-17.878
-30.889
-37.237
11.71
5.5838
-53.735
-174.08
120.86
185.62
-179.16
164.57
185.84
24.314
-315.36
145.26
-0.66176
-21.153
-11.47
-73.806
-6.671
-21.029
-165.72
-79.497
268.12
131.76
-215.83
263.52
20.97
-274.89
96.954
29.323
-159.2
135.75
-7.9164
-10.398
8.2382
-13.151
-8.7512
14.179
-5.2328
27.161
-32.286
11.577
25.794
-175.74
218.97
105.39
-163.89
-47.972
311.66
-77.037
-184.59
-7.1302
-30.412
1.416
29.398
6.9038
14.384
-73.637
-7.1064
-203.39
326.71
129.31
-226.61
181.9
-158.69
-4.8757
-55.827
-76.277
338.53
-97.595
-32.912
-101.76
139.26
98.792
-366.42
13.345
117.11
139.87
69.287
-49.122
-111.75
-5.7899
-63.251
-5.8559
79.692
-43.329
34.994
-10.699
-35.342
48.915
21.271
-10.983
-7.0876
-47.07
29.644
9.9649
-23.968
11.729
-8.6203
-42.718
37.224
199.77
95.951
-190.49
-298.89
273.8
166.57
-81.695
53.032
-240.81
-92.847
79.88
-235.47
117.24
55.493
-95.887
539.65
-86.861
-133.4
-115.48
-160.67
115.15
-26.514
70.553
59.975
-110.22
173.67
4.8272
-59.872
20.24
-62.238
-66.451
10.592
-8.2819
-97.354
214.13
-0.19964
-94.71
74.795
-31.432
-18.003
-15.696
-80.271
93.286
273.49
-98.231
-125.56
-4.2101
-143.45
64.194
43.423
14.41
93.488
-46.39
-52.927
-3.7563
0.24737
12.934
-166.99
11.54
132.54
-38.875
113.6
93.896
-36.012
-75.615
-160.34
22.196
135.34
-166.78
102.86
105.36
-197.58
101.95
275.87
-147.92
-117.28
-238.74
109.58
168.76
-203.43
137.19
128.52
-6.4837
-61.78
53.677
-5.0112
-191.73
-11.907
72.004
24.068
0.79212
31.865
48.118
-19.57
60.907
-48.781
-117.3
89.868
-73.929
8.3487
-9.9128
-108.87
84.448
435.93
-160.88
-228.12
42.162
-2.9245
-42.369
-50.153
-18.25
40.829
76.832
4.5635
-29.008
-23.367
-54.915
105.46
32.527
-39.542
-10.683
-28.027
27.749
10.895
12.483
47.021
9.4408
-35.812
-18.225
-3.8523
-119.01
12.545
403.16
-298.55
-337.59
251.49
234.05
-4.114
-71.451
-321.03
256.87
156.55
-208.93
-107.93
177.96
16.486
-13.904
-176.56
81.742
181.47
-73.191
-108.54
-16.296
7.0024
43.131
-21.94
2.3652
-106.24
78.04
268.84
-178.98
-107.05
17.86
-10.933
131.66
29.196
-63.661
-100.3
56.761
18.099
-92.059
21.844
225.63
-12.239
-69.396
-93.175
2.9881
34.94
-33.977
-36.11
-17.627
20.316
56.331
-71.749
114.6
63.261
-84.733
-71.562
95.767
168.05
-172.43
20.665
-79.35
-151.35
23.05
49.192
52.314
-40.237
-7.8666
243.08
74.658
-213.28
-97.479
5.5407
285.96
-122.56
-196.58
-122.61
378.58
-14.626
-223.75
-189.54
302.66
19.997
-128.67
522.02
-202.63
-442.46
56.806
108.95
72.28
-77.538
-118.01
171.51
-163.14
73.357
234.99
5.8473
-62.303
-94.976
-21.425
-31.128
11.525
24.261
-35.481
34.894
-10.032
103.15
-44.175
-11.661
79.629
-107.6
-76.032
15.182
-65.586
82.956
136.35
69.47
-68.011
76.353
-99.671
-203.87
169.41
40.514
-91.839
84.239
19.418
-109.81
-4.9176
-24.287
-12.558
20.078
-45.991
41.383
106.51
-5.279
-23.858
-104.57
56.423
118.65
-23.985
-145.39
90.75
127.29
-146.02
77.676
-23.463
4.7511
-44.361
13.36
19.62
-34.032
67.17
-231.47
96.513
-89.346
92.327
213.79
-130.49
44.689
89.516
-175.06
72.111
-70.007
-81.487
-56.38
67.103
43.237
5.2843
31.248
-85.591
67.545
-74.069
88.618
166.39
-13.62
-57.356
-5.1043
-1.3768
-11.318
-88.343
-7.2482
16.831
2.7357
-10.278
-13.396
-6.1208
-0.41515
-16.224
14.78
0.093609
-8.5001
11.415
-6.2528
4.3147
-1.2221
-3.7125
9.6414
-5.4847
4.7577
-1.7581
0.73344
15.807
19.47
-21.597
41.041
22.847
-53.774
-45.156
-8.0602
115.18
-36.621
-91.593
214.03
-132.32
-107.47
77.364
126.99
-101.36
30.082
81.496
-23.209
-39.146
90.366
-102.85
-112.08
83.98
-53.824
13.978
43.07
-11.725
-23.565
-18.999
-50.032
55.736
190.8
-232.11
68.052
81.359
-68.636
61.012
-50.907
-100.36
93.653
-7.1408
-49.232
61.632
-130.78
65.809
2.5675
-7.3404
-39.201
-119.06
208.99
69.423
-11.21
-21.376
55.516
-2.3483
-7.8644
103.07
-129.36
-120.07
-44.103
115.7
149.58
-126.35
-35.834
-71.494
-74.043
43.15
138.04
-38.401
-11.87
24.49
59.816
-50.407
-24.141
6.9018
-11.951
37.623
-7.0524
4.7194
9.9213
-6.4526
3.0279
-66.789
2.9322
70.728
8.6471
14.924
-0.75528
23.403
139.5
-18.999
-163.91
-33.96
-14.475
1.6333
62.934
-49.651
-176.3
110.7
-6.8475
-12.834
219.03
55.031
-57.367
-310.87
-90.896
198.85
79.82
22.645
17.04
-15.191
-34.281
2.8807
-275.74
212.95
332.96
-62.399
-112.01
-2.7354
-162.1
46.011
287.75
78.852
-112.16
-299.38
-416.44
69.028
296.65
160.1
192.28
-116.79
-127.46
127.28
48.081
-322.07
78.679
-174.6
-29.525
177.91
185.88
-56.842
25.261
-93.135
92.956
31.353
-100.91
-26.997
-44.143
208.73
102.51
194.12
-168.67
-231.34
-89.635
254.24
-157.42
-268.95
90.952
-73.953
-326.75
128.69
304.01
230.07
45.196
-107.34
213.93
-81.862
-297.45
60.999
118.94
4.0755
103.89
-124.69
-298.71
-23.264
251.28
2.543
-30.854
197.07
126.85
-234.03
-61.052
-25.361
147.86
-174.13
-24.726
15.478
22.049
67.887
6.6567
-4.5063
-23.864
16.044
50.298
-3.515
85.72
-122.72
-40.19
-125.62
85.223
166.01
-176.93
-117.76
330.66
10.929
-50.944
2.3584
-80.95
20.469
-24.61
19.901
3.5771
-3.937
4.2987
-42.162
-8.9895
-0.57285
89.408
19.605
-37.963
-33.206
15.088
8.21
-3.866
-1.9209
-1.989
9.6284
-5.9999
5.5347
-10.64
-4.9137
1.5473
-6.9927
0.80152
-0.26627
-1.0517
-0.43129
10.471
-13.789
-22.088
12.252
-2.4384
-4.8105
5.4973
14.322
10.44
5.2871
-7.9785
-4.6553
-8.1754
8.0545
4.0957
-7.0746
-8.7295
0.38681
-9.4312
-8.6091
6.2922
198.26
114.92
-181.12
-285.27
23.305
116.49
-1.2412
21.067
9.7095
-7.5844
-17.101
-11.834
10.849
-10.058
6.9639
28.453
-15.853
6.2595
6.5891
30.45
-20.577
32.858
-47.09
60.145
-88.543
36.927
28.424
-44.495
-51.611
90.253
-23.365
-9.0416
-36.552
47.611
55.034
-89.153
8.8452
17.469
-57.097
135.43
-57.53
-109.19
58.365
66.991
-23.72
-18.287
5.2107
10.32
-14.414
27.125
-79.451
61.391
45.971
-37.885
-19.988
-44.549
48.683
22.467
-27.963
16.927
-56.014
49.999
25.534
-18.465
11.153
-30.353
-0.53167
41.9
6.1017
-17.633
-86.01
55.851
73.618
-44.165
-17.508
77.162
-92.876
-71.868
98.094
6.1057
-47.873
26.447
-3.8479
-14.59
12.525
54.551
-1.0046
-107.1
44.014
60.61
-37.296
-49.313
53.966
-14.896
3.5861
-6.5524
9.0957
-2.9128
-0.68424
-0.4612
-2.7024
4.1633
-3.348
-0.2642
-0.64212
13.565
-3.6908
-1.9734
-3.9244
-2.7776
0.88684
8.8393
2.4945
-0.63129
-3.0313
-4.1571
-6.0382
1.3013
20.783
13.226
56.683
-37.944
-80.665
-0.43792
78.413
-18.026
-84.702
39.771
22.958
90.68
-161.71
60.734
10.754
-10.095
-20.868
89.285
-46.778
-67.702
84.525
-9.48
-80.229
81.283
14.401
-81.342
-10.435
63.37
74.263
-156.44
62.641
3.2231
-112.68
183.96
-38.531
-89.435
46.967
60.294
-53.284
-17.486
-16.806
23.596
105.11
-72.133
-85.432
94.868
-4.6595
16.535
8.5778
-46.143
-17.732
-82.79
92.005
-11.746
22.996
18.334
-14.027
-22.651
-7.7792
21.321
1.5882
15.689
-66.245
55.708
17.851
-60.101
45.43
27.884
-56.204
9.2201
17.788
-13.031
-7.149
2.4929
23.141
7.3384
8.3774
-8.2805
-11.884
-20.411
-15.335
20.177
35.735
22.031
-75.64
31.972
-17.461
-20.294
10.398
-11.759
29.51
-1.2667
-36.538
33.622
10.082
4.0724
-17.166
4.1012
-17.519
-35.738
59.959
-10.078
79.944
50.721
-135.3
12.01
6.3724
-17.284
-90.55
-39.122
-45.773
334.32
157.56
-198.1
-165.2
23.746
190.73
126.68
-40.635
-291.63
-88.342
118.13
-2.6485
12.603
6.7942
-93.44
111.79
17.684
-103.85
-16.367
-44.607
72.424
68.405
-2.6731
-20.067
-38.835
43.515
51.72
-72.527
72.181
-106.23
-76.194
224.94
-88.001
60.159
-28.25
-0.64432
-55.34
-63.134
119.53
22.503
-25.939
-2.4346
9.3706
-36.732
-61.592
122.15
-41.26
-19.627
187.44
-191.58
136.56
-53.623
-340.42
104.31
-80.252
160.24
109.67
-119.01
11.729
354.81
-195.18
-233.81
187.33
123.1
-6.1544
-85.592
-71.746
66.35
-68.554
215.26
-203.65
-233.97
117.61
60.252
36.115
7.9215
46.029
-32.895
27.673
-53.082
-149.47
-96.263
258.6
201.58
13.131
-108.86
-90.656
26.718
-63.152
-119.32
47.892
150.4
9.0215
34.25
-70.04
-6.6599
1.5149
-5.7491
69.87
170.44
-45.442
154.01
-303.3
-287.21
225.56
-321.4
186.98
390.17
-295.9
-396.37
239.2
332.54
-175.34
-96.249
133.19
-61.115
43.825
-141.34
92.915
204.19
59.674
-205.47
3.0297
-37.165
-46.945
115.87
-45.027
-164.61
347.58
169.98
-213.57
-285.13
65.097
64.744
-131.06
335.81
11.199
-184.67
10.036
-93.395
176.48
-59.189
-173.09
-45.739
236.71
52.212
15.147
-68.131
-76.829
50.736
-31.513
6.6734
24.182
-58.85
83.652
233.15
-198.8
-250.98
111.1
3.2901
52.071
-40.234
-42.555
102.79
1.7564
-9.2495
-12.671
5.6882
36.394
-50.189
-50.48
-91.395
-7.888
256.37
48.541
-76.867
-23.519
35.314
-64.999
-69.844
6.1404
82.721
47.114
-38.557
-12.438
-19.312
-27.954
13.23
44.314
112.13
-74.984
-131.11
-170.66
319.86
175.12
-120.68
-36.032
-25.344
-110.13
-49.144
38.635
-18.962
65.719
92.059
125.9
-307.32
-19.477
53.836
33.573
-34.52
-35.393
67.249
-54.461
31.666
-18.886
-329.63
-245.83
246.35
712.99
521.6
-154.9
-676.13
-144.37
75.611
95.735
-23.647
138.85
224.93
-490.51
-189.86
251.7
-84.866
-33.908
124.26
133.36
-208.09
36.433
242.56
68.904
-89.299
-124.53
-26.14
-138.91
169.41
18.26
-126.83
-19.664
-27.113
-100.24
265.71
235.94
19.572
-264.55
-215.66
330.43
14.324
-323.65
356.6
-76.91
-516.62
195.53
426.66
138.5
-472.17
-217.17
208.13
-97.454
18.037
390.24
13.012
-228.44
126.57
149.74
-97.649
-190.95
79.587
102.98
-141.57
-174.71
48.519
132
28.866
-0.28328
-6.1377
-2.8884
-36.894
-18.642
-0.871
22.487
21.377
-25.409
-79.013
121.99
100.35
123.33
-90.262
-91.912
-79.803
-210.43
369.82
104.39
-161.52
97.996
-208.79
50.2
-537.77
-27.042
226.25
197.71
258.47
-67.355
-34.279
8.2551
0.89643
-16.19
-23.544
114.14
-4.7667
-99.502
6.5681
1.7972
6.1894
-8.4202
2.8791
-8.8228
-4.0527
-5.5803
3.8879
21.804
-23.251
-7.9918
-35.186
-19.413
58.416
40.376
38.068
30.372
-50.699
-44.055
-52.529
-68.839
30.585
59.521
-16.787
-15.81
-83.673
-107.61
222.08
224.13
-78.851
199.74
-175.81
-217.39
101.73
143.9
-68.063
-246.48
-121.86
294.29
59.761
-318.3
-31.304
153.1
108.75
-285.16
-101.99
385.05
88.608
-18.883
-41.18
10.023
21.638
-162.14
-108.23
220.28
174.3
119.45
-243.4
-177.48
68.618
22.044
38.682
15.677
-12.922
-126.86
-14.469
47.182
444.14
74.899
-322.59
-148.88
50.674
-58.37
-269.94
-203.06
177.27
399.42
91.577
-83.175
15.42
-250.99
235.92
148.14
-243.64
-29.197
126.55
37.409
-298.07
-97.803
322.09
240.53
1.1406
-1.2457
-106.86
-419.86
-417.65
112.25
341.03
-157.35
22.845
-22.391
-198.55
88.376
258.25
447.7
149.91
-31.115
250.65
-57.299
-503.06
-264.54
11.962
184.96
-46.337
871.6
-295.1
-464.41
-8.7516
70.584
-287.27
-375.34
62.829
224.57
391.41
-162.6
75.315
466.41
111.81
-44.107
-391.12
-366.43
-304.74
601.41
-91.067
213.84
165.25
-306.14
-355.17
-333.68
-17.928
208.19
392.95
229.45
1.2429
-31.137
-5.4955
-98.438
-79.731
9.6482
41.817
-27.633
-12.817
-30.385
-1.002
72.932
-36.279
-43.092
-7.0094
-43.479
-8.0087
44.118
15.049
-44.317
61.885
31.263
113.53
60.11
-150.42
-205.66
100.57
10.036
-39.455
34.991
-3.5566
64.995
-12.193
-0.099619
-4.6548
8.791
-8.7612
-2.0209
13.507
12.308
114.39
81.127
-23.629
262.57
60.333
-370.44
-556.26
-107.49
191.11
210.49
239.12
-327.18
36.575
-207.57
50.622
426.97
47.955
-60.194
-18.849
-48.608
32.517
-17.213
-28.842
-1.8969
-33.61
-31.177
-78.475
178.75
109.08
3.7582
-79.849
-30.686
33.121
-81.321
60.461
-78.284
13.452
68.901
23.421
-43.889
-112.2
35.335
3.8591
-45.352
38.897
-14.504
98.907
-20.172
-20.355
-4.0756
-1.5186
15.301
-8.4501
1.14
4.5829
-3.9316
10.304
-8.6095
2.2154
2.287
-6.3022
7.8794
1.3712
-2.221
9.7362
-22.694
13.23
0.63368
-10.736
8.997
-3.9583
0.087848
1.8195
-5.0685
0.72329
0.55545
-5.4235
6.9282
-5.3317
2.8988
5.646
41.038
55.241
-45.111
-50.489
-76.042
209.36
-66.652
-104.84
174.62
97.618
-70.255
-115.36
-28.737
-27.422
1.9933
-31.155
-57.535
-86.008
303.27
333.89
-1201
-350.23
1187.4
159.65
-297.99
-267.05
381.56
-192.47
-7.0368
195.65
164.29
-303.34
-73.402
105.67
50.815
16.578
-20.391
-1.993
34.721
47.475
141.34
-364.76
-296.94
333.23
276.64
79.045
68.72
-38.806
-314.93
-699.09
237.89
326.05
30.574
-365.72
-64.246
629.43
120.06
-6.586
5.7574
-71.764
-64.321
-8.9893
22.524
-8.2949
75.625
-9.1791
-44.776
-38.177
-34.981
-28.804
-41.425
-152.92
130.87
174.13
58.317
33.713
-98.481
-87.428
-4.2328
48.442
11.974
-22.86
2.5045
-6.8385
-14.227
-16.598
3.3693
65.605
-56.897
-32.045
13.82
-2.3971
20.97
-6.7397
7.5838
-2.645
-8.8846
-15.078
-42.655
16.334
50.819
7.45
2.5449
-6.5461
-3.9869
19.033
-8.5481
-2.687
1.0359
-7.8063
-1.3628
6.7153
12.91
-1.7274
-23.36
-2.3806
16.595
-13.064
24.826
-55.736
-2.8707
37.063
-2.5794
6.9121
-13.913
5.8737
-10.611
-2.772
2.1233
-23.326
4.4805
-0.5759
16.48
27.69
-17.031
11.945
-9.4401
-9.5691
14.339
-9.8248
-18.419
9.7152
-58.866
-32.984
306.3
-57.538
45.546
216.97
34.969
-283.99
-304.46
-10.333
-78.461
-70.029
208.3
-46.727
76.397
-165.25
-154.31
47.039
-17.413
389.09
114.27
-46.612
-49.199
4.5445
-5.9937
24.772
53.407
37.416
-71.3
-146.11
36.86
13.494
2.5499
-34.422
-118.22
-194.72
107.19
234.15
120.03
8.6992
-17.695
-44.283
-23.452
-22.588
-1.5547
-6.6378
-3.9744
11.362
-4.4926
-2.8995
5.1489
-6.9355
1.8328
1.2344
-4.7269
7.1639
-5.2421
-8.618
2.0704
-4.7093
9.121
7.0673
-9.4846
3.1611
3.8439
-4.2178
9.0861
-7.9902
6.5793
3.4589
-5.5752
-2.7875
6.2904
4.4988
-1.8427
-8.8131
5.5072
2.445
-5.6902
4.9688
-3.6026
-8.3788
-30.592
-8.7782
69.861
-6.1371
205.87
339.24
2.0084
-58.724
-31.583
-406.49
-268.26
-41.053
-20.12
18.373
24.258
15.324
-5.9655
29.704
8.1878
7.2289
18.827
4.0143
5.5922
13.277
2.4911
17.158
12.709
-6.0502
13.304
8.6851
-0.11965
15.562
3.509
-6.219
8.3824
-1.5437
4.5039
13.219
-3.2
6.6136
10.914
-1.6711
7.5056
4.012
-13.619
3.2132
1.1353
-0.21232
7.0578
5.3614
7.7796
-3.7227
0.86922
-6.3573
-1.5196
4.7965
-1.0412
22.492
-6.6998
-16.38
-1.2714
5.8278
-5.3537
-7.1196
4.5075
1.8502
19.571
12.541
-2.9046
-10.199
15.4
2.1494
-13.664
-7.3132
-9.0985
-4.9423
15.632
-6.7433
-0.31616
1.447
9.0129
51.366
-73.408
-2.5751
-2.8939
-5.9731
-0.49727
4.3523
-5.5978
8.3935
-11.797
10.27
12.517
-6.4624
-2.4863
-0.36601
-5.7436
18.473
-6.0556
-14.211
-20.596
-41.033
234.53
27.038
-87.791
-577.88
160.22
597.09
-152.1
-165.43
17.189
-47.55
-144.73
-66.248
294.08
161.67
63.077
-9.9908
35.193
34.442
-209.89
158.3
-104.67
-551.81
-127.87
385.73
120.35
4.4671
6.9638
2.1225
-4.1962
6.2929
-14.553
15.467
-4.16
-11.999
26.157
5.5733
-4.0165
-0.64884
-12.43
25.24
11.759
-11.38
0.29783
-11.517
-6.2014
-4.9802
5.6958
-1.5796
-43.384
-57.66
22.575
128
-1.8012
-22.83
76.746
-108.78
26.93
8.6726
0.31399
-8.1043
9.066
-18.54
6.1975
5.8006
12.179
1.3504
-140.92
24.348
60.759
78.77
44.26
-35.711
-5.2588
92.504
281.9
50.173
-95.168
-669.03
-273.23
364.39
141.61
-102.41
-115.58
-69.02
494.74
116.15
-213.14
1.7764
-15.666
-146.22
37.933
25.973
-6.1238
45.568
64.636
18.564
-114.73
-103.31
-20.333
107.08
33.823
-21.246
3.7254
16.749
-12.513
-16.097
-0.55561
6.9719
-5.5202
10.572
-3.7633
18.715
51.982
17.601
-113.99
15.94
92.323
-75.103
22.351
21.162
-31.016
-55.359
35.81
53.989
8.2229
-13.098
6.8421
-15.917
-4.7863
15.781
-22.423
20.408
10.417
2.8406
-28.854
-12.315
-92.25
4.5741
-51.659
146.44
355.32
-131.09
-173.35
-57.17
-32.559
0.98921
2.4473
21.168
-23.385
4.3042
30.858
2.1533
8.688
4.4489
-31.522
-3.8161
-1.4342
-7.3218
12.243
2.5261
5.0172
5.1463
3.208
-0.30533
2.5597
-3.6307
1.8446
-1.6455
-8.0941
11.374
-23.58
-21.267
-57.54
175.49
64.08
-196.07
25.484
238.58
69.294
-247.42
2.0012
-42.116
4.2339
6.2864
34.222
-64.526
-3.2505
23.762
8.562
-15.131
-15.302
11.275
-19.113
-14.514
-129.4
117.72
536.17
-285.32
-259.97
-5.8441
1.9462
24.867
34.509
-55.424
70.228
30.621
-22.325
156.19
-286.36
-364.1
190.47
175.4
99.381
15.509
15.137
-20.726
-53.365
-76.545
177.91
72.905
-0.58317
-3.1492
-22.722
-18.478
42.468
-41.937
-33.103
60.724
1.8551
-19.232
-10.506
-12.32
-7.9096
2.9336
-10.428
2.4947
5.2471
-17.711
7.4623
-7.6634
37.122
-8.0106
87.63
50.866
-176.3
-28.645
-3.6743
39.024
-18.237
-16.742
-20.721
16.071
5.7164
125.43
-5.6863
-137.32
-19.856
14.918
49.734
39.219
-11.963
-59.812
48.346
-39.53
0.84728
-29.434
-0.95397
-8.5597
-10.87
23.891
13.711
-4.0828
4.8193
43.602
0.50965
-19.44
25.047
27.302
-51.889
-47.634
10.599
36.49
74.455
-21.859
-48.448
-22.085
-3.7632
1.6776
-6.8221
-7.4547
-3.7799
5.0719
-22.793
17.734
52.163
-26.605
-10.623
-18.654
-54.306
-21.375
204.07
-9.5029
-52.139
-14.302
-2.96
-4.7937
3.7135
-11.964
12.774
-31.823
52.271
60.043
-153.41
-96.438
136.51
111.83
-40.824
83.552
-42.183
68.111
-88.732
-343.75
-71.762
29.076
319.61
180.12
-21.212
0.38833
-116.04
-22.883
18.678
10.489
120.05
60.823
-166.94
-73.738
-3.648
0.40795
5.4833
-0.020391
-5.6805
2.8458
-1.7268
4.2885
3.11
0.43257
5.7036
6.1238
10.859
14.497
-12.337
-6.469
-12.654
-0.055996
0.94527
-3.8547
3.2849
-4.0502
3.3569
-1.941
0.76699
3.8161
-8.6041
2.4815
3.097
-6.7822
12.47
-25.927
17.629
56.108
-39.661
-40.715
-17.648
160.37
-0.66404
-106.63
-30.421
-2.176
7.5607
-12.213
17.333
22.43
25.037
-39.458
-18.1
-49.497
-11.301
95.693
19.609
12.88
-47.389
-16.669
21.108
13.971
14.172
71.623
-119.52
60.217
1.3937
-74.48
-184.25
332.16
-51.721
-440.56
176.66
217.6
69.5
-32.696
68.461
50.117
314.18
-379.33
-673.89
211.72
306.46
61.148
-4.2816
0.96496
6.0808
-19.589
4.126
-41.276
-8.3928
35.876
-81.367
103.49
152.35
-43.571
-17.164
28.682
-112.92
18.103
-10.645
1.0563
-1.9347
4.5142
17.952
-83.409
-79.555
54.668
60.094
39.485
43.823
-27.014
-26.547
3.3814
-7.7298
-16.167
-4.5344
-3.7104
3.7959
10.188
30.709
116.47
-62.204
28.918
-9.7806
179.7
-87.125
-247.15
-52.502
-41.313
132.49
-10.847
60.316
-87.077
-47.675
0.66141
43.691
25.22
2.3034
-14.311
-33.307
-84.509
