63.61
29.556
-93.15
-116.69
-62.2
-15.928
-21.59
-27.315
-7.9684
-13.647
-17.724
17.107
17.843
11.874
-10.997
17.777
-10.486
-8.0578
-14.936
-27.441
-20.117
12.228
-1.4817
14.655
22.06
-8.6299
6.8779
8.3133
-1.1671
-5.518
3.2489
9.4481
11.55
-33.384
-13.364
29.555
10.643
-12.599
-46.593
35.322
-56.253
-10.613
-93.832
-208.69
-21.828
189.1
90.724
-8.9847
163.41
140.97
109.02
45.371
2.4569
-37.052
-43.421
-30.65
-26.853
-20.235
-26.896
-83.098
-63.171
96.375
-3.6804
-51.956
46.235
18.925
-23.012
26.552
-21.69
-21.209
50.494
43.888
-7.5743
-1.7276
-4.7093
-42.327
-6.6427
-5.2774
6.9293
46.655
-13.288
-38.207
3.615
-29.297
-40.471
-23.832
8.4747
-3.9063
-19.828
90.45
-8.6072
-50.094
5.8416
27.297
-16.086
43.596
80.859
-42.56
-38.774
15.866
-45.913
21.514
26.114
-56.837
20.816
63.481
-51.292
-67.216
41.403
24.698
-79.417
-36.148
51.55
-38.27
-103.04
34.994
118.23
-11.167
6.773
87.202
34.683
1.7978
45.616
4.9251
-27.21
29.567
-1.1938
10.628
76.984
120.02
-16.616
-86.421
-80.758
-19.282
25.068
33.62
17.32
-134.43
-40.563
39.808
25.607
40.907
-6.0973
-67.908
-61.014
-0.48905
17.784
131.77
-16.364
-64.396
135.73
78.389
49.457
-43.698
-64.947
-59.962
-41.217
-25.981
-27.007
-43.874
7.356
19.974
-46.543
8.6765
30.209
-38.118
-64.455
30.013
57.239
20.579
-17.314
-0.82513
-33.029
-60.806
29.683
47.971
-62.55
-42.866
71.597
28.193
-73.528
28.124
57.096
-34.376
36.665
80.228
-12.183
-57.689
29.221
38.297
-38.502
-18.962
32.882
-2.927
-51.731
-4.4371
43.971
-16.629
-17.334
34.332
-15.866
-22.581
35.61
0.70332
-41.222
22.435
39.223
-20.247
-31.103
39.109
20.918
-28.221
0.63625
30.609
-22.769
-18.659
36.599
-4.5038
-36.76
36.028
121.79
96.524
-50.071
-68.067
-77.96
-72.967
2.1508
76.055
12.795
-60.765
-58.52
-28.049
33.841
-28.155
-21.522
-6.2765
-136.83
-17.148
138.61
81.476
-12.531
77.317
18.614
-48.547
-71.361
-38.415
20.849
-21.102
81.839
36.419
11.893
-6.6234
-12.84
12.704
-4.2485
-31.304
-3.4144
-1.7754
6.4869
-9.7777
-17.931
2.0785
-1.2282
-48.741
-19.735
58.307
8.1101
16.854
-7.643
3.0568
-56.219
-85.716
46.352
-0.41691
81.443
72.594
15.078
-26.221
49.841
-20.684
-23.386
-10.701
-30.783
-21.352
-6.2412
-46.857
66.361
66.009
-90.766
-38.131
123.79
-30.026
-81.725
19.669
16.773
-40.825
27.161
66.914
2.0973
-29.06
38.065
68.453
-17.731
-37.872
-3.4518
-67.06
-12.254
3.8497
-43.213
50.962
100.75
-6.1332
-0.4179
-12.111
-54.321
-51.436
54.936
-89.846
-9.066
75.476
5.7074
12.695
-51.275
73.342
24.827
-15.807
-56.85
11.918
68.918
-0.26337
1.0084
-26.203
-20.585
31.051
-7.9675
-17.086
11.403
-5.2122
-6.3117
-17.097
0.47731
-29.702
-4.9755
1.4899
0.21628
-6.6491
-9.2262
23.47
10.926
0.57019
19.125
-20.905
-38.418
-55.375
-45.091
-115.41
61.316
110.09
30.548
98.175
41.934
-25.41
-36.75
10.585
-33.629
-45.762
36.847
22.049
-4.9288
18.868
49.272
-48.247
-22.464
45.841
-10.692
-49.19
34.904
36.185
-0.30325
-7.4335
1.2182
-0.32007
10.362
51.911
-28.625
-25.871
-5.1103
13.545
-32.758
-13.462
-5.7481
-12.223
-0.093858
1.5163
-31.108
-12.97
23.576
-6.9388
-4.3752
16.714
14.143
-8.2651
1.6585
13.416
0.15078
8.9329
0.34498
-11.33
-11.581
3.0457
13.009
-5.8394
-4.2103
11.89
-3.8371
0.244
14.877
15.349
24.246
-55.966
-36.712
4.5681
-4.6863
27.735
10.921
-23.681
1.9891
33.156
2.4093
-13.527
-4.0263
-25.657
-13.932
37.682
-0.58712
-8.564
-13.042
-16.416
8.9823
11.583
6.1499
-2.7851
-9.1495
14.347
20.416
-19.746
-0.46983
5.7018
-5.9402
-13.76
-14.475
0.42446
5.7327
44.917
6.2096
-28.249
-7.7163
8.5996
-14.517
4.6946
10.211
-11.813
-13.58
35.183
21.091
4.7171
-1.652
2.2508
0.53927
-9.06
-16.68
-0.1849
-6.5651
-16.89
18.3
-3.4133
-3.5439
3.2505
4.8863
-7.773
8.1262
6.6267
21.254
-11.648
-61.233
33.292
8.3034
3.3447
12.298
-3.2818
-7.0821
-2.6153
15.443
-13.1
-34.847
8.9351
15.479
11.332
25.126
-37.081
-47.451
29.419
-2.846
-1.5865
16.966
16.113
-4.2524
28.607
3.7542
-68.047
15.65
37.571
13.712
-60.772
22.687
23.889
4.9021
-12.072
0.14709
12.038
5.4163
-10.62
8.6563
14.639
-38.705
-1.0148
17.963
3.6431
-37.877
5.8195
27.612
7.7574
-26.656
13.989
38.395
-20.47
-24.719
1.9594
1.4132
35.353
20.287
-45.539
-5.0181
-6.165
-5.5591
21.352
-27.924
10.216
-2.4225
10.87
7.6672
-11.342
-7.6587
-9.7986
9.2932
1.1464
-26.193
-5.6966
16.703
-1.0594
13.484
16.816
1.6428
-18.532
10.868
2.9711
-9.9906
15.108
-14.835
7.7648
7.3234
-24.742
-13.262
-2.4788
-6.9292
23.417
16.094
-7.1799
-10.424
10.922
15.535
-12.881
6.9843
4.9396
-10.318
-1.3064
9.1533
0.3558
-15.351
4.125
-10.441
-7.1697
20.158
17.687
-29.074
25.281
0.36323
-23.637
-10.39
17.356
4.301
-24.518
12.232
9.5984
3.2472
3.8821
4.1929
-6.4289
-55.115
-15.156
71.653
7.2154
-8.6896
28.259
52.16
-35.269
-43.479
-2.1243
-8.7895
19.534
9.4345
-35.97
-30.632
12.697
18.918
-5.5908
21.801
6.0597
-4.588
21.922
0.29678
-30.491
-18.883
0.4689
6.4091
-2.4566
-0.2343
15.84
5.9248
-7.6849
-1.1329
5.1729
6.8227
-2.4223
3.1876
-3.4212
-6.0013
0.16668
2.1916
-4.6488
0.6113
-1.7824
-14.069
-5.4661
12.742
5.0589
6.1488
0.21809
-2.9087
2.9202
1.935
-6.4546
-2.8709
0.95077
-1.6402
2.2141
10.533
0.5815
3.1052
-19.306
-1.9033
-3.2969
-20.434
11.176
36.522
5.136
-20.706
0.39022
-10.443
-6.3975
17.847
8.2289
-11.112
-1.1535
4.3844
-10.156
6.4166
10.535
-9.2822
17.973
7.1712
-2.6912
-3.4579
-4.7691
-1.6688
10.116
-6.817
-16.432
-15.883
7.4789
3.3475
7.9733
9.7825
-5.4476
-14.114
2.731
16.503
-15.5
-10.976
10.876
5.8738
-0.59295
1.7144
1.1092
-2.8797
-1.253
3.4444
-1.3835
-4.4765
3.9753
11.346
-19.325
-7.7928
10.771
-7.8146
-5.1524
22.072
-0.15012
3.8648
-5.5491
7.2077
-26.751
6.9822
12.538
7.4965
-27.335
4.3119
17.228
-3.2898
11.641
4.8926
-29.424
-39.291
16.312
43.78
18.071
-15.506
-1.0037
0.22584
20.114
17.081
-45.365
2.6216
1.9146
-4.2771
-11.293
12.044
-0.79475
0.77633
-17.697
-6.2992
22.586
-3.2218
-0.98184
-19.748
-22.867
26.57
23.053
7.7571
17.696
-16.818
-19.208
3.3009
9.3978
0.33821
3.061
3.4553
-2.1526
33.838
-6.117
-41.746
-31.471
-3.2344
41.748
-9.7211
10.538
10.742
4.0667
25.378
-29.665
-25.417
26.63
11.724
-18.573
-17.06
3.8576
-3.0737
-1.585
2.0367
10.071
-10.635
6.3193
-3.123
-12.282
15.419
-10.628
-2.6191
3.9339
5.0398
-17.258
-6.9743
-22.214
-28.923
81.232
-19.854
-58.313
11.053
15.782
-16.97
20.481
-26.603
0.51767
18.612
1.5455
94.503
18.468
-31.542
5.1516
3.3947
-27.469
12.483
65.131
-22.487
-43.59
52.544
48.914
-2.2602
-16.557
-13.444
-19.569
5.2106
14.894
-27.105
-62.086
-23.898
12.813
14.434
3.4224
5.077
12.801
-2.1677
6.957
6.4559
-17.878
-5.7004
0.67654
-11.159
-0.93337
9.796
-6.0329
-3.8978
10.892
8.9541
5.9327
-6.8702
-15.454
3.1746
-2.2851
13.088
-9.2065
-12.461
3.6183
-4.1283
-7.5048
2.7509
4.228
-8.4227
1.0813
11.43
-6.9651
-9.935
10.1
1.1317
-8.2411
7.6451
7.5821
-9.4105
6.3829
9.0004
2.5127
2.4289
-6.6423
-18.589
13.511
-4.2146
4.5734
-9.2893
-10.01
20.902
-2.7981
-4.4419
0.74791
4.553
-28.412
4.7569
26.972
-26.859
-13.432
22.129
17.61
1.4698
-7.6835
-19.97
5.5134
20.393
-20.802
2.3858
19.901
-17.828
-4.3995
26.015
-1.5387
-29.152
14.596
25.374
-14.495
-22.332
20.266
17.088
-20.754
-18.124
30.642
9.6331
-21.447
1.3845
30.94
-16.63
0.27698
5.6732
-12.945
5.3852
8.7535
-1.2006
-7.1473
2.8951
-29.937
1.7978
-6.6896
-32.643
-3.6124
45.168
-1.9716
22.765
-8.7513
-22.437
29.411
46.535
-4.7325
-26.245
25.266
0.73448
-20.253
-14.834
15.528
3.2705
-12.293
-17.763
-6.279
3.4192
-1.6777
13.68
5.5655
-5.5672
-2.9733
-3.8293
-5.37
3.4685
2.6401
-19.638
-0.95626
-13.997
3.4709
20.555
1.8397
-5.5179
13.299
-7.8681
-17.662
4.9222
0.60013
5.6384
16.375
-1.731
-15.105
10.946
4.514
-16.52
-2.6647
12.22
-7.1185
-5.4469
5.3939
-0.68401
-7.5897
9.9225
7.3397
-10.025
-4.1998
3.2812
-17.078
-5.3458
-23.054
-19.82
90.235
65.048
-7.9021
-29.722
3.5794
-41.267
-11.803
1.9003
-18.939
23.798
-6.9647
2.5136
12.23
-16.87
12.312
-25.193
7.6168
15.027
-19.837
-80.342
7.1918
75.662
25.534
17.633
-43.085
-13.191
46.543
-12.233
-35.296
24.543
23.971
37.779
41.906
-4.6764
-29.07
-19.704
-20.17
-61.393
32.793
8.1301
-22.646
-17.524
-23.222
33.642
25.593
-2.0141
29.119
-9.2718
-33.594
-1.8938
7.0269
-8.7585
6.0426
19.35
-4.1081
-8.1593
10.208
1.9038
-10.853
0.11019
13.924
-7.4369
-6.2274
11.104
-7.928
-3.7576
12.573
-13.652
-0.15484
16.012
-13.345
-2.6507
17.601
5.881
-25.471
-0.63578
22.474
7.0175
-19.774
-6.3832
20.075
6.322
-15.857
-4.8679
18.141
6.8442
-14.436
-7.6143
14.811
0.15262
-17.001
2.6667
7.6791
-11.993
3.8973
3.3603
-14.682
8.6826
3.8039
-15.938
12.139
6.0598
-16.501
6.9482
9.9776
3.7533
30.044
16.267
-15.676
-50.361
34.979
-3.679
-50.277
17.432
35.774
-46.857
-35.816
16.582
-5.965
20.735
19.046
-47.351
-47.634
106.1
81.72
-31.177
-45.925
25.331
-37.789
38.997
93.311
-15.022
-50.206
-21.639
-23.931
-5.9769
-4.832
4.0861
-13.998
-6.6264
4.7144
2.2535
-2.6666
-4.4745
-7.2028
9.8002
6.9715
-6.7356
-16.501
15.96
-5.7303
9.841
10.039
-15.414
5.406
-26.919
-39.595
34.464
18.25
-10.828
16.073
15.548
31.392
9.352
-14.675
-7.8101
-2.2643
-28.301
8.8051
-5.6888
-9.9879
5.9998
-20.774
14.871
1.8386
-21.228
17.355
16.488
-14.139
18.226
19.667
-17.008
6.8592
28.49
-3.3342
-16.759
-16.955
13.912
-8.8758
-1.2258
24.595
-5.3711
-24.156
1.776
-8.1093
-0.077679
21.546
-13.41
-2.3524
-4.4725
-15.974
1.8087
-0.54671
-22.556
31.023
28.373
-13.359
5.551
2.3006
-8.2201
-22.713
13.547
12.034
-16.812
9.2307
-0.1935
-7.1066
7.5578
2.5332
1.3898
-11.395
1.4352
5.8774
-20.221
-1.9519
15.565
-8.8988
1.2806
20.466
-9.0194
-7.4013
15.958
-0.91741
-13.096
10.396
-5.8435
-6.0277
11.533
8.9858
-15.773
-1.4214
15.484
-8.1657
-3.2272
18.751
-43.49
-27.42
45.221
10.518
-6.8044
7.6909
3.2196
-25.812
-8.2524
23.997
2.5354
-15.672
14.634
16.524
-24.151
2.9112
40.435
-8.0549
-41.046
-15.552
16.343
-11.515
-14.955
48.026
40.034
-27.007
-12.099
19.34
-2.643
3.565
14.384
-29.613
-18.828
25.971
7.6017
-41.517
13.383
31.121
-21.301
-6.7705
12.05
3.0441
-8.8224
-51.306
23.311
45.182
-18.467
-44.265
-34.723
14.39
51.388
-19.422
41.56
-12.679
-9.7447
30.52
-12.213
-12.839
18.816
-37.113
-56.712
19.654
39.979
-2.8413
12.106
41.652
12.593
-33.018
-12.603
35.483
12.697
-19.152
-10.793
1.188
-33.989
-22.328
31.705
7.9581
-22.458
13.189
17.243
-9.0532
32.257
-1.5041
-33.168
18.605
-29.969
-184.24
-30.32
-99.632
-295.27
165.87
296.37
155.01
129.42
-31.302
0.91435
46.136
24.001
-8.6528
-19.425
-2.3189
-42.678
3.3842
-31.565
-75.963
-100.67
-153.11
-116.58
77.099
417.54
364
63.547
-140.41
-101.67
-25.242
-34.881
-62.057
-28.588
-41.022
11.396
19.353
-15.289
-44.894
-21.092
-21.822
20.779
12.257
-18.908
8.603
5.7894
-26.736
-6.5715
13.239
-3.9518
-29.57
25.362
12.545
-9.8518
-8.1721
-22.882
-35.223
5.0745
25.573
-16.188
-2.86
18.572
-5.2471
-1.6886
2.9537
-31.618
-12.607
70.404
56.441
-46.806
-35.245
25.193
6.465
-36.233
-53.141
26.464
45.713
6.022
3.6024
27.908
0.92738
-38.889
-11.898
-8.1916
5.3505
-12.344
-0.37423
3.8681
-21.565
12.604
16.676
3.2211
13.605
-1.941
-9.6057
-23.045
8.1788
16.095
-6.2066
1.5105
2.5917
-35.201
-13.11
12.591
-22.507
17.285
23.895
-22.107
1.1576
30.228
-12.58
-2.2754
29.532
-7.2003
-19.247
22.198
4.3734
-24.153
9.853
14.306
-21.137
-5.6628
26.317
-3.6005
8.9395
33.233
-13.095
-14.765
5.4587
-9.0984
-20.518
13.738
3.8927
-25.536
12.168
-11.695
-46.62
5.4989
72.973
49.948
-11.068
-8.5526
-18.881
-111.01
-24.409
41.128
-32.272
37.892
78.202
-31.267
3.1793
17.597
-24.454
4.0056
-1.2276
-40.03
25.418
38.968
-17.468
7.5493
-10.839
40.061
8.2792
-59.67
24.308
-46.146
1.7375
43.605
5.2231
6.6918
3.4484
-14.818
-3.8576
38.643
-82.658
-47.594
53.971
-48.585
4.8813
73.762
45.227
-47.537
28.489
20.772
-33.53
-13.785
-40.203
0.54463
88.652
37.835
-28.109
31.113
-32.224
17.197
-35.704
-50.586
30.662
42.816
7.5423
-34.101
-18.385
-17.185
4.7388
30.122
-23.711
26.557
3.1473
-55.252
-11.867
9.5769
25.84
2.5523
8.5102
27.568
-36.119
5.8012
9.3273
-22.798
4.0573
6.0348
-31.145
18.859
-10.253
-30.4
27.893
-8.0386
-33.792
35.107
20.041
-40.923
-14.925
41.935
-13.826
-14.221
42.336
9.4395
-29.978
13.666
42.023
-16.155
-19.873
44.531
9.6347
-40.155
23.161
22.938
-21.473
56.723
67.512
-73.572
-33.759
8.0984
-64.497
-13.264
24.773
-63.456
-4.4936
13.923
-21.453
29.691
34.269
1.0008
31.982
12.372
15.651
-2.8519
1.7733
-31.727
-33.034
21.646
2.4136
-41.708
-6.6305
33.426
-17.852
14.684
33.282
-19.032
-2.2452
26.846
-22.325
-5.7359
25.072
4.976
33.495
-14.34
-11.268
26.086
-43.499
-20.575
24.391
-6.0804
-23.212
-18.607
-22.306
20.884
-8.232
-11.189
17.71
-22.771
53.411
80.465
-46.993
-34.544
-30.048
-13.731
25.993
49.736
11.636
21.558
40.692
1.8244
-67.361
-10.21
19.546
-31.91
-41.827
-11.649
-4.1686
13.722
-59.292
-9.8529
22.925
42.597
30.564
-4.033
-21.689
-47.297
32.272
5.9044
-4.8024
-36.672
-129.6
-16.911
44.751
-8.0768
70.316
-42.683
71.455
187.74
29.595
-194.91
-94.511
142.28
11.067
66.134
19.649
-86.121
32.231
72.601
46.38
11.638
-81.468
-100.71
64.117
113.63
-132.09
7.0562
98.296
-29.176
-134.47
-38.218
-36.06
-46.658
191.24
16.315
7.3723
108.83
27.57
-76.704
-39.755
52.815
-22.762
-19.345
21.649
-7.4981
-7.2889
-51.305
-28.011
-28.758
6.9997
13.655
-5.8216
16.486
10.984
17.264
-59.008
-44.084
1.3213
-22.581
19.859
31.071
-21.642
4.1756
40.96
-28.252
-21.163
17.08
-20.182
-15.574
30.492
-13.408
-35.828
44.443
-87.61
-84.341
146.81
93.883
-73.047
25.616
51.615
-34.717
-30.107
-65.21
-18.813
123.02
-103.52
20.528
245.6
-103.95
-141.76
93.895
31.761
-38.768
-3.8121
70.146
-15.548
-92.397
70.591
146.77
-15.132
-88.983
-73.083
76.982
-7.5059
-0.96673
15.698
21.593
9.9281
-29.146
-36.951
13.64
-1.8195
-0.10523
-14.867
-33.64
-14.128
2.4323
-16.312
-2.3561
13.815
-1.3139
-24.367
4.6004
-0.29992
-8.1216
14.955
-11.759
9.8036
-17.025
45.692
-16.568
-86.965
22.704
22.661
18.295
49.056
16.129
-32.771
-22.958
-49.48
-8.1898
24.325
17.395
5.6854
8.7071
5.4037
-2.6843
6.1509
-0.076
-21.197
41.927
-29.324
-22.581
-5.488
-7.0372
19.911
-39.81
-20.663
52.793
-18.077
-23.41
37.648
12.783
-12.54
20.052
25.745
-20.507
14.844
-16.056
11.48
-18.697
-65.882
-17.444
51.903
3.4949
4.5751
28.047
-14.91
41.602
-13.059
-29.022
-30.494
10.639
34.477
6.7466
1.4569
47.079
-18.902
-5.9705
3.9534
16.747
20.695
-18.446
-15.486
38.138
-30.029
-27.645
33.446
3.3107
-13.077
-22.821
-33.602
-31.438
5.2032
25.494
16.207
-16.927
12.193
-1.0923
-17.831
16.712
15.666
-15.758
15.198
63.96
38.722
-57.976
-33.922
-14.816
-8.9264
5.5154
14.167
35.191
-47.165
-24.407
37.976
7.1068
28.734
1.2372
-3.9928
-93.798
12.827
59.859
-38.451
-15.441
41.588
57.862
-47.001
-39.379
62.616
10.822
-43.727
-35.185
-5.0979
19.503
-11.608
49.153
51.918
-77.989
2.998
7.205
-37.971
-5.5703
33.331
23.534
4.894
-7.6817
-4.7346
12.002
52.86
-38.029
-29.554
-28.032
-2.5619
1.043
-42.894
36.622
35.933
-18.844
13.08
-9.9748
-48.946
35.65
-12.533
7.813
13.992
-23.133
30.05
36.106
-25.658
-87.115
-4.9931
54.271
-34.465
15.004
87.219
16.963
0.41032
21.036
-7.495
-23.198
3.3835
-67.241
-48.108
-66.81
-22.118
62.938
-18.115
-17.77
157.38
170.08
61.968
-85.868
-12.46
20.879
-48.194
-100.19
-15.018
62.258
7.6908
-46.84
-52.401
6.7438
69.521
14.152
-27.94
-0.70273
0.32056
5.6024
-26.462
-15.663
19.186
-41.228
-33.04
-104.66
-204.04
-89.891
211.55
44.032
-71.735
124.68
92.503
54.156
180.06
25.391
-80.843
25.845
36.346
-118.27
-6.2376
32.765
-0.5702
8.5121
-63.795
-80.275
74.464
-32
-81.157
62.373
93.545
14.235
54.394
-11.556
-33.361
-12.323
-18.527
-29.995
-39.228
-29.183
-30.068
-70.399
82.904
115.45
-101.7
-35.145
-35.213
65.305
80.767
-11.598
32.169
-1.9194
32.026
-26.795
-75.622
-86.334
0.35519
49.829
-45.958
33.933
89.321
59.268
28.411
-4.9019
-10.236
-23.058
-16.802
-27.561
-19.401
6.2597
8.5784
11.277
-14.391
-32.495
-33.554
37.848
-0.88428
-45.706
5.6915
-27.405
28.715
49.661
-2.6477
0.7138
15.412
-66.646
-70.55
30.018
-14.258
-2.7342
61.898
-16.596
-31.267
50.151
-18.027
-44.821
25.127
-34.592
-25.734
71.962
-18.253
-8.3126
81.211
-20.846
-20.109
65.345
-22.401
-16.375
49.92
-52.912
54.575
173.29
-12.898
-83.927
15.171
47.355
-72.92
-152.28
91.415
35.408
-19.231
2.6898
-24.923
-28.404
4.854
-11.211
-82.315
39.486
68.688
6.6435
-14.976
-26.129
7.8721
8.1122
39.693
-9.5789
-53.542
-40.774
-54.547
0.018161
96.312
-65.277
-84.011
69.529
129.72
50.824
45.664
-9.7497
-77.373
-71.474
10.451
-67.437
-84.45
154.28
75.398
-58.005
9.8212
19.155
13.054
20.863
-4.0311
-27.576
2.8707
-98.163
-117.61
1.804
-70.395
35.782
51.154
-76.368
93.242
63.32
-42.191
90.144
29.966
27.767
76.055
-39.573
4.0321
40.246
-49.663
7.5348
16.32
-42.48
42.283
20.309
-62.065
17.208
6.6852
-52.243
41.396
41.265
7.6593
15.659
-6.6487
-31.231
22.15
-2.2457
-37.52
-5.3279
8.3747
-42.688
-32.5
27.191
35.849
30.265
-9.0514
-54.626
-23.224
11.149
-7.0247
-14.816
22.645
-11.781
-38.835
20.229
7.2469
-5.3821
21.407
2.578
-10.698
0.62612
-43.436
-20.007
33.014
18.614
-20.755
-10.084
-72.524
-19.221
111.07
4.8308
-35.766
29.53
-2.9456
-30.619
-59.656
3.7705
58.276
15.528
47.31
6.4668
24.414
10.879
-38.035
-4.8196
-0.97932
-22.188
15.354
12.795
-16.252
-35.63
-62.397
-18.627
-82.758
86.074
90.652
18.082
18.096
35.494
-17.153
-7.2397
56.572
-0.013988
-5.2579
-31.366
-71.627
-40.658
24.949
-0.39735
3.9663
40.957
17.956
-30.501
-31.531
-17.792
38.859
89.248
-35.601
-33.81
-30.03
-16.059
4.8327
13.23
12.653
-24.426
17.804
19.92
-15.931
1.9931
26.349
7.4646
2.3646
-18.943
-29.166
29.193
26.44
-19.225
6.8958
28.595
-16.701
-13.636
14.397
-2.1849
-14.667
8.8344
16.273
-49.834
-17.448
34.195
23.711
-14.035
-10.25
35.554
-7.3757
3.5848
-13.979
-82.21
-32.805
39.244
7.2427
-7.8562
52.642
46.424
-19.562
-0.60471
5.061
-11.569
-0.4916
-35.907
-8.1151
25.268
-31.372
-13.928
32.489
22.626
-5.8635
10.231
10.992
-26.455
4.0305
23.621
-23.427
-25.858
30.064
11.637
-3.5446
31.384
-5.1919
-26.215
43.682
43.392
-42.021
-12.299
11.776
-21.152
-12.578
7.8512
-22.75
-13.574
36.097
25.123
-7.5412
16.177
-5.3011
-17.839
-0.063632
-7.0276
-5.2432
-15.816
0.72923
-9.5742
-23.84
-25.63
-28.033
-22.293
20.808
24.382
-13.028
18.597
33.309
13.239
55.542
-5.2413
-22.684
-16.841
8.3006
-4.3896
6.0399
14.312
-16.068
-17.913
2.9861
-20.275
34.474
-5.3526
-46.387
19.665
1.287
-16.635
13.817
31.611
2.8393
-4.9919
4.2822
-4.5201
-3.8656
6.6281
-16.829
-5.3694
-4.9608
-21.126
3.4719
20.439
-11.056
2.8524
24.452
-1.3319
-5.3645
8.7569
-17.151
-13.159
21.704
4.192
-15.202
14.484
15.161
-13.496
1.9463
11.244
-18.703
-4.8522
14.25
-10.581
-11.165
3.4771
5.9731
-13.442
0.43363
12.382
3.2398
7.5239
20.528
-25.736
-14.447
20.24
-5.2579
-12.485
1.1612
-28.237
-23.961
23.95
41.953
25.942
-43.075
30.385
-14.189
-20.316
25.822
2.5815
-25.778
12.601
4.9357
-1.0475
11.093
-6.4144
-24.422
12.814
15.959
-21.682
2.454
11.932
-13.281
-13.559
17.582
4.6507
-16.754
13.05
14.447
-21.163
-15.203
3.7765
-8.6588
-14.425
35.984
8.2618
-32.508
47.979
35.053
-17.773
-13.632
-6.8244
-18.807
35.788
10.462
-10.932
-16.028
5.6133
-19.282
13.181
-13.225
-18.635
-7.0201
-28.796
-13.329
72.554
5.0465
-11.456
20.83
1.612
-19.849
-21.651
26.98
7.6966
-3.4386
28.671
4.308
-12.717
-7.1485
-5.6525
-16.982
8.6111
24.043
-16.697
-3.034
-25.263
-12.937
13.224
12.079
-0.3022
-15.385
9.7227
12.981
8.1961
22.259
-22.546
1.1071
-9.8349
-13.798
18.722
19.386
-17.753
-13.572
12.899
-9.8221
10.422
7.0797
-26.846
14.073
-8.4778
-3.1647
4.0535
-17.655
-14.261
19.754
23.107
-12.986
-0.67218
2.0321
-13.158
-8.5031
12.959
-28.541
-90.292
-11.648
29.865
-53.046
-102.95
37.317
-12.594
-82.823
158.41
46.704
122.95
122.36
35.278
-18.433
-64.511
-172.93
-0.36398
185.89
92.595
56.118
-43.863
-26.071
-94.998
-183.21
70.53
116.26
3.5003
-54.495
-62.566
77.839
121.08
-4.4015
12.698
-64.99
-94.826
-12.707
-57.284
45.784
11.565
17.585
58.696
-40.041
51.36
65.756
-21.6
-9.5786
21.485
-5.2571
7.14
18.109
-19.965
35.759
28.988
-51.881
1.1728
0.36829
-45.84
-4.0722
-26.321
-85.894
-18.881
53.747
-39.183
29.946
53.006
-67.298
4.2147
85.425
-27.698
-19.574
142.99
61.011
-44.789
-26.851
-54.137
-10.853
-0.72509
-9.1552
-46.419
-38.512
13.45
-11.155
-5.4643
28.493
-66.486
-89.652
100.88
78.43
45.945
-33.967
-255.66
-41.576
40.317
3.3546
135.37
-4.471
23.484
101.37
-13.108
-20.05
30.696
-11.13
-31.208
36.542
21.907
-33.952
-1.4206
13.339
5.0989
-7.5586
1.4879
-20.198
-25.052
21.6
-4.5899
-44.109
3.8507
0.63815
12.659
44.275
30.748
-5.343
0.37465
-61.995
-91.705
37.87
22.697
-11.919
36.758
17.183
-6.132
20.28
1.6997
-27.197
6.7705
37.931
-17.53
-13.652
23.95
-6.6903
-22.475
19.231
10.881
-28.457
-7.8919
24.195
-12.279
-30.281
-38.858
31.506
21.195
-30.286
87.112
150.62
1.5285
-33.476
-15.523
-94.098
-90.022
-52.605
-103.68
-64.092
83.394
29.363
-5.0851
90.127
39.752
15.569
43.239
-51.562
20.085
60.744
-99.76
-70.592
47.072
-16.88
31.399
26.558
-25.753
20.244
13.742
-18.792
39.669
24.326
-4.2257
72.995
33.254
-45.843
-12.607
-34.848
7.2248
-65.774
-209.65
20.437
53.272
0.56024
63.315
11.022
-16.977
74.346
65.844
3.1971
45.593
2.8784
-56.063
-21.005
-8.2883
-29.593
-9.4838
-39.193
-171.17
16.238
65.294
6.3753
50.637
22.54
-10.545
49.325
36.023
77.19
54.938
-92.473
-54.816
36.913
-22.716
3.9326
40.687
-45.98
-42.044
-2.8023
-16.914
-48.527
-18.577
65.256
0.45437
-42.212
35.3
59.528
-29.866
-24.551
27.554
-27.673
-25.645
43.736
-7.7112
-24.836
44.869
-12.018
-21.5
46.191
-10.651
-15.491
26.462
-16.222
9.9205
50.633
20.336
39.229
115.72
-55.25
-72.932
-3.4674
-25.122
-27.563
5.7683
-3.2575
-20.238
3.4856
-4.0306
-21.898
-0.81056
-4.8553
-14.92
-4.2212
-11.502
-14.7
10.889
-16.215
-18.545
17.086
-6.7282
-5.5362
8.7246
-21.965
9.8661
-9.3529
-28.596
24.731
2.4675
2.5662
-16.617
-72.133
-112.59
38.46
59.938
115.92
36.216
177.95
94.284
15.259
-9.6064
-25.948
-60.007
-59.159
-35.824
-28.188
-67.367
-103.42
57.842
3.6709
1.9875
29.991
-11.508
12.583
-109.98
-103.73
13.832
77.335
-87.348
-18.838
-21.012
40.75
161.26
55.205
41.665
54.844
-13.085
24.683
10.109
-67.196
19.565
-17.342
7.0814
21.564
-17.128
22.459
-15.475
-14.458
17.529
-20.202
-6.7678
20.772
-22.082
-0.58517
34.236
-18.088
-19.823
30.661
-8.488
-43.645
30.909
29.094
-45.89
-1.627
52.341
35.593
-37.468
2.089
21.405
-29.96
-9.4028
18.773
-14.453
16.855
26.606
-126.96
-84.135
79.916
10.47
-21.702
45.764
71.882
15.304
-6.1387
42.206
-1.5725
-21.59
-9.6919
-44.7
-6.6328
19.014
-59.948
-61.836
116.58
-50.954
-36.962
216.79
71.223
-57.648
54.263
-114.16
-87.444
-292.04
-65.801
24.119
66
29.399
-13.604
80.231
87.854
-18.59
-3.0963
43.017
-13.578
62.683
96.821
22.231
-1.8383
-38.533
-44.794
11.668
-31.808
-17.486
18.08
-18.108
62.431
139.16
64.846
-52.01
-90.2
-85.604
-62.466
-41.826
-19.197
19.616
43.696
-11.446
-33.916
-25.579
-7.9798
22.036
2.2148
-22.899
-22.575
-5.8066
-8.098
-5.0424
12.126
0.52803
-9.8958
23.172
25.818
-7.036
-15.598
4.6507
-1.9357
-3.0186
24.575
1.3089
7.6433
43.825
-2.949
-45.542
-0.28354
43.922
-33.659
-15.34
2.3116
-7.601
20.384
-18.567
8.6441
-13.258
-3.9068
18.421
10.201
-14.572
-4.461
14.059
-10.142
-34.502
12.107
19.688
13.229
0.16605
6.3053
-8.5981
-4.1312
49.383
1.8726
-21.438
-7.3192
-7.7382
19.603
20.459
12.37
5.5328
-27.64
5.5795
9.9362
-30.858
-5.3535
-11.542
-7.4825
12.265
20.187
-4.1404
-9.1498
2.3787
1.6682
-14.62
1.743
15.095
-0.58125
-6.7455
-17.576
2.7344
-16.467
-4.1357
22.67
21.229
-3.0526
-23.577
-8.0383
-2.0889
39.346
21.23
-48.756
1.3833
53.154
23.625
23.5
-10.883
3.9444
-64.701
-76.386
61.071
-0.60916
-2.7817
33.562
-3.2709
-14.735
-25.397
24.094
11.006
19.885
29.015
-14.128
-21.364
-0.2959
-28.552
-62.981
22.341
50.441
-8.2611
17.222
27.841
-21.923
-21.464
9.135
27.369
-11.987
9.8317
-0.38634
-26.282
-24.511
27.19
32.117
14.123
-8.0002
-26.007
-93.145
-97.542
-198.75
-72.971
163.4
-28.221
108.54
247.75
119.64
69.59
30.466
-2.8759
-43.889
-18.902
16.987
-45.52
-36.992
8.7041
-11.209
-22.706
-14.068
-6.9166
-11.69
-11.957
-36.916
-13.149
29.833
26.727
-4.0379
-9.7503
-4.3187
-5.4935
8.5537
-4.6295
-1.1855
1.9391
-23.815
-2.442
-7.8126
4.2444
14.689
13.941
-22.391
-11.695
10.375
-1.7509
-4.4995
-5.0642
-4.4814
-5.0735
4.7913
17.899
-14.003
-11.409
9.8015
4.4903
-7.762
-1.9156
-8.4338
-0.28223
-9.3681
13.224
26.677
-10.389
-3.162
0.23026
-12
-15.29
9.6637
-0.47797
12.118
5.8625
-7.0276
6.0225
-12.983
-8.1164
8.2216
0.70954
5.9618
0.12373
-15.605
-3.1169
12.665
-8.2976
-6.7305
15.48
1.8652
-9.5272
16.752
26.095
3.1124
-41.512
-5.6039
24.955
-1.9239
7.9542
-0.11399
-7.1594
-10.421
12.275
-6.0962
31.844
3.0319
-15.567
-1.7627
-32.017
23.444
10.438
-65.636
6.5298
10.233
-11.337
16.664
-17.221
-10.719
18.709
-27.047
14.166
36.766
-14.944
6.0048
30.262
-25.749
9.7786
14.837
-36.25
-164.85
2.2629
194.15
12.234
61.983
55.918
54.687
23.848
-35.703
-42.228
-17.449
-35.3
-31.807
-43.657
1.8998
24.706
14.003
-30.23
-18.557
-124.19
-51.919
147.69
70.975
37.995
0.93625
-22.073
-1.1363
25.264
-42.435
5.7241
-11.631
-33.07
5.6827
-9.9488
18.574
16.023
-23.426
7.6882
45.502
-18.374
6.9453
4.275
-5.7752
-10.598
-32.993
-70.907
19.198
61.131
11.541
14.935
-113.84
-46.508
86.803
-8.1404
-17.237
-143.32
37.976
158.91
-72.21
16.412
75.851
8.4559
19.089
-13.715
4.6959
35.611
3.6563
22.649
-22.924
-31.928
-18.478
-61.185
-86.586
119.62
127.53
-63.548
-57.414
-90.629
53.382
135.68
-19.253
-1.9968
-36.456
-9.8881
31.018
30.797
-79.697
-0.61821
-3.6078
-10.91
0.075041
37.367
-11.915
-30.505
1.6848
20.578
-7.1668
-49.375
26.888
-81.144
-8.3804
-76.678
73.282
150.83
7.4443
-14.845
-13.899
-191.15
116.43
75.938
-57.001
74.978
36.182
-29.244
10.683
53.144
-48.761
-102.04
-38.736
176.64
45.061
-87.092
-151.07
-137.93
-26.141
64.046
-82.151
46.346
-18.721
47.652
103.21
24.981
143.02
174.29
123.33
-48.535
-37.659
-55.151
22.792
45.103
-22.362
-131.32
-58.018
-21.203
27.447
27.453
-43.08
-15.756
-17.355
-19.439
33.634
34.397
-29.317
-47.637
-5.5098
2.9347
-43.953
-102.55
34.295
-8.1947
-19.771
74.559
15.37
69.347
47.419
39.641
-29.564
-3.4509
-35.665
-11.832
-17.422
-43.722
4.9827
35.242
8.5492
15.529
25.261
-27.164
-31.514
3.4009
16.77
42.469
52.522
-53.597
2.249
-9.4691
-105.99
-79.119
-106.19
-16.165
125.55
63.134
73.19
2.6311
-34.308
45.635
2.6322
-53.191
55.452
40.11
116.46
-55.65
-176.69
-45.033
64.353
116.47
42.293
-1.0322
-37.963
-47.863
-26.734
-17.721
-29.433
-41.329
23.929
-3.9314
-41.028
85.93
65.392
-36.621
11.174
11.906
-34.119
-17.008
-2.441
-22.841
-52.195
-45.482
-0.22835
63.519
-21.396
7.6671
95.727
28.884
-25.519
-42.668
-89.651
62.419
45.71
-57.138
37.626
30.761
-24.136
62.794
-75.511
-113.55
50.949
99.935
60.421
25.609
16.989
-8.1523
2.0977
-2.301
-21.957
16.754
-10.179
-18.701
-28.088
-1.8838
-18.08
-19.473
-34.088
-3.5558
14.243
-6.4982
-4.4727
12.029
19.312
28.149
-14.661
-22.694
-48.57
-23.421
9.2296
49.246
11.716
-25.584
16.676
17.556
43.366
-21.778
-2.5676
23.638
-35.227
-32.962
26.082
3.0696
-9.3919
-6.7777
-7.1478
-14.436
-2.2765
16.674
-23.956
-2.0939
-3.8057
-20.373
32.176
7.69
-14.725
14.554
4.8549
1.897
8.6873
12.557
38.363
-0.78083
-42.442
9.2031
11.666
-30.855
-14.42
30.919
7.0193
-22.308
-5.927
51.388
22.374
-25.95
10.701
-13.584
-17.475
6.922
-1.6776
-12.84
6.574
-5.1849
-5.0443
9.5519
-10.726
1.7802
8.0854
-16.776
4.7055
-10.834
4.1322
54.213
-12.745
-22.331
-5.6129
-16.817
21.202
-22.812
-11.169
47.919
-27.294
-54.713
10.84
5.9624
19.049
10.401
-16.394
17.887
5.4861
-4.6738
32.06
4.4291
-16.352
29.115
39.906
-23.574
-31.347
-7.629
-23.806
-7.4216
-0.063791
-11.939
8.0651
23.079
-13.589
24.398
14.221
-18.59
15.598
12.413
-4.4505
23.764
-69.159
-49.432
62.6
-21.969
-57.595
81.215
-29.073
-16.398
94.694
3.7373
-61.668
47.731
96.808
72.708
-18.792
-75.318
-47.77
-76.882
-70.161
2.1246
15.253
3.1824
-11.013
31.486
-114.85
-48.272
124.23
-89.845
-54.728
94.206
-14.27
28.935
82.692
8.1612
157.37
24.446
-40.076
170.81
-56.47
-139.07
-29.755
8.4427
99.348
21.055
-22.58
-24.987
-90.218
-3.8221
-6.5283
3.9238
18.262
24.377
-5.191
3.2172
-16.404
-77.177
-66.934
35.116
-19.094
62.876
78.909
-3.9191
-8.639
-10.207
-54.741
-109.44
-100.83
67.399
196.4
61.208
11.31
13.068
-19.488
-56.554
-18.067
-32.516
-20.97
-4.4631
35.912
34.935
-79.498
-5.655
13.635
-23.368
-7.4074
21.043
-11.183
6.6769
36.484
-18.825
-13.238
25.204
6.9206
-45.926
3.8678
-0.91994
-6.1599
12.001
-8.2546
6.1594
-6.3328
2.3996
24.243
-30.609
36.179
22.118
-38.014
5.3222
25.078
-19.053
22.938
30.225
-36.271
23.349
15.085
-9.8063
0.79319
-47.422
-25.467
34.249
74.342
22.863
16.416
42.438
-95.896
-57.254
-15.092
-28.178
11.838
-16.715
25.277
9.78
-1.5578
16.6
-33.839
21.001
11.619
-22.424
21.077
-16.993
-22.241
20.526
-7.7179
-16.361
17.239
-6.8741
-2.8512
6.521
-6.4008
1.9147
24.209
-5.293
-66.196
10.92
25.509
20.168
8.8855
-11.64
-7.0431
4.5828
-28.082
-10.854
44.54
25.508
55.004
35.803
-29.295
-61.444
-85.004
23.068
-24.732
7.3485
8.1492
0.91828
17.731
35.54
57.654
-4.5343
-3.5149
-20.31
-3.8652
-24.091
-73.722
4.3678
47.452
39.141
-3.4466
-30.894
-0.62693
10.407
-20.164
-8.3986
-2.2781
-15.255
37.232
-2.3526
0.36385
25.669
-17.95
14.441
16.043
-19.525
13.351
14.516
-27.323
-8.656
7.8977
44.279
68.7
22.729
5.9708
-67.469
-40.971
-3.1236
-6.3553
23.57
-13.573
-26.781
-5.3224
22.723
18.932
27.292
-37.413
-107.6
-9.7583
-0.72209
31.992
-20.7
-6.6607
69.292
-20.825
13.461
0.15057
-50.13
13.753
39.13
6.6787
52.958
31.652
-26.891
-3.1732
-1.6433
3.1142
66.123
35.453
-49.885
5.8269
23.84
-25.84
-33.036
-11.183
-3.1867
-20.868
-24.448
-1.8489
3.0274
-2.1924
7.6495
14.434
-7.9681
-11.274
20.384
4.0455
-29.014
-7.4665
-27.482
16.856
-8.8244
-20.023
15.578
2.5308
-21.754
12.31
13.36
-14.997
12.946
8.279
-13.983
17.107
2.9727
27.254
50.27
-16.996
16.998
2.2227
-34.669
-23.294
-51.321
13.724
102.32
-6.044
-48.34
-9.911
-8.5375
-9.3121
-3.8937
21.291
-16.526
-28.752
-31.692
-29.697
34.246
6.448
19.77
70.404
-43.22
-36.539
54.327
37.862
-17.882
-19.72
-66.091
-30.834
59.755
37.255
-5.8961
-44.384
26.807
41.065
-23.763
15.522
-22.688
-3.3
45.822
-21.278
-0.91837
54.061
-80.417
-23.197
26.496
-75.866
32.166
57.466
-69.802
-202.56
113.99
144.24
55.807
7.1013
-20.571
32.168
-21.107
-14.52
27.063
-28.231
8.7913
-27.571
-77.451
56.11
105.86
22.368
-30.226
-36.648
-35.882
5.6501
-19.532
26.06
29.239
4.0444
1.9303
22.949
3.8181
-5.1597
-67.9
-25.825
66.55
-19.477
12.107
1.8244
-31.574
-6.3831
27.908
-38.237
4.2178
-7.2922
-15.63
-18.042
-67.363
-3.3028
15.927
3.9182
72.745
68.256
0.25417
-20.298
-52.969
-37.237
33.319
-9.1666
-7.2906
22.864
-3.7578
-2.6339
20.415
-5.4557
-2.3804
38.713
-14.799
-21.26
8.8451
-30.335
-14.78
12.862
-46.708
-2.764
30.023
-57.098
19.481
58.939
-46.294
48.956
34.654
-46.499
52.593
9.6381
-52.523
96.345
112.31
27.524
6.8283
-66.705
-26.295
27.733
-34.41
-74.275
-13.27
-4.2505
13.522
20.016
-34.91
-11.665
5.8216
-16.358
22.083
3.6811
-56.995
4.0594
3.1393
-20.521
21.168
-25.043
19.477
14.696
-14.661
29.482
-7.7386
-2.3848
23.45
-33.485
18.608
-5.1516
-27.17
47.125
-8.4302
47.365
52.404
-6.8153
-14.784
5.3981
-12.628
-8.2552
-22.283
-13.794
5.8034
-10.717
-26.448
25.08
-2.2958
35.992
63.375
-41.009
-47.273
-22.117
-20.873
-4.6766
-8.1161
-24.3
19.134
-21.194
-13.9
2.848
-24.188
39.325
46.089
-16.368
30.808
17.159
-27.772
-6.8505
-22.755
-21.082
26.637
-16.649
-0.41355
54.744
16.99
49.375
-15.342
-101.57
4.7322
24.233
-17.023
16.933
36.916
-2.9534
2.093
13.62
-10.228
52.482
28.259
-46.479
1.8775
1.3441
-29.577
-11.12
5.9652
24.372
0.7024
-50.304
10.497
-7.7122
-46.246
1.2026
24.346
26.244
25.457
-30.604
-25.376
-13.297
-46.484
-28.746
47.397
63.549
-31.55
-14.667
4.9802
18.262
-11.798
-36.063
21.335
41.355
-33.602
-2.6857
-4.0603
0.72939
4.4352
-5.0158
-3.192
1.8643
35.72
-32.39
-13.76
46.896
-26.839
-46.827
25.396
30.364
-19.535
-28.137
15.016
31.214
-44.392
34.797
23.348
-42.357
9.4385
28.823
-48.52
8.0577
29.065
-42.928
-4.5482
48.133
19.218
-29.658
37.987
30.941
-23.123
31.043
-48.238
-47.228
93.03
86.913
-2.4291
-45.636
-25.377
-64.891
-17.183
-6.7888
4.5519
-22.77
44.507
-7.1068
-17.481
16.681
-29.706
19.507
8.4665
-49.357
94.662
18.558
-38.438
5.2183
-32.13
-4.9945
-13.753
-47.275
-35.26
18.535
-78.586
-172.15
-0.41957
-8.0607
13.635
238.39
108.86
-86.401
-61.421
98.976
-48.974
25.246
134.02
108.5
109.91
15.613
-71.198
-118.7
-104.56
-124.2
11.502
64.146
33.637
168.74
25.072
-137.37
3.2227
-15.798
25.596
14.785
0.55492
59.334
29.015
186
126.93
-36.787
-105.23
-91.591
-60.363
-32.394
-24.91
-42.8
-17.313
-2.49
10.494
1.5572
-14.924
13.32
-47.665
-10.878
23.686
-7.5363
-6.8291
14.633
18.883
-5.0756
-14.78
-55.129
-58.461
-69.892
-0.34237
28.712
32.749
-15.43
18.727
9.5921
-81.075
11.249
35.627
-13.652
59.447
-20.251
-34.869
101.43
-3.4202
-13.34
84.651
46.969
-14.155
90.161
67.652
-26.677
-5.4813
-11.015
3.5871
-33.971
-51.055
-9.7829
4.3777
-5.4444
-19.402
-49.658
-25.716
-3.4992
-66.032
-98.499
-104.2
74.292
61.216
-51.638
59.842
25.705
-38.065
62.916
3.9725
-29.527
87.566
-31.853
-25.696
80.174
-35.529
32.357
68.579
-58.959
52.142
16.204
-91.211
85.813
117.96
29.121
-16.66
-55.246
-35.867
-18.842
-38.996
-17.679
1.1798
-45.151
22.628
-42.569
-6.9919
2.6147
-23.048
-0.22283
4.7225
15.998
-6.3707
-24.438
-12.601
-36.076
-27.178
-101.19
-135.64
154.15
59.896
-49.546
98.398
33.357
3.7155
76.422
-16.642
-29.914
24.8
-18.568
28.423
13.763
-34.273
52.365
31.227
-21.762
41.571
21.559
-38.475
69.205
105.8
51.084
24.052
-80.686
-62.175
-33.412
-20.989
-36.463
-5.0357
-41.784
-82.111
-33.619
-0.50806
-40.626
-82.903
77.739
100.43
-1.7555
-8.6442
11.332
-14.632
-12.976
34.721
-23.202
-34.641
44.234
42.811
40.159
40.095
14.832
14.131
-13.904
-23.512
-38.833
9.8166
8.5931
-80.536
-4.7796
29.025
-33.915
7.1362
28.557
-55.113
-34.061
-29.021
-70.066
-53.132
71.161
-13.554
-102.31
42.778
96.785
-30.181
19.403
120.85
23.177
13.219
37.926
-25.665
-13.781
133.77
54.506
-58.403
36.809
-130.08
-80.787
84.676
-36.467
43.602
-7.0767
-16.861
45.421
-58.331
7.983
95.067
191.98
41.719
-88.652
-51.52
-84.555
-53.624
-52.957
17.823
5.6693
-33.123
-23.026
-19.385
8.8494
14.861
-14.67
82.47
21.751
-41.915
-58.845
-32.319
40.995
-12.048
-14.534
21.709
5.7913
-19.107
30.278
-11.57
27.259
-36.368
-93.259
19.325
39.329
17.434
-48.714
-8.697
13.489
-13.68
28.105
14.282
-26.091
-0.46648
20.85
-13.326
13.074
28.285
-11.661
1.4909
35.165
5.377
-49.784
-46.274
28.267
-3.8957
-15.527
41.981
22.449
-22.139
10.799
-29.56
-16.173
6.6034
22.368
47.944
-28.786
-59.993
20.258
7.3337
4.369
49.069
13.396
-16.831
27.223
14.944
-39.212
-5.115
-37.015
-56.819
-12.091
56.177
7.5348
-1.9981
47.555
29.097
-5.527
-29.79
-0.38822
-58.341
-28.243
126.16
51.248
-32.785
-48.545
9.5753
-52.673
-35.657
110.44
73.167
-24.454
40.54
14.965
-35.728
-1.762
18.653
-23.966
-33.614
-2.8006
-39.804
-19.571
36.225
-28.194
-16.246
40.871
-12.63
-2.8762
-43
15.018
23.116
5.6957
11.574
-5.5738
-83.038
-22.801
94.98
15.327
9.1968
-40.838
-8.3715
37.511
-45.387
14.398
-15.699
17.237
52.237
-19.696
-69.791
38.219
21.143
-53.186
-24.81
4.0025
-6.7309
56.159
4.5163
-31.553
14.759
2.3968
-8.9702
9.2986
2.8078
-45.029
23.931
48.807
3.1139
-6.1456
7.7941
-9.1101
-12.466
-7.0644
6.701
-5.674
2.2392
-13.377
-9.5938
-4.3393
-13.527
-13.365
3.9584
37.347
17.751
-5.3852
-8.2153
12.457
-20.572
1.8156
30.464
-2.1888
-17.829
10.674
-6.8446
-5.2067
-7.5608
-64.825
-51.821
18.795
-18.163
-82.015
33.585
82.046
22.776
32.543
-3.6866
-4.5061
100.35
44.101
26.86
-16.502
-101.46
-193.85
21.027
77.782
103.62
150.29
-0.59545
-54.291
0.51264
42.513
-22.57
50.591
-28.312
-2.6012
-28.386
8.9594
-44.56
-43.137
15.755
-19.174
-1.9665
5.7053
-38.342
0.42091
28.864
-31.9
-26.687
12.078
-21.132
38.086
27.175
-24.175
-16.301
48.001
13.152
-20.51
17.479
-24.471
19.329
-24.964
-73.511
30.427
42.18
-2.9003
-56.087
-7.7029
-22.232
27.829
28.91
-16.662
11.886
24.959
-12.132
28.296
27.83
-29.267
5.4582
-11.481
-28.78
-23.872
16.888
7.8631
-19.483
64.526
56.081
-10.483
36.31
-9.9255
-73.485
32.44
-12.438
-41.211
26.451
7.3432
-9.1278
-13.883
-16.083
42.318
-46.543
12.57
-8.0335
-59.692
25.566
53.639
7.2112
18.47
2.2762
-26.699
24.4
55.158
-36.37
-58.412
23.174
1.2407
-8.1118
19.908
-6.4561
-11.315
25.217
-3.3293
-31.414
-12.921
9.4506
-35.586
-0.039403
27.672
3.4457
12.914
-4.2051
-13.571
1.2193
-29.811
-7.8723
34.983
18.894
2.4886
-0.15805
36.238
-6.8748
0.92102
-5.7978
-39.406
-16.888
-25.51
-13.964
35.529
48.635
-40.101
-33.199
28.47
-7.5606
-16.428
44.612
42.279
-40.924
-1.319
8.1898
-24.741
-37.477
23.948
13.58
-13.284
23.837
30.654
-21.524
-19.555
7.015
-23.114
-6.5228
22.519
-7.7927
-8.215
-3.5251
-106.02
-153.44
-94.173
-179.26
45.567
299.84
37.231
-138.63
6.1145
173.73
254.75
52.583
71.759
127.33
-23.501
37.102
9.4247
-214.29
-173.28
191.12
37.505
41.864
-19.7
-108.15
-17.687
-115.33
3.0951
-85.453
23.407
54.129
-12.697
67.11
-70.437
-58.456
76.236
-48.523
55.167
20.41
-29.703
43.552
-10.126
-19.954
35.946
22.911
20.722
126.64
115.56
-34.065
-46.787
-61.329
-46.256
-48.904
-6.7331
-27.073
-18.711
-5.261
-13.08
-22.496
4.9426
-28.964
-23.738
17.506
-42.437
11.614
6.3135
-30.71
42.978
39.34
-28.684
-38.563
50.307
15.459
-36.734
26.781
38.057
-31.528
-17.013
25.57
1.3099
-0.9982
46.485
5.7388
-19.911
11.704
10.836
-18.091
34.6
38.532
-14.093
-26.708
-27.854
-22.298
1.9217
-36.769
-15.615
22.466
-17.774
-6.0104
90.475
-1.4944
-62.401
-1.3649
15.314
-13.052
-42.156
74.293
64.778
-44.768
-29.119
-26.442
-17.804
-8.9864
20.781
10.629
6.8317
5.8488
-1.3262
-7.9081
-34.213
-16.276
26.202
-16.675
-3.4978
14.965
-14.419
9.7927
1.8711
-26.787
12.636
30.708
27.996
67.616
-3.22
-79.539
-24.564
22.544
8.25
12.46
-11.414
-46.997
-2.9126
83.306
16.81
-44.6
-7.0596
14.587
-22.945
11.928
-7.6151
18.201
-15.14
-126.62
27.734
119.81
43.037
-15.096
-34.891
-70.417
-8.5583
-5.4621
-10.479
18.55
4.2647
26.819
-10.412
-22.383
-18.862
-1.16
9.8913
17.534
7.1384
-3.3609
-20.945
5.2615
13.284
14.949
2.7969
-37.693
23.668
12.366
8.6987
1.8481
-60.125
-26.052
34.343
21.155
9.8082
69.015
-12.783
-40.683
4.2714
21.673
5.2243
-52.351
-16.163
-9.4592
13.294
28.155
-27.664
-4.2754
34.926
-22.914
-27.736
32.651
9.5279
-34.157
23.842
39.364
-11.011
-16.285
17.907
-20.775
-8.3633
30.514
38.024
14.857
-6.8521
-0.16132
-5.7561
-22.117
5.3555
-11.285
9.1051
86.973
-15.834
-30.087
5.6182
-74.755
-117.71
8.8462
-85.215
34.31
209.06
23.536
-24.028
16.876
-26.948
-21.611
-5.5744
-9.5575
-10.43
63.522
13.03
-25.875
0.7747
-42.961
-0.91901
-60.341
70.312
70.964
-14.399
-13.58
27.124
-38.761
-28.129
33.524
-4.3678
-17.076
6.8782
-8.7586
-8.7818
2.0507
-28.558
-47.426
20.656
-18.235
29.425
30.227
-34.768
28.452
32.526
-8.4644
20.951
3.2752
-73.254
-16.788
61.178
10.289
22.01
23.163
-26.141
-16.124
-32.6
-65.297
12.187
76.912
-3.2943
39.059
45.047
-44.002
-14.787
17.825
-45.686
24.697
30.181
-14.856
-14.699
27.284
-18.525
-12.334
10.574
-32.947
-19.523
18.042
33.469
-20.218
-67.522
-2.1798
-9.1655
38.378
-11.71
-45.267
72.382
42.676
46.802
3.5025
7.8569
-55.248
-19.436
5.2419
-35.568
53.923
-9.8248
-15.813
3.7451
8.3403
-19.378
-1.5433
9.4286
3.7937
-30.727
-6.5669
36.041
-5.2319
0.80571
-12.515
-11.993
10.954
21.092
-7.2704
-30.21
32.056
-8.8078
-62.793
-15.691
30.218
-16.715
14.914
-22.668
-72.236
21.133
40.609
-39.911
91.262
-43.593
-108.59
131.78
122.63
65.819
33.057
-98.537
-27.643
84.642
15.128
-55.827
-67.92
73.158
61.359
-37.28
-41.334
11.141
-8.0658
-99.769
59.564
20.197
-20.524
-16.948
-15.5
3.8061
-10.54
20.738
-14.689
-2.5822
-14.358
-31.076
37.554
-19.667
2.0402
87.332
-22.31
-29.601
-4.5079
-24.378
40.851
-3.7123
19.948
-9.9562
-95.192
34.486
4.0017
-19.277
38.659
25.851
29.07
-74.25
-57.595
29.863
-12.111
7.3935
58.839
16.494
-4.0333
-47.492
-3.618
13.403
-27.64
45.299
6.3158
-23.763
36.697
-4.2773
-1.8913
79.508
47.935
-50.437
-27.432
3.8922
29.192
102.49
-47.334
-105.12
13.144
6.6987
21.057
26.211
-104.78
-10.612
36.573
-19.108
-6.8801
8.5247
-30.209
27.223
63.299
-4.7714
11.334
-9.0344
-18.19
21.899
-24.621
-35.327
39.627
-18.381
-33.464
33.598
-79.005
-59.886
68.249
36.73
13.949
-49.852
-50.489
21.01
108.46
6.1369
-6.2884
-19.892
-46.205
58.338
10.975
32.18
62.316
-63.642
-50.702
-42.129
-26.813
36.629
-36.78
18.998
16.969
-16.776
47.018
35.248
0.6084
-44.636
20.107
46.894
-48.802
-33.27
27.279
10.272
6.1376
-11.183
-0.75118
-39.187
1.7308
26.99
-21.196
7.8912
10.024
-29.634
12.002
5.2317
14.538
39.478
-29.003
-8.7505
-20.959
-26.108
10.459
-31.855
8.2509
17.907
-32.245
25.984
5.5409
-16.013
35.792
-6.5198
-1.041
24.698
-14.431
14.907
7.9061
-16.926
25.188
-7.5407
-8.9034
8.8306
-10.549
13.76
-2.4044
-11.791
13.141
-10.735
4.0316
-5.7074
-15.336
12.094
-6.88
4.9901
0.2885
-12.467
4.7913
-22.355
6.6803
2.6618
-10.019
18.676
-28.62
2.5944
3.433
-18.887
23.329
-15.417
19.008
46.382
-18.395
-4.41
-6.4094
24.231
-11.196
-31.602
24.303
-22.28
-16.749
15.423
-27.894
44.404
43.948
-17.022
15.103
-50.226
20.266
18.907
-48.145
7.6546
4.7633
-39.379
34.816
7.1137
-9.5968
41.06
-18.923
10.835
16.99
-38.927
32.355
-6.2268
-17.091
29
-29.003
18.957
7.1897
-29.818
28.336
-21.314
-2.8828
22.41
-36.923
26.664
-2.8554
-15.17
35.804
-29.412
15.155
30.263
-4.5027
18.519
-47.115
-37.63
35.65
-20.798
10.141
23.998
-4.1501
39.366
-31.086
-28.206
18.699
-20.578
43.627
3.2161
-99.561
51.545
-13.759
-37.798
65.883
-92.512
23.225
117.93
-52.577
23.545
-44.338
-62.487
58.867
45.054
-7.7542
10.164
-25.223
-6.617
26.878
-19.922
28.691
15.388
2.9285
14.657
-11.233
-41.549
3.7172
-50.498
-54.802
44.009
2.747
-0.13874
31.544
-25.327
0.15481
1.833
-24.388
36.06
0.18583
-22.812
40.79
-5.6571
-37.911
49.32
43.88
-40.286
-3.4015
81.363
-1.548
7.3761
49.968
-11.561
-53.863
-19.987
-12.898
-7.6201
15.229
-7.7426
-27.527
6.2193
-27.406
-3.4182
16.597
-43.051
1.2012
15.269
-1.2315
60.978
12.031
-57.009
23.533
51.29
-25.729
-47.855
-78.451
-239.05
-177.33
-29.246
130.75
311.35
140.42
174.39
64.668
-79.349
-40.964
-23.166
-32.504
9.9653
0.69332
-27.428
4.4423
-17.171
-29.266
0.16041
-46.34
-104.45
-59.208
-70.271
-108.98
9.358
6.114
148.18
127.93
87.263
65.481
-35.715
32.037
-2.0516
-18.136
40.23
-36.565
-7.4845
-10.836
61.03
182.89
-18.197
-111.87
-8.8401
-45.337
-33.512
23.782
-51.552
13.647
-4.5722
-28.193
24.47
-30.616
-3.1667
25.329
-42.77
4.2775
46.871
-31.264
-23.058
43.152
-6.1277
-64.506
17.492
14.726
19.127
45.096
-23.903
-2.1699
-18.493
-6.6714
-49.877
-2.7396
0.1095
-54.821
18.403
-18.455
-4.1975
58.101
-50.877
45.119
7.7638
-10.441
74.276
-10.752
-26.512
50.869
-20.146
-13.411
57.268
4.0134
-41.465
7.2218
4.1792
-41.46
15.125
-14.387
-94.582
91.64
203.55
67.891
-57.529
-213.99
-113.79
132.54
204.41
-46.747
-115.08
-189.67
-58.51
-76.674
-26.809
36.944
21.255
136.69
26.185
70.089
-22.085
12.491
3.1098
-25.202
26.979
-50.55
33.792
18.518
50.257
198.26
70.592
-45.501
103.21
111.94
-184.93
-208.82
-147.63
-190.75
47.53
-21.372
-12.221
24.386
-29.551
118.79
-27.2
56.663
-11.564
30.457
47.641
27.664
149.45
67.858
-56.252
-96.127
-66.859
-57.291
-37.892
21.832
-40.324
39.996
-53.361
23.661
-28.535
-21.251
27.377
-63.678
83.339
-8.6917
71.934
-8.0519
-3.5111
25.517
-39.982
64.603
-32.106
51.361
-11.875
8.8624
27.461
-25.16
47.862
-27.536
-7.5145
10.456
-27.458
40.603
-26.267
-26.302
25.896
-30.649
6.6434
7.4907
-36.59
30.723
-17.725
-35.525
39.712
-32.685
-15.146
46.339
-42.727
7.454
36.17
-54.924
31.906
22.744
-15.4
102.79
-9.1558
-51.121
10.862
8.5588
-42.625
-59.182
-60.813
14.767
33.795
-56.012
20.466
13.052
-8.0438
65.753
-5.9793
-5.6385
66.36
-5.3821
-26.546
46.9
16.236
-37.488
15.727
29.123
-35.101
-9.4547
26.667
-31.88
-0.38267
57.461
38.369
36.712
-28.409
-87.413
9.9169
95.179
33.121
73.882
-35.56
-207.83
-33.682
-19.707
-42.821
63.348
73.738
-70.162
-34.772
66.461
-70.866
-34.53
71.995
-9.0382
-52.456
68.908
21.88
-41.646
3.5504
-83.099
-210.51
-65.09
128.84
-17.959
110.63
163.24
66.596
103.73
-25.804
-162.49
-72.877
-20.288
30.986
74.105
-34.583
45.457
22.039
-26.708
43.047
-13.109
2.8979
6.8833
-12.793
7.5188
16.032
-31.25
8.1738
6.3817
-18.209
38.811
-44.257
30.74
-10.149
-8.9974
32.32
-38.435
28.169
-8.8614
-10.909
6.4916
-10.051
20.261
-16.194
-8.6965
17.054
-14.31
5.598
5.8424
-19.837
18.599
1.811
-11.234
18.109
-14.812
-0.58715
3.7763
-12.372
11.083
5.4695
-30.818
12.484
11.981
24.752
9.993
-25.693
-15.265
6.4499
-4.1585
-8.328
19.307
-17.122
-6.8195
14.978
1.046
-3.4945
-5.4235
-8.9461
8.4327
6.4248
-0.39844
8.1394
-14.104
6.1965
7.9758
-12.755
11.235
-0.063926
-5.5003
10.96
-9.4959
3.9365
3.5221
-2.4683
17.187
-23.523
-13.397
16.58
1.014
6.8567
65.627
-26.662
-21.673
37.59
-55.248
-25.273
-12.175
-52.903
19.399
26.892
-13.4
23.339
3.404
-4.1559
18.585
-4.69
0.64113
9.0135
19.776
67.843
83.191
-37.238
11.479
132.35
65.321
-110.89
-179.27
-27.482
-51.772
-86.451
56.275
4.2774
81.839
-61.188
2.2087
-23.242
6.4715
-30.428
-31.326
89.619
-237.81
257.2
49.218
-75.268
81.694
-54.759
-295.94
77.526
186.86
-339.92
-219.03
113.49
192.38
44.362
51.734
67.881
22.268
10.534
69.506
22.141
-20.351
58.802
197.06
337.35
-360.82
-179.06
-40.932
8.5547
14.022
-10.701
31.391
123.48
85.195
-105.51
-103.7
-54.848
-92.579
38.792
52.57
-31.562
-41.521
91.553
-17.074
-89.989
-22.14
62.764
-16.161
-83.641
80.2
39.958
-124.32
70.746
91.908
-82.207
-28.645
85.419
-18.941
86.981
50.201
-71.299
117.84
-24.067
-140.71
7.1763
10.551
-11.571
11.573
-59.329
-20.881
34.587
80.732
-84.242
-21.637
22.147
-30.083
-48.427
107.16
11.865
-62.609
71.155
-39.061
-215.02
5.5743
63.05
-56.343
103.77
195.14
240.39
196.39
128.98
-320.39
-186.31
65.724
-374.91
267.14
299.8
-256.91
-63.546
-363.19
105.43
313.08
-577.46
-38.844
113.75
12.581
130.46
105.19
33.903
96.298
49.382
-23.706
14.443
-18.86
-15.958
65.672
30.301
6.965
59.686
-10.219
-33.662
15.548
-20.761
-11.289
12.03
-21.46
-2.1672
14.724
-19.551
-12.414
24.928
29.063
1.6017
46.096
44.098
-28.162
-4.0956
-3.5227
-82.802
-98.187
73.352
6.0944
12.17
2.4357
-196.34
158.77
35.091
-28.794
-146.57
-91.805
9.89
-194.58
72.759
147.99
34.468
38.229
58.482
40.625
25.201
43.771
32.387
-153.75
-17.886
25.8
75.823
37.262
-63.267
89.572
27.202
-34.308
-19.825
-57.835
-86.967
-54.669
98.664
119.19
280.39
-77.096
-288.55
-85.647
-0.29636
4.0343
28.146
25.585
-23.059
-25.245
32.256
-42.818
-47.554
14.895
34.299
-26.213
43.814
53.831
-17.406
12.583
-4.0072
-65.881
28.615
76.932
-63.177
2.6523
-18.24
-55.516
8.9608
15.065
-17.28
62.986
20.293
-39.981
31.385
31.476
-35.401
-12.911
29.956
-5.1815
-50.382
35.395
43.307
-27.09
-0.72563
3.5861
-27.962
-25.146
15.87
86.176
102.47
-32.638
-127.07
-134.46
-1.4849
-52.52
250.96
296.51
-35.285
-271.93
34.322
46.64
-100.85
-145.11
132.87
170.88
12.763
26.952
42.715
-315.15
-400.86
-73.829
58.136
164.99
54.446
79.425
201.96
224.27
51.483
-49.494
111.09
-62.425
-3.6954
-760.68
-516.09
697.58
71.673
240.35
-160.27
-189.38
-99.117
56.293
274.81
15.01
-59.203
2.1209
103.4
-46.125
-53.456
100.13
56.69
25.472
265.75
169.48
53.144
45.039
42.868
-127.97
-241.29
-390.74
-506.1
252.47
186.28
87.146
120.15
22.413
-114.6
-9.6638
-14.371
-39.452
60.321
149.24
40.943
-13.71
45.11
29.671
34.028
18.231
-39.228
-19.304
-73.964
-109.89
-65.068
19.436
158.37
-24.103
-218.56
-29.869
2.3598
4.6945
1.5714
53.947
-9.8986
-119.15
127.98
231.14
-2.9713
-25.815
-11.902
-34.124
-16.834
-5.2339
-184.28
-68.877
16.409
78.642
-0.031817
55.546
61.423
-28.475
34.101
55.087
-4.9522
26.296
20.392
-20.705
26.275
3.3161
-6.3254
42.913
23.32
-43.692
-7.7972
-32.664
-26.071
52.632
-8.0827
-13.251
14.074
-37.839
-69.067
-11.012
57.635
-12.195
84.178
77.827
-70.022
2.0937
35.966
144.51
38.46
-258.61
-108.34
24.702
116.46
192.65
88.244
-92.493
-140.74
-51.713
-64.561
-76.887
-57.738
-52.83
10.008
-62.182
-171.72
11.253
189.25
295.46
162.47
-11.251
-140.74
-158.53
-181.54
-165.58
-146.31
160.89
117.41
-77.483
49.995
28.052
-30.596
74.113
80.432
-25.647
49.863
70.761
-27.057
56.556
77.741
-37.286
-51.607
55.063
30.378
-39.15
6.0468
56.372
-37.633
-48.831
39.962
12.863
-50.958
4.0698
17.949
-51.339
25.815
28.769
-67.556
11.05
31.796
-58.896
8.9156
63.494
-37.721
-35.332
73.161
19.552
-65.017
15.987
57.018
-24.658
-5.4673
50.966
-14.799
-19.097
33.739
1.9397
-57.663
-6.6464
19.353
-39.224
-8.4147
34.416
-19.255
-18.404
39.549
23.86
-45.477
-8.7473
46.52
-4.5622
-50.208
7.6111
39.946
-25.94
-33.517
27.92
2.3628
-51.601
9.1266
33.669
-38.154
-16.064
41.297
-31.724
-20.283
72.755
19.816
-50.019
22.313
21.374
-46.14
15
57.205
-28.592
-44.818
47.321
19.83
-51.125
11.745
42.728
-41.928
-10.776
33.752
-36.743
-13.803
50.859
-17.585
-16.386
40.146
-36.076
-33.963
33.075
-32.833
-6.9109
45.292
-39.827
6.134
54.169
19.211
-51.093
-19.053
48.323
25.639
-29.44
-15.342
37.815
-3.2779
-50.428
4.877
38
-36.454
-24.96
37
-27.404
-14.623
27.76
-35.473
20.955
4.8632
-32.87
56.158
-24.17
2.0048
52.647
-37.104
28.735
18.91
-46.617
33.158
5.5467
-27.242
40.77
-4.991
-25.061
23.256
-16.642
-11.723
21.943
-23.049
-24.142
26.764
-12.397
-37.424
21.681
-3.2987
-44.324
30.423
6.2039
-44.12
36.847
0.034152
-53.828
43.591
11.976
-52.922
46.15
20.517
-48.381
51.471
31.19
-51.984
41.147
30.044
-47.985
28.844
28.695
-50.568
13.289
41.791
-40.649
-22.495
50.506
-7.0026
-49.591
31.312
29.785
-47.73
-8.4799
49.46
-17.472
-43.527
41.148
23.509
-54.117
3.5072
40.585
-43.041
-31.756
48.067
-24.881
-44.496
74.599
32.449
-73.815
24.105
25.89
-52.594
26.418
60.599
-42.32
-5.0343
42.952
-38.742
-8.6044
56.204
-17.884
-40.442
43.208
17.534
-51.308
8.2935
39.737
-38.43
-28.53
44.034
-12.275
-44.632
34.644
22.664
-50.783
-1.5447
47.173
-34.563
-46.621
52.407
7.6685
-49.585
36.3
48.794
-44.896
-17.176
45.012
-17.579
-39.937
39.241
39.659
-24.437
-43.335
31.278
28.167
-36.128
-31.201
44.003
40.28
-18.241
56.747
95.302
-164.3
-75.747
-38.444
57.119
-4.4744
-27.626
37.264
12.615
-40.904
29.15
6.6241
-44.426
25.219
-18.275
-12.408
60.512
2.662
-38.927
45.619
16.771
-46.158
24.613
42.778
-37.89
-15.973
52.346
-9.3628
-45.041
38.178
7.2806
-50.882
27.208
26.855
-47.631
4.1185
32.653
-40.139
-0.52965
48.458
-32.779
-27.214
48.66
-4.0292
-12.208
48.183
-23.009
-35.193
43.768
-17.5
-43.031
34.823
22.732
-48.77
-2.8923
51.525
-7.8852
-47.103
29.786
61.505
40.964
175.98
153.39
-21.102
-303.03
-304.67
-139.9
-152.86
97.286
140.15
92.554
108.95
37.921
-98.372
82.579
69.191
-123.24
11.123
55.443
-26.72
31.117
5.8047
-21.777
48.475
12.979
34.675
41.006
-14.771
75.687
13.992
-86.628
-59.065
-36.077
-4.1349
75.537
16.052
-42.48
33.879
1.8321
-118.24
-56.348
94.122
3.9072
-3.7725
37.55
-28.375
-32.324
35.769
-17.156
-18.447
128.74
211.09
-16.582
-177.22
-188.54
-123.7
50.317
57.478
-64.497
17.184
-57.189
-3.1072
55.699
-15.356
195.08
121.95
-150.25
-45.307
14.624
-19.985
31.433
27.442
-53.739
18.728
75.198
-108.68
-151.91
-47.972
6.1431
79.567
170.95
119.32
-22.388
-53.607
-119.33
-12.093
64.652
-10.56
125.55
127.64
-206.66
-95.488
141.57
91.907
-153.61
-73.322
67.089
32.749
-102.94
-85.171
77.952
76.8
-83.342
65.107
-20.278
-154.44
76.306
46.57
-48.037
-44.398
-53.518
-36.75
128.9
86.277
17.441
64.483
33.677
-48.434
26.055
24.89
-60.765
12.019
45.794
62.143
148.91
-36.52
-154.63
-136.44
-4.1774
-56.489
-51.275
30.438
6.8465
-43.719
54.724
53.843
-34.461
45.107
46.42
-26.649
30.996
47.024
-61.811
-25.09
62.518
2.5021
-45.796
35.754
60.472
-9.0422
-2.7328
-1.7383
-15.354
-47.651
-10.362
30.757
-35.521
-38.476
29.387
-21.573
-49.831
37.252
1.7249
-68.33
32.875
42.517
-45.339
37.65
60.97
-42.532
4.2766
44.046
-47.607
-10.517
58.799
-27.976
-7.4478
65.792
-5.8549
-40.622
34.267
16.64
-59.36
-15.53
37.089
-11.54
-17.739
45.692
14.715
-43.492
22.081
16.537
-72.095
-34.589
32.595
-32.395
-20.988
44.914
-10.112
-15.407
53.743
-26.989
-43.09
39.44
-37.984
-8.9978
55.792
-35.444
24.512
46.186
-37.289
31.521
24.327
-43.274
29.734
16.722
-58.666
16.324
22.73
-32.129
31.101
10.809
-54.988
21.146
7.2708
-44.137
43.459
25.849
-58.565
4.3492
32.864
-47.02
8.0233
73.83
-42.675
-22.895
17.45
-41.125
46.263
20.021
-27.586
35.893
8.0138
-50.241
35.674
24.107
-50.596
13.371
39.784
-35.936
-13.894
38.27
-20.912
-31.43
39.737
3.6474
-51.485
16.393
29.705
-51.911
-17.477
48.53
-28.091
-49.282
49.351
4.2931
-68.242
39.717
41.661
-56.224
22.888
57.813
-57.316
2.4479
65.025
-40.828
7.9865
96.142
-50.181
-46.471
57.534
-104.11
-114.82
214.8
205.02
-84.104
-57.754
12.683
-8.9489
-108.88
-34.307
60.471
-22.268
6.3139
86.39
-28.991
-100.3
-28.555
15.174
-60.909
23.748
35.702
8.0007
37.743
-63.228
22.108
-1.8584
-100.23
151.56
-68.842
-105.37
130.99
104.7
29.606
12.243
-69.767
-38.71
57.586
-54.732
-17.8
47.758
-66.072
14.905
-1.4601
-28.506
69.606
17.257
-30.022
-22.708
-51.643
47.305
55.813
1.3048
12.327
-26.21
-63.688
45.369
-6.9871
-31.105
125.18
-28.556
-106.24
104.99
-119.37
-43.256
131.98
9.3829
-44.076
54.314
-28.847
16.52
79.806
27.23
33.848
-28.533
-121.54
62.24
76.744
-131.69
-113.03
-64.631
-35.657
57.87
-16.697
70.034
156.39
22.781
-3.598
-214.32
-271.8
122.21
181.67
42.516
-75.661
-19.575
107.36
44.227
-4.6369
103.25
91.376
38.535
48.719
39.834
-83.555
-177.85
-146.38
-34.274
43.386
-81.336
-26.887
-11.592
-20.577
82.23
129.03
71.709
-93.835
-86.732
-85.591
47.348
113.17
-60.551
44.954
136.37
30.873
45.862
-44.747
-179.49
-72.291
0.37271
-22.494
62.077
-20.946
36.576
144.86
141.66
-97.576
-180.1
14.371
100.74
10.172
-79.15
-7.872
1.492
-33.161
21.688
-122.88
117.94
123.17
-105.53
-38.936
105.47
-106.83
-159.61
1.4124
-0.79962
136.51
80.208
92.153
85.343
-126.7
47.175
-59.45
-85.524
3.6115
-111.64
-36.513
81.146
11.362
20.933
165.92
130.95
116.96
-61.968
-242.42
-171.5
207.32
141.12
-142.86
-83.332
72.325
68.033
-84.672
-69.392
-1.6731
-29.206
8.4719
-26.969
-74.34
35.485
-30.519
-90.615
92.808
16.546
-27.06
163.27
134.62
9.4456
-90.24
-86.633
-60.691
95.04
84.54
-22.726
112.8
21.849
-119.03
77.276
-1.5331
-109.2
-18.082
-9.0616
-44.81
-37.291
27.185
24.822
-95.52
-64.137
23.051
-48.417
-29.636
95.386
-22.355
21.451
103.87
-69.637
15.095
101.72
-14.801
-4.3307
84.757
-35.068
-52.845
50.584
-25.098
-34.218
47.018
-23.817
-40.17
59.418
0.61505
-62.091
42.205
63.393
77.903
-44.068
-66.65
-69.074
-77.913
161.09
34.857
-71.117
102.73
68.091
38.291
-93.529
-127.68
-15.802
-66.903
4.8139
-21.954
-219.9
48.605
247.7
34.771
34.779
118.25
-59.937
-0.084476
-99.1
-21.783
54.997
-115.34
-31.212
-14.031
-131.29
6.5797
-20.079
52.957
34.8
13.142
171.31
144.9
22.499
-109.6
-116.1
33.372
-69.641
-14.681
224.08
-23.058
-4.0523
6.3775
-88.342
-45.822
37.845
-48.409
-109.24
-20.827
-15.574
75.549
189.55
-128.63
-35.855
-22.975
-23.738
156.95
-72.491
24.355
45.864
-49.564
5.7337
-18.345
27.239
6.7203
-21.174
130.16
-75.191
-29.59
39.988
-58.895
18.171
-39.37
22.973
9.7459
-117.32
38.497
-14.978
-72.192
-39.19
-82.367
278.39
172.57
8.3755
-126.12
-194.27
181.14
90.886
-211.56
30.556
36.074
1.3401
101.8
105.12
-23.946
-222.06
-134.03
134.1
147.32
-34.889
43.438
-112.73
-227.67
50.331
48.792
98.347
162.3
91.549
-111.28
-118.75
9.475
62.867
-68.087
-4.9005
54.773
-139.45
53.428
-62.369
-6.0026
167.52
-3.6974
-3.7664
124.94
19.27
-46.825
45.672
-46.718
-95.545
24.266
7.0327
-69.744
6.1892
7.0535
-148.67
2.737
103.71
-26.07
-6.3102
77.253
29.768
-0.10786
-166.87
-256.58
14.424
-26.371
101.25
227.33
22.624
106.41
16.336
-23.928
-38.685
-83.595
93.316
126.04
59.095
167.1
-83.874
-60.574
-10.535
-85.472
-32.61
-45.445
-71.561
-32.664
-86.717
-44.872
74.628
-198.78
-130.51
-24.189
-23.918
190.12
198.41
-2.3459
-73.443
-11.193
75.767
44.066
119.35
44.67
27.066
133.48
-115.43
-48.556
-55.354
22.501
21.534
-44.29
47.227
-35.851
-0.2488
71.527
14.799
-2.6535
2.0736
-89.35
-45.312
-74.846
-75.276
96.992
6.1474
19.56
38.153
29.697
131.23
-94.263
7.0121
44.292
-59.595
26.14
-44.906
29.038
-40.395
-20.527
-158.36
-96.305
110.08
-15.036
138.6
-1.5221
10.611
-14.669
-4.4024
54.184
-42.699
68.742
-28.108
-6.8049
64.878
-96.932
19.294
-35.491
7.5019
39.399
-55.421
-2.0129
-41.711
45.26
144.69
33.775
-42.323
-199.6
-102.64
159.04
-38.149
34.909
40.672
-16.18
-17.542
-67.189
54.893
102.79
8.3106
17.465
-41.667
-71.46
-2.1036
-72.494
16.639
19.594
-41.903
52.092
-48.104
-16.881
0.41419
39.628
2.8101
20.767
76.452
-35.353
-8.6444
64.867
-36.831
23.311
-51.165
-2.7963
41.385
-130.84
17.743
13.643
6.1921
-2.9725
-47.697
44.577
45.177
-9.1428
104.93
78.792
64.421
24.058
-133.82
-200.79
79.877
218.27
145.95
-128.78
-293.05
-6.8591
-55.787
-43.708
50.104
-15.597
42.207
32.589
-24.458
60.394
-83.341
-17.774
138.64
-40.755
-9.297
85.361
1.5871
-17.608
12.232
80.705
-107.1
-79.42
19.312
-40.888
53.649
48.719
82.349
218.81
-166.51
-140.98
-3.1566
-73.835
20.633
-65.521
-60.85
92.971
-12.319
27.664
3.0696
88.582
72.94
-194.99
7.0699
-104.71
31.967
-3.4459
-88.007
64.922
-92.578
42.152
68.799
42.108
189.39
-96.465
72.314
130.39
-77.637
7.3494
-13.494
-23.485
48.339
-38.356
-45.261
82.561
-57.305
-10.569
-8.5282
-38.078
25.975
-52.049
-6.6081
28.774
-44.827
54.307
-31.728
-27.581
-36.387
-65.708
131.83
-60.103
110.28
-20.829
-46.091
72.437
-51.228
-74.578
119.61
1.7897
22.573
33.159
-58.39
18.945
61.053
-38.478
10.458
-63.688
27.545
3.9861
-113.33
26.799
32.701
-64.427
49.996
56.91
-70.445
106.24
-56.674
11.414
-67.742
-133.61
145.88
9.3295
-16.837
52.551
-11.794
21.687
71.819
-12.615
35.974
1.7414
-97.026
-35.627
235.61
-63.663
-198.44
-45.32
-12.029
110.02
-23.586
-42.061
106.14
-81.875
-73.917
-31.469
-4.9609
52.938
47.378
121.92
-10.295
-86.461
56.165
-12.295
-55.596
43.121
-44.983
-13.212
125.84
-30.188
10.277
56.845
-64.719
-103.71
-0.74097
48.553
-55.774
15.506
70.234
56.511
-84.933
-43.539
69.381
-30.529
-28.61
46.724
-6.7516
-53.267
49.051
31.697
25.646
61.527
-132.46
-37.529
44.814
-56.617
29.293
23.154
-3.2014
68.495
15.616
-72.866
2.8775
-15.389
0.22876
2.4489
-60.72
18.531
-15.927
87.422
24.132
-93.615
23.262
32.769
-48.796
50.201
35.09
-61.992
34.184
-10.717
-59.43
50.768
-31.238
-3.68
65.772
-47.212
62.573
30.474
-69.534
29.207
95.489
49.703
-31.29
-156.34
-18.572
160.81
-35.999
-225.23
-112.37
-15.174
-100.56
208.74
281.77
101.92
-49.311
-426.01
-94.292
6.4255
-46.286
155.47
139.72
151
2.4103
-32.984
7.0669
53.561
-32.181
-71.726
195.1
-42.279
-34.089
-23.699
-51.389
46.005
-11.536
20.754
2.4158
-80.928
-9.7192
-43.852
15.87
35.382
-37.082
15.86
-67.815
-29.787
30.374
10.149
71.545
-56.735
28.328
24.983
-23.315
44.733
-82.149
18.167
45.402
26.298
1.6708
-139.86
40.921
78.43
43.135
28.302
-94.517
67.186
-17.008
-67.66
88.415
-92.814
-40.331
77.978
-42.509
9.5404
19.883
-36.896
36.376
4.7664
40.47
14.334
-99.835
-7.3069
50.342
-1.9301
32.77
71.299
-53.835
-25.01
-10.228
-54.279
41.372
26.65
-19.56
28.586
-30.535
-25.116
29.712
-60.747
55.756
52.399
-45.906
-10.467
27.766
-14.422
19.793
-7.8805
-25.592
27.831
-46.592
-4.1874
-25.481
-99.357
133.81
59.239
-54.421
17.459
-79.301
36.271
18.526
8.5805
46.651
-35.614
-2.7939
52.431
-9.825
40.863
-57.06
-13.164
-0.97506
-54.007
-6.6467
157.95
13.488
11.192
-63.829
-112.44
-28.804
207.15
91.391
-85.697
-135.98
131.57
-47.068
-189.31
33.151
-83.593
-1.1584
-58.102
-101.36
131.41
-53.311
52.451
102.47
-4.9394
-12.197
53.681
63.371
-90.676
15.861
67.192
-15.575
54.001
-60.862
72.191
193.63
-225.65
-164.79
17.727
75.898
-52.072
-1.1492
113.15
-7.0892
18.206
5.047
-52.157
65.925
-18.929
-37.844
-14.017
6.3042
21.966
-39.892
80.76
-71.088
-95.082
61.121
58.7
109.33
-48.403
-18.43
12.2
-112.66
-73.994
175.87
317.87
-77.768
-56.001
-35.71
-197.11
44.69
139.29
-9.8765
-147.29
11.627
-134.02
-393.83
-34.343
476.04
72.6
-74.13
80.315
-37.759
-31.666
-185.46
-121.05
110.3
24.412
-17.656
39.512
102.52
163.15
9.0478
-36.415
22.927
-3.0702
4.8989
25.866
-17.405
6.1336
31.019
-7.5445
-14.669
12.397
3.3366
-5.9847
-28.378
7.014
-7.9413
-18.533
33.48
-34.137
-9.3015
26.425
-35.244
13.398
23.708
-54.172
15.24
28.13
-41.302
49.601
-36.479
-31.184
57.114
-50.363
3.7311
8.7244
-25.697
57.585
-48.108
17.576
14.846
-36.379
39.184
-44.055
31.482
-25.707
22.184
-9.6547
-15.251
11.834
-32.309
68.407
-62.387
0.63341
-9.2292
7.6959
54.901
-72.455
58.479
-55.275
50.808
0.45321
-43.098
25.423
-47.574
39.383
-5.3266
-21.026
18.944
-21.617
3.902
5.5685
-8.7596
31.863
-6.1299
13.528
3.8404
-19.711
-2.2668
-2.994
8.1952
7.6963
-12.963
23.693
-4.6545
-14.526
18.251
-1.173
96.723
157.28
42.072
-278.04
-141.19
-3.1784
10.584
-11.932
37.821
5.9726
-12.731
46.86
-25.777
1.0336
36.5
-19.78
35.292
28.044
-35.046
-5.998
33.414
-8.5215
2.1549
32.19
39.946
149.22
22.837
10.492
13.29
-17.03
-104.78
-196.2
-7.756
-68.002
-72.258
259.38
-113.85
-247.35
1.693
-44.768
87.948
74.402
30.187
48.467
-48.635
53.333
74.768
-40.124
70.662
-8.2376
-26.173
-4.2642
-18.398
13.143
4.0365
18.935
2.1521
8.1413
-17.478
46.106
-29.145
6.5393
18.144
-51.793
37.982
-4.4305
-0.40544
46.936
-41.349
-16.417
-9.7718
11.267
-8.7625
-11.825
26.001
-34.622
19.29
8.2788
14.399
57.44
-30.729
-29.946
4.2833
-27.786
32.903
6.5124
6.0928
36.281
77.925
27.823
-14.113
82.997
59.755
-101.3
-80.221
-2.9488
54.852
7.0356
-3.2009
-122.5
-178.98
-5.2027
-164.19
-25.717
-19.641
-46.88
59.304
53.666
34.688
123.15
32.333
26.211
63.238
-22.329
27.564
42.748
-42.241
36.123
9.4724
-43.935
26.521
12.737
-36.26
14.56
22.077
-31.44
-13.826
28.425
-3.3881
-29.944
12.098
21.866
-26.41
-7.7716
21.633
-9.2407
-12.198
16.751
-0.64648
-22.267
7.0542
10.387
-18.325
-5.6016
18.036
-9.8809
-12.59
6.0121
8.1427
-8.7116
-15.622
-8.7173
32.269
5.7162
12.118
15.432
-6.9922
-19.153
8.6837
16.926
-14.932
-17.262
13.204
2.4978
-14.212
3.0273
14.678
-9.3973
-13.613
13.281
2.243
-18.083
3.7842
14.247
-17.867
-6.4305
20.558
-3.8172
-16.329
15.983
16.213
-16.753
-6.4524
12.473
4.7416
-15.058
-1.1595
8.1366
-17.864
-8.4885
26.117
-2.6801
-22.864
13.023
18.888
-3.9123
0.38077
-7.1349
-17.387
1.7383
19.569
-5.0981
-9.7591
9.7721
-3.4326
-3.2538
17.279
-15.938
6.2047
2.6337
10.588
73.77
186.75
180.62
-1.9056
-167.44
-283.52
45.561
-2.6481
-54.619
-64.512
59.832
332.47
118.7
-56.058
-39.937
-59.568
-177.96
-403.68
-470.24
-160.41
66.617
153.9
427.74
236.05
-6.297
14.43
-30.497
-57.859
46.656
-28.038
-78.773
96.377
101.38
28.663
-40.697
-19.842
23.691
-7.7952
5.7622
4.652
-40.445
-32.469
-130.21
-137.74
-112.93
48.982
81.965
-87.861
-51.08
140.65
137.15
35.418
185.2
78.733
18.592
118.13
34.492
-36.548
-49.878
8.9776
25.523
-3.2104
-38.209
-16.87
-30.568
-33.845
-29.922
-11.831
11.673
-76.232
40.637
-11.158
-50.554
-26.174
-54.509
22.283
34.554
1.0714
29.014
38.957
-15.765
42.832
75.498
-63.506
-44.492
12.625
30.246
-6.6206
-2.3252
12.797
-28.86
-25.861
5.8209
17.481
-15.217
-8.6585
15.647
11.638
5.6352
65.313
153.5
24.572
-51.738
-34.901
-39.24
-68.857
1.3312
-84.482
-125.62
66.609
179.31
81.853
-63.69
-244.62
-202.08
177.04
10.741
-67.243
21.427
-19.793
12.215
-39.312
-31.668
93.607
62.728
194.04
126.14
-174.17
-47.682
110.63
49.175
11.405
-160.01
-162.84
5.5434
66.005
-22.72
-33.156
19.475
-4.0028
5.7882
47.779
35.254
54.947
-89.605
-148.75
-63.813
-48.53
-98.777
45.952
149.78
115.91
185.4
176.86
18.681
-106.94
-63.924
-2.8212
13.299
-65.544
-40.546
-99.473
-45.705
20.749
62.395
-37.667
-12.073
19.457
-17.522
11.429
35.559
4.1963
-43.895
69.755
36.962
-28.099
28.454
12.757
-13.441
17.786
9.5081
-16.905
10.787
0.0035945
-12.71
12.29
-4.4244
-24.053
9.7393
6.0673
-21.225
-2.95
18.547
-13.119
-9.2279
15.686
-4.6409
-20.184
5.3659
7.2896
-13.058
13.32
6.3894
-19.993
13.816
3.2329
-16.763
15.725
-3.5401
-10.816
18.665
-6.55
-9.6334
15.932
-6.6904
-10.029
14.279
-3.2995
-10.584
13.096
-1.1419
-12.299
11.611
1.1982
-15.688
4.8176
8.5351
-17.059
-1.8583
10.429
-10.373
-9.4442
16.333
-2.1324
-10.449
14.598
5.2997
-15.835
7.7061
10.047
-10.921
77.771
178.77
46.327
-48.934
-142.51
-113.87
-75.842
48.936
42.74
-50.751
19.768
47.193
-68.959
-87.338
31.625
-15.84
-73.596
13.717
137.73
76.307
22.902
38.244
-21.897
-129.47
-109.75
77.876
19.032
-32.971
86.768
10.22
-0.10993
-49.401
-9.3371
65.466
62.178
74.213
79.233
-120.5
-294.34
-68.035
92.399
50.331
14.369
153.58
116.08
-2.4932
-12.312
-99.12
-95.475
-11.167
21.783
-145.83
-151.66
0.70744
-3.7965
140.77
63.042
-36.136
49.078
66.043
-53.179
-11.385
43.416
48.588
164.6
8.3678
-119.55
-60.49
43.481
47.524
-22.517
78.177
105.67
-31.314
-111.51
-159.2
62.64
-32.073
4.7523
104.28
-50.714
-28.854
54.132
109.48
-85.307
-136.7
-78.76
-106.63
35.674
34.707
-2.7241
83.348
41.919
86.93
78.776
-97.818
-68.472
51.709
32.881
-29.502
45.627
69.607
170.93
-7.4419
54.686
27.197
-242.29
-147.2
-105.84
-3.2521
58.076
78.902
-24.468
-27.036
108.5
131.39
-136.38
-128.43
-17.663
-16.65
35.383
25.237
-17.308
96.823
-26.785
-67.312
-45.746
-28.971
-26.792
-38.647
86.414
25.184
186.8
257.05
-205.75
-159.14
5.8472
-4.9894
-6.1811
94.71
119.8
51.797
-164.56
-99.118
-5.8095
17.331
45.057
-4.7473
73.157
-16.485
-115.07
68.611
93.062
-90.018
-169.04
24.721
-10.879
-4.0646
81.912
142.41
20.228
-87.592
-136.7
-86.575
27.622
-16.861
-17.517
72.511
64.393
0.16789
69.735
82.202
-100.2
-66.415
34.459
28.513
5.0733
102.21
-58.677
-98.557
7.193
6.9463
9.9807
48.915
3.4698
-41.318
16.989
43.166
-10.201
-51.109
-11.966
-33.512
45.406
7.7132
98.383
-45.105
-114.24
-41.24
46.055
84.426
43.051
-43.55
-35.555
-54.539
15.979
114.3
60.065
-108.7
-42.447
17.281
-20.953
32.515
14.103
8.222
31.414
0.30899
19.751
87.962
-129.77
-97.595
