4.01
3.62
3.12
2.57
2.03
1.56
1.16
0.78
0.33
-0.23
-0.93
-1.72
-2.53
-3.32
-4.08
-4.8
-5.47
-6.08
-6.6
-7.03
-7.37
-7.65
-7.87
-8.07
-8.29
-8.56
-8.87
-9.17
-9.29
-9.07
-8.37
-7.13
-5.46
-3.53
-1.56
0.27
1.85
3.11
4.07
4.74
5.2
5.51
5.74
5.93
6.12
6.33
6.55
6.8
7.07
7.35
7.63
7.84
7.95
7.94
7.81
7.59
7.29
6.96
6.59
6.2
5.81
5.46
5.18
4.98
4.84
4.69
4.44
4.05
3.52
2.9
2.26
1.61
0.92
0.17
-0.63
-1.41
-2.06
-2.52
-2.82
-3.06
-3.39
-3.96
-4.79
-5.82
-6.9
-7.88
-8.63
-9.03
-8.99
-8.43
-7.33
-5.73
-3.82
-1.83
-0.02
1.44
2.52
3.29
3.86
4.32
4.69
4.95
5.12
5.21
5.27
5.31
5.34
5.31
5.21
5.01
4.8
4.64
4.64
4.83
5.2
5.64
6.01
6.17
6.04
5.67
5.16
4.66
4.27
3.99
3.71
3.32
2.75
2.02
1.24
0.53
-0.04
-0.48
-0.86
-1.29
-1.8
-2.39
-2.95
-3.38
-3.59
-3.6
-3.53
-3.6
-3.99
-4.83
-6.08
-7.61
-9.17
-10.52
-11.46
-11.83
-11.54
-10.56
-8.93
-6.81
-4.46
-2.14
-0.08
1.56
2.78
3.65
4.27
4.76
5.22
5.69
6.2
6.66
7.02
7.16
7.09
6.83
6.51
6.24
6.11
6.18
6.47
6.95
7.53
8.11
8.52
8.69
8.61
8.38
8.14
7.98
7.9
7.79
7.54
7.09
6.47
5.76
5.06
4.38
3.71
2.98
2.14
1.18
0.11
-1.04
-2.21
-3.31
-4.3
-5.12
-5.84
-6.54
-7.35
-8.33
-9.49
-10.73
-11.99
-13.17
-14.22
-15.05
-15.49
-15.38
-14.56
-13.07
-11.05
-8.8
-6.59
-4.55
-2.7
-0.97
0.7
2.25
3.53
4.44
4.93
5.11
5.17
5.27
5.48
5.76
5.99
6.13
6.17
6.19
6.23
6.29
6.29
6.17
5.89
5.54
5.2
4.98
4.89
4.87
4.84
4.71
4.51
4.28
4.07
3.91
3.75
3.5
3.05
2.36
1.48
0.53
-0.31
-0.91
-1.26
-1.45
-1.62
-1.9
-2.32
-2.83
-3.38
-3.94
-4.54
-5.21
-5.95
-6.74
-7.56
-8.43
-9.38
-10.43
-11.51
-12.45
-13.04
-13.12
-12.66
-11.76
-10.58
-9.26
-7.9
-6.49
-5.02
-3.51
-2.08
-0.86
0.01
0.48
0.66
0.73
0.97
1.59
2.64
4.08
5.72
7.35
8.8
9.92
10.63
10.88
10.66
10.02
9.11
8.18
7.49
7.27
7.66
8.61
9.95
11.44
12.82
13.92
14.67
15.06
15.05
14.57
13.49
11.79
9.58
7.14
4.82
2.93
1.57
0.66
0.04
-0.42
-0.74
-0.83
-0.64
-0.2
0.29
0.59
0.54
0.1
-0.67
-1.71
-3
-4.6
-6.58
-8.88
-11.29
-13.49
-15.11
-15.9
-15.78
-14.83
-13.3
-11.48
-9.68
-8.1
-6.86
-5.97
-5.3
-4.75
-4.21
-3.65
-3.11
-2.6
-2.09
-1.49
-0.69
0.36
1.61
2.91
4.04
4.82
5.18
5.16
4.89
4.51
4.12
3.78
3.52
3.36
3.35
3.46
3.62
3.7
3.59
3.24
2.7
2.14
1.64
1.21
0.79
0.25
-0.46
-1.3
-2.19
-3.04
-3.81
-4.49
-5.07
-5.51
-5.77
-5.86
-5.85
-5.82
-5.87
-6.07
-6.46
-7.07
-7.88
-8.86
-9.84
-10.6
-10.9
-10.6
-9.72
-8.41
-6.92
-5.45
-4.17
-3.15
-2.38
-1.84
-1.49
-1.37
-1.56
-2.19
-3.34
-4.99
-6.96
-8.97
-10.7
-11.99
-12.82
-13.37
-13.88
-14.46
-15.07
-15.48
-15.35
-14.33
-12.06
-8.32
-3.03
3.65
11.32
19.4
27.27
34.54
41.1
47.21
53.26
59.61
66.35
73.2
79.59
84.73
87.87
88.43
86.21
81.34
74.29
65.74
56.41
46.97
38.01
29.93
23.03
17.39
12.95
9.45
6.61
4.16
1.99
0.12
-1.38
-2.51
-3.37
-4.17
-5.05
-5.98
-6.8
-7.21
-6.99
-6.01
-4.4
-2.34
-0.08
2.19
4.41
6.58
8.76
11.01
13.39
15.94
18.66
21.46
24.1
26.25
27.56
27.89
27.5
27.02
27.19
28.51
30.88
33.65
35.78
36.37
35.03
31.91
27.54
22.47
16.97
10.95
4.18
-3.48
-11.97
-20.95
-30.01
-38.75
-46.85
-54.06
-60.2
-65.04
-68.4
-70.13
-70.22
-68.84
-66.3
-62.99
-59.28
-55.43
-51.5
-47.43
-43.14
-38.67
-34.24
-30.18
-26.9
-24.66
-23.54
-23.41
-23.94
-24.73
-25.39
-25.61
-25.2
-24.14
-22.51
-20.43
-18.03
-15.27
-12.02
-8.1
-3.36
2.14
8.14
14.18
19.75
24.37
27.7
29.65
30.28
29.79
28.45
26.5
24.18
21.68
19.15
16.71
14.37
12.11
9.82
7.32
4.47
1.15
-2.61
-6.63
-10.55
-13.97
-16.48
-17.87
-18.15
-17.54
-16.39
-15.01
-13.6
-12.23
-10.89
-9.61
-8.42
-7.41
-6.63
-6.12
-5.86
-5.85
-6.1
-6.61
-7.36
-8.28
-9.21
-9.96
-10.43
-10.53
-10.35
-10.04
-9.77
-9.69
-9.84
-10.16
-10.49
-10.73
-10.79
-10.67
-10.44
-10.16
-9.86
-9.54
-9.19
-8.84
-8.58
-8.51
-8.7
-9.13
-9.68
-10.17
-10.47
-10.52
-10.36
-10.07
-9.71
-9.31
-8.85
-8.3
-7.73
-7.23
-6.91
-6.85
-7.02
-7.31
-7.6
-7.78
-7.85
-7.86
-7.87
-7.93
-8.08
-8.35
-8.78
-9.42
-10.26
-11.22
-12.13
-12.81
-13.14
-13.09
-12.68
-11.97
-10.98
-9.74
-8.26
-6.7
-5.25
-4.16
-3.58
-3.49
-3.76
-4.21
-4.69
-5.17
-5.67
-6.19
-6.68
-6.99
-6.95
-6.46
-5.51
-4.2
-2.73
-1.32
-0.19
0.5
0.7
0.46
-0.04
-0.57
-0.95
-1.14
-1.18
-1.21
-1.36
-1.68
-2.16
-2.8
-3.57
-4.49
-5.47
-6.38
-6.98
-7.03
-6.4
-5.11
-3.35
-1.37
0.61
2.45
4.12
5.63
6.98
8.12
8.92
9.25
9
8.15
6.82
5.27
3.78
2.57
1.73
1.2
0.8
0.38
-0.16
-0.8
-1.47
-2.04
-2.48
-2.81
-3.13
-3.5
-4.01
-4.61
-5.24
-5.78
-6.15
-6.27
-6.13
-5.78
-5.29
-4.78
-4.32
-4.02
-3.95
-4.19
-4.78
-5.72
-6.99
-8.52
-10.28
-12.21
-14.23
-16.15
-17.73
-18.61
-18.5
-17.27
-15.01
-11.98
-8.58
-5.17
-1.97
0.93
3.53
5.82
7.78
9.34
10.48
11.22
11.72
12.12
12.61
13.24
13.98
14.68
15.17
15.32
15.12
14.7
14.29
14.12
14.33
14.92
15.75
16.65
17.41
17.95
18.27
18.52
18.91
19.66
20.84
22.35
23.87
25.06
25.7
25.85
25.9
26.35
27.65
29.87
32.71
35.59
37.88
39.24
39.81
40.19
41.28
43.95
48.65
55.21
62.77
69.82
74.51
74.96
69.81
58.69
42.62
23.98
6.02
-8.04
-15.98
-17.31
-13.3
-6.41
0.59
5.4
6.6
3.67
-3.3
-13.85
-27.25
-42.49
-58.14
-72.41
-83.33
-89.17
-89.04
-83.3
-73.62
-62.64
-53.13
-47.11
-45.33
-47.24
-51.6
-57.1
-62.76
-67.88
-71.76
-73.43
-71.92
-66.78
-58.54
-48.82
-39.88
-33.83
-31.87
-33.91
-38.76
-44.61
-49.69
-52.75
-53.22
-51.21
-47.26
-42.09
-36.43
-30.79
-25.46
-20.56
-16.07
-11.93
-8.07
-4.41
-0.84
2.73
6.35
9.94
13.34
16.31
18.64
20.22
21.16
21.69
22.1
22.6
23.21
23.83
24.27
24.4
24.21
23.78
23.28
22.79
22.35
21.94
21.47
20.85
19.96
18.73
17.13
15.2
13.1
10.98
8.98
7.14
5.39
3.61
1.72
-0.31
-2.41
-4.51
-6.58
-8.62
-10.64
-12.57
-14.18
-15.19
-15.33
-14.49
-12.75
-10.35
-7.63
-4.91
-2.43
-0.36
1.23
2.28
2.85
3.07
3.07
3.01
2.98
3.04
3.26
3.76
4.66
6.04
7.82
9.77
11.57
12.96
13.8
14.13
14.07
13.73
13.15
12.34
11.33
10.22
9.17
8.3
7.7
7.33
7.1
6.9
6.62
6.15
5.37
4.21
2.68
0.93
-0.78
-2.23
-3.36
-4.29
-5.33
-6.75
-8.62
-10.81
-12.94
-14.53
-15.19
-14.66
-12.9
-10.08
-6.53
-2.71
0.93
4.01
6.34
7.95
9.03
9.79
10.43
10.98
11.44
11.77
11.99
12.15
12.35
12.62
12.93
13.17
13.24
13.09
12.8
12.51
12.39
12.48
12.69
12.82
12.64
12.04
11.04
9.84
8.67
7.72
7.04
6.54
6.05
5.39
4.48
3.32
2.01
0.64
-0.75
-2.15
-3.58
-5.02
-6.39
-7.66
-8.84
-10.04
-11.39
-13.01
-14.85
-16.75
-18.39
-19.44
-19.64
-18.85
-17.09
-14.5
-11.31
-7.83
-4.32
-1.05
1.83
4.26
6.28
7.95
9.37
10.58
11.57
12.33
12.82
13.04
13.04
12.92
12.8
12.78
12.9
13.11
13.34
13.54
13.73
13.94
14.23
14.58
14.88
14.99
14.78
14.24
13.48
12.65
11.92
11.31
10.75
10.1
9.25
8.19
7
5.8
4.65
3.49
2.25
0.85
-0.72
-2.35
-3.89
-5.21
-6.31
-7.28
-8.29
-9.56
-11.22
-13.32
-15.71
-18.09
-20
-20.97
-20.64
-18.92
-16.03
-12.42
-8.58
-4.92
-1.64
1.21
3.64
5.7
7.36
8.62
9.56
10.3
10.98
11.66
12.33
12.92
13.34
13.54
13.57
13.47
13.33
13.18
13.03
12.93
12.92
13.03
13.24
13.46
13.56
13.42
13.02
12.41
11.69
10.95
10.25
9.56
8.8
7.91
6.86
5.7
4.54
3.53
2.73
2.15
1.68
1.14
0.39
-0.63
-1.88
-3.26
-4.65
-5.99
-7.26
-8.51
-9.76
-11.04
-12.41
-13.93
-15.56
-17.16
-18.44
-19.04
-18.63
-17.09
-14.51
-11.21
-7.59
-4.03
-0.8
1.98
4.26
6.05
7.42
8.41
9.1
9.53
9.75
9.84
9.9
9.99
10.18
10.42
10.64
10.74
10.66
10.47
10.25
10.15
10.18
10.31
10.37
10.22
9.8
9.14
8.37
7.65
7.06
6.59
6.17
5.71
5.15
4.51
3.83
3.2
2.64
2.17
1.75
1.37
0.99
0.55
0.03
-0.62
-1.41
-2.35
-3.37
-4.37
-5.26
-5.98
-6.52
-6.94
-7.37
-7.94
-8.71
-9.63
-10.53
-11.16
-11.26
-10.68
-9.36
-7.37
-4.83
-1.93
1.14
4.16
6.85
9
10.44
11.16
11.31
11.13
10.85
10.66
10.58
10.56
10.49
10.28
9.92
9.48
9.06
8.78
8.68
8.77
9
9.28
9.51
9.6
9.47
9.1
8.52
7.82
7.09
6.42
5.85
5.35
4.85
4.27
3.52
2.58
1.49
0.36
-0.69
-1.54
-2.15
-2.6
-3
-3.5
-4.16
-4.97
-5.85
-6.73
-7.58
-8.43
-9.36
-10.41
-11.61
-12.95
-14.4
-15.91
-17.35
-18.54
-19.25
-19.23
-18.36
-16.64
-14.25
-11.46
-8.6
-5.91
-3.56
-1.6
-0.05
1.13
1.97
2.54
2.87
3.04
3.1
3.07
2.97
2.8
2.6
2.42
2.34
2.39
2.55
2.65
2.52
2
1.01
-0.42
-2.16
-4.09
-6.11
-8.13
-10.1
-11.94
-13.58
-15
-16.25
-17.48
-18.88
-20.59
-22.63
-24.88
-27.13
-29.19
-30.97
-32.52
-33.96
-35.39
-36.82
-38.08
-38.94
-39.1
-38.37
-36.71
-34.23
-31.19
-27.9
-24.74
-21.99
-19.81
-18.15
-16.73
-15.1
-12.78
-9.43
-5
0.28
5.99
11.65
16.89
21.51
25.48
28.93
32.02
34.98
37.99
41.13
44.36
47.52
50.35
52.63
54.22
55.2
55.74
56.1
56.5
57.03
57.68
58.32
58.77
58.81
58.19
56.73
54.33
51.07
47.2
43.08
39.08
35.44
32.18
29.12
26.01
22.66
19.04
15.28
11.54
7.94
4.48
1.04
-2.5
-6.14
-9.8
-13.26
-16.3
-18.74
-20.51
-21.65
-22.34
-22.8
-23.33
-24.27
-25.92
-28.44
-31.8
-35.72
-39.71
-43.17
-45.54
-46.46
-45.85
-43.93
-41.08
-37.68
-34
-30.18
-26.3
-22.51
-19
-16.01
-13.68
-11.95
-10.69
-9.73
-9.1
-9.04
-9.83
-11.62
-14.19
-16.97
-19.24
-20.42
-20.34
-19.25
-17.66
-16.12
-14.92
-14.13
-13.61
-13.18
-12.72
-12.19
-11.59
-10.91
-10.1
-9.15
-8.06
-6.87
-5.64
-4.43
-3.24
-2.03
-0.77
0.57
1.97
3.34
4.56
5.48
5.99
6.07
5.76
5.13
4.25
3.24
2.24
1.46
1.16
1.54
2.71
4.61
7.04
9.74
12.41
14.75
16.43
17.18
16.83
15.42
13.22
10.64
8.12
5.91
4.09
2.6
1.38
0.42
-0.2
-0.38
-0.06
0.76
2.09
3.96
6.38
9.29
12.5
15.67
18.38
20.32
21.29
21.37
20.75
19.72
18.54
17.38
16.36
15.53
14.92
14.51
14.18
13.73
12.91
11.53
9.55
7.19
4.88
3.09
2.17
2.16
2.78
3.48
3.66
2.89
1.12
-1.3
-3.68
-5.32
-5.64
-4.49
-2.11
0.99
4.14
6.86
8.85
10.07
10.65
10.72
10.36
9.62
8.51
7.11
5.56
4.11
3.11
2.85
3.53
5.11
7.34
9.79
12.03
13.74
14.81
15.3
15.39
15.3
15.17
15.08
15.08
15.15
15.23
15.22
14.99
14.41
13.46
12.23
10.92
9.8
9.05
8.76
8.85
9.1
9.21
8.89
7.95
6.31
4.07
1.37
-1.62
-4.81
-8.12
-11.51
-14.84
-17.92
-20.49
-22.35
-23.31
-23.29
-22.26
-20.27
-17.43
-13.99
-10.31
-6.82
-3.9
-1.77
-0.43
0.3
0.65
0.81
0.91
1.01
1.16
1.41
1.8
2.35
3.01
3.69
4.24
4.51
4.4
3.88
3.09
2.26
1.63
1.37
1.47
1.77
2.03
2.07
1.84
1.43
0.95
0.47
-0.01
-0.55
-1.18
-1.9
-2.66
-3.42
-4.2
-5.02
-5.89
-6.76
-7.53
-8.18
-8.68
-9.12
-9.64
-10.35
-11.34
-12.6
-14.03
-15.4
-16.41
-16.75
-16.17
-14.62
-12.27
-9.49
-6.71
-4.32
-2.48
-1.15
-0.12
0.85
1.9
3.06
4.3
5.55
6.8
8.01
9.1
9.96
10.46
10.55
10.33
9.99
9.8
9.94
10.44
11.2
12.01
12.64
12.89
12.63
11.74
10.2
8.09
5.54
2.79
0.08
-2.36
-4.34
-5.74
-6.52
-6.72
-6.52
-6.15
-5.85
-5.78
-5.98
-6.38
-6.87
-7.37
-7.91
-8.53
-9.32
-10.33
-11.5
-12.76
-13.95
-14.95
-15.6
-15.78
-15.35
-14.22
-12.31
-9.69
-6.51
-3.08
0.27
3.29
5.86
7.97
9.66
10.95
11.81
12.23
12.29
12.2
12.18
12.33
12.55
12.51
11.89
10.54
8.61
6.46
4.52
3.08
2.12
1.49
0.96
0.47
0.12
0.06
0.39
1.05
1.8
2.37
2.62
2.57
2.4
2.3
2.32
2.39
2.37
2.14
1.7
1.16
0.61
0.11
-0.34
-0.79
-1.23
-1.63
-1.95
-2.18
-2.4
-2.75
-3.34
-4.12
-4.94
-5.46
-5.33
-4.32
-2.43
0.09
2.72
4.9
6.19
6.4
5.61
4.19
2.57
1.14
0.1
-0.56
-0.93
-1.01
-0.47
1.37
5.33
12.1
21.92
34.45
48.79
63.71
77.76
89.48
97.46
100.56
98.16
90.43
78.3
63.32
47.2
31.37
16.69
3.55
-7.82
-17.2
-24.18
-28.37
-29.65
-28.38
-25.44
-21.96
-18.9
-16.79
-15.56
-14.68
-13.42
-11.18
-7.67
-3.01
2.35
7.78
12.58
16.16
18.08
18.15
16.36
12.94
8.24
2.74
-3.04
-8.54
-13.27
-16.76
-18.76
-19.22
-18.3
-16.36
-13.84
-11.17
-8.64
-6.43
-4.58
-3.08
-1.89
-0.96
-0.21
0.49
1.23
1.98
2.51
2.41
1.24
-1.31
-5.25
-10.31
-15.99
-21.76
-27.21
-32.13
-36.53
-40.56
-44.36
-48.02
-51.43
-54.4
-56.64
-57.94
-58.17
-57.34
-55.57
-52.99
-49.76
-46.05
-41.98
-37.6
-32.93
-27.93
-22.57
-16.98
-11.43
-6.38
-2.23
0.74
2.57
3.54
3.99
4.19
4.2
3.97
3.39
2.51
1.53
0.79
0.61
1.17
2.45
4.33
6.6
9.09
11.61
13.97
15.99
17.45
18.25
18.35
17.9
17.08
16.1
15.05
13.96
12.77
11.47
10.04
8.54
7
5.49
4.06
2.8
1.77
0.99
0.4
-0.16
-0.84
-1.77
-2.95
-4.29
-5.67
-6.98
-8.18
-9.35
-10.59
-11.99
-13.65
-15.6
-17.81
-20.19
-22.64
-25
-27.19
-29.21
-31.13
-33.05
-35.08
-37.24
-39.49
-41.76
-43.97
-46.04
-47.87
-49.39
-50.56
-51.38
-51.9
-52.19
-52.28
-52.13
-51.62
-50.59
-48.94
-46.65
-43.84
-40.72
-37.55
-34.52
-31.74
-29.2
-26.79
-24.37
-21.8
-19.06
-16.17
-13.22
-10.33
-7.57
-4.98
-2.52
-0.07
2.54
5.49
8.9
12.78
16.98
21.28
25.36
28.91
31.65
33.36
33.95
33.49
32.23
30.52
28.74
27.16
25.85
24.7
23.48
21.96
20.02
17.7
15.11
12.4
9.6
6.7
3.61
0.34
-2.98
-6.13
-8.84
-10.94
-12.37
-13.23
-13.6
-13.56
-13.04
-11.94
-10.21
-7.88
-5.11
-2.1
0.94
3.9
6.71
9.32
11.65
13.58
14.98
15.79
16.02
15.8
15.29
14.64
13.95
13.3
12.75
12.4
12.3
12.48
12.86
13.34
13.75
14.03
14.19
14.32
14.5
14.8
15.19
15.6
15.98
16.32
16.63
16.9
17.08
17.04
16.65
15.81
14.58
13.07
11.47
9.9
8.41
6.95
5.44
3.84
2.16
0.44
-1.28
-2.97
-4.68
-6.44
-8.22
-9.92
-11.28
-12.02
-11.89
-10.78
-8.83
-6.34
-3.73
-1.32
0.69
2.27
3.5
4.48
5.24
5.75
5.98
5.94
5.74
5.5
5.32
5.23
5.16
5.02
4.76
4.35
3.82
3.17
2.39
1.44
0.3
-0.99
-2.37
-3.76
-5.13
-6.49
-7.86
-9.27
-10.68
-12.08
-13.41
-14.6
-15.53
-16.01
-15.85
-14.95
-13.33
-11.18
-8.79
-6.46
-4.43
-2.81
-1.64
-0.85
-0.32
0.08
0.46
0.84
1.16
1.27
1.07
0.57
-0.03
-0.38
-0.22
0.57
1.9
3.58
5.39
7.23
9.11
11.04
12.95
14.69
16.11
17.13
17.79
18.2
18.48
18.69
18.83
18.87
18.89
18.99
19.29
19.82
20.48
21.08
21.43
21.47
21.26
20.93
20.63
20.41
20.23
20.04
19.82
19.6
19.45
19.47
19.65
19.94
20.25
20.51
20.72
20.98
21.36
21.88
22.4
22.66
22.37
21.34
19.58
17.34
14.96
12.76
10.95
9.56
8.58
7.99
7.81
8.07
8.78
9.86
11.13
12.36
13.35
13.94
14.08
13.77
13.06
12.02
10.72
9.26
7.73
6.24
4.94
3.98
3.44
3.31
3.43
3.57
3.39
2.69
1.37
-0.51
-2.75
-5.19
-7.69
-10.17
-12.55
-14.72
-16.53
-17.83
-18.56
-18.76
-18.61
-18.31
-18.05
-17.93
-18.02
-18.33
-18.87
-19.62
-20.49
-21.39
-22.23
-23.03
-23.9
-24.94
-26.23
-27.62
-28.82
-29.47
-29.28
-28.17
-26.3
-23.97
-21.48
-19.06
-16.77
-14.6
-12.53
-10.57
-8.78
-7.2
-5.84
-4.64
-3.52
-2.4
-1.25
-0.1
1.02
2.08
3.07
4.01
4.9
5.73
6.45
6.98
7.31
7.46
7.54
7.65
7.86
8.14
8.38
8.41
8.12
7.44
6.43
5.24
4.03
2.97
2.17
1.62
1.2
0.66
-0.28
-1.86
-4.17
-7.11
-10.39
-13.6
-16.32
-18.26
-19.29
-19.48
-19.05
-18.2
-17.11
-15.83
-14.32
-12.53
-10.44
-8.17
-5.92
-3.94
-2.46
-1.55
-1.17
-1.13
-1.17
-1.06
-0.67
0.06
1.02
2
2.79
3.22
3.17
2.64
1.67
0.3
-1.41
-3.4
-5.55
-7.7
-9.58
-10.98
-11.7
-11.7
-11.1
-10.16
-9.14
-8.29
-7.75
-7.54
-7.65
-8.09
-8.87
-10.06
-11.68
-13.71
-16.04
-18.54
-21.01
-23.21
-24.8
-25.43
-24.79
-22.75
-19.42
-15.18
-10.5
-5.78
-1.1
3.72
9
14.96
21.54
28.34
34.73
40.16
44.33
47.28
49.25
50.55
51.33
51.61
51.34
50.52
49.25
47.72
46.08
44.34
42.44
40.25
37.67
34.73
31.53
28.17
24.73
21.26
17.74
14.17
10.51
6.72
2.71
-1.55
-6.06
-10.73
-15.41
-19.92
-24.15
-28.08
-31.81
-35.45
-39.06
-42.57
-45.81
-48.53
-50.57
-51.9
-52.59
-52.84
-52.82
-52.62
-52.18
-51.35
-49.95
-47.83
-44.94
-41.34
-37.17
-32.67
-28.06
-23.54
-19.22
-15.11
-11.17
-7.34
-3.57
0.11
3.66
7.06
10.32
13.47
16.48
19.19
21.38
22.82
23.46
23.44
23.05
22.57
22.13
21.61
20.71
19.16
16.79
13.67
10.04
6.22
2.51
-0.8
-3.44
-5.15
-5.73
-5.16
-3.59
-1.35
1.2
3.77
6.18
8.37
10.3
11.87
12.89
13.19
12.67
11.39
9.53
7.37
5.17
3.08
1.1
-0.88
-3.04
-5.49
-8.16
-10.84
-13.08
-14.4
-14.4
-12.86
-9.89
-5.88
-1.47
2.69
6.07
8.44
9.9
10.84
11.79
13.17
15.12
17.28
18.89
18.98
16.78
12.03
5.18
-2.71
-10.25
-16.07
-19.25
-19.38
-16.73
-12.09
-6.67
-1.75
1.61
3.03
2.97
2.61
3.45
6.61
12.37
19.98
28.01
34.88
39.43
41.26
40.62
38.13
34.45
30.09
25.43
20.8
16.59
13.22
10.97
9.85
9.56
9.56
9.23
8.08
5.97
3.03
-0.34
-3.69
-6.64
-8.97
-10.64
-11.71
-12.25
-12.28
-11.78
-10.7
-9.03
-6.92
-4.58
-2.26
-0.15
1.66
3.23
4.69
6.14
7.61
9.03
10.27
11.15
11.58
11.55
11.14
10.41
9.45
8.31
7.09
5.94
5.03
4.55
4.6
5.11
5.85
6.56
7.04
7.23
7.23
7.16
7.19
7.34
7.61
7.92
8.25
8.56
8.86
9.14
9.36
9.51
9.62
9.76
10.05
10.55
11.28
12.16
13.02
13.7
14.09
14.14
13.87
13.26
12.3
10.9
9
6.6
3.78
0.74
-2.23
-4.79
-6.65
-7.56
-7.44
-6.35
-4.5
-2.15
0.48
3.23
6.05
8.9
11.78
14.62
17.38
19.98
22.39
24.62
26.68
28.58
30.29
31.72
32.73
33.22
33.25
33.14
33.42
34.67
37.25
41.03
45.34
49.07
51.02
50.18
45.93
38.18
27.34
14.3
0.37
-12.93
-24.22
-32.5
-37.56
-39.99
-41.01
-42.02
-44.14
-47.78
-52.52
-57.24
-60.57
-61.4
-59.31
-54.78
-48.96
-43.29
-38.97
-36.72
-36.71
-38.77
-42.52
-47.45
-52.82
-57.65
-60.91
-61.75
-59.91
-55.77
-50.22
-44.23
-38.41
-32.88
-27.3
-21.23
-14.44
-7.05
0.51
7.66
13.93
19.03
22.8
25.28
26.55
26.83
26.35
25.45
24.37
23.29
22.25
21.16
19.98
18.62
17.12
15.54
13.96
12.47
11.2
10.26
9.75
9.75
10.26
11.21
12.48
13.94
15.43
16.84
18.06
19.03
19.7
20.11
20.31
20.38
20.3
20.01
19.39
18.32
16.74
14.69
12.25
9.48
6.46
3.23
-0.1
-3.39
-6.41
-8.92
-10.77
-11.92
-12.46
-12.57
-12.43
-12.18
-11.85
-11.47
-11.03
-10.55
-10.05
-9.57
-9.12
-8.71
-8.33
-7.92
-7.39
-6.69
-5.79
-4.69
-3.45
-2.15
-0.84
0.46
1.74
2.95
4.05
4.96
5.66
6.2
6.67
7.18
7.73
8.27
8.7
8.89
8.82
8.5
7.99
7.35
6.63
5.87
5.08
4.3
3.51
2.66
1.69
0.56
-0.64
-1.77
-2.61
-3.01
-2.93
-2.46
-1.86
-1.34
-1.09
-1.19
-1.57
-2.13
-2.77
-3.44
-4.17
-5.03
-6.09
-7.37
-8.79
-10.19
-11.39
-12.26
-12.75
-12.95
-13.06
-13.29
-13.87
-14.95
-16.6
-18.77
-21.3
-23.97
-26.48
-28.58
-30.13
-31.15
-31.75
-32.1
-32.37
-32.63
-32.89
-33.07
-33.1
-32.91
-32.44
-31.68
-30.65
-29.38
-27.94
-26.32
-24.46
-22.21
-19.36
-15.77
-11.4
-6.46
-1.29
3.67
8.08
11.75
14.7
17.07
19.05
20.8
22.33
23.63
24.6
25.19
25.41
25.32
25.02
24.57
23.97
23.12
21.92
20.33
18.41
16.36
14.37
12.56
10.89
9.23
7.46
5.58
3.71
2.04
0.69
-0.39
-1.32
-2.27
-3.27
-4.22
-4.96
-5.38
-5.5
-5.46
-5.52
-5.84
-6.53
-7.53
-8.72
-9.97
-11.17
-12.24
-13.07
-13.56
-13.55
-12.94
-11.7
-9.88
-7.61
-5.01
-2.21
0.68
3.5
6.06
8.19
9.77
10.78
11.31
11.51
11.47
11.26
10.92
10.5
10.07
9.71
9.48
9.34
9.22
9.06
8.83
8.62
8.53
8.63
8.87
9.14
9.26
9.11
8.65
7.92
7.05
6.15
5.33
4.61
4
3.41
2.76
1.97
0.97
-0.22
-1.59
-3.07
-4.66
-6.41
-8.44
-10.86
-13.66
-16.7
-19.66
-22.14
-23.76
-24.32
-23.77
-22.29
-20.16
-17.66
-15
-12.33
-9.8
-7.53
-5.67
-4.31
-3.46
-3.03
-2.85
-2.72
-2.47
-1.99
-1.21
-0.14
1.18
2.65
4.13
5.48
6.58
7.43
8.07
8.61
9.07
9.46
9.69
9.67
9.35
8.77
8.03
7.27
6.53
5.79
4.98
4
2.84
1.56
0.3
-0.84
-1.81
-2.68
-3.55
-4.45
-5.33
-6.06
-6.52
-6.67
-6.65
-6.66
-6.88
-7.34
-7.84
-8.04
-7.55
-6.11
-3.6
-0.12
4.11
8.83
13.73
18.5
22.83
26.35
28.76
29.89
29.76
28.61
26.86
25
23.46
22.47
22.01
21.84
21.59
20.95
19.73
17.92
15.57
12.8
9.69
6.29
2.73
-0.82
-4.11
-6.98
-9.32
-11.21
-12.76
-14.1
-15.28
-16.26
-16.99
-17.41
-17.6
-17.69
-17.84
-18.2
-18.8
-19.58
-20.38
-21.01
-21.34
-21.25
-20.72
-19.77
-18.45
-16.86
-15.12
-13.42
-12
-11.07
-10.75
-11.06
-11.9
-13.13
-14.55
-15.97
-17.21
-18.13
-18.58
-18.47
-17.75
-16.39
-14.44
-12.03
-9.33
-6.58
-4.02
-1.82
-0.09
1.2
2.14
2.83
3.34
3.72
3.95
4.06
4.06
3.97
3.81
3.61
3.43
3.37
3.58
4.13
5.02
6.06
6.98
7.48
7.4
6.78
5.87
5.01
4.46
4.33
4.55
4.92
5.25
5.45
5.48
5.37
5.15
4.8
4.27
3.49
2.42
1.08
-0.51
-2.27
-4.12
-5.95
-7.56
-8.76
-9.35
-9.21
-8.37
-6.97
-5.22
-3.4
-1.68
-0.23
0.89
1.65
2.09
2.31
2.51
2.98
4.01
5.8
8.4
11.63
15.19
18.74
22.04
25.01
27.69
30.13
32.31
34.11
35.35
35.9
35.69
34.74
33.17
31.07
28.54
25.65
22.47
19.12
15.7
12.32
9.06
6.03
3.31
0.95
-1.02
-2.66
-4.07
-5.37
-6.66
-7.96
-9.25
-10.55
-11.86
-13.2
-14.53
-15.73
-16.51
-16.53
-15.48
-13.24
-9.93
-5.89
-1.52
2.82
6.95
10.91
14.8
18.75
22.78
26.86
30.9
34.84
38.6
42.12
45.24
47.71
49.28
49.75
49.04
47.21
44.43
40.83
36.5
31.48
25.78
19.48
12.71
5.59
-1.82
-9.46
-17.24
-24.84
-31.73
-37.2
-40.57
-41.52
-40.2
-37.2
-33.35
-29.47
-26.15
-23.67
-22.07
-21.3
-21.26
-21.87
-23.06
-24.67
-26.55
-28.5
-30.4
-32.22
-34.03
-35.88
-37.73
-39.36
-40.41
-40.48
-39.3
-36.87
-33.44
-29.44
-25.27
-21.18
-17.26
-13.49
-9.83
-6.31
-3.05
-0.19
2.19
4.12
5.69
7.02
8.18
9.13
9.78
10.05
9.94
9.55
9.08
8.71
8.57
8.66
8.9
9.18
9.44
9.64
9.79
9.87
9.83
9.58
9.07
8.29
7.33
6.32
5.39
4.61
3.91
3.12
2.02
0.47
-1.52
-3.76
-5.95
-7.85
-9.39
-10.67
-11.91
-13.27
-14.82
-16.49
-18.17
-19.77
-21.21
-22.37
-23.05
-22.98
-21.93
-19.87
-17.05
-13.88
-10.83
-8.19
-6.02
-4.2
-2.57
-1.04
0.37
1.61
2.63
3.43
4.06
4.57
4.97
5.29
5.51
5.59
5.57
5.46
5.34
5.36
5.62
6.2
7.05
8
8.81
9.26
9.23
8.74
7.9
6.9
5.89
4.95
4.08
3.21
2.29
1.31
0.29
-0.69
-1.56
-2.34
-3.11
-4
-5.13
-6.58
-8.32
-10.28
-12.32
-14.26
-15.89
-16.95
-17.19
-16.47
-14.81
-12.39
-9.54
-6.58
-3.79
-1.29
0.94
3.01
4.99
6.92
8.71
10.25
11.41
12.12
12.41
12.43
12.34
12.33
12.51
12.85
13.27
13.59
13.72
13.61
13.31
12.89
12.44
11.99
11.55
11.14
10.72
10.29
9.81
9.21
8.44
7.44
6.23
4.86
3.45
2.1
0.87
-0.26
-1.36
-2.52
-3.77
-5.12
-6.47
-7.73
-8.92
-10.12
-11.52
-13.27
-15.35
-17.54
-19.43
-20.55
-20.55
-19.31
-16.99
-13.97
-10.67
-7.46
-4.53
-1.96
0.29
2.25
3.93
5.34
6.48
7.41
8.19
8.87
9.44
9.83
9.95
9.77
9.39
8.94
8.58
8.37
8.34
8.41
8.53
8.67
8.81
8.88
8.78
8.39
7.63
6.52
5.17
3.73
2.31
0.9
-0.58
-2.24
-4.11
-6.18
-8.35
-10.54
-12.74
-14.98
-17.32
-19.8
-22.41
-25.15
-28.05
-31.17
-34.54
-38.02
-41.33
-44.02
-45.72
-46.22
-45.59
-44.1
-42.11
-39.91
-37.65
-35.37
-33.12
-30.97
-29.05
-27.45
-26.2
-25.19
-24.26
-23.24
-22.08
-20.8
-19.54
-18.39
-17.39
-16.49
-15.58
-14.62
-13.6
-12.64
-11.84
-11.22
-10.67
-9.9
-8.54
-6.19
-2.54
2.51
8.81
15.95
23.34
30.38
36.58
41.7
45.74
48.93
51.67
54.45
57.82
62.2
67.74
74.11
80.56
86.1
89.97
91.93
92.48
92.76
94.08
97.52
103.51
111.74
121.36
131.31
140.66
148.78
155.39
160.29
163.27
164.01
162.15
157.6
150.71
142.26
133.28
124.68
117.02
110.66
105.86
102.96
102.05
102.44
102.23
98.46
88.05
69.1
42.01
9.59
-23.77
-53.72
-77.3
-93.63
-103.55
-108.74
-110.82
-110.89
-109.62
-107.56
-105.32
-103.58
-102.82
-103.08
-103.91
-104.52
-104.1
-102.17
-98.7
-94.13
-89.07
-84.06
-79.39
-75.03
-70.77
-66.35
-61.63
-56.64
-51.57
-46.74
-42.46
-38.99
-36.44
-34.81
-34.06
-34.17
-35.23
-37.36
-40.59
-44.69
-49.1
-53.06
-55.84
-56.96
-56.36
-54.38
-51.54
-48.4
-45.31
-42.41
-39.61
-36.7
-33.41
-29.41
-24.45
-18.4
-11.34
-3.59
4.34
11.84
18.35
23.43
26.85
28.59
28.84
27.91
26.2
24.05
21.68
19.2
16.58
13.79
10.82
7.7
4.42
0.86
-3.12
-7.59
-12.5
-17.65
-22.75
-27.59
-32.04
-36.02
-39.32
-41.6
-42.46
-41.6
-39
-34.96
-29.92
-24.33
-18.5
-12.64
-6.92
-1.62
2.9
6.35
8.66
10.01
10.8
11.47
12.34
13.54
15.06
16.89
19.1
21.79
24.99
28.55
32.07
34.96
36.66
36.8
35.36
32.57
28.85
24.55
19.91
14.97
9.7
4.05
-1.93
-8.09
-14.15
-19.76
-24.68
-28.82
-32.45
-36.1
-40.36
-45.52
-51.22
-56.36
-59.27
-58.28
-52.28
-41.23
-26.25
-9.37
7.04
20.94
31.1
37.51
41.29
44.49
49.49
58.39
72.16
90.19
110.14
128.53
141.78
147.3
144.06
132.41
113.34
87.82
56.52
20.29
-19.33
-59.61
-96.58
-125.4
-141.16
-139.98
-120.29
-83.81
-35.79
15.81
62.27
96.47
114.72
117.14
106.73
87.53
63.12
36.06
8.31
-18.18
-41.25
-59.04
-70.69
-76.81
-79.28
-80.52
-82.53
-86.12
-90.65
-94.48
-95.75
-93.21
-86.68
-77.06
-65.81
-54.26
-43.16
-32.49
-21.77
-10.55
1.28
13.35
24.97
35.48
44.5
52.06
58.42
63.94
68.85
73.23
77.03
80.12
82.4
83.73
83.9
82.55
79.27
73.69
65.63
55.2
42.72
28.73
13.79
-1.58
-16.93
-31.88
-46.11
-59.29
-71.1
-81.3
-89.77
-96.55
-101.92
-106.34
-110.38
-114.48
-118.81
-123.08
-126.58
-128.31
-127.33
-123.05
-115.46
-105.12
-92.9
-79.69
-66.14
-52.64
-39.42
-26.81
-15.32
-5.59
1.92
7.16
10.59
13.06
15.53
18.74
23.02
28.19
33.74
38.99
43.36
46.47
48.22
48.7
48.11
46.68
44.63
42.19
39.67
37.35
35.43
33.84
32.23
30.11
27.07
23.07
18.52
14.12
10.51
8
6.4
5.25
4.02
2.53
0.96
-0.23
-0.57
0.25
2.27
5.39
9.47
14.43
20.25
26.86
34.03
41.44
48.76
55.78
62.47
68.99
75.54
82.26
89.14
96.04
102.77
109.21
115.33
121.1
126.48
131.29
135.26
138.13
139.75
140.07
139.12
137
133.84
129.87
125.49
121.16
117.19
113.39
108.98
102.73
93.33
79.87
62.14
40.62
16.18
-10.19
-37.49
-64.71
-90.64
-113.94
-133.35
-148.11
-158.2
-164.33
-167.62
-169.12
-169.52
-169.03
-167.62
-165.31
-162.34
-159.17
-156.29
-153.99
-152.24
-150.71
-148.97
-146.61
-143.41
-139.31
-134.44
-128.99
-123.12
-116.87
-110.16
-102.83
-94.72
-85.76
-76.04
-65.74
-55.08
-44.28
-33.49
-22.89
-12.7
-3.23
5.13
12.08
17.43
21.28
24.01
26.21
28.54
31.61
35.69
40.67
46.08
51.26
55.61
58.84
60.93
62.03
62.27
61.64
59.99
57.21
53.28
48.36
42.65
36.3
29.35
21.82
13.76
5.35
-3.13
-11.42
-19.26
-26.49
-33.02
-38.81
-43.81
-47.94
-51
-52.61
-52.27
-49.48
-44.05
-36.24
-26.82
-16.83
-7.24
1.44
9.22
16.48
23.71
31.2
39.04
47.16
55.42
63.81
72.36
81.11
89.95
98.57
106.33
112.23
115.1
113.84
107.88
97.45
83.67
68.31
53.26
40.02
29.39
21.38
15.43
10.54
5.57
-0.57
-8.64
-18.71
-30
-40.92
-49.54
-54.09
-53.5
-47.6
-37.17
-23.64
-8.81
5.54
18.01
27.81
34.87
39.66
42.85
45
46.38
47.15
47.46
47.67
48.11
48.9
49.67
49.7
48.3
45.25
41.05
36.64
32.99
30.6
29.25
28.17
26.39
23.31
18.86
13.47
7.85
2.58
-2.02
-5.9
-9.19
-12.04
-14.57
-16.93
-19.35
-22.11
-25.46
-29.46
-33.93
-38.48
-42.69
-46.25
-49.01
-50.94
-52.05
-52.33
-51.75
-50.4
-48.48
-46.28
-44.09
-42.07
-40.22
-38.43
-36.6
-34.7
-32.83
-31.09
-29.44
-27.69
-25.51
-22.62
-18.95
-14.72
-10.36
-6.33
-2.93
-0.22
1.95
3.8
5.51
7.08
8.41
9.36
9.85
9.93
9.71
9.31
8.77
8.03
7.04
5.77
4.39
3.12
2.21
1.73
1.57
1.45
1.14
0.53
-0.24
-0.95
-1.38
-1.42
-1.16
-0.8
-0.49
-0.31
-0.22
-0.14
-0.03
0.08
0.07
-0.17
-0.72
-1.52
-2.45
-3.32
-3.99
-4.43
-4.66
-4.76
-4.74
-4.58
-4.24
-3.71
-3.13
-2.67
-2.56
-2.93
-3.76
-4.89
-6.08
-7.15
-8.01
-8.68
-9.22
-9.69
-10.09
-10.41
-10.7
-11.04
-11.54
-12.22
-13.01
-13.77
-14.31
-14.58
-14.62
-14.61
-14.7
-15.02
-15.57
-16.23
-16.88
-17.35
-17.55
-17.44
-17.11
-16.68
-16.29
-15.99
-15.76
-15.47
-14.98
-14.26
-13.36
-12.39
-11.45
-10.5
-9.48
-8.31
-7
-5.65
-4.42
-3.41
-2.63
-2.02
-1.54
-1.19
-1.04
-1.1
-1.31
-1.56
-1.69
-1.61
-1.36
-1.07
-0.89
-0.93
-1.2
-1.64
-2.14
-2.62
-2.98
-3.2
-3.29
-3.32
-3.41
-3.67
-4.17
-4.9
-5.75
-6.57
-7.17
-7.4
-7.19
-6.59
-5.67
-4.59
-3.47
-2.44
-1.54
-0.8
-0.18
0.35
0.81
1.25
1.71
2.22
2.84
3.56
4.34
5.08
5.68
6.07
6.22
6.17
6
5.8
5.63
5.53
5.52
5.57
5.6
5.49
5.16
4.58
3.8
2.96
2.18
1.57
1.13
0.75
0.31
-0.29
-1.1
-2.07
-3.13
-4.18
-5.11
-5.81
-6.14
-6.02
-5.4
-4.32
-2.94
-1.44
-0.03
1.16
2.01
2.54
2.78
2.82
2.78
2.73
2.7
2.66
2.53
2.22
1.69
0.98
0.12
-0.81
-1.73
-2.6
-3.39
-4.1
-4.76
-5.46
-6.29
-7.31
-8.49
-9.7
-10.81
-11.78
-12.73
-13.91
-15.65
-18.11
-21.23
-24.72
-28.18
-31.31
-34.05
-36.65
-39.5
-42.97
-47.12
-51.76
-56.43
-60.74
-64.57
-68.15
-72.05
-77.01
-83.67
-92.38
-103.13
-115.41
-128.21
-140.07
-149.27
-154.26
-154.18
-149.4
-141.56
-133.15
-126.56
-123.09
-122.42
-122.79
-121.83
-117.48
-108.54
-94.52
-75.32
-50.85
-21.27
12.59
48.77
84.29
115.62
139.58
153.93
157.81
151.72
137.46
117.85
96.15
75.44
57.87
44.19
33.86
25.68
18.6
12.32
7.36
4.63
4.79
7.85
13.07
19.19
24.74
28.55
29.93
28.97
26.44
23.72
22.32
23.45
27.66
34.66
43.48
52.75
61.28
68.32
73.81
78.28
82.78
88.78
97.86
111.35
129.6
151.42
173.88
192.83
204.12
204.95
194.87
175.72
150.86
123.89
97.72
74.16
54.06
37.72
25.12
15.92
9.4
4.48
-0.04
-5.01
-10.68
-16.67
-22.19
-26.42
-28.92
-29.74
-29.42
-28.66
-28.06
-27.89
-28.08
-28.27
-28.09
-27.3
-25.85
-23.94
-21.84
-19.81
-18.1
-16.84
-16.1
-15.91
-16.21
-16.82
-17.57
-18.24
-18.75
-19.17
-19.73
-20.78
-22.54
-25.1
-28.23
-31.45
-34.09
-35.42
-34.83
-31.96
-26.84
-19.87
-11.72
-3.13
5.26
13.03
19.97
26.02
31.23
35.63
39.22
41.96
43.78
44.62
44.46
43.42
41.73
39.73
37.74
35.99
34.56
33.38
32.33
31.3
30.25
29.08
27.65
25.74
23.17
19.85
15.92
11.67
7.46
3.53
-0.04
-3.37
-6.67
-10.13
-13.88
-17.93
-22.28
-26.9
-31.63
-36.19
-40.05
-42.53
-42.96
-40.94
-36.51
-30.18
-22.8
-15.31
-8.42
-2.5
2.47
6.77
10.71
14.46
17.93
20.87
23
24.19
24.5
24.12
23.29
22.15
20.76
19.15
17.45
15.82
14.45
13.44
12.72
12.11
11.4
10.45
9.2
7.7
6.03
4.28
2.48
0.62
-1.37
-3.62
-6.21
-9.16
-12.36
-15.6
-18.64
-21.31
-23.6
-25.58
-27.41
-29.27
-31.34
-33.79
-36.79
-40.37
-44.36
-48.26
-51.34
-52.82
-52.08
-48.9
-43.52
-36.53
-28.67
-20.58
-12.71
-5.24
1.8
8.43
14.61
20.24
25.21
29.42
32.85
35.53
37.5
38.78
39.36
39.2
38.34
36.91
35.13
33.28
31.61
30.21
29.08
28.08
27.04
25.83
24.4
22.76
21.01
19.23
17.53
15.97
14.53
13.18
11.85
10.5
9.19
8.05
7.24
6.89
6.94
7.18
7.29
7.01
6.2
4.94
3.48
2.11
1.03
0.28
-0.32
-1.09
-2.38
-4.45
-7.3
-10.66
-13.96
-16.52
-17.71
-17.14
-14.78
-10.95
-6.21
-1.12
3.85
8.48
12.69
16.49
19.83
22.62
24.67
25.82
25.99
25.21
23.68
21.7
19.61
17.74
16.32
15.48
15.18
15.35
15.83
16.45
17.03
17.4
17.41
16.99
16.19
15.11
13.9
12.69
11.57
10.52
9.54
8.55
7.48
6.19
4.51
2.32
-0.41
-3.48
-6.62
-9.51
-12
-14.15
-16.2
-18.47
-21.21
-24.47
-28.14
-31.92
-35.42
-38.21
-39.87
-40.03
-38.49
-35.24
-30.53
-24.82
-18.64
-12.51
-6.84
-1.85
2.44
6.12
9.35
12.23
14.77
16.9
18.49
19.4
19.61
19.2
18.35
17.33
16.42
15.9
15.94
16.55
17.53
18.49
18.9
18.3
16.51
13.74
10.7
8.38
7.81
9.71
14.16
20.54
27.69
34.36
39.6
43.13
45.34
47.06
49.11
52.04
55.94
60.55
65.44
70.2
74.45
77.9
80.33
81.58
81.52
80.07
77.18
72.77
66.8
59.39
50.87
41.82
33.03
25.27
19.09
14.62
11.53
9.07
6.18
1.63
-5.69
-16.51
-30.96
-48.36
-67.4
-86.38
-103.58
-117.63
-127.58
-132.95
-133.62
-129.87
-122.35
-112.11
-100.5
-88.88
-78.25
-69.07
-61.22
-54.28
-47.8
-41.58
-35.65
-30.2
-25.39
-21.25
-17.69
-14.54
-11.69
-9.1
-6.81
-4.9
-3.41
-2.33
-1.56
-0.97
-0.42
0.16
0.74
1.2
1.4
1.24
0.75
0.02
-0.8
-1.57
-2.26
-2.93
-3.73
-4.86
-6.47
-8.65
-11.39
-14.51
-17.65
-20.31
-21.92
-21.99
-20.32
-16.99
-12.44
-7.29
-2.2
2.34
6.04
8.85
10.92
12.47
13.77
15.03
16.34
17.68
18.92
19.87
20.37
20.38
19.95
19.28
18.58
18.04
17.76
17.72
17.82
17.92
17.92
17.81
17.6
17.33
16.97
16.43
15.64
14.56
13.31
12.05
10.97
10.1
9.34
8.48
7.32
5.77
3.91
1.98
0.21
-1.24
-2.39
-3.4
-4.5
-5.83
-7.41
-9.12
-10.78
-12.3
-13.68
-15.07
-16.57
-18.28
-20.21
-22.34
-24.71
-27.29
-29.97
-32.43
-34.1
-34.36
-32.77
-29.26
-24.22
-18.37
-12.49
-7.17
-2.72
0.9
3.87
6.4
8.59
10.42
11.77
12.53
12.65
12.2
11.35
10.29
9.21
8.23
7.45
6.97
6.89
7.27
8.1
9.23
10.44
11.5
12.22
12.58
12.65
12.6
12.56
12.66
12.92
13.34
13.85
14.39
14.82
15.04
14.92
14.44
13.65
12.7
11.79
11.14
10.86
10.91
11.13
11.3
11.2
10.79
10.17
9.56
9.24
9.39
10.07
11.2
12.57
14
15.32
16.54
17.87
19.72
22.64
27.17
33.62
42.01
52.05
63.24
75.14
87.43
99.89
112.32
124.41
135.72
145.8
154.39
161.58
167.85
173.94
180.64
188.46
197.33
206.23
213.14
215.25
209.54
193.6
166.43
128.94
83.95
35.65
-11.28
-52.63
-85.43
-108.39
-121.89
-127.56
-127.68
-124.62
-120.33
-116.19
-113.05
-111.37
-111.27
-112.6
-114.85
-117.27
-119.01
-119.37
-118.03
-115.08
-110.95
-106.22
-101.44
-97.03
-93.27
-90.3
-88.15
-86.81
-86.22
-86.26
-86.8
-87.63
-88.51
-89.12
-89.08
-87.96
-85.48
-81.49
-76.11
-69.61
-62.35
-54.65
-46.74
-38.8
-31.02
-23.66
-17.04
-11.47
-7.11
-3.97
-1.89
-0.62
0.07
0.36
0.36
0.15
-0.22
-0.7
-1.24
-1.84
-2.51
-3.29
-4.2
-5.22
-6.28
-7.27
-8.12
-8.76
-9.23
-9.56
-9.83
-10.08
-10.4
-10.85
-11.51
-12.35
-13.27
-14.09
-14.57
-14.57
-14.1
-13.33
-12.57
-12.07
-11.99
-12.33
-12.99
-13.79
-14.59
-15.29
-15.88
-16.35
-16.68
-16.9
-17.08
-17.34
-17.79
-18.48
-19.28
-19.87
-19.86
-18.94
-17.02
-14.28
-11.13
-7.97
-5.12
-2.73
-0.8
0.71
1.81
2.48
2.7
2.55
2.15
1.72
1.41
1.34
1.49
1.8
2.15
2.44
2.59
2.58
2.41
2.14
1.83
1.58
1.44
1.46
1.57
1.67
1.64
1.37
0.84
0.1
-0.78
-1.67
-2.51
-3.28
-3.98
-4.67
-5.4
-6.2
-7.06
-7.93
-8.72
-9.41
-9.97
-10.45
-10.96
-11.61
-12.48
-13.58
-14.87
-16.2
-17.39
-18.14
-18.18
-17.27
-15.34
-12.51
-9.12
-5.61
-2.42
0.15
1.95
3.05
3.62
3.91
4.17
4.55
5.13
5.83
6.49
6.96
7.14
7.05
6.76
6.38
6.02
5.75
5.58
5.53
5.62
5.82
6.08
6.31
6.45
6.48
6.44
6.39
6.34
6.22
5.92
5.34
4.5
3.5
2.5
1.61
0.83
0.09
-0.73
-1.66
-2.68
-3.67
-4.57
-5.3
-5.88
-6.31
-6.62
-6.85
-7.09
-7.48
-8.15
-9.14
-10.3
-11.35
-11.92
-11.68
-10.48
-8.34
-5.52
-2.36
0.75
3.5
5.7
7.3
8.39
9.17
9.78
10.3
10.67
10.78
10.51
9.85
8.99
8.16
7.58
7.32
7.3
7.3
7.15
6.79
6.28
5.72
5.16
4.56
3.8
2.75
1.42
-0.08
-1.54
-2.72
-3.49
-3.84
-3.87
-3.72
-3.53
-3.38
-3.31
-3.33
-3.46
-3.69
-4.01
-4.4
-4.8
-5.16
-5.44
-5.64
-5.81
-6.01
-6.32
-6.8
-7.49
-8.44
-9.67
-11.14
-12.7
-14.15
-15.22
-15.67
-15.29
-14.02
-11.88
-9.04
-5.77
-2.37
0.84
3.59
5.74
7.26
8.21
8.75
9.03
9.19
9.3
9.42
9.52
9.58
9.58
9.5
9.33
9.09
8.82
8.57
8.4
8.36
8.5
8.79
9.17
9.52
9.74
9.78
9.61
9.29
8.88
8.43
7.94
7.41
6.8
6.1
5.35
4.6
3.93
3.35
2.84
2.32
1.68
0.83
-0.26
-1.5
-2.77
-3.93
-4.88
-5.64
-6.23
-6.75
-7.29
-7.93
-8.72
-9.66
-10.62
-11.41
-11.7
-11.2
-9.76
-7.41
-4.44
-1.24
1.82
4.47
6.61
8.26
9.52
10.46
11.18
11.73
12.13
12.34
12.25
11.76
10.81
9.51
8.07
6.75
5.76
5.14
4.79
4.57
4.38
4.15
3.93
3.72
3.53
3.3
3
2.63
2.25
1.92
1.69
1.55
1.4
1.15
0.74
0.18
-0.41
-0.88
-1.13
-1.21
-1.29
-1.63
-2.36
-3.42
-4.58
-5.57
-6.22
-6.64
-7.09
-7.89
-9.23
-11.09
-13.24
-15.39
-17.22
-18.49
-18.98
-18.51
-16.96
-14.35
-10.88
-6.94
-2.97
0.65
3.74
6.32
8.53
10.54
12.42
14.17
15.7
16.9
17.69
18.01
17.84
17.21
16.19
14.87
13.39
11.87
10.38
8.97
7.66
6.4
5.19
4.02
2.94
1.95
1.06
0.22
-0.66
-1.65
-2.79
-4.08
-5.46
-6.83
-8.17
-9.42
-10.57
-11.6
-12.51
-13.34
-14.21
-15.3
-16.74
-18.61
-20.84
-23.25
-25.64
-27.88
-29.95
-31.98
-34.18
-36.71
-39.67
-43
-46.51
-49.9
-52.84
-55
-56.11
-56.05
-54.83
-52.56
-49.48
-45.83
-41.86
-37.82
-33.97
-30.54
-27.79
-25.86
-24.77
-24.29
-23.94
-23
-20.67
-16.25
-9.33
0.03
11.28
23.52
35.66
46.64
55.59
61.92
65.31
65.76
63.55
59.28
53.82
48.15
43.14
39.35
36.94
35.71
35.26
35.2
35.26
35.32
35.36
35.37
35.21
34.66
33.46
31.45
28.67
25.37
22.02
19.1
17
15.87
15.56
15.69
15.79
15.5
14.72
13.71
13.05
13.42
15.38
19.2
24.7
31.37
38.51
45.46
51.77
57.19
61.64
65.12
67.51
68.65
68.26
66.13
62.22
56.7
50.07
42.99
36.17
30.13
25.07
20.71
16.45
11.55
5.4
-2.12
-10.59
-19.12
-26.61
-32.12
-35.16
-35.82
-34.62
-32.24
-29.29
-26.09
-22.75
-19.3
-15.84
-12.57
-9.73
-7.49
-5.9
-4.86
-4.21
-3.83
-3.69
-3.8
-4.23
-5.06
-6.34
-8.09
-10.25
-12.69
-15.2
-17.55
-19.57
-21.23
-22.64
-23.98
-25.44
-27.16
-29.1
-31.08
-32.79
-33.87
-34.08
-33.4
-32.08
-30.54
-29.18
-28.14
-27.25
-26.08
-24.24
-21.56
-18.23
-14.63
-11.14
-7.87
-4.71
-1.46
1.91
5.17
7.87
9.54
9.97
9.32
8.1
6.99
6.53
7.03
8.39
10.32
12.39
14.27
15.74
16.7
17.09
16.79
15.64
13.53
10.48
6.74
2.81
-0.73
-3.36
-4.76
-4.96
-4.2
-2.88
-1.42
-0.19
0.53
0.44
-0.74
-3.23
-7.02
-11.8
-16.85
-21.27
-24.21
-25.17
-24.15
-21.56
-18.03
-14.19
-10.54
-7.41
-4.95
-3.25
-2.27
-1.88
-1.83
-1.83
-1.66
-1.26
-0.67
-0.02
0.59
1.18
1.87
2.84
4.23
6.11
8.39
10.91
13.42
15.64
17.41
18.63
19.32
19.55
19.34
18.66
17.4
15.45
12.77
9.39
5.52
1.45
-2.45
-5.82
-8.37
-9.93
-10.51
-10.19
-9.24
-7.89
-6.39
-4.95
-3.68
-2.66
-1.87
-1.22
-0.54
0.4
1.8
3.83
6.52
9.78
13.35
16.87
19.91
22.14
23.33
23.48
22.75
21.37
19.57
17.47
15.13
12.58
9.87
7.07
4.23
1.37
-1.54
-4.46
-7.23
-9.55
-11.03
-11.4
-10.56
-8.76
-6.48
-4.3
-2.66
-1.72
-1.28
-0.84
0.18
2.16
5.13
8.63
11.86
13.94
14.24
12.58
9.27
4.99
0.46
-3.8
-7.72
-11.62
-16.08
-21.54
-27.97
-34.62
-40.12
-42.89
-41.75
-36.61
-28.71
-20.52
-15.05
-14.99
-21.78
-35.13
-52.9
-71.68
-87.61
-97.43
-99.34
-93.44
-81.61
-66.88
-52.49
-41.04
-33.97
-31.37
-32.34
-35.37
-38.81
-41.21
-41.48
-39.03
-33.81
-26.28
-17.31
-7.93
0.84
8.35
14.37
19.17
23.32
27.45
31.99
37
42.1
46.69
50.24
52.49
53.6
54.08
54.52
55.37
56.79
58.64
60.65
62.59
64.37
65.97
67.33
68.32
68.76
68.55
67.74
66.56
65.34
64.39
63.88
63.77
63.9
64.03
63.96
63.61
63.02
62.33
61.72
61.28
60.91
60.32
59.16
57.14
54.21
50.61
46.73
42.97
39.61
36.76
34.38
32.35
30.42
28.21
25.25
21.05
15.43
8.63
1.43
-5.16
-10.27
-13.5
-15.1
-15.74
-16.16
-16.89
-18.06
-19.6
-21.37
-23.35
-25.58
-28
-30.27
-31.84
-32.05
-30.38
-26.74
-21.43
-15.23
-9.26
-4.83
-3.26
-5.57
-12.35
-23.55
-38.55
-56.32
-75.65
-95.33
-114.17
-130.95
-144.44
-153.59
-157.72
-156.72
-151.07
-141.63
-129.45
-115.51
-100.72
-85.86
-71.61
-58.39
-46.23
-34.78
-23.42
-11.6
0.79
13.2
24.6
33.74
39.66
42.02
41.15
37.92
33.39
28.56
24.18
20.68
18.25
16.85
16.29
16.22
16.24
15.98
15.22
13.94
12.39
10.93
9.93
9.64
10.11
11.22
12.72
14.28
15.57
16.29
16.21
15.15
13.11
10.19
6.66
2.82
-1
-4.53
-7.61
-10.11
-11.94
-13.04
-13.49
-13.49
-13.35
-13.38
-13.7
-14.21
-14.6
-14.48
-13.58
-11.81
-9.28
-6.24
-2.92
0.43
3.61
6.45
8.85
10.81
12.37
13.63
14.62
15.31
15.62
15.49
14.94
14.08
13.05
11.98
10.91
9.88
8.91
8.05
7.37
6.87
6.5
6.1
5.54
4.74
3.74
2.61
1.4
0.12
-1.28
-2.88
-4.78
-7.06
-9.77
-12.87
-16.2
-19.38
-21.92
-23.31
-23.2
-21.56
-18.66
-15
-11.14
-7.53
-4.43
-1.94
-0.04
1.38
2.48
3.42
4.36
5.39
6.53
7.68
8.72
9.54
10.1
10.45
10.63
10.68
10.6
10.36
9.97
9.47
8.89
8.26
7.52
6.61
5.47
4.12
2.68
1.35
0.31
-0.34
-0.63
-0.69
-0.73
-1.01
-1.72
-3.02
-4.89
-7.16
-9.48
-11.38
-12.39
-12.15
-10.48
-7.48
-3.43
1.21
5.97
10.43
14.3
17.48
19.98
21.92
23.4
24.47
25.12
25.33
25.04
24.29
23.11
21.61
19.86
17.94
15.89
13.76
11.62
9.55
7.65
6.01
4.68
3.64
2.79
1.97
1.03
-0.12
-1.43
-2.76
-3.9
-4.65
-4.97
-5.01
-5.03
-5.39
-6.34
-7.96
-10.12
-12.48
-14.55
-15.86
-16.01
-14.83
-12.41
-9.06
-5.25
-1.48
1.88
4.61
6.64
8.06
8.99
9.61
10.1
10.57
11.08
11.58
11.95
12.06
11.82
11.24
10.43
9.56
8.76
8.1
7.51
6.81
5.77
4.22
2.11
-0.44
-3.22
-6.05
-8.84
-11.68
-14.78
-18.3
-22.3
-26.68
-31.26
-35.91
-40.67
-45.73
-51.39
-57.89
-65.27
-73.24
-81.29
-88.71
-94.9
-99.55
-102.96
-106.03
-110.11
-116.61
-126.38
-139.19
-153.37
-165.86
-172.71
-169.96
-154.65
-125.81
-84.97
-36.01
15.72
64.68
106.5
138.9
161.71
176.48
185.42
190.68
193.81
195.75
197
197.71
197.6
195.7
190.37
179.7
162.3
138.17
109.09
78.3
49.56
25.88
8.71
-2.22
-8.36
-11.51
-13.02
-13.59
-13.42
-12.63
-11.64
-11.21
-12.27
-15.6
-21.51
-29.7
-39.26
-48.92
-57.33
-63.38
-66.37
-66.03
-62.44
-55.83
-46.55
-35
-21.72
-7.43
6.97
20.47
32.07
40.92
46.48
48.61
47.62
44.28
39.62
34.77
30.61
27.63
25.83
24.89
24.39
24.01
23.68
23.47
23.49
23.78
24.26
24.82
25.36
25.86
26.29
26.64
26.83
26.79
26.49
25.97
25.24
24.3
23.09
21.63
20.01
18.53
17.51
17.22
17.71
18.84
20.41
22.3
24.64
27.84
32.56
39.53
49.34
62.22
77.77
94.86
111.79
126.58
137.51
143.47
144.19
140
131.54
119.34
103.61
84.3
61.34
34.89
5.69
-24.9
-54.95
-82.24
-104.69
-120.72
-129.59
-131.49
-127.57
-119.64
-109.86
-100.24
-92.27
-86.47
-82.45
-79.14
-75.35
-70.32
-64.05
-57.23
-50.84
-45.72
-42.24
-40.31
-39.6
-39.75
-40.47
-41.52
-42.58
-43.25
-43.06
-41.72
-39.16
-35.66
-31.65
-27.59
-23.7
-19.96
-16.04
-11.61
-6.42
-0.51
5.81
12.08
17.83
22.76
26.75
29.89
32.34
34.18
35.42
35.98
35.71
34.62
32.85
30.78
28.85
27.44
26.73
26.65
26.97
27.43
27.93
28.52
29.32
30.42
31.71
32.89
33.55
33.37
32.22
30.22
27.64
24.84
22.09
19.56
17.25
15.08
12.89
10.56
8.05
5.39
2.68
0.01
-2.59
-5.3
-8.44
-12.41
-17.59
-24.19
-32.07
-40.81
-49.76
-58.26
-65.82
-72.28
-77.89
-83.22
-89
-95.77
-103.63
-111.91
-119.11
-123.15
-121.86
-113.7
-98.4
-77.22
-52.67
-27.78
-5.31
12.97
26.42
35.29
40.33
42.34
42.01
39.92
36.55
32.23
27.13
21.14
14
5.56
-3.94
-13.68
-22.4
-28.67
-31.32
-29.8
-24.36
-16
-6.23
3.16
10.56
14.78
15.37
12.58
7.29
0.75
-5.82
-11.39
-15.32
-17.31
-17.38
-15.72
-12.71
-8.86
-4.73
-0.79
2.62
5.42
7.69
9.59
11.16
12.34
12.89
12.61
11.35
9.2
6.42
3.42
0.61
-1.73
-3.52
-4.84
-5.87
-6.81
-7.75
-8.67
-9.39
-9.71
-9.44
-8.44
-6.71
-4.31
-1.45
1.58
4.42
6.7
8.11
8.52
7.97
6.73
5.19
3.72
2.58
1.87
1.49
1.3
1.2
1.17
1.33
1.79
2.63
3.82
5.22
6.64
7.94
9
9.73
10.01
9.65
8.46
6.39
3.66
0.78
-1.56
-2.78
-2.66
-1.41
0.42
2.27
3.81
4.99
6.01
7.02
8.01
8.85
9.43
9.88
10.57
11.96
14.33
17.64
21.47
25.21
28.34
30.56
31.88
32.52
32.79
32.9
32.84
32.32
30.73
27.36
21.68
13.72
4.28
-5.28
-13.48
-19.28
-22.5
-23.73
-23.88
-23.59
-22.94
-21.58
-19.23
-16.07
-12.94
-11
-11.2
-13.8
-18.34
-23.88
-29.47
-34.43
-38.46
-41.39
-42.97
-42.87
-40.78
-36.69
-31.01
-24.48
-17.96
-12.1
-7.2
-3.16
0.33
3.59
6.8
9.93
12.78
15.13
16.82
17.83
18.31
18.5
18.64
18.92
19.4
20.05
20.75
21.28
21.34
20.6
18.79
15.79
11.77
7.13
2.44
-1.77
-5.14
-7.52
-8.92
-9.44
-9.13
-8.01
-6.14
-3.65
-0.78
2.18
4.9
7.16
8.86
10.01
10.71
11.13
11.51
12.07
13.03
14.47
16.36
18.5
20.61
22.36
23.47
23.76
23.14
21.63
19.42
16.8
14.2
12.07
10.83
10.68
11.57
13.23
15.29
17.35
19.19
20.69
21.88
22.83
23.61
24.2
24.53
24.55
24.23
23.62
22.8
21.87
20.98
20.27
19.86
19.9
20.48
21.61
23.18
24.95
26.6
27.79
28.28
27.97
27.06
25.91
25.01
24.77
25.34
26.6
28.19
29.66
30.6
30.67
29.57
27
22.66
16.3
7.88
-2.35
-13.86
-25.98
-38
-49.36
-59.68
-68.7
-76.27
-82.29
-86.79
-89.85
-91.69
-92.63
-93.02
-93.19
-93.38
-93.73
-94.25
-94.92
-95.6
-96.12
-96.21
-95.52
-93.66
-90.33
-85.38
-78.9
-71.25
-62.99
-54.72
-47
-40.14
-34.21
-29.05
-24.35
-19.82
-15.3
-10.81
-6.52
-2.62
0.74
3.52
5.8
7.69
9.3
10.71
12
13.25
14.56
15.96
17.44
18.92
20.27
21.42
22.34
23.09
23.7
24.17
24.44
24.41
24.04
23.37
22.5
21.54
20.54
19.48
18.36
17.18
15.99
14.88
13.92
13.06
12.15
10.99
9.38
7.27
4.69
1.77
-1.39
-4.72
-8.22
-11.84
-15.43
-18.66
-21.13
-22.43
-22.33
-20.83
-18.14
-14.65
-10.78
-6.92
-3.36
-0.29
2.27
4.38
6.17
7.77
9.22
10.51
11.6
12.46
13.1
13.58
13.93
14.14
14.17
14
13.7
13.41
13.26
13.33
13.59
13.95
14.26
14.44
14.46
14.3
13.93
13.29
12.32
11
9.41
7.74
6.18
4.89
3.97
3.43
3.18
3.13
3.2
3.29
3.35
3.29
3.02
2.49
1.65
0.52
-0.88
-2.46
-4.17
-5.91
-7.68
-9.47
-11.28
-13.06
-14.65
-15.8
-16.17
-15.52
-13.72
-10.84
-7.17
-3.09
1
4.79
8.17
11.15
13.84
16.38
18.84
21.31
23.83
26.5
29.39
32.49
35.66
38.54
40.67
41.6
41.07
39.12
35.99
32.03
27.52
22.66
17.53
12.26
6.99
1.96
-2.6
-6.5
-9.67
-12.08
-13.73
-14.64
-14.86
-14.55
-13.93
-13.3
-12.84
-12.55
-12.24
-11.54
-10.09
-7.62
-4.05
0.52
5.9
11.79
17.8
23.39
27.94
30.91
32.07
31.66
30.41
29.38
29.57
31.59
35.44
40.52
45.9
50.57
53.75
54.98
54.2
51.62
47.72
43.14
38.62
34.82
32.24
31.09
31.34
32.83
35.38
38.87
43.13
47.82
52.32
55.77
57.37
56.71
54.07
50.32
46.64
43.93
42.5
41.92
41.21
39.11
34.41
26.07
13.3
-4.22
-26.16
-51.23
-77.29
-101.67
-121.77
-135.69
-142.55
-142.47
-136.32
-125.45
-111.42
-95.91
-80.6
-66.86
-55.57
-46.9
-40.46
-35.57
-31.6
-28.25
-25.44
-23.25
-21.57
-20.15
-18.5
-16.15
-12.76
-8.25
-2.8
3.15
9.07
14.4
18.72
21.75
23.42
23.8
23.06
21.46
19.3
16.91
14.63
12.68
11.18
10.13
9.43
9
8.76
8.72
8.89
9.27
9.83
10.54
11.3
12.05
12.72
13.28
13.74
14.09
14.32
14.37
14.16
13.64
12.79
11.69
10.46
9.3
8.45
8.21
8.84
10.51
13.17
16.49
19.95
22.95
25.04
26.06
26.15
25.59
24.71
23.63
22.36
20.79
18.91
16.79
14.73
13.04
11.97
11.59
11.75
12.15
12.49
12.61
12.55
12.5
12.68
13.13
13.69
13.97
13.53
12.07
9.48
5.86
1.41
-3.7
-9.35
-15.47
-22.01
-28.86
-35.91
-43.01
-50.06
-56.96
-63.59
-69.8
-75.38
-80.11
-83.86
-86.59
-88.44
-89.71
-90.75
-91.83
-93.03
-94.16
-94.82
-94.53
-93.02
-90.21
-86.31
-81.61
-76.38
-70.75
-64.75
-58.37
-51.71
-44.93
-38.2
-31.69
-25.44
-19.41
-13.51
-7.64
-1.75
4.12
9.77
14.92
19.27
22.6
24.87
26.2
26.83
27.09
27.29
27.67
28.43
29.67
31.37
33.39
35.47
37.28
38.54
39.07
38.9
38.29
37.61
37.29
37.61
38.61
40.04
41.45
42.27
42.08
40.61
37.84
33.92
29.11
23.71
17.94
12.01
6.09
0.34
-5.06
-9.91
-14.11
-17.65
-20.6
-23.1
-25.24
-26.96
-28.09
-28.41
-27.73
-25.99
-23.29
-19.79
-15.74
-11.37
-6.91
-2.53
1.6
5.38
8.77
11.72
14.17
16.09
17.42
18.17
18.4
18.2
17.66
16.9
16
15.1
14.33
13.78
13.52
13.52
13.64
13.71
13.52
12.92
11.85
10.35
8.58
6.71
4.91
3.27
1.84
0.63
-0.38
-1.19
-1.82
-2.33
-2.83
-3.43
-4.24
-5.3
-6.57
-8.01
-9.56
-11.23
-13.07
-15.03
-17.03
-18.76
-19.84
-19.9
-18.7
-16.27
-12.89
-9.01
-5.09
-1.46
1.68
4.27
6.34
7.98
9.32
10.54
11.76
13.08
14.42
15.7
16.83
17.8
18.69
19.63
20.67
21.7
22.54
22.97
22.9
22.37
21.55
20.6
19.61
18.55
17.33
15.85
14.08
12.05
9.92
7.86
6.06
4.61
3.47
2.46
1.33
-0.16
-2.15
-4.63
-7.42
-10.23
-12.7
-14.41
-14.94
-13.91
-11.09
-6.51
-0.57
6.04
12.46
17.96
22.05
24.56
25.54
25.14
23.51
20.79
17.17
12.95
8.45
3.97
-0.39
-4.67
-9.05
-13.62
-18.32
-22.89
-26.96
-30.21
-32.42
-33.55
-33.59
-32.56
-30.39
-26.97
-22.13
-15.85
-8.23
0.35
9.25
17.66
24.7
29.64
32.01
31.71
28.94
24.18
17.97
10.9
3.56
-3.57
-10.06
-15.66
-20.32
-24.16
-27.31
-29.91
-31.86
-32.94
-32.9
-31.59
-29.07
-25.59
-21.57
-17.42
-13.43
-9.83
-6.69
-4.06
-1.93
-0.25
1.05
2.02
2.72
3.16
3.33
3.22
2.8
2.1
1.15
0.01
-1.17
-2.16
-2.62
-2.25
-0.79
1.81
5.41
9.68
14.2
18.57
22.45
25.66
28.11
29.82
30.83
31.24
31.14
30.65
29.85
28.83
27.64
26.23
24.54
22.42
19.75
16.43
12.41
7.73
2.51
-2.99
-8.36
-13.17
-16.94
-19.31
-20.11
-19.41
-17.46
-14.71
-11.64
-8.73
-6.33
-4.63
-3.63
-3.16
-3
-2.96
-2.92
-2.87
-2.86
-2.91
-3
-3.05
-2.95
-2.61
-1.98
-1.07
0.08
1.45
3
4.73
6.57
8.45
10.23
11.77
12.95
13.68
13.97
13.86
13.47
12.9
12.25
11.6
10.95
10.28
9.55
8.76
7.93
7.14
6.42
5.73
5
4.1
2.92
1.43
-0.34
-2.31
-4.31
-6.17
-7.59
-8.28
-7.95
-6.49
-4
-0.8
2.72
6.2
9.37
12.17
14.57
16.54
18.03
18.92
19.21
18.97
18.38
17.65
16.95
16.31
15.71
15.05
14.3
13.48
12.68
12
11.45
11.02
10.59
10.05
9.27
8.14
6.63
4.76
2.66
0.52
-1.42
-3.02
-4.24
-5.17
-5.96
-6.75
-7.59
-8.43
-9.21
-9.93
-10.67
-11.6
-12.87
-14.58
-16.66
-18.9
-20.94
-22.37
-22.82
-22.09
-20.18
-17.33
-13.92
-10.33
-6.87
-3.74
-0.97
1.44
3.57
5.47
7.17
8.67
9.93
10.9
11.48
11.67
11.5
11.13
10.71
10.38
10.19
10.09
9.99
9.79
9.49
9.12
8.79
8.55
8.34
8.06
7.58
6.85
5.95
5.02
4.21
3.59
3.08
2.57
1.96
1.24
0.51
-0.12
-0.63
-1.09
-1.62
-2.34
-3.3
-4.5
-5.94
-7.65
-9.63
-11.77
-13.81
-15.32
-15.9
-15.27
-13.4
-10.55
-7.15
-3.68
-0.53
2.1
4.12
5.57
6.53
7.08
7.3
7.28
7.15
7.04
7.09
7.35
7.73
8.04
8.05
7.66
6.93
6.12
5.5
5.26
5.37
5.65
5.84
5.76
5.34
4.63
3.74
2.78
1.83
0.93
0.12
-0.57
-1.19
-1.81
-2.55
-3.55
-4.85
-6.4
-8.02
-9.46
-10.5
-11.02
-11.06
-10.81
-10.52
-10.41
-10.61
-11.17
-12.11
-13.45
-15.15
-17.08
-18.96
-20.42
-21.05
-20.62
-19.07
-16.59
-13.54
-10.29
-7.18
-4.42
-2.09
-0.14
1.54
3.1
4.61
6.07
7.35
8.32
8.88
9.06
8.95
8.71
8.42
8.11
7.8
7.48
7.21
7.05
7.05
7.14
7.23
7.2
7
6.64
6.19
5.72
5.23
4.68
4.04
3.32
2.59
1.95
1.47
1.1
0.76
0.29
-0.39
-1.3
-2.37
-3.49
-4.53
-5.4
-6.08
-6.63
-7.15
-7.75
-8.49
-9.34
-10.18
-10.92
-11.59
-12.31
-13.27
-14.53
-15.93
-17.05
-17.39
-16.56
-14.47
-11.39
-7.8
-4.22
-1.01
1.66
3.81
5.54
6.94
8.07
9.02
9.82
10.54
11.18
11.7
12.01
12.03
11.77
11.32
10.82
10.36
9.99
9.69
9.43
9.18
8.99
8.88
8.86
8.91
8.97
9.02
9.05
9.1
9.17
9.24
9.22
9.01
8.52
7.73
6.71
5.55
4.38
3.3
2.39
1.69
1.19
0.86
0.65
0.5
0.34
0.15
-0.09
-0.39
-0.72
-1.06
-1.44
-1.91
-2.63
-3.76
-5.44
-7.69
-10.27
-12.77
-14.67
-15.52
-15.07
-13.38
-10.78
-7.72
-4.66
-1.96
0.24
1.94
3.31
4.53
5.74
7
8.3
9.53
10.62
11.48
12.08
12.36
12.35
12.05
11.57
11.05
10.59
10.24
9.9
9.38
8.55
7.34
5.87
4.29
2.78
1.42
0.24
-0.78
-1.69
-2.52
-3.31
-4.16
-5.16
-6.35
-7.69
-9
-10.08
-10.78
-11.08
-11.11
-11.1
-11.3
-11.89
-12.97
-14.51
-16.43
-18.59
-20.79
-22.91
-24.88
-26.76
-28.7
-30.81
-33.08
-35.22
-36.75
-37.15
-36.05
-33.41
-29.55
-25
-20.31
-15.85
-11.81
-8.18
-4.91
-1.93
0.78
3.19
5.24
6.9
8.18
9.2
10.22
11.63
13.85
17.12
21.38
26.18
30.84
34.65
37.13
38.19
38.07
37.17
35.85
34.28
32.43
30.18
27.38
24
20.11
15.83
11.3
6.66
2.01
-2.51
-6.74
-10.53
-13.81
-16.68
-19.43
-22.49
-26.26
-30.87
-36.07
-41.23
-45.59
-48.54
-49.89
-49.95
-49.41
-49.1
-49.76
-51.84
-55.48
-60.52
-66.54
-73
-79.3
-84.84
-89.1
-91.73
-92.54
-91.58
-89.14
-85.7
-81.78
-77.75
-73.7
-69.38
-64.3
-57.97
-50.09
-40.56
-29.33
-16.27
-1.18
16.16
35.61
56.61
78.1
98.83
117.59
133.48
146
154.91
160.16
161.79
159.99
155.17
147.91
138.89
128.65
117.47
105.31
91.91
76.97
60.37
42.41
23.81
5.64
-10.94
-25.07
-36.45
-45.47
-53.04
-60.18
-67.59
-75.38
-83.04
-89.85
-95.21
-98.98
-101.5
-103.45
-105.63
-108.82
-113.58
-119.99
-127.3
-133.68
-136.26
-132.02
-118.89
-96.92
-68.58
-38.02
-9.65
13.43
30.2
41.47
48.87
53.77
56.87
58.37
58.56
58.16
58.24
59.66
62.65
66.54
70.17
72.37
72.46
70.51
67.11
63.08
59.07
55.38
51.93
48.45
44.67
40.48
35.93
31.17
26.31
21.33
16.09
10.51
4.59
-1.42
-7.14
-12.17
-16.19
-19.17
-21.34
-23.12
-24.98
-27.25
-29.94
-32.71
-34.95
-36.01
-35.4
-33.02
-29.08
-24.04
-18.43
-12.65
-7
-1.64
3.35
7.93
12.12
15.97
19.56
22.91
25.99
28.72
30.99
32.77
34.07
34.99
35.61
36.02
36.29
36.48
36.6
36.63
36.52
36.17
35.55
34.63
33.48
32.16
30.72
29.15
27.41
25.49
23.47
21.51
19.79
18.36
17.12
15.84
14.26
12.27
9.96
7.57
5.32
3.34
1.56
-0.2
-2.08
-4.13
-6.35
-8.64
-10.96
-13.24
-15.29
-16.84
-17.51
-16.95
-15.01
-11.84
-7.83
-3.53
0.54
4.02
6.77
8.8
10.26
11.32
12.1
12.66
12.99
13.07
12.9
12.55
12.13
11.74
11.38
11.04
10.67
10.26
9.86
9.57
9.42
9.41
9.48
9.57
9.67
9.84
10.13
10.53
10.98
11.34
11.5
11.46
11.29
11.09
10.96
10.89
10.81
10.59
10.09
9.26
8.1
6.69
5.15
3.61
2.12
0.67
-0.81
-2.43
-4.25
-6.22
-8.27
-10.27
-12.16
-13.92
-15.54
-16.98
-18.17
-18.93
-19.09
-18.49
-17.08
-14.95
-12.31
-9.42
-6.58
-3.98
-1.7
0.31
2.18
4.02
5.85
7.6
9.17
10.45
11.4
12.07
12.52
12.76
12.8
12.61
12.24
11.82
11.52
11.46
11.64
11.95
12.2
12.25
12.14
12.03
12.2
12.86
14.09
15.76
17.66
19.56
21.29
22.82
24.24
25.67
27.21
28.95
30.91
33.17
35.78
38.86
42.47
46.62
51.19
56.01
60.92
65.84
70.82
75.97
81.38
87.06
92.91
98.7
104.13
108.85
112.44
114.5
114.63
112.54
108.17
101.68
93.53
84.44
75.33
67.25
61.16
57.62
56.57
57.19
58.13
57.96
55.78
51.61
46.52
42.25
40.58
42.77
49.22
59.41
72.13
85.8
98.74
109.33
115.99
117.25
111.8
98.69
77.56
48.7
12.96
-28.48
-74.24
-122.55
-171.04
-216.56
-255.55
-284.88
-302.96
-310.4
-309.88
-305.13
-299.44
-294.56
-290.43
-285.74
-278.91
-268.96
-255.87
-240.34
-223.38
-205.93
-188.73
-172.34
-157.12
-143.3
-130.9
-119.69
-109.18
-98.76
-87.83
-76.03
-63.31
-50
-36.71
-24.16
-12.98
-3.51
4.38
11.18
17.67
24.59
32.33
40.77
49.25
56.9
62.98
67.2
69.94
72
74.23
77.23
81.09
85.46
89.88
94.01
97.74
101.17
104.3
106.92
108.6
108.85
107.31
103.92
98.87
92.37
84.54
75.34
64.73
52.85
40.15
27.3
14.96
3.56
-6.79
-16.18
-24.7
-32.26
-38.66
-43.71
-47.5
-50.47
-53.27
-56.47
-60.2
-64.01
-67.02
-68.27
-67.09
-63.39
-57.6
-50.49
-42.87
-35.28
-27.98
-20.99
-14.32
-8.05
-2.37
2.54
6.67
10.19
13.49
16.94
20.73
24.7
28.36
31.04
32.24
31.76
29.82
26.9
23.54
20.13
16.85
13.73
10.79
8.15
6.04
4.72
4.35
4.91
6.2
7.9
9.67
11.29
12.73
14.12
15.72
17.72
20.2
22.98
25.7
28
29.65
30.69
31.37
32.03
32.85
33.75
34.32
33.95
31.95
27.65
20.56
10.41
-2.58
-17.64
-33.31
-47.68
-58.69
-64.74
-65.04
-59.79
-50.03
-37.25
-23.04
-8.79
4.24
14.89
22.01
24.59
22.04
14.53
3.08
-10.53
-24.18
-35.92
-44.33
-48.79
-49.44
-46.95
-42.32
-36.52
-30.37
-24.44
-19.03
-14.29
-10.28
-7.1
-4.9
-3.85
-4.06
-5.53
-8.14
-11.69
-15.97
-20.73
-25.63
-30.14
-33.62
-35.43
-35.07
-32.38
-27.58
-21.22
-14.11
-7.09
-0.88
4.03
7.51
9.67
10.85
11.37
11.47
11.25
10.69
9.83
8.77
7.71
6.89
6.46
6.46
6.81
7.36
7.98
8.55
9.01
9.35
9.54
9.56
9.32
8.76
7.82
6.55
5.09
3.64
2.42
1.55
1.03
0.71
0.42
-0.08
-0.96
-2.35
-4.24
-6.51
-8.84
-10.82
-12.04
-12.18
-11.17
-9.14
-6.4
-3.32
-0.25
2.54
4.86
6.63
7.87
8.68
9.16
9.43
9.55
9.54
9.38
9.1
8.76
8.45
8.23
8.07
7.89
7.6
7.21
6.79
6.46
6.32
6.33
6.36
6.19
5.64
4.63
3.19
1.46
-0.35
-2.05
-3.47
-4.55
-5.31
-5.83
-6.27
-6.8
-7.63
-8.87
-10.56
-12.56
-14.57
-16.16
-16.87
-16.41
-14.68
-11.86
-8.31
-4.5
-0.8
2.46
5.13
7.17
8.65
9.68
10.41
10.94
11.31
11.57
11.71
11.76
11.76
11.71
11.56
11.23
10.68
9.97
9.21
8.55
8.05
7.65
7.22
6.62
5.81
4.89
3.98
3.19
2.49
1.79
0.95
-0.11
-1.33
-2.58
-3.74
-4.75
-5.68
-6.68
-7.87
-9.33
-10.99
-12.72
-14.32
-15.61
-16.4
-16.51
-15.77
-14.05
-11.32
-7.75
-3.59
0.81
5.12
9.09
12.59
15.55
17.96
19.83
21.25
22.34
23.22
24
24.67
25.18
25.4
25.28
24.83
24.13
23.35
22.7
22.34
22.35
22.67
23.14
23.49
23.45
22.83
21.56
19.71
17.39
14.74
11.82
8.55
4.78
0.33
-4.95
-10.96
-17.37
-23.6
-28.98
-33.03
-35.58
-36.84
-37.26
-37.23
-36.87
-35.96
-34.03
-30.65
-25.58
-18.88
-10.87
-1.98
7.27
16.39
24.87
32.27
38.24
42.64
45.55
47.22
47.94
47.85
46.89
44.74
41.07
35.62
28.38
19.62
9.86
-0.28
-10.16
-19.24
-27.14
-33.64
-38.69
-42.29
-44.49
-45.3
-44.86
-43.48
-41.79
-40.7
-41.16
-43.77
-48.45
-54.29
-59.8
-63.54
-64.84
-64.31
-63.82
-65.87
-72.59
-84.82
-101.75
-121.12
-139.99
-155.64
-166.24
-171.37
-172.16
-171.33
-172.82
-180.96
-199.01
-227.65
-263.86
-301.41
-332.53
-350.62
-352.37
-338.65
-313.42
-281.65
-247.35
-212.35
-176.64
-139.23
-99.12
-55.62
-8.24
43.49
99.81
160.23
223.07
285.33
343.16
392.79
431.25
456.96
469.82
470.85
461.91
445.23
423.11
397.66
370.72
343.8
318.13
294.75
274.49
257.73
244.14
232.43
220.67
206.92
190.02
170.07
148.32
126.43
105.54
85.91
67.12
48.9
31.92
17.85
8.69
5.6
8.03
13.7
19.48
22.6
21.64
16.73
9.02
-0.02
-9.04
-17.06
-23.25
-26.9
-27.49
-25.08
-20.51
-15.38
-11.58
-10.61
-13.18
-19.03
-27.27
-36.96
-47.44
-58.5
-70.11
-81.99
-93.37
-103.08
-109.78
-112.43
-110.62
-104.62
-95.3
-83.83
-71.39
-58.86
-46.75
-35.19
-24.22
-14.02
-5.21
1.27
4.48
3.93
0.04
-5.93
-12.18
-17.06
-19.57
-19.65
-17.99
-15.65
-13.58
-12.38
-12.17
-12.76
-13.84
-15.14
-16.54
-18.03
-19.68
-21.58
-23.8
-26.44
-29.61
-33.39
-37.72
-42.3
-46.57
-49.89
-51.71
-51.82
-50.44
-48.09
-45.46
-43.11
-41.33
-40.12
-39.16
-38.01
-36.17
-33.26
-29.11
-23.87
-17.97
-12.07
-6.87
-2.84
-0.2
1.22
1.75
1.79
1.64
1.49
1.46
1.72
2.46
3.84
5.93
8.64
11.69
14.7
17.32
19.29
20.49
20.98
20.91
20.5
19.97
19.59
19.52
19.87
20.63
21.66
22.69
23.46
23.79
23.7
23.4
23.14
23.02
22.92
22.49
21.33
19.21
16.22
12.68
9
5.44
2.02
-1.41
-5.1
-9.17
-13.53
-17.81
-21.5
-24.01
-24.89
-23.93
-21.23
-17.17
-12.34
-7.34
-2.73
1.05
3.71
5.11
5.26
4.42
3.13
2.16
2.28
4.07
7.57
12.24
17.05
20.74
22.23
20.89
16.76
10.44
2.9
-4.77
-11.63
-17.06
-20.86
-23.24
-24.68
-25.77
-26.99
-28.58
-30.48
-32.43
-34.04
-35.02
-35.25
-34.84
-34.09
-33.39
-33.1
-33.43
-34.3
-35.39
-36.2
-36.2
-35.03
-32.57
-29.01
-24.69
-20.04
-15.39
-10.97
-6.87
-3.16
0.06
2.71
4.74
6.23
7.43
8.66
10.14
11.95
13.9
15.68
16.98
17.69
17.96
18.13
18.59
19.65
21.39
23.63
26.01
28.02
29.24
29.39
28.46
26.66
24.42
22.23
20.55
19.7
19.73
20.35
20.96
20.75
18.97
15.16
9.42
2.43
-4.73
-10.86
-15.03
-16.75
-16.11
-13.55
-9.77
-5.53
-1.5
1.77
4
5.16
5.53
5.52
5.57
5.89
6.44
6.93
7
6.39
5.06
3.12
0.81
-1.69
-4.25
-6.82
-9.29
-11.5
-13.24
-14.32
-14.62
-14.15
-13.03
-11.47
-9.74
-8.1
-6.78
-5.86
-5.27
-4.74
-3.92
-2.46
-0.24
2.64
5.86
9
11.71
13.8
15.23
16.01
16.19
15.77
14.77
13.19
11.02
8.24
4.83
0.85
-3.51
-7.85
-11.67
-14.47
-15.9
-15.91
-14.76
-12.97
-11.15
-9.73
-8.85
-8.41
-8.19
-8.11
-8.35
-9.28
-11.24
-14.26
-17.88
-21.27
-23.57
-24.18
-22.97
-20.25
-16.48
-12.1
-7.55
-3.35
-0.24
1.04
0.11
-2.76
-6.65
-10.34
-12.94
-14.22
-14.63
-14.85
-15.32
-15.91
-16.17
-15.75
-14.79
-13.92
-13.98
-15.48
-18.24
-21.46
-23.99
-24.81
-23.3
-19.51
-13.99
-7.64
-1.29
4.57
9.91
15.05
20.44
26.31
32.48
38.37
43.12
45.95
46.38
44.4
40.39
35.06
29.17
23.38
18.15
13.64
9.76
6.21
2.56
-1.65
-6.78
-12.89
-19.64
-26.3
-31.89
-35.52
-36.7
-35.51
-32.54
-28.67
-24.78
-21.49
-19.13
-17.74
-17.22
-17.29
-17.65
-17.92
-17.81
-17.17
-16.05
-14.68
-13.31
-12.11
-11.09
-10.1
-8.94
-7.49
-5.79
-4.08
-2.74
-2.12
-2.38
-3.38
-4.7
-5.76
-6.09
-5.43
-3.88
-1.79
0.36
2.17
3.44
4.23
4.9
5.93
7.8
10.67
14.28
17.96
20.84
22.19
21.72
19.75
17.05
14.56
13.1
13.1
14.51
16.93
19.77
22.42
24.43
25.62
26.02
25.82
25.23
24.44
23.53
22.6
21.71
20.99
20.54
20.43
20.62
21.01
21.44
21.8
22.03
22.03
21.63
20.56
18.53
15.36
11.11
6.1
0.81
-4.26
-8.78
-12.58
-15.61
-17.81
-19.04
-19.05
-17.58
-14.48
-9.86
-4.11
2.15
8.23
13.58
17.94
21.29
23.78
25.56
26.64
26.96
26.43
25.07
23.03
20.55
17.77
14.77
11.54
8.13
4.77
1.91
0.02
-0.54
0.19
1.72
3.19
3.61
2.21
-1.27
-6.51
-12.72
-18.87
-24.12
-27.95
-30.25
-31.16
-30.87
-29.56
-27.38
-24.54
-21.39
-18.34
-15.71
-13.61
-11.85
-10.13
-8.17
-5.96
-3.76
-1.98
-1.01
-0.97
-1.75
-2.98
-4.21
-4.96
-4.88
-3.68
-1.25
2.2
6.1
9.42
10.95
9.68
5.19
-2.04
-10.75
-19.31
-26.29
-30.82
-32.8
-32.63
-30.95
-28.29
-25.04
-21.49
-17.96
-14.85
-12.47
-10.96
-10.13
-9.52
-8.6
-6.98
-4.54
-1.46
1.9
5.21
8.28
11.11
13.85
16.63
19.44
22.02
23.86
24.24
22.57
18.64
12.91
6.5
0.9
-2.48
-2.87
-0.3
4.4
9.97
15.14
18.92
20.7
20.26
17.71
13.49
8.29
2.97
-1.69
-5.22
-7.63
-9.3
-10.78
-12.43
-14.31
-16.13
-17.39
-17.63
-16.65
-14.68
-12.39
-10.79
-10.91
-13.35
-17.98
-23.85
-29.52
-33.6
-35.36
-34.87
-32.78
-29.85
-26.5
-22.74
-18.41
-13.52
-8.47
-3.85
-0.17
2.41
4.1
5.35
6.53
7.8
9.12
10.33
11.34
12.17
12.98
13.95
15.16
16.51
17.69
18.28
17.94
16.56
14.32
11.59
8.78
6.18
3.91
1.99
0.46
-0.64
-1.29
-1.54
-1.51
-1.3
-0.89
-0.2
0.89
2.41
4.22
6.09
7.81
9.25
10.45
11.49
12.41
13.19
13.74
13.94
13.63
12.68
10.93
8.36
5.16
1.78
-1.15
-3.06
-3.61
-2.91
-1.42
0.27
1.69
2.64
3.24
3.77
4.53
5.7
7.38
9.56
12.16
14.99
17.73
19.99
21.38
21.66
20.94
19.62
18.35
17.69
17.79
18.06
17.12
13.03
4.07
-10.43
-29.47
-50.52
-70.25
-85.7
-95.27
-98.97
-97.99
-93.84
-87.76
-80.47
-72.52
-64.61
-57.59
-52.14
-48.3
-45.28
-41.77
-36.65
-29.59
-21.25
-13.01
-6.34
-2.24
-0.97
-2.07
-4.68
-7.86
-10.8
-12.87
-13.65
-12.86
-10.37
-6.28
-0.99
4.86
10.42
14.9
17.81
19.09
19.17
18.7
18.27
17.98
17.41
15.75
12.22
6.44
-1.34
-10.48
-20.28
-30.42
-41.08
-52.74
-65.85
-80.56
-96.55
-113.18
-129.62
-144.95
-158.19
-168.26
-174.11
-174.85
-170.03
-159.78
-144.83
-126.28
-105.35
-83.13
-60.4
-37.66
-15.25
6.49
27.1
45.98
62.51
76.31
87.35
96.02
102.98
108.87
114.09
118.73
122.78
126.27
129.44
132.49
135.4
137.62
138.24
136.39
131.77
124.83
116.51
107.54
97.84
86.46
72.15
54.22
33.2
10.81
-10.69
-29.47
-44.77
-56.88
-66.65
-74.87
-81.93
-87.85
-92.65
-96.53
-99.85
-102.84
-105.3
-106.68
-106.25
-103.58
-98.89
-93.07
-87.49
-83.41
-81.58
-81.86
-83.25
-84.3
-83.53
-79.91
-73.15
-63.58
-51.97
-39.1
-25.73
-12.52
-0.18
10.49
18.78
24.41
27.77
29.89
31.99
34.98
38.99
43.51
47.77
51.36
54.53
58.15
63.16
70.1
78.74
88.14
97.13
104.77
110.72
115.31
119.28
123.4
128.05
132.92
137.11
139.44
139.02
135.66
129.94
122.95
115.75
109.03
103.06
98.04
94.16
91.41
88.85
84.16
73.98
55.22
26.68
-9.77
-49.55
-87.03
-117.77
-139.82
-153.54
-160.27
-160.59
-153.62
-137.45
-110.68
-73.91
-30.34
14.98
56.78
91.36
117.57
136.65
150.79
161.45
168.29
169.6
163.96
152.13
137.77
126.29
122.26
126.9
137.09
146.61
148.89
139.78
118.85
88.92
54.38
19.17
-14.3
-45.28
-74.04
-101.1
-126.96
-151.92
-176.08
-199.12
-219.84
-235.86
-243.89
-240.64
-224.23
-195.32
-157.51
-116.61
-79.08
-50.08
-32.26
-25.3
-26.59
-32.45
-39.37
-44.91
-47.9
-48.31
-46.83
-44.36
-41.61
-39.06
-36.97
-35.45
-34.47
-33.82
-33
-31.28
-27.98
-22.73
-15.68
-7.51
0.83
8.48
14.97
20.41
25.27
29.97
34.64
38.95
42.32
44.26
44.76
44.25
43.43
42.81
42.43
41.75
40.01
36.57
31.29
24.69
17.85
12.17
9.03
9.56
14.34
23.25
35.45
49.5
63.76
76.7
87.36
95.45
101.33
105.65
109.09
112.07
114.69
116.84
118.38
119.33
119.96
120.65
121.8
123.58
125.68
127.49
128.23
127.43
125.24
122.4
119.96
118.71
118.87
120.06
121.55
122.62
123.08
123.41
124.6
127.62
132.86
139.57
145.87
149.12
146.77
137.13
119.83
95.71
66.4
33.73
-0.54
-34.88
-68.04
-99.63
-130.64
-163.52
-201.13
-244.62
-291.51
-335.19
-366.48
-377.1
-363.35
-327.92
-279.01
-226.96
-180.22
-142.76
-113.96
-90.71
-70.28
-52.15
-37.95
-29.89
-28.89
-33.54
-40.62
-46.66
-49.53
-49.21
-47.33
-45.81
-45.54
-45.8
-44.74
-40.43
-32
-20.12
-6.66
6.31
17.46
26.61
34.54
42.19
50
57.55
63.94
68.36
70.61
71.3
71.52
72.3
74.2
77.18
80.84
84.73
88.49
91.86
94.5
95.87
95.31
92.32
86.75
79.09
70.34
61.77
54.46
48.91
44.95
41.84
38.73
35.14
31.27
27.97
26.42
27.53
31.5
37.58
44.4
50.52
55.02
57.89
59.98
62.65
67.35
75.34
87.5
104.18
124.64
146.46
165.47
176.55
175.47
160.82
135.05
103.73
73.25
48.2
29.75
16.1
4.33
-7.38
-18.72
-27.92
-33.32
-34.77
-33.84
-32.82
-33.34
-35.45
-37.73
-38.26
-35.68
-29.76
-21.42
-12.06
-2.9
5.31
12.09
16.75
17.91
13.65
2.17
-17.25
-43.48
-73.48
-103.11
-128.39
-146.61
-156.79
-159.54
-156.33
-148.87
-138.75
-127.28
-115.52
-104.18
-93.58
-83.66
-74.2
-65.06
-56.35
-48.39
-41.53
-36.06
-32.03
-29.29
-27.49
-26.03
-24.09
-20.83
-15.62
-8.32
0.57
10.07
19.1
26.83
32.94
37.51
40.77
42.82
43.58
42.79
40.31
36.25
31.06
25.38
19.81
14.73
10.2
6.09
2.21
-1.54
-5.1
-8.34
-11.11
-13.28
-14.72
-15.35
-15.05
-13.78
-11.55
-8.45
-4.65
-0.4
3.98
8.15
11.72
14.4
16.04
16.72
16.68
16.21
15.58
14.91
14.21
13.38
12.29
10.83
8.97
6.75
4.28
1.7
-0.88
-3.44
-6.07
-8.86
-11.89
-15.03
-18.03
-20.56
-22.29
-23.05
-22.86
-21.97
-20.76
-19.72
-19.33
-20.03
-22.01
-25.14
-28.87
-32.39
-34.78
-35.36
-33.84
-30.38
-25.47
-19.75
-13.75
-7.75
-1.74
4.49
11.31
19.08
28.08
38.37
49.74
61.61
72.97
82.44
88.48
89.63
84.89
73.93
57.29
36.19
12.38
-12.16
-35.38
-55.3
-70.25
-79.15
-81.77
-78.97
-72.44
-64.32
-56.56
-50.49
-46.64
-44.97
-45.09
-46.53
-48.89
-51.78
-54.84
-57.71
-60.09
-61.79
-62.71
-62.78
-61.94
-60.14
-57.33
-53.53
-48.81
-43.41
-37.63
-31.91
-26.65
-22.19
-18.64
-15.91
-13.72
-11.78
-9.91
-8.1
-6.53
-5.43
-4.95
-5.09
-5.67
-6.36
-6.79
-6.61
-5.63
-3.77
-1.16
1.9
5.06
7.97
10.4
12.27
13.66
14.7
15.41
15.67
15.19
13.6
10.68
6.49
1.42
-3.85
-8.59
-12.13
-14.07
-14.21
-12.59
-9.37
-4.84
0.57
6.38
12.02
17
20.97
23.79
25.54
26.38
26.53
26.18
25.45
24.44
23.2
21.78
20.26
18.77
17.46
16.5
15.98
15.87
16.02
16.2
16.18
15.78
14.93
13.65
12.01
10.16
8.21
6.23
4.2
1.95
-0.76
-4.07
-7.99
-12.22
-16.27
-19.54
-21.53
-21.95
-20.74
-18
-13.87
-8.5
-2.08
5.03
12.29
19
24.48
28.28
30.33
30.98
30.89
30.76
31.15
32.25
33.88
35.58
36.83
37.18
36.49
34.93
33.07
31.75
31.97
34.54
39.76
46.99
54.52
59.91
60.71
55.43
44.22
28.91
12.31
-2.89
-15.09
-24.17
-31.17
-37.49
-44.08
-51.16
-58.34
-65.13
-71.34
-77.14
-82.86
-88.63
-94.18
-98.94
-102.32
-104.07
-104.38
-103.74
-102.47
-100.38
-96.58
-89.89
-79.4
-64.99
-47.45
-28.2
-8.86
9.16
24.75
37
45.14
48.56
47.13
41.38
32.64
22.76
13.66
6.8
2.88
1.87
3.13
5.64
8.26
9.9
9.76
7.43
3.03
-2.88
-9.43
-15.64
-20.7
-24.16
-25.96
-26.37
-25.93
-25.36
-25.42
-26.63
-29.09
-32.28
-35.24
-36.95
-36.9
-35.44
-33.6
-32.52
-32.78
-33.91
-34.57
-33.17
-28.63
-20.93
-11.01
-0.31
9.88
18.9
26.71
33.66
40.07
46.01
51.26
55.45
58.35
59.99
60.65
60.68
60.25
59.31
57.56
54.7
50.6
45.43
39.61
33.66
28.02
22.9
18.23
13.75
9.2
4.47
-0.34
-4.99
-9.18
-12.77
-15.79
-18.41
-20.88
-23.4
-26.03
-28.75
-31.49
-34.17
-36.76
-39.27
-41.68
-43.9
-45.78
-47.14
-47.88
-48.04
-47.79
-47.36
-46.92
-46.51
-45.95
-44.9
-43.02
-40.01
-35.76
-30.34
-23.97
-17
-9.81
-2.78
3.81
9.76
14.99
19.47
23.22
26.27
28.63
30.34
31.45
32.02
32.1
31.72
30.94
29.82
28.46
27.01
25.61
24.38
23.36
22.51
21.76
21.03
20.3
19.57
18.86
18.19
17.55
16.9
16.17
15.33
14.33
13.2
12.02
10.91
9.95
9.16
8.44
7.59
6.43
4.87
2.98
0.94
-1.05
-2.84
-4.48
-6.14
-8.05
-10.37
-13.11
-16.12
-19.11
-21.79
-23.85
-25.08
-25.34
-24.6
-22.91
-20.44
-17.45
-14.15
-10.75
-7.35
-4
-0.74
2.4
5.37
8.08
10.47
12.47
14.02
15.08
15.55
15.35
14.4
12.69
10.26
7.3
4.05
0.78
-2.29
-5.09
-7.67
-10.2
-12.89
-15.9
-19.33
-23.17
-27.31
-31.57
-35.75
-39.74
-43.56
-47.43
-51.64
-56.43
-61.8
-67.45
-72.83
-77.31
-80.43
-82.16
-82.95
-83.76
-85.83
-90.25
-97.43
-106.58
-115.54
-121.17
-120.17
-110.07
-90.16
-61.79
-28.05
7
39.33
65.89
85.05
96.8
102.28
103.29
101.55
98.3
94.14
89.19
83.44
76.99
70.2
63.62
57.85
53.42
50.69
49.83
50.62
52.4
54.18
54.85
53.68
50.58
46.28
41.95
38.77
37.41
37.79
39.21
40.73
41.53
41.15
39.55
36.89
33.42
29.36
24.98
20.65
16.86
14.04
12.43
11.91
12.03
12.16
11.7
10.34
8.05
5.15
2.05
-0.81
-3.16
-4.92
-6.32
-7.73
-9.65
-12.43
-16.12
-20.44
-24.85
-28.78
-31.86
-33.92
-34.9
-34.61
-32.64
-28.39
-21.47
-12.02
-0.83
10.78
21.53
30.58
37.86
43.89
49.41
54.95
60.63
66.19
71.25
75.54
79.1
82.09
84.73
87.1
89.05
90.33
90.72
90.19
88.89
87.12
85.15
82.99
80.42
77.06
72.51
66.54
59.07
50.23
40.32
29.83
19.41
9.75
1.34
-5.7
-11.75
-17.62
-24.23
-32.32
-42.06
-52.99
-64.11
-74.22
-82.29
-87.93
-91.47
-93.8
-95.98
-98.65
-101.78
-104.68
-106.54
-106.81
-105.53
-103.25
-100.63
-98.09
-95.6
-92.67
-88.53
-82.29
-73.05
-60.23
-43.91
-25.15
-6.14
10.22
21.01
24.16
18.92
6.01
-12.54
-33.82
-54.47
-71.2
-81.4
-83.7
-78.34
-67.04
-52.3
-36.59
-21.6
-7.97
4.33
15.57
25.89
35.33
44.13
52.96
62.84
74.68
88.69
104.07
119.02
131.38
139.27
141.83
139.44
133.48
125.67
117.42
109.33
101.22
92.52
82.76
71.95
60.56
49.33
38.88
29.5
21.13
13.44
6.13
-0.95
-7.64
-13.45
-17.7
-19.86
-19.87
-18.44
-16.88
-16.67
-18.66
-22.62
-27.45
-31.84
-35.11
-37.64
-40.53
-44.8
-50.53
-56.68
-61.65
-64.17
-64.04
-62.03
-59.3
-56.53
-53.55
-49.56
-43.69
-35.66
-25.99
-15.7
-5.86
2.82
10.08
15.93
20.39
23.27
24.28
23.42
21.28
19.13
18.64
21.27
27.65
37.36
49.06
61.15
72.13
80.77
85.86
86.16
80.64
69.09
52.74
34.21
16.73
2.8
-6.73
-12.82
-17.34
-21.8
-26.49
-30.45
-32.3
-31.29
-27.78
-23.22
-19.34
-17.46
-18.05
-20.77
-24.75
-29.03
-32.95
-36.2
-38.85
-41.14
-43.29
-45.4
-47.4
-49.16
-50.62
-51.86
-53.09
-54.41
-55.75
-56.84
-57.32
-57
-55.99
-54.74
-53.85
-53.85
-55.06
-57.47
-60.8
-64.56
-68.15
-70.93
-72.36
-72.14
-70.33
-67.41
-64.18
-61.53
-60.17
-60.47
-62.33
-65.34
-68.97
-72.8
-76.69
-80.74
-85.07
-89.54
-93.48
-95.72
-94.81
-89.55
-79.43
-64.87
-47.04
-27.4
-7.19
12.84
32.36
51.14
68.67
84.07
96.35
104.84
109.57
111.3
111.07
109.52
106.48
100.91
91.51
77.69
60.17
40.98
22.74
7.61
-3.18
-8.88
-8.38
-0.06
17.12
41.75
68.81
90.7
100.25
94.32
75.67
51.59
30.07
15.79
8.29
3.45
-3.03
-12.58
-23.02
-30.42
-32
-28.12
-22.12
-18.58
-21.16
-31.01
-46.34
-62.74
-74.37
-75.5
-62.22
-33.8
6.68
52.97
97.4
133.04
155.57
164.08
160.56
148.67
132.45
115.28
99.61
86.99
78.24
73.55
72.52
74.21
77.31
80.35
82
81.32
77.88
71.7
63.2
53.03
41.97
30.86
20.49
11.58
4.64
0.07
-1.88
-1.1
2.37
8.12
15.43
23.21
30.3
35.78
39.2
40.66
40.67
39.8
38.4
36.47
33.73
29.84
24.64
18.27
11.23
4.21
-2.08
-7.14
-10.78
-13.14
-14.55
-15.41
-16.1
-16.87
-17.86
-19.09
-20.46
-21.82
-22.95
-23.72
-24.07
-24.11
-24.06
-24.17
-24.63
-25.55
-26.99
-29.01
-31.65
-34.94
-38.76
-42.75
-46.32
-48.8
-49.56
-48.27
-44.93
-39.85
-33.56
-26.63
-19.54
-12.72
-6.5
-1.14
3.2
6.5
8.94
10.73
12.11
13.19
13.9
14.13
13.76
12.79
11.36
9.71
8.07
6.67
5.6
4.93
4.62
4.52
4.4
4.02
3.19
1.89
0.22
-1.64
-3.6
-5.68
-8.04
-10.84
-14.1
-17.68
-21.33
-24.77
-27.84
-30.53
-32.91
-35.18
-37.49
-39.95
-42.53
-45.03
-47.05
-48.08
-47.68
-45.61
-41.95
-37.06
-31.46
-25.73
-20.3
-15.46
-11.35
-7.97
-5.24
-3.03
-1.17
0.46
1.89
3.08
3.92
4.33
4.3
3.92
3.35
2.77
2.36
2.22
2.39
2.9
3.71
4.68
5.62
6.22
6.2
5.4
3.82
1.73
-0.48
-2.43
-3.9
-4.88
-5.57
-6.25
-7.18
-8.5
-10.19
-12.13
-14.18
-16.19
-18.1
-19.9
-21.63
-23.41
-25.39
-27.71
-30.43
-33.41
-36.21
-38.16
-38.57
-36.95
-33.29
-27.99
-21.81
-15.51
-9.68
-4.61
-0.38
3.05
5.73
7.73
9.14
10.15
10.98
11.8
12.63
13.38
13.86
13.96
13.64
13
12.27
11.66
11.33
11.31
11.48
11.59
11.39
10.71
9.55
8.1
6.61
5.29
4.17
3.1
1.85
0.23
-1.82
-4.19
-6.71
-9.21
-11.64
-14.04
-16.57
-19.32
-22.35
-25.58
-28.92
-32.24
-35.5
-38.7
-41.89
-45.21
-48.77
-52.68
-57
-61.65
-66.39
-70.75
-74.1
-75.83
-75.54
-73.12
-68.87
-63.28
-56.85
-49.89
-42.45
-34.4
-25.56
-15.91
-5.61
4.97
15.39
25.26
34.34
42.55
49.98
56.73
62.89
68.35
72.8
75.65
76.12
73.41
67.04
57.14
44.63
31.18
18.81
9.42
4.16
3.24
5.94
10.96
16.86
22.33
26.37
28.25
27.51
24.03
18.16
10.72
2.93
-4.01
-9.22
-12.51
-14.3
-15.45
-16.88
-19.21
-22.6
-26.75
-31.08
-34.85
-37.48
-38.62
-38.25
-36.6
-33.98
-30.56
-26.31
-21.03
-14.65
-7.51
-0.49
5.14
8.26
8.37
6
2.51
-0.42
-1.45
-0.08
3.32
7.89
12.69
17.11
20.87
23.88
26.1
27.53
28.31
28.88
29.92
32.2
36.26
42.31
50.15
59.37
69.41
79.61
89.16
97.04
102.2
103.74
101.29
95.16
86.26
75.8
64.85
54.05
43.47
32.81
21.69
9.98
-2.06
-13.83
-24.52
-33.42
-40.02
-44.12
-45.88
-45.72
-44.28
-42.3
-40.52
-39.56
-39.83
-41.47
-44.39
-48.35
-53.05
-58.11
-63.1
-67.53
-70.83
-72.44
-71.99
-69.39
-64.93
-59.17
-52.82
-46.49
-40.54
-35.08
-30.04
-25.32
-20.92
-17.06
-14.05
-12.17
-11.5
-11.83
-12.68
-13.43
-13.55
-12.7
-10.83
-8.06
-4.61
-0.66
3.68
8.36
13.36
18.63
24.09
29.6
35.04
40.31
45.42
50.48
55.74
61.45
67.74
74.46
81.13
86.95
90.98
92.35
90.46
85.14
76.7
65.87
53.76
41.54
30.27
20.62
12.75
6.39
1.03
-3.82
-8.4
-12.73
-16.78
-20.62
-24.55
-28.94
-34.03
-39.74
-45.56
-50.77
-54.63
-56.65
-56.63
-54.66
-51
-45.97
-40
-33.55
-27.14
-21.24
-16.17
-11.99
-8.47
-5.27
-2.01
1.47
5.13
8.76
12.04
14.71
16.64
17.85
18.45
18.63
18.57
18.47
18.5
18.77
19.32
20.02
20.66
20.93
20.64
19.76
18.5
17.17
16.05
15.28
14.79
14.4
13.88
13.1
11.99
10.53
8.72
6.55
4.05
1.3
-1.55
-4.35
-6.98
-9.41
-11.73
-14.07
-16.53
-19.15
-21.87
-24.59
-27.16
-29.51
-31.7
-33.91
-36.41
-39.43
-43.05
-47.08
-51.1
-54.47
-56.51
-56.67
-54.68
-50.67
-45.11
-38.71
-32.2
-26.15
-20.89
-16.5
-12.95
-10.18
-8.15
-6.8
-6.05
-5.73
-5.74
-6.04
-6.76
-8.05
-10.09
-12.85
-16.18
-19.83
-23.5
-26.91
-29.8
-31.89
-32.92
-32.69
-31.12
-28.31
-24.54
-20.19
-15.66
-11.32
-7.37
-3.93
-1
1.5
3.63
5.39
6.72
7.54
7.81
7.63
7.25
6.99
7.09
7.66
8.59
9.71
10.86
12.07
13.51
15.43
18.03
21.28
24.96
28.75
32.43
35.99
39.57
43.41
47.55
51.79
55.71
58.97
61.47
63.64
66.28
70.41
76.86
85.96
97.39
110.17
122.84
133.73
141.37
144.84
143.97
139.29
131.73
122.09
110.67
97.04
80.31
59.58
34.6
6.26
-23.25
-50.73
-72.72
-86.48
-91.01
-87.53
-79.33
-70.85
-66.34
-68.48
-77.76
-92.43
-109.28
-124.46
-134.41
-136.46
-129.13
-112.34
-87.25
-55.83
-20.31
17.41
55.86
93.67
128.94
158.69
179.06
186.52
179.45
159.4
131.05
100.69
73.88
53.41
38.77
27.28
16.22
4.67
-6
-13.21
-15.13
-12.14
-7.08
-3.86
-5.59
-13.08
-24.68
-37.39
-48.53
-57.01
-63.7
-70.64
-79.76
-91.8
-105.89
-119.92
-131.35
-138.04
-138.78
-133.26
-121.9
-105.51
-84.99
-61.17
-34.7
-5.97
24.7
56.82
89.28
120.11
146.68
166.17
176.49
176.9
168.34
153.04
133.9
113.68
94.55
77.83
64.12
53.46
45.52
39.65
35.07
31
26.91
22.64
18.43
14.7
11.86
10.02
8.89
7.81
5.89
2.23
-3.9
-12.84
-24.47
-38.17
-52.84
-67.1
-79.44
-88.58
-93.86
-95.59
-95.09
-94.48
-95.9
-100.67
-108.6
-117.9
-125.86
-129.82
-128.3
-121.44
-110.94
-99.27
-88.85
-81.35
-77.24
-75.83
-75.44
-74.03
-69.8
-61.88
-50.78
-38.26
-26.68
-17.99
-12.87
-10.46
-8.64
-4.9
2.83
15.58
33.15
54.31
77.22
99.91
120.82
139.14
154.94
168.9
181.6
192.72
200.48
201.77
193
171.42
136.27
89.48
35.53
-19.35
-68.47
-106.16
-129.06
-136.9
-132.61
-121.52
-110
-103.62
-105.64
-116.18
-132.43
-149.87
-163.92
-171.42
-171.36
-164.82
-154.06
-141.61
-129.46
-118.73
-109.69
-101.89
-94.38
-85.78
-74.58
-59.55
-40.25
-17.37
7.32
31.52
53.11
70.72
83.93
93.08
98.77
101.51
101.46
98.54
92.64
83.92
72.89
60.28
46.91
33.4
20.23
7.75
-3.58
-13.15
-20.3
-24.36
-24.79
-21.15
-13.18
-0.85
15.47
35.04
56.85
80.05
104.17
129.07
154.53
179.64
202.43
219.92
228.74
225.98
210.12
181.67
143.34
99.77
56.7
19.77
-6.87
-21.58
-25.61
-22.52
-16.82
-12.47
-11.76
-14.99
-21.01
-28.06
-34.66
-40
-44
-47.04
-49.6
-52.1
-54.77
-57.68
-60.7
-63.5
-65.52
-66.02
-64.23
-59.67
-52.37
-42.93
-32.53
-22.55
-14.23
-8.33
-4.98
-3.74
-3.81
-4.36
-4.73
-4.67
-4.22
-3.66
-3.33
-3.38
-3.75
-4.13
-4.08
-3.29
-1.7
0.45
2.67
4.49
5.61
5.95
5.67
4.97
4
2.82
1.44
-0.1
-1.77
-3.46
-5.08
-6.57
-7.89
-9.03
-10.03
-10.94
-11.89
-12.98
-14.23
-15.63
-17.08
-18.49
-19.82
-21.09
-22.36
-23.7
-25.13
-26.63
-28.16
-29.61
-30.78
-31.36
-30.96
-29.31
-26.34
-22.3
-17.68
-13.04
-8.87
-5.43
-2.75
-0.78
0.6
1.51
2.04
2.38
2.73
3.24
3.97
4.83
5.62
6.15
6.33
6.17
5.81
5.39
5.06
4.85
4.79
4.85
5
5.19
5.32
5.33
5.11
4.66
4.02
3.28
2.53
1.85
1.26
0.73
0.2
-0.4
-1.13
-2.02
-3.05
-4.13
-5.15
-6.07
-6.89
-7.68
-8.49
-9.34
-10.13
-10.75
-11.14
-11.38
-11.68
-12.26
-13.28
-14.74
-16.5
-18.35
-20.06
-21.38
-22.03
-21.73
-20.25
-17.49
-13.64
-9.11
-4.45
-0.16
3.43
6.24
8.37
10
11.25
12.21
12.9
13.37
13.7
14.02
14.45
15.06
15.85
16.66
17.33
17.63
17.43
16.71
15.64
14.49
13.55
13
12.87
13.04
13.28
13.44
13.39
13.12
12.63
11.95
11.19
10.46
9.97
9.87
10.19
10.82
11.5
11.98
12.1
11.86
11.29
10.41
9.15
7.37
4.94
1.85
-1.78
-5.74
-9.79
-13.76
-17.55
-21.14
-24.53
-27.77
-30.93
-34.1
-37.3
-40.53
-43.64
-46.35
-48.35
-49.3
-49.02
-47.53
-45.05
-41.96
-38.74
-35.83
-33.58
-32.23
-31.87
-32.45
-33.72
-35.31
-36.74
-37.57
-37.51
-36.47
-34.53
-31.74
-27.89
-22.37
-14.33
-2.95
12.08
30.22
50.16
70.1
88.31
103.61
115.6
124.61
131.39
136.93
142.08
147.27
152.15
155.33
154.55
147.22
131.4
106.71
74.79
38.98
3.31
-28.7
-54.89
-74.65
-88.54
-97.58
-102.71
-104.63
-103.96
-101.45
-98.06
-94.79
-92.34
-90.8
-89.58
-87.69
-84.26
-78.93
-72.13
-64.84
-58.15
-52.82
-48.98
-46.27
-44.2
-42.43
-41
-40.17
-40.21
-41.13
-42.67
-44.39
-45.9
-46.96
-47.55
-47.75
-47.59
-47.04
-46.08
-44.71
-43.06
-41.33
-39.68
-38.13
-36.49
-34.37
-31.32
-26.97
-21.1
-13.77
-5.33
3.62
12.32
19.99
26.01
30.06
32.19
32.83
32.59
32.17
32.12
32.84
34.49
37.08
40.5
44.67
49.53
55.1
61.43
68.55
76.4
84.82
93.46
101.86
109.42
115.5
119.49
121.05
120.17
117.19
112.71
107.27
101.11
94.1
85.83
75.92
64.29
51.34
37.85
24.83
13.22
3.69
-3.46
-8.26
-10.98
-12.07
-12.01
-11.29
-10.39
-9.67
-9.42
-9.72
-10.49
-11.44
-12.25
-12.63
-12.48
-11.87
-11.04
-10.18
-9.4
-8.64
-7.79
-6.79
-5.67
-4.62
-3.84
-3.47
-3.46
-3.67
-3.83
-3.75
-3.4
-2.87
-2.42
-2.31
-2.77
-3.96
-5.85
-8.27
-10.95
-13.56
-15.8
-17.56
-18.86
-19.9
-20.95
-22.28
-24.07
-26.37
-29.06
-31.87
-34.42
-36.23
-36.88
-36.1
-33.86
-30.45
-26.31
-21.97
-17.87
-14.33
-11.45
-9.19
-7.4
-5.89
-4.53
-3.23
-2.01
-0.91
0
0.67
1.11
1.34
1.43
1.44
1.45
1.54
1.83
2.42
3.39
4.71
6.22
7.7
8.85
9.47
9.46
8.83
7.77
6.47
5.14
3.91
2.8
1.77
0.71
-0.48
-1.84
-3.38
-5.03
-6.68
-8.23
-9.56
-10.66
-11.55
-12.37
-13.3
-14.52
-16.14
-18.15
-20.43
-22.76
-24.83
-26.29
-26.77
-25.99
-23.85
-20.43
-16.09
-11.32
-6.66
-2.51
0.96
3.79
6.1
8.05
9.73
11.15
12.31
13.21
13.86
14.24
14.34
14.15
13.73
13.22
12.79
12.56
12.55
12.7
12.87
12.96
12.9
12.7
12.4
12
11.53
10.98
10.37
9.69
8.91
7.95
6.71
5.16
3.32
1.31
-0.69
-2.51
-3.98
-5.03
-5.62
-5.85
-5.85
-5.82
-5.92
-6.29
-6.96
-7.88
-8.91
-9.93
-10.86
-11.71
-12.65
-13.92
-15.73
-18.09
-20.73
-23.07
-24.42
-24.16
-22.04
-18.31
-13.58
-8.65
-4.18
-0.53
2.32
4.59
6.54
8.28
9.78
10.89
11.56
11.86
11.96
12.04
12.15
12.25
12.21
12
11.67
11.31
11.06
10.92
10.86
10.8
10.7
10.52
10.31
10.05
9.76
9.41
9.02
8.59
8.17
7.77
7.4
7.03
6.62
6.13
5.53
4.78
3.87
2.83
1.72
0.59
-0.49
-1.47
-2.33
-3.12
-3.9
-4.79
-5.82
-6.97
-8.12
-9.17
-10.04
-10.8
-11.56
-12.46
-13.55
-14.85
-16.31
-17.93
-19.68
-21.39
-22.77
-23.33
-22.61
-20.32
-16.54
-11.72
-6.5
-1.52
2.77
6.16
8.66
10.39
11.46
11.99
12.11
11.94
11.64
11.34
11.12
11
10.94
10.89
10.84
10.83
10.89
11.07
11.38
11.8
12.26
12.68
12.99
13.18
13.24
13.2
13.09
12.88
12.53
11.99
11.22
10.24
9.11
7.93
6.77
5.65
4.56
3.49
2.45
1.48
0.62
-0.11
-0.77
-1.44
-2.19
-3.09
-4.09
-5.17
-6.29
-7.4
-8.48
-9.47
-10.3
-10.91
-11.38
-11.88
-12.68
-13.96
-15.73
-17.7
-19.34
-20.09
-19.51
-17.47
-14.16
-10.06
-5.74
-1.72
1.7
4.41
6.52
8.13
9.35
10.2
10.63
10.63
10.25
9.64
8.95
8.27
7.6
6.91
6.18
5.48
4.94
4.72
4.88
5.39
6.08
6.75
7.24
7.44
7.31
6.89
6.27
5.5
4.66
3.81
2.96
2.12
1.3
0.44
-0.45
-1.43
-2.51
-3.66
-4.82
-5.9
-6.82
-7.56
-8.16
-8.72
-9.33
-10.02
-10.81
-11.65
-12.52
-13.38
-14.24
-15.11
-16.07
-17.19
-18.56
-20.17
-21.89
-23.4
-24.3
-24.17
-22.79
-20.17
-16.61
-12.58
-8.55
-4.91
-1.88
0.44
2.07
3.07
3.54
3.62
3.48
3.28
3.07
2.82
2.39
1.61
0.41
-1.19
-2.98
-4.7
-6.1
-6.96
-7.16
-6.68
-5.56
-3.97
-2.14
-0.38
1.1
2.16
2.86
3.35
3.78
4.21
4.52
4.51
3.95
2.74
0.95
-1.2
-3.46
-5.67
-7.81
-10.05
-12.59
-15.64
-19.29
-23.46
-28.02
-32.78
-37.65
-42.66
-47.93
-53.65
-59.91
-66.67
-73.73
-80.66
-86.91
-91.83
-94.76
-95.1
-92.47
-86.81
-78.41
-67.9
-56.16
-44.09
-32.49
-21.86
-12.45
-4.31
2.62
8.43
13.23
17.11
20.2
22.63
24.55
26.09
27.39
28.59
29.84
31.2
32.64
33.96
34.91
35.22
34.76
33.5
31.54
29.01
26.08
22.87
19.58
16.39
13.47
10.9
8.67
6.66
4.76
2.92
1.2
-0.3
-1.49
-2.32
-2.82
-3.11
-3.31
-3.57
-3.98
-4.65
-5.59
-6.81
-8.28
-10.02
-12.06
-14.41
-17.04
-19.83
-22.65
-25.42
-28.2
-31.19
-34.72
-39.05
-44.28
-50.2
-56.29
-61.78
-65.78
-67.48
-66.37
-62.32
-55.68
-47.1
-37.43
-27.43
-17.65
-8.42
0.17
8.13
15.46
22.15
28.17
33.5
38.19
42.38
46.23
49.85
53.21
56.19
58.6
60.32
61.38
61.97
62.42
63.05
64.1
65.62
67.48
69.43
71.17
72.52
73.42
74
74.48
75.07
75.86
76.76
77.61
78.18
78.41
78.33
78.16
78.18
78.59
79.42
80.55
81.74
82.77
83.59
84.31
85.25
86.74
88.98
91.95
95.51
99.43
103.56
107.86
112.31
116.87
121.39
125.64
129.44
132.66
135.08
136.17
134.84
129.54
118.7
101.42
78.1
50.57
21.64
-5.76
-29.38
-48.14
-61.92
-71.1
-76.15
-77.44
-75.48
-71.11
-65.56
-60.2
-56.04
-53.45
-52.1
-51.35
-50.64
-49.86
-49.37
-49.74
-51.33
-54.01
-57.14
-59.76
-61
-60.36
-57.91
-54.22
-50.15
-46.5
-43.82
-42.26
-41.63
-41.55
-41.67
-41.83
-42
-42.18
-42.25
-41.79
-40.2
-36.74
-30.78
-21.92
-10.13
4.29
20.7
38.09
55.16
70.34
82.12
89.33
91.51
89.1
83.22
75.27
66.49
57.54
48.56
39.35
29.73
19.72
9.53
-0.62
-10.57
-20.25
-29.54
-38.13
-45.51
-51.13
-54.6
-55.86
-55.24
-53.28
-50.52
-47.36
-43.99
-40.41
-36.57
-32.46
-28.21
-24.09
-20.37
-17.3
-14.98
-13.42
-12.54
-12.29
-12.68
-13.75
-15.49
-17.79
-20.37
-22.82
-24.64
-25.46
-25.02
-23.42
-21.02
-18.47
-16.54
-15.89
-16.85
-19.3
-22.62
-25.9
-28.23
-28.94
-27.84
-25.2
-21.62
-17.78
-14.23
-11.28
-9.03
-7.43
-6.34
-5.65
-5.2
-4.86
-4.44
-3.83
-2.97
-1.9
-0.75
0.28
0.97
1.08
0.42
-1.11
-3.39
-6.07
-8.61
-10.42
-11.04
-10.32
-8.44
-5.83
-2.95
-0.14
2.47
4.85
7.01
8.86
10.18
10.76
10.48
9.4
7.79
5.96
4.22
2.72
1.47
0.36
-0.78
-2.13
-3.83
-5.97
-8.58
-11.57
-14.77
-17.95
-20.79
-23.03
-24.43
-24.87
-24.33
-22.92
-20.83
-18.3
-15.6
-12.99
-10.72
-9.01
-8.01
-7.86
-8.52
-9.81
-11.33
-12.51
-12.77
-11.68
-9.17
-5.58
-1.6
1.89
4.14
4.7
3.6
1.31
-1.34
-3.49
-4.42
-3.75
-1.45
2.21
6.88
12.18
17.74
23.16
27.97
31.68
33.87
34.38
33.37
31.27
28.65
26.06
23.88
22.31
21.38
20.88
20.37
19.26
16.91
12.95
7.49
1.23
-4.71
-9.12
-11.18
-10.71
-8.14
-4.28
-0.01
4
7.32
9.77
11.17
11.39
10.32
8.01
4.7
0.76
-3.4
-7.5
-11.41
-15.25
-19.27
-23.77
-28.96
-34.83
-41.05
-46.98
-51.77
-54.55
-54.69
-51.9
-46.42
-38.87
-30.15
-21.25
-13.03
-6.21
-1.21
1.82
2.9
2.24
0.14
-3.02
-6.76
-10.56
-13.87
-16.24
-17.34
-16.98
-15.07
-11.5
-6.18
0.91
9.61
19.43
29.49
38.68
45.81
49.89
50.34
47.12
40.7
31.96
21.97
11.8
2.37
-5.68
-11.97
-16.35
-18.89
-19.82
-19.52
-18.48
-17.23
-16.29
-16.07
-16.77
-18.37
-20.61
-23.05
-25.16
-26.41
-26.41
-24.97
-22.12
-18.19
-13.65
-9.05
-4.81
-1.15
1.88
4.34
6.24
7.42
7.58
6.46
3.96
0.33
-3.91
-8.1
-11.65
-14.23
-15.84
-16.78
-17.46
-18.33
-19.69
-21.59
-23.86
-26.11
-27.77
-28.24
-26.96
-23.6
-18.21
-11.29
-3.75
3.36
9.2
13.39
16.14
17.98
19.48
20.9
22.13
22.85
22.82
22.05
20.81
19.39
17.88
16.18
14.14
11.79
9.46
7.7
6.96
7.35
8.59
10.16
11.56
12.55
13.17
13.61
14.09
14.69
15.38
16.12
16.84
17.58
18.37
19.22
20.06
20.71
20.94
20.51
19.31
17.41
15.09
12.71
10.63
9.03
7.92
7.15
6.57
6.09
5.69
5.37
5.06
4.6
3.81
2.6
1.02
-0.77
-2.53
-4.05
-5.18
-5.83
-6
-5.75
-5.26
-4.75
-4.49
-4.64
-5.23
-6.12
-7.08
-7.86
-8.32
-8.47
-8.48
-8.57
-9.01
-9.97
-11.53
-13.52
-15.57
-17.11
-17.54
-16.42
-13.69
-9.7
-5.1
-0.62
3.19
6.1
8.23
9.87
11.35
12.8
14.2
15.4
16.26
16.73
16.87
16.77
16.49
16.03
15.37
14.5
13.48
12.44
11.52
10.83
10.33
9.95
9.53
9.02
8.42
7.81
7.23
6.69
6.06
5.18
3.93
2.29
0.37
-1.59
-3.36
-4.79
-5.88
-6.7
-7.36
-7.96
-8.56
-9.18
-9.85
-10.63
-11.52
-12.51
-13.55
-14.55
-15.49
-16.38
-17.31
-18.32
-19.38
-20.29
-20.71
-20.28
-18.72
-15.96
-12.22
-7.94
-3.64
0.21
3.38
5.82
7.58
8.76
9.38
9.48
9.11
8.45
7.74
7.18
6.87
6.76
6.66
6.4
5.9
5.22
4.56
4.11
4
4.22
4.64
5.08
5.39
5.49
5.41
5.22
4.99
4.74
4.43
3.95
3.22
2.24
1.1
-0.04
-1.01
-1.73
-2.25
-2.73
-3.35
-4.22
-5.35
-6.58
-7.73
-8.67
-9.36
-9.91
-10.45
-11.14
-12.09
-13.36
-14.92
-16.69
-18.47
-19.91
-20.61
-20.21
-18.48
-15.46
-11.48
-7.05
-2.75
0.93
3.76
5.7
6.91
7.65
8.18
8.64
9.14
9.65
10.17
10.67
11.13
11.51
11.75
11.78
11.57
11.2
10.78
10.49
10.4
10.49
10.62
10.64
10.4
9.9
9.22
8.47
7.7
6.92
6.06
5.11
4.1
3.12
2.26
1.55
0.93
0.28
-0.48
-1.4
-2.43
-3.47
-4.44
-5.22
-5.77
-6.15
-6.46
-6.85
-7.48
-8.43
-9.65
-10.94
-12.07
-12.87
-13.32
-13.59
-13.97
-14.73
-15.96
-17.52
-19.01
-19.9
-19.65
-17.96
-14.83
-10.61
-5.9
-1.35
2.51
5.41
7.34
8.51
9.17
9.54
9.75
9.87
9.96
10.02
10.05
9.98
9.74
9.28
8.6
7.76
6.94
6.31
6.03
6.19
6.8
7.78
8.96
10.07
10.89
11.23
11.05
10.46
9.64
8.79
8.01
7.34
6.74
6.17
5.62
5.05
4.44
3.76
2.95
2.04
1.13
0.34
-0.2
-0.49
-0.6
-0.74
-1.1
-1.75
-2.68
-3.73
-4.74
-5.6
-6.31
-6.95
-7.67
-8.59
-9.74
-11.13
-12.7
-14.39
-16.07
-17.56
-18.54
-18.61
-17.47
-14.98
-11.34
-7.01
-2.63
1.25
4.24
6.28
7.5
8.14
8.45
8.54
8.45
8.2
7.8
7.27
6.67
6.06
5.42
4.75
4.05
3.38
2.84
2.59
2.69
3.14
3.75
4.31
4.59
4.5
4.08
3.49
2.88
2.33
1.83
1.3
0.66
-0.09
-0.92
-1.72
-2.4
-2.91
-3.28
-3.59
-3.94
-4.42
-5.04
-5.75
-6.45
-7.07
-7.6
-8.05
-8.53
-9.09
-9.73
-10.4
-11.02
-11.58
-12.15
-12.9
-13.98
-15.46
-17.15
-18.66
-19.42
-18.91
-16.87
-13.4
-8.99
-4.27
0.13
3.78
6.54
8.43
9.57
10.11
10.17
9.92
9.54
9.18
8.93
8.72
8.4
7.87
7.12
6.29
5.6
5.28
5.41
5.94
6.67
7.41
7.97
8.28
8.31
8.1
7.67
7.09
6.41
5.73
5.13
4.69
4.38
4.14
3.87
3.47
2.87
2.05
1.03
-0.11
-1.25
-2.3
-3.2
-4
-4.82
-5.79
-6.98
-8.33
-9.71
-10.94
-11.94
-12.7
-13.31
-13.9
-14.58
-15.5
-16.79
-18.48
-20.45
-22.33
-23.52
-23.39
-21.55
-18.01
-13.26
-8.05
-3.12
1.06
4.34
6.82
8.66
9.95
10.65
10.77
10.42
9.85
9.35
9.13
9.19
9.38
9.51
9.47
9.29
9.09
9.01
9.11
9.36
9.67
9.94
10.09
10.03
9.73
9.21
8.57
7.94
7.44
7.1
6.82
6.41
5.66
4.45
2.83
0.99
-0.75
-2.09
-2.83
-2.92
-2.51
-1.86
-1.29
-1.03
-1.18
-1.63
-2.23
-2.8
-3.33
-3.91
-4.72
-5.89
-7.48
-9.42
-11.56
-13.78
-15.97
-18.05
-19.96
-21.64
-23.04
-24.06
-24.52
-24.17
-22.76
-20.1
-16.24
-11.52
-6.49
-1.84
1.89
4.37
5.6
5.8
5.34
4.6
3.88
3.41
3.29
3.53
4.04
4.71
5.42
6.1
6.69
7.17
7.51
7.71
7.78
7.8
7.81
7.82
7.76
7.49
6.86
5.88
4.69
3.53
2.69
2.29
2.32
2.62
2.97
3.22
3.29
3.13
2.73
1.98
0.83
-0.77
-2.73
-4.88
-7.03
-9.01
-10.79
-12.46
-14.15
-16.01
-18.07
-20.28
-22.47
-24.46
-26.09
-27.38
-28.45
-29.57
-31.02
-32.97
-35.41
-38.02
-40.22
-41.28
-40.56
-37.69
-32.72
-26.12
-18.64
-11.09
-4.17
1.65
6.11
9.19
11.03
11.94
12.31
12.6
13.18
14.28
15.87
17.74
19.58
21.11
22.22
22.99
23.63
24.46
25.73
27.6
30.03
32.83
35.76
38.59
41.16
43.47
45.6
47.74
50.12
52.93
56.34
60.38
64.93
69.72
74.38
78.5
81.79
84.1
85.52
86.25
86.53
86.45
85.94
84.74
82.57
79.19
74.42
68.22
60.51
51.28
40.53
28.34
14.9
0.43
-14.89
-31.02
-47.94
-65.49
-83.19
-100.03
-114.63
-125.42
-131.12
-131.07
-125.54
-115.68
-103.31
-90.51
-79.08
-70.16
-64.02
-60.13
-57.52
-55.21
-52.55
-49.32
-45.72
-41.99
-38.32
-34.6
-30.6
-26.07
-20.89
-15.15
-9.11
-3.03
2.88
8.48
13.7
18.45
22.59
26.01
28.61
30.44
31.64
32.45
33.06
33.53
33.74
33.39
32.15
29.75
26.16
21.61
16.6
11.69
7.42
4.11
1.83
0.41
-0.42
-0.97
-1.5
-2.22
-3.27
-4.74
-6.62
-8.77
-10.94
-12.86
-14.29
-15.08
-15.25
-14.93
-14.29
-13.5
-12.65
-11.72
-10.57
-8.91
-6.4
-2.75
2.18
8.29
15.25
22.54
29.62
36.01
41.32
45.37
48.1
49.58
50
49.65
48.86
47.97
47.27
46.9
46.87
47.06
47.32
47.49
47.51
47.35
46.99
46.29
45.02
42.93
39.88
35.99
31.58
27.14
23.11
19.78
17.22
15.34
14.04
13.27
12.97
13.08
13.39
13.6
13.41
12.62
11.23
9.39
7.21
4.65
1.42
-2.91
-8.68
-15.95
-24.41
-33.44
-42.31
-50.5
-57.77
-64.19
-69.97
-75.25
-79.94
-83.71
-86.14
-86.85
-85.69
-82.8
-78.52
-73.34
-67.69
-61.88
-56.12
-50.54
-45.27
-40.44
-36.18
-32.54
-29.4
-26.56
-23.76
-20.86
-17.88
-15.03
-12.59
-10.77
-9.69
-9.29
-9.47
-10.14
-11.32
-13.1
-15.66
-19.2
-23.87
-29.7
-36.5
-43.93
-51.46
-58.63
-65.2
-71.29
-77.3
-83.78
-91.12
-99.34
-108.03
-116.48
-123.9
-129.66
-133.48
-135.39
-135.55
-134.13
-131.12
-126.33
-119.49
-110.41
-99.03
-85.49
-70.13
-53.43
-36.05
-18.78
-2.37
12.76
26.7
40.14
54.06
69.22
85.6
102.15
117.09
128.53
135.29
137.24
135.27
130.6
124.15
116.18
106.42
94.6
81.01
66.69
53.08
41.45
32.39
25.61
20.31
15.71
11.56
8.27
6.81
8.27
13.51
22.79
35.74
51.27
67.66
82.71
94.01
99.47
97.84
89.17
74.89
57.49
39.83
24.34
12.59
5.07
1.45
0.92
2.51
5.18
7.91
9.81
10.24
9.11
6.95
4.75
3.58
4.19
6.65
10.4
14.48
17.93
20.18
21.27
21.9
23.27
26.86
34.09
45.94
62.5
82.59
103.6
121.72
132.86
133.93
124.02
104.97
80.76
56.15
35.04
19.3
8.73
1.88
-2.79
-6.12
-8.15
-8.66
-7.71
-5.9
-4.09
-2.95
-2.61
-2.7
-2.69
-2.22
-1.33
-0.34
0.34
0.46
-0.01
-0.96
-2.31
-4.15
-6.76
-10.42
-15.28
-21.11
-27.31
-32.98
-37.16
-39.12
-38.59
-35.76
-31.25
-25.77
-19.88
-13.84
-7.59
-0.94
6.21
13.62
20.66
26.43
30.07
31
29.21
25.18
19.72
13.73
7.85
2.37
-2.78
-7.82
-12.89
-17.71
-21.41
-22.57
-19.53
-11.07
2.85
20.69
39.35
54.85
63.32
62.08
50.39
29.74
3.5
-23.79
-47.49
-63.91
-71.22
-69.78
-61.85
-50.68
-39.34
-29.86
-22.95
-18.33
-15.38
-13.66
-13.04
-13.5
-14.91
-16.93
-19.16
-21.35
-23.49
-25.83
-28.55
-31.66
-34.85
-37.55
-39.12
-38.9
-36.38
-31.41
-24.31
-15.79
-6.8
1.85
9.84
17.38
25.04
33.33
42.4
51.89
61.14
69.48
76.52
82.21
86.7
90.19
92.8
94.6
95.7
96.17
96.08
95.26
93.29
89.52
83.31
74.21
62.29
48.2
33.11
18.45
5.55
-4.61
-11.54
-15.23
-15.96
-14.14
-10.21
-4.53
2.57
10.76
19.66
28.75
37.26
44.16
48.26
48.44
43.96
34.77
21.63
5.96
-10.49
-25.98
-39.18
-49.34
-56.19
-59.86
-60.7
-59.23
-56.03
-51.69
-46.66
-41.07
-34.73
-27.21
-18.07
-7.33
4.28
15.27
23.68
27.63
25.86
18.17
5.4
-10.83
-28.59
-46.07
-61.79
-74.62
-83.68
-88.25
-87.87
-82.58
-73.19
-61.26
-48.9
-38.18
-30.65
-26.98
-27.03
-30.06
-35.09
-41.17
-47.56
-53.93
-60.38
-67.46
-75.83
-85.89
-97.31
-108.93
-119.23
-127.07
-132.48
-136.94
-142.73
-151.78
-164.47
-178.99
-191.95
-199.67
-199.75
-191.93
-178.02
-160.9
-143.28
-126.97
-112.65
-100.19
-88.86
-77.53
-64.77
-49.18
-30.02
-7.95
14.85
35.33
50.89
60.63
65.61
67.98
69.67
71.24
71.95
70.84
67.85
64.43
62.75
64.31
68.61
72.99
73.72
67.87
54.83
36.76
17.55
0.97
-10.89
-18.15
-22.51
-25.85
-28.78
-30.2
-27.65
-18.46
-0.96
24.8
57.19
93.49
130.83
166.77
199.51
227.83
250.82
267.78
278.44
283.11
282.99
279.93
276.04
273.02
271.63
271.55
271.57
270.24
266.32
259.29
249.25
236.79
222.5
206.64
188.81
168.14
143.61
114.73
81.94
46.75
11.39
-21.89
-51.41
-76.41
-96.93
-113.53
-126.91
-137.77
-146.84
-154.94
-162.92
-171.48
-180.85
-190.68
-200.06
-207.78
-212.68
-214.02
-211.65
-205.9
-197.41
-186.85
-174.64
-160.9
-145.64
-128.98
-111.37
-93.66
-76.89
-61.95
-49.34
-39.01
-30.55
-23.45
-17.34
-12.11
-7.79
-4.38
-1.62
1
4.14
8.31
13.69
20.05
26.92
33.81
40.48
46.94
53.41
60.05
66.82
73.44
79.49
84.68
88.95
92.5
95.69
98.79
101.85
104.69
106.95
108.29
108.52
107.68
105.97
103.7
101.15
98.56
96.09
93.75
91.44
88.89
85.64
81.15
74.91
66.68
56.55
44.92
32.41
19.62
7.05
-4.96
-16.22
-26.57
-35.93
-44.23
-51.45
-57.61
-62.77
-66.98
-70.24
-72.51
-73.77
-74.03
-73.34
-71.82
-69.55
-66.64
-63.21
-59.36
-55.26
-51.11
-47.15
-43.61
-40.6
-38.17
-36.23
-34.69
-33.52
-32.77
-32.56
-33
-34.07
-35.64
-37.46
-39.26
-40.83
-42.01
-42.78
-43.17
-43.25
-43.11
-42.83
-42.43
-41.87
-41.11
-40.08
-38.81
-37.35
-35.92
-34.76
-34.14
-34.18
-34.8
-35.66
-36.23
-35.95
-34.44
-31.7
-28.06
-24.04
-20.21
-16.88
-14.14
-11.84
-9.78
-7.83
-6
-4.38
-3.07
-2.1
-1.38
-0.79
-0.23
0.26
0.54
0.41
-0.28
-1.55
-3.27
-5.27
-7.42
-9.75
-12.37
-15.44
-18.99
-22.85
-26.75
-30.36
-33.44
-35.9
-37.8
-39.24
-40.31
-41.1
-41.71
-42.31
-43.15
-44.49
-46.52
-49.19
-52.25
-55.29
-57.86
-59.6
-60.37
-60.26
-59.59
-58.77
-58.28
-58.45
-59.36
-60.73
-61.94
-62.11
-60.27
-55.65
-47.86
-36.99
-23.69
-9.02
5.72
19.27
30.59
39.15
44.91
48.33
50.12
51.07
51.75
52.49
53.34
54.18
54.87
55.31
55.52
55.55
55.47
55.23
54.72
53.71
52.01
49.46
46.04
41.85
37.04
31.83
26.43
21.08
16.12
11.89
8.68
6.62
5.52
4.95
4.4
3.51
2.2
0.66
-0.84
-2.12
-3.19
-4.22
-5.41
-6.84
-8.48
-10.24
-12.05
-13.88
-15.7
-17.45
-19.02
-20.32
-21.28
-21.92
-22.24
-22.12
-21.34
-19.63
-16.83
-12.99
-8.4
-3.53
1.23
5.55
9.32
12.5
15.08
17.06
18.41
19.21
19.62
19.87
20.16
20.57
21.04
21.39
21.46
21.15
20.54
19.75
18.97
18.33
17.87
17.52
17.18
16.74
16.08
15.2
14.09
12.82
11.47
10.11
8.77
7.47
6.2
4.98
3.85
2.84
2.04
1.47
1.14
1.01
0.97
0.91
0.68
0.16
-0.7
-1.9
-3.35
-4.9
-6.4
-7.71
-8.81
-9.77
-10.77
-12.02
-13.68
-15.76
-18.04
-20.18
-21.76
-22.43
-22.02
-20.55
-18.27
-15.5
-12.58
-9.81
-7.37
-5.38
-3.86
-2.75
-1.92
-1.23
-0.58
0.09
0.75
1.31
1.64
1.67
1.41
0.98
0.52
0.19
0.06
0.14
0.36
0.63
0.87
1.01
0.99
0.78
0.43
0.01
-0.37
-0.63
-0.74
-0.81
-1
-1.45
-2.18
-3.07
-3.94
-4.67
-5.27
-5.8
-6.4
-7.11
-7.94
-8.81
-9.66
-10.46
-11.17
-11.78
-12.26
-12.62
-12.96
-13.49
-14.42
-15.83
-17.57
-19.17
-20.01
-19.5
-17.34
-13.62
-8.82
-3.61
1.38
5.68
9.09
11.61
13.36
14.49
15.14
15.41
15.43
15.32
15.17
15.02
14.85
14.6
14.23
13.75
13.24
12.83
12.62
12.65
12.84
13.04
13.1
12.9
12.45
11.83
11.14
10.48
9.89
9.34
8.75
8.03
7.12
5.99
4.72
3.45
2.37
1.6
1.16
0.98
0.88
0.69
0.33
-0.2
-0.81
-1.36
-1.77
-2.04
-2.22
-2.43
-2.78
-3.35
-4.18
-5.26
-6.56
-8.04
-9.66
-11.41
-13.29
-15.3
-17.47
-19.78
-22.14
-24.32
-25.93
-26.49
-25.58
-22.94
-18.67
-13.17
-7.08
-1.12
4.13
8.33
11.41
13.49
14.82
15.63
16.11
16.37
16.49
16.52
16.49
16.42
16.31
16.14
15.88
15.49
14.98
14.4
13.85
13.46
13.32
13.49
13.86
14.31
14.64
14.73
14.57
14.25
13.96
13.84
13.89
13.99
13.97
13.67
13.04
12.2
11.31
10.5
9.81
9.18
8.5
7.67
6.73
5.74
4.78
3.89
3.05
2.17
1.22
0.21
-0.8
-1.75
-2.63
-3.5
-4.45
-5.49
-6.61
-7.72
-8.79
-9.86
-11.07
-12.64
-14.67
-17.1
-19.68
-21.94
-23.38
-23.55
-22.19
-19.37
-15.37
-10.73
-5.99
-1.64
1.98
4.74
6.64
7.8
8.42
8.71
8.9
9.18
9.62
10.2
10.79
11.23
11.37
11.21
10.8
10.24
9.7
9.28
9.07
9.06
9.17
9.28
9.26
9.05
8.62
8.03
7.36
6.63
5.83
4.92
3.87
2.72
1.57
0.57
-0.23
-0.87
-1.49
-2.3
-3.44
-4.9
-6.51
-8.01
-9.17
-9.9
-10.3
-10.59
-11.05
-11.81
-12.87
-14.06
-15.2
-16.14
-16.85
-17.38
-17.78
-18.17
-18.63
-19.3
-20.31
-21.66
-23.19
-24.48
-24.99
-24.23
-21.97
-18.34
-13.78
-8.85
-4.06
0.26
3.95
6.94
9.27
11
12.24
13.15
13.83
14.36
14.72
14.86
14.74
14.42
13.97
13.53
13.18
12.98
12.93
13.05
13.33
13.72
14.12
14.43
14.55
14.44
14.16
13.77
13.31
12.77
12.14
11.38
10.54
9.7
8.95
8.35
7.93
7.66
7.49
7.35
7.21
6.98
6.62
6.09
5.44
4.74
4.1
3.63
3.33
3.13
2.87
2.41
1.63
0.47
-1.07
-2.92
-5
-7.21
-9.51
-11.93
-14.58
-17.67
-21.38
-25.8
-30.91
-36.5
-42.25
-47.8
-52.84
-57.13
-60.57
-63.19
-65.11
-66.53
-67.66
-68.57
-69.14
-69.1
-68.14
-66.08
-62.98
-59.15
-55
-50.79
-46.36
-41.12
-34.14
-24.42
-11.35
5.07
24.07
44.14
63.28
79.45
90.97
96.95
97.54
93.78
87.33
79.96
73.1
67.55
63.47
60.52
58
55.06
50.73
44.06
34.27
21.01
4.55
-14.16
-33.67
-52.37
-68.93
-82.6
-93.37
-101.9
-109.19
-116.06
-122.75
-128.69
-132.77
-133.99
-132.17
-128.39
-124.79
-123.83
-127.3
-135.54
-147.18
-159.47
-169
-172.45
-167.31
-152.32
-127.84
-95.87
-59.73
-23.41
9.45
36.35
56.42
70.25
79.28
85.1
88.87
91.2
92.38
92.73
92.86
93.74
96.47
102.05
111.14
123.92
139.82
157.33
173.82
185.87
190.05
184.2
168.5
145.77
120.76
98.49
82.56
74.09
71.92
73.69
77.18
81.17
85.39
89.9
94.33
97.67
98.51
95.65
88.59
77.68
63.88
48.34
32.12
16.09
1.02
-12.24
-22.79
-29.82
-32.87
-32.12
-28.46
-23.33
-18.37
-14.94
-13.76
-14.69
-16.81
-18.81
-19.32
-17.36
-12.58
-5.2
4.02
14.11
24.09
33.15
40.76
46.57
50.43
52.27
52.1
50.09
46.53
41.87
36.55
30.92
25.21
19.49
13.85
8.5
3.81
0.18
-2.07
-2.89
-2.59
-1.62
-0.4
0.92
2.49
4.51
6.89
8.94
9.41
6.86
0.33
-10.15
-23.4
-37.48
-50.29
-60.2
-66.39
-68.73
-67.62
-63.84
-58.67
-53.97
-51.9
-54.32
-61.96
-74
-88.3
-102.31
-114.26
-123.9
-132.38
-141.32
-151.69
-163.01
-173.33
-179.98
-180.57
-173.73
-159.48
-138.87
-113.53
-85.12
-55.08
-24.55
5.35
33.46
58.56
79.82
97.21
111.87
125.95
141.82
161.12
183.69
207.34
228.24
241.97
244.62
233.69
208.49
170.39
122.88
71.37
22.57
-16.89
-42.19
-51.88
-48.41
-37.38
-25.49
-18.21
-18.09
-24.53
-34.68
-45.22
-53.73
-59.38
-62.73
-64.99
-67.39
-70.88
-76.12
-83.61
-93.63
-105.86
-118.96
-130.42
-137.01
-135.75
-125.04
-105.5
-79.98
-52.77
-28.28
-9.82
1.16
5.08
3.61
-1.09
-6.99
-12.53
-16.58
-18.31
-17.13
-12.78
-5.46
4.05
14.39
23.89
30.9
34.21
33.41
29.09
22.76
16.46
12.18
11.32
14.3
20.56
28.91
38.04
46.88
54.8
61.53
66.96
70.96
73.37
74.11
73.23
71.01
67.9
64.37
60.74
57.2
53.76
50.48
47.45
44.92
43.18
42.4
42.6
43.56
44.89
46.21
47.24
47.87
48.17
48.27
48.32
48.37
48.38
48.2
47.63
46.48
44.65
42.16
39.12
35.74
32.24
28.8
25.48
22.29
19.19
16.12
13.04
9.95
6.84
3.72
0.62
-2.48
-5.59
-8.75
-11.97
-15.25
-18.52
-21.69
-24.65
-27.42
-30.12
-32.98
-36.29
-40.2
-44.62
-49.13
-53.01
-55.46
-55.75
-53.45
-48.61
-41.68
-33.45
-24.79
-16.52
-9.23
-3.25
1.37
4.73
7.11
8.81
10.12
11.23
12.22
13.07
13.71
14.07
14.13
13.93
13.57
13.18
12.96
13.12
13.78
14.97
16.56
18.28
19.78
20.73
20.94
20.36
19.1
17.4
15.52
13.67
11.9
10.2
8.41
6.43
4.25
1.99
-0.14
-1.94
-3.35
-4.44
-5.45
-6.63
-8.18
-10.16
-12.48
-14.97
-17.46
-19.85
-22.14
-24.41
-26.78
-29.37
-32.27
-35.62
-39.46
-43.75
-48.11
-51.86
-54.08
-53.87
-50.71
-44.66
-36.39
-26.96
-17.5
-8.91
-1.69
3.98
8.19
11.18
13.26
14.77
16.04
17.26
18.49
19.55
20.2
20.25
19.6
18.37
16.79
15.16
13.75
12.68
11.97
11.47
10.96
10.3
9.53
8.94
8.95
9.86
11.64
13.9
16.04
17.68
19.04
21.01
24.94
32.08
43.04
57.47
73.94
90.18
103.39
110.72
109.83
99.46
80.07
54.05
25.4
-1.27
-22.04
-34.84
-39.9
-39.21
-35.51
-31.03
-26.89
-23.1
-19.26
-15.27
-11.62
-9.34
-9.4
-12.25
-17.57
-24.42
-31.54
-37.83
-42.47
-44.99
-45.14
-42.75
-37.72
-30.11
-20.3
-9.07
2.38
12.75
20.9
26.22
28.8
29.29
28.67
27.83
27.31
27.23
27.39
27.47
27.22
26.57
25.64
24.67
23.93
23.61
23.81
24.53
25.63
26.93
28.2
29.2
29.77
29.82
29.33
28.35
26.94
25.17
23.11
20.81
18.37
15.87
13.34
10.79
8.14
5.35
2.47
-0.34
-2.86
-4.94
-6.62
-8.17
-9.96
-12.35
-15.48
-19.28
-23.51
-27.87
-32.16
-36.26
-40.16
-43.92
-47.61
-51.34
-55.17
-59.02
-62.57
-65.23
-66.25
-64.96
-61.05
-54.77
-46.85
-38.33
-30.22
-23.22
-17.62
-13.39
-10.32
-8.18
-6.79
-6.02
-5.75
-5.84
-6.14
-6.52
-6.93
-7.32
-7.69
-7.96
-8.02
-7.67
-6.77
-5.28
-3.36
-1.34
0.36
1.4
1.61
1.11
0.14
-0.99
-2.1
-3.18
-4.32
-5.65
-7.22
-8.92
-10.62
-12.19
-13.58
-14.83
-15.99
-17.13
-18.26
-19.42
-20.63
-21.99
-23.58
-25.44
-27.51
-29.62
-31.63
-33.48
-35.3
-37.33
-39.83
-42.8
-45.8
-48.05
-48.57
-46.54
-41.66
-34.21
-24.99
-15.08
-5.51
2.94
9.82
14.98
18.49
20.63
21.75
22.24
22.44
22.57
22.73
22.89
22.97
22.86
22.51
21.92
21.17
20.43
19.89
19.71
19.93
20.4
20.88
21.09
20.84
20.04
18.77
17.16
15.39
13.58
11.77
9.93
8.02
5.99
3.85
1.68
-0.39
-2.28
-3.99
-5.58
-7.18
-8.86
-10.64
-12.49
-14.35
-16.24
-18.23
-20.43
-22.9
-25.61
-28.45
-31.25
-33.94
-36.53
-39.13
-41.89
-44.96
-48.47
-52.47
-57.01
-61.98
-67.11
-71.84
-75.5
-77.32
-76.77
-73.69
-68.42
-61.72
-54.6
-48.13
-43.16
-40.28
-39.71
-41.31
-44.54
-48.47
-51.88
-53.4
-51.86
-46.63
-37.87
-26.49
-13.9
-1.49
9.84
19.89
29.15
38.42
48.4
59.38
71.19
83.38
95.49
107.23
118.45
129.01
138.55
146.41
151.76
153.75
151.63
144.78
132.83
115.72
93.99
69.12
43.43
19.7
0.29
-13.66
-22.62
-28.34
-33.05
-38.45
-45.12
-52.59
-59.88
-66.21
-71.43
-75.96
-80.47
-85.33
-90.46
-95.37
-99.46
-102.48
-104.71
-106.87
-109.72
-113.65
-118.31
-122.65
-125.19
-124.61
-120.17
-111.97
-100.89
-88.29
-75.64
-64.15
-54.45
-46.38
-39.03
-31.03
-21.07
-8.56
5.91
20.6
33.27
42.07
46.36
46.89
45.36
43.47
42.16
41.27
39.91
37.22
32.93
27.65
22.6
19.19
18.7
22.17
30.41
43.94
62.55
84.93
108.6
130.37
147.37
158.06
162.77
163.46
162.84
163.25
165.87
170.58
176.25
181.33
184.27
183.86
179.32
170.4
157.5
141.62
124.15
106.64
90.4
76.32
64.77
55.67
48.55
42.61
36.86
30.3
22.14
12.08
0.46
-11.74
-23.1
-32.14
-37.78
-39.65
-38.2
-34.5
-29.86
-25.33
-21.34
-17.71
-13.82
-8.93
-2.5
5.58
14.87
24.1
31.04
32.86
26.93
12.14
-10.08
-35.69
-59.18
-75.58
-82.35
-80.1
-71.9
-61.46
-51.43
-42.61
-34.37
-25.86
-16.96
-8.54
-1.94
1.87
2.82
1.58
-0.89
-4.03
-7.89
-12.95
-19.56
-27.42
-35.51
-42.35
-46.61
-47.69
-45.99
-42.75
-39.54
-37.65
-37.71
-39.55
-42.46
-45.56
-48.14
-49.84
-50.64
-50.72
-50.29
-49.53
-48.59
-47.62
-46.77
-46.1
-45.53
-44.72
-43.17
-40.34
-35.89
-29.86
-22.61
-14.81
-7.14
-0.14
5.89
10.81
14.67
17.51
19.43
20.53
20.93
20.76
20.12
19.11
17.83
16.49
15.32
14.61
14.53
15.12
16.24
17.63
19.05
20.3
21.24
21.78
21.81
21.28
20.19
18.68
16.97
15.28
13.74
12.35
11.02
9.6
8
6.23
4.34
2.49
0.81
-0.57
-1.63
-2.4
-2.96
-3.39
-3.72
-3.95
-4.09
-4.19
-4.38
-4.84
-5.7
-7
-8.62
-10.39
-12.14
-13.82
-15.54
-17.53
-20.03
-23.19
-26.93
-30.92
-34.52
-36.99
-37.66
-36.15
-32.54
-27.34
-21.28
-15.08
-9.24
-3.98
0.64
4.56
7.62
9.6
10.42
10.24
9.61
9.24
9.76
11.37
13.72
15.97
17.12
16.34
13.37
8.63
3.08
-2.05
-5.75
-7.61
-8.01
-7.96
-8.64
-10.79
-14.2
-17.67
-19.43
-17.79
-11.72
-1.17
12.84
28.28
42.22
51.17
51.79
41.99
22.08
-4.89
-33.96
-59.9
-79.18
-90.81
-96.01
-96.82
-94.69
-89.95
-82.35
-72.07
-60.4
-49.63
-41.99
-38.6
-38.94
-41.11
-42.9
-42.89
-41.07
-38.74
-37.82
-39.95
-45.66
-54
-62.7
-68.77
-69.34
-62.56
-48.14
-27.49
-3.27
21.4
43.84
62.49
77
87.83
95.58
100.51
102.55
101.61
98.18
93.46
89.1
86.6
86.59
88.75
92.02
95.26
97.9
100.14
102.77
106.75
112.72
120.69
129.9
138.91
145.72
148.23
144.72
134.45
117.97
97.1
74.35
52.13
32.08
14.78
-0.08
-13.18
-25.09
-36.05
-45.96
-54.58
-61.69
-67.18
-71.04
-73.49
-74.98
-76.23
-78.21
-81.78
-87.48
-95.22
-104.19
-113.14
-120.67
-125.74
-127.8
-126.97
-123.76
-118.84
-112.86
-106.45
-100.19
-94.72
-90.62
-88.2
-87.33
-87.38
-87.49
-86.99
-85.78
-84.46
-84.02
-85.22
-87.94
-90.78
-91.39
-87.26
-76.83
-60.29
-39.68
-18.17
0.89
14.96
22.8
24.55
21.48
15.47
8.65
2.89
-0.49
-1.11
0.54
3.31
5.96
7.67
8.34
8.48
8.82
10.01
12.34
15.83
20.35
25.66
31.27
36.28
39.46
39.46
35.36
27.16
16
3.83
-7.3
-16.06
-22.4
-27.52
-33.34
-41.68
-53.38
-67.89
-83.02
-95.27
-100.55
-95.44
-78.26
-49.88
-13.34
27.53
69.84
113.01
159.14
212
274.99
348.76
429.58
509.38
577.63
624.46
643.88
635.51
604.3
558.24
505.28
451.03
397.94
346.24
295.57
246.06
198.24
152.04
106.27
58.99
9.03
-42.47
-91.67
-133.31
-162.73
-178.13
-181.37
-177.08
-170.75
-166.65
-166.79
-171.02
-177.98
-186.18
-194.57
-202.59
-209.87
-216.02
-220.67
-223.59
-224.76
-224.33
-222.58
-219.77
-216.14
-211.92
-207.34
-202.67
-198.16
-194.04
-190.42
-187.29
-184.44
-181.46
-177.75
-172.53
-164.96
-154.35
-140.32
-123.13
-103.69
-83.53
-64.41
-48
-35.41
-27.01
-22.46
-20.93
-21.42
-22.99
-25
-27.05
-28.98
-30.69
-32.06
-32.97
-33.13
-32.25
-29.96
-25.96
-20.05
-12.25
-2.88
7.43
17.72
26.84
33.54
36.86
36.33
32.33
26.15
19.77
15.3
14.3
17.18
23.01
29.87
35.58
38.52
38.23
35.48
31.82
28.97
28.1
29.51
32.69
36.61
40.14
42.42
43.01
41.96
39.78
37.35
35.73
36.07
39.21
45.5
54.53
65.24
76.04
85.37
91.96
95.19
94.98
91.64
85.63
77.42
67.5
56.5
45.15
34.23
24.26
15.38
7.32
-0.4
-8.13
-15.83
-22.99
-28.88
-32.82
-34.53
-34.2
-32.36
-29.69
-26.73
-23.77
-20.89
-18.09
-15.47
-13.24
-11.68
-11.03
-11.33
-12.38
-13.82
-15.24
-16.37
-17.08
-17.42
-17.55
-17.64
-17.87
-18.4
-19.38
-20.94
-23.1
-25.76
-28.66
-31.43
-33.65
-34.91
-34.89
-33.43
-30.62
-26.71
-22.11
-17.3
-12.68
-8.59
-5.22
-2.68
-1
-0.1
0.27
0.57
1.33
2.96
5.52
8.59
11.39
13.06
13
11.14
8
4.5
1.72
0.57
1.54
4.55
8.95
13.73
17.8
20.34
21.05
20.2
18.51
16.75
15.55
15.1
15.26
15.61
15.71
15.23
14.03
12.15
9.73
6.96
3.99
0.98
-1.94
-4.65
-7
-8.9
-10.3
-11.29
-12.05
-12.8
-13.73
-14.89
-16.19
-17.38
-18.19
-18.48
-18.24
-17.71
-17.21
-17.03
-17.31
-18
-18.86
-19.58
-19.89
-19.54
-18.38
-16.31
-13.35
-9.67
-5.65
-1.76
1.57
4.05
5.64
6.55
7.05
7.4
7.77
8.19
8.67
9.18
9.7
10.17
10.48
10.52
10.21
9.6
8.83
8.1
7.55
7.2
6.95
6.63
6.14
5.46
4.7
3.98
3.4
2.96
2.63
2.31
1.95
1.48
0.86
0.04
-1.01
-2.25
-3.56
-4.73
-5.58
-6.06
-6.25
-6.38
-6.68
-7.29
-8.2
-9.27
-10.29
-11.14
-11.76
-12.23
-12.67
-13.19
-13.83
-14.58
-15.37
-16.16
-16.95
-17.78
-18.72
-19.72
-20.62
-21.07
-20.66
-19.08
-16.3
-12.58
-8.44
-4.46
-1.07
1.55
3.45
4.8
5.79
6.5
6.94
7.08
6.95
6.66
6.35
6.11
5.94
5.76
5.47
5.01
4.47
4.05
3.95
4.28
5
5.94
6.85
7.54
7.9
7.9
7.56
6.91
6.01
4.94
3.86
2.92
2.24
1.87
1.69
1.52
1.18
0.55
-0.36
-1.43
-2.5
-3.46
-4.27
-4.95
-5.56
-6.17
-6.83
-7.58
-8.42
-9.33
-10.29
-11.26
-12.25
-13.31
-14.51
-15.86
-17.25
-18.39
-18.89
-18.38
-16.69
-13.91
-10.37
-6.49
-2.65
0.87
3.88
6.27
7.99
9.04
9.53
9.64
9.59
9.57
9.6
9.65
9.59
9.34
8.86
8.18
7.4
6.69
6.18
6.01
6.26
6.91
7.82
8.77
9.53
9.92
9.84
9.33
8.5
7.5
6.44
5.38
4.32
3.25
2.18
1.18
0.35
-0.24
-0.63
-0.93
-1.27
-1.72
-2.27
-2.78
-3.17
-3.47
-3.8
-4.37
-5.27
-6.43
-7.67
-8.73
-9.48
-9.96
-10.36
-10.93
-11.86
-13.18
-14.78
-16.44
-17.9
-18.9
-19.21
-18.63
-17
-14.34
-10.8
-6.72
-2.56
1.19
4.16
6.19
7.3
7.74
7.81
7.81
7.92
8.22
8.66
9.12
9.48
9.67
9.69
9.61
9.54
9.56
9.77
10.23
10.92
11.77
12.6
13.15
13.16
12.45
10.98
8.91
6.57
4.33
2.51
1.3
0.68
0.51
0.55
0.63
0.64
0.56
0.43
0.32
0.28
0.3
0.35
0.33
0.15
-0.32
-1.17
-2.41
-4.06
-6.01
-8.13
-10.23
-12.11
-13.64
-14.75
-15.5
-16.04
-16.57
-17.23
-18.02
-18.81
-19.3
-19.2
-18.27
-16.41
-13.7
-10.4
-6.82
-3.29
-0.08
2.65
4.86
6.59
7.86
8.71
9.09
9.04
8.56
7.79
6.86
5.91
4.97
3.97
2.79
1.27
-0.64
-2.83
-5.08
-7.14
-8.84
-10.16
-11.26
-12.45
-14.06
-16.36
-19.46
-23.29
-27.57
-31.9
-35.85
-39.08
-41.58
-43.75
-46.4
-50.45
-56.62
-65.05
-75.15
-85.7
-95.14
-101.92
-104.75
-102.84
-95.93
-84.48
-69.67
-53.31
-37.6
-24.67
-16.08
-12.52
-13.76
-18.85
-26.38
-34.82
-42.56
-48.02
-49.77
-46.68
-38.27
-24.91
-7.82
11.1
29.78
46.43
59.85
69.59
75.8
78.93
79.45
77.76
74.13
68.82
62.15
54.57
46.62
38.81
31.57
25.23
20.04
16.2
13.92
13.32
14.48
17.3
21.56
26.94
33.07
39.62
46.23
52.5
58.02
62.37
65.24
66.54
66.44
65.3
63.53
61.51
59.42
57.32
55.11
52.64
49.73
46.18
41.78
36.41
30.1
23.09
15.79
8.71
2.32
-3.09
-7.42
-10.75
-13.27
-15.22
-16.88
-18.53
-20.43
-22.75
-25.44
-28.22
-30.55
-31.8
-31.39
-29.04
-24.81
-19.06
-12.37
-5.32
1.62
8.2
14.35
20.1
25.54
30.73
35.63
40.14
44.15
47.61
50.58
53.2
55.7
58.25
60.92
63.66
66.34
68.88
71.26
73.58
75.98
78.64
81.74
85.45
89.93
95.17
100.84
106.11
109.8
110.63
107.66
100.7
90.37
78.01
65.17
53.24
43.13
35.07
28.61
22.7
15.92
6.81
-5.68
-21.81
-40.8
-61
-80.27
-96.48
-108.05
-114.14
-114.81
-110.89
-103.79
-95.25
-87.03
-80.53
-76.53
-74.98
-75.05
-75.4
-74.59
-71.52
-65.76
-57.59
-47.92
-37.89
-28.54
-20.46
-13.8
-8.27
-3.43
1.07
5.43
9.57
13.29
16.35
18.59
20.03
20.84
21.26
21.48
21.61
21.66
21.59
21.44
21.37
21.56
22.19
23.25
24.55
25.74
26.46
26.49
25.77
24.42
22.57
20.37
17.87
15.07
12.02
8.8
5.54
2.45
-0.3
-2.59
-4.42
-5.86
-7.09
-8.27
-9.55
-10.98
-12.5
-14.05
-15.55
-16.97
-18.3
-19.54
-20.73
-21.92
-23.27
-24.93
-27.01
-29.44
-31.89
-33.85
-34.8
-34.38
-32.52
-29.47
-25.65
-21.48
-17.3
-13.28
-9.53
-6.14
-3.2
-0.78
1.1
2.51
3.55
4.32
4.82
5.04
4.9
4.46
3.81
3.14
2.61
2.32
2.25
2.32
2.44
2.59
2.79
3.03
3.28
3.4
3.26
2.78
2
1.06
0.09
-0.83
-1.79
-2.94
-4.41
-6.19
-8.13
-10
-11.6
-12.87
-13.87
-14.72
-15.56
-16.44
-17.42
-18.56
-19.92
-21.56
-23.41
-25.27
-26.76
-27.49
-27.13
-25.51
-22.69
-18.87
-14.42
-9.75
-5.23
-1.18
2.25
5.04
7.28
9.1
10.62
11.9
12.93
13.68
14.12
14.21
13.97
13.49
12.88
12.32
11.98
11.97
12.33
12.97
13.74
14.44
14.91
15.07
14.89
14.44
13.78
13.03
12.25
11.47
10.69
9.82
8.8
7.59
6.21
4.73
3.24
1.81
0.47
-0.79
-2.03
-3.29
-4.58
-5.92
-7.3
-8.7
-10.07
-11.39
-12.62
-13.78
-14.96
-16.3
-17.94
-19.97
-22.28
-24.59
-26.44
-27.34
-26.88
-24.89
-21.47
-16.99
-11.95
-6.91
-2.32
1.54
4.59
6.91
8.63
9.89
10.82
11.52
12.07
12.58
13.12
13.64
14.02
14.06
13.67
12.84
11.79
10.82
10.17
9.97
10.16
10.56
10.99
11.29
11.37
11.19
10.73
9.99
9.05
7.98
6.95
6.1
5.53
5.2
4.96
4.59
3.93
2.92
1.64
0.28
-0.94
-1.92
-2.66
-3.3
-3.98
-4.8
-5.75
-6.74
-7.66
-8.43
-9.05
-9.61
-10.23
-11.06
-12.21
-13.73
-15.59
-17.68
-19.75
-21.49
-22.48
-22.28
-20.62
-17.46
-13.07
-7.99
-2.82
1.91
5.9
9.06
11.49
13.33
14.74
15.87
16.82
17.72
18.67
19.66
20.56
21.22
21.45
21.17
20.46
19.5
18.53
17.75
17.28
17.11
17.18
17.39
17.68
17.97
18.22
18.38
18.4
18.25
17.91
17.41
16.77
16
15.09
14
12.7
11.2
9.53
7.76
5.9
3.95
1.83
-0.56
-3.27
-6.29
-9.56
-13.01
-16.62
-20.41
-24.34
-28.28
-31.96
-35.09
-37.49
-39.22
-40.56
-41.96
-43.84
-46.41
-49.56
-52.9
-55.8
-57.6
-57.77
-56
-52.31
-47.01
-40.59
-33.56
-26.42
-19.52
-13.1
-7.26
-2.03
2.64
6.84
10.64
14.12
17.26
20.06
22.46
24.39
25.8
26.63
26.85
26.5
25.73
24.76
23.84
23.17
22.76
22.47
22.05
21.2
19.68
17.38
14.32
10.64
6.54
2.33
-1.63
-4.96
-7.34
-8.6
-8.76
-8.07
-6.93
-5.78
-5.07
-5.16
-6.28
-8.41
-11.23
-14.1
-16.18
-16.65
-15.06
-11.41
-6.23
-0.36
5.18
9.47
11.73
11.54
8.91
4.46
-0.6
-4.58
-5.81
-3.08
3.89
14.43
27.13
40.29
52.4
62.37
69.6
73.89
75.46
74.93
73.31
71.92
72
74.33
78.92
84.98
91.15
95.96
98.15
96.95
92.01
83.43
71.58
57.18
41.16
24.61
8.46
-6.73
-20.95
-34.61
-48.22
-62.01
-75.59
-87.97
-97.84
-104.09
-106.25
-104.69
-100.47
-94.96
-89.34
-84.38
-80.38
-77.44
-75.65
-75.33
-76.83
-80.45
-86.21
-93.84
-102.94
-113.13
-124.09
-135.53
-147.05
-158.11
-168.31
-177.64
-186.66
-196.3
-207.32
-219.75
-232.54
-243.9
-251.92
-255.43
-254.37
-249.64
-242.39
-233.24
-221.94
-207.49
-188.82
-165.37
-137.4
-105.76
-71.44
-35.5
0.55
34.2
61.79
79.32
83.95
75.55
57.32
34.75
13.55
-2.51
-12.69
-18.82
-23.66
-29.16
-35.32
-40.26
-41.12
-35.22
-21.13
0.72
27.99
56.95
83.4
103.87
116.66
122.37
123.75
124.96
130.6
144.68
169.89
207.01
254.61
308.97
364.25
413.27
448.73
465.01
459.76
434.9
396.29
352.13
310.37
276.22
250.82
231.51
213.59
192.65
166.33
134.97
100.88
67.17
36.56
10.85
-9.06
-23
-31.3
-34.76
-34.73
-32.95
-31.27
-31.14
-33.24
-37.31
-42.32
-46.95
-49.97
-50.62
-48.66
-44.32
-38.16
-30.85
-23.14
-15.69
-9.07
-3.76
-0.1
1.62
1.27
-1.11
-5.26
-10.61
-16.4
-21.74
-25.8
-27.92
-27.71
-25.19
-20.77
-15.21
-9.46
-4.44
-0.66
1.86
3.68
5.62
8.39
12.28
17.08
22.24
27.18
31.5
35.1
37.97
40.13
41.54
42.11
41.88
40.97
39.6
37.94
36
33.65
30.73
27.12
22.89
18.14
13.03
7.6
1.86
-4.16
-10.21
-15.82
-20.38
-23.41
-24.74
-24.59
-23.47
-21.91
-20.33
-18.92
-17.68
-16.63
-15.83
-15.38
-15.34
-15.65
-16.12
-16.47
-16.45
-15.92
-14.9
-13.55
-12.13
-10.9
-10.01
-9.42
-8.89
-8.13
-6.91
-5.17
-3.03
-0.73
1.48
3.38
4.81
5.65
5.78
5.16
3.82
1.9
-0.39
-2.84
-5.29
-7.65
-9.88
-11.99
-14.02
-15.97
-17.79
-19.29
-20.28
-20.64
-20.5
-20.33
-20.76
-22.34
-25.26
-29.13
-33.08
-36.06
-37.24
-36.29
-33.41
-29.17
-24.26
-19.21
-14.32
-9.69
-5.41
-1.64
1.38
3.39
4.3
4.23
3.5
2.49
1.52
0.72
0.03
-0.64
-1.39
-2.2
-2.91
-3.34
-3.3
-2.7
-1.62
-0.25
1.11
2.18
2.76
2.82
2.46
1.85
1.17
0.56
0.08
-0.24
-0.41
-0.47
-0.49
-0.59
-0.89
-1.47
-2.27
-3.19
-4.03
-4.67
-5.07
-5.35
-5.77
-6.69
-8.49
-11.45
-15.72
-21.21
-27.57
-34.17
-40.19
-44.8
-47.38
-47.67
-45.81
-42.3
-37.84
-33.12
-28.73
-25.15
-22.77
-21.87
-22.62
-24.98
-28.66
-33.11
-37.68
-41.69
-44.63
-46.17
-46.22
-44.89
-42.35
-38.85
-34.6
-29.76
-24.5
-18.93
-13.18
-7.42
-1.82
3.39
7.99
11.83
14.9
17.37
19.55
21.73
24.11
26.63
29.05
31.09
32.58
33.54
34.18
34.74
35.35
35.99
36.51
36.6
35.95
34.24
31.26
27.05
21.91
16.37
11.1
6.64
3.32
1.14
-0.1
-0.69
-0.87
-0.73
-0.21
0.82
2.53
4.99
8.1
11.54
14.88
17.69
19.72
20.94
21.49
21.57
21.31
20.76
19.9
18.79
17.51
16.2
14.9
13.55
11.99
10.11
7.89
5.48
3.12
1.01
-0.73
-2.07
-3.07
-3.78
-4.29
-4.63
-4.87
-5.05
-5.17
-5.25
-5.24
-5.13
-4.9
-4.6
-4.28
-4.04
-4.02
-4.3
-4.94
-5.93
-7.15
-8.46
-9.75
-10.93
-12.01
-13.04
-14.08
-15.12
-16.12
-17.03
-17.86
-18.6
-19.34
-20.16
-21.14
-22.37
-23.82
-25.37
-26.74
-27.54
-27.31
-25.66
-22.42
-17.64
-11.71
-5.14
1.46
7.59
12.89
17.22
20.58
23.01
24.59
25.3
25.13
24.05
22.15
19.58
16.57
13.36
10.19
7.27
4.72
2.66
1.13
0.09
-0.54
-0.9
-1.16
-1.43
-1.77
-2.17
-2.59
-2.96
-3.22
-3.37
-3.44
-3.51
-3.69
-4.06
-4.67
-5.5
-6.45
-7.48
-8.53
-9.63
-10.85
-12.27
-13.95
-15.88
-17.93
-19.88
-21.36
-22.04
-21.69
-20.27
-18.02
-15.3
-12.54
-10.07
-8.11
-6.72
-5.88
-5.52
-5.49
-5.64
-5.79
-5.82
-5.7
-5.53
-5.47
-5.64
-6.07
-6.63
-7.13
-7.42
-7.43
-7.21
-6.88
-6.57
-6.33
-6.19
-6.12
-6.15
-6.32
-6.71
-7.31
-8.05
-8.78
-9.37
-9.75
-9.98
-10.22
-10.62
-11.27
-12.16
-13.21
-14.31
-15.35
-16.3
-17.09
-17.61
-17.68
-17.09
-15.71
-13.55
-10.76
-7.67
-4.59
-1.8
0.56
2.46
3.95
5.02
5.69
5.97
5.9
5.62
5.32
5.16
5.2
5.38
5.59
5.72
5.75
5.74
5.78
5.9
6.07
6.18
6.12
5.82
5.29
4.62
3.84
3.01
2.12
1.15
0.08
-1.07
-2.24
-3.38
-4.44
-5.41
-6.35
-7.34
-8.43
-9.61
-10.78
-11.82
-12.62
-13.16
-13.5
-13.78
-14.19
-14.9
-15.99
-17.45
-19.12
-20.71
-21.89
-22.34
-21.92
-20.64
-18.71
-16.42
-14.06
-11.82
-9.82
-8.13
-6.73
-5.6
-4.66
-3.75
-2.69
-1.36
0.3
2.17
4.07
5.79
7.2
8.31
9.25
10.21
11.3
12.55
13.88
15.13
16.18
16.95
17.48
17.82
18.06
18.18
18.19
18.03
17.71
17.28
16.79
16.29
15.81
15.31
14.75
14.14
13.45
12.72
11.98
11.22
10.46
9.65
8.83
8
7.2
6.42
5.61
4.65
3.48
2.08
0.55
-0.96
-2.31
-3.48
-4.56
-5.75
-7.23
-9.11
-11.35
-13.81
-16.17
-18.07
-19.12
-19.05
-17.78
-15.5
-12.56
-9.4
-6.36
-3.68
-1.43
0.37
1.71
2.6
3.13
3.47
3.81
4.32
5
5.71
6.25
6.48
6.43
6.23
6.06
6.01
6.1
6.25
6.42
6.63
6.96
7.43
7.98
8.47
8.76
8.73
8.39
7.8
7.07
6.27
5.48
4.73
4.12
3.66
3.33
3.02
2.54
1.75
0.6
-0.8
-2.3
-3.7
-4.9
-5.9
-6.75
-7.55
-8.4
-9.34
-10.39
-11.48
-12.54
-13.47
-14.24
-14.9
-15.58
-16.44
-17.56
-18.89
-20.24
-21.33
-21.88
-21.68
-20.59
-18.6
-15.8
-12.4
-8.75
-5.26
-2.28
-0.01
1.57
2.69
3.58
4.43
5.21
5.78
6.03
5.88
5.43
4.78
4.02
3.16
2.11
0.81
-0.67
-2.15
-3.43
-4.33
-4.85
-5.09
-5.27
-5.54
-5.94
-6.37
-6.65
-6.61
-6.13
-5.21
-3.95
-2.49
-0.99
0.42
1.64
2.59
3.25
3.61
3.7
3.54
3.13
2.45
1.42
-0.04
-2.02
-4.54
-7.59
-11.15
-15.18
-19.67
-24.62
-30
-35.8
-41.94
-48.36
-54.99
-61.78
-68.67
-75.6
-82.53
-89.44
-96.44
-103.69
-111.35
-119.46
-127.78
-135.8
-142.78
-147.99
-150.95
-151.54
-150.08
-147.13
-143.38
-139.35
-135.21
-130.68
-125.03
-117.23
-106.3
-91.55
-72.9
-51
-27.07
-2.67
20.75
42.14
61.02
77.45
91.9
104.95
117.14
128.81
140.07
150.78
160.65
169.32
176.44
181.78
185.22
186.79
186.58
184.75
181.41
176.7
170.83
164.11
157.05
150.23
144.13
138.82
133.81
127.97
119.95
108.72
94.25
77.73
61.37
47.49
37.55
31.41
27.32
22.62
14.84
2.7
-13.44
-31.68
-49.37
-63.89
-73.45
-77.38
-76.16
-71.17
-64.42
-58.28
-55.01
-56.07
-61.45
-69.34
-76.5
-79.49
-76.11
-66.53
-53.32
-40.3
-30.82
-26.18
-25.25
-25.3
-23.59
-18.71
-11.07
-2.41
5.28
10.7
13.57
14.38
13.8
12.13
9.15
4.37
-2.46
-10.9
-19.72
-27.15
-31.45
-31.56
-27.5
-20.35
-11.81
-3.57
3.24
8.18
11.38
13.04
13.22
11.78
8.57
3.73
-2.26
-8.69
-14.95
-20.75
-26.17
-31.48
-36.93
-42.6
-48.41
-54.24
-59.99
-65.61
-71.01
-76.05
-80.51
-84.22
-87.04
-88.89
-89.63
-88.96
-86.44
-81.57
-74.06
-64.03
-52.04
-38.95
-25.64
-12.76
-0.65
10.65
21.19
30.98
40
48.26
55.91
63.29
70.88
79.07
88.07
97.73
107.66
117.33
126.29
134.29
141.29
147.28
152.09
155.28
156.15
154.02
148.61
140.3
130.22
119.93
110.98
104.37
100.32
98.25
97.17
96.16
94.68
92.77
90.83
89.42
89.02
90.01
92.68
96.95
101.97
105.88
105.96
99.61
85.58
64.72
39.89
14.62
-8.51
-28.83
-47.42
-65.76
-84.24
-101.58
-115.31
-123.23
-124.65
-120.77
-113.97
-106.57
-99.76
-93.3
-85.9
-76.09
-63.01
-46.75
-28.2
-8.58
11.21
30.82
50.31
69.77
88.75
106.15
120.44
130.31
135.03
134.53
128.9
118.16
102.32
81.98
58.87
35.77
15.64
0.26
-10.69
-19.45
-28.92
-41.05
-55.87
-71.77
-86.78
-99.81
-111.12
-121.54
-131.31
-139.08
-142.23
-138.15
-125.71
-106.25
-83.27
-61.15
-43.59
-32.33
-26.85
-24.9
-23.56
-20.25
-13.53
-3.33
9.18
22.11
33.47
41.81
46.56
48.13
47.63
46.47
46.03
47.46
51.67
59.19
69.98
83.17
97.13
109.74
119.1
124.16
125
122.66
118.5
113.57
108.26
102.43
95.8
88.36
80.47
72.7
65.48
58.77
52.01
44.38
35.18
24.16
11.67
-1.51
-14.48
-26.54
-37.44
-47.28
-56.21
-64.2
-70.94
-75.99
-79.15
-80.68
-81.29
-81.82
-82.81
-84.24
-85.67
-86.52
-86.52
-85.95
-85.46
-85.71
-87.01
-89.07
-91.2
-92.62
-92.82
-91.71
-89.56
-86.77
-83.65
-80.29
-76.59
-72.39
-67.57
-62.11
-56.07
-49.57
-42.71
-35.61
-28.37
-21.15
-14.14
-7.59
-1.8
2.92
6.32
8.29
8.9
8.35
6.97
5.06
2.94
0.86
-0.95
-2.23
-2.75
-2.36
-1.03
1.11
3.81
6.73
9.61
12.27
14.59
16.52
17.94
18.74
18.75
17.88
16.13
13.67
10.76
7.72
4.9
2.54
0.87
0.09
0.38
1.83
4.41
7.87
11.73
15.39
18.23
19.79
19.79
18.2
15.09
10.62
4.98
-1.67
-9.21
-17.65
-27.11
-37.69
-49.33
-61.69
-74.06
-85.5
-95.02
-101.82
-105.3
-105.13
-101.23
-93.87
-83.76
-72.11
-60.4
-50
-41.71
-35.55
-30.85
-26.66
-22.18
-17.07
-11.38
-5.36
0.88
7.42
14.48
22.28
30.9
40.3
50.39
61.05
72.14
83.45
94.67
105.44
115.39
124.27
131.94
138.33
143.27
146.48
147.61
146.39
142.82
137.23
130.22
122.36
114.03
105.3
96.04
86.1
75.48
64.41
53.22
42.21
31.61
21.5
11.99
3.25
-4.47
-10.95
-16.07
-19.92
-22.81
-25.15
-27.31
-29.57
-32
-34.52
-36.97
-39.2
-41.08
-42.57
-43.61
-44.12
-44.05
-43.38
-42.24
-40.87
-39.52
-38.33
-37.27
-36.18
-34.89
-33.35
-31.71
-30.21
-29.04
-28.25
-27.7
-27.14
-26.34
-25.18
-23.66
-21.86
-19.87
-17.77
-15.59
-13.35
-11.02
-8.57
-5.97
-3.22
-0.38
2.45
5.18
7.76
10.15
12.34
14.26
15.78
16.75
17.08
16.82
16.15
15.34
14.63
14.13
13.79
13.48
13.03
12.34
11.35
10.01
8.27
6.03
3.24
-0.07
-3.77
-7.59
-11.24
-14.44
-17.01
-18.91
-20.22
-21.11
-21.73
-22.22
-22.65
-23.05
-23.43
-23.86
-24.38
-25.02
-25.77
-26.55
-27.28
-27.94
-28.59
-29.36
-30.37
-31.7
-33.3
-35.01
-36.66
-38.12
-39.33
-40.35
-41.26
-42.1
-42.84
-43.39
-43.61
-43.44
-42.85
-41.84
-40.47
-38.72
-36.59
-34.03
-31.07
-27.81
-24.41
-21
-17.68
-14.41
-11.03
-7.42
-3.47
0.7
4.83
8.62
11.81
14.38
16.51
18.64
21.21
24.6
28.92
33.94
39.17
43.95
47.69
50.02
50.9
50.49
49.08
46.85
43.82
39.91
34.99
29.05
22.22
14.79
7.11
-0.45
-7.58
-14.07
-19.86
-25.07
-29.99
-34.99
-40.32
-46.04
-51.91
-57.45
-62.1
-65.33
-66.74
-66.12
-63.45
-59.01
-53.31
-47.14
-41.34
-36.67
-33.54
-32
-31.72
-32.26
-33.21
-34.33
-35.56
-36.91
-38.36
-39.83
-41.11
-41.91
-41.86
-40.6
-37.77
-33.25
-27.12
-19.76
-11.76
-3.68
4.03
11.16
17.69
23.69
29.19
34.17
38.57
42.37
45.62
48.4
50.78
52.8
54.43
55.62
56.38
56.75
56.77
56.36
55.33
53.35
50.09
45.27
38.79
30.8
21.7
12.07
2.68
-5.72
-12.52
-17.35
-20.19
-21.32
-21.24
-20.58
-19.95
-19.82
-20.45
-21.84
-23.77
-25.96
-28.23
-30.66
-33.61
-37.49
-42.52
-48.43
-54.36
-59.12
-61.46
-60.57
-56.24
-48.9
-39.46
-29.01
-18.65
-9.2
-1.17
5.3
10.45
14.7
18.48
22.12
25.7
29.1
32.11
34.52
36.19
37.11
37.32
36.95
36.14
35.09
33.92
32.65
31.18
29.37
27.23
25.01
23.22
22.4
22.8
24.21
25.94
27.1
26.92
25.01
21.45
16.6
10.96
4.99
-0.89
-6.36
-11.2
-15.35
-18.94
-22.28
-25.78
-29.81
-34.59
-40.17
-46.42
-53.1
-59.85
-66.2
-71.69
-75.84
-78.3
-78.92
-77.73
-74.93
-70.85
-65.84
-60.29
-54.52
-48.75
-42.98
-37.09
-30.86
-24.2
-17.2
-10.22
-3.8
1.57
5.52
7.92
8.93
8.96
8.61
8.62
9.64
12.05
15.71
19.93
23.66
25.86
25.95
23.98
20.65
17.01
14.04
12.36
12.09
12.95
14.48
16.21
17.79
19.08
19.97
20.39
20.28
19.58
18.28
16.48
14.39
12.22
10.12
8.1
5.99
3.59
0.68
-2.81
-6.78
-10.98
-15.09
-18.72
-21.55
-23.28
-23.68
-22.63
-20.13
-16.33
-11.51
-6.07
-0.41
5.12
10.24
14.77
18.6
21.69
24.05
25.75
26.81
27.23
26.94
25.9
24.15
21.81
19.12
16.31
13.5
10.71
7.85
4.82
1.62
-1.65
-4.85
-7.83
-10.6
-13.3
-16.19
-19.59
-23.79
-28.97
-35.11
-41.99
-49.23
-56.4
-63.23
-69.64
-75.65
-81.26
-86.13
-89.45
-89.87
-85.76
-75.64
-58.75
-35.5
-7.6
22.2
50.7
74.97
93.05
104.29
109.59
111.23
112.35
116.05
124.42
137.63
153.71
169.26
180.83
186.29
185.62
180.47
173.08
165.01
156.67
147.66
137.61
126.79
116.07
106.27
97.38
88.35
77.46
63.19
44.92
23.31
-0.06
-23.29
-44.83
-63.83
-80.13
-93.91
-105.41
-114.63
-121.37
-125.49
-127.15
-126.98
-126.02
-125.34
-125.72
-127.31
-129.65
-131.83
-132.88
-132.13
-129.35
-124.8
-118.91
-112.05
-104.39
-95.93
-86.71
-76.99
-67.21
-57.89
-49.25
-41.15
-33.08
-24.41
-14.81
-4.41
6.15
15.91
24.02
30.07
34.22
37.16
39.78
42.75
46.33
50.3
54.17
57.48
60.12
62.31
64.49
67.04
70.1
73.51
76.99
80.32
83.48
86.58
89.7
92.75
95.39
97.15
97.6
96.61
94.33
91.14
87.42
83.35
78.94
74.08
68.78
63.28
58.05
53.63
50.4
48.44
47.35
46.41
44.71
41.48
36.33
29.36
21.11
12.29
3.59
-4.57
-11.91
-18.24
-23.23
-26.51
-27.78
-27.06
-24.81
-21.84
-19.07
-17.21
-16.49
-16.71
-17.31
-17.68
-17.34
-16.01
-13.62
-10.2
-5.9
-0.9
4.44
9.69
14.33
17.98
20.42
21.75
22.23
22.25
22.15
22.14
22.29
22.49
22.49
21.96
20.56
18.08
14.57
10.36
5.96
1.88
-1.51
-4.08
-5.95
-7.3
-8.34
-9.17
-9.82
-10.31
-10.56
-10.48
-9.85
-8.5
-6.31
-3.4
-0.15
2.95
5.42
7.03
7.85
8.23
8.59
9.27
10.37
11.79
13.31
14.61
15.46
15.61
14.85
12.97
9.84
5.44
-0.09
-6.51
-13.51
-20.89
-28.56
-36.57
-44.95
-53.68
-62.61
-71.45
-79.91
-87.69
-94.53
-100.22
-104.53
-107.31
-108.53
-108.29
-106.75
-104.01
-99.95
-94.23
-86.36
-75.92
-62.87
-47.62
-31.01
-14.1
2.14
17.03
30.25
41.87
52.2
61.72
70.94
80.22
89.64
98.94
107.56
114.95
120.82
125.47
129.68
134.42
140.4
147.7
155.78
163.77
170.91
176.82
181.61
185.53
188.63
190.45
190.06
186.18
177.61
163.66
144.4
121.03
95.81
71.92
52.92
41.97
40.84
49.05
63.65
79.78
92.11
96.68
92.23
80.4
64.56
48.14
33.18
19.95
7.68
-4.21
-15.34
-24.41
-29.98
-31.49
-29.76
-26.79
-25.03
-26.55
-32.33
-42.09
-54.38
-66.99
-77.68
-84.89
-88.34
-89.07
-88.92
-89.6
-91.77
-94.76
-96.84
-96.2
-91.74
-83.71
-73.78
-64.46
-58.44
-57.7
-62.97
-73.47
-87.24
-101.79
-114.98
-125.66
-133.98
-141.05
-148.24
-156.42
-165.53
-174.71
-182.93
-189.68
-195.44
-201.49
-209.33
-219.79
-232.4
-245.17
-255.01
-258.59
-253.28
-237.81
-212.56
-179.33
-140.88
-100.31
-60.61
-24.31
6.65
30.89
47.68
56.93
59.46
57.15
52.9
50.23
52.4
61.41
77.15
97.2
117.53
133.84
143.05
144.24
138.63
128.77
117.29
105.86
94.97
84.28
73.45
62.76
53.28
46.59
44.31
47.82
58.15
75.84
100.43
129.59
158.65
180.99
189.77
180.26
151.85
108.66
58.45
10.17
-28.67
-53.71
-64.23
-62.25
-51.31
-35.21
-17.35
-0.49
13.33
22.72
27.03
26.27
21.26
13.53
5.23
-1.31
-4.17
-2.42
3.71
13.16
24.37
35.48
44.16
47.62
43.14
29.28
7.12
-19.28
-43.92
-61.04
-67.6
-64.44
-55.71
-46.64
-41.14
-40.37
-43.15
-47.45
-51.88
-56.25
-60.99
-66.22
-71.17
-74.52
-75.14
-72.92
-68.96
-65.05
-62.73
-62.57
-63.96
-65.49
-65.8
-64.19
-60.86
-56.71
-52.71
-49.51
-47.14
-45.07
-42.56
-38.91
-33.74
-27.03
-19.09
-10.51
-2.04
5.4
10.98
14.11
14.68
13.11
10.21
6.83
3.57
0.59
-2.29
-5.43
-9.12
-13.44
-18.23
-23.23
-28.14
-32.68
-36.75
-40.35
-43.67
-46.92
-50.25
-53.65
-56.94
-59.83
-62.1
-63.69
-64.68
-65.2
-65.37
-65.2
-64.62
-63.54
-61.94
-59.84
-57.36
-54.59
-51.61
-48.34
-44.56
-39.94
-34.22
-27.4
-19.83
-12.14
-5
1.2
6.52
11.39
16.28
21.42
26.61
31.36
35.18
37.85
39.48
40.35
40.74
40.78
40.5
40
39.45
39.03
38.78
38.42
37.48
35.51
32.32
28.16
23.64
19.5
16.42
14.84
14.97
16.73
19.87
23.9
28.2
32.13
35.24
37.32
38.49
39.03
39.21
39.08
38.38
36.64
33.26
27.75
19.94
10.08
-1.13
-12.62
-23.29
-32.22
-38.94
-43.46
-46.11
-47.34
-47.49
-46.76
-45.25
-43
-40.06
-36.44
-31.99
-26.47
-19.61
-11.39
-2.12
7.47
16.55
24.42
30.76
35.7
39.63
43.02
46.21
49.29
52.19
54.75
56.8
58.24
59.04
59.22
58.85
57.97
56.55
54.51
51.77
48.35
44.41
40.23
36.12
32.26
28.64
25.17
21.74
18.36
15.15
12.26
9.71
7.28
4.57
1.18
-3.03
-7.81
-12.53
-16.43
-18.93
-19.97
-20.06
-20.11
-21.1
-23.66
-27.91
-33.38
-39.32
-44.93
-49.63
-53.07
-55.09
-55.55
-54.38
-51.61
-47.54
-42.76
-38.11
-34.35
-31.91
-30.66
-29.97
-28.97
-26.88
-23.34
-18.45
-12.73
-6.77
-1.1
4.04
8.64
12.81
16.64
20.18
23.4
26.29
28.88
31.23
33.36
35.15
36.37
36.82
36.45
35.48
34.33
33.4
32.92
32.87
33.07
33.25
33.25
33.01
32.55
31.95
31.26
30.52
29.76
28.98
28.09
26.97
25.49
23.55
21.2
18.58
15.89
13.31
11.01
9.06
7.48
6.22
5.13
4
2.63
0.86
-1.35
-3.92
-6.66
-9.43
-12.09
-14.58
-16.91
-19.11
-21.22
-23.32
-25.48
-27.79
-30.28
-32.88
-35.41
-37.57
-39.03
-39.51
-38.81
-36.87
-33.75
-29.59
-24.61
-19.03
-13.07
-6.93
-0.78
5.14
10.62
15.42
19.39
22.5
24.86
26.65
28.06
29.14
29.83
30
29.51
28.39
26.81
25.06
23.46
22.26
21.52
21.18
21.02
20.84
20.49
19.91
19.08
17.99
16.65
15.09
13.44
11.88
10.64
9.83
9.45
9.31
9.17
8.78
8
6.83
5.35
3.71
2.09
0.62
-0.63
-1.65
-2.49
-3.22
-3.9
-4.58
-5.29
-6.09
-7.05
-8.24
-9.69
-11.3
-12.94
-14.49
-15.95
-17.47
-19.34
-21.8
-24.92
-28.45
-31.87
-34.53
-35.86
-35.51
-33.45
-29.94
-25.4
-20.34
-15.29
-10.7
-6.88
-3.95
-1.79
-0.1
1.41
2.93
4.41
5.62
6.27
6.15
5.32
4.08
2.92
2.25
2.31
2.99
3.99
4.9
5.42
5.52
5.43
5.51
6.04
7.04
8.22
9.15
9.42
8.87
7.67
6.22
4.97
4.39
4.86
6.68
9.98
14.56
19.81
24.73
28.26
29.71
29.12
27.32
25.55
24.92
25.89
28.16
31.05
33.91
36.49
39.02
41.83
45.01
48.13
50.32
50.64
48.44
43.71
37.05
29.39
21.61
14.18
6.99
-0.42
-8.48
-17.21
-25.99
-33.75
-39.32
-41.97
-41.6
-38.82
-34.56
-29.79
-25.24
-21.32
-18.22
-16.04
-14.78
-14.26
-14.18
-14.12
-13.68
-12.66
-11.01
-8.89
-6.46
-3.85
-1.11
1.79
4.86
7.96
10.79
12.93
13.88
13.25
11
7.45
3.23
-0.85
-4.13
-6.29
-7.48
-8.2
-9.16
-11.09
-14.49
-19.51
-25.86
-32.83
-39.54
-45.11
-48.98
-50.98
-51.25
-50.13
-48.01
-45.2
-41.95
-38.51
-35.09
-31.88
-29.02
-26.54
-24.49
-22.95
-22.1
-22.13
-23.12
-24.91
-27.04
-28.81
-29.53
-28.68
-26.16
-22.27
-17.66
-13.08
-9.13
-6.16
-4.18
-2.92
-1.94
-0.76
0.96
3.32
6.16
9.14
11.9
14.21
16.02
17.33
18.15
18.41
18.07
17.23
16.24
15.57
15.65
16.63
18.33
20.35
22.27
23.82
24.93
25.62
26.05
26.4
26.93
27.93
29.55
31.72
34.1
36.3
38.02
39.29
40.31
41.24
41.99
42.1
41.01
38.27
33.86
28.1
21.55
14.79
8.34
2.76
-1.37
-3.59
-3.71
-2.14
0.21
2.15
2.65
1.24
-1.87
-5.96
-10.19
-13.95
-16.98
-19.29
-21.05
-22.35
-23.21
-23.61
-23.56
-23.17
-22.62
-22.1
-21.68
-21.3
-20.74
-19.76
-18.12
-15.78
-12.84
-9.61
-6.42
-3.59
-1.26
0.62
2.22
3.71
5.17
6.53
7.61
8.29
8.58
8.61
8.56
8.55
8.56
8.52
8.3
7.89
7.32
6.68
6.05
5.47
4.95
4.5
4.13
3.79
3.41
2.85
2.04
0.97
-0.29
-1.62
-2.94
-4.19
-5.36
-6.44
-7.38
-8.19
-8.96
-9.89
-11.21
-13.06
-15.34
-17.72
-19.74
-20.95
-21.06
-20.03
-17.94
-14.95
-11.16
-6.67
-1.68
3.47
8.33
12.53
15.94
18.74
21.29
23.89
26.58
29.19
31.44
33.17
34.49
35.69
37.05
38.68
40.49
42.32
44.16
46.18
48.6
51.43
54.26
56.23
56.4
54.17
49.78
44.36
39.67
37.4
38.52
42.81
48.79
54.26
57.02
55.57
49.54
39.74
27.77
15.51
4.58
-4.01
-10.06
-14.18
-17.69
-22.35
-30.08
-42.37
-59.65
-80.72
-102.7
-121.73
-134.34
-138.72
-135.37
-126.62
-115.32
-103.59
-92.1
-80.48
-68.24
-55.68
-44.05
-35.07
-29.96
-28.87
-30.87
-34.48
-38.31
-41.45
-43.53
-44.47
-44.22
-42.59
-39.15
-33.32
-24.64
-12.94
1.33
17.17
33.11
47.64
59.53
68.09
73.07
74.54
72.7
67.79
60.22
50.62
39.93
29.32
19.9
12.51
7.48
4.55
3.09
2.27
1.39
0.05
-1.76
-3.72
-5.42
-6.52
-6.96
-6.92
-6.66
-6.37
-6.02
-5.4
-4.32
-2.69
-0.66
1.48
3.42
4.98
6.14
7.01
7.71
8.33
8.86
9.19
9.18
8.66
7.54
5.78
3.5
0.89
-1.71
-3.96
-5.56
-6.45
-6.82
-7.12
-7.93
-9.71
-12.56
-16.2
-19.96
-23.1
-25
-25.39
-24.3
-22.05
-19.02
-15.64
-12.31
-9.35
-7.01
-5.3
-4.06
-2.99
-1.8
-0.33
1.39
3.17
4.8
6.18
7.37
8.57
10.02
11.84
13.96
16.12
18.04
19.47
20.35
20.81
21.04
21.26
21.51
21.74
21.77
21.47
20.79
19.83
18.74
17.69
16.78
16.04
15.36
14.59
13.51
12.01
10.1
7.96
5.86
4.11
2.87
2.11
1.63
1.2
0.61
-0.22
-1.33
-2.78
