11.126
-0.63755
28.707
18.019
-0.99316
-3.4064
26.36
6.4014
-3.552
4.0216
-7.5926
-9.6949
0.32876
10.027
-15.852
11.355
-9.8443
21.051
-23.297
5.719
59.102
73.489
43.405
-124.42
-27.059
-67.386
-41.984
85.241
52.097
-62.026
-40.748
58.275
-32.005
-38.315
11.116
21.709
62.975
-59.721
51.575
106.62
65.057
22.506
-119.37
-116.31
-203.06
114
134.32
26.205
23.857
-138.86
-26.621
59.662
37.172
6.0241
33.86
-114.49
-33.257
30.83
60.355
36.729
-11.063
-50.661
-44.628
-2.2278
4.2576
39.811
21.812
42.057
-17.365
4.8277
3.7245
4.6883
-5.8946
14.929
34.741
-46.821
5.5639
-5.8974
-13.894
31.38
69.659
83.09
-103.18
-51.732
13.873
-128.26
-1.3345
47.986
49.768
26.348
-67.312
21.987
-22.514
34.536
-1.955
78.112
108.44
23.797
-121.85
-202.96
-1.4271
8.1238
36.697
28.907
18.451
39.168
21.242
-22.551
-41.263
28.665
48.169
16.266
-20.036
-40.316
-12.718
1.7226
-43.7
54.5
-1.0534
1.1828
35.14
-13.901
14.347
-59.593
28.117
27.756
-14.952
-51.53
-71.729
62.418
26.669
122.1
-6.3041
14.198
5.2781
-157.37
-89.306
92.836
81.626
-124.42
-91.053
97.626
43.867
-11.237
-14.5
-48.259
151.09
-9.5103
-135.5
29.945
42.262
0.023021
-1.8535
52.956
13.156
19.325
-1.549
-77.342
-38.79
-33.682
113.14
16.77
-50.213
8.7152
-16.504
59.248
2.8949
20.842
11.304
59.953
-83.234
-80.385
132.64
78.639
-295.43
-23.292
38.338
64.9
55.511
7.6703
2.1325
-19.253
-8.8716
-2.5823
18.028
-29.401
-14.725
-18.88
10.247
-1.2073
-0.29112
8.1482
-5.5025
30.139
5.8676
10.546
6.0262
-4.8287
-4.9951
-7.7315
8.3126
-12.111
11.164
7.7543
-30.052
24.984
13.827
23.009
38.486
21.184
6.8729
-85.914
32.677
9.1582
14.432
-25.366
-24.358
-8.2577
-14.556
-34.477
6.4783
19.825
-13.54
-13.209
7.5023
-7.1275
2.6257
48.189
-58.081
8.0153
24.012
-5.5111
-1.8152
-29.774
-30.968
-55.037
-31.606
41.666
121.29
73.509
18.262
-140.48
18.582
185.18
-43.394
-63.142
-160.77
-47.575
134.92
-59.507
-41.157
381.17
-9.6598
-191.71
-52.456
-69.816
-30.995
-49.624
-231.68
-215.15
278.95
274.01
108.9
179.45
-198.18
-328.11
96.074
201.77
-35.443
-35.545
18.154
178.27
178.8
-9.0982
-106.72
-248.91
-30.875
-3.1723
97.509
11.461
30.431
3.7969
-133.66
-71.202
49.977
16.799
17.688
-55.849
18.708
-94.114
-127.61
165.83
8.2341
75.941
47.627
-61.892
-6.7766
26.594
95.157
36.548
-46.836
-56.976
22.481
68.609
194.63
6.9437
-217.71
-139.24
-23.438
88.786
-76.904
100.44
-51.179
-28.882
145.26
111.26
26.696
-180.9
-21.176
67.071
-113.45
60.05
-18.496
-140.6
14.81
73.246
-24.356
25.743
36.057
20.288
73.772
-41.76
40.503
-68.002
21.657
80.217
-116.21
-42.723
-10.035
22.642
169.55
82.963
-199.95
-175.92
145.55
106.61
53.044
-77.302
-72.735
-29.978
-50.462
5.012
-53.511
-57.387
-9.5418
27.866
16.821
7.5686
68.643
23.92
19.589
56.582
182.88
77.144
-120.65
-118.32
-84.58
-85.806
-37.059
115.46
50.068
70.779
170.94
-90.086
82.33
-84.435
-127.16
-39.17
-57.319
-63.025
-104.94
-112.18
120.03
177.14
58.531
-69.207
-4.5357
-47.573
23.852
4.8848
25.271
10.847
32.842
118.21
58.291
-28.92
-107.11
-51.97
-6.6634
-3.3456
27.682
147.07
-5.7064
-98.586
10.757
2.2359
-40.451
-165.08
-1.2651
128.79
115.53
-29.202
-47.161
-7.3964
-13.757
0.98675
-9.8286
9.335
54.546
37.34
18.477
10.071
-66.842
-114.85
101.51
120.11
37.012
-241.44
13.625
82.145
112.47
47.346
-191.09
-42.381
9.7819
-82.059
170.65
56.263
-166.44
-93.415
15.434
140.22
16.122
-23.522
-25.034
66.183
4.2142
-172.53
53.788
85.231
-16.859
10.698
35.237
80.28
-84.752
-126.05
2.0054
8.2599
50.289
-27.758
60.899
-27.513
155.89
11.129
-108.67
-205.24
0.10599
58.835
-26.904
11.058
50.794
10.117
18.258
-3.3911
9.1253
0.37174
-8.2006
12.371
-0.05645
37.695
19.46
39.657
-20.055
44.798
-23.554
-46.688
36.259
63.442
35.696
-49.714
-71.083
-5.9797
-10.406
79.242
-49.489
63.05
-23.926
-84.646
43.571
-66.051
30.659
2.8111
-164.92
89.075
71.579
54.408
-124.21
-23.392
4.5773
-63.639
-48.04
-23.259
263.71
70.914
-321.58
151.54
129.79
156.38
-303.19
-150.77
134.03
-2.8225
33.866
125.95
431.24
-195.49
-290.93
-250.89
-115.46
486.21
206.68
-201.54
-147.48
-298.26
-101.56
250.45
171.22
127.25
155.13
-30.447
-41.97
-147.04
-64.186
-68.99
-83.62
-53.976
-39.04
95.554
101.37
6.1293
1.693
145.69
-91.84
-134.44
-6.7502
-3.1437
-17.645
-4.5164
32.71
28.47
38.346
7.9292
-51.39
7.5375
44.542
-29.754
67.837
66.329
-10.927
-35.907
29.952
31.972
-73.562
-27.283
14.003
48.265
26.632
68.892
7.5742
-76.683
-33.751
-23.842
-3.3646
-13.676
3.3112
-7.48
9.1689
-8.2034
9.5994
-3.3206
2.734
7.0221
-7.6703
9.1647
-6.6593
5.0211
0.012931
-1.6958
10.785
-4.0503
6.3447
-4.3712
-3.522
-2.3909
-7.2134
6.3868
-6.2747
8.4801
-4.17
2.4085
4.8846
-3.9457
10.511
-4.1039
12.446
-7.3303
-26.413
-2.6614
-12.906
18.735
42.05
-48.818
-47.513
-5.4748
11.398
2.5522
48.32
24.401
15.785
18.789
-19.654
-14.014
-14.698
-10.651
-1.538
15.427
11.635
4.3054
6.2391
-41.609
-40.902
-10.5
17.007
1.4859
25.074
43.386
-37.221
11.691
4.1475
7.0138
9.0987
23.109
91.726
-65.082
-109.89
-53.697
41.826
147.66
22.462
-9.6642
27.586
-174.59
-28.154
44.083
123.55
84.812
76.213
-35.767
1.0674
-401.15
36.763
28.338
-41.934
26.506
-2.9965
-5.4831
78.446
-26.332
-378.57
219.72
215.31
98.264
-209.63
-124.84
-117.37
159.67
65.102
71.07
39.94
84.719
3.5723
47.086
70.988
-262.55
-41.153
-41.729
141.18
-9.5841
0.70931
77.44
-34.817
-10.495
61.754
124.16
169.82
41.337
-426.87
-31.471
208.55
-84.383
-59.531
-69.383
9.0755
-18.789
48.364
41.373
-86.75
-7.8721
13.81
-1.4696
-11.621
-5.9156
14.469
-25.298
39.673
20.779
11.379
-25.353
10.682
10.269
-40.241
69.98
3.0962
-25.981
61.339
50.864
-2.8306
-6.1795
-50.987
-91.182
26.817
120.38
153.56
-3.1201
-177.49
-80.267
18.646
13.772
11.927
-62.493
-11.211
26.327
57.354
-74.604
-31.989
23.458
25.043
-0.61846
-2.2354
11.52
61.258
75.363
-74.884
-45.961
-101.54
-24.357
11.22
41.207
39.045
-69.739
53.804
-39.753
-117.45
-21.065
102.49
45.019
9.5397
24.49
10.97
36.263
9.0647
55.659
52.619
-3.365
-34.69
2.7048
-33.772
7.0961
-17.179
-92.954
77.481
53.588
156.23
-129.64
-150.24
27.293
37.445
-27.944
-83.932
108.78
30.233
-105.11
-50.504
-14.617
49.432
11.811
9.5894
29.161
13.411
24.389
-18.834
15.476
3.1178
0.69044
23.88
-11.231
17.605
-10.194
-0.85815
8.3227
-14.563
18.606
-12.319
8.6995
4.5389
-11.021
12.333
-18.881
15.207
44.612
28.074
8.9521
36.553
-66.151
-169.42
9.9636
120.31
-9.7202
40.143
-51.431
-84.985
-8.7127
174.58
-40.649
-139.86
18.888
68.384
66.13
-120.81
52.585
36.644
-119.53
-80.159
-17.624
19.283
8.143
41.866
214.68
119.66
-69.208
-357.92
81.73
134.98
-79.583
0.34707
-14.232
12.391
12.684
38.363
26.723
106.02
-61.935
-140.53
61.098
-18.746
-5.5715
22.045
56.357
164.58
-205.84
-137.94
149
8.6664
-42.028
-16.741
89.18
62.871
13.544
-178.17
-66.451
62.601
-2.4401
38.874
47.755
-26.61
-27.594
30.374
-32.334
9.7441
-0.94534
6.8924
6.8442
-4.5205
69.881
72.268
-32.437
-66.089
-31.991
-75.42
-51.363
133.03
68.819
-11.51
-130.26
-106.53
33.018
93.595
93.141
-23.561
-9.1352
-30.676
-99.518
28.213
96.681
88.937
-131.79
45.738
43.776
6.2253
58.31
-129.73
-109.48
25.001
14.99
86.183
125.31
-6.8946
-78.944
-254.71
56.722
79.788
123.32
73.539
-152.09
-148.3
18.775
108.22
-41.849
45.205
42.834
-40.185
18.991
-10.105
44.943
9.1739
-31.257
50.084
161.97
-71.492
-184.14
112.65
-63.295
-44.143
146.23
74.216
-90.186
-125.28
-52.163
-67.533
99.472
103.16
4.2466
-99.014
-29.735
102.07
40.892
-23.605
-11.983
-41.595
-65.036
-9.4778
18.809
-14.094
85.674
-25.037
-6.5852
7.4001
37.172
66.897
-77.653
1.5574
42.282
1.8998
-73.19
-40.246
54.909
92.517
6.5231
-106.53
15.263
52.629
-16.113
43.119
-72.314
-77.422
-33.478
-9.167
68.92
48.127
10.289
-29.556
17.798
-8.9316
46.185
14.492
-49.696
-69.047
79.267
1.708
-32.438
-53.502
175.64
57.866
-115.94
-18.35
-11.175
2.2051
72.835
-1.7362
-75.207
35.911
-16.266
-65.431
-70.922
69.502
-83.628
114.49
94.789
-142.55
-50.89
-67.345
48.733
31.247
-5.2835
96.209
-61.793
-12.406
137.79
49.745
46.123
-120.36
41.97
-150.6
-31.37
74.695
39.716
51.067
-71.36
42.786
-44.991
-40.67
36.287
5.0499
47.94
1.2103
97.488
-76.263
-7.4577
-16.1
-93.379
4.4657
-4.7156
8.2291
16.081
-20.515
63.134
-12.967
-23.829
16.033
1.1578
18.216
87.366
67.99
-115.25
-36.676
56.928
15.615
-54.734
-82.417
-12.864
-41.845
43.91
16.132
-51.744
63.233
-32.843
-10.342
21.2
2.6824
-21.054
6.2441
29.913
-68.176
101.87
22.463
-72.429
46.449
37.329
27.517
9.6505
-124.91
86.519
-81.741
-57.187
-29.365
24.137
22.934
83.139
126.33
-7.7891
36.772
-109.74
-44.257
-4.7624
-96.539
19.703
37.143
3.5996
21.71
-0.29429
38.73
-4.5212
-9.7836
-24.737
18.486
50.016
-0.71399
30.427
-20.311
-10.848
12.929
16.269
2.8607
44.408
-1.7701
-19.907
40.631
-92.695
-138.28
16.402
13.757
-71.714
-30.834
96.052
82.86
1.821
38.766
59.32
-53.585
-190.7
-74.533
90.933
-133.12
67.29
175.08
47.209
41.395
-8.5385
16.356
31.526
-103.62
-173.31
-79.742
172.31
4.2999
49.659
28.191
-11.148
-11.247
21.281
8.2107
14.459
34.209
-69.699
33.17
-18.969
-5.5553
28.507
5.3266
17.154
16.078
89.988
77.854
-231.46
-62.671
46.967
40.669
-5.0933
-34.983
-1.24
-16.286
8.3008
-11.759
-4.4667
-3.424
-4.6023
-15.28
132.1
82.686
-85.631
1.7136
-114.98
-109.6
19.02
127.46
-38.466
-74.355
-51.446
9.1489
119.07
123.05
-83.636
-165.87
52.502
101.31
15.03
48.789
-7.0579
1.6918
-37.367
-21.782
70.492
33.744
-68.957
-35.175
17.32
-20.67
-43.847
-10.299
-4.3439
26.59
48.061
24.654
-10.412
-13.771
-6.6444
-24.755
17.078
-1.0654
5.2703
0.19761
-5.8958
9.3321
-7.316
14.135
-13.899
-8.784
-12.782
13.386
37.799
126.88
22.347
-178.5
-34.034
-31.867
-16.24
112.47
60.135
111.29
-104.52
-121.28
-24.301
-104.64
-24.107
186.05
70.378
-130.86
-8.034
12.676
14.372
30.517
-57.112
-8.7967
8.5581
26.108
-40.781
34.849
15.172
-0.02407
21.898
-1.1083
8.1164
-19.712
-30.105
15.195
-4.6875
30.059
18.176
-2.7233
28.282
23.059
-44.935
-19.385
0.086608
5.1682
-5.2447
8.463
5.3689
-5.6968
13.582
-2.594
75.236
-16.765
-66.527
-6.2577
109.41
101.87
-67.307
-50.523
-90.087
-81.221
103.52
76.427
-68.546
-184.54
-40.509
182.73
-49.369
-26.697
9.3116
131.55
-85.351
-55.78
92.124
100.4
-261.56
-90.796
113.87
78.698
93.586
-70.796
-26.326
-6.4394
40.087
19.518
23.369
-17.051
-2.8268
-9.2127
-18.364
20.956
-2.3043
23.548
6.27
-5.249
22.288
-2.5316
12.198
-4.7036
-7.0197
-80.566
-143.36
126.56
-22.381
34.129
56.939
-4.5205
50.135
19.181
22.832
53.256
-120.43
-67.739
113.57
128.74
-149.38
-162.16
38.7
-6.7618
-5.2583
54.601
-6.605
-47.827
11.468
64.461
43.487
-6.2105
10.572
180.33
-109.3
-123.09
-33.782
98.959
97.641
-127.07
43.425
-93.622
-54.328
12.391
-37.079
49.477
8.4196
-20.802
22.317
-20.531
-24.554
65.662
0.87261
37.614
10.684
52.32
54.431
-154.01
-114.9
141.79
-74.108
-37.143
82.068
46.39
38.744
-15.092
15.493
-125.53
43.547
-54.913
19.557
55.43
-50.532
-4.6606
28.375
37.884
66.587
83.197
45.319
-64.152
-84.762
-136.37
28.788
31.245
-23.112
12.506
-66.267
90.701
91.867
-120.38
-9.2673
3.0866
-6.1021
-20.709
62.738
-23.719
37.754
13.669
7.3128
50.298
-142.07
20.215
38.06
12.875
-9.2027
-37.356
14.602
18.465
50.621
-32.386
-35.491
16.154
-57.195
67.084
-49.511
-94.082
100.08
54.365
-27.171
1.7994
72.304
28.606
61.13
-86.117
-116.33
69.422
51.379
-39.734
-25.098
-13.306
12.216
-84.878
84.171
116.06
-154.16
74.683
-84.633
-216.73
119.73
30.11
43.835
9.0223
17.136
15.14
-5.3813
139.14
-13.6
-36.106
-96.341
-64.299
0.77082
1.0684
110.2
-1.3634
-45.001
109.64
51.257
0.16388
58.238
-76.47
-142.38
-111.56
250.59
-126.55
-85.777
82.783
12.094
55.802
-48.141
-41.299
21.361
-20.238
-12.003
30.55
10.212
-9.3166
-5.4874
35.163
7.4963
12.55
91.26
2.7302
-79.035
27.443
8.7841
21.094
14.131
-65.914
-144.35
-20.484
151.21
93.464
-87.892
-108.26
-99.805
71.031
187.42
-48.401
-173.31
68.964
102.42
8.2247
-70.664
9.9568
-52.307
16.534
2.7765
1.0042
22.056
6.1314
15.552
2.8869
-0.16947
9.0591
25.865
-31.721
-46.259
-39.323
85.979
158.51
-6.0549
-59.66
-125.43
25.293
139.48
-5.0061
-230.27
40.101
86.554
122.98
-39.388
-230.94
4.2151
13.868
31.742
22.206
-83.723
183.91
139.88
-174.46
-100.23
-91.377
33.778
69.961
16.322
22.505
9.173
-25.591
7.9482
50.541
39.856
153.86
-44.785
-148.84
-14.163
-88.952
58.498
70.89
-40.593
-33.132
12.135
-22.976
-13.569
-17.153
8.1881
47.89
2.9112
31.608
30.473
127.54
142.16
-158.41
-131.83
-56.972
133.7
59.286
-89.126
-37.322
-95.964
-70.197
62.688
109.41
12.269
-145.44
39.643
51.766
4.2513
-10.367
0.72041
15.895
-98.975
-64.522
50.504
28.561
58.392
120.5
-32.709
-142.47
51.742
33.661
-68.187
-12.979
117.8
-4.1642
-75.134
16.616
-3.3879
11.733
183.05
-193.93
15.485
-30.41
-94.368
116.71
44.916
-23.079
21.854
4.6493
9.0615
29.235
-19.564
-1.1997
-25.14
2.5427
-107.8
-11.614
55.781
30.507
20.382
94.975
27.731
-132.33
-38.959
100.31
-194.66
2.0934
36.528
-19.674
106.84
77.998
-44.704
68.517
25.318
-129.51
-99.627
-33.19
131.05
107.2
-36.14
92.31
-100.06
-227.59
194.14
-101.63
-274.39
256.96
89.384
41.492
-55.689
64.195
88.676
-130.48
-55.215
52.614
45.708
-54.26
-75.209
6.1295
60.206
31.096
-4.0954
-16.16
36.564
58.523
83.141
-33.685
-217.86
-39.472
27.418
64.763
42.529
-19.651
-38.639
-4.8054
16.014
44.091
30.975
-44.586
59.199
-63.862
25.162
82.623
-115.44
-39.313
18.876
7.8455
51.488
-135.12
-43.285
86.544
83.274
-59.397
23.737
24.804
118.5
22.299
-7.2152
-146.44
-162.22
151.95
45.44
-12.975
-53.847
-16.726
13.534
10.588
14.053
7.8528
-3.9692
4.0418
-14.315
12.668
-5.2149
1.2622
4.4741
-6.9923
11.136
38.653
102.98
-60.354
-161.06
19.216
56.14
196.89
-87.192
-242.51
63.499
-4.4124
28.462
39.815
-12.057
26.981
-13.564
-7.2398
0.61043
18.054
-0.30857
-1.3272
34.169
-14.96
11.538
-1.175
1.743
50.223
-26.971
50.415
47.474
-114.92
17.725
-143.64
126.25
-44.698
-133.95
91.961
101.36
-25.608
-74.013
15.468
157.23
-72.353
-143.13
81.497
-17.071
-16.91
-9.8429
6.2524
-2.8524
62.224
101.15
-13.191
-69.254
42.417
14.153
-69.689
-7.7338
-136.1
-38.748
129.6
22.217
-55.96
-32.61
18.69
-10.119
2.7743
-15.621
4.5616
75.176
-11.452
23.376
22.095
36.33
39.457
-75.172
-117.67
8.9582
59.372
19.92
43.663
89.866
60.732
-56.374
-144.5
26.857
24.737
-13.6
-108.06
78.701
181.78
-47.748
96.895
29.205
-77.1
-33.689
-74.001
-8.7194
-25.239
-35.413
29.244
3.1035
-291.4
-104.87
60.989
183.33
69.646
-23.312
-17.803
19.897
88.552
131.69
-0.65283
-134.62
189.44
20.778
-126.98
-118.81
-95.987
2.969
58.249
43.351
182.21
-57.048
-212.59
144.31
1.1711
-38.246
26.865
-30.543
-17.091
3.2071
-25.231
-22.83
17.766
4.4164
-5.2607
37.749
-10.692
24.44
39.28
-2.8953
-24.757
-35.23
35.721
13.69
-24.261
6.6973
-13.319
-18.116
12.901
11.356
20.121
-1.4989
21.051
0.81448
17.239
-60.558
53.21
192.21
-196.99
10.911
119.68
180.66
20.413
-369.6
21.918
98.293
-142.84
-101.39
-9.6575
88.607
-121.39
-14.25
183.45
7.0251
-85.57
-92.374
39.597
85.238
21.321
-120.89
-240.75
130.42
95.759
147.47
-101.4
-25.111
23.335
14.863
49.429
44.943
75.25
-62.781
37.817
42.181
-4.529
51.228
-83.238
-8.4692
-2.8606
2.2609
-0.46059
-6.8092
-8.3303
-2.3365
-8.759
-7.1796
-64.146
-24.853
86.702
239.84
-132.76
-320.92
-53.702
72.996
41.477
53.295
53.433
-89.32
-96.366
71.996
372.51
41.248
2.4665
134.43
-143.97
-203.51
-50.508
150.64
0.77463
-57.777
-90.381
-145.54
35.275
-94.281
14.67
339.72
-2.2448
-50.211
-50.557
-42.252
-56.296
-30.216
-0.52166
5.2167
-141.31
-66.369
277.4
65.939
-205.56
-300.6
338.72
234.05
76.364
-150.4
-34.86
-42.06
-62.636
-148.84
44.736
102.22
-79.683
-5.4412
43.978
-19.363
28.959
58.504
92.993
-77.324
-255.87
-22.331
263.45
286.69
-174.19
-179.03
83.267
64.462
92.343
-5.126
-91.639
50.685
29.906
-30.495
-26.297
13.587
37.828
47.691
58.602
91.265
-96.808
-219.31
-33.372
48.268
106.06
-15.019
-86.844
46.61
6.1689
16.832
-14.056
2.1746
-17.338
27.42
-19.292
15.36
26.032
214.83
251.86
-227.59
-129.52
-249.57
-171.07
83.766
10.429
25.225
-1.6172
-22.66
113.28
-31.67
7.0305
118.21
-41.988
25.279
-3.0302
-39.449
-37.555
-22.842
-0.226
10.743
5.4926
-11.034
44.592
-44.283
7.4416
-4.5821
4.0154
-16.565
29.472
24.907
-23.981
-3.2933
-9.5135
49.146
-10.85
12.514
-4.0952
107.23
-31.987
-75.648
39.965
-22.873
53.885
30.318
1.2041
-124.15
-53.344
71.527
69.937
-60.727
-62.526
97.303
-101.7
74.239
104.99
-9.7202
-167.57
-22.938
-36.455
44.566
79.368
-15.317
-30.512
-29.969
41.263
-124.31
8.3891
120.44
3.7974
-68.463
-32.37
184.96
172.53
-242.04
-139.56
98.886
-16.477
-13.33
-173.93
144.73
158.07
11.104
70.64
-22.439
-126.47
-32.23
-97.75
-169.56
96.765
132.61
36.492
71.699
-40.718
-37.084
28.164
23.349
15.653
8.5121
-112.66
-8.2545
83.708
29.759
75.564
5.1046
-26.924
19.03
-110.23
4.6521
-37.015
14.572
56.52
51.404
-69.305
-48.87
97.448
-29.811
23.328
13.892
-22.86
2.5264
-74.411
-88.714
30.358
35.602
153.05
-47.848
-47.756
-40.178
-19.905
-3.5523
-37.093
67.709
-15.919
-56.783
43.98
16.909
-10.943
-17.324
18.381
94.963
-32.021
23.372
-53.899
-40.515
3.0886
2.9313
27.407
-4.6724
63.455
-0.11022
-60.216
83.769
-33.893
58.994
-0.2534
-109.73
-23.376
-21.18
-31.131
51.421
98.996
54.488
-29.947
-11.821
-147.13
93.141
91.144
-114.1
-62.701
69.712
-36.057
25.662
65.878
-64.481
-37.549
-14.3
20.767
8.6489
28.359
73.257
144.03
34.025
-124.12
-275.4
-93.3
143.21
110.24
12.718
-83.034
-24.861
10.451
33.124
19.998
13.398
-15.266
13.719
-9.8104
1.2045
-5.1927
-2.7113
16.369
-9.0006
12.068
-17.911
2.7168
4.3784
-1.5059
22.888
0.69443
18.43
-6.0828
3.9962
3.0784
-6.9626
11.205
-15.293
8.0776
-6.8853
-1.9188
1.3205
-10.841
10.673
-11.625
6.9248
-1.0398
-4.4206
7.3623
-10.851
10.188
-8.2605
-2.977
-7.1253
-16.647
13.864
1.2758
17.466
5.1528
7.7692
4.3505
-12.933
6.1899
-14.271
4.1662
-2.2174
-4.0304
12.624
-9.7654
5.4639
-2.6899
-5.2313
10.281
-11.148
7.412
-11.163
-1.5827
23.461
93.406
149.06
-189.32
-107.32
-23.061
-18.911
39.542
-4.9547
5.5304
3.0154
-0.77507
17.877
14.306
7.3395
-9.42
13.342
-3.5559
-6.5101
-0.50773
-10.516
43.352
159.54
-17.289
-93.619
-15.274
-26.779
-84.816
-34.647
24.577
-9.6025
64.279
30.339
115.17
7.3009
-153.15
-143.69
-13.853
115.96
-0.66645
26.222
64.478
-53.635
-193.56
38.998
95.448
-57.921
-30.585
88.965
33.186
70.49
-61.96
36.775
24.33
-2.8901
-8.0964
-32.146
49.244
13.292
-61.856
4.2428
-41.686
34.272
37.231
24.732
2.2328
-45.423
-5.1757
40.72
-25.194
-74.369
26.055
30.63
50.562
56.927
7.0106
-97.165
-67.346
87.923
30.349
0.61028
-21.761
-30.46
-70.117
10.129
57.434
38.871
12.261
-69.093
-22.248
22.69
15.28
45.897
-7.8071
-29.831
49.995
14.918
-53.147
-49.681
-64.393
57.918
-87.503
4.5226
103.37
40.08
-12.227
-37.786
-96.812
-7.0107
94.868
32.945
1.4078
-40.647
84.913
32.47
102.8
-117.77
-45.338
0.47554
-90.448
40.12
19.349
9.2304
-89.644
26.526
94.413
-77.181
-66.851
51.047
66.355
-100.16
20.797
18.074
-19.007
5.6522
3.3475
67.393
78.75
-32.055
-6.802
15.537
-80.036
-15.367
139.63
158.53
-368.54
-66.368
121.37
10.473
7.6291
67.748
201.57
-204.57
-49.734
-67.18
-80.189
-11.82
32.48
65.088
82.12
27.501
218.45
113.08
-152.33
-78.514
4.7717
-221.28
41.967
36.788
-31.919
-3.8454
-16.437
10.081
62.857
-77.489
1.0956
-37.867
-32.196
-224.07
-219.69
268.53
242.24
196.62
-160.53
-285.74
-31.775
117.37
226.65
518.32
-230.31
-260.18
137.68
-4.7878
-135.83
-16.852
10.484
27.339
12.918
-30.97
0.56877
-12.934
-51.858
-24.755
24.509
31.207
1.1471
-19.225
-21.66
-19.89
22.247
-21.477
24.066
-151.36
258.61
114.12
-51.094
13.457
-34.957
-22.739
14.339
-34.443
-23.679
-125.9
179.45
35.072
-165.47
-327.4
-88.924
243.56
115.56
25.518
-40.644
30.686
84.902
20.777
33.21
74.638
77.105
-88.196
-55.318
-63.018
-13.063
54.465
37.525
258.19
298
-16.181
-250.88
-363.7
-59.976
35.093
-37.923
-86.752
-312.73
62.066
270.82
38.145
81.742
-6.1647
21.052
10.831
12.233
73.207
45.775
-106.34
-55.555
-40.103
-11.212
32.962
-18.871
46.713
-8.9465
26.561
-179.78
-88.038
164.67
24.304
-58.468
-82.95
144.09
122.74
61.092
-195.79
17.317
-57.024
20.856
28.621
-64.816
78.954
52.671
32.272
141.44
-68.686
-190.7
-68.09
101.1
-21.404
124.53
60.645
23.669
-79.363
-127.53
16.22
6.5241
71.927
14.571
28.271
70.809
-16.836
-54.141
-19.73
-7.9552
-11.867
-8.3226
-13.643
-35.342
4.5668
-25.644
-2.1427
-62.321
56.842
163.55
13.36
98.363
-20.125
-339.9
-36.348
59.337
-89.007
136.44
350.92
120.79
-418.41
-96.671
53.309
-40.013
23.564
5.755
-26.604
44.607
-41.967
22.928
93.872
-11.253
19.72
40.215
-35.631
71.308
-58.701
14.03
20.818
-18.753
-41.563
-52.275
55.527
-30.551
17.102
-50.518
-34.171
16.385
-145.74
81.326
55.147
16.802
74.587
-28.229
18.186
-5.4944
-29.478
-23.678
38.933
57.254
-24.708
-49.701
-20.434
-16.405
11.547
4.3387
2.078
7.3568
7.1005
40.173
127.83
68.198
-112.12
-167.45
43.932
-0.28586
19.512
8.3354
-16.216
51.039
54.756
-64.06
-145.82
-161.37
151.06
144.68
49.138
11.806
-93.394
-20.493
42.314
-0.41909
-23.38
-8.8169
6.4423
2.3211
38.745
70.394
43.478
-147.59
-98.451
-6.5402
-9.7267
48.74
17.457
54.191
85.97
-79.595
-88.918
45.43
54.905
-14.191
-102.94
100.06
-47.269
-29.97
15.299
132.36
39.161
-151.37
-11.573
-65.28
-19.84
106.77
65.816
16.567
-26.195
-67.035
25.903
60.976
113.08
-67.161
-41.732
36.359
-145.29
11.8
69.698
91.668
-72.304
-109.33
75.299
88.315
74.892
8.5511
-189.92
-76.818
157.83
-57.676
-20.488
-21.569
-26.726
54.857
7.562
1.5252
-17.02
-29.98
-9.5476
36.338
-4.6767
5.0886
-6.0878
3.3656
-6.098
-1.5647
10.183
-17.468
12.938
-8.337
11.294
-8.9878
-0.252
7.8915
-7.6769
15.012
-4.028
10.882
-6.6838
4.8643
-11.366
0.23551
6.4479
0.601
4.968
1.0403
15.21
-0.58554
6.8174
-20.85
4.4668
-16.261
-0.85845
-2.8898
-3.2576
10.917
-8.4696
7.4577
-8.9988
13.152
-15.518
6.273
-5.176
2.9578
3.6125
-6.1301
15.734
-11.527
12.308
-6.4283
9.6501
2.5667
-3.0926
11.224
-14.628
13.6
-4.1153
0.62766
3.7775
-9.272
6.6229
-8.5091
12.764
-7.5452
6.9555
-1.6607
-3.0893
10.529
-13.842
11.06
-12.406
0.92793
3.6146
-8.1132
15.384
-12.604
7.8987
-4.9788
-8.7442
11.354
-7.0958
9.3883
-11.922
6.323
-1.176
-0.34187
10.975
-10.162
12.477
-11.442
4.0803
4.2397
-10.576
12.07
-9.123
2.0576
-5.8125
-9.9917
14.046
-7.7378
14.707
-3.3717
-0.011643
1.0625
-11.011
12.426
-12.095
8.0216
-0.19049
-8.497
9.7795
-8.4645
11.091
-6.5298
-0.69231
6.3345
-11.631
11.63
-7.5094
-0.11994
5.8504
-8.0465
10.264
-10.785
2.6735
-0.44195
-6.0032
9.6486
-10.571
7.8614
-4.8715
6.3821
-2.1268
-5.385
9.1946
-11.169
10.321
-8.1292
3.9758
0.46227
-8.744
9.2074
-9.4892
10.522
-3.2843
-0.20699
0.18382
-7.1845
12.919
-10.612
11.425
-5.4409
-2.0874
5.1221
-4.7724
16.037
-9.4799
-3.2169
-9.3024
-2.951
8.7452
-2.2952
4.8201
-1.5158
7.4308
-6.0394
-7.4412
0.64637
-4.7071
13.329
-9.322
-0.24589
-1.8408
7.9042
2.522
-4.097
8.0136
-10.591
9.9122
-9.3648
3.1797
3.5079
-5.3858
9.8391
-9.6384
12.062
9.3545
30.057
-21.565
-41.258
14.523
-7.3113
6.6286
-1.2065
-3.8411
8.1752
-12.675
4.4893
-6.133
2.1696
0.082247
-1.6382
10.412
-6.0068
11.575
-9.2349
2.9429
-0.26107
-5.5896
8.9196
-14.011
9.3385
-5.8355
-0.44999
6.8566
-8.3748
11.01
-8.978
6.4488
1.8353
-6.4922
9.6001
-11.632
9.4377
-3.587
-2.13
6.5239
-6.7607
12.117
-7.2973
10.596
-2.611
-5.7521
10.162
-9.581
10.032
-6.1883
0.30574
4.5248
-12.348
6.8786
-3.3048
0.8848
-0.40725
-12.598
9.8881
-1.8499
8.5531
0.10338
-2.9404
-2.6771
-11.535
4.5041
-1.374
17.563
10.382
-5.0217
1.8036
-12.55
0.074346
-12.039
4.5421
-1.9018
2.953
0.82339
-9.7491
7.0374
-19.027
16.594
18.036
1.097
-9.0406
-13.243
7.979
-15.738
-4.0409
-0.2649
1.6002
3.2278
-7.3628
11.567
-2.974
10.927
-0.39503
3.3461
3.0106
2.6903
5.9457
-10.316
9.3796
-10.272
6.4566
-1.8228
-7.194
1.2969
-12.66
11.018
-7.2042
2.4568
0.55593
-4.5361
5.6717
-6.6443
19.504
-10.387
5.3521
-0.81007
-2.224
11.445
-15.162
10.342
-6.5045
4.114
2.4533
-4.847
9.6528
-6.4794
-3.0366
10.25
-22.006
26.882
-66.504
-149.74
109.84
73.229
41.574
26.307
63.589
21.758
-96.894
-71.021
-23.528
3.6165
36.779
40.565
-0.74123
28.944
0.91296
-73.01
41.321
115.42
-7.7661
-77.218
2.1608
-21.383
-11.757
-36.956
13.964
7.451
-27.935
-70.153
-32.078
2.7825
59.1
95.941
-12.966
-30.633
-20.452
24.289
-11.164
-37.093
9.4067
5.6967
14.338
2.9066
23.48
2.0124
10.421
-10.815
-5.5431
9.8973
1.4495
19.812
-17.496
10.406
4.6034
8.1514
-29.528
-4.1368
23.796
-5.8783
11.334
-20.91
15.279
29.484
22.892
-25.262
-67.089
6.9341
49.77
-25.683
6.4299
-25.699
24.332
9.5117
9.9864
-26.018
-2.6655
-35.627
23.721
18.73
11.734
-15.334
-31.573
25.066
6.9342
-3.1509
2.3363
-14.922
9.8838
1.3011
40.178
11.891
-56.343
-22.759
3.5345
9.1764
27.766
1.497
10.671
-23.934
-19.554
14.228
12.586
2.2574
-44.301
-57.206
69.586
5.217
-64.723
-20.406
119.47
-101.66
89.357
-44.004
12.811
42.421
-101.08
50.539
-0.74388
16.554
21.153
46.244
-35.248
-90.69
24.308
74.827
-42.936
-14.442
24.171
-2.0495
-3.8148
-31.761
43.88
68.959
-80.006
-22.378
71.977
-10.033
-42.816
32.613
62.325
-94.956
58.558
-2.1052
-81.14
31.487
18.782
4.7527
-11.803
5.1346
37.368
112.15
-116.96
-100.05
-26.452
36.625
259.25
-66.739
-287.55
-23.051
13.816
73.253
19.49
115.83
56.124
-215.86
-22.684
24.843
109.29
47.22
-33.224
-149.42
-39.889
103.25
38.005
16.568
6.1774
26.122
61.31
16.319
-122.74
0.016064
9.328
35.633
-62.88
52.095
38.716
-65.983
40.603
4.0652
-18.428
-29.372
-12.941
5.9607
-10.273
4.0639
-3.9275
2.5648
4.4864
11.675
-5.3251
0.99346
-4.8192
-9.3416
18.862
5.2686
17.943
-2.2075
-25.886
10.318
18.731
4.8376
-18.598
-18.81
55.489
-34.71
-10.427
48.211
-2.4626
1.1337
-38.005
23.98
24.467
-35.094
4.3474
61.777
111.94
-8.6004
-96.181
-44.931
3.0429
13.82
-18.391
-40.671
-24.546
24.499
66.751
-172.36
-90.592
46.705
30.823
26.877
46.094
-6.5355
1.0538
6.1544
-32.068
20.722
23.495
-23.136
-12.078
37.332
28.623
26.699
6.0017
-35.917
-17.175
13.163
6.4862
-2.4634
-10.965
0.56171
30.117
25.779
-31.443
-28.028
24.316
12.882
-12.702
-16.48
27.1
0.28372
-54.459
18.141
23.347
-14.066
-11.396
0.1476
34.195
0.90469
-37.25
34.47
10.407
-53.318
0.6101
48.819
-26.171
-29.491
-13.842
46.371
39.591
19.16
-12.074
-10.089
49.03
13.15
-141.37
61.156
26.303
-90.347
-22.057
-3.7491
18.244
12.173
10.14
-13.75
21.57
7.1654
2.3513
5.678
-6.9229
12.677
-2.9943
13.304
22.661
4.2542
-22.889
-12.217
10.194
-12.949
29.807
-12.231
7.91
16.509
-3.0928
13.938
-9.3843
-27.774
20.584
65.469
-31.979
-145.89
-9.8702
65.672
16.852
98.327
-79.747
-136.84
-13.056
40.79
57.148
76.734
98.677
-195.88
-103.83
90.669
108.05
31.151
9.4562
-42.717
-40.288
63.97
-10.27
-26.983
-4.5186
-11.22
4.1395
-5.2817
11.644
-2.4546
0.32965
0.95113
-14.396
-28.127
7.0452
69.819
-51.786
-4.2145
69.89
-13.326
-49.17
-4.9164
19.075
-18.723
-40.339
46.153
5.6966
-3.4767
5.2111
-5.3396
9.1518
-8.3876
8.3158
-2.9437
8.4506
2.7642
-1.9466
9.7108
-9.0922
7.1913
-26.243
-51.294
27.645
29.314
10.284
-9.4178
8.0807
-6.3726
8.4171
4.0781
-7.8326
6.9966
-11.034
1.2287
-1.3867
4.99
7.4117
-9.4025
7.2034
-6.4248
0.019104
4.8733
-7.7311
9.4706
-6.7574
2.9081
-0.58457
-5.6816
5.768
-3.3418
7.0004
2.2067
-5.7721
-17.536
7.0231
11.369
4.4372
0.72786
-18.409
2.097
4.6807
9.9558
25.177
-8.7849
-53.453
14.558
31.336
-4.9856
-16.941
9.9945
-28.672
-38.691
51.246
-6.7507
14.718
0.42461
17.465
16.529
-86.4
64.973
4.8518
-39.926
31.722
-9.9957
12.982
-11.157
23.249
-66.929
-16.878
45.133
-10.96
17.747
-10.742
17.926
-2.2455
1.6865
10.938
-6.4516
2.0692
-6.8565
9.9835
15.078
-1.5469
6.8341
-21.404
2.3511
-1.0871
-10.407
11.991
-8.4724
6.5742
-8.0784
3.4217
13.741
-0.59453
3.2233
-13.197
-19.444
-9.576
-39.978
27.371
69.663
-24.288
-9.4717
-11.397
15.453
-3.1052
5.2131
-6.807
-4.0473
-3.0587
-5.5241
10.092
-10.007
6.5506
-3.4482
-5.0397
6.3294
-8.2775
7.9378
0.79573
3.4702
6.9957
-9.2774
6.5084
-9.9609
0.087798
6.0395
-6.6258
11.202
-4.8195
5.7183
-2.4298
-4.2693
3.5503
-9.5744
10.091
-6.04
8.5061
4.5087
-5.8637
4.8775
-11.147
6.3507
-4.6147
-12.478
6.0536
-7.8581
6.8256
-3.3579
5.1977
7.2239
-3.5121
7.2909
-7.9379
10.757
-9.3813
2.0289
-4.1739
-12.038
12.298
-8.9749
9.5795
-0.40661
-8.7015
8.5759
-6.2201
8.2917
-1.7454
-0.16061
5.2413
-5.9573
10.176
3.2487
5.3686
0.63401
-7.411
4.4839
-12.129
5.3285
-4.8697
-3.137
2.3307
-9.3846
9.7489
-8.046
2.7777
2.3702
-9.0374
8.89
-9.6024
9.8533
3.5034
-4.8182
7.2228
-13.906
7.2199
-5.3385
-3.3763
9.2738
-8.026
11.144
-4.5177
6.6504
-3.1485
-7.0269
-8.9348
-0.73909
29.064
-20.962
5.7853
-6.5928
-41.549
19.916
-10.677
34.113
8.9459
9.4879
6.2665
-0.88827
8.1318
-9.1993
0.7316
2.4849
26.332
-7.8456
-4.4437
-5.6133
-13.905
2.6712
-15.689
14.685
-17.941
-19.412
-112.31
15.4
90.37
103.85
39.924
-55.75
9.4391
-30.801
-23.206
-64.023
7.3878
-10.692
-1.0357
8.6716
3.2075
13.366
6.689
30.164
-7.3977
9.2497
-12.62
19.8
-54.753
42.232
73.867
-54.784
-6.6477
-43.54
40.303
-9.3192
-2.1531
23.317
15.154
-8.5424
2.259
-6.7858
0.45452
-2.661
-5.0233
0.27942
-13.547
10.725
-1.7858
1.3835
-0.7053
-25.424
21.268
20.942
2.7679
-14.263
1.7554
-4.6796
-2.2775
0.52812
-4.8858
7.4558
-7.305
8.1414
-1.9603
-7.1643
1.9913
-6.9965
3.9923
-7.4961
-4.8427
6.1378
-6.3371
7.9999
-0.2867
0.21715
3.848
-17.419
10.02
-2.2163
18.636
12.69
-11.605
9.5809
-3.8804
-0.92226
-3.3236
-3.0031
2.0648
-6.8048
-0.01436
2.294
-3.3086
3.885
-3.3402
-0.95325
-2.2561
-3.5101
5.9424
-2.327
2.3409
-11.485
-3.4032
5.5038
-7.1147
10.375
-17.349
-8.9452
23.684
-2.4334
-4.1828
-10.383
16.745
16.859
-5.1263
1.174
-11.652
0.19745
-7.0485
0.029442
-5.2714
-24.479
23.051
3.1735
12.691
7.4285
-7.7179
-3.3868
-11.504
8.1466
1.6706
5.0061
2.5433
-2.1969
-0.50953
-8.1
-2.7658
3.9532
57.46
68.039
-27.309
-48.498
-42.262
-23.245
-8.4395
26.555
27.76
-11.498
42.535
-68.355
-41.452
36.587
27.413
124.03
-50.56
-183.72
85.447
18.968
-76.5
-137.42
43.513
96.368
-11.653
19.559
19.911
9.1234
35.056
-5.2136
-18.036
16.063
32.124
-4.0192
-38.696
-5.2949
86.901
341.09
-19.112
-389.68
-188.94
45.522
70.338
84.607
103.5
-134.17
-99.654
-6.1672
152.94
47.666
-64.049
-8.6518
-163.98
-25.712
135.02
78.549
23.323
-103.16
-36.621
-12.86
117.25
85.805
-79.715
-111.6
53.152
-3.4764
54.266
-53.606
-49.507
46.271
-11.576
71.141
42.773
-48.319
5.9916
1.4986
-18.472
-44.921
21.257
25.267
-4.793
4.2531
16.667
12.589
13.48
-15.231
-5.373
1.0084
17.024
-5.6838
-8.5088
3.5086
-7.8189
13.141
-18.749
-10.824
-25.296
-1.6811
8.8024
2.6876
40.268
-9.1234
1.4568
4.5742
-25.005
1.2644
-9.9966
5.0741
3.7341
14.873
5.0455
-26.155
2.2098
-19.898
2.9451
27.198
-1.1238
32.443
-43.784
-27.337
21.544
16.165
35.124
-21.841
-15.265
11.316
12.245
-4.0253
-28.577
14.896
-39.809
7.3533
45.899
-10.441
-36.803
21.055
36.22
-12.59
-46.323
17.198
24.928
-12.233
-16.555
-0.55202
23.365
-8.3705
-10.582
21.13
3.851
-40.377
0.16798
21.279
-8.3663
-2.6906
3.3216
-40.517
18.066
34.973
-34.294
41.099
-40.904
2.1547
17.307
13.695
5.4284
-15.415
7.9165
-3.4422
-5.7654
11.758
4.2726
-6.4277
21.204
-20.891
19.914
-11.3
-24.914
0.40142
32.532
-16.885
-15.379
19.309
-7.0451
-14.408
3.3625
17.404
-20.02
-12.715
9.7735
1.7955
8.1376
14.056
4.214
-18.218
-8.9163
12.112
-4.9333
9.555
32.112
21.362
51.842
-131.19
-56.601
78.254
-16.841
-6.8163
60.755
106.97
-3.4461
-10.039
-14.062
-31.79
-25.533
-94.788
-22.862
-9.4286
-25.575
44.316
47.644
45.36
-36.653
24.124
14.211
-50.086
36.998
8.5623
-174.82
23.379
44.376
-25.438
15.917
42.625
30.071
-14.033
-30.091
14.432
13.837
83.43
-26.599
-118.46
84.543
17.914
3.3937
-23.136
-40.001
-12.883
-7.4261
-4.8574
13.11
-20.073
31.158
7.9234
169.59
73.435
-247.81
-100.31
50.212
-4.1221
11.493
66.457
4.2991
-12.355
-30.17
5.4665
18.111
5.1531
26.687
-8.4435
-7.5924
-2.7519
5.7505
81.695
56.175
-201.06
18.114
25.011
7.206
30.166
14.379
-0.69572
12.188
195.54
-123.82
-250.71
37.141
155.76
33.519
-35.607
34.448
42.172
-31.485
-124.42
-24.258
69.617
8.0295
-20.066
-66.84
-193.19
4.8611
168.23
-122.02
71.748
149.92
177.02
-69.662
-140.05
136.27
84.708
-129.25
23.939
116.09
-88.003
-191.67
-71.191
88.393
33.093
30.982
17.556
-122.67
-106.93
61.201
58.632
26.242
-11.748
2.1997
-10.748
10.973
9.3912
-30.767
18.955
42.279
72.124
-12.262
1.8372
31.294
-46.025
2.6284
-31.69
4.0944
-92.804
-5.65
7.4088
23.829
122.5
62.815
14.916
-62.985
-60.788
-1.3243
166.78
96.661
-112.88
4.933
-49.723
24.027
-134.05
71.037
-39.777
-140.82
-52.642
-116.76
59.529
145.13
35.415
-70.158
149.69
244.81
-12.513
-418.49
12.691
93.924
40.645
17.81
59.438
55.993
167.76
54.586
-215.15
-128.85
-139.33
-48.939
96.412
-9.4915
-105.58
62.541
159.13
-148.57
-102.36
261.39
155.22
-362.34
-47
249.88
64.651
19.218
-22.794
110.91
-1.6163
-296.76
-220.73
237.45
111.88
-103.38
177.71
30.545
-219.82
-28.598
61.456
35.072
179.3
106
-138.88
-105.43
-139.71
-340.41
340.91
219.4
-181.16
-47.506
40.861
-18.172
-79.3
-75.705
18.47
333.12
-16.646
-227.2
191.3
79.318
-106.07
-107.82
140.62
-24.639
33.242
59.018
-9.3605
-65.815
-11.838
7.9613
-5.4488
-17.513
1.4483
-21.844
30.473
5.6593
55.345
53.579
-102.94
69.595
22.465
25.015
-40.98
-82.294
18.892
1.7106
-40.264
-20.996
59.213
17.326
-41.403
36.014
-30.994
12.932
-352.63
-25.991
235.12
-13.121
34.194
32.685
122.1
67.716
-68.809
-40.875
-27.739
-5.0322
-14.871
-0.3288
2.2337
-5.6849
77.884
-56.607
7.0326
-66.475
-15.37
73.531
-1.7619
37.93
-79.791
23.076
-66.994
73.941
-58.07
-0.99572
45.761
13.67
81.851
-44.983
-61.056
-42.044
3.7195
50.471
18.616
-37.065
39.013
-52.372
34.112
-27.381
108.4
-62.148
-7.7326
-31.834
-5.5812
70.328
32.78
77.783
-70.781
-104.59
-10.427
95.062
48.507
-36.676
-54.681
-66.574
16.591
75.293
24.402
-70.525
-46.724
20.648
83.987
72.189
-75.216
-63.174
-75.142
40.686
109.61
60.086
-52.648
-38.468
-10.739
-103.28
-25.794
107.61
102.96
9.9224
-71.527
-48.174
-140.64
1.4488
241.7
10.663
-87.564
-93.772
13.667
39.331
128.31
-30.314
-61.872
-1.0741
-33.189
-15.275
-87.189
13.938
-17.396
141.3
-25.83
-112.84
9.6284
165.93
85.412
6.762
11.693
-60.905
-27.091
-139.9
15.527
33.884
37.927
50.436
4.6409
35.486
-89.933
-125.4
-41.064
69.016
26.876
18.867
66.217
13.438
20.208
-22.2
-21.182
-4.4956
-107.91
-7.4411
128.46
103.07
-52.21
-177.05
35.882
74.203
48.208
14.049
-60.629
8.8294
-42.213
-99.922
42.78
211.53
90.948
-87.947
-19.965
-55.953
22.954
-98.484
-30.254
149.36
-45.233
68.91
-205.24
33.581
104.72
35.593
86.21
-146.66
-100.55
-109.92
143.96
100.2
2.6396
-57.705
-154.22
73.462
131.47
2.9622
49.603
-58.404
-59.481
-119.65
-9.6081
154.67
-2.6105
-5.2442
-17.018
17.552
-25.485
23.521
-107.1
142.22
-36.671
59.359
131.01
-155.1
-250.09
93.261
117.84
84.396
99.443
-124.9
-40.45
-127.32
-132.4
179.22
59.921
12.858
-53.082
19.759
-91.54
73.535
90.098
-28.535
39.34
86.348
-51.382
-123.53
-30.544
-117.59
191.03
31.741
16.579
-56.838
35.746
-75.948
-60.632
139.59
58.593
14.39
-111.84
-66.31
1.1863
-17.125
114.9
-246
-259.09
113.91
257.28
167.51
119.84
-64.208
-24.631
-12.558
-17.384
-12.187
-7.8408
-6.3933
-33.056
-4.1006
-10.768
-50.088
-27.284
32.592
40.251
48.676
53.027
119.85
-115.25
-89.68
-46.529
-308.12
47.564
229.23
42.825
-53.307
140.31
28.025
271.32
156.43
-303.34
-236.79
-118.43
2.3634
21.273
-83.994
20.798
104.94
26.838
-5.5314
-4.7473
4.6275
-14.38
21.187
-9.3985
49.931
-13.523
-12.533
-66.845
-250.09
153.51
136.98
-19.688
149.15
52.62
-143.31
20.046
1.432
3.3189
-13.622
52.102
-0.35188
26.705
3.1123
24.188
54.473
8.5539
-63.885
-7.2617
33.161
120.73
36.604
-88.551
-92.024
49.675
-41.729
-104.46
-38.483
51.51
78.275
-77.996
-123.72
79.029
10.37
-2.8698
-83.441
119.75
-54.444
-380
251.61
116.8
3.854
15.716
98.36
27.571
-107.01
-106.05
147.74
30.936
-22.945
17.836
15.75
-58.937
-302.09
108.63
119.68
-53.007
-92.852
-61.298
-7.8247
125.6
245.7
32.348
-16.367
-23.75
-15.399
-8.0318
-8.4117
-6.473
-4.3783
-4.67
-2.6808
-2.6019
-3.0913
-1.9244
-1.0169
-0.85951
-1.3517
-1.6279
0.56281
-1.6539
-0.47072
-1.0707
0.085715
-0.4611
-0.88548
-0.015453
0.008169
0.59461
-1.6162
0.035138
-0.38473
-0.6886
1.3327
-0.71889
-0.4275
-0.23232
-1.5658
-0.71747
4.0862
0.018834
-1.1328
-0.35096
-0.78098
0.86407
-0.17674
-1.3011
-0.17158
1.1133
0.011331
0.11205
-0.070564
-0.57612
0.27042
0.0077118
0.32913
-1.2638
0.085511
1.2509
-1.6737
2.2842
-3.285
2.4871
-9.3535
-9.534
-36.12
68.952
42.964
-49.788
-0.5675
-8.0611
2.2928
-3.4502
1.6152
0.34497
-0.62196
0.03325
-0.1058
-0.38348
0.66032
0.16561
-1.0076
-0.5958
1.1665
0.31991
-0.78829
0.044718
0.19168
-0.04876
0.26584
-0.54668
0.18374
-0.63282
0.59094
-0.33663
0.31767
0.044063
-1.6976
4.5422
-6.7446
4.2794
-40.136
-49.853
-95.295
365.15
14.151
-42.577
109.51
-212.23
-25.185
-41.809
12.564
-13.788
7.3652
-10.028
13.978
10.074
0.36069
1.0858
-86.435
50.454
12.502
6.185
-5.3671
17.648
-0.8221
-14.237
1.6787
-1.8332
4.6069
-1.3586
10.04
-4.713
8.2047
-94.114
-16.362
110.4
78.718
-32.311
-46.572
-43.404
-157.81
84.355
138.82
67.341
-76.747
-12.037
-11.596
-6.756
-5.2436
-1.1825
3.3684
0.21296
-3.5206
3.4457
-10.086
16.337
11.961
-10.174
-4.9091
-0.99007
-1.0494
-1.1454
-6.9307
-10.994
-45.166
40.924
35.947
22.423
-5.9256
-36.497
-7.1761
-40.515
67.126
55.862
-36.449
-16.304
-7.7035
-2.0098
7.2475
-0.69289
-28.816
18.511
-2.0875
9.231
1.2571
51.029
-56.04
-48.497
40.698
-0.39759
-14.205
-27.254
19.866
-21.568
-88.475
-154.29
-55.416
-9.771
-40.83
48.037
136.37
435.35
210.69
666.57
-386.79
-616.25
-12.682
-121.52
24.079
24.872
-2.3486
15.057
-130.13
258.81
-164.5
-30.333
106.46
13.17
-81.254
67.362
-251.05
1.0832
161.68
73.248
-64.287
-6.002
66.628
-15.412
0.10206
-30.649
-22.64
42.563
-17.469
6.4687
-18.387
8.1811
3.7535
-17.131
20.356
-18.59
15.863
-1.403
14.246
-12.744
-35.62
64.933
-27.636
-29.729
1.4387
29.823
33.177
-23.31
-5.0421
-17.703
-33.954
52.826
-14.2
6.9968
-3.4158
12.291
-39.158
-6.9218
36.401
-0.34404
-0.044989
33.255
31.452
-54.684
-42.81
-13.5
86.348
-13.007
-14.096
7.8809
-106.86
-4.869
102.12
-56.848
56.45
0.088108
-55.494
10.091
-24.34
60.187
30.708
23.57
-52.645
-34.02
45.02
-11.448
-8.2097
18.358
58.139
-23.351
18.112
-63.362
-130.47
77.998
46.796
22.142
-4.7428
-20.22
-9.6393
1.9253
2.1629
2.2253
1.0217
1.3463
-1.0351
1.9864
-1.3893
0.83748
2.7206
-1.9411
0.28263
0.42061
0.026612
0.061681
0.0046002
-0.14403
0.46107
-0.37936
0.3242
-0.50627
0.34473
-0.19833
0.68752
0.7016
-1.5023
0.32273
1.3337
-1.2214
-1.3398
1.2293
1.0705
-0.40144
-0.07529
-0.77841
0.091232
-0.27705
0.31081
1.1655
-0.011999
-1.4979
0.48622
0.17933
-0.52049
0.10359
0.53516
0.73511
-0.37122
-0.61216
-0.097113
0.18348
-0.074974
-0.47262
-0.021024
1.4264
-0.83243
-0.4353
0.58525
-0.43266
0.89054
-0.93789
0.34943
0.14122
-0.78627
0.19298
0.76694
-0.32298
-0.25519
0.79497
0.045734
-0.88228
0.26141
0.14134
-0.74919
0.40014
0.82594
-0.33375
-0.14459
-0.1604
-0.50707
0.48928
0.95178
-0.30617
-1.6107
0.44974
1.2991
-1.3845
1.3022
-0.078853
-1.165
0.31087
0.63487
0.7174
-1.6051
-0.30822
0.82233
0.24273
0.15751
0.082705
-0.76101
0.56474
0.067828
-0.56759
-0.020731
0.6479
-0.32476
-0.30701
0.6552
-0.096215
-0.36528
0.90025
-1.8698
1.0252
0.92592
-0.71356
-1.0414
0.89756
0.26771
-0.66469
0.38073
0.68609
-0.92961
0.078078
-0.091175
0.69268
0.10744
-1.2475
0.46709
0.3572
-0.053776
0.25381
-0.12116
-0.20796
-0.014919
-0.098126
-0.22482
0.72415
-0.30597
0.53961
-0.47061
-0.69201
0.68532
-0.22686
-0.022972
-0.0048606
0.26041
0.18361
-0.92443
1.1108
-0.64578
-0.38907
0.72166
-0.067075
-0.046216
0.2539
-0.36426
-0.035225
0.20734
0.10397
-0.65237
0.91409
-0.067849
-0.42778
-0.70073
0.32044
0.65883
0.053699
0.20239
-1.2433
1.8679
-2.2895
2.0502
-0.70844
-1.3328
2.0808
-0.884
-1.1501
0.76158
1.899
0.17789
-1.8901
-0.70393
-0.58947
0.56073
0.24197
1.3516
0.82897
-0.84314
-0.042704
-0.14111
-0.46651
-0.19769
-0.010517
-0.21738
0.1568
0.29748
0.6102
-1.4232
-0.51166
0.68963
0.88399
1.2805
-1.7822
-0.83582
1.523
0.8108
-2.6893
0.5662
2.0278
-2.6104
2.7609
-1.2558
0.23889
-0.12076
-0.85666
0.8287
-0.37757
0.33992
-0.28094
0.25782
0.13916
-0.070049
-0.2121
-0.22686
0.10232
0.093235
-0.19958
0.48774
0.25976
-0.8905
0.089963
0.1935
0.10713
-0.37494
0.90212
-0.52376
0.24059
0.066515
-0.20782
0.46103
-0.46307
-0.035301
0.092958
-0.73678
1.0964
-0.47391
-0.28222
0.57624
-0.40568
0.11098
-0.13556
0.52621
-1.1123
1.1748
-0.32718
0.077695
0.094548
-0.48953
0.221
0.022336
0.30637
-0.60545
0.238
-0.0045247
0.30965
-0.56255
0.087897
0.2919
-0.19774
0.37827
0.13477
-0.6031
-0.40049
1.1593
-0.2003
-0.51954
0.14328
0.78672
-1.0543
-0.093669
0.97078
-0.42332
-0.46235
0.35263
0.2994
-0.51505
-0.26581
0.90132
-0.90943
0.98673
-0.11689
-0.60156
-0.12781
0.0098008
0.34887
-0.008049
0.51151
-0.54446
0.32335
-0.27902
-0.18561
0.27835
-0.45062
0.509
-0.23537
-0.13951
0.14239
0.19332
-0.080982
-0.21354
0.45092
0.081719
-0.37514
-0.34831
0.63276
-0.11383
-0.59391
0.52025
0.2052
-0.17683
-0.70322
0.76777
-0.38282
-0.32921
0.73411
-3.0851
-12.584
-54.203
-86.376
218.85
41.6
-70.355
-15.502
-13.933
6.5884
2.212
49.239
7.3181
-51.775
-61.879
-68.268
104.58
59.237
-83.029
-25.731
5.9367
-10.032
-60.766
27.323
212.27
-80.053
-1.9578
27.255
-63.867
-18.811
57.405
96.532
-48.597
-154.73
-255.61
217.49
405.49
-233.13
-116.89
13.249
223.69
48.752
41.963
-270.07
-296.01
207.28
254.82
88.172
-163.38
-488.57
-60.013
311.12
180.27
-20.254
-42.549
-37.561
171.99
-0.54795
-29.722
-61.626
-43.525
132.54
-86.783
1.3474
-147.88
8.1868
220.42
-32.708
-178.37
92.281
96.119
-8.2608
-74.643
4.4814
99.039
-102.79
-197.01
48.186
54.804
-6.472
145.28
95.691
61.946
-7.102
-188.38
-273.41
259.63
50.043
45.679
53.341
-70.248
-82.159
89.719
-97.068
-314.51
144.91
69.001
-37.668
-39.409
209.41
415.91
-109.37
-271.37
-54.528
6.6273
1.2464
41.501
20.087
-69.567
0.69171
-10.746
6.4089
1.7591
0.41121
1.5481
0.066714
1.388
4.8632
-2.3178
-9.5758
21.127
-3.7882
-10.734
-1.5268
-3.1434
0.10091
4.4361
-0.22478
-1.1522
1.2058
-0.43345
1.1582
-0.021746
1.9194
-1.0021
-1.8707
2.6476
1.0708
-1.0304
-2.0147
-0.52252
1.8405
-0.7411
1.6968
-0.007669
0.017226
1.997
1.1982
-2.9893
-0.9262
-0.55936
0.1341
0.14222
-0.21608
2.2063
7.7193
3.7156
-11.844
-1.7737
-0.93089
2.5722
-6.4564
-3.3605
9.7995
-36.484
-57.381
-231.76
-24.58
283.06
79.264
19.084
-15.804
1.9521
5.3153
-1.4735
9.9686
-5.3982
48.151
48.444
131.81
-80.669
115.91
26.033
-271.48
-36.53
-23.068
11.514
-6.5881
3.6836
-1.5322
-0.012492
1.532
-1.0826
3.5939
2.5107
-5.0352
-0.51451
-1.0881
-3.8505
-1.6223
8.6074
-6.5829
6.648
-4.1422
3.6579
-2.6641
1.6636
-0.69175
0.086431
-1.2124
1.7095
-0.74234
0.039912
-6.9354
-8.6451
9.5867
46.688
55.437
