-20.66
-13.96
-7.93
-3.28
-0.42
0.78
0.87
0.73
1.18
2.72
5.43
8.95
12.79
16.55
20.22
24.09
28.54
33.76
39.52
45.13
49.77
52.77
53.79
52.88
50.33
46.51
41.77
36.54
31.29
26.57
22.84
20.24
18.56
17.27
15.76
13.65
10.93
7.97
5.36
3.63
3.14
3.91
5.62
7.77
9.9
11.74
13.34
14.97
16.98
19.57
22.68
25.98
29.03
31.54
33.43
34.87
36.08
37.14
37.94
38.22
37.72
36.4
34.48
32.35
30.4
28.88
27.71
26.69
25.56
24.25
22.91
21.74
20.89
20.28
19.69
18.81
17.47
15.64
13.49
11.27
9.27
7.73
6.8
6.52
6.71
7.05
7.13
6.58
5.23
3.16
0.62
-2.01
-4.37
-6.24
-7.46
-8.04
-8.08
-7.73
-7.17
-6.52
-5.82
-5.06
-4.3
-3.65
-3.34
-3.59
-4.51
-6.03
-7.89
-9.8
-11.54
-13
-14.18
-15.14
-15.95
-16.57
-16.95
-16.98
-16.45
-15.03
-12.3
-7.84
-1.44
6.73
16.05
25.44
33.67
39.66
42.73
42.82
40.44
36.43
31.64
26.7
21.88
17.17
12.57
8.17
4.17
0.85
-1.67
-3.4
-4.53
-5.29
-5.8
-6.07
-6.07
-5.82
-5.46
-5.23
-5.43
-6.21
-7.59
-9.4
-11.36
-13.19
-14.68
-15.69
-16.26
-16.46
-16.34
-15.97
-15.4
-14.72
-14.01
-13.43
-13.03
-12.86
-12.9
-13.09
-13.43
-14.04
-15.07
-16.58
-18.38
-19.94
-20.52
-19.46
-16.36
-11.24
-4.52
3.26
11.53
19.82
27.71
34.74
40.35
44.05
45.55
44.86
42.34
38.57
34.15
29.62
25.31
21.42
18.07
15.3
13.11
11.47
10.28
9.37
8.61
7.85
7.02
6.11
5.1
4.04
2.96
1.97
1.22
0.9
1.18
2.09
3.51
5.18
6.78
8.02
8.67
8.61
7.84
6.49
4.72
2.76
0.84
-0.85
-2.22
-3.26
-4.02
-4.57
-5
-5.37
-5.68
-5.93
-6.06
-6.06
-5.93
-5.81
-5.87
-6.34
-7.38
-9.02
-11.06
-13.22
-15.06
-16.15
-16.19
-15.08
-12.99
-10.32
-7.66
-5.55
-4.45
-4.49
-5.52
-7.07
-8.59
-9.51
-9.49
-8.5
-6.71
-4.48
-2.11
0.23
2.48
4.61
6.51
8
8.87
9.02
8.54
7.64
6.6
5.64
4.85
4.26
3.83
3.56
3.46
3.51
3.7
4
4.42
4.94
5.56
6.19
6.68
6.89
6.73
6.26
5.63
5.03
4.57
4.23
3.89
3.41
2.76
1.97
1.17
0.44
-0.17
-0.72
-1.28
-1.88
-2.54
-3.25
-4.02
-4.8
-5.6
-6.34
-6.94
-7.38
-7.68
-8.02
-8.57
-9.48
-10.71
-12.04
-13.13
-13.63
-13.36
-12.33
-10.75
-8.92
-7.11
-5.51
-4.18
-3.15
-2.37
-1.8
-1.38
-1.07
-0.76
-0.39
0.08
0.66
1.35
2.09
2.77
3.28
3.53
3.51
3.28
2.97
2.74
2.6
2.53
2.36
2.02
1.5
0.91
0.4
0.06
-0.14
-0.35
-0.68
-1.24
-2
-2.89
-3.87
-4.91
-6.04
-7.25
-8.49
-9.66
-10.69
-11.58
-12.42
-13.34
-14.39
-15.47
-16.39
-16.9
-16.77
-15.94
-14.42
-12.3
-9.69
-6.64
-3.25
0.39
4.1
7.58
10.5
12.62
13.83
14.2
14.02
13.62
13.27
13.12
13.15
13.28
13.41
13.53
13.62
13.73
13.82
13.84
13.76
13.55
13.19
12.67
11.89
10.81
9.49
8.08
6.79
5.79
5.09
4.57
4.07
3.5
2.91
2.46
2.27
2.35
2.58
2.8
2.82
2.53
1.86
0.76
-0.81
-2.87
-5.35
-8.2
-11.33
-14.68
-18.23
-21.8
-25.16
-27.94
-29.83
-30.66
-30.51
-29.66
-28.4
-26.95
-25.39
-23.73
-22.04
-20.47
-19.25
-18.59
-18.57
-19.1
-19.95
-20.87
-21.62
-22.07
-22.09
-21.59
-20.51
-18.76
-16.32
-13.27
-9.74
-5.91
-1.94
2.23
6.87
12.41
19.4
28.17
38.65
50.28
62.03
72.63
80.87
85.78
86.86
84.08
77.81
68.72
57.74
45.84
33.94
22.76
12.68
3.8
-3.96
-10.7
-16.53
-21.48
-25.6
-29
-31.86
-34.36
-36.66
-38.81
-40.75
-42.35
-43.4
-43.68
-43.06
-41.42
-38.8
-35.36
-31.38
-27.18
-23.01
-19.05
-15.27
-11.61
-7.94
-4.22
-0.53
2.95
5.99
8.38
10.02
11
11.5
11.78
12.04
12.39
12.83
13.29
13.65
13.81
13.7
13.24
12.46
11.4
10.19
9
7.95
7.08
6.31
5.59
4.84
4.08
3.32
2.49
1.47
0.08
-1.78
-4.06
-6.49
-8.72
-10.37
-11.2
-11.18
-10.47
-9.26
-7.84
-6.36
-4.9
-3.48
-2.07
-0.67
0.67
1.83
2.74
3.36
3.72
3.91
3.97
3.95
3.87
3.76
3.71
3.86
4.28
4.95
5.74
6.48
6.99
7.22
7.15
6.82
6.29
5.56
4.64
3.5
2.1
0.47
-1.32
-3.1
-4.67
-5.86
-6.62
-7.08
-7.5
-8.14
-9.13
-10.43
-11.82
-13.03
-13.86
-14.22
-14.08
-13.47
-12.4
-10.88
-8.97
-6.77
-4.5
-2.39
-0.6
0.87
2.13
3.39
4.77
6.28
7.78
9.04
9.93
10.41
10.66
10.83
11.06
11.35
11.55
11.56
11.36
11.05
10.8
10.76
10.94
11.19
11.33
11.2
10.82
10.31
9.87
9.62
9.61
9.78
9.99
10.13
10.08
9.8
9.24
8.41
7.35
6.11
4.74
3.27
1.71
0.04
-1.68
-3.36
-4.86
-6.1
-7.07
-7.85
-8.58
-9.35
-10.21
-11.08
-11.91
-12.66
-13.37
-14.11
-14.95
-15.94
-17
-17.99
-18.72
-19.02
-18.73
-17.8
-16.26
-14.23
-11.95
-9.69
-7.71
-6.17
-5.14
-4.48
-3.98
-3.42
-2.64
-1.6
-0.37
0.98
2.33
3.59
4.67
5.51
6.06
6.37
6.54
6.76
7.18
7.87
8.79
9.75
10.58
11.12
11.4
11.46
11.4
11.29
11.13
10.93
10.7
10.47
10.26
10.1
9.93
9.61
9.03
8.16
7.08
5.94
4.9
4.03
3.3
2.57
1.67
0.51
-0.97
-2.68
-4.48
-6.17
-7.57
-8.53
-8.98
-8.95
-8.52
-7.87
-7.11
-6.33
-5.55
-4.82
-4.15
-3.52
-2.86
-2.07
-1.07
0.11
1.38
2.55
3.42
3.9
4.02
3.89
3.65
3.39
3.18
3.07
3.06
3.16
3.37
3.65
3.95
4.23
4.45
4.6
4.66
4.57
4.29
3.79
3.13
2.35
1.49
0.5
-0.75
-2.34
-4.24
-6.25
-8.11
-9.59
-10.63
-11.37
-12.07
-12.88
-13.71
-14.28
-14.26
-13.45
-11.87
-9.75
-7.34
-4.84
-2.29
0.37
3.17
6.01
8.66
10.86
12.4
13.31
13.75
14.02
14.4
15.07
16.05
17.21
18.33
19.27
19.94
20.42
20.81
21.19
21.52
21.69
21.48
20.76
19.54
18
16.42
15.07
14.15
13.65
13.44
13.33
13.12
12.72
12.13
11.46
10.82
10.3
9.95
9.76
9.73
9.83
10.01
10.14
9.99
9.34
8.02
6.03
3.48
0.58
-2.46
-5.48
-8.39
-11.07
-13.41
-15.27
-16.51
-17.07
-16.99
-16.38
-15.36
-14.08
-12.6
-11.03
-9.48
-8.08
-6.94
-6.11
-5.54
-5.1
-4.63
-4.01
-3.26
-2.53
-1.95
-1.64
-1.57
-1.64
-1.79
-2.01
-2.38
-3.07
-4.21
-5.93
-8.23
-10.94
-13.74
-16.09
-17.5
-17.61
-16.42
-14.29
-11.81
-9.56
-7.83
-6.58
-5.48
-4.28
-2.84
-1.36
-0.15
0.54
0.65
0.37
0.02
-0.08
0.24
0.98
2
3.13
4.18
5
5.49
5.6
5.43
5.13
4.94
5.02
5.36
5.84
6.21
6.3
6.05
5.6
5.18
4.99
5.08
5.33
5.62
5.81
5.87
5.87
5.91
5.99
6.04
5.89
5.37
4.45
3.23
1.92
0.75
-0.19
-0.95
-1.67
-2.47
-3.42
-4.38
-5.18
-5.65
-5.73
-5.52
-5.19
-4.93
-4.85
-4.95
-5.11
-5.22
-5.27
-5.38
-5.78
-6.71
-8.31
-10.53
-13.17
-15.93
-18.48
-20.54
-21.83
-22.12
-21.29
-19.34
-16.51
-13.18
-9.74
-6.44
-3.33
-0.2
3.16
6.79
10.52
13.9
16.41
17.68
17.69
16.7
15.21
13.67
12.37
11.4
10.74
10.33
10.14
10.21
10.52
10.98
11.38
11.51
11.27
10.65
9.79
8.86
7.99
7.19
6.43
5.64
4.79
3.91
3.02
2.16
1.34
0.55
-0.24
-1.03
-1.83
-2.66
-3.51
-4.37
-5.18
-5.87
-6.43
-6.9
-7.39
-8
-8.83
-9.82
-10.89
-11.9
-12.78
-13.52
-14.07
-14.34
-14.14
-13.27
-11.6
-9.22
-6.47
-3.87
-1.94
-0.98
-1.01
-1.73
-2.75
-3.74
-4.57
-5.32
-6.16
-7.16
-8.26
-9.19
-9.69
-9.6
-8.94
-7.87
-6.57
-5.19
-3.78
-2.38
-0.99
0.32
1.46
2.34
2.92
3.23
3.34
3.36
3.35
3.38
3.44
3.5
3.51
3.41
3.19
2.9
2.62
2.44
2.43
2.54
2.66
2.64
2.38
1.87
1.19
0.5
-0.04
-0.33
-0.39
-0.29
-0.18
-0.21
-0.47
-1.03
-1.87
-2.97
-4.36
-6.11
-8.29
-10.93
-13.94
-17.01
-19.75
-21.71
-22.56
-22.15
-20.56
-17.99
-14.76
-11.23
-7.7
-4.41
-1.5
1.04
3.26
5.23
6.88
8.02
8.43
7.99
6.77
5.1
3.45
2.23
1.66
1.62
1.79
1.82
1.5
0.79
-0.11
-0.94
-1.51
-1.75
-1.69
-1.36
-0.84
-0.16
0.54
1.1
1.27
0.86
-0.13
-1.5
-2.88
-3.93
-4.47
-4.5
-4.18
-3.74
-3.34
-3.04
-2.79
-2.51
-2.11
-1.52
-0.74
0.22
1.29
2.44
3.59
4.65
5.55
6.21
6.61
6.76
6.75
6.66
6.58
6.55
6.53
6.44
6.2
5.79
5.24
4.63
4.13
3.92
4.12
4.75
5.7
6.69
7.39
7.5
6.87
5.51
3.63
1.5
-0.56
-2.28
-3.52
-4.27
-4.68
-5.01
-5.52
-6.38
-7.57
-8.86
-9.92
-10.46
-10.37
-9.74
-8.89
-8.09
-7.56
-7.3
-7.18
-6.99
-6.59
-5.93
-5.05
-4.05
-2.92
-1.6
0.03
2.06
4.46
7.04
9.5
11.52
12.89
13.55
13.67
13.51
13.31
13.24
13.32
13.5
13.7
13.84
13.91
13.96
14.05
14.31
14.9
15.99
17.7
20.02
22.78
25.76
28.75
31.58
34.19
36.56
38.62
40.24
41.14
41
39.58
36.87
33.13
28.97
25.21
22.75
22.37
24.56
29.25
35.86
43.32
50.38
55.94
59.26
60.2
59.09
56.44
52.55
47.31
40.29
31.12
19.94
7.62
-4.36
-14.44
-21.56
-25.66
-27.58
-28.71
-30.29
-32.95
-36.59
-40.57
-44.09
-46.59
-47.79
-47.75
-46.7
-45.02
-43.07
-41.29
-39.95
-39.12
-38.43
-37.17
-34.48
-29.65
-22.43
-13.03
-2.19
9.12
19.86
29.04
35.82
39.57
40.04
37.45
32.62
26.7
20.88
16
12.28
9.4
6.76
3.83
0.45
-3.09
-6.26
-8.52
-9.55
-9.38
-8.24
-6.4
-4.03
-1.09
2.62
7.32
13.03
19.5
26.22
32.58
38.18
42.91
46.97
50.55
53.59
55.59
55.75
53.32
48.08
40.53
31.77
23.11
15.66
10.11
6.72
5.44
5.99
7.72
9.45
9.6
6.52
-0.8
-12.39
-27.32
-44.35
-62.52
-81.51
-101.33
-121.57
-140.84
-156.84
-167.11
-170.13
-165.97
-156.24
-143.34
-129.47
-116.03
-103.58
-92.16
-81.84
-72.88
-65.66
-60.36
-56.79
-54.29
-51.92
-48.78
-44.19
-37.94
-30.27
-21.69
-12.85
-4.31
3.59
10.69
16.88
22.08
26.26
29.45
31.85
33.73
35.27
36.33
36.44
34.92
31.23
25.37
17.98
10.21
3.36
-1.55
-3.93
-3.65
-0.92
3.95
10.46
17.98
25.6
32.26
36.9
38.83
37.76
33.81
27.42
19.05
9.12
-2.03
-14.06
-26.44
-38.3
-48.49
-55.86
-59.62
-59.64
-56.54
-51.43
-45.49
-39.46
-33.5
-27.3
-20.51
-13.11
-5.51
1.56
7.43
11.67
14.23
15.26
15.09
14.08
12.67
11.29
10.31
9.9
10
10.39
10.79
11.04
11.14
11.22
11.4
11.75
12.32
13.19
14.46
16.26
18.61
21.44
24.6
27.9
31.2
34.39
37.35
39.92
41.9
43.21
43.98
44.63
45.81
48.21
52.23
57.81
64.45
71.3
77.5
82.36
85.46
86.65
85.91
83.36
79.26
74.06
68.34
62.73
57.76
53.85
51.38
50.72
52.11
55.45
60.07
64.73
67.84
67.98
64.51
57.84
49.51
41.69
36.58
35.65
39.21
46.21
54.45
61.27
64.33
62.39
55.61
45.45
33.98
23.09
13.85
6.24
-0.58
-7.78
-16.32
-26.62
-38.49
-51.23
-64.02
-76.06
-86.85
-96.26
-104.6
-112.46
-120.57
-129.44
-139.11
-148.92
-157.41
-162.64
-162.62
-156.09
-142.98
-124.65
-103.49
-82.26
-63.23
-47.63
-35.55
-26.34
-19.22
-13.81
-10.21
-8.71
-9.37
-11.88
-15.64
-20.16
-25.38
-31.72
-39.68
-49.36
-60.11
-70.49
-78.7
-83.16
-83.11
-78.78
-71.29
-62.21
-53.26
-45.92
-41.14
-39.14
-39.27
-40.18
-40.19
-37.92
-32.8
-25.37
-17.06
-9.58
-4.27
-1.6
-1.16
-1.95
-2.7
-2.29
0.01
4.28
9.68
14.35
15.77
11.69
1.46
-13.01
-27.35
-36.2
-35.35
-23.7
-3.86
19.06
39.58
54.08
61.68
63.72
62.33
59.05
54.39
48.25
40.84
33.2
27
23.76
24.09
27.35
32.03
36.49
39.72
41.7
43.19
45.2
48.23
51.91
54.93
55.62
52.66
45.63
35.38
23.72
12.84
4.6
-0.1
-1.46
-0.59
0.99
1.7
0.34
-3.85
-11.05
-20.77
-31.74
-41.92
-48.75
-49.84
-43.71
-30.6
-12.67
6.49
22.91
33.51
37.03
34.35
28.06
21.58
18.14
20
27.91
41.07
57.28
73.35
85.85
91.83
89.65
79.33
62.48
41.74
20.09
0.29
-15.39
-25.18
-28.02
-23.7
-13.39
0.31
13.62
22.48
23.77
16.3
1.39
-17.6
-36.11
-49.86
-55.91
-53.41
-43.68
-29.7
-15.19
-3.6
2.75
3.05
-1.99
-10.63
-20.65
-29.99
-37.07
-40.96
-41.47
-39.08
-34.88
-30.43
-27.46
-27.33
-30.69
-36.99
-44.69
-51.67
-56.05
-56.84
-54.21
-49.37
-43.88
-39.1
-35.69
-33.66
-32.62
-32.08
-31.56
-30.56
-28.51
-24.82
-19.11
-11.47
-2.62
6.15
13.36
17.86
19.18
17.72
14.55
11.04
8.46
7.72
9.2
12.77
17.89
23.74
29.51
34.51
38.33
40.88
42.31
42.93
43.07
43.07
43.18
43.58
44.31
45.26
46.13
46.53
46.1
44.58
41.96
38.43
34.31
29.95
25.69
21.74
18.12
14.7
11.26
7.68
4.07
0.88
-1.08
-0.9
2.1
8.08
16.56
26.47
36.46
45.07
50.9
52.81
50.06
42.63
31.42
18.26
5.47
-4.79
-11.26
-13.95
-13.89
-12.43
-10.56
-8.4
-5.35
-0.7
5.82
13.62
21.3
27.07
29.27
26.93
20.01
9.34
-3.68
-17.47
-30.62
-42.05
-51.05
-57.23
-60.5
-61.05
-59.27
-55.74
-51.06
-45.87
-40.74
-36.15
-32.45
-29.67
-27.54
-25.4
-22.56
-18.5
-13.15
-6.93
-0.56
5.1
9.33
11.6
11.85
10.49
8.47
7
7.13
9.33
13.32
18.11
22.4
25.15
25.88
24.7
22.17
18.92
15.34
11.36
6.57
0.34
-7.71
-17.46
-28.06
-38.15
-46.32
-51.58
-53.76
-53.46
-51.75
-49.64
-47.74
-46.2
-44.79
-43.24
-41.4
-39.31
-37.12
-34.79
-32.02
-28.32
-23.1
-16.01
-7.2
2.79
13.16
23.2
32.52
41.09
48.99
56.2
62.43
67.2
70.07
70.94
70.13
68.23
65.79
63.04
59.85
55.87
50.87
45.01
38.92
33.48
29.48
27.37
27.18
28.68
31.44
34.97
38.58
41.26
41.7
38.61
31.22
19.62
4.95
-11.06
-26.59
-40.29
-51.47
-60
-65.98
-69.51
-70.77
-70.11
-68.35
-66.64
-66.2
-67.78
-71.3
-75.77
-79.43
-80.32
-76.69
-67.6
-53.02
-33.96
-12.19
10.07
30.62
47.61
59.9
67.11
69.55
67.87
62.81
54.99
45.08
33.82
22.28
11.65
3.08
-2.73
-5.71
-6.39
-5.7
-4.6
-3.85
-3.95
-5.11
-7.32
-10.35
-13.76
-16.94
-19.22
-19.96
-18.86
-15.89
-11.37
-5.78
0.36
6.54
12.4
17.66
22.15
25.71
28.14
29.12
28.32
25.36
20.03
12.39
2.92
-7.46
-17.42
-25.51
-30.42
-31.37
-28.31
-21.93
-13.41
-4.16
4.64
12.22
18.31
23.01
26.6
29.4
31.63
33.46
34.92
35.85
35.96
34.81
32.11
27.92
22.86
18.03
14.77
14.2
16.9
22.72
30.81
39.93
48.68
55.82
60.38
61.71
59.58
54.13
45.91
35.93
25.6
16.64
10.77
9.16
11.94
18.03
25.31
31.27
33.71
31.35
23.97
12.21
-2.93
-20.45
-39.55
-59.55
-79.64
-98.7
-115.36
-128.18
-136.07
-138.63
-136.21
-129.68
-120.03
-107.96
-93.65
-77.11
-58.47
-38.4
-18.05
1.18
18.15
32.25
43.28
51.2
55.7
56.19
52.1
43.2
30.07
14.12
-2.51
-17.36
-28.11
-33.01
-31.29
-23.36
-10.78
4.1
18.74
31.02
39.79
44.87
46.88
46.67
45.04
42.42
38.98
34.78
29.81
24.04
17.5
10.28
2.6
-5.2
-12.64
-19.28
-24.8
-29.12
-32.41
-35
-37.23
-39.27
-41.03
-42.1
-41.91
-39.84
-35.52
-28.93
-20.63
-11.59
-3.01
4.09
9.13
12.17
13.82
14.95
16.33
18.32
20.78
23.34
25.6
27.41
28.88
30.22
31.63
33.16
34.74
36.23
37.51
38.36
38.42
37.25
34.37
29.55
22.92
15.12
7.17
0.26
-4.64
-6.93
-6.65
-4.35
-0.91
2.76
6.01
8.61
10.77
12.86
15.22
17.85
20.3
21.75
21.28
18.14
11.94
2.81
-8.71
-21.71
-35.11
-47.74
-58.41
-66.06
-69.85
-69.4
-64.85
-56.94
-46.82
-35.74
-24.77
-14.5
-5.11
3.51
11.5
18.91
25.65
31.57
36.58
40.66
43.91
46.4
48.2
49.35
49.97
50.27
50.61
51.39
52.85
54.96
57.37
59.53
60.89
61.16
60.41
59.05
57.73
57.04
57.47
59.29
62.66
67.67
74.32
82.39
91.29
100.07
107.52
112.66
115.12
115.37
114.57
114.23
115.61
119.31
125.1
132.09
139.08
144.66
147.38
145.82
138.75
125.57
106.53
82.92
56.6
29.57
3.34
-21.09
-42.97
-61.23
-74.31
-80.46
-78.63
-69.36
-55.12
-39.76
-27.29
-20.5
-20.16
-25.01
-32.63
-40.53
-47.16
-52.19
-56.26
-60.33
-65.15
-71.03
-77.96
-85.91
-95.08
-105.89
-118.78
-133.89
-150.92
-169.22
-188.01
-206.72
-225.09
-242.96
-260.07
-275.57
-287.95
-295.15
-295.15
-286.57
-269.18
-244.15
-213.79
-181
-148.61
-118.79
-92.76
-70.89
-52.95
-38.34
-26.31
-16.04
-6.78
2.05
10.61
18.62
25.44
30.36
32.98
33.46
32.49
30.98
29.7
29.03
28.84
28.88
28.9
29.01
29.57
31.09
33.99
38.36
43.97
50.32
56.86
62.99
68.29
72.46
75.32
76.88
77.25
76.6
75.09
72.84
69.81
65.9
60.96
54.79
47.22
38.1
27.43
15.51
3.1
-8.66
-18.33
-24.67
-26.92
-25.1
-19.87
-12.35
-3.76
4.85
12.66
19.15
23.97
26.86
27.64
26.27
22.96
18.19
12.72
7.36
2.82
-0.55
-2.9
-4.71
-6.7
-9.48
-13.55
-19.13
-26.22
-34.5
-43.12
-50.72
-55.61
-56.17
-51.41
-41.46
-27.51
-11.57
4.22
18.24
29.7
38.61
45.36
50.4
53.96
56.17
57.22
57.51
57.57
57.84
58.43
59.02
59.05
58
55.7
52.39
48.58
44.81
41.44
38.6
36.21
34.08
32.04
29.84
27.23
23.9
19.63
14.37
8.26
1.58
-5.55
-13.28
-22.17
-32.89
-45.78
-60.4
-75.38
-88.86
-99.01
-104.68
-105.5
-101.62
-93.28
-80.54
-63.5
-42.79
-20.13
1.73
19.56
30.73
34.1
30.43
21.93
11.38
1.34
-6.39
-10.69
-11
-7.08
1
12.66
26.67
41.17
54.13
63.91
69.72
71.78
70.99
68.45
64.7
59.52
52.07
41.5
27.72
11.81
-4.13
-17.71
-27.13
-31.84
-32.49
-30.42
-26.99
-23.15
-19.42
-16.26
-14.39
-14.71
-18.01
-24.34
-32.8
-41.59
-48.55
-51.96
-51.01
-46.05
-38.26
-29.18
-20.18
-12.14
-5.49
-0.23
3.74
6.59
8.48
9.64
10.33
10.83
11.43
12.54
14.59
18.02
23
29.24
35.92
41.78
45.55
46.38
44.22
39.83
34.59
30.03
27.45
27.54
30.35
35.37
41.85
48.94
55.97
62.47
68.24
73.31
77.84
82.14
86.45
90.79
94.65
97.09
96.95
93.3
85.86
75.25
62.88
50.72
40.83
35.03
34.63
40.16
51.12
65.6
80.37
91.29
94.41
87.26
69.79
44.52
15.63
-12.42
-36.38
-54.77
-67.79
-76.32
-81.23
-82.94
-81.8
-78.63
-75.07
-73.36
-75.56
-82.83
-94.9
-110.13
-126.06
-140.04
-149.78
-153.62
-150.7
-140.96
-125.16
-104.75
-81.73
-58.45
-37.34
-20.75
-10.51
-7.67
-12.04
-22.12
-35.23
-48.16
-58.11
-63.51
-64.4
-62.2
-59.04
-56.85
-56.51
-57.56
-58.29
-56.37
-49.73
-37.45
-20.25
-0.33
19.23
35.48
46.34
51.05
50.09
44.73
36.6
27.44
18.91
12.54
9.51
10.32
14.49
20.59
26.54
30.32
30.53
26.98
20.67
13.48
7.46
4.14
4.07
6.73
10.93
15.37
19.23
22.36
25.21
28.4
32.3
36.85
41.5
45.5
48.08
48.63
46.75
42.11
34.56
24.16
11.38
-2.89
-17.22
-29.95
-39.43
-44.33
-43.95
-38.44
-28.87
-17.1
-5.36
4.23
10.33
12.67
12.14
10.36
9.05
9.45
11.98
16.17
20.91
24.72
26.04
23.54
16.49
5.24
-8.67
-22.73
-34.33
-41.67
-44.42
-43.52
-40.47
-36.32
-31.1
-24.09
-14.64
-3.09
8.9
18.87
24.55
24.83
20.17
12.41
4.03
-2.56
-5.6
-4.16
1.77
11.41
23.38
35.96
47.35
56.04
61.02
61.97
59.18
53.38
45.54
36.63
27.44
18.46
9.84
1.57
-6.3
-13.49
-19.42
-23.41
-25
-24.16
-21.33
-17.15
-12.16
-6.57
-0.36
6.52
13.88
21.22
27.92
33.54
38.01
41.57
44.53
47.01
48.93
50.12
50.57
50.55
50.45
50.56
50.99
51.61
52.3
53.07
54.07
55.31
56.39
56.27
53.5
46.65
34.86
18.2
-2.25
-24.71
-47.1
-67.44
-84.07
-95.7
-101.38
-100.49
-92.84
-78.81
-59.59
-37.17
-14.24
6.18
21.35
29.39
29.78
23.54
12.97
0.98
-9.75
-17.35
-21.18
-21.67
-20.03
-17.81
-16.47
-17.18
-20.67
-27.26
-36.83
-48.88
-62.6
-76.96
-90.75
-102.63
-111.28
-115.56
-114.72
-108.64
-97.91
-83.66
-67.33
-50.25
-33.43
-17.48
-2.74
10.53
21.96
31.07
37.47
41.02
42.02
41.16
39.29
37.14
35.15
33.45
31.97
30.61
29.33
28.11
26.93
25.64
24.09
22.11
19.66
16.79
13.6
10.17
6.5
2.56
-1.62
-5.89
-10.04
-13.75
-16.79
-19.05
-20.51
-21.19
-21.08
-20.09
-18.12
-15.15
-11.34
-6.98
-2.42
2.09
6.48
10.84
15.34
20.12
25.11
30.06
34.6
38.33
40.94
42.26
42.32
41.38
39.84
38.09
36.38
34.62
32.44
29.3
24.65
18.17
9.99
0.7
-8.61
-16.63
-22.1
-24.14
-22.49
-17.51
-10.08
-1.22
8.14
17.32
25.8
33.09
38.6
41.71
41.94
39.23
34.01
27.2
19.91
13.16
7.57
3.26
-0.09
-3
-5.85
-8.75
-11.49
-13.73
-15.27
-16.16
-16.78
-17.58
-18.95
-21
-23.56
-26.25
-28.69
-30.52
-31.47
-31.32
-29.97
-27.48
-24.13
-20.31
-16.52
-13.08
-10.15
-7.67
-5.46
-3.37
-1.36
0.49
2.06
3.23
3.95
4.26
4.28
4.2
4.22
4.48
4.97
5.53
5.85
5.66
4.89
3.75
2.73
2.38
3.12
5.03
7.77
10.77
13.32
14.74
14.54
12.54
8.97
4.5
0.24
-2.59
-2.96
-0.47
4.49
10.83
17.11
22.07
24.93
25.66
24.74
22.95
20.97
19.24
17.92
16.99
16.37
15.97
15.68
15.3
14.64
13.58
12.26
11.1
10.67
11.49
13.76
17.26
21.38
25.4
28.75
31.14
32.7
33.8
34.88
36.26
38.01
40.02
41.99
43.65
44.8
45.43
45.61
45.51
45.2
44.63
43.74
42.44
40.72
38.7
36.64
34.8
33.44
32.65
32.42
32.63
33.2
34.13
35.45
37.05
38.42
38.66
36.67
31.66
23.67
13.77
3.77
-4.49
-9.87
-12.47
-13.41
-14.29
-16.47
-20.52
-26.22
-32.8
-39.4
-45.36
-50.41
-54.49
-57.8
-60.66
-63.4
-66.25
-69.17
-71.72
-73.12
-72.54
-69.39
-63.7
-56.18
-48.08
-40.83
-35.61
-32.88
-32.18
-32.16
-31
-27.1
-19.89
-10.35
-0.91
5.37
5.98
-0.05
-11.71
-26.45
-41.25
-53.71
-62.65
-68.08
-70.68
-71.17
-69.9
-66.88
-61.88
-54.73
-45.5
-34.46
-22.15
-9.34
3.12
14.4
23.92
31.38
36.77
40.26
42.19
43.04
43.49
44.39
46.51
50.28
55.41
60.92
65.26
66.92
65.03
59.67
51.88
43.08
34.52
26.79
19.67
12.39
4.19
-5.31
-15.91
-26.88
-37.39
-46.72
-54.47
-60.48
-64.67
-66.98
-67.4
-66.08
-63.31
-59.62
-55.52
-51.5
-47.85
-44.67
-41.86
-39.26
-36.69
-33.95
-30.97
-27.78
-24.57
-21.61
-19.16
-17.39
-16.3
-15.72
-15.38
-15.04
-14.48
-13.49
-11.82
-9.12
-5.11
0.26
6.7
13.55
19.96
25.23
28.96
31.06
31.72
31.15
29.46
26.73
23.06
18.67
13.99
9.48
5.51
2.22
-0.49
-2.89
-5.25
-7.69
-10.12
-12.2
-13.54
-13.8
-12.89
-11.01
-8.55
-6.03
-3.85
-2.16
-0.86
0.28
1.51
2.96
4.58
6.23
7.74
8.98
9.9
10.49
10.79
10.77
10.42
9.75
8.88
8.01
7.31
6.86
6.62
6.39
5.99
5.32
4.44
3.54
2.88
2.61
2.78
3.24
3.78
4.17
4.22
3.85
3.05
1.88
0.43
-1.16
-2.8
-4.39
-5.88
-7.3
-8.68
-10.09
-11.46
-12.58
-13.13
-12.75
-11.26
-8.75
-5.6
-2.39
0.25
1.84
2.12
1.04
-1.26
-4.46
-8.16
-11.87
-15.1
-17.51
-18.91
-19.39
-19.18
-18.6
-17.92
-17.2
-16.33
-15.12
-13.42
-11.25
-8.85
-6.59
-4.81
-3.62
-2.93
-2.38
-1.66
-0.55
0.95
2.77
4.87
7.33
10.33
13.96
18.13
22.46
26.46
29.68
31.86
32.99
33.24
32.8
31.77
30.18
28.01
25.33
22.27
19.1
16.05
13.32
11.01
9.11
7.53
6.12
4.71
3.23
1.66
0.08
-1.4
-2.69
-3.77
-4.71
-5.62
-6.66
-7.94
-9.49
-11.19
-12.78
-13.87
-14.04
-12.96
-10.49
-6.8
-2.32
2.36
6.57
9.72
11.41
11.57
10.41
8.41
6.21
4.41
3.45
3.44
4.23
5.43
6.62
7.47
7.86
7.89
7.78
7.8
8.09
8.69
9.53
10.56
11.75
13.05
14.39
15.6
16.46
16.78
16.53
15.87
15.04
14.29
13.76
13.39
13.03
12.55
11.87
11.02
10.02
8.89
7.65
6.29
4.78
3.09
1.24
-0.76
-2.8
-4.75
-6.47
-7.91
-9.21
-10.59
-12.42
-14.93
-18.13
-21.76
-25.37
-28.44
-30.49
-31.29
-30.77
-29.1
-26.63
-23.87
-21.4
-19.72
-19.04
-19.07
-19.16
-18.39
-15.97
-11.59
-5.64
0.95
6.96
11.22
12.96
11.82
8
2.13
-4.79
-11.49
-16.7
-19.4
-19.18
-16.32
-11.69
-6.35
-1.27
3.01
6.3
8.64
10.1
10.71
10.51
9.71
8.63
7.67
7.14
7.12
7.5
8.01
8.39
8.54
8.45
8.23
7.96
7.7
7.4
6.91
6.07
4.69
2.77
0.39
-2.23
-4.75
-6.86
-8.36
-9.21
-9.58
-9.78
-10.2
-11.15
-12.76
-14.89
-17.12
-18.93
-19.88
-19.71
-18.48
-16.4
-13.82
-11.01
-8.18
-5.47
-2.96
-0.68
1.41
3.39
5.38
7.42
9.45
11.28
12.72
13.66
14.11
14.19
14.14
14.15
14.31
14.6
14.98
15.34
15.63
15.81
15.81
15.55
15.02
14.23
13.25
12.22
11.26
10.44
9.79
9.24
8.69
8.04
7.29
6.43
5.51
4.57
3.61
2.61
1.51
0.22
-1.27
-2.88
-4.36
-5.47
-5.99
-5.92
-5.48
-5.09
-5.16
-5.96
-7.41
-9.15
-10.65
-11.37
-11
-9.51
-7.16
-4.39
-1.69
0.56
2.14
3.07
3.56
3.92
4.45
5.34
6.55
7.96
9.32
10.44
11.25
11.78
12.11
12.29
12.36
12.3
12.12
11.86
11.6
11.42
11.32
11.29
11.24
11.11
10.85
10.48
10
9.39
8.58
7.51
6.09
4.32
2.29
0.16
-1.83
-3.54
-4.95
-6.14
-7.26
-8.42
-9.69
-11.06
-12.5
-14
-15.48
-16.88
-18.01
-18.69
-18.74
-18.07
-16.73
-14.92
-12.93
-10.99
-9.26
-7.69
-6.18
-4.56
-2.74
-0.78
1.16
2.89
4.33
5.5
6.58
7.73
9.06
10.58
12.25
14.03
15.91
17.84
19.73
21.44
22.8
23.75
24.33
24.7
25.06
25.57
26.28
27.21
28.27
29.39
30.44
31.34
32.04
32.61
33.29
34.4
36.22
38.87
42.18
45.74
49.05
51.75
53.82
55.63
57.89
61.42
66.85
74.3
83.25
92.51
100.47
105.36
105.68
100.6
90.21
75.62
58.79
42.17
28.1
18.34
13.62
13.65
17.37
23.54
31.11
39.44
48.18
56.87
64.66
70.32
72.57
70.64
64.68
55.71
45.34
35.23
26.57
19.8
14.45
9.17
2.03
-9.2
-26.45
-50.83
-82.21
-118.97
-158.16
-195.83
-227.64
-249.72
-259.42
-256.08
-241.33
-218.85
-193.45
-169.8
-151.13
-138.7
-131.83
-128.69
-127.06
-125.05
-121.3
-115.02
-105.78
-93.5
-78.5
-61.47
-43.44
-25.53
-8.67
6.61
20.27
32.61
44.1
55.1
65.66
75.48
84.01
90.59
94.77
96.53
96.29
94.84
93.07
91.69
91.02
90.98
91.21
91.22
90.55
88.81
85.74
81.2
75.22
68.03
60.13
52.17
44.87
38.82
34.37
31.62
30.38
30.27
30.8
31.44
31.76
31.5
30.64
29.34
27.98
27.05
26.97
27.97
29.76
31.44
31.59
28.62
21.41
9.87
-4.8
-20.45
-34.91
-46.92
-56.79
-66.08
-76.87
-90.68
-107.75
-127
-146.38
-163.44
-175.82
-181.53
-179.15
-168.01
-148.53
-122.3
-91.97
-60.78
-31.79
-7.34
11.26
23.71
30.54
32.77
31.61
28.2
23.35
17.52
10.9
3.51
-4.56
-13.04
-21.45
-29.2
-35.77
-40.83
-44.26
-46.12
-46.57
-45.84
-44.19
-41.96
-39.63
-37.69
-36.68
-37.01
-38.83
-41.97
-46.02
-50.5
-55.02
-59.45
-63.92
-68.72
-74.07
-79.96
-86.08
-91.89
-96.76
-100.09
-101.38
-100.14
-95.97
-88.53
-77.76
-64.02
-48.17
-31.47
-15.43
-1.39
9.74
17.67
22.77
25.9
28.11
30.3
33.01
36.35
40.05
43.63
46.61
48.6
49.38
48.84
47.01
44.09
40.38
36.33
32.39
28.99
26.46
24.98
24.45
24.59
24.89
24.8
23.9
22.02
19.3
16.13
12.98
10.23
8.11
6.69
5.87
5.51
5.41
5.38
5.26
5.03
4.74
4.57
4.66
5.15
6.15
7.72
9.95
12.83
16.37
20.42
24.81
29.25
33.51
37.38
40.69
43.3
45.16
46.35
47.06
47.56
47.96
48.25
48.27
47.82
46.86
45.53
44.1
42.78
41.62
40.42
38.89
36.8
34.12
31.08
28.05
25.35
23.18
21.49
20.12
18.85
17.53
16.11
14.64
13.18
11.74
10.33
8.93
7.55
6.29
5.19
4.23
3.35
2.39
1.25
-0.1
-1.65
-3.37
-5.24
-7.27
-9.45
-11.69
-13.88
-15.94
-17.85
-19.71
-21.64
-23.67
-25.72
-27.54
-28.87
-29.51
-29.36
-28.38
-26.54
-23.73
-19.83
-14.77
-8.69
-1.93
4.99
11.53
17.27
21.96
25.53
27.99
29.35
29.6
28.81
27.16
25.01
22.72
20.64
18.9
17.5
16.29
15.18
14.14
13.22
12.44
11.81
11.26
10.72
10.21
9.77
9.45
9.21
8.91
8.38
7.53
6.41
5.16
3.95
2.82
1.75
0.68
-0.32
-1.08
-1.4
-1.23
-0.73
-0.26
-0.15
-0.53
-1.23
-1.89
-2.13
-1.76
-0.89
0.17
1.06
1.53
1.56
1.32
1.05
0.95
1.16
1.75
2.86
4.66
7.4
11.15
15.71
20.5
24.76
27.79
29.26
29.31
28.55
27.68
27.22
27.25
27.47
27.4
26.68
25.26
23.42
21.66
20.43
19.86
19.81
19.93
19.85
19.4
18.58
17.51
16.29
14.94
13.4
11.64
9.74
7.92
6.37
5.2
4.3
3.44
2.36
0.85
-1.1
-3.41
-5.88
-8.31
-10.53
-12.51
-14.27
-15.94
-17.63
-19.38
-21.18
-22.96
-24.77
-26.75
-29.15
-32.15
-35.71
-39.38
-42.42
-44.01
-43.54
-40.91
-36.46
-30.85
-24.83
-18.96
-13.56
-8.73
-4.51
-0.89
2.12
4.54
6.49
8.12
9.58
10.96
12.23
13.24
13.83
13.91
13.53
12.88
12.24
11.86
11.82
11.96
12.01
11.69
10.93
9.88
8.81
7.93
7.31
6.83
6.31
5.68
5.04
4.6
4.54
4.81
5.2
5.32
4.9
3.85
2.36
0.75
-0.72
-1.88
-2.73
-3.33
-3.79
-4.24
-4.78
-5.51
-6.47
-7.65
-8.95
-10.2
-11.26
-12.1
-12.83
-13.62
-14.62
-15.87
-17.32
-18.8
-20.11
-21.06
-21.45
-21.11
-19.92
-17.9
-15.23
-12.27
-9.46
-7.16
-5.57
-4.68
-4.32
-4.23
-4.22
-4.2
-4.19
-4.27
-4.54
-5.03
-5.68
-6.39
-6.94
-7.2
-7.05
-6.44
-5.41
-4.11
-2.81
-1.87
-1.58
-2.02
-2.97
-3.81
-3.72
-2.04
1.54
6.76
12.9
19.08
24.54
28.76
31.44
32.4
31.4
28.27
23.07
16.22
8.43
0.57
-6.69
-13
-18.32
-22.82
-26.65
-29.8
-32.14
-33.57
-34.05
-33.65
-32.46
-30.55
-28.03
-24.97
-21.6
-18.3
-15.6
-13.99
-13.76
-14.74
-16.31
-17.57
-17.6
-15.81
-12.09
-6.72
-0.2
7.04
14.69
22.59
30.42
37.76
43.97
48.42
50.77
50.95
49.22
46.01
41.76
36.88
31.71
26.58
21.67
17.15
13.02
9.17
5.47
1.84
-1.73
-5.15
-8.31
-11.15
-13.56
-15.51
-16.87
-17.54
-17.44
-16.59
-15.16
-13.46
-11.84
-10.6
-9.99
-10.04
-10.66
-11.64
-12.74
-13.71
-14.35
-14.5
-14.08
-13.1
-11.66
-9.93
-8.11
-6.34
-4.59
-2.73
-0.59
1.93
4.75
7.65
10.34
12.54
14.13
15.15
15.72
15.94
15.87
15.53
14.89
13.98
12.89
11.8
10.96
10.55
10.65
11.15
11.72
11.96
11.48
9.94
7.19
3.2
-1.85
-7.56
-13.27
-18.18
-21.43
-22.47
-21.26
-18.29
-14.42
-10.6
-7.47
-5.36
-4.22
-3.91
-4.28
-5.28
-6.84
-8.77
-10.8
-12.62
-14.09
-15.27
-16.39
-17.68
-19.19
-20.73
-21.93
-22.39
-21.87
-20.36
-18.05
-15.25
-12.3
-9.44
-6.81
-4.44
-2.27
-0.21
1.83
3.83
5.71
7.33
8.62
9.55
10.21
10.69
11.09
11.36
11.45
11.29
10.88
10.32
9.76
9.28
8.85
8.36
7.68
6.75
5.6
4.37
3.21
2.24
1.49
0.92
0.45
-0.03
-0.63
-1.42
-2.49
-3.89
-5.59
-7.47
-9.3
-10.81
-11.79
-12.15
-11.92
-11.28
-10.36
-9.27
-7.99
-6.44
-4.57
-2.42
-0.09
2.25
4.5
6.53
8.27
9.63
10.57
11.09
11.3
11.35
11.41
11.57
11.81
12.01
12.07
11.98
11.87
11.87
12.02
12.24
12.28
11.93
11.11
9.93
8.68
7.65
7
6.68
6.49
6.16
5.53
4.59
3.37
1.95
0.4
-1.21
-2.78
-4.15
-5.19
-5.84
-6.23
-6.62
-7.3
-8.45
-10.05
-11.85
-13.51
-14.73
-15.4
-15.6
-15.58
-15.69
-16.23
-17.3
-18.78
-20.28
-21.22
-21.08
-19.52
-16.55
-12.51
-7.98
-3.63
0.03
2.73
4.5
5.57
6.32
7.1
8.15
9.58
11.26
12.95
14.4
15.47
16.21
16.87
17.75
19.09
20.98
23.25
25.57
27.54
28.84
29.27
28.75
27.27
24.86
21.65
17.87
13.95
10.44
7.85
6.49
6.38
7.19
8.41
9.52
10.17
10.28
10
9.53
9.01
8.45
7.71
6.6
5.02
2.99
0.7
-1.62
-3.8
-5.79
-7.68
-9.74
-12.17
-15.11
-18.53
-22.16
-25.62
-28.53
-30.6
-31.71
-31.9
-31.24
-29.82
-27.69
-24.82
-21.25
-17.13
-12.73
-8.45
-4.69
-1.87
-0.26
-0.02
-1
-2.77
-4.65
-5.82
-5.64
-3.84
-0.63
3.42
7.61
11.41
14.51
16.86
18.53
19.54
19.89
19.55
18.59
17.16
15.49
13.78
12.2
10.84
9.75
8.87
8.09
7.28
6.28
5.05
3.61
2.07
0.54
-0.96
-2.52
-4.21
-6.12
-8.23
-10.5
-12.85
-15.18
-17.37
-19.24
-20.49
-20.81
-19.98
-17.99
-15.06
-11.58
-7.89
-4.35
-1.14
1.62
3.92
5.81
7.4
8.87
10.36
11.98
13.68
15.32
16.72
17.73
18.35
18.63
18.69
18.6
18.47
18.32
18.2
18.15
18.15
18.2
18.19
17.99
17.48
16.62
15.48
14.25
13.19
12.5
12.25
12.26
12.25
11.89
11.01
9.67
8.11
6.66
5.52
4.8
4.44
4.39
4.59
4.97
5.46
5.9
6.16
6.23
6.28
6.61
7.48
8.92
10.63
12.13
12.98
13.06
12.69
12.58
13.6
16.45
21.36
27.91
35.09
41.41
45.31
45.58
41.78
34.37
24.7
14.54
5.58
-1.02
-4.86
-6.27
-6.02
-5.03
-4.17
-4.11
-5.26
-7.79
-11.6
-16.33
-21.49
-26.53
-30.95
-34.41
-36.69
-37.76
-37.75
-36.86
-35.29
-33.16
-30.47
-27.06
-22.78
-17.62
-11.82
-5.92
-0.65
3.3
5.52
5.97
4.99
3.12
0.92
-1.27
-3.39
-5.56
-7.98
-10.68
-13.48
-16.07
-18.11
-19.43
-20.15
-20.59
-21.11
-21.96
-23.13
-24.36
-25.24
-25.43
-24.65
-22.89
-20.28
-17.02
-13.33
-9.45
-5.61
-2
1.26
4.18
6.83
9.35
11.86
14.32
16.65
18.73
20.46
21.81
22.83
23.64
24.39
25.26
26.36
27.69
29.14
30.51
31.59
32.25
32.52
32.51
32.38
32.18
31.97
31.81
31.84
32.23
33.02
34.12
35.21
35.98
36.37
36.67
37.34
38.62
40.18
41.14
40.48
37.55
32.31
25.18
16.62
6.8
-4.34
-16.67
-29.6
-42.19
-53.56
-63.37
-71.98
-80.06
-88.02
-95.72
-102.5
-107.72
-111.13
-112.83
-112.92
-111.12
-106.86
-99.71
-89.87
-78.28
-66.18
-54.52
-43.46
-32.47
-20.7
-7.61
6.78
21.92
37.05
51.56
65.08
77.45
88.51
98.06
105.84
111.68
115.54
117.58
118.06
117.33
115.7
113.49
110.99
108.53
106.47
105.16
104.69
104.63
103.78
100.26
92.14
78.3
59.01
35.93
11.31
-12.95
-35.91
-57.44
-77.61
-96.16
-112.36
-125.61
-135.93
-144.24
-151.88
-159.76
-167.85
-175.07
-179.93
-181.16
-178.23
-171.14
-160.25
-145.99
-128.83
-109.54
-89.14
-68.87
-50.07
-34.05
-21.9
-14.38
-11.8
-13.83
-19.51
-27.4
-35.87
-43.39
-48.84
-51.59
-51.46
-48.69
-43.79
-37.43
-30.22
-22.68
-15.06
-7.43
0.18
7.65
14.66
20.82
25.8
29.45
31.87
33.25
33.76
33.43
32.18
29.87
26.41
21.87
16.43
10.41
4.18
-1.93
-7.69
-12.91
-17.49
-21.33
-24.26
-26.08
-26.62
-25.82
-23.83
-20.97
-17.6
-14.04
-10.43
-6.68
-2.58
2.02
7.12
12.44
17.52
21.86
25.14
27.3
28.61
29.41
30.03
30.65
31.24
31.73
32.07
32.23
32.23
32.01
31.49
30.59
29.33
27.85
26.36
25.01
23.8
22.58
21.14
19.37
17.27
15.05
12.9
10.99
9.36
7.89
6.4
4.7
2.58
-0.04
-3.11
-6.42
-9.53
-11.9
-13.06
-12.71
-10.92
-8.05
-4.6
-0.98
2.62
6.23
9.96
13.8
17.59
21.03
23.85
25.97
27.49
28.65
29.69
30.74
31.86
33.08
34.47
36.15
38.18
40.51
42.95
45.31
47.46
49.35
51.06
52.57
53.76
54.39
54.22
53.15
51.37
49.32
47.58
46.7
47.08
48.82
51.81
55.75
60.2
64.75
69.01
72.67
75.59
77.72
79.12
79.92
80.22
80.05
79.29
77.72
75.14
71.51
67.11
62.38
57.78
53.47
49.24
44.61
39.15
32.83
26.11
19.72
14.29
9.91
6.09
2.01
-2.99
-9.17
-16.48
-24.96
-34.96
-46.96
-61.12
-76.77
-92.38
-106.1
-116.47
-123.06
-126.45
-127.78
-128.09
-127.93
-127.43
-126.57
-125.31
-123.58
-121.05
-117.06
-110.88
-102.07
-90.93
-78.38
-65.65
-53.79
-43.42
-34.7
-27.55
-21.93
-17.97
-15.82
-15.56
-16.93
-19.35
-22.08
-24.41
-25.9
-26.43
-26.16
-25.38
-24.41
-23.46
-22.63
-21.83
-20.71
-18.65
-14.81
-8.37
1.1
13.37
27.45
41.85
55.06
66.11
74.83
81.67
87.36
92.33
96.59
99.8
101.66
102.19
101.82
101.15
100.6
100.25
99.88
99.21
97.93
95.73
92.14
86.64
78.85
68.89
57.56
46.16
36.18
28.66
24.01
21.85
21.23
20.91
19.6
16.2
10.09
1.32
-9.35
-20.67
-31.29
-40.29
-47.41
-52.94
-57.44
-61.43
-65.13
-68.58
-71.77
-74.72
-77.57
-80.44
-83.42
-86.44
-89.37
-91.97
-94.02
-95.38
-96.03
-96.18
-96.18
-96.65
-98.21
-101.38
-106.21
-112.1
-117.77
-121.51
-121.65
-117.08
-107.81
-94.97
-80.56
-66.8
-55.37
-47.02
-41.43
-37.64
-34.47
-31.04
-26.84
-21.7
-15.64
-8.7
-1.04
7
14.84
21.81
27.34
31.23
33.64
34.95
35.56
35.68
35.19
33.86
31.5
28.26
24.71
21.74
20.27
21.01
24.16
29.43
36.1
43.32
50.32
56.61
61.98
66.4
69.94
72.71
74.75
76.14
76.95
77.28
77.26
77.03
76.61
75.95
74.94
73.41
71.3
68.68
65.7
62.59
59.58
56.78
54.23
51.95
49.92
48.05
46.22
44.16
41.6
38.35
34.4
30.09
25.89
22.29
19.53
17.49
15.72
13.69
11.07
7.9
4.66
1.97
0.32
-0.19
0.15
0.71
0.9
0.3
-1.31
-3.94
-7.49
-11.78
-16.45
-21.09
-25.34
-29.05
-32.37
-35.68
-39.23
-42.96
-46.45
-49.14
-50.69
-51.2
-51.15
-51.19
-51.79
-53.06
-54.74
-56.41
-57.69
-58.29
-58
-56.68
-54.27
-50.81
-46.49
-41.64
-36.55
-31.37
-26.04
-20.33
-13.97
-6.78
1.16
9.5
17.63
24.87
30.62
34.43
36.13
35.83
34.03
31.59
29.73
29.78
32.87
39.55
49.54
61.81
74.93
87.63
99.07
109.04
117.7
125.32
132.12
138.3
144.16
150.07
156.14
161.79
165.59
165.58
160.02
148.25
130.99
110.22
88.31
67.23
48.17
31.58
17.61
6.28
-2.58
-9.65
-16.19
-23.82
-33.95
-47.12
-62.74
-79.47
-95.78
-110.62
-123.75
-135.69
-147.34
-159.57
-173.01
-187.93
-204.22
-221.32
-238.08
-252.72
-263.08
-267.11
-263.38
-251.6
-232.77
-208.79
-182.01
-154.52
-127.91
-103.2
-80.95
-61.46
-44.89
-31.18
-20.08
-11.08
-3.62
2.81
8.52
13.6
17.97
21.52
24.19
25.98
26.95
27.18
26.67
25.39
23.27
20.26
16.48
12.23
8.02
4.47
2.2
1.49
2.27
4.08
6.22
8.15
9.54
10.42
10.97
11.41
11.79
12.11
12.34
12.48
12.61
12.81
13.05
13.26
13.36
13.33
13.29
13.33
13.53
13.81
14
13.87
13.26
12.17
10.72
9.12
7.52
5.97
4.31
2.27
-0.49
-4.1
-8.5
-13.3
-17.87
-21.57
-23.88
-24.56
-23.63
-21.4
-18.35
-15.03
-12
-9.63
-8.07
-7.15
-6.47
-5.56
-4.05
-1.78
1.13
4.49
8.14
12.06
16.26
20.6
24.77
28.3
30.81
32.1
32.31
31.76
30.78
29.54
28.05
26.22
24.01
21.54
18.96
16.45
14.13
12
10.05
8.26
6.62
5.07
3.54
1.91
0.05
-2.09
-4.53
-7.17
-9.81
-12.11
-13.63
-13.87
-12.43
-9.11
-4.06
2.26
9.24
16.32
23.12
29.55
35.74
41.92
48.22
54.67
61.14
67.38
73.12
78.18
82.48
86.06
88.97
91.24
92.88
93.86
94.2
93.98
93.32
92.41
91.41
90.48
89.74
89.29
89.13
89.17
89.27
89.29
89.2
89.1
89.13
89.35
89.66
89.8
89.46
88.42
86.69
84.42
81.97
79.64
77.67
76.16
75.08
74.34
73.69
72.75
70.82
67.01
60.35
50.23
36.77
21.06
4.92
-9.85
-22.1
-31.79
-39.75
-47.04
-54.17
-60.82
-65.98
-68.55
-68.03
-64.76
-59.75
-54.31
-49.63
-46.54
-45.47
-46.51
-49.35
-53.4
-57.79
-61.6
-64.1
-64.93
-64.32
-62.98
-62.07
-62.79
-66.1
-72.33
-80.96
-90.75
-99.92
-106.74
-109.97
-109.2
-104.81
-97.82
-89.32
-80.15
-70.71
-60.89
-50.31
-38.44
-24.72
-8.62
10.21
31.73
55.29
79.54
102.78
123.5
140.76
154.33
164.14
169.73
169.94
163.31
148.97
127.54
101.28
73.31
46.49
22.5
1.66
-16.49
-32.56
-47.11
-60.71
-74.14
-88.28
-103.45
-118.93
-133.07
-143.91
-150.31
-152.71
-153.01
-153.77
-157.06
-163.6
-172.72
-182.75
-191.69
-197.76
-199.65
-196.57
-188.27
-174.91
-156.93
-134.97
-110
-83.48
-57.35
-33.85
-15.02
-2.02
5.11
7.57
7.21
5.82
4.56
3.7
2.94
1.9
0.48
-1.02
-2.11
-2.56
-2.54
-2.56
-3.2
-4.73
-6.97
-9.38
-11.43
-12.75
-13.46
-13.98
-14.87
-16.57
-19.3
-22.96
-27.26
-31.8
-36.14
-39.86
-42.66
-44.36
-44.99
-44.73
-43.9
-42.78
-41.51
-39.99
-37.92
-34.98
-31.01
-26.21
-21.11
-16.46
-12.95
-10.92
-10.07
-9.53
-7.86
-3.53
4.68
17.26
33.68
52.57
71.92
89.66
103.97
113.68
118.3
117.96
113.29
105.36
95.57
85.43
76.3
69.19
64.5
62.11
61.46
61.92
62.93
64.08
65.16
65.9
66.05
65.36
63.69
61.05
57.57
53.45
48.84
43.8
38.34
32.5
26.48
20.59
15.19
10.42
6.14
1.84
-3.13
-9.31
-16.7
-24.72
-32.35
-38.44
-42.22
-43.47
-42.55
-40.14
-36.92
-33.3
-29.47
-25.42
-21.13
-16.56
-11.72
-6.56
-1.1
4.63
10.39
15.78
20.28
23.43
25
25.11
24.21
22.93
21.88
21.43
21.62
22.27
23.11
23.88
24.45
24.76
24.72
24.19
23.01
21.2
18.96
16.7
14.79
13.41
12.4
11.4
10.07
8.29
6.31
4.55
3.35
2.72
2.26
1.42
-0.26
-2.86
-6.05
-9.26
-11.99
-14.06
-15.67
-17.31
-19.53
-22.56
-26.22
-29.92
-32.85
-34.38
-34.25
-32.74
-30.54
-28.39
-26.72
-25.42
-23.81
-21.03
-16.38
-9.69
-1.42
7.46
15.71
22.12
25.76
26.15
23.46
18.51
12.77
8
5.76
6.87
11.11
17.34
23.99
29.69
33.74
36.18
37.55
38.42
39.14
39.81
40.4
40.91
41.4
41.86
42.01
41.35
39.31
35.63
30.48
24.54
18.66
13.65
9.89
7.33
5.56
4.02
2.23
-0.09
-2.94
-6.13
-9.37
-12.35
-14.89
-16.95
-18.65
-20.24
-21.98
-24.08
-26.64
-29.59
-32.68
-35.42
-37.22
-37.54
-36.11
-33.06
-28.85
-24.14
-19.48
-15.11
-10.91
-6.54
-1.77
3.36
8.48
13.02
16.46
18.55
19.4
19.42
19.18
19.19
19.74
20.88
22.44
24.1
25.46
26.18
26.06
25.11
23.53
21.71
20.02
18.72
17.88
17.38
17.01
16.6
16.05
15.37
14.55
13.63
12.63
11.61
10.59
9.59
8.53
7.26
5.69
3.82
1.83
-0.09
-1.81
-3.37
-4.95
-6.75
-8.84
-11.1
-13.33
-15.36
-17.23
-19.06
-21.02
-23.11
-25.16
-26.85
-27.82
-27.77
-26.5
-23.95
-20.16
-15.32
-9.79
-4.02
1.49
6.3
10.06
12.57
13.79
13.86
13.17
12.31
11.91
12.42
13.93
16.13
18.44
20.32
21.48
21.97
22.06
22.03
22.01
21.91
21.53
20.7
19.4
17.75
15.95
14.19
12.63
11.33
10.27
9.37
8.53
7.58
6.43
5.01
3.33
1.46
-0.52
-2.56
-4.63
-6.68
-8.7
-10.69
-12.66
-14.71
-16.94
-19.38
-21.89
-24.12
-25.57
-25.78
-24.45
-21.56
-17.46
-12.69
-7.82
-3.3
0.64
4.02
6.97
9.72
12.42
15.13
17.86
20.53
23.11
25.56
27.93
30.29
32.66
35.05
37.39
39.61
41.69
43.72
45.84
48.22
50.94
53.93
57
59.95
62.65
65.11
67.53
70.2
73.42
77.37
82.11
87.43
92.93
98.04
102.04
104.37
104.65
102.85
99.23
94.17
88.04
81.12
73.62
65.84
58.29
51.59
46.39
43.07
41.57
41.37
41.63
41.41
39.97
36.87
32.04
25.76
18.63
11.45
5.12
0.54
-1.67
-1.39
0.84
3.81
5.97
5.84
2.49
-4.27
-13.82
-25.02
-36.56
-47.25
-56.11
-62.44
-65.78
-66.15
-64.14
-60.98
-58.33
-57.78
-60.41
-66.4
-75.1
-85.26
-95.55
-104.84
-112.35
-117.57
-120.1
-119.62
-116.03
-109.55
-100.92
-91.35
-82.24
-74.93
-70.26
-68.44
-68.97
-70.85
-72.88
-74.02
-73.62
-71.51
-67.91
-63.28
-58.1
-52.78
-47.61
-42.82
-38.72
-35.72
-34.34
-35.07
-38.19
-43.58
-50.63
-58.36
-65.63
-71.42
-75.03
-76.23
-75.22
-72.56
-68.93
-64.96
-60.99
-57.04
-52.74
-47.62
-41.33
-33.83
-25.49
-16.95
-8.95
-2.08
3.24
6.87
8.8
9.15
8.15
6.17
3.69
1.33
-0.32
-0.86
-0.16
1.6
3.96
6.4
8.39
9.62
9.96
9.5
8.37
6.79
4.98
3.11
1.34
-0.21
-1.48
-2.4
-2.97
-3.16
-3.04
-2.7
-2.35
-2.25
-2.56
-3.25
-3.98
-4.21
-3.33
-0.96
2.89
7.78
13.09
18.3
23.23
28.15
33.56
39.89
47.24
55.31
63.51
71.24
78.22
84.46
90.28
95.98
101.66
107.14
112.01
115.84
118.34
119.47
119.39
118.41
116.89
115.19
113.55
112.06
110.6
108.68
105.53
100.23
92.1
81
67.65
53.57
40.68
30.81
25.11
23.72
25.75
29.68
33.78
36.66
37.69
37.03
35.64
34.74
35.4
37.92
41.69
45.23
46.83
45.24
40.14
32.27
23.04
14.11
7
2.96
2.88
7
14.62
23.73
31.3
34.05
29.62
17.44
-1.04
-23
-45.33
-65.55
-82.3
-95.24
-104.64
-111.11
-115.47
-118.58
-121.24
-123.86
-126.25
-127.73
-127.5
-124.97
-120.08
-113.3
-105.28
-96.65
-87.83
-79.08
-70.57
-62.4
-54.52
-46.74
-38.67
-30.03
-20.83
-11.56
-3.11
3.52
7.66
9.27
9.06
8.23
8.18
9.79
13.1
17.03
19.68
18.93
13.27
2.34
-12.94
-30.68
-48.75
-65.29
-79.18
-90.07
-98.23
-104.4
-109.48
-114.14
-118.53
-122.17
-124.05
-123.25
-119.44
-113.27
-106.17
-99.77
-95.2
-92.74
-91.94
-91.99
-92.33
-92.91
-94.09
-96.44
-100.43
-106.2
-113.45
-121.6
-129.86
-137.52
-143.99
-148.74
-151.2
-150.57
-145.85
-135.99
-120.18
-98.19
-70.62
-38.9
-5.14
28.3
59.24
86.03
107.8
124.29
135.7
142.26
144.22
141.84
135.62
126.43
115.4
103.6
91.69
79.83
67.72
55.15
42.43
30.57
20.94
14.83
12.75
14.23
18.01
22.53
26.51
29.35
31.1
32.22
33.21
34.36
35.65
36.83
37.53
37.45
36.41
34.36
31.42
27.8
23.78
19.64
15.79
12.62
10.53
9.74
10.17
11.46
13.08
14.55
15.6
16.3
16.85
17.41
17.83
17.67
16.44
13.87
10.2
6.2
2.9
1.09
0.99
2.08
3.35
3.86
3.09
1.19
-1.11
-2.99
-3.82
-3.39
-1.93
0.18
2.61
5.25
8.18
11.54
15.41
19.61
23.88
27.78
30.98
33.27
34.68
35.4
35.68
35.72
35.62
35.44
35.22
35.08
35.15
35.51
36.12
36.77
37.15
37.01
36.22
34.83
32.99
30.84
28.44
25.77
22.76
19.4
15.76
12.04
8.37
4.95
1.86
-0.91
-3.44
-5.87
-8.31
-10.83
-13.36
-15.77
-17.89
-19.63
-21.15
-22.76
-24.83
-27.57
-30.89
-34.35
-37.26
-38.94
-38.92
-37.08
-33.59
-28.92
-23.56
-17.98
-12.57
-7.5
-2.8
1.58
5.75
9.81
13.8
17.71
21.47
24.98
28.14
30.82
32.88
34.23
34.87
34.93
34.65
34.35
34.27
34.5
34.95
35.37
35.5
35.18
34.38
33.24
31.99
30.9
30.13
29.69
29.46
29.22
28.71
27.73
26.17
24.09
21.68
19.22
17.03
15.29
14.12
13.43
12.99
12.57
11.92
10.93
9.63
8.1
6.41
4.58
2.57
0.36
-2.02
-4.43
-6.71
-8.76
-10.57
-12.31
-14.14
-16.21
-18.61
-21.26
-24
-26.53
-28.45
-29.33
-28.78
-26.59
-22.88
-18.09
-12.86
-7.82
-3.38
0.37
3.59
6.53
9.37
12.1
14.67
17.04
19.22
21.28
23.23
24.95
26.23
26.91
27.03
26.81
26.62
26.69
27.05
27.46
27.53
26.96
25.63
23.65
21.33
18.97
16.75
14.76
12.93
11.2
9.44
7.56
5.46
3.08
0.46
-2.25
-4.84
-7.14
-9.06
-10.72
-12.31
-14.09
-16.2
-18.61
-21.17
-23.6
-25.65
-27
-27.4
-26.67
-24.74
-21.68
-17.71
-13.11
-8.16
-3.14
1.76
6.34
10.4
13.77
16.32
18.06
19.05
19.46
19.49
19.35
19.21
19.19
19.34
19.68
20.11
20.49
20.65
20.46
19.83
18.75
17.35
15.76
14.18
12.74
11.48
10.36
9.28
8.15
6.92
5.61
4.32
3.17
2.26
1.59
1.09
0.61
0.03
-0.71
-1.57
-2.44
-3.21
-3.82
-4.29
-4.77
-5.49
-6.67
-8.42
-10.66
-13.22
-15.75
-17.96
-19.63
-20.76
-21.63
-22.57
-23.96
-25.95
-28.45
-31.11
-33.4
-34.81
-34.9
-33.52
-30.71
-26.72
-21.94
-16.85
-11.93
-7.62
-4.17
-1.57
0.42
2.22
4.2
6.54
9.17
11.86
14.25
16.03
16.99
17.11
16.54
15.59
14.66
14.15
14.33
15.25
16.66
18.22
19.58
20.57
21.18
21.5
21.57
21.35
20.78
19.86
18.74
17.6
16.65
15.94
15.49
15.28
15.39
15.9
16.85
18.01
18.94
19.12
18.17
16.04
12.94
9.27
5.41
1.65
-1.83
-4.89
-7.42
-9.45
-11.19
-12.98
-15.16
-17.84
-20.82
-23.55
-25.47
-26.12
-25.44
-23.7
-21.39
-18.98
-16.73
-14.68
-12.72
-10.67
-8.46
-6.19
-4.05
-2.24
-0.88
0.06
0.7
1.21
1.74
2.35
3.04
3.77
4.49
5.18
5.83
6.44
7.02
7.51
7.84
7.92
7.63
6.95
5.86
4.47
2.92
1.4
-0.01
-1.32
-2.65
-4.15
-5.91
-7.8
-9.55
-10.83
-11.37
-11.19
-10.61
-10.17
-10.39
-11.67
-14.07
-17.35
-21.04
-24.51
-27.13
-28.38
-27.99
-25.99
-22.78
-18.95
-15.18
-11.95
-9.39
-7.27
-5.15
-2.67
0.24
3.35
6.2
8.41
9.85
10.62
11.03
11.28
11.43
11.33
10.88
10.07
9.08
8.12
7.38
6.91
6.72
6.83
7.36
8.41
9.96
11.72
13.14
13.68
12.99
11.17
8.71
6.29
4.53
3.7
3.73
4.3
5.11
5.99
6.92
7.88
8.77
9.34
9.28
8.45
6.95
5.16
3.55
2.49
2.05
2.04
1.99
1.46
0.13
-2.11
-5.07
-8.45
-11.83
-14.78
-16.94
-18.03
-17.92
-16.67
-14.49
-11.75
-8.86
-6.18
-3.94
-2.26
-1.12
-0.39
0.12
0.63
1.35
2.41
3.88
5.62
7.42
8.98
10.05
10.48
10.27
9.55
8.52
7.35
6.14
4.9
3.65
2.36
1.07
-0.19
-1.39
-2.55
-3.73
-4.97
-6.24
-7.43
-8.48
-9.42
-10.4
-11.56
-12.9
-14.17
-14.92
-14.75
-13.56
-11.68
-9.76
-8.48
-8.24
-8.96
-10.13
-11.06
-11.18
-10.19
-8.14
-5.34
-2.21
0.79
3.37
5.39
6.96
8.29
9.58
10.98
12.48
14.04
15.56
17.04
18.47
19.9
21.23
22.31
22.94
23.04
22.73
22.31
22.22
22.77
24.03
25.76
27.57
29.04
29.96
30.42
30.71
31.19
32.09
33.39
34.84
36.04
36.61
36.33
35.3
33.92
32.87
32.86
34.38
37.46
41.55
45.53
47.95
47.45
43.15
35.11
24.35
12.7
2.23
-5.39
-9.36
-9.94
-8.12
-5.2
-2.29
-0.19
0.62
-0.18
-2.78
-7.15
-12.87
-19.11
-24.74
-28.72
-30.4
-29.72
-27.19
-23.65
-20.04
-17.08
-15.09
-14.03
-13.46
-12.89
-11.88
-10.24
-8.08
-5.61
-3.12
-0.84
1
2.16
2.26
0.87
-2.34
-7.57
-14.69
-23.3
-32.69
-41.99
-50.2
-56.46
-60.16
-61.18
-59.96
-57.41
-54.63
-52.48
-51.32
-50.82
-50.26
-48.84
-46.19
-42.52
-38.54
-35.07
-32.62
-31.16
-30.24
-29.21
-27.7
-25.7
-23.55
-21.63
-20.19
-19.18
-18.41
-17.69
-17
-16.46
-16.24
-16.25
-16.09
-15.07
-12.43
-7.73
-1.02
7.05
15.39
22.87
28.7
32.57
34.75
35.84
36.5
37.16
37.94
38.67
38.99
38.52
36.91
34.01
29.87
24.79
19.34
14.25
10.27
7.94
7.48
8.72
11.13
14.03
16.66
18.44
19.09
18.67
17.63
16.58
16.04
16.14
16.55
16.5
15.22
12.12
7.11
0.62
-6.52
-13.29
-18.71
-22.06
-22.97
-21.57
-18.43
-14.44
-10.51
-7.39
-5.44
-4.73
-5.17
-6.56
-8.69
-11.13
-13.27
-14.31
-13.51
-10.55
-5.58
0.74
7.58
14.26
20.39
25.92
30.93
35.34
38.78
40.68
40.42
37.66
32.57
25.85
18.49
11.46
5.36
0.18
-4.61
-9.75
-15.78
-22.64
-29.68
-35.83
-40.08
-41.87
-41.3
-39.08
-36.18
-33.51
-31.49
-29.93
-28.12
-25.11
-20.25
-13.53
-5.8
1.33
5.97
6.53
2.16
-7.06
-20.15
-35.32
-50.09
-61.45
-66.4
-62.8
-50.33
-31.2
-9.78
8.66
19.77
21.59
15.13
3.61
-8.88
-18.78
-23.71
-22.46
-14.68
-0.74
18.11
39.48
59.98
75.94
84.54
84.78
77.81
66.39
53.69
42.19
33.03
26.12
20.71
16.04
11.71
7.73
4.24
1.25
-1.55
-4.76
-9.21
-15.83
-25.42
-38.53
-55.1
-74.37
-94.84
-114.61
-131.79
-145.04
-153.85
-158.37
-159.18
-156.76
-151.35
-142.94
-131.55
-117.6
-102.04
-86.28
-71.59
-58.77
-47.71
-37.8
-28.22
-18.45
-8.43
1.44
10.51
18.15
23.99
27.95
30.03
30.29
28.9
26.31
23.4
21.26
20.9
22.97
27.64
34.24
41.65
48.64
54.41
58.64
61.13
61.78
60.64
58.37
55.49
52.38
49.12
45.61
41.51
35.81
27.74
17.5
7.37
-0.42
-4.1
-3.19
1.92
9.89
18.03
23.63
25.12
23.98
21.63
19.5
18.32
18.75
21.05
23.84
25.11
23.2
18.91
11.8
0.73
-16.11
-39.37
-61.54
-74.43
-74.25
-74.25
-78.34
-87.31
-95.32
-99
-95.32
-82.33
-61.23
-35.76
-10.71
11.45
28.4
39.25
44.26
45.44
45.36
45.26
45.31
45.33
46.62
49.38
53.16
56.66
58.69
58.2
53.92
45.15
32.5
18.85
7.04
-0.62
-3.16
-0.77
5.3
12.73
19.1
22.71
23.39
21.57
18.07
13.63
8.82
3.89
-1.29
-6.88
-12.87
-18.82
-24.35
-29.19
-33.31
-36.69
-39.16
-40.38
-39.86
-37.22
-32.42
-25.82
-18.03
-9.67
-1.04
7.8
16.94
26.33
35.6
44.09
51.07
56.01
58.74
59.48
58.69
56.89
54.49
51.74
48.86
46.11
43.87
42.64
42.88
44.79
48.21
52.61
57.26
61.49
64.99
67.86
70.53
73.55
77.22
81.49
85.89
89.76
92.47
93.58
92.81
90.13
85.67
79.71
72.72
65.12
57.08
48.34
38.21
25.92
11.23
-5.21
-21.73
-36.08
-46.22
-51.08
-50.85
-46.96
-41.55
-36.79
-34.35
-35.15
-39.19
-45.83
-54.07
-62.9
-71.53
-79.49
-86.47
-92.24
-96.46
-98.79
-99
-97.2
-93.82
-89.55
-85.06
-80.77
-76.7
-72.46
-67.4
-60.81
-52.28
-41.83
-30.16
-18.54
-8.66
-2.23
-0.69
-4.81
-14.5
-28.77
-45.72
-62.83
-77.38
-86.97
-90.08
-86.4
-76.77
-62.84
-46.47
-29.2
-11.98
4.72
20.65
35.47
48.57
59.2
66.59
70.2
69.81
65.6
58.17
48.52
38.01
28.17
20.38
15.6
14.1
15.47
18.88
23.31
27.84
31.79
34.72
36.35
36.64
35.75
34.04
32.02
30.22
28.98
28.41
28.36
28.49
28.47
28.01
26.98
25.43
23.57
21.71
20.16
19.11
18.51
18.11
17.51
16.23
14.03
11.01
7.76
5.26
4.64
6.71
11.57
18.39
25.5
31.06
33.66
33.04
30.17
26.86
25
25.84
29.61
35.54
42.23
48.17
52.19
53.56
52.13
48.1
42.03
34.67
26.87
19.41
12.86
7.55
3.58
0.92
-0.66
-1.45
-1.8
-2.15
-3
-5.05
-8.98
-15.26
-23.65
-33.01
-41.34
-46.29
-46.03
-40.04
-29.5
-17
-5.75
1.52
3.32
-0.38
-8.41
-18.99
-30.31
-40.84
-49.48
-55.51
-58.66
-59.01
-57.02
-53.43
-49.09
-44.66
-40.45
-36.25
-31.53
-25.69
-18.48
-10.14
-1.45
6.66
13.65
19.61
25.25
31.31
37.97
44.48
49.34
50.95
48.38
41.79
32.34
21.7
11.55
3.31
-1.88
-3.14
-0.1
6.8
16.01
25.01
30.96
31.57
25.81
14.19
-1.6
-19.35
-36.8
-52.05
-63.71
-70.9
-73.38
-71.57
-66.54
-59.92
-53.64
-49.53
-48.95
-52.48
-59.74
-69.48
-79.93
-89.2
-95.82
-99.01
-98.54
-94.58
-87.37
-77.18
-64.4
-49.7
-34.04
-18.51
-4.07
8.66
19.4
28.14
34.91
39.7
42.55
43.59
43.14
41.64
39.56
37.19
34.65
31.88
28.73
25.07
20.91
16.37
11.72
7.24
3.22
-0.07
-2.39
-3.67
-4.07
-4.08
-4.47
-5.89
-8.62
-12.22
-15.63
-17.57
-17.14
-14.34
-10.06
-5.72
-2.63
-1.44
-1.91
-3.2
-4.33
-4.54
-3.51
-1.29
1.96
6.04
10.75
15.64
19.93
22.54
22.54
19.63
14.48
8.72
4.44
3.47
6.64
13.67
23.45
34.66
46.31
57.87
69.08
79.51
88.4
94.76
97.71
96.89
92.55
85.44
76.48
66.56
56.42
46.75
38.23
31.43
26.63
23.64
21.84
20.31
18.22
15
10.45
4.61
-2.38
-10.33
-19.05
-28.12
-36.97
-44.89
-51.12
-55
-56.07
-54.11
-49.2
-41.79
-32.66
-22.85
-13.44
-5.39
0.65
4.33
5.46
3.83
-0.8
-8.54
-19.05
-31.19
-43.11
-52.56
-57.61
-57.32
-52.09
-43.51
-33.77
-24.9
-18.19
-14.01
-12.11
-11.9
-12.84
-14.51
-16.53
-18.44
-19.7
-19.84
-18.69
-16.52
-13.97
-11.91
-11.05
-11.68
-13.65
-16.44
-19.39
-21.97
-23.88
-24.98
-25.26
-24.65
-23.08
-20.48
-16.84
-12.32
-7.18
-1.73
3.79
9.24
14.53
19.62
24.36
28.59
32.12
34.88
36.85
38.21
39.16
39.89
40.49
40.94
41.19
41.09
40.56
39.45
37.61
34.77
30.67
25.07
17.89
9.32
-0.1
-9.53
-17.85
-23.96
-26.97
-26.44
-22.52
-15.9
-7.69
0.82
8.38
14.03
17.18
17.78
16.37
13.95
11.72
10.76
11.64
14.3
18.11
22.08
25.21
26.68
26.05
23.25
18.63
12.86
6.78
1.33
-2.8
-5.15
-5.65
-4.68
-2.99
-1.68
-1.94
-4.75
-10.43
-18.56
-27.95
-37.15
-44.97
-50.76
-54.43
-56.19
-56.09
-53.95
-49.54
-42.78
-34.08
-24.28
-14.46
-5.66
1.39
6.32
9.13
10.12
9.8
8.85
7.97
7.87
9.03
11.69
15.66
20.34
24.71
27.62
28.06
25.59
20.61
14.2
7.79
2.64
-0.58
-1.76
-1.18
0.81
4
8.29
13.64
19.75
26.09
31.96
36.76
40
41.37
40.5
37.02
30.77
21.85
10.86
-1.17
-12.97
-23.39
-31.75
-37.88
-41.93
-43.86
-43.67
-41.44
-37.3
-31.42
-24.06
-15.64
-6.68
2.4
11.67
20.84
29.21
36.02
40.94
44.23
46.5
48.56
51.23
55.7
62.04
68.99
74.74
77.86
77.85
75.04
70.4
65.28
61.83
60.92
61.84
62.77
61.63
56.44
45.31
26.92
-3.57
-43.72
-84.23
-114.78
-130.79
-133.83
-128.54
-120.03
-112.26
-108.79
-108.38
-109.76
-112.05
-114.43
-115.6
-114.17
-109.39
-101.4
-89.05
-72.37
-52.55
-31.25
-10.07
9.83
27.59
42.4
53.61
61.09
65.58
67.87
68.39
67.19
64.27
59.76
53.96
47.42
40.85
34.95
29.99
25.7
21.52
16.98
11.95
6.67
1.64
-2.5
-5.3
-6.63
-6.71
-6.03
-5.16
-4.53
-4.32
-4.41
-4.45
-3.98
-2.54
0.23
4.53
10.34
17.42
25.31
33.39
41
47.56
52.72
56.48
59.12
61.09
62.88
64.8
66.92
68.88
69.98
69.31
66.02
59.63
50.3
38.96
27.04
16.08
7.25
1.02
-2.97
-5.75
-8.79
-13.66
-21.64
-33.34
-48.49
-65.99
-84.11
-100.96
-114.98
-125.15
-130.99
-132.35
-129.16
-121.35
-109.07
-92.87
-73.87
-53.55
-33.51
-15.11
0.74
13.6
23.35
30.1
33.98
35.25
34.2
31.25
27.02
22.26
17.72
14.09
11.78
10.77
10.69
10.96
11.02
10.47
9.09
6.79
3.55
-0.53
-5.18
-9.94
-14.15
-17.26
-19.01
-19.42
-18.83
-17.49
-15.51
-12.78
-9.14
-4.58
0.58
5.8
10.42
13.91
16.02
16.59
15.61
12.99
8.63
2.53
-5
-13.25
-21.15
-27.52
-31.4
-32.27
-30.16
-25.51
-18.97
-11.17
-2.66
6.08
14.54
22.11
28.2
32.39
34.52
34.72
33.2
30.19
25.81
20.1
13.12
5
-3.87
-12.94
-21.36
-28.2
-32.49
-33.53
-31.03
-25.35
-17.37
-8.29
0.75
8.93
15.83
21.3
25.3
27.8
28.82
28.52
27.26
25.47
23.62
22
20.74
19.86
19.44
19.7
21
23.62
27.58
32.46
37.35
41.03
42.36
40.61
35.69
28.3
19.53
10.66
2.79
-3.31
-7.23
-8.87
-8.34
-5.9
-1.94
3
8.34
13.53
18.07
21.59
23.76
24.33
23.16
20.21
15.63
9.65
2.62
-5.14
-13.2
-21.05
-27.92
-32.88
-34.91
-33.29
-27.86
-19.17
-8.51
2.6
12.78
21.27
27.96
33.28
37.66
41.28
43.86
44.86
43.85
40.74
36.01
30.61
25.95
23.56
24.82
30.54
40.52
53.28
66.22
76.13
80.04
76.06
63.86
44.78
21.42
-3.03
-25.65
-44.46
-58.75
-68.96
-76.17
-81.51
-85.66
-88.66
-90.09
-89.44
-86.44
-81.16
-74
-65.54
-56.51
-47.83
-40.6
-35.96
-34.71
-37.05
-42.33
-49.16
-55.81
-60.68
-62.75
-61.79
-58.26
-52.98
-46.69
-39.92
-32.96
-25.99
-19.32
-13.4
-8.77
-5.84
-4.73
-5.26
-7.02
-9.52
-12.35
-15.19
-17.94
-20.57
-23.27
-26.32
-30.1
-34.95
-40.92
-47.63
-54.18
-59.33
-61.87
-61.06
-56.79
-49.62
-40.49
-30.37
-19.96
-9.75
-0.02
8.95
16.94
23.9
29.94
35.33
40.16
44.2
46.87
47.5
45.66
41.45
35.45
28.54
21.59
15.25
9.93
5.83
3.02
1.45
0.9
1.05
1.5
1.96
2.23
2.31
2.3
2.31
2.5
2.99
3.76
4.63
5.3
5.41
4.7
3.14
0.92
-1.56
-3.85
-5.61
-6.57
-6.61
-5.66
-3.76
-1.03
2.33
6.01
9.74
13.31
16.59
19.51
21.92
23.62
24.27
23.6
21.56
18.39
14.68
11.21
8.66
7.42
7.53
8.71
10.6
12.85
15.17
17.35
19.15
20.27
20.54
19.98
18.93
17.92
17.42
17.58
18.13
18.47
17.95
16.14
12.94
8.49
3.03
-3.16
-9.82
-16.49
-22.52
-27.13
-29.7
-30
-28.28
-25.12
-21.16
-16.84
-12.32
-7.54
-2.49
2.67
7.56
11.77
14.99
17.22
18.73
19.96
21.32
22.99
24.93
26.85
28.4
29.35
29.68
29.55
29.13
28.52
27.66
26.45
24.86
23.06
21.29
19.83
18.85
18.32
18.1
18.03
18.02
18.11
18.37
18.88
19.64
20.54
21.4
22.01
22.22
21.88
20.98
19.53
17.58
15.23
12.63
9.99
7.54
5.47
3.82
2.47
1.17
-0.34
-2.16
-4.24
-6.37
-8.36
-10.13
-11.79
-13.56
-15.62
-18.06
-20.81
-23.72
-26.67
-29.58
-32.47
-35.38
-38.25
-40.88
-42.91
-43.85
-43.32
-41.13
-37.5
-32.92
-28.1
-23.67
-19.94
-16.83
-13.89
-10.65
-6.78
-2.29
2.48
7.08
11.08
14.25
16.44
17.63
17.82
17.02
15.4
13.25
11.03
9.25
8.3
8.31
9.13
10.43
11.83
13.03
13.88
14.39
14.67
14.83
14.92
14.92
14.75
14.29
13.46
12.17
10.4
8.09
5.23
1.91
-1.63
-5.02
-7.75
-9.34
-9.54
-8.41
-6.33
-3.76
-1.15
1.27
3.45
5.41
7.17
8.7
9.94
10.88
11.6
12.24
12.9
13.6
14.23
14.63
14.67
14.33
13.67
12.73
11.57
10.18
8.6
7
5.56
4.51
3.99
3.93
4.09
4.16
3.88
3.19
2.2
1.12
0.18
-0.54
-1.08
-1.6
-2.27
-3.21
-4.43
-5.84
-7.36
-8.83
-10.13
-11.03
-11.25
-10.48
-8.51
-5.36
-1.29
3.28
8.02
12.83
17.98
23.94
31.06
39.23
47.73
55.34
60.84
63.43
63.05
60.39
56.58
52.76
49.81
48.25
48.26
49.85
52.82
56.59
60.23
62.54
62.39
59.18
53.08
45.09
36.67
29.26
23.78
20.26
17.9
15.32
11.11
4.32
-5.18
-16.65
-28.78
-40.13
-49.41
-55.79
-58.71
-57.81
-52.85
-43.9
-31.5
-16.85
-1.75
11.8
22.03
27.93
29.37
27.08
22.32
16.46
10.6
5.39
0.96
-2.91
-6.5
-10
-13.35
-16.36
-18.8
-20.6
-21.9
-23
-24.18
-25.56
-26.98
-28.14
-28.76
-28.82
-28.6
-28.64
-29.44
-31.22
-33.88
-36.99
-40.05
-42.77
-45.15
-47.5
-50.26
-53.82
-58.41
-64.01
-70.34
-76.91
-83.04
-87.97
-91.02
-91.68
-89.77
-85.52
-79.46
-72.26
-64.46
-56.29
-47.64
-38.32
-28.29
-18
-8.47
-1.09
2.9
2.87
-0.86
-7.12
-14.22
-20.55
-24.99
-27.12
-27.18
-25.76
-23.5
-20.84
-18.01
-15.02
-11.9
-8.67
-5.42
-2.24
0.88
4.03
7.36
10.93
14.57
17.92
20.51
21.94
22.07
21.1
19.46
17.74
16.39
15.62
15.39
15.41
15.28
14.66
13.41
11.68
9.89
8.64
8.41
9.4
11.36
13.64
15.35
15.72
14.3
11.18
6.82
1.9
-2.93
-7.21
-10.68
-13.18
-14.62
-14.95
-14.16
-12.33
-9.66
-6.33
-2.52
1.62
5.92
10.15
14.02
17.28
19.78
21.46
22.4
22.66
22.29
21.33
19.93
18.36
16.99
16.14
15.94
16.25
16.73
16.96
16.62
15.55
13.67
11.04
7.85
4.47
1.42
-0.66
-1.38
-0.68
1.05
3.05
4.63
5.35
5.11
4.18
2.86
1.41
0.02
-1.16
-1.98
-2.26
-1.92
-1.1
-0.1
0.7
1.03
0.88
0.45
0.04
-0.08
0.2
0.81
1.64
2.52
3.33
3.95
4.34
4.46
4.41
4.32
4.33
4.49
4.69
4.68
4.27
3.4
2.27
1.18
0.32
-0.37
-1.14
-2.3
-4.01
-6.21
-8.76
-11.56
-14.72
-18.51
-23.12
-28.38
-33.74
-38.36
-41.39
-42.25
-40.74
-37.03
-31.5
-24.65
-17.01
-9.06
-1.11
6.79
14.82
23.28
32.35
41.88
51.32
59.82
66.6
71.16
73.43
73.63
72.04
68.84
64.07
57.82
50.35
42.21
34.13
26.82
20.67
15.72
11.72
8.37
5.5
3.15
1.41
0.34
-0.18
-0.37
-0.48
-0.71
-1.23
-2.1
-3.35
-4.92
-6.57
-7.98
-8.76
-8.62
-7.5
-5.54
-3.02
-0.21
2.65
5.39
7.85
9.95
11.59
12.75
13.44
13.68
13.5
12.93
12.07
11.05
10.11
9.56
9.66
10.65
12.54
15.19
18.16
20.88
22.81
23.53
23.01
21.55
19.75
18.3
17.78
18.52
20.57
23.67
27.31
30.83
33.54
34.88
34.67
33.24
31.44
30.44
31.22
34.14
38.54
42.82
44.97
43.35
37.34
27.66
16
4.41
-5.47
-12.81
-17.52
-19.89
-20.28
-19.02
-16.55
-13.61
-11.23
-10.52
-12.17
-16.25
-22.07
-28.55
-34.62
-39.63
-43.53
-46.7
-49.71
-53
-56.73
-60.72
-64.63
-68.06
-70.69
-72.32
-72.83
-72.19
-70.38
-67.42
-63.39
-58.5
-53.11
-47.63
-42.57
-38.36
-35.31
-33.55
-33.06
-33.68
-35.17
-37.27
-39.66
-42.06
-44.15
-45.68
-46.37
-46.06
-44.69
-42.37
-39.4
-36.23
-33.38
-31.2
-29.83
-29.02
-28.27
-26.89
-24.18
-19.53
-12.59
-3.43
7.45
19.07
30.19
39.57
46.33
50.12
51.15
50.05
47.57
44.42
41.15
38.14
35.62
33.69
32.28
31.2
30.2
28.98
27.37
25.34
23.02
20.62
18.41
16.62
15.39
14.75
14.61
14.79
15.02
15.04
14.58
13.48
11.7
9.33
6.57
3.72
1.09
-0.99
-2.26
-2.58
-2.07
-1.02
0.11
0.85
0.86
0.08
-1.31
-2.99
-4.62
-5.97
-7.01
-7.85
-8.68
-9.65
-10.8
-12
-13.02
-13.63
-13.66
-13.07
-11.96
-10.49
-8.81
-7.05
-5.27
-3.54
-1.91
-0.49
0.68
1.53
1.99
2.1
1.92
1.55
1.13
0.76
0.46
0.14
-0.33
-1.09
-2.17
-3.48
-4.82
-5.92
-6.49
-6.26
-5.11
-3.05
-0.26
2.95
6.19
9.1
11.39
12.93
13.68
13.72
13.19
12.24
10.98
9.46
7.72
5.84
3.92
2.1
0.47
-0.93
-2.25
-3.63
-5.14
-6.73
-8.21
-9.35
-10.04
-10.28
-10.19
-9.96
-9.67
-9.35
-8.94
-8.34
-7.47
-6.24
-4.71
-2.98
-1.27
0.22
1.43
2.45
3.46
4.63
5.99
7.37
8.49
9.13
9.25
8.98
8.54
8.09
7.66
7.18
6.56
5.82
5.05
4.44
4.15
4.21
4.55
4.95
5.15
4.99
4.44
3.63
2.81
2.22
1.95
1.97
2.13
2.21
2.1
1.75
1.12
0.16
-1.17
-2.84
-4.67
-6.35
-7.52
-7.89
-7.41
-6.21
-4.58
-2.87
-1.33
-0.15
0.62
0.98
1.06
1.01
1.01
1.17
1.47
1.77
1.95
1.94
1.8
1.67
1.63
1.67
1.65
1.4
0.77
-0.2
-1.4
-2.58
-3.6
-4.36
-4.88
-5.22
-5.49
-5.73
-6.02
-6.43
-7.01
-7.85
-8.94
-10.17
-11.35
-12.24
-12.62
-12.37
-11.52
-10.22
-8.74
-7.32
-6.09
-5.01
-3.85
-2.37
-0.35
2.18
4.98
7.64
9.75
11.06
11.48
11.07
10.02
8.57
6.96
5.43
4.2
3.37
2.96
2.86
2.88
2.83
2.57
2.02
1.2
0.19
-0.9
-1.97
-2.9
-3.65
-4.24
-4.76
-5.29
-5.88
-6.52
-7.14
-7.69
-8.13
-8.48
-8.78
-9.12
-9.55
-10.06
-10.62
-11.12
-11.38
-11.29
-10.75
-9.76
-8.38
-6.72
-4.86
-2.9
-0.92
0.93
2.51
3.67
4.33
4.56
4.54
4.49
4.65
5.17
6.09
7.41
9.05
10.9
12.75
14.35
15.34
15.34
14.09
11.53
7.9
3.8
0.06
-2.62
-3.84
-3.71
-2.8
-1.83
-1.39
-1.67
-2.47
-3.31
-3.8
-3.82
-3.52
-3.24
-3.23
-3.58
-4.16
-4.86
-5.62
-6.49
-7.51
-8.6
-9.47
-9.74
-9.06
-7.28
-4.59
-1.39
1.79
4.49
6.37
7.29
7.38
6.94
6.48
6.55
7.55
9.58
12.26
14.74
15.97
15.16
12.12
7.53
2.82
-0.45
-1.17
0.77
4.42
8.28
10.99
11.87
11.16
9.72
8.52
8.17
8.72
9.69
10.26
9.46
6.41
0.53
-8.13
-18.66
-29.38
-38.23
-43.35
-43.76
-39.58
-31.89
-22.23
-12.06
-2.41
6.14
13.24
18.68
22.28
24.04
24.28
23.57
22.6
21.84
21.42
21.11
20.49
19.23
17.27
14.86
12.39
10.24
8.54
7.19
5.93
4.48
2.7
0.63
-1.55
-3.65
-5.51
-7.12
-8.57
-10.04
-11.7
-13.72
-16.15
-18.86
-21.56
-23.78
-25.01
-24.93
-23.51
-21.08
-18.18
-15.4
-13.02
-11
-9
-6.6
-3.61
-0.08
3.6
6.92
9.45
10.95
11.48
11.31
10.9
10.68
10.94
11.73
12.87
14.09
15.09
15.71
15.92
15.79
15.31
14.46
13.1
11.17
8.68
5.74
2.53
-0.81
-4.14
-7.33
-10.3
-12.94
-15.19
-17.06
-18.69
-20.18
-21.63
-22.98
-24.07
-24.66
-24.56
-23.69
-22.06
-19.75
-16.82
-13.3
-9.27
-4.89
-0.43
3.79
7.53
10.71
13.47
16.01
18.43
20.69
22.54
23.64
23.77
22.93
21.36
19.48
17.68
16.19
15.1
14.33
13.72
13.13
12.49
11.81
11.14
10.56
10.13
9.83
9.54
9.05
8.09
6.46
4.06
1.03
-2.35
-5.68
-8.6
-10.88
-12.5
-13.61
-14.46
-15.35
-16.47
-17.83
-19.28
-20.55
-21.33
-21.36
-20.51
-18.79
-16.33
-13.27
-9.8
-6.02
-2.04
2.09
6.23
10.2
13.72
16.44
18.09
18.57
17.98
16.73
15.29
14.21
13.92
14.66
16.47
19.25
22.68
26.38
29.84
32.57
34.23
34.74
34.32
33.41
32.47
31.75
31.16
30.42
29.04
26.68
23.18
18.64
13.4
7.91
2.67
-1.84
-5.25
-7.37
-8.22
-8.07
-7.41
-6.85
-7.04
-8.5
-11.47
-15.84
-21.15
-26.65
-31.51
-34.96
-36.57
-36.22
-34.18
-30.95
-27.11
-23.19
-19.52
-16.24
-13.29
-10.56
-7.89
-5.16
-2.36
0.47
3.22
5.66
7.55
8.65
8.84
8.25
7.19
6.07
5.3
5.03
5.25
5.72
6.17
6.31
5.96
4.99
3.42
1.48
-0.48
-2.01
-2.73
-2.48
-1.4
0.12
1.52
2.25
1.86
0.1
-3.02
-7.15
-11.59
-15.43
-17.77
-18.19
-16.84
-14.42
-11.89
-10.05
-9.2
-9.08
-9.08
-8.55
-7.11
-4.72
-1.62
1.81
5.25
8.47
11.34
13.85
15.99
17.78
19.25
20.43
21.38
22.18
22.9
23.6
24.31
24.97
25.53
25.88
26.01
25.91
25.65
25.3
24.87
24.31
23.55
22.52
21.17
19.53
17.66
15.69
13.7
11.71
9.64
7.28
4.48
1.14
-2.66
-6.66
-10.53
-13.98
-16.87
-19.16
-20.96
-22.41
-23.63
-24.71
-25.68
-26.49
-26.99
-26.95
-26.07
-24.22
-21.43
-18.05
-14.58
-11.54
-9.28
-7.81
-6.9
-6.16
-5.25
-4.04
-2.63
-1.25
-0.08
0.86
1.67
2.52
3.52
4.61
5.62
6.4
6.84
7.04
7.19
7.5
8.1
8.9
9.69
10.2
10.22
9.65
8.57
7.18
5.76
4.56
3.7
3.17
2.77
2.24
1.31
-0.1
-1.86
-3.67
-5.22
-6.39
-7.23
-7.97
-8.78
-9.71
-10.68
-11.59
-12.46
-13.47
-14.76
-16.33
-17.86
-18.86
-18.85
-17.6
-15.24
-12.17
-8.85
-5.71
-2.95
-0.65
1.26
2.82
4.11
5.18
6.09
6.92
7.71
8.46
9.16
9.76
10.16
10.25
9.94
9.26
8.35
7.5
7.01
7.15
7.95
9.22
10.58
11.63
12.1
11.9
11.09
9.8
8.16
6.23
4.15
2.1
0.32
-1
-1.87
-2.47
-3.12
-4.06
-5.37
-6.88
-8.3
-9.31
-9.76
-9.69
-9.32
-8.96
-8.93
-9.47
-10.66
-12.36
-14.25
-15.88
-16.79
-16.72
-15.63
-13.7
-11.23
-8.48
-5.63
-2.86
-0.32
1.74
3.12
3.73
3.78
3.65
3.81
4.51
5.64
6.82
7.66
7.94
7.82
7.66
7.76
8.16
8.56
8.56
7.87
6.51
4.69
2.8
1.13
-0.18
-1.08
-1.59
-1.73
-1.58
-1.32
-1.21
-1.5
-2.29
-3.47
-4.75
-5.87
-6.67
-7.24
-7.8
-8.62
-9.79
-11.22
-12.64
-13.65
-13.91
-13.13
-11.2
-8.21
-4.47
-0.47
3.21
6.05
7.68
8.01
7.15
5.43
3.27
1.13
-0.65
-1.83
-2.37
-2.38
-2.1
-1.75
-1.47
-1.24
-1.01
-0.72
-0.35
0.02
0.29
0.39
0.32
0.13
-0.02
0.03
0.35
0.96
1.76
2.54
3.04
3.06
2.43
1.14
-0.77
-3.12
-5.64
-7.94
-9.68
-10.52
-10.31
-9.06
-6.94
-4.2
-1.09
2.19
5.46
8.55
11.29
13.53
15.21
16.44
17.44
18.55
20.07
22.12
24.67
27.54
30.49
33.35
36.11
38.81
41.49
44.16
46.76
49.28
51.79
54.4
57.24
60.33
63.59
66.84
70.01
73.18
76.62
80.66
85.48
91.02
96.98
102.81
107.95
111.85
114.13
114.49
112.67
108.34
101.03
90.24
75.71
57.75
37.4
16.43
-3.13
-19.53
-31.87
-40.25
-45.59
-49.06
-51.55
-53.46
-54.75
-55.32
-55.29
-55.11
-55.4
-56.6
-58.73
-61.37
-63.81
-65.36
-65.68
-64.79
-63.09
-61.2
-59.8
-59.52
-60.79
-63.73
-68.04
-73.04
-77.76
-81.21
-82.69
-81.88
-78.91
-74.21
-68.4
-62.08
-55.96
-50.73
-47.2
-46.11
-48.01
-52.95
-60.51
-69.8
-79.64
-88.91
-96.71
-102.52
-106.18
-107.61
-106.76
-103.36
-96.99
-87.19
-73.85
-57.35
-38.69
-19.4
-1.15
14.55
26.61
34.58
38.56
39.1
37.09
33.52
29.3
25.07
20.98
16.68
11.58
5.11
-2.92
-12.13
-21.65
-30.42
-37.52
-42.45
-45.11
-45.73
-44.63
-41.99
-37.81
-32.03
-24.58
-15.62
-5.56
4.79
14.22
21.27
24.57
23.2
17.07
7.01
-5.34
-17.93
-28.87
-36.73
-40.77
-40.81
-37.04
-29.92
-20.1
-8.44
4.07
16.45
27.93
38.17
47.27
55.58
63.51
71.21
78.5
85.04
90.56
95.07
99.03
103.09
107.91
113.81
120.59
127.61
134.06
139.28
143.11
145.93
148.45
151.56
156
161.99
169.1
176.1
180.95
181.11
174.27
159.05
135.75
106.45
74.26
42.27
12.45
-14.63
-39.39
-62.17
-82.57
-99.23
-110.5
-115.45
-114.49
-109.29
-102.13
-94.93
-88.76
-83.84
-80.01
-77.18
-75.44
-74.87
-75.35
-76.43
-77.57
-78.45
-79.27
-80.63
-83.31
-87.88
-94.22
-101.41
-107.82
-111.44
-110.53
-104.23
-92.99
-78.49
-63.23
-49.56
-38.98
-31.75
-27.14
-23.99
-21.49
-19.42
-18.21
-18.61
-21.44
-27.35
-36.71
-49.31
-64.13
-79.43
-93.17
-103.59
-109.74
-111.54
-109.32
-103.38
-93.62
-79.86
-62.37
-42.34
-21.79
-2.93
12.71
24.75
33.79
40.91
46.9
52.04
56.24
59.4
61.66
63.49
65.37
67.56
69.92
71.93
72.94
72.43
70.15
66.16
60.73
54.19
46.86
39.01
30.89
22.83
15.24
8.53
3.03
-1.12
-3.97
-5.7
-6.49
-6.49
-5.8
-4.53
-2.96
-1.59
-0.95
-1.49
-3.32
-5.97
-8.57
-10.14
-10.05
-8.38
-5.92
-3.78
-2.91
-3.66
-5.68
-8.21
-10.56
-12.3
-13.41
-14.03
-14.37
-14.81
-16.01
-18.97
-24.84
-34.26
-46.64
-59.91
-70.85
-76.16
-73.72
-63.51
-47.67
-29.64
-12.96
-0.03
8.27
12.4
13.58
13.15
12.19
11.61
12.17
14.53
19.05
25.51
33.17
40.75
46.98
50.92
52.25
51.26
48.62
45.05
40.95
36.43
31.38
25.8
20.01
14.81
11.3
10.61
13.48
19.86
28.85
38.71
47.37
53.06
54.94
53.45
50.15
47.3
46.92
50.13
56.58
64.48
70.97
72.93
67.81
54.4
33.29
6.76
-21.81
-48.9
-71.78
-89.07
-100.65
-107.28
-109.95
-109.53
-106.72
-102.22
-96.81
-91.21
-85.89
-80.72
-75.05
-67.98
-58.81
-47.52
-34.8
-21.85
-9.92
0.11
7.89
13.56
17.47
20.1
21.88
23.32
24.92
27.26
30.76
35.54
41.35
47.61
53.68
59
63.26
66.29
68.01
68.35
67.24
64.75
61.04
56.4
51.06
45.1
38.41
30.82
22.33
13.24
4.25
-3.79
-10.01
-13.83
-15.01
-13.81
-10.76
-6.65
-2.28
1.61
4.4
5.69
5.38
3.77
1.53
-0.52
-1.79
-2.26
-2.5
-3.38
-5.44
-8.45
-11.18
-11.83
-8.61
-0.5
12.44
28.99
47.1
64.25
77.9
86.06
87.73
83.25
74.27
63.24
52.77
44.87
40.67
40.33
43.3
48.45
54.2
58.68
60.08
57.12
49.53
38.1
24.24
9.36
-5.66
-20.54
-35.14
-49.1
-61.56
-71.52
-78.22
-81.57
-82.11
-80.65
-77.94
-74.43
-70.46
-66.38
-62.65
-59.72
-57.86
-57.01
-56.75
-56.44
-55.42
-53.09
-49.06
-43.17
-35.56
-26.69
-17.21
-7.8
1.01
8.94
15.93
22.03
27.18
31.07
33.14
32.68
29.19
22.71
14.06
4.75
-3.4
-8.95
-11.31
-10.98
-9.19
-7.37
-6.56
-7
-8.21
-9.25
-9.21
-7.59
-4.38
0.05
5.15
10.39
15.3
19.46
22.41
23.69
23.09
20.95
18.32
16.82
17.95
22.44
29.68
37.91
44.92
49.09
50.14
49.11
47.66
47.07
47.49
47.94
47.05
44.05
39.47
35.02
32.83
34.3
39.32
46.2
52.37
55.5
54.4
49.38
41.88
33.65
25.98
19.32
13.46
7.97
2.7
-2.04
-5.78
-8.29
-9.89
-11.44
-13.81
-17.28
-21.33
-24.68
-25.99
-24.55
-20.74
-15.94
-11.96
-10.3
-11.64
-15.66
-21.33
-27.38
-32.74
-36.63
-38.65
-38.66
-36.79
-33.56
-29.93
-27.22
-26.74
-29.31
-34.71
-41.55
-47.55
-50.34
-48.34
-41.42
-30.87
-18.93
-7.95
0.36
5.21
6.75
5.73
3.06
-0.46
-4.42
-8.84
-14.27
-21.56
-31.48
-44.17
-58.68
-72.95
-84.27
-90.1
-88.94
-80.77
-67.04
-50.08
-32.47
-16.47
-3.76
4.74
8.91
9.51
8.09
6.77
7.66
12.29
21.14
33.62
48.31
63.3
76.56
86.16
90.46
88.38
79.74
65.38
47.17
27.48
8.64
-7.51
-19.82
-27.63
-30.55
-28.36
-21.11
-9.44
5.31
21.11
35.75
47.16
53.87
55.18
51.06
42.13
29.54
14.9
-0.01
-13.32
-23.54
-29.67
-31.42
-29.12
-23.66
-16.22
-8.09
-0.38
6.21
11.48
15.65
19.19
22.47
25.63
28.47
30.75
32.24
32.94
32.9
32.08
30.3
27.23
22.69
16.84
10.31
4
-1.11
-4.39
-5.63
-5.16
-3.62
-1.78
-0.42
-0.22
-1.96
-6.49
-14.79
-27.58
-44.91
-65.75
-87.89
-108.39
-124.36
-133.86
-136.34
-132.6
-124.1
-112.28
-98.13
-82.1
-64.51
-45.82
-26.79
-8.34
8.73
23.83
36.68
47.07
54.8
59.68
61.59
60.71
57.64
53.33
48.81
44.94
42.12
40.18
38.56
36.5
33.42
29.06
23.65
17.85
12.66
9.24
8.7
11.78
18.59
28.53
40.37
52.63
63.88
73.09
79.72
83.78
85.67
86.09
85.9
86
87.05
89.28
92.28
95.1
96.42
94.94
89.78
80.8
68.71
54.78
40.49
26.95
14.36
2.04
-11.39
-27.23
-46.08
-67.33
-89.39
-110.02
-127.23
-139.72
-147.04
-149.48
-147.7
-142.56
-135.13
-126.63
-118.21
-110.63
-103.94
-97.37
-89.77
-80.28
-68.9
-56.71
-45.26
-35.8
-28.48
-22.43
-16.41
-9.77
-3.1
1.98
3.64
0.89
-5.78
-14.53
-22.96
-29.02
-31.66
-30.9
-27.5
-22.63
-17.51
-13.37
-11.27
-12.02
-15.95
-22.86
-32.01
-42.37
-52.82
-62.38
-70.29
-76.11
-79.66
-80.96
-80.18
-77.45
-72.82
-66.3
-58
-48.23
-37.61
-26.92
-16.9
-8.01
-0.34
6.37
12.48
18.36
24.2
30.04
35.8
41.34
46.53
51.29
55.56
59.31
62.62
65.57
68.26
70.8
73.28
75.8
78.48
81.39
84.57
88.02
91.78
95.93
100.54
105.46
110.24
114.06
115.93
114.95
110.69
103.33
93.73
83.15
72.95
64.26
57.8
53.79
51.9
51.33
50.85
48.91
44.02
35.09
21.92
5.37
-12.84
-30.59
-45.9
-57.43
-64.61
-67.61
-67.11
-64.13
-59.89
-55.6
-52.11
-49.81
-48.49
-47.68
-46.96
-46.4
-46.46
-47.72
-50.46
-54.43
-58.96
-63.2
-66.55
-68.7
-69.59
-69.26
-67.73
-65.06
-61.42
-57.14
-52.6
-48.16
-43.97
-40.06
-36.47
-33.25
-30.55
-28.59
-27.5
-27.25
-27.67
-28.42
-29.08
-29.19
-28.2
-25.46
-20.41
-12.72
-2.49
9.71
23.06
36.75
50.2
63.14
75.52
87.3
98.26
107.99
115.99
121.87
125.49
127.06
126.97
125.62
123.11
119.08
112.6
102.41
87.36
67.02
42.12
14.56
-13.04
-38
-58.34
-73.18
-82.7
-87.79
-89.63
-89.33
-87.71
-85.35
-82.41
-78.7
-73.75
-67.01
-58.21
-47.66
-36.22
-25.05
-15.19
-7.08
-0.51
5.25
10.94
16.98
23.11
28.68
32.89
35.33
36.24
36.54
37.67
41.05
47.7
57.91
71.31
87.1
104.44
122.79
141.94
161.92
182.65
203.75
224.58
244.21
261.59
275.45
284.3
286.45
280.4
265.39
241.86
211.69
177.73
143.06
109.96
79.44
51.31
24.9
-0.1
-23.21
-43.25
-59.22
-71.13
-80.45
-89.73
-101.53
-117.15
-135.79
-154.81
-170.84
-181.38
-185.87
-185.89
-184.26
-183.76
-185.97
-190.85
-197.1
-202.99
-207.16
-209.05
-209
-207.95
-207.16
-208.05
-211.86
-219.46
-230.92
-245.12
-259.37
-269.64
-271.58
-261.91
-240.06
-208.72
-173.17
-139.37
-111.94
-92.84
-81.35
-75.05
-71.12
-67.13
-61.24
-52.02
-38.41
-19.87
3.15
29.08
55.55
80.04
100.54
115.81
125.38
129.41
128.57
124.09
117.5
110.32
103.53
97.17
90.3
81.31
68.71
51.93
31.82
10.63
-8.57
-22.87
-30.24
-30.01
-22.73
-9.74
7.13
25.78
43.85
58.8
68.39
71.24
67.37
58.22
46.12
33.48
22.03
12.66
5.6
0.9
-1.29
-0.8
2.32
7.51
13.76
19.77
24.29
26.31
25.28
21.15
14.38
5.92
-2.99
-11
-16.91
-19.88
-19.43
-15.48
-8.32
1.41
12.62
23.9
33.66
40.49
43.56
42.8
38.89
33.01
26.43
20.26
15.22
11.73
9.97
10.08
12.05
15.62
20.26
25.36
30.54
35.88
41.9
49.1
57.39
65.78
72.52
75.86
74.97
70.35
63.72
57.2
52.41
49.85
48.92
48.6
48.23
47.92
48.5
50.93
55.46
61.24
66.43
68.8
66.74
59.85
49.03
36.16
23.28
12.17
4.02
-0.4
-0.68
3.19
10.62
20.13
29.44
36.02
37.81
33.89
24.71
11.75
-3.12
-18.33
-32.87
-46.2
-57.89
-67.16
-72.83
-73.74
-69.26
-59.9
-47.52
-34.76
-24.11
-16.89
-12.83
-10.37
-7.72
-3.92
0.55
4.03
4.63
1.2
-6.1
-15.93
-26.51
-36.34
-44.74
-51.77
-57.92
-63.67
-69.17
-74.3
-78.64
-81.63
-82.45
-80.09
-73.55
-62.34
-47.06
-29.62
-12.93
0.18
8
10.69
9.95
8.05
6.64
6.08
5.72
4.88
3.64
3.1
4.81
9.76
17.78
27.64
37.71
46.82
54.66
61.61
68.16
74.44
80.09
84.51
87.39
89.01
90.21
92
95.15
99.81
105.51
111.43
116.73
120.92
123.9
126.03
128.04
130.86
135.32
141.82
149.76
157.33
161.71
159.65
148.49
127.14
96.5
59.31
19.44
-19.17
-53.23
-80.4
-99.33
-109.5
-111.21
-105.73
-95.39
-83.31
-72.9
-67.01
-67.28
-73.77
-85.12
-99.1
-113.33
-125.98
-136.09
-143.69
-149.6
-155.06
-161.38
-169.4
-179.18
-189.83
-199.58
-206.06
-206.83
-199.89
-184.3
-160.53
-130.54
-97.31
-64.32
-34.59
-10.15
8.32
21.32
30.03
35.62
38.82
39.8
38.53
35.22
30.64
26.23
23.69
24.44
28.79
35.62
42.37
45.91
43.54
33.97
17.69
-3.45
-27.04
-51.03
-74.08
-95.46
-114.41
-129.6
-139.08
-140.8
-133.43
-117.12
-93.71
-66.36
-38.68
-13.89
5.94
20.09
28.98
33.65
35.2
34.57
32.43
29.35
25.99
23.07
21.21
20.76
21.58
23.07
24.41
24.73
23.47
20.49
16.19
11.39
7.22
4.79
4.9
7.78
13
19.64
26.69
33.34
39.16
44
47.72
49.94
50.14
47.95
43.49
37.52
31.15
25.51
21.27
18.62
17.39
17.39
18.56
20.95
24.59
29.19
34.29
39.35
43.99
48.1
51.83
55.43
58.98
62.37
65.2
67.01
67.42
66.34
64.04
61.01
57.88
55.21
53.35
52.37
52.06
51.8
50.67
47.47
41.12
30.98
17.2
0.96
-15.84
-31.03
-42.85
-50.39
-53.78
-53.94
-52.09
-49.21
-45.69
-41.33
-35.63
-28.23
-19.13
-8.69
2.42
13.5
23.72
32.11
37.5
38.64
34.72
25.83
13.23
-0.89
-14.07
-24.37
-30.9
-33.78
-33.78
-31.7
-28.12
-23.3
-17.39
-10.67
-3.65
2.93
8.2
11.39
11.92
9.56
4.57
-2.38
-10.28
-18.08
-24.92
-30.41
-34.63
-38.14
-41.66
-45.87
-51.1
-57.27
-63.82
-69.88
-74.42
-76.42
-75.04
-69.75
-60.5
-47.84
-32.98
-17.59
-3.43
8.14
16.43
21.59
24.4
25.98
27.43
29.57
32.84
37.25
42.43
47.72
52.34
55.58
57.08
56.89
55.52
53.71
52.16
51.34
51.37
52.1
53.14
54.01
54.22
53.41
51.48
48.63
45.41
42.56
40.59
39.45
38.34
35.8
30.27
20.72
7.14
-9.38
-26.95
-43.58
-57.54
-67.67
-73.26
-73.97
-69.78
-61.19
-49.29
-35.78
-22.71
-11.97
-4.82
-1.7
-2.34
-6.01
-11.82
-18.82
-25.99
-32.14
-36
-36.52
-33.18
-26.22
-16.55
-5.49
5.71
16.14
25.33
32.96
38.7
42.03
42.56
40.25
35.62
29.68
23.64
18.43
14.54
11.97
10.47
9.79
9.85
10.67
12.23
14.36
16.6
18.32
18.86
17.7
14.66
10
4.28
-1.85
-7.87
-13.61
-19.16
-24.66
-30.1
-35.17
-39.36
-42.07
-42.89
-41.72
-38.8
-34.59
-29.6
-24.23
-18.73
-13.14
-7.35
-1.28
5.05
11.41
17.43
22.66
26.73
29.37
30.41
29.77
27.44
23.57
18.61
13.25
8.35
4.66
2.6
2.17
2.87
3.98
4.7
4.46
3
0.46
-2.72
-5.92
-8.58
-10.29
-11.02
-10.99
-10.61
-10.3
-10.32
-10.68
-11.2
-11.58
-11.53
-10.9
-9.67
-7.92
-5.8
-3.44
-0.92
1.65
4.18
6.57
8.67
10.37
11.63
12.49
13.1
13.66
14.32
15.15
16.1
17.03
17.84
18.52
19.16
19.95
20.95
22.07
23.04
23.51
23.17
21.91
19.87
17.37
14.82
12.57
10.85
9.72
9.11
8.86
8.79
8.73
8.61
8.44
8.33
8.39
8.66
9.03
9.23
8.8
7.31
4.41
0.11
-5.14
-10.52
-15.06
-17.9
-18.54
-16.93
-13.45
-8.61
-2.95
3.15
9.38
15.42
20.91
25.47
28.93
31.38
33.17
34.62
35.75
36.12
34.86
31.04
23.99
13.67
0.79
-13.3
-26.84
-38.12
-45.81
-49.26
-48.62
-44.74
-38.81
-32.05
-25.42
-19.64
-15.25
-12.8
-12.87
-15.84
-21.7
-29.78
-38.89
-47.66
-54.91
-60.03
-62.94
-63.94
-63.39
-61.53
-58.42
-54.06
-48.48
-41.85
-34.48
-26.69
-18.74
-10.81
-3.03
4.48
11.53
17.88
23.32
27.7
31.07
33.59
35.5
37.02
38.27
39.26
39.94
40.22
40.08
39.57
38.8
37.9
36.99
36.16
35.46
34.93
34.57
34.38
34.34
34.35
34.27
33.87
33
31.54
29.55
27.24
24.89
22.77
21.03
19.64
18.47
17.32
16.06
14.64
13.08
11.33
9.28
6.71
3.47
-0.47
-4.94
-9.61
-14.11
-18.19
-21.74
-24.73
-27.12
-28.79
-29.65
-29.71
-29.23
-28.6
-28.22
-28.29
-28.64
-28.86
-28.47
-27.2
-25.15
-22.72
-20.44
-18.62
-17.22
-15.81
-13.85
-10.92
-6.9
-2.05
3.15
8.3
13.21
18
22.89
28.01
33.15
37.85
41.52
43.68
44.29
43.69
42.49
41.37
40.8
40.92
41.61
42.57
43.51
44.19
44.46
44.28
43.76
43.14
42.81
43.24
44.77
47.4
50.62
53.42
54.58
52.99
48.1
40.09
29.82
18.44
6.93
-4.15
-14.86
-25.57
-36.76
-48.72
-61.48
-74.88
-88.71
-102.79
-116.89
-130.64
-143.4
-154.27
-162.3
-166.62
-166.67
-162.2
-153.28
-140.23
-123.61
-104.3
-83.51
-62.69
-43.28
-26.45
-12.9
-2.76
4.28
8.8
11.43
12.71
13.01
12.54
11.33
9.42
6.86
3.79
0.45
-2.85
-5.73
-7.79
-8.68
-8.15
-6.16
-2.89
1.3
6.01
10.88
15.76
20.6
25.34
29.81
33.72
36.7
38.48
38.99
38.33
36.72
34.39
31.5
28.21
24.69
21.1
17.64
14.46
11.71
9.48
7.87
6.94
6.65
6.89
7.45
8.14
8.78
9.36
9.99
10.78
11.84
13.15
14.6
16.04
17.32
18.28
18.81
18.86
18.45
17.69
16.7
15.54
14.09
12.09
9.27
5.44
0.71
-4.5
-9.63
-14.12
-17.7
-20.39
-22.47
-24.31
-26.28
-28.56
-31.11
-33.61
-35.58
-36.46
-35.87
-33.77
-30.39
-26.26
-21.93
-17.84
-14.22
-11.14
-8.56
-6.46
-4.81
-3.57
-2.61
-1.69
-0.48
1.36
4.06
7.66
11.94
16.43
20.55
23.66
25.22
24.91
22.63
18.57
13.31
7.73
2.93
-0.11
-0.84
0.65
3.68
7.3
10.65
13.25
14.98
15.96
16.25
15.82
14.52
12.33
9.4
6.01
2.5
-0.9
-4.12
-7.17
-10.11
-12.94
-15.58
-17.92
-19.85
-21.29
-22.17
-22.44
-21.95
-20.52
-17.95
-14.14
-9.24
-3.65
2.12
7.56
12.45
16.9
21.19
25.56
29.95
33.97
37.03
38.74
39.06
38.34
37.19
36.08
35.2
34.38
33.32
31.68
29.36
26.41
23.04
19.56
16.23
13.35
11.09
9.43
8.06
6.4
3.71
-0.52
-6.4
-13.45
-20.71
-27.08
-31.61
-33.88
-33.98
-32.52
-30.29
-27.96
-25.86
-23.88
-21.56
-18.43
-14.17
-8.83
-2.75
3.59
9.83
15.75
21.31
26.49
31.22
35.35
38.77
41.47
43.61
45.44
47.22
49.08
50.99
52.79
54.32
55.45
56.22
56.68
56.81
56.33
54.73
51.4
45.96
38.51
29.69
20.54
12.14
5.32
0.49
-2.43
-3.92
-4.76
-5.93
-8.52
-13.55
-21.7
-33.01
-46.77
-61.57
-75.58
-86.94
-94.12
-96.22
-93.07
-85.23
-73.76
-60.01
-45.36
-31.09
-18.17
-7.32
1.09
7.05
10.84
12.98
14.11
14.86
15.69
16.9
18.57
20.59
22.71
24.56
25.7
25.81
24.74
22.54
19.55
16.19
12.97
10.27
8.31
7.03
6.17
5.24
3.6
0.51
-4.65
-12.22
-22
-33.18
-44.42
-54.19
-61.19
-64.73
-64.91
-62.42
-58.17
-52.88
-46.89
-40.28
-33.07
-25.45
-17.78
-10.49
-3.86
2.03
7.25
11.91
16
19.34
21.81
23.32
23.98
24.03
23.72
23.27
22.82
22.47
22.27
22.22
22.22
22.14
21.82
21.18
20.23
19.06
17.82
16.54
15.23
13.88
12.54
11.39
10.69
10.62
11.22
12.39
13.91
15.59
17.26
18.89
20.5
22.11
23.71
25.23
26.59
27.81
28.96
30.27
31.99
34.31
37.19
40.44
43.73
46.85
49.8
52.78
56.07
59.89
64.22
68.88
73.66
78.43
83.22
88.23
93.72
99.88
106.78
114.19
121.61
128.18
132.78
134.09
130.85
122.06
107.34
86.98
61.96
33.78
4.02
-26.11
-55.92
-85.11
-113.43
-140.07
-163.59
-182.21
-194.52
-200.13
-200.02
-196.23
-191.01
-185.9
-181.17
-175.96
-168.96
-159.19
-146.45
-131.35
-114.94
-98.21
-81.85
-66.22
-51.52
-38.01
-26.09
-16.09
-8.11
-1.92
3.09
7.7
12.66
18.39
24.7
30.78
35.43
37.47
36.33
32.39
26.92
21.69
18.37
17.96
20.6
25.67
32.23
39.41
46.67
53.75
60.48
66.7
72.13
76.59
79.99
82.3
83.28
82.27
77.92
68.66
53.24
31.48
4.6
-25
-54.4
-80.92
-102.65
-118.53
-128.15
-131.54
-129.12
-121.64
-110.16
-95.88
-80.11
-64.13
-49.4
-37.53
-30.19
-28.6
-33.02
-42.5
-55.12
-68.5
-80.47
-89.38
-94.06
-93.65
-87.57
-75.65
-58.51
-37.69
-15.55
5.21
22.12
33.48
38.64
38.06
33.02
25.31
16.73
8.68
2.03
-2.87
-5.96
-7.24
-6.69
-4.31
-0.31
4.83
10.41
15.74
20.38
24.25
27.56
30.63
33.68
36.65
39.3
41.29
42.4
42.62
42.14
41.24
40.21
39.28
38.55
38.07
37.85
37.9
38.28
39.1
40.5
42.56
45.3
48.68
52.62
56.93
61.34
65.45
68.68
70.38
69.94
67.05
61.89
55.37
48.84
43.85
41.7
43.03
47.58
54.24
61.23
66.42
67.87
64.2
54.99
40.9
23.52
4.99
-12.51
-27.21
-38.11
-45.09
-48.81
-50.45
-51.49
-53.39
-57.29
-63.7
-72.4
-82.42
-92.37
-100.73
-106.14
-107.57
-104.45
-96.7
-84.85
-70.23
-54.84
-41.2
-31.75
-28.22
-31.1
-39.45
-51.15
-63.53
-74.07
-80.89
-83.11
-80.75
-74.48
-65.22
-53.75
-40.66
-26.3
-11.12
4.16
18.39
30.17
38.14
41.38
39.68
33.58
24.21
13.1
1.94
-7.66
-14.31
-17.07
-15.61
-10.26
-1.94
8.07
18.47
28.15
36.43
43.09
48.39
52.83
57
61.26
65.56
69.35
71.7
71.63
68.53
62.49
54.36
45.51
37.35
30.86
26.26
23.14
20.68
18.02
14.55
10.07
4.8
-0.75
-5.93
-10.12
-13
-14.49
-14.84
-14.48
-13.83
-13.25
-13.01
-13.38
-14.59
-16.9
-20.36
-24.79
-29.76
-34.77
-39.51
-43.94
-48.26
-52.69
-57.24
-61.62
-65.28
-67.63
-68.33
-67.38
-65.12
-62.11
-58.93
-56.13
-54.08
-52.98
-52.77
-53.17
-53.74
-54.05
-53.82
-52.97
-51.61
-49.77
-47.44
-44.51
-40.89
-36.67
-32.09
-27.41
-22.75
-18.02
-12.93
-7.23
-0.92
5.78
12.45
18.69
24.25
29.09
33.29
36.97
40.22
43.02
45.31
47.04
48.1
48.43
47.97
46.68
44.57
41.72
38.36
34.85
31.72
29.46
28.39
28.52
29.45
30.62
31.42
31.59
31.19
30.54
29.98
29.6
29.21
28.41
26.81
24.15
20.35
15.51
9.85
3.69
-2.47
-8.06
-12.45
-15.15
-15.98
-15.07
-12.8
-9.61
-5.79
-1.45
3.44
8.97
15.15
21.86
28.82
35.66
41.95
47.33
51.5
54.34
55.9
56.39
56.14
55.56
54.93
54.4
53.93
53.42
52.81
52.09
51.35
50.6
49.82
48.85
47.6
46.06
44.4
42.81
41.4
40.05
38.45
36.24
33.17
29.28
24.82
20.15
15.56
11.23
7.24
3.65
0.65
-1.57
-2.82
-3.1
-2.67
-2.04
-1.82
-2.46
-4.16
-6.71
-9.72
-12.69
-15.28
-17.36
-19.04
-20.57
-22.08
-23.59
-24.94
-25.86
-26.14
-25.67
-24.47
-22.69
-20.55
-18.17
-15.67
-13.08
-10.49
-8.08
-6.07
-4.67
-3.96
-3.9
-4.3
-4.94
-5.65
-6.36
-7.15
-8.14
-9.44
-11.1
-13.01
-15.05
-17.07
-18.94
-20.57
-21.81
-22.44
-22.17
-20.78
-18.23
-14.75
-10.78
-6.8
-3.16
0.07
3
5.78
8.49
11.02
13.17
14.78
15.79
16.33
16.56
16.67
16.74
16.81
16.91
17
17.08
17.14
17.15
17.09
16.89
16.51
15.91
15.1
14.13
13.04
11.87
10.63
9.34
7.92
6.32
4.45
2.26
-0.22
-2.91
-5.58
-7.96
-9.76
-10.82
-11.16
-10.96
-10.56
-10.32
-10.5
-11.19
-12.33
-13.73
-15.15
-16.3
-16.86
-16.57
-15.23
-12.86
-9.75
-6.47
-3.77
-2.34
-2.57
-4.4
-7.38
-10.76
-13.83
-16.05
-17.11
-16.98
-15.77
-13.63
-10.66
-6.93
-2.41
2.88
8.82
15.14
21.33
26.73
30.79
33.16
33.92
33.59
32.94
32.76
33.67
35.85
39.14
42.96
46.52
48.97
49.6
48
44.26
38.97
33.08
27.53
22.92
19.22
15.85
12
7.08
1.02
-5.71
-12.44
-18.76
-24.77
-31.1
-38.45
-47.25
-57.32
-67.73
-77.02
-83.55
-85.93
-83.45
-76.44
-66.14
-54.44
-43.29
-33.98
-26.87
-21.47
-16.93
-12.55
-8.19
-4.14
-0.77
1.85
4.06
6.36
9.11
12.16
14.98
16.89
17.54
17.21
16.7
17.02
18.93
22.62
27.67
33.22
38.3
42.12
44.2
44.31
42.43
38.69
33.38
27.07
20.59
14.98
11.14
9.64
10.37
12.58
15.06
16.5
15.96
13.07
8.17
2.11
-4.09
-9.56
-13.8
-16.85
-19.12
-21.06
-22.98
-24.72
-25.62
-24.74
-21.22
-14.67
-5.49
5.05
15.03
22.32
25.21
22.97
16.23
6.86
-2.63
-9.88
-13.46
-13.2
-9.98
-5.14
0.25
5.79
11.66
18.32
26.02
34.47
42.98
50.54
56.12
58.71
57.4
51.52
40.96
26.37
9.38
-7.73
-22.68
-33.75
-40.32
-42.8
-42.14
-39.31
-34.86
-29.08
-22.24
-14.95
-8.24
-3.25
-0.89
-1.47
-4.64
-9.62
-15.6
-21.99
-28.58
-35.54
-43.09
-51.27
-59.83
-68.16
-75.47
-80.95
-83.94
-84.11
-81.42
-76.11
-68.58
-59.27
-48.64
-37.06
-24.92
-12.66
-0.86
9.83
18.79
25.62
30.3
33.22
35.03
36.49
38.15
40.2
42.42
44.16
44.61
42.98
38.91
32.62
24.93
17
9.95
4.48
0.73
-1.67
-3.25
-4.37
-5.02
-4.91
-3.61
-0.85
3.33
8.4
13.39
17.01
17.85
14.75
7.11
-4.78
-19.78
-36.09
-51.65
-64.67
-73.82
-78.45
-78.5
-74.34
-66.79
-56.9
-46.02
-35.54
-26.68
-20.11
-15.88
-13.46
-11.92
-10.4
-8.32
-5.59
-2.4
0.93
4.19
7.37
10.58
13.99
17.6
21.38
25.15
28.78
32.21
35.43
38.57
41.88
45.75
50.64
56.95
64.73
73.49
82.27
89.83
95.1
97.57
97.43
95.47
92.77
90.34
88.79
88.22
88.22
88.01
86.5
82.61
75.59
65.3
52.41
38.32
24.89
14.01
7.07
4.54
5.66
8.51
10.48
9
2.37
-9.67
-26.05
-44.89
-64.31
-82.98
-100.22
-115.75
-129.21
-140.02
-147.45
-150.95
-150.18
-144.99
-135.05
-119.92
-99.33
-73.64
-44.29
-13.89
14.16
36.58
50.91
56.14
52.84
42.76
28.3
12.02
-3.86
-17.55
-27.68
-33.29
-33.82
-29.22
-20.21
-8.36
4.06
14.35
19.87
18.53
9.34
-7.04
-28.03
-49.48
-66.62
-75.53
-74.34
-63.83
-46.88
-27.34
-8.66
6.84
17.94
24.01
24.69
19.86
10.19
-2.64
-16.16
-27.71
-35.37
-38.48
-37.69
-34.52
-30.8
-28.09
-27.34
-28.72
-31.5
-34.35
-35.78
-34.76
-31.22
-26.19
-21.41
-18.56
-18.58
-21.33
-25.74
-30.38
-33.95
-35.69
-35.44
-33.48
-30.18
-25.82
-20.52
-14.35
-7.43
-0.13
6.88
12.79
16.98
19.29
20.2
20.69
21.83
24.37
28.44
33.56
38.84
43.45
46.93
49.25
50.71
51.7
52.49
53.18
53.68
53.75
53.04
51.14
47.69
42.58
36.14
29.21
23.01
18.84
17.68
19.9
25.2
32.64
41.01
49.06
55.7
60.19
62.02
60.97
56.99
50.15
40.76
29.42
17.11
5.13
-5.07
-12.27
-15.77
-15.64
-12.6
-7.78
-2.33
2.89
7.45
11.33
14.77
18.29
22.55
28.35
36.37
47
60.06
74.92
90.62
106.21
121.13
135.21
148.64
161.55
173.66
183.99
190.85
192.16
186.09
171.71
149.32
120.54
87.69
52.92
17.65
-17.73
-53.41
-89.35
-124.49
-156.65
-182.95
-201.06
-210.09
-211.17
-207.16
-201.76
-198.41
-199.34
-205.09
-214.5
-225.15
-233.99
-238.21
-235.86
-226.33
-210.23
-188.9
-163.88
-136.54
-108.16
-80.34
-55
-34.14
-18.94
-8.99
-2.22
4.22
12.78
24.25
37.49
50.15
59.81
65.08
65.9
63.2
58.16
51.67
44.24
36.21
28.09
20.56
14.31
9.62
6.24
3.48
0.6
-2.8
-6.55
-10.07
-12.6
-13.48
-12.41
-9.53
-5.39
-0.86
3.04
5.38
5.63
3.83
0.7
-2.43
-4.03
-2.79
2.04
10.4
21.54
34.22
47.02
58.56
67.74
73.8
76.51
76.12
73.33
69.14
64.6
60.59
57.65
55.95
55.28
55.17
54.97
53.95
51.43
46.94
40.14
30.9
19.17
5.1
-10.74
-27.13
-42.15
-53.45
-58.93
-57.54
-49.78
-37.72
-24.42
-12.96
-5.54
-3.04
-5.14
-10.87
-19.11
-28.87
-39.2
-48.92
-56.53
-60.39
-59.25
-52.88
-42.24
-29.15
-15.71
-3.45
6.91
15.4
22.33
28.03
32.48
35.53
37.04
37.09
35.87
33.71
30.95
27.96
25.19
23.1
22.01
21.95
22.44
22.63
21.47
18.16
12.45
4.87
-3.43
-10.97
-16.34
-18.64
-17.6
-13.77
-8.3
-2.73
1.43
3.13
2.07
-1.17
-5.35
-8.95
-10.71
-9.97
-6.8
-1.81
4.14
10.23
15.94
20.99
25.31
28.84
31.35
32.44
31.55
28.18
22.16
13.88
4.28
-5.23
-13.17
-18.31
-19.89
-17.78
-12.25
-3.9
6.54
18.17
30.05
41.27
50.99
58.66
64.09
67.53
69.51
70.78
71.96
73.51
75.64
78.28
81.22
84.22
87.09
89.82
92.59
95.75
99.79
105.17
112.13
120.45
129.35
137.49
143.15
144.67
140.74
130.79
115.09
94.69
71.19
46.38
21.85
-1.29
-22.44
-41.37
-57.87
-71.68
-82.51
-90.31
-95.56
-99.25
-102.62
-106.64
-111.82
-118.01
-124.69
-131.15
-136.62
-140.33
-141.39
-139
-132.59
-122.23
-108.73
-93.58
-78.6
-65.5
-55.7
-50.2
-49.77
-54.92
-65.8
-81.72
-100.85
-120.3
-136.65
-147
-149.83
-145.42
-135.52
-122.45
-108.18
-93.79
-79.56
-65.39
-51.31
-37.61
-24.78
-13.39
-3.87
3.47
8.61
11.9
14.15
16.44
19.88
25.2
32.57
41.61
51.69
62.06
71.97
80.61
87.1
90.73
91.16
88.67
84.01
78.12
71.65
64.79
57.39
49.22
40.28
30.97
21.95
13.88
7.2
1.96
-2.28
-6.35
-11.37
-18.43
-28.14
-40.18
-53.19
-65.03
-73.39
-76.59
-74
-66.18
-54.51
-40.71
-26.51
-13.43
-2.81
4.22
6.83
4.75
-1.56
-10.8
-21.05
-30.2
-36.34
-38.29
-35.8
-29.5
-20.62
-10.64
-0.87
7.77
14.82
20.19
24
26.57
28.42
30.24
32.74
36.4
41.18
46.51
51.33
54.54
55.37
53.62
49.74
44.7
39.69
35.91
34.34
35.54
39.54
45.72
52.87
59.4
63.82
65.23
63.67
60.11
56.13
53.43
53.21
55.95
61.39
68.86
77.59
86.95
96.53
106.07
115.32
123.93
131.33
136.68
139.01
137.32
130.97
119.98
105.17
88.03
70.25
53.07
36.95
21.66
6.49
-9.25
-26.17
-44.84
-65.8
-89.28
-114.92
-141.44
-166.8
-188.83
-205.84
-217.03
-222.41
-222.24
-216.78
-206.17
-190.89
-172.08
-151.54
-131.06
-111.88
-94.21
-77.58
-61.36
-45.41
-30.31
-17.14
-7.16
-1.28
0.25
-2.02
-6.73
-12.01
-15.95
-17.17
-15.26
-10.83
-5.18
0.29
4.58
7.35
8.76
9.22
9.17
8.99
9.15
10.11
12.34
16.03
21.05
26.85
32.65
37.55
40.75
41.6
39.76
35.25
28.53
20.44
12.1
4.61
-1.19
-4.82
-6.16
-5.31
-2.5
1.88
7.27
12.94
18.13
22.18
24.81
26.12
26.46
26.23
25.72
25.05
24.22
23.3
22.39
21.6
21
20.53
20.05
19.4
18.45
17.12
15.42
13.37
11.09
8.85
7.06
6.22
6.78
8.92
12.46
16.77
20.99
24.21
25.71
25.13
22.55
18.44
13.58
8.91
5.35
3.58
3.89
6.1
9.65
13.82
17.98
21.89
25.62
29.51
33.74
38.21
42.45
45.77
47.61
47.72
46.37
44.19
41.98
40.41
39.68
39.5
38.97
36.92
32.16
23.86
11.83
-3.28
-19.93
-36.04
-49.38
-58.15
-61.46
-59.69
-54.37
-47.8
-42.4
-39.9
-41.01
-45.27
-51.44
-57.86
-63.04
-65.84
-65.64
-62.25
-55.8
-46.67
-35.43
-22.82
-9.78
2.59
13.17
20.91
24.95
24.79
20.41
12.32
1.6
-10.35
-21.97
-31.8
-38.78
-42.33
-42.41
-39.41
-34.04
-27.19
-19.81
-12.72
-6.51
-1.46
2.46
5.51
7.88
9.63
10.54
10.31
8.73
5.88
2.13
-1.91
-5.72
-8.99
-11.67
-13.85
-15.64
-17.02
-17.89
-18.26
-18.19
-17.91
-17.6
-17.16
-16.26
-14.41
-11.27
-6.88
-1.64
3.87
9.15
13.95
18.33
22.4
26.19
29.53
32.13
33.85
34.71
35
35.02
35.01
34.92
34.55
33.7
32.3
30.59
29
27.97
27.82
28.56
29.87
31.31
32.43
32.91
32.65
31.7
30.15
28.16
25.83
23.29
20.74
18.39
16.39
14.73
13.2
11.34
8.63
4.69
-0.48
-6.25
-11.5
-14.9
-15.5
-13.16
-8.73
-3.7
0.41
2.67
3.12
2.49
1.82
1.86
2.81
4.46
6.48
8.66
11.06
13.82
16.94
20.25
23.36
25.82
27.35
27.86
27.45
26.32
24.63
22.35
19.31
15.35
10.42
4.79
-0.95
-6.13
-10.32
-13.54
-16.36
-19.68
-24.32
-30.73
-38.77
-47.74
-56.59
-63.98
-68.42
-68.36
-62.46
-50.09
-31.85
-9.76
13.1
33.37
48.53
57.7
61.71
62.58
62.45
62.59
62.91
62.19
58.71
51.21
39.53
24.62
8.17
-8.03
-22.62
-34.76
-43.98
-50.03
-52.95
-53.37
-52.72
-53.02
-56.02
-62.01
-69.02
-73.02
-69.4
-54.91
-29.34
4.16
40.21
73.23
99.39
117.46
128.51
134.58
137.47
137.86
135.34
128.85
117.21
99.64
76.14
47.72
16.49
-14.63
-42.59
-65.18
-81.69
-93.32
-102.51
-112.01
-123.5
-136.91
-150.28
-160.41
-163.79
-157.48
-139.85
-110.97
-72.84
-29.2
14.97
54.3
84.24
102.1
107.65
103.01
91.61
76.98
61.57
46.43
31.53
16.65
2.04
-11.31
-21.98
-28.77
-31.18
-29.69
-25.64
-20.92
-17.65
-17.98
-23.63
-35.37
-52.26
-71.33
-87.79
-96.35
-93.01
-76.78
-50.32
-19.08
10.56
33.52
47.27
51.86
48.88
40.2
27.39
11.88
-4.42
-18.77
-28.08
-30.03
-24.16
-12.27
2.21
15.63
25.43
30.9
32.87
32.83
31.95
30.56
28.27
24.57
19.46
13.74
8.82
6.18
6.66
10.08
15.31
20.66
24.57
26.19
25.71
24.3
23.67
25.42
30.26
37.62
45.54
51.25
52.08
46.53
34.93
19.3
2.81
-11.43
-21.33
-26.4
-27.67
-27.11
-26.82
-28.34
-32.23
-37.94
-44.16
-49.26
-51.9
-51.37
-47.78
-41.91
-34.82
-27.53
-20.83
-15.24
-11.12
-8.65
-7.72
-7.84
-8.13
-7.52
-5.15
-0.67
5.52
12.47
18.99
24.07
27.21
28.54
28.75
28.7
29.13
30.26
31.7
32.57
32.01
29.59
25.61
21.04
17.02
14.35
13.14
12.85
12.7
12.06
10.81
9.25
7.97
7.39
7.67
8.71
10.2
11.78
13
13.43
12.65
10.46
6.99
2.73
-1.58
-5.26
-7.93
-9.58
-10.45
-10.88
-11.02
-10.83
-10.18
-9.03
-7.6
-6.25
-5.36
-5.11
-5.35
-5.68
-5.58
-4.68
-2.84
-0.29
2.61
5.43
7.92
10.08
12.05
14.04
16.06
17.98
19.51
20.43
20.66
20.34
19.76
19.27
19.18
19.58
20.39
21.36
22.16
22.53
22.44
22.11
21.9
22.16
22.98
24.14
25.22
25.87
25.92
25.44
24.49
23.07
21.01
18.25
14.96
11.5
8.12
4.74
0.88
-3.95
-9.66
-15.29
-19.22
-19.93
-16.8
-10.67
-3.62
1.81
3.54
0.68
-6.26
-15.69
-25.55
-33.97
-39.83
-42.97
-44.03
-43.98
-43.44
-42.31
-39.83
-35.04
-27.38
-17.06
-5.17
6.65
16.62
23.24
25.48
22.96
16.06
5.92
-5.6
-16.26
-23.87
-26.81
-24.31
-16.59
-4.68
9.88
25.23
39.31
49.89
54.86
52.76
43.5
28.72
11.56
-4.23
-15.62
-21.3
-22.02
-20.18
-18.86
-20.81
-27.72
-40.02
-56.86
-76.4
-96.09
-113.02
-124.45
-128.39
-124.01
-111.75
-93.17
-70.47
-46.12
-22.4
-1.11
16.48
29.65
38.1
41.88
41.36
37.3
30.87
23.46
16.46
11.01
7.91
7.59
10.17
15.39
22.57
30.61
38.19
44.09
47.48
48.11
46.15
42.07
36.29
29.29
21.75
14.64
9.11
6.15
6.28
9.41
14.96
22.1
29.94
37.61
44.1
48.2
48.59
44.2
34.78
21.27
5.82
-8.73
-19.71
-25.54
-26.21
-23.33
-19.63
-18.13
-21.18
-29.78
-43.23
-59.37
-75.22
-87.77
-94.94
-96.06
-92.01
-84.83
-76.97
-70.57
-66.95
-66.52
-68.84
-72.93
-77.52
-81.38
-83.58
-83.7
-81.97
-79.05
-75.84
-73.06
-70.98
-69.42
-67.71
-65.03
-60.52
-53.43
-43.25
-29.87
-13.72
4.16
22.19
38.57
51.66
60.42
64.65
64.88
62.21
57.92
53.24
49.15
46.31
45.02
45.22
46.51
48.2
49.54
49.81
48.55
45.64
41.32
35.99
30.2
24.38
18.76
13.42
8.35
3.59
-0.62
-3.96
-6.11
-6.94
-6.65
-5.77
-4.91
-4.61
-5.09
-6.17
-7.35
-8.02
-7.65
-6
-3.19
0.4
4.27
8.09
11.8
15.65
19.99
25.07
30.77
36.53
41.6
45.33
47.46
48.3
48.53
48.91
49.9
51.54
53.49
55.27
56.44
56.73
56.01
54.31
51.84
49.09
46.88
46.03
46.9
48.78
49.73
47.01
38.06
21.46
-2.31
-31.04
-61.45
-90.08
-114.16
-131.87
-142.39
-145.7
-142.39
-133.63
-121.03
-106.41
-91.5
-77.55
-65.14
-54.13
-43.82
-33.26
-21.59
-8.37
6.2
21.25
35.27
46.42
52.93
53.53
48
37.26
23.23
8.41
-4.8
-14.53
-19.65
-19.62
-14.43
-4.41
9.54
25.81
42.2
56.33
66.37
71.59
72.46
70.25
66.4
61.87
56.92
51.22
44.33
36.13
27.05
18.14
10.62
5.6
3.47
3.82
5.45
6.93
7.19
6.01
4.15
2.82
3.01
4.85
7.54
9.69
10.14
8.61
5.96
3.8
3.76
6.83
12.99
21.47
31.08
40.67
49.32
56.44
61.64
64.79
65.88
65.02
62.3
57.8
51.55
43.65
34.52
24.86
15.55
7.38
0.62
-5.11
-10.81
-17.65
-26.57
-37.88
-51.13
-65.24
-78.87
-90.74
-99.82
-105.21
-106.07
-101.55
-91.24
-75.6
-56.38
-36.57
-19.68
-8.69
-5.16
-8.87
-18.11
-30.25
-42.26
-51.04
-53.75
-48.42
-34.75
-14.67
7.74
27.47
40.25
44.18
40.17
31.19
20.71
11.13
3.15
-3.77
-10.49
-17.3
-23.79
-29.36
-33.85
-37.79
-42.22
-47.91
-54.69
-61.23
-65.45
-65.35
-59.99
-49.94
-37.23
-24.55
-14.26
-7.62
-4.56
-4.07
-4.93
-6.46
-8.7
-12.22
-17.42
-23.98
-30.55
-35.07
-35.47
-30.49
-20.23
-6.25
8.92
22.46
32
36.21
35.01
29.45
21.28
12.41
4.56
-0.99
-3.42
-2.38
2.05
9.34
18.48
28.05
36.52
42.64
45.74
45.86
43.61
39.85
35.46
31.01
26.69
22.19
16.82
9.72
0.36
-11.04
-23.28
-34.32
-41.8
-43.85
-39.64
-29.71
-15.79
-0.27
14.36
25.99
33.31
35.86
34.04
28.77
21.25
12.62
3.89
-4.07
-10.47
-14.59
-15.86
-14
-9.18
-2.08
6.1
13.82
19.41
21.4
18.93
11.95
1.27
-11.58
-24.76
-36.42
-44.96
-49.24
-48.7
-43.5
-34.63
-23.76
-12.9
-3.91
2.06
4.73
4.66
2.82
0.14
-2.68
-5.26
-7.43
-9
-9.8
-9.61
-8.36
-6.14
-3.29
-0.2
2.77
5.47
8
10.59
13.45
16.62
19.86
22.74
24.84
25.85
25.72
24.58
22.68
20.31
17.76
15.3
13.16
11.51
10.46
9.96
9.88
10.13
10.67
11.56
12.83
14.5
16.55
18.9
21.41
23.9
26.11
27.74
28.51
28.21
26.84
24.56
21.7
18.58
15.51
12.59
9.82
7.09
4.29
1.43
-1.36
-3.76
-5.4
-5.94
-5.27
-3.58
-1.24
1.32
3.74
5.84
7.66
9.29
10.84
12.36
13.85
15.22
16.35
17.1
17.42
17.31
16.9
16.39
15.83
15.13
14.02
12.22
9.63
6.47
3.22
0.57
-0.84
-0.53
1.72
5.9
11.73
18.77
26.37
33.85
40.53
45.9
49.71
51.97
52.83
52.47
50.94
48.04
43.46
37
28.9
19.91
11.21
3.98
-1.16
-4.38
-6.59
-8.91
-12.09
-16.27
-20.97
-25.49
-29.28
-32.13
-34.14
-35.41
-35.85
-35.1
-32.77
-28.64
-22.83
-15.92
-8.85
-2.68
1.67
3.65
3.26
0.95
-2.48
-6.21
-9.59
-12.34
-14.39
-15.89
-17.1
-18.43
-20.45
-23.89
-29.33
-36.97
-46.34
-56.41
-65.9
-73.7
-79.21
-82.3
-83.15
-81.97
-78.87
-74
-67.68
-60.54
-53.44
-47.07
-41.81
-37.57
-33.9
-30.28
-26.27
-21.61
-16.27
-10.33
-3.98
2.48
8.7
14.39
19.33
23.49
26.93
29.66
31.68
32.87
33.16
32.62
31.54
30.37
29.53
29.22
29.31
29.36
28.84
27.35
24.86
21.71
18.5
15.74
13.74
12.44
11.46
10.36
8.75
6.51
3.81
1.07
-1.22
-2.63
-2.94
-2.22
-0.77
0.96
2.55
3.72
4.38
4.66
4.77
4.94
5.36
6.15
7.34
8.9
10.76
12.83
15.05
17.39
19.84
22.39
25.06
27.78
30.52
33.23
35.95
38.69
41.51
44.46
47.53
50.64
53.73
56.76
59.77
62.79
65.85
68.82
71.65
74.34
77.04
79.94
83.02
85.93
87.94
88.26
86.37
82.44
77.26
71.96
67.55
64.63
63.41
63.9
66.22
70.62
77.32
86.29
97.06
108.85
120.73
131.95
141.92
150.12
155.71
157.5
154.07
144.18
127.4
104.31
76.48
45.95
14.74
-15.65
-44.1
-69.58
-90.79
-106.16
-114.33
-114.84
-108.68
-98.3
-86.91
-77.63
-72.47
-71.99
-75.35
-80.89
-86.79
-91.66
-94.82
-96.3
-96.61
-96.48
-96.59
-97.26
-98.48
-99.88
-100.92
-101.12
-100.25
-98.48
-96.28
-94.32
-93.2
-93.27
-94.54
-96.63
-99
-101.08
-102.44
-102.88
-102.5
-101.7
-101.37
-102.77
-107.36
-116.38
-130.43
-149.07
-170.73
-193.12
-213.65
-230.03
-240.57
-244.25
-240.77
-230.37
-213.89
-192.68
-168.43
-142.85
-117.26
-92.34
-68
-43.81
-19.38
5.08
28.62
49.72
66.84
79.05
86.39
89.89
91.1
91.59
92.36
93.71
95.41
97.05
98.46
99.75
101.26
103.25
105.77
108.61
111.38
113.75
115.5
116.51
116.61
115.56
112.97
108.58
102.3
94.42
85.53
76.42
67.78
60.11
53.59
48.14
43.57
39.64
36.11
32.7
29.02
24.65
19.18
12.33
4.14
-5.13
-15.03
-25.11
-35.04
-44.76
-54.33
-63.75
-72.69
-80.39
-85.79
-87.87
-86.19
-81.1
-73.84
-66.07
-59.39
-54.97
-53.37
-54.64
-58.22
-62.81
-66.34
-66.28
-60.51
-48.29
-30.92
-11.35
7.01
21.81
32.69
41.02
48.76
57.05
65.44
72.18
75.33
73.89
68.39
60.69
53.08
47.54
44.99
45.17
46.7
47.51
45.36
38.44
25.93
8.25
-12.78
-34.5
-53.94
-68.51
-76.56
-77.54
-71.87
-60.58
-45.07
-26.82
-7.38
11.67
28.76
42.54
52.15
57.45
59.11
58.33
56.47
54.64
53.45
53.05
53.27
53.84
54.53
55.25
56.11
57.45
59.71
63.13
67.49
71.85
74.7
74.27
69.15
58.91
44.33
27.36
10.62
-3.37
-12.86
-17.35
-17.61
-15.27
-12.15
-9.6
-8.1
-7.46
-7.11
-6.77
-6.61
-7.3
-9.62
-14.08
-20.65
-28.64
-36.86
-43.91
-48.53
-49.88
-47.74
-42.55
-35.15
-26.61
-17.85
-9.54
-2.07
4.31
9.31
12.56
13.62
12.25
8.5
2.88
-3.77
-10.54
-16.73
-22.07
-26.66
-30.74
-34.33
-36.98
-37.88
-36.23
-31.57
-24.02
-14.15
-2.74
9.41
21.51
32.65
41.69
47.36
48.65
45.24
37.84
28.1
18.18
10.2
5.8
5.88
10.62
19.55
31.5
44.63
56.68
65.24
68.42
65.35
56.57
43.83
29.68
16.78
7.28
2.55
3.06
8.49
17.94
30.01
42.99
54.86
63.36
66.36
62.22
50.48
32.29
10.52
-10.96
-28.37
-39.18
-42.89
-40.96
-35.88
-30.14
-25.18
-21.13
-17.14
-11.94
-4.55
5.44
17.56
30.61
42.77
52.02
56.6
55.41
48.44
36.77
22.45
8.05
-3.83
-11.08
-12.49
-8.01
1.24
13.21
25.31
34.94
39.89
38.75
30.98
17.01
-1.78
-23.13
-44.22
-62.19
-74.69
-80.3
-78.7
-70.43
-56.68
-39.19
-20.16
-2.41
11.02
17.47
15.56
5.82
-9.36
-26.47
-41.99
-53.43
-59.8
-61.49
-59.65
-55.7
-50.85
-45.99
-41.63
-37.92
-34.79
-32.02
-29.46
-27.2
-25.48
-24.72
-25.23
-27.14
-30.32
-34.41
-38.81
-42.73
-45.27
-45.61
-43.28
-38.35
-31.46
-23.57
-15.58
-7.99
-0.82
6.26
13.55
21.09
28.52
35.29
40.89
45.12
48.11
50.24
51.93
53.53
55.25
57.17
59.23
61.09
62.07
61.15
57.29
49.84
39.02
26.06
12.86
1.45
-6.71
-11.02
-11.77
-9.75
-6.04
-1.7
2.19
4.66
4.9
2.44
-2.59
-9.51
-17.18
-24.32
-29.83
-33.07
-33.92
-32.72
-30.05
-26.4
-22.08
-17.04
-11.02
-3.81
4.47
13.32
21.9
29.25
34.53
37.06
36.38
32.29
24.95
15.1
4.09
-6.13
-13.54
-16.53
-14.53
-8.08
1.32
11.81
21.79
30.35
37.17
42.14
44.91
44.66
40.41
31.55
18.45
2.58
-13.9
-28.81
-40.62
-48.68
-53.05
-53.97
-51.61
-46.08
-37.82
-27.86
-17.78
-9.23
-3.26
0.04
1.5
2.37
3.75
6.26
9.97
14.64
19.94
25.59
31.28
36.54
40.63
42.58
41.46
36.68
28.33
17.3
5.15
-6.37
-15.86
-22.65
-26.77
-28.69
-28.82
-27.23
-23.8
-18.42
-11.46
-3.8
3.18
7.91
8.97
5.43
-2.87
-15.11
-29.64
-44.23
-56.7
-65.41
-69.61
-69.45
-65.67
-59.26
-51.21
-42.42
-33.69
-25.6
-18.46
-12.23
-6.7
-1.65
2.89
6.69
9.44
11.02
11.69
12.03
12.74
14.29
16.83
20.02
23.26
25.79
26.82
25.76
22.27
16.65
9.78
3.16
-1.52
-2.95
-0.56
5.11
12.8
20.92
28.2
33.97
38.18
41.11
43.08
44.29
44.8
44.77
44.42
44.15
44.29
44.91
45.79
46.41
46.24
44.95
42.6
39.63
36.65
34.25
32.61
31.4
29.7
26.28
20.07
10.63
-1.63
-15.55
-29.74
-43.06
-54.95
-65.24
-73.87
-80.5
-84.53
-85.4
-82.96
-77.73
-70.66
-62.59
-53.9
-44.43
-33.82
-22.02
-9.68
1.96
11.44
17.5
19.53
17.61
12.39
4.89
-3.71
-12.19
-19.44
-24.48
-26.66
-25.7
-21.78
-15.38
-7.22
1.93
11.35
20.42
28.61
35.59
41.2
45.42
48.35
50.09
50.61
49.75
47.27
42.91
36.65
28.82
20.16
11.84
5.21
1.49
1.44
5.27
12.52
22.37
33.78
45.78
57.51
68.26
77.54
85.08
90.9
95.02
97.24
96.84
92.64
83.48
68.82
49.36
27.07
4.68
-15.24
-30.99
-42.11
-49.15
-53.06
-54.76
-54.94
-54.28
-53.56
-53.77
-55.79
-60.04
-66.29
-73.66
-80.96
-87.05
-91.04
-92.45
-91.15
-87.37
-81.71
-75.12
-68.73
-63.55
-60.15
-58.44
-57.65
-56.62
-54.1
-49.14
-41.34
-30.85
-18.43
-5.22
7.45
18.4
26.81
32.31
35.01
35.27
33.6
30.53
26.59
22.28
18.03
14.12
10.58
7.2
3.59
-0.6
-5.51
-10.92
-16.2
-20.41
-22.46
-21.38
-16.65
-8.45
2.34
14.27
25.73
35.3
42.07
45.56
45.73
42.71
36.81
28.61
18.95
9.03
0.3
-5.82
-8.18
-6.17
0.11
9.84
21.63
33.81
44.84
53.58
59.51
62.58
63.11
61.56
58.48
54.39
49.74
44.79
39.49
33.45
26.09
16.94
5.87
-6.85
-20.61
-34.79
-48.83
-62.34
-74.88
-85.81
-94.36
-99.7
-101.25
-98.9
-93.18
-85.16
-76.17
-67.44
-59.75
-53.26
-47.6
-42.18
-36.56
-30.65
-24.76
-19.33
-14.61
-10.44
-6.28
-1.48
4.41
11.36
18.89
26.2
32.49
37.26
40.38
42.08
42.68
42.4
41.22
38.95
35.38
30.59
24.95
19.19
14.1
10.33
8.2
7.66
8.51
10.49
13.41
17.01
20.86
24.4
26.94
27.91
27.03
24.35
20.07
14.37
7.23
-1.61
-12.37
-25.05
-39.17
-53.73
-67.16
-77.65
-83.44
-83.25
-76.66
-64.24
-47.45
-28.28
-8.76
9.29
24.52
36
43.23
46.18
45.34
41.7
36.55
31.14
26.19
21.76
17.28
12.02
5.55
-1.81
-9.05
-14.86
-18.07
-18.22
-15.68
-11.47
-6.76
-2.37
1.55
5.45
9.96
15.45
21.75
28.16
33.7
37.58
39.4
39.29
37.75
35.49
33.22
31.64
31.35
32.84
36.37
41.95
49.27
57.85
67.13
76.61
85.9
94.67
102.76
110.11
116.82
123.11
129.22
135.32
141.42
147.32
152.61
156.67
158.48
156.58
149.15
134.47
111.54
80.69
43.92
4.49
-33.91
-68.16
-96.46
-118.38
-134.43
-145.39
-151.93
-154.59
-154.13
-151.89
-149.69
-149.44
-152.46
-159.08
-168.57
-179.59
-190.74
-200.87
-209.12
-214.64
-216.4
-213.12
-203.7
-187.65
-165.44
-138.63
-109.4
-79.98
-52.05
-26.5
-3.46
17.29
35.81
51.81
64.62
73.57
78.37
79.3
77.1
72.85
67.67
62.57
58.28
55.05
52.36
48.89
42.88
32.78
18.15
0.02
-19.22
-36.71
-50.04
-58
-60.44
-57.93
-51.12
-40.53
-26.78
-10.99
5.11
19.47
30.29
36.7
38.93
38.16
35.96
33.63
31.92
30.9
30.26
29.56
28.51
27.09
25.45
23.88
22.63
21.9
21.81
22.48
23.92
26
28.33
30.23
30.85
29.39
25.41
18.96
10.69
1.68
-6.79
-13.45
-17.23
-17.4
-13.64
-6.07
4.55
16.87
29.03
38.9
44.55
44.72
39.17
28.87
15.8
2.42
-9
-16.96
-21.02
-21.63
-19.79
-16.55
-12.73
-8.8
-5.05
-1.74
0.7
1.6
0.26
-3.98
-11.47
-22.06
-35.13
-49.59
-64.04
-77.09
-87.51
-94.36
-97.15
-95.75
-90.37
-81.54
-69.95
-56.39
-41.67
-26.62
-11.98
1.58
13.56
23.76
32.27
39.38
45.48
50.89
55.72
59.87
63.06
65.04
65.72
65.29
64.14
62.8
61.76
61.29
61.46
62.12
63.02
63.77
63.95
63.03
60.54
56.18
49.85
41.74
32.07
20.95
8.31
-5.91
-21.62
-38.26
-54.84
-70.16
-83.1
-92.84
-98.91
-101.19
-99.81
-95.3
-88.55
-80.8
-73.29
-66.88
-61.81
-57.67
-53.76
-49.33
-43.92
-37.34
-29.53
-20.48
-10.23
1
12.7
24.09
34.34
42.76
49.09
53.38
55.97
57.2
57.35
56.55
54.93
52.65
49.96
47.21
44.68
42.53
40.64
38.67
36.16
32.79
28.51
23.68
18.92
14.92
12.16
10.72
10.28
10.26
10.1
9.38
7.99
6.08
3.99
2.17
1.2
1.51
3.26
6.12
9.25
11.55
12.02
10.18
6.27
1.13
-4.13
-8.56
-11.56
-12.92
-12.62
-10.71
-7.16
-1.92
5.09
13.79
23.95
35.09
46.44
57.01
65.71
71.44
73.3
70.63
63.18
51.24
35.75
18.29
0.97
-14.1
-25.35
-32.22
-35.28
-35.7
-34.61
-32.51
-29.23
-24.33
-17.99
-11.59
-7.57
-8.61
-16.5
-31.19
-50.63
-71.48
-90.2
-104.08
-111.78
-113.18
-108.92
-99.86
-86.81
-70.54
-51.89
-31.97
-12.01
6.77
23.44
37.46
48.72
57.37
63.66
67.87
70.21
70.9
70.2
68.38
65.58
61.7
56.3
48.77
38.61
25.89
11.46
-2.98
-15.35
-23.77
-27.12
-25.32
-19.29
-10.51
-0.59
9.14
17.78
24.88
30.27
33.96
35.93
35.89
33.21
27.12
17.08
3.23
-13.33
-30.62
-46.18
-57.61
-63.19
-62.08
-54.43
-41.26
-24.27
-5.58
12.54
28.03
39.43
45.98
47.68
45.06
38.96
30.33
20.1
9.08
-2.15
-13.27
-24.06
-34.25
-43.33
-50.49
-54.79
-55.41
-52.08
-45.27
-36.04
-25.82
-15.98
-7.55
-1.12
3.06
5.02
4.94
3.21
0.36
-2.96
-6.04
-8.2
-9.02
-8.28
-6.1
-2.78
1.18
5.27
9.07
12.28
14.81
16.66
17.9
18.47
18.23
16.89
14.26
10.32
5.4
0.15
-4.65
-8.32
-10.6
-11.75
-12.46
-13.55
-15.6
-18.66
-22.15
-25.15
-26.69
-26.16
-23.42
-18.79
-12.83
-6.15
0.81
7.73
14.36
20.47
25.78
30.05
33.1
34.86
35.34
34.55
32.48
29.11
24.55
19.09
13.27
7.74
3.11
-0.18
-1.89
-1.95
-0.39
2.72
7.19
12.67
18.55
24.12
28.7
31.87
33.52
33.82
33.14
31.91
30.53
29.29
28.35
27.74
27.34
26.96
26.41
25.6
24.52
23.31
22.1
21.04
20.13
19.27
18.25
16.81
14.68
11.68
7.84
3.39
-1.29
-5.86
-10.08
-13.94
-17.58
-21.19
-24.94
-28.78
-32.49
-35.69
-37.93
-38.81
-38.07
-35.66
-31.77
-26.81
-21.31
-15.85
-10.8
-6.36
-2.44
1.15
4.62
8.08
11.46
14.55
17.05
18.78
19.66
19.81
19.44
18.76
17.96
17.16
16.45
15.88
15.48
15.15
14.74
14
12.71
10.75
8.18
5.15
1.83
-1.7
-5.51
-9.73
-14.46
-19.63
-25.01
-30.3
-35.17
-39.35
-42.55
-44.35
-44.22
-41.72
-36.71
-29.55
-21.13
-12.62
-5.11
0.72
4.8
7.51
9.48
11.22
13
14.76
16.24
17.15
17.37
16.97
16.28
15.69
15.55
15.95
16.73
17.6
18.23
18.43
18.19
17.61
16.79
15.84
14.76
13.6
12.5
11.63
11.03
10.37
8.93
5.77
0.17
-7.99
-17.93
-28.08
-36.57
-41.81
-42.97
-40.06
-33.76
-25.1
-15.13
-4.81
5.04
13.73
20.75
25.77
28.81
30.15
30.18
29.32
27.81
25.75
23.13
20.03
16.66
13.44
10.87
9.38
9.16
10.1
11.73
13.36
14.27
13.86
11.97
8.86
5.21
1.82
-0.65
-1.9
-1.98
-1.13
0.45
2.73
5.8
9.74
14.37
19.3
23.98
27.9
30.66
31.99
31.75
29.86
26.37
21.57
16.02
10.41
5.4
1.32
-1.97
-5.04
-8.74
-13.88
-20.98
-30.03
-40.41
-50.87
-59.7
-64.99
-65.05
-58.84
-46.36
-28.68
-7.85
13.61
33.17
48.82
59.3
64.24
64.04
59.72
52.65
44.46
36.91
31.76
30.49
33.96
42.16
54.08
68.02
82.06
94.7
105.21
113.72
120.87
127.36
133.65
139.89
146.05
152.09
157.77
162.4
164.53
162.08
153.02
136.32
112.7
84.61
55.54
28.72
6.08
-12.12
-26.66
-38.34
-47.11
-52.11
-52.33
-47.7
-39.6
-30.66
-23.77
-20.96
-22.78
-28.37
-36.12
-44.47
-52.56
-60.28
-67.96
-76.02
-84.61
-93.61
-102.81
-112.1
-121.61
-131.59
-142.2
-153.27
-164.23
-174.22
-182.46
-188.54
-192.74
-195.86
-198.94
-202.79
-207.64
-213.06
-218.09
-221.54
-222.28
-219.42
-212.24
-200.25
-183.12
-160.92
-134.32
-104.69
-74
-44.4
-17.77
4.64
22.21
34.71
42.08
44.37
41.88
35.43
26.4
16.46
7.12
-0.75
-7.01
-11.91
-15.51
-17.29
-16.12
-10.71
-0.34
14.68
32.88
51.87
68.97
81.66
88.09
87.27
79.35
65.63
48.36
30.42
14.64
3.24
-2.63
-2.89
1.64
9.59
19.34
29.28
37.97
44.29
47.55
47.47
44.12
37.81
28.98
18.22
6.33
-5.72
-16.9
-26.39
-33.84
-39.49
-43.97
-47.91
-51.61
-54.7
-56.3
-55.41
-51.27
-43.88
-33.98
-22.78
-11.56
-1.2
7.9
15.88
23.1
29.92
36.47
42.6
47.94
52.06
54.69
55.83
55.72
54.76
53.31
51.63
50.09
49.18
49.61
52.12
57.15
64.55
73.54
82.89
91.39
98.36
103.76
108.13
112.29
116.99
122.64
129.2
136.17
142.58
147.21
148.91
146.91
141.14
132.13
120.78
108
94.37
80.09
65.02
48.82
31.1
11.47
-10.2
-33.54
-57.43
-80.13
-99.72
-114.88
-125.4
-132.27
-137.12
-141.37
-145.44
-148.67
-149.75
-147.43
-141.15
-131.31
-118.96
-105.35
-91.56
-78.31
-65.97
-54.74
-44.67
-35.83
-28.3
-22.27
-18.01
-15.96
-16.62
-20.31
-26.97
-35.89
-45.76
-54.85
-61.41
-64.13
-62.46
-56.77
-48.26
-38.61
-29.55
-22.4
-17.76
-15.58
-15.36
-16.6
-19.05
-22.7
-27.61
-33.53
-39.88
-45.86
-50.8
-54.4
-56.71
-57.88
-57.83
-56.1
-51.99
-44.88
-34.58
-21.35
-5.84
11.07
28.32
44.78
59.25
70.61
78.1
81.5
81.18
77.85
72.17
64.35
54.17
41.07
24.62
4.94
-16.93
-38.98
-58.5
-72.58
-78.92
-76.42
-65.64
-48.55
-27.97
-6.78
12.77
29.28
42.15
51.23
56.54
58.15
56.32
51.52
44.45
35.97
26.91
18.03
9.97
3.23
-1.91
-5.44
-7.64
-8.95
-9.75
-10.25
-10.52
-10.54
-10.33
-9.9
-9.06
-7.2
-3.41
3.31
13.3
25.9
39.35
51.37
60.01
64.44
65.26
64.04
62.44
61.41
60.78
59.57
56.67
51.55
44.66
37.18
30.48
25.59
22.88
22.06
22.39
23.05
23.37
23.05
22.34
22.06
23.41
27.57
35.17
45.73
57.33
66.75
70.37
65.22
50.11
26.1
-3.67
-34.75
-62.45
-83.06
-94.51
-96.73
-91.41
-81.33
-69.5
-58.4
-49.36
-42.44
-36.72
-30.9
-23.86
-15.11
-4.8
6.48
17.96
28.85
38.38
45.71
49.92
50.11
45.58
36.31
23.07
7.29
-9.32
-25.3
-39.67
-51.79
-61
-66.26
-66.23
-59.75
-46.62
-28.07
-6.93
13.04
28.11
35.66
34.8
26.52
13.1
-2.56
-17.8
-30.64
-39.9
-45
-45.78
-42.43
-35.59
-26.43
-16.47
-7.2
0.34
5.9
9.88
13.07
16.21
19.8
23.99
28.65
33.48
38.06
41.89
44.53
45.72
45.56
44.53
43.4
42.95
43.7
45.63
48.02
49.55
48.65
43.99
35.14
22.87
9.04
-3.86
-13.56
-18.67
-19.08
-15.88
-10.8
-5.63
-1.68
0.35
0.35
-1.45
-4.66
-8.8
-13.4
-17.86
-21.65
-24.33
-25.74
-26.08
-25.9
-25.85
-26.53
-28.18
-30.62
-33.3
-35.54
-36.65
-36.16
-33.81
-29.51
-23.41
-15.83
-7.34
1.35
9.47
16.47
22.14
26.67
30.53
34.19
37.9
41.58
44.88
47.28
48.35
47.9
46.05
43.21
39.92
36.65
33.58
30.54
27.04
22.44
16.24
8.29
-1.06
-10.99
-20.33
-27.79
-32.26
-32.97
-29.71
-22.79
-12.97
-1.31
10.92
22.46
32.13
39.05
42.75
43.29
41.17
37.15
32.02
26.38
20.65
15.03
9.62
4.34
-1.12
-7.27
-14.66
-23.49
-33.38
-43.31
-51.87
-57.79
-60.29
-59.36
-55.48
-49.26
-41.05
-30.83
-18.37
-3.69
12.66
29.49
45.09
57.66
65.67
68.21
65.19
57.35
46.05
33
19.98
8.53
-0.07
-4.96
-5.58
-1.88
5.78
16.53
29.05
41.78
53.23
62.27
68.28
71.15
71.1
68.49
63.47
55.9
45.37
31.46
14.12
-5.98
-27.23
-47.3
-63.73
-74.62
-79.2
-77.98
-72.41
-64.25
-55.02
-45.71
-36.73
-28.23
-20.32
-13.35
-8.04
-5.56
-7.17
-13.54
-24.13
-36.86
-48.49
-55.76
-56.64
-51.28
-41.87
-31.64
-23.28
-17.85
-14.57
-11.59
-7.18
-0.65
7.4
15.66
22.97
28.78
33.35
37.34
41.33
45.37
48.96
51.22
51.23
48.3
42.2
33.19
22.07
9.94
-2.11
-13.19
-22.79
-30.66
-36.62
-40.47
-41.97
-41.13
-38.42
-34.85
-31.82
-30.64
-32.05
-35.87
-41.08
-46.02
-48.88
-48.15
-42.93
-33.15
-19.61
-3.85
12.11
26.09
36.19
41.12
40.47
34.74
25.19
13.54
1.62
-8.95
-16.92
-21.57
-22.74
-20.78
-16.35
-10.17
-2.83
5.3
14.04
23.19
32.44
41.27
49.01
55
58.69
59.86
58.77
56.21
53.28
50.88
49.15
47.17
43.11
35.04
21.85
3.91
-17
-38.27
-57.32
-72.32
-82.34
-87.21
-87.27
-83.09
-75.56
-65.81
-55.19
-44.85
-35.46
-27.03
-19.01
-10.78
-2.04
6.98
15.65
23.27
29.46
34.28
38.08
41.31
44.19
46.74
48.93
50.79
52.5
54.22
55.98
57.55
58.53
58.45
57.03
54.06
49.39
42.86
34.28
23.66
11.14
-2.87
-17.92
-33.61
-49.6
-65.57
-80.95
-94.9
-106.35
-114.34
-118.15
-117.59
-112.84
-104.41
-93.01
-79.44
-64.69
-49.87
-36.09
-24.24
-14.85
-8.01
-3.33
-0.21
1.99
3.8
5.57
7.46
9.42
11.25
12.6
13.13
12.65
11.22
9.29
7.52
6.61
6.98
8.56
10.81
12.94
14.22
14.32
13.36
11.91
10.64
10.1
10.5
11.65
13.08
14.16
14.31
13.16
10.65
7.08
2.93
-1.22
-4.85
-7.64
-9.35
-9.81
-8.86
-6.33
-2.2
3.29
9.52
15.46
19.79
21.27
19.15
13.6
5.77
-2.59
-9.64
-14.05
-15.19
-12.91
-7.24
1.73
13.74
28.06
43.27
57.57
69.27
77.33
81.55
82.25
79.89
74.73
67.02
57.2
46.07
34.59
23.62
13.71
5.18
-1.64
-6.16
-7.63
-5.57
-0.21
7.21
14.66
19.96
21.51
18.8
12.51
4.08
-4.78
-12.57
-18.25
-21.15
-20.81
-16.95
-9.51
1.21
14.4
28.86
43.33
56.83
68.93
79.76
89.72
99.19
108.3
116.87
124.53
130.8
135.2
137.39
137.23
134.78
130.16
123.27
113.52
99.84
81
56.27
25.97
-8.4
-44.61
-80.48
-114.64
-146.55
-176
-202.35
-224.14
-239.48
-246.85
-245.95
-237.85
-224.5
-207.78
-188.84
-168.11
-145.88
-122.98
-100.95
-81.76
-66.89
-56.8
-50.65
-46.86
-43.7
-39.83
-34.55
-27.61
-18.99
-8.85
2.45
14.22
25.44
35.03
42.09
46.14
47.11
45.15
40.5
33.47
24.5
14.26
3.6
-6.64
-15.78
-23.35
-28.95
-32.1
-32.17
-28.62
-21.38
-11.2
0.36
11.27
19.64
24.35
25.27
23.21
19.51
15.59
12.6
11.13
11.18
12.37
14.11
15.87
17.36
18.51
19.4
20.09
20.61
20.92
21.05
21.13
21.38
21.96
22.88
23.96
24.93
25.54
25.73
25.59
25.37
25.34
25.81
27.1
29.52
33.3
38.42
44.47
50.61
55.73
58.76
59.12
56.87
52.75
47.83
43.19
39.53
37.05
35.52
34.41
33.13
31.12
27.95
23.46
17.81
11.56
5.51
0.54
-2.7
-3.97
-3.52
-1.9
0.12
1.71
1.92
-0.28
-5.79
-15.15
-28.22
-43.98
-60.77
-76.64
-89.87
-99.3
-104.4
-105.06
-101.34
-93.44
-81.7
-66.91
-50.37
-33.77
-18.77
-6.56
2.44
8.62
12.86
16.06
18.71
20.7
21.35
19.78
15.2
7.23
-3.96
-17.74
-33.08
-48.69
-63.18
-75.2
-83.57
-87.56
-86.96
-82.25
-74.37
-64.45
-53.53
-42.17
-30.55
-18.64
-6.6
5.08
15.53
23.67
28.54
29.42
25.92
18.06
6.33
-8.2
-23.86
-38.47
-49.86
-56.25
-56.86
-51.98
-42.82
-31.1
-18.59
-6.74
3.41
11.28
16.67
19.72
20.86
20.69
19.89
19.06
18.57
18.53
18.84
19.34
19.93
20.64
21.52
22.51
23.47
24.16
24.39
24.13
23.49
22.65
21.68
20.52
19.05
17.24
15.29
13.5
12.21
11.62
11.64
12.01
12.39
12.56
12.46
12.19
12.01
12.17
12.87
14.16
15.92
17.84
19.56
20.72
21.15
20.85
20.01
18.83
17.43
15.86
14.13
12.27
10.39
8.67
7.27
6.19
5.25
4.09
2.41
0.06
-2.92
-6.29
-9.8
-13.24
-16.43
-19.15
-21.05
-21.79
-21.17
-19.26
-16.43
-13.25
-10.2
-7.56
-5.35
-3.42
-1.6
0.22
2.12
4.18
6.5
9.16
12.12
15.19
18.04
20.34
21.82
22.41
22.32
21.97
21.93
22.72
24.6
27.37
30.44
32.98
34.22
33.7
31.45
27.89
23.68
19.52
16.02
13.62
12.57
12.84
14.11
15.84
17.35
18.1
17.84
16.64
14.77
12.55
10.18
7.73
5.22
2.69
0.3
-1.84
-3.65
-5.17
-6.49
-7.6
-8.41
-8.73
-8.45
-7.7
-6.83
-6.41
-6.93
-8.59
-11.2
-14.23
-17.02
-19.01
-19.91
-19.67
-18.52
-16.78
-14.78
-12.77
-10.86
-8.99
-6.96
-4.57
-1.63
1.84
5.6
9.29
12.49
14.86
16.28
16.79
16.65
16.2
15.71
15.33
15
14.52
13.65
12.25
10.32
8.05
5.69
3.45
1.42
-0.48
-2.34
-4.22
-6
-7.43
-8.24
-8.24
-7.47
-6.21
-4.87
-3.85
-3.39
-3.52
-4.11
-4.97
-5.93
-6.89
-7.69
-8.16
-8.1
-7.35
-5.87
-3.77
-1.31
1.26
3.74
6.04
8.12
9.95
11.5
12.7
13.56
14.11
14.5
14.88
15.35
15.94
16.57
17.12
17.49
17.59
17.37
16.76
15.72
14.23
12.36
10.29
8.27
6.53
5.2
4.26
3.55
2.95
2.51
2.45
3.05
4.4
6.28
8.11
9.15
8.82
6.93
3.71
-0.25
-4.32
-7.96
-10.78
-12.6
-13.34
-13.11
-12.19
-11.07
-10.28
-10.17
-10.81
-11.88
-12.93
-13.51
-13.45
-12.82
-11.9
-11.01
-10.37
-10.07
-10.09
-10.33
-10.58
-10.57
-10.01
-8.69
-6.57
-3.81
-0.75
2.26
4.99
7.37
9.5
11.48
13.34
14.93
16.02
16.42
16.14
15.37
14.45
13.67
13.14
12.85
12.67
12.46
12.12
11.62
10.86
9.8
8.45
6.98
5.74
5.12
5.33
6.28
7.56
8.67
9.2
8.95
7.94
6.34
4.36
2.25
0.31
-1.2
-2.06
-2.26
-2
-1.62
-1.42
-1.57
-2.09
-2.85
-3.81
-4.96
-6.27
-7.62
-8.85
-9.73
-10.18
-10.27
-10.18
-10.12
-10.11
-9.97
-9.39
-8.11
-6.03
-3.29
-0.19
2.92
5.79
8.24
10.24
11.73
12.67
12.99
12.65
11.68
10.21
8.44
6.63
5.06
3.94
3.41
3.49
4.05
4.86
5.73
6.48
7.04
7.46
7.78
8
8.06
7.87
7.34
6.47
5.29
3.9
2.48
1.19
0.27
-0.14
-0.06
0.27
0.43
-0.04
-1.37
-3.41
-5.66
-7.44
-8.23
-7.92
-6.88
-5.83
-5.53
-6.45
-8.63
-11.68
-14.9
-17.5
-18.8
-18.43
-16.5
-13.66
-11.04
-9.9
-11.26
-15.36
-21.45
-27.9
-32.68
-34.06
-31.19
-24.31
-14.62
-3.83
6.42
14.94
21.14
25.06
27.07
27.72
27.5
26.73
25.58
24.18
22.64
21.07
19.57
18.14
16.67
14.96
12.89
10.48
7.93
5.51
3.36
1.45
-0.46
-2.51
-4.62
-6.43
-7.53
-7.67
-6.99
-5.89
-4.83
-4.03
-3.4
-2.61
-1.4
0.23
2.09
3.93
5.64
7.41
9.48
12.02
14.88
17.64
19.77
20.93
21.05
20.32
19.09
17.54
15.81
13.93
11.96
9.94
7.7
4.68
-0.06
-7.52
-18.16
-31.55
-46.26
-60.42
-72.4
-81.32
-87.18
-90.26
-90.5
-87.16
-79.12
-65.66
-47.26
-25.84
-4.36
14.15
27.65
35.55
38.72
38.72
37.14
34.91
32.3
29.11
25.13
20.49
15.58
10.96
7.02
3.78
0.99
-1.73
-4.51
-7.15
-9.07
-9.71
-8.77
-6.52
-3.75
-1.47
-0.45
-0.88
-2.3
-3.86
-4.75
-4.61
-3.67
-2.6
-2.17
-2.91
-4.84
-7.55
-10.42
-12.85
-14.47
-15.14
-14.89
-13.77
-11.75
-8.79
-4.88
-0.27
4.58
9.01
12.42
14.43
15.01
14.41
13
11.15
9.12
7.01
4.88
2.78
0.79
-0.97
-2.39
-3.45
-4.16
-4.69
-5.19
-5.75
-6.33
-6.79
-6.93
-6.65
-6.01
-5.17
-4.28
-3.33
-2.13
-0.47
1.71
4.15
6.32
7.65
7.78
6.78
5.08
3.24
1.69
0.64
0.09
-0.1
-0.02
0.2
0.37
0.26
-0.4
-1.77
-3.75
-6.02
-8.08
-9.52
-10.07
-9.68
-8.53
-6.91
-5.1
-3.39
-2.04
-1.21
-1.05
-1.56
-2.56
-3.73
-4.65
-4.94
-4.35
-2.94
-0.96
1.22
3.21
4.75
5.73
6.2
6.36
6.43
6.71
7.4
8.59
10.18
11.94
13.48
14.5
14.76
14.18
12.88
11.1
9.21
7.6
6.62
6.35
6.73
7.45
8.16
8.59
8.6
8.21
7.53
6.65
5.59
4.29
2.69
0.7
-1.67
-4.4
-7.35
-10.33
-13.1
-15.47
-17.33
-18.71
-19.77
-20.67
-21.56
-22.4
-22.98
-23
-22.21
-20.51
-18.09
-15.36
-12.8
-10.82
-9.5
-8.6
-7.59
-5.97
-3.46
-0.15
3.54
7.05
9.83
11.45
11.65
10.34
7.66
4.1
0.46
-2.3
-3.44
-2.78
-0.78
1.66
3.63
4.63
4.68
4.08
3.09
1.69
-0.37
-3.23
-6.74
-10.35
-13.41
-15.42
-16.3
-16.37
-16.15
-16.11
-16.42
-17
-17.47
-17.39
-16.42
-14.53
-11.98
-9.28
-7.02
-5.6
-5.2
-5.68
-6.76
-8.16
-9.62
-11
-12.15
-12.91
-13.05
-12.38
-10.75
-8.2
-4.96
-1.43
1.97
4.89
7.22
9.1
10.81
12.65
14.74
16.95
18.96
20.44
21.17
21.2
20.75
20.18
19.74
19.59
19.7
19.91
20.04
19.99
19.74
19.43
19.18
19.09
19.09
19.04
18.73
18.07
17.09
15.97
14.97
14.17
13.49
12.67
11.47
9.84
7.99
6.32
5.14
4.52
4.18
3.68
2.69
1.23
-0.33
-1.49
-1.96
-1.84
-1.6
-1.77
-2.74
-4.6
-7.19
-10.28
-13.62
-16.88
-19.65
-21.38
-21.57
-19.97
-16.83
-12.89
-9.07
-6.12
-4.3
-3.33
-2.66
-1.78
-0.45
1.18
2.73
3.85
4.37
4.36
4.04
3.7
3.51
3.56
3.81
4.22
4.75
5.4
6.18
7.05
7.91
8.6
8.96
8.94
8.67
8.38
8.3
8.57
9.11
9.64
9.86
9.55
8.7
7.47
6.09
4.73
3.47
2.26
1.06
-0.14
-1.29
-2.34
-3.31
-4.27
-5.32
-6.54
-7.93
-9.36
-10.63
-11.45
-11.58
-10.87
-9.35
-7.26
-4.96
-2.86
-1.24
-0.13
0.65
1.41
2.4
3.76
5.43
7.17
8.66
9.53
9.52
8.48
6.59
4.25
2.05
0.53
-0.04
0.26
0.98
1.53
1.41
0.52
-0.84
-2.12
-2.75
-2.5
-1.58
-0.59
-0.15
-0.64
-1.97
-3.72
-5.35
-6.55
-7.23
-7.5
-7.41
-6.88
-5.78
-4.08
-2.05
-0.18
1.03
1.26
0.58
-0.65
-1.94
-2.98
-3.66
-4.06
-4.33
-4.53
-4.6
-4.38
-3.72
-2.61
-1.18
0.34
1.81
3.22
4.68
6.29
8
9.63
10.91
11.63
11.76
11.54
11.28
11.27
11.62
12.21
12.77
13.03
12.84
12.2
11.25
10.14
9
7.86
6.72
5.57
4.47
3.51
2.73
2.09
1.45
0.67
-0.34
-1.6
-3.03
-4.6
-6.3
-8.17
-10.24
-12.48
-14.73
-16.82
-18.6
-19.95
-20.87
-21.38
-21.45
-21.03
-20.07
-18.53
-16.49
-14.1
-11.6
-9.22
-7.17
-5.6
-4.53
-3.9
-3.56
-3.3
-2.85
-2.02
-0.69
1.06
2.99
4.81
6.21
7.07
7.42
7.44
7.3
7.11
6.92
6.7
6.47
6.2
5.95
5.73
5.54
5.4
5.24
5.03
4.71
4.28
3.7
2.99
2.08
0.92
-0.58
-2.45
-4.58
-6.7
-8.4
-9.35
-9.34
-8.45
-6.94
-5.16
-3.43
-1.93
-0.72
0.24
1
1.64
2.21
2.79
3.47
4.26
5.12
5.93
6.58
7
7.23
7.37
7.5
7.66
7.74
7.63
7.22
6.52
5.64
4.72
3.85
2.96
1.86
0.36
-1.56
-3.66
-5.42
-6.24
-5.67
-3.68
-0.72
2.4
4.81
5.89
5.37
3.42
0.44
-2.96
-6.11
-8.36
-9.15
-8.25
-5.76
-2.27
1.45
4.6
6.7
7.68
7.79
7.42
6.77
5.87
4.63
2.95
0.95
-1.14
-3.05
-4.59
-5.66
-6.24
-6.32
-5.84
-4.73
-2.99
-0.77
1.62
3.86
5.65
6.78
7.16
6.77
5.64
3.78
1.32
-1.61
-4.75
-7.8
-10.49
-12.62
-14.14
-15.06
-15.51
-15.63
-15.62
-15.68
-16.06
-16.97
-18.41
-20.2
-21.92
-23.06
-23.22
-22.26
-20.28
-17.51
-14.25
-10.72
-7.16
-3.82
-0.94
1.29
2.77
3.63
4.11
4.39
4.57
4.59
4.33
3.73
2.9
2.06
1.47
1.4
1.93
3.08
4.73
6.7
8.78
10.68
12.15
13.01
13.21
12.81
11.98
10.85
9.48
7.84
5.86
3.54
1
-1.57
-4.03
-6.33
-8.55
-10.88
-13.43
-16.08
-18.51
-20.25
-20.87
-20.2
-18.38
-15.81
-13.03
-10.46
-8.31
-6.57
-5.06
-3.66
-2.37
-1.28
-0.6
-0.48
-0.94
-1.93
-3.28
-4.77
-6.18
-7.25
-7.75
-7.54
-6.66
-5.3
-3.79
-2.5
-1.64
-1.27
-1.29
-1.55
-1.93
-2.38
-2.9
-3.5
-4.1
-4.58
-4.69
-4.14
-2.7
-0.3
2.92
6.55
10.09
13.1
15.3
16.66
17.26
17.28
16.86
16.11
15.23
14.47
14.11
14.36
15.2
16.39
17.59
18.48
18.87
18.78
18.33
17.67
17
16.45
16.13
16.08
16.3
16.68
17.07
17.36
17.57
17.82
18.25
18.88
19.56
19.97
19.86
19.16
18.15
17.3
17.13
17.92
19.59
21.8
24.06
25.97
27.21
27.63
27.11
25.65
23.47
21.2
19.84
20.49
23.98
30.43
39.08
48.56
57.36
64.43
69.51
73.18
76.42
79.99
83.86
87.05
87.93
84.93
77.15
64.62
48.1
28.58
6.94
-16.06
-39.54
-62.24
-82.57
-99.19
-111.55
-120.29
-127.04
-133.58
-141.09
-149.5
-157.43
-162.61
-162.57
-155.45
-140.61
-118.98
-92.91
-65.6
-40.23
-19.25
-3.94
5.45
9.38
8.7
4.55
-1.48
-7.41
-11.17
-11.25
-7.26
-0.2
7.9
14.78
18.72
19.09
16.41
11.93
7.05
2.84
-0.17
-1.97
-2.85
-3.16
-3.17
-2.98
-2.63
-2.16
-1.73
-1.49
-1.49
-1.64
-1.69
-1.45
-0.88
-0.16
0.39
0.53
0.18
-0.51
-1.28
-1.94
-2.4
-2.74
-3.11
-3.63
-4.27
-4.91
-5.28
-5.1
-4.18
-2.46
-0.04
2.76
5.56
7.95
9.61
10.44
10.48
9.98
9.2
8.41
7.83
7.6
7.73
8.13
8.63
9.01
9.05
8.57
7.53
6.12
4.68
3.62
3.33
3.94
5.29
6.96
8.39
8.98
8.32
6.16
2.5
-2.44
-8.12
-13.73
-18.17
-20.44
-19.94
-16.79
-11.79
-6.14
-0.94
3.18
6.17
8.38
10.25
12
13.67
15.12
16.35
17.42
18.53
19.75
21.06
22.24
23.08
23.43
23.32
23
22.9
23.48
25.03
27.52
30.51
33.3
35.23
35.81
35.05
33.29
31.13
29.14
27.71
27.07
27.3
28.43
30.45
33.27
36.7
40.5
44.5
48.67
53.17
58.12
63.48
68.91
73.8
77.61
80.25
82.22
84.55
88.29
93.99
101.3
108.97
115.27
118.53
117.7
112.47
103.28
91.02
76.81
61.9
47.54
34.88
24.74
17.41
12.52
9.16
6.22
2.64
-2.15
-8.25
-15.28
-22.62
-29.69
-36.15
-41.95
-47.31
-52.52
-57.68
-62.65
-67.08
-70.54
-72.83
-74.12
-74.92
-75.9
-77.58
-80.09
-83.16
-86.25
-88.7
-90.06
-90.07
-88.82
-86.61
-83.94
-81.29
-79.1
-77.58
-76.7
-76.24
-75.85
-75.26
-74.31
-73.07
-71.79
-70.78
-70.25
-70.23
-70.56
-71.01
-71.4
-71.74
-72.21
-73.05
-74.44
-76.31
-78.3
-79.77
-80
-78.26
-73.99
-66.94
-57.27
-45.56
-32.77
-20.08
-8.51
1.37
9.6
16.68
23.29
29.87
36.44
42.68
48.14
52.57
56.07
58.92
61.37
63.35
64.56
64.64
63.52
61.58
59.52
58.16
58.05
59.28
61.47
63.95
65.86
66.47
65.24
62.01
56.98
50.74
44.02
37.34
30.78
23.82
15.53
5.17
-7.39
-21.39
-35.31
-47.41
-56.33
-61.45
-62.9
-61.25
-57.14
-51.01
-43.21
-34.31
-25.38
-17.97
-13.69
-13.72
-18.29
-26.63
-37.32
-48.77
-59.66
-69.01
-76.1
-80.21
-80.7
-77.2
-69.91
-59.79
-48.34
-37.26
-27.88
-20.87
-16.22
-13.33
-11.33
-9.27
-6.35
-1.97
4.1
11.76
20.54
29.74
38.58
46.48
53.17
58.78
63.76
68.67
73.91
79.57
85.45
91.1
96.08
100.06
102.87
104.49
104.94
104.28
102.61
100.06
96.7
92.49
87.15
80.28
71.53
60.78
48.33
34.74
20.55
6.02
-8.9
-24.37
-40.22
-55.66
-69.17
-78.85
-82.95
-80.41
-71.17
-56.16
-37.08
-15.99
5.09
24.44
40.89
53.98
63.99
71.77
78.37
84.48
89.96
93.55
92.99
85.77
70.09
45.74
14.48
-20.19
-54
-83.04
-104.67
-117.95
-123.4
-122.52
-117.12
-108.98
-99.59
-90.17
-81.69
-74.87
-70.04
-67.07
-65.37
-64.02
-62.11
-59.04
-54.7
-49.5
-44.23
-39.83
-37.26
-37.46
-41.13
-48.38
-58.18
-68.1
-74.7
-74.56
-65.64
-48.34
-25.51
-1.44
19.73
35.29
44.41
47.65
46.02
40.39
31.44
20.12
8.03
-2.67
-9.93
-12.73
-11.54
-8.26
-5.35
-4.85
-7.6
-12.98
-19.4
-24.98
-28.29
-28.77
-26.72
-22.96
-18.46
-13.99
-10.01
-6.7
-4.1
-2.23
-1.19
-1.06
-1.79
-3.07
-4.22
-4.43
-3.06
0.06
4.46
9.2
13.29
16.05
17.46
18.02
18.54
19.58
21.26
23.15
24.46
24.41
22.6
19.13
14.55
9.7
5.28
1.75
-0.76
-2.33
-3.08
-3.06
-2.32
-0.97
0.73
2.39
3.7
4.55
5.06
5.5
6.12
7.08
8.51
10.65
13.92
18.81
25.66
34.3
43.94
53.3
60.97
65.82
67.25
65.27
60.24
52.77
43.47
33.06
22.42
12.57
4.56
-0.82
-3.42
-3.72
-2.76
-1.71
-1.34
-1.78
-2.57
-3
-2.63
-1.67
-0.97
-1.77
-5.11
-11.34
-19.88
-29.38
-38.17
-44.83
-48.57
-49.24
-47.21
-43.05
-37.37
-30.76
-23.81
-17.15
-11.34
-6.79
-3.72
-2.1
-1.71
-2.13
-2.75
-2.86
-1.79
0.77
4.48
8.37
11.14
11.75
9.9
6.21
1.96
-1.49
-3.23
-3.14
-1.61
0.76
3.58
6.93
11.11
16.4
22.7
29.51
35.91
40.85
43.27
42.27
37.33
28.55
16.88
4.12
-7.36
-15.28
-18.12
-15.58
-8.5
1.5
12.69
23.61
33.16
40.68
45.57
47.31
45.4
39.57
30.14
18.06
4.9
-7.63
-18.23
-26.49
-32.97
-38.73
-44.61
-50.56
-55.56
-58.02
-56.56
-50.62
-40.64
-27.92
-14.32
-1.94
7.08
11.03
9.1
1.7
-9.43
-21.59
-31.77
-37.31
-36.34
-28.06
-12.74
8.25
32.41
56.34
76.35
89.25
93.18
88.07
75.6
58.67
40.65
24.62
12.87
6.6
5.93
10.04
17.38
25.93
33.31
37.19
35.66
27.99
15.06
-0.63
-15.65
-26.97
-33.13
-34.86
-34.73
-35.87
-40.48
-48.75
-58.62
-66.61
-69
-63.16
-48.39
-26.19
0.15
26.34
48.23
62.82
69.06
67.97
62.26
55.59
51.44
52.2
58.46
68.99
81.32
92.72
101.26
106.27
107.96
106.57
101.61
91.84
76.27
55.39
31.89
9.97
-6.3
-15
-17.43
-17.61
-20.34
-28.9
-43.58
-61.72
-79.13
-92.01
-98.31
-98.11
-93.06
-85.61
-78.2
-72.77
-70.57
-72.01
-76.5
-82.47
-87.65
-89.6
-86.32
-76.77
-61.05
-40.29
-16.34
8.47
31.71
51.25
65.72
74.74
78.81
78.85
75.71
69.83
61.31
50.29
37.25
23.03
8.46
-6.01
-20.39
-34.75
-48.69
-61.03
-70
-73.94
-72.15
-65.33
-55.41
-44.74
-35.13
-27.24
-20.58
-14.02
-6.45
2.65
13.12
24.26
35.06
44.32
50.72
53.01
50.23
42.11
29.37
13.65
-2.79
-17.66
-29.2
-36.31
-38.61
-36.12
-29.12
-18.03
-3.46
13.51
31.27
47.67
60.49
67.87
68.83
63.51
53.29
40.52
28.11
19.05
15.85
20.05
31.7
48.96
68.23
84.83
94.28
93.68
82.71
63.62
40.51
17.91
-0.37
-11.88
-15.72
-12.41
-3.71
7.52
17.64
23.05
20.99
10.3
-8.41
-33.09
-60.89
-88.68
-113.48
-132.63
-144.22
-147.45
-143.05
-133.2
-120.76
-108.14
-96.19
-84.06
-69.76
-51.53
-29.03
-4
20.2
39.7
51.48
54.37
49.21
38.27
24.25
9.48
-4.43
-16.3
-25.1
-29.82
-29.68
-24.66
-15.82
-5.37
3.82
9.04
8.44
1.65
-10.26
-25.05
-39.97
-52.38
-60.33
-62.7
-59.18
-50.12
-36.41
-19.57
-1.71
14.61
26.91
33.37
33.37
27.51
17.32
4.82
-7.8
-18.42
-25.12
-26.48
-22.06
-12.82
-1.1
10.02
17.72
20.43
18.26
12.64
5.59
-1.09
-6.35
-9.86
-11.86
-12.85
-13.37
-13.84
-14.46
-15.19
-15.76
-15.78
-14.92
-13.08
-10.36
-7.04
-3.43
0.26
3.84
7.14
9.88
11.79
12.65
12.45
11.45
10.22
9.43
9.67
11.15
13.7
16.74
19.57
21.61
22.58
22.62
22.07
21.35
20.78
20.48
20.48
20.68
20.98
21.29
21.48
21.44
21.04
20.21
18.96
17.41
15.84
14.51
13.61
13.11
12.71
12.01
10.59
8.27
5.18
1.68
-1.75
-4.69
-6.87
-8.18
-8.66
-8.4
-7.5
-6.03
-4.02
-1.45
1.72
5.45
9.6
13.94
18.29
22.54
26.73
31.06
35.82
41.27
47.55
54.51
61.67
68.1
72.54
73.64
70.22
61.62
47.83
29.52
7.91
-15.45
-38.95
-61.12
-80.79
-97.22
-110
-118.94
-124
-125.16
-122.52
-116.29
-106.82
-94.57
-80.09
-63.99
-47.02
-30.16
-14.6
-1.58
7.88
13.33
14.99
13.76
10.94
7.86
5.56
4.72
5.67
8.53
13.26
19.64
27.05
34.33
39.85
41.92
39.26
31.42
18.96
3.31
-13.52
-29.25
-41.7
-49.11
-50.58
-46.22
-37.3
-25.86
-14.16
-4.07
3.31
7.68
9.3
8.66
6.42
3.27
-0.02
-2.74
-4.41
-4.96
-4.67
-3.95
-3.13
-2.3
-1.27
0.19
2.24
4.83
7.81
10.96
14.11
17.21
20.29
23.43
26.74
30.24
33.8
37.23
40.33
43
45.32
47.49
49.66
51.8
53.49
53.99
52.29
47.4
38.59
25.77
9.77
-7.51
-23.37
-34.9
-39.78
-37.05
-27.33
-12.69
4.17
20.68
34.97
46
53.3
56.66
55.99
51.23
42.59
30.63
16.3
0.91
-13.96
-26.74
-36.13
-41.46
-42.89
-41.36
-38.24
-34.87
-32.04
-29.76
-27.53
-24.65
-20.69
-15.62
-9.64
-2.82
5.01
14.25
25.18
37.51
50.26
61.92
70.98
76.59
78.94
79.25
79.29
80.83
84.87
91.35
98.99
105.63
108.69
105.72
95.09
76.39
50.72
20.39
-11.52
-42
-68.76
-90.62
-107.39
-119.55
-127.79
-132.58
-134.25
-132.98
-129.16
-123.46
-116.75
-109.76
-102.54
-94.26
-83.28
-67.94
-47.33
-22.13
5.31
31.7
53.91
70.17
80.5
86.43
90.12
93.32
96.66
99.51
100.3
97.15
88.74
74.77
56.2
34.98
13.37
-6.72
-24.05
-37.89
-47.63
-52.43
-51.29
-43.62
-29.85
-11.72
7.96
26.03
39.79
47.5
48.65
43.83
34.4
22.05
8.37
-5.64
-19.64
-33.72
-48.04
-62.36
-75.97
-87.9
-97.26
-103.47
-106.25
-105.43
-100.82
-92.28
-79.96
-64.59
-47.41
-29.98
-13.72
0.33
11.59
19.86
25.16
27.69
27.82
26.09
23.2
19.82
16.6
14.11
12.9
13.4
15.88
20.27
26.02
32.3
38.08
42.56
45.36
46.55
46.57
46.05
45.55
45.4
45.62
45.86
45.5
43.84
40.28
34.6
27.03
18.15
8.7
-0.6
-9.35
-17.39
-24.8
-31.72
-38.19
-44.07
-49.06
-52.84
-55.2
-56.19
-55.94
-54.64
-52.23
-48.43
-42.92
-35.69
-27.36
-19.21
-12.87
-9.71
-10.3
-14.2
-20.18
-26.62
-32.1
-35.61
-36.63
-34.93
-30.47
-23.41
-14.24
-3.83
6.71
16.31
24.36
30.92
36.56
42.03
47.67
53.1
57.26
58.81
56.73
50.75
41.48
30.2
18.47
7.73
-0.84
-6.43
-8.54
-7.04
-2.16
5.42
14.73
24.64
34.07
42.15
48.28
52.06
53.33
52.18
49
44.48
39.45
34.75
31.05
28.76
28.06
28.9
30.99
33.73
36.16
37.11
35.48
30.63
22.63
12.31
0.97
-10.01
-19.44
-26.46
-30.56
-31.36
-28.74
-22.89
-14.48
-4.63
5.27
13.84
20.06
23.21
22.82
18.46
9.89
-2.65
-18.04
-34.32
-49.1
-60.48
-67.99
-72.79
-77.13
-83.05
-91.08
-99.75
-106.2
-107.47
-101.94
-89.78
-72.63
-52.53
-31.07
-9.18
12.34
32.24
48.49
58.72
61.18
55.63
43.51
27.4
10.01
-6.63
-21.38
-33.76
-43.35
-49.49
-51.4
-48.69
-41.71
-31.72
-20.54
-9.93
-1.06
5.77
11.05
15.66
20.4
25.64
31.31
36.91
41.82
45.5
47.79
48.92
49.48
50.17
51.45
53.36
55.4
56.66
56.2
53.45
48.48
42.05
35.27
29.15
24.2
20.31
16.95
13.53
9.72
5.64
1.64
-1.81
-4.39
-5.84
-6.03
-4.75
-1.87
2.56
8.09
13.73
18.1
19.8
18.02
12.96
5.95
-0.85
-5.28
-5.97
-2.92
2.61
8.73
13.83
17.27
19.44
21.51
24.6
29.22
34.91
40.42
43.99
44
39.36
29.85
16.22
-0.09
-17.31
-33.9
-48.83
-61.73
-72.61
-81.58
-88.57
-93.18
-94.82
-92.91
-87.18
-77.77
-65.3
-50.82
-35.54
-20.7
-7.29
4.01
12.82
18.95
22.42
23.39
22.35
20.07
17.53
15.68
15.1
15.82
17.42
19.21
20.57
21.12
20.78
19.75
18.23
16.42
14.44
12.36
10.11
7.37
3.6
-1.83
-9.37
-18.99
-30.09
-41.68
-52.59
-61.72
-68.27
-71.64
-71.49
-67.79
-60.88
-51.49
-40.68
-29.56
-18.98
-9.4
-0.91
6.52
12.84
17.81
21.09
22.47
21.9
19.67
16.34
12.63
9.19
6.52
4.79
3.91
3.61
3.52
3.35
2.95
2.31
1.59
1.05
0.99
1.65
3.16
5.46
8.45
11.97
15.95
20.42
25.39
30.76
36.29
41.59
46.19
49.65
51.73
52.43
52.15
51.59
51.59
52.77
55.13
57.7
58.66
55.85
47.72
34.06
16.45
-2.11
-18.1
-28.6
-32.11
-28.86
-20.44
-9.19
2.5
12.53
19.27
21.58
18.92
11.5
0.41
-12.53
-25.16
-35.57
-42.51
-45.7
-45.55
-42.74
-37.72
-30.44
-20.59
-8.18
5.9
19.74
30.81
36.75
36.31
29.75
18.9
6.59
-4.13
-10.7
-11.48
-6.13
4.28
17.38
29.96
38.91
42.19
39.42
31.82
21.53
10.73
1.09
-6.18
-10.04
-9.53
-4.09
5.74
17.98
29.51
37.23
39.3
35.96
29.33
22.31
17.44
16.1
18.46
23.9
31.54
40.55
50.27
59.92
68.47
74.52
76.61
73.58
64.99
51.32
33.88
14.33
-5.84
-25.7
-44.94
-63.59
-81.67
-99.08
-115.49
-130.44
-143.43
-153.94
-161.46
-165.58
-166.25
-163.77
-158.63
-150.98
-140.33
-125.55
-105.48
-79.84
-50.07
-19.56
7.14
25.77
33.79
31.27
20.68
5.83
-9.41
-22.15
-30.65
-34
-31.61
-23.16
-8.99
9.26
28.49
44.85
54.92
57.02
51.88
42.32
32.1
24.8
22.74
26.66
35.87
48.57
62.51
75.29
84.87
89.81
89.67
84.98
77.16
67.99
59.14
51.73
46.08
41.63
37.02
30.49
20.45
6.13
-12.1
-32.79
-53.83
-73.2
