-8.3
2.02
11.69
19.03
23.24
24.61
24.23
23.41
23.08
23.37
23.65
22.99
20.68
16.53
10.82
3.77
-4.89
-15.99
-30.49
-48.72
-69.75
-91.24
-110.04
-122.93
-127.75
-124.06
-113.13
-97.62
-80.83
-65.87
-54.95
-48.74
-46.08
-44.21
-39.55
-28.98
-11.26
12.29
38.32
62.83
82.95
97.88
108.6
116.5
121.99
123.83
119.9
108.84
91.41
70.71
50.91
35.43
25.52
20.14
16.88
13.43
8.61
2.59
-3.73
-9.49
-14.52
-19.37
-25.07
-32.41
-41.46
-51.32
-60.41
-66.97
-69.59
-67.61
-61.04
-50.58
-37.22
-22.08
-6.13
9.92
25.79
41.64
57.73
74.17
90.36
104.96
116.12
122.1
121.95
115.85
105.13
91.61
77.04
62.75
49.6
38.17
28.83
21.9
17.42
15.03
13.98
13.26
12.1
10.22
7.98
6.08
5.34
6.25
8.92
13.23
19
26.15
34.49
43.63
52.78
60.98
67.2
70.76
71.5
69.76
66.22
61.52
56.15
50.33
44.17
37.75
31.14
24.53
18.06
11.87
6.1
0.83
-3.87
-7.97
-11.45
-14.33
-16.57
-18.15
-19.09
-19.44
-19.36
-19.04
-18.62
-18.22
-17.84
-17.46
-17.14
-16.96
-17.05
-17.52
-18.39
-19.61
-21.06
-22.62
-24.07
-25.27
-26.13
-26.68
-27.16
-27.89
-29.13
-30.96
-33.26
-35.78
-38.3
-40.63
-42.61
-43.98
-44.4
-43.55
-41.34
-38.03
-34.2
-30.52
-27.53
-25.46
-24.29
-23.93
-24.33
-25.51
-27.37
-29.61
-31.6
-32.6
-31.97
-29.5
-25.48
-20.51
-15.27
-10.32
-6.01
-2.65
-0.66
-0.64
-3.2
-8.58
-16.39
-25.53
-34.58
-42.4
-48.51
-53.3
-57.59
-61.98
-66.47
-70.5
-73.52
-75.66
-77.69
-80.46
-83.82
-86.15
-84.72
-77.01
-62.21
-41.82
-19.09
2.54
21.01
36.22
49.34
61.51
72.73
81.61
86.32
85.61
79.58
69.62
57.72
45.83
35.67
28.75
26.43
29.74
38.91
52.96
69.7
86.21
99.68
108.11
110.68
107.47
99.23
86.93
71.69
54.85
37.88
22.25
9.16
-0.83
-7.81
-12.38
-15.34
-17.39
-18.8
-19.55
-19.41
-18.22
-16.11
-13.6
-11.45
-10.34
-10.71
-12.53
-15.39
-18.67
-21.79
-24.38
-26.35
-27.81
-29.01
-30.17
-31.5
-33.25
-35.63
-38.78
-42.67
-47.1
-51.75
-56.39
-60.89
-65.25
-69.52
-73.66
-77.58
-81.09
-84.04
-86.4
-88.27
-89.87
-91.59
-94.04
-98.12
-104.79
-114.53
-126.62
-138.85
-147.63
-149.07
-140.29
-120.68
-92.15
-58.47
-23.82
8.74
37.81
63.4
86.11
106.47
124.9
142.06
158.97
176.55
194.66
211.41
223.43
227.15
220.67
205.03
184.09
162.96
145.9
134.74
128.7
125.34
121.89
116.44
108.2
97.22
83.97
69.07
53.43
38.16
24.72
14.49
8.35
6.4
7.76
10.96
14.36
16.77
17.68
17.39
16.75
16.74
18.11
21.05
25.08
29.23
32.22
32.82
30.28
24.51
16.18
6.48
-3.23
-11.8
-18.62
-23.73
-27.57
-30.79
-33.91
-37.22
-40.77
-44.43
-47.99
-51.29
-54.35
-57.34
-60.54
-64.18
-68.23
-72.37
-76
-78.46
-79.33
-78.66
-77.06
-75.5
-74.99
-76.26
-79.47
-84.31
-90.12
-96.33
-102.64
-109.29
-116.95
-126.45
-138.48
-153.09
-169.5
-186.04
-200.25
-209.28
-210.67
-202.95
-186.12
-161.69
-132.15
-100.21
-68.02
-36.84
-7.14
20.89
46.88
70.14
89.87
105.6
117.52
126.4
133.17
138.47
142.32
144.31
144
141.28
136.6
130.8
124.66
118.73
113.07
107.47
101.64
95.37
88.65
81.63
74.58
67.69
61.08
54.72
48.47
42.17
35.73
29.26
23.09
17.62
13.11
9.53
6.62
4.02
1.51
-1.01
-3.43
-5.66
-7.71
-9.67
-11.65
-13.66
-15.65
-17.51
-19.19
-20.69
-22.07
-23.32
-24.34
-24.97
-25.01
-24.38
-23.06
-21.19
-18.98
-16.69
-14.56
-12.77
-11.4
-10.41
-9.76
-9.31
-8.99
-8.72
-8.52
-8.37
-8.24
-8.05
-7.71
-7.2
-6.48
-5.66
-4.87
-4.31
-4.17
-4.54
-5.44
-6.81
-8.54
-10.5
-12.59
-14.73
-16.86
-18.89
-20.6
-21.69
-21.78
-20.53
-17.66
-13.02
-6.55
1.73
11.58
22.59
34.02
44.84
53.86
60.07
62.89
62.38
59.16
54.15
48.21
41.93
35.6
29.32
23.16
17.25
11.81
7.06
3.21
0.41
-1.11
-1.18
0.26
3.02
6.64
10.49
13.91
16.5
18.14
18.99
19.32
19.41
19.39
19.29
19.04
18.55
17.74
16.59
15.06
13.15
10.93
8.55
6.26
4.32
2.94
2.16
1.89
1.94
2.07
2.14
2.11
1.97
1.71
1.26
0.52
-0.64
-2.3
-4.47
-7.09
-10.06
-13.22
-16.4
-19.49
-22.38
-24.96
-27.09
-28.63
-29.45
-29.57
-29.08
-28.19
-27.15
-26.18
-25.41
-24.84
-24.38
-23.87
-23.17
-22.13
-20.68
-18.84
-16.64
-14.1
-11.25
-8.12
-4.83
-1.62
1.21
3.36
4.7
5.25
5.25
4.98
4.7
4.51
4.37
4.17
3.81
3.3
2.72
2.17
1.74
1.4
1.11
0.8
0.41
-0.07
-0.58
-1.02
-1.24
-1.08
-0.38
0.94
2.85
5.22
7.79
10.27
12.44
14.17
15.56
16.87
18.52
20.82
23.87
27.38
30.69
32.95
33.43
31.77
28.15
23.18
17.65
12.32
7.7
4.12
1.79
0.94
1.67
3.88
7.11
10.64
13.69
15.8
17.01
17.82
18.84
20.49
22.73
25.09
26.94
27.73
27.18
25.29
22.24
18.24
13.59
8.54
3.42
-1.43
-5.73
-9.33
-12.27
-14.7
-16.87
-18.96
-21.07
-23.23
-25.33
-27.26
-28.8
-29.8
-30.12
-29.73
-28.77
-27.57
-26.56
-26.16
-26.61
-27.91
-29.76
-31.72
-33.32
-34.23
-34.42
-34.13
-33.72
-33.53
-33.78
-34.5
-35.54
-36.7
-37.71
-38.37
-38.47
-37.87
-36.43
-34.08
-30.82
-26.78
-22.18
-17.37
-12.68
-8.39
-4.64
-1.49
1.12
3.22
4.77
5.59
5.39
3.89
0.96
-3.29
-8.67
-14.91
-21.92
-29.75
-38.59
-48.53
-59.45
-70.85
-81.96
-91.92
-99.98
-105.73
-109
-109.91
-108.66
-105.51
-100.74
-94.64
-87.55
-79.78
-71.62
-63.16
-54.3
-44.85
-34.69
-23.88
-12.6
-0.86
11.73
25.83
42.05
60.45
80.23
99.8
117.45
132.02
143.29
151.9
158.68
164
167.55
168.57
166.45
161.27
153.77
145.06
136.04
127.08
118.1
108.91
99.5
90.16
81.26
72.98
65.16
57.43
49.44
41.16
32.83
24.8
17.31
10.43
4.07
-1.91
-7.52
-12.7
-17.43
-21.68
-25.59
-29.21
-32.43
-35.01
-36.57
-36.82
-35.79
-33.81
-31.43
-29.24
-27.59
-26.49
-25.76
-25.17
-24.59
-24.07
-23.69
-23.49
-23.42
-23.29
-22.94
-22.34
-21.63
-21.05
-20.86
-21.21
-22.14
-23.58
-25.38
-27.33
-29.26
-30.96
-32.19
-32.72
-32.31
-30.87
-28.5
-25.48
-22.24
-19.26
-16.86
-15.14
-14.05
-13.44
-13.15
-13.11
-13.26
-13.56
-13.87
-14.01
-13.8
-13.19
-12.26
-11.2
-10.16
-9.24
-8.48
-7.9
-7.5
-7.31
-7.35
-7.59
-7.94
-8.28
-8.52
-8.66
-8.8
-9.04
-9.51
-10.26
-11.26
-12.44
-13.7
-14.94
-16.11
-17.23
-18.35
-19.5
-20.7
-21.96
-23.22
-24.5
-25.84
-27.28
-28.82
-30.38
-31.8
-32.83
-33.31
-33.12
-32.33
-31.05
-29.38
-27.44
-25.26
-22.9
-20.39
-17.86
-15.46
-13.35
-11.63
-10.29
-9.27
-8.38
-7.52
-6.55
-5.47
-4.26
-2.98
-1.64
-0.25
1.14
2.44
3.61
4.6
5.43
6.16
6.87
7.64
8.44
9.21
9.86
10.32
10.55
10.62
10.57
10.45
10.3
10.13
9.93
9.68
9.36
8.95
8.47
7.87
7.2
6.5
5.76
5
4.16
3.19
2.01
0.59
-1.06
-2.92
-4.89
-6.81
-8.44
-9.55
-9.96
-9.61
-8.56
-7
-5.14
-3.16
-1.23
0.65
2.5
4.37
6.23
8.06
9.72
11.1
12.14
12.83
13.33
13.79
14.32
14.96
15.67
16.36
16.97
17.51
18
18.47
18.85
19.07
18.98
18.56
17.85
16.99
16.15
15.4
14.75
14.11
13.41
12.61
11.75
10.9
10.04
9.1
7.91
6.39
4.49
2.37
0.3
-1.55
-3.09
-4.43
-5.79
-7.47
-9.63
-12.28
-15.31
-18.49
-21.65
-24.67
-27.5
-30.11
-32.52
-34.66
-36.41
-37.63
-38.11
-37.7
-36.41
-34.45
-32.23
-30.3
-29.06
-28.69
-28.98
-29.37
-29.19
-27.95
-25.51
-22.13
-18.33
-14.67
-11.66
-9.63
-8.69
-8.46
-7.83
-4.85
2.86
17.02
37.66
62.48
87.44
108.16
121.46
126.24
123.36
114.47
101.03
83.93
63.75
41.51
18.95
-1.79
-18.99
-32.05
-41.75
-49.71
-57.58
-66.64
-77.42
-89.77
-103
-116.06
-127.67
-136.48
-141.07
-140.15
-132.8
-118.89
-99.32
-76.01
-51.53
-28.36
-8.48
6.95
17.37
22.39
21.44
13.9
-0.18
-19.29
-40.16
-58.41
-69.88
-72.01
-64.6
-49.3
-28.73
-5.46
18.49
41.55
62.31
79.66
93.35
104.54
115.67
129.4
147.15
168.23
190.08
209.61
224.57
234.29
239.05
239.04
233.45
220.7
199.47
169.92
134.27
96.32
60.23
29.22
4.79
-13.31
-26.38
-35.96
-43.27
-48.95
-53.15
-55.85
-57.22
-57.83
-58.62
-60.6
-64.57
-70.68
-78.37
-86.31
-92.66
-95.42
-92.83
-83.99
-69.23
-50.3
-30.12
-12.05
0.89
6.76
5.09
-3.18
-16.03
-30.9
-45.16
-56.55
-63.46
-65.02
-61.17
-52.43
-39.61
-23.66
-5.67
13.14
31.45
48.11
62.3
73.83
82.86
89.68
94.31
96.38
95.29
90.62
82.55
71.96
60.2
48.6
38.06
28.84
20.87
13.99
8.18
3.62
0.51
-1.14
-1.57
-1.16
-0.38
0.39
0.89
0.91
0.26
-1.24
-3.72
-7.19
-11.46
-16.21
-21.07
-25.65
-29.56
-32.46
-34.1
-34.31
-33.06
-30.45
-26.79
-22.46
-17.96
-13.71
-10.02
-6.96
-4.45
-2.29
-0.32
1.44
2.85
3.66
3.63
2.68
0.97
-1.18
-3.32
-5.14
-6.49
-7.43
-8.13
-8.82
-9.53
-10.15
-10.48
-10.46
-10.26
-10.29
-11.03
-12.79
-15.56
-18.9
-22.23
-25.02
-27.11
-28.74
-30.48
-32.91
-36.34
-40.7
-45.49
-50.1
-53.92
-56.74
-58.81
-60.82
-63.6
-67.81
-73.6
-80.53
-87.83
-94.7
-100.67
-105.76
-110.49
-115.68
-122.26
-130.95
-141.85
-153.91
-164.7
-170.51
-167.43
-152.67
-125.77
-89.13
-47.26
-5.19
33.18
66.02
93.54
116.97
137.46
155.37
170.13
180.75
186.28
186.28
180.93
171.07
158.09
143.71
129.71
117.45
107.64
100.3
94.96
91.01
88
85.68
83.68
81.38
77.7
71.58
62.5
50.87
38.26
26.76
18.22
13.48
12.05
12.35
12.49
10.88
6.69
-0.09
-8.9
-18.77
-28.48
-36.57
-41.48
-41.77
-36.51
-25.68
-10.17
8.5
28.55
48.31
66.4
81.72
93.32
100.5
102.83
100.41
93.82
83.96
71.79
58.04
43.22
27.65
11.73
-3.95
-18.6
-31.57
-42.39
-50.92
-57.3
-61.85
-65.01
-67.16
-68.58
-69.42
-69.72
-69.48
-68.72
-67.6
-66.45
-65.67
-65.53
-66.04
-66.89
-67.57
-67.72
-67.24
-66.48
-66.12
-66.89
-69.29
-73.34
-78.52
-83.67
-87.16
-87.06
-81.58
-69.72
-51.78
-29.52
-5.67
16.84
35.78
50.21
60.47
67.84
73.89
79.83
86.11
92.32
97.36
99.94
99.06
94.6
87.48
79.39
72.11
66.84
63.81
62.43
61.64
60.34
57.55
52.5
44.68
34
20.88
6.18
-9.02
-23.84
-37.82
-50.84
-62.78
-73
-80.23
-82.73
-78.97
-68.25
-51.23
-29.93
-7.37
13.31
29.71
40.68
46.38
47.77
46.15
42.67
38.2
33.48
29.11
25.39
22.08
18.2
12.48
3.79
-8.2
-22.77
-38.29
-52.64
-63.62
-69.35
-68.46
-60.22
-44.95
-24.11
-0.13
24.06
45.85
63.5
76.33
84.51
88.57
88.97
85.93
79.59
70.14
58.11
44.3
29.71
15.37
2.12
-9.43
-18.93
-26.23
-31.42
-34.77
-36.7
-37.78
-38.57
-39.51
-40.69
-41.55
-40.66
-36.1
-26.07
-9.77
11.81
35.89
58.52
75.73
84.69
84.33
75.24
59.17
38.49
15.66
-6.81
-26.7
-42.3
-52.7
-58.08
-59.64
-59.08
-58
-57.45
-57.68
-58.2
-58.16
-56.7
-53.35
-48.28
-42.21
-36.17
-31.22
-27.95
-26.41
-26.13
-26.37
-26.43
-25.88
-24.68
-23.02
-21.21
-19.51
-18.03
-16.72
-15.39
-13.75
-11.59
-8.89
-5.94
-3.32
-1.76
-1.84
-3.73
-7.04
-10.87
-14.11
-15.83
-15.49
-13.14
-9.29
-4.78
-0.5
2.75
4.41
4.23
2.26
-1.12
-5.34
-9.73
-13.63
-16.48
-17.93
-17.83
-16.3
-13.67
-10.43
-7.21
-4.59
-2.91
-2.23
-2.35
-2.82
-3.18
-3.06
-2.22
-0.68
1.42
3.82
6.19
8.19
9.6
10.39
10.7
10.87
11.12
11.58
12.18
12.71
12.93
12.73
12.1
11.12
9.95
8.69
7.42
6.21
5.2
4.51
4.23
4.34
4.63
4.85
4.74
4.19
3.2
1.97
0.75
-0.28
-0.98
-1.47
-1.95
-2.75
-4.18
-6.45
-9.62
-13.48
-17.69
-21.81
-25.46
-28.3
-30.17
-30.94
-30.61
-29.24
-27
-24.17
-21.08
-18.16
-15.74
-14.04
-13.1
-12.81
-12.97
-13.34
-13.73
-13.96
-13.96
-13.76
-13.46
-13.25
-13.27
-13.61
-14.18
-14.91
-15.57
-16.03
-16.27
-16.38
-16.66
-17.49
-19.25
-22.16
-26.19
-30.97
-35.96
-40.7
-44.98
-49
-53.09
-57.36
-61.42
-64.36
-65.04
-62.62
-57.03
-49.16
-40.62
-33.18
-28.13
-25.79
-25.56
-26.22
-26.34
-24.79
-20.82
-14.21
-5.25
5.21
15.83
25.03
31.47
34.59
34.94
34.04
33.66
34.97
37.96
41.48
43.85
43.63
40.24
34.03
26.02
17.47
9.74
4.1
1.77
3.63
9.72
18.93
28.9
36.52
38.86
34.23
22.89
7.09
-9.72
-23.98
-33.09
-35.92
-32.69
-24.31
-11.88
3.79
22.21
43.03
65.89
90.26
115.28
139.56
161.15
177.7
187.04
187.91
180.5
166.56
148.69
129.4
110.4
92.52
76.13
61.65
49.66
40.6
34.36
30.15
26.65
22.7
17.84
12.43
7.35
3.46
1.21
0.66
1.73
4.41
9.01
15.98
25.79
38.56
53.84
70.62
87.13
101.29
110.91
114.39
111.09
101.62
87.56
70.95
53.62
36.8
21.01
6.41
-6.91
-18.81
-29.13
-37.8
-44.89
-50.64
-55.34
-59.15
-62.12
-64.22
-65.51
-66.16
-66.42
-66.49
-66.5
-66.44
-66.2
-65.69
-64.86
-63.71
-62.38
-61.06
-60.04
-59.62
-60.02
-61.24
-63.05
-64.95
-66.3
-66.53
-65.35
-62.81
-59.3
-55.36
-51.49
-47.99
-44.96
-42.36
-40.15
-38.42
-37.34
-37.1
-37.77
-39.22
-41.21
-43.42
-45.7
-48.1
-50.89
-54.46
-59.09
-64.76
-71.11
-77.6
-83.6
-88.74
-93.01
-96.77
-100.73
-105.85
-113.15
-123.5
-137.26
-153.8
-171.27
-186.76
-196.96
-199.07
-191.64
-174.87
-150.28
-120.07
-86.5
-51.6
-17.19
15.13
43.92
68.32
88.34
104.95
119.82
134.75
150.93
168.62
187.19
205.35
221.75
235.38
245.71
252.65
256.29
256.52
253.07
245.8
234.96
221.5
206.91
192.67
179.61
167.63
155.81
143.08
128.85
113.34
97.43
82.22
68.5
56.54
46.24
37.45
30.18
24.49
20.22
16.69
12.82
7.46
-0.12
-9.9
-21.02
-32.15
-41.88
-49.28
-54.12
-56.89
-58.62
-60.45
-63.31
-67.69
-73.53
-80.16
-86.58
-91.73
-94.88
-95.85
-95.09
-93.49
-92.08
-91.51
-91.71
-91.77
-90.16
-85.18
-75.49
-60.55
-40.86
-17.9
6.12
28.66
47.28
60.07
65.97
65.05
58.41
47.9
35.54
23.08
11.54
1.29
-7.74
-15.75
-22.88
-29.23
-34.93
-40.31
-45.7
-51.22
-56.52
-60.84
-63.15
-62.57
-58.58
-51.15
-40.85
-28.69
-16.11
-4.68
4.21
9.74
11.82
10.99
8.08
3.74
-1.81
-8.81
-17.63
-28.41
-40.8
-53.95
-66.59
-77.42
-85.33
-89.65
-90.24
-87.5
-82.2
-75.29
-67.76
-60.5
-54.23
-49.53
-46.81
-46.19
-47.47
-50.04
-52.95
-55.12
-55.5
-53.34
-48.39
-40.88
-31.43
-20.81
-9.67
1.53
12.54
23.25
33.45
42.8
50.88
57.3
61.93
65.02
67.2
69.28
72.06
75.94
80.85
86.4
92.12
97.79
103.54
109.7
116.55
124.16
132.33
140.63
148.52
155.23
159.81
161.16
158.2
150.28
137.43
120.48
100.89
80.45
60.85
43.39
28.78
17.18
8.24
1.34
-4.19
-8.86
-13
-16.84
-20.64
-24.8
-29.75
-35.7
-42.42
-49.25
-55.22
-59.45
-61.42
-61.18
-59.28
-56.49
-53.58
-51.13
-49.33
-48.15
-47.38
-46.75
-46.03
-45.15
-44.07
-42.81
-41.47
-40.1
-38.75
-37.37
-35.77
-33.68
-30.88
-27.35
-23.44
-19.75
-16.95
-15.54
-15.68
-17.1
-19.34
-21.86
-24.28
-26.45
-28.43
-30.4
-32.57
-35.12
-38
-41.13
-44.48
-48.21
-52.73
-58.42
-65.43
-73.49
-81.96
-90.03
-97.17
-103.27
-108.72
-114.38
-121.22
-130.23
-142.08
-156.81
-173.45
-189.78
-202.55
-208.16
-203.84
-188.66
-163.88
-132.63
-98.77
-65.57
-34.82
-6.62
19.95
45.79
71.01
94.65
115.01
130.61
140.92
146.76
149.89
152.23
154.93
158.06
160.75
161.88
160.78
157.5
152.71
147.11
141.11
134.66
127.45
119.37
110.7
102.11
94.44
88.17
83.38
79.65
76.36
72.96
69.18
64.98
60.42
55.38
49.41
42.03
32.87
22.1
10.47
-0.89
-10.78
-18.38
-23.33
-25.83
-26.35
-25.5
-23.95
-22.3
-21.1
-20.76
-21.47
-23.1
-25.25
-27.32
-28.65
-28.84
-27.75
-25.63
-22.94
-20.21
-17.84
-16.03
-14.73
-13.76
-12.95
-12.14
-11.28
-10.38
-9.49
-8.65
-7.94
-7.4
-7.09
-7.01
-7.11
-7.32
-7.62
-8.01
-8.56
-9.36
-10.45
-11.8
-13.32
-14.93
-16.56
-18.2
-19.73
-21.04
-21.85
-21.85
-20.84
-18.75
-15.68
-11.91
-7.77
-3.57
0.41
3.96
6.94
9.27
11
12.22
13.06
13.68
14.18
14.61
15.03
15.49
16.06
16.76
17.54
18.24
18.66
18.63
18.06
17.08
15.88
14.73
13.79
13.03
12.24
11.2
9.71
7.76
5.52
3.18
0.92
-1.17
-3.15
-5.17
-7.43
-10.16
-13.57
-17.73
-22.52
-27.62
-32.62
-37.16
-41.21
-45.12
-49.48
-54.75
-61.02
-67.86
-74.55
-80.44
-85.42
-90.08
-95.47
-102.66
-112.31
-124.44
-138.4
-152.85
-165.7
-174.28
-175.73
-167.8
-149.92
-123.8
-93.1
-62.29
-34.98
-12.48
6.22
23.65
42.42
63.95
88.1
113.61
138.83
162.22
182.5
198.59
209.64
215.23
215.6
211.78
205.33
197.84
190.41
183.34
176.15
167.96
157.88
145.38
130.54
114.1
97.28
81.4
67.43
55.62
45.46
35.94
25.99
15.03
3.13
-8.95
-20.17
-29.47
-36.09
-39.76
-40.67
-39.39
-36.65
-33.17
-29.46
-25.74
-22.1
-18.67
-15.86
-14.21
-14.21
-15.96
-19.02
-22.47
-25.26
-26.53
-25.88
-23.44
-19.71
-15.42
-11.36
-8.26
-6.67
-6.8
-8.48
-11.11
-13.98
-16.37
-17.87
-18.49
-18.49
-18.28
-18.16
-18.3
-18.65
-19.15
-19.73
-20.3
-20.8
-21.08
-21.02
-20.58
-19.84
-18.96
-18.15
-17.57
-17.31
-17.4
-17.87
-18.77
-20.16
-22
-24.15
-26.35
-28.32
-29.82
-30.66
-30.73
-29.96
-28.27
-25.62
-22.05
-17.76
-13.07
-8.33
-3.87
0.1
3.5
6.33
8.65
10.46
11.79
12.61
12.95
12.87
12.48
11.92
11.35
10.82
10.38
9.99
9.66
9.41
9.26
9.17
9.14
9.08
8.9
8.57
8.09
7.5
6.82
6.07
5.2
4.15
2.87
1.39
-0.21
-1.78
-3.22
-4.49
-5.6
-6.63
-7.64
-8.62
-9.57
-10.44
-11.21
-11.88
-12.57
-13.33
-14.24
-15.29
-16.46
-17.69
-18.89
-20.04
-21.06
-21.92
-22.5
-22.63
-22.17
-21.03
-19.2
-16.86
-14.3
-11.77
-9.49
-7.6
-6.09
-4.87
-3.77
-2.66
-1.38
0.01
1.43
2.69
3.62
4.08
4.14
4
3.97
4.4
5.5
7.27
9.4
11.34
12.47
12.3
10.69
7.92
4.7
1.85
0.14
-0.09
1.07
3.08
5.09
6.29
6.12
4.5
1.7
-1.75
-5.34
-8.64
-11.46
-13.71
-15.43
-16.69
-17.57
-18.21
-18.69
-19.06
-19.34
-19.5
-19.51
-19.39
-19.16
-18.83
-18.35
-17.58
-16.44
-14.94
-13.19
-11.34
-9.49
-7.6
-5.56
-3.17
-0.33
2.94
6.45
9.86
12.84
15.09
16.45
16.97
16.84
16.32
15.67
15.07
14.57
14.18
13.9
13.7
13.6
13.56
13.47
13.25
12.88
12.37
11.82
11.33
10.89
10.49
10.05
9.52
8.93
8.32
7.69
6.99
6.12
4.98
3.57
1.92
0.11
-1.79
-3.72
-5.62
-7.42
-9.13
-10.79
-12.47
-14.25
-16.17
-18.09
-19.82
-21.12
-21.81
-21.81
-21.18
-19.95
-18.18
-15.92
-13.23
-10.28
-7.32
-4.68
-2.64
-1.44
-1.17
-1.82
-3.34
-5.61
-8.43
-11.48
-14.25
-16.18
-16.68
-15.43
-12.43
-8.13
-3.33
1.04
4.13
5.42
4.77
2.45
-1
-4.89
-8.61
-11.71
-13.97
-15.29
-15.71
-15.28
-14.02
-11.96
-9.16
-5.77
-2
1.87
5.5
8.61
10.96
12.51
13.34
13.57
13.34
12.69
11.58
9.92
7.63
4.72
1.2
-2.98
-7.86
-13.25
-18.66
-23.12
-25.58
-25.28
-22.16
-16.99
-11.03
-5.45
-0.96
2.35
4.77
6.59
7.9
8.59
8.63
8.3
8.22
9.11
11.46
15.33
20.31
25.65
30.54
34.3
36.6
37.45
37.14
36.01
34.36
32.37
30.08
27.53
24.79
22.05
19.52
17.38
15.69
14.36
13.24
12.14
10.97
9.71
8.46
7.34
6.44
5.73
5.04
4.06
2.54
0.37
-2.36
-5.36
-8.32
-10.97
-13.13
-14.79
-16.01
-16.87
-17.37
-17.51
-17.24
-16.52
-15.42
-14
-12.42
-10.84
-9.43
-8.31
-7.6
-7.33
-7.46
-7.92
-8.5
-9
-9.16
-8.79
-7.87
-6.49
-4.9
-3.26
-1.71
-0.27
1.01
2.08
2.86
3.22
3.14
2.78
2.39
2.22
2.37
2.72
3.05
3.05
2.57
1.55
0.05
-1.8
-3.85
-5.94
-7.9
-9.62
-11.08
-12.36
-13.57
-14.78
-15.96
-16.94
-17.61
-17.95
-18.13
-18.46
-19.21
-20.55
-22.45
-24.66
-26.79
-28.35
-28.92
-28.23
-26.3
-23.36
-19.88
-16.3
-13.01
-10.2
-7.89
-6
-4.43
-3.09
-1.96
-1.12
-0.87
-1.57
-3.56
-6.83
-10.96
-15.16
-18.67
-21.1
-22.64
-24.01
-25.85
-28.25
-30.41
-30.8
-27.68
-19.68
-6.37
11.62
32.64
54.37
74.21
89.89
99.98
104.37
104.44
102.61
101.7
103.95
110.39
120.7
133.53
147.1
159.81
170.55
178.52
182.86
182.33
175.23
159.92
135.54
102.94
64.92
26.03
-8.62
-34.67
-49.75
-53.99
-49.63
-40.06
-28.7
-18.23
-10.31
-5.83
-5.2
-8.53
-15.72
-26.17
-38.62
-51.22
-62.02
-69.52
-73.23
-73.71
-72.34
-70.62
-69.53
-69.23
-69.15
-68.44
-66.57
-63.7
-60.55
-58.03
-56.75
-56.66
-57.05
-56.96
-55.67
-53.02
-49.55
-46.06
-43.25
-41.26
-39.69
-37.89
-35.48
-32.71
-30.38
-29.44
-30.42
-33.2
-36.89
-40.38
-42.8
-43.96
-44.26
-44.39
-45.05
-46.6
-49.13
-52.59
-56.83
-61.52
-65.74
-67.67
-64.84
-54.97
-37.07
-12.14
17.02
46.74
73.9
96.81
115.3
130.02
141.39
149.06
152.08
149.55
141.33
128.33
112.28
95.11
78.42
63.24
50.05
38.9
29.59
21.9
15.66
10.74
6.9
3.71
0.62
-2.9
-7.08
-11.78
-16.48
-20.53
-23.43
-25.11
-25.93
-26.49
-27.33
-28.73
-30.57
-32.41
-33.79
-34.43
-34.36
-33.93
-33.59
-33.74
-34.68
-36.45
-38.97
-42.02
-45.34
-48.62
-51.45
-53.33
-53.85
-52.79
-50.25
-46.7
-42.86
-39.52
-37.35
-36.62
-37.16
-38.33
-39.22
-38.97
-37.1
-33.65
-29.14
-24.31
-19.85
-16.19
-13.48
-11.76
-11.16
-12.03
-14.84
-20.18
-28.66
-40.89
-57.06
-76.31
-96.17
-112.65
-121.05
-117.5
-100.29
-70.55
-31.81
11.15
53.52
91.22
120.98
140.35
147.75
142.81
126.65
101.8
71.36
38.09
3.74
-30.78
-64.55
-95.92
-122.25
-140.7
-149.4
-148.45
-139.97
-127.12
-112.61
-97.6
-81.57
-63.17
-41.36
-16.16
11.43
39.92
67.94
94.27
117.65
136.58
149.54
155.57
154.87
148.91
139.92
130.09
120.77
112.26
104.07
95.48
86.02
75.82
65.53
56.01
48.06
42.09
38.09
35.69
34.4
33.74
33.29
32.67
31.41
29.12
25.53
20.7
15.02
9.09
3.47
-1.53
-5.93
-10.11
-14.53
-19.55
-25.3
-31.58
-37.98
-44.06
-49.49
-54.08
-57.8
-60.63
-62.49
-63.13
-62.23
-59.59
-55.32
-49.8
-43.65
-37.52
-31.86
-26.83
-22.38
-18.37
-14.74
-11.47
-8.46
-5.48
-2.22
1.51
5.66
9.88
13.75
17.06
20.05
23.28
27.42
32.86
39.52
46.9
54.26
60.98
66.7
71.39
75.35
79.03
82.74
86.42
89.3
90.17
87.76
81.41
71.46
59.32
47.09
36.78
29.53
25.12
22.03
17.97
10.51
-2.06
-20.12
-42.38
-65.89
-86.71
-101.04
-106.51
-102.96
-92.51
-78.64
-64.81
-53.22
-44.41
-37.53
-31.33
-25.04
-18.71
-12.92
-8.17
-4.52
-1.63
0.88
3.14
4.91
5.78
5.38
3.77
1.39
-1.05
-2.93
-3.96
-4.38
-4.84
-6.16
-9.04
-13.67
-19.7
-26.4
-33.04
-39.11
-44.39
-48.74
-51.88
-53.21
-52.04
-47.87
-40.69
-31.08
-20.02
-8.66
1.95
11.01
18.06
22.94
25.84
27.29
28.07
29.04
30.86
33.9
38.18
43.52
49.64
56.22
63.01
69.63
75.58
80.11
82.48
81.99
78.28
71.3
61.37
49.01
34.83
19.51
3.74
-11.73
-26.1
-38.53
-48.41
-55.36
-59.47
-61.27
-61.59
-61.36
-61.29
-61.7
-62.21
-61.97
-59.76
-54.5
-45.71
-33.87
-20.44
-7.51
2.97
9.89
13.19
13.64
12.09
8.87
3.64
-4.23
-15.01
-28.11
-42.08
-55.26
-66.32
-74.58
-79.83
-81.84
-80.17
-74.59
-65.61
-54.76
-44.4
-36.95
-33.82
-35.04
-39.28
-44.64
-49.55
-53.15
-55.19
-55.56
-53.87
-49.27
-40.86
-28.05
-10.97
9.38
31.27
52.38
70.16
82.34
87.66
86.48
81.19
75.87
75.11
82.38
98.66
121.8
147.32
170.01
185.61
192.09
189.67
180.1
165.58
148.1
129.17
110.02
91.78
75.45
61.6
50.09
39.99
29.88
18.52
5.35
-9.14
-23.64
-36.5
-46.51
-53.32
-57.48
-60.07
-62.14
-64.25
-66.3
-67.76
-68
-66.64
-63.71
-59.6
-54.79
-49.77
-44.86
-40.3
-36.21
-32.66
-29.64
-27.04
-24.69
-22.47
-20.32
-18.34
-16.65
-15.3
-14.24
-13.27
-12.16
-10.78
-9.18
-7.52
-6.05
-4.98
-4.4
-4.28
-4.49
-4.9
-5.38
-5.87
-6.34
-6.8
-7.18
-7.39
-7.24
-6.61
-5.52
-4.17
-2.94
-2.3
-2.56
-3.77
-5.85
-8.61
-12.01
-16.14
-21.09
-26.8
-32.95
-38.93
-44.01
-47.48
-48.76
-47.42
-43.15
-35.86
-25.87
-13.98
-1.44
10.38
20.46
28.58
35.36
41.93
49.27
57.73
66.7
74.92
80.79
82.88
80.36
73.12
61.72
47.4
31.88
17.28
5.73
-1.22
-3.14
-0.7
4.43
10.08
14.32
16.06
15.24
12.74
9.58
6.47
3.83
1.65
-0.41
-2.81
-5.79
-9.67
-14.56
-21.12
-30.34
-42.98
-59.53
-80.16
-104.78
-132.7
-163.15
-194.89
-224.79
-248.61
-261.16
-257.91
-236.86
-199.21
-147.87
-88.77
-23.6
46.11
117.94
188.74
255.32
315.23
363.07
395.42
410.62
409.17
392.55
363.11
323.76
277.23
225.89
171.79
117.64
66.63
22.63
-10.93
-31.94
-40.52
-39.84
-35.74
-35
-42.51
-59.66
-83.65
-109.17
-130.82
-145.29
-152.44
-154.33
-153.55
-151.26
-147.23
-140.6
-131.16
-119.82
-108.13
-97.44
-88.21
-80
-71.82
-62.89
-53.06
-42.76
-32.75
-23.72
-16.07
-9.83
-4.6
0.23
5.25
10.85
17.2
24.15
31.39
38.5
44.98
50.36
54.29
56.73
57.95
58.6
59.42
60.91
63.1
65.5
67.37
68.18
67.88
66.92
65.94
65.4
65.4
65.91
66.84
67.99
68.66
67.47
62.62
52.47
36.48
15.53
-8.28
-32.74
-56.44
-79.25
-101.87
-124.75
-147.41
-168.1
-184.44
-194.23
-196.21
-190.32
-177.42
-158.99
-136.69
-112.1
-86.6
-61.46
-37.71
-16.3
2.02
16.78
27.68
34.65
37.77
37.3
33.77
28.09
21.67
16.11
12.85
12.45
14.38
17.15
18.91
18.26
14.68
8.59
0.92
-7.24
-14.89
-20.96
-24.18
-23.34
-17.75
-7.86
4.56
16.94
26.92
33.15
35.7
35.49
33.4
29.7
24.05
16.11
6.27
-4.1
-13.05
-18.73
-20.25
-17.96
-13.14
-7.32
-1.62
3.7
9.04
15.04
21.93
29.24
35.75
39.83
40.1
35.96
27.9
17.38
6.48
-2.7
-8.58
-10.47
-8.62
-4.27
0.85
4.97
6.81
6.06
3.52
0.92
0.36
3.76
12.2
25.68
43.01
61.86
79.07
91.11
95.13
90.04
77.17
60.1
43.39
30.72
23.49
20.51
18.96
16.08
10.5
2.52
-6.68
-16.03
-25.21
-34.31
-43.07
-50.4
-54.56
-54.05
-48.57
-39.35
-28.84
-19.81
-14.39
-13.47
-16.69
-22.82
-30.34
-37.93
-44.73
-50.4
-54.96
-58.54
-61.08
-62.36
-62.02
-59.85
-55.98
-50.92
-45.44
-40.18
-35.51
-31.48
-28.08
-25.34
-23.48
-22.81
-23.53
-25.5
-28.16
-30.7
-32.3
-32.49
-31.23
-28.89
-26.02
-23.19
-20.8
-19.07
-17.93
-17.03
-15.68
-13.05
-8.35
-1.11
8.72
20.86
34.79
49.97
65.78
81.47
95.93
107.86
115.84
118.74
115.96
107.55
94.26
77.3
58.29
38.96
20.99
5.69
-6.2
-14.57
-19.85
-22.74
-24.02
-24.3
-24.01
-23.38
-22.52
-21.59
-20.7
-20.01
-19.57
-19.31
-19.05
-18.6
-17.88
-16.96
-16.06
-15.34
-14.83
-14.28
-13.32
-11.65
-9.3
-6.59
-4.04
-2.05
-0.77
-0.07
0.29
0.49
0.48
0.03
-1.06
-2.81
-4.93
-6.93
-8.36
-8.93
-8.54
-7.28
-5.29
-2.79
-0.07
2.47
4.46
5.67
6.22
6.57
7.27
8.73
10.83
13.14
15.13
16.61
17.86
19.51
22.09
25.65
29.69
33.38
36.05
37.56
38.37
39.27
41.01
43.83
47.27
50.41
52.21
51.94
49.43
44.99
39.12
32.22
24.42
15.65
6.01
-4.2
-14.43
-24.09
-32.78
-40.33
-46.6
-51.19
-53.26
-51.78
-46.15
-36.68
-24.89
-13.15
-3.83
1.59
3.05
1.88
0.07
-0.62
0.67
3.78
7.73
11.38
13.91
14.94
14.5
12.84
10.29
7.17
3.86
0.73
-1.76
-3.18
-3.29
-2.33
-1.1
-0.87
-2.95
-8.04
-15.83
-25.05
-34.07
-41.63
-47.32
-51.5
-54.59
-56.43
-56.04
-52.22
-44.29
-32.67
-18.82
-4.42
9.23
21.67
32.96
43.16
51.88
58.34
61.89
62.41
60.5
57.09
52.96
48.43
43.35
37.43
30.54
22.81
14.49
5.77
-3.25
-12.46
-21.53
-29.95
-37.03
-42.21
-45.18
-45.92
-44.49
-41.14
-36.18
-30.25
-24.16
-18.78
-14.8
-12.45
-11.55
-11.67
-12.41
-13.65
-15.42
-17.78
-20.66
-23.81
-27.01
-30.11
-33.01
-35.57
-37.56
-38.61
-38.43
-36.83
-33.8
-29.48
-24.02
-17.56
-10.3
-2.53
5.26
12.43
18.4
22.83
25.76
27.63
28.99
30.34
31.88
33.46
34.74
35.41
35.36
34.71
33.69
32.47
31.08
29.42
27.36
24.83
21.99
19.1
16.5
14.48
13.16
12.53
12.33
12.17
11.69
10.7
9.3
7.8
6.61
5.93
5.66
5.32
4.32
2.17
-1.21
-5.44
-9.74
-13.17
-14.94
-14.64
-12.52
-9.49
-7.08
-7.04
-10.83
-19.05
-31.04
-44.92
-57.93
-67.21
-70.66
-67.59
-58.85
-46.45
-32.82
-20.03
-9.43
-1.51
3.79
6.8
8.03
8.03
7.45
6.93
6.96
7.71
9
10.35
11.19
11.12
9.89
7.57
4.56
1.51
-0.9
-2.21
-2.39
-1.88
-1.34
-1.34
-2.04
-3.17
-4.21
-4.63
-4.16
-2.81
-0.87
1.26
3.22
4.71
5.61
5.97
5.98
5.9
5.94
6.19
6.59
6.98
7.27
7.5
7.87
8.63
9.95
11.75
13.74
15.5
16.66
17.12
17.16
17.29
18.16
20.26
23.78
28.49
33.8
38.92
42.99
45.42
46.02
45.17
43.66
42.5
42.55
44.25
47.66
52.42
58.11
64.4
71.08
78.01
85.01
91.78
97.86
102.83
106.27
107.86
107.26
104.29
98.97
91.66
83.13
74.34
66.19
59.2
53.48
48.75
44.51
40.2
35.21
29.08
21.52
12.61
2.8
-7.18
-16.62
-25.21
-33.02
-40.49
-47.87
-54.91
-60.78
-64.45
-65.18
-62.99
-58.68
-53.44
-48.39
-44.13
-40.75
-38.16
-36.48
-36.24
-38.28
-43.09
-50.43
-59.13
-67.41
-73.75
-77.58
-79.51
-80.95
-83.28
-86.97
-91.21
-94.35
-94.72
-91.65
-85.9
-79.35
-74.2
-71.86
-72.48
-74.96
-77.44
-78.01
-75.14
-68.07
-57.01
-43.17
-28.78
-16.48
-8.49
-5.64
-6.63
-8.4
-7.23
-0.49
12.02
27.89
43.1
53.94
58.59
57.89
54.64
52.18
52.63
56.02
60.51
63.49
63.17
59.57
54.45
50.32
48.91
50.08
51.8
51.23
46.45
37.77
27.81
20.37
18.31
22
28.79
34.32
34.67
28.48
17.87
7.42
1.85
3.6
11.5
21.28
27.59
26.67
18.07
4.98
-7.48
-14.72
-14.83
-9.38
-2.57
0.84
-2.17
-11.46
-23.89
-34.81
-40.27
-38.77
-31.83
-23.17
-17.01
-16.15
-21.09
-29.98
-39.76
-47.44
-51.2
-50.94
-47.82
-43.54
-39.59
-36.84
-35.65
-36.04
-37.91
-40.92
-44.45
-47.47
-48.75
-47.4
-43.31
-37.44
-31.33
-26.41
-23.22
-21.24
-19.3
-16.36
-12.27
-7.86
-4.5
-3.14
-3.8
-5.42
-6.47
-5.76
-3.09
0.65
4.04
5.73
5.25
3.09
0.47
-1.19
-0.93
1.41
5.1
8.92
11.47
11.8
9.63
5.48
0.36
-4.64
-8.86
-12.23
-15.05
-17.63
-19.81
-21.05
-20.75
-18.86
-16.3
-14.88
-16.47
-21.98
-30.69
-40.28
-47.77
-50.79
-48.39
-41.3
-31.38
-20.67
-10.81
-2.62
3.79
8.81
12.96
16.82
20.72
24.66
28.23
30.8
31.94
31.81
31.31
31.67
33.91
38.08
43.1
47.08
48.11
45.38
39.68
33.29
29
28.83
32.93
39.39
44.98
46.65
43.08
35.33
26.38
19.8
18.02
21.16
27.04
32.14
33.23
28.82
19.77
8.79
-0.73
-6.35
-7.54
-5.52
-2.42
0.05
1.33
1.99
2.82
3.9
4.18
2
-3.77
-12.77
-22.98
-31.51
-35.97
-35.43
-30.75
-24.02
-17.56
-12.94
-10.64
-10.01
-9.95
-9.43
-7.85
-5.25
-2.07
0.97
3.24
4.24
3.81
2.06
-0.69
-3.88
-7.02
-9.66
-11.63
-13.02
-14.05
-15
-16.05
-17.31
-18.73
-20.24
-21.65
-22.77
-23.37
-23.37
-22.82
-22
-21.28
-20.99
-21.35
-22.27
-23.55
-24.91
-26.19
-27.4
-28.59
-29.75
-30.69
-31.05
-30.35
-28.32
-24.94
-20.5
-15.54
-10.61
-6.08
-2.13
1.24
4.15
6.77
9.29
11.89
14.62
17.3
19.47
20.61
20.34
18.77
16.59
14.86
14.52
15.98
18.86
22.14
24.68
25.69
25.07
23.32
21.3
19.79
19.27
19.81
21.17
22.97
24.77
26.12
26.69
26.45
25.87
25.97
28.02
32.81
39.95
47.65
53.19
54.08
49.23
39.5
27.31
15.49
5.97
-0.84
-5.82
-10.21
-14.73
-19.24
-22.98
-25.41
-26.66
-27.62
-29.33
-32.37
-36.31
-39.89
-41.68
-40.77
-37.34
-32.47
-27.59
-23.69
-21
-18.94
-16.69
-13.67
-9.88
-5.75
-1.9
1.25
3.54
5.06
6.02
6.61
7
7.33
7.68
8.11
8.57
8.97
9.2
9.32
9.4
9.59
9.95
10.44
10.98
11.56
12.23
13.07
14.09
15.08
15.64
15.35
13.95
11.55
8.67
5.99
4.11
3.29
3.29
3.54
3.4
2.45
0.62
-1.77
-4.26
-6.38
-7.87
-8.63
-8.76
-8.38
-7.59
-6.43
-4.92
-2.99
-0.55
2.5
6.15
10.06
13.57
15.7
15.49
12.33
6.41
-1.33
-9.33
-16.04
-20.39
-22.09
-21.46
-19.17
-15.82
-11.81
-7.36
-2.63
2.22
6.93
11.09
14.2
15.73
15.44
13.6
11.08
9.23
9.34
12.01
16.73
21.96
25.8
26.84
24.8
20.59
15.88
12.29
10.73
11.14
12.58
13.66
13.13
10.39
5.7
0.29
-4.03
-5.48
-2.88
3.71
12.8
21.9
28.37
30.5
28.41
24.15
21.01
22.11
28.91
40.43
53.39
63.61
67.77
65.05
57.59
49.51
44.93
45.95
51.5
57.79
60.2
55.56
43.82
28.21
13.79
5.11
4.18
9.59
17.24
22.3
21.35
13.82
2.1
-9.69
-17.53
-19.3
-15.48
-8.78
-2.78
-0.34
-2.58
-8.57
-15.96
-22.2
-25.49
-25.39
-22.82
-19.46
-17.11
-16.95
-19.25
-23.37
-28.1
-32.12
-34.41
-34.51
-32.58
-29.37
-25.9
-23.33
-22.69
-24.76
-29.88
-37.97
-48.35
-59.84
-70.72
-79.17
-83.7
-83.77
-80.18
-75.02
-71.23
-71.48
-77.08
-87.1
-98.55
-107.26
-109.41
-102.96
-88.33
-68.08
-45.84
-24.92
-7.4
6.11
15.95
22.78
27.11
29.16
29.18
27.77
25.86
24.49
24.45
25.83
28.03
29.85
30.03
27.78
23.22
17.39
11.94
8.42
7.66
9.43
12.57
15.64
17.53
18.02
17.69
17.44
18.15
20.29
24.01
29.08
34.99
40.73
44.85
45.83
42.77
36.04
27.26
18.75
12.26
8.17
5.23
1.42
-4.79
-13.56
-23.54
-32.79
-39.65
-43.54
-44.79
-44.08
-41.86
-38.08
-32.41
-24.84
-16.05
-7.33
-0.1
4.63
6.9
7.74
8.79
11.52
16.58
23.41
30.6
36.43
39.72
40.27
38.85
36.71
35.12
35.06
37.1
41.44
47.85
55.38
62.39
66.89
67.22
62.85
54.8
45.2
36.35
29.62
24.91
20.89
15.86
8.71
-0.45
-10.51
-20.06
-28.12
-34.48
-39.65
-44.17
-48.15
-51.01
-51.74
-49.54
-44.48
-37.61
-30.63
-25.11
-21.8
-20.34
-19.63
-18.4
-15.9
-12.15
-7.8
-3.71
-0.5
1.68
3.13
4.36
5.78
7.42
8.95
9.91
9.97
9.23
8.16
7.42
7.5
8.45
9.88
11.19
11.98
12.18
12.05
11.84
11.6
11.11
10.01
8.17
5.76
3.27
1.21
-0.12
-0.73
-0.89
-0.88
-0.94
-1.12
-1.42
-1.81
-2.33
-3.04
-4.01
-5.29
-6.9
-8.77
-10.67
-12.36
-13.54
-14.06
-13.94
-13.41
-12.73
-12.02
-11.24
-10.19
-8.74
-6.96
-5.09
-3.52
-2.53
-2.18
-2.27
-2.45
-2.3
-1.53
-0.01
2.27
5.16
8.35
11.55
14.43
16.79
18.56
19.77
20.51
20.85
20.85
20.58
20.12
19.56
18.95
18.27
17.4
16.23
14.76
13.12
11.53
10.18
9.1
8.12
7.01
5.57
3.79
1.85
0.02
-1.46
-2.46
-3.09
-3.57
-4.08
-4.69
-5.25
-5.47
-5.03
-3.72
-1.57
1.26
4.47
7.88
11.37
14.96
18.69
22.62
26.68
30.82
34.93
38.91
42.7
46.28
49.69
52.96
56.19
59.36
62.39
65.06
67.14
68.35
68.53
67.65
65.72
62.77
58.76
53.6
47.18
39.52
30.79
21.43
12.08
3.53
-3.38
-8
-10.15
-10.31
-9.53
-9.07
-9.92
-12.44
-16.24
-20.45
-24.15
-26.8
-28.32
-28.95
-28.9
-28.19
-26.59
-23.85
-19.74
-14.31
-7.76
-0.46
7.06
14.19
20.34
25.14
28.63
31.33
34.04
37.64
42.75
49.56
57.71
66.33
74.21
80
82.52
81.13
75.97
68
58.62
49.22
40.68
33.08
25.96
18.54
10.28
0.96
-9.41
-20.97
-34.02
-48.83
-65.24
-82.29
-98.54
-112.7
-124.49
-134.92
-145.94
-159.02
-173.87
-187.89
-196.78
-196.59
-185.77
-166.43
-143.48
-122.63
-107.96
-100.49
-98.52
-99.09
-99.41
-97.58
-92.48
-83
-68.08
-47.4
-21.82
6.76
36.39
66.29
97.19
130.54
166.9
204.24
237.59
260.52
267.58
256.61
229.33
190.48
145.94
100.95
59.17
22.85
-6.5
-27.77
-40.23
-44.19
-41.58
-35.77
-30.57
-28.88
-31.49
-37.16
-43.96
-50.42
-56.14
-61.39
-66.03
-68.68
-66.99
-58.84
-43.83
-24.08
-3.59
13.53
24.47
28.31
25.27
15.6
-0.92
-24.59
-54.59
-88.11
-120.74
-147.96
-166.9
-177.51
-182.29
-184.75
-187.66
-191.82
-196.06
-198.24
-196.42
-189.76
-178.68
-164.12
-146.85
-127.11
-104.83
-80.31
-54.68
-29.87
-7.83
10.32
24.94
37.54
49.91
62.91
76.16
88.18
97.33
102.58
103.77
101.62
97.15
91.12
83.7
74.74
64.06
52.1
40.1
29.9
23.47
22.18
26.13
33.95
43.2
51.21
56.05
57.13
55.16
51.49
47.35
43.22
38.89
33.88
27.76
20.3
11.27
0.16
-13.86
-31.75
-54.08
-80.59
-110.08
-140.59
-169.89
-195.82
-216.6
-230.91
-237.86
-236.9
-227.66
-210
-184.13
-150.89
-111.97
-70.04
-28.4
9.63
41.53
66.2
83.98
96.3
104.84
111.03
115.66
119.08
121.46
122.87
123.27
122.36
119.65
114.8
108.02
100.22
92.77
87.01
83.58
82.23
82.01
81.74
80.6
78.41
75.42
72.07
68.64
65.23
61.8
58.34
54.89
51.55
48.35
45.15
41.66
37.6
32.75
27.13
20.98
14.69
8.7
3.27
-1.62
-6.34
-11.26
-16.68
-22.52
-28.38
-33.72
-38.07
-41.23
-43.18
-43.97
-43.39
-41.17
-36.99
-30.9
-23.4
-15.55
-8.58
-3.42
-0.35
1.21
2.42
4.62
8.87
15.73
25.4
37.76
52.21
67.43
81.42
91.95
97.44
97.74
94.29
89.51
85.59
83.33
81.87
79.42
74.4
66.4
56.33
45.73
36.09
28.3
22.73
19.55
19.01
21.34
26.62
34.58
44.19
53.79
61.25
64.54
62.35
54.56
42.35
27.93
13.75
1.43
-8.8
-18.05
-28.15
-40.43
-54.95
-70.33
-84.25
-94.52
-100.14
-101.52
-100.16
-97.56
-94.37
-89.99
-83.29
-73.48
-61.05
-47.74
-35.73
-26.69
-20.98
-17.76
-15.65
-13.66
-11.59
-9.94
-9.29
-9.68
-10.54
-10.92
-10.12
-8.07
-5.45
-3.41
-3.13
-5.42
-10.49
-18.08
-27.47
-37.71
-47.82
-57.01
-64.82
-71.19
-76.36
-80.51
-83.71
-85.77
-86.27
-84.63
-80.18
-72.31
-60.64
-45.22
-26.79
-6.77
12.82
29.96
43.07
51.51
55.56
56.1
54.1
50.22
44.81
38.16
30.75
23.42
17.17
12.79
10.68
10.97
13.8
19.58
28.74
41.11
55.59
70.27
83.22
93.48
101.58
109.01
117.11
125.87
133.5
137.24
134.83
125.81
111.88
96.18
81.86
70.84
63.43
58.69
55.39
52.8
50.98
50.37
51.17
52.74
53.47
51.34
44.79
33.52
18.68
2.32
-13.55
-27.84
-40.6
-52.67
-64.99
-78.05
-91.67
-105.19
-117.84
-128.94
-137.98
-144.48
-147.9
-147.77
-143.93
-136.77
-127.18
-116.36
-105.27
-94.54
-84.21
-73.88
-62.87
-50.37
-35.68
-18.43
1.13
22.24
43.73
64.35
83.07
99.16
112.12
121.38
126.37
126.68
122.36
114.2
103.59
92.26
81.7
72.85
66.01
60.86
56.79
53.06
49.1
44.57
39.52
34.16
28.82
23.72
18.9
14.31
9.86
5.53
1.3
-2.85
-6.97
-11.07
-15.05
-18.66
-21.56
-23.52
-24.53
-24.86
-24.95
-25.23
-25.89
-26.97
-28.31
-29.78
-31.35
-33.01
-34.72
-36.24
-37.25
-37.35
-36.41
-34.52
-31.99
-29.17
-26.3
-23.54
-20.94
-18.64
-16.75
-15.37
-14.59
-14.32
-14.49
-14.96
-15.6
-16.29
-16.84
-17.1
-16.97
-16.48
-15.83
-15.34
-15.26
-15.72
-16.73
-18.1
-19.62
-21.03
-22.1
-22.74
-22.96
-22.8
-22.28
-21.39
-20.11
-18.43
-16.44
-14.31
-12.27
-10.51
-9.11
-8.03
-7.16
-6.43
-5.83
-5.34
-4.92
-4.43
-3.7
-2.64
-1.27
0.33
2.1
3.92
5.74
7.47
8.92
9.89
10.13
9.51
8.12
6.19
4.01
1.87
-0.03
-1.57
-2.67
-3.28
-3.45
-3.27
-3
-2.97
-3.45
-4.6
-6.32
-8.38
-10.47
-12.42
-14.12
-15.58
-16.74
-17.31
-16.98
-15.48
-12.8
-9.27
-5.46
-1.93
0.93
2.97
4.13
4.37
3.56
1.58
-1.64
-6.11
-11.75
-18.66
-27.08
-37.41
-49.95
-64.57
-80.65
-97.1
-112.7
-126.49
-138.09
-147.57
-154.94
-159.7
-160.45
-155.22
-142.25
-120.72
-91.33
-56.09
-17.62
21.59
59.55
94.72
125.68
151.05
169.68
181.16
186.13
186.06
182.8
177.74
171.53
164.08
154.91
143.6
129.95
114.13
96.46
77.38
57.36
37.09
17.39
-0.76
-16.43
-28.98
-38.21
-44.36
-48
-49.83
-50.33
-49.92
-48.93
-47.7
-46.57
-45.65
-44.66
-43.02
-40.19
-36.02
-31.05
-26.37
-23.12
-22.13
-23.49
-26.6
-30.52
-34.37
-37.49
-39.6
-40.72
-41.04
-41.01
-41.2
-42.21
-44.62
-48.7
-54.03
-59.54
-63.59
-64.46
-61.05
-53.28
-42.25
-29.87
-18.06
-7.94
0.6
8.78
18.44
30.98
46.7
64.35
81.5
95.39
103.97
106.63
104.39
99.32
93.48
88.17
83.56
79.04
73.95
68
61.31
54.22
46.9
39.2
30.83
21.74
12.31
3.32
-4.35
-10.22
-14.37
-17.54
-20.65
-24.47
-29.24
-34.65
-40.05
-44.8
-48.48
-51.03
-52.68
-53.79
-54.74
-55.74
-56.79
-57.62
-57.67
-56.26
-52.76
-46.92
-38.98
-29.66
-19.93
-10.67
-2.51
4.22
9.32
12.61
13.87
12.88
9.64
4.51
-1.74
-8.18
-13.91
-18.39
-21.53
-23.62
-25.16
-26.81
-29.07
-32.25
-36.46
-41.66
-47.72
-54.44
-61.5
-68.3
-73.94
-77.09
-76.18
-69.82
-57.29
-38.85
-15.76
10.19
37.14
63.54
88.01
109.2
125.5
135.5
138.34
134.48
125.71
114.69
103.96
95.03
88
81.84
75.32
67.59
58.54
48.73
38.92
29.72
21.37
13.8
6.69
-0.25
-7.22
-14.45
-22.09
-30.41
-39.58
-49.62
-60.24
-71.01
-81.45
-91.36
-101.09
-111.34
-122.91
-136.12
-150.41
-164.24
-175.52
-182.26
-183.2
-178.09
-167.42
-152.1
-133.19
-111.71
-88.67
-64.92
-40.82
-15.93
11.05
41.48
75.65
111.91
146.81
176.25
197.2
208.78
212.24
209.69
202.76
191.88
176.68
156.98
133.73
109.16
85.92
65.95
49.62
35.85
23.14
10.7
-0.85
-9.66
-13.41
-10.54
-1.24
12.42
26.95
38.86
45.87
47.64
45.74
42.77
41.28
42.75
47.31
53.63
59.61
63.05
62.3
56.67
46.44
32.53
15.98
-2.25
-21.54
-41.42
-61.72
-82.55
-104.62
-129.02
-156.75
-187.85
-220.44
-250.88
-274.76
-288.65
-291.63
-285.52
-273.81
-259.77
-244.91
-228.41
-207.98
-181.27
-147.02
-105.36
-57.39
-4.62
51.19
107.56
161.06
207.33
241.99
261.95
266.46
257.39
238.56
214.46
188.83
164.07
141.27
120.89
103.38
89.26
78.8
71.64
66.76
62.87
58.96
54.73
50.44
46.5
43.07
39.82
36.21
31.87
26.88
21.77
17.18
13.61
11.16
9.56
8.4
7.26
5.92
4.42
3.01
2.08
1.96
2.91
5.01
8.17
12.14
16.44
20.44
23.45
25
24.91
23.48
21.22
18.62
15.96
13.29
10.57
7.84
5.34
3.32
1.95
1.22
1.02
1.36
2.45
4.72
8.52
13.92
20.51
27.48
33.93
39.1
42.6
44.4
44.82
44.43
43.89
43.8
44.48
45.86
47.31
47.92
46.8
43.37
37.64
30.12
21.62
13.02
5.09
-1.62
-6.72
-9.95
-11.2
-10.57
-8.42
-5.41
-2.4
-0.28
0.23
-1.17
-4.29
-8.49
-12.78
-16.22
-18.12
-18.41
-17.53
-16.29
-15.45
-15.48
-16.42
-17.96
-19.66
-21.15
-22.22
-22.66
-22.31
-20.93
-18.27
-14.26
-9.06
-3.15
2.8
8.09
12.2
14.91
16.26
16.51
16.05
15.21
14.24
13.23
12.22
11.18
10.07
8.85
7.55
6.24
5.18
4.64
4.89
6.04
7.98
10.34
12.62
14.3
15.01
14.57
13.09
10.81
8.1
5.29
2.59
0.2
-1.75
-3.09
-3.74
-3.68
-3.13
-2.44
-2.04
-2.2
-2.99
-4.2
-5.45
-6.37
-6.63
-6.09
-4.67
-2.46
0.37
3.59
6.92
10.14
13.15
15.94
18.56
21.1
23.57
26.01
28.44
30.93
33.49
36.13
38.78
41.34
43.75
46
48.17
50.33
52.5
54.65
56.6
58.14
59.11
59.39
58.96
57.84
56
53.41
49.98
45.63
40.3
34.02
26.92
19.14
10.83
2.04
-7.2
-16.89
-26.92
-37.11
-47.19
-56.92
-66.21
-75.15
-84
-93.06
-102.57
-112.54
-122.84
-133.21
-143.31
-152.85
-161.56
-169.39
-176.49
-183.25
-190.27
-198.15
-207.25
-217.59
-228.88
-240.68
-252.8
-265.58
-279.93
-297.1
-318.28
-343.74
-372.12
-399.94
-421.69
-430.93
-421.86
-390.93
-337.96
-266.36
-182.44
-94.05
-9.07
65.98
126.78
171.48
200.55
216.12
221.27
219.56
214.62
209.87
208.14
211.04
218.4
228.14
236.9
241.21
238.79
229.42
214.66
197.18
179.7
164.27
152.03
143.16
137.1
132.8
129.04
124.68
119.04
111.98
103.73
94.67
85.12
75.19
64.97
54.67
44.65
35.34
27.07
19.82
13.27
6.97
0.54
-6.22
-13.34
-20.9
-28.94
-37.39
-45.74
-52.84
-56.99
-56.55
-50.79
-40.43
-27.5
-14.56
-3.67
4.31
9.64
13.01
14.67
14.2
10.91
4.66
-3.58
-11.89
-18.28
-21.6
-21.94
-20.26
-17.59
-14.41
-10.75
-6.65
-2.69
-0.1
-0.14
-3.35
-9.07
-15.53
-20.53
-22.43
-20.81
-16.41
-10.74
-5.11
0
5.2
11.75
20.74
32.18
44.55
55.24
61.51
61.72
56.04
46.2
34.59
23.24
13.17
4.37
-3.59
-11.08
-18.07
-24.19
-29.1
-32.8
-35.82
-39.09
-43.56
-49.79
-57.67
-66.29
-74.27
-80.15
-82.95
-82.41
-78.93
-73.29
-66.2
-58.14
-49.36
-40
-30.22
-20.21
-10.2
-0.37
9.09
18
26.16
33.45
39.84
45.37
50.09
53.95
56.71
58.05
57.8
56.14
53.75
51.66
50.81
51.58
53.45
55.1
55.03
52.43
47.85
43.15
40.76
42.57
49.02
58.87
69.63
78.55
83.53
83.6
78.99
70.85
60.8
50.41
40.96
33.14
27.16
22.96
20.5
19.95
21.42
24.67
28.79
32.39
34.17
33.63
31.41
28.93
27.53
27.47
27.67
26.16
21.23
12.32
0.38
-12.62
-24.64
-34.47
-42.25
-49.28
-57.48
-68.62
-83.66
-102.34
-123.13
-143.49
-160.45
-171.4
-174.74
-170.34
-159.41
-143.96
-126.09
-107.29
-88.06
-67.89
-45.53
-19.32
12.34
50.35
94.1
140.78
185.47
222.39
246.89
257.3
255.44
245.54
231.91
216.84
199.93
179.13
152.81
121.26
86.82
52.67
21.06
-7.49
-33.76
-58.63
-81.81
-101.67
-115.98
-123
-122.33
-115.25
-104.12
-91.61
-79.81
-69.77
-61.48
-54.39
-47.93
-41.86
-36.46
-32.2
-29.3
-27.47
-25.75
-22.83
-17.68
-9.99
-0.48
9.37
17.97
24.36
28.58
31.4
33.83
36.35
38.6
39.65
38.58
35.14
30.03
24.55
19.99
17.01
15.39
14.21
12.35
8.99
3.97
-2.34
-9.25
-16.2
-22.9
-29.39
-35.85
-42.37
-48.79
-54.68
-59.49
-62.78
-64.44
-64.54
-63.32
-60.98
-57.57
-53.12
-47.64
-41.22
-33.98
-25.89
-16.72
-6.17
5.94
19.28
32.74
44.55
52.58
55.11
51.52
42.76
31.17
19.82
11.39
7.35
7.68
11.29
16.79
23.13
29.79
36.5
42.79
47.86
50.63
50.27
46.45
39.38
29.48
17.18
2.72
-13.55
-30.94
-48.47
-65.1
-80.2
-93.78
-106.27
-117.85
-127.76
-133.99
-133.89
-125.26
-107.68
-83.05
-55.14
-28.34
-6.09
9.97
20.04
25.27
26.8
25.25
20.92
14.29
6.52
-0.64
-5.42
-6.81
-4.92
-0.94
3.46
6.87
8.61
8.88
8.44
8.07
8.21
8.8
9.36
9.32
8.31
6.16
2.86
-1.51
-6.99
-13.58
-21.1
-29.24
-37.49
-45.43
-52.73
-59.28
-65.03
-70
-74.24
-77.82
-80.83
-83.22
-84.63
-84.32
-81.31
-74.86
-64.85
-52
-37.62
-23.13
-9.5
2.93
14.26
24.72
34.12
41.84
47.15
49.58
49.24
46.9
43.95
42.21
43.71
50.29
62.87
80.85
101.85
122.09
137.5
145.05
143.46
133.31
116.37
94.83
70.91
46.87
25.17
8.19
-2.24
-5.66
-3.1
3.36
11.42
19.27
25.93
31.21
35.24
38.07
39.52
39.27
36.97
32.41
25.64
16.85
6.38
-5.4
-18.09
-31.31
-44.48
-56.83
-67.5
-75.63
-80.65
-82.36
-81
-77.23
-72.05
-66.64
-62.09
-58.96
-56.88
-54.5
-50.03
-41.96
-29.89
-14.78
1.46
16.83
29.92
40.28
48.06
53.66
57.44
59.71
60.92
61.73
62.64
63.66
64.05
62.64
58.61
52.16
44.66
37.91
33.36
31.19
30.43
29.48
26.99
22.49
16.36
9.5
2.76
-3.27
-8.18
-11.6
-13.13
-12.57
-10.06
-6.02
-0.95
4.75
10.9
17.29
23.39
28.35
31.23
31.48
29.21
25.23
20.63
16.41
13.1
10.87
9.79
10.07
12.04
15.92
21.49
27.96
34.16
38.79
40.81
39.6
35.06
27.59
18.11
7.89
-1.68
-9.39
-14.55
-17.19
-17.91
-17.71
-17.5
-17.75
-18.35
-18.73
-18.27
-16.71
-14.34
-11.87
-10.3
-10.52
-13.24
-19.05
-28.38
-41.33
-57.33
-74.91
-92.05
-107.11
-119.51
-129.93
-139.49
-148.58
-156.05
-159.46
-156.43
-146.28
-130.91
-114.11
-99.77
-89.75
-82.93
-75.84
-64.77
-47.99
-26.9
-5.74
10.28
17.23
14.15
3.53
-9.85
-20.87
-26
-24.12
-16.39
-5.06
7.59
19.98
31.25
40.98
48.76
54.09
56.66
56.57
54.47
51.35
48.07
45.16
42.58
39.95
36.8
32.79
27.82
22.09
16.01
10.15
5.03
1.02
-1.77
-3.54
-4.72
-5.75
-6.92
-8.19
-9.27
-9.81
-9.59
-8.71
-7.5
-6.24
-4.98
-3.42
-1.12
2.08
5.83
9.22
11.07
10.5
7.27
1.86
-4.94
-12.39
-20.09
-27.78
-35.09
-41.35
-45.77
-47.95
-48.13
-47.36
-46.94
-47.81
-50.05
-52.81
-54.66
-54.12
-50.05
-41.88
-29.59
-13.72
4.6
23.76
41.95
57.57
69.68
78.15
83.52
86.61
88.13
88.41
87.44
85.02
80.98
75.35
68.36
60.43
52.08
43.91
36.47
30.2
25.33
21.9
19.84
18.92
18.8
19.06
19.34
19.31
18.84
17.97
16.87
15.74
14.71
13.84
13.05
12.31
11.51
10.61
9.53
8.24
6.71
4.91
2.85
0.51
-2.08
-4.83
-7.52
-9.85
-11.54
-12.45
-12.74
-12.7
-12.74
-13.12
-13.88
-14.88
-15.86
-16.73
-17.33
-17.59
-17.32
-16.3
-14.4
-11.69
-8.49
-5.14
-1.91
1.29
4.79
9.01
14.18
20.25
26.81
33.35
39.53
45.26
50.83
56.68
63.16
70.39
78.17
86.08
93.62
100.37
105.9
109.8
111.57
110.58
106.33
98.54
87.38
73.51
57.79
41.13
24.26
7.68
-8.3
-23.36
-37.1
-48.98
-58.43
-65.14
-69.29
-71.71
-73.73
-76.73
-81.76
-89.06
-98.08
-107.53
-115.77
-120.99
-121.55
-116.14
-103.97
-85
-60.12
-31.01
0.3
31.99
63.11
93.45
123.05
151.21
175.76
193.18
199.5
192.04
170.78
138.93
102.14
66.81
38.01
18.08
6.39
0.07
-4.4
-9.61
-16.45
-23.92
-29.95
-32.5
-30.6
-24.79
-17.02
-10.01
-6.27
-7.62
-14.74
-27.25
-44.01
-63.22
-82.72
-100.16
-113.46
-121.49
-124.67
-124.81
-124.37
-125.11
-126.94
-127.58
-123.46
-111.42
-90.38
-62.14
-30.79
-1.22
22.6
38.76
47.43
50.18
48.93
45.3
40.43
35.23
30.57
27.31
26.2
27.42
30.41
33.95
36.54
37.07
35.23
31.58
27.24
23.44
20.91
19.72
19.32
18.95
18
16.21
13.77
11.1
8.57
6.32
4.23
2.08
-0.3
-2.9
-5.48
-7.68
-9.19
-9.85
-9.72
-9
-7.95
-6.82
-5.78
-4.86
-3.9
-2.65
-0.91
1.46
4.36
7.49
10.53
13.22
15.5
17.57
19.8
22.56
26.17
30.68
35.78
40.87
45.15
47.99
49.11
48.69
47.2
45
42.01
37.65
31.12
21.86
10
-3.52
-17.27
-29.72
-39.87
-47.49
-53.23
-58.41
-64.63
-73.14
-84.3
-97.17
-109.62
-118.93
-122.8
-120.37
-112.5
-101.43
-89.71
-79.09
-70.11
-62.29
-54.91
-47.69
-41.09
-36.11
-33.98
-35.96
-43.23
-56.65
-75.95
-98.69
-119.83
-132.89
-132.38
-116.66
-89.47
-58.77
-33.14
-17.83
-12.37
-11.36
-7.75
3.25
21.97
44.81
66.93
85.15
98.98
109.8
118.87
125.78
128.46
124.5
112.87
94.84
73.66
53.08
35.87
22.95
13.55
6.18
-0.57
-7.6
-15.28
-23.52
-31.76
-38.68
-42.41
-41.2
-34.3
-22.57
-8.33
5.68
17.4
26.17
32.69
38.34
44.34
51.28
58.82
65.68
69.85
68.89
60.74
44.71
22.36
-2.6
-25.33
-41.53
-48.92
-47.77
-40.25
-29.19
-16.96
-5.03
5.76
14.81
21.52
25.37
26.06
23.73
19.08
13.3
7.8
3.9
2.25
2.8
4.79
7.07
8.71
9.32
9.3
9.56
11.13
14.45
19.04
23.55
26.25
25.76
21.67
14.83
7.01
0.15
-4.45
-6.8
-8.1
-10.2
-14.63
-22.01
-31.81
-42.59
-52.32
-58.88
-60.59
-56.55
-47.02
-33.39
-17.98
-3.46
8.07
15.64
19.56
21.07
21.55
22
22.86
24.33
26.58
29.71
33.47
36.9
38.3
35.77
28
15.1
-1.2
-17.88
-31.72
-40.29
-42.59
-39.34
-32.6
-25.41
-21.04
-22.25
-30.54
-45.6
-65.07
-85.03
-100.94
-109.02
-107.25
-95.9
-77.27
-54.73
-31.49
-9.57
10.33
28.5
45.2
59.88
70.96
76.46
75.32
68.43
58.77
50.25
46.14
47.6
53.39
60.78
67.01
70.37
70.59
68.3
64.17
58.56
51.44
42.81
33.09
23.15
14.13
6.93
2.01
-0.69
-1.58
-1.17
0.28
2.85
6.86
12.61
20.15
29.15
38.97
48.95
58.5
67.26
75.04
81.77
87.47
92.22
96.15
99.26
101.38
102.16
101.26
98.71
94.89
90.4
85.56
80.08
72.96
62.94
49.02
31.01
9.71
-13.41
-36.67
-58.57
-78.01
-94.2
-106.58
-114.86
-119.08
-119.59
-117.16
-112.72
-107.23
-101.57
-96.42
-92.22
-89.28
-87.87
-88.23
-90.61
-95.02
-100.94
-107.37
-112.96
-116.58
-117.75
-116.88
-115.05
-113.41
-112.61
-112.5
-112.4
-111.47
-109.21
-105.47
-100.19
-93.04
-83.37
-70.25
-52.94
-31.19
-5.49
22.99
52.49
80.97
106.35
126.68
140.48
146.98
146.4
139.94
129.54
117.18
104.38
92
80.27
69.13
58.52
48.51
39.1
30.13
21.25
12.31
3.75
-3.37
-7.7
-8.28
-5.16
0.48
6.71
11.72
14.48
15.15
14.85
15.06
17
21.1
27.07
34.02
40.92
46.83
50.95
52.67
51.61
47.67
41.03
32.26
22.11
11.36
0.65
-9.55
-18.97
-27.3
-34.33
-39.94
-44.13
-47.02
-48.59
-48.66
-46.94
-43.33
-38.27
-32.81
-28.35
-26.15
-26.85
-30.22
-35.36
-41.07
-46.24
-49.96
-51.59
-50.67
-47.06
-41.16
-33.95
-26.77
-20.87
-16.88
-14.62
-13.4
-12.47
-11.42
-10.24
-8.99
-7.57
-5.66
-2.88
0.75
4.7
8.19
10.55
11.61
11.83
11.93
12.44
13.48
14.71
15.64
15.99
15.78
15.21
14.49
13.62
12.47
10.93
9.02
6.99
5.23
4.01
3.28
2.78
2.13
1.02
-0.57
-2.53
-4.62
-6.62
-8.49
-10.35
-12.41
-14.93
-18.1
-21.93
-26.17
-30.22
-33.27
-34.62
-33.99
-31.79
-29.07
-27.04
-26.57
-27.73
-29.79
-31.62
-32.29
-31.46
-29.64
-27.78
-26.78
-27.22
-29.23
-32.56
-36.45
-39.6
-40.06
-35.88
-25.97
-11.01
6.22
21.51
30.65
31.21
23.36
9.67
-6.3
-21.47
-34.03
-43.25
-48.74
-49.68
-44.81
-32.99
-14.12
10.33
37.5
63.84
85.98
101.36
108.46
106.66
96.22
78.29
54.74
27.91
0.2
-26.29
-49.79
-68.57
-80.78
-84.51
-78.29
-61.91
-37.06
-7.12
23.72
51.85
75.4
94.51
110.77
126.02
141.28
156.29
169.88
180.66
187.76
190.83
189.65
183.76
172.41
155.13
132.44
106.28
79.53
55.06
34.54
17.94
4.07
-8.28
-19.44
-28.51
-33.92
-34.4
-29.62
-20.57
-9.29
1.52
9.01
10.8
5.48
-6.84
-24.49
-44.64
-64.15
-80.59
-92.85
-101.2
-106.74
-110.79
-114.64
-119.48
-126.28
-135.39
-145.84
-155.12
-159.68
-156.15
-142.76
-120.04
-90.47
-57.25
-23.12
10.18
41.68
70.67
96.41
118.16
135.46
148.15
156.18
159.5
157.99
151.73
141.24
127.21
110.55
92.26
73.7
56.77
43.73
36.28
34.42
35.86
36.55
32.43
21.19
3.25
-18.88
-42.27
-65.02
-86.62
-107.12
-125.61
-139.68
-145.87
-141.15
-124.59
-98.03
-65.84
-33.51
-5.9
14.04
25.9
31.44
33.64
35.51
39
44.33
50
53.41
52.06
44.6
31.45
14.58
-3.39
-20.32
-35.11
-47.82
-59.07
-69.34
-78.69
-86.86
-93.63
-99.13
-103.6
-106.93
-108.31
-106.28
-99.32
-86.57
-68.29
-45.85
-21.23
3.63
27.06
47.74
64.53
76.4
82.57
82.86
77.88
68.91
57.44
44.71
31.5
18.25
5.47
-6.01
-15.07
-20.75
-22.67
-21.34
-18.05
-14.25
-11.16
-9.36
-8.81
-9.06
-9.54
-9.78
-9.45
-8.45
-6.83
-4.94
-3.34
-2.56
-2.94
-4.4
-6.44
-8.43
-9.95
-10.89
-11.56
-12.3
-13.23
-14.26
-15.26
-16.26
-17.52
-19.05
-20.12
-19.25
-14.79
-5.88
6.61
20.13
31.4
37.68
37.78
32.21
22.26
9.2
-6.27
-23.63
-41.93
-59.28
-73.22
-81.52
-83.18
-78.78
-70.16
-59.62
-49.1
-39.68
-31.65
-24.91
-19.32
-14.96
-12.22
-11.58
-13.47
-18.05
-24.95
-33.3
-42.01
-49.93
-56.29
-60.94
-64.12
-66.36
-68.05
-69.29
-69.86
-69.42
-67.65
-64.33
-59.23
-51.93
-42.14
-29.97
-16.19
-2.22
10.26
19.9
26.07
29.06
30.13
31.04
33.69
39.54
49.23
62.32
77.29
91.88
103.66
110.95
113.51
112.81
111.71
113.53
120.64
133.32
149.3
164.3
173.47
173.37
163.31
145.63
124.65
104.86
89.3
78.86
72.66
69.11
66.84
65.17
63.9
62.67
60.72
57.02
50.75
41.86
31.27
20.63
11.66
5.36
1.67
-0.43
-2.37
-5.28
-9.6
-15.01
-20.79
-26.2
-30.93
-35.05
-38.9
-42.79
-46.85
-50.99
-54.93
-58.39
-61.1
-62.96
-64.04
-64.57
-64.88
-65.16
-65.26
-64.53
-62.04
-56.98
-49.2
-39.48
-29.39
-20.77
-14.87
-11.96
-11.26
-11.43
-11.21
-9.89
-7.45
-4.32
-1.08
1.89
4.39
6.31
7.53
7.92
7.42
6.14
4.38
2.47
0.75
-0.59
-1.6
-2.6
-4.06
-6.42
-9.9
-14.19
-18.55
-22.02
-23.78
-23.59
-21.81
-19.28
-16.82
-14.84
-13.17
-11.22
-8.4
-4.56
-0.04
4.43
8.12
10.56
11.69
11.79
11.21
10.2
8.83
7.11
5.01
2.6
0.04
-2.47
-4.66
-6.3
-7.17
-7.1
-6.06
-4.2
-1.86
0.5
2.44
3.7
4.22
4.17
3.82
3.41
3.01
2.54
1.78
0.58
-1.14
-3.23
-5.4
-7.39
-9.15
-10.82
-12.67
-14.92
-17.66
-20.73
-23.88
-26.8
-29.34
-31.53
-33.48
-35.25
-36.81
-37.91
-38.24
-37.57
-35.96
-33.74
-31.58
-30.25
-30.29
-31.81
-34.29
-36.8
-38.18
-37.29
-33.31
-25.95
-15.61
-3.41
9.03
20.02
28.14
32.59
33.14
30.08
23.92
15.4
5.58
-4.31
-12.97
-19.42
-23.33
-25.15
-25.85
-26.59
-28.41
-32.17
-38.72
-48.52
-61
-74.1
-84.12
-86.83
-79.06
-60.46
-34.01
-5.2
19.88
36.81
44.19
43.82
39.52
35.62
35.54
41.11
52.55
68.89
88.45
109.21
129.25
146.78
160.29
168.57
170.86
167.15
158.46
146.94
135.3
126.05
120.61
118.79
119.05
119.34
118.21
115.57
112.79
111.89
114.49
120.87
129.76
138.7
144.93
146.31
141.88
131.98
117.88
101.4
84.26
67.78
52.45
37.73
22.01
3.08
-21.18
-51.75
-87.63
-125.64
-161.04
-188.92
-205.76
-210.55
-204.74
-191.48
-174.22
-155.69
-137.53
-120.72
-106.07
-94.52
-86.99
-84.02
-85.29
-89.65
-95.38
-100.49
-103
-101.07
-93.4
-79.69
-61.19
-40.6
-21.28
-6.06
3.78
8.54
9.39
7.3
2.55
-4.85
-14.27
-23.76
-30.52
-32.18
-28.34
-21.13
-14.46
-12.09
-15.73
-24.29
-34.41
-42.08
-44.25
-39.8
-29.37
-14.54
3.24
23.19
44.99
68.21
91.66
113.23
130.35
140.74
143.13
137.6
125.46
108.74
89.66
70.11
51.27
33.75
17.62
2.61
-11.7
-25.78
-39.98
-54.21
-67.7
-78.88
-85.46
-85.17
-76.71
-60.42
-38.57
-14.61
7.97
26.7
40.69
50.34
56.37
59.13
58.24
53.05
43.33
29.94
14.72
-0.15
-12.97
-23.23
-31.41
-38.34
-44.47
-49.49
-52.6
-53.13
-51.13
-47.45
-43.4
-40.16
-38.32
-37.75
-37.9
-38.16
-38.24
-38.25
-38.68
-40.14
-43.09
-47.6
-53.23
-59.09
-64.04
-67.03
-67.42
-65.24
-61.08
-55.91
-50.69
-46.01
-41.96
-38.18
-34.16
-29.57
-24.51
-19.51
-15.29
-12.43
-11.04
-10.64
-10.25
-8.79
-5.41
0.17
7.64
16.12
24.5
31.69
36.88
39.7
40.11
38.32
34.55
28.96
21.63
12.82
3.07
-6.77
-15.65
-22.6
-27.05
-28.81
-28
-24.84
-19.54
-12.35
-3.77
5.42
14.43
22.68
29.89
35.83
40.03
41.77
40.47
36.27
30.34
24.31
19.25
14.61
8.17
-2.83
-20.01
-42.58
-67.55
-90.94
-109.54
-121.68
-127.16
-126.37
-119.49
-106.5
-87.83
-65.01
-40.73
-18.22
-0.13
12.14
18.4
19.02
14.21
3.95
-11.25
-29.24
-45.92
-55.89
-54.22
-38.68
-11.04
23.38
57.68
86.25
106.92
121.18
132.8
145.42
160.53
176.84
191.16
200.09
201.64
195.88
184.46
169.56
152.65
134.1
113.33
89.98
64.98
41.05
22.11
11.68
11.22
19.01
30.71
40.99
45.74
43.53
35.4
23.65
9.97
-5.38
-23.34
-44.85
-69.49
-94.97
-117.41
-132.48
-136.54
-127.84
-107.14
-77.9
-45.59
-16.41
4.46
14.48
14.47
8.5
2.59
2.87
13.72
36.54
69.3
107.14
143.71
172.79
189.86
192.93
182.49
160.93
131.56
97.94
63.47
31.22
3.69
-17.54
-32.16
-41.2
-46.67
-50.88
-55.75
-62.26
-70.27
-78.73
-86.1
-90.9
-92.27
-90.17
-85.34
-78.99
-72.32
-66.21
-61.01
-56.63
-52.77
-49.3
-46.2
-43.66
-41.84
-40.75
-40.21
-39.94
-39.68
-39.28
-38.78
-38.26
-37.83
-37.47
-36.98
-36.01
-34.13
-31.06
-26.76
-21.56
-16.1
-11.15
-7.4
-5.18
-4.45
-4.82
-5.77
-6.85
-7.78
-8.5
-9.13
-9.87
-10.92
-12.38
-14.25
-16.36
-18.35
-19.8
-20.27
-19.42
-17.19
-13.74
-9.46
-4.92
-0.61
3.1
6.07
8.35
10.13
11.58
12.8
13.89
14.92
15.95
17.06
18.17
19.09
19.56
19.34
18.35
16.75
14.88
13.1
11.63
10.45
9.39
8.2
6.75
5.11
3.54
2.33
1.65
1.56
1.89
2.34
2.56
2.23
1.15
-0.73
-3.32
-6.43
-9.77
-13.12
-16.22
-18.79
-20.51
-20.97
-19.84
-17.03
-12.87
-7.99
-3.32
0.31
2.4
2.92
2.19
0.76
-0.86
-2.27
-3.26
-3.72
-3.66
-3.07
-2.03
-0.69
0.76
2.09
3.18
3.98
4.6
5.18
5.87
6.68
7.52
8.24
8.67
8.82
8.77
8.69
8.72
8.94
9.31
9.78
10.24
10.59
10.71
10.44
9.57
7.94
5.51
2.35
-1.24
-4.83
-7.98
-10.27
-11.53
-11.74
-11.06
-9.72
-7.97
-6.01
-3.94
-1.81
0.34
2.48
4.53
6.42
8.01
9.2
9.91
10.2
10.18
10.09
10.13
10.48
11.23
12.37
13.77
15.31
16.81
18.09
18.99
19.39
19.29
18.78
18
17.08
16.05
14.89
13.51
11.9
10.14
8.45
7.04
6.02
5.37
4.89
4.41
3.79
3.08
2.37
1.74
1.15
0.42
-0.65
-2.23
-4.27
-6.47
-8.38
-9.54
-9.62
-8.59
-6.68
-4.28
-1.84
0.32
2.05
3.35
4.33
5.04
5.55
5.86
6.04
6.14
6.3
6.6
7.1
7.77
8.57
9.42
10.26
11.04
11.71
12.21
12.46
12.39
11.9
10.95
9.54
7.74
5.65
3.38
1.09
-1.12
-3.13
-4.84
-6.21
-7.22
-7.92
-8.4
-8.77
-9.12
-9.51
-9.99
-10.6
-11.41
-12.49
-13.82
-15.33
-16.8
-17.93
-18.37
-17.87
-16.31
-13.8
-10.59
-7.01
-3.43
-0.12
2.74
5.06
6.79
7.97
8.61
8.79
8.61
8.19
7.65
7.09
6.66
6.46
6.63
7.22
8.19
9.34
10.36
10.98
11.02
10.5
9.61
8.6
7.74
7.05
6.46
5.76
4.75
3.41
1.82
0.18
-1.31
-2.5
-3.43
-4.23
-5.13
-6.38
-8.15
-10.49
-13.32
-16.43
-19.44
-22.02
-23.93
-25.16
-25.96
-26.76
-28.03
-30.17
-33.49
-38.25
-44.83
-53.67
-65.25
-79.93
-97.89
-118.92
-142.25
-166.37
-188.77
-206.13
-214.9
-212.35
-197.44
-171.19
-136.36
-96.36
-54.36
-12.73
26.86
62.99
94.2
119.24
137.41
148.91
154.74
156.27
154.86
151.87
148.85
147.66
150.18
157.53
169.53
184.48
199.49
211.17
216.27
212.12
197.2
171.49
136.93
97.28
57.45
22.09
-5.76
-25.46
-38.64
-47.97
-55.89
-63.68
-71.47
-78.7
-84.77
-89.19
-91.28
-90.02
-84.05
-72.3
-54.69
-32.59
-8.53
14.67
34.69
50.36
61.36
67.81
69.71
67.03
60.01
49.49
36.99
24.21
12.51
2.49
-5.84
-12.7
-18.11
-21.69
-22.97
-21.71
-18.23
-13.27
-7.53
-1.18
6.29
15.58
26.86
39.18
50.26
57.21
57.54
50.14
35.55
15.81
-6.48
-28.71
-48.73
-64.95
-76.25
-82.01
-82.22
-77.7
-69.92
-60.75
-51.89
-44.49
-38.9
-34.77
-31.45
-28.33
-25.26
-22.46
-20.36
-19.3
-19.25
-19.84
-20.49
-20.54
-19.45
-16.89
-12.75
-7.34
-1.33
4.31
8.6
10.94
11.32
10.29
8.57
6.64
4.43
1.36
-3.24
-9.71
-17.77
-26.61
-35.24
-42.96
-49.57
-55.27
-60.45
-65.35
-69.77
-73.06
-74.23
-72.28
-66.65
-57.52
-46.02
-34.11
-24.25
-18.8
-19.4
-26.43
-38.76
-54.01
-69.16
-81.54
-89.55
-93
-92.75
-89.58
-83.16
-71.59
-51.84
-21.09
21.83
75.57
136.29
198.27
254.95
300.03
328.57
337.9
328.4
303.7
270.25
235.74
206.85
187.16
175.98
168.94
159.79
142.91
115.33
77.61
33.33
-12.41
-54.74
-90.23
-117.31
-135.73
-145.92
-148.52
-144.45
-135.07
-122.5
-109.2
-97.45
-88.75
-83.25
-79.94
-77.15
-73.35
-67.73
-60.55
-52.75
-45.5
-39.74
-35.74
-33.2
-31.52
-30.11
-28.72
-27.48
-26.86
-27.43
-29.67
-33.59
-38.7
-43.98
-48.17
-50.15
-49.37
-46.15
-41.56
-37.16
-34.26
-33.46
-34.39
-35.79
-36.04
-33.83
-28.63
-21.07
-12.78
-6.15
-3.77
-7.58
-17.87
-32.6
-47.31
-55.98
-52.85
-34.47
-1.39
41.59
86.52
124.59
148.68
155.41
145.84
124.68
98.47
73.28
52.79
37.5
25.11
12.08
-4.45
-25.37
-49.43
-74.18
-97.31
-117.63
-135.14
-150.34
-163.25
-172.84
-177.5
-175.97
-168.5
-156.97
-144.19
-132.35
-121.84
-110.83
-96.39
-76.21
-50.08
-20.3
9.2
34.7
54.33
68.64
79.95
90.94
103.3
117.26
131.95
146.18
159.21
170.91
181.63
191.81
201.62
210.94
219.47
226.79
232.4
235.67
236.01
233.05
226.72
217.17
204.54
188.85
169.91
147.68
122.52
95.47
68.11
42.2
19.1
-0.56
-16.89
-30.54
-42.21
-52.38
-61.17
-68.51
-74.21
-78.17
-80.41
-81.15
-80.84
-80.04
-79.39
-79.34
-80
-81.14
-82.24
-82.82
-82.6
-81.64
-80.15
-78.4
-76.6
-74.88
-73.32
-71.98
-70.93
-70.07
-69.17
-67.92
-66.02
-63.4
-60.21
-56.74
-53.22
-49.72
-46.14
-42.32
-38.17
-33.7
-29.07
-24.42
-19.85
-15.39
-11.11
-7.13
-3.7
-1.08
0.59
1.34
1.45
1.34
1.39
1.77
2.5
3.39
4.28
5.02
5.56
5.95
6.23
6.44
6.55
6.53
6.31
5.86
5.1
3.97
2.43
0.5
-1.7
-3.92
-5.92
-7.47
-8.45
-8.88
-8.9
-8.71
-8.59
-8.73
-9.24
-10.11
-11.3
-12.67
-14.07
-15.36
-16.37
-16.93
-16.81
-15.81
-13.94
-11.38
-8.5
-5.72
-3.34
-1.46
-0.04
1.09
2
2.66
2.95
2.79
2.22
1.42
0.68
0.2
0.09
0.37
0.99
1.91
3.1
4.47
5.85
7.05
7.81
7.98
7.56
6.64
5.45
4.14
2.85
1.62
0.43
-0.78
-2.01
-3.27
-4.53
-5.69
-6.73
-7.69
-8.71
-9.98
-11.64
-13.66
-15.88
-18.03
-19.87
-21.25
-22.11
-22.44
-22.14
-21.1
-19.19
-16.42
-13
-9.26
-5.66
-2.52
0
1.89
3.19
3.99
4.32
4.22
3.79
3.16
2.59
2.28
2.35
2.79
3.47
4.25
5.05
5.86
6.68
7.51
8.21
8.61
8.48
7.76
6.43
4.59
2.38
-0.1
-2.79
-5.66
-8.65
-11.67
-14.6
-17.33
-19.82
-22.09
-24.25
-26.42
-28.7
-31.12
-33.65
-36.14
-38.39
-40.13
-41.1
-41.14
-40.24
-38.59
-36.54
-34.49
-32.79
-31.72
-31.39
-31.84
-33.07
-35.1
-37.88
-41.29
-45.14
-49.06
-52.6
-55.16
-56.03
-54.44
-49.68
-41.3
-29.23
-13.87
3.98
23.2
42.51
60.58
76.2
88.33
96.32
100.01
99.83
96.73
91.89
86.44
81.14
76.35
72.06
68.08
64.18
60.14
55.82
51.13
45.96
40.33
34.4
28.4
22.59
17.18
12.22
7.67
3.56
-0.06
-3.01
-5.12
-6.32
-6.68
-6.39
-5.68
-4.82
-3.95
-3.16
-2.39
-1.54
-0.46
0.93
2.57
4.34
6.03
7.58
9.01
10.5
12.17
13.98
15.7
16.89
17.11
15.95
13.02
7.87
0.09
-10.58
-23.89
-38.98
-54.51
-69
-81.34
-91.03
-98.11
-102.75
-104.95
-104.49
-101.24
-95.58
-88.52
-81.62
-76.32
-73.44
-72.78
-73.12
-72.69
-69.63
-62.72
-51.74
-37.82
-23.1
-10.05
-0.61
4.78
7.37
9.48
13.36
20.33
30.18
41.48
52.35
60.97
65.87
65.7
59.38
46.77
29.72
12.4
0.45
-1.04
10.21
32.53
60.86
88.92
111.54
126.1
132.54
132.15
126.17
115.11
98.86
77.49
52.27
26.1
3.01
-12.82
-18.31
-12.73
1.87
21.28
40.48
55.27
63.41
64.76
60.63
52.82
42.99
32.36
21.91
12.61
5.32
0.64
-1.34
-1.06
0.4
1.67
1.57
-0.55
-4.43
-8.94
-12.54
-13.86
-12.32
-8.52
-3.97
-0.31
1.63
2.46
3.99
8.48
17.41
30.62
46.29
61.75
74.66
83.98
90.16
94.5
98.31
102.07
105.22
106.64
105.24
100.43
92.36
81.62
68.67
53.35
34.91
12.38
-14.51
-44.63
-75.18
-102.2
-121.88
-131.94
-132.32
-124.69
-111.67
-95.74
-78.86
-62.66
-48.41
-36.97
-27.92
-19.1
-7.32
10.08
33.21
58.75
80.94
94.07
94.95
84.18
65.3
42.56
18.99
-4.3
-27.6
-51.21
-74.5
-95.73
-112.32
-121.77
-122.51
-114.34
-98.53
-77.66
-54.8
-32.35
-11.59
7.3
24.28
38.5
48.37
52.39
50.46
44.8
39.38
38.1
42.93
53.13
66.25
80.23
94.88
111.53
131.11
151.99
169.06
175.42
165.58
138.47
98.5
53.93
13.56
-16.51
-34.47
-42.2
-43.31
-41.01
-37.12
-32.21
-26.58
-21.01
-16.95
-16.03
-19.25
-26.27
-35.45
-44.54
-51.54
-55.54
-56.9
-56.91
-57
-58.04
-59.97
-61.89
-62.56
-61.05
-57.05
-51.02
-44
-37.08
-31.12
-26.51
-23.25
-21.16
-20.09
-20.03
-21.02
-23.05
-25.94
-29.32
-32.73
-35.74
-38.08
-39.66
-40.53
-40.86
-40.83
-40.65
-40.47
-40.25
-39.79
-38.75
-36.82
-33.88
-30.06
-25.79
-21.55
-17.83
-14.91
-12.78
-11.33
-10.33
-9.62
-9.14
-8.91
-8.92
-9.05
-9.06
-8.59
-7.35
-5.22
-2.36
0.87
3.99
6.62
8.57
9.82
10.5
10.75
10.68
10.37
9.84
9.11
8.31
7.53
6.88
6.43
6.15
5.91
5.51
4.77
3.57
1.97
0.16
-1.62
-3.17
-4.43
-5.51
-6.64
-8.06
-9.91
-12.08
-14.33
-16.17
-17.12
-16.89
-15.44
-13.2
-10.88
-9.22
-8.62
-9.05
-10.01
-10.87
-11.18
-10.81
-10.06
-9.31
-8.95
-9.13
-10.1
-12.02
-14.75
-17.54
-18.93
-17.36
-11.89
-3.14
6.68
14.42
17.35
14.34
6.22
-4.87
-16.67
-27.79
-38
-47.73
-57.34
-66.71
-75.4
-83.01
-89.6
-95.65
-101.65
-107.74
-113.58
-118.41
-121.18
-120.47
-114.44
-100.88
-77.8
-44.32
-1.52
47.44
98.11
145.86
187.09
219.69
242.82
256.47
261.06
257.61
248.07
235.25
221.99
209.86
198.39
185.18
167.24
142.62
111.39
75.85
39.55
6
-22.27
-43.93
-58.68
-66.7
-68.65
-65.77
-59.97
-53.65
-49.11
-47.82
-49.97
-54.62
-60.04
-64.47
-66.62
-65.97
-62.82
-58.07
-52.82
-48.05
-44.38
-41.92
-40.44
-39.48
-38.56
-37.29
-35.44
-32.99
-30.11
-27.19
-24.71
-23.14
-22.81
-23.7
-25.51
-27.77
-29.95
-31.59
-32.49
-32.47
-31.53
-29.67
-26.93
-23.5
-19.67
-15.85
-12.42
-9.72
-7.93
-7.11
-7.22
-8.15
-9.79
-11.89
-14.17
-16.33
-18.2
-19.73
-21.06
-22.41
-23.91
-25.74
-27.92
-30.49
-33.49
-36.93
-40.84
-45.17
-49.77
-54.27
-58.32
-61.49
-63.46
-64.03
-63.04
-60.34
-55.55
-48.09
-37.18
-22.29
-3.42
18.49
41.51
63.03
80.08
90.06
91.26
83.45
67.92
47.34
25.08
4.25
-12.97
-25.72
-34.27
-39.54
-42.41
-43.54
-43.22
-41.7
-39.22
-35.75
-30.82
-23.46
-12.58
2.49
21.61
43.88
68.02
92.89
117.64
141.39
162.76
179.69
189.93
192.25
187.34
177.96
167.9
160.18
155.51
151.99
146.26
135.47
118.86
98.32
77.17
58.51
43.8
32.4
22.48
12.43
1.8
-8.75
-18.07
-25.46
-31.08
-35.8
-40.55
-45.8
-51.32
-56.38
-60.3
-62.7
-63.72
-63.86
-63.69
-63.64
-63.88
-64.25
-64.35
-63.7
-61.91
-58.84
-54.68
-49.97
-45.34
-41.32
-38.1
-35.52
-33.24
-30.95
-28.55
-26.27
-24.42
-23.32
-22.94
-22.92
-22.63
-21.47
-19.02
-15.21
-10.36
-4.95
0.49
5.57
10.07
13.9
16.92
18.91
19.53
18.5
15.76
11.59
6.52
1.23
-3.67
-7.84
-11.05
-13.32
-14.73
-15.49
-15.85
-16.12
-16.56
-17.31
-18.33
-19.38
-20.19
-20.56
-20.38
-19.62
-18.27
-16.35
-13.93
-11.23
-8.6
-6.49
-5.24
-4.89
-5.2
-5.65
-5.72
-5.14
-4.03
-2.81
-2.01
-1.93
-2.52
-3.42
-4.16
-4.4
-4.1
-3.54
-3.12
-3.15
-3.68
-4.55
-5.5
-6.25
-6.73
-6.99
-7.15
-7.3
-7.48
-7.69
-8.02
-8.61
-9.44
-10.13
-9.76
-7.08
-1.09
8.43
20.6
33.61
45.38
54.26
59.42
60.78
58.65
53.3
44.98
34.11
21.64
9.03
-2.1
-10.5
-15.76
-18.39
-19.57
-20.5
-22
-24.26
-26.93
-29.5
-31.59
-33.3
-35.18
-38.01
-42.41
-48.49
-55.63
-62.38
-66.72
-66.46
-59.7
-45.25
-22.89
6.29
39.81
73.87
103.85
125.24
134.83
131.64
117.28
95.48
70.66
46.6
25.42
7.55
-7.57
-20.58
-31.53
-40.05
-45.78
-48.98
-50.52
-51.47
-52.55
-53.63
-53.94
-52.54
-49
-43.76
-38.06
-33.32
-30.57
-30.08
-31.31
-33.3
-35.15
-36.29
-36.59
-36.09
-34.79
-32.52
-29.18
-24.8
-19.81
-14.8
-10.3
-6.42
-2.68
1.85
8.09
16.37
26.03
35.39
42.21
44.32
40.29
29.84
13.95
-5.38
-25.56
-44.02
-58.79
-68.85
-74.29
-76.06
-75.5
-73.68
-70.72
-65.62
-56.61
-42.16
-22
2.35
27.76
50.56
67.73
77.77
80.86
78.2
71.5
62.7
54.24
49.1
50.3
59.77
77.09
98.92
119.8
133.97
137.31
128.52
109.02
81.86
50.4
17.5
-14.76
-44.68
-70.64
-91.22
-105.46
-113.28
-115.63
-114.3
-111.63
-109.87
-110.78
-115.07
-122.29
-130.83
-138.13
-141.25
-137.66
-126.09
-107.17
-83.29
-57.71
-33.01
-9.93
12.94
38.31
68.57
104.33
143.73
183
217.6
243.43
257.84
259.74
249.62
229.41
202.22
171.95
142.64
117.56
98.39
85.12
76.22
69.43
62.56
54.2
43.91
32.16
19.91
8.2
-2.27
-11.27
-18.98
-25.8
-32.12
-38.21
-44.23
-50.3
-56.49
-62.78
-69.12
-75.33
-81.24
-86.61
-91.24
-94.86
-97.04
-97.17
-94.61
-89.02
-80.77
-71.19
-62.3
-56.2
-54.31
-56.71
-62.32
-69.46
-76.76
-83.51
-89.69
-95.31
-99.99
-103.21
-104.78
-105.19
-105.18
-104.86
-102.85
-96.53
-83.13
-61.52
-33.3
-2.36
26.83
51.42
71.35
88.81
106.55
126.13
147.07
167.29
184.46
197.01
204.65
207.9
207.41
203.56
196.52
186.54
174.37
161.37
149.09
138.74
130.75
124.61
119.21
113.2
105.42
95.21
82.42
67.28
50.2
31.64
12.11
-7.82
-27.48
-46.17
-63.17
-78.01
-90.41
-100.3
-107.63
-112.38
-114.6
-114.46
-112.4
-108.97
-104.85
-100.56
-96.41
-92.44
-88.48
-84.37
-80.05
-75.61
-71.24
-67.16
-63.43
-59.94
-56.44
-52.66
-48.49
-43.98
-39.32
-34.7
-30.19
-25.77
-21.26
-16.49
-11.28
-5.55
0.66
7.2
13.86
20.41
26.74
32.75
38.37
43.37
47.23
49.18
48.36
44.04
35.96
24.37
10.02
-5.92
-22.14
-37.37
-50.53
-60.92
-68.29
-72.78
-74.71
-74.45
-72.17
-67.84
-61.34
-52.65
-42.05
-30.14
-17.73
-5.56
5.98
16.89
27.41
37.65
47.24
55.17
59.99
60.15
54.57
42.93
25.87
4.76
-18.55
-42.03
-63.9
-82.79
-97.96
-109.13
-116.48
-120.35
-121.25
-119.94
-117.46
-115.09
-114.16
-115.68
-120.07
-126.97
-135.18
-142.76
-147.37
-146.49
-138.14
-121.48
-97.45
-68.75
-39.22
-12.71
8.14
22.49
31.6
38.08
44.98
54.7
68.42
86
106.39
128.31
150.49
171.88
191.3
207.35
218.48
223.48
221.95
214.76
203.77
191.12
178.42
166.12
153.66
140.14
124.98
108.29
90.88
73.86
58.18
44.37
32.49
22.34
13.8
6.89
1.7
-1.83
-4.04
-5.65
-7.46
-10.15
-13.95
-18.66
-23.7
-28.4
-32.2
-34.79
-36.17
-36.62
-36.5
-36.18
-35.88
-35.65
-35.33
-34.69
-33.52
-31.73
-29.32
-26.4
-23.11
-19.57
-15.94
-12.35
-8.89
-5.59
-2.42
0.69
3.81
6.91
9.89
12.59
14.84
16.44
17.27
17.22
16.31
14.58
12.13
9.05
5.33
0.96
-4.08
-9.52
-14.84
-19.36
-22.53
-24.16
-24.57
-24.4
-24.28
-24.51
-24.93
-25.15
-24.84
-24.01
-23.03
-22.4
-22.58
-23.72
-25.86
-28.89
-32.84
-37.77
-43.63
-50.02
-56.04
-60.56
-62.75
-62.64
-61.44
-61.27
-64.32
-71.74
-82.88
-95.2
-105.35
-110.33
-108.62
-100.4
-87.07
-70.56
-52.82
-35.78
-21.26
-10.78
-5.03
-3.25
-3.01
-0.83
6.86
22.64
47.44
80.68
120.66
164.98
210.66
254.17
291.68
319.59
335.27
337.5
326.57
303.96
271.84
232.62
188.75
142.63
96.64
53.02
13.65
-20.25
-48.13
-70.04
-86.47
-98.14
-105.86
-110.45
-112.68
-113.23
-112.62
-111.16
-108.97
-106.08
-102.51
-98.31
-93.59
-88.45
-82.94
-77.07
-70.86
-64.45
-58.08
-52.16
-47.03
-42.93
-39.89
-37.7
-36.01
-34.41
-32.61
-30.46
-28.02
-25.43
-22.85
-20.37
-18.07
-16.08
-14.61
-13.92
-14.13
-15.13
-16.47
-17.57
-17.88
-17.12
-15.4
-13.12
-10.78
-8.74
-7.02
-5.21
-2.55
1.88
8.8
18.31
29.54
40.66
49.27
53.05
50.48
41.35
26.81
9.01
-9.51
-26.43
-40.04
-49.41
-54.33
-55.15
-52.63
-47.76
-41.71
-35.63
-30.51
-26.98
-25.2
-24.89
-25.54
-26.65
-27.94
-29.49
-31.57
-34.43
-37.88
-41.12
-42.66
-40.8
-34.26
-22.93
-8.22
7.42
21.36
31.81
38.29
41.39
41.85
39.93
35.3
27.55
16.97
4.77
-7.32
-17.97
-26.87
-34.7
-42.35
-49.96
-56.68
-61.1
-62.19
-59.82
-54.66
-47.4
-37.99
-25.65
-9.55
10.24
32.12
53.31
71.01
83.59
91.22
95.59
98.82
102.4
106.61
110.76
113.86
115.27
114.87
112.83
109.12
103.08
93.65
79.83
61.48
39.94
17.98
-1.02
-14.16
-20.19
-19.92
-15.97
-11.62
-9.73
-11.73
-17.45
-25.62
-34.7
-43.57
-51.94
-60.12
-68.54
-77.3
-86.08
-94.25
-101.51
-108.07
-114.61
-122.03
-130.58
-139.52
-147.18
-151.5
-150.83
-144.54
-133.01
-117.3
-98.76
-78.92
-59.8
-44.06
-34.72
-34.07
-42.48
-57.7
-75.32
-90.35
-98.94
-99.63
-93.23
-81.62
-66.47
-48.68
-28.7
-7.49
13.02
30.41
42.84
50.22
54.65
59.46
67.74
80.79
97.64
115.49
131.3
143.13
150.87
155.9
160
164.12
167.84
169.62
167.49
160.18
147.46
130.09
109.35
86.52
62.94
40.28
20.73
6.72
0.16
1.43
9.07
20.32
32.26
43
52.21
60.76
69.74
79.68
90.15
99.99
107.86
112.78
114.27
112.24
106.76
97.98
86.19
71.91
55.93
39.21
22.63
6.98
-7.26
-19.9
-31.01
-40.85
-49.71
-57.73
-64.83
-70.87
-75.73
-79.61
-83.01
-86.56
-90.75
-95.5
-100.16
-103.77
-105.56
-105.37
-103.83
-102.02
-100.91
-101.1
-102.53
-104.59
-106.5
-107.62
-107.77
-107.32
-107.35
-109.33
-114.9
-124.97
-138.78
-153.53
-164.79
-167.79
-158.98
-137.31
-104.53
-64.7
-22.88
16.14
48.87
73.31
88.87
95.91
95.28
87.98
74.91
57.11
35.88
13.16
-8.28
-25.14
-34.24
-33.22
-21.19
1.01
31.11
65.75
100.98
132.95
158.26
174.41
180.22
176.14
164.16
147.42
129.33
112.72
99.3
89.44
82.3
76.43
70.47
63.47
55.19
46.03
36.75
28.25
21.06
15.19
10.07
4.76
-1.72
-10.08
-20.43
-32.19
-44.09
-54.53
-61.98
-65.57
-65.53
-63.16
-60.37
-58.93
-59.77
-62.74
-66.86
-70.83
-73.6
-74.69
-73.99
-71.6
-67.63
-62.23
-55.67
-48.47
-41.28
-34.73
-29.3
-25.14
-22.06
-19.67
-17.55
-15.3
-12.7
-9.77
-6.68
-3.72
-1.08
1.2
3.25
5.28
7.44
9.72
11.95
13.93
15.49
16.64
17.59
18.65
20.22
22.59
25.82
29.74
33.98
38.01
41.36
43.67
44.74
44.58
43.4
41.49
39.21
36.96
34.98
33.38
32.08
30.81
29.3
27.33
24.79
21.77
18.48
15.07
11.68
8.42
5.31
2.43
-0.2
-2.56
-4.66
-6.47
-7.98
-9.04
-9.47
-9.09
-7.81
-5.78
-3.31
-0.86
1.25
2.81
3.88
4.62
5.15
5.59
5.97
6.35
6.78
7.3
7.91
8.53
9.03
9.25
9.13
8.76
8.28
7.84
7.52
7.29
7.1
6.81
6.29
5.49
4.44
3.23
2.01
0.88
-0.09
-0.9
-1.59
-2.32
-3.19
-4.41
-6.08
-8.25
-10.83
-13.61
-16.32
-18.59
-20.13
-20.68
-20.16
-18.63
-16.26
-13.33
-10.16
-6.98
-3.92
-1.09
1.45
3.59
5.26
6.44
7.21
7.73
8.14
8.54
8.93
9.3
9.61
9.89
10.18
10.45
10.65
10.68
10.47
10.04
9.46
8.8
8.11
7.38
6.52
5.5
4.29
2.94
1.51
0.13
-1.11
-2.15
-2.96
-3.66
-4.42
-5.45
-6.92
-8.88
-11.23
-13.73
-16.04
-17.78
-18.71
-18.76
-18.05
-16.83
-15.35
-13.75
-12.08
-10.31
-8.45
-6.67
-5.22
-4.37
-4.33
-5.01
-6.14
-7.33
-8.17
-8.36
-7.83
-6.75
-5.48
-4.51
-4.21
-4.7
-5.75
-6.73
-6.93
-5.8
-3.16
0.63
4.74
8.14
9.88
9.38
6.71
2.69
-1.18
-2.99
-1.26
4.48
13.19
22.59
29.9
33
30.96
24.17
13.75
0.68
-14.53
-31.72
-50.59
-70.3
-89.39
-105.9
-117.74
-122.83
-119.57
-107.04
-85.52
-56.71
-23.4
11.06
43.44
70.92
91.07
101.55
100.31
86.09
59.01
20.82
-25.47
-76.18
-127.34
-174.7
-213.76
-240.07
-250.36
-243.61
-221.63
-188.36
-148.38
-105.33
-61.25
-17.07
26.58
68.67
107.88
142.9
172.68
196.35
213.1
222.11
222.99
216.3
203.36
185.85
164.96
140.98
113.58
82.59
48.68
13.37
-21.43
-54.02
-83.09
-107.29
-124.89
-133.96
-133.13
-122.38
-103.41
-79.3
-53.56
-29.11
-7.7
10.09
24.56
36.28
46.04
54.8
63.59
73.26
84.19
96.08
108
118.71
126.95
131.9
133.34
131.61
127.52
121.97
115.76
109.34
102.73
95.69
88.02
79.74
71.23
62.98
55.24
47.95
40.67
32.94
24.53
15.6
6.47
-2.54
-11.37
-20.28
-29.73
-40.03
-51.15
-62.48
-72.92
-81.03
-85.31
-84.53
-78.1
-66.26
-50.03
-31
-10.95
8.34
25.28
38.62
47.54
51.65
50.95
45.72
36.34
23.43
7.95
-8.63
-24.41
-37.42
-46.1
-49.69
-48.48
-43.56
-36.4
-28.26
-20.09
-12.31
-5.17
1.08
6.04
9.27
10.31
8.91
5.17
-0.62
-8.03
-16.62
-25.7
-34
-39.8
-41.3
-37.52
-28.89
-17.48
-6.27
1.97
5.63
4.93
1.38
-3.05
-7.05
-10.56
-14.56
-20.39
-28.78
-39.4
-50.75
-60.89
-68.06
-71.26
-70.28
-65.44
-57.15
-45.7
-31.3
-14.37
4.02
22.16
37.85
48.89
53.71
51.69
43.47
30.8
16.21
2.3
-8.66
-15.17
-16.64
-13.09
-5.12
6.31
19.76
33.63
46.44
57.29
66.01
72.88
78.05
80.95
80.3
74.81
64.3
50.61
37.37
28.71
27.4
33.58
44.65
56.7
66.35
72.08
74.42
74.79
74.14
72.09
67.31
58.5
45.54
29.87
13.93
0.08
-10.2
-16.79
-20.61
-23.01
-25.05
-27.07
-28.79
-29.8
-30
-29.76
-29.82
-30.91
-33.39
-37.07
-41.25
-44.97
-47.34
-47.85
-46.65
-44.48
-42.48
-41.83
-43.37
-47.38
-53.59
-61.45
-70.34
-79.73
-89
-97.26
-103.39
-106.37
-105.71
-101.61
-94.89
-86.35
-76.31
-64.32
-49.43
-30.93
-8.91
15.43
40.15
63.05
82.3
96.8
106.32
111.37
112.99
112.42
110.64
108.13
104.83
100.29
93.96
85.43
74.55
61.41
46.38
30.18
13.84
-1.28
-13.85
-22.92
-28.33
-30.66
-31.05
-30.64
-30.33
-30.56
-31.33
-32.43
-33.44
-34.03
-33.95
-33.14
-31.69
-29.88
-27.96
-26.16
-24.64
-23.45
-22.64
-22.28
-22.39
-22.88
-23.7
-24.72
-25.88
-27.15
-28.49
-29.78
-30.85
-31.41
-31.21
-30.15
-28.28
-25.85
-23.24
-20.75
-18.61
-16.85
-15.4
-14.1
-12.85
-11.6
-10.36
-9.14
-7.92
-6.66
-5.3
-3.78
-2.12
-0.43
1.15
2.42
3.24
3.59
3.55
3.27
2.96
2.78
2.75
2.84
2.87
2.71
2.27
1.54
0.55
-0.65
-2.06
-3.69
-5.52
-7.51
-9.52
-11.39
-12.94
-14.11
-14.91
-15.36
-15.49
-15.23
-14.42
-12.9
-10.6
-7.58
-4.09
-0.55
2.7
5.34
7.28
8.51
9.14
9.28
9.04
8.52
7.87
7.26
6.82
6.68
6.83
7.23
7.79
8.43
9.11
9.73
10.15
10.19
9.72
8.73
7.36
5.86
4.52
3.53
2.89
2.47
2
1.3
0.33
-0.79
-1.87
-2.77
-3.48
-4.19
-5.12
-6.47
-8.25
-10.34
-12.45
-14.27
-15.55
-16.12
-15.85
-14.72
-12.8
-10.29
-7.54
-4.89
-2.6
-0.79
0.61
1.78
2.91
4.09
5.29
6.44
7.48
8.38
9.19
9.94
10.65
11.34
11.96
12.47
12.81
12.97
12.98
12.87
12.66
12.36
11.93
11.3
10.4
9.16
7.61
5.91
4.31
3.06
2.29
1.99
1.94
1.85
1.45
0.64
-0.54
-1.93
-3.43
-4.97
-6.59
-8.33
-10.13
-11.86
-13.35
-14.44
-15.02
-15.07
-14.53
-13.42
-11.74
-9.49
-6.83
-3.95
-1.12
1.43
3.53
5.18
6.42
7.35
8.02
8.44
8.59
8.56
8.49
8.55
8.94
9.65
10.59
11.53
12.32
12.83
13.12
13.27
13.32
13.26
13.01
12.46
11.56
10.37
9.05
7.79
6.8
6.22
6.12
6.43
6.96
7.46
7.66
7.37
6.5
5.1
3.28
1.22
-0.97
-3.14
-5.18
-7.07
-8.8
-10.48
-12.23
-14.15
-16.11
-17.86
-18.97
-19.05
-17.9
-15.56
-12.34
-8.67
-5
-1.6
1.36
3.83
5.73
6.96
7.45
7.13
6.12
4.67
3.21
2.17
1.9
2.52
3.91
5.81
7.82
9.66
11.11
12.12
12.7
12.86
12.63
12.03
11.15
10.08
9.03
8.16
7.56
7.16
6.76
6.13
5.07
3.56
1.74
-0.11
-1.74
-3
-3.89
-4.56
-5.22
-6.06
-7.22
-8.73
-10.5
-12.44
-14.36
-16.03
-17.24
-17.78
-17.6
-16.74
-15.45
-13.98
-12.58
-11.4
-10.46
-9.63
-8.8
-7.91
-6.96
-6.02
-5.15
-4.33
-3.49
-2.6
-1.69
-0.87
-0.35
-0.32
-0.9
-2.11
-3.8
-5.63
-7.22
-8.24
-8.52
-8.26
-7.98
-8.35
-9.93
-12.83
-16.64
-20.54
-23.76
-25.88
-27.1
-28.21
-30.23
-34.03
-39.89
-47.44
-55.95
-64.75
-73.65
-83.03
-93.58
-105.78
-119.65
-134.73
-150.3
-165.58
-179.62
-191.03
-197.93
-198.19
-190.09
-172.94
-147.24
-114.34
-75.56
-31.68
17.04
70.14
126.14
181.85
232.53
272.94
298.78
307.9
300.81
280.14
249.56
212.66
172.5
131.67
92.88
59.22
33.96
19.81
17.98
27.6
45.86
68.64
91.39
109.94
121.38
124.63
120.76
112.61
103.83
97.41
94.57
94.54
95.18
94.15
89.85
81.81
70.44
56.58
40.98
24.3
7.19
-9.53
-24.83
-37.8
-47.99
-55.55
-61.23
-66.22
-71.68
-78.33
-86.19
-94.39
-101.32
-104.96
-103.43
-95.51
-81.07
-60.94
-36.42
-8.78
21.1
52.45
83.97
113.37
137.36
152.35
155.78
147.07
128.01
102.08
73.22
44.65
18.35
-4.83
-24.61
-40.76
-52.98
-61.09
-65.41
-66.82
-66.75
-66.57
-67.24
-68.97
-71.33
-73.51
-74.82
-74.85
-73.65
-71.54
-68.89
-65.97
-62.84
-59.41
-55.63
-51.52
-47.24
-43.04
-39.14
-35.68
-32.69
-30.08
-27.66
-25.3
-22.93
-20.52
-18.15
-15.86
-13.64
-11.47
-9.3
-7.15
-5.11
-3.35
-1.95
-0.96
-0.28
0.21
0.61
0.94
1.11
1.05
0.67
-0.04
-1.05
-2.33
-3.82
-5.43
-7.05
-8.55
-9.85
-11.01
-12.18
-13.61
-15.46
-17.68
-20.03
-22.14
-23.66
-24.43
-24.53
-24.14
-23.53
-22.9
-22.35
-22.01
-22.02
-22.55
-23.77
-25.7
-28.25
-31.22
-34.37
-37.46
-40.39
-43.14
-45.85
-48.74
-52.07
-56.09
-60.97
-66.77
-73.37
-80.47
-87.59
-94.07
-99.18
-102.38
-103.35
-102.07
-98.54
-92.4
-82.7
-67.95
-46.71
-18.46
15.75
53.05
89.21
119.69
140.93
151.17
150.81
142.04
128.1
112.5
98.56
88.98
85.51
88.47
96.47
106.36
113.93
115.18
107.8
92.09
70.86
48.15
27.51
10.57
-3.15
-15.26
-26.91
-37.48
-44.4
-44.29
-34.56
-14.87
12.81
45.09
78.74
111.42
141.61
167.84
187.9
199.06
199.44
189.49
172.64
154.38
139.99
132
129.11
126.81
119.42
102.62
74.98
38.19
-3.99
-47.18
-87.71
-123.22
-152.73
-176.05
-193.37
-204.99
-211.4
-213.46
-212.5
-210.11
-207.36
-204.08
-198.35
-186.97
-166.85
-136.59
-97.56
-53.75
-10.53
27.22
56.38
76.03
86.97
90.65
88.48
81.61
71.21
58.68
45.8
34.27
25.36
19.52
16.38
14.94
14.04
12.74
10.51
7.43
3.96
0.79
-1.51
-2.77
-3.3
-3.82
-5.21
-8.18
-12.9
-18.94
-25.45
-31.45
-36.33
-39.97
-42.75
-45.22
-47.77
-50.55
-53.61
-57.03
-60.84
-64.83
-68.26
-70.08
-69.38
-66.18
-61.62
-57.69
-56.27
-58.06
-62.25
-66.85
-69.75
-69.59
-66.25
-60.31
-52.38
-42.44
-29.74
-13.56
6.15
28.06
49.64
67.81
80.28
86.63
88.77
90.42
95.61
107.05
124.85
146.42
167.48
183.74
192.32
192.44
185.18
172.39
155.71
136.08
113.88
89.61
64.55
40.7
20.21
4.57
-6.21
-13.53
-19.56
-26.23
-34.37
-43.69
-53.17
-61.84
-69.18
-75.18
-79.98
-83.5
-85.46
-85.52
-83.69
-80.33
-76.11
-71.59
-67.06
-62.43
-57.35
-51.53
-44.9
-37.68
-30.32
-23.45
-17.65
-13.44
-11.14
-10.81
-12.17
-14.65
-17.52
-20.06
-21.7
-22.17
-21.5
-19.96
-17.98
-16.14
-14.97
-14.92
-16.13
-18.38
-21.08
-23.5
-25.04
-25.43
-24.84
-23.62
-22.13
-20.42
-18.2
-15.01
-10.39
-4.18
3.6
12.65
22.67
33.3
44.19
54.89
64.75
72.99
78.74
81.24
80.02
75.06
66.73
55.79
43.24
30.09
17.4
6.05
-3.22
-9.9
-13.77
-14.9
-13.73
-10.96
-7.44
-3.99
-1.22
0.57
1.36
1.33
0.77
-0.16
-1.32
-2.7
-4.11
-5.33
-6.15
-6.42
-6.19
-5.67
-5.11
-4.66
-4.39
-4.18
-3.98
-3.83
-3.87
-4.3
-5.25
-6.79
-8.91
-11.57
-14.66
-18
-21.26
-24.04
-25.95
-26.77
-26.54
-25.49
-23.98
-22.31
-20.65
-19.06
-17.45
-15.78
-14.06
-12.4
-11.02
-10.09
-9.63
-9.43
-9.1
-8.13
-6.2
-3.32
0.12
3.44
5.93
7.13
6.99
5.85
4.34
3.13
2.78
3.65
5.85
9.24
13.46
17.99
22.19
25.49
27.43
27.77
26.62
24.24
21.09
17.73
14.73
12.64
11.98
13.21
16.69
22.61
30.65
39.84
48.58
54.91
57.11
54.41
47.39
37.86
28.34
20.99
17
16.24
17.57
19.59
21.21
21.97
21.89
21.16
19.84
17.87
15.14
11.69
7.84
4.14
1.11
-0.95
-2.13
-2.86
-3.69
-5.04
-7.09
-9.57
-11.96
-13.65
-14.29
-13.83
-12.62
-11.1
-9.65
-8.46
-7.55
-6.93
-6.73
-7.19
-8.41
-10.35
-12.64
-14.86
-16.69
-18.11
-19.39
-20.97
-23.15
-25.99
-29.27
-32.55
-35.34
-37.24
-37.96
-37.41
-35.61
-32.74
-29.08
-25.04
-21.06
-17.61
-15.05
-13.56
-13.1
-13.4
-14.01
-14.54
-14.68
-14.3
-13.35
-11.84
-9.79
-7.22
-4.23
-0.99
2.27
5.25
7.75
9.66
10.96
11.73
12.08
12.13
11.97
11.75
11.59
11.59
11.77
12.1
12.53
12.97
13.38
13.69
13.8
13.57
12.79
11.35
9.23
6.54
3.46
0.26
-2.75
-5.25
-6.94
-7.63
-7.25
-5.94
-3.98
-1.72
0.51
2.55
4.36
5.97
7.41
8.73
9.82
10.62
11.04
11.06
10.78
10.33
9.89
9.54
9.33
9.26
9.36
9.66
10.15
10.78
11.36
11.7
11.64
11.18
10.49
9.79
9.27
9
8.97
9.11
9.36
9.68
9.98
10.14
10.05
9.55
8.56
7.13
5.34
3.37
1.42
-0.3
-1.63
-2.42
-2.61
-2.21
-1.23
0.3
2.38
5.04
8.28
11.99
16.05
20.2
24.26
28.08
31.62
34.87
37.81
40.48
42.98
45.59
48.66
52.49
57.13
62.17
66.94
70.65
72.78
73.25
72.29
70.21
67.07
62.64
56.48
48.25
37.91
25.76
12.33
-1.83
-16.24
-30.53
-44.26
-56.93
-67.97
-76.99
-83.88
-88.99
-92.98
-96.65
-100.72
-105.54
-110.97
-116.39
-120.86
-123.53
-123.83
-121.75
-117.78
-112.69
-107.1
-101.13
-94.28
-85.69
-74.72
-61.46
-47.1
-33.67
-23.37
-17.59
-16.4
-18.62
-22.72
-27.69
-33.67
-41.79
-53.39
-69.22
-89.02
-111.61
-135.01
-156.55
-172.74
-179.61
-173.53
-152.6
-117.69
-72.72
-23.67
23.4
64.13
96.65
121.22
139.4
152.83
162.55
168.77
170.88
167.91
159.18
144.8
126.23
106.13
87.57
72.9
63.15
57.96
56.3
57.33
60.71
66.45
74.37
83.72
93.29
102.09
109.6
115.8
120.72
123.97
124.6
121.43
113.47
100.19
81.91
59.43
34.07
7.69
-17.06
-36.93
-48.6
-49.69
-39.44
-18.84
9.84
43.91
80.54
116.61
148.3
171.08
180.47
173.44
149.71
112.14
66.06
17.72
-27.24
-64.6
-91.59
-106.82
-110.15
-103.07
-88.82
-72.08
-58.01
-50.92
-53.13
-64.39
-82.2
-102.79
-122.37
-138.26
-149.49
-156.76
-161.88
-166.97
-173.36
-180.9
-187.88
-191.52
-188.85
-177.58
-156.77
-127.03
-90.24
-49
-6.15
35.51
73.15
104.03
125.93
137.84
140.58
136.82
130.18
123.83
119.18
115.47
110.52
102.1
89.43
73.68
57.59
44.27
35.89
32.95
34.31
37.66
40.37
40.25
36.1
27.87
16.53
3.59
-9.35
-21.03
-30.49
-37.11
-40.45
-40.44
-37.59
-33.21
-29.18
-27.34
-28.71
-32.79
-37.69
-40.83
-40.03
-34.45
-25
-13.91
-3.92
2.59
4.15
0.41
-7.99
-19.7
-32.78
-45.01
-54.09
-58.12
-56.06
-48.13
-35.89
-21.86
-8.86
0.7
5.39
4.98
0.38
-6.77
-14.61
-21.51
-26.35
-28.62
-28.41
-26.22
-22.79
-18.88
-15.13
-11.98
-9.6
-8.01
-7.09
-6.67
-6.63
-6.89
-7.4
-8.09
-8.76
-9.14
-8.89
-7.79
-5.77
-3.08
-0.18
2.35
4
4.56
4.11
2.91
1.38
-0.14
-1.44
-2.54
-3.58
-4.72
-6.05
-7.46
-8.8
-9.98
-11.11
-12.58
-14.87
-18.24
-22.54
-27.17
-31.32
-34.15
-34.84
-32.63
-26.82
-16.98
-3.36
12.89
29.82
45.13
56.83
63.83
65.91
63.6
57.77
49.46
39.9
30.61
23.15
18.73
17.71
19.48
22.7
26
28.45
29.8
30.27
30.1
29.24
27.33
24.02
19.3
13.73
8.14
3.28
-0.47
-2.96
-3.93
-2.69
1.48
8.63
17.43
25.03
28.01
23.94
12.79
-2.79
-18.43
-30
-35.43
-35.35
-32.65
-31.11
-33.73
-41.77
-54.55
-69.85
-84.65
-95.73
-100.13
-95.71
-81.61
-58.68
-29.68
0.97
28.06
46.82
54.29
50.24
37.14
19.31
1.53
-12.52
-21.17
-24.74
-24.74
-22.74
-19.48
-14.82
-8.23
0.62
11.4
23.59
37.11
52.6
70.94
92.18
114.64
134.94
149.26
154.93
151.76
141.81
128.24
113.56
98.72
83.25
66.49
48.83
32.04
18.6
10.32
7.16
7.13
7.22
4.77
-1.44
-11.03
-22.76
-35.43
-48.58
-62.17
-76.02
-89.37
-100.97
-109.83
-115.78
-119.57
-122.08
-123.43
-122.41
-116.72
-104.09
-83.5
-55.93
-23.98
9.09
40.67
69.48
95.59
119.71
142.17
162.15
177.45
185.12
182.5
168.44
144.02
112.42
77.86
44.38
14.71
-10.06
-30.02
-45.61
-56.83
-63.18
-64.15
-59.93
-51.77
-41.65
-31.54
-22.76
-15.76
-10.29
-5.93
-2.51
-0.09
1.27
1.81
2.05
2.54
3.5
4.64
5.28
4.71
2.48
-1.42
-6.68
-12.8
-19.14
-24.97
-29.45
-31.89
-32
-30.24
-27.72
-25.97
-26.27
-29.14
-34.27
-40.61
-46.95
-52.38
-56.32
-58.56
-58.97
-57.51
-54.24
-49.47
-43.73
-37.76
-32.19
-27.44
-23.61
-20.6
-18.21
-16.28
-14.73
-13.51
-12.61
-11.98
-11.55
-11.31
-11.23
-11.36
-11.81
-12.7
-13.97
-15.42
-16.64
-17.15
-16.55
-14.75
-12.04
-9.02
-6.29
-4.11
-2.36
-0.54
1.8
4.77
7.89
10.14
10.38
7.8
2.36
-5.3
-14.03
-22.73
-30.65
-37.44
-43.17
-48.3
-53.8
-61.19
-72.2
-87.65
-106.21
-123.59
-133.3
-128.93
-106.8
-67.73
-16.76
38.96
92.82
140.25
178.74
206.73
222.34
223.56
209.28
180.76
142.16
99.61
59.31
25.59
0.2
-17.34
-28.53
-34.79
-37
-35.63
-31.29
-25.21
-19.29
-15.44
-14.84
-17.35
-21.5
-25.26
-26.92
-25.81
-22.41
-17.96
-13.7
-10.43
-8.26
-6.88
-5.81
-4.74
-3.56
-2.35
-1.29
-0.53
-0.3
-0.82
-2.32
-4.9
-8.39
-12.24
-15.61
-17.54
-17.34
-14.83
-10.42
-5.02
0.27
4.46
6.89
7.29
5.79
2.79
-1.14
-5.34
-9.13
-11.98
-13.64
-14.18
-13.97
-13.57
-13.49
-14.07
-15.29
-16.8
-18.05
-18.48
-17.7
-15.62
-12.44
-8.59
-4.65
-1.12
1.61
3.36
4.16
4.16
3.69
3.11
2.76
2.83
3.39
4.35
5.53
6.76
7.86
8.76
9.4
9.74
9.74
9.39
8.63
7.44
5.81
3.72
1.23
-1.53
-4.35
-6.97
-9.24
-11.11
-12.67
-14
-15.14
-15.96
-16.29
-15.98
-15.09
-13.88
-12.77
-12.04
-11.69
-11.52
-11.14
-10.31
-9.05
-7.53
-6.02
-4.59
-3.07
-1.18
1.26
4.21
7.31
10.09
12.17
13.41
13.95
14.07
14.05
14.05
14.13
14.22
14.27
14.23
14.11
13.92
13.69
13.37
12.93
12.4
11.84
11.38
11.12
11.13
11.35
11.62
11.72
11.44
10.72
9.62
8.32
7.05
5.88
4.79
3.48
1.65
-0.87
-3.92
-7.05
-9.55
-10.82
-10.66
-9.28
-7.33
-5.49
-4.27
-3.75
-3.74
-3.88
-3.95
-4
-4.26
-5.07
-6.64
-8.93
-11.62
-14.2
-16.16
-17.24
-17.58
-17.64
-18.02
-19.21
-21.32
-24.09
-26.82
-28.41
-27.35
-21.92
-10.72
6.56
28.5
51.94
72.83
87.5
94.02
92.58
84.96
73.52
60.17
46.01
31.7
17.94
5.7
-3.96
-10.42
-13.84
-15.06
-15.27
-15.68
-17.3
-20.94
-27.2
-36.27
-47.79
-60.89
-74.42
-87.45
-99.52
-110.69
-120.97
-129.89
-136.09
-137.77
-133.5
-122.93
-107.24
-88.61
-69.3
-50.54
-32.11
-12.52
9.91
36.09
65.41
95.83
124.52
148.9
167.46
179.95
187.13
189.86
188.4
181.99
169.13
148.32
119.05
82.39
40.94
-1.73
-41.91
-76.45
-103.07
-120.39
-127.8
-125.54
-114.78
-97.58
-76.46
-53.8
-31.17
-9.21
12.08
32.69
51.97
68.56
80.91
88.1
90.37
89.3
87.27
86.58
88.76
94.11
101.75
110.01
116.98
120.98
120.86
116.19
107.19
94.71
79.89
64.05
48.36
33.67
20.45
8.84
-1.27
-10.06
-17.67
-24.23
-29.83
-34.63
-38.86
-42.65
-46.08
-49.16
-51.93
-54.64
-57.76
-61.83
-67.2
-73.76
-80.74
-87.02
-91.46
-93.31
-92.53
-89.58
-85.17
-79.87
-73.9
-67.1
-59.3
-50.55
-41.26
-32.19
-24.16
-17.75
-13.09
-9.91
-7.66
-5.81
-4.08
-2.49
-1.35
-0.94
-1.38
-2.43
-3.57
-4.16
-3.76
-2.33
-0.26
1.69
2.8
2.62
1.15
-1.18
-3.82
-6.36
-8.65
-10.79
-13.05
-15.59
-18.42
-21.39
-24.19
-26.19
-26.29
-22.95
-14.55
-0.28
18.9
39.93
58.21
69.16
69.83
60.12
42.71
22.01
2.48
-12.69
-22.09
-25.9
-25.24
-21.73
-17.22
-13.5
-11.8
-12.39
-14.26
-15.43
-13.79
-7.89
2.42
16.21
31.96
48.32
64.43
79.8
93.99
106.36
116.26
123.49
128.5
132.11
134.77
136
134.15
127.07
113.03
91.61
64.05
32.93
1.3
-28.11
-53.29
-73.08
-86.95
-94.88
-97.35
-95.37
-90.48
-84.44
-78.84
-74.59
-71.72
-69.42
-66.39
-61.32
-53.37
-42.45
-29.23
-14.98
-1.2
10.54
18.97
23.39
23.76
20.84
15.95
10.68
6.47
4.17
3.94
5.21
7.12
8.75
9.49
9.12
7.76
5.72
3.28
0.59
-2.33
-5.56
-9.25
-13.47
-18.19
-23.34
-28.76
-34.27
-39.59
-44.37
-48.26
-51.05
-52.66
-53.23
-53.18
-53.04
-53.46
-55.02
-58.06
-62.58
-68.18
-74.21
-79.76
-83.97
-85.93
-84.89
-80.41
-72.48
-61.66
-49.09
-36.18
-24.29
-14.33
-6.56
-0.72
3.67
7.03
9.55
11.29
12.36
13.06
13.79
14.9
16.53
18.47
20.37
21.81
22.56
22.59
22.12
21.42
20.79
20.41
20.32
20.44
20.53
20.34
19.66
18.51
17.11
15.86
15.07
14.82
14.91
14.84
14.06
12.16
9.04
4.89
0.32
-3.82
-6.54
-6.87
-4.28
1.1
8.27
15.61
21.33
24.05
23.25
19.26
12.93
5.12
-3.66
-13.35
-24.07
-35.93
-48.98
-63.04
-77.82
-92.54
-105.72
-115.06
-117.9
-111.85
-95.62
-69.41
-34.85
5.25
47.44
87.94
123.2
150.44
168.38
177.65
180.52
180.02
178.45
176.43
172.71
165.01
151.38
131.21
105.57
76.7
47.28
19.71
-4.21
-23.39
-37.4
-46.46
-51.4
-53.58
-54.63
-56.01
-58.72
-62.99
-68.3
-73.59
-77.53
-78.97
-77.22
-72.19
-64.43
-55.03
-45.24
-36.24
-28.85
-23.44
-19.92
-17.93
-16.95
-16.42
-15.88
-14.96
-13.44
-11.23
-8.52
-5.73
-3.4
-2.06
-1.83
-2.43
-3.19
-3.36
-2.43
-0.31
2.52
5.35
7.34
7.93
6.92
4.52
1.38
-1.66
-3.79
-4.6
-4.17
-3.16
-2.48
-2.92
-4.85
-8.12
-12.19
-16.36
-19.96
-22.43
-23.41
-22.69
-20.19
-16.13
-10.93
-5.29
0.04
4.38
7.31
8.71
8.72
7.72
6.16
4.59
3.48
3.19
3.89
5.42
7.38
9.13
10.08
9.82
8.29
5.78
2.83
0.14
-1.73
-2.44
-1.98
-0.59
1.38
3.72
6.44
9.76
14
19.24
25.25
31.46
37.12
41.56
44.38
45.47
44.87
42.66
38.91
33.82
27.86
21.78
16.47
12.61
10.44
9.55
9.07
8.04
5.72
1.9
-3.11
-8.65
-13.93
-18.2
-20.94
-21.92
-21.25
-19.28
-16.48
-13.32
-10.14
-7.15
-4.44
-2.07
-0.02
1.69
3.09
4.16
4.87
5.15
4.94
4.29
3.4
2.57
2.18
2.47
3.48
5.06
6.88
8.53
9.68
10.1
9.77
8.84
7.53
6.12
4.72
3.35
1.93
0.43
-1.1
-2.48
-3.6
-4.5
-5.36
-6.53
-8.29
-10.77
-13.91
-17.52
-21.37
-25.33
-29.33
-33.37
-37.47
-41.72
-46.16
-50.77
-55.26
-58.91
-60.62
-59.18
-53.65
-43.73
-29.93
-13.42
4.32
21.9
38.32
53.08
66.04
77.3
87
95.27
102.18
107.71
111.8
114.37
115.32
114.56
112.09
108.02
102.67
96.52
90.2
84.4
79.77
76.85
75.87
76.66
78.58
80.62
81.66
80.76
77.51
72.03
64.99
57.19
49.32
41.71
34.35
26.93
19.08
10.55
1.31
-8.56
-18.86
-29.39
-40.06
-50.77
-61.42
-71.8
-81.48
-89.92
-96.47
-100.53
-101.71
-100.03
-96.02
-90.64
-85.08
-80.43
-77.47
-76.5
-77.31
-79.27
-81.44
-82.8
-82.47
-79.94
-75.25
-68.99
-62.14
-55.7
-50.46
-46.75
-44.5
-43.25
-42.15
-39.95
-35.18
-26.62
-13.9
2.05
19.15
34.73
46.51
53.3
55.03
52.48
46.67
38.56
29.07
19.28
10.5
3.9
0.1
-1.2
-1.13
-1.11
-2.25
-4.99
-9.02
-13.58
-17.84
-21.16
-23.36
-24.6
-25.36
-26.21
-27.67
-30.04
-33.27
-37.05
-40.94
-44.61
-48
-51.3
-54.72
-58.25
-61.42
-63.28
-62.58
-58.08
-48.92
-34.9
-16.8
3.66
23.99
41.44
53.67
59.35
58.34
51.64
40.94
28.21
15.43
4.49
-3.06
-6.31
-5.41
-1.79
2.15
3.67
0.57
-8.23
-22.29
-39.81
-57.92
-73.28
-82.76
-84.48
-78.31
-65.85
-49.65
-31.87
-13.28
6.87
29.97
56.67
85.74
113.93
136.9
150.67
152.92
143.55
124.42
98.74
70.4
43.3
20.75
4.97
-3.46
-5.53
-3.42
0.34
3.96
7.08
10.69
16.59
26.31
40.5
58.72
79.76
102.06
123.98
143.63
158.67
166.59
165.24
153.85
133.55
107.33
79.03
52.22
29.06
10.3
-4.16
-14.44
-20
-19.8
-12.72
1.61
22.43
47.73
74.53
99.35
118.47
128.5
127
113.24
88.65
56.66
21.8
-11.68
-40.89
-64.98
-84.57
-100.94
-114.92
-126.54
-135.28
-140.55
-142.34
-141.13
-137.54
-131.87
-123.99
-113.65
-101.02
-87.07
-73.44
-61.9
-53.65
-48.91
-46.9
-46.38
-46.09
-45.18
-43.22
-40.07
-35.81
-30.59
-24.77
-18.8
-13.25
-8.58
-5.13
-2.98
-2.01
-1.98
-2.51
-3.26
-3.89
-4.17
-4
-3.41
-2.57
-1.68
-1.02
-0.84
-1.34
-2.65
-4.73
-7.43
-10.44
-13.37
-15.8
-17.41
-18
-17.57
-16.22
-14.15
-11.53
-8.44
-4.89
-0.84
3.66
8.33
12.61
15.8
17.34
17.12
15.6
13.68
12.44
12.57
14.08
16.25
17.98
18.34
16.94
14.1
10.68
7.79
6.48
7.29
10.07
13.76
16.43
15.73
9.7
-2.08
-17.76
-33.3
-43.53
-44.02
-32.78
-11.06
17.15
46.45
71.6
88.67
95.41
91.24
76.98
54.69
27.47
-0.86
-26.48
-46.46
-59.39
-65.63
-66.9
-65.5
-63.41
-61.71
-60.35
-58.53
-55.24
-49.76
-42.17
-33.21
-24.03
-15.83
-9.55
-5.74
-4.58
-5.88
-8.92
-12.68
-15.95
-17.68
-17.44
-15.45
-12.52
-9.59
-7.46
-6.46
-6.55
-7.47
-8.93
-10.77
-12.85
-15
-16.98
-18.55
-19.5
-19.82
-19.65
-19.26
-18.93
-18.88
-19.19
-19.82
-20.63
-21.4
-21.86
-21.71
-20.75
-18.98
-16.6
-13.94
-11.31
-8.83
-6.47
-4.14
-1.83
0.39
2.34
3.9
5.07
5.98
6.86
7.83
8.89
9.89
10.65
11.09
11.2
11.11
10.99
11.04
11.31
11.78
12.32
12.74
12.9
12.73
12.29
11.74
11.24
10.89
10.74
10.69
10.64
10.48
10.09
9.4
8.37
6.96
5.18
3.09
0.78
-1.66
-4.19
-6.89
-9.75
-12.62
-15.14
-16.85
-17.3
-16.28
-13.93
-10.57
-6.65
-2.49
1.62
5.37
8.36
10.12
10.32
8.95
6.43
3.54
1.03
-0.65
-1.5
-1.89
-2.26
-2.8
-3.32
-3.26
-1.99
0.83
5
9.81
14.35
17.78
19.63
19.72
18.21
15.52
12.39
10.07
10.07
13.73
21.49
32.33
43.74
52.42
55.42
51.16
39.88
23.39
4.3
-14.8
-31.95
-45.94
-56.08
-61.96
-63.26
-59.69
-50.96
-37.02
-18.06
5.26
31.74
59.59
86.49
109.69
126.41
134.32
132.26
120.91
102.94
82.56
64.36
51.86
46.53
47.51
52.2
57.26
59.7
57.52
49.86
36.86
19.34
-1.46
-23.85
-45.94
-65.83
-81.95
-93.46
-100.55
-104.3
-106.57
-109.31
-113.96
-120.9
-129.33
-137.41
-142.8
-143.2
-136.81
-122.75
-101.26
-73.83
-43.09
-12.37
14.83
35.62
48.33
53
51.28
46.04
40.38
36.64
35.77
37.28
39.86
42.33
44.49
47.07
51.11
56.89
63.33
68.36
69.88
66.86
59.81
50.36
40.29
30.63
21.47
12.34
2.98
-6.2
-14.09
-19.33
-20.77
-17.8
-10.38
1.14
16.06
33.25
50.9
66.53
77.39
81.16
76.62
64.09
45.22
22.46
-1.63
-24.81
-45.17
-61.11
-71.11
-73.89
-68.69
-55.58
-35.4
-9.59
20.04
51.45
82.26
109.85
131.69
145.72
150.84
147.07
135.3
116.88
93.3
66.01
36.61
7.04
-20.6
-44.4
-63.19
-76.8
-85.84
-91.24
-93.75
-93.61
-90.63
-84.65
-75.95
-65.51
-54.85
-45.55
-38.64
-34.29
-31.72
-29.68
-27.02
-23.11
-18.09
-12.5
-7.02
-2.09
2.1
5.39
7.57
8.33
7.47
5.11
1.81
-1.59
-4.26
-5.79
-6.25
-6.09
-5.83
-5.82
-6.13
-6.58
-6.89
-6.73
-5.9
-4.3
-2.04
0.64
3.42
5.97
8.07
9.67
10.84
11.66
12.12
12.12
11.6
10.56
9.23
7.92
6.89
6.28
6
5.88
5.75
5.58
5.35
5.07
4.63
3.85
2.64
1.1
-0.55
-1.97
-2.98
-3.58
-3.98
-4.42
-5.09
-6
-7.06
-8.1
-9.04
-9.94
-10.87
-11.95
-13.21
-14.61
-16.05
-17.44
-18.68
-19.67
-20.29
-20.3
-19.46
-17.68
-15.05
-11.89
-8.7
-5.93
-3.86
-2.51
-1.71
-1.26
-0.99
-0.85
-0.79
-0.71
-0.45
0.11
0.95
1.9
2.63
2.91
2.66
2.04
1.31
0.76
0.52
0.52
0.7
0.89
1.07
1.2
1.3
1.31
1.14
0.69
-0.08
-1.15
-2.41
-3.77
-5.2
-6.74
-8.43
-10.24
-11.95
-13.33
-14.17
-14.45
-14.42
-14.41
-14.63
-14.94
-14.94
-14.12
-12.22
-9.33
-5.95
-2.66
0.04
1.97
3.17
3.77
3.95
3.87
3.66
3.44
3.23
2.91
2.33
1.39
0.15
-1.07
-1.89
-2.06
-1.65
-1.01
-0.64
-0.92
-1.93
-3.37
-4.69
-5.32
-4.87
-3.25
-0.91
1.33
2.38
1.43
-1.75
-6.49
-11.53
-15.42
-17.11
-16.43
-14.09
-11.31
-9.27
-8.6
-9.2
-10.48
-11.73
-12.46
-12.61
-12.39
-12.06
-11.67
-10.97
-9.49
-6.89
-3.23
0.85
4.23
5.78
4.79
1.31
-3.85
-9.52
-14.6
-18.44
-20.94
-22.44
-23.41
-24.31
-25.54
-27.34
-29.38
-30.49
-28.55
-21.13
-6.6
14.78
40.43
66.03
87.06
100.35
104.98
102.04
93.54
81.27
66.24
48.95
30.03
10.86
-6.58
-20.28
-29.03
-32.93
-33.23
-31.99
-31.27
-32.56
-36.49
-42.84
-50.67
-58.67
-65.42
-69.72
-70.96
-69.23
-65.52
-61.43
-58.69
-58.53
-61.03
-64.87
-67.47
-65.8
-57.32
-41.21
-18.88
6.18
29.41
46.63
55.52
56.6
53.03
49.39
49.96
57
70.16
86.83
103.43
116.72
124.61
126.16
121.19
109.96
93.09
71.92
48.58
25.64
5.45
-10.44
-21.48
-27.66
-29.08
-25.77
-17.94
-6.5
6.91
20.17
31.26
38.74
41.86
40.44
34.57
24.71
11.79
-2.57
-16.35
-27.7
-35.51
-39.82
-41.57
-42.08
-42.56
-43.67
-45.4
-47.23
-48.44
-48.4
-46.84
-43.99
-40.4
-36.8
-33.71
-31.34
-29.56
-28.1
-26.69
-25.15
-23.51
-21.84
-20.32
-19.08
-18.25
-17.95
-18.34
-19.63
-22.07
-25.79
-30.68
-36.33
-42.04
-47.08
-51.16
-54.7
-58.66
-63.97
-70.79
-78.27
-84.84
-89.01
-89.93
-87.48
-81.99
-73.88
-63.61
-52.15
-41.22
-33.07
-29.32
-29.82
-32.15
-32.51
-27.67
-16.83
-2.35
11.12
18.78
17.93
9.02
-4.75
-18.77
-28.82
-32.19
-28.04
-16.93
-0.4
19.56
40.64
60.48
77.34
90.82
102.3
114.59
130.85
152.95
180.31
209.62
235.81
253.97
260.88
256.01
241.17
219.61
194.95
170.25
147.64
128.15
111.83
97.91
85.31
73.21
61.58
51.34
44.04
41.1
42.93
48.5
55.35
60.51
61.52
57.18
47.61
33.89
17.36
-0.72
-19.4
-37.97
-55.64
-71.55
-84.91
-95.31
-102.88
-108.25
-112.14
-115.03
-116.82
-116.74
-113.8
-107.16
-96.58
-82.42
-65.53
-46.85
-27.35
-8.11
9.62
24.35
34.7
39.87
39.97
36.04
29.58
22.04
14.32
6.85
-0.31
-7.05
-13.15
-18.33
-22.53
-25.95
-28.94
-31.72
-34.22
-36.07
-36.92
-36.67
-35.71
-34.67
-34.2
-34.51
-35.29
-35.83
-35.41
-33.68
-30.81
-27.53
-24.63
-22.63
-21.58
-21.15
-20.88
-20.46
-19.85
-19.14
-18.43
-17.69
-16.78
-15.56
-14.12
-12.83
-12.17
-12.58
-14.19
-16.75
-19.71
-22.46
-24.55
-25.83
-26.58
-27.29
-28.48
-30.47
-33.23
-36.43
-39.52
-42.07
-43.87
-45.14
-46.36
-48.09
-50.68
-54.12
-58
-61.62
-64.19
-64.88
-63.05
-58.29
-50.68
-40.79
-29.53
-17.82
-6.05
6.06
19.33
34.43
51.1
67.68
81.33
88.9
88.11
78.5
61.59
40.46
18.67
-0.69
-15.6
-25.23
-29.52
-28.9
-23.93
-15.36
-4.14
8.49
21.16
32.64
41.99
48.81
52.99
54.69
54.13
51.52
47.15
41.45
34.92
28.01
21.08
14.21
7.32
0.22
-7.34
-15.58
-24.54
-34.02
-43.49
-52.05
-58.68
-62.47
-62.86
-59.73
-53.17
-43.37
-30.42
-14.48
4.11
24.49
45.29
64.7
80.67
91.43
95.73
93.18
84.34
70.69
54.25
37.2
21.33
7.77
-3.12
-11.48
-17.52
-21.19
-22.23
-20.41
-15.88
-9.47
-2.62
2.91
5.61
4.74
0.6
-5.65
-12.38
-18.08
-21.88
-23.69
-24.06
-23.79
-23.57
-23.68
-24.03
-24.27
-23.99
-22.89
-20.91
-18.2
-15.19
-12.54
-10.99
-11.23
-13.57
-17.8
-23.3
-29.15
-34.41
-38.19
-39.79
-38.73
-34.97
-29
-21.89
-14.8
-8.24
-1.58
6.94
19.25
36.13
56.22
76.14
91.66
99.49
98.69
90.81
79.02
66.52
55.4
46.22
38.5
31.45
24.58
17.94
11.85
6.6
2.3
-1.16
-4.01
-6.41
-8.39
-9.83
-10.55
-10.49
-9.79
-8.84
-8.22
-8.46
-9.81
-12.08
-14.74
-17.07
-18.53
-18.98
-18.72
-18.31
-18.3
-18.92
-19.94
-20.68
-20.18
-17.53
-12.12
-3.86
6.8
18.96
31.49
43.21
53.14
60.65
65.43
67.4
66.55
62.85
56.19
46.51
33.91
18.82
1.99
-15.51
-32.44
-47.61
-60
-68.93
-74.06
-75.5
-73.73
-69.5
-63.66
-56.86
-49.5
-41.62
-33.07
-23.67
-13.67
-3.96
3.95
8.3
7.77
1.95
-8.34
-21.58
-36.15
-51.13
-66.49
-82.76
-100.36
-119.01
-137.81
-155.79
-172.53
-188.37
-203.74
-218.12
-229.37
-233.9
-227.85
-208.93
-177.65
-137.79
-95.24
-56.03
-24.44
-2.13
11.64
19.15
23.28
27.08
33.82
47.05
70.17
104.82
149.63
199.61
247.32
285.34
308.72
316.38
310.39
294.32
271.15
242.51
209.16
172.12
133.39
95.81
62.02
33.5
10.23
-8.82
-24.71
-37.88
-48.11
-54.98
-58.19
-58.01
-55.22
-50.94
-46.31
-42.21
-39.09
-37.05
-35.86
-35.17
-34.57
-33.76
-32.61
-31.18
-29.61
-27.97
-26.27
-24.33
-21.96
-19.06
-15.75
-12.31
-9.08
-6.26
-3.85
-1.64
0.69
3.38
6.48
9.8
12.96
15.47
16.96
17.24
16.38
14.69
12.57
10.39
8.43
6.81
5.53
4.46
3.45
2.33
1
-0.64
-2.61
-4.86
-7.29
-9.71
-11.89
-13.61
-14.66
-14.99
-14.7
-13.98
-13.02
-11.94
-10.71
-9.14
-7.04
-4.31
-1.05
2.46
5.9
8.97
11.53
13.57
15.16
16.29
16.96
17.15
16.99
16.7
16.6
16.92
17.69
18.77
19.82
20.53
20.7
20.29
19.37
18.05
16.47
14.76
13.12
11.7
10.58
9.73
9.03
8.29
7.38
6.24
4.99
3.8
2.86
2.28
2.02
1.86
1.46
0.42
-1.52
-4.33
-7.7
-11.03
-13.76
-15.49
-16.21
-16.08
-15.39
-14.29
-12.83
-10.89
-8.4
-5.39
-2.04
1.43
4.78
7.9
10.82
13.69
16.79
20.41
24.72
29.55
34.48
38.86
42.09
43.85
44.18
43.45
42.35
41.68
42.28
44.84
49.69
56.54
64.4
71.75
77.01
79.22
78.48
75.8
72.59
69.79
67.36
64.4
59.81
53.23
45.58
38.9
35.32
35.85
39.61
44
45.83
42.67
33.91
20.96
6.47
-6.88
-17.52
-25.3
-31.01
-35.39
-38.37
-38.99
-35.99
-28.85
-18.53
-7.41
1.49
5.76
4.44
-1.88
-11.72
-23.59
-36.78
-51.29
-67.47
-85.42
-104.43
-122.9
-138.48
-148.6
-151.03
-144.43
-128.74
-105.29
-76.66
-46.29
-17.78
5.75
22.28
31.23
33.3
29.97
22.87
13.23
1.69
-11.49
-25.91
-40.67
-54.32
-65.36
-72.78
-76.52
-77.37
-76.54
-75.05
-73.3
-71.02
-67.46
-61.92
-54.07
-44.15
-32.94
-21.47
-10.55
-0.45
9.4
20.3
33.76
50.82
71.39
93.91
115.62
133.22
143.69
145.06
136.63
118.9
93.18
61.28
25.18
-12.98
-51.17
-87.59
-120.8
-149.51
-172.56
-188.82
-197.45
-198.26
-191.89
-179.77
-163.72
-145.5
-126.32
-106.71
-86.52
-65.12
-41.59
-15.11
14.66
47.13
80.47
111.81
137.9
156.17
165.44
166.23
160.33
150.15
138.03
125.8
114.57
104.74
96.18
88.38
80.66
72.35
63.04
52.62
41.46
30.27
19.95
11.4
5.23
1.64
0.39
0.86
2.34
4.2
6.11
8.02
10.04
12.25
14.63
16.95
18.94
20.36
21.05
20.9
19.88
18.01
15.4
12.29
9.02
5.92
3.19
0.89
-1.1
-3.08
-5.28
-7.86
-10.78
-13.84
-16.76
-19.37
-21.6
-23.53
-25.27
-26.84
-28.18
-29.02
-29.07
-28.11
-26.12
-23.29
-19.96
-16.54
-13.34
-10.59
-8.37
-6.69
-5.48
-4.66
-4.12
-3.78
-3.46
-3
-2.26
-1.16
0.26
1.87
3.44
4.78
5.74
6.28
6.48
6.5
6.45
6.42
6.34
6.1
5.59
4.73
3.56
2.15
0.6
-0.99
-2.58
-4.12
-5.55
-6.79
-7.83
-8.73
-9.65
-10.8
-12.3
-14.15
-16.21
-18.24
-19.97
-21.19
-21.78
-21.69
-20.93
-19.57
-17.64
-15.22
-12.39
-9.28
-6.1
-3.1
-0.52
1.46
2.77
3.48
3.81
4.04
4.48
5.44
7.13
9.62
12.8
16.35
19.93
23.27
26.39
29.48
32.82
36.43
39.95
42.75
44.2
43.96
42.15
39.35
36.21
33.13
30.25
27.44
24.75
22.63
21.8
23.04
26.84
33.13
41.21
49.85
57.54
62.73
64.13
61.05
53.58
42.68
30.08
17.96
8.38
2.58
0.51
0.71
0.64
-2.46
-10.53
-23.83
-40.55
-57.29
-70.31
-76.9
-76.37
-70.18
-61.05
-51.79
-44.23
-38.89
-35.28
-32.74
-31.1
-30.81
-32.45
-35.91
-39.91
-42.43
-41.6
-36.67
-28.26
-18.15
-8.31
-0.13
5.93
10.18
13.13
15.01
15.55
14.12
10.02
2.85
-7.22
-19.18
-31.23
-41.04
-46.2
-44.98
-36.81
-22.44
-3.75
16.66
35.99
51.58
61.35
64.26
60.44
51.09
38.26
24.15
10.76
-0.54
-9.01
-14.55
-17.64
-19.27
-20.64
-22.83
-26.44
-31.33
-36.64
-41.19
-43.87
-44.13
-42.21
-39.08
-35.99
-33.92
-33.15
-33.04
-32.47
-30.1
-25.07
-17.23
-7.24
3.56
13.13
19.02
18.97
11.52
-2.97
-22.08
-41.62
-56.84
-64.02
-61.62
-50.69
-34.14
-15.56
2.06
17.03
28.95
38.41
46.31
53.52
60.64
67.92
75.23
82.01
87.41
90.37
89.89
85.11
75.49
60.92
41.84
19.3
-4.96
-28.89
-50.57
-68.57
-82.41
-92.22
-98.28
-100.44
-98.15
-90.79
-78.4
-62.01
-43.37
-24.23
-5.49
12.95
31.73
51.07
70
86.67
98.97
105.8
107.5
105.73
102.44
98.76
94.33
87.44
75.83
57.69
32.52
1.49
-32.74
-66.69
-96.9
-120.53
-135.82
-141.96
-138.89
-127.17
-108.13
-84.07
-57.97
-32.89
-10.86
7.67
23.76
38.96
54.02
68.1
79.01
84.42
83.26
76.46
66.64
56.98
49.94
46.45
45.99
47.02
47.86
47.16
44.28
39.28
32.64
25.13
17.5
10.51
4.69
0.26
-2.81
-4.92
-6.59
-8.32
-10.4
-12.93
-15.72
-18.53
-21.21
-23.63
-25.87
-28.11
-30.6
-33.46
-36.71
-40.11
-43.23
-45.59
-46.77
-46.61
-45.25
-43.17
-41.01
-39.35
-38.52
-38.46
-38.77
-38.86
-38.29
-36.91
-34.93
-32.7
-30.57
-28.69
-27
-25.43
-23.88
-22.44
-21.17
-20.05
-18.93
-17.59
-15.9
-13.9
-11.83
-9.95
-8.46
-7.36
-6.58
-6.07
-5.87
-6.09
-6.8
-7.99
-9.42
-10.76
-11.65
-11.85
-11.36
-10.3
-8.94
-7.49
-6.15
-5
-4.06
-3.23
-2.42
-1.47
-0.19
1.56
3.98
7.15
11.1
15.69
20.59
25.25
29.09
31.6
32.59
32.27
31.19
30.02
29.27
29.1
29.42
30.09
31.02
32.22
33.67
35.23
36.56
37.24
36.95
35.75
33.94
32.1
30.6
29.62
28.98
28.37
27.49
26.1
24.19
21.81
19.15
16.4
13.94
12.33
12.18
13.93
17.33
21.5
25.1
27.02
26.83
24.99
22.49
20.21
18.43
16.73
14.47
11.27
7.36
3.35
-0.27
-3.45
-6.74
-10.74
-15.65
-20.98
-25.73
-28.83
-29.58
-28.04
-24.88
-21.21
-18.13
-16.39
-16.18
-17.2
-18.75
-20.07
-20.71
-20.55
-19.94
-19.33
-19.13
-19.47
-20.1
-20.43
-19.67
-17.1
-12.32
-5.49
2.6
10.7
17.58
22.48
25.35
26.77
27.52
28.2
29.13
30.45
32.28
34.7
37.42
39.62
39.91
37
30.37
20.95
10.93
2.95
-1.07
-0.7
2.98
7.97
12.34
14.76
14.74
12.34
7.93
1.92
-5.19
-12.76
-20
-26.22
-31.23
-35.44
-39.64
-44.4
-49.47
-53.68
-55.27
-52.61
-44.83
-32.17
-15.66
3.3
23.34
43.3
62.03
78.24
90.55
97.94
100.01
97.21
90.58
81.35
70.53
58.87
46.97
35.37
24.71
15.52
8.02
2.01
-3.08
-8.02
-13.53
-20.15
-28.15
-37.51
-47.9
-58.73
-69.13
-78.12
-84.87
-88.98
-90.57
-90.25
-88.82
-86.99
-85.14
-83.33
-81.39
-79.06
-76.03
-71.99
-66.67
-59.91
-51.85
-43
-34.09
-26
-19.33
-14.28
-10.67
-8.06
-5.97
-4.12
-2.39
-0.81
0.56
1.72
2.72
3.59
4.28
4.71
4.79
4.44
3.64
2.5
1.17
-0.06
-0.94
-1.22
-0.75
0.44
2.22
4.36
6.63
8.88
11.04
12.97
14.53
15.55
15.9
15.67
15.12
14.63
14.59
15.18
16.35
17.83
19.26
20.27
20.64
20.41
19.7
18.76
17.78
16.88
16.02
15.18
14.29
13.45
12.76
12.33
12.1
11.86
11.29
10.16
8.4
6.15
3.78
1.6
-0.12
-1.36
-2.31
-3.32
-4.64
-6.44
-8.65
-11
-13.22
-15.02
-16.21
-16.66
-16.34
-15.23
-13.38
-10.95
-8.14
-5.29
-2.7
-0.55
1.09
2.27
3.15
3.84
4.37
4.78
5.02
5.16
5.35
5.73
6.42
7.44
8.66
9.9
11.06
12.02
12.75
13.25
13.45
13.37
12.99
12.35
11.51
10.53
9.47
8.39
7.34
6.33
5.36
4.37
3.24
1.87
0.28
-1.44
-3.08
-4.49
-5.64
-6.63
-7.61
-8.75
-10.02
-11.25
-12.21
-12.56
-12.14
-10.86
-8.85
-6.29
-3.4
-0.39
2.59
5.41
7.96
10.15
11.9
13.16
13.95
14.39
14.61
14.77
14.93
15.1
15.22
15.26
15.25
15.27
15.42
15.74
16.16
16.52
16.65
16.4
15.67
14.49
12.9
11.07
9.17
7.45
6.07
5.12
4.52
4.08
3.6
2.88
1.92
0.81
-0.23
-1.04
-1.65
-2.22
-3.07
-4.45
-6.46
-8.95
-11.57
-13.85
-15.37
-15.92
-15.45
-14.08
-12.03
-9.53
-6.78
-3.97
-1.21
1.46
4.02
6.5
8.85
10.91
12.46
13.35
13.54
13.15
12.42
11.58
10.81
10.21
9.78
9.49
9.35
9.34
9.46
9.68
9.92
10.08
10.06
9.74
9.1
8.19
7.12
6.03
5.03
4.1
3.14
1.99
0.51
-1.36
-3.58
-5.97
-8.29
-10.28
-11.77
-12.78
-13.45
-14.05
-14.81
-15.84
-17.06
-18.29
-19.24
-19.71
-19.53
-18.63
-17.1
-15.07
-12.74
-10.33
-8.02
-5.89
-3.99
-2.33
-0.89
0.27
1.15
1.77
2.18
2.45
2.67
2.87
3.09
3.38
3.83
4.51
5.48
6.67
7.92
9.03
9.82
10.16
10.1
9.75
9.28
8.79
8.27
7.6
6.66
5.35
3.75
2.1
0.67
-0.3
-0.79
-1.02
-1.29
-1.92
-3
-4.42
-5.87
-7.1
-7.95
-8.48
-8.81
-9.06
-9.33
-9.67
-10.15
-10.83
-11.65
-12.32
-12.34
-11.24
-8.97
-6.33
-4.85
-6.44
-12.52
-23.43
-38.01
-53.95
-68.41
-78.81
-83.52
-82.01
-74.77
-62.98
-48.12
-31.72
-15.14
0.38
13.91
24.89
33.25
39.33
43.69
46.74
48.56
48.82
47.07
43.22
37.88
32.4
28.3
26.74
27.96
31.14
34.75
37.1
36.96
33.95
28.6
22.11
15.86
10.98
7.89
6.18
4.91
3.12
0.48
-2.46
-4.46
-4.36
-1.77
2.45
6.6
8.87
8.32
5.35
1.56
-1.18
-1.56
0.46
3.81
6.91
8.48
8.06
6
3.14
0.26
-2.16
-4.09
-5.63
-6.86
-7.67
-7.86
-7.31
-6.13
-4.68
-3.44
-2.9
-3.26
-4.42
-6.01
-7.5
-8.44
-8.61
-8.07
-7.04
-5.92
-5.06
-4.66
-4.78
-5.33
-6.13
-7.06
-8.09
-9.23
-10.54
-11.99
-13.32
-14.13
-13.98
-12.55
-9.83
-6.13
-1.89
2.31
6.04
9.02
11.16
12.44
12.96
12.79
12.08
11.1
10.12
9.48
9.49
10.41
12.39
15.37
19
22.58
25.26
26.15
24.7
20.95
15.51
9.47
3.97
-0.2
-2.78
-4.08
-4.85
-5.83
-7.57
-10.17
-13.25
-16.09
-17.87
-18.03
-16.48
-13.81
-11.06
-9.52
-10.19
-13.34
-18.33
-23.79
-28.15
-30.3
-30.04
-28.09
-25.72
-24.04
-23.35
-23.06
-22.02
-19.21
-14.43
-8.41
-2.47
2.15
4.86
6.08
6.9
8.49
11.45
15.49
19.54
22.28
22.82
21.1
18.14
15.39
14.22
15.26
18.05
21.29
23.4
23.14
20.26
15.54
10.46
6.62
5.08
5.81
7.78
9.47
9.51
7.36
3.6
-0.6
-4.02
-6.02
-6.81
-7.1
-7.7
-9.16
-11.8
-15.7
-20.9
-27.1
-33.56
-39.07
-42.26
-42.16
-38.71
-32.82
-25.92
-19.27
-13.48
-8.44
-3.65
1.31
6.51
11.6
16.03
19.35
21.35
22.1
21.89
21.07
20
18.98
18.17
17.56
17.01
16.28
15.11
13.38
11.07
8.36
5.36
2.13
-1.58
-6.2
-12.17
-19.47
-27.49
-35
-40.37
-42.3
-40.07
-33.78
-24.09
-11.99
1.44
14.82
26.48
34.67
38
36.13
29.86
20.9
11.12
1.75
-6.96
-15.51
-24.38
-33.43
-41.64
-47.45
-49.34
-46.3
-38.18
-25.59
-9.8
7.34
23.58
36.82
45.33
48.33
46.13
40.06
32.16
24.59
19.02
16.11
15.52
15.98
15.82
13.61
8.57
1.05
-7.65
-15.72
-21.53
-24.09
-23.3
-19.81
-14.59
-8.72
-3.07
1.87
5.87
8.93
11.18
12.7
13.52
13.63
12.96
11.51
9.41
7.02
4.84
3.42
3.4
5.31
9.34
14.89
20.57
24.53
25.2
22.21
16.5
10.03
4.69
1.35
-0.54
-2.52
-6.26
-12.55
-20.78
-29.13
-35.28
-37.19
-33.82
-25.29
-12.86
1.36
14.84
25.52
32.23
34.96
34.68
32.65
29.83
26.56
22.61
17.78
12.33
7.05
2.94
0.63
-0.2
-0.63
-1.96
-4.91
-9.03
-12.93
-15.08
-14.78
-12.58
-10.05
-8.87
-9.9
-12.75
-15.84
-17.11
-14.87
-8.34
2.22
15.79
31.11
46.94
62.06
75.27
85.28
90.94
91.63
87.5
79.42
68.78
56.96
44.84
32.78
20.59
7.76
-6.22
-21.69
-38.63
-56.42
-73.91
-89.51
-101.61
-109.22
-112.13
-110.9
-106.45
-99.67
-91.16
-81.41
-71.04
-60.8
-51.42
-43.26
-36.03
-28.95
-21.12
-12.03
-1.82
8.76
18.75
27.27
33.73
37.89
39.66
39.15
36.64
32.67
27.98
23.42
19.71
17.24
16.01
15.61
15.51
15.2
14.38
13.01
11.25
9.26
7.15
4.96
2.55
-0.16
-3.25
-6.71
-10.43
-14.16
-17.55
-20.19
-21.7
-21.88
-20.78
-18.67
-16.06
-13.46
-11.32
-9.79
-8.8
-8.09
-7.35
-6.41
-5.28
-4.2
-3.39
-2.97
-2.78
-2.49
-1.7
-0.15
2.08
4.71
7.34
9.62
11.33
12.51
13.29
13.75
13.9
13.66
13.1
12.43
12.02
12.31
13.78
16.91
22.08
29.53
39.09
49.98
60.71
69.2
73.31
71.49
63.36
49.92
33.29
15.96
0.06
-13.22
-23.66
-31.64
-37.65
-41.78
-43.7
-42.92
-39.33
-33.49
-26.58
-20.02
-14.79
-11.16
-8.59
-6.24
-3.4
-0.12
2.81
4.22
3.07
-0.84
-6.67
-12.62
-16.7
-17.36
-14.02
-7.21
1.95
12.2
22.52
32.11
40.37
46.6
50.27
51.24
50.09
48.09
46.62
46.51
47.59
48.75
48.84
47.51
45.68
45.3
48.33
55.62
66.4
78.64
89.9
98.38
103.23
104.27
101.35
94.03
81.67
64.07
42.08
17.74
-6.28
-27.47
-44.3
-56.55
-65.02
-70.95
-75.34
-78.62
-80.48
-80.14
-76.76
-69.96
-60.15
-48.67
-37.48
-28.66
-23.74
-23.16
-26.27
-31.76
-38.28
-44.89
-51.18
-56.8
-61.27
-63.77
-63.62
-60.68
-55.6
-49.61
-43.95
-39.34
-35.75
-32.73
-29.73
-26.39
-22.52
-17.94
-12.45
-6.01
0.89
7.3
12
14.13
13.68
11.48
8.82
6.8
5.85
5.78
6.16
6.74
7.69
9.32
11.7
14.32
16.14
16.04
13.28
7.96
1.07
-5.84
-11.17
-13.87
-13.75
-11.52
-8.45
-5.87
-4.59
-4.53
-4.76
-4.08
-1.61
2.53
7.23
10.82
11.77
9.37
3.81
-4.01
-12.9
-21.61
-28.97
-33.97
-36.27
-36.92
-38.56
-44.89
-58.92
-81.08
-108.25
-134.51
-153.4
-160.67
-155.9
-142.31
-124.89
-108.15
-94.7
-85.17
-79.22
-76.48
-76.98
-80.93
-88.05
-97.34
-107.18
-115.8
-121.67
-123.86
-121.97
-116.05
-106.33
-92.94
-75.91
-55.26
-31.34
-5.19
21.16
44.8
62.46
71.34
70.1
59.34
41.45
19.9
-1.88
-21.48
-37.69
-50.08
-58.18
-60.89
-56.57
-43.49
-20.61
11.91
52.51
98.37
145.84
190.87
229.73
259.65
279.3
289.06
290.52
285.77
276.61
264.03
248.3
229.61
208.54
186.34
164.95
146.63
133.49
126.85
126.57
130.64
135.44
136.54
130.13
114.15
88.97
57.03
21.91
-12.92
-44.78
-71.86
-92.94
-107.02
-113.51
-112.6
-105.82
-95.89
-85.97
-78.69
-75.16
-74.88
-76.17
-77.17
-76.65
-74.35
-70.81
-66.89
-63.21
-59.92
-56.67
-52.78
-47.64
-40.91
-32.73
-23.75
-14.83
-6.83
-0.28
4.65
8.12
10.26
11
10.07
7.01
1.57
-6.14
-15.52
-25.61
-35.33
-43.69
-50
-53.86
-55.16
-53.91
-50.25
-44.47
-37.13
-29
-20.97
-13.85
-8.1
-3.88
-0.97
0.95
2.18
2.92
3.25
3.21
2.77
1.84
0.28
-1.93
-4.81
-8.25
-12.16
-16.38
-20.57
-24.1
-26.07
-25.44
-21.26
-12.9
-0.22
16.31
35.5
55.32
72.96
85.15
88.93
82.65
66.81
44.25
19.46
-2.75
-18.66
-26.56
-26.97
-22.05
-14.79
-8.12
-4.33
-4.65
-9.36
-17.79
-28.55
-39.83
-49.75
-56.73
-59.79
-58.74
-54.08
-46.89
-38.48
-30.14
-22.79
-16.88
-12.39
-9.01
-6.37
-4.19
-2.35
-0.87
0.12
0.55
0.4
-0.28
-1.39
-2.78
-4.36
-6.05
-7.79
-9.53
-11.21
-12.72
-13.92
-14.77
-15.31
-15.82
-16.7
-18.35
-20.97
-24.49
-28.5
-32.46
-35.84
-38.37
-39.98
-40.83
-41.13
-41.02
-40.52
-39.54
-37.91
-35.29
-31.2
-25.17
-17.06
-7.5
1.84
8.44
9.59
3.43
-10.34
-30.04
-52.54
-74.21
-91.96
-104.05
-110.16
-110.99
-107.71
-101.45
-93.12
-83.44
-73.1
-62.73
-52.8
-43.35
-33.95
-23.94
-13.02
-1.64
8.87
16.9
21.6
23.78
25.99
31.66
43.28
61.07
82.67
104.21
122.12
134.68
142.26
146.45
148.7
149.48
148.51
145.67
141.78
138.58
138.05
141.17
147.31
154.45
160.13
162.37
160.17
153.45
142.66
128.59
112.29
95.14
79.01
65.66
56.37
51.49
50.46
52.29
56.16
61.58
68.22
75.43
81.77
85.17
83.65
76.28
63.69
48.05
32.13
18.3
7.74
0.42
-4.34
-7.27
-8.75
-9.02
-8.37
-7.55
-7.68
-9.86
-14.82
-22.54
-32.31
-43.22
-54.52
-65.82
-77.03
-88.02
-98.34
-107.28
-114.04
-118.08
-119.41
-118.61
-116.67
-114.84
-114.19
-115.33
-118.2
-122.12
-125.97
-128.61
-129.23
-127.6
-124.01
-119.17
-113.79
-108.49
-103.68
-99.55
-96.15
-93.4
-90.99
-88.4
-84.85
-79.49
-71.54
-60.57
-46.4
-29.18
-9.33
12.45
35.15
57.47
78.03
95.61
109.39
119.22
125.65
129.68
132.33
134.12
134.8
133.46
129.18
121.51
110.92
98.59
85.95
74.01
63.13
53.18
43.97
35.77
29.31
25.46
24.79
27.43
33.32
42.32
54.27
68.8
85.09
102.02
118.53
133.98
148.09
160.61
170.71
176.74
176.56
168.25
150.96
125.43
93.69
58.49
22.48
-12.43
-45.21
-75.7
-104.28
-131.59
-158.19
-184.42
-210.25
-235.4
-259.47
-282.05
-302.58
-320
-332.43
-337.11
-330.95
-311.43
-277.85
-232.25
-179.3
-125.11
-75.24
-33.06
0.94
28.24
50.85
69.71
84.32
93.38
96.05
92.92
86.17
78.73
73.18
70.88
71.76
74.83
78.83
82.81
86.33
89.44
92.41
95.56
98.89
101.95
103.96
104.05
101.67
96.89
90.33
82.89
75.29
67.69
59.81
51.1
41.15
29.86
17.42
4.22
-9.29
-22.42
-34.2
-43.33
-48.44
-48.57
-43.71
-35.01
-24.64
-15.16
-8.79
-6.83
-9.46
-15.83
-24.53
-33.86
-42.23
-48.36
-51.38
-50.97
-47.49
-41.83
-35.4
-29.79
-26.42
-26.13
-29.03
-34.39
-40.94
-47.29
-52.28
-55.19
-55.9
-54.56
-51.48
-46.98
-41.32
-34.8
-27.83
-20.86
-14.24
-8.25
-2.88
2.01
6.63
11.19
15.9
20.97
26.66
33.25
40.9
49.61
59.16
69.1
78.79
87.5
94.45
98.96
100.54
98.99
94.5
87.58
78.94
69.22
58.95
48.5
38.31
28.94
21.07
15.32
11.92
10.56
10.44
10.39
9.39
6.89
3.14
-1.06
-4.59
-6.63
-7.12
-6.69
-6.58
-8.06
-11.91
-18.08
-25.78
-33.72
-40.61
-45.64
-48.57
-49.81
-50.01
-49.77
-49.26
-48.18
-45.73
-40.9
-32.68
-20.43
-4.43
13.72
31.02
43.95
49.59
46.97
37.6
24.8
12.28
2.63
-3.53
-7.13
-9.6
-11.74
-13.24
-12.97
-9.69
-2.65
8.03
21.26
34.87
45.8
50.61
46.63
33.07
11.75
-13
-35.53
-50.48
-54.37
-46.52
-29.01
-5.78
18.61
40.05
55.74
64.41
66.18
62.27
54.57
45.19
36.06
28.62
23.41
20.02
17.21
13.36
7.13
-1.99
-13.59
-26.4
-38.8
-49.24
-56.72
-60.98
-62.49
-62.22
-61.27
-60.51
-60.33
-60.69
-61.2
-61.43
-60.96
-59.47
-56.72
-52.61
-47.16
-40.57
-33.14
-25.11
-16.63
-7.79
1.19
9.8
17.18
22.31
24.38
23.06
18.58
11.56
2.76
-7.16
-17.72
-28.54
-39.28
-49.51
-58.68
-66.12
-71.18
-73.29
-72.15
-67.9
-61.14
-52.87
-44.17
-35.91
-28.47
-21.68
-14.85
-6.99
2.79
14.8
28.32
41.5
51.7
56.41
54.18
45.38
32.12
17.44
4.32
-5.17
-10.15
-10.64
-7.09
-0.09
9.74
21.67
35.04
49.28
63.89
78.01
90.15
98.16
99.75
93.47
79.51
59.91
37.95
17.23
0.64
-10.09
-14.41
-12.8
-6.51
2.59
12.23
20.16
24.64
24.81
20.89
13.81
4.8
-4.96
-14.55
-23.29
-30.8
-36.99
-42.1
-46.55
-50.66
-54.49
-57.76
-60.04
-60.93
-60.29
-58.29
-55.31
-51.89
-48.39
-45.02
-41.8
-38.69
-35.66
-32.76
-30.03
-27.46
-24.91
-22.18
-19.11
-15.68
-12.09
-8.57
-5.28
-2.12
1.2
5.02
9.47
14.38
19.3
23.58
26.67
28.24
28.27
26.99
24.8
22.19
19.63
17.68
16.76
17.18
18.91
21.54
24.27
26.03
25.89
23.38
18.64
12.46
6.02
0.44
-3.5
-5.56
-5.99
-5.29
-4.11
-2.98
-2.4
-2.71
-4.14
-6.66
-9.94
-13.34
-16.04
-17.31
-16.75
-14.41
-10.68
-6.11
-1.2
3.69
8.25
12.28
15.44
17.46
18.18
17.64
16.08
13.94
11.69
9.75
8.42
7.82
7.83
8.07
8.05
7.31
5.71
3.46
1.13
-0.73
-1.78
-2.13
-2.27
-2.92
-4.68
-7.8
-12.01
-16.59
-20.58
-23.13
-23.71
-22.39
-19.81
-16.91
-14.69
-13.9
-14.84
-17.32
-20.72
-24.2
-26.84
-27.97
-27.24
-24.71
-20.8
-16.15
-11.41
-7.16
-3.78
-1.46
-0.25
-0.08
-0.82
-2.31
-4.33
-6.64
-8.98
-11.15
-12.96
-14.26
-14.75
-13.89
-10.88
-4.98
4.08
15.76
28.71
41.22
51.86
59.85
65.03
67.5
67.07
63.2
55.29
43.23
27.78
10.51
-6.67
-22.13
-34.97
-45.08
-52.81
-58.64
-63.11
-66.62
-69.38
-71.24
-71.51
-69.02
-62.31
-50.22
-32.47
-10.11
14.71
39.18
60.65
77.2
87.79
92.06
90
81.92
68.64
51.76
33.45
15.88
0.45
-12.58
-24.02
-34.92
-45.51
-54.58
-59.82
-59.08
-51.59
-38.6
-22.97
-7.99
3.89
11.82
16.52
19.59
22.66
26.83
32.61
39.93
48.41
57.49
66.3
73.68
78.43
79.66
77.15
71.41
63.46
54.58
45.88
38.11
31.47
25.92
21.34
17.78
15.38
14.24
14.27
15.24
16.85
18.85
21.13
23.57
25.88
27.53
27.91
26.6
23.52
18.94
13.35
7.25
0.99
-5.17
-10.9
-15.77
-19.31
-21.15
-20.89
-18.17
-12.58
-3.95
7.45
20.76
34.62
47.49
57.96
64.93
67.6
65.38
57.9
45.37
28.77
9.92
-8.86
-25.47
-38.54
-47.75
-53.59
-56.86
-58.28
-58.4
-57.52
-55.9
-53.71
-51.1
-48.21
-45.17
-42.08
-39.06
-36.18
-33.43
-30.67
-27.69
-24.34
-20.64
-16.8
-13.09
-9.76
-6.88
-4.34
-1.93
0.5
2.91
5.13
6.85
7.77
7.76
6.85
5.29
3.44
1.71
0.49
-0.01
0.19
0.78
1.34
1.55
1.41
1.32
1.85
3.44
6.07
9.1
11.41
11.9
9.85
5.28
-1.15
-8.41
-15.54
-21.88
-27.3
-32.09
-36.84
-42.25
-48.94
-57.2
-66.83
-77.05
-86.48
-93.57
-96.93
-95.83
-90.32
-81.06
-68.9
-54.44
-37.76
-18.44
4.07
30.09
59.27
90.53
122.18
152.33
179.39
202.2
220.17
232.82
239.56
239.65
232.38
217.74
196.73
171.41
144.21
117.17
91.21
65.99
40.43
13.66
-13.92
-40.32
-62.13
-75.7
-78.44
-70
-52.76
-31.31
-11.24
2.5
6.88
1.4
-12.2
-30.91
-51.57
-71.71
-89.75
-104.84
-116.46
-124.06
-127.05
-125.15
-118.71
-108.93
-97.65
-86.75
-77.56
-70.54
-65.18
-60.57
-55.85
-50.63
-45.06
-39.65
-34.99
-31.32
-28.53
-26.01
-23.06
-19.08
-13.89
-7.73
-1.23
4.83
9.87
13.57
16.08
17.75
18.97
19.93
20.5
20.35
19.09
16.46
12.34
6.8
0.04
-7.58
-15.35
-22.28
-27.27
-29.54
-28.97
-26.12
-21.8
-16.48
-9.93
-1.47
9.36
22.22
35.69
47.72
56.36
60.39
59.66
54.7
46.41
35.62
23.08
9.61
-3.79
-16.06
-26.23
-33.63
-38.03
-39.52
-38.5
-35.56
-31.38
-26.62
-21.92
-17.75
-14.41
-11.93
-10.21
-8.99
-8.01
-7.07
-6.06
-5
-3.97
-3.09
-2.51
-2.43
-2.95
-4.14
-5.93
-8.13
-10.45
-12.56
-14.17
-15.1
-15.33
-15
-14.37
-13.75
-13.3
-13.06
-12.92
-12.72
-12.39
-11.98
-11.68
-11.67
-12.11
-12.85
-13.64
-14.13
-14.01
-13.13
-11.43
-8.98
-5.99
-2.77
0.29
2.7
3.94
3.62
1.61
-1.8
-5.9
-9.59
-11.69
-11.27
-7.94
-2.16
5.06
12.36
18.6
23.2
26.34
28.64
30.86
33.38
36.04
38.31
39.54
39.41
38.15
36.38
34.89
34.26
34.79
36.48
39.32
43.18
47.79
52.56
56.48
58.46
57.76
54.49
49.61
44.45
40.03
36.52
33.14
28.58
21.73
12.23
0.52
-12.48
-25.91
-39.25
-52.29
-64.89
-76.78
-87.45
-96.19
-102.3
-105.36
-105.43
-103.27
-100.24
-98.04
-98.1
-100.83
-105.25
-109.09
-109.53
-104.2
-91.83
-72.35
-46.44
-15.13
20.32
57.92
94.54
125.92
147.57
156.22
151.24
135.04
112.28
88.13
66.55
49.31
36.34
26.7
19.64
15.13
13.45
14.54
17.33
19.84
19.92
16.25
8.94
-0.51
-9.88
-17.2
-21.42
-22.68
-22.08
-21.04
-20.66
-21.44
-23.18
-25.2
-26.77
-27.39
-26.91
-25.54
-23.57
-21.25
-18.73
-16.09
-13.37
-10.66
-8.03
-5.55
-3.22
-1.09
0.71
1.98
2.49
2.23
1.47
0.64
0.23
0.45
1.19
1.99
2.31
1.82
0.53
-1.25
-3.13
-4.81
-6.26
-7.56
-8.78
-9.86
-10.6
-10.85
-10.68
-10.43
-10.59
-11.67
-13.89
-17.17
-21.1
-25.2
-29.01
-32.25
-34.84
-36.75
-37.86
-37.92
-36.46
-32.94
-26.74
-17.5
-5.3
9.16
24.49
39.01
51.11
59.79
64.89
66.93
66.77
65.06
62.13
57.94
52.43
45.8
38.62
31.76
25.93
21.52
18.46
16.25
14.24
11.86
8.86
5.61
3.06
2.63
5.96
14.36
28.29
46.95
68.26
89.14
106.37
117.29
120.53
116.22
105.71
90.95
73.83
55.7
37.28
18.85
0.62
-16.95
-33.17
-47.17
-58.24
-65.9
-70.09
-71.06
-69.33
-65.57
-60.48
-54.87
-49.58
-45.4
-42.88
-42.2
-43.05
-44.74
-46.36
-47.05
-46.21
-43.68
-39.74
-35
-30.26
-26.22
-23.33
-21.65
-20.92
-20.69
-20.54
-20.24
-19.83
-19.59
-19.85
-20.88
-22.82
-25.68
-29.4
-33.78
-38.55
-43.32
-47.41
-49.89
-49.69
-45.97
-38.49
-28.03
-16.3
-5.66
1.52
3.61
0.18
-7.96
-19.1
-31.17
-42.36
-51.36
-57.3
-59.57
-57.7
-51.42
-40.92
-27.06
-11.15
5.47
21.91
37.92
53.63
68.75
82.15
91.93
96.28
94.4
87.14
76.69
65.65
55.94
48.25
42.13
36.76
31.6
26.72
22.57
19.59
17.85
17.04
16.63
16.08
15.02
13.2
10.5
6.92
2.64
-1.83
-5.66
-7.83
-7.32
-3.41
4.2
15.29
29.22
44.95
61.19
76.45
89.34
98.88
104.6
106.55
105.09
100.51
92.89
82.16
68.38
51.93
33.66
14.6
-4.33
-22.62
-40.03
-56.45
-71.66
-85.28
-96.92
-106.31
-113.29
-117.8
-119.75
-119.1
-115.87
-110.18
-102.21
-91.96
-79.12
-63.19
-43.9
-21.69
2
25.05
45.17
60.53
70.11
73.64
71.37
63.7
51.04
33.58
11.5
-15.05
-45.75
-80.07
-116.99
-154.73
-190.57
-221.02
-242.6
-252.9
-251.69
-241.4
-226.63
-212.55
-202.73
-197.52
-193.55
-185.22
-166.99
-135.96
-93.07
-42.67
9.23
57.02
96.94
127.41
148.37
160.59
165.21
163.67
157.94
150.32
142.97
137.26
133.47
130.77
127.77
123.19
116.38
107.49
97.35
87.06
77.69
70.08
64.69
61.53
60.18
59.82
59.49
58.34
55.85
51.98
47.05
41.58
35.94
30.23
24.36
18.27
12.03
5.96
0.41
-4.51
-8.95
-13.23
-17.55
-21.72
-25.18
-27.21
-27.24
-25.15
-21.25
-16.19
-10.68
-5.35
-0.63
3.17
5.9
7.57
8.32
8.38
8.03
7.56
7.22
7.24
7.67
8.46
9.43
10.4
11.23
11.99
12.85
13.91
15.2
16.51
17.65
18.46
18.95
19.3
19.68
20.15
20.66
21.12
21.44
21.57
21.52
21.17
20.4
19.01
16.87
13.99
10.55
6.83
3.17
-0.13
-2.93
-5.25
-7.26
-9.23
-11.28
-13.33
-15.12
-16.34
-16.84
-16.66
-15.95
-14.86
-13.36
-11.21
-8.17
-4.14
0.71
5.91
10.8
14.71
17.11
17.63
16.27
13.37
9.69
6.16
3.69
2.86
3.82
6.27
9.68
13.43
16.96
19.91
22.04
23.3
23.72
23.41
22.45
20.95
18.9
16.34
13.27
9.8
6.08
2.33
-1.23
-4.45
-7.25
-9.73
-11.97
-14.09
-16.1
-17.97
-19.65
-21.17
-22.57
-23.84
-24.89
-25.39
-25
-23.41
-20.62
-16.97
-13.03
-9.39
-6.38
-4.05
-2.21
-0.6
0.93
2.38
3.62
4.57
5.23
5.71
6.17
6.73
7.42
8.16
8.86
9.4
9.74
9.91
9.97
9.91
9.71
9.2
8.28
6.93
5.34
3.86
2.92
2.89
3.98
6.12
9.04
12.35
15.61
18.47
20.62
21.93
22.41
22.13
21.27
20.01
18.56
17.09
15.76
14.68
13.91
13.47
13.38
13.72
14.64
16.35
18.92
22.17
25.62
28.61
30.58
31.24
30.67
29.23
27.34
25.33
23.42
21.76
20.42
19.47
18.83
18.34
17.8
17.14
16.51
16.12
16.04
15.96
15.24
13.13
9.17
3.34
-3.92
-11.94
-20.09
-27.91
-35.13
-41.52
-46.9
-51.14
-54.22
-56.31
-57.71
-58.74
-59.59
-60.32
-60.73
-60.46
-59.12
-56.46
-52.55
-47.72
-42.57
-37.63
-33.25
-29.47
-26.05
-22.66
-19.03
-15.02
-10.57
-5.69
-0.35
5.49
11.75
18.24
24.61
30.4
35.18
38.64
40.68
41.48
41.46
41.16
40.99
41.08
41.3
41.24
40.6
39.31
37.6
35.87
34.37
33.04
31.5
29.35
26.41
22.89
19.26
15.94
13.11
10.55
7.9
4.89
1.52
-2
-5.39
-8.49
-11.26
-13.73
-15.94
-17.89
-19.53
-20.91
-22.14
-23.31
-24.38
-25.19
-25.47
-25.01
-23.78
-21.88
-19.43
-16.48
-12.98
-8.87
-4.27
0.44
4.74
8.14
10.43
11.69
12.26
12.51
12.64
12.65
12.47
12.06
11.55
11.09
10.84
10.79
10.78
10.63
10.21
9.6
8.99
8.58
8.44
8.47
8.36
7.85
6.72
4.96
2.73
0.27
-2.23
-4.64
-6.94
-9.15
-11.24
-13.19
-15
-16.7
-18.29
-19.79
-21.13
-22.2
-22.9
-23.18
-23.05
-22.63
-22.03
-21.31
-20.44
-19.34
-17.9
-16.13
-14.11
-12.02
-10.1
-8.48
-7.19
-6.17
-5.28
-4.39
-3.48
-2.55
-1.73
-1.14
-0.92
-1.19
-2.01
-3.23
-4.51
-5.35
-5.23
-3.85
-1.36
1.79
4.91
7.42
9.14
10.29
11.33
12.72
14.65
16.88
18.92
20.21
20.3
19.11
16.86
13.98
11.01
8.37
6.35
5.09
4.58
4.57
4.61
4.19
2.9
0.87
-1.2
-2
-0.08
5.59
15.09
27.48
41.07
53.93
64.5
71.93
76.07
77.25
75.81
71.97
65.88
57.78
48.22
38.08
28.27
19.31
11.09
3.02
-5.51
-14.61
-23.61
-31.31
-36.5
-38.62
-37.98
-35.66
-32.92
-30.67
-29.18
-28.2
-27.18
-25.67
-23.54
-20.94
-18.21
-15.54
-12.95
-10.3
-7.48
-4.54
-1.82
0.22
1.17
0.92
-0.27
-1.94
-3.6
-4.93
-5.91
-6.64
-7.2
-7.58
-7.62
-7.16
-6.16
-4.84
-3.47
-2.42
-1.91
-1.95
-2.43
-3.16
-3.95
-4.71
-5.41
-6.08
-6.78
-7.56
-8.41
-9.31
-10.25
-11.17
-12.11
-13.09
-14.13
-15.25
-16.42
-17.54
-18.52
-19.21
-19.52
-19.51
-19.25
-18.93
-18.64
-18.41
-18.16
-17.82
-17.38
-16.96
-16.74
-16.9
-17.45
-18.35
-19.52
-20.93
-22.53
-24.18
-25.61
-26.48
-26.63
-26.19
-25.65
-25.55
-26.25
-27.64
-29.17
-30.11
-29.98
-28.67
-26.5
-23.92
-21.2
-18.33
-15.04
-11.12
-6.48
-1.3
4.07
9.25
13.9
17.79
20.81
22.87
23.88
23.81
22.71
20.66
17.89
14.67
11.43
8.64
6.63
5.53
5.14
5.05
4.76
3.92
2.44
0.52
-1.53
-3.5
-5.35
-7.18
-9.07
-10.91
-12.34
-12.95
-12.39
-10.6
-7.82
-4.53
-1.29
1.48
3.59
5.04
5.98
6.62
7.1
7.56
8.03
8.48
8.86
9.17
9.42
9.65
9.9
10.22
10.67
11.3
12.1
13
13.84
14.42
14.6
14.34
13.75
13.02
12.3
11.69
11.15
10.59
9.89
8.98
7.86
6.56
5.12
3.6
2.04
0.5
-0.97
-2.37
-3.74
-5.1
-6.53
-8.04
-9.57
-11.04
-12.29
-13.15
-13.45
-13.05
-11.94
-10.27
-8.25
-6.14
-4.16
-2.45
-1.07
0.04
0.88
1.47
1.83
1.97
1.98
1.98
2.06
2.27
2.63
3.05
3.45
3.79
4.09
4.46
4.97
5.74
6.73
7.78
8.65
9.09
8.95
8.25
7.15
5.95
4.93
4.21
3.77
3.41
2.85
1.92
0.52
-1.23
-3.13
-4.98
-6.65
-8.03
-9.11
-9.85
-10.21
-10.29
-10.19
-10.11
-10.22
-10.61
-11.17
-11.7
-11.89
-11.5
-10.43
-8.7
-6.5
-4.09
-1.76
0.29
1.93
3.2
4.25
5.19
6.08
6.88
7.46
7.77
7.82
7.71
7.57
7.5
7.45
7.42
7.36
7.28
7.29
7.44
7.7
8.02
8.29
8.44
8.45
8.3
7.98
7.5
6.84
6.01
5.07
4.09
3.14
2.3
1.55
0.84
0.11
-0.8
-1.93
-3.3
-4.82
-6.37
-7.79
-9
-9.95
-10.59
-10.86
-10.69
-9.98
-8.71
-6.88
-4.45
-1.44
2.1
6.01
9.94
13.42
15.99
17.26
17.13
15.73
13.32
10.28
7.01
3.94
1.52
0.19
0.21
1.57
4.01
7.1
10.49
13.98
17.55
21.19
24.78
28.03
30.52
31.98
32.4
32.11
31.63
31.48
32.01
33.29
35.17
37.29
39.18
40.3
40.05
37.82
33.07
25.53
15.26
2.9
-10.39
-23.1
-33.74
-41.24
-45.29
-46.38
-45.57
-43.95
-42.19
-40.38
-38.08
-34.65
-29.48
-21.91
-11.34
2.82
20.87
42.46
66.41
90.74
113.2
131.88
145.77
154.69
158.93
158.66
153.75
143.86
128.97
109.71
87.3
63.24
38.62
13.92
-10.91
-35.81
-60.1
-82.28
-100.46
-113.03
-119.17
-119.13
-113.97
-105.32
-95.06
-85.12
-77.03
-71.27
-66.85
-61.29
-51.63
-35.82
-14.21
10.26
32.71
48.68
55.98
55.42
50.06
43.43
38.17
35.55
35.86
39.04
45.02
53.39
62.98
71.72
77.22
77.73
72.88
63.77
52.28
40.15
28.21
16.44
4.59
-7.21
-18.29
-27.61
-34.44
-38.54
-40.41
-40.99
-41.43
-42.32
-43.88
-45.98
-48.34
-50.86
-53.41
-55.86
-57.99
-59.67
-60.95
-62.31
-64.4
-67.82
-72.75
-78.9
-85.54
-91.77
-96.65
-99.42
-99.74
-97.63
-93.51
-88.07
-82.02
-75.87
-69.82
-63.74
-57.36
-50.52
-43.32
-36.03
-29.01
-22.52
-16.69
-11.53
-7.03
-3.18
0.04
2.74
5.06
7.13
9.02
10.69
11.98
12.76
12.93
12.57
11.87
10.99
9.94
8.64
6.94
4.82
2.46
0.15
-1.81
-3.28
-4.36
-5.24
-6.06
-6.73
-7.09
-6.91
-6.09
-4.7
-2.88
-0.79
1.49
3.9
6.3
8.49
10.19
11.2
11.36
10.73
9.45
7.77
5.96
4.26
2.86
1.89
1.36
1.21
1.39
1.8
2.44
3.29
4.28
5.28
6.05
6.31
5.84
4.51
2.36
-0.45
-3.69
-7.23
-11.18
-15.82
-21.59
-28.85
-37.8
-48.31
-59.91
-71.7
-82.51
-91.17
-96.76
-98.94
-98.17
-95.62
-92.65
-90.12
-87.86
-84.74
-79.16
-69.69
-55.54
-36.72
-14
11.23
37.15
61.83
83.61
101.43
115.09
125.19
132.73
138.63
143.34
146.76
148.43
147.86
144.77
139.17
131.38
121.94
111.62
101.17
91.11
81.86
74.04
68.9
67.8
71.42
78.87
87.44
93.29
93.05
85.63
73.09
60.11
51.88
51.7
59.54
71.91
82.91
85.91
75.54
49.31
8.6
-41.32
-92.27
-135.32
-163.47
-173.8
-168.13
-151.73
-131.05
-111.27
-94.85
-81.73
-70.69
-60.7
-51.14
-41.7
-32.08
-22.05
-11.81
-2.02
6.51
13
16.77
17.34
14.3
7.39
-3.35
-17.19
-32.65
-47.79
-60.89
-70.88
-77.57
-81.52
-83.61
-84.62
-85.03
-84.89
-83.84
-81.17
-76.09
-68.25
-58.17
-47.01
-35.99
-25.78
-16.44
-7.87
-0.47
4.76
6.6
4.25
-1.95
-10.59
-19.82
-28.13
-34.99
-40.81
-46.45
-52.58
-59.34
-66.37
-73.2
-79.61
-85.74
-91.85
-98.03
-103.99
-109.09
-112.54
-113.66
-112.08
-107.75
-101.04
-92.51
-82.79
-72.36
-61.49
-50.25
-38.72
-27.17
-16.13
-6.24
2.21
9.45
16.31
23.83
32.75
43.13
54.29
65.16
74.69
82.21
87.54
90.88
92.69
93.47
93.65
93.43
92.82
91.73
90.13
88.2
86.3
84.81
83.91
83.36
82.65
81.32
79.28
76.84
74.5
72.54
70.71
68.37
64.81
59.77
53.64
47.2
41.23
36.11
31.68
27.44
22.89
17.76
12.06
6
-0.36
-6.95
-13.75
-20.51
-26.67
-31.43
-33.99
-33.8
-30.84
-25.69
-19.26
-12.56
-6.26
-0.58
4.68
9.79
14.83
19.56
23.52
26.35
27.9
28.35
28.1
27.52
26.83
26.03
25.06
23.86
22.53
21.19
19.94
18.79
17.59
16.15
14.29
12.01
9.47
7.02
4.99
3.52
2.55
1.76
0.87
-0.35
-1.85
-3.47
-4.99
-6.32
-7.57
-8.87
-10.31
-11.64
-12.47
-12.38
-11.08
-8.68
-5.56
-2.29
0.72
3.29
5.59
7.92
10.46
13.19
15.78
17.92
19.42
20.31
20.8
21.05
21.07
20.61
19.48
17.56
15.05
12.39
9.97
7.96
6.22
4.42
2.22
-0.45
-3.52
-6.83
-10.18
-13.6
-17.13
-20.81
-24.39
-27.53
-29.78
-30.93
-31.03
-30.38
-29.42
-28.47
-27.66
-26.88
-25.98
-24.77
-23.18
-21.21
-18.87
-16.21
-13.31
-10.29
-7.33
-4.67
-2.43
-0.61
0.92
2.45
4.22
6.39
8.99
11.83
14.64
17.07
18.83
19.72
19.7
18.85
17.42
15.76
14.24
13.17
12.65
12.57
12.57
12.27
11.28
9.51
7.1
4.38
1.72
-0.68
-2.79
-4.8
-6.91
-9.23
-11.7
-14.08
-16.14
-17.76
-18.95
-19.92
-20.84
-21.8
-22.8
-23.8
-24.74
-25.64
-26.45
-27.1
-27.4
-27.21
-26.41
-25.06
-23.29
-21.23
-18.97
-16.46
-13.68
-10.68
-7.74
-5.17
-3.27
-2.15
-1.63
-1.49
-1.46
-1.41
-1.35
-1.33
-1.27
-0.98
-0.13
1.53
4.02
7.17
10.64
14.14
17.48
20.69
23.78
26.67
29.14
30.91
31.82
31.92
31.49
30.79
29.98
28.87
27.14
24.51
20.85
16.36
11.42
6.45
1.89
-1.9
-4.8
-6.77
-7.99
-8.81
-9.63
-10.71
-12.09
-13.57
-14.75
-15.33
-15.17
-14.3
-12.96
-11.27
-9.35
-7.23
-5.07
-2.99
-1.15
0.48
2.11
3.97
6.26
8.86
11.38
13.26
14.06
13.6
12.01
9.55
6.41
2.67
-1.64
-6.36
-11.14
-15.39
-18.57
-20.38
-20.99
-20.98
-21.03
-21.71
-23.16
-25.11
-27.08
-28.66
-29.69
-30.24
-30.55
-30.79
-30.93
-30.63
-29.33
-26.47
-21.65
-14.87
-6.56
2.43
11.12
18.65
24.63
29.04
32.21
34.48
36.07
37.02
37.19
36.48
34.83
