-302.77
-272.37
-243.25
-224.17
-220.54
-232.2
-253.8
-277.91
-298.78
-314.46
-326.24
-336.01
-344.03
-348.88
-349.66
-348
-348.3
-355.23
-369.81
-387.39
-398.63
-393.77
-367.47
-321.45
-263.26
-202.25
-145.53
-95.6
-51.28
-10.31
28.37
63.66
93.28
115.58
130.77
140.98
149.12
157.47
166.68
175.74
182.76
186.06
185.38
182.34
180.11
182.48
193.08
214.69
248.37
292.69
343
391.57
429.2
448.01
444.18
419.56
380.84
336.64
293.93
255.63
220.62
185.61
147.81
106.47
62.93
19.55
-21.31
-57.38
-86.26
-105.4
-112.91
-108.85
-95.93
-79.26
-64.48
-55.47
-52.74
-53.77
-54.98
-53.9
-50.7
-47.83
-48.35
-54.07
-64.41
-76.7
-87.62
-95
-98.69
-100.22
-101.46
-103.03
-103.71
-101.03
-93.02
-79.99
-64.91
-52.14
-44.98
-43.7
-45.16
-44.67
-38.78
-27.31
-13.26
-0.9
6.93
10.37
12.1
15.48
22.24
31.57
40.94
47.77
51.13
52.15
52.97
55.13
58.54
61.43
61.58
57.9
51.32
44.43
40.12
39.86
42.78
46.07
46.36
41.44
31.28
17.84
3.88
-8.46
-18.55
-27.09
-35.13
-43.11
-50.34
-55.47
-57.36
-56.02
-52.72
-49.45
-47.95
-49.11
-52.92
-58.85
-66.45
-75.69
-86.95
-100.63
-116.8
-134.89
-153.79
-172.1
-188.53
-202.28
-213.02
-220.55
-224.09
-221.79
-211.07
-189.49
-156.22
-112.9
-63.37
-12.39
36.04
79.82
118.65
153.03
183.06
207.89
225.88
235.68
237.33
232.54
224.48
217.22
214.99
221.41
238.26
264.33
294.67
321.31
335.41
330.25
303.81
259.41
204.32
146.82
93.62
48.6
13.15
-12.56
-28.7
-35.93
-36.04
-32.34
-29.14
-30.29
-37.74
-51.13
-68.29
-86.34
-102.89
-116.54
-126.68
-133.24
-136.45
-136.83
-135.32
-133.06
-131.09
-130.13
-130.6
-132.78
-137.04
-143.61
-152.22
-161.61
-169.55
-173.36
-170.9
-161.34
-145.43
-125.1
-102.64
-80.2
-59.3
-40.52
-23.31
-5.96
14.22
40.06
73.41
114.21
159.98
206.33
248.22
281.54
304.42
317.49
323.01
323.22
318.96
309.25
291.67
263.96
225.47
178.35
127.04
76.6
31.1
-7.57
-39.36
-65.65
-88.32
-109.49
-131.26
-156.04
-186.01
-221.42
-259.16
-292.04
-311.37
-310.26
-286.74
-243.73
-187.65
-125.36
-62.2
-1.76
53.01
97.57
125.93
132.52
116.12
80.84
34.76
-13.26
-59.46
-99.41
-128.08
-137.85
-126.39
-96.06
-55.19
-15.57
11.25
19.57
13.16
2.77
0.68
14.49
44.66
85.07
126.5
160.42
181.05
185.86
173.58
144.21
99.6
45.1
-11.51
-62.32
-102.42
-132.05
-155.54
-179.08
-206.97
-239.12
-270.45
-293.48
-302.06
-294.17
-272.66
-243.42
-212.67
-184.09
-158.24
-133.55
-108.43
-82.89
-58.76
-38.6
-24.04
-14.92
-9.44
-5.04
0.45
8.06
17.38
27.07
35.57
42.06
46.99
52.03
59.58
71.96
90.76
116.84
150.19
189.74
232.82
275.09
310.96
335.2
344.89
341.09
329.18
317.4
313.97
323.61
345.33
372.4
394.76
402.76
390.68
358.6
311.67
257.68
204.02
155.47
113.74
78.3
48.12
22.52
1.16
-16.82
-33.68
-52.78
-77.17
-107.97
-143.28
-178.71
-209.29
-231.66
-245.37
-252.38
-255.12
-254.79
-250.77
-241.66
-227.07
-208.64
-189.68
-173.53
-161.78
-153.71
-147.21
-140.43
-132.94
-125.58
-119.53
-115.2
-111.92
-108.58
-104.39
-99.28
-93.73
-88.24
-83.1
-78.53
-74.89
-72.75
-72.43
-73.62
-75.07
-74.98
-71.76
-64.92
-55.45
-45.43
-37.13
-31.92
-29.9
-30
-30.82
-31.52
-32.3
-34.49
-39.83
-49.56
-63.5
-79.84
-95.82
-108.8
-117.28
-121.16
-121.18
-117.71
-110.37
-97.74
-78.34
-51.49
-17.8
21.18
63.91
109.26
155.52
198.92
232.91
249.75
244.2
217.42
178.51
142.36
124.37
134.5
173.37
232.32
296.92
352.04
386.27
394.11
375.68
335.28
279.29
214.68
148.06
85.05
29.62
-15.78
-50.65
-76.23
-94.96
-109.52
-121.72
-131.91
-139.14
-142.08
-139.94
-132.95
-122.24
-109.38
-95.84
-82.95
-71.92
-63.84
-59.31
-57.96
-58.45
-58.71
-56.65
-51.09
-42.12
-31.13
-20.28
-11.46
-5.61
-2.53
-1.12
-0.06
1.48
3.56
5.72
7.4
8.45
9.31
10.75
13.41
17.39
22.08
26.43
29.28
29.9
28.23
24.89
20.94
17.5
15.22
14.02
13.19
11.63
8.32
2.85
-4.46
-12.65
-20.41
-26.67
-30.89
-33.3
-34.79
-36.6
-39.77
-44.71
-50.87
-57.01
-61.7
-64.05
-64.22
-63.32
-62.91
-64.18
-67.34
-71.55
-75.3
-77.21
-76.54
-73.48
-68.88
-63.95
-59.87
-57.59
-57.7
-60.47
-65.78
-73.16
-81.79
-90.55
-98.1
-103.16
-104.83
-102.93
-98.05
-91.23
-83.07
-73.17
-59.94
-41.25
-15.65
16.85
54.87
96.75
141.39
188.14
235.5
279.55
313.48
329.36
321.31
288.57
236.49
174.62
112.88
58.01
12.02
-26.95
-62.23
-96.36
-130.4
-164.74
-200.2
-238.27
-279.93
-324.01
-366.54
-401.59
-423.5
-429.48
-420.62
-401.22
-376.5
-350.39
-324.34
-297.74
-269.24
-238.14
-205
-171.1
-137.62
-104.83
-71.87
-37.18
0.8
43.18
90.04
140.21
191.53
241.35
287.11
327.07
360.54
387.73
409.55
427.46
443.19
458.48
474.17
489.18
499.96
501.03
486.92
454.69
405.9
346.4
284.39
227.11
178.32
137.8
102.76
70.38
39.63
11.6
-11.74
-29.06
-40.67
-48.35
-54.36
-60.33
-66.61
-72.53
-77.25
-80.42
-82.42
-84.12
-86.3
-89.24
-92.65
-95.9
-98.39
-99.9
-100.57
-100.73
-100.55
-99.92
-98.42
-95.49
-90.73
-84.1
-76.24
-68.35
-62.01
-58.55
-58.52
-61.34
-65.56
-69.43
-71.81
-72.54
-72.38
-72.39
-72.99
-73.39
-71.65
-65.36
-52.46
-31.86
-3.73
30.37
67.41
102.97
131.81
148.97
151.1
137.56
110.69
74.96
35.53
-3.14
-38.08
-67.69
-91.24
-108.33
-118.8
-123.08
-122.33
-118.2
-112.34
-105.61
-98.06
-89
-77.6
-63.59
-47.57
-30.85
-15
-1.28
9.67
17.78
23.26
26.28
26.92
25.36
22.15
18.25
14.87
13
13.01
14.49
16.32
16.94
14.85
8.96
-1.07
-14.68
-30.23
-45.03
-55.63
-58.63
-51.75
-34.86
-10.1
18.76
47.77
74.06
96.39
114.57
128.5
137.32
139.52
133.87
120.5
101.3
79.44
58.16
39.64
24.53
12.4
2.62
-5.12
-10.65
-13.72
-14.46
-13.63
-12.47
-12.31
-14
-17.75
-23.13
-29.34
-35.7
-41.91
-48.14
-54.98
-62.98
-72.35
-82.68
-92.85
-101.17
-105.88
-105.48
-99.16
-87.13
-70.54
-51.36
-31.74
-13.17
4.13
21.16
39.61
61.02
86.23
115.3
147.68
182.44
218.15
252.67
282.86
304.87
314.86
309.83
288.38
251.13
200.93
143.17
85.58
37.27
6.65
-1.39
12.29
40.86
73.58
99.34
110
102
75.9
34.84
-17.2
-76.08
-137.31
-195.71
-245.73
-282.69
-304.32
-311.66
-308.88
-301.82
-295.95
-294.49
-297.69
-303.16
-307.19
-306.5
-299.49
-286.52
-269.27
-249.61
-228.6
-206.4
-182.75
-157.7
-131.87
-106.04
-80.54
-54.98
-28.63
-1.17
26.85
54.02
78.98
101.08
120.54
137.82
152.74
164.02
170.03
169.95
164.81
157.42
151.17
148.5
149.85
153.9
158.61
162.48
165.35
168.31
173.03
180.76
191.77
205.17
219.11
231.23
239.15
240.96
235.68
223.42
205.15
182.11
155.32
125.34
92.49
57.32
20.92
-15.07
-48.73
-78.2
-101.94
-118.78
-128.18
-130.46
-127.06
-120.48
-113.89
-110.08
-110.53
-114.81
-120.84
-125.85
-127.62
-125.56
-120.95
-116.34
-114.21
-115.67
-119.73
-123.38
-122.44
-112.77
-91.74
-59.4
-19.21
22.08
55.72
73.21
69.2
44.03
4.62
-36.99
-67.06
-74.21
-52.77
-4.16
63.63
138.24
205.87
254.24
275.11
265.71
228.89
171.75
103.46
32.64
-34.59
-95.56
-150.68
-201.86
-250.56
-296.27
-336.15
-365.85
-381.25
-379.92
-361.92
-329.57
-286.29
-235.67
-181.18
-126.49
-75.46
-31.49
3.92
32.2
57.49
84.9
118.03
156.98
198.37
236.98
268.25
290.17
303.73
311.87
317.76
323.13
327.62
329.02
324.33
311.06
288.22
256.68
218.81
177.7
136.23
96.48
59.77
26.93
-1.27
-24.21
-41.58
-53.88
-62.4
-68.93
-75.02
-81.39
-87.75
-93.23
-97.16
-99.57
-101.26
-103.37
-106.72
-111.43
-116.97
-122.56
-127.66
-132.12
-136.01
-139.23
-141.4
-142.02
-140.87
-138.41
-135.78
-134.2
-134.29
-135.52
-136.32
-134.69
-129.24
-119.79
-107.65
-95.06
-83.91
-74.85
-66.62
-56.24
-39.8
-13.72
23.71
71.19
123.83
173.78
211.89
230.32
224.97
196.88
152.04
99.51
48.78
7.3
-21.08
-36.29
-41.13
-39.69
-35.9
-32.34
-29.77
-27.49
-24.12
-18.77
-11.59
-3.44
4.82
12.63
19.85
26.44
32.24
37.25
42.2
48.87
59.47
75.43
95.94
117.6
135.29
144
140.61
124.7
98.39
65.29
29.6
-4.54
-33.41
-54.14
-65.47
-68.17
-64.93
-59.42
-55.02
-53.79
-55.95
-60.3
-65.12
-68.93
-70.78
-70.17
-66.86
-60.92
-52.77
-43.28
-33.62
-24.87
-17.65
-12.06
-8.04
-5.7
-5.52
-8.14
-13.65
-21.13
-28.59
-33.67
-34.57
-31.1
-25.07
-19.67
-18.16
-21.98
-29.65
-36.83
-37.66
-26.65
-0.41
41.18
94.6
153.06
207.55
248.54
268.03
261.58
229.42
176.29
109.97
39.28
-27.77
-84.83
-127.5
-153.29
-161.91
-155.66
-139.27
-118.8
-99.67
-85.07
-75.23
-68.3
-61.8
-54
-44.61
-34.47
-24.83
-16.73
-10.75
-7.11
-5.8
-6.65
-9.19
-12.73
-16.37
-19.26
-20.89
-21.19
-20.48
-19.29
-18.22
-17.58
-17.42
-17.55
-17.64
-17.62
-17.72
-18.43
-20.22
-23.19
-26.92
-30.81
-34.4
-37.36
-39.06
-37.95
-31.68
-18
3.81
32.01
62.66
91.23
114.63
132.18
145.29
155.73
164.15
169.66
170.58
165.94
156.23
143.38
129.5
116.03
103.22
90.63
77.76
64.61
51.68
39.56
28.67
18.9
9.88
1.08
-7.78
-16.78
-26.09
-36.43
-49.51
-67.62
-92.58
-124.33
-160.01
-194.08
-219.85
-231.32
-224.74
-199.26
-156.69
-101
-37.79
25.8
81.57
121.26
138.39
130.13
98.4
49.48
-7.72
-64.25
-113.13
-150.67
-176.63
-193.39
-204.7
-214.34
-225.17
-238.45
-253.54
-267.96
-277.77
-278.45
-266.28
-239.81
-200.82
-154.18
-106.51
-64
-30.41
-6.17
11.22
25.71
41.29
60.86
85.64
114.7
145.03
171.97
190.62
197.81
193.77
182.09
168.24
156.89
149.64
144.79
138.9
129.39
116.1
101.15
87.28
76.08
67.22
59.23
51
42.82
36.28
33.3
34.8
39.87
46.09
50.52
51
47.03
39.81
31.6
24.68
20.39
18.71
18.51
18.22
16.87
14.76
13.49
15.3
22.03
34.12
50.11
67.11
81.71
91.16
94.2
91.11
83.36
72.86
61.4
50.2
39.84
30.18
20.42
9.24
-4.77
-22.74
-44.93
-70.56
-97.81
-124.31
-147.54
-165.46
-176.6
-180.22
-175.99
-163.54
-142.37
-112.26
-74.17
-30.98
12.5
50.86
80.16
99.66
112.11
122.02
133.06
145.72
157.22
163.49
162.14
154.32
144.06
135.89
131.82
130.23
127.22
119.52
106.93
92.81
81.99
77.67
79.31
82.55
81.88
73.76
58.72
40.74
24.75
13.59
6.78
1.27
-6.02
-15.89
-26.74
-36.15
-42.95
-47.95
-52.82
-58.1
-61.93
-60.88
-52.42
-37.46
-21.24
-11.31
-13.84
-30.39
-56.98
-86.19
-111.06
-128.57
-140.93
-154.06
-174.13
-204.06
-241.51
-279.44
-308.77
-322.22
-317.25
-296.6
-266.17
-231.75
-196.38
-159.53
-118.94
-73.45
-25.29
19.93
55.39
76.32
82.28
77.27
67.7
59.33
55.11
54.59
55.11
53.63
48.2
38.55
25.94
12.5
0.51
-8.26
-12.99
-13.83
-11.54
-7.09
-1.15
6.1
14.79
25.23
37.96
53.91
74.43
100.69
132.65
168.17
202.8
230.97
248.13
252.63
246.41
234
220.35
208.73
199.81
192.4
185.16
178.2
173.51
173.96
181.5
195.61
212.73
227.18
233.16
226.82
207.82
179.04
145.23
111.11
79.68
51.77
26.61
3.15
-19.11
-39.9
-58.68
-75.19
-89.7
-102.95
-115.81
-129.13
-143.71
-160.25
-179.08
-199.6
-219.92
-237.03
-247.49
-248.4
-238.22
-217.12
-186.98
-150.92
-112.72
-76.24
-44.75
-20.48
-4.09
5.18
9.04
9.45
7.95
5.48
2.45
-0.94
-4.63
-8.61
-13.01
-18.05
-23.78
-29.89
-35.71
-40.38
-43.21
-44.05
-43.36
-42.1
-41.44
-42.32
-45.24
-50.11
-56.44
-63.54
-70.78
-77.71
-84.08
-89.71
-94.44
-98.04
-100.27
-100.98
-100.24
-98.38
-95.92
-93.39
-91.09
-88.9
-86.44
-83.26
-79.17
-74.49
-70.01
-66.66
-65.07
-65.3
-66.77
-68.53
-69.78
-70.15
-69.85
-69.5
-69.83
-71.39
-74.36
-78.51
-83.16
-87.02
-88.27
-84.62
-73.97
-55.06
-28.14
4.9
41.11
77.64
112.95
147.24
181.81
217.44
252.8
283.74
304.28
308.78
294.35
262.14
216.94
165.43
113.97
67.1
27.03
-5.81
-31.97
-52.5
-68.69
-82.03
-94.11
-106.22
-118.8
-131.04
-140.77
-144.83
-140.06
-124.48
-97.83
-61.49
-17.62
31.79
85.02
139.77
191.9
234.94
261.3
265.02
244.49
203.78
151.88
100.15
59.53
38.38
41.38
68.87
116.53
175.5
233.6
278.11
299.21
292.79
261.14
211.44
153
94.39
41.83
-1.2
-33.73
-56.95
-73.52
-86.59
-98.49
-109.61
-118.16
-121.26
-116.86
-105.34
-89.95
-75.49
-66.33
-64.65
-69.91
-79.68
-91.13
-102.12
-111.51
-118.86
-123.86
-126.18
-125.82
-123.57
-120.92
-119.53
-120.47
-123.62
-127.68
-130.89
-131.8
-129.66
-124.25
-115.58
-103.59
-88.33
-70.54
-51.86
-34.54
-20.53
-10.61
-4.09
0.61
4.83
8.79
11.53
11.69
8.64
3.2
-2.64
-6.75
-8.11
-7.29
-6.03
-6.14
-8.38
-12.07
-15.62
-17.54
-17.4
-16.13
-15.49
-17.25
-22.25
-30.11
-39.56
-49.18
-58.14
-66.45
-74.64
-83.15
-91.84
-99.94
-106.53
-111.12
-113.96
-115.64
-116.19
-114.36
-107.67
-93.32
-69.68
-37.14
2.11
45.41
90.8
137.07
182.66
224.01
254.97
268.1
257.47
221.24
162.58
88.68
8.33
-70.15
-140.05
-196.26
-235.05
-254.11
-253.1
-234
-200.92
-159.25
-114.38
-70.62
-30.45
6.03
41.01
77.73
118.29
160.97
199.06
222.51
222.15
194.8
145.92
88.17
36.7
3.41
-6.62
4.48
29.73
60.29
87.64
104.81
107.45
94.86
70.84
43.21
21.42
12.89
19.89
38.82
62.12
82.01
94.07
98.9
101.49
108.58
125.3
152.45
185.66
216.62
236.09
237.44
218.68
182.55
134.51
80.17
23.85
-31.66
-84.3
-132.17
-173.32
-206.03
-229.06
-242.02
-245.4
-241.04
-232.63
-225.64
-225.78
-236.22
-255.25
-275.85
-288.03
-283.08
-257.28
-213.05
-157.14
-97.02
-37.87
18.24
70.83
119.23
161.46
194.89
217.95
231.95
241.53
253.19
272.44
300.92
334.94
366.03
383.61
378.93
348.51
295.55
228.93
159.78
97.82
48.69
13.21
-11.14
-28.04
-40.38
-49.58
-56.03
-59.92
-61.8
-62.56
-63.05
-63.62
-63.89
-63.19
-60.83
-56.55
-50.54
-43.4
-35.91
-28.89
-22.93
-18.29
-14.86
-12.24
-10.12
-8.43
-7.28
-6.86
-7.19
-8.05
-9.23
-10.85
-13.34
-17.25
-22.7
-29.05
-34.98
-39.1
-40.54
-39.37
-36.46
-32.92
-29.66
-27.05
-25.05
-23.54
-22.49
-21.99
-22.15
-23.07
-24.88
-27.79
-32.06
-37.87
-44.97
-52.68
-60.04
-66.3
-71.32
-75.53
-79.62
-83.99
-88.48
-92.49
-95.54
-97.77
-100.14
-104.16
-110.9
-120.04
-129.24
-134.53
-131.5
-116.69
-88.84
-49.58
-3.28
43.7
84.28
112.11
122.95
115.75
93.07
60.66
26.14
-3.06
-21.76
-28.43
-25.1
-16.06
-5.62
3.9
12.75
23.02
37.16
56.65
81.5
110.54
141.87
173
200.63
220.37
227.39
217.56
189.22
144.1
87.46
26.94
-29.05
-73.02
-99.95
-108.03
-98.61
-75.07
-41.66
-2.42
38.98
78.75
112.35
134.84
142.41
133.96
111.7
80.1
43.9
6.52
-30.21
-64.71
-94.19
-114.63
-122.51
-117.53
-104.11
-90.34
-84.59
-91.56
-109.62
-131.3
-146.29
-145.82
-126.36
-90.72
-46.81
-4.93
25.39
38.01
31.42
8.93
-22.39
-53.72
-77.02
-87.04
-82.4
-65.26
-39.69
-9.71
22.05
54.49
87.04
118.79
148.43
174.79
197.33
216.03
230.59
239.53
240.13
229.26
204.83
166.78
117.43
60.86
1.9
-54.85
-105.59
-147.7
-180
-202.82
-217.95
-227.94
-235.13
-240.63
-244.13
-244.35
-239.91
-230.09
-215.05
-195.74
-173.39
-149.09
-123.51
-96.68
-68.02
-36.53
-0.97
39.77
86.3
138.14
193.13
247.04
293.89
327
340.65
332.12
302.7
257.61
204.47
151.19
103.86
65.54
36.42
14.8
-1.58
-14.58
-25.35
-34.41
-42
-48.32
-53.49
-57.54
-60.2
-61.12
-60.23
-58
-55.51
-54.16
-55.16
-59
-65.21
-72.58
-79.6
-85.06
-88.35
-89.53
-89.23
-88.22
-87.05
-85.85
-84.35
-82.12
-78.9
-74.84
-70.5
-66.65
-63.97
-62.76
-62.94
-64.15
-66.05
-68.48
-71.44
-74.97
-79.11
-83.88
-89.27
-95.25
-101.66
-108.11
-113.93
-118.29
-120.46
-120.03
-117.07
-111.97
-105.12
-96.53
-85.69
-71.79
-54.23
-33.16
-9.87
13.42
34.16
50.36
61.52
68.79
74.57
81.46
91.26
104.33
119.59
135.09
148.66
158.57
163.78
164
159.55
151.28
140.39
128.29
116.32
105.52
96.44
89.21
83.61
79.29
75.74
72.36
68.36
62.85
55
44.17
30.25
14.07
-2.3
-15.69
-22.77
-21.26
-11.2
4.79
22.41
37.5
47.66
53.02
55.5
57.45
60.31
63.94
67.09
68.27
66.68
62.49
56.64
50.28
44.38
39.28
34.66
29.8
24.08
17.68
11.74
7.96
7.61
10.55
14.93
18.11
17.95
14.03
7.8
1.7
-2.15
-3
-1.6
0.4
1.42
0.6
-2.18
-6.53
-11.94
-17.8
-23.4
-28
-31.03
-32.5
-33.17
-34.42
-37.64
-43.6
-52.21
-62.51
-73.17
-82.91
-90.77
-96.07
-98.47
-97.77
-94.15
-88.19
-80.73
-72.65
-64.6
-56.9
-49.72
-43.39
-38.37
-35.19
-34.03
-34.4
-35.24
-35.26
-33.53
-29.8
-24.57
-18.62
-12.67
-7.02
-1.69
3.25
7.45
10.34
11.44
10.77
9.05
7.33
6.38
6.16
5.72
3.86
-0.01
-5.2
-9.94
-12.07
-10.04
-3.26
7.85
22.32
39.05
57.01
75.27
92.85
108.67
121.48
130.03
133.2
130.13
120.55
105.28
86.57
67.56
51.45
40.7
36.82
40.68
52.62
71.87
95.58
118.53
133.95
135.8
121.25
91.81
52.61
10.1
-30.23
-65.14
-93.14
-113.26
-124.06
-123.97
-112.55
-91.62
-65.34
-39.17
-18.44
-6.89
-5.95
-14.5
-29.36
-46.21
-60.71
-69.67
-71.9
-68.42
-61.89
-55.51
-51.84
-51.82
-54.72
-58.54
-61.18
-61.33
-58.88
-54.42
-48.52
-41.32
-32.48
-22.16
-11.75
-4.01
-2.02
-7.61
-20.13
-36.22
-51.01
-59.69
-58.8
-46.44
-22
13.99
59.58
110.71
160.96
202.6
228.47
234.32
220.27
190.64
152.27
112.18
75.65
45.44
22.15
5
-7.38
-16.28
-22.74
-27.63
-31.67
-35.73
-40.83
-47.93
-57.29
-68.1
-78.61
-86.54
-90.22
-89.47
-85.81
-81.71
-79.36
-79.52
-81.32
-83.12
-83.83
-83.75
-84.13
-85.93
-88.22
-87.7
-79.78
-60.45
-27.94
16.71
70.2
127.96
184.78
234.9
272.32
291.63
289.55
266.34
226.08
175.58
122.26
72.22
29.15
-5.46
-31.46
-49.29
-59.73
-63.91
-63.32
-59.68
-54.47
-48.78
-43.38
-38.79
-35.26
-32.85
-31.34
-30.47
-30.14
-30.51
-31.84
-34.2
-37.22
-40.16
-42.22
-43.02
-42.7
-41.93
-41.41
-41.61
-42.57
-44.12
-46.1
-48.58
-51.76
-55.67
-60.11
-64.51
-68.22
-70.75
-72.04
-72.38
-72.27
-72.2
-72.52
-73.45
-74.92
-76.66
-78.08
-78.46
-77.13
-73.71
-68.22
-61.05
-52.82
-44.13
-35.56
-27.6
-20.67
-15.08
-10.85
-7.71
-5.13
-2.56
0.29
3.33
6.03
7.69
7.63
5.52
1.53
-3.71
-9.35
-14.55
-18.64
-21.11
-21.46
-19.15
-13.95
-6.1
3.76
15.04
27.97
44.25
66.77
98.41
140.17
189.69
241
285.93
316.47
327.12
316.26
286.06
241.3
187.76
130.89
75.12
23.54
-21.76
-59.52
-89.09
-110.46
-124.42
-132.48
-136.64
-138.99
-141.21
-144.16
-147.67
-150.83
-152.47
-151.62
-147.96
-141.89
-134.3
-126.2
-118.31
-110.76
-103.21
-95.13
-86.15
-76.34
-66.33
-57.01
-49.23
-43.3
-38.69
-34.06
-27.54
-17.56
-3.82
12.07
26.74
36.25
37.71
30.76
17.78
2.86
-10.2
-19.5
-25.33
-29.32
-32.91
-36.71
-40.79
-45.56
-52.07
-61.33
-72.95
-84.27
-91.29
-91.1
-84.46
-76.32
-73.4
-79.95
-94.26
-108.35
-111.21
-94.08
-54.6
2.33
67.36
130.84
185.83
228.9
258.31
272.12
267.39
241.48
194.47
130.84
59.55
-8.15
-61.85
-94.91
-105.88
-98.06
-77.34
-49.66
-19.27
11.69
42.31
71.8
98.68
120.95
136.84
145.66
148.07
145.58
139.77
131.76
122.07
110.82
98.02
83.49
66.9
48
26.99
4.94
-16.3
-34.76
-49.51
-61.3
-72.48
-85.88
-103.33
-124.7
-147.77
-169.28
-186.51
-198.25
-204.71
-206.45
-203.09
-193.03
-174.25
-145.93
-109.51
-68.64
-27.55
10.84
45.6
76.69
102.86
120.52
124.98
113.7
89.63
61.91
42.68
41.27
59.1
88.5
116.54
131.76
130.27
117.47
104.68
102.68
115.93
140.77
167.76
186.83
191.71
181.92
161.68
136.96
112.58
90.74
71.58
54.41
39
25.86
15.71
8.61
3.45
-1.74
-9.04
-19.57
-32.95
-47.24
-59.64
-67.45
-68.99
-64.18
-54.49
-42.5
-31.09
-22.57
-18.11
-17.42
-19.05
-20.94
-21.27
-19.06
-14.53
-8.93
-4
-1.28
-1.47
-4.15
-8.11
-11.93
-14.72
-16.45
-17.83
-19.81
-22.91
-26.97
-31.27
-35.07
-38.07
-40.54
-42.95
-45.58
-48.32
-50.76
-52.6
-53.95
-55.3
-57.27
-60.18
-63.94
-67.98
-71.55
-73.91
-74.56
-73.52
-71.48
-69.67
-69.37
-71.09
-73.93
-75.77
-74.22
-67.95
-57.71
-46.13
-36.67
-32.14
-33.81
-41.05
-51.6
-62.12
-68.5
-66.3
-51.52
-22.25
19.76
68.58
115.44
151.41
170.38
170.74
155.21
129.21
98.94
69.94
46.52
31.69
27.1
32.79
47.13
67.08
89
109.77
127.41
141.26
151.37
157.89
160.82
160.16
156.02
148.69
138.56
125.99
111.27
94.6
76.36
57.35
38.97
23.19
12.22
7.89
10.99
20.93
35.86
53.27
70.59
85.56
96.12
100.22
95.67
80.8
55.35
21.09
-18.1
-57.05
-90.52
-114.4
-126.47
-126.64
-116.81
-100.57
-82.66
-68.07
-61.01
-63.86
-76.55
-96.6
-119.99
-142.4
-160.55
-173.29
-181.69
-188.41
-196.49
-207.94
-222.9
-239.27
-253.45
-261.74
-261.78
-253.45
-238.7
-220.48
-201.28
-181.94
-161.39
-137.48
-108.52
-74.55
-37.77
-1.87
29.69
54.95
73.94
88.16
99.4
108.82
116.56
122.12
124.9
124.89
123.08
121.26
121.46
124.88
131.16
138.24
143.15
143.31
137.76
127.52
114.92
102.2
90.31
78.82
66.64
53.14
38.96
25.61
14.62
6.66
1.2
-3.15
-7.81
-13.54
-20.31
-27.56
-34.56
-40.63
-45.33
-48.4
-49.78
-49.55
-47.93
-45.18
-41.52
-37.07
-31.85
-25.76
-18.63
-9.96
1.27
16.62
37.71
65.4
98.96
135.91
172.45
204.5
228.84
243.79
249.29
246.31
236.17
219.92
198.28
171.91
141.83
109.69
77.64
47.99
22.6
2.41
-12.68
-23.55
-31.31
-36.8
-40.32
-41.97
-41.96
-40.93
-39.83
-39.46
-40.15
-41.56
-42.93
-43.57
-43.33
-42.65
-42.33
-43.09
-45.14
-48.05
-51
-53.12
-53.86
-53.14
-51.34
-49.03
-46.74
-44.84
-43.47
-42.62
-42.15
-41.95
-41.9
-41.9
-41.9
-41.88
-41.92
-42.14
-42.72
-43.71
-44.97
-46.07
-46.43
-45.46
-42.86
-38.68
-33.38
-27.73
-22.44
-18.09
-14.94
-12.96
-11.92
-11.49
-11.29
-11
-10.47
-9.65
-8.71
-7.81
-7.09
-6.55
-6.08
-5.51
-4.71
-3.7
-2.55
-1.41
-0.43
0.36
0.98
1.45
1.81
2.06
2.12
1.93
1.4
0.44
-0.89
-2.45
-4.02
-5.4
-6.52
-7.53
-8.66
-10.15
-12.15
-14.56
-17.14
-19.62
-21.76
-23.51
-25.04
-26.66
-28.76
-31.68
-35.58
-40.36
-45.65
-50.97
-55.99
-60.63
-65.17
-70.09
-75.81
-82.41
-89.58
-96.56
-102.41
-106.24
-107.49
-106.13
-102.77
-98.47
-94.4
-91.13
-87.91
-82.57
-71.91
-52.64
-22.41
19.08
69.56
124.18
176.52
220.17
250.44
265.5
266.34
255.78
236.81
211.65
181.73
148.56
114.74
83.84
59.29
42.47
31.6
22.26
9.69
-8.34
-30.42
-52.47
-70.7
-83.8
-93.62
-103.58
-116.27
-131.74
-147.83
-161.67
-171.07
-174.82
-171.92
-160.35
-137.21
-100.09
-49.64
9.12
67.59
116.5
149.2
163.91
163.92
155.83
146.82
141.94
142.26
144.68
143.5
133.12
110.39
75.85
32.99
-13.78
-61.3
-108.81
-156.93
-205.38
-250.82
-286.23
-303.11
-295.41
-262.77
-211.27
-151.14
-92.37
-40.55
4.79
48.16
94.19
143.69
192.31
232.32
256.05
259.22
242.17
209.18
166.51
120.35
75.56
34.76
-1.63
-34.95
-66.84
-97.58
-124.8
-143.62
-148.23
-134.7
-103.64
-61.24
-17.94
14.6
26.96
14.76
-20.17
-70.03
-123.25
-167.35
-192.12
-192.32
-168.81
-127.99
-79.65
-33.96
1.37
23
32.59
35.67
39.7
51.43
74.7
109.19
150.76
193.23
230.96
260.83
282.69
297.74
306.37
306.62
294.52
266.1
219.9
158.65
88.83
17.96
-48.38
-108.22
-162.7
-213.59
-261.04
-302.83
-336.03
-359.07
-372.64
-378.71
-378.32
-369.58
-347.64
-307.51
-248.16
-175.52
-101.84
-41.22
-3.57
9.87
6.79
-0.14
0.28
13.16
36.5
64.08
90.49
114.93
141.54
176.36
222.96
278.88
335.94
383.07
410.85
414.96
396.6
360.81
313.87
261.38
208.03
158.63
118.07
91.14
81.34
88.91
109.72
136.18
159.41
172.27
172.05
159.94
140.1
117.9
96.84
76.78
54.5
25.75
-11.98
-56.79
-103.98
-147.6
-180.14
-195.06
-189.03
-163.02
-121.74
-75.75
-29.27
16.25
59.67
98.75
130.31
149.64
152.3
135.64
99.82
49.01
-10.1
-68.72
-117
-146.31
-151.56
-132.93
-96.29
-52.13
-12.42
11.73
13.3
-8.65
-49.31
-100.15
-151.84
-196.65
-230.27
-251.52
-262.14
-265.43
-265.63
-267.83
-277.22
-297.59
-328.64
-364.51
-394.34
-406.28
-392.9
-355.08
-301.94
-246.31
-198.3
-160.81
-129.94
-99.22
-65.03
-29.13
3.15
27.41
43.72
56.89
73.58
98.13
130.55
167.51
204.98
240.55
273.04
300.7
319.87
326.29
317.7
296.57
270.43
249.07
240.58
247.77
267.14
290.82
310.13
318.59
313.52
295.5
267.06
231.38
191.65
151.01
112.5
78.73
51.33
30.52
15.06
2.21
-11.65
-30.18
-56.05
-90.26
-131.39
-175.61
-217.31
-250.34
-270.05
-274.77
-266.34
-249.35
-229.06
-209.3
-191.38
-174.53
-157.39
-139.64
-122.38
-107.38
-95.73
-86.84
-78.71
-69.19
-57.37
-44.16
-31.77
-22.51
-17.63
-17.12
-20.03
-25.19
-31.75
-39.01
-46.11
-51.96
-55.37
-55.74
-53.67
-50.8
-49.3
-50.84
-55.64
-62.31
-68.5
-71.82
-70.9
-65.74
-57.45
-47.6
-37.47
-27.66
-18.2
-9.1
-0.42
7.55
14.68
21.35
28.39
36.63
46.34
56.68
65.81
71.55
72.26
67.77
59.77
51.4
46.08
46.02
51.18
59.31
66.95
71.04
70.27
65.37
58.4
51.39
45.23
39.7
34.13
28.53
23.87
21.54
22.39
25.77
29.77
32.16
31.52
27.98
22.98
18.31
15.09
13.2
11.55
9.02
5.25
1.06
-2.04
-2.77
-0.93
2.36
5.18
5.83
3.75
-0.31
-4.83
-8.5
-11
-12.92
-15.22
-18.33
-21.86
-24.81
-26.36
-26.59
-26.36
-26.73
-28.17
-30.08
-31.05
-29.72
-25.48
-18.87
-11.23
-3.95
2.04
6.61
10.09
12.86
14.97
16.14
16.12
15.07
13.78
13.4
14.9
18.42
22.96
26.75
28.04
26.1
21.67
16.62
12.94
11.7
12.51
13.85
14.11
12.48
9.33
5.71
2.54
0
-2.42
-5.35
-8.8
-12.09
-14.29
-14.92
-14.34
-13.5
-13.34
-14.2
-15.81
-17.63
-19.49
-21.73
-24.92
-29.29
-34.46
-39.6
-43.9
-47.1
-49.52
-51.8
-54.47
-57.71
-61.45
-65.69
-70.65
-76.66
-83.94
-92.26
-101
-109.47
-117.21
-124.12
-130.3
-135.81
-140.41
-143.71
-145.38
-145.55
-144.83
-144.1
-143.98
-144.14
-143.08
-138.32
-127.27
-108.21
-81.17
-47.99
-11.71
24.44
58.15
88.5
115.94
141.7
167.2
193.5
220.91
248.68
274.95
297.06
312.28
318.67
315.78
304.81
288.01
267.76
245.75
222.57
197.86
170.75
140.53
107.05
70.92
33.38
-4.03
-39.92
-73.33
-103.81
-131.24
-155.37
-175.64
-191.43
-202.71
-210.47
-216.63
-223.16
-231.15
-240.13
-247.99
-251.98
-249.6
-239.92
-223.74
-202.86
-179
-152.91
-124.36
-92.17
-55.49
-13.91
31.23
77.32
121.25
160.42
193.48
220.09
241.76
260.86
281.37
306.75
339.15
378.51
421.79
463.37
495.47
512.27
510.97
494.32
468.05
438.65
411.02
386.71
364.3
340.01
312.19
269.84
208.32
128.44
36.71
-56.91
-143.65
-211.42
-262.7
-302.63
-335.02
-359.44
-374.07
-378.87
-373.72
-359.67
-338.46
-313
-284.59
-254.38
-222.64
-190.2
-157.96
-126.02
-93.66
-59.47
-23.44
13.73
48.89
77.73
95.89
101.49
96.84
87.96
82.55
85.82
98.72
116.38
129.88
129.75
110.11
71.1
18.36
-39.11
-92.07
-132.45
-154.98
-157.85
-143.37
-118
-91.41
-74.55
-76.3
-100.3
-142.68
-193.08
-237.81
-264.29
-264.78
-238.06
-188.57
-124.11
-53.15
17.04
81.27
136.4
180.72
213.12
232.31
237.01
226.53
201.6
164.87
120.47
73.11
26.7
-16.4
-55.23
-89.42
-118.12
-139.61
-151.72
-153.13
-144.34
-127.66
-106
-81.02
-52.4
-18.11
23.52
71.72
121.74
165.33
193
197.67
177.88
138.6
89.66
42.04
4.4
-19.12
-28.91
-28.51
-22.97
-17.17
-14.57
-15.97
-19.34
-20.3
-13.82
3.64
32.65
70.61
113.11
155.31
192.85
221.94
239.42
243.11
232.71
210.28
179.74
145.46
110.46
75.66
40.43
4.08
-33.05
-69.68
-104.48
-136.91
-167.11
-195.26
-220.57
-240.91
-253.24
-254.4
-242.09
-215.58
-176.6
-129.7
-82.02
-41.66
-14.97
-4.03
-5.28
-10.51
-9.67
5.55
38.96
88.84
148.74
209.4
260.87
294.59
304.89
289.9
252.08
197.79
135.98
76.09
25.63
-11.96
-37.85
-56.88
-75.05
-96.77
-123.08
-151.8
-179.14
-201.84
-218.67
-230.22
-237.97
-243.36
-247.7
-252.81
-261.31
-275.96
-298.06
-325.91
-354.36
-375.97
-383.35
-371.6
-339.87
-291.59
-233.45
-173.65
-119.94
-77.79
-49.57
-34.42
-29.04
-28.86
-29.06
-25.57
-16.31
-2.39
11.5
18.34
11.79
-9.88
-41.51
-71.82
-87.75
-79.9
-46.8
5.18
65.28
123.34
173.68
215.73
251.91
284.74
314.92
341.38
362.62
377.63
385.71
385.76
375.55
352.26
313.77
260.37
195.52
125.41
57.26
-2.44
-49.35
-81.86
-100.81
-108.72
-108.75
-103.67
-95.11
-83.35
-67.7
-47.23
-22.09
6.28
35.44
62.88
87
107.43
124.67
139.44
152.2
162.93
171.39
177.35
180.65
181.11
178.45
172.28
162.32
148.56
131.39
111.59
90.3
68.84
48.63
30.98
16.92
7.09
1.58
-0.09
1.2
4.52
9.04
14.33
20.07
25.9
31.19
35.21
37.47
38.13
38.14
38.71
40.8
44.41
48.32
50.3
47.83
38.77
21.96
-2.31
-32.38
-65.58
-98.78
-129.27
-155.78
-179.19
-202.14
-227.46
-255.75
-283.78
-304.45
-309.18
-291.21
-248.69
-185.62
-110.56
-33.68
36.17
93.32
135.69
164.01
180.66
188.81
191.54
191.3
189.33
185.3
177.42
163.08
139.89
106.61
64.33
16.81
-29.74
-68.21
-92.94
-102.19
-99.3
-91.78
-88.47
-95.74
-114.84
-141.75
-169.62
-192.45
-208.03
-218.32
-226.96
-235.9
-243.29
-244.54
-235.74
-216.95
-193.34
-173.07
-163.15
-166.27
-180.5
-201.83
-227.44
-257.04
-291.19
-327.97
-360.88
-380
-376.12
-345.48
-292.27
-227.15
-162.81
-109.1
-70.24
-45.05
-29.14
-17.94
-8.41
0.76
10.11
20.28
32.47
47.88
67.2
90.5
117.16
146.62
178.62
212.84
248.29
282.59
312.05
332.62
341.26
336.85
320.69
295.85
266.05
234.85
205.38
180.25
161.34
149.54
144.38
144.25
147.04
151.02
155.46
160.59
166.92
174.34
181.77
187.21
188.32
182.95
169.34
146.52
114.5
74.73
30.41
-13.94
-53.46
-84.39
-105.06
-115.93
-118.86
-116.4
-110.76
-103.6
-96.05
-88.93
-82.61
-76.79
-70.61
-63.02
-53.57
-42.79
-32.12
-23.28
-17.46
-14.79
-14.35
-14.66
-14.3
-12.39
-8.66
-3.32
3.05
9.78
16.2
21.73
26.01
29.01
31.07
32.79
34.83
37.67
41.45
45.93
50.56
54.59
57.27
58.09
56.93
54.09
50.16
45.67
40.85
35.46
29.04
21.16
11.74
1.04
-10.58
-22.9
-35.91
-49.64
-63.79
-77.61
-89.93
-99.59
-105.92
-108.94
-109.42
-108.48
-107.28
-106.62
-106.71
-107.23
-107.39
-106.24
-102.88
-96.78
-87.93
-77.03
-65.33
-54.12
-44.1
-34.76
-24.38
-10.69
7.77
30.4
54.05
73.83
84.91
84.56
73.44
55.16
34.72
16.72
4.41
-0.62
1.62
9.4
18.87
24.19
18.96
-1.04
-35.44
-78.41
-120.52
-152.32
-167.83
-165.76
-148.3
-118.52
-78.41
-28.63
30.14
95.51
162.86
226.4
280.82
322.55
349.94
362.43
359.72
341.69
309.01
263.85
210.09
152.73
96.88
46.7
4.57
-28.9
-54.57
-74.11
-89.4
-102.06
-113.31
-123.98
-134.53
-144.9
-154.63
-162.94
-169.16
-173.12
-175.38
-177.04
-179.04
-181.4
-182.8
-180.85
-173.06
-157.99
-136.1
-109.68
-82.13
-56.57
-34.54
-15.52
2.88
24.09
51.56
87.62
132.58
184.26
238.22
288.51
328.75
353.32
358.4
342.76
308.13
259.08
202.32
145.44
95.34
56.79
31.69
19.02
15.61
17.14
19.26
18.49
12.8
1.92
-12.7
-28.38
-42.19
-52.11
-57.73
-60.26
-61.7
-63.79
-67.23
-71.67
-76.33
-80.75
-85.09
-89.8
-95.13
-100.72
-105.69
-109.16
-110.75
-110.78
-109.9
-108.56
-106.5
-102.86
-96.74
-87.92
-77.27
-66.51
-57.59
-51.7
-48.76
-47.42
-45.68
-41.94
-35.79
-28.11
-20.56
-14.66
-10.98
-9.03
-7.78
-6.32
-4.52
-2.96
-2.39
-3.05
-4.54
-6.14
-7.42
-8.72
-10.94
-14.77
-19.93
-25.02
-28.02
-27.42
-23
-15.95
-8.24
-1.57
3.38
7.1
10.82
15.8
22.75
31.6
41.57
51.36
59.59
65.09
67.28
66.38
63.39
59.79
57
55.9
56.52
58.27
60.17
61.25
60.86
58.66
54.51
48.43
40.61
31.48
21.8
12.47
4.12
-3.36
-11.05
-20.72
-34
-51.55
-72.51
-94.59
-114.83
-130.41
-139.44
-141.1
-135.54
-123.62
-106.73
-86.79
-66.32
-48.2
-35.2
-29.28
-30.91
-38.72
-49.96
-61.67
-72.08
-81.5
-91.82
-105.07
-121.19
-136.87
-145.93
-141.39
-117.99
-73.81
-10.48
67.65
154.02
240.41
316.77
372.26
397.2
386.48
342.62
276.33
204.04
142.72
104.71
94.55
108.72
138.23
171.96
199.61
213.3
208.23
182.79
138.54
79.93
13.18
-55.22
-120.48
-180.35
-234.4
-281.95
-320.4
-345.1
-351.58
-338.29
-308
-267.33
-223.9
-183.65
-149.06
-119.74
-94.51
-73.29
-57.6
-49.14
-47.89
-50.76
-51.96
-45.2
-26.1
6.27
49.32
98.51
149.68
200.93
252.95
307.48
364.47
419.94
465.77
492.34
492.43
464.77
414.68
351.96
286.8
226.33
173.05
125.71
81.65
38.99
-2.52
-41.9
-77.95
-109.92
-137.55
-160.52
-178.01
-188.75
-191.32
-185.15
-171.31
-152.84
-134.29
-120.46
-114.88
-118.61
-129.86
-144.68
-158.4
-167.25
-169.55
-165.88
-158.56
-150.49
-144.09
-140.4
-138.96
-138.25
-136.57
-132.99
-127.89
-122.73
-119.25
-118.31
-119.28
-120.29
-119.31
-115.42
-109.48
-103.9
-101.31
-103.3
-109.6
-118.3
-126.86
-133.13
-135.85
-134.43
-128.47
-117.42
-100.74
-78.34
-50.89
-19.55
14.67
51.56
91.38
133.61
175.38
210.67
231.16
228.84
199.27
144.04
70.95
-8.25
-81.48
-139.97
-180.06
-203.04
-212.94
-214.12
-209.49
-200.05
-185.76
-166.75
-143.98
-119.24
-94.64
-72
-53.04
-39.36
-32.62
-33.8
-42.05
-53.62
-62.21
-60.96
-45.35
-15.15
25.86
72.08
118.68
162.54
201.25
231.25
247.23
244.07
220.4
181.26
137.76
103.16
87.52
93.94
118.45
153.4
191.51
228.16
260.99
288
306.25
312.25
303.28
278.99
241.7
195.66
145.68
96.16
50.85
12.71
-16.17
-35.05
-44.81
-47.76
-46.76
-44.29
-41.79
-39.77
-38.46
-38.34
-40.13
-44.38
-50.97
-58.83
-66.37
-72.22
-75.95
-78.42
-81.26
-85.94
-92.88
-101.03
-108.21
-111.85
-109.97
-101.68
-87.35
-68.41
-46.94
-25.26
-5.39
11.44
25.07
36.19
45.86
54.72
62.66
68.82
72.25
72.56
70.12
65.91
60.67
54.57
47.1
37.75
26.62
14.92
4.56
-2.68
-6.04
-6.12
-4.51
-2.98
-2.56
-3.27
-4.35
-4.87
-4.37
-3
-1.34
0.13
1.28
2.54
4.57
7.91
12.71
18.61
24.93
30.92
36.05
40.08
42.96
44.67
44.97
43.48
39.85
34
26.2
17.01
7.01
-3.37
-13.93
-24.48
-34.66
-43.89
-51.51
-57.16
-60.82
-63.01
-64.35
-65.38
-65.98
-65.09
-60.98
-51.86
-36.84
-16.52
7.16
31.79
55.42
77.21
97.21
115.44
131.11
142.31
146.84
143.35
132.31
116.03
97.8
80.51
65.8
53.85
43.76
34.08
23.13
9.03
-10.25
-36.43
-69.94
-108.74
-147.68
-179.16
-195.09
-189.52
-161.04
-113.72
-56.19
0.79
47.34
77.04
88.03
82.67
66.1
44.36
22.82
5.2
-6.71
-12.75
-13.9
-11.68
-7.72
-3.46
0.12
2.63
4.38
6.16
8.83
12.73
17.35
21.28
22.7
20.35
14.21
5.73
-2.74
-9.17
-12.68
-13.92
-14.39
-15.35
-17.01
-18.62
-19.16
-18.27
-16.5
-14.79
-13.67
-12.77
-11.37
-9.17
-7.18
-7.53
-12.42
-22.76
-37.28
-52.92
-66.2
-74.84
-78.62
-79.16
-78.88
-79.72
-82.45
-86.76
-91.79
-96.66
-100.69
-103.3
-103.93
-101.99
-97.09
-89.24
-79.05
-67.52
-55.85
-45.18
-36.36
-29.8
-25.34
-22.28
-19.78
-17.35
-15.24
-14.49
-16.33
-21.48
-29.62
-39.61
-50.08
-60.16
-69.53
-78.05
-85.23
-89.72
-89.72
-83.84
-71.62
-53.41
-29.95
-2.2
28.39
59.35
87.02
107.01
115.51
110.84
94.33
70.24
44.59
23.31
10.55
7.73
13.46
24.3
36.16
45.5
50.26
50.08
45.9
39.05
30.47
20.29
8.17
-5.97
-21.37
-35.89
-46.17
-48.34
-39.33
-18.23
12.87
49.07
83.93
111.18
126.26
126.98
113.21
86.51
49.89
7.9
-33.58
-68.06
-89.85
-95.47
-84.65
-60.41
-28.19
5.41
34.32
54.34
63.87
64.15
58.7
51.92
47.32
46.2
47.38
48.29
46.73
42.21
36.05
30.44
27.1
26.67
29.02
33.8
40.77
49.43
58.44
65.59
68.61
66.41
59.88
51.59
44.39
39.8
37.21
34.36
28.87
19.8
8.44
-2.32
-9.36
-10.92
-7.38
-0.95
5.58
10.29
13.07
15.44
19.24
25.11
31.73
36.42
37.01
33.31
27.46
22.6
20.98
22.53
25.06
25.76
22.94
16.9
9.37
2.33
-3.12
-7.03
-10.23
-13.56
-17.49
-22.29
-28.36
-36.26
-46.73
-60.53
-77.69
-97.12
-116.44
-132.83
-144.18
-150
-151.53
-150.58
-147.92
-142.14
-129.88
-107.28
-72.14
-25.24
29.95
88.67
146.49
199.75
245
277.95
293.5
287.41
258.91
212.52
157.36
104.26
61.78
33.08
15.48
3.05
-9.51
-24.31
-40.05
-54.2
-65.3
-73.78
-80.61
-85.15
-84.19
-73.34
-50.13
-16.71
19.76
49.51
64.17
60.11
39.34
8.07
-26.28
-57.82
-83.44
-102.73
-116.91
-127.76
-136.65
-143.99
-148.72
-148.6
-141.17
-124.94
-100.5
-70.96
-41.38
-17.16
-2.14
3.17
1.9
-0.18
3.06
16.11
40.45
74.36
113.43
151.79
183.51
203.91
210.8
205.32
192.08
178.15
170.81
174.64
188.99
207.6
220.58
218.5
196.21
154.57
99.58
39.58
-17.77
-67.26
-106.01
-132.7
-146.6
-147.56
-136.82
-117.59
-94.84
-73.86
-58.78
-51.43
-51.26
-56.05
-63.12
-70.25
-76.12
-80.31
-82.97
-84.67
-85.92
-87.21
-88.85
-91.08
-94.14
-98.1
-102.78
-107.76
-112.65
-117.19
-121.42
-125.5
-129.22
-131.53
-130.39
-123.46
-108.91
-86.12
-55.75
-19.62
19.7
58.8
93.3
118.58
131.2
130.83
121.15
109.02
101.56
103.11
113.45
128.38
142.63
152.76
158.58
162.32
166.58
172.8
180.99
190.27
199.24
205.86
207.1
199.12
178.56
144.38
99
47.56
-3.89
-50.58
-89.96
-121.38
-144.89
-160.15
-166.42
-163.32
-151.66
-133.73
-112.8
-92.15
-74.43
-61.04
-52.13
-46.85
-43.72
-41.24
-38.62
-36.32
-36.37
-41.78
-55.48
-78.99
-111.39
-149.18
-186.9
-218.75
-240.37
-250.08
-248.93
-239.74
-225.69
-209.32
-192.34
-175.97
-161.25
-148.97
-138.93
-129.39
-117.25
-98.97
-71.97
-35.67
8.36
56.81
105.35
149.1
182.92
201.99
202.92
185.13
151.57
108.36
63.17
22.97
-7.63
-26.93
-35.49
-35.06
-27.68
-15.39
-0.13
16.18
31.91
46.06
58.39
69.3
79.41
88.94
97.37
103.51
105.77
102.88
94.55
81.65
66.23
50.73
37.23
26.57
18.2
10.34
0.8
-11.87
-27.77
-45.66
-63.55
-79.89
-94.47
-108.55
-124.25
-143.13
-164.59
-185.21
-199.36
-200.9
-185.35
-151.56
-102.29
-43.85
15
64.6
96.01
102.84
83.15
40.6
-15.56
-72.4
-116.65
-138.49
-134.08
-105.87
-60.63
-6.14
51.58
109.42
166.41
221.81
273.42
317.24
348.67
364.56
364.54
351.04
327.83
298.27
264.31
226.7
186.07
144.02
103.4
67.54
39.01
18.65
5.39
-3.01
-8.93
-13.95
-18.55
-22.27
-24.35
-24.26
-22.22
-19.22
-16.67
-15.91
-17.57
-21.44
-26.54
-31.55
-34.99
-35.49
-31.89
-23.43
-10.12
6.68
24.15
38.4
45.59
43.43
32.18
14.76
-4.08
-19.28
-27.02
-25.63
-15.8
-0.14
17.53
33.16
43.19
45.33
38.87
24.7
4.79
-18.53
-43.17
-67.45
-89.86
-108.67
-121.94
-128.18
-127.23
-120.85
-112.73
-107.34
-108.22
-116.29
-129.06
-141.32
-146.9
-140.81
-120.91
-88.42
-47.37
-3.39
37.61
70.57
91.94
100.24
96.45
84.23
69.25
57.76
54.43
60.61
73.81
88.83
100.15
104.39
101.61
94.91
88.79
87.08
91.47
101.18
113.67
125.98
135.71
141.6
143.52
142.12
138.77
135.48
134.88
139.54
150.97
168.24
187.34
201.73
204.35
190.25
158.68
113.59
62.37
13.31
-26.99
-55.13
-71.08
-77.31
-77.5
-75.37
-73.91
-75.01
-79.51
-87.23
-97.46
-109.26
-121.78
-134.4
-146.7
-158.33
-168.96
-178.24
-185.74
-190.97
-193.4
-192.65
-188.75
-182.31
-174.52
-166.91
-160.9
-157.37
-156.61
-158.47
-162.9
-170.21
-180.78
-194.5
-210.02
-224.78
-235.66
-240.04
-236.61
-225.4
-207.22
-183.03
-153.48
-119.19
-81
-40.29
1.3
42.15
80.88
116.26
147.08
172.34
191.76
205.96
216.13
222.89
225.07
219.37
201.68
168.85
120.33
58.67
-11.55
-84.87
-155.29
-216.09
-260.1
-281.56
-278.96
-257.05
-225.99
-197.23
-178.1
-168.29
-160.49
-144.94
-115.32
-72.08
-21.94
25.86
63.67
87.65
97.15
92.89
75.69
46.84
9.55
-30.14
-63.96
-83.83
-84.24
-64.12
-26.86
21.54
74.65
127.13
175.03
215.03
243.23
255.33
247.74
219.22
172.13
112.58
49.09
-9.64
-56.58
-88.24
-104.61
-108.19
-102.5
-90.47
-73.75
-52.68
-27.32
1.92
33.42
65.46
97.16
129.32
164.44
205.39
253.31
304.21
352.09
386.73
398.69
383.27
343.7
291.29
241.9
209.81
201.86
214.87
237.13
254.53
256.93
241.88
214.33
182.62
153.77
130.67
112.42
96.48
81.54
68.68
60.21
57.75
60.39
64.78
66.52
62.22
50.87
34.28
15.98
-0.53
-13.26
-22.55
-30.53
-40.04
-53.24
-70.71
-91.22
-112.41
-131.82
-147.67
-159.33
-167.08
-171.61
-173.66
-173.59
-171.44
-167.06
-160.48
-151.89
-141.6
-129.77
-116.32
-101.41
-85.24
-68.47
-52.19
-37.89
-27.04
-20.74
-19.47
-23.14
-32.09
-46.46
-66.39
-91.86
-122.83
-159.37
-201.71
-249.92
-302.95
-359.49
-415.6
-465.05
-500.92
-517.96
-514.68
-493.88
-461.63
-424.93
-392.31
-369.27
-357.75
-356.75
-363.81
-376.19
-391.1
-405.19
-413.91
-415.58
-408.28
-390.8
-363.49
-328.83
-291
-254.45
-222.56
-179.07
-116.99
-37.6
49.19
129.82
193.73
236.68
260.26
266.28
262.6
252.87
239.7
225.15
211.44
200.68
194.51
193.62
197.27
204.39
210.76
212.89
208.86
198.63
183.63
166.06
148.36
133
122.68
117.81
118.31
123.79
133.58
146.72
162
178.29
194.87
211.86
228.75
245.15
260.44
273.79
284.17
290.5
292.13
289.1
282.35
273.23
264.04
257.89
257.98
266
280.43
295.76
303.49
295.09
265.48
215.48
151.81
84.51
23.05
-26.76
-63.63
-89.56
-107.48
-119.38
-126.1
-128.39
-127.88
-127.37
-129.51
-134.93
-141.29
-143.61
-136.09
-114.73
-79.01
-31.74
22.35
78.6
133.25
183.06
224.1
251.21
258.8
242.98
203.98
146.96
80.9
15.81
-40.42
-84.1
-115.82
-138.66
-155.55
-167.35
-172.48
-168.13
-152.04
-124.25
-87.77
-47.99
-11.19
17.11
33.03
34.7
22
-3.52
-38.77
-79.09
-118.77
-151.73
-172.91
-179.34
-170.96
-150.58
-123.07
-93.81
-66.7
-42.48
-18.59
9.43
45.2
88.65
134.59
173.85
196.6
196.51
173.42
133.06
84.42
36.16
-6.02
-39.9
-65.53
-83.44
-93.73
-96.29
-91.78
-82.13
-70.15
-58.4
-48.12
-38.81
-28.7
-15.77
1.17
21.8
44.2
65.41
82.28
92.51
95.41
92.08
84.88
76.49
68.92
62.98
58.23
53.59
48.04
41.06
32.83
23.87
14.92
6.76
0.17
-4.07
-5.36
-3.55
0.82
6.52
11.92
15.54
16.57
15.06
11.79
7.83
4.17
1.48
0.19
0.48
2.31
5.31
8.81
12.14
14.91
17.34
20.04
23.71
28.55
34.09
39.47
43.84
46.84
48.49
48.81
47.28
42.86
34.4
21.29
3.81
-16.96
-39.6
-62.85
-85.69
-107.07
-125.63
-139.64
-147.51
-148.54
-143.54
-134.86
-125.68
-118.87
-115.9
-116.43
-118.76
-120.97
-122.04
-122.26
-122.65
-123.51
-123.35
-118.89
-106.51
-84.14
-52.38
-14.21
26.53
66.53
103.58
136.03
161.71
177.49
179.78
165.97
135.81
92.12
40.45
-12.15
-58.78
-93.96
-114.55
-119.99
-111.68
-92.26
-64.42
-30.36
8.28
50.11
93.93
139.04
185.47
233.45
282.02
327.69
364.26
384.46
382.74
357.93
314
258.47
199.08
141.2
87.3
38.24
-4.77
-39.48
-63.56
-76.86
-82.59
-86.81
-96.26
-115.19
-143.96
-179.35
-216.24
-249.63
-275.41
-290.05
-289.85
-271.34
-232.45
-175.28
-107.47
-41.4
9.29
34.45
30.74
2.66
-40.66
-88.56
-132.44
-166.89
-188.54
-194.68
-182.66
-151.25
-102.32
-41.89
22.36
83.32
136.41
178.73
207.93
222.44
221.82
211.01
194.01
175.37
160.35
152.75
155.48
168.51
188.25
207.85
219.28
215.36
193.18
155.12
107.31
57.26
10.74
-29.62
-64.35
-95.62
-125.91
-155.92
-184.47
-209.44
-228.78
-241.61
-248.49
-251.33
-252.66
-255.04
-259.49
-265.06
-268.9
-267.01
-255.9
-234.12
-203.3
-167.94
-133.97
-106.31
-87.12
-75.45
-68.55
-63.99
-61.11
-60.85
-64.02
-69.43
-73.31
-70.77
-58.49
-36.79
-9.9
16.09
36.1
48.29
54.35
57.94
62.38
68.7
75.39
79.38
78.01
70.7
59.62
49.35
45.25
51.44
68.89
94.98
124.48
151.96
174.33
192.37
209.86
230.75
255.72
280.17
295.27
291.44
262.67
209.13
136.81
55.18
-25.71
-96.82
-150.46
-180.64
-184.28
-163.23
-125.47
-83.85
-51.96
-39.06
-46.6
-68.3
-93.82
-113.27
-120.64
-114.27
-95.14
-64.83
-24.31
25.85
84.72
150.14
218.32
283.92
340.69
382.38
404.22
404.18
383.51
346.33
298.24
244.87
190.88
139.65
93.46
53.8
21.2
-4.93
-26.24
-44.98
-62.98
-80.66
-96.94
-109.85
-117.86
-120.66
-119.62
-117.05
-114.99
-114.39
-114.91
-115.52
-115.6
-115.34
-115.63
-116.99
-118.79
-119.28
-116.68
-110.43
-101.72
-92.99
-86.58
-83.57
-83.62
-85.49
-88.14
-91.17
-94.7
-98.85
-103.18
-106.87
-109.15
-109.89
-109.67
-109.3
-109.24
-109.26
-108.52
-105.95
-100.7
-92.31
-80.98
-67.49
-53.08
-39.15
-26.87
-16.64
-7.9
0.58
10.01
20.85
32.45
43.14
50.93
54.28
52.42
45.32
33.77
19.5
5.55
-3.83
-4.29
6.68
28.07
55.19
81.23
100.07
108.77
108.25
101.89
93.3
84.51
75.84
67.09
58.88
52.86
50.59
52.02
55.06
56.44
53.58
46.13
36.33
27.67
22.8
21.83
21.98
18.66
7.4
-14.24
-46.12
-84.88
-125
-160.39
-186.59
-202.18
-209
-210.87
-211
-211.24
-210.06
-203.84
-188.64
-162
-123.72
-75.61
-21.01
36.05
88.67
129.22
150.5
148.77
126.27
91.78
58.17
37.49
37.53
57.55
92.02
133.58
177.01
220.86
266.45
314.81
358.22
396.02
417.76
414.78
383.14
326.33
255.12
184.58
129.3
98.3
93.09
105.42
123.17
134.36
131.36
112.65
81.77
44.62
6.51
-28.74
-60.65
-89.18
-114.29
-135.77
-153.99
-170.87
-189.79
-213.96
-243.42
-274.15
-296.89
-300.45
-276.59
-224.86
-154.56
-82.4
-26.34
1.9
0.76
-21.11
-50.27
-75.62
-93.15
-106.34
-122.54
-147.99
-184.66
-230
-278.74
-325.06
-363.91
-390.94
-402.01
-393.57
-363.99
-315.07
-252.34
-183.98
-118.53
-62.89
-21.12
5.64
18.89
22.05
19.88
17.73
20.48
31.39
51.25
78.27
108.89
139.03
165.41
186.37
201.94
213.26
222.09
230.48
240.61
254.22
271.66
290.89
307.25
314.58
307.51
283.91
246.13
200.09
152.8
109.56
72.53
41.08
13.57
-10.9
-31.91
-48.37
-59.98
-68.05
-75.28
-84.49
-97.15
-112.56
-128.19
-140.89
-148.63
-151.51
-151.51
-151.09
-151.41
-151.18
-147.02
-135.23
-113.83
-83.75
-48.39
-11.93
22.61
54.35
84.34
114.5
146.55
181.49
219.27
258.48
295.99
326.66
344.28
343.52
322.12
282.37
230.59
174.77
121.52
74.07
31.9
-7.68
-46.8
-84.96
-118.46
-141.7
-149.23
-137.76
-107.21
-60.81
-4.72
52.75
102.4
135.76
147.12
135.11
103.09
58.07
8.34
-38.74
-77.73
-104.88
-117.32
-113.15
-92.52
-58.65
-17.7
23.33
59.6
90.36
117.98
145.27
172.42
195.81
209.78
209.87
195.56
170.38
140.23
110.07
82.03
55.13
26.98
-3.84
-35.57
-62.49
-76.35
-69.82
-40.81
5.06
55.11
93.94
109.64
98.52
66.04
23.2
-19.21
-55.36
-85.34
-112.4
-138.72
-162.81
-179.97
-185.5
-178.2
-162.05
-145.15
-136.56
-143.15
-167.3
-205.92
-251.61
-294.25
-323.2
-329.73
-309.45
-264.36
-203.01
-138.38
-83.32
-45.82
-25.91
-16.31
-6.16
14.06
48.85
96.65
151.29
204.71
249.12
278.67
290.03
282.74
259.18
224.31
184.6
146.46
114.51
90.29
72.87
59.57
46.95
31.91
12.21
-13.18
-43.91
-78.56
-115.37
-152.19
-187.07
-219.22
-249.4
-279.43
-310.82
-342.84
-371.52
-391.12
-395.34
-380.54
-348.49
-306.81
-266.61
-238.33
-227.45
-232.81
-249.21
-269.06
-286.01
-297.35
-303.73
-307.07
-308.04
-304.84
-294.24
-275.79
-251.26
-224.07
-197.82
-174.03
-151.56
-127.53
-99.37
-55.61
5.27
76.47
146.01
202.13
238.37
254.51
254.49
243.95
228.38
210.33
190.34
170.14
151.81
137.58
129.29
128.06
134.38
148.41
169
195.63
228.73
266.76
305.52
337.96
355.4
350.33
319.37
263.96
191.56
114.32
45.09
-5.87
-33.21
-36.6
-19
14.99
59.3
107.02
150.89
183.29
198.07
192.23
166.9
127.09
79.81
31.71
-11.69
-45
-62.83
-60.01
-33.68
14.3
76.95
144.11
205.57
249.23
267.67
259.66
230.49
188.3
140.28
91.12
43.38
-1.33
-41.52
-74.36
-99.11
-114.63
-119.64
-112.83
-93.75
-64.08
-28.75
4.58
28.05
34.99
23.14
-4.79
-42.06
-80.23
-111.58
-130.96
-136.46
-129.06
-112.41
-91.76
-73.11
-61.53
-59.47
-65.63
-75.45
-82.69
-81.25
-67.19
-39.39
0.16
47.05
95.87
141.93
182.71
218.27
250.33
280.21
306.91
326.37
332.9
321.84
292.15
247.12
193.1
137.06
84.31
37.53
-2.86
-37.58
-67.63
-93.91
-117.59
-140.44
-164.52
-191.46
-221.38
-252.21
-279.8
-298.81
-304.74
-296.31
-276.83
-253.6
-235.2
-227.6
-231.23
-240.74
-247.95
-246.57
-235.91
-221.29
-210.79
-210.34
-220.24
-235.03
-246.14
-245.97
-230.91
-202.01
-163.31
-119.48
-74.15
-29.87
10.93
45.75
72.72
91.77
104.99
115.57
125.77
135.44
141.26
138.11
122.43
94.23
59.02
25.92
2.3
-10.14
-13.2
-8.37
4.29
26.81
61.23
107.11
159.77
211.25
253.54
281.97
295.89
297.08
287.65
268.45
239.45
201.77
159.68
121.19
96.08
91.43
107.33
135.57
161.94
172.07
157.62
119.63
67.62
14.64
-29.33
-61.39
-85
-105.71
-125.92
-142.54
-148.95
-139.47
-113.37
-75.78
-35.49
-0.93
22.29
31.71
27.24
10.68
-13.59
-37.96
-52.97
-50.96
-30.31
2.39
34.42
52.29
47.58
19.94
-23.97
-74.43
-122.54
-161.92
-188.46
-199.33
-192.94
-170.02
-134.46
-93.06
-53.57
-22.45
-3.1
4.24
1.49
-8.29
-21.72
-35.35
-45.9
-50.62
-48.02
-38.04
-22.07
-2.21
19.38
40.89
60.7
77.14
88.42
93.1
90.82
82.78
71.68
60.9
53.25
49.99
50.55
53.05
55.11
54.73
50.75
42.92
31.79
18.48
4.61
-7.95
-17.4
-22.55
-23.27
-20.53
-16.11
-11.89
-9.33
-8.98
-10.61
-13.41
-16.31
-18.36
-18.88
-17.64
-14.96
-11.65
-8.68
-6.85
-6.33
-6.56
-6.61
-5.62
-3.43
-0.58
2
3.66
4.39
4.85
5.85
7.76
10.27
12.57
13.97
14.28
13.84
13.15
12.43
11.53
10.2
8.46
6.72
5.42
4.67
4.02
2.79
0.8
-1.19
-1.81
0.12
4.68
10.59
15.89
18.85
18.66
15.38
9.49
1.32
-8.74
-19.89
-30.72
-39.7
-46.24
-51.46
-57.73
-66.86
-78.24
-88.36
-92.18
-85.76
-68.46
-43.33
-15.62
9.59
28.89
40.36
42.43
32.95
9.8
-27.18
-74.24
-123.47
-165.03
-190.87
-198.01
-189.17
-170.77
-149.09
-127.16
-104.06
-76.54
-41.91
-0.06
46.51
94.15
139.67
180.72
214.74
237.89
245.42
233.84
203.89
162.07
119.51
88.07
76.25
86.98
117.81
162.81
214.65
265.51
306.95
330.29
328.16
296.95
239.13
163.47
83.02
11.24
-41.75
-71.38
-78.96
-70.46
-54.57
-40.62
-36.79
-48.4
-76.69
-118.23
-165.57
-209.48
-242.25
-260.77
-267.58
-269.15
-271.9
-278.19
-284.71
-283.94
-268.09
-232.98
-179.9
-114.75
-45.41
20.53
76.61
117
136.12
129.68
96.74
41.81
-25.1
-90.34
-140.26
-165
-160.97
-131.36
-84.5
-30.86
19.9
61.02
89.18
103.74
105.54
96.33
78.91
57.81
39.03
28.77
31.44
47.8
74.81
107.3
140.85
173.49
205.48
237.15
266.38
287.86
294.44
280.52
245.03
192.5
131.37
70.79
17.48
-25.49
-57.98
-81.08
-95.58
-101.86
-100.57
-93.56
-83.89
-75.05
-69.53
-67.91
-68.79
-69.43
-67.41
-61.76
-53.55
-45.21
-38.86
-34.61
-29.8
-19.56
1.22
35.53
82.46
136.71
189.85
232.72
258
261.97
244.92
210.38
163.69
110.58
56.35
5.6
-37.79
-70.67
-90.94
-98.07
-93.18
-78.67
-57.38
-31.71
-3.35
26.25
55
80.02
97.94
106.05
103.52
91.9
74.71
56.14
39.65
27.06
18.66
13.79
11.67
11.74
13.6
16.65
19.92
22.14
22.08
18.86
12
1.4
-12.63
-29.33
-47.41
-65.17
-81.1
-94.48
-105.62
-115.68
-125.94
-136.98
-148.49
-159.55
-169.3
-177.51
-184.47
-190.55
-195.67
-199.32
-201.06
-201.23
-201.29
-203.37
-209.2
-219.06
-231.13
-241.94
-247.77
-246.14
-236.73
-221.48
-203.37
-185.08
-167.66
-150.42
-131.38
-108.57
-80.88
-48.31
-11.89
26.49
63.95
96.66
120.65
133.64
136.73
134.71
134.05
139.24
149.8
159.71
160.2
144.18
109.67
60.16
2.31
-57.38
-114.32
-165.04
-205.26
-228.83
-229.2
-202.69
-151.6
-84.68
-14.46
46.97
91.9
118.59
130.27
132.56
131.06
129.88
131.48
136.75
144.95
153.37
157.39
151.65
132.14
98.68
56.17
13.35
-20.39
-38.76
-41.06
-32.08
-19.38
-9.88
-7.41
-12.28
-22.84
-36.89
-52.54
-67.78
-79.81
-84.84
-78.91
-59.45
-27.01
14.05
56.38
91.65
113.03
117.49
106.78
86.68
64.83
47.76
38.59
36.45
37.77
38.72
37.44
34.62
32.27
31.91
33.37
34.7
33.51
28.3
19.35
8.79
-0.05
-3.32
3.03
22.44
56.12
101.44
151.29
195.48
223.93
230.64
216.01
186.48
151.42
119.14
94.3
77.73
68.24
64.78
67.39
76.45
91.17
108.23
122.15
127.3
120.17
101.03
73.91
45.2
21.1
5.54
-1.06
-1.57
-0.74
-3.69
-14.53
-35.4
-65.94
-103.25
-141.95
-174.92
-195.14
-197.93
-182.92
-154.51
-120.81
-91.02
-72.59
-69.04
-79.01
-96.74
-113.6
-120.74
-111.9
-86.03
-48.26
-8.4
23.06
39.83
42.76
39.13
38.27
46.24
62.64
81.59
95.83
101.28
98.99
93.59
89.76
88.93
88.69
84.74
74.01
56.67
35.78
15.48
-1.42
-14.72
-26.48
-39.46
-55.55
-74.76
-95.21
-114.24
-129.71
-140.89
-148.69
-154.98
-161.47
-168.65
-175.53
-180.06
-180.24
-175.25
-166.07
-155.13
-144.85
-136.05
-126.92
-113.49
-91.73
-60.12
-21.51
16.95
45.97
57.43
47.27
16.76
-28.16
-78.93
-126.53
-163.2
-183.34
-184.66
-169.09
-142.97
-115.58
-96.05
-89.17
-92.94
-99.05
-97.06
-80.08
-48.46
-8.96
30.15
64.54
95.92
129.23
167.29
206.63
238.16
252.12
244.18
218.56
185.64
155.75
133.08
114.27
92.08
61.31
22.86
-17.04
-50.83
-74.3
-88.58
-98.66
-109.58
-123.07
-136.72
-145.31
-144.14
-130.35
-103.39
-64.26
-15.08
40.86
98.52
151.69
195.1
225.38
243.9
255.74
267.6
284.81
309.13
338.47
368.32
394.77
413.9
424.26
425.35
417.22
400.62
377.6
351.63
326.51
305.59
287.42
268.59
244.42
211.96
172.3
130.85
95.26
66.81
56.15
60.69
76.02
96.95
119.56
141.71
162.38
180.17
192.33
195.89
185.96
160.1
118.09
61.56
-6.91
-83.73
-163.67
-239.4
-301.59
-343.69
-363.37
-365.6
-361.36
-362.73
-376.93
-402.95
-432.7
-455.19
-463.2
-454.54
-432.08
-401.03
-366.48
-332.29
-300.85
-273.32
-248.9
-225.36
-199.13
-167.83
-132.42
-97.79
-70.93
-57.44
-58.7
-71.41
-90
-108.92
-124.24
-133.46
-134.42
-124.64
-101.86
-65.61
-18.27
34.87
86.98
132.01
166.53
190.4
206.17
217.65
228.41
240.93
255.9
271.6
284.09
288.12
279.15
255.62
220.02
178.16
136.87
101.12
72.16
47.83
24.56
-0.11
-25.96
-50.44
-70.56
-84.97
-95.07
-104.36
-116.86
-135.45
-160.73
-190.85
-222.17
-250.55
-272.52
-286.34
-292.02
-290.62
-283.55
-272.03
-257.29
-241.13
-225.95
-214.12
-206.74
-202.86
-199.8
-194.71
-186.47
-176.55
-168.17
-164.03
-164.39
-166.51
-166.15
-159.87
-146.8
-128.84
-109.51
-92.3
-79.5
-72.05
-69.63
-70.88
-73.29
-73.26
-66.7
-50.61
-24.63
8.46
43.22
73.58
95.05
106.01
107.79
104.11
99.86
99.84
107.39
122.78
142.2
157.91
160.62
143.56
106.45
57.08
9.27
-22.24
-27.74
-6
35.94
86.5
134.51
172.73
198.8
213.99
221
222.47
220.7
217.86
216.45
219.39
229.08
246.26
269.36
294.7
317.34
332.75
337.99
332.33
316.5
291.67
258.26
216
165.22
108.73
52.92
7.14
-19.42
-22.14
-4.16
23.85
47.69
55.67
43.18
12.96
-26.86
-67.77
-104.55
-136.46
-165.56
-193.77
-220.54
-242.53
-255.97
-256.87
-242.38
-211.27
-165.43
-110.86
-57.07
-13.92
11.6
16.96
5.84
-13.43
-29.68
-32.89
-19.86
3.53
24.83
42.09
56.42
75.91
107.54
152.34
203.34
247.42
269.77
261.06
222.23
163.14
99.97
46.93
11.34
-7.86
-17.56
-25.67
-36.05
-46.82
-53.58
-51.19
-39.23
-21.5
-4.35
5.73
3.29
-14.29
-46.14
-88.7
-134.29
-175.91
-206.84
-221.13
-215.16
-190.28
-152.65
-111.97
-78.75
-59
-56.52
-70.39
-94.89
-112.34
-105.93
-66.25
3.33
77.78
147.1
208.2
260.44
305.69
342.16
366.06
374.32
366.53
345.94
320.31
295.52
274.68
258.44
245.28
232.14
216.24
196.39
173.81
152.92
136.64
126.01
120.5
118.22
116.5
112.94
106.17
96.45
86.1
76.66
68.75
62.13
55.92
48.89
39.92
28.52
15.09
1.18
-11.87
-23.22
-32.51
-39.92
-46.1
-51.9
-58.13
-65.19
-72.9
-80.87
-88.73
-96.28
-103.62
-111.22
-119.79
-129.99
-142.15
-156.15
-171.6
-187.77
-204.07
-219.73
-234.67
-249.45
-265.03
-282.39
-302.47
-325.79
-351.79
-378.38
-401.62
-417.4
-422.48
-416.1
-400.09
-378.6
-356.8
-338.42
-324.55
-313
-300.92
-286.02
-267.73
-246.54
-223.51
-200.8
-179.54
-159.77
-138.97
-116.49
-93.33
-71.55
-52.91
-38.44
-31.28
-33.51
-44.92
-59.26
-71.85
-79.49
-81.48
-78.07
-71.22
-69.04
-78.91
-104.16
-136.71
-169.1
-194.72
-209.74
-211.55
-200.81
-187.95
-184.92
-200.86
-231.88
-274.34
-323.71
-375.46
-423.19
-424.74
-353.82
-209.84
-64.97
51.87
133.31
195.07
243.85
285.1
323.26
355.55
378.58
396.63
415.88
432.38
438.79
430.51
410.89
386.57
358.1
324.33
284.7
244.67
210.29
186.86
176.07
176.92
184.79
189.61
183.31
162.58
132.77
101.8
77.71
66.43
72.09
96.5
137.11
191.02
252.48
311.84
355.56
372.48
359.2
321.99
279.24
239.05
205.04
177.59
155.62
137.86
122.26
107.31
91.85
75.08
55.91
35.18
14.21
-6.17
-25.49
-43.48
-62.23
-85.31
-116.66
-159.59
-213.91
-276.34
-340.49
-397.49
-426.59
-412.95
-356.06
-272.16
-185.76
-115.94
-70.53
-47.13
-38.07
-35.5
-36.43
-41.14
-50.58
-64.12
-78.62
-90.81
-98.89
-103.03
-104.35
-105.94
-110.15
-117.18
-126.33
-133.41
-135.01
-129.75
-118.44
-102.98
-86.81
-72.87
-62.51
-55.24
-49.16
-42.77
-35.42
-27.53
-19.69
-13.32
-9.64
-9.02
-10.88
-13.72
-16.01
-16.18
-16.58
-18.01
-21.06
-25.95
-32.43
-39.94
-47.65
-55.06
-61.97
-68.43
-74.08
-78.7
-82.18
-84.43
-85.42
-85.04
-83.42
-80.82
-77.62
-73.79
-69.38
-64.55
-59.5
-54.43
-49.51
-44.94
-41
-37.89
-35.58
-34.01
-33.18
-33.04
-33.56
-34.71
-36.48
-38.86
-41.79
-44.99
-48.11
-50.73
-52.41
-52.77
-51.52
-48.63
-44.22
-38.54
-31.8
-24.18
-15.71
-6.37
3.79
14.51
25.28
35.4
44.17
51.18
56.46
60.58
64.42
68.86
74.38
80.86
87.75
94.29
100.03
105.1
110.34
116.94
125.93
137.68
151.61
166.56
181.12
194.35
206.12
217.13
228.64
242.24
259.56
281.89
309.5
340.87
372.1
397.34
410.28
406.46
385.31
350.85
310.45
272.08
241.65
221.48
210.57
206.19
205.45
206.16
206.63
205.15
199.73
188.56
170.88
147.57
121.15
94.98
72.08
54.19
41.39
32.37
25.27
18.39
10.77
2.33
-6.39
-14.7
-22.14
-28.71
-34.75
-40.66
-46.73
-53.14
-59.91
-67.05
-74.48
-81.97
-89.21
-95.86
-101.77
-107.08
-112.14
-117.26
-122.4
-127.03
-130.15
-130.82
-128.62
-124.04
-118.42
-113.38
-110.06
-108.8
-108.93
-109.1
-107.55
-102.19
-90.73
-71.01
-41.64
-2.77
43.1
91.65
137.83
177.39
208.34
231.45
249.83
267.47
287.33
309.69
331.68
347.95
352.76
342.29
316.38
278.56
234.73
190.82
151.07
117.47
90.3
69.09
53.18
41.39
31.52
20.3
4.29
-18.67
-48.44
-82.39
-116.47
-146.71
-170.84
-189.24
-204.95
-222.73
-247.15
-280.22
-319.45
-357.43
-383.62
-388.05
-365.33
-317.09
-251.47
-179.74
-111.71
-52.44
-1.44
45.41
93.06
144.98
201.58
260.22
315.88
362.19
392.85
403.46
393.08
365.13
326.76
286
248.95
218.05
192.17
168.53
144.85
120.83
98.1
79.68
67.28
60.23
55.64
49.71
39.53
24.27
5.15
-15.74
-35.86
-54.38
-72.19
-91.04
-111.99
-134.38
-155.92
-173.81
-191.38
-209.83
-228.8
-246
-258.42
-263.76
-261.09
-250.64
-233.6
-212.01
-187.59
-162.57
-139.18
-119.02
-102.72
-89.58
-77.98
-66.1
-52.61
-36.37
-17.34
3.51
24.81
44.99
63.03
78.42
91.22
101.7
110.77
119.3
128.04
137.53
147.73
158.44
169.1
178.94
186.81
191.63
192.1
186.65
175.71
159.03
136.31
107.26
71.86
30.36
-16.3
-66.55
-118.05
-168.03
-214.01
-253.9
-286.72
-312.83
-333.97
-352.32
-369.44
-385.28
-398.22
-405.43
-403.55
-389.38
-360.62
-317.08
-261.68
-201.1
-144.85
-102.61
-80.8
-79.97
-94.96
-117.19
-138.31
-152.36
-155.93
-147.52
-127
-96.32
-60.38
-27.07
-4.63
1.78
-7.85
-28.55
-52.92
-74.58
-89.63
-96.54
-95.1
-85.65
-69.6
-49.41
-28.47
-9.72
5.32
16.56
24.59
29.79
32.89
35.42
40.14
49.69
64.4
81.71
97.07
106.85
110.85
112.4
115.91
124.17
137.18
153.37
171.22
189.85
207.94
222.26
228.48
223.24
207.34
186.34
168.04
158.34
158.07
163.18
167.67
167.16
160.11
146.98
128.84
106.95
84.23
66.01
59.02
67.81
91.24
121.95
149.19
164.12
163.69
151.18
133.33
116.12
102.02
90.32
79.35
68.5
59.03
52.59
49.43
47.37
42.5
30.92
10.65
-17.52
-50.39
-83.92
-114.97
-142.51
-167.74
-193.46
-223.17
-259.98
-305.43
-358.36
-414.01
-463.94
-498.2
-508.32
-491.03
-449.95
-394.57
-336.33
-284.55
-243.74
-213.8
-192.15
-175.77
-162.34
-149.76
-136.1
-119.04
-97.08
-70.91
-43.96
-21.29
-7.46
-4.66
-11.82
-26.11
-43.1
-58.38
-69.06
-74.68
-76.86
-78.29
-81.21
-86.6
-95.25
-106.53
-119.08
-131.3
-141.82
-149.29
-152.51
-150.72
-144.05
-135.14
-125.83
-116.25
-104.87
-89.57
-69.2
-44.81
-19.34
14.23
54.99
97.11
132.28
154.32
161.29
154.7
137.24
111.79
80.97
45.06
5.67
-34.83
-73.49
-109.43
-140.27
-164.03
-179.14
-184.54
-181.16
-169
-147.92
-118.1
-80.41
-36.31
12.05
62.91
115.61
163.48
202.28
229.37
243.53
244.81
234.3
213.61
184.89
150.6
112.82
74.62
38.93
8.06
-16.39
-33.57
-43.48
-46.45
-42.95
-33.69
-18.54
2.69
29.75
61.8
97.35
134.2
169.88
201.97
228.19
247.07
257.66
259.09
250.65
231.98
203.52
167.1
125.97
84.56
47.96
21.29
8.04
9.4
24.3
49.86
82.4
118.23
154.14
187.83
219.82
252.01
287.31
328.34
375.49
425.66
472.48
508.23
526.91
529.29
520.39
507.49
496.47
489.15
482.91
472.57
453.23
422.18
382.44
337.06
287.29
232.63
172.74
110.11
51.46
5.97
-33.83
-71.13
-110.87
-158.46
-216.87
-285.42
-359.7
-432.7
-494.27
-542.39
-573.47
-585.63
-578.12
-550.81
-505.59
-446.72
-380.65
-317.32
-269.59
-244.64
-242.46
-254
-263.57
-258.99
-237.09
-203.8
-169.27
-141.2
-116.14
-87.29
-48.69
2.69
62.7
122.47
173.35
210.62
234.96
252.55
270.08
277.59
269.75
243.27
198.55
140.67
77.35
16.57
-35.2
-75.44
-105.64
-127.72
-144.91
-160.74
-176.94
-193.66
-209.13
-220.37
-224.97
-222.01
-210.39
-189.65
-160.92
-125.16
-83.8
-37.19
14.71
71.61
132.84
198.61
269.56
340
402.47
447.54
468.13
461.56
430.82
383.88
325.42
265.1
211.6
175.24
154.1
143.46
138.31
136.28
135.83
135.36
133.77
128.13
116.41
97.47
73.41
47.86
24.27
4.34
-12.07
-25.66
-40.15
-58.66
-82.98
-111.43
-140.38
-166.27
-187.15
-202.86
-214.07
-225.75
-242.35
-266.47
-296.92
-330.05
-362.14
-391.02
-416.34
-438.79
-464.19
-497.65
-541.59
-594.01
-649.7
-702.9
-749.23
-786.17
-785.34
-728.82
-613.52
-455.51
-281.62
-116.02
27.33
144.37
236.87
308.99
360.29
390.49
400.9
395.99
382.62
367.57
355.42
347.92
345.37
341.4
329.74
306.64
272.69
232.51
192.43
157.95
132.52
117.26
108.37
101.05
91.02
75.74
54.49
27.73
-3.6
-38.03
-67.95
-86.42
-87.91
-72.19
-45.43
-17.39
3.31
12.4
11.07
4.2
-3.81
-10.36
-15.12
-18.73
-21.96
-22.62
-18.25
-7.3
9.96
30.95
52.18
70.25
83.19
89.37
89.46
85.11
78.09
69.47
59.15
46.48
30.79
12.06
-8.71
-29.55
-48.87
-65.66
-79.9
-92.37
-104.12
-115.89
-128.4
-140.42
-149.4
-152.7
-148.03
-134.21
-111.29
-80.4
-43.6
-3.65
35.95
72.49
104.24
130.38
150.67
165.2
174.14
177.63
176.06
170.53
162.52
153.63
145.2
137.9
131.93
127.38
124.33
122.81
122.03
120
113.72
100.64
80.11
54.17
26.62
1.33
-19.56
-36.06
-49.47
-60.83
-69.89
-75.38
-76.16
-72.42
-65.94
-59.14
-53.81
-50.44
-48.22
-45.87
-42.4
-37.39
-31.29
-25.19
-20.3
-17.6
-17.42
-19.23
-21.89
-23.86
-23.88
-21.34
-16.27
-9.21
-0.67
9.01
19.54
30.28
40.31
48.15
52.15
50.85
43.48
30.09
11.72
-9.98
-33.05
-55.25
-74.4
-88.68
-96.7
-97.67
-91.5
-78.82
-60.36
-38.76
-16.35
4.68
22.65
36.35
45.62
50.59
51.65
49.35
44.41
37.72
29.98
22.01
14.6
8.47
4.05
1.34
-0.02
-0.52
-0.59
-0.77
-1.03
-0.9
0.3
2.95
6.88
11.35
15.31
17.77
17.59
14.7
9.89
4.2
-1.73
-8.02
-15.46
-25
-37.16
-52.28
-68.79
-83.84
-94.58
-99.18
-97.54
-91.03
-81.78
-72.05
-64.94
-62.12
-63.94
-69.34
-75.94
-80.14
-78.01
-66.48
-38.19
2.73
46.03
80.67
100.14
103.96
96.16
82.1
66.31
51.47
38.02
27.17
21.15
22.2
29.88
42.35
55.97
67.27
74.35
76.81
76.81
78.41
86
101.74
124.54
149.92
171.53
183.21
180.83
164.2
135.09
99.18
62.13
27.18
-5.44
-37.1
-68.78
-99.75
-127.65
-148.46
-159.14
-160.41
-156.59
-153.6
-156.47
-167.91
-187.61
-212.87
-236.39
-248.19
-239.45
-206.04
-150.36
-81.51
-12.82
48.33
89.4
105.56
105.4
104.49
113.5
133.43
158.26
180.81
198.16
210.9
221.89
232.37
240.59
241.26
229.19
201.42
156.72
101.74
45.28
-4.21
-41.88
-66.51
-81.06
-89.46
-95.17
-99.85
-102.93
-109.73
-117.77
-124.49
-127.71
-127.86
-126.31
-125.02
-125.81
-130.12
-140.26
-159.99
-192.6
-229.74
-264.43
-288.7
-295.52
-281.06
-246.22
-184.23
-103.59
-22.53
42.42
83.68
103.95
109.96
107.38
99.42
87.66
72.09
54.6
38.9
27.43
20.86
17.68
15.1
10.83
3.75
-7.33
-21.5
-36.26
-49.73
-61.05
-70.75
-79.96
-89.47
-99.27
-110.48
-121.73
-130.64
-135.43
-135.2
-130.16
-121.2
-109.45
-96.12
-83.08
-71.81
-62.73
-56.16
-52.06
-50.2
-50
-50.77
-51.99
-53.78
-56.47
-59.38
-61.56
-61.43
-56.83
-45.37
-24.92
6.02
48.45
96.02
144.5
190.51
231.98
268.15
299.41
327.18
353.7
381.46
411.98
445.46
478.68
505.63
519.55
515.91
494.6
460.19
419.89
380.4
346.18
317.79
293.16
269.83
246.5
223.43
201.44
180.8
160.84
140.86
120.49
100.38
82.18
68.06
59.67
57.41
60.27
66.12
72.81
78.58
82.56
84.87
86.17
87.07
87.64
87.32
85.08
80.03
71.72
60.39
47.01
32.9
19.23
6.69
-4.64
-15.31
-26.08
-37.54
-49.85
-62.61
-75.05
-86.41
-96.33
-105.09
-113.53
-122.75
-133.61
-146.33
-160.32
-174.43
-187.38
-198.48
-207.98
-217.11
-227.59
-240.92
-257.71
-277.3
-298.33
-319.11
-338.51
-356.39
-373.55
-391.5
-412.2
-437.89
-470.52
-510.84
-557
-603.78
-643.17
-666.62
-668.19
-647.03
-607.78
-558.67
-508.22
-462.29
-422.98
-389.51
-360.07
-333.52
-309.63
-288.49
-269.46
-250.95
-230.91
-207.96
-181.97
-154.07
-126.24
-100.25
-77.02
-56.29
-36.97
-17.77
2.06
22.44
42.51
61.04
76.99
90
100.41
109.11
117.14
125.24
133.89
143.19
153.07
163.65
175.16
187.94
202.01
216.78
230.77
241.91
247.67
245.59
233.81
211.31
178.13
135.3
84.8
29.51
-26.96
-80.18
-125.38
-157.92
-174.12
-171.95
-151.56
-114.82
-65.48
-8.34
51.36
109.6
163.78
212.23
253.81
287.41
312.15
327.32
332.45
327.38
313.17
291.66
264.84
235.07
205.31
180.11
163.63
157.68
159.31
163.18
162.5
151.51
127.69
92.79
54.06
17.84
-13.58
-44.08
-75.52
-106.85
-133.81
-151.6
-157
-143.78
-109.98
-57.85
3.04
70.14
144.33
227.9
319.19
412.82
510.35
610.78
709.64
792.44
855.79
902.48
939.59
971.04
996.94
1024.7
1055.3
1081.3
1081.2
1049.4
991.94
924.22
859.95
740.64
541.15
276.39
57.91
-92.8
-181.69
-240.85
-282.69
-316.43
-348.16
-370.13
-376.26
-366.75
-358.28
-357.08
-365.23
-377.35
-391.59
-406.14
-410.67
-398.32
-369.31
-338.62
-314.37
-303.07
-303.12
-316.96
-346.82
-387.94
-434.84
-481.89
-527.8
-564.79
-586.75
-583.65
-555.58
-507.41
-443.07
-366.4
-280.71
-191.67
-86.68
4.32
77.9
126.58
146.71
141.76
120.13
92.38
67.59
51.77
43.88
46.12
55.62
69.55
85.3
98.07
102.33
95.24
74.88
39.47
-4.64
-52.45
-98.42
-137.79
-171.53
-202.24
-228.05
-248.4
-266.1
-280.27
-292.06
-300.46
-301.15
-294.99
-285.18
-271.06
-258.21
-257.53
-273.81
-306.42
-345.72
-375.3
-388.73
-387.74
-371.94
-348.7
-329.74
-320.07
-320.01
-323.7
-289.37
-197.24
-100.59
-26.26
29.56
66.4
102.35
147.21
186.04
218.62
247.52
268.33
284.86
298.25
306.72
311.13
310.67
304.22
292.07
266.34
219.28
156.38
87.7
25.55
-16.7
-33.18
-27.13
-7.4
10.96
17.54
17
19.29
32.78
59.91
93.66
123.28
142.76
151.52
154.43
159.28
166.36
169.05
158.8
129.4
81.54
23.06
-36.89
-92.18
-141.1
-187.21
-232.11
-271.8
-298.07
-302.18
-278.68
-228.78
-160.64
-78.36
1.64
60.71
89.37
91.03
75.51
51.43
23.29
-7.41
-40.21
-75.16
-109.71
-140.07
-163.87
-181.69
-196.11
-211.17
-228.26
-247.42
-268.22
-288.1
-303.54
-312.21
-314.24
-310.99
-304.29
-295.16
-283.68
-269.35
-249.85
-221.71
-181.33
-130.54
-71.96
-8.84
55.98
120.22
182.4
242.19
299.99
355.93
409.12
458.27
501.68
537.46
564.16
581.01
588.13
586.83
579.48
569.29
560.3
555.99
558.04
565.52
574.94
581.38
580.23
568.5
545.56
513.03
473.49
429.56
383.34
336.46
290.31
246.22
205.23
167.77
133.61
101.92
71.72
42.35
13.74
-13.64
-38.67
-60.38
-77.87
-90.8
-99.35
-104.04
-105.54
-104.47
-101.36
-96.54
-90.38
-83.29
-75.91
-69.27
-64.13
-60.76
-58.88
-57.94
-57.33
-56.42
-54.71
-51.86
-48.14
-43.83
-39.22
-34.48
-29.88
-25.86
-22.82
-20.99
-20.39
-21.82
-25.44
-30.8
-36.91
-43.02
-48.76
-53.87
-57.97
-60.68
-64.31
-70.24
-78.44
-88.05
-99.01
-112.17
-128.54
-148.38
-170.99
-200.22
-237.01
-278.47
-319.63
-357.07
-389.82
-418.3
-442.94
-463.76
-488.84
-522.02
-560.82
-598.9
-631.85
-659.39
-684.38
-710.65
-740.56
-784.24
-841.83
-901.14
-943.24
-953.75
-928.75
-874.42
-802.57
-657.37
-429.39
-155.94
103.31
308.39
449.76
535.78
579.19
592.22
585.62
557.11
508.59
448.7
390.84
342.89
308.97
289.04
281.75
285.97
292.25
296.12
299.12
307.55
325.42
352.45
385.03
419.66
455.03
480.49
491.42
479.33
443.7
389.38
324.92
258.6
196.23
140.55
89.23
40.87
-4.43
-44.16
-76.63
-101.78
-121.75
-139.01
-155.54
-173.46
-192.84
-212.56
-229.59
-242.72
-250.12
-251.81
-248.25
-240.45
-229.64
-216.65
-202.48
-187.54
-172.43
-157.96
-145.54
-135.94
-129.57
-126.44
-125.82
-126.7
-127.43
-126.25
-121.02
-114.31
-106.98
-99.59
-92.53
-85.85
-79.59
-73.54
-67.59
-61.66
-56
-50.4
-44.88
-39.59
-34.63
-30.12
-26.09
-22.53
-19.39
-16.76
-14.34
-12.03
-9.85
-7.87
-6.05
-4.33
-2.54
-0.54
1.69
4.34
7.3
10.39
13.36
16.22
19.18
22.74
27.35
33.33
40.69
48.94
57.22
64.64
70.77
75.7
80.07
84.67
90.02
96
101.87
106.44
108.68
108.45
106.67
105.44
107.16
113.6
125.22
141.19
159.86
179.6
199.66
220.35
242.94
268.83
299
334.01
374.14
418.4
463.41
503.16
529.68
535.94
518.82
481.11
431.34
381.54
341.54
315.04
299.21
287.08
273.18
255.83
237.22
221.33
212.61
211.7
215.05
217.83
215.69
209.15
201.39
195.35
192.24
194.02
200.14
207.66
214.12
217.15
218.3
219.03
218.32
212.97
203.06
187.58
163.27
128.55
82.63
30.37
-21.88
-68.91
-130.88
-214.23
-312.92
-413.23
-483.24
-522.2
-538.12
-538.77
-532.8
-520.5
-491.82
-437.29
-357.15
-257.27
-149.79
-46.54
42.07
109.07
138.56
127.03
103.59
81.69
56.7
25.63
-9.68
-45.15
-76.91
-103.22
-122.36
-137.08
-158.66
-190.93
-227.98
-256.43
-264.21
-246.83
-208.46
-156.74
-101.4
-53.12
-16.61
8.94
27.84
43.29
56.8
68.73
80.14
91.18
99.81
104.87
105.74
101.46
90.92
74.43
55.83
41.83
38.48
46.72
61.96
75.28
76.61
59.24
23.27
-24.72
-75.24
-120.35
-156.67
-184.63
-206.62
-224.67
-240.45
-255.34
-271.39
-291.9
-320.65
-360.59
-412.06
-471.83
-532.16
-582.88
-613.68
-617.5
-592.98
-544.95
-482.38
-414.88
-349.79
-290.11
-235.6
-184.86
-137.45
-94.39
-57.18
-26.26
-0.04
23.83
47.89
73.34
99.15
122.92
142.16
156.13
166.59
177.76
193.1
215.12
243.35
274.55
304.57
330.3
350.67
365.91
376.89
381.54
379.04
370.45
359.15
349.77
345.4
345.18
344.26
337.27
318.3
287.78
250.95
214.44
182.28
153.97
125.74
86.55
47.52
12.57
-10.47
-16.08
-5.65
11.59
22.6
17.44
-5.32
-37.34
-68.92
-92.15
-106.91
-120.88
-144.34
-183.3
-232.44
-275.98
-295.23
-282.03
-241.36
-187.28
-133.65
-88.12
-51.21
-19.17
12.91
47.75
84.22
118.77
147.17
166.31
174.75
172.73
161.19
141.1
107.99
61.61
6.51
-47.82
-89.8
-109.92
-104.31
-80.97
-46.01
-6.32
32.69
67.75
97.52
121.13
136.89
142.55
137.08
121.79
99.08
72.33
43.54
12.71
-21.43
-59.63
-100.68
-140.98
-175.26
-200.04
-214.5
-221.16
-224.92
-231.35
-244.92
-267.92
-299.65
-335.98
-371.14
-398.8
-413.67
-412.77
-396.47
-368.42
-334.92
-303.13
-278.59
-263.33
-254.8
-247.18
-234.24
-212.41
-182.42
-148.3
-114.68
-83.88
-54.73
-23.59
13.14
56.61
104.96
154.42
201.52
244.38
282.6
316.06
343.7
362.8
369.84
362.04
338.93
303.2
260.45
217.77
181.9
158.18
150.12
159.72
187.33
230.98
285.66
343.3
394.17
429.47
443.89
436.89
412.05
375
331.33
285.66
242
204.26
176.17
159.84
154.37
155.18
155.2
147.72
129.13
100.66
67.88
38.34
18.53
11.19
14.03
20.53
22.82
15.13
-3.23
-27.3
-48.34
-57.77
-51.11
-30.43
-3.91
17.28
23.26
9.05
-23.92
-69.22
-118.13
-162.79
-198.56
-224.84
-243.94
-259.3
-273.98
-289.97
-308.83
-331.09
-355.52
-378.15
-392.27
-389.74
-364.82
-317.88
-257.73
-200.6
-162.72
-153.49
-171.53
-205.91
-241.07
-263.37
-265.65
-248.23
-218.24
-183.26
-147.96
-114.04
-82.08
-53.13
-29.58
-15.23
-14.43
-32.57
-70.1
-120.7
-172.55
-212.51
-230.64
-223.77
-196.54
-147.27
-86.52
-30.65
6.78
23.04
24.11
16.25
2.85
-16.67
-43.01
-76.59
-111.64
-138.69
-150.48
-145.09
-125.64
-97.58
-65.72
-32.46
0.7
38.13
84.58
142.04
207.5
274.11
334.81
384.68
422.36
448.55
470.92
497.22
532.38
576.16
624.16
671
712.18
744.87
739.51
679.42
564.95
415.14
255.72
106.7
-21.92
-127.63
-211.75
-277.02
-320.24
-342.78
-346.88
-337.34
-320.33
-301.1
-282.65
-265.78
-249.6
-228.92
-201.04
-165.2
-124.04
-82.23
-44.24
-12.87
10.86
27.39
40.07
51.5
63.07
73.97
82.14
85.86
84.86
80.25
74.07
69.84
70.64
79.11
96.42
121.96
153.12
185.23
211.98
226.9
225.62
206.83
173.03
129.06
80.54
32.38
-12.06
-51.07
-84.02
-111.21
-133.76
-153.49
-172.65
-193.29
-216.37
-241.4
-266.63
-289.58
-308.07
-321.12
-329.18
-334.05
-338.48
-345.14
-355.16
-366.77
-374.7
-371.62
-351.02
-310.39
-253.14
-187.86
-125.08
-73.2
-35.51
-9.89
8.82
25.51
42.45
59.16
74.01
86.36
97.75
111.24
130.1
156.31
190.13
230.29
274.44
319.4
361.01
394.21
413.76
415.81
399.76
368.82
329.39
288.52
251.42
219.93
192.86
167.86
143.54
120.69
101.43
87.46
78.21
70.66
60.74
45.67
25.68
4.08
-14.57
-27.44
-35.21
-42.14
-53.85
-74.33
-103.45
-136.5
-165.95
-184.32
-186.93
-173.16
-146.27
-111.87
-76.11
-43.92
-18.21
0.19
12.14
19.27
23.32
25.37
25.69
23.75
18.84
10.69
-0.4
-13.61
-28.17
-43.74
-60.28
-77.45
-94.06
-107.69
-115.29
-114.44
-104.25
-85.63
-60.59
-31.25
0.72
33.41
64.46
90.91
109.78
119.46
120.55
115.67
108.11
99.99
90.9
79
62.21
39.5
11.34
-20.87
-56.23
-94.53
-135.45
-177.63
-216.82
-247.31
-264.41
-266.91
-257.59
-242.27
-226.73
-208.16
-182.59
-145.95
-97.74
-41.81
15.84
70.84
121.34
169.63
217.27
262.9
303.63
335.97
357.81
364.29
354.29
328.22
287.21
232.92
168.13
98.19
29.29
-32.67
-83.52
-120.63
-143.1
-151.12
-145.68
-128.46
-101.9
-71.11
-42.45
-21.42
-10
-6.51
-6.98
-7.38
-4.79
2.11
10.68
16.02
12.16
-5.76
-40.75
-92.98
-159.16
-232.58
-294.78
-327.06
-316.65
-264.05
-181.93
-87.37
5.84
89.72
158.1
213.19
254.28
279.4
286.97
278.08
255.68
223.39
184.74
143.24
101.84
61.2
22.2
-13.77
-43.86
-66.63
-82.15
-91.48
-96.21
-98.66
-101.41
-104.71
-106.32
-101.25
-87.54
-65.8
-38.52
-10.31
10.94
17.32
5.3
-22.06
-53.7
-80.14
-94.57
-94.49
-84.03
-76.03
-85.94
-124.87
-194.56
-284.33
-382.8
-478.36
-560.54
-599.24
-573.66
-483.05
-349.05
-222.46
-113.31
-21.28
54.29
117.08
165.74
197.14
212.21
217.74
224.83
245.2
277.47
310.63
331.54
331.75
309.37
269.83
222.82
178.21
144.55
121.56
104.97
90.97
77.64
63.91
49.4
34.26
19.01
5.11
-8.76
-24.04
-41.56
-59.73
-75.91
-87.41
-91.98
-87.72
-72.67
-46.95
-12.5
27.45
65.25
92.49
103.04
95.81
75.28
49.72
26.84
10.67
0.69
-6.67
-14.82
-24.99
-35.63
-43.97
-48.32
-48.73
-46.77
-43.87
-40.11
-34.02
-24.03
-9.59
7.85
25.73
42.37
58.41
75.77
96.15
118.93
140.58
155.84
160.32
152.49
134
108.11
77.64
44.18
8.79
-26
-54.05
-68.49
-64.74
-43.22
-9.82
26.16
57.13
78.06
87.15
85.41
74.39
55.17
28.52
-3.76
-38.22
-70.59
-96.75
-113.93
-121.47
-121.05
-115.71
-108.55
-100.68
-90.73
-76.8
-57.58
-33.31
-6.42
18.74
37.23
44.46
37.91
17.92
-12.21
-47.3
-79.73
-101.75
-108.79
-101.5
-85.76
-73.09
-66.74
-66.13
-67.67
-66.01
-55.86
-33.98
3.64
52.13
101.3
140.97
164.2
169.74
162.57
151.34
144.32
145.92
155.39
169.86
187.35
206.83
228.51
251.34
272.39
286.99
290.16
277.87
249.67
209.18
161.91
112.14
63.15
16.74
-26.46
-66.56
-103.96
-138.67
-171.09
-192.53
-200.33
-195.16
-180.42
-160.96
-142.29
-129.12
-124.68
-129.73
-143.57
-166.33
-197.74
-237.72
-285.82
-340.85
-400.09
-459.19
-512.25
-553.27
-578.52
-585.55
-573.64
-543.4
-496.82
-437.25
-369.41
-298.42
-229.39
-167.61
-116.56
-77.57
-50
-32.21
-22.25
-18.35
-17.37
-16.46
-14.41
-11.14
-7.59
-4.33
-1.58
0.86
3.64
10.87
25.79
48.97
78.19
109.64
140.19
168.31
193.66
216.74
243.44
278.14
321.27
368.8
414.83
455.07
488.36
515.93
540.39
571.37
616.04
675.86
745.64
816.89
882.5
938.76
984.76
978.06
894.64
738.67
542.47
343.97
166.15
15.65
-109.45
-212.87
-297.04
-355.51
-385.84
-388.06
-366.9
-332.4
-294.75
-261.67
-237.37
-222.38
-208.88
-187.35
-151.7
-101.34
-43.91
10.65
53.67
79.8
86.75
77.35
53.86
16.39
-37.41
-114.65
-219.46
-349.53
-495.67
-645.03
-783.68
-901.46
-992.95
-1028.4
-989.17
-875.85
-711.74
-530.53
-359.92
-214.58
-98.68
-10.3
54.99
97.88
119.21
122.18
113.01
99.22
86.12
75.73
67.45
59.27
45.56
23.58
-6.24
-37.9
-61.98
-71.71
-66.05
-49.77
-31.08
-20.23
-23.9
-42.99
-72.2
-102.98
-128.88
-147.37
-158.28
-162.23
-160.12
-151.63
-134.84
-112.34
-84.91
-54.81
-25.69
0.04
22
41.37
59.98
79.05
103.38
135.79
174.22
213.24
247.92
275.84
297.48
314.75
329.75
351.42
385.75
431.79
483.16
532.99
577.04
613.94
643.7
666.48
691.95
726.33
768.28
810.53
845.78
870.74
885.71
892.53
832.73
682.34
460.19
215.77
-5.69
-183.25
-315.09
-408.62
-473.38
-518.35
-541.19
-541.72
-525.47
-502.16
-480.87
-464.51
-452.75
-443.87
-436.63
-423.08
-398.77
-364.72
-325.73
-286.67
-247.59
-206.63
-162.54
-115.62
-62.67
-1.85
61.43
121
163.44
181.67
174.53
145.96
102.5
52.54
2.03
-45.84
-87.25
-123.07
-150.47
-166.29
-168.85
-158.63
-137.54
-109.29
-77.77
-50.99
-38.08
-42.08
-59.59
-81.98
-99.8
-107.25
-103.85
-93.06
-79.62
-66.72
-53.15
-37.26
-20.07
-5.46
1.26
-4.7
-25.75
-61.84
-111.49
-166.09
-215.32
-250.24
-266.39
-265.31
-254.1
-242.42
-238.44
-246.13
-261.51
-279.02
-293.85
-303.71
-308.24
-308.33
-304.19
-294.89
-278.65
-253.65
-219.9
-178.48
-134.68
-92.65
-54.86
-21.46
8.79
37.56
65.81
92.55
115.5
131.75
139.84
139.86
134.3
126.48
119.37
114.79
112.68
111.88
110.44
107.65
103.62
101.45
104
112.38
125.16
138.94
150.06
155.01
153.55
146.91
142.06
144.91
157.76
178.06
200.17
218.76
229.14
232.55
232.3
239.82
263.84
307.29
366.37
433.7
502.82
567.08
625.37
675.83
725.38
778.33
836.33
898.36
962.83
1029.9
1096.7
1164
1169.4
1074.1
875.9
614.94
343.79
95.58
-100.11
-268.25
-427.46
-583.75
-722.79
-831.36
-900.93
-924.36
-901.98
-841.62
-759.98
-669.35
-588.9
-511.78
-430.68
-344.24
-258.59
-183.31
-127.96
-99.85
-96.41
-111.83
-134.08
-154.09
-166.61
-171.62
-173.35
-176.22
-183.86
-194.34
-209.89
-226.69
-242.96
-258.9
-275.94
-296.02
-320.38
-350.03
-384.51
-403.88
-396
-357.83
-294.92
-218.35
-140.16
-69.53
-11.52
33.41
67.36
91.38
106.45
113.86
115.42
113.25
109.25
104.84
101.26
99.63
99.04
98.82
98.89
99.7
101.81
105.14
108.94
112.06
113.58
111.75
105.88
96.39
84.61
72.02
59.5
47.42
35.91
25.74
17.22
11.4
9.71
13.3
21.89
33.25
43.86
49.33
45.68
29.62
2.08
-32.02
-63.84
-83.39
-83.26
-61.23
-24.88
16.47
50.76
67.27
61.19
34.24
-6.55
-51.93
-92.76
-123.7
-143.9
-156.38
-165.82
-174.99
-185.12
-189.84
-183.84
-161.37
-119.04
-57.26
19.08
101.74
183.09
256.38
310.59
334.98
328.65
300.23
260.34
220.44
177.21
127.26
69.58
5.37
-62.61
-128.53
-187.89
-240.12
-287.95
-335.5
-382.8
-425.6
-456.46
-467.16
-452.55
-414.66
-362.72
-309.12
-264.93
-234.66
-216.96
-207.12
-199.81
-191.19
-180.47
-168.97
-158.02
-148.13
-137.83
-125.1
-108.38
-86.58
-59.17
-26.29
11.36
52.76
96.53
141.33
185.84
229
270.51
310.86
351.04
392.26
435.38
480.39
525.77
568
601.78
621.13
621.17
599.95
560.05
507.88
451.52
397.58
348.82
303.69
258.04
207.96
152.71
96.06
45.14
7.09
-15.1
-23.78
-25.51
-28.17
-38.15
-58.25
-86.85
-118.94
-147.63
-167.27
-174.03
-165.98
-143.1
-107.36
-62.16
-11.54
39.7
85.42
116.62
123.87
101.13
48.78
-26.34
-112.48
-196.39
-267.62
-314.45
-331.42
-321.6
-293.7
-256.3
-215.57
-175.53
-138.57
-105.84
-73.73
-39.05
1.74
52.12
113.22
181.73
244.32
286.49
300.07
285.78
250.15
203.49
156.48
119.67
93.99
78.01
69.52
66.84
66.64
62.92
50.95
29.06
1.31
-21.73
-28.5
-22.3
-6.91
18.37
49.74
82.66
112.99
137.47
153.15
157.8
150.6
134.17
112.02
86.18
58.26
28.96
-1.74
-34.21
-68.58
-104.34
-139
-170.2
-197.34
-220.64
-241.16
-260.03
-277.99
-294.92
-309.88
-320.7
-325.79
-325.37
-320.85
-314.85
-310.9
-313.02
-325.47
-351.19
-389.77
-436.83
-484.39
-522.78
-543.91
-544.07
-524.14
-489.09
-445.37
-398.29
-350.73
-303.34
-255.74
-207.96
-160.81
-113.92
-66.77
-19.18
27.88
72.52
112.81
147.51
176.31
200.24
223.26
249.09
279.03
311.03
341.21
366.09
383.82
394.4
399.4
403.6
411.54
425.64
445.36
468.24
491.3
510.7
521.61
502.83
440.98
340.04
222.61
115.76
35.73
-15.34
-44.02
-61.57
-74.48
-82.49
-83.83
-78.86
-72.18
-71.45
-83.03
-110.16
-152.02
-203.16
-252.65
-288.64
-302.56
-292.52
-263.46
-224.36
-184.89
-151.68
-125.97
-103.08
-76.35
-41.24
2.17
50.11
97.67
140.47
176.29
205.53
230.57
254.11
278.2
303.65
330.6
358.7
384.66
403.74
411.28
404.31
382.41
347.3
302.54
252.7
202.45
152.86
103.87
55.64
9.16
-34.43
-75.17
-113.94
-151.74
-189.03
-229.01
-273.97
-323.84
-375.74
-425.75
-470.94
-510.04
-543.06
-549.42
-515.53
-441.9
-344.73
-244.52
-154.54
-79.05
-16.99
34.45
77.86
111.52
133.7
145.07
149.31
151.46
155.53
163.45
175.41
190.4
203.83
211.34
210.96
203.82
192.87
181.28
171.34
164.44
161
158.36
153.7
145.33
133.38
119.16
104.14
89.01
73.09
58.38
43.27
25.36
2.67
-25.35
-57.64
-92.23
-126.84
-159.54
-189.39
-217.4
-245.3
-274.99
-308.28
-346.41
-389.59
-436.02
-481.09
-517.52
-537.52
-535.01
-508.05
-460.02
-398.36
-331.79
-267.23
-208.02
-154.14
-104.54
-58.69
-17.84
15.5
38.62
49.86
49.14
37.77
17.95
-7.9
-37.36
-68.08
-97.6
-123.41
-142.9
-153.69
-154.11
-143.78
-123.97
-97.47
-67.82
-38.28
-10.78
14.38
38.15
61.95
86.5
111.35
135.04
155.82
172.49
185.05
194.58
203.05
212.61
225.33
242.48
264.18
288.95
313.36
332.56
341.3
335.72
314.84
281.38
241.05
200.92
167
142.5
127.4
118.97
113.39
107.25
98.36
86.12
71.2
54.72
38
22.41
9.19
-0.72
-7.01
-10.94
-15.68
-25.7
-44.96
-74.39
-109.88
-142.71
-162.16
-159.46
-131.06
-79.71
-12.79
61.21
135.74
207.67
276.01
339.88
397.04
443.9
477.17
495.17
498.41
489.01
469.4
440.98
404.2
359.79
309.95
259.19
212.92
175.62
149.66
134.88
128.57
126.84
125.66
121.59
112.05
94.43
66.4
26.84
-22.68
-78.05
-133.59
-183.34
-222.44
-248.06
-260.74
-264.01
-262.68
-261.27
-263.82
-273.86
-293.51
-323.39
-355.16
-374.6
-370.82
-343.25
-300.34
-254.13
-215
-188.08
-172.72
-164.18
-157.89
-151.63
-145.75
-141.41
-139.07
-137.71
-135.31
-129.27
-117.97
-101.92
-82.81
-62.73
-43.11
-24.76
-8.12
6.95
20.44
32.04
40.6
45.28
45.71
42.14
35.29
23.92
9.36
-5.96
-19.35
-29.14
-33.87
-32.38
-23.5
-6.36
19.12
51.69
87.21
118.91
131.89
114.71
67.11
1.64
-64.39
-118.51
-155.59
-175.18
-177.4
-161.18
-125.43
-74.15
-17.61
30.58
60.36
71.26
66.76
57.55
53.75
60.65
76.95
97.64
117.58
133.35
142.76
142.83
130.87
106.15
73.27
41.94
23.05
22.66
38.15
59.78
75.78
79.05
69.92
54.77
41.32
33.78
31.04
28.45
21.85
10.68
-1.19
-8.61
-9.11
-5.07
-2.79
-8.72
-25.27
-48.75
-71.16
-84.6
-85.83
-77.84
-67.72
-62.56
-65.64
-75.62
-88.42
-100.18
-108.98
-114.63
-117.43
-116.99
-112.38
-103.25
-90.63
-76.79
-64.18
-54.4
-47.84
-44.36
-44.07
-47.48
-54.91
-65.41
-76.56
-85.44
-89.99
-90.33
-88.71
-88.06
-90.32
-95.42
-101.75
-107.24
-110.61
-111.28
-108.58
-100.82
-85.07
-58.21
-18.56
32.84
92.34
154.55
214.1
266.45
308.24
337.38
353.61
359.44
360.32
362.8
371.19
384.18
394.04
389.5
361.38
307.88
236.36
160.79
95.64
50.12
25.14
14.66
9.35
0.98
-15.32
-40.44
-71.68
-103.67
-129.18
-141.29
-135.94
-114.49
-83.89
-55.79
-42.61
-53.35
-90
-146.5
-211.02
-269.76
-311.43
-330.03
-325.8
-303.36
-268.71
-226.81
-180.37
-132.61
-89.22
-58.33
-47.66
-60.59
-92.89
-132.8
-164.7
-173.15
-151.22
-102.77
-39.72
24.32
79.75
122.71
153.55
174.27
189.87
203.37
215.19
223.93
228.82
230.59
230.81
231.8
236.79
253.15
285.43
331.3
381.11
421.7
441.45
433.76
399.22
325.1
218.41
104.62
13.49
-40.8
-62.94
-65.88
-61.24
-55.28
-48.67
-37.69
-21.67
-4.83
5.99
5.83
-6.53
-28.44
-55.58
-83.96
-108.52
-127.42
-142.72
-158.88
-179.47
-205.42
-235.7
-268.61
-303.27
-338.3
-373.05
-406.69
-436.33
-456.05
-458.5
-438.74
-397.3
-340.93
-279.57
-223.08
-177.73
-144.6
-120.09
-98.95
-77.59
-55.77
-35.78
-19.74
-7.63
3.1
16.49
35.24
59.65
87.01
113.41
135.82
153.23
166.15
174.68
177.75
172.65
157.56
133.25
103.57
74.31
50.34
33.35
20.86
8.14
-10.36
-37.29
-71.17
-106.51
-135.7
-151.66
-150.45
-132.77
-102.52
-67.53
-34.06
-6
15.69
32
44.12
51.85
53.26
47.46
31.57
7.97
-17.42
-37
-44.03
-35.34
-11.98
22.63
67.55
117.61
171.16
225.05
273.03
307.51
322.96
319.71
304.82
292.72
288.99
297.51
315.81
338.01
359.55
379.81
401.47
404.76
416.77
426.42
424.83
405.62
368.24
318.31
264.92
216.53
177.85
152.25
131.88
112.51
92.34
72.31
54.63
40.74
30.07
20.57
12.47
0.47
-15.48
-32.73
-47.38
-56.42
-59.16
-57.5
-54.68
-52.58
-58.65
-75.68
-101.9
-131.68
-158.46
-177.16
-185.85
-185.86
-180.45
-181.41
-196.13
-224.14
-257.8
-287.93
-308.67
-319.1
-322.28
-323
-335.45
-367.85
-417.93
-474.99
-528.28
-572.17
-606.21
-632.64
-654.28
-684.95
-732.86
-795.5
-862.16
-922.53
-971.16
-1005.4
-1022.5
-945.19
-740.77
-441.76
-126.01
140.27
330.91
450.9
518.73
554.23
572.42
570.1
543.88
498.7
447.6
403.47
372.98
356.58
350.77
350.7
342.5
317.44
276.91
230.18
187.15
153.05
128.53
111.6
99.54
84.33
60.66
30.22
-0.57
-24.82
-38.93
-42.67
-37.96
-27.73
-17.87
-12.93
-14.21
-20.46
-28.91
-37.7
-45.86
-52.99
-59.05
-65.33
-73.04
-82.5
-93.38
-103.85
-112.19
-116.79
-116.27
-109.54
-96.04
-75.52
-47.13
-16.3
14.72
45
74.69
104.84
137.2
173.43
214.09
257.57
299.38
333.68
353.8
354.79
335.81
301.26
259.81
221.8
195.84
186.06
192.01
208.66
229.23
247.72
260.98
268.97
273.72
277.87
283.56
292.48
305.3
321.71
339.5
354.07
358.49
345.54
310.68
254.54
183.93
109.23
40.82
-14.73
-56.02
-85.7
-107.78
-125.21
-139.73
-152.24
-164.6
-179.15
-197.1
-217.14
-235.74
-249.16
-255.2
-254.6
-249.69
-242.67
-232.92
-216.73
-189.08
-147.19
-92.98
-33.04
22.98
65.08
84.52
77.09
44.85
-3.86
-56.97
-102.46
-131.55
-141.05
-133.64
-117.06
-100.32
-89.86
-88.19
-94
-103.26
-110.07
-108.11
-85.96
-39.04
24.04
85.43
129.32
149.87
150.58
140.01
127.95
118.94
113.32
109.34
104.94
98.33
87.96
72.3
52.04
29.36
7.81
-9.56
-21.23
-26.92
-27.59
-24.75
-20.46
-16.85
-16.1
-20.43
-32.14
-52.67
-81.26
-114.84
-148.91
-179.1
-202.72
-219.42
-231.07
-240.7
-250.87
-262.43
-274.27
-284.2
-290.33
-291.85
-288.85
-281.91
-271.63
-258.29
-242.25
-224.1
-204.95
-186.37
-170.24
-158
-150.5
-147.33
-146.36
-144.24
-137.4
-122.95
-99.79
-69.41
-35.12
-0.72
31.04
59.77
86.91
114.34
142.97
171.78
197.53
216.44
225.74
225.29
217.92
207.71
197.51
188.43
180.15
171.47
161.99
152.51
144.71
140.65
140.66
141.36
139.15
132.41
121.22
107.49
93.8
82.31
75.91
75.92
78.52
80.37
80.32
77.39
71.09
61.72
50.48
42.29
41.35
44.28
47.52
50.22
51.34
50.56
48.52
46.56
50.33
64.83
86.44
113.09
147.18
189.94
240.57
295.52
324.94
306.17
272.71
241.82
207.3
171.51
137.12
104.69
71.86
34.84
-5.03
-43.75
-82.65
-120.08
-150.96
-173.43
-188.5
-197.78
-200.91
-191.96
-164.96
-123.84
-78.07
-38.51
-14.66
-9.5
-19.03
-35.34
-49.34
-56.41
-60.32
-66.31
-76.41
-89.94
-103.93
-115.14
-120.48
-117.12
-104.09
-84.36
-62.36
-42.69
-30.12
-27.95
-37.29
-54.4
-71.84
-82.44
-83.19
-75.36
-62.74
-49.25
-36.75
-24.92
-12.46
0.98
13.97
24.08
29.46
30.05
27.5
24.5
22.74
22.1
20.54
15.22
3.95
-13.55
-35.55
-58.69
-79.18
-94.56
-104.36
-110.1
-114.8
-121.74
-133.47
-150.76
-171.4
-190.19
-200.47
-196.49
-175.8
-140.43
-95.95
-49.24
-6.31
26.81
46.36
51.25
42.8
24.11
-0.34
-25.46
-46.91
-62.23
-70.14
-71.04
-66.79
-59.57
-51.32
-43.69
-38.34
-37.06
-40.83
-46.05
-47.45
-40.76
-25.32
-4.54
15.86
30.49
36.65
36.04
37.92
51.38
80.54
122.33
169.11
213.25
250.42
279.94
304.56
333.28
372.7
423.54
480.64
536.76
586.74
629.07
663.98
660.56
602.63
495.43
363.87
234.87
123.72
33.94
-37.2
-95.17
-144.23
-181.82
-205.19
-214.03
-211.23
-200.77
-187.14
-174.63
-169.72
-178.72
-201.56
-234.67
-272.25
-308.23
-337.43
-356.85
-358.54
-343.68
-318.97
-289.46
-257.62
-223.54
-187.08
-149.28
-112.08
-77.87
-50.14
-30.68
-17.71
-8.2
-0
7.43
13.44
18.24
24.08
33.47
48.35
68.97
91.73
109.6
114.5
100.98
69.73
27.2
-18.45
-60.52
-94.97
-120.32
-136.23
-139.02
-125.48
-93.01
-41.93
23.81
90.92
142.63
167.5
165.53
146
120.7
98.3
81.09
66.26
49.57
29.78
9.14
-8.25
-19.07
-22.46
-19.86
-15.13
-12.67
-15.09
-21.52
-28.7
-32.76
-30.14
-18.7
1.97
28.34
53.8
70.52
72.24
55.85
22.24
-22.41
-68.99
-104.48
-120.74
-117.47
-103.62
-86.29
-69.54
-55.9
-45.45
-37.38
-30.33
-24
-17.15
-5.37
16.99
53.49
101.41
151.92
191.44
217.41
231.66
234.05
227.87
211.64
192.23
165.71
129.99
86.89
42.77
3.93
-25.9
-46.55
-61.7
-75.71
-92.02
-108.55
-119.58
-119.04
-105.63
-83.27
-58.14
-35.98
-19.11
-7.83
0.19
7.32
14.69
21.09
23.84
21.02
12.16
-1.36
-18.11
-36.28
-54.58
-72.18
-89.05
-106.19
-124.61
-144.63
-165.43
-185.78
-203.48
-215.61
-218.64
-209.1
-186.39
-152.18
-109.62
-62.71
-15.87
26.45
61.36
88.8
112.28
134.74
159.16
188.21
222.39
258.27
287.22
298.35
283.02
239.61
171.19
86.88
0.23
-69.54
-101.73
-88.6
-41.37
8.71
49.14
76.47
92.03
102.21
110.25
118.97
126.9
130.88
128.25
118.68
100
70.48
30.95
-16.64
-63.22
-100.41
-119.9
-115.82
-87.37
-43.65
-0.47
25.81
21.67
-9.8
-58.37
-107.05
-139.04
-144.53
-126.54
-98.33
-76.18
-75.81
-95.63
-129.5
-166.4
-196.3
-214.13
-221.32
-221.94
-194.03
-166.37
-127.4
-71.27
2.51
87.74
173.7
249.58
308.4
348.57
368.33
374.28
366.85
344.89
308.01
259.19
205.17
154.43
114.1
84.44
67.61
59.5
55.16
50.5
42.81
30.56
12.96
-10.12
-39.95
-73.21
-108.47
-144.73
-181.8
-219.77
-258.01
-294.3
-325.27
-348.72
-362.71
-368.95
-371.2
-373.2
-376.76
-381.6
-386.07
-388.94
-390.81
-392.79
-395.85
-399.24
-400.35
-396.05
-384.25
-364.88
-339.79
-312.07
-285.11
-261.81
-243.25
-228.68
-215.71
-201.08
-181.66
-155.64
-123.27
-86.46
-47.83
-8.64
30.21
67.29
100.14
126.21
144.18
154.94
161.61
168.32
181.03
203.52
235.73
273.93
313.09
348.96
378.69
400.66
413.85
421.32
426.14
429.13
428.64
422.29
408.94
389.1
364.69
338.84
319.92
315.31
327.93
355.26
392.1
433.73
477.19
520.98
534.53
498.37
413.63
301.92
188.07
86.93
2.93
-64.75
-118.52
-160.67
-188.53
-200.22
-197.38
-185.47
-170.94
-158.49
-150.1
-145.55
-142.95
-136.09
-119.37
-90.45
-51.52
-7.92
33.3
64.57
79.37
74.18
52.04
19.85
-14.66
-46.07
-70.65
-86.46
-94.13
-96.27
-96.04
-94.82
-92.87
-90.19
-87.21
-84.54
-82.85
-82.55
-83.8
-86.45
-90.17
-95.05
-102.07
-112.76
-128.19
-148.54
-172.69
-198.37
-222.47
-241.6
-252.58
-252.94
-241.37
-218.14
-185.33
-146.49
-105.79
-66.92
-32.54
-4
18.49
35.35
47.38
55.44
60.3
62.51
62.45
60.26
56.15
50.71
44.95
39.98
36.53
34.55
33.23
31.56
28.82
25.31
22.13
20.64
21.54
24.52
28.4
31.7
33.37
33.04
31.46
30.12
30.38
32.76
36.77
41.28
45.29
48.42
50.55
52.48
55.36
59.6
64.32
67.74
68.07
64.2
56
42.66
23.84
-0.45
-30.15
-65.1
-104.37
-145.26
-183.72
-214.99
-236.62
-247.52
-247.72
-237.97
-219.08
-191.25
-153.93
-107.54
-48.39
15.89
70.14
100.69
103.82
85.73
57.25
29.87
8.41
-5.84
-14.92
-21.17
-26.88
-34.44
-46.97
-67.59
-97.44
-134.65
-173.77
-208.1
-230.03
-232.68
-212.16
-169.12
-108.84
-39.67
29.15
90.31
139.03
174.47
199.12
216.81
230.82
242.77
252.9
260.36
263.87
261.48
251.39
233.11
208.57
182.52
161.76
153.23
161.52
187.05
225.98
271.66
317.87
360.79
399.01
431.47
455.29
465.4
455.48
421.47
362.9
284.8
196.32
107.9
27.91
-39.31
-92.42
-132.79
-161.84
-182.46
-197.16
-208.36
-218.32
-229.45
-244.07
-262.81
-285.91
-311.47
-338.39
-364.58
-387.59
-405.46
-417.88
-426.79
-434.46
-444.25
-441.27
-414.14
-359.74
-286.27
-208.05
-137.42
-87.66
-55.11
-34.37
-19.61
-7.93
2.47
14.22
28.44
45.15
63.08
81.14
96.73
108.22
113.5
111.3
101.43
85.26
65.77
46.46
31.35
22.58
21.21
26.68
36.56
46.96
53.99
55.47
51.39
44.8
40.18
42.57
56.08
80.74
112.14
144.22
172.73
196.23
216.19
235.34
256
280.31
306.72
329.8
342.25
337.84
312.45
265.93
202.86
122.01
36.2
-34.61
-76.09
-88.02
-80.48
-65.85
-53.31
-43.59
-34.86
-24.59
-13.83
-7.06
-9.45
-23.27
-49.35
-85.59
-127.46
-169.62
-206.43
-235.1
-256.08
-270.9
-280.04
-284.56
-284.59
-279.72
-270.38
-257.81
-244.61
-233.28
-223.86
-201.16
-156.59
-93.76
-26.5
31.3
73.36
100.77
118.93
132.77
144.42
152.06
154.26
152.11
149.29
148.26
150.55
156.25
163.54
169.34
167.55
153.01
123.62
80.2
30.43
-11.97
-32.99
-26.84
2.04
41.06
78.36
106.35
126.16
140.78
152.25
161.18
165.12
159.91
139.76
100.64
43.93
-21.98
-83.02
-132.91
-166.47
-182.28
-174.69
-146.23
-103.85
-57.9
-21.1
-4.01
-11.69
-41.26
-85.23
-134.23
-180.81
-218.72
-230.66
-207.05
-151.34
-77.7
-0.19
72.55
136.84
187.56
227.53
257.11
274.15
277.31
267.39
246.85
217.55
180.47
135.9
85.68
29.82
-31.38
-95.02
-155.46
-206.09
-241.6
-260.1
-262.71
-251.89
-234.99
-219.6
-210.58
-209.18
-214.63
-225.43
-241.74
-264.54
-274.08
-260.76
-227.85
-188.67
-155.51
-133.21
-119.5
-110.86
-104.03
-96.91
-92.56
-93.77
-101.44
-114.24
-135.16
-159.9
-185.03
-206.58
-219.14
-219.79
-206.48
-179.23
-141.18
-98.4
-57.28
-23.53
0.8
17.5
26.51
28.58
25.12
18.02
9.3
1.66
-3.07
-3.64
0.13
6.33
12.67
17.08
18.54
17.15
14.12
10.5
7.09
4.17
1.21
-2.34
-6.69
-11.5
-15.84
-18.34
-18
-14.35
-7.62
1.29
11.23
21.06
29.96
37.53
43.91
49.37
54.24
58.69
62.62
65.88
68.24
69.57
69.78
68.88
67
64.4
61.28
57.84
54.34
51.03
48.19
45.88
43.91
41.73
38.67
33.76
25.98
14.4
-1.54
-21.9
-46.26
-73.56
-102.35
-130.89
-157.38
-179.64
-195.96
-205.34
-207.46
-202.63
-191.36
-174.38
-152.66
-127.56
-99.98
-71.15
-42.47
-15.4
8.83
29.4
45.78
57.55
64.24
66.77
66.13
63.09
58.41
53.15
49.01
48
51.92
61.64
80.39
109.89
149.38
195.44
243.66
290.51
334.21
375
414.33
461.03
520.93
592.72
667.04
730.62
773.11
791.08
788.19
771.54
759.28
763.62
785.95
818.1
849.51
874.65
894.53
912.82
930.66
961.22
1012.4
1084.1
1167.3
1249.7
1320.4
1372.1
1400.5
1320.8
1091.2
725.4
294.94
-113.31
-442.62
-678.14
-832.41
-919.2
-967.42
-981.2
-960.36
-909.96
-844.3
-781.11
-733.51
-705.39
-693.86
-694.33
-689.98
-668.9
-628.63
-577.69
-528.45
-489.54
-462.98
-446.2
-436.38
-423.45
-401.32
-370.29
-339.05
-317.5
-310.95
-318.36
-334.95
-356.29
-375.45
-388.75
-396.52
-406.1
-423.99
-451.46
-483.84
-514.06
-536.48
-546.87
-544.26
-530.48
-514.26
-503.14
-500.59
-505.61
-515.24
-526.47
-535.61
-537.82
-496.49
-394.03
-239.96
-67.84
86.49
202.63
277.85
320.31
341.47
350.7
348.28
333.26
307.14
275.44
244.88
219.77
200.78
185.96
172.62
154.32
128.94
99.53
73.13
56.92
54.82
66.65
89.45
119.43
149.09
173.3
190.47
202.26
211.59
220.81
230.74
240.2
245.63
240.74
220.3
182.79
132.13
76.82
26.82
-10.16
-31.18
-38.63
-38.36
-35.86
-34
-32.74
-30.66
-26.95
-22.33
-18.53
-17
-17.93
-20.07
-21.47
-20.41
-16.32
-9.87
-2.45
4.47
10.08
14.55
18.77
23.8
30.27
37.95
45.88
52.55
56.66
57.49
55.13
50.26
43.79
36.44
28.36
19.08
8.01
-5.3
-20.79
-37.85
-55.27
-71.39
-84.49
-93.08
-96.55
-94.32
-86.35
-73.21
-56.06
-36.45
-16.14
3
19.23
30.2
34.94
33.22
25.39
12.37
-4.35
-23.1
-42.21
-60.51
-78.37
-95.49
-111.47
-125.81
-137.64
-145.37
-147.18
-141.41
-121.81
-91.74
-55.72
-18.22
17
47.57
72.67
92.66
108.67
121.63
129.88
132.16
127.22
114.16
92.83
63.82
28.32
-10.66
-47.34
-75.71
-89.46
-85.31
-65.08
-35.38
-5.18
17.66
29.53
31.57
27.38
21.73
17.44
14.96
13.18
12.73
15.57
24.36
40.77
63.9
91.25
119.01
143.33
162.13
175.56
185.4
194.25
204.55
217.89
235.25
255.76
276.6
293.33
300.92
295.11
273.98
238.49
189.66
133.18
75.76
23.19
-20.75
-54.39
-77.72
-91.57
-97.47
-97.56
-94.04
-89.59
-86.43
-85.53
-86.35
-87.32
-86.42
-82.13
-73.91
-62.25
-49.37
-37.78
-30.23
-28.66
-33.71
-44.62
-59.72
-76.83
-93.6
-108.32
-119.06
-124.5
-123.79
-116.81
-104.64
-89.6
-74.84
-63.69
-59.55
-63.07
-73.83
-89.41
-105.6
-117.28
-119.92
-111.34
-92.88
-71.24
-50.67
-36.07
-28.6
-25.09
-19.98
-8.44
10.9
35.41
56.25
73.05
84.02
90.9
97.54
107.61
122.88
142.39
162.87
173.75
177.08
168.93
147.03
111.35
64.36
10.8
-43.53
-93.55
-144.32
-187.23
-224.62
-259.09
-291.9
-322.23
-347.38
-364.08
-319.7
-278.62
-234.32
-190.87
-151.71
-118.55
-91.34
-68.76
-48.91
-30.46
-21.55
-17.13
-20.94
-35.71
-62.74
-101.98
-151.64
-207.34
-261.5
-310.23
-339.32
-343.08
-320.73
-279.07
-232.39
-197.58
-187.19
-203.88
-243.09
-288.12
-323.44
-336.69
-323.39
-288.11
-240.89
-192.01
-148.07
-89.67
-10.75
76.96
153.51
203.7
223.13
216.75
194.9
168.7
144.93
124.05
103.74
82.31
60.29
39.73
23.74
15.45
17.03
28.17
43.34
57.87
69.6
79.01
87.8
98.21
111.7
128.38
147.08
164.43
178.76
190.55
201.74
214.42
230.63
250.93
273.99
297.49
318.48
336.15
351.46
366.57
384.33
408.66
441.86
481.97
522.34
552.88
563.88
548.08
502.8
431.32
343.58
251.54
163.79
84.07
12.69
-50.34
-105.26
-152.66
-203.25
-257.9
-307.66
-341.44
-350.46
-335.85
-297.83
-235.7
-152.05
-54
49.33
148.42
231.61
287.94
310.61
299.83
261.13
203.12
136.1
58.32
-18.87
-80.22
-116.58
-129.32
-125.49
-112.86
-97.63
-83.39
-71.28
-59.8
-48.97
-40.24
-34.36
-30.01
-25.11
-18.5
-10.62
-3.03
3.63
7.07
3.39
-10.92
-37.43
-72.19
-108.33
-139.32
-162.25
-176.33
-182.3
-182.06
-177.12
-168.3
-156.34
-142.88
-130.18
-120.6
-114.23
-109.57
-105.66
-101.59
-96.86
-91.56
-86.69
-83.58
-83.59
-88.97
-95.35
-99.49
-99.22
-93.85
-84.12
-71.91
-59.65
-50.67
-46.75
-47.95
-53.56
-61.05
-66.04
-63.6
-50.28
-20.79
18.35
56.55
84.18
95.65
91.32
76
55.7
34.77
14.84
-5.24
-25.74
-45.54
-62.94
-76.43
-85.57
-91.34
-95.48
-99.3
-105.07
-111.51
-116.44
-118
-114.79
-107.25
-96.56
-84.43
-71.66
-59.17
-46.55
-32.89
-17.43
0.29
19.13
37.36
52.64
63.49
68.2
65.93
56.52
40.61
20.12
-4.12
-30.04
-61.46
-98.49
-140.43
-185.84
-232.95
-279.7
-321.72
-359.16
-390.2
-414.26
-430.45
-439.03
-440.57
-435.46
-423.31
-398.65
-364.6
-320.08
-265.95
-204.08
-138.29
-73.04
-12.11
42.71
98.69
150.62
201.27
250.85
298.29
340.25
372.72
393
401.26
410
415.9
427.69
449.93
485.57
532.43
583.46
628.37
600.98
564.9
510
447.48
388.11
346.77
333.62
350.62
390.44
438.99
489.08
518.28
525.31
507.28
472.56
431.56
392.55
358.74
328.04
302.48
270.58
237.67
200.59
164.94
135.44
113.47
96.79
81.08
67.12
13.14
-30.04
-64.05
-82.69
-82.43
-64.7
-36.49
-8.28
12.2
17.72
16.29
9.15
4.95
7.8
14.57
16.86
6
-20.78
-60.63
-100.2
-135.14
-159.78
-173.52
-178.89
-178.16
-171.35
-156.7
-133.09
-99.23
-62.99
-30.99
-9.48
-2.23
-9.5
-28.39
-54.1
-81.84
-106.03
-125.68
-140.36
-151.71
-162.51
-175.46
-192.17
-212.89
-237.36
-263.76
-291.55
-320.6
-351.68
-385.19
-420.44
-455.21
-486.65
-513.44
-533.68
-545.15
-545.57
-532.62
-505.09
-464.41
-415.07
-364.38
-321.93
-292.53
-275.03
-263.35
-249.18
-226.31
-194.53
-159.44
-118.45
-77.05
-41.23
-14.87
2.55
16.3
32.57
53.36
83.08
124.48
175.73
235.1
298.28
359.25
407.98
438.62
451.56
453.81
454.87
460.27
473.56
492.35
492.92
457.96
385.38
289.6
191.81
116.38
60.77
20.13
-8.75
-26.93
-32.68
-23.27
1.59
38.39
79.38
114.94
140.91
157.1
166.09
173.18
182.2
192.01
196.07
183.34
144.04
77.75
-7.39
-98.49
-181.81
-248.25
-295.14
-314.8
-302.95
-261.33
-197.19
-120.94
-42.68
30.37
93.34
143.12
182.49
212.61
233.89
247.38
254.81
257.61
256.56
250.68
239.64
224.07
203.74
178.6
149.46
117.91
85.77
54.73
24.61
-4.36
-30.85
-53.74
-72.15
-85.69
-94.5
-99.12
-100.46
-103.03
-110.44
-123.92
-142.48
-163.81
-185.75
-206.59
-225.38
-241.99
-262.7
-292.53
-332.42
-378.45
-423.65
-461.5
-488.12
-502.76
-507.46
-512.51
-525.45
-547.9
-575.71
-603.63
-629.68
-655.74
-684.36
-672.01
-592.47
-446.33
-262.65
-78.65
78.42
195.76
272.04
314.81
336.88
342.73
339.29
331.81
325.27
323.28
326.88
334.62
345.15
355.76
357.78
345.31
316.53
274.78
225.76
174.98
125.87
81.05
44
15.28
-3.95
-12.2
-6.64
15.23
57.17
113.63
172.8
220.34
243.74
238.85
210.61
171.08
133
104.36
85.77
73.59
63.04
51.06
38.98
27.95
18.78
10.38
-0.24
-16.67
-40.11
-69.09
-99.73
-127.44
-149.24
-164.41
-174.79
-183.85
-195.96
-212.12
-233.07
-258.73
-288.03
-318.66
-346.07
-364.12
-366.6
-349.82
-314.11
-264.51
-208.65
-154.07
-106.1
-66.59
-35.04
-10.15
8.84
22.15
29.85
32.98
33.6
33.84
35.23
37.88
40.77
42.25
41.09
37.01
30.87
24.33
19.1
16.31
16.06
17.68
20.14
22.58
24.84
27.59
31.99
39.4
50.56
64.92
80.8
95.6
106.41
110.71
106.83
94.07
72.89
44.58
10.99
-25.53
-62.3
-96.18
-123.62
-141.1
-145.61
-134.54
-107.13
-65.02
-12.27
45.29
101.29
150.1
187.63
211.9
225.39
231.63
233.41
231.69
225.84
214.75
197.73
174.88
147.3
121.74
104.13
97
98.38
103.54
107.88
108.73
105.74
100.77
104.75
127.92
176.03
248.5
339.57
441.08
543.63
637.05
711.61
769.94
817.29
858.72
897.24
934.74
973.87
1017.3
1065.3
1053.5
939.86
718.37
425.44
115.92
-167.07
-402.89
-589.08
-732.95
-844.55
-922.46
-963.8
-971.36
-952.11
-915.68
-869.76
-819.25
-766.79
-713.18
-650.26
-570.06
-468.27
-349
-221.95
-96.68
18.09
114.76
187.2
236.63
266.68
281.28
283.01
273.73
258.13
241.78
229.45
223.21
224.07
229.28
232.66
226.41
193.06
127.65
39.82
-50.17
-123.06
-168.99
-189.76
-193.45
-188.45
-179.49
-165.54
-144.37
-115.69
-82.57
-50.12
-23.8
-6.34
1.65
2.04
-0.45
-1.64
0.43
4.65
8.06
6.88
-1.63
-18.67
-43.79
-74.27
-106.46
-136.16
-159.28
-167.33
-155.04
-121.87
-73.5
-20.74
24.28
51.98
58.54
46.76
24.51
0.76
-17.1
-25.58
-25.83
-22.6
-22.21
-29.83
-47.66
-74.15
-106.08
-140.25
-175.1
-210.76
-247.91
-285.75
-321.06
-349.63
-368.19
-377.46
-381.55
-385.26
-390.68
-395.24
-392.38
-374.54
-337.63
-282.87
-217.45
-151.14
-91.75
-42.22
-0.71
37.21
75.53
115.03
154.02
186.35
203.06
197.99
171.9
131.57
85.31
42.66
4.55
-29.38
-58.89
-82.42
-97.09
-100.28
-90.79
-69.9
-41.04
-9.33
20.9
46.2
64.78
76.71
83.08
85.05
83.11
77.32
67.3
53.65
37.6
21.12
6.82
-2.65
-5.53
-1.47
8.63
22.71
38.83
55.24
71
86.28
102.1
119.72
139.96
162.82
187.25
211.85
235.05
255.73
273.56
288.94
303.04
317.58
334.55
355.29
379.28
403.07
420.19
422.69
403.79
360.79
296.27
217.25
132.53
49.78
-26.08
-92.77
-149.42
-196.02
-232.82
-260.95
-282.83
-301.58
-319.83
-338.53
-356.7
-372.19
-382.93
-386.96
-382.18
-366.25
-337.1
-294.33
-240.27
-179.94
-119.81
-65.83
-20.98
15.33
45.88
73.46
99.31
123.14
144.89
165.35
185.53
207.42
233.42
264.42
299.19
334.31
364.52
384.78
390.11
374.69
336.36
278.46
207.69
132.26
59.28
-6.92
-63.5
-110.32
-152.22
-192.19
-228.42
-256.55
-270.7
-265.48
-238.02
-187.09
-115.93
-35.9
42.28
113.48
176.32
232.87
286.51
322.78
328.16
320.29
304.61
270.75
217.5
150.55
80.61
19.14
-25.99
-50.05
-53.39
-43.99
-28.31
-7.76
17.56
47.53
81.13
117.08
156.71
201.76
249.06
293.37
328.61
346.73
340.68
307.33
248.7
172.58
88.65
3.62
-77.31
-149.75
-211.07
-259.92
-295.97
-320.08
-333.93
-340.52
-344.74
-350.95
-361.36
-375.99
-392.3
-405.83
-411.67
-405.96
-387.63
-359.09
-324.85
-289.59
-256.88
-228.59
-205.19
-186.33
-171.03
-157.25
-141.56
-119.84
-88.85
-48.01
-0.41
48.15
91.35
124.74
146.97
159.6
165.59
167.62
167.01
163.62
156.39
144.18
126.39
103.47
76.64
47.34
16.72
-14.55
-45.97
-76.8
-105.9
-132.26
-155.69
-176.86
-196.28
-212.65
-222.27
-220.4
-203.97
-174.44
-138.73
-107.14
-89.03
-88.7
-103.41
-124.71
-142.26
-147.79
-137.42
-111.73
-74.09
-28.45
21.97
74.78
127.85
179.11
226.72
269.53
307.15
339.33
365.33
383.41
391.2
386.96
370.61
343.51
307.34
263.23
212.22
156.86
102.23
55.39
22.23
3.52
-6.57
-18.62
-43.19
-85.99
-145.2
-212.7
-277.86
-331.68
-369.37
-390.71
-398.7
-397.67
-391.4
-381.63
-367.02
-343.22
-304.52
-246.52
-168.43
-73.63
31.14
137.76
238.29
325.7
394.25
439.79
460.63
458.42
438.17
407.81
376.51
352.64
342.44
349.04
371.89
406.12
442.84
470.59
478.42
459.44
413.37
346.57
269.43
192.48
122.97
63.36
12.33
-32.84
-73.95
-110.66
-141.09
-163.35
-177.03
-183.48
-185.25
-184.74
-183.28
-181.08
-178.01
-174.39
-171.3
-170.06
-171.4
-175.25
-181.07
-188.72
-199.15
-214.34
-236.47
-266.54
-303.09
-341.86
-376.55
-400.4
-408.43
-399.25
-375.72
-344.02
-311.1
-281.9
-257.75
-236.61
-215.16
-191.18
-164.66
-137.01
-109.5
-81.81
-52.42
-20.19
14.01
46.94
74.35
92.97
102.15
103.6
100.03
93.31
83.81
70.64
52.7
29.27
0.22
-33.85
-71.32
-108.43
-138.93
-155.23
-150.71
-122.48
-72.97
-9.62
56.98
116.39
161.37
189.48
203.19
208.86
214.54
227.68
252.58
288.4
328.76
363.39
381.36
374.69
341.1
284.71
214.65
142.09
77.07
26.18
-8.12
-26.78
-32.52
-28.34
-17.46
-3.41
9.86
18.59
20.47
15.53
6.13
-4
-11.69
-15.79
-17.24
-17.9
-19.07
-20.72
-22.11
-22.82
-23.46
-25.49
-30.21
-37.76
-46.95
-56
-63.77
-70.1
-75.5
-80.21
-83.72
-85.09
-83.57
-79.47
-74.09
-69.15
-65.89
-64.56
-64.56
-64.99
-65.11
-64.49
-62.98
-60.8
-58.79
-57.96
-58.78
-60.56
-61.15
-57.68
-47.81
-31.36
-10.42
11.24
30.64
47.57
64.9
86.99
117.28
157.05
204.5
256.38
307.65
352.82
385.98
401.23
393.64
361.01
306.3
236.31
161.22
89.37
25.97
-27.8
-73.2
-112.24
-146.5
-175.68
-201.1
-224.34
-250.24
-284.22
-330.44
-389.89
-460.26
-537.08
-613.7
-686.07
-731.91
-732.19
-678.36
-578.89
-454.87
-328.7
-226.64
-148.81
-91.66
-51.21
-25.88
-13.23
-8.66
-6.49
-1.16
10.38
29.6
53.65
80.41
108.15
136.99
167.58
199.99
232.89
263.63
290.92
313.06
330.19
342.47
349.8
351.58
347.31
336.44
317.68
288.91
245.64
184.84
107.55
21.44
-60.08
-122
-153.84
-154.03
-129.51
-92.31
-52.25
-13.16
27.11
72.78
125.54
182.13
235.68
279.67
311.14
332.11
348.2
365.22
386.63
412.16
437.79
457.33
464.13
452.89
421.43
371.52
308.69
240.71
175.24
117.67
70.25
32.62
3.25
-19.12
-35.09
-45.26
-51.17
-55.97
-63.97
-79.29
-104.45
-139.65
-182.54
-229.16
-275.12
-316.78
-351.72
-378.5
-395.99
-403.16
-399.43
-385.48
-363.9
-338.53
-312.94
-288.84
-265.4
-240.21
-211.25
-178.87
-146.04
-116.99
-94.98
-80.57
-71.63
-64.66
-56.74
-46.54
-34.16
-20.2
-4.88
11.97
30.16
48.31
63.75
73.46
75.58
70.6
61.35
51.73
44.93
42.17
42.64
44.6
46.69
48.53
50.51
53
55.75
58.09
59.48
59.9
59.65
58.99
57.69
55.4
52.01
47.88
43.65
39.71
35.7
30.87
24.73
17.65
10.7
5.09
1.27
-1.17
-3
-4.63
-5.81
-6.06
-5.33
-4.37
-4.21
-5.4
-7.37
-8.78
-8.45
-6.27
-3.49
-1.95
-3.01
-6.68
-11.73
-16.49
-19.71
-21.15
-21.17
-20.28
-18.57
-15.69
-11.28
-5.37
1.34
7.75
12.64
15.2
15.33
13.61
11.07
8.77
7.32
6.56
5.74
3.87
0.46
-4.17
-8.84
-12.03
-12.59
-10.13
-5.24
0.98
7.38
13.14
17.87
21.39
23.5
23.91
22.38
18.74
13.14
5.96
-2.17
-10.42
-17.86
-23.79
-27.95
-30.59
-32.25
-33.47
-34.57
-35.49
-35.76
-34.69
-31.66
-26.42
-19.33
-11.36
-3.73
2.66
7.81
12.9
19.68
29.48
42.14
55.85
67.62
74.62
75.35
70.02
60.31
48.29
35.9
24.55
14.85
6.46
-1.85
-11.63
-23.98
-38.64
-53.53
-64.84
-67.76
-57.77
-32.32
7.44
55.83
102.91
136.39
144.9
121.76
67.83
-7.9
-90.53
-163.37
-212.28
-229
-212.5
-168.58
-108.33
-45.77
4.98
32.76
31.45
0.9
-53.73
-123.39
-196.77
-262
-308.26
-327.97
-318.43
-282.79
-229.21
-168.41
-109.88
-59.02
-16.31
21.42
58.05
95.81
133.92
169.04
196.75
213.09
216
205.98
186.36
162.43
139.72
122.18
111.3
106.57
106.69
110.62
117.42
125.09
129.45
124.69
105.16
67.85
14.17
-49.98
-115.57
-172.7
-212.58
-228.97
-219.01
-183.9
-129.15
-63.71
1.98
58.86
101.47
128.68
142.88
148.34
149.68
151.44
157.74
171.4
192.94
219.38
244.16
258.67
255.06
229.67
185.59
132.8
85.57
58.23
60.4
94.33
154.48
229.59
305.8
369.85
411.4
424.41
407.86
365.41
304.49
234.42
164.18
100.3
45.85
0.98
-35.43
-64.36
-86.18
-100.98
-109.56
-114.19
-118.39
-126.13
-140.71
-163.68
-194.2
-228.79
-261.32
-283.87
-288.65
-270.34
-228.72
-169.76
-104.66
-46.71
-7.46
6.72
-4.25
-35.3
-78.91
-128.03
-177.68
-225
-268.11
-304.78
-331.81
-345.33
-341.97
-320.44
-282.5
-232.68
-176.98
-120.72
-66.62
-14.34
38.17
91.99
144.55
188.78
215.26
216.62
191.76
147.6
96.36
50.27
16.24
-6.28
-23.62
-43.06
-68.2
-97
-123.3
-140.66
-145.93
-140.84
-130.74
-121.72
-118.08
-120.85
-128.13
-136.21
-141.1
-139.64
-130.14
-111.93
-84.72
-48.72
-5.34
41.54
85.11
116.42
127.04
112.1
72.39
14.9
-49.34
-108.45
-153.03
-177.86
-181.97
-167.14
-136.22
-92.41
-39.6
16.94
70.54
114.17
142.73
155.36
156.31
154.12
158.56
177.15
212.21
259.65
310.19
352.8
378.95
385.85
377.19
360.42
342.54
326.05
307.85
281.62
242.24
189.65
129.54
71.05
22.34
-12.68
-34.96
-48.36
-56.85
-62.72
-66.81
-69.88
-73.82
-81.81
-97.05
-120.53
-149.39
-176.75
-193.4
-190.91
-164.95
-117.07
-54.23
13.69
77.59
132.13
176.94
215.42
251.85
288.16
322.12
347.93
358.89
350.93
324.64
285.54
241.72
200.45
165.5
136.83
112.17
89.53
68.81
51.59
39.91
34.7
35.05
38.64
43.03
46.76
49.71
52.61
55.6
57.77
57.03
50.61
36.01
12.12
-20.28
-58.51
-99.04
-139.56
-178.7
-216.13
-252.26
-287.77
-323.06
-357.92
-391.5
-422.61
-452.45
-482.31
-513.02
-544.78
-577.72
-612.47
-649.95
-690.3
-731.63
-772.78
-809.25
-833.93
-839.26
-820.49
-777.65
-715.36
-640.56
-560.24
-484.29
-419.35
-367.96
-328.93
-299.1
-275.11
-253.93
-232.8
-182.91
-91.87
34.78
175.23
303.56
402.13
465
494.85
499.1
486.55
460.96
425.39
383.57
339.94
299
264.28
237.89
221.09
214.62
215.81
223.14
236.96
257.33
282.49
307.31
323.88
324.46
304.82
264.4
209.02
148.93
95.12
55.59
33.26
26.22
29.98
39.49
49.43
55.79
56.07
49.23
35.78
17.53
-2.8
-22.08
-37.41
-47.35
-51.63
-50.77
-45.46
-35.81
-21.16
-0.66
25.77
56.53
88.19
116.52
138.21
152.24
160.14
164.93
169.26
174.18
178.75
180.67
177.34
166.38
146.17
116.29
78.09
35.09
-7.43
-44.04
-70.95
-87.02
-93.34
-91.42
-81.56
-62.44
-32.06
10.6
64.44
126.08
190.68
252.62
305.87
344.23
362.12
356.1
326.53
278.19
219.42
160.16
109.7
74.96
59.45
62.69
79.94
102.46
118.8
117.89
92.91
44.42
-18.74
-82.13
-130.72
-154.4
-151.51
-129.06
-99.78
-77.8
-74.29
-94.43
-135.94
-189.77
-242.16
-278.81
-289.72
-273.11
-236.25
-192.53
-155.58
-133.42
-125.83
-126.01
-125.63
-119.72
-108.94
-98.17
-92.89
-96.03
-106.88
-122.44
-139.51
-155.99
-170.69
-182.17
-188.11
-185.99
-174.68
-155.29
-131.14
-106.14
-82.73
-60.79
-37.93
-11.46
19.41
52.24
82.04
103.43
113.59
113.96
110.03
109.47
119.18
143.02
180.76
228.54
280.41
330.44
374.31
409.83
436.72
455.6
467.2
471.93
469.84
460.58
443.85
419.55
388.11
350.64
309.13
266.41
225.63
189.15
157.25
127.94
98.14
65.66
30.94
-2.72
-30.78
-50.25
-61.77
-69.79
-80.38
-98.11
-123.9
-154.69
-185.39
-211.33
-230.11
-241.74
-247.78
-250
-249.69
-248.24
-247.81
-252.07
-265.51
-291.59
-330.05
-375.45
-417.78
-445.34
-449.19
-426.33
-380.69
-320.81
-256.07
-193.11
-134.45
-79.62
-27.44
21.92
66.77
104.68
134.16
155.57
170.91
182.96
194.71
209.04
228.22
253.47
284.06
316.73
346.14
366.23
372.09
361.34
334.47
294.09
243.86
187.58
128.82
71.05
17.6
-28.75
-66.67
-96.77
-121.47
-144.11
-167.33
-191.92
-216.5
-238.16
-253.6
-260.94
-260.54
-254.77
-246.86
-239.28
-232.65
-225.61
-215.72
-200.73
-179.81
-153.82
-124.91
-95.53
-67.68
-42.41
-20.1
-0.76
15.5
28.33
37.39
42.68
44.71
44.43
42.82
40.45
37.5
33.86
29.55
24.96
20.82
17.7
15.66
14.09
11.9
8.16
2.57
-4.35
-11.59
-18.08
-23.4
-27.88
-32.28
-37.4
-43.55
-50.54
-57.94
-65.52
-73.34
-81.71
-90.82
-100.31
-109.35
-116.79
-121.64
-123.26
-121.5
-116.42
-108.22
-96.83
-81.7
-62.09
-37.36
-7.69
25.64
60.37
94.17
125.53
154.17
180.22
202.61
217.82
220.11
203.59
164.99
105.88
32.56
-45.99
-120.98
-185.98
-237.2
-272.89
-292.46
-296.07
-284.84
-261.03
-227.52
-187.06
-141.63
-92.66
-42.2
6.27
48.3
79.68
98.26
105.05
104.13
101.27
102.8
114.09
138.8
177.67
227.42
280.08
324.03
347.21
341.57
307.18
252.95
193.76
144.57
114.41
103.53
104.71
107.76
104.6
92.33
72.79
50.09
27.64
6.81
-12.37
-29.92
-45.11
-56.53
-62.98
-64.21
-60.82
-53.67
-43.38
-30.13
-14.24
3.25
20.3
34.52
44.06
48.52
49.08
47.85
46.96
47.75
50.63
55.59
62.66
72.21
84.62
99.93
117.39
135.52
152.49
166.76
177.43
184.18
187.04
185.92
180.36
169.49
152.21
127.36
94.16
52.76
4.63
-47.11
-98.44
-145.5
-185.87
-218.78
-244.34
-261.99
-269.56
-263.73
-241.96
-204.44
-154.98
-100
-46.26
1.15
39.78
69.13
89.58
101.71
106.46
105.6
101.99
98.62
97.55
99.01
101.59
103.2
102.29
98.48
92.2
84.31
75.22
65.12
54.22
42.89
31.56
20.21
7.99
-6.58
-24.67
-46.05
-68.52
-88.56
-103.07
-111.09
-114.66
-118.01
-125.38
-138.81
-157.11
-176.64
-193.36
-205.01
-211.96
-216.57
-221.38
-227.59
-234.42
-239.82
-241.78
-239.56
-234.19
-227.88
-223.01
-220.97
-221.62
-223.45
-224.45
-222.88
-217.77
-208.85
-195.9
-178.19
-154.41
-123.18
-83.93
-37.69
12.82
63.85
111.62
153.29
187.46
213.92
233.49
247.66
258.34
267.77
278.76
294.43
317.6
349.23
386.9
424.17
451.62
459.87
443.05
401.58
342.15
275.2
210.75
154.95
108.84
69.79
34.22
-0.17
-33.66
-65.41
-94.66
-121.71
-147.77
-174.3
-202.36
-232.48
-264.92
-299.7
-336.11
-371.31
-400.02
-415.56
-412.24
-387.88
-345.21
-291.33
-234.76
-182.56
-137.87
-100.13
-67.22
-37.69
-11.26
12.28
33.93
56.16
80.84
107.53
131.99
146.94
144.87
122.05
80.92
28.65
-25.09
-71.89
-105.57
-122.09
-118.96
-95.16
-51.41
8.9
78.52
147.81
202.59
230.72
229.06
204.51
168.39
129.86
96.28
66.86
41.08
20.58
8.97
9.9
24.78
51.17
84.5
119.11
148.62
168.03
174.39
168.72
156.19
143.77
136.67
135.64
136.04
129.63
109.61
74.29
29.18
-14.78
-46.33
-59.38
-55.59
-43.1
-32.76
-33.01
-47.12
-72.42
-101.91
-127.97
-145.46
-152.76
-150.74
-140.24
-120.43
-89.8
-48.49
-0.27
47.7
87.5
114.05
126.98
129.75
126.41
118.19
102.94
77.58
41.44
-2.03
-46.5
-86.2
-118.23
-142.59
-160.12
-170.32
-170.76
-158.98
-135
-102.65
-69.17
-42.45
-27.67
-24.64
-27.59
-27.73
-17.52
5.94
40.08
79.07
117.93
155.49
194.03
236.13
281.06
323.46
355.71
372.03
371.52
358.61
340.28
322.17
305.85
288.84
266.55
234.94
192.3
140.13
83.2
28.29
-17.97
-51.52
-72.19
-83.51
-90.57
-97.38
-105.22
-112.98
-118.97
-122.8
-126.4
-133.58
-148.27
-173.15
-208.98
-254.92
-309.3
-369.56
-431.23
-487.08
-528.01
-546.29
-539.62
-513.33
-479.11
-449.68
-432.57
-426.61
-423.39
-412.78
-389
-353.6
-313.54
-276.53
-246.64
-222.67
-200.06
-174.4
-143.81
-108.88
-71.04
-30.4
14.12
63.04
114.71
164.98
208.84
243.36
269.44
291.28
313.88
339.81
367.44
391.62
406.3
407.46
394.44
369.47
336.03
297.49
256.54
215.44
176.26
140.6
109.16
81.93
58.6
39.2
24.57
16.28
16.24
26.01
46.07
75.22
110.45
147.12
179.9
204.15
217.38
219.78
213.49
201.34
186.01
170.21
157.75
153.69
162.99
187.85
225.2
266.3
299.45
314.49
306.78
278.67
237.32
190.85
144.98
101.82
60.97
21.72
-15.5
-49.28
-78.27
-102.53
-124.01
-146.09
-172.32
-205.13
-244.69
-288.28
-330.64
-364.87
-384.48
-385.75
-369.47
-341.17
-309.5
-283.05
-267.36
-263.6
-269.3
-280.62
-294.4
-308.83
-322.56
-333.5
-338.31
-333.59
-317.91
-293.26
-264.91
-239.51
-222.31
-215.2
-216.23
-220.57
-222.24
-215.96
-198.21
-167.88
-126.43
-77.54
-26.13
22.61
64.79
98.72
125.23
147.16
168.42
192.54
221.35
254.28
288.42
319.7
344.38
360.43
368.33
371.18
373.79
381.28
396.97
420.46
446.91
467.83
473.79
457.93
418.66
360.31
291.33
220.79
155.33
97.72
47.48
2.54
-38.78
-77.51
-114.13
-148.82
-181.32
-210.59
-234.46
-250.18
-255.44
-249.17
-232.23
-207.18
-177.77
-148.22
-122.61
-104.18
-94.61
-93.45
-98.06
-104.57
-109.37
-110.69
-109.27
-107.72
-108.71
-113.12
-119.12
-122.93
-120.81
-111.07
-94.98
-76.31
-59.6
-48.4
-44.06
-45.54
-49.84
-52.84
-50.11
-37.73
-13.21
23.61
70.4
122.73
175.39
224.23
267.36
305.41
340.27
372.97
401.8
421.98
427.29
412.87
378.06
327.21
268.24
209.67
157.51
113.72
76.83
43.96
12.57
-18.8
-50.87
-84.31
-119.55
-156.06
-191.48
-221.88
-243.2
-253.1
-252.08
-243.37
-231.49
-220.41
-212.66
-209.01
-209.09
-211.84
-215.75
-218.89
-219.22
-215.13
-206.31
-194.33
-182.21
-173.25
-169.62
-170.88
-173.85
-173.83
-166.57
-150.25
-126.36
-98.98
-72.78
-51.13
-35.15
-24.23
-17.5
-14.8
-16.88
-24.51
-37.4
-54.03
-72.28
-90.33
-107.1
-121.85
-133.57
-140.76
-141.88
-136.09
-123.68
-105.5
-82.16
-53.6
-19.29
20.74
64.92
110.11
152.46
188.67
217.06
237.96
253.19
265.34
277.22
291.7
311.49
338.43
372.09
408.7
440.95
459.74
457.1
429.32
378.56
312.17
239.74
169.7
106.95
52.26
3.77
-41.04
-83.76
-124.4
-161.67
-193.66
-218.43
-234.51
-241.4
-239.86
-231.95
-220.34
-207.67
-195.78
-184.99
-174.15
-161.28
-144.53
-123.06
-97.41
-68.76
-38.18
-5.99
28.5
66.26
107.78
152.74
200.24
248.91
296.79
340.5
374.64
392.66
388.89
361.18
312.52
250.55
184.8
123.52
71.03
27.27
-10.62
-46.34
-82.66
-120.72
-159.86
-197.76
-230.26
-252.88
-262.73
-259.42
-245.41
-224.44
-199.62
-172.22
-142.19
-109.28
-75.64
-46.46
-27.1
-20.04
-22.8
-28.87
-31.28
-26.46
-14.89
-1.52
6.34
2.62
-16.2
-51.01
-100.85
-163.66
-236.66
-314.74
-382.08
-420.8
-417.08
-369.84
-291.17
-198.68
-107.14
-30.51
32.08
82.01
117.11
134.33
131.21
108.19
68.86
21.38
-24.09
-58.08
-76.75
-82.57
-79.6
-71.3
-59.37
-44.45
-27.75
-12.45
-1.73
2.53
2.85
9.21
34.58
88.03
169.88
271.84
380.83
484.86
575.93
634.88
647.63
610.65
532.1
426.81
309.84
192.94
84.8
-8.45
-80.28
-129.86
-157.18
-165.02
-160.27
-152.56
-151.24
-161.77
-183.53
-209.25
-225.92
-219.64
-182.59
-116.72
-32.41
56.38
137.54
203.98
253.42
286.65
304.32
304.32
282.87
237.83
171.69
91.83
8.15
-70.63
-138.84
-194.02
-235.77
-263.73
-276.85
-274.49
-258.64
-234.76
-210.27
-191.15
-178.75
-169.45
-156.54
-133.87
-98.52
-51.6
3.03
60.74
117.13
168.46
211.25
242.3
259.37
262
251.6
230.52
200.92
163.82
119.65
69.45
15.78
-37.33
-85.36
-124.79
-154.38
-175.06
-188.99
-197.83
-201.36
-197.35
-182.52
-154.15
-111.6
-57.08
4.69
67.04
122.46
163.58
184.37
181.39
154.66
107.69
46.47
-22.3
-92.75
-160.29
-220.91
-270.22
-302.87
-313.58
-299.48
-262.09
-207.72
-145.86
-86.46
-37.36
-2.53
17.89
26.39
26.12
19.7
9.31
-2.53
-12.03
-14.42
-5.37
17.15
51.63
93.68
138.07
180.9
220.42
255.8
284.91
303
303.43
280.59
233.27
166.27
89.22
13.26
-52.04
-100.5
-129.31
-138.24
-128.83
-104.34
-69.97
-32.53
0.9
24.93
37.29
39.03
33.34
23.68
12.3
0.06
-13.01
-26.54
-39.47
-50.42
-58.72
-64.89
-70.48
-77.06
-85.27
-94.52
-103.38
-110.42
-114.92
-116.93
-116.99
-115.58
-112.93
-109.05
-104.01
-97.89
-90.71
-82.22
-71.72
-58.3
-41.36
-21.08
1.32
23.88
44.74
62.97
79.04
94.96
113.78
138.5
170.83
210.23
253.46
295.12
328.95
349.28
352.27
336.58
303.15
254.66
194.9
128.29
59.57
-6.35
-64.87
-112.18
-145.92
-165.6
-172.46
-169.19
-159.62
-148.29
-139.84
-138.04
-144.1
-155.68
-166.79
-169.82
-158.9
-133.59
-100.5
-71.64
-60.1
-74.61
-116.28
-178.32
-248.65
-313.68
-361.37
-382.7
-372.09
-327.86
-253.16
-156.67
-51.94
45.53
122.93
174.27
201.72
213.15
217.13
218.55
217.17
209.84
194.55
173.33
152.22
138.54
137.15
148.1
167.18
188.15
205.19
214.17
212.34
198.02
170.87
132.55
87.49
42.22
3.85
-21.86
-31.53
-24.38
-1.97
31.78
70.63
106.29
129.75
133.51
113.65
70.97
10.3
-61.29
-136.26
-207.67
-269.33
-315.79
-342.98
-349.12
-335.74
-307.51
-270.6
-230.43
-189.91
-149.17
-106.63
-60.84
-11.68
39.24
88.78
132.76
166.22
184.25
183.43
163.65
129.35
89.28
54.22
33.62
32.71
51.57
86.29
131.31
180.88
229.41
270.81
298.03
303.91
283.32
235.88
167.49
89.65
16.45
-39.52
-71.12
-78.8
-69.86
-55.4
-46.01
-48.08
-62.31
-85
-110.92
-136.14
-159.04
-178.83
-193.27
-197.61
-185.74
-153.42
-101.31
-35.85
32.8
94.9
145.25
183.79
213.42
236.16
250.62
252.42
237.35
204.74
158.85
107.27
57.34
13.11
-25.44
-60.72
-94.66
-126.78
-154.64
-175.51
-188.14
-192.93
-190.48
-179.83
-157.92
-120.7
-65.14
8.07
93.39
180.76
257.43
310.98
332.8
321.09
282.45
230.39
180.82
146.08
130.11
127.39
126.52
116.35
91.48
54.09
11.45
-28.88
-63.1
-92.17
-119.96
-150.22
-184.41
-221.18
-257.15
-288.16
-310.01
-319.18
-313.83
-294.56
-264.47
-228.35
-191.04
-155.96
-124.65
-97.53
-75.15
-58.82
-50.1
-49.51
-55.5
-64.72
-73.38
-78.93
-80.97
-80.9
-80.88
-82.75
-87.44
-95.1
-105.38
-117.46
-129.95
-140.93
-148.6
-152.14
-152.33
-151.43
-152.05
-155.81
-162.21
-168.29
-169.41
-160.75
-138.84
-102.74
-54.36
2.15
61.48
118.66
170.35
215.4
254.64
290.21
324.51
359.06
393.43
424.46
446.37
452.24
436.59
398.31
342.49
279.76
223.08
183.24
165.04
165.85
177.3
188.82
191.53
180.5
155
117.08
69.88
16.47
-40.24
-96.91
-149.31
-192.59
-222.6
-237.61
-239.21
-231.72
-220.27
-208.62
-197.8
-186.45
-172.36
-154.26
-133.09
-111.79
-94.15
-83.42
-81.12
-86.77
-98.31
-112.98
-128.01
-141.38
-152.09
-160.26
-166.93
-173.69
-181.96
-192.35
-204.39
-216.55
-227
-234.53
-239.09
-241.79
-243.87
-245.31
-244.02
-236.13
-217.77
-187.14
-145.65
-97.42
-47.53
0.16
44.25
85.34
124.49
161.43
194.06
219.45
235.68
243.1
244.42
243.92
246.04
254.33
270.8
295.08
323.98
351.25
368.09
365.3
336.65
281.63
206.31
121.79
40.22
-28.57
-78.84
-109.16
-121.28
-118.66
-105.76
-87.86
-70.25
-57.65
-52.03
-51.61
-52.4
-51.15
-47.63
-45.34
-50.02
-66.47
-95.55
-132.52
-166.49
-185.55
-184.18
-166.27
-141.72
-122.28
-108.62
-95.41
-75.5
-44.19
-2.8
41.5
78.17
98.06
98.1
83.52
64.78
53.26
56.5
74.82
102.24
130.15
151.46
162.95
165.31
160.65
151.14
138.54
124.39
110.16
97.65
88.93
85.65
88.58
96.76
107.68
117.72
122.67
118.59
102.89
75.48
39.13
-0.85
-37.91
-65.63
-79.56
-78.58
-65.82
-47.98
-33.1
-27.65
-34.44
-51.75
-74.31
-95.65
-110.66
-117.45
-117.17
-112.38
-105.04
-95.4
-82.43
-65.29
-44.43
-21.95
-0.77
16.79
29.8
38.67
44.48
48.08
49.77
49.43
46.88
42.2
35.82
28.37
20.44
12.57
5.21
-1.2
-6.41
-10.44
-13.55
-15.9
-17.41
-17.89
-17.28
-16.08
-15.41
-16.8
-21.26
-28.62
-37.27
-44.71
-48.46
-46.8
-39.02
-25.17
-5.87
17.84
44.12
70.06
91.94
106.24
110.84
105.82
93.17
75.88
56.83
38.16
21.1
6.26
-6.49
-18.51
-32.52
-51.68
-78.01
-110.65
-145.13
-174.41
-191.49
-192.21
-176.56
-148.09
-111.66
-71.2
-28.35
17.18
66.2
118.12
170.13
217.19
253.35
273.33
274.02
255.21
219.13
169.67
111.63
50.85
-5.42
-48.61
-70.37
-65.02
-31.75
24.83
96.18
172.73
246.42
311.25
362.48
395.53
406.02
391.37
352.94
296.63
231.55
166.94
109.19
60.65
20.46
-13.5
-42.91
-68.53
-90.77
-110.61
-130.22
-152.49
-179.84
-212.85
-249.24
-283.75
-309.63
-320.94
-314.91
-293.4
-262.54
-230.38
-203.91
-186.71
-178.28
-175.45
-174.62
-173.65
-172.39
-171.85
-172.66
-174.16
-174.78
-172.89
-168.05
-161.39
-155.37
-152.62
-154.88
-162.31
-173.39
-185.62
-196.24
-202.93
-204.04
-198.48
-185.38
-164.16
-134.62
-97.3
-53.7
-6.08
43.15
92.22
140.45
187.63
232.75
272.83
302.76
316.79
311.1
286.05
246.88
202.29
161.22
129.78
109.5
97.83
90.3
83.04
74.38
64.75
55.68
48.4
43.14
39.24
35.72
31.72
26.93
21.31
14.85
7.53
-0.76
-10.03
-20.07
-30.38
-40.17
-48.42
-54.07
-56.3
-54.79
-49.94
-42.9
-35.18
-28.19
-22.85
-19.26
-16.91
-15.15
-13.64
-12.43
-11.96
-12.67
-14.69
-17.83
-21.78
-26.34
-31.55
-37.48
-43.93
-50.16
-54.71
-55.8
-51.87
-42.28
-27.64
-9.65
9.34
27.11
41.94
52.63
58.08
56.92
47.56
28.52
-0.38
-37.17
-77.44
-115.28
-144.65
-160.92
-161.75
-147.02
-118.31
-78.53
-31.58
17.89
65.29
107.36
143.39
175.26
206.16
238.17
270.23
297.75
314.06
313.27
292.9
255.06
205.43
151.25
98.93
52.65
13.93
-17.81
-44.24
-67.36
-88.79
-109.63
-130.43
-151.37
-172.49
-193.46
-213.53
-231.37
-245.31
-253.66
-255.08
-248.97
-235.51
-215.41
-189.26
-157.14
-118.79
-74.32
-25.22
24.75
69.56
102.16
116.8
111.48
89.19
57.52
26.49
5.56
0.93
14.11
41.91
77.63
112.93
139.55
151.18
144.79
121.51
86.4
47.23
12.46
-11.22
-20.34
-14.95
2.25
27.11
55.42
83.14
106.88
124.14
133.76
136.44
134.81
132.68
133.32
138.69
147.97
158.09
164.84
163.99
152.44
128.53
92.61
47.22
-1.27
-44.22
-72.55
-80.3
-67.87
-42.92
-18.11
-5.92
-14.05
-41.38
-80.86
-123.57
-163.63
-200.62
-238.14
-279.62
-320.68
-357.5
-378.24
-372.24
-334.56
-268.78
-186.67
-104.33
-36.91
6.42
24.67
25.53
20.36
19.97
31.09
55.03
88.87
128.07
168.79
208.51
246.93
283.9
318.68
349.65
374.14
388.73
389.71
373.83
339.41
288.09
224.26
154.28
84.46
19.39
-38.66
-88.78
-129.96
-160.33
-177.33
-179.43
-167.11
-142.85
-109.68
-69.86
-24.45
25.46
77.15
125.35
162.74
182.16
179.08
153.17
108.1
49.87
-15.06
-81.01
-143.46
-198.61
-242.98
-273.59
-288.39
-287.07
-271.52
-245.66
-214.48
-182.93
-154.77
-131.95
-114.8
-102.6
-94.28
-88.89
-85.61
-83.57
-81.79
-79.31
-75.61
-70.83
-65.85
-61.81
-59.51
-58.99
-59.62
-60.57
-61.25
-61.75
-62.68
-64.82
-68.79
-74.75
-82.42
-91.31
-100.89
-110.72
-120.57
-130.32
-140
-149.71
-159.51
-169.37
-179.02
-187.92
-195
-198.76
-197.28
-188.68
-171.76
-146.47
-114.07
-76.61
-36.34
4.81
45.28
83.63
118.23
147.21
168.89
182.51
188.81
190.02
189.36
190.3
195.79
207.65
225.8
247.95
269.75
286.08
292.61
287.51
272.01
250.02
226.91
207.93
197.25
197.48
209.78
233.93
268.41
310.05
354.13
394.87
426.25
443.14
442.07
421.64
382.75
328.42
263.32
193.1
123.54
59.68
5.25
-37.68
-68.5
-87.74
-96.59
-96.72
-90.25
-79.83
-68.57
-59.33
-53.97
-52.78
-54.46
-57.01
-58.98
-60.48
-63.25
-69.78
-81.7
-98.66
-118
-135.63
-147.54
-151.27
-146.56
-135.24
-120.05
-103.39
-86.95
-71.98
-60.12
-53.72
-54.91
-63.81
-77.38
-89.97
-95.95
-92.78
-82.47
-70.5
-62.73
-62.33
-69.08
-81.14
-97.64
-119.83
-149.79
-187.31
-227.79
-262.68
-282.9
-282.88
-262.93
-228.53
-187.15
-144.89
-104.18
-64.22
-22.95
20.23
62.75
99.06
122.81
129.68
119.34
95.63
64.58
31.64
-0.37
-31.36
-62.28
-93.15
-122.3
-147.1
-165.75
-178.45
-186.94
-192.75
-195.64
-193.22
-182.27
-160.66
-128.67
-88.87
-45.07
-1.09
40.11
76.47
106.59
130.01
147.71
162.38
177.54
195.62
215.88
233.53
240.86
230.2
197.17
142.52
72.1
-4.99
-78.95
-141.26
-185.98
-210.14
-213.69
-199.22
-171.45
-136.3
-99.91
-67.71
-43.69
-30.01
-26.57
-30.67
-37.2
-39.84
-33.06
-14.22
15.39
51.3
87.9
120.64
147.26
167.69
183.05
194.64
203.65
211.24
218.66
227.11
237.03
247.42
255.61
257.93
251.03
233.21
205.17
169.9
131.62
94.51
61.64
34.37
12.67
-4.32
-17.46
-27.34
-34.38
-39.08
-42.14
-44.34
-46.27
-48.05
-49.35
-49.78
-49.28
-48.53
-48.86
-51.51
-56.53
-61.89
-63.31
-55.32
-33.4
3.99
54.16
110.81
165.93
212.18
244.61
261.08
261.6
247.24
219.62
180.97
134.55
84.85
36.94
-4.62
-36.97
-59.41
-73.24
-80.83
-84.76
-86.98
-88.44
-89.22
-88.82
-86.61
-82.36
-76.45
-69.78
-63.65
-59.23
-57.27
-57.98
-61.15
-66.39
-73.3
-81.46
-90.31
-99.17
-107.3
-114.06
-119.07
-122.22
-123.56
-123.28
-121.53
-118.56
-114.69
-110.37
-106.06
-102.14
-98.88
-96.37
-94.75
-94.17
-94.82
-96.67
-99.4
-102.36
-104.75
-105.75
-104.88
-102.03
-97.5
-91.94
-86.14
-80.76
-76.13
-72.23
-68.67
-64.73
-59.37
-51.16
-38.19
-18.33
10.1
47.32
91.32
138.07
182.51
220.03
247.49
263.49
267.75
260.45
242
213.46
177.23
137.17
97.95
63.79
37.23
18.83
7.47
1.33
-1.35
-1.86
-1.28
-0.52
-0.31
-1.15
-3.24
-6.52
-10.81
-15.93
-21.6
-27.48
-33.06
-37.81
-41.44
-44.06
-46.27
-48.82
-52.26
-56.71
-61.74
-66.59
-70.55
-73.29
-74.93
-75.92
-76.61
-77.02
-76.79
-75.42
-72.61
-68.4
-63.3
-57.94
-52.82
-48.11
-43.72
-39.57
-35.6
-32.02
-29.05
-26.87
-25.4
-24.36
-23.29
-21.76
-19.56
-16.8
-14.02
-12.01
-11.53
-12.96
-16.07
-20.15
-24.28
-27.73
-30.2
-31.85
-33.14
-34.46
-36
-37.52
-38.38
-37.25
-32.07
-20.25
0.77
32.56
74.64
123.85
174.71
220.64
255.5
274.88
276.54
260.44
228.46
184.31
133.27
81.98
37.52
5.87
-9.57
-9
4.01
23.68
43.69
58.55
64.71
60.83
47.69
27.7
4.23
-19.16
-39.62
-55.4
-65.99
-71.82
-73.78
-73.04
-70.75
-67.89
-65.18
-62.97
-61.13
-59.1
-56.3
-52.38
-47.53
-42.36
-37.7
-34.13
-31.73
-30.02
-28.2
-25.5
-21.62
-16.84
-11.81
-7.35
-4.03
-2.08
-1.34
-1.58
-2.56
-4.21
-6.58
-9.63
-13.24
-17.23
-21.44
-25.9
-30.79
-36.34
-42.67
-49.69
-57.25
-65.29
-74.13
-84.32
-96.34
-110.11
-124.59
-137.8
-147.4
-151.6
-149.93
-143.51
-134.32
-124.02
-112.95
-99.57
-81.35
-56.07
-23.28
14.98
54.63
90.73
118.67
134.98
137.93
127.83
107.42
81.9
58.38
44.33
45.61
64.56
99.06
143.15
188.82
228.34
256.13
269.46
268.33
254.77
232.13
204.64
177.12
154.16
139.3
133.98
136.65
142.97
146.89
142.42
125.5
94.99
52.54
1.79
-52.34
-104.1
-147.22
-175.76
-185.66
-176.59
-152.7
-121.86
-93.13
-73.88
-67.61
-73.49
-87.56
-104.76
-120.64
-132.22
-138.2
-138.69
-135.27
-130.58
-127.51
-127.74
-130.58
-132.53
-128.26
-112.39
-81.39
-34.92
23.91
89.1
152.87
206.92
243.72
257.61
245.85
209.49
153.43
85.62
15.14
-50.23
-105.83
-150.85
-187.58
-219.4
-248.49
-274.44
-294.03
-302.31
-294.62
-268.42
-224.66
-167.79
-104.97
-44
8.75
50
79.97
101.41
117.92
132.23
145.44
157.39
167.51
175.53
181.93
187.87
194.8
204.47
218.69
238.86
265.36
296.54
328.49
355.66
372.16
373.09
355.79
320.27
268.92
206.05
136.93
66.9
0.58
-58.92
-110.4
-154.51
-193
-227.67
-259.16
-286.33
-306.28
-315.65
-312.16
-295.86
-269.45
-237.49
-204.94
-175.6
-151.33
-132.11
-116.76
-103.87
-92.29
-81.24
-70.35
-59.59
-49.14
-39.3
-30.3
-22.15
-14.67
-7.48
-0.08
7.94
16.86
26.79
37.58
48.67
59.11
67.72
73.6
76.38
76.32
74.17
70.81
66.86
62.59
57.86
52.21
45.04
35.59
23.11
7.08
-12.75
-36.28
-63.03
-92.1
-122.12
-151.2
-177.21
-198.14
-212.59
-220.05
-220.84
-215.87
-206.55
-194.76
-182.49
-171.32
-161.56
-151.69
-138.92
-120.6
-95.97
-67.42
-40.16
-20.22
-12.09
-16.83
-31.73
