1534257894.00
64.000000
-0.00
-0.00
-0.00
-0.00
-0.00
-0.00
-0.00
-0.00
-0.00
-0.00
0.00
0.01
0.01
-0.00
-0.03
-0.05
-0.05
0.00
0.13
0.36
0.66
1.01
1.37
1.72
2.06
2.40
2.79
3.24
3.80
4.42
5.06
5.66
6.20
6.68
7.15
7.68
8.31
9.14
10.09
11.04
11.88
12.56
13.14
13.76
14.65
15.96
17.91
20.32
22.90
25.38
27.58
29.57
31.68
34.32
37.81
42.54
48.15
54.10
59.83
64.97
69.58
74.14
79.34
85.71
93.76
103.00
112.62
121.73
129.77
136.75
143.30
150.75
157.77
166.64
177.95
191.79
206.97
220.57
228.25
225.36
208.53
176.87
132.76
80.05
23.07
-34.94
-92.44
-149.16
-205.23
-260.37
-313.74
-363.87
-409.83
-450.91
-486.50
-515.74
-537.23
-549.22
-549.96
-538.37
-514.21
-478.67
-433.88
-382.45
-327.02
-269.84
-212.63
-156.66
-102.95
-52.37
-5.90
35.58
71.43
101.35
125.50
144.38
158.69
169.15
176.37
180.75
182.57
182.07
179.51
175.23
169.65
163.18
156.15
148.81
141.30
133.69
126.02
118.33
110.69
103.16
95.80
88.68
81.83
75.25
68.95
62.95
57.25
51.86
46.78
42.03
37.59
33.45
29.61
26.07
22.81
19.83
17.11
14.67
12.48
10.54
8.83
7.35
6.07
4.97
4.05
3.27
2.62
2.09
1.65
1.30
1.01
0.79
0.61
0.48
0.37
0.28
0.22
0.18
0.14
0.12
0.10
0.09
0.09
0.10
0.11
0.13
0.15
0.18
0.22
0.25
0.29
0.33
0.38
0.42
0.47
0.51
0.56
0.61
0.66
0.72
0.78
0.84
0.92
1.00
1.09
1.19
1.30
1.42
1.56
1.72
1.90
2.09
2.31
2.55
2.82
3.11
3.44
3.79
4.18
4.60
5.06
5.55
6.08
6.65
7.26
7.91
8.61
9.35
10.13
10.96
11.83
12.74
13.71
14.74
15.83
16.98
18.19
19.44
20.69
21.90
22.97
23.83
24.33
24.38
23.85
22.65
20.75
18.16
14.93
11.14
6.98
2.64
-1.67
-5.73
-9.34
-12.36
-14.66
-16.17
-16.92
-16.92
-16.29
-15.16
-13.65
-11.89
-10.00
-8.05
-6.12
-4.22
-2.32
-0.48
1.32
3.09
4.86
6.64
8.48
10.39
12.42
14.62
16.88
19.15
21.41
23.66
25.93
28.25
30.67
33.28
36.26
39.39
42.62
45.94
49.39
52.99
56.83
60.96
65.51
70.68
76.09
81.61
87.15
92.69
98.24
103.82
109.47
115.23
121.30
127.09
132.23
136.50
139.64
141.28
140.81
137.20
128.66
118.33
106.97
95.10
83.16
71.52
60.49
50.25
40.86
32.30
24.62
17.18
9.68
2.08
-5.53
-13.04
-20.44
-27.88
-35.58
-43.73
-52.96
-63.54
-75.41
-88.31
-101.95
-116.05
-130.44
-145.14
-160.34
-176.94
-195.91
-217.94
-242.91
-269.40
-294.79
-315.77
-329.34
-333.75
-329.28
-317.78
-302.06
-285.02
-268.94
-255.04
-243.28
-232.52
-220.73
-205.64
-185.39
-159.35
-128.42
-94.88
-61.50
-30.48
-2.86
21.71
44.53
67.19
90.89
116.06
142.22
167.92
190.90
208.41
217.94
218.16
209.51
194.22
175.47
156.13
137.53
119.16
99.28
76.27
49.63
20.32
-9.83
-39.11
-66.87
-93.50
-119.98
-146.94
-174.02
-199.91
-222.90
-241.61
-255.51
-265.06
-271.31
-275.43
-278.37
-280.63
-282.42
-283.63
-283.91
-282.61
-278.84
-271.67
-260.30
-244.46
-224.51
-201.36
-176.21
-150.19
-124.21
-98.89
-74.86
-52.89
-34.14
-19.90
-11.28
-8.67
-11.59
-18.94
-29.46
-42.25
-56.74
-72.39
-88.14
-102.28
-112.75
-117.88
-117.02
-110.79
-100.78
-88.83
-76.43
-64.38
-52.84
-41.44
-29.57
-16.43
-1.28
16.34
36.37
58.14
80.61
102.66
123.64
143.53
162.85
182.36
202.55
223.37
244.22
264.30
283.03
300.49
317.46
335.22
355.24
379.01
407.90
442.84
483.57
527.61
569.82
602.96
619.46
613.98
585.39
537.24
476.48
411.04
347.48
290.01
240.90
201.83
174.59
160.54
159.08
166.37
175.37
177.85
167.32
141.40
102.62
57.00
11.42
-28.87
-61.56
-86.82
-105.95
-120.14
-129.89
-135.31
-136.68
-134.80
-130.67
-125.00
-117.81
-108.36
-95.63
-79.11
-59.44
-38.50
-19.01
-3.72
5.37
7.47
2.99
-6.78
-20.03
-34.81
-49.23
-61.76
-71.30
-77.42
-80.37
-80.82
-79.59
-77.22
-73.49
-67.21
-56.39
-38.85
-13.42
19.09
55.42
90.42
118.54
135.59
140.07
133.27
118.42
99.28
78.99
59.57
42.22
27.71
16.54
8.86
4.08
0.73
-3.15
-9.48
-19.36
-32.79
-48.54
-64.60
-78.69
-88.88
-93.96
-93.65
-88.50
-79.73
-68.94
-57.74
-47.52
-39.28
-33.53
-30.41
-29.81
-31.50
-35.15
-40.34
-46.48
-52.77
-58.29
-62.18
-63.90
-63.27
-60.64
-56.60
-51.86
-46.95
-42.22
-37.75
-33.54
-29.49
-25.44
-21.20
-16.56
-11.49
-6.19
-1.11
3.22
6.43
8.63
10.34
12.28
14.91
17.93
20.19
19.83
14.81
3.66
-13.90
-36.74
-62.31
-87.05
-107.19
-119.56
-122.34
-115.41
-100.37
-79.91
-57.08
-34.60
-14.40
2.37
15.20
23.97
28.77
29.91
27.90
23.37
17.03
9.50
1.30
-7.08
-15.17
-22.44
-28.38
-32.64
-35.09
-35.90
-35.53
-34.60
-33.79
-33.65
-34.52
-36.40
-39.09
-42.20
-45.32
-48.09
-50.21
-51.55
-52.16
-52.27
-52.35
-52.99
-54.75
-57.97
-62.50
-67.57
-71.82
-73.51
-70.97
-63.04
-49.53
-31.33
-10.17
11.75
32.30
49.84
63.33
72.39
77.16
78.11
75.97
71.54
65.60
58.83
51.75
44.83
38.49
33.18
29.28
27.01
26.30
26.76
27.85
28.98
29.74
29.89
29.32
27.94
25.56
21.98
17.01
10.70
3.38
-4.41
-12.01
-18.93
-24.89
-29.94
-34.36
-38.57
-43.03
-48.17
-54.35
-61.65
-69.77
-77.75
-84.08
-86.84
-84.35
-75.65
-60.97
-41.73
-20.24
0.94
19.51
33.95
43.56
48.48
49.37
47.19
42.91
37.38
31.26
25.10
19.34
14.45
10.74
8.32
7.03
6.49
6.27
6.05
5.67
5.03
3.98
2.36
0.19
-2.14
-3.85
-4.09
-2.41
1.05
5.60
10.51
15.57
21.23
28.35
37.55
48.72
60.88
72.54
82.17
88.58
90.93
88.68
81.61
70.16
55.75
40.72
27.73
18.81
14.57
13.97
14.81
14.70
11.88
5.64
-3.82
-15.70
-29.12
-43.20
-57.08
-69.92
-80.85
-89.14
-94.30
-96.14
-94.69
-90.10
-82.49
-71.96
-58.68
-43.01
-25.62
-7.50
10.12
26.09
39.45
49.51
55.90
58.41
57.01
51.88
43.53
32.81
20.74
8.26
-3.98
-15.77
-27.32
-39.04
-51.41
-64.74
-79.08
-93.98
-108.41
-120.63
-128.42
-129.52
-122.30
-106.47
-83.34
-55.60
-26.71
0.06
22.30
38.84
49.59
55.24
56.74
55.05
51.05
45.47
39.04
32.34
25.93
20.20
15.54
12.27
10.73
11.17
13.63
17.83
23.11
28.56
33.18
36.18
37.13
35.97
32.88
28.09
21.72
13.85
4.62
-5.67
-16.43
-26.98
-36.75
-45.45
-53.24
-60.67
-68.53
-77.63
-88.47
-100.89
-113.83
-125.30
-132.72
-133.52
-125.92
-109.56
-85.73
-57.06
-26.89
1.55
25.80
44.52
57.47
65.19
68.64
68.79
66.46
62.24
56.63
50.18
43.55
37.47
32.64
29.56
28.45
29.23
31.54
34.82
38.43
41.72
44.07
45.00
44.19
41.45
36.76
30.28
22.30
13.31
3.90
-5.34
-13.89
-21.43
-27.87
-33.39
-38.39
-43.45
-49.28
-56.41
-64.91
-74.01
-81.94
-86.23
-84.32
-74.52
-56.58
-31.97
-3.45
25.70
52.49
74.75
91.37
102.13
107.48
108.19
105.18
99.37
91.53
82.36
72.55
62.85
54.16
47.32
42.91
41.07
41.42
43.24
45.68
48.02
49.74
50.46
49.88
47.64
43.37
36.81
27.79
16.16
1.61
-16.45
-38.82
-66.16
-98.54
-135.17
-174.52
-214.71
-253.86
-290.24
-322.00
-346.91
-362.23
-365.08
-353.11
-325.19
-281.93
-225.70
-160.32
-90.57
-21.50
42.28
97.30
141.63
174.88
197.77
211.47
217.03
215.40
207.63
195.40
181.11
167.49
156.85
150.42
148.06
148.68
150.92
153.78
156.78
159.62
161.69
161.76
158.22
149.71
135.77
117.21
95.76
73.45
51.93
32.13
14.38
-1.20
-14.45
-25.43
-34.71
-43.80
-54.90
-70.25
-91.05
-116.51
-143.62
-167.73
-183.88
-188.28
-179.36
-157.94
-126.82
-89.62
-49.94
-10.59
26.64
61.03
92.70
122.46
151.35
180.02
208.07
233.64
253.74
265.11
265.54
254.93
235.39
210.59
184.31
159.34
136.92
116.94
98.78
82.01
66.57
52.72
40.61
30.14
20.97
12.85
5.79
0.10
-3.78
-5.59
-5.45
-3.87
-1.66
0.45
1.89
2.40
1.88
0.18
-3.05
-8.24
-15.55
-24.34
-32.86
-38.56
-38.95
-32.84
-21.19
-7.07
5.36
12.50
12.68
6.56
-3.46
-14.61
-24.94
-33.77
-41.43
-48.37
-54.58
-59.36
-61.83
-61.32
-57.91
-52.33
-45.69
-39.07
-33.14
-28.09
-23.77
-19.87
-16.27
-13.04
-10.49
-8.99
-8.76
-9.74
-11.73
-14.46
-17.88
-22.12
-27.44
-34.01
-41.70
-50.25
-59.52
-69.82
-81.86
-96.25
-112.76
-129.62
-143.73
-151.52
-150.41
-140.05
-122.67
-102.30
-83.34
-69.10
-60.96
-58.57
-60.55
-65.41
-72.03
-79.66
-87.65
-95.29
-101.79
-106.59
-109.52
-110.82
-110.88
-109.84
-107.42
-102.90
-95.59
-85.37
-72.99
-60.03
-48.46
-39.90
-35.12
-33.86
-35.06
-37.45
-40.03
-42.38
-44.54
-46.73
-49.02
-51.14
-52.61
-53.03
-52.37
-51.28
-51.15
-53.78
-60.99
-74.03
-93.00
-116.65
-142.37
-166.69
-185.93
-197.03
-198.16
-189.12
-171.42
-147.79
-121.63
-96.15
-73.71
-55.52
-41.60
-31.21
-23.33
-17.05
-11.59
-6.27
-0.33
6.98
16.14
27.14
39.36
51.70
62.85
71.66
77.28
79.34
77.97
73.84
68.12
62.29
57.74
55.39
55.41
57.20
59.67
61.74
62.66
62.25
60.74
58.65
56.52
54.74
53.45
52.43
51.07
48.35
43.03
33.95
20.76
4.47
-12.27
-25.50
-30.88
-25.18
-7.34
21.00
56.04
92.98
127.38
156.08
177.61
191.81
199.34
201.24
198.59
192.53
184.24
174.93
165.69
157.38
150.48
145.12
141.18
138.40
136.51
135.31
134.50
133.61
131.83
128.10
121.43
111.31
97.96
82.26
65.48
48.67
32.39
16.59
0.84
-15.31
-32.07
-49.32
-66.70
-83.76
-100.23
-116.26
-132.36
-149.24
-167.17
-185.27
-201.01
-210.56
-209.73
-195.40
-166.66
-125.23
-74.97
-20.86
32.10
79.72
118.91
147.84
166.04
174.36
174.75
169.68
161.32
150.88
138.46
123.55
105.94
86.44
67.02
50.23
38.34
32.43
32.26
36.53
43.57
51.76
59.71
66.25
70.41
71.61
69.91
66.02
61.12
56.37
52.51
49.56
47.10
44.52
41.34
37.20
31.82
24.83
15.80
4.45
-9.01
-23.69
-37.92
-49.57
-56.56
-57.35
-51.54
-39.95
-24.48
-7.53
8.56
21.98
31.80
37.80
40.26
39.65
36.42
30.91
23.54
14.88
5.61
-3.48
-11.70
-18.56
-23.78
-27.25
-29.07
-29.48
-28.97
-28.25
-28.14
-29.37
-32.34
-37.02
-42.88
-49.14
-54.95
-59.73
-63.28
-65.81
-67.83
-69.87
-72.22
-74.75
-77.02
-78.41
-78.55
-77.54
-76.08
-75.35
-76.67
-81.08
-88.87
-99.25
-110.22
-118.86
-121.92
-116.75
-102.17
-79.02
-50.03
-19.15
9.67
33.53
51.24
63.24
70.96
75.91
79.06
80.62
80.29
77.80
73.31
67.57
61.75
57.12
54.72
55.16
58.46
64.05
70.76
77.02
81.24
82.25
79.69
74.07
66.47
58.11
50.01
42.89
37.36
34.12
33.86
36.98
43.18
51.37
59.88
67.03
71.54
72.86
70.99
66.41
59.85
52.19
44.44
37.44
31.61
26.74
22.10
16.77
10.09
1.92
-7.29
-16.75
-25.64
-33.24
-39.01
-42.56
-43.70
-42.54
-39.54
-35.47
-31.21
-27.60
-25.28
-24.62
-25.73
-28.46
-32.36
-36.73
-40.69
-43.41
-44.21
-42.75
-39.03
-33.40
-26.38
-18.68
-11.19
-4.81
-0.35
1.72
1.45
-0.61
-3.59
-6.57
-8.88
-10.26
-10.86
-11.21
-11.99
-13.94
-17.58
-22.91
-29.18
-34.89
-38.23
-37.79
-33.21
-25.54
-16.85
-9.49
-4.92
-3.18
-2.77
-1.43
2.94
11.24
22.90
36.19
48.99
59.64
67.40
72.40
75.11
75.81
74.34
70.25
63.29
53.78
42.76
31.60
21.56
13.31
6.85
1.71
-2.74
-6.90
-10.89
-14.59
-17.88
-20.84
-23.76
-27.03
-30.94
-35.45
-40.24
-44.79
-48.71
-51.87
-54.49
-56.96
-59.59
-62.51
-65.62
-68.80
-72.04
-75.58
-79.78
-84.88
-90.71
-96.54
-101.04
-102.58
-99.69
-91.59
-78.57
-62.07
-44.32
-27.67
-13.95
-4.03
2.15
5.26
6.09
5.34
3.54
1.16
-1.21
-2.88
-3.29
-2.16
0.43
4.16
8.68
13.85
19.82
26.75
34.63
42.93
50.54
55.94
57.72
55.02
47.92
37.41
25.06
12.48
0.79
-9.63
-19.11
-28.34
-38.02
-48.54
-59.82
-71.44
-82.74
-93.16
-102.42
-110.78
-119.01
-128.15
-139.03
-151.64
-164.81
-176.11
-182.51
-181.33
-171.21
-152.57
-127.54
-99.13
-70.35
-43.46
-19.70
0.56
17.50
31.47
42.81
51.91
59.17
64.93
69.46
72.85
75.12
76.30
76.61
76.53
76.75
78.00
80.84
85.44
91.51
98.39
105.13
110.81
114.64
116.08
114.91
111.30
105.75
99.09
92.28
86.31
81.97
79.68
79.35
80.34
81.49
81.38
78.64
72.53
63.17
51.65
39.66
28.77
19.86
12.83
6.84
0.70
-6.54
-15.44
-26.19
-38.63
-52.24
-65.88
-77.66
-85.13
-85.88
-78.44
-62.97
-41.48
-17.38
5.49
23.97
36.30
42.41
43.58
41.76
38.82
35.99
33.74
31.94
30.30
28.75
27.58
27.35
28.63
31.71
36.55
42.79
49.90
57.35
64.61
71.15
76.37
79.68
80.59
78.89
74.81
69.02
62.49
56.34
51.57
48.84
48.30
49.44
51.22
52.21
50.94
46.29
37.71
25.29
9.69
-8.07
-26.84
-45.51
-63.20
-79.27
-93.36
-105.25
-114.80
-121.89
-126.49
-128.81
-129.47
-129.49
-130.08
-132.24
-136.27
-141.32
-145.39
-145.60
-138.89
-122.95
-97.08
-62.81
-23.86
14.58
47.21
70.14
81.94
83.93
79.32
71.84
64.30
57.89
52.27
46.45
39.85
32.84
26.65
22.76
22.11
24.64
29.42
35.04
40.24
44.24
46.81
48.17
48.61
48.42
47.90
47.58
48.29
51.11
57.03
66.41
78.75
92.69
106.48
118.42
127.41
133.02
135.44
135.29
133.56
131.43
129.96
129.69
130.00
128.93
123.56
110.80
88.46
55.99
14.67
-32.65
-82.01
-128.89
-168.86
-198.30
-215.28
-220.13
-215.30
-204.54
-191.45
-178.21
-164.93
-150.21
-132.29
-110.35
-85.28
-59.46
-35.90
-17.25
-5.01
0.58
0.23
-4.92
-13.65
-24.76
-36.92
-48.54
-57.86
-63.29
-63.86
-59.51
-51.11
-40.12
-28.22
-16.85
-6.99
0.89
6.78
10.99
13.94
16.04
17.57
18.71
19.62
20.59
22.03
24.32
27.58
31.57
35.66
39.14
41.65
43.38
45.06
47.54
51.28
55.99
60.66
63.89
64.57
62.34
57.70
51.79
45.79
40.42
35.56
30.38
23.62
14.02
0.90
-15.45
-33.52
-50.77
-64.20
-71.30
-70.94
-63.90
-52.51
-39.89
-28.77
-20.76
-16.19
-14.62
-15.41
-18.21
-22.96
-29.55
-37.53
-45.98
-53.74
-59.71
-63.27
-64.33
-63.33
-60.97
-57.87
-54.33
-50.19
-44.90
-37.72
-28.10
-15.95
-1.78
13.28
27.68
39.73
48.05
51.98
51.95
49.53
47.04
46.87
50.54
58.03
67.56
75.86
79.01
73.51
57.36
30.90
-3.10
-40.08
-74.99
-103.74
-124.32
-137.19
-144.75
-150.35
-157.30
-168.14
-184.27
-205.53
-230.05
-254.13
-272.69
-280.28
-272.75
-248.73
-210.56
-163.89
-116.32
-75.25
-45.79
-29.42
-23.92
-24.58
-26.04
-24.19
-17.30
-6.09
7.12
19.64
29.48
35.79
38.85
39.62
39.14
38.16
36.80
34.59
30.81
24.80
16.34
5.77
-5.93
-17.29
-26.63
-32.35
-33.30
-29.03
-19.95
-7.10
8.23
24.80
41.54
57.37
70.90
80.54
85.01
84.12
79.07
72.14
65.57
60.39
56.04
50.86
43.66
34.84
26.63
22.07
23.22
29.75
38.74
46.05
48.35
44.78
37.33
29.59
24.73
23.90
25.72
27.20
25.31
18.29
6.13
-9.85
-27.79
-45.95
-62.89
-77.66
-89.80
-99.59
-108.05
-116.55
-125.96
-135.89
-144.46
-149.06
-147.63
-139.63
-126.09
-108.77
-88.88
-66.51
-41.13
-12.78
16.98
45.05
67.78
82.60
88.92
88.24
83.19
76.37
69.63
64.07
60.46
59.42
61.16
64.92
68.62
69.31
64.13
51.54
32.08
8.09
-17.28
-41.18
-61.94
-79.18
-93.51
-106.15
-118.60
-132.30
-148.18
-165.91
-183.44
-197.22
-203.13
-197.88
-180.23
-151.48
-115.08
-75.56
-37.43
-4.18
22.00
40.32
51.05
55.28
54.53
50.50
44.95
39.45
35.43
34.03
35.93
41.33
49.91
60.94
73.50
86.58
99.11
110.04
118.41
123.52
125.13
123.50
119.31
113.39
106.53
99.28
91.99
84.83
77.88
71.22
64.91
59.00
53.43
48.11
42.83
37.50
32.19
27.20
23.04
20.23
18.98
19.09
19.84
20.16
19.00
15.68
10.40
4.47
0.38
1.58
11.76
33.94
69.59
118.09
176.78
241.41
306.88
367.96
419.89
458.79
482.11
488.92
479.97
457.56
424.90
385.38
341.81
296.15
249.57
202.76
156.24
110.50
65.99
23.14
-17.51
-55.18
-88.81
-117.29
-139.92
-156.88
-169.39
-179.42
-188.92
-199.10
-210.06
-220.98
-230.78
-238.77
-244.86
-249.33
-252.29
-253.27
-251.17
-244.79
-233.52
-217.93
-199.80
-181.67
-165.96
-154.27
-146.89
-142.88
-140.62
-138.46
-135.42
-131.49
-127.56
-125.06
-125.42
-129.45
-136.92
-146.27
-154.72
-158.80
-155.17
-141.68
-118.20
-86.88
-51.68
-17.23
12.57
35.55
51.55
61.91
68.31
72.03
73.43
72.34
68.72
63.25
57.59
53.95
54.39
60.08
70.90
85.49
101.73
117.39
130.60
140.22
145.85
147.66
146.25
142.48
137.42
132.21
127.91
125.25
124.34
124.53
124.51
122.69
117.75
109.16
97.40
83.76
69.82
56.86
45.42
35.19
25.37
15.26
4.64
-6.00
-15.73
-23.64
-29.32
-33.15
-36.22
-39.92
-45.41
-53.04
-62.01
-70.32
-75.09
-73.30
-62.59
-41.99
-12.23
24.37
64.47
104.55
141.56
173.43
199.10
218.31
231.17
237.83
238.30
232.52
220.53
202.66
179.61
152.41
122.37
90.97
59.77
30.36
4.14
-17.98
-35.80
-49.95
-61.61
-72.06
-82.12
-91.93
-100.93
-108.28
-113.22
-115.50
-115.50
-114.22
-112.94
-112.78
-114.29
-117.21
-120.66
-123.52
-125.03
-124.98
-123.70
-121.56
-118.74
-115.18
-111.00
-106.84
-103.79
-102.93
-104.70
-108.59
-113.58
-118.94
-124.85
-132.34
-142.43
-154.84
-167.26
-175.62
-175.44
-163.61
-139.65
-106.05
-67.40
-28.88
5.24
32.53
52.57
66.44
75.78
82.15
86.48
89.21
90.32
89.67
87.21
83.10
77.84
72.20
67.20
63.83
62.60
63.29
64.86
65.80
64.69
60.84
54.50
46.78
39.02
32.39
27.46
24.30
22.67
22.23
22.62
23.39
24.00
23.86
22.54
20.00
16.66
13.31
10.75
9.45
9.33
9.76
9.83
8.66
5.75
1.16
-4.53
-10.50
-15.97
-20.67
-24.92
-29.61
-35.90
-44.86
-56.88
-71.23
-85.83
-97.47
-102.67
-98.61
-84.32
-61.08
-32.14
-1.83
25.79
47.88
63.26
72.12
75.40
74.22
69.52
62.17
53.07
43.30
34.08
26.58
21.67
19.77
20.84
24.49
30.16
37.15
44.65
51.73
57.35
60.54
60.61
57.41
51.32
43.19
34.02
24.75
16.02
8.13
1.09
-5.36
-11.51
-17.57
-23.43
-28.61
-32.31
-33.87
-33.08
-30.54
-27.57
-25.78
-26.35
-29.61
-34.69
-39.88
-43.25
-43.47
-40.61
-36.31
-33.45
-35.30
-44.36
-61.44
-85.05
-111.55
-135.95
-153.17
-159.30
-152.62
-133.89
-106.07
-73.40
-40.41
-10.89
12.65
29.24
39.15
43.53
43.86
41.61
37.98
33.72
29.31
25.16
21.92
20.64
22.62
29.13
40.99
58.21
79.72
103.52
126.91
147.05
161.48
168.73
168.65
162.48
152.58
141.73
132.52
126.46
123.63
122.61
120.89
115.63
104.69
87.47
65.27
41.05
18.44
0.69
-10.33
-14.36
-12.44
-6.23
2.81
13.74
26.11
39.52
53.29
66.27
76.94
83.74
85.37
81.08
70.77
55.24
36.11
15.82
-2.72
-16.73
-24.14
-24.21
-17.64
-6.38
6.91
19.43
28.76
33.21
31.88
24.77
12.60
-3.38
-21.77
-41.11
-60.05
-77.25
-91.43
-101.53
-106.99
-108.07
-105.86
-101.96
-97.91
-94.79
-92.90
-91.94
-91.35
-90.58
-89.36
-87.67
-85.68
-83.67
-81.97
-80.88
-80.61
-81.25
-82.63
-84.28
-85.33
-84.68
-81.30
-74.76
-65.57
-55.33
-46.27
-40.50
-39.21
-42.24
-48.20
-55.22
-61.63
-66.66
-70.49
-74.06
-78.62
-85.35
-94.79
-106.59
-119.15
-129.65
-134.62
-130.83
-116.42
-91.72
-59.40
-23.91
9.64
36.73
54.52
62.37
61.86
56.21
49.28
44.38
43.28
45.85
50.46
55.05
58.21
59.92
61.35
64.19
69.69
78.10
88.67
100.15
111.35
121.40
129.78
136.09
139.91
140.88
138.81
133.98
127.11
119.28
111.71
105.45
101.20
99.27
99.59
101.89
105.85
111.20
117.76
125.43
134.16
143.86
154.40
165.56
176.99
188.22
198.64
207.58
214.39
218.44
219.04
215.35
206.55
192.10
172.21
148.20
122.29
97.06
74.49
55.15
38.00
20.92
1.64
-21.26
-48.09
-78.20
-110.57
-144.12
-177.76
-210.10
-239.33
-263.44
-280.73
-290.52
-293.41
-291.01
-285.25
-277.44
-267.84
-255.85
-240.69
-222.21
-201.24
-179.48
-158.90
-141.23
-127.66
-118.91
-115.32
-116.87
-122.82
-131.39
-139.75
-144.79
-144.12
-137.02
-124.73
-109.74
-94.67
-81.21
-69.61
-59.05
-48.49
-37.47
-26.49
-16.79
-9.75
-6.22
-6.18
-8.94
-13.44
-18.80
-24.55
-30.72
-37.58
-45.46
-54.67
-65.49
-78.06
-92.05
-106.17
-117.95
-123.94
-120.65
-105.82
-79.53
-44.49
-5.41
32.42
64.69
88.96
104.85
113.46
116.56
115.87
112.84
108.70
104.58
101.59
100.74
102.73
107.85
115.96
126.55
138.91
152.27
165.88
178.99
190.81
200.45
206.91
209.25
206.89
199.84
188.82
175.09
160.03
144.78
129.80
114.87
99.21
81.90
62.21
40.03
15.95
-8.83
-32.75
-54.28
-72.25
-86.12
-96.05
-102.80
-107.54
-111.61
-116.27
-122.54
-131.03
-141.87
-154.65
-168.31
-181.16
-190.93
-195.12
-191.51
-178.83
-157.23
-128.40
-95.26
-61.25
-29.56
-2.51
18.65
33.70
43.03
47.41
47.66
44.63
39.31
32.86
26.69
22.34
21.20
24.14
31.29
41.86
54.38
67.04
78.11
86.34
91.11
92.47
90.94
87.34
82.46
77.01
71.46
66.08
60.93
55.94
50.92
45.72
40.22
34.46
28.65
23.16
18.33
14.40
11.28
8.53
5.42
1.14
-5.03
-13.62
-24.92
-39.04
-55.86
-75.07
-96.05
-117.78
-138.95
-157.90
-172.72
-181.29
-181.45
-171.21
-149.31
-115.64
-71.57
-19.89
35.53
90.45
140.84
183.53
216.51
239.06
251.38
254.18
248.08
233.47
210.52
179.56
141.33
96.99
48.03
-3.89
-56.95
-108.93
-157.09
-198.42
-230.15
-250.52
-259.16
-256.90
-245.26
-225.88
-200.43
-170.84
-139.64
-109.83
-84.18
-64.37
-50.43
-41.01
-34.10
-28.17
-22.67
-18.12
-15.46
-15.42
-18.08
-22.82
-28.70
-34.73
-40.17
-44.63
-48.16
-51.15
-54.36
-58.72
-65.04
-73.68
-84.26
-95.50
-105.36
-111.31
-111.02
-102.99
-87.08
-64.76
-38.80
-12.60
10.63
28.60
40.24
45.60
45.51
41.19
34.02
25.59
17.77
12.62
12.08
17.47
28.90
44.98
63.05
79.85
92.52
99.49
100.83
97.96
92.88
87.24
81.74
76.10
69.62
61.81
52.89
43.78
35.63
29.21
24.53
20.86
17.22
12.80
7.39
1.29
-4.91
-10.67
-15.73
-20.18
-24.41
-29.01
-34.78
-42.65
-53.48
-67.64
-84.38
-101.46
-115.23
-121.46
-116.68
-99.52
-71.50
-36.61
-0.16
32.90
59.29
77.89
89.32
95.04
96.57
95.01
91.16
85.75
79.59
73.55
68.43
64.79
63.06
63.56
66.60
72.31
80.44
90.13
99.95
108.07
112.78
112.92
108.17
99.12
87.07
73.68
60.62
49.35
40.83
35.43
32.80
31.95
31.42
29.68
25.51
18.43
8.87
-2.01
-12.76
-22.20
-29.99
-36.72
-43.77
-52.77
-64.92
-80.49
-98.41
-116.35
-131.04
-138.93
-137.07
-123.96
-100.09
-67.99
-31.67
4.44
36.54
62.27
80.84
92.81
99.42
102.12
102.19
100.82
99.11
98.10
98.69
101.41
106.31
113.01
120.83
129.04
137.06
144.64
151.82
158.87
166.01
173.18
179.69
184.22
185.04
180.59
170.13
154.19
134.57
113.65
93.40
74.52
56.20
36.58
13.89
-12.60
-42.00
-72.13
-100.43
-124.82
-144.32
-158.90
-169.02
-175.10
-177.36
-176.04
-171.70
-165.38
-158.21
-150.74
-142.44
-131.62
-116.14
-94.40
-66.37
-33.92
-0.41
30.46
55.74
74.02
85.51
91.40
93.08
91.42
86.67
78.80
67.99
55.06
41.42
28.77
18.40
10.74
5.16
0.33
-5.14
-12.17
-20.92
-31.08
-42.22
-54.05
-66.39
-78.80
-90.39
-100.02
-106.83
-110.79
-112.88
-114.72
-117.67
-122.15
-127.49
-132.46
-136.07
-138.09
-138.92
-139.11
-138.79
-137.48
-134.43
-129.22
-122.24
-114.68
-108.16
-104.06
-103.11
-105.21
-109.49
-114.62
-118.98
-120.81
-118.30
-109.86
-94.47
-72.05
-43.80
-12.13
19.78
48.84
72.81
90.86
103.38
111.33
115.54
116.25
113.27
106.56
96.92
86.09
76.32
69.43
66.03
65.15
64.67
62.08
55.39
43.66
27.09
6.82
-15.37
-37.37
-56.84
-71.36
-78.81
-78.01
-69.22
-54.55
-37.70
-23.11
-14.83
-15.38
-25.14
-42.39
-63.88
-85.81
-104.63
-117.77
-124.07
-124.03
-119.69
-114.24
-111.20
-113.46
-122.45
-137.49
-155.86
-173.40
-185.51
-188.43
-180.14
-160.69
-131.96
-97.07
-59.54
-22.71
10.77
39.11
61.43
77.64
88.32
94.53
97.69
99.31
100.89
103.77
109.02
117.33
128.84
143.25
159.90
178.06
197.08
216.47
235.77
254.48
271.93
287.36
300.07
309.41
314.87
316.13
313.14
306.15
295.82
282.99
268.28
251.55
231.66
206.86
175.63
137.80
94.96
50.25
7.27
-30.91
-62.56
-87.31
-105.81
-119.32
-129.58
-138.77
-149.35
-163.32
-181.42
-202.23
-222.20
-236.45
-240.28
-230.76
-207.69
-173.73
-133.72
-93.29
-57.49
-29.62
-10.61
0.63
6.45
9.39
11.24
12.82
14.24
15.51
16.95
19.39
23.71
30.49
39.57
50.16
61.13
71.46
80.54
88.13
94.15
98.39
100.41
99.61
95.58
88.30
78.30
66.61
54.42
42.75
32.14
22.52
13.36
3.99
-6.10
-16.98
-28.26
-39.23
-49.26
-58.02
-65.66
-72.86
-80.58
-89.91
-101.71
-116.30
-133.07
-150.31
-165.31
-174.77
-175.73
-166.54
-147.53
-121.21
-91.58
-63.03
-39.14
-21.88
-11.47
-6.76
-5.90
-6.95
-8.15
-8.10
-5.72
-0.31
8.34
19.93
33.64
48.43
63.26
77.31
90.02
100.97
109.78
116.02
119.27
119.27
116.02
109.85
101.32
91.10
79.89
68.37
57.18
46.90
37.97
30.53
24.33
18.75
12.95
6.15
-2.00
-11.29
-20.96
-29.96
-37.39
-42.91
-47.04
-51.07
-56.81
-66.00
-79.71
-97.73
-118.11
-137.34
-150.87
-154.20
-144.26
-120.31
-84.36
-40.68
5.36
48.66
85.50
114.06
134.33
147.49
155.21
159.08
160.36
160.10
159.32
159.21
160.98
165.68
173.79
185.05
198.53
213.00
227.30
240.62
252.58
263.00
271.76
278.67
283.64
286.83
288.67
289.75
290.43
290.55
289.35
285.67
278.30
266.46
249.95
229.29
205.49
179.84
153.63
127.85
103.06
79.23
55.90
32.49
8.55
-15.91
-40.56
-64.93
-88.75
-112.14
-135.57
-159.72
-185.31
-213.21
-244.04
-277.78
-313.22
-347.73
-377.85
-400.47
-414.19
-419.98
-420.82
-420.36
-421.26
-424.13
-427.47
-428.62
-424.95
-414.86
-397.81
-373.90
-343.21
-305.70
-261.62
-212.15
-159.93
-108.68
-62.54
-24.69
3.56
23.10
36.34
46.10
54.58
62.79
70.82
78.33
84.97
90.40
94.14
95.32
92.91
86.26
75.71
62.93
50.60
41.41
36.87
36.45
37.69
37.10
31.85
21.11
6.79
-7.00
-15.43
-14.72
-3.60
16.21
40.66
64.78
84.12
95.74
98.49
92.75
79.93
61.97
41.14
19.70
-0.35
-17.58
-31.37
-41.74
-49.03
-53.58
-55.47
-54.70
-51.64
-47.37
-43.77
-43.07
-47.04
-56.22
-69.53
-84.44
-97.60
-105.82
-106.81
-99.59
-84.61
-63.35
-38.01
-11.06
15.19
38.87
59.01
75.64
89.64
102.12
113.70
123.84
130.83
132.26
125.93
110.73
87.17
57.22
23.80
-9.94
-41.01
-66.79
-84.76
-92.61
-88.45
-71.45
-42.50
-4.31
38.93
82.61
122.74
156.83
183.99
204.52
219.16
228.51
232.89
232.53
227.84
219.60
208.68
195.68
180.74
163.59
143.92
121.78
97.72
72.69
47.71
23.62
0.89
-20.26
-39.80
-57.88
-74.79
-90.98
-106.91
-122.80
-138.50
-153.57
-167.55
-180.31
-192.17
-203.74
-215.52
-227.68
-239.87
-251.42
-261.66
-270.18
-277.04
-282.75
-288.12
-293.94
-300.66
-308.20
-316.03
-323.38
-329.52
-333.84
-335.69
-334.10
-327.74
-315.20
-295.59
-269.07
-236.98
-201.30
-163.88
-125.77
-87.28
-48.56
-10.39
25.32
56.03
79.40
94.32
101.41
102.92
102.01
101.99
105.58
114.54
129.49
149.82
173.75
198.42
220.30
235.81
242.04
237.40
222.03
198.01
169.11
140.13
115.82
99.54
92.26
92.17
95.44
97.73
95.88
89.08
78.89
68.29
60.17
55.97
55.03
54.74
51.42
41.49
22.56
-5.71
-41.26
-79.85
-115.75
-143.01
-156.87
-155.04
-138.28
-110.10
-75.56
-39.87
-7.05
20.60
42.33
58.30
68.96
74.85
76.66
75.55
73.21
71.58
72.30
76.23
83.14
91.86
100.71
108.01
112.59
114.12
113.12
110.65
107.98
106.26
106.40
109.09
114.82
123.72
135.48
149.18
163.50
177.06
188.84
198.34
205.57
210.82
214.37
216.47
217.23
216.56
213.96
208.26
197.61
179.81
152.91
115.84
69.04
14.76
-42.95
-98.65
-146.76
-182.87
-205.14
-215.01
-216.79
-216.06
-217.73
-224.31
-235.44
-248.44
-259.71
-266.08
-265.48
-256.97
-240.44
-216.46
-186.33
-152.14
-116.57
-82.21
-50.68
-21.98
5.56
34.33
66.03
100.35
134.56
163.99
183.53
189.32
179.90
156.65
123.23
84.68
46.31
12.82
-12.50
-28.26
-35.26
-36.22
-34.96
-35.10
-38.86
-46.49
-56.54
-66.96
-76.14
-83.60
-89.92
-96.15
-103.26
-111.93
-122.45
-134.70
-147.82
-159.69
-166.97
-165.71
-152.81
-127.53
-92.19
-51.69
-11.81
22.68
49.43
68.63
82.12
92.05
99.90
106.19
110.83
113.51
113.96
111.83
106.45
97.05
83.25
65.84
47.12
30.43
18.98
14.49
16.27
21.50
26.28
27.20
22.54
12.63
-0.42
-13.68
-24.16
-29.63
-28.93
-22.28
-11.14
2.01
14.31
23.21
27.23
26.37
22.01
16.45
12.09
10.75
13.16
18.71
25.62
31.26
32.92
28.63
18.03
2.95
-12.74
-24.04
-26.53
-17.95
0.91
26.50
53.79
78.04
96.09
106.69
110.05
107.06
98.68
86.06
70.88
55.60
43.28
36.63
37.10
44.19
55.58
67.97
78.24
84.43
86.10
84.02
79.48
73.62
66.96
59.50
50.93
41.13
30.37
19.40
9.22
0.63
-6.15
-11.71
-17.18
-23.75
-31.94
-41.38
-50.87
-58.97
-64.68
-67.93
-69.63
-71.36
-74.83
-81.33
-91.29
-103.95
-117.37
-128.76
-135.14
-134.10
-124.54
-106.93
-83.16
-55.91
-28.06
-2.08
20.26
37.96
50.75
58.96
63.35
64.89
64.48
62.84
60.48
57.83
55.34
53.56
52.88
53.40
54.75
56.23
57.05
56.67
54.86
51.65
47.00
40.57
31.72
19.88
4.94
-12.41
-30.71
-48.05
-62.67
-73.46
-80.28
-83.91
-85.71
-87.26
-89.90
-94.56
-101.65
-110.98
-121.76
-132.55
-141.53
-146.99
-148.02
-145.06
-139.80
-134.32
-129.94
-126.17
-120.77
-110.69
-93.68
-69.48
-40.12
-9.04
20.29
45.51
65.77
81.34
92.85
100.75
105.25
106.66
105.85
104.35
104.14
107.08
114.31
125.88
140.84
157.80
175.64
194.01
213.02
232.48
250.93
265.50
272.65
269.82
256.89
236.58
213.36
191.42
172.79
156.76
140.80
122.48
101.15
78.54
57.93
42.56
34.16
32.19
33.96
35.63
33.09
22.88
2.62
-28.57
-69.65
-117.37
-166.35
-209.78
-240.81
-254.39
-248.73
-225.90
-191.21
-151.57
-113.47
-81.42
-57.24
-40.35
-28.76
-20.13
-12.55
-4.92
3.03
10.88
17.90
23.37
26.83
28.24
27.96
26.77
25.43
24.48
24.02
23.66
22.58
19.90
14.95
7.45
-2.37
-13.85
-26.14
-38.53
-50.64
-62.47
-74.17
-85.78
-96.92
-106.92
-115.05
-120.94
-124.76
-127.25
-129.46
-132.44
-137.00
-143.60
-152.09
-161.55
-170.03
-174.68
-172.29
-160.37
-138.07
-106.79
-69.89
-31.66
3.88
34.03
57.66
74.96
86.79
94.09
97.60
98.00
96.06
92.77
89.24
86.50
85.20
85.50
87.13
89.48
91.90
93.77
94.68
94.42
92.84
89.83
85.21
78.77
70.41
60.30
48.89
36.96
25.37
14.80
5.61
-2.34
-9.50
-16.49
-23.89
-32.07
-41.16
-51.07
-61.61
-72.69
-84.40
-97.12
-111.28
-127.24
-144.97
-163.86
-182.51
-198.86
-210.46
-214.97
-210.76
-197.52
-176.44
-149.91
-120.82
-91.74
-64.47
-39.98
-18.82
-1.58
11.07
18.67
21.42
20.37
17.33
14.18
12.41
12.85
15.77
21.16
28.98
39.12
51.26
64.70
78.42
91.19
101.74
108.72
110.77
106.61
95.45
77.47
54.19
28.41
3.57
-17.26
-32.43
-42.21
-48.54
-54.15
-61.40
-71.29
-83.33
-95.88
-107.17
-116.26
-123.59
-130.75
-139.66
-151.36
-165.13
-178.33
-187.06
-187.68
-178.30
-159.50
-134.17
-106.29
-79.37
-55.33
-34.32
-15.48
1.96
17.76
30.76
39.49
43.26
42.80
40.31
38.69
40.58
47.59
59.88
76.43
95.45
114.73
131.76
143.85
148.55
144.53
132.31
114.60
95.59
79.65
69.85
67.14
70.46
77.65
86.57
95.73
104.01
110.13
112.14
107.53
93.84
69.49
34.60
-8.65
-56.19
-102.92
-144.22
-177.38
-202.37
-221.23
-236.51
-249.43
-259.02
-262.77
-258.37
-245.48
-226.36
-204.85
-184.53
-166.88
-150.94
-134.25
-114.54
-90.86
-63.78
-34.72
-5.26
23.24
49.52
72.32
90.66
104.34
114.28
122.19
129.80
138.00
146.42
153.92
159.32
162.05
162.08
159.49
153.85
144.30
130.09
111.47
90.03
68.41
49.27
34.31
23.52
15.23
6.91
-3.80
-18.06
-35.27
-53.22
-68.91
-79.69
-84.18
-82.59
-76.37
-67.40
-57.31
-46.99
-36.75
-26.66
-16.85
-7.63
0.59
7.60
13.47
18.70
24.13
30.90
40.28
53.40
70.98
92.63
116.75
140.35
159.72
171.62
174.62
170.23
163.06
159.59
165.83
184.66
214.05
247.45
276.22
293.17
295.57
285.92
270.41
255.85
246.97
245.13
249.02
256.31
265.19
274.85
285.02
295.06
303.54
308.60
308.66
303.07
292.40
277.70
260.19
240.81
220.35
199.82
180.65
164.33
151.74
142.52
134.83
125.87
112.98
94.63
70.87
42.97
12.64
-18.55
-49.20
-77.84
-102.63
-121.82
-134.45
-140.89
-142.81
-142.13
-140.00
-135.97
-128.30
-115.11
-95.67
-71.24
-44.90
-20.58
-1.82
9.02
11.10
4.88
-8.04
-25.16
-43.33
-59.16
-69.90
-74.24
-72.77
-67.72
-62.01
-58.06
-56.91
-58.24
-61.09
-64.82
-69.67
-76.37
-85.34
-95.69
-105.18
-110.83
-110.29
-102.78
-89.50
-73.08
-56.43
-41.96
-31.02
-24.17
-21.46
-22.79
-27.86
-36.07
-46.25
-56.89
-66.44
-73.73
-78.26
-80.10
-79.70
-77.55
-74.00
-69.36
-63.91
-58.08
-52.33
-47.04
-42.47
-38.69
-35.74
-33.84
-33.32
-34.59
-37.84
-42.96
-49.52
-56.93
-64.59
-72.08
-79.18
-85.92
-92.55
-99.51
-107.33
-116.47
-127.04
-138.57
-150.01
-159.78
-166.14
-167.63
-163.37
-153.30
-138.25
-119.76
-99.70
-79.90
-61.73
-45.91
-32.69
-22.04
-13.90
-8.36
-5.49
-5.21
-7.12
-10.54
-14.67
-18.87
-22.67
-25.89
-28.44
-30.32
-31.52
-32.04
-31.98
-31.44
-30.50
-29.08
-26.95
-23.76
-19.14
-12.86
-4.88
4.55
14.96
25.62
35.61
43.76
48.79
49.53
45.28
36.12
23.10
8.11
-6.52
-18.53
-26.24
-28.82
-26.28
-19.30
-9.07
2.95
15.19
26.14
34.59
39.91
42.12
41.95
40.60
39.42
39.61
41.81
46.00
51.50
57.26
62.09
65.11
65.94
64.70
61.88
58.14
54.11
50.32
47.11
44.61
42.73
41.13
39.29
36.69
32.96
28.07
22.36
16.45
11.02
6.54
3.16
0.54
-2.06
-5.46
-10.31
-16.64
-23.74
-30.19
-34.25
-34.42
-30.00
-21.30
-9.58
3.38
15.77
26.15
33.69
38.15
39.68
38.68
35.52
30.48
23.63
14.86
4.04
-8.77
-23.13
-38.16
-52.72
-65.68
-76.23
-84.17
-89.74
-93.50
-96.03
-97.81
-99.21
-100.54
-102.14
-104.46
-107.92
-112.91
-119.69
-128.35
-138.65
-150.04
-161.70
-172.85
-183.17
-193.12
-203.92
-217.10
-233.65
-253.11
-273.11
-289.57
-297.76
-293.65
-275.14
-242.64
-198.90
-148.24
-95.56
-45.33
-0.91
35.94
65.25
88.67
108.87
128.37
148.25
167.41
182.86
191.27
190.94
183.16
171.94
162.24
157.60
158.63
163.10
167.55
169.19
167.14
162.21
155.84
148.91
141.35
132.57
122.24
110.77
99.23
88.86
80.45
73.89
68.07
61.07
50.70
35.04
13.09
-14.76
-46.61
-79.43
-109.62
-133.79
-149.32
-154.70
-149.73
-135.49
-114.12
-88.46
-61.62
-36.37
-14.74
2.21
14.36
22.41
27.66
31.62
35.76
41.15
48.22
56.86
66.58
76.87
87.53
98.69
110.70
123.77
137.71
151.85
165.28
177.03
186.22
192.03
193.57
189.87
180.02
163.55
140.67
112.27
79.55
43.59
5.04
-35.75
-78.34
-121.84
-164.96
-206.40
-245.12
-280.33
-310.94
-334.95
-349.40
-351.08
-337.72
-309.20
-267.84
-217.86
-164.00
-110.33
-59.63
-13.58
26.63
59.75
84.51
100.08
106.82
106.77
103.45
101.03
103.12
111.53
125.68
142.71
158.49
169.12
172.27
168.07
158.93
148.46
139.86
134.59
131.74
128.55
121.56
107.89
86.05
55.97
18.66
-24.37
-71.16
-119.34
-166.24
-209.43
-247.44
-280.15
-308.31
-332.48
-351.79
-363.69
-364.73
-352.26
-325.76
-287.24
-240.22
-188.08
-133.09
-76.40
-19.31
35.59
84.04
121.31
144.04
151.83
147.36
135.15
119.56
103.32
87.31
71.44
55.92
42.00
31.62
26.28
25.99
28.81
31.64
31.59
27.20
18.90
8.60
-1.54
-10.19
-17.25
-23.61
-30.38
-38.06
-46.36
-54.52
-61.98
-69.02
-76.78
-86.81
-100.40
-117.98
-138.87
-161.24
-182.31
-198.65
-206.79
-203.95
-188.90
-162.56
-127.84
-88.76
-49.11
-11.41
23.27
54.61
82.12
104.67
120.84
129.83
132.27
130.32
126.88
124.68
125.58
130.59
140.22
154.63
173.33
194.58
215.11
230.68
237.19
232.17
215.49
189.38
157.45
123.62
91.15
62.11
37.39
16.71
-1.08
-17.69
-34.85
-53.65
-74.05
-94.85
-114.37
-131.31
-145.60
-158.46
-171.49
-185.49
-199.29
-209.77
-212.81
-204.99
-184.85
-153.44
-113.64
-69.12
-23.34
20.85
61.15
95.54
122.28
140.34
149.83
152.09
149.39
144.21
138.58
133.81
130.68
129.74
131.43
135.98
143.19
152.32
162.20
171.63
179.81
186.52
192.00
196.63
200.62
203.81
205.87
206.57
206.03
204.76
203.58
203.37
204.79
208.18
213.34
219.38
224.74
227.33
225.16
217.04
203.41
186.61
170.51
159.36
156.40
162.82
177.49
197.40
218.58
237.02
249.40
253.38
247.71
232.30
208.13
177.08
141.53
103.95
66.43
30.41
-3.39
-34.92
-64.77
-94.10
-124.40
-157.21
-193.49
-233.11
-274.51
-314.89
-350.69
-378.48
-396.07
-403.20
-401.95
-396.21
-390.56
-388.90
-393.35
-403.82
-418.32
-433.71
-446.68
-454.32
-454.64
-446.84
-431.47
-410.41
-386.30
-361.72
-338.13
-315.30
-291.46
-264.12
-231.12
-191.30
-144.70
-92.37
-36.23
20.86
75.13
122.21
158.07
180.27
188.96
187.14
179.70
171.90
167.60
168.28
172.97
179.19
184.30
186.69
186.20
183.75
180.35
176.31
170.93
162.98
151.69
137.50
122.13
107.82
96.22
87.49
80.26
72.37
62.00
48.49
32.55
15.75
-0.27
-14.63
-27.49
-39.97
-53.54
-69.23
-86.87
-104.76
-119.75
-128.05
-126.31
-112.82
-88.15
-55.02
-17.42
20.58
55.82
86.44
111.73
131.57
146.05
155.36
160.03
161.10
160.21
159.16
159.42
161.70
165.94
171.62
178.28
185.73
194.03
203.15
212.57
221.20
227.56
230.23
228.17
220.77
207.71
188.77
163.76
132.84
96.75
56.98
15.54
-25.42
-64.02
-98.89
-129.16
-154.33
-174.27
-189.32
-200.37
-208.86
-216.33
-223.86
-231.43
-237.78
-240.65
-237.50
-226.41
-206.69
-179.18
-146.05
-110.25
-74.85
-42.41
-14.57
8.04
25.59
38.73
48.17
54.45
57.92
58.95
58.23
56.91
56.42
58.08
62.64
69.96
79.09
88.59
97.08
103.60
107.83
109.97
110.48
109.78
108.10
105.45
101.72
96.82
90.73
83.50
75.21
65.93
55.67
44.37
31.84
17.71
1.40
-17.79
-40.44
-66.50
-94.84
-123.01
-147.49
-164.43
-170.80
-165.38
-149.22
-125.45
-98.28
-71.80
-48.90
-30.87
-17.56
-8.02
-1.27
3.34
6.03
6.81
5.78
3.39
0.37
-2.52
-4.62
-5.70
-5.87
-5.45
-4.72
-3.85
-2.87
-2.00
-1.79
-3.15
-7.26
-15.01
-26.61
-41.37
-57.78
-73.92
-88.04
-99.02
-106.66
-111.64
-115.18
-118.57
-122.68
-127.56
-132.39
-135.84
-136.52
-133.67
-127.54
-119.51
-111.65
-106.20
-104.80
-107.80
-113.75
-119.59
-121.13
-114.25
-96.35
-67.24
-29.40
12.86
54.74
92.31
123.32
147.26
164.73
176.79
184.45
188.52
189.68
188.48
185.39
180.74
174.88
168.29
161.60
155.59
150.89
147.85
146.38
146.05
146.30
146.52
146.25
145.13
142.93
139.49
134.69
128.47
120.79
111.68
101.27
89.84
77.78
65.51
53.30
41.17
28.87
16.02
2.45
-11.64
-25.63
-38.71
-50.20
-59.92
-68.38
-76.68
-86.25
-98.44
-114.04
-132.94
-153.82
-174.29
-191.33
-202.06
-204.66
-199.01
-186.70
-170.55
-153.52
-137.87
-124.67
-114.00
-105.51
-98.98
-94.69
-93.29
-95.40
-101.23
-110.39
-121.85
-134.24
-146.03
-155.78
-162.32
-164.85
-162.93
-156.41
-145.24
-129.54
-109.86
-87.48
-64.53
-43.70
-27.44
-17.12
-12.47
-11.73
-12.44
-12.46
-10.81
-7.70
-4.10
-0.94
1.41
3.14
4.78
6.70
8.84
10.69
11.34
9.70
4.86
-3.57
-15.12
-28.11
-39.83
-47.00
-46.70
-37.18
-18.60
6.94
35.79
63.55
86.16
100.62
105.59
101.47
90.18
74.59
57.81
42.62
30.98
23.85
21.31
22.79
27.32
33.83
41.30
49.01
56.49
63.52
69.98
75.63
79.97
82.33
82.00
78.47
71.60
61.71
49.52
36.05
22.43
9.71
-1.33
-10.36
-17.50
-23.21
-28.04
-32.44
-36.66
-40.75
-44.86
-49.39
-55.11
-63.02
-74.05
-88.47
-105.50
-122.96
-137.54
-145.41
-143.31
-129.57
-104.77
-71.69
-34.53
2.21
34.93
61.62
81.94
96.80
107.59
115.60
121.66
126.12
129.11
130.73
131.20
130.82
129.84
128.47
126.87
125.27
124.11
123.81
124.68
126.59
128.96
130.78
130.95
128.62
123.40
115.56
105.82
95.23
84.80
75.34
67.27
60.61
54.95
49.59
43.79
37.01
29.24
21.05
13.43
7.45
3.83
2.68
3.48
5.40
7.62
9.53
10.91
11.99
13.65
17.49
25.74
40.71
64.07
95.96
134.61
176.53
217.33
252.84
280.12
297.97
306.83
308.21
303.90
295.30
283.03
266.94
246.44
220.97
190.59
156.24
119.92
84.44
52.88
28.05
11.72
4.04
3.25
5.87
7.47
3.86
-7.57
-27.03
-52.13
-78.60
-101.75
-118.27
-127.57
-132.02
-135.94
-143.64
-157.34
-176.11
-196.34
-213.31
-223.20
-224.54
-218.37
-207.41
-194.75
-182.99
-173.88
-168.41
-166.85
-168.60
-171.85
-173.74
-171.07
-161.34
-143.81
-119.79
-92.20
-64.53
-39.71
-19.36
-3.76
7.84
16.63
23.70
29.83
35.33
40.19
44.18
47.10
48.88
49.68
49.83
49.76
49.81
50.14
50.63
50.91
50.46
48.64
44.89
38.83
30.35
19.69
7.46
-5.51
-18.29
-30.18
-40.84
-50.41
-59.40
-68.52
-78.33
-89.05
-100.43
-111.93
-122.90
-132.88
-141.76
-149.88
-157.93
-166.74
-177.12
-189.47
-203.49
-217.97
-230.73
-239.10
-240.58
-233.72
-218.72
-197.51
-173.25
-149.39
-128.72
-112.61
-100.95
-92.45
-85.39
-78.33
-70.56
-62.14
-53.64
-45.66
-38.48
-31.95
-25.47
-18.29
-9.80
0.17
11.20
22.24
31.81
38.34
40.75
38.95
34.01
27.91
22.94
20.84
22.37
27.12
33.79
40.67
46.15
49.08
48.97
45.90
40.33
32.62
22.86
11.01
-2.77
-17.64
-32.00
-43.82
-51.34
-53.80
-51.57
-46.04
-39.14
-32.99
-29.70
-31.02
-37.69
-48.66
-60.60
-68.40
-66.59
-51.29
-21.83
18.95
65.45
110.97
149.25
175.61
187.40
184.17
167.56
141.02
109.23
77.17
49.01
27.36
13.04
5.42
3.04
4.25
7.52
11.41
14.55
15.64
13.76
8.66
0.98
-8.04
-16.93
-24.54
-30.38
-34.53
-37.44
-39.62
-41.49
-43.44
-45.85
-49.10
-53.41
-58.74
-64.72
-70.85
-76.80
-82.68
-89.24
-97.59
-108.79
-123.15
-139.61
-155.59
-167.33
-170.80
-162.94
-142.72
-111.70
-73.63
-33.47
3.98
35.40
59.42
76.51
88.15
95.89
100.67
102.68
101.82
98.32
93.18
88.12
85.01
85.15
88.78
95.13
102.86
110.60
117.26
122.07
124.45
123.98
120.54
114.60
107.13
99.42
92.58
87.21
83.20
79.89
76.27
71.28
63.96
53.77
40.85
26.12
11.19
-2.23
-13.11
-21.80
-30.15
-41.16
-57.96
-82.59
-114.78
-151.48
-187.23
-215.46
-230.42
-228.77
-210.39
-178.08
-136.27
-89.78
-42.82
1.34
40.31
72.59
97.70
116.32
130.08
140.99
150.58
159.50
167.53
174.27
179.70
184.47
189.66
196.30
204.89
215.34
227.06
239.31
251.28
262.36
271.98
279.80
285.64
289.54
291.77
292.60
292.20
290.54
287.41
282.58
275.96
267.81
258.74
249.66
241.61
235.55
232.09
231.23
232.20
233.47
233.04
228.93
219.74
205.12
185.80
163.35
139.55
115.74
92.49
69.64
46.60
22.99
-1.14
-25.23
-48.58
-70.79
-92.05
-113.12
-134.96
-158.38
-183.80
-211.31
-240.77
-271.73
-303.26
-333.80
-361.28
-383.80
-400.38
-411.43
-418.44
-423.11
-426.10
-426.49
-422.06
-410.37
-390.23
-362.58
-330.33
-297.27
-266.62
-239.97
-217.20
-197.21
-178.85
-161.69
-146.04
-132.35
-120.58
-110.08
-99.96
-89.90
-80.63
-73.81
-71.11
-72.99
-77.88
-82.33
-81.96
-72.99
-53.61
-24.52
11.39
50.04
87.46
120.59
147.62
167.83
181.24
188.25
189.68
186.61
180.43
172.64
164.61
157.41
151.81
148.25
146.92
147.74
150.34
154.03
157.77
160.25
160.07
155.94
146.95
132.85
114.26
92.67
70.15
48.91
30.77
16.66
6.52
-0.69
-6.44
-12.20
-18.93
-26.83
-35.46
-44.15
-52.40
-60.27
-68.40
-77.74
-89.18
-103.07
-119.00
-135.73
-151.33
-163.57
-170.37
-170.26
-162.69
-148.18
-128.23
-104.99
-80.91
-58.35
-39.20
-24.57
-14.71
-9.05
-6.47
-5.75
-5.91
-6.34
-6.62
-6.22
-4.34
0.08
8.05
20.33
37.26
58.97
85.40
116.22
150.25
185.00
216.51
239.98
251.20
248.03
231.41
205.08
174.30
143.99
117.31
95.13
76.52
59.81
43.51
26.77
9.17
-9.59
-29.93
-52.22
-76.51
-102.29
-128.49
-153.80
-177.12
-198.05
-217.18
-235.93
-255.86
-277.76
-300.78
-322.20
-338.06
-344.26
-337.90
-318.11
-286.14
-244.95
-198.35
-150.34
-104.41
-63.22
-28.20
0.41
23.34
41.65
56.13
67.08
74.55
79.01
81.82
85.15
91.28
101.84
117.28
136.88
159.23
182.67
205.44
225.71
241.60
251.42
254.04
249.15
237.26
219.28
196.11
168.36
136.54
101.46
64.49
27.57
-7.29
-38.51
-65.30
-87.76
-106.79
-123.78
-140.45
-158.42
-178.91
-202.31
-228.02
-254.50
-279.64
-301.19
-317.15
-325.98
-326.69
-318.91
-302.89
-279.52
-250.07
-215.87
-178.00
-137.30
-94.70
-51.74
-10.75
25.37
53.93
73.34
83.63
86.43
84.40
80.36
76.72
75.10
76.33
80.54
87.27
95.64
104.46
112.49
118.64
122.22
123.01
121.23
117.48
112.54
107.11
101.61
95.95
89.58
81.62
71.36
58.66
44.23
29.49
16.18
5.78
-1.00
-4.34
-5.21
-5.09
-5.70
-8.69
-15.30
-25.73
-38.65
-51.00
-58.41
-56.31
-41.36
-12.63
28.04
76.59
128.01
177.64
222.27
260.47
292.40
319.25
342.37
362.71
380.35
394.54
404.14
408.12
406.16
398.78
387.01
371.95
354.30
334.25
311.80
287.08
260.54
232.84
204.53
175.75
146.30
115.95
84.80
53.50
23.18
-4.93
-29.82
-50.98
-68.47
-82.74
-94.58
-104.93
-114.77
-124.87
-135.52
-146.44
-156.88
-166.02
-173.42
-179.36
-184.84
-191.29
-200.07
-211.88
-226.41
-242.05
-256.13
-265.45
-267.05
-259.21
-241.96
-217.24
-188.27
-158.59
-131.13
-107.64
-88.66
-73.97
-63.12
-55.92
-52.58
-53.66
-59.72
-70.85
-86.14
-103.45
-119.61
-131.24
-135.82
-132.66
-123.05
-109.72
-95.68
-83.09
-72.81
-64.50
-57.30
-50.47
-43.62
-36.58
-29.09
-20.62
-10.51
1.52
15.04
28.72
40.66
49.02
52.73
51.90
47.81
42.34
37.22
33.39
30.72
28.27
24.84
19.65
12.70
4.86
-2.24
-6.58
-5.89
2.09
19.21
46.49
83.41
127.58
174.79
219.77
257.50
284.24
298.20
299.32
288.62
267.64
238.28
203.02
165.10
128.19
95.48
68.77
47.85
30.97
15.91
1.26
-13.04
-25.92
-36.33
-44.31
-51.56
-60.98
-75.40
-96.16
-122.27
-150.64
-177.28
-199.03
-214.87
-226.09
-235.38
-245.12
-256.01
-266.82
-275.15
-279.05
-278.19
-274.15
-269.64
-267.04
-267.15
-268.59
-268.39
-263.11
-250.27
-229.35
-201.99
-171.44
-141.47
-115.28
-94.78
-80.26
-70.47
-63.14
-55.67
-45.95
-33.19
-18.29
-3.77
7.05
11.34
8.06
-1.49
-14.01
-25.52
-32.92
-34.84
-31.62
-24.52
-14.64
-2.55
11.56
27.15
42.79
56.21
65.03
67.64
63.91
55.08
43.10
29.84
16.51
3.70
-8.41
-19.74
-30.20
-39.77
-48.50
-56.48
-63.68
-69.96
-75.27
-80.07
-85.43
-92.64
-102.41
-113.97
-124.77
-131.09
-129.45
-118.14
-98.02
-72.21
-44.73
-18.89
3.72
23.18
40.43
56.13
70.02
81.01
87.94
90.46
89.47
87.09
85.98
88.57
96.27
109.19
126.21
145.44
164.72
182.20
196.69
207.74
215.53
220.51
223.04
223.17
220.65
215.09
206.12
193.50
177.09
157.08
134.29
110.58
88.82
72.22
63.18
62.05
66.71
73.17
77.24
76.18
69.61
59.16
47.14
35.17
23.51
11.37
-2.20
-17.54
-34.14
-50.99
-67.08
-81.63
-93.93
-103.06
-107.79
-106.74
-98.97
-84.34
-63.75
-38.98
-12.30
13.88
37.38
56.60
71.01
81.43
90.02
99.70
113.00
130.98
152.60
174.98
194.43
207.77
213.27
210.93
202.06
188.55
172.11
153.99
134.90
115.09
94.43
72.36
47.87
19.75
-12.96
-50.30
-90.90
-132.03
-170.11
-201.63
-224.19
-237.06
-241.27
-239.11
-233.61
-227.86
-224.63
-225.83
-232.03
-241.91
-252.30
-258.63
-256.19
-241.54
-213.68
-174.38
-127.63
-78.45
-31.53
9.90
44.42
72.31
94.80
113.22
128.40
140.38
148.79
153.44
154.90
154.64
154.52
156.00
159.30
163.23
165.66
164.59
159.17
150.24
140.04
131.27
126.01
125.10
128.02
133.50
140.14
146.93
153.32
158.92
163.34
166.08
166.65
164.85
160.82
154.97
147.64
138.97
128.81
116.99
103.39
88.03
70.97
52.11
31.25
8.07
-17.45
-44.77
-72.51
-98.55
-120.16
-134.60
-139.69
-134.46
-119.54
-97.17
-70.71
-43.87
-19.86
-0.79
12.44
19.88
22.21
20.41
15.66
9.24
2.38
-4.01
-9.53
-14.40
-19.22
-24.54
-30.45
-36.47
-41.81
-45.90
-48.89
-51.74
-56.02
-63.27
-74.34
-88.95
-105.55
-121.67
-134.42
-141.24
-140.44
-131.65
-115.89
-95.27
-72.52
-50.36
-30.95
-15.62
-4.86
1.52
4.17
4.01
2.24
0.23
-0.53
1.28
6.40
14.68
24.93
35.15
43.02
46.46
44.30
36.76
25.72
14.42
6.75
5.97
13.58
28.73
48.58
69.43
88.20
103.47
115.49
125.34
133.86
140.94
145.66
147.01
144.75
139.77
133.73
128.24
124.15
121.20
118.32
114.19
107.89
99.07
87.72
73.65
56.08
33.75
5.44
-29.14
-68.89
-111.42
-153.71
-193.05
-227.46
-255.75
-276.93
-289.89
-293.54
-287.53
-272.93
-252.51
-229.99
-208.99
-191.83
-179.22
-170.68
-165.58
-163.80
-165.73
-171.48
-179.88
-187.91
-191.23
-185.51
-168.14
-139.40
-102.58
-62.87
-25.77
4.59
26.30
39.70
46.62
49.31
49.66
48.72
46.81
43.85
39.87
35.34
31.24
28.73
28.63
31.07
35.35
40.37
45.06
48.94
52.14
55.03
57.83
60.27
61.74
61.67
59.91
56.80
53.03
49.22
45.66
42.27
38.83
35.33
32.10
29.72
28.70
29.23
31.13
34.07
37.85
42.57
48.49
55.65
63.51
70.89
76.47
79.48
80.47
81.40
85.17
94.55
111.25
135.21
164.65
196.60
227.75
255.23
277.18
292.78
302.11
305.61
303.56
295.79
281.82
261.27
234.35
202.10
166.21
128.41
90.07
52.04
14.99
-20.39
-53.23
-82.89
-109.32
-133.19
-155.56
-177.30
-198.63
-219.15
-238.38
-256.18
-273.01
-289.40
-305.30
-319.64
-330.58
-336.43
-336.53
-331.74
-323.98
-315.40
-307.30
-299.67
-291.37
-280.97
-267.66
-251.71
-234.47
-217.87
-203.94
-194.45
-190.67
-192.97
-200.44
-210.55
-219.39
-222.56
-216.44
-199.20
-171.14
-134.23
-91.38
-45.73
-0.38
41.68
77.76
106.01
125.98
139.05
147.94
155.84
165.29
177.60
192.97
211.09
231.67
254.51
279.22
304.70
328.89
348.95
361.68
364.20
354.36
331.09
294.46
245.75
187.44
123.25
57.87
-3.59
-56.57
-97.98
-126.92
-144.86
-155.08
-161.67
-168.40
-177.83
-190.92
-207.17
-225.26
-243.66
-261.12
-276.86
-290.36
-301.06
-308.00
-309.85
-305.18
-293.03
-273.24
-246.55
-214.25
-177.88
-138.85
-98.55
-58.37
-19.74
16.04
48.16
76.36
100.98
122.64
141.94
159.27
174.66
187.90
198.70
207.01
213.20
218.09
222.64
227.47
232.40
236.26
237.30
233.97
225.86
213.98
200.44
187.42
176.09
166.00
155.27
141.33
121.91
95.77
62.89
24.44
-17.53
-60.42
-101.29
-137.26
-165.94
-186.04
-197.79
-203.01
-204.66
-206.02
-209.58
-216.24
-224.78
-232.11
-233.93
-225.96
-205.19
-171.01
-125.61
-73.59
-20.83
26.97
65.65
93.21
109.83
117.33
118.53
116.73
115.19
116.62
122.50
132.64
145.13
156.99
165.32
168.36
166.10
160.09
152.65
145.91
141.19
138.69
137.81
137.37
135.89
131.84
123.88
111.23
93.96
73.21
50.96
29.62
11.27
-2.97
-13.21
-20.65
-26.96
-33.48
-40.69
-48.15
-54.95
-60.40
-64.66
-68.84
-74.72
-83.98
-97.44
-114.40
-132.60
-148.52
-158.24
-158.45
-147.33
-125.10
-94.01
-57.82
-20.88
12.88
40.74
61.62
75.91
85.04
90.73
94.45
97.21
99.65
102.31
105.92
111.37
119.41
130.40
144.11
159.87
176.86
194.31
211.63
228.23
243.29
255.77
264.43
268.22
266.46
258.97
246.08
228.53
207.33
183.62
158.49
132.83
107.29
82.31
58.32
35.89
15.59
-2.20
-17.67
-31.77
-46.11
-62.41
-81.74
-103.88
-127.11
-148.53
-164.88
-173.31
-172.01
-160.47
-139.50
-111.00
-77.64
-42.66
-9.44
18.92
39.96
52.22
55.39
50.26
38.54
22.51
4.61
-12.87
-28.26
-40.69
-50.08
-56.85
-61.41
-63.61
-62.59
-56.93
-45.34
-27.32
-3.74
23.13
50.21
74.43
93.57
106.66
113.82
115.87
113.67
107.84
98.63
85.99
69.66
49.23
24.53
-4.11
-35.48
-67.44
-97.48
-123.54
-144.83
-162.19
-177.40
-192.00
-206.03
-217.46
-222.83
-218.75
-203.49
-177.87
-145.01
-108.97
-73.25
-39.71
-8.55
20.91
49.03
75.28
98.33
116.96
131.03
141.71
151.01
160.85
172.15
184.46
196.15
204.98
208.76
205.82
195.24
176.90
151.42
120.00
84.35
46.65
9.40
-24.95
-54.62
-79.10
-99.27
-116.97
-133.84
-150.19
-164.41
-173.68
-175.56
-169.74
-158.67
-146.85
-138.90
-137.64
-143.16
-153.24
-164.81
-175.30
-183.33
-188.53
-190.84
-189.97
-185.39
-176.80
-164.59
-150.05
-134.91
-120.70
-108.04
-96.63
-85.52
-73.87
-61.39
-48.51
-36.22
-25.72
-18.10
-14.11
-14.06
-17.59
-23.77
-31.25
-38.49
-44.14
-47.12
-46.79
-42.95
-35.95
-26.75
-16.88
-8.03
-1.45
2.54
4.76
6.60
9.18
12.48
15.27
15.64
12.11
4.53
-5.73
-16.38
-25.33
-31.63
-35.86
-39.77
-45.46
-54.33
-66.49
-80.68
-94.63
-105.70
-111.49
-110.31
-101.45
-85.29
-63.40
-38.33
-13.15
9.26
26.87
39.01
46.17
49.56
50.39
49.43
47.00
43.35
39.03
35.02
32.55
32.70
36.18
43.28
53.90
67.53
83.00
98.44
111.36
119.29
120.73
115.84
106.69
96.51
88.57
84.96
86.09
90.95
97.77
104.83
110.79
114.71
115.89
113.97
109.04
101.76
93.17
84.25
75.43
66.28
55.74
42.75
26.82
8.51
-10.66
-28.66
-43.54
-54.04
-59.83
-61.58
-60.64
-58.62
-56.92
-56.46
-57.60
-60.16
-63.41
-66.18
-67.10
-65.07
-59.94
-52.67
-45.10
-39.06
-35.36
-33.56
-32.43
-30.99
-29.47
-29.37
-32.51
-39.74
-50.04
-60.85
-69.31
-73.77
-74.61
-73.85
-74.02
-76.80
-82.43
-89.85
-97.56
-104.54
-110.53
-115.92
-121.15
-126.37
-131.42
-136.30
-141.59
-148.66
-159.08
-173.67
-191.62
-210.07
-224.73
-231.12
-226.18
-209.12
-181.51
-146.36
-107.00
-66.18
-25.88
12.35
47.00
76.44
99.26
114.66
122.76
124.56
121.63
115.84
109.22
103.77
101.35
103.27
109.95
120.74
134.13
148.22
161.19
171.64
178.56
181.32
179.63
173.53
163.50
150.36
135.10
118.64
101.63
84.48
67.50
51.01
35.44
21.17
8.39
-3.13
-14.18
-26.04
-40.10
-57.22
-76.82
-96.37
-111.43
-116.68
-107.53
-81.79
-40.60
11.85
69.51
126.09
176.45
217.23
247.07
266.42
277.28
282.81
286.46
290.95
297.10
303.43
306.59
302.82
289.50
266.27
235.04
199.04
161.68
125.62
92.58
63.56
39.16
19.72
5.12
-5.35
-13.05
-19.55
-26.06
-32.94
-39.58
-44.80
-47.50
-47.25
-44.54
-40.46
-36.19
-32.48
-29.53
-27.22
-25.74
-25.96
-29.45
-37.98
-52.70
-73.36
-98.04
-123.52
-145.98
-161.94
-169.02
-166.39
-154.80
-136.41
-114.14
-91.07
-69.73
-51.63
-37.24
-26.29
-18.22
-12.62
-9.38
-8.67
-10.74
-15.77
-23.64
-33.85
-45.41
-56.95
-66.73
-73.13
-75.04
-72.38
-66.16
-58.20
-50.51
-44.76
-41.86
-41.93
-44.48
-48.71
-53.66
-58.36
-62.03
-64.18
-64.75
-64.05
-62.61
-60.86
-58.91
-56.59
-53.75
-50.57
-47.55
-45.27
-43.74
-41.94
-37.85
-29.08
-13.91
7.76
34.12
61.97
87.76
108.63
122.99
130.56
131.91
128.00
119.84
108.30
94.10
77.73
59.49
39.62
18.51
-2.93
-23.23
-40.56
-53.14
-59.78
-60.02
-54.11
-42.74
-26.87
-7.69
13.38
34.66
54.47
71.44
85.01
95.57
104.43
113.41
124.28
138.17
155.14
174.05
192.60
207.76
216.43
216.25
206.35
187.92
164.03
138.94
116.68
99.65
87.65
77.92
66.16
47.96
20.21
-17.98
-64.92
-116.55
-167.15
-210.43
-241.12
-256.35
-256.44
-244.50
-224.96
-201.79
-177.25
-151.98
-125.95
-99.63
-74.39
-51.77
-32.24
-14.62
3.54
24.59
49.45
77.09
105.13
131.02
153.09
170.80
184.26
193.48
198.02
197.20
190.77
179.48
165.22
150.40
137.19
126.75
119.11
113.56
109.12
104.82
99.62
92.17
81.00
64.90
43.62
18.31
-8.67
-34.33
-55.63
-69.89
-74.76
-68.26
-49.06
-17.25
25.01
73.26
121.47
163.31
193.73
210.01
211.98
201.53
181.63
155.45
125.65
94.11
62.06
30.32
-0.63
-30.46
-59.27
-87.65
-116.57
-147.14
-180.40
-217.20
-258.10
-303.06
-350.93
-398.97
-442.87
-477.62
-498.98
-505.07
-496.83
-477.23
-449.57
-415.97
-377.18
-333.64
-286.97
-240.58
-198.75
-164.61
-138.49
-117.98
-99.52
-80.82
-62.14
-45.84
-34.69
-29.79
-29.96
-32.59
-35.14
-36.17
-35.23
-31.97
-25.43
-14.01
3.59
27.50
56.10
86.41
115.13
139.71
159.10
173.76
185.03
194.21
201.93
207.98
211.63
212.14
208.84
200.79
186.23
162.67
127.88
81.57
26.89
-29.60
-79.54
-115.63
-134.30
-136.77
-128.25
-115.62
-105.05
-100.48
-103.18
-112.21
-125.32
-139.81
-153.17
-163.52
-169.88
-172.21
-171.44
-169.26
-167.84
-169.31
-174.81
-183.67
-193.05
-198.47
-195.20
-179.96
-152.21
-114.30
-70.38
-24.80
19.32
60.48
98.25
132.09
160.59
181.49
192.51
192.43
181.91
163.43
140.71
117.59
97.19
81.39
70.96
65.90
65.76
69.94
77.70
88.15
100.22
112.65
123.97
132.52
136.42
133.95
123.93
106.33
82.55
55.36
28.34
4.94
-12.40
-22.77
-26.67
-25.59
-21.34
-15.63
-9.96
-5.78
-4.53
-7.50
-15.26
-26.98
-40.04
-50.24
-52.71
-43.49
-20.93
13.43
55.15
98.10
136.35
165.87
185.47
196.82
203.30
208.53
214.96
223.15
231.88
239.00
242.48
241.14
234.91
224.42
210.46
193.63
174.42
153.55
132.28
112.37
95.61
83.14
75.01
70.23
67.38
65.29
63.60
62.70
63.26
65.42
68.49
71.13
72.07
70.91
68.34
65.60
63.52
61.66
58.08
50.01
34.83
10.91
-22.17
-63.64
-111.41
-161.62
-208.44
-244.75
-263.97
-262.59
-242.01
-208.56
-171.38
-139.19
-117.34
-106.53
-103.52
-103.32
-101.63
-96.47
-88.59
-80.54
-75.27
-74.65
-78.57
-84.85
-90.08
-91.15
-86.42
-76.34
-63.05
-49.38
-37.69
-29.30
-24.57
-23.31
-25.22
-30.03
-37.37
-46.52
-56.28
-65.07
-71.39
-74.30
-73.78
-70.76
-66.79
-63.69
-62.97
-65.43
-70.83
-77.93
-84.83
-89.40
-89.94
-85.42
-75.58
-60.57
-40.68
-16.38
11.31
40.37
67.70
89.73
103.61
108.51
106.03
99.61
92.97
88.46
86.26
84.62
81.19
74.42
64.39
52.66
41.51
32.85
27.77
26.45
28.36
32.53
37.61
41.94
43.79
41.90
35.93
26.75
16.02
5.48
-3.76
-11.62
-18.85
-26.32
-34.29
-42.04
-48.26
-51.86
-53.02
-53.72
-57.46
-68.16
-88.55
-118.66
-155.31
-192.64
-223.70
-242.57
-245.92
-233.77
-209.03
-176.28
-140.33
-105.02
-72.68
-44.02
-18.66
4.26
25.45
44.84
61.44
73.53
79.55
79.18
74.11
67.99
65.37
70.04
83.77
105.86
133.93
165.14
197.09
227.94
255.84
278.25
291.96
294.04
283.07
259.89
227.38
189.27
148.92
108.72
70.33
35.25
5.19
-18.27
-34.27
-43.12
-46.06
-44.59
-39.86
-32.68
-24.04
-15.76
-10.42
-10.53
-17.03
-28.28
-40.16
-47.40
-45.64
-33.26
-12.13
12.90
35.67
50.85
55.64
50.45
38.34
23.39
9.03
-2.93
-12.17
-18.88
-22.86
-23.45
-20.16
-13.59
-5.58
1.24
4.46
2.39
-5.93
-21.07
-43.08
-70.71
-100.69
-127.76
-145.98
-150.86
-141.01
-118.35
-86.90
-50.72
-12.62
25.80
63.27
97.76
126.52
146.90
157.46
158.45
151.32
137.61
117.99
92.27
60.17
22.31
-19.08
-60.40
-97.42
-126.44
-144.93
-151.95
-148.08
-135.21
-116.21
-94.29
-72.26
-51.80
-33.14
-15.45
2.18
19.78
36.07
48.94
56.66
58.98
57.42
54.59
52.86
53.35
55.55
57.89
58.84
57.72
54.98
51.78
49.17
47.42
45.85
43.26
38.61
31.57
22.73
13.26
4.48
-2.57
-7.34
-9.96
-11.34
-13.24
-18.13
-28.37
-45.20
-67.61
-92.22
-114.17
-128.95
-134.46
-132.09
-126.42
-123.33
-127.60
-140.74
-160.39
-181.25
-197.17
-203.42
-198.21
-182.98
-161.47
-138.23
-117.06
-100.04
-87.23
-77.05
-67.06
-54.70
-38.14
-16.80
8.21
34.06
56.82
72.48
78.41
74.51
63.56
50.42
40.54
38.05
44.55
58.66
76.84
94.81
108.96
117.23
119.33
116.19
109.40
100.50
90.66
80.53
70.44
60.64
51.50
43.60
37.43
33.06
29.91
26.99
23.46
19.20
14.96
11.93
10.76
10.78
9.76
4.57
-7.47
-27.31
-53.25
-81.08
-105.07
-119.58
-120.79
-107.84
-83.27
-52.24
-21.11
4.53
21.40
29.10
29.48
25.14
18.06
8.76
-3.51
-19.93
-41.09
-66.30
-93.50
-119.39
-140.00
-151.37
-150.29
-135.34
-107.56
-70.62
-30.04
8.16
39.08
59.79
69.41
68.21
56.69
34.98
3.11
-38.28
-87.24
-140.13
-192.18
-238.32
-274.19
-296.71
-304.36
-297.21
-276.90
-246.64
-211.05
-175.46
-144.92
-123.11
-111.66
-110.03
-116.10
-126.81
-138.65
-148.05
-151.64
-146.63
-131.54
-106.66
-73.91
-36.06
4.36
45.69
87.08
127.80
166.42
200.57
227.36
244.28
249.99
244.62
229.56
206.74
178.13
145.49
110.59
75.74
44.04
19.08
4.11
0.91
9.29
27.08
50.90
76.95
101.80
122.57
137.21
144.76
145.66
141.78
136.02
131.37
129.82
131.73
135.86
139.92
141.43
138.22
128.59
111.32
85.62
51.21
8.73
-40.16
-92.74
-145.48
-194.59
-236.48
-268.31
-288.18
-295.25
-289.62
-272.29
-245.07
-210.30
-170.50
-127.63
-82.83
-36.52
10.79
57.59
101.06
137.65
164.31
179.86
185.27
183.10
176.24
166.77
155.62
142.98
129.20
115.32
103.01
93.96
89.10
88.33
90.61
94.47
98.53
101.68
103.19
102.69
100.07
95.47
89.16
81.42
72.42
62.15
50.52
37.59
23.63
9.16
-5.31
-19.36
-32.86
-45.91
-58.81
-72.00
-86.05
-101.56
-118.86
-137.49
-155.75
-170.62
-178.29
-175.13
-159.02
-130.18
-91.36
-47.15
-2.73
37.51
70.76
95.96
113.29
123.42
127.00
124.58
116.98
105.65
92.82
81.21
73.15
70.00
71.71
77.09
84.38
91.85
98.19
102.56
104.62
104.53
102.97
100.81
98.45
95.30
89.33
77.76
58.22
30.27
-3.92
-40.00
-73.01
-99.36
-118.04
-130.64
-140.26
-150.05
-162.08
-177.01
-194.23
-212.19
-228.62
-240.66
-245.16
-239.32
-221.49
-191.98
-153.21
-109.29
-65.00
-24.64
8.91
34.57
52.94
65.70
74.77
81.58
86.71
89.85
90.38
87.98
83.20
77.57
73.15
71.93
75.15
82.83
93.84
106.18
117.54
125.86
129.81
129.02
124.00
115.95
106.28
96.15
86.22
76.45
66.38
55.32
42.88
29.08
14.45
-0.21
-14.14
-27.01
-39.06
-51.18
-64.70
-80.90
-100.31
-122.05
-143.50
-160.42
-168.06
-162.49
-142.02
-107.96
-64.32
-16.81
28.84
68.16
98.68
119.98
133.01
139.47
141.12
139.36
135.18
129.17
121.78
113.46
104.90
96.96
90.52
86.29
84.50
84.89
86.72
88.97
90.56
90.54
88.33
83.77
77.09
68.82
59.52
49.63
39.32
28.53
17.14
5.15
-7.27
-19.76
-31.96
-43.69
-55.00
-66.34
-78.49
-92.25
-108.08
-125.45
-142.40
-155.57
-160.85
-154.62
-135.09
-103.15
-62.31
-17.79
25.06
62.07
90.99
111.40
124.10
130.35
131.34
128.11
121.58
112.76
102.71
92.49
82.96
74.78
68.37
63.97
61.73
61.56
63.12
65.67
68.14
69.34
68.17
63.94
56.54
46.35
34.12
20.71
6.90
-6.80
-20.01
-32.56
-44.29
-55.08
-64.83
-73.60
-81.59
-89.30
-97.53
-107.34
-119.84
-135.71
-154.56
-174.39
-191.60
-201.64
-200.32
-185.27
-156.92
-118.57
-75.46
-33.32
3.16
31.19
49.95
60.17
63.34
61.17
55.34
47.39
38.75
30.64
23.89
18.88
15.57
13.67
12.97
13.53
15.69
19.84
26.05
33.81
41.96
48.93
53.19
53.75
50.51
44.26
36.38
28.39
21.40
15.71
10.89
6.00
0.15
-7.06
-15.34
-23.91
-31.84
-38.53
-44.07
-49.21
-55.19
-63.39
-74.81
-89.58
-106.47
-122.82
-134.79
-138.36
-130.43
-110.06
-78.89
-40.78
-0.69
36.65
67.92
91.62
107.79
117.41
121.72
121.86
118.77
113.28
106.28
98.72
91.57
85.71
81.76
79.92
79.94
81.28
83.24
85.21
86.82
87.86
88.13
87.25
84.58
79.46
71.55
61.15
49.28
37.37
26.73
18.01
11.02
4.84
-1.65
-9.28
-18.17
-27.72
-36.82
-44.34
-49.49
-52.19
-53.14
-53.74
-55.84
-61.40
-71.87
-87.50
-106.83
-126.52
-142.01
-148.75
-143.70
-126.50
-99.69
-67.85
-36.06
-8.28
13.57
29.55
40.89
48.91
54.42
57.51
58.03
56.05
52.33
48.24
45.47
45.60
49.57
57.59
69.07
82.84
97.38
110.86
121.40
127.37
127.96
123.57
115.85
107.20
99.97
95.68
94.73
96.48
99.72
103.25
106.23
108.48
110.45
113.20
117.85
124.99
134.00
142.71
147.83
145.88
134.20
111.64
78.75
37.65
-7.97
-53.04
-91.60
-117.98
-128.59
-123.47
-106.76
-85.58
-67.62
-58.55
-60.33
-71.23
-87.32
-104.55
-120.34
-133.95
-145.92
-156.84
-166.46
-173.64
-176.91
-175.38
-169.35
-160.17
-149.62
-139.05
-128.91
-118.96
-108.86
-98.81
-89.74
-82.92
-79.29
-78.94
-81.02
-84.12
-86.91
-88.68
-89.53
-90.13
-91.22
-93.17
-95.76
-98.26
-99.94
-100.45
-100.18
-100.34
-102.66
-108.73
-119.25
-133.37
-148.41
-160.28
-164.51
-157.59
-138.23
-107.81
-70.03
-29.80
8.18
40.50
65.51
83.18
94.54
101.09
104.35
105.59
105.73
105.39
104.95
104.74
105.20
106.97
110.72
117.04
126.17
137.94
151.77
166.80
182.11
196.89
210.67
223.44
235.68
248.27
262.14
277.85
295.07
312.45
327.80
338.70
343.23
340.58
331.12
316.03
296.68
274.15
249.01
221.68
192.78
163.36
134.56
107.27
81.43
56.09
29.64
0.42
-32.87
-70.93
-113.61
-159.32
-204.59
-244.20
-272.19
-283.80
-277.24
-254.52
-220.68
-181.96
-143.89
-110.24
-83.04
-63.27
-51.52
-47.97
-52.07
-62.23
-75.90
-90.00
-101.62
-108.75
-110.98
-109.88
-108.74
-111.29
-119.92
-134.16
-150.48
-163.63
-169.14
-165.58
-155.50
-144.25
-137.52
-138.77
-147.90
-161.64
-175.26
-184.73
-187.97
-185.01
-177.06
-165.42
-150.79
-133.23
-112.76
-89.98
-66.41
-44.51
-27.13
-16.86
-15.16
-21.77
-34.70
-50.74
-66.38
-78.81
-86.44
-88.70
-85.58
-77.06
-63.17
-44.58
-23.06
-1.49
16.96
29.88
36.38
37.11
33.67
27.96
21.64
16.07
12.28
10.98
12.43
16.48
22.60
30.00
37.79
45.19
51.35
55.33
56.03
52.48
44.15
31.45
15.83
-0.48
-15.26
-27.11
-35.94
-42.79
-49.15
-56.03
-63.49
-70.89
-77.60
-83.77
-90.51
-99.23
-110.47
-123.12
-134.19
-139.63
-135.63
-119.80
-91.96
-53.98
-9.20
38.35
84.60
125.87
159.03
181.76
192.72
191.82
180.46
161.54
139.21
118.24
103.08
96.75
100.02
111.25
127.05
143.54
157.70
168.15
175.11
179.70
183.05
185.64
187.28
187.31
185.06
180.08
172.28
161.85
149.06
134.05
116.45
95.24
68.58
34.25
-9.81
-64.43
-128.31
-197.49
-265.56
-324.69
-367.40
-388.66
-387.75
-369.03
-340.89
-313.10
-293.42
-284.90
-285.22
-288.22
-286.83
-275.79
-253.28
-220.61
-180.96
-137.80
-94.07
-52.05
-13.73
18.98
44.62
62.75
74.31
81.54
87.33
94.45
104.80
119.13
136.96
157.00
177.69
197.77
216.60
234.21
250.95
266.89
281.43
293.02
299.46
298.67
289.47
272.41
249.77
225.13
202.22
183.73
170.50
161.33
153.63
144.57
132.15
115.77
96.30
75.44
54.99
36.10
18.92
2.63
-14.30
-33.39
-55.51
-80.34
-106.22
-130.65
-150.95
-165.12
-172.30
-172.82
-167.69
-158.14
-145.26
-130.01
-113.41
-96.66
-80.99
-67.38
-56.26
-47.34
-39.71
-32.11
-23.26
-12.09
2.02
19.25
39.28
61.42
84.72
108.11
130.44
150.64
167.66
180.57
188.70
191.68
189.45
182.01
169.25
150.79
126.26
95.77
60.47
22.60
-14.88
-49.22
-78.85
-103.99
-126.57
-149.52
-175.79
-207.33
-244.52
-286.00
-328.77
-368.66
-400.92
-421.17
-426.37
-415.58
-390.23
-353.65
-310.03
-263.11
-215.37
-167.71
-119.94
-71.66
-22.98
25.13
71.15
113.55
151.40
184.61
213.72
239.51
262.47
282.49
298.76
310.06
315.22
313.66
305.89
293.76
280.25
268.75
261.91
260.72
264.21
270.05
275.88
280.44
283.87
286.97
290.16
292.77
293.19
289.85
282.17
270.83
257.16
242.11
225.65
206.84
184.85
159.75
132.77
105.79
80.28
56.50
33.47
9.56
-16.57
-45.33
-76.06
-107.40
-138.09
-167.57
-196.34
-225.94
-258.48
-296.11
-340.03
-389.48
-440.97
-488.34
-523.76
-539.96
-532.48
-501.53
-451.97
-391.76
-329.41
-271.54
-221.72
-180.83
-148.35
-123.67
-106.58
-96.77
-92.79
-91.47
-88.21
-78.45
-59.65
-32.70
-1.99
26.14
45.73
53.15
47.81
31.43
6.54
-24.63
-60.47
-99.45
-139.70
-179.07
-215.67
-248.27
-276.26
-298.90
-314.80
-321.96
-318.76
-305.12
-283.06
-256.01
-227.45
-199.53
-172.47
-145.16
-116.19
-84.92
-52.01
-19.36
10.40
34.68
51.89
62.20
67.74
71.95
78.37
89.21
104.48
122.11
139.04
152.56
161.19
164.76
163.87
159.20
151.26
140.55
127.81
114.22
101.13
89.57
79.89
71.53
63.38
54.21
43.29
30.65
17.01
3.29
-9.94
-22.94
-36.79
-52.94
-72.30
-94.40
-116.90
-135.90
-146.97
-146.47
-132.70
-106.40
-70.51
-29.31
12.66
51.52
84.72
111.15
130.93
144.94
154.23
159.72
162.07
161.83
159.68
156.55
153.49
151.40
150.72
151.40
153.04
155.16
157.39
159.44
160.96
161.36
159.84
155.63
148.25
137.80
125.02
111.02
97.02
83.97
72.29
61.80
51.89
41.85
31.11
19.60
7.70
-3.85
-14.30
-23.27
-30.96
-38.21
-46.41
-57.11
-71.44
-89.52
-109.86
-129.19
-143.07
-146.94
-137.64
-114.55
-79.98
-38.47
4.70
45.01
79.67
107.76
129.63
146.12
157.93
165.51
169.27
169.91
168.45
166.14
164.08
162.93
162.70
162.90
162.75
161.49
158.61
153.88
147.38
139.37
130.17
120.08
109.32
98.02
86.21
73.96
61.50
49.24
37.76
27.61
18.96
11.49
4.44
-3.08
-11.71
-21.51
-32.00
-42.37
-51.94
-60.39
-67.86
-74.86
-82.02
-89.95
-99.19
-110.19
-123.06
-137.32
-151.57
-163.46
-170.10
-168.82
-158.08
-138.12
-111.04
-80.20
-49.29
-21.34
1.84
19.64
32.33
40.44
44.58
45.32
43.41
39.86
35.94
32.88
31.65
32.69
35.98
41.18
47.73
55.01
62.36
69.06
74.42
77.83
78.79
77.03
72.48
65.39
56.30
46.00
35.36
25.06
15.42
6.37
-2.45
-11.33
-20.35
-29.21
-37.47
-44.79
-51.23
-57.31
-63.94
-72.08
-82.33
-94.54
-107.59
-119.40
-127.34
-128.85
-122.25
-107.31
-85.38
-59.15
-31.85
-6.41
15.07
31.72
43.62
51.48
56.16
58.36
58.57
57.12
54.42
50.94
47.28
44.01
41.51
39.91
39.15
39.15
39.86
41.35
43.56
46.27
48.90
50.64
50.70
48.55
44.16
38.03
30.95
23.76
17.07
10.97
5.18
-0.91
-7.91
-16.20
-25.69
-35.87
-45.96
-55.18
-63.07
-69.73
-75.84
-82.48
-90.81
-101.55
-114.48
-128.26
-140.41
-147.90
-147.99
-139.08
-121.33
-96.69
-68.31
-39.70
-13.78
7.70
24.25
36.31
44.75
50.41
53.92
55.69
56.07
55.40
54.13
52.64
51.21
50.01
49.08
48.48
48.28
48.47
48.94
49.45
49.70
49.49
48.73
47.43
45.57
42.97
39.32
34.34
27.97
20.56
12.93
6.17
1.34
-0.85
-0.26
2.72
7.39
12.97
18.92
24.98
31.01
36.88
42.30
46.87
50.24
52.18
52.66
51.71
49.36
45.76
41.38
37.23
34.78
35.54
40.45
49.23
60.20
70.73
78.07
80.35
77.11
69.26
58.45
46.21
33.35
19.88
5.44
-10.14
-26.45
-42.43
-56.71
-67.99
-75.39
-78.53
-77.50
-72.77
-65.29
-56.39
-47.65
-40.52
-35.92
-33.96
-33.91
-34.61
-34.81
-33.65
-30.79
-26.26
-20.20
-12.73
-3.85
6.29
17.21
27.94
37.15
43.48
46.03
44.66
40.00
33.07
24.77
15.51
5.05
-7.15
-21.59
-38.37
-57.05
-76.75
-96.31
-114.42
-129.73
-141.11
-147.86
-150.09
-148.89
-146.21
-144.33
-145.18
-149.70
-157.44
-166.55
-174.18
-177.20
-173.19
-161.14
-141.89
-117.84
-92.13
-67.63
-46.18
-28.32
-13.82
-2.32
6.26
11.65
13.76
13.06
10.55
7.33
4.02
0.42
-4.20
-10.55
-18.77
-28.29
-38.07
-47.21
-55.33
-62.60
-69.51
-76.52
-83.78
-91.21
-98.56
-105.62
-112.30
-118.77
-125.57
-133.64
-144.20
-158.32
-176.17
-196.40
-215.98
-230.73
-236.44
-230.27
-211.56
-181.87
-144.26
-102.27
-59.14
-17.44
20.75
53.71
80.13
99.34
111.55
117.77
119.52
118.35
115.55
112.16
109.11
107.30
107.52
110.18
115.16
121.78
129.05
135.97
141.73
145.76
147.57
146.75
142.87
135.73
125.52
112.94
99.06
84.99
71.46
58.66
46.22
33.49
19.97
5.59
-9.25
-23.87
-37.59
-49.98
-61.02
-71.10
-81.01
-91.93
-105.17
-121.80
-141.94
-164.11
-185.13
-200.68
-206.67
-200.61
-182.47
-154.56
-120.47
-83.71
-46.83
-11.29
22.05
52.32
78.41
99.24
114.23
123.61
128.30
129.58
128.62
126.48
124.12
122.52
122.61
125.08
130.03
136.92
144.69
152.09
158.06
161.88
163.28
162.29
159.18
154.26
147.90
140.56
132.72
124.95
117.68
111.03
104.73
98.07
90.29
80.85
69.85
58.09
46.83
37.26
30.07
25.07
21.20
16.84
10.30
0.44
-12.82
-28.04
-42.23
-51.27
-50.86
-37.68
-10.44
29.57
78.73
131.95
183.95
230.32
268.36
297.10
317.14
330.02
337.74
342.26
345.20
347.60
349.87
351.73
352.43
351.01
346.54
338.47
326.69
311.48
293.35
272.76
250.11
225.60
199.51
172.25
144.51
117.18
91.09
66.66
43.71
21.39
-1.57
-26.30
-53.37
-82.51
-112.77
-142.98
-172.27
-200.50
-228.24
-256.83
-288.13
-324.14
-366.22
-413.94
-464.02
-510.08
-543.88
-557.80
-547.80
-515.21
-466.37
-410.21
-354.98
-305.92
-264.66
-230.57
-202.40
-179.37
-160.90
-145.87
-132.20
-117.37
-99.57
-78.56
-55.80
-33.59
-13.89
2.54
16.13
27.91
38.73
48.74
57.29
63.30
65.70
63.91
58.16
49.48
39.44
29.73
21.57
15.47
11.17
7.94
4.87
1.22
-3.37
-8.79
-14.42
-19.30
-22.46
-23.43
-22.60
-21.38
-21.81
-25.82
-34.27
-46.30
-59.32
-69.63
-73.67
-69.24
-56.26
-36.64
-13.46
10.15
31.97
50.98
66.99
80.10
90.13
96.72
99.71
99.64
97.95
96.53
97.12
100.58
106.77
114.78
123.56
132.44
141.26
150.20
159.49
169.24
179.54
190.55
202.55
215.68
229.52
243.11
255.03
263.91
268.73
268.80
263.47
251.87
233.03
206.42
172.66
133.93
93.37
54.22
18.54
-13.52
-43.56
-74.24
-108.39
-148.37
-195.52
-249.46
-307.24
-362.85
-408.12
-435.00
-438.72
-420.27
-386.53
-347.73
-313.41
-288.86
-273.85
-264.20
-254.93
-243.09
-228.72
-213.91
-200.82
-190.14
-180.76
-170.67
-158.18
-142.73
-125.14
-106.94
-89.54
-73.61
-59.09
-45.62
-33.14
-22.27
-14.17
-10.06
-10.48
-14.86
-21.59
-28.60
-34.12
-37.35
-38.54
-38.64
-38.79
-39.91
-42.61
-47.40
-55.02
-66.43
-82.46
-103.10
-126.96
-151.02
-171.27
-183.73
-185.64
-176.20
-156.60
-129.49
-98.09
-65.43
-33.81
-4.73
21.11
43.45
62.29
77.51
88.85
95.97
98.79
97.85
94.58
91.07
89.58
91.71
97.94
107.58
119.18
131.15
142.27
151.71
158.87
163.13
163.80
160.40
153.03
142.55
130.49
118.52
107.94
99.27
92.20
85.78
78.84
70.37
59.76
46.99
32.64
17.75
3.53
-8.96
-19.11
-26.91
-32.86
-37.77
-42.37
-46.97
-51.15
-53.68
-52.68
-46.23
-33.00
-12.81
13.13
42.66
73.23
102.64
129.36
152.55
171.75
186.72
197.31
203.58
205.91
204.88
201.16
195.36
187.99
179.62
171.00
163.02
156.39
151.47
148.01
145.33
142.59
139.18
134.83
129.54
123.37
116.25
108.06
98.77
88.62
78.14
67.99
58.68
50.40
42.91
35.74
28.33
20.34
11.74
2.87
-5.76
-13.60
-20.33
-26.10
-31.65
-38.30
-47.73
-61.51
-80.46
-104.07
-130.06
-154.62
-173.07
-181.04
-175.49
-155.44
-122.08
-78.28
-27.77
25.62
78.53
128.40
173.46
212.64
245.39
271.49
290.77
302.95
307.59
304.23
292.67
273.34
247.36
216.45
182.63
147.63
112.50
77.48
42.00
4.97
-34.74
-77.81
-123.85
-171.18
-216.88
-257.48
-289.99
-312.75
-325.81
-330.51
-328.60
-321.32
-309.03
-291.60
-269.23
-243.31
-216.68
-193.15
-176.49
-169.29
-172.06
-182.85
-197.68
-211.34
-218.80
-216.37
-202.52
-178.00
-145.38
-108.09
-69.64
-32.95
-0.08
27.73
49.95
66.70
78.48
86.13
90.65
93.00
94.09
94.69
95.45
96.92
99.64
104.07
110.58
119.29
129.92
141.78
153.74
164.51
172.88
177.93
179.19
176.59
170.38
160.95
148.68
133.93
117.03
98.38
78.55
58.31
38.62
20.38
4.21
-9.73
-21.83
-32.81
-43.63
-55.20
-68.35
-83.68
-101.37
-120.80
-140.29
-157.08
-167.78
-169.36
-160.14
-140.55
-113.10
-81.67
-50.40
-22.56
0.08
17.27
29.84
39.02
45.92
51.22
55.20
57.91
59.44
60.11
60.45
61.14
62.78
65.68
69.83
74.91
80.49
86.08
91.31
95.80
99.18
101.11
101.35
99.87
96.82
92.48
87.10
80.69
73.06
63.80
52.52
39.00
23.32
5.86
-12.72
-31.65
-50.10
-67.47
-83.44
-98.20
-112.35
-126.84
-142.60
-160.32
-180.07
-201.26
-222.72
-242.88
-260.13
-273.07
-280.60
-282.07
-277.22
-266.26
-249.76
-228.59
-203.85
-176.75
-148.61
-120.94
-95.48
-73.96
-57.75
-47.27
-41.80
-39.77
-39.41
-39.52
-39.74
-40.28
-41.27
-42.09
-41.33
-37.26
-28.68
-15.45
1.37
20.07
39.01
57.06
73.59
88.08
99.68
106.89
107.80
100.80
85.43
63.08
36.81
10.59
-12.09
-29.32
-41.17
-49.30
-56.00
-63.24
-72.20
-83.30
-96.47
-111.29
-126.85
-141.43
-152.49
-156.95
-152.08
-136.48
-110.71
-77.39
-40.62
-4.90
26.02
49.92
66.38
76.36
81.52
83.45
83.26
81.55
78.75
75.54
73.05
72.69
75.61
82.24
92.02
103.55
115.11
125.32
133.48
139.57
143.86
146.56
147.53
146.45
143.21
138.20
132.36
126.92
122.88
120.68
120.07
120.38
121.07
122.02
123.61
126.47
131.03
137.05
143.65
149.49
153.30
154.19
151.97
147.14
140.91
135.08
131.83
133.27
140.84
154.71
173.56
194.94
216.08
234.77
249.73
260.41
266.31
266.45
259.36
243.79
219.61
188.36
153.02
117.02
83.03
52.09
23.51
-4.54
-34.15
-66.81
-103.05
-142.25
-182.70
-221.71
-256.01
-282.40
-298.82
-305.15
-303.57
-298.03
-292.81
-290.97
-293.09
-297.16
-299.65
-297.38
-289.13
-276.28
-262.09
-250.17
-242.94
-241.04
-243.65
-249.47
-257.56
-267.40
-278.40
-289.16
-297.25
-299.71
-293.87
-278.29
-253.08
-219.60
-179.88
-136.02
-89.89
-43.10
2.91
46.63
86.48
120.85
148.34
168.11
180.09
185.01
184.06
178.61
169.87
158.81
146.30
133.19
120.38
108.68
98.56
90.09
82.91
76.53
70.48
64.52
58.61
52.80
47.07
41.29
35.25
28.85
22.23
15.82
10.14
5.62
2.34
-0.08
-2.30
-5.09
-9.02
-14.45
-21.68
-31.22
-43.81
-60.12
-80.18
-102.82
-125.63
-145.56
-159.90
-167.06
-166.85
-160.02
-147.55
-130.25
-108.97
-85.05
-60.74
-38.85
-21.85
-10.79
-4.83
-1.52
2.16
8.75
19.60
34.83
53.62
74.52
95.58
114.44
128.52
135.69
134.95
126.98
114.08
99.42
86.05
75.87
69.20
64.97
61.36
56.60
49.63
40.32
29.22
17.22
5.11
-6.64
-17.94
-28.85
-39.48
-49.92
-60.34
-70.96
-81.84
-92.35
-100.79
-104.35
-99.75
-84.43
-57.80
-21.84
19.21
60.15
96.44
125.40
146.57
161.17
171.05
177.72
181.85
183.35
181.82
177.16
169.79
160.70
151.06
141.82
133.38
125.59
117.96
110.07
101.79
93.34
85.07
77.17
69.42
61.21
51.81
40.73
28.03
14.37
0.93
-10.91
-19.80
-24.67
-24.86
-20.42
-12.20
-1.94
8.07
15.55
19.03
18.44
15.00
10.76
7.69
7.04
9.18
13.80
20.39
28.38
37.22
46.24
54.83
62.79
70.71
79.87
91.76
107.29
126.23
147.19
168.23
187.48
203.66
216.07
224.29
227.96
226.88
221.28
212.03
200.49
187.86
174.57
159.96
142.71
121.60
96.39
67.90
37.62
6.89
-23.99
-55.94
-90.74
-129.96
-173.88
-220.70
-266.61
-306.67
-336.38
-353.45
-358.94
-357.15
-354.26
-355.79
-364.37
-378.48
-393.06
-401.44
-397.79
-379.07
-345.61
-300.50
-248.21
-193.40
-140.19
-91.84
-50.87
-19.04
2.88
15.34
19.91
19.01
15.35
11.28
8.37
7.33
8.00
9.73
11.70
13.25
14.12
14.48
14.74
15.28
16.06
16.55
15.96
13.57
9.13
2.87
-4.51
-12.32
-20.08
-27.68
-35.28
-43.05
-51.07
-59.25
-67.44
-75.54
-83.70
-92.31
-101.99
-113.25
-126.06
-139.42
-151.28
-158.93
-159.73
-152.12
-136.20
-113.70
-87.37
-60.00
-33.75
-9.81
11.31
29.31
43.78
54.12
59.94
61.37
59.24
54.96
50.15
46.10
43.54
42.61
43.09
44.69
47.20
50.54
54.53
58.79
62.72
65.71
67.37
67.70
66.97
65.47
63.28
60.20
55.86
49.90
42.27
33.28
23.65
14.44
6.71
1.17
-2.14
-4.05
-6.12
-10.11
-17.20
-27.37
-39.05
-49.50
-55.56
-54.61
-45.24
-27.63
-3.27
25.42
55.69
84.87
110.67
131.33
145.59
152.70
152.34
144.71
130.88
112.99
94.26
78.42
68.67
66.56
71.43
80.66
90.85
99.08
103.74
104.63
102.34
97.55
90.67
81.84
71.24
59.25
46.39
33.08
19.62
6.16
-7.12
-19.84
-31.60
-42.13
-51.44
-60.00
-68.69
-78.60
-90.74
-105.50
-122.07
-138.18
-150.28
-154.51
-147.91
-129.64
-101.49
-67.33
-31.98
0.39
27.25
48.07
63.86
76.35
87.16
97.43
107.76
118.60
130.46
143.97
159.61
177.43
196.71
215.96
233.06
245.57
251.01
247.06
232.00
205.22
167.91
123.29
76.07
31.32
-7.07
-37.42
-60.33
-77.87
-92.39
-105.58
-118.22
-130.41
-141.92
-152.32
-160.86
-166.53
-168.29
-165.66
-159.09
-149.97
-139.97
-130.33
-121.31
-112.38
-102.74
-91.85
-79.68
-66.52
-52.55
-37.79
-22.19
-6.08
9.61
23.44
33.96
40.40
42.96
42.69
40.89
38.49
35.78
32.80
29.95
28.45
30.30
37.51
51.16
70.79
94.29
118.56
140.40
157.24
167.47
170.32
165.75
154.48
138.20
119.55
101.68
87.43
78.30
73.89
72.12
70.16
65.71
57.90
47.47
36.21
25.88
17.46
10.77
4.81
-1.44
-8.28
-14.86
-19.26
-18.91
-11.35
5.10
30.89
64.85
104.23
144.97
182.45
212.25
231.12
237.53
231.89
216.23
193.43
166.52
137.77
108.21
77.52
44.33
7.22
-34.29
-78.66
-122.13
-159.45
-185.44
-196.84
-193.69
-179.43
-159.97
-141.89
-130.54
-128.81
-136.75
-152.02
-170.86
-189.23
-203.74
-212.38
-214.72
-211.78
-205.45
-197.77
-190.39
-184.22
-179.70
-177.11
-176.88
-179.35
-184.26
-190.08
-193.96
-192.28
-181.67
-160.29
-128.39
-88.15
-42.92
4.00
50.05
93.84
134.86
172.95
207.76
238.35
263.30
281.09
290.63
291.79
285.55
273.80
258.85
242.82
227.25
212.92
200.14
189.07
179.73
171.74
164.06
155.09
143.37
128.37
110.90
92.52
74.37
55.95
35.06
9.11
-22.92
-59.09
-94.88
-125.04
-146.02
-157.45
-161.87
-163.08
-164.48
-168.23
-175.53
-187.24
-203.93
-225.20
-248.73
-270.11
-283.76
-284.85
-271.25
-244.34
-208.49
-169.39
-132.26
-100.51
-75.38
-56.39
-42.23
-31.45
-22.96
-16.07
-10.45
-6.01
-2.81
-0.90
-0.33
-0.94
-2.37
-4.06
-5.45
-6.14
-6.11
-5.75
-5.68
-6.57
-8.83
-12.52
-17.25
-22.20
-26.28
-28.38
-27.68
-23.91
-17.49
-9.46
-1.21
6.01
11.51
15.50
19.13
24.22
32.49
44.69
59.79
74.76
85.11
86.02
73.78
46.95
6.88
-42.35
-94.66
-143.11
-181.20
-204.16
-209.86
-199.14
-175.40
-143.55
-108.73
-75.27
-46.12
-22.88
-6.03
4.77
10.58
13.05
14.13
15.65
18.84
23.98
30.45
37.20
43.18
47.81
51.09
53.33
54.82
55.45
54.82
52.39
47.95
41.84
34.93
28.30
22.68
18.24
14.53
10.74
6.08
0.20
-6.77
-14.22
-21.38
-27.60
-32.67
-36.87
-40.98
-46.04
-53.13
-63.02
-75.86
-90.82
-105.99
-118.50
-125.14
-123.25
-111.61
-91.01
-64.05
-34.46
-5.89
18.98
38.78
53.27
62.70
67.38
67.59
63.75
56.92
48.83
41.64
37.25
36.73
39.86
45.42
51.73
57.44
62.06
66.04
70.29
75.59
82.10
89.11
95.34
99.44
100.63
99.23
96.95
96.90
102.95
118.61
145.69
183.18
227.04
271.02
308.33
333.49
343.66
338.93
321.69
295.37
263.25
227.66
189.80
150.12
109.10
68.21
30.55
0.75
-16.21
-16.91
-1.38
26.11
57.87
85.11
100.77
101.55
88.27
64.67
35.27
3.46
-29.25
-63.10
-99.26
-139.12
-183.76
-233.37
-286.77
-340.72
-390.04
-428.29
-449.51
-450.09
-430.26
-394.20
-348.81
-301.45
-257.98
-221.58
-192.91
-171.14
-155.09
-143.72
-135.98
-130.14
-123.51
-112.90
-95.78
-71.51
-42.29
-12.65
11.90
26.58
28.78
18.50
-1.90
-28.43
-56.47
-81.48
-99.78
-108.89
-107.75
-96.39
-75.46
-45.80
-8.34
35.55
83.58
132.47
178.48
218.46
250.63
274.71
291.42
301.58
305.60
303.51
295.33
281.23
261.46
236.28
206.06
171.94
136.74
105.07
82.36
72.79
77.31
92.79
112.95
130.73
140.76
140.70
130.93
113.12
88.55
57.32
18.84
-26.78
-77.48
-129.17
-177.02
-217.50
-249.95
-276.63
-301.06
-325.90
-351.22
-374.54
-392.40
-402.35
-404.10
-399.11
-389.21
-375.19
-356.38
-331.47
-299.78
-262.04
-220.13
-176.05
-131.06
-85.48
-39.37
6.58
50.50
89.57
120.91
142.50
153.84
155.98
151.19
142.38
132.58
124.42
119.80
119.53
123.19
129.23
135.45
139.60
139.88
135.16
125.06
109.74
89.92
66.76
41.82
16.84
-6.63
-27.50
-45.37
-60.50
-73.63
-85.73
-97.68
-110.04
-123.00
-136.49
-150.46
-165.01
-180.25
-195.81
-210.39
-221.57
-226.33
-222.15
-207.97
-184.65
-154.49
-120.17
-83.82
-46.70
-9.72
25.91
58.27
85.12
104.71
116.58
121.70
122.13
120.15
117.67
115.87
115.37
116.44
119.22
123.78
130.05
137.90
147.19
157.87
169.95
183.37
197.88
212.97
228.01
242.49
256.11
268.62
279.51
287.93
292.88
293.71
290.40
283.50
273.62
261.11
245.98
228.53
210.03
192.75
179.05
170.05
164.66
159.75
151.51
137.13
115.87
89.13
59.53
29.91
2.68
-20.51
-39.02
-53.39
-65.49
-77.95
-93.08
-111.69
-132.66
-153.49
-171.69
-185.89
-196.08
-202.81
-206.16
-205.35
-199.24
-187.23
-169.98
-149.19
-126.78
-103.93
-80.98
-57.96
-35.63
-15.98
-1.89
4.06
0.99
-9.65
-24.46
-39.41
-51.37
-59.02
-62.85
-64.28
-64.69
-64.95
-65.59
-67.38
-71.67
-79.99
-93.24
-110.89
-130.99
-150.91
-168.35
-181.99
-191.26
-195.65
-194.07
-184.96
-167.07
-140.45
-107.00
-70.09
-33.56
-0.53
27.21
49.28
66.14
78.55
87.04
91.92
93.42
91.96
88.34
83.87
80.12
78.68
80.54
85.85
93.72
102.58
110.61
116.32
118.86
118.07
114.21
107.81
99.34
89.25
77.93
65.82
53.31
40.71
28.21
15.86
3.77
-7.86
-18.69
-28.47
-37.25
-45.58
-54.53
-65.38
-79.02
-95.32
-112.72
-128.23
-138.07
-138.65
-127.76
-105.31
-73.47
-36.13
2.22
37.60
67.36
90.46
107.11
118.29
125.13
128.66
129.70
128.95
127.11
124.94
123.20
122.54
123.39
125.80
129.56
134.17
138.98
143.35
146.57
147.88
146.44
141.51
132.65
120.04
104.55
87.65
70.93
55.54
41.83
29.35
17.17
4.40
-9.35
-23.93
-38.68
-52.85
-65.83
-77.42
-87.89
-97.95
-108.60
-120.71
-134.64
-149.67
-163.74
-173.55
-175.23
-165.38
-142.15
-105.93
-59.49
-7.42
44.79
91.83
129.40
154.73
166.90
166.91
157.48
142.61
126.74
113.71
105.87
103.72
105.99
110.42
114.53
116.41
114.99
110.18
102.66
93.68
84.70
77.03
71.40
67.79
65.46
63.31
60.44
56.46
51.67
46.82
42.78
40.32
39.97
42.06
46.66
53.51
61.79
70.08
76.61
79.65
77.94
71.02
59.12
43.00
23.74
2.69
-18.46
-37.76
-53.18
-63.17
-67.03
-65.15
-58.84
-49.83
-39.70
-29.40
-19.07
-8.31
3.35
15.79
27.90
37.59
42.41
40.41
31.04
15.49
-3.59
-23.03
-40.03
-52.88
-61.01
-64.75
-64.93
-62.66
-59.26
-56.12
-54.45
-54.81
-56.73
-58.63
-58.27
-53.59
-43.53
-28.43
-9.91
9.82
28.76
45.62
59.87
71.50
80.72
87.83
93.08
96.53
97.68
95.20
87.16
71.77
48.65
19.61
-11.34
-39.25
-59.87
-71.22
-73.93
-70.59
-64.31
-57.61
-51.88
-47.70
-45.35
-45.14
-47.35
-51.88
-58.06
-64.70
-70.44
-74.23
-75.61
-74.71
-72.03
-68.26
-64.03
-59.88
-56.24
-53.48
-51.87
-51.58
-52.62
-54.83
-57.80
-61.04
-64.02
-66.32
-67.75
-68.47
-68.91
-69.74
-71.58
-74.76
-79.10
-83.89
-88.14
-90.97
-92.04
-91.84
-91.44
-92.10
-94.64
-98.87
-103.54
-106.66
-106.17
-100.61
-89.61
-73.91
-55.16
-35.38
-16.58
-0.23
12.74
22.09
28.03
31.14
32.16
31.86
31.03
30.29
30.23
31.24
33.51
37.02
41.60
46.98
52.91
59.27
65.97
72.87
79.56
85.31
89.03
89.49
85.56
76.49
62.05
42.52
18.63
-8.52
-37.54
-66.86
-94.91
-120.32
-141.96
-158.73
-169.31
-172.10
-165.63
-149.35
-124.59
-95.03
-66.30
-44.57
-34.57
-37.82
-51.95
-71.37
-89.13
-99.16
-98.03
-85.57
-64.47
-39.14
-14.29
6.05
19.21
23.94
20.43
9.95
-5.40
-23.12
-40.72
-56.04
-67.52
-74.36
-76.49
-74.49
-69.40
-62.45
-54.85
-47.57
-41.28
-36.47
-33.35
-31.91
-31.91
-32.86
-34.22
-35.57
-36.85
-38.23
-40.10
-42.64
-45.76
-49.12
-52.29
-54.95
-57.03
-58.74
-60.41
-62.53
-65.60
-70.06
-76.14
-83.44
-90.68
-95.72
-95.85
-88.71
-73.09
-49.57
-20.50
10.68
40.40
65.95
86.04
100.81
111.29
118.85
124.64
129.51
134.12
139.22
145.73
154.66
166.80
182.42
201.20
222.27
244.48
266.53
287.15
305.07
318.94
327.49
329.69
325.04
313.76
296.84
275.77
252.15
227.19
201.47
174.96
147.34
118.43
88.46
58.06
28.08
-0.80
-28.25
-54.33
-79.40
-103.73
-127.24
-149.22
-168.13
-181.79
-187.83
-184.44
-171.13
-149.16
-121.30
-90.94
-60.74
-31.83
-3.67
25.17
55.58
86.90
116.60
140.81
155.59
158.03
147.02
123.48
89.98
50.28
8.74
-30.24
-62.86
-86.56
-100.41
-105.25
-103.41
-98.02
-92.23
-88.46
-87.91
-90.50
-95.16
-100.47
-105.26
-109.05
-112.10
-115.23
-119.29
-124.88
-132.06
-140.36
-148.83
-156.36
-162.08
-165.68
-167.65
-169.16
-171.58
-176.02
-183.09
-192.91
-205.41
-220.38
-237.09
-253.81
-267.47
-274.08
-269.82
-252.42
-221.89
-180.30
-130.82
-76.71
-20.93
33.61
83.66
125.60
156.30
174.32
180.75
179.16
174.39
170.66
170.21
172.99
177.47
182.16
186.62
191.49
197.65
204.92
211.51
214.51
211.25
200.66
184.02
164.29
144.77
127.70
113.63
101.65
90.32
78.42
65.44
51.49
36.99
22.33
7.55
-7.77
-24.58
-43.96
-66.53
-91.80
-117.87
-141.61
-159.43
-168.14
-165.72
-151.58
-126.45
-92.00
-50.55
-4.75
42.56
88.56
130.70
166.98
196.11
217.59
231.77
239.80
243.47
244.78
245.24
245.31
244.35
241.24
235.09
225.95
214.83
203.32
192.78
183.63
175.07
165.24
151.72
132.23
105.27
70.60
29.42
-15.60
-60.73
-101.83
-135.26
-158.96
-173.20
-180.76
-186.56
-196.28
-214.58
-243.34
-280.97
-323.03
-364.23
-400.55
-430.46
-454.53
-473.73
-487.64
-493.99
-489.47
-471.78
-441.19
-400.78
-354.98
-307.60
-260.32
-212.80
-164.16
-114.69
-66.77
-24.19
9.53
32.84
46.82
54.55
59.57
64.42
69.98
75.84
81.28
86.14
91.11
97.34
105.71
116.15
127.51
138.02
145.87
149.96
150.24
147.55
143.15
138.13
132.93
127.13
119.69
109.43
95.60
78.39
59.05
39.52
21.93
7.76
-2.62
-10.19
-16.85
-24.82
-35.81
-50.57
-68.61
-88.31
-107.16
-122.06
-129.96
-128.44
-116.48
-94.91
-66.36
-34.63
-3.69
23.40
45.04
61.13
72.54
80.36
85.47
88.31
89.02
87.69
84.51
80.00
74.95
70.43
67.51
67.08
69.55
74.72
81.79
89.57
96.71
102.04
104.76
104.56
101.70
96.79
90.76
84.52
78.78
73.87
69.72
65.96
62.31
58.89
56.35
55.70
57.78
62.71
69.57
76.72
82.46
85.87
87.35
88.49
91.52
98.43
110.44
127.73
149.54
174.52
200.86
226.47
249.21
267.15
278.87
283.70
281.80
273.91
261.06
244.14
223.67
199.63
171.75
139.93
104.66
67.41
30.54
-3.16
-31.18
-52.12
-66.14
-74.93
-81.18
-87.63
-96.24
-107.58
-120.96
-134.81
-147.37
-157.15
-163.07
-164.32
-160.20
-150.23
-134.63
-114.80
-93.51
-74.60
-62.10
-59.51
-69.30
-92.71
-129.43
-176.94
-229.83
-279.66
-316.49
-331.74
-321.42
-288.14
-240.50
-189.87
-145.99
-113.50
-91.12
-73.72
-55.70
-33.90
-8.73
16.81
38.91
54.45
61.37
58.24
44.12
19.09
-14.60
-51.80
-85.14
-107.31
-113.73
-104.39
-83.63
-57.98
-33.35
-13.10
2.06
12.89
20.24
24.41
25.51
24.09
21.27
18.14
14.98
11.16
5.77
-1.46
-9.48
-16.18
-19.41
-18.24
-13.58
-8.06
-5.27
-8.53
-19.85
-38.95
-63.07
-87.56
-107.30
-118.39
-119.39
-111.31
-96.46
-76.99
-53.93
-27.44
2.05
32.84
61.78
85.21
100.41
106.91
106.82
103.98
102.57
105.38
112.78
122.53
130.51
132.30
124.73
106.84
79.98
47.12
11.88
-22.24
-52.34
-76.32
-93.16
-103.28
-108.63
-112.13
-116.56
-123.13
-130.81
-136.58
-136.68
-128.22
-110.48
-85.29
-56.62
-29.56
-9.15
0.73
-1.78
-16.12
-39.28
-66.35
-91.60
-109.90
-118.10
-115.74
-105.00
-89.86
-74.71
-63.16
-57.00
-55.79
-57.03
-56.92
-51.36
-37.10
-12.60
21.66
63.36
109.05
154.91
197.29
233.00
259.43
274.92
279.09
273.30
260.59
245.17
231.28
222.02
218.53
219.90
223.67
226.78
226.50
220.96
209.49
192.50
171.27
147.55
123.25
99.98
78.86
60.44
44.78
31.79
21.31
12.99
6.03
-1.08
-10.47
-24.32
-44.09
-69.79
-99.74
-130.77
-158.76
-179.48
-189.42
-186.70
-171.72
-147.29
-117.93
-88.44
-62.23
-40.17
-20.62
-0.58
22.62
49.95
80.40
111.52
140.50
164.98
183.46
195.24
200.56
200.65
197.80
194.93
194.61
198.07
204.53
211.50
215.83
214.98
207.78
194.60
176.85
156.47
135.58
116.28
100.36
88.77
81.01
74.88
67.14
54.53
35.01
8.19
-24.84
-62.33
-102.35
-142.93
-181.73
-215.87
-242.24
-258.34
-262.94
-256.32
-239.71
-214.44
-181.45
-141.48
-95.79
-46.91
1.49
45.36
81.60
108.91
127.86
140.04
146.96
149.12
145.93
136.55
120.94
100.72
79.19
60.37
47.43
41.48
41.17
43.37
44.53
41.88
34.13
21.33
4.31
-15.75
-37.46
-59.26
-79.65
-97.73
-113.72
-128.97
-145.16
-163.14
-181.83
-198.14
-208.03
-208.17
-197.48
-177.84
-153.57
-130.26
-113.27
-106.51
-111.80
-128.81
-155.30
-187.84
-222.55
-256.00
-285.91
-311.46
-333.09
-351.98
-368.96
-383.81
-394.96
-399.97
-396.46
-383.07
-359.95
-328.59
-291.16
-249.85
-206.65
-163.61
-123.06
-87.42
-58.46
-36.41
-19.53
-4.76
10.94
28.97
48.47
66.86
81.40
90.63
95.12
97.04
98.89
102.53
108.55
116.45
125.08
132.81
137.79
138.05
132.05
119.43
101.76
82.44
65.73
55.15
51.95
54.53
58.96
60.42
54.73
39.34
13.85
-20.02
-58.40
-95.59
-124.94
-140.48
-138.94
-121.26
-92.60
-60.56
-32.39
-12.45
-1.18
4.08
7.04
10.53
15.55
21.50
27.35
32.47
37.08
41.85
47.43
54.01
61.37
69.04
76.62
83.93
90.90
97.37
102.89
106.81
108.44
107.48
104.24
99.63
94.76
90.43
86.74
82.99
78.05
70.90
61.02
48.64
34.64
20.24
6.62
-5.51
-16.22
-26.21
-36.41
-47.33
-58.48
-68.37
-74.86
-76.19
-71.76
-62.64
-51.26
-40.38
-31.94
-26.27
-22.00
-16.89
-8.93
2.81
17.85
34.76
51.91
68.06
82.58
95.01
104.59
110.22
110.79
106.03
97.00
86.09
76.17
69.43
66.43
66.00
65.77
63.38
57.46
48.07
36.46
24.22
12.53
1.72
-8.60
-18.98
-29.75
-40.69
-51.10
-60.12
-67.09
-71.94
-75.28
-78.43
-83.09
-90.89
-102.66
-117.91
-134.53
-149.09
-157.53
-156.25
-143.18
-118.47
-84.60
-45.70
-6.55
28.71
57.41
78.74
93.42
103.02
109.23
113.31
115.96
117.42
117.58
116.19
113.01
108.02
101.60
94.80
89.12
86.20
87.18
92.22
100.33
109.64
117.99
123.54
125.17
122.57
116.15
106.75
95.42
83.27
71.30
60.20
50.21
41.05
31.97
22.09
10.70
-2.50
-17.30
-33.30
-50.23
-68.26
-87.93
-109.98
-134.74
-161.66
-189.13
-214.50
-234.59
-246.23
-246.99
-235.81
-213.30
-181.73
-144.63
-105.99
-69.38
-37.30
-10.78
10.43
27.43
41.57
53.86
64.72
74.00
81.28
86.29
89.23
90.84
92.20
94.41
98.24
103.98
111.41
119.91
128.63
136.59
142.85
146.69
147.73
146.19
142.80
138.64
134.74
131.75
129.73
128.15
126.10
122.63
116.96
108.66
97.60
83.81
67.43
48.65
27.76
5.28
-18.15
-41.85
-65.28
-88.05
-109.57
-128.57
-142.83
-149.33
-145.11
-128.46
-99.92
-62.58
-21.35
18.44
52.59
79.14
98.71
113.96
128.64
146.37
169.63
199.08
233.30
269.19
302.72
330.10
348.75
357.77
357.89
350.79
338.29
321.98
302.99
282.24
260.67
239.04
217.75
196.51
174.26
149.63
121.36
88.84
52.16
12.14
-29.52
-70.16
-106.12
-133.24
-147.98
-148.67
-136.42
-115.06
-90.02
-66.81
-49.55
-40.49
-40.35
-49.10
-66.48
-91.78
-123.13
-156.89
-187.85
-210.53
-220.94
-218.11
-204.37
-184.42
-163.20
-144.01
-127.53
-112.42
-96.88
-80.33
-64.16
-51.22
-44.39
-45.08
-52.34
-63.24
-73.97
-81.28
-83.57
-81.20
-75.93
-69.80
-64.27
-59.73
-55.65
-51.18
-45.87
-40.00
-34.53
-30.63
-29.11
-29.89
-32.08
-34.32
-35.41
-34.81
-32.88
-30.66
-29.37
-29.90
-32.38
-36.28
-40.70
-44.84
-48.39
-51.55
-54.84
-58.76
-63.63
-69.58
-76.66
-85.04
-94.90
-106.10
-117.80
-128.31
-135.35
-136.70
-130.94
-118.10
-99.57
-77.70
-55.01
-33.59
-14.69
1.23
14.26
24.78
33.18
39.77
44.74
48.12
50.01
50.64
50.56
50.52
51.34
53.56
57.16
61.48
65.39
67.57
66.93
62.89
55.56
45.62
34.15
22.45
11.66
2.56
-4.70
-10.60
-16.23
-22.84
-31.46
-42.45
-55.29
-68.71
-81.10
-91.18
-98.58
-104.20
-110.05
-118.79
-132.85
-153.68
-181.31
-214.35
-250.31
-286.06
-318.14
-342.95
-357.12
-358.07
-344.72
-318.00
-280.75
-236.85
-189.92
-142.53
-95.89
-50.65
-7.81
30.80
62.78
86.22
100.55
106.90
107.61
105.36
102.31
99.93
99.08
100.38
104.33
111.07
120.18
130.46
140.30
148.05
152.66
153.83
151.95
147.73
141.81
134.55
126.04
116.35
105.74
94.69
83.76
73.39
63.60
54.03
44.04
32.96
20.40
6.35
-8.73
-24.00
-38.51
-51.42
-62.37
-71.75
-80.69
-90.83
-103.77
-120.36
-139.94
-160.09
-176.82
-185.51
-182.23
-165.12
-135.16
-96.10
-53.39
-12.64
21.90
48.24
66.57
78.54
86.20
91.25
94.75
97.21
98.97
100.41
101.94
103.82
106.01
108.15
109.70
110.16
109.34
107.35
104.54
101.34
98.08
94.88
91.57
87.71
82.71
75.99
67.20
56.44
44.37
31.99
20.39
10.19
1.30
-7.12
-16.26
-27.05
-39.64
-53.19
-66.10
-76.63
-83.43
-85.98
-84.81
-81.37
-77.83
-76.70
-80.25
-89.83
-105.22
-124.26
-143.14
-157.37
-163.04
-158.07
-142.60
-118.70
-89.51
-58.31
-27.97
-0.81
21.33
37.13
46.09
48.81
47.01
43.18
39.85
38.81
40.72
45.12
51.01
57.37
63.64
69.70
75.69
81.69
87.53
92.85
97.44
101.35
104.83
108.15
111.46
114.60
117.34
119.47
120.96
122.20
123.53
125.04
126.28
126.59
125.31
122.25
117.43
110.82
102.48
92.05
79.07
63.46
45.95
27.90
10.89
-4.28
-18.08
-30.63
-42.13
-52.29
-60.10
-63.75
-61.61
-52.32
-36.38
-16.22
6.95
31.90
57.16
81.11
102.48
119.85
133.59
143.87
150.51
156.88
165.95
178.50
192.73
205.82
214.75
220.60
225.62
232.24
246.96
274.34
314.32
361.85
409.60
449.38
478.32
495.74
475.16
404.11
290.46
160.40
41.48
-41.07
-96.23
-135.04
-165.56
-192.74
-215.20
-230.07
-237.23
-240.29
-244.20
-254.28
-270.77
-292.70
-319.06
-345.32
-367.22
-382.21
-389.33
-387.72
-377.01
-354.61
-319.88
-275.31
-223.70
-169.12
-116.54
-70.84
-35.60
-13.33
-3.46
-4.50
-14.27
-28.51
-42.28
-51.26
-53.06
-47.64
-37.27
-24.63
-12.49
-2.84
3.90
8.31
11.13
12.82
13.49
13.16
12.20
11.05
9.84
8.28
5.77
1.68
-4.02
-10.43
-15.68
-17.22
-12.72
-0.86
17.95
41.51
66.19
87.90
103.14
109.90
108.15
99.53
86.66
72.18
58.02
45.20
34.13
25.10
18.59
15.24
15.50
19.36
26.11
34.59
43.55
51.91
58.86
63.70
65.79
64.59
59.82
51.62
40.46
26.98
11.94
-3.64
-18.31
-30.21
-37.46
-38.89
-34.84
-27.44
-20.23
-16.90
-19.89
-29.29
-42.85
-56.92
-68.08
-74.33
-75.69
-73.64
-70.07
-66.27
-62.58
-58.71
-54.39
-49.93
-46.14
-43.85
-43.34
-44.09
-44.97
-44.77
-42.77
-39.05
-34.49
-30.37
-27.91
-27.81
-30.15
-34.46
-39.88
-45.50
-50.58
-54.63
-57.39
-58.66
-58.11
-55.19
-49.36
-40.33
-28.44
-14.83
-1.34
10.11
18.01
21.86
22.26
20.44
17.78
15.18
12.94
10.90
8.82
6.68
4.67
3.10
2.09
1.50
0.90
-0.17
-2.07
-4.93
-8.75
-13.44
-18.91
-25.02
-31.49
-37.94
-44.02
-49.56
-54.59
-59.40
-64.21
-69.10
-73.96
-78.61
-82.88
-86.67
-89.75
-91.69
-91.89
-89.89
-85.80
-80.52
-75.50
-72.01
-70.42
-69.78
-68.09
-63.20
-53.71
-39.76
-22.86
-5.37
10.31
22.17
28.76
29.19
23.29
12.00
-2.43
-16.73
-27.54
-32.56
-31.40
-25.57
-17.69
-10.14
-4.19
0.26
4.13
8.22
12.74
17.20
20.99
23.86
26.21
28.77
32.07
35.94
39.40
40.95
39.37
34.34
26.69
18.11
10.41
4.66
0.83
-2.13
-5.58
-10.54
-17.12
-24.55
-31.64
-37.42
-41.62
-44.88
-48.39
-53.52
-61.18
-71.50
-83.58
-95.66
-105.43
-110.53
-109.16
-100.59
-85.37
-65.22
-42.57
-19.96
0.53
17.57
30.57
39.50
44.62
46.31
45.11
41.82
37.55
33.61
31.25
31.22
33.61
37.82
42.80
47.54
51.38
54.17
56.13
57.65
59.28
61.82
66.28
73.82
85.30
100.78
119.29
138.99
157.86
174.21
187.21
196.69
202.77
205.35
204.09
198.58
188.81
175.36
159.32
141.88
123.90
105.70
87.18
68.04
48.16
27.81
7.38
-12.98
-33.71
-55.90
-80.96
-110.12
-143.82
-181.33
-220.72
-259.23
-293.91
-322.20
-342.47
-354.14
-357.41
-352.84
-340.92
-321.91
-295.94
-263.38
-225.07
-182.33
-136.86
-90.63
-45.81
-4.66
30.94
60.12
83.73
104.35
125.30
148.98
175.26
200.93
220.52
228.47
221.58
200.41
169.29
134.77
103.56
80.66
68.30
65.93
70.95
79.73
88.86
95.80
99.17
98.45
93.37
83.32
67.21
43.81
12.34
-26.84
-71.80
-119.02
-163.76
-200.91
-225.91
-235.91
-230.44
-211.68
-183.93
-152.34
-121.60
-94.80
-73.06
-55.89
-42.00
-29.94
-18.38
-6.08
8.09
24.95
44.46
65.32
85.19
101.27
111.47
115.29
114.12
110.60
107.35
105.85
105.88
105.92
104.11
99.14
90.62
78.69
63.45
44.57
21.66
-4.97
-33.67
-61.44
-84.71
-100.40
-106.96
-104.63
-95.13
-80.99
-64.95
-49.59
-37.16
-29.53
-27.95
-32.89
-44.01
-60.32
-80.46
-103.01
-126.60
-149.87
-171.26
-188.90
-200.65
-204.38
-198.56
-182.80
-158.25
-127.36
-93.29
-59.01
-26.50
3.39
30.40
54.19
73.54
86.43
90.82
85.88
72.98
55.77
39.31
28.40
26.35
34.17
50.80
73.79
99.97
125.92
148.20
163.74
170.42
167.96
158.36
145.54
134.01
127.08
125.37
126.42
125.73
118.68
102.63
77.99
48.28
18.81
-5.11
-19.73
-23.71
-18.05
-5.56
9.73
23.11
29.65
24.71
4.91
-30.58
-78.93
-133.41
-184.41
-221.89
-238.35
-231.26
-203.74
-163.33
-119.19
-78.98
-46.95
-23.51
-6.59
6.55
17.75
27.52
35.47
41.31
45.54
49.56
55.22
64.04
76.65
92.57
110.62
129.49
148.28
166.70
184.85
202.82
220.27
236.37
249.92
259.80
265.35
266.58
264.14
258.89
251.53
242.26
230.89
217.12
201.12
183.66
166.10
149.85
135.68
123.32
111.42
97.92
80.75
58.39
30.27
-2.97
-39.48
-76.22
-109.26
-134.51
-148.73
-150.65
-141.54
-124.92
-105.26
-86.40
-70.18
-56.29
-43.18
-29.57
-15.67
-3.21
5.42
8.56
6.13
-0.37
-8.67
-16.65
-22.95
-27.00
-28.75
-28.32
-25.92
-21.93
-16.93
-11.59
-6.42
-1.51
3.37
8.58
14.17
19.69
24.20
26.63
26.16
22.59
16.55
9.35
2.65
-2.19
-4.54
-4.72
-3.75
-2.82
-2.79
-3.86
-5.69
-7.78
-9.97
-12.55
-16.15
-21.16
-27.08
-32.28
-34.18
-30.06
-17.98
2.35
29.53
60.90
93.53
125.09
154.22
180.49
203.74
223.63
239.49
250.51
256.23
256.77
252.78
245.13
234.51
221.29
205.73
188.26
169.76
151.41
134.41
119.50
106.81
95.87
86.00
76.60
67.40
58.31
49.30
40.23
30.87
21.09
11.02
1.15
-7.90
-15.63
-21.87
-26.86
-31.17
-35.48
-40.51
-46.89
-55.13
-65.60
-78.37
-93.12
-109.08
-125.09
-140.05
-153.27
-164.83
-175.46
-186.07
-197.03
-207.67
-216.24
-220.59
-219.07
-211.35
-198.69
-183.50
-168.47
-155.60
-145.74
-138.66
-133.54
-129.51
-126.06
-123.01
-120.32
-117.79
-114.97
-111.19
-105.85
-98.65
-89.66
-79.30
-68.08
-56.39
-44.45
-32.43
-20.66
-9.77
-0.64
5.77
8.83
8.45
5.16
0.00
-5.78
-11.08
-15.26
-18.28
-20.64
-23.18
-26.71
-31.66
-37.87
-44.62
-50.91
-55.91
-59.36
-61.78
-64.36
-68.53
-75.29
-84.72
-95.60
-105.60
-111.83
-111.69
-103.66
-87.84
-65.97
-40.90
-15.76
6.77
25.08
38.63
47.63
52.61
54.12
52.68
48.86
43.43
37.27
31.26
26.10
22.24
19.92
19.29
20.42
23.17
27.07
31.26
34.62
36.08
34.89
30.84
24.31
16.08
7.13
-1.65
-9.70
-16.86
-23.37
-29.66
-36.11
-42.80
-49.51
-55.73
-61.08
-65.53
-69.68
-74.63
-81.63
-91.48
-104.01
-117.71
-129.81
-136.89
-135.84
-124.92
-104.44
-76.78
-45.73
-15.25
11.51
32.88
48.59
59.24
65.65
68.46
68.09
64.97
59.77
53.44
47.10
41.77
38.16
36.61
37.09
39.29
42.72
46.75
50.66
53.66
54.93
53.77
49.80
43.08
34.24
24.33
14.43
5.30
-3.00
-10.95
-19.30
-28.51
-38.49
-48.53
-57.70
-65.38
-71.55
-76.86
-82.43
-89.41
-98.71
-110.71
-124.99
-140.13
-153.71
-162.53
-163.38
-153.97
-133.90
-104.94
-70.75
-35.69
-3.71
22.67
42.63
56.65
65.82
71.21
73.57
73.30
70.76
66.44
61.03
55.40
50.44
46.86
45.14
45.41
47.45
50.76
54.55
57.91
59.88
59.68
56.79
51.10
42.94
32.99
22.10
11.03
0.28
-10.04
-20.12
-30.27
-40.64
-51.13
-61.37
-70.96
-79.79
-88.29
-97.46
-108.69
-123.12
-140.96
-160.97
-180.20
-194.56
-199.84
-192.98
-173.15
-142.09
-103.71
-62.95
-24.45
8.46
34.26
53.06
66.06
74.80
80.67
84.54
86.85
87.70
87.17
85.41
82.72
79.57
76.48
73.96
72.44
72.16
73.15
75.16
77.62
79.70
80.39
78.73
73.94
65.71
54.28
40.42
25.37
10.48
-3.11
-14.78
-24.63
-33.34
-41.91
-51.22
-61.75
-73.44
-85.81
-98.22
-110.13
-121.39
-132.29
-143.64
-156.64
-172.39
-191.18
-211.74
-230.93
-244.22
-247.01
-236.14
-210.95
-173.48
-127.62
-77.96
-28.76
16.59
55.71
87.24
110.90
127.47
138.58
146.13
151.59
155.58
157.93
158.31
156.75
153.94
151.04
149.25
149.29
151.29
154.75
158.82
162.53
164.96
165.43
163.56
159.26
152.69
144.21
134.26
123.22
111.47
99.30
87.01
74.88
63.16
51.98
41.24
30.64
19.67
7.87
-5.07
-19.06
-33.63
-48.07
-61.68
-74.03
-85.17
-95.68
-106.62
-119.44
-135.58
-155.85
-179.62
-204.20
-225.01
-236.43
-233.49
-213.45
-176.96
-128.05
-73.03
-18.74
29.16
67.38
95.24
114.13
126.56
135.06
141.44
146.51
150.31
152.46
152.72
151.22
148.45
145.04
141.56
138.53
136.34
135.29
135.55
136.95
138.91
140.43
140.40
137.90
132.56
124.68
115.12
105.05
95.53
87.30
80.57
75.06
70.04
64.62
57.97
49.62
39.64
28.56
17.23
6.40
-3.55
-12.76
-21.83
-31.50
-42.31
-54.38
-67.31
-80.42
-93.03
-104.78
-115.86
-126.99
-139.36
-154.30
-172.83
-195.12
-219.91
-244.26
-263.75
-273.42
-269.09
-248.76
-213.43
-166.94
-114.97
-63.40
-16.91
21.79
52.07
74.75
91.42
103.74
113.10
120.53
126.58
131.57
135.61
138.68
140.85
142.20
142.92
143.19
143.24
143.19
143.13
142.98
142.55
141.49
139.37
135.77
130.42
123.22
114.37
104.30
93.57
82.79
72.42
62.69
53.62
44.98
36.46
27.75
18.74
9.48
0.17
-8.92
-17.59
-25.75
-33.48
-41.14
-49.33
-58.83
-70.32
-84.00
-99.38
-115.15
-129.48
-140.75
-148.31
-153.16
-157.69
-164.88
-176.69
-192.71
-209.69
-222.21
-224.50
-212.51
-185.44
-146.12
-100.33
-55.32
-18.16
5.59
12.99
4.24
-17.49
-46.88
-77.99
-105.89
-127.53
-141.76
-148.57
-148.15
-140.46
-125.48
-103.64
-75.96
-43.59
-7.28
32.68
75.66
119.76
161.31
195.60
218.54
228.36
226.29
215.94
201.59
186.59
172.63
159.93
148.14
137.13
127.29
119.28
113.52
109.82
107.21
104.13
98.79
89.70
76.31
59.48
41.46
25.32
13.78
8.07
7.19
8.06
6.60
-0.71
-15.55
-37.26
-63.20
-89.85
-114.00
-133.43
-146.79
-153.12
-151.46
-141.07
-122.04
-95.94
-65.86
-35.62
-8.61
13.29
30.14
43.47
55.25
66.85
78.41
89.01
97.33
102.58
105.05
106.31
108.61
113.96
123.25
135.75
149.41
161.81
171.22
177.26
180.73
182.83
184.47
185.95
187.22
188.40
189.95
192.43
195.80
198.90
199.51
194.96
183.20
163.52
136.67
104.12
67.26
26.98
-15.97
-60.09
-102.42
-138.72
-164.51
-176.66
-174.59
-160.54
-138.70
-113.67
-89.24
-67.62
-49.60
-34.97
-22.96
-12.47
-2.29
8.64
20.97
34.64
48.87
62.31
73.23
79.71
80.02
73.07
58.97
39.39
17.30
-3.75
-20.66
-31.64
-36.34
-35.43
-29.89
-20.55
-8.12
6.61
22.39
37.74
51.21
61.89
69.59
74.63
77.53
78.63
78.01
75.63
71.45
65.66
58.58
50.65
42.15
33.11
23.26
12.23
-0.25
-14.08
-28.81
-43.94
-59.34
-75.64
-94.28
-117.10
-145.69
-180.65
-221.11
-264.76
-308.30
-348.08
-381.20
-406.28
-423.92
-436.54
-447.60
-460.35
-476.63
-496.09
-516.26
-533.33
-543.49
-544.10
-534.26
-514.76
-487.45
-454.50
-417.95
-379.56
-340.91
-303.36
-267.77
-234.17
-201.53
-168.04
-131.63
-90.85
-45.40
3.74
54.35
103.22
146.58
181.03
204.74
218.39
225.13
229.32
234.38
240.90
246.21
245.82
236.07
216.43
190.20
163.14
140.93
126.60
119.47
115.92
111.33
102.21
87.55
68.95
49.67
33.25
22.39
18.58
22.47
34.34
54.39
82.26
116.46
154.03
191.15
224.21
250.90
270.59
283.81
291.29
293.38
290.08
281.54
268.54
252.32
234.03
214.06
192.05
167.52
140.83
113.57
88.29
67.52
52.79
44.29
41.06
41.63
44.56
48.56
52.32
54.34
53.15
47.75
38.06
25.06
10.27
-4.90
-19.88
-35.15
-52.06
-72.13
-96.14
-123.19
-150.32
-172.73
-184.96
-182.62
-164.13
-131.62
-90.49
-47.72
-9.81
19.08
37.62
47.00
49.59
47.87
43.75
38.33
32.14
25.41
18.32
11.29
5.11
0.88
-0.35
2.05
7.82
15.79
24.03
30.54
33.82
33.26
29.31
23.08
15.98
9.15
3.25
-1.54
-5.33
-8.28
-10.45
-11.91
-12.83
-13.61
-14.83
-17.04
-20.50
-25.13
-30.55
-36.18
-41.20
-44.43
-44.07
-37.74
-22.87
2.50
39.01
85.40
138.56
193.82
245.63
288.28
316.68
327.24
318.77
292.90
253.83
207.27
158.77
112.12
68.54
26.76
-16.02
-63.06
-116.67
-177.19
-242.23
-306.69
-363.72
-406.49
-430.35
-434.46
-422.09
-399.55
-374.06
-351.43
-334.55
-323.24
-315.24
-307.77
-298.70
-287.04
-272.61
-255.50
-235.66
-213.08
-188.29
-162.97
-140.18
-123.85
-117.55
-123.09
-139.44
-162.60
-186.45
-204.56
-212.06
-207.00
-190.60
-166.35
-138.31
-109.57
-81.36
-53.38
-24.62
5.56
36.82
67.79
96.52
121.13
140.31
153.75
162.17
167.10
170.37
173.57
177.65
182.83
188.81
195.03
200.90
205.78
208.86
209.11
205.56
197.64
185.62
170.62
154.29
138.20
123.36
109.80
96.82
83.36
68.57
52.06
33.86
14.07
-7.43
-30.82
-55.81
-80.98
-103.44
-119.34
-124.99
-118.11
-98.61
-68.40
-30.72
10.93
53.31
93.71
129.75
159.40
181.20
194.49
199.66
197.86
190.64
179.57
166.20
152.22
139.43
129.59
123.87
122.38
124.06
127.08
129.47
129.72
127.13
121.72
113.77
103.46
90.69
75.18
56.77
35.77
13.05
-10.17
-32.73
-53.97
-73.90
-93.05
-112.13
-131.78
-152.55
-174.86
-198.83
-223.80
-247.92
-268.09
-280.67
-282.66
-272.89
-252.34
-223.54
-189.14
-150.62
-107.90
-60.23
-7.71
47.51
101.19
148.12
183.95
206.54
216.36
215.77
207.84
195.25
179.73
162.08
142.45
120.79
97.24
72.53
48.34
27.19
11.94
4.67
5.79
13.49
24.36
34.69
41.76
44.77
44.65
43.22
42.26
42.88
45.56
50.34
57.18
65.88
75.94
86.24
95.12
100.63
101.11
95.52
83.77
66.80
46.54
25.85
8.27
-2.62
-4.04
5.19
24.16
49.92
78.26
104.67
125.40
138.30
143.12
141.60
137.00
133.15
133.27
138.74
148.52
159.47
167.80
170.54
166.61
156.55
141.54
122.11
97.91
68.42
34.34
-1.61
-34.93
-60.85
-76.15
-80.17
-74.59
-62.27
-46.03
-28.21
-10.95
3.39
12.17
13.34
6.41
-6.99
-23.67
-40.22
-54.54
-66.66
-78.26
-91.41
-106.89
-123.41
-137.75
-145.93
-144.59
-131.91
-107.94
-74.35
-33.95
9.58
52.17
89.76
119.15
138.80
149.36
153.39
154.34
155.11
157.07
159.90
162.32
163.27
162.51
160.64
158.42
156.12
153.24
148.90
142.19
132.61
120.09
104.99
88.22
71.37
56.72
46.82
43.63
47.72
57.93
71.71
86.04
98.28
106.60
109.98
107.93
100.49
88.36
72.94
56.05
39.28
23.37
7.94
-8.11
-25.75
-44.96
-64.42
-81.62
-93.69
-98.32
-94.63
-83.55
-67.51
-49.53
-32.18
-16.80
-3.65
7.44
16.03
20.63
19.06
9.38
-9.27
-36.32
-70.15
-108.52
-148.86
-188.23
-223.43
-251.17
-269.00
-276.00
-273.15
-262.83
-247.78
-230.12
-211.03
-191.05
-170.68
-150.71
-132.03
-115.15
-99.80
-85.03
-69.66
-52.91
-34.93
-16.79
-0.37
12.31
19.78
21.55
18.28
11.60
3.63
-3.49
-8.02
-8.73
-4.87
3.92
17.65
35.84
57.36
80.37
102.54
121.53
135.61
144.20
148.06
148.88
148.50
148.15
148.00
147.42
145.48
141.58
135.73
128.39
120.16
111.48
102.73
94.38
87.13
81.77
78.76
77.92
78.22
77.99
75.20
67.95
54.76
34.92
8.79
-22.00
-54.86
-86.79
-115.43
-139.91
-161.21
-181.85
-205.24
-234.73
-272.77
-319.95
-373.99
-429.13
-476.50
-506.16
-510.57
-487.96
-443.87
-389.68
-338.25
-298.70
-273.14
-256.87
-241.93
-221.62
-193.64
-160.27
-126.02
-94.80
-68.05
-44.93
-23.76
-3.48
15.53
31.92
44.36
52.30
56.15
56.96
55.79
53.29
49.52
44.05
36.36
26.20
13.95
0.61
-12.57
-24.62
-35.20
-44.57
-53.28
-61.58
-69.17
-75.39
-79.71
-82.32
-84.34
-87.51
-93.49
-103.05
-115.54
-128.98
-140.41
-146.72
-145.38
-135.09
-116.13
-90.32
-60.59
-30.33
-2.53
20.70
38.47
50.90
58.77
63.07
64.64
64.16
62.15
59.10
55.57
52.09
49.21
47.33
46.71
47.47
49.50
52.45
55.71
58.45
59.85
59.12
55.75
49.55
40.64
29.48
16.76
3.36
-9.79
-21.87
-32.32
-41.03
-48.43
-55.57
-63.82
-74.46
-87.97
-103.42
-118.36
-129.14
-131.98
-124.14
-104.87
-75.62
-39.59
-0.70
37.42
72.11
101.86
126.21
145.43
160.17
171.23
179.37
185.23
189.26
191.81
193.25
193.96
194.38
194.83
195.42
196.03
196.35
195.95
194.41
191.38
186.60
179.88
171.08
160.16
147.15
132.25
115.76
98.15
79.96
61.75
43.95
26.78
10.25
-5.85
-21.86
-38.24
-55.54
-74.27
-94.76
-116.74
-138.99
-159.21
-174.20
-180.69
-176.26
-160.37
-134.61
-102.43
-68.00
-34.99
-5.53
20.00
42.58
63.62
84.16
104.39
123.72
141.12
155.59
166.38
173.04
175.38
173.34
167.10
157.10
144.09
128.94
112.51
95.38
77.74
59.51
40.64
21.30
2.04
-16.40
-33.27
-48.12
-60.77
-71.18
-79.22
-84.54
-86.90
-86.52
-84.50
-82.88
-84.17
-90.65
-103.76
-123.74
-149.67
-179.46
-209.93
-236.88
-255.58
-261.76
-252.92
-229.25
-193.73
-151.12
-106.39
-63.46
-24.66
8.81
36.13
56.33
68.46
72.28
68.75
60.05
48.95
37.90
28.40
20.89
15.10
10.61
7.23
4.99
3.96
3.93
4.26
3.93
1.87
-2.76
-10.23
-20.27
-32.10
-44.72
-57.23
-69.06
-80.01
-90.34
-100.55
-111.37
-123.39
-136.93
-151.46
-165.39
-176.00
-179.97
-174.24
-156.97
-128.29
-90.39
-47.03
-2.64
38.77
74.32
102.66
123.80
138.72
148.83
155.52
159.86
162.64
164.35
165.34
165.84
165.94
165.47
164.08
161.34
157.05
151.30
144.40
136.65
127.88
117.39
104.06
86.82
65.22
39.88
12.59
-13.97
-36.67
-52.61
-59.59
-56.75
-44.96
-27.04
-7.39
8.88
17.38
15.94
5.47
-10.09
-24.93
-33.11
-30.53
-16.21
7.43
35.50
62.18
82.57
94.03
96.63
92.68
85.56
78.49
73.73
72.38
74.59
80.05
88.21
98.31
109.41
120.44
130.55
139.43
147.47
155.51
164.35
174.38
185.37
196.76
207.93
218.22
226.73
231.94
231.72
223.89
207.03
181.28
148.59
112.34
76.41
44.27
18.16
-1.34
-15.49
-27.29
-40.66
-59.20
-84.58
-115.40
-147.10
-173.40
-188.63
-190.09
-179.31
-161.58
-143.88
-132.18
-129.34
-134.40
-143.55
-152.02
-156.17
-154.56
-147.96
-138.42
-128.03
-118.10
-109.01
-100.61
-92.69
-85.32
-78.71
-72.91
-67.62
-62.12
-55.60
-47.60
-38.34
-28.94
-21.05
-16.43
-16.25
-20.52
-28.14
-37.17
-45.65
-52.29
-56.88
-60.19
-63.49
-68.03
-74.62
-83.56
-94.67
-107.33
-120.38
-132.09
-140.20
-142.44
-137.13
-123.86
-103.70
-78.90
-52.21
-26.13
-2.42
17.92
34.36
46.57
54.34
57.54
56.42
51.67
44.41
36.11
28.27
22.18
18.70
18.21
20.71
26.03
33.95
44.22
56.19
68.70
80.17
88.99
94.26
95.98
95.12
93.05
91.00
89.69
89.29
89.52
89.62
88.15
82.85
70.99
50.31
20.47
-15.88
-53.11
-83.91
-101.61
-102.49
-87.08
-59.84
-27.46
3.44
28.25
45.29
55.47
61.29
65.62
70.66
77.44
85.66
93.77
99.39
99.66
91.79
73.88
45.79
9.82
-29.26
-65.02
-90.95
-102.36
-97.84
-79.64
-53.03
-24.78
-1.50
11.58
11.47
-2.30
-27.55
-59.81
-93.17
-121.72
-141.28
-150.61
-151.88
-149.68
-149.37
-155.08
-168.33
-187.38
-207.92
-224.47
-232.17
-228.24
-212.63
-187.78
-157.46
-125.44
-94.41
-65.76
-39.85
-16.65
3.65
20.54
33.36
41.75
45.96
46.95
46.08
44.78
44.17
45.00
47.76
52.82
60.65
71.84
86.83
105.60
127.41
150.58
172.58
190.36
201.18
203.42
197.52
186.19
173.48
163.08
156.36
151.48
144.21
129.91
105.86
72.50
33.20
-7.24
-44.19
-74.16
-94.91
-105.14
-104.47
-93.85
-75.89
-54.71
-34.74
-19.03
-8.13
-0.03
8.47
19.87
34.69
51.46
67.79
81.80
93.10
102.76
112.44
123.45
136.20
150.16
163.94
175.44
181.98
180.91
170.59
151.44
126.47
100.46
78.18
62.42
52.86
46.67
40.11
30.47
17.20
1.80
-13.14
-25.13
-32.71
-35.94
-36.20
-35.89
-37.70
-43.75
-54.57
-68.59
-82.15
-90.40
-88.80
-74.55
-47.56
-10.37
32.79
77.25
118.95
154.82
182.52
200.07
205.75
198.40
178.01
146.00
104.98
58.22
9.08
-39.39
-84.47
-123.84
-155.82
-179.59
-195.38
-204.25
-207.59
-206.68
-202.55
-196.25
-189.11
-182.64
-178.11
-175.78
-174.67
-172.96
-168.91
-161.85
-152.53
-142.72
-134.48
-129.46
-128.46
-131.61
-138.41
-147.78
-157.86
-165.94
-168.90
-164.01
-150.04
-127.81
-100.03
-70.36
-42.21
-17.78
2.26
18.24
30.92
40.90
48.46
53.69
56.87
58.69
60.32
63.11
68.27
76.37
87.12
99.44
111.78
122.65
131.02
136.43
138.79
138.04
134.07
126.74
116.30
103.68
90.52
78.73
69.81
64.23
61.36
59.73
57.57
53.17
45.00
31.68
12.21
-13.36
-42.97
-72.00
-93.82
-101.44
-89.87
-57.92
-8.61
51.94
116.41
178.05
231.66
273.85
302.97
319.07
323.81
320.03
310.89
298.63
283.99
266.24
244.13
216.92
184.80
148.40
107.96
62.88
12.25
-43.78
-102.77
-159.71
-208.15
-242.32
-259.33
-260.32
-250.12
-235.55
-223.08
-216.90
-218.05
-224.76
-233.80
-242.04
-247.63
-250.29
-250.94
-250.84
-250.94
-251.55
-252.32
-252.57
-251.23
-246.82
-237.44
-220.94
-195.72
-161.51
-119.94
-74.40
-29.09
12.23
47.21
75.17
96.58
112.40
123.59
131.08
136.00
139.82
144.22
150.71
160.34
173.68
191.07
212.90
239.49
270.68
305.10
339.91
371.11
394.54
407.07
407.43
396.23
375.33
346.93
312.84
274.42
232.84
189.60
146.56
105.67
68.12
33.79
0.99
-33.27
-72.60
-120.12
-177.06
-241.29
-306.51
-363.01
-400.10
-409.68
-389.59
-344.96
-286.73
-227.81
-178.66
-144.29
-124.03
-113.47
-107.60
-102.97
-98.28
-93.53
-88.66
-82.77
-74.29
-61.78
-44.75
-24.17
-2.20
18.58
35.78
47.72
53.51
53.06
47.02
36.77
24.28
11.79
1.31
-6.12
-10.81
-14.39
-19.36
-28.03
-41.63
-59.74
-80.39
-100.85
-118.65
-132.48
-142.39
-149.40
-154.50
-157.74
-157.75
-152.06
-138.11
-114.50
-81.77
-42.48
-0.55
39.98
75.78
104.54
124.84
135.89
137.48
130.29
116.47
99.53
83.67
72.40
67.24
67.32
70.06
72.64
73.44
72.64
71.79
72.61
75.92
81.27
87.36
92.88
97.30
100.85
104.01
106.53
106.97
102.87
91.91
73.23
48.31
20.65
-5.55
-27.23
-43.72
-56.49
-67.82
-79.12
-89.92
-98.25
-101.92
-99.85
-92.67
-82.22
-70.41
-58.17
-45.14
-30.09
-11.99
9.25
32.53
56.11
78.59
99.89
121.50
145.73
174.16
206.16
238.44
265.99
284.18
290.97
287.70
277.96
265.32
251.37
235.09
214.16
187.01
154.38
119.28
85.46
55.41
29.05
3.84
-23.78
-56.77
-96.49
-142.68
-194.08
-248.75
-303.86
-355.31
-397.91
-426.81
-439.64
-438.09
-427.76
-415.78
-407.40
-403.42
-399.83
-390.29
-369.60
-336.48
-294.03
-247.82
-202.99
-162.16
-125.16
-90.54
-57.62
-27.59
-3.09
13.38
21.37
23.28
23.79
28.10
39.86
59.75
85.45
112.50
135.76
150.71
154.26
145.21
124.48
95.26
62.84
33.76
14.19
8.23
16.48
35.94
61.14
86.06
106.09
118.86
124.12
122.61
115.06
101.85
83.42
60.81
36.03
11.50
-10.90
-30.55
-48.05
-64.30
-79.48
-92.52
-101.42
-104.16
-99.53
-87.59
-69.73
-48.56
-27.79
-11.61
-3.41
-4.14
-11.51
-20.50
-25.50
-22.78
-11.88
4.80
24.08
44.04
64.64
86.57
109.42
130.62
146.19
152.80
149.77
139.69
127.07
116.19
109.16
105.34
102.22
96.80
86.92
71.72
51.46
26.89
-1.22
-32.04
-64.33
-96.31
-125.92
-151.50
-172.60
-190.37
-207.14
-225.25
-245.71
-267.27
-286.58
-299.28
-301.65
-291.86
-270.46
-239.80
-203.13
-163.73
-124.55
-88.12
-56.52
-31.08
-12.01
1.79
12.37
21.88
31.71
42.06
52.25
61.42
69.23
76.02
82.66
89.92
98.25
107.69
118.03
128.95
140.01
150.57
159.79
166.83
171.25
173.33
174.09
174.99
177.36
181.81
188.01
194.75
200.48
203.85
204.14
201.37
195.97
188.44
178.89
166.99
151.94
132.79
108.76
79.63
46.21
10.45
-24.57
-55.12
-77.68
-89.83
-90.90
-82.25
-66.72
-47.83
-28.85
-12.22
0.63
9.11
13.25
13.53
10.78
6.17
1.06
-3.21
-5.74
-6.43
-6.07
-6.20
-8.53
-14.18
-23.07
-33.71
-43.73
-50.75
-53.40
-51.93
-48.01
-44.00
-41.89
-42.67
-46.25
-51.84
-58.51
-65.49
-72.18
-77.95
-82.10
-84.04
-83.72
-81.95
-80.42
-81.23
-86.12
-95.72
-109.18
-124.16
-137.40
-145.51
-145.74
-136.73
-118.84
-94.01
-65.24
-35.80
-8.44
15.21
34.57
49.83
61.37
69.56
74.76
77.75
80.00
83.52
90.31
101.40
116.30
132.89
148.16
159.30
164.89
165.46
163.30
161.62
163.36
170.22
181.95
196.33
209.65
217.62
216.44
203.61
178.35
141.69
96.25
45.86
-5.09
-52.45
-93.06
-125.38
-149.62
-167.10
-179.52
-188.17
-193.48
-195.11
-192.30
-184.22
-170.26
-150.26
-124.61
-94.55
-62.17
-30.19
-1.31
22.63
41.12
55.09
66.23
76.26
86.13
95.71
103.97
109.49
111.19
108.83
103.20
95.85
88.61
83.02
80.01
79.90
82.58
87.68
94.57
102.35
109.85
115.81
119.14
119.07
115.22
107.65
96.64
82.80
67.09
50.68
34.74
20.09
7.02
-4.56
-14.69
-23.01
-28.72
-31.19
-30.60
-28.45
-27.32
-29.88
-37.75
-50.61
-66.28
-81.52
-93.35
-100.05
-101.60
-99.33
-95.22
-90.95
-87.39
-84.47
-81.35
-77.00
-70.60
-61.82
-50.89
-38.34
-24.76
-10.59
3.97
18.82
33.69
48.05
61.07
71.77
79.34
83.29
83.60
80.68
75.25
68.31
60.96
54.32
49.25
46.16
44.98
45.50
47.67
51.80
58.31
67.11
77.21
86.61
93.01
94.54
90.35
80.52
65.47
45.66
21.70
-5.03
-31.86
-55.16
-71.41
-78.62
-77.14
-69.42
-58.83
-48.54
-40.78
-37.18
-39.39
-49.47
-69.39
-99.87
-139.38
-183.86
-227.47
-263.99
-288.10
-296.21
-286.63
-259.41
-216.34
-160.97
-98.76
-36.64
18.03
59.04
83.10
90.78
86.34
76.16
66.49
61.37
61.50
64.55
66.45
63.26
52.60
34.23
9.72
-18.43
-47.93
-77.34
-106.30
-134.94
-163.31
-190.76
-215.74
-236.17
-250.05
-256.10
-254.00
-244.39
-228.50
-207.95
-184.50
-160.04
-136.42
-115.23
-97.56
-83.99
-74.80
-70.09
-69.64
-72.43
-76.42
-78.74
-76.68
-68.77
-55.53
-39.13
-22.39
-7.49
4.76
14.77
23.35
30.89
37.14
41.46
43.42
43.12
41.09
37.89
33.70
28.37
21.61
13.44
4.32
-4.85
-13.09
-19.64
-24.27
-27.44
-30.22
-34.17
-41.00
-51.97
-67.30
-85.59
-103.80
-117.83
-123.64
-118.40
-101.37
-74.00
-39.38
-1.36
36.44
71.11
100.70
124.10
140.81
150.83
154.59
153.10
148.03
141.62
136.42
134.71
137.88
146.00
157.80
171.33
184.65
196.53
206.65
215.39
223.28
230.65
237.53
243.66
248.85
253.08
256.54
259.50
262.26
265.21
268.70
273.20
279.07
286.46
295.09
304.11
312.18
317.67
319.20
316.14
309.12
299.84
290.66
283.57
279.44
277.56
275.92
272.04
263.98
250.98
233.68
213.65
192.79
172.69
154.30
137.83
122.86
108.52
93.84
78.00
60.72
42.33
23.58
5.23
-12.54
-30.42
-49.90
-72.63
-99.68
-130.88
-164.80
-199.29
-232.38
-263.27
-292.65
-322.44
-355.25
-393.55
-438.95
-491.45
-548.66
-605.40
-654.22
-687.08
-698.06
-685.90
-655.10
-614.69
-574.92
-543.36
-522.23
-508.31
-495.21
-476.71
-449.34
-413.04
-369.97
-322.65
-272.45
-219.49
-163.48
-105.02
-46.49
8.22
54.99
91.04
116.04
132.24
143.41
153.14
163.40
174.03
183.24
188.92
189.97
186.96
181.90
177.37
175.42
176.63
179.94
182.80
182.22
175.82
162.89
144.76
124.35
105.11
89.65
79.02
72.74
69.56
68.09
67.35
66.37
63.88
58.12
47.39
30.81
8.98
-15.80
-40.18
-60.68
-74.62
-80.70
-79.08
-71.06
-58.60
-43.69
-27.91
-12.16
3.42
18.97
34.54
49.59
63.07
73.75
80.82
84.39
85.62
86.44
89.00
95.05
105.59
120.72
139.74
161.36
184.01
206.08
226.24
243.50
257.31
267.40
273.65
276.02
274.54
269.29
260.33
247.60
230.82
209.62
183.71
153.15
118.36
79.91
38.32
-5.99
-52.51
-100.17
-147.08
-190.47
-227.01
-253.29
-266.39
-264.42
-247.05
-215.80
-174.15
-127.07
-80.00
-37.65
-2.96
23.19
41.48
53.16
59.19
59.94
55.45
46.13
33.12
18.46
4.61
-6.24
-12.66
-14.32
-11.76
-6.07
1.46
9.55
16.95
22.29
24.08
20.74
10.98
-5.76
-28.77
-56.13
-85.14
-113.25
-138.77
-161.04
-179.97
-195.22
-205.68
-209.79
-206.40
-195.81
-180.26
-163.52
-149.80
-142.47
-143.09
-151.18
-164.43
-179.13
-190.86
-195.33
-189.38
-172.01
-144.67
-110.88
-75.15
-41.64
-13.13
9.32
26.04
38.14
46.85
53.13
57.53
60.14
60.72
58.95
54.76
48.52
41.07
33.54
26.98
22.17
19.50
19.05
20.66
23.91
28.12
32.36
35.73
37.63
38.05
37.42
36.29
34.78
32.38
28.08
21.02
11.02
-1.03
-13.43
-24.21
-31.89
-36.04
-37.27
-36.98
-36.83
-38.17
-41.66
-46.96
-52.59
-55.97
-53.77
-42.72
-20.61
12.54
54.02
98.78
140.65
174.12
195.92
205.93
207.12
204.37
202.83
206.19
215.73
230.32
247.42
264.32
279.07
290.91
300.02
307.19
313.42
319.63
326.46
333.90
340.96
345.70
345.60
338.40
322.97
299.75
270.47
237.46
202.77
167.67
132.57
97.23
61.16
24.11
-13.56
-50.65
-85.32
-115.62
-140.30
-159.35
-174.17
-187.14
-200.74
-216.62
-234.95
-254.30
-272.11
-285.52
-292.32
-291.51
-283.61
-270.36
-254.19
-237.58
-222.55
-210.43
-201.74
-196.33
-193.52
-192.36
-191.80
-190.86
-188.67
-184.41
-177.17
-166.03
-150.29
-129.71
-104.79
-76.69
-47.01
-17.41
10.58
35.57
56.26
71.46
80.36
82.82
79.70
72.78
64.29
56.30
50.14
46.12
43.68
41.70
39.05
34.93
29.14
22.03
14.40
7.14
0.95
-3.93
-7.72
-10.99
-14.30
-17.86
-21.28
-23.54
-23.27
-19.19
-10.74
1.70
16.73
32.44
47.09
59.56
69.70
78.21
86.11
94.17
102.45
110.07
115.41
116.67
112.62
103.20
89.77
74.73
60.72
49.63
41.87
36.44
31.33
24.33
13.55
-2.19
-23.22
-48.90
-77.25
-104.79
-127.06
-139.76
-140.47
-129.92
-112.28
-93.88
-80.95
-77.38
-83.55
-96.67
-112.48
-127.23
-138.97
-147.71
-154.48
-160.27
-165.49
-170.06
-174.09
-178.06
-182.50
-187.24
-190.70
-189.90
-181.47
-163.12
-134.90
-99.47
-61.28
-25.14
5.18
27.70
42.19
49.60
51.42
49.13
44.06
37.50
30.78
25.32
22.46
23.19
27.88
36.20
47.19
59.42
71.27
81.06
87.25
88.73
84.96
76.26
63.80
49.38
34.95
22.19
12.18
5.32
1.43
-0.04
0.16
1.32
2.98
5.12
8.13
12.65
19.19
27.80
37.94
48.77
59.41
69.33
78.47
87.14
95.76
104.57
113.61
122.93
132.91
144.36
158.08
174.25
191.69
207.60
218.17
219.67
209.68
187.97
156.37
117.89
75.68
32.35
-10.18
-50.25
-86.09
-115.80
-137.60
-150.17
-152.96
-146.17
-130.91
-109.12
-83.52
-57.33
-33.84
-15.81
-4.82
-0.87
-2.30
-6.20
-9.37
-9.41
-5.73
0.20
5.35
6.38
1.10
-10.69
-27.34
-46.47
-66.26
-86.17
-106.60
-127.49
-147.16
-161.84
-166.67
-157.41
-132.21
-92.33
-41.70
14.30
70.35
122.19
167.15
204.13
233.44
256.47
275.05
290.79
304.41
315.48
322.75
324.75
320.41
309.35
291.80
268.45
240.27
208.52
174.62
139.79
104.43
67.85
28.72
-13.85
-59.00
-103.62
-142.93
-172.11
-188.10
-190.72
-182.40
-167.14
-148.95
-130.98
-115.34
-103.48
-96.66
-95.83
-101.09
-111.22
-123.80
-136.14
-146.59
-155.42
-164.41
-175.64
-189.92
-205.99
-221.13
-232.79
-240.04
-243.89
-246.14
-247.57
-246.90
-241.24
-228.01
-206.94
-180.85
-154.44
-132.03
-115.40
-103.26
-92.39
-79.66
-63.65
-44.98
-25.51
-7.07
9.43
24.09
37.55
50.42
62.95
74.93
85.83
94.86
101.16
103.95
102.83
98.08
90.66
81.94
73.21
65.23
57.97
50.81
42.86
33.28
21.43
6.98
-10.19
-29.81
-51.00
-72.01
-90.25
-102.66
-106.55
-100.44
-84.73
-61.81
-35.32
-9.12
13.82
32.06
45.60
55.22
61.76
65.58
66.65
64.93
60.84
55.46
50.27
46.60
45.15
45.76
47.55
49.31
49.86
48.40
44.66
38.90
31.86
24.62
18.27
13.54
10.45
8.04
4.54
-2.09
-13.29
-29.07
-47.66
-65.75
-79.57
-86.16
-84.59
-76.27
-64.41
-52.73
-44.12
-39.76
-38.96
-39.62
-38.84
-33.59
-21.07
0.96
33.75
77.17
129.35
186.86
245.26
300.11
347.72
385.70
412.84
428.81
433.78
428.21
412.84
388.70
357.05
319.35
277.12
231.99
185.60
139.69
95.67
54.30
15.32
-22.79
-62.47
-106.48
-156.98
-214.43
-276.77
-339.23
-394.84
-436.08
-457.01
-455.38
-433.65
-398.45
-358.46
-321.66
-293.13
-274.28
-263.59
-258.36
-256.14
-255.36
-254.80
-252.69
-246.21
-231.85
-206.78
-170.24
-124.47
-74.20
-25.13
18.07
53.36
81.54
105.34
127.61
149.80
171.33
190.16
204.11
212.21
215.22
215.23
214.57
214.58
215.06
214.42
210.46
201.29
185.85
164.07
136.70
105.04
70.85
36.18
3.15
-26.40
-51.29
-71.14
-86.12
-96.56
-102.67
-104.59
-102.74
-98.19
-92.75
-88.61
-87.72
-91.05
-98.25
-107.65
-116.67
-122.42
-122.43
-115.31
-101.12
-81.31
-58.17
-34.13
-11.00
10.21
29.14
45.55
58.96
68.73
74.42
76.29
75.43
73.55
72.40
73.12
75.91
80.04
84.36
87.86
89.99
90.87
90.88
90.40
89.50
87.93
85.36
81.64
76.79
71.04
64.56
57.42
49.59
41.13
32.32
23.67
15.76
8.88
2.95
-2.68
-9.04
-17.24
-28.16
-41.90
-57.50
-72.90
-85.17
-91.31
-89.18
-78.33
-60.23
-37.88
-14.83
6.01
23.13
36.55
47.27
56.42
64.53
71.23
75.53
76.52
73.98
68.79
62.66
57.76
55.92
58.14
64.28
73.03
82.14
88.74
90.03
83.99
70.25
50.62
28.69
8.62
-6.58
-16.31
-22.52
-28.65
-37.75
-51.04
-67.60
-85.23
-101.88
-116.70
-130.18
-143.35
-156.81
-170.02
-181.39
-188.79
-190.22
-184.29
-170.56
-149.72
-123.52
-94.51
-65.36
-38.13
-13.65
8.49
29.54
50.66
72.29
93.96
114.61
133.23
149.30
162.83
174.09
183.26
190.16
194.36
195.40
193.07
187.54
179.36
169.26
157.92
145.85
133.23
119.98
105.79
90.39
73.71
56.00
37.78
19.76
2.64
-13.09
-27.18
-39.56
-50.38
-60.13
-69.61
-80.00
-92.50
-107.88
-126.00
-145.59
-164.37
-179.46
-187.89
-187.25
-176.32
-155.58
-127.35
-95.46
-64.27
-37.64
-18.01
-6.13
-1.45
-2.67
-8.29
-16.71
-26.11
-34.42
-39.53
-39.81
-34.38
-23.22
-6.89
13.87
38.20
65.04
92.90
119.76
143.29
161.39
172.83
177.94
178.61
177.85
178.75
183.24
191.45
201.72
211.39
218.04
220.45
218.92
215.04
210.85
208.08
207.47
208.52
209.63
208.62
203.35
192.53
175.99
154.61
129.65
102.06
71.93
38.55
0.99
-40.91
-85.62
-129.58
-167.73
-194.92
-207.82
-206.52
-195.04
-180.07
-168.65
-165.58
-171.82
-184.62
-199.24
-210.99
-216.90
-216.10
-209.23
-197.61
-182.57
-165.37
-147.42
-130.27
-115.36
-103.61
-94.98
-88.38
-82.17
-74.62
-64.72
-52.54
-39.32
-27.09
-17.92
-13.20
-13.14
-16.82
-22.53
-28.54
-33.70
-37.74
-41.23
-45.22
-50.67
-57.93
-66.36
-74.27
-79.24
-78.83
-71.41
-56.71
-36.11
-12.19
12.02
33.77
51.16
63.31
70.30
72.90
72.35
70.05
67.28
65.06
63.96
64.22
65.61
67.46
68.67
67.93
64.31
57.74
49.36
41.09
34.74
30.92
28.46
24.73
16.74
2.65
-17.43
-41.36
-65.98
-88.22
-106.13
-119.18
-128.01
-133.78
-137.55
-139.93
-141.15
-141.51
-141.79
-143.33
-147.72
-156.16
-168.88
-184.82
-201.91
-217.40
-228.46
-232.52
-227.59
-212.64
-187.98
-155.47
-118.36
-80.58
-45.70
-16.03
7.63
25.64
38.91
48.41
55.00
59.62
63.47
67.80
73.58
81.05
89.60
97.96
104.78
109.14
110.79
110.07
107.57
103.74
98.69
92.17
83.82
73.44
61.14
47.47
33.32
19.80
7.85
-2.01
-9.87
-16.54
-23.14
-30.73
-39.74
-49.85
-60.07
-69.36
-77.18
-83.88
-90.63
-99.00
-110.31
-124.98
-142.20
-159.91
-175.06
-184.24
-184.40
-173.65
-151.75
-120.35
-82.65
-42.72
-4.51
28.92
55.84
75.85
89.44
97.58
101.30
101.59
99.49
96.13
92.79
90.67
90.70
93.24
98.07
104.40
111.19
117.41
122.22
125.16
126.04
124.96
122.13
117.79
112.21
105.63
98.29
90.42
82.28
74.13
66.31
59.13
52.86
47.55
43.00
38.85
34.64
30.01
24.67
18.40
10.94
2.24
-7.13
-15.65
-20.65
-18.81
-7.18
15.77
49.38
90.89
136.31
181.60
223.67
260.86
292.65
319.12
340.43
356.68
368.06
375.11
378.69
379.80
379.06
376.34
370.87
361.53
347.55
328.85
306.24
281.06
254.64
227.94
201.41
175.18
149.25
123.71
98.63
73.85
48.82
22.65
-5.65
-36.83
-71.03
-107.69
-145.73
-183.96
-221.72
-259.47
-299.04
-343.02
-393.40
-449.84
-508.62
-562.86
-604.22
-625.37
-622.18
-594.69
-546.74
-484.84
-416.93
-351.17
-294.67
-252.22
-224.76
-208.97
-198.01
-183.96
-160.93
-127.27
-86.19
-43.98
-7.37
18.81
32.80
35.57
29.72
18.54
5.61
-5.24
-10.27
-6.63
6.51
27.05
50.13
69.65
80.37
79.99
69.71
53.58
36.41
22.02
12.00
5.89
2.09
-1.01
-4.28
-7.69
-10.63
-12.44
-12.76
-11.78
-10.32
-9.72
-11.50
-16.87
-26.03
-37.71
-49.14
-56.68
-56.93
-47.94
-29.89
-5.04
23.18
51.33
76.85
98.46
115.93
129.67
140.18
147.87
152.78
154.66
153.01
147.48
138.44
127.47
117.63
112.79
116.33
129.48
150.24
173.42
192.20
200.64
195.76
178.56
153.20
125.11
98.85
76.79
59.03
44.38
31.41
19.18
7.25
-4.70
-17.10
-30.42
-44.94
-60.43
-76.31
-91.91
-106.96
-121.57
-136.04
-150.14
-162.60
-171.02
-172.43
-164.39
-146.05
-118.86
-86.22
-52.54
-21.91
2.98
21.33
33.84
42.02
47.31
50.63
52.32
52.38
50.91
48.38
45.71
44.06
44.58
48.01
54.47
63.44
73.92
84.54
93.81
100.22
102.40
99.43
91.18
78.51
63.16
47.25
32.63
20.28
10.13
1.27
-7.42
-16.86
-27.38
-38.79
-50.57
-62.29
-73.85
-85.61
-98.15
-111.89
-126.45
-140.24
-150.57
-154.23
-148.68
-133.07
-108.70
-78.76
-47.29
-17.95
6.92
26.54
41.40
52.52
60.79
66.67
70.13
71.09
69.73
66.73
63.20
60.36
59.20
60.10
62.83
66.71
70.94
74.85
78.04
80.26
81.28
80.77
78.31
73.61
66.67
57.94
48.17
38.18
28.51
19.31
10.35
1.25
-8.15
-17.71
-26.96
-35.39
-42.77
-49.34
-55.92
-63.73
-73.89
-86.92
-102.25
-117.91
-130.77
-137.38
-134.98
-122.62
-101.52
-74.90
-46.87
-21.16
-0.12
15.59
26.70
34.50
40.08
44.02
46.37
46.99
45.89
43.43
40.28
37.28
35.28
34.82
36.10
38.86
42.49
46.21
49.24
51.04
51.35
50.12
47.43
43.38
38.05
31.56
24.09
15.93
7.41
-1.17
-9.57
-17.59
-25.02
-31.73
-37.62
-42.77
-47.48
-52.28
-57.94
-65.28
-74.97
-87.16
-101.18
-115.35
-127.11
-133.62
-132.55
-122.95
-105.58
-82.80
-57.82
-33.73
-12.72
4.23
17.11
26.41
32.61
36.00
36.77
35.31
32.42
29.20
26.83
26.21
27.67
31.06
35.87
41.55
47.75
54.38
61.47
69.05
76.90
84.59
91.56
97.27
101.49
104.36
106.38
108.13
110.05
112.22
114.50
116.65
118.60
120.52
122.66
125.00
127.06
127.83
125.97
120.39
110.56
96.76
80.11
62.43
45.98
33.15
26.02
25.84
32.58
44.92
60.61
77.20
92.78
106.42
118.30
129.30
140.53
152.60
165.20
176.86
185.16
187.48
181.89
167.98
147.12
121.87
95.08
68.74
43.47
18.61
-7.20
-35.61
-68.23
-106.32
-149.93
-196.97
-242.85
-281.30
-306.46
-315.13
-308.12
-289.53
-264.73
-238.08
-211.89
-187.12
-164.93
-147.76
-138.99
-141.31
-155.31
-179.11
-209.33
-242.41
-275.24
-304.89
-327.94
-340.54
-339.25
-322.48
-291.42
-249.79
-202.59
-154.45
-108.51
-66.52
-29.39
1.98
26.67
44.26
55.48
62.57
68.71
76.99
89.25
105.49
123.88
141.75
156.73
167.60
174.43
178.12
179.53
178.97
176.02
169.92
159.93
145.72
127.49
105.92
82.07
57.35
33.39
11.85
-5.81
-18.68
-26.88
-31.59
-35.03
-39.74
-47.59
-58.92
-72.21
-84.59
-93.06
-95.71
-92.43
-84.62
-74.39
-63.64
-53.82
-46.10
-41.67
-41.66
-46.57
-55.72
-67.08
-77.87
-85.63
-89.05
-88.12
-83.64
-76.59
-67.63
-57.14
-45.50
-33.26
-20.97
-8.91
2.98
14.85
26.41
36.48
43.06
43.84
37.20
22.87
2.22
-22.21
-47.74
-72.54
-96.31
-120.13
-145.63
-174.03
-205.35
-238.25
-270.44
-299.10
-321.27
-334.07
-335.30
-324.33
-303.11
-276.41
-250.80
-232.54
-225.28
-228.84
-239.56
-252.20
-262.07
-266.56
-265.22
-259.01
-249.27
-237.15
-223.66
-209.74
-196.31
-183.81
-171.84
-158.92
-142.98
-122.08
-95.10
-62.26
-24.97
14.64
54.43
92.90
129.41
164.13
197.69
230.80
263.65
295.50
324.42
347.55
361.84
365.22
357.53
340.74
318.34
293.99
270.37
248.61
228.68
210.11
192.80
177.11
163.47
151.71
140.69
128.42
112.54
91.11
63.34
30.04
-6.37
-42.48
-74.67
-100.15
-117.38
-125.89
-125.84
-117.27
-99.86
-73.13
-37.10
7.09
56.73
107.71
155.27
194.91
223.49
239.94
245.39
242.67
235.26
226.19
217.30
209.25
202.08
195.94
191.42
189.36
190.27
193.72
198.29
202.21
204.23
204.43
204.26
205.56
209.20
213.88
216.11
211.31
195.48
166.66
125.48
74.89
19.33
-36.14
-86.71
-128.46
-158.97
-177.78
-186.29
-187.24
