34.122
109.62
109.4
105.55
111.45
-14.474
-165.03
-207.5
-208.45
-138.82
-5.6312
44.743
47.06
55.495
70.066
67.068
32.262
-7.3741
-55.697
-70.723
-17.627
9.1102
13.354
22.022
31.903
31.785
16.096
-6.2339
-32.823
-19.99
52.807
116.34
155.97
178.74
173.84
115.19
13.357
-78.611
-113.81
-121.02
-107.19
-67.915
-48.326
-42.732
-47.73
-46.627
-39.651
-44.189
-54.179
-93.237
-126.65
-105.18
-68.202
-42.017
-15.85
12.766
19.292
20.246
4.6404
4.1483
71.664
96.826
71.534
51.305
40.962
29.572
6.2835
-13.086
-38.088
-38.441
11.389
39.492
43.508
23.946
4.6963
12.062
0.67269
-26.645
-41.782
-26.168
27.787
50.467
43.679
26.457
6.3231
-9.0342
-8.6117
-11.875
-10.793
35.879
78.928
77.94
43.285
11.046
-6.39
-4.2234
-15.352
-26.475
4.4709
-6.8477
-18.791
-33.614
-12.172
36.231
-0.49477
-33.555
-55.591
-9.5014
61.71
7.995
-43.153
-22.154
41.589
27.054
-32.382
-66.268
-29.332
12.747
1.2984
-10.678
-5.016
-5.0651
-5.3412
-9.9268
-11.544
-12.094
-13.145
36.722
54.488
20.011
3.4664
6.4609
9.0157
-0.99072
-11.851
-18.729
-29.289
0.98768
30.452
19.982
6.1772
1.5217
0.39716
-0.46878
-12.132
-20.263
-34.474
-38.123
8.2229
31.603
16.836
3.5966
3.7065
2.9168
-7.2656
-18.22
-26
-41.834
-18.863
14.829
12.452
3.385
4.5896
8.4573
9.2962
2.5013
-0.58808
-5.9948
-16.207
19.555
37.958
24.891
16.008
13.523
4.5819
1.9996
-5.2226
-20.739
-28.967
-52.688
-38.545
10.095
16.379
6.6489
6.1231
8.4369
11.338
9.5601
1.365
-7.2703
-15.396
-22.102
-40.49
-15.144
30.111
31.831
22.101
21.795
24.945
18.172
7.4482
-8.6117
-14.804
-36.607
-35.457
13.469
33.421
29.84
26.496
25.52
25.795
23.085
13.027
-4.8153
-20.009
-25.925
-40.832
-10.769
32.754
29.129
18.919
20.071
27.131
25.385
11.727
-3.3402
-13.641
-19.142
-28.624
-38.052
0.94304
31.159
20.205
3.8669
2.3227
6.9916
7.6621
-3.5955
-14.92
-19.004
-33.76
-8.7717
28.183
23.288
6.2238
1.0778
4.9141
5.2259
-3.8643
-16.856
-19.752
-34.266
-20.474
22.146
26.289
9.6819
2.7309
8.1393
6.452
-0.012411
-11.521
-16.831
-21.065
-34.498
-6.8449
26.942
20.37
5.545
1.1281
5.603
4.3584
-2.6723
-14.124
-18.182
-22.862
-28.874
0.57637
24.972
12.639
0.61787
0.82941
2.7719
1.3633
-9.3759
-14.97
-23.361
-23.63
11.355
23.861
14.135
7.8209
7.5619
4.7888
1.617
-9.4428
-15.241
-25.735
-29.578
7.2931
18.818
7.5319
3.2214
9.0813
10.524
5.1562
-4.8641
-13.105
-15.068
-26.605
-10.178
32.253
33.376
15.69
7.4661
9.1944
8.5204
0.18266
-7.5691
-14.899
-20.84
-21.01
-31.468
-6.496
29.382
24.385
8.8329
5.5241
8.5351
5.5659
-1.6536
-13.914
-16.889
-27.395
-27.174
13.196
29.665
16.431
8.396
10.777
7.7136
2.6523
-7.1195
-17.635
-19.894
-34.111
-21.923
21.621
25.525
9.144
3.9733
7.7083
10.594
9.4091
-0.12504
-12.031
-18.449
-18.95
-28.746
-4.5442
24.243
18.215
11.69
15.566
22.654
19.769
11.594
2.7999
-8.1052
-18.253
-33.184
-25.357
10.794
20.268
11.269
6.5203
10.805
6.1545
-4.0913
-20.76
-31.834
-42.298
-50.514
-10.969
26.172
22.244
11.544
6.6469
15.493
16.625
9.9472
6.8624
-11.661
-36.593
-56.466
-31.333
22.943
35.866
33.644
23.213
13.168
12.276
20.014
7.6067
-14.639
-20.654
-40.797
-64.492
-22.606
24.449
29.89
31.06
33.32
20.736
6.1813
-7.0207
-5.6496
-10.204
-13.248
-27.33
-49.211
-8.3056
22.637
16.257
14.539
21.902
13.724
-0.046356
-13.094
-27.788
-38.956
-61.699
-48.155
18.494
44.839
42.049
43.319
47.053
41.183
16.701
-10.695
-30.909
-36.654
-51.055
-62.407
-16.511
6.9038
0.06076
7.8185
17.874
24.353
20.487
11.243
2.7709
-13.198
-27.536
-53.834
-45.066
23.964
51.474
44.625
40.759
41.82
39.462
24.642
2.4328
-5.8792
-16.348
-23.527
-48.589
-54.489
5.6074
36.241
31.418
23.29
24.23
21.635
15.629
2.2443
-14.854
-24.547
-49.323
-46.657
11.262
34.214
30.948
29.991
26.973
23.011
16.397
4.3073
-11.791
-22.694
-40.835
-56.99
-11.995
29.167
30.029
31.18
30.913
26.833
27.165
17.372
4.5222
-6.649
-21.287
-29.151
-52.764
-37.248
15.523
25.426
22.625
22.249
21.783
19.54
11.768
1.2784
-10.5
-19.001
-28.289
-41.448
-8.9725
25.729
26.357
23.887
20.962
17.359
11.865
7.0725
1.5702
-7.169
-15.084
-40.936
-44.728
-5.4055
2.9975
-2.8495
10.303
39.168
53.536
41.241
11.447
-15.861
-23.064
-31.616
-42.454
-19.456
-1.8669
-0.67301
3.712
4.5656
-3.8104
-16.225
-15.341
3.8908
11.447
-17.446
-12.442
32.46
38.02
18.146
12.109
9.8187
-6.8174
-21.954
-48.179
-58.776
-66.364
-39.802
34.671
61.646
49.522
34.079
21.642
15.822
18.449
2.0006
-14.041
-27.833
-42.362
-36.901
-13.361
10.646
28.042
30.111
16.167
3.727
-9.6414
-26.219
-22.525
-23.395
-9.6138
27.298
26.733
-7.3378
-35.733
-44.101
-23.122
-10.955
-20.22
-25.779
-32.141
1.3036
60.922
91.408
38.72
-32.921
-28.969
-0.56504
-1.3102
-13.472
-14.895
-0.46938
52.06
93.727
56.892
-24.713
-55.814
-22.392
3.2066
2.319
-22.841
-87.191
-83.857
-9.0806
23.414
24.02
22.014
27.383
25.318
1.5914
-22.223
-43.498
-18.466
36.297
50.189
36.177
14.069
-2.4362
-19.192
-31.46
-39.943
-38.745
-7.4002
33.539
36.014
21.448
-5.4093
-16.413
-16.631
-22.664
-27.708
-38.626
-11.39
27.442
25.532
4.0889
-2.069
22.422
36.632
24.279
-13.177
-38.763
2.9973
26.478
16.251
-2.3675
-6.6638
-11.668
-31.96
-54.144
-60.454
-4.3743
59.533
55.354
33.661
15.571
-3.7643
-5.3341
-1.0327
-18.399
-37.031
0.87948
40.347
37.721
16.125
18.812
39.005
41.182
28.311
-21.066
-18.118
2.1384
-19.508
-23.407
-22.944
-41.469
-37.867
-22.202
-40.252
-2.0573
55.562
64.245
56.32
31.033
-2.3346
-18.974
-20.648
-19.569
22.778
61.464
77.207
40.185
-100.98
-222.66
-181.2
-75.602
-34.459
47.202
125.2
61.799
-13.891
-25.401
-5.159
26.423
45.062
38.517
79.294
107
48.099
-14.254
-50.461
-49.016
-15.274
-2.1051
-4.8694
19.093
47.62
36.203
-18.901
-58.218
-89.673
-93.978
-68.73
-43.313
20.831
72.674
43.643
-30.013
-49.562
-29.055
-7.6298
6.5183
7.6935
13.344
25.994
28.526
15.315
4.8355
-5.7359
-19.246
-31.793
-44.124
-26.914
-0.42889
8.9373
-2.5176
-4.3008
5.9025
30.675
54.391
45.495
58.369
65.751
42.359
28.512
31.365
13.416
-18.611
-54.066
-72.973
-34.965
-6.9227
-21.702
-24.179
-2.7855
7.9948
6.4824
-0.2639
-20.084
-14.231
13.894
29.502
31.873
21.631
7.1854
2.4439
1.2966
-21.835
-26.697
-6.1206
-1.5266
-0.72308
2.1409
4.3331
2.2835
-5.0681
-26.175
0.78616
50.055
65.447
63.73
61.493
57.943
31.141
6.2564
-23.201
-31.23
-7.625
5.035
15.26
25.666
32.708
39.297
20.706
-28.407
-82.073
-89.941
-27.864
21.047
45.444
55.141
-17.802
-93.945
-86.926
-78.911
-60.759
0.82608
36.07
35.593
29.371
34.116
34.408
21.688
15.086
-4.8201
5.0024
39.307
49.572
48.239
53.737
78.475
23.621
-57.17
-77.73
-91.491
-72.114
-12.615
-2.3117
-21.557
-20.692
-21.742
-20.161
-14.61
-13.345
-30.214
-16.508
29.203
47.246
32.996
5.5227
2.6244
-10.073
-31.001
-40.745
-40.727
-3.4885
26.605
17.224
-0.32974
-2.2907
-0.34097
-8.6385
-15.188
-28.896
-30.153
10.841
27.618
15.098
6.3922
-1.3909
-8.1143
-13.44
-8.3613
-11.465
-17.696
11.772
25.024
18.019
13.877
26.027
38.381
17.794
-17.848
-40.824
-46.122
-6.2907
18.318
7.1267
-3.4911
0.82718
5.4328
-1.9836
-5.3944
-14.459
-14.297
33.533
65.848
66.719
59.809
79.569
62.198
-49.479
-132.88
-139.8
-82.311
0.10953
25.134
15.537
4.9964
-16.94
-34.785
-42.99
-45.275
-51.846
-28.944
19.834
34.825
30.33
31.246
36.228
31.193
18.601
7.8714
-11.046
-5.5743
37.072
46.454
35.31
32.609
36.459
42.481
40.964
47.84
36.072
-33.741
-53.288
-30.907
-20.428
-11.117
6.2563
14.808
7.1253
-2.4527
-7.3542
-22.208
-8.8797
25.115
21.322
9.4683
7.4611
7.9012
1.2732
-9.9753
-16.102
-28.169
-28.948
5.0026
14.697
7.4126
6.2232
5.5548
0.46011
-1.3187
-11.144
-12.516
-22.64
-21.508
18.117
26.12
11.211
3.5064
5.4731
1.4873
-2.1896
-7.2071
-12.424
-13.164
-23.364
-14.286
18.19
20.422
3.1691
-3.5832
-0.80941
-4.018
-7.3451
-14.619
-16.482
-25.881
-21.027
12.234
19.073
8.6003
5.1242
6.8766
2.1035
-3.6067
-14.626
-16.598
-27.235
-29.855
6.6891
19.243
10.314
4.1141
0.96527
-3.8803
-12.508
-22.079
-31.25
-30.728
-36.026
-27.26
22.891
49.835
41.343
29.185
20.081
22.116
19.758
9.8656
4.6498
-10.898
-21.455
-35.171
-38.042
11.63
39.792
33.47
24.985
22.669
16.477
3.0599
-9.0403
-20.813
-25.449
-39.529
-38.371
10.114
34.862
21.14
8.4037
11.91
10.028
4.9041
-4.9178
-17.246
-24.14
-43.825
-31.667
22.264
34.728
19.731
12.844
16.15
12.974
4.4521
-6.8045
-20.724
-29.033
-44.728
-44.868
10.406
37.758
26.935
18.114
24.009
26.975
15.592
-0.8605
-19.502
-33.347
-52.216
-61.889
-15.249
19.157
13.319
6.3031
13.119
15.695
13.314
3.083
-2.2428
-6.3103
-22.979
4.0763
40.493
33.793
14.9
6.7767
4.8912
-1.8991
-19.707
-29.178
-42.127
-51.771
-2.6467
28.829
17.784
9.6505
12.43
18.809
18.773
7.2681
8.5569
-2.5357
-0.68329
46.608
67.055
56.669
61.23
71.018
50.173
2.5789
-86.593
-142.53
-138.18
-60.6
54.415
83.935
42.82
6.8312
2.2103
19.076
27.014
19.025
3.6282
-52.203
-50.257
-20.95
-27.35
-21.068
-24.569
-15.761
12.407
26.962
31.713
9.224
1.886
33.438
21.742
10.89
-4.6701
-19.935
-16.556
-12.528
-30.55
-37.697
-17.622
35.443
65.217
63.37
35.189
28.784
56.663
52.842
12.592
-31.977
-64.971
-15.701
43.736
30.837
25.461
16.777
2.0661
-8.0382
-5.037
-37.164
-83.049
-39.396
-11.853
-23.261
-7.3537
-6.077
-23.979
-55.821
-93.151
-125.71
-133.06
-62.626
-1.6083
-25.964
-18.709
27.968
40.764
-2.3373
-42.883
-29.491
-16.781
16.39
82.638
94.427
90.465
75.77
43.94
-11.797
-28.813
-7.9079
13.118
29.266
32.221
37.204
14.945
11.812
41.583
5.9273
-62.585
-166.05
-151.52
35.522
105.58
32.88
-25.855
-49.742
28.273
108.82
44.757
-37.196
-90.525
-2.5033
126.21
91.483
-10.547
-87.648
-98.193
-1.2383
31.929
-3.61
-11.794
-56.105
-79.877
-5.9384
38.59
62.353
55.485
2.5643
-34.738
22.733
92.296
36.046
-57.391
-11.438
57.964
64.815
37.497
-99.6
-100.58
26.431
76.206
74.819
8.3873
-90.973
-80.183
-5.6943
24.142
48.197
30.868
27.271
22.713
-5.5117
5.9758
23.882
-4.5546
-51.739
-20.147
15.642
-33.201
-67.013
-78.792
-121.08
-23.211
63.504
4.3338
-38.243
9.2113
80.341
78.48
26.085
-31.489
-57.754
-40.35
31.995
71.424
18.098
-34.48
-6.2726
31.206
63.442
38.83
-11.819
-1.0638
15.399
1.0222
17.115
-28.86
-110.25
-77.062
-5.8212
58.051
78.667
49.67
21.162
34.626
32.306
-16.555
-61.561
-79.224
-18.528
37.884
69.474
65.613
8.9042
-21.992
-52.733
-19.209
17.445
1.0725
-50.019
-43.973
-1.6508
31.172
30.874
-9.8599
1.2452
18.965
30.084
10.387
-20.984
-87.533
-109.27
1.3822
86.021
84.238
54.266
11.355
-32.489
-35.668
-36.843
-18.2
-11.477
-26.436
36.485
73.185
61.013
-5.6471
-105.86
-62.648
19.806
5.904
-27.221
-62.87
-58.923
3.6685
67.316
82.418
73.107
11.037
-73.338
-72.068
-33.511
-47.914
-87.639
-44.614
52.16
92.837
67.349
28.783
-25.316
-1.0302
46.58
51.751
57.503
7.5226
-10.041
67.989
75.516
-0.4939
4.4719
9.2259
-49.55
-72.675
-73.672
-108.59
-113.52
40.631
155.92
107.09
63.774
26.955
-1.7452
-12.23
34.537
66.777
27.451
-46.83
-55.972
-27.98
-22.546
-66.139
-47.181
-2.0925
25.522
21.423
-27.886
-125.21
-131.68
32.8
109.04
63.101
-14.892
-40.311
-59.094
-39.718
56.647
82.542
51.435
30.835
18.58
4.1684
-49.199
-69.298
-26.214
-31.162
-46.302
-18.125
20.692
-9.4867
-12.525
49.987
75.184
78.482
66.93
40.852
-19.524
12.185
143.18
150.5
44.224
-29.626
-12.639
8.7917
-28.598
-48.811
-10.553
-68.765
-104.39
-40.386
-119.85
-209.8
-181.59
-76.221
46.298
142.3
172.66
169.25
61.039
-54.373
-31.942
31.438
50.668
64.936
46.927
80.867
82.414
-52.669
-135.38
-140.3
-104.37
-33.065
-140.04
-160.8
14.084
97.45
93.327
44.95
-21.161
-29.226
24.878
70.588
90.815
98.083
85.423
39.142
-33.248
-30.637
-13.918
-30.249
-79.763
-135.35
-175.05
-130.85
-44.953
2.2458
15.833
93.553
127.37
20.132
-21.286
28.113
58.937
60.959
19.765
-31.045
-62.374
31.235
123.24
122.31
95.011
-2.9917
-66.456
-114.97
-70.911
83.589
96.537
-40.765
-104.94
-61.95
-19.132
-24.576
-17.473
-18.927
-67.869
-24.652
12.377
-63.694
-79.981
-16.884
54.108
19.418
-36.48
-62.65
-37.069
72.243
118.28
82.222
37.476
4.1373
-13.736
53.229
74.632
9.5153
-26.482
-24.288
10.335
26.768
27.216
38.059
0.64453
18.132
89.022
48.543
-43.206
-71.518
-9.4857
26.135
-13.142
-25.107
-11.09
-60.413
48.308
146.22
86.804
-7.6194
-48.013
-0.82384
51.47
123.03
144.36
79.449
-71.825
-191.69
-137.24
-25.284
-1.7831
-49.025
-13.625
-24.633
-74.392
-68.755
-7.9237
-32.501
-102.91
-35.333
27.239
1.926
-6.2241
36.601
66.405
66.33
51.883
34.66
69.305
89.678
55.733
83.9
58.192
-48.072
-141.52
-198.55
-228.42
-245.64
-178.01
-178.29
-73.923
66.601
94.937
90.304
118.65
96.747
-79.711
-178.88
-124.85
-49.577
104.29
148.82
128.72
140.41
112.07
40.926
85.461
143.01
94.6
9.2182
-24.371
-17.616
-58.29
-61.506
-54.562
-34.378
13.121
53.345
35.558
-11.848
-7.5551
-0.24147
5.0847
39.269
26.632
2.7009
-8.6707
-37.431
-8.0812
-20.07
-7.4448
-0.22783
-10.256
68.171
87.349
-16.126
-120
-102.88
-67.887
-133.28
-20.29
90.398
26.877
4.2783
30.513
34.004
120.18
151.56
83.139
14.828
18.016
-27.158
-196.15
-215.3
-102.65
8.1927
50.774
49.227
-10.714
-45.285
-6.3212
54.631
43.242
34.802
41.502
22
72.58
43.198
-27.547
-25.949
-61.828
-70.624
-35.968
49.019
92.455
89.556
56.585
54.137
15.253
-39.587
-13.979
-36.803
-63.22
-42.845
-72.733
-161.69
-121.59
11.233
71.406
87.648
117.29
30.507
-51.812
19.108
28.242
30.685
77.322
68.922
66.289
109.9
127.31
89.015
-12.213
-111.34
-178.65
-122.3
0.5885
11.614
-61.003
-145.03
-137.64
-30.653
76.246
54.693
11.671
10.334
21.405
15.521
7.4979
-8.9113
-48.25
-40.858
-78.682
-81.508
-62.695
-58.849
27.366
43.649
-0.31029
28.514
12.042
-9.9217
83.085
135.63
132.96
52.946
-31.255
-51.202
-22.429
59.945
90.344
47.592
41.317
-15.434
-112.48
-94.501
-26.856
-20.317
-84.65
-101.92
-76.27
26.689
95.506
63.143
-0.34421
-18.748
33.009
40.534
46.992
24.459
1.3059
-71.265
-185.48
-231.52
-149.57
-86.909
-9.0692
92.392
34.214
166.2
233.33
78.267
-10.337
-41.967
-24.307
49.765
-18.988
-81.399
-13.037
84.417
167.88
108.41
-25.931
-147.74
-100.96
-3.0506
69.771
46.55
-41.417
-94.011
-21.305
189.58
239.3
47.975
-103.78
-165.11
-110.21
67.588
110.58
-0.90593
-57.062
7.6978
131.44
116.41
21.526
-38.752
-50.825
-56.87
-11.973
39.026
31.639
-23.87
-43.914
-17.287
68.92
100.08
27.787
-29.584
-32.698
-22.939
-22.319
-51.745
-79.625
-51.513
27.835
137.38
126.85
35.217
-69.017
-78.267
-5.2342
37.129
26.164
-48.032
-137.83
-15.43
117.4
76.724
24.48
-36.734
-128.76
-129.87
13.937
107.07
26.51
-82.351
-61.645
43.72
138.42
90.761
-5.2309
-68.29
-89.692
-39.656
25.754
36.881
-29.625
-59.373
9.3304
103.12
66.04
-5.4204
-42.682
-51.194
-20.138
28.429
3.4102
-38.933
-31.791
57.059
133.51
75.682
-33.245
-122.3
-92.403
-32.443
10.611
26.382
-19.962
-123.58
-37.689
152.78
159.76
87.027
-37.875
-148.89
-124.03
-39.49
-13.556
-30.651
-70.649
-22.058
88.031
166.99
148.27
19.578
-80.776
-97.59
-49.77
23.718
41.681
-18.046
-5.1289
27.622
25.128
36.059
34.496
-14.162
-66.804
-52.465
-14.362
-13.705
-26.378
-2.3515
31.149
67.828
65.506
-23.058
-52.012
-33.491
-56.322
-23.252
30.03
-17.76
-42.441
1.4842
28.905
46.545
60.296
47.305
-16.705
-27.002
-82.946
-49.907
30.727
3.8335
-57.146
28.811
107.11
48.169
-22.917
1.4971
-32.094
-59.34
-0.81917
47.606
-0.29849
-48.782
-0.78758
47.297
44.528
36.079
-8.8467
-54.484
-86.991
-5.0709
68.408
17.366
-31.13
-32.838
33.886
99.399
73.703
28.992
-23.276
-109.85
-101.24
-7.581
15.42
-11.803
22.591
56.106
85.305
72.532
-2.3392
-31.902
-74.249
-60.082
13.273
2.4864
-124.41
-48.45
106.07
90.093
65.768
-8.3879
-117.79
-109.26
-5.3739
63.652
10.775
-84.946
-82.998
50.676
151.03
125.07
7.9039
-88.821
-98.701
-38.186
86.086
86.173
-38.35
-89.696
-46.578
71.225
141.27
76.09
-4.4835
-69.995
-82.723
-19.633
21.425
20.772
-1.6035
13.578
40.061
66.347
39.788
-2.0595
-37.074
-108.76
-119.04
-85.537
-73.637
-60.458
-33.987
75.8
184.08
133.94
-6.0555
-37.589
-56.453
-42.655
30.726
-2.6382
-96.225
-57.478
43.439
133.88
147.93
29.404
-92.403
-85.547
-17.444
37.927
69.565
-12.591
-108.39
-83.345
59.071
157.34
120.71
22.315
-73.009
-111.27
-73.586
14.044
10.989
-40.271
-63.565
21.608
188.67
223.49
40.823
-133.64
-147.19
-114.11
3.2514
68.096
0.84188
-67.75
-2.7579
121.74
105.73
-31.012
-96.298
-112.65
-57.921
32.806
47.073
15.85
-8.1785
32.389
123.34
84.261
-59.84
-111.1
-107.93
-51.008
16.883
2.6065
-84.112
-55.055
51.105
90.042
80.577
-2.5419
-98.433
-60.067
26.25
77.95
52.93
-60.266
-108.25
49.771
153.09
137.24
61.82
-101.57
-198.14
-103.03
17.854
45.588
-44.659
-121.38
-46.459
59.808
186
141.73
-40.923
-119.18
-136.31
-23.186
99.048
51.094
-30.534
-12.187
30.331
139.97
155.61
-4.2831
-116.66
-157.77
-98.333
19.629
34.511
-38.612
-32.054
26.156
59.402
49.795
19.634
7.844
1.6651
-25.448
4.4313
-53.838
-105.16
-31.385
36.722
96.663
161.99
-3.6832
-145.07
-45.231
65.636
83.738
23.224
-101.82
-87.498
41.75
127.09
141.73
28.065
-112.76
-92.341
-10.284
59.052
44.405
-59.021
-118.34
-18.48
139.24
201.29
126.78
-37.015
-122.87
-90.551
24.574
90.87
-3.1974
-76.593
-27.686
44.481
133.17
109.28
-1.0954
-97.427
-139.29
-97.018
3.898
-21.75
-85.295
-46.689
24.325
127.05
165.18
75.538
-29.751
-78.458
-48.359
10.175
-29.488
-74.823
-33.199
63.427
106.43
52.026
28.918
0.34944
-69.83
-84.863
-31.745
-55.587
-93.468
-29.482
24.802
36.615
78.201
36.15
14.785
-7.1554
-50.882
-9.9165
-8.86
-102.46
-53.171
39.216
111.63
211.44
89.783
-101.48
-129.32
-95.595
-49.056
8.5071
-45.785
-108.73
-20.355
124.25
182.4
122.73
1.5498
-85.648
-105.42
-39.6
5.3588
1.4269
-69.038
-83.671
25.349
93.256
126.67
76.496
-52.033
-98.826
-119.72
-62.628
33.297
34.351
-45.801
-79.526
23.125
127.34
150.78
85.093
-54.175
-111.86
-87.585
-18.068
49.256
27.857
-38.688
-21.784
90.955
154.58
112.7
-38.13
-138.06
-159.83
-58.766
42.311
11.815
-67.34
5.211
133.43
135.88
97.803
10.563
-82.219
-111.99
-77.82
4.0445
5.3928
-39.929
-38.979
24.358
144.12
155.38
70.167
-12.934
-49.96
-119.97
-90.289
-54.673
-78.679
-50.326
23.803
112.13
118.2
39.746
-11.843
-36.581
-59.31
-32.864
-30.796
-85.501
-34.4
38.623
93.091
148.83
82.063
-38.702
-62.543
-85.779
-63.37
37.594
-36.12
-75.838
-4.0949
-33.568
98.09
140.39
-21.957
-99.731
-59.27
2.9815
77.922
27.539
-86.738
-59.315
49.622
81.638
80.326
18.389
-90.574
-98.69
-29.68
65.277
52.01
-69.245
-73.508
-68.175
5.0527
176.19
100.14
-22.206
-71.319
-32.456
94.274
113.66
-22.499
-103.14
-53.868
7.6599
105.66
110.32
