110.32
7.2068
-63.355
-89.816
-10.897
93.864
55.538
-46.12
-66.248
-1.9991
54.272
74.465
42.735
-14.263
-111.52
-139.37
-14.247
56.017
7.0223
-61.739
-55.666
38.984
120.41
90.921
70.522
12.785
-104.57
-146.06
-36.656
13.347
-24.322
-38.953
-12.316
56.911
108.79
94.016
22.894
-91.405
-75.314
-0.71533
22.226
-14.486
-47.364
29.677
85.453
40.724
20.915
-9.1519
-46.983
-65.189
-54.673
-33.376
-62.746
-60.251
64.567
101.9
78.898
80.024
-49.734
-97.226
-14.325
-33.462
-17.929
-16.231
-79.976
-17.749
96.029
208.47
204.85
46.043
-106.91
-162.64
-118.3
-56.826
-39.974
-85.123
-66.048
38.778
137.66
138.02
45.526
-45.78
-169.29
-145.29
35.807
104.29
32.74
-80.507
-28.101
107.62
163.31
158.83
30.482
-96.07
-152.88
-140.56
8.8751
78.88
-28.401
-83.966
24.517
133.49
142.12
52.908
-39.988
-93.191
-107.95
1.0172
94.286
5.0058
-59.932
8.2917
24.07
41.831
97.305
19.357
-32.41
-57.716
-84.946
-8.7411
13.208
-40.666
-25.588
24.18
63.582
82.969
38.863
-5.1182
-25.124
-48.616
33.646
71.872
28.75
-44.825
29.745
104.45
33.059
-19.38
-55.529
-123.34
-182.89
-92.169
-16.21
-56.216
-45.034
-4.0191
101.48
193.18
142.4
-31.131
-69.621
-98.769
-95.051
13.86
22.539
-46.339
-8.0584
88.722
142.98
119.66
8.4134
-88.441
-94.845
-141.52
-77.323
-7.0686
-60.666
-113.81
29.469
92.133
85.95
119.04
-15.043
-110.42
-25.362
69.678
82.726
27.838
-81.628
-97.894
37.489
119.18
99.542
40.544
-97.328
-136.89
-12.593
66.25
26.714
-65.893
-124.35
19.641
117.41
126.67
52.512
-103.26
-143.37
-31.481
78.462
99.609
48.27
-73.016
-92.951
-7.7134
102.57
118.94
15.143
-59.624
-76.194
-5.8373
118.99
108.69
-9.0978
-64.626
-31.143
100.84
164.96
71.162
-38.636
-150.66
-172.44
-0.032581
125.9
57.968
-62.892
-81.853
-26.573
72.842
117.4
68.631
-38.562
-154.83
-150.32
-6.6558
93.678
14.819
-72.99
-42.925
18.208
140.37
146.58
38.718
-34.038
-67.51
-4.6876
65.585
29.764
-69.756
-66.152
12.889
19.026
32.728
30.277
-23.279
-72.24
-99.435
-37.002
-0.56261
-46.987
-75.094
-1.5853
95.752
121.36
72.741
16.18
-11.387
-31.292
26.311
41.023
-36.672
-79.915
-4.5065
35.869
26.719
21.724
9.1267
-7.7206
-60.423
-59.689
-38.971
-75.643
-86.347
-29.104
35.172
121.05
127.38
-5.0491
-75.752
-94.875
-36.064
68.06
71.397
-31.903
-33.102
87.181
104.68
52.283
-16.826
-109.83
-79.808
-31.891
-47.272
-47.757
-52.495
-85.791
12.363
133.18
187.62
129.57
-8.9195
-106.85
-76.88
-38.56
-35.445
-46.311
-112.9
-77.767
115.7
193.53
128.71
6.4913
-93.104
-96.569
-53.799
-25.712
-6.0736
3.896
-39.905
14.721
154.37
127.94
49.089
4.171
-99.676
-142.39
-117.14
-100.73
-28.167
-25.13
-89.143
-33.626
23.033
142.53
231.82
120.1
-26.493
-60.961
0.76936
64.891
44.364
-76.278
-115.21
21.512
125.6
116.72
47.604
-64.44
-105.46
4.7383
111.01
79.148
-17.591
-77.675
25.941
77.899
39.657
22.901
-22.546
-116.9
-166.79
-40.356
58.578
38.068
-59.643
-65.149
30.467
78.139
96.667
41.498
-69.086
-164.7
-99.367
40.849
32.303
-60.227
-46.167
50.71
103.36
124.61
58.09
-39.243
-36.277
48.79
71.854
14.982
-56.103
-61.417
6.8657
19.218
0.72378
32.641
-35.474
-108.66
-64.462
-11.012
-4.9019
-23.014
-65.746
-47.255
53.648
116.75
119.05
60.486
-16.386
-19.042
31.493
19.496
-38.17
-63.167
-74.751
-3.4117
109.9
111.52
38.463
-17.418
-64.42
-57.872
14.008
11.943
-21.219
-46.071
-1.4664
49.958
51.47
-8.9571
-73.703
-94.895
-85.649
-0.53827
41.144
2.5546
-48.165
1.5991
96.955
91.496
37.119
-7.7866
-30.545
-47.606
-25.586
20.521
-2.3415
-66.196
-53.149
32.422
87.344
113.8
27.73
-53.825
-53.451
-40.859
-20.745
-5.2262
-21.589
-57.988
-0.94179
92.531
94.987
57.733
-15.591
-73.895
-61.227
-38.953
-3.7703
-16.424
-76.238
-3.3403
75.3
154.92
165.81
-2.657
-110.63
-97.989
-88.701
-67.986
2.0863
-24.853
-40.161
96.69
99.182
36.861
5.4529
-70.79
-129.57
-65.197
16.515
27.722
-4.6985
-85.849
-31.266
106.55
129.49
93.421
-9.1355
-107.51
-120.89
-30.638
44.013
39.958
-65.123
-61.992
95.007
126.69
101.81
24.97
-90.206
-133.09
-78.578
5.6344
36.338
-21.701
-69.396
32.722
118.21
149.61
89.368
-55.836
-146.53
-149.18
-2.3949
98.073
65.69
-25.12
-22.649
78.977
169.54
136.82
22.175
-88.232
-144.05
-138.06
-53.352
56.555
30.566
-49.799
-4.2288
95.131
130.13
65.999
-59.094
-139.86
-127.67
-40.27
50.385
48.513
-34.277
2.3577
76.777
104.14
97.858
-6.8288
-86.476
-94.826
-92.126
-10.719
61.926
5.0955
1.4444
91.603
128.23
80.937
-21.705
-111.86
-122.42
-45.546
21.23
55.31
11.198
-36.305
62.27
108.98
44.262
14.671
-46.573
-120.38
-110.9
-51.156
22.001
40.611
11.402
109.17
124.76
66.706
26.547
-32.792
-90.61
-119.6
-37.991
27.477
11.372
-45.012
-2.1462
93.312
86.852
33.463
1.6046
-16.18
-89.589
-119.22
-34.916
-40.934
-70.873
-34.066
35.631
107.49
140.59
60.24
-13.152
-16.616
5.2117
40.635
10.599
-72.754
-95.445
-18.995
65.986
59.338
10.426
-26.112
-17.372
-4.4543
-13.626
-27.876
-63.496
-58.91
-15.35
44.428
119.08
82.244
-45.505
-73.932
-55.377
-20.043
24.004
-33.732
-109.75
-14.341
110.46
126.16
76.839
21.968
-51.194
-95.197
-67.465
-3.713
-4.5774
-83.877
-66.607
68.828
79.688
106.06
73.462
-55.914
-64.925
7.6399
29.518
27.164
-92.189
-205.63
-59.3
63.461
93.5
76.448
-12.274
-35.819
12.297
101.05
57.241
-45.742
-106.41
-69.906
41.36
83.875
48.209
-19.515
-108.59
-109.85
31.599
82.026
16.695
-57.738
-49.743
70.523
107.86
37.419
-90.532
-157.76
-103.84
48.444
141.22
85.548
7.9799
6.5543
95.666
154.84
108.46
-6.6595
-105.94
-118.58
-88.258
-30.511
-23.82
-69.01
-41.089
81.042
110.48
109.53
23.211
-71.941
-75.796
-8.022
40.286
25.469
-44.616
-23.83
52.992
111.77
132.9
31.069
-69.66
-93.715
-70.832
-6.1447
29.099
-29.379
-42.874
46.677
123.38
106.22
41.39
-49.218
-120.26
-85.954
-33.5
-5.5652
-26.862
-79.192
-31.782
28.973
76.2
124.86
36.273
-55.423
-57.148
-28.968
4.0667
-13.375
-73.437
-13.379
-23.209
-18.103
151.96
160.13
-2.4536
-69.757
-122.16
-92.303
-8.7776
-26.955
-9.4292
67.716
6.5001
34.812
59.676
8.4443
-29.295
-51.211
-11.517
54.966
-29.64
-88.585
-35.392
-111.95
18.971
191.07
94.821
-56.188
-168.95
-75.922
83.533
-3.1115
-32.465
5.1309
-17.924
189.15
164.87
-46.972
-116.09
-119.41
-44.172
67.961
-34.962
-52.906
34.181
77.366
217.48
130.8
-57.694
-130.42
-89.852
17.115
51.573
-68.427
-131.54
-35.503
64.695
105.26
107.85
42.165
-83.838
-85.685
-120.64
-25.179
96.743
18.085
-29.033
5.5908
119.78
206.67
4.3864
-207.38
-202.56
-141.16
-36.522
121.46
109.62
-11.655
-18.724
78.693
135.04
133.77
47.021
-52.077
-54.968
-81.576
-19.742
21.953
-62.965
-120.52
-61.329
-0.71984
105.14
155.17
54.738
-56.16
-25.609
-28.7
49.923
54.264
-67.06
-82.032
-83.974
-7.4739
115.82
94.746
-12.174
-68.361
-62.108
12.261
100.11
19.547
-83.541
-71.144
16.842
62.857
59.129
58.886
-42.598
-121.01
-65.299
77.192
85.92
-35.87
-120.99
-45.762
74.749
106.25
81.436
-6.0078
-80.841
-79.101
-48.175
62.227
94.741
-22.914
-74.519
45.767
105.53
63.066
60.712
-6.0321
-135.06
-154.35
-112.56
-57.514
-43.171
-106.07
-39.404
126.81
132.61
86.732
35.144
-75.677
-76.897
-26.111
60.139
68.992
-40.799
-72.518
34.936
121.25
136.14
85.857
-43.721
-115.53
-122.94
-43.616
51.541
-38.116
-112.64
-32.52
39.457
98.449
123.15
-1.4736
-83.11
-54.229
-14.173
78.75
34.761
-76.199
-45.771
46.415
150.52
183.05
73.357
-71.179
-102.41
-84.263
-36.233
12.927
-58.949
-105.83
-20.308
128.87
206.76
116.4
-63.295
-140.89
-121.96
-40.806
24.841
-24.306
-83.525
-38.984
90.826
250.1
260.14
81.439
-110.99
-194.5
-131.49
-89.506
-74.758
-128.7
-114.81
-7.1827
120.76
218.69
175.11
54.81
-7.3143
-15.075
49.94
68.243
-39.46
-90.424
-45.594
50.875
160.64
92.359
-54.817
-128.31
-143.56
-50.77
62.933
10.563
-65.86
-49.589
11.791
156.42
164.98
14.642
-85.454
-130.92
-84.965
39.158
31.297
-76.507
-56.919
33.149
85.651
53.852
-20.674
-91.771
-98.129
-28.601
29.273
23.981
-58.255
-97.036
-4.8295
22.512
6.8246
70.102
49.446
-9.5952
-78.098
-0.43244
129.24
71.273
-56.101
-53.961
34.758
165.42
180.68
51.526
-24.936
-116.1
-124.22
-26.468
16.285
19.219
-10.515
15.418
20.562
-34.981
-89.385
-64.696
-31.026
-25.051
-6.6578
7.6504
-14.716
17.399
41.912
42.254
72.756
58.962
-6.3243
-44.917
0.24766
54.574
42.265
34.238
-17.858
-64.53
-38.665
-13.393
-3.4455
58.836
102.51
86.403
-32.306
-123.8
-127.93
-147.13
-84.044
44.865
59.817
54.401
20.217
-36.973
-37.541
-79.722
-49.972
34.504
1.5514
-14.73
34.656
57.009
93.17
33.348
-40.52
-73.733
-109.69
-68.774
16.204
-32.803
-57.808
34.301
100.37
143.53
131.5
-2.5799
-39.318
-0.25396
-33.464
-35.895
-40.932
-74.126
16.705
83.179
59.498
59.713
14.563
-63.347
-39.98
-30.57
-3.3656
10.656
-59.983
-57.005
-20.688
25.168
136.99
122.2
-10.861
-64.101
-75.691
-91.164
1.5667
-13.742
-32.204
-13.921
-26.287
168.24
237.37
61.188
-60.762
-175.28
-176.47
26.934
67.969
-19.401
-74.004
-67.757
122.26
242.47
133.84
-43.708
-138.11
-105.55
-29.09
24.64
-23.517
-49.919
45.844
55.796
28.903
45.343
3.3109
-70.212
-103.75
-24.172
68.914
39.489
-14.226
46.24
132.17
110.91
5.3298
-60.23
-38.614
-35.559
-35.821
-8.0868
-30.472
-25.818
79.702
92.78
67.035
46.334
-21.544
-56.453
-51.903
-113.97
-111.99
-44.385
-33.794
67.223
151.41
98.337
48.831
-12.931
-68.153
-109.58
-85.219
-64.752
-17.536
-17.033
-36.572
65.036
105.2
51.124
11.209
0.72867
-46.757
-130.6
-59.04
39.994
52.047
-1.5178
-13.802
40.321
57.865
63.735
59.725
2.0427
-71.032
-81.481
-18.934
17.95
12.368
-29.434
34.191
89.833
49.519
51.109
9.07
-70.151
-110.7
-55.49
3.5758
26.127
-20.255
-20.348
88.902
58.977
-2.6815
0.63761
-21.93
-80.426
-99.104
-77.232
-17.176
-8.8109
-43.511
55.018
87.505
65.427
103.04
36.135
-36.415
-62.777
-19.536
15.282
0.15949
-46.045
-38.477
74.851
106.69
46.852
23.802
-9.4467
-65.948
-104.71
-97.219
-58.679
-22.759
-25.77
23
88.171
137.32
128.8
26.544
-27.226
-13.753
-52.896
-66.1
2.374
6.0414
-18.412
92.866
86.673
22.059
-4.5994
-63.802
-134.44
-158.83
-82.735
16.929
50.366
-0.90477
20.02
125.41
92.221
70.16
23.184
-61.718
-124.18
-78.244
-8.5162
36.688
43.914
-26.329
-1.3854
66.12
57.235
69.139
27.101
-94.114
-125.21
-115.65
-31.429
70.544
55.776
-7.5859
-33.259
33.282
88.925
56.703
-2.3114
-94.942
-162.61
-127.95
4.2942
84.509
74.165
21.428
10.994
22.38
107.88
161.19
49.038
-90.764
-128.25
-98.977
-44.766
13.895
3.0156
-51.579
30.166
98.012
107.52
90.384
-20.34
-92.138
-81.093
-32.575
19.14
31.804
-21
-13.102
71.632
125.41
90.883
-4.9009
-72.583
-134.01
-113.05
27.435
92.156
23.012
-44.292
22.326
89.72
137.66
99.469
-37.953
-110.56
-123.95
-99.605
21.773
73.093
-15.556
-20.305
76.036
130.8
126.44
-8.336
-119.33
-114.36
-100.4
-18.373
44.174
-2.1447
-26.972
52.039
105.77
84.271
16.798
-76.645
-108.93
-90.277
-37.874
39.387
13.951
-59.324
-1.3718
75.561
67.488
49.867
22.41
-17.306
-25.19
-38.203
-21.172
-2.2546
-38.541
-13.995
64.855
52.261
45.983
22.581
-45.434
-52.128
-66.054
-56.361
14.655
0.029295
-34.037
45.13
19.976
-16.39
28.267
0.0028061
-38.139
-43.868
-56.578
13.725
21.885
-37.296
48.7
75.083
26.654
40.643
10.523
-48.753
-63.057
-42.828
-25.112
-9.895
-58.931
-29.473
93.389
53.98
14.786
21.742
-30.226
-76.982
-70.874
-29.935
34.019
14.273
-10.257
67.872
66.306
37.441
54.561
38.29
-11.08
-23.516
-44.528
-35.663
-17.083
-54.503
-16.974
68.411
48.944
35.098
38.766
-12.102
-53.604
-73.264
-38.562
31.849
12.794
5.5482
76.566
62.788
45.773
45.502
-15.885
-66.89
-65.573
-58.738
-26.741
-11.732
-31.748
43.461
66.205
11.202
37.397
26.793
-53.591
-68.338
-59.865
-25.59
45.74
24.664
26.684
90.342
81.011
42.265
21.905
-30.623
-70.063
-76.471
-74.878
-31.517
13.262
-8.891
56.481
84.359
38.407
66.567
32.645
-43.19
-58.165
-38.95
15.525
46.756
-4.669
-3.691
60.128
62.792
44.215
41.418
-9.7322
-33.678
-41.117
-93.538
-91.584
-84.091
-65.56
7.614
76.106
99.064
60.823
16.071
-4.5775
-19.923
-23.635
-1.1049
-10.611
-27.258
24.569
54.291
77.952
42.388
-52.103
-52.723
-66.504
-79.865
-21.973
27.908
-0.35635
-43.564
-10.397
32.509
56.717
98.371
21.32
-78.359
-90.076
-36.504
12.424
39.02
1.7148
-67.674
-8.0064
46.784
44.887
61.005
-21.044
-90.898
-70.799
-45.469
12.258
38.244
-18.515
10.075
66.533
78.774
48.339
-36.142
-60.849
-90.276
-69.782
14.898
12.418
2.8157
59.827
43.414
-4.1145
-0.13236
-0.96707
-21.499
-16.995
15.795
14.698
-10.902
-15.888
75.031
104.27
28.869
-42.964
-59.34
-99.229
-159.12
-124.28
-23.574
21.106
10.015
5.0698
30.845
110
162.64
118.62
-18.434
-104.67
-119.3
-41.69
86.591
137.66
45.907
-40.048
1.0257
15.315
5.1476
17.798
-1.5827
-54.973
-88.525
-40.455
43.198
42.269
-46.84
-50.994
34.726
77.609
80.004
79.578
-1.3023
-61.979
-45.105
3.3385
42.789
10.298
-54.164
-9.3932
53.032
81.322
68.71
-29.906
-48.877
23.427
17.876
20.912
50.834
56.075
52.225
-19.899
-14.125
28.326
20.1
9.5823
-58.744
-130.28
-123.81
-70.008
31.438
36.635
28.874
50.163
44.159
22.796
7.9543
-13.118
-19.173
-32.775
-22.444
28.471
87.526
36.814
-142.4
-250.39
-148
-55.451
-67.443
-23.054
-1.9519
-57.774
-110.68
-53.634
78.118
80.639
-7.8803
30.185
134.93
108.11
21.895
20.906
96.511
173.6
178.2
91.699
-48.333
-84.947
-27.017
-59.35
-144.79
-185.82
-187.76
-107.44
-91.624
-60.549
90.472
122.28
57.589
15.809
12.849
-33.082
-57.284
-86.511
-114.7
-26.34
46.467
90.395
152.34
161.32
120.95
217.01
247.72
67.173
-21.338
-76.119
-129.47
-70.735
-30.704
-59.624
-54.631
-59.473
-34.329
80.708
77.119
-32.752
-105.54
-92.38
18.416
113.36
98.121
33.378
-50.894
-84.945
40.728
29.648
-74.142
-79.346
-115.52
-66.85
105.61
156.08
102.14
64.56
8.8687
-72.745
-150.95
-183.77
-204.01
-168.66
-125.83
2.5774
154.97
129.87
48.221
61.558
67.141
88.642
90.848
61.434
39.449
14.41
108.74
192
64.499
-25.54
-24.626
-51.016
-12.366
-46.498
-147.08
-196.86
-178.63
-177.91
-257.95
-182.93
4.46
176.35
212.72
63.629
-54.89
-20.28
8.3843
-48.887
-115.81
-94.059
40.876
137.4
205.67
164.45
-43.244
-168.74
-79.902
7.8399
50.547
44.681
-49.576
-55.844
61.113
160.18
197.19
68.37
-107.21
-87.458
-20.723
14.175
22.97
-45.667
-62.496
19.701
135.82
162.18
105.69
7.4461
-92.96
-98.569
-21.736
21.215
-16.702
-63.608
-43.605
58.587
160.09
163.22
34.735
-99.382
-92.274
-29.161
8.416
20.874
-5.8994
-12.023
42.379
103.24
122.27
74.784
-14.189
-61.24
-88.782
-65.13
-6.6127
-24.994
-77.263
-78.062
34.447
136.48
116.45
57.929
-20.028
-32.935
31.889
28.802
-34.482
-75.97
-67.511
2.5991
102.37
111.01
56.75
3.4652
-37.971
-20.779
12.027
6.3633
-32.564
-80.257
-55.84
45.145
71.283
47.519
22.083
-23.054
-54.292
-31.682
-22.514
-32.898
-30.497
-50.119
-16.17
79.361
103.33
56.442
-0.01182
-35.866
-33.451
-54.39
-49.239
-30.236
-45.462
-2.9883
52.896
52.033
9.5703
-19.658
-7.3235
-32.375
-53.06
-61.182
-61.171
-60.023
-29.161
74.422
108.99
53.032
4.4696
6.3493
-14.848
-27.209
-18.004
-17.519
-61.886
-91.317
-12.13
67.562
65.052
41.532
22.025
-1.8894
-13.984
-17.248
-33.948
-39.966
-72.839
-15.529
97.176
56.156
17.496
17.374
-6.9928
-22.768
22.488
-1.4539
-27.835
-44.251
-35.138
40.947
46.814
14.281
11.118
13.233
-36.968
-53.757
-41.147
-47.174
-50.915
-71.187
0.95625
115.22
146.55
103.97
30.197
-49.133
-67.725
-28.939
-6.9245
-23.917
-50.226
-63.724
38.104
103.36
32.536
6.0415
24.32
8.5252
9.2236
-21.825
-35.162
-24.758
-56.107
3.5677
94.502
67.5
21.713
6.0969
-27.933
-61.419
-69.904
-47.512
-30.094
-56.583
14.238
87.619
32.19
7.9629
19.767
-0.98964
17.832
24.307
-15.963
-28.135
-64.432
-28.311
72.895
54.497
10.37
7.8078
0.067033
2.3854
15.545
-22.282
-28.95
-30.919
-77.268
-18.963
34.963
19.464
62.173
45.217
1.7362
-14.372
-42.138
-37.605
-10.574
-45.356
-50.497
41.576
71.886
25.183
-6.7286
-24.729
-55.854
-67.152
-42.645
-12.132
2.0865
-19.816
-36.247
16.91
46.563
50.255
58.17
-7.524
-66.216
-63.12
-49.196
30.458
74.482
-3.2475
-26.6
23.144
17.116
25.131
38.132
-35.343
-122.51
-61.111
-2.8071
3.1524
14.693
-29.597
-16.251
81.616
130.78
88.701
40.431
-52.155
-75.912
-30.82
-7.6722
20.612
-12.529
-82.815
-29.052
86.321
70.077
31.804
-14.678
-103.93
-63.431
16.49
17.956
41.613
5.9253
-61.994
53.573
124.21
40.687
-44.825
-108.43
-109.03
-9.7327
63.323
72.471
26.949
-89.909
-29.381
128.17
120.75
85.144
13.269
-104.68
-68.778
-10.346
-21.551
0.85807
-51.47
-90.616
49.319
124.97
100.85
78.109
-53.974
-134.12
-73.794
-34.747
29.478
72.544
-22.624
1.4805
121.65
92.385
33.875
-12.182
-106.29
-86.244
-6.0633
-17.226
-14.851
-14.388
-38.728
75.81
155.28
92.367
23.37
-32.603
-34.532
-23.406
-19.788
17.98
-28.357
-103.79
-71.062
76.636
161.97
100.63
-3.2579
-43.789
-24.437
-51.869
-93.548
-81.986
-57.892
-50.318
1.9762
118.56
142.44
62.041
-15.602
-15.668
-16.486
-36.652
-9.0254
-19.078
-89.285
-91.707
20.938
88.674
57.115
-4.5596
-58.198
-18.402
46.134
23.144
-49.486
-81.503
-54.926
37.001
145.46
121.54
20.365
-62.202
-64.704
-29.643
8.7941
-0.22378
-75.199
-102.78
-18.951
128.86
170.22
72.161
-28.367
-39.759
10.165
40.443
19.064
-34.827
-79.836
-50.278
79.052
131.66
53.604
-14.211
-62.058
-58.057
-12.884
-9.8981
-34.607
-52.676
-44.31
23.187
90.257
85.991
66.618
7.5007
-56.108
-34.483
-23.951
-13.722
-44.532
-61.738
-61.237
-20.259
101.35
90.585
12.779
-24.219
-30.244
-11.803
-2.5081
-21.728
-25.907
-30.943
47.555
119.04
60.983
5.9319
-19.288
-13.394
6.498
-41.343
-60.615
-73.755
-82.519
-4.3672
47.466
11.954
1.3722
-3.3319
-13.012
-3.4476
-28.575
-47.113
-32.668
-64.102
-16.241
108.91
58.087
-20.17
-35.643
-16.39
2.5751
-27.91
-27.204
-8.6423
-41.922
-39.531
89.325
106.01
26.345
38.422
45.68
-5.5435
-48.453
-79.325
-74.001
-57.005
-80.778
-20.485
101.55
50.412
-53.138
-43.492
-26.477
-17.87
35.512
13.547
-21.128
-12.594
-1.5791
126.35
123.58
14.097
-35.148
-49.918
-26.84
16.06
-3.5076
-35.529
0.27928
-25.05
-11.797
58.215
-2.7608
-53.137
-56.047
-63.904
-19.863
-5.2333
-44.014
8.8505
38.682
25.499
146.55
164.53
75.498
25.562
-57.237
-41.796
-65.678
-136.54
-53.453
17.952
-23.734
45.018
137.84
71.299
18.36
-42.354
-61.738
-37.068
-82.755
-47.811
32.999
21.069
91.008
149.48
78.859
25.015
5.4111
-41.036
-35.138
-25.741
-33.58
-33.268
-77.619
-28.651
118.18
75.236
14.226
17.375
-25.538
-38.823
-23.193
-19.15
22.132
11.705
-43.83
44.785
114.18
76.357
24.246
-91.431
-120.31
-57.285
-58.538
-9.6554
5.8442
-37.948
45.198
122.55
116.4
115.5
74.466
26.01
14.849
-30.622
-49.591
-15.293
11.655
31.646
1.957
43.936
14.094
-73.54
-70.707
-156.4
-277.99
-282.48
-119.21
-32.327
-8.5582
71.917
182.92
244.14
159.83
37.267
-82.734
-120.07
-15.99
36.382
-32.358
-112.47
-39.728
82.956
112.83
91.583
7.7382
-91.69
-93.589
-44.785
48.31
76.844
-9.6493
-17.622
70.235
32.974
6.1099
6.9451
-66.913
-131.08
-109.96
-9.0693
47.41
3.142
-74.394
-0.44025
141.54
124.97
72.062
-32.552
-135.78
-99.378
14.819
82.888
72.783
-24.238
-20.343
98.324
102.99
64.56
-41.992
-179.03
-223.3
-109.95
62.915
82.613
-17.875
-58.305
53.799
140.86
136.78
56.058
-97.735
-108.13
3.9939
107.16
116.25
33.442
-44.164
58.06
148.14
114.15
31.366
-72.584
-127.53
-134.75
-58.942
23.054
-11.375
-105.92
-40.875
131.89
116.8
46.817
-42.646
-120.52
-85.265
-7.2553
26.976
35.525
-26.824
-24.091
102.19
125.97
53.126
24.543
-53.076
-108.16
-20.193
6.1933
3.3907
-16.88
-126.44
-13.314
145.41
89.338
30.979
-97.902
-134.38
-10.873
17.125
-10.526
-18.928
-87.275
-46.61
166.7
180.88
75.791
-31.075
-149.8
-88.146
47.916
72.595
34.593
-50.996
-122.41
8.0894
171.82
180.31
72.255
-91.132
-122.99
-61.32
6.4115
-16.898
-214.1
-282.53
-65.915
182.75
195.21
123.03
-5.5749
-75.835
-46.991
-18.804
-11.43
-32.235
-111.99
-27.684
185.71
202.38
133.24
20.299
-91.005
-76.611
-43.394
21.433
28.839
-50.774
-85.205
9.4797
164.82
140.82
7.2032
-93.551
-98.603
-57.855
-14.382
-7.7898
-28.352
-10.851
69.881
158.83
120.53
21.462
-88.661
-98.434
-91.5
-93.153
-39.034
-8.2131
16.623
54.768
119.68
186.65
99.622
-19.441
-42.09
-63.412
-59.446
-38.928
-36.359
20.641
20.752
-28.551
-17.648
-18.642
-3.5492
42.578
19.669
28.361
93.398
47.665
3.7464
33.79
22.144
80.418
86.704
-31.518
-57.645
-37.28
-42.4
-47.752
-17.819
41.878
96.765
63.963
-32.631
-92.988
-97.932
-52.577
-107.85
-166.94
-117.67
-27.485
-1.6199
-8.3534
-1.2616
30.216
61.523
37.897
-14.477
-78.798
-71.78
-40.444
0.14212
50.273
55.599
-0.18798
-17.474
72.972
79.595
38.346
34.522
-22.507
-62.242
-22.415
36.005
66.854
57.8
31.335
96.009
97.544
-42.532
-54.728
-23.917
-30.511
-5.3948
35.271
31.319
43.655
20.016
52.993
65.492
9.403
46.543
61.974
0.7367
-157.49
-307.05
-204.51
-42.276
35.02
93.584
51.956
13.539
25.551
-17.898
-110.51
-130.78
-87.59
-65.834
-92.6
-128.64
-98.543
-19.785
40.829
92.197
33.296
-8.3066
-30.273
-48.052
76.569
161.01
126.59
107.62
109.51
102.08
28.611
-83.017
-138.13
-179.24
-212.14
-179.53
-89.459
-65.83
-62.905
125.61
261.89
263.11
206.81
158.29
49.904
-23.883
53.479
54.514
-49.939
-168.09
-205.68
-74.869
83.057
87.352
39.605
18.537
-70.171
-75.96
11.013
8.4123
7.3958
22.589
44.048
133.33
160.58
95.529
50.831
-37.936
-67.847
17.983
-0.82278
-58.157
-75.366
-110.23
-45.666
85.214
107.19
77.36
15.635
-48.088
1.2398
28.338
-0.40682
-3.4743
-20.4
59.769
157.28
76.73
-17.889
-52.402
-140.22
-239.48
-221.66
-163.03
-103.74
-115.94
-57.333
124.27
150.91
88.151
45.606
7.815
55.219
111.18
75.847
-2.7191
-127.38
-122.27
36.016
106.13
47.369
-38.233
-86.764
-54.689
23.167
70.73
3.5101
-94.227
-57.466
83.772
148.24
103.45
37.024
-48.35
-54.802
6.5753
39.251
39.052
-50.846
-131.4
-33.448
88.978
123.85
57.371
-36.547
-18.597
-18.921
-37.526
-19.952
-101.3
-109.47
1.1085
96.69
130.07
99.026
14.387
20.291
75.21
-45.389
-125.99
-80.761
-73.274
-74.257
-53.459
-17.913
65.395
42.457
-26.311
15.977
3.1951
-27.607
12.071
35.663
58.152
85.555
31.633
2.9152
48.571
43.133
35.138
-32.414
-104.06
-142.27
-45.037
47.725
69.865
-21.886
-156.49
-147.46
-8.1628
71.919
104.8
87.803
-24.407
-13.578
92.223
59.359
-24.717
-112.29
-136.59
-62.778
36.823
30.143
7.6348
-48.992
-77.441
76.003
168.34
81.248
-37.197
-101.13
22.048
181.03
115.65
19.967
-15.259
-41.779
30.752
102.23
24.73
-75.136
-172.14
-143.48
64.672
104.34
-31.234
-92.397
-97.731
-9.8188
140.64
108.64
-33.832
-140.23
-97.897
104.47
157.2
40.964
-38.579
-60.314
9.5647
131.41
112.34
30.163
-79.112
-161.4
-52.913
76.266
56.006
-26.541
-75.447
-38.058
75.204
110.8
64.163
-72.717
-171.18
-28.155
135.89
113.18
-31.989
-99.72
-103.28
-26.361
55.752
46.529
-46.781
-140.63
-38.863
122.51
117.14
-29.477
-98.463
-47.238
51.714
106.96
83.468
-8.5037
-142.83
-140.77
18.305
103.12
83.33
10.115
-20.151
28.272
82.17
88.824
4.4078
-143.05
-127.48
28.493
115.18
96.89
-16.077
-102.69
-68.018
7.7123
19.556
-16.637
-84.61
-104.05
-0.678
85.436
102.22
17.471
-54.831
0.78552
51.679
58.237
57.855
-0.14887
-70.961
-14.63
76.029
118.98
98.035
-37.077
-99.494
-104.98
-177.99
-170.97
-114.36
-78.63
6.1336
60.878
102.64
133.86
83.482
103.83
78.522
2.7737
62.244
0.76743
-134.32
-44.862
13.728
18.296
62.159
-3.7701
-66.954
16.383
52.313
47.683
-18.196
-87.192
-44.95
-17.776
-30.133
18.081
-0.34263
3.0926
92.965
86.299
58.794
9.7872
-93.964
-114.86
-62.014
-40.522
14.567
-4.5427
-59.506
-10.768
-16.877
-38.216
-9.6507
-9.2103
17.97
44.36
29.962
63.28
53.584
-30.074
28.408
55.844
4.221
22.598
22.95
34.653
54.456
25.575
2.8006
-71.709
-120.57
-27.579
-1.8704
-44.745
-28.208
-17.551
1.142
28.605
4.4543
17.805
60.82
51.481
85.387
97.856
51.617
36.506
-22.829
-44.497
-10.454
-35.864
-24.096
4.3927
-54.693
-30.774
32.914
-6.6953
-2.5565
-6.1989
-38.532
-10.266
-5.7784
-28.025
-8.0131
-25.812
-3.5905
55.97
27.461
-30.623
-17.502
-1.0577
14.603
6.3009
-15.596
50.672
46.492
-21.739
1.1919
-34.084
-109.81
-97.606
-71.427
-32.953
-7.3396
-32.537
11.536
54.989
54.377
92.019
74.242
10.528
-10.346
45.167
94.393
39.027
-67.878
-88.09
-51.998
-51.854
-18.366
-42.164
-126.91
-152.85
-89.33
34.024
113.85
115.1
77.997
50.951
38.944
62.011
79.735
-11.38
-156.57
-147.48
-15.754
51.25
18.591
-31.847
-15.743
17.028
31.557
21.431
9.4751
1.4322
-40.411
-27.585
31.248
33.739
29.257
50.782
118.7
142.17
118.13
64.463
13.451
-74.995
-98.247
-1.654
13.226
-41.648
-119.67
-91.145
6.8538
8.3769
-10.463
-34.515
-98.798
-28.077
55.477
20.742
-57.651
-127.94
-85.674
29.866
72.368
50.282
32.023
-10.347
12.472
58.72
26.189
-52.502
-121.29
-107.2
70.202
133.79
64.014
49.593
35.887
59.46
119.18
111.13
76.684
33.949
-58.509
-13.697
85.624
29.51
-72.602
-229.34
-245.73
-53.211
43.552
-9.6822
-84.906
-127.75
-32.595
105.02
86.781
18.631
-33.477
-38.818
82.668
111.04
13.913
-114.55
-180.37
-51.416
134.15
131.47
17.453
-60.792
-48.47
97.334
179.95
100.11
8.2752
-85.843
-32.614
143.43
153.55
21.157
-111.15
-153.4
-20.896
75.848
-14.521
-116.53
-211.47
-156.89
77.694
174.78
77.739
-85.399
-145.15
-48.438
47.293
70.977
41.21
-65.986
-76.111
60.805
131.76
124.08
18.148
-73.548
-1.1782
45.299
66.496
87.387
14.356
-33.45
39.219
68.24
50.918
35.197
-88.094
-106.75
-18.1
-24.7
-8.8944
8.787
-33.136
-14.777
32.598
72.994
77.954
-25.322
11.331
89.577
46.054
33.132
-39.627
-137.79
-110.09
-101.15
-78.713
12.941
-10.731
-38.293
41.402
40.143
34.218
21.271
-52.651
-43.207
-26.445
-36.259
-13.091
-43.716
-40.749
52.933
59.146
0.69781
4.1324
28.005
30.036
-5.5169
-26.121
15.355
53.65
42.441
52.205
67.887
27.129
14.199
-2.4991
0.037379
7.0399
-42.834
-54.307
-18.589
2.0807
16.531
1.7622
-54.183
-62.182
-18.166
13.179
15.565
-12.785
4.9394
78.622
90.769
80.762
50.001
-49.283
-119.73
-111.87
-30.852
8.5666
-51.882
-98.102
-71.959
40.538
156.63
116.2
44.8
-4.4104
-48.127
3.6929
37.549
-32.651
-83.536
-120.87
-80.66
27.877
55.407
14.057
-36.217
-37.126
59.026
118.73
56.696
-36.513
-87.269
-58.245
77.48
121.15
47.221
-22.742
-88.973
-54.003
51.931
40.047
-18.701
-77.758
-113.74
-3.2709
92.101
73.781
2.6757
-104.52
-105.09
34.946
119.8
69.277
-4.9145
-91.581
-50.771
66.313
36.891
-96.311
-150.09
-49.833
111.41
191.6
104.87
-13.03
-78.738
-11.453
125.5
152.66
74.151
-105.94
-215.32
-109.65
19.336
25.627
-41.506
-123.34
-87.663
35.356
99.849
71.691
-6.4198
-46.889
22.614
105.88
49.319
-42.361
-90.416
-117.18
-26.893
80.349
132.98
78.691
-63.68
-55.178
33.179
31.961
52.111
14.072
-35.789
22.499
34.968
-5.1299
-27.553
-106.67
-140.45
-60.013
-34.48
-57.627
-49.259
-24.948
68.672
124.81
92.305
109.95
126.88
122.91
183.9
159.32
-1.8207
-37.552
95.923
202.59
187.25
52.447
-88.773
-211.03
-241.83
-187.47
-165.59
-116.24
-120.89
-289.68
-218.18
-43.179
-28.485
-32.966
-7.6838
94.016
150.01
87.203
35.835
0.5054
-16.999
87.972
150.68
116.96
65.046
4.0841
37.809
96.663
31.631
-113.04
-212.87
-225.81
-76.694
62.199
17.441
-35.532
-73.439
-22.04
121.45
80.922
-9.881
-25.444
-99.632
-32.333
136.51
96.835
-41.456
-155.25
-126.04
99.508
205.14
119.02
4.8833
-99.12
-88.037
52.55
115.05
53.886
-66.437
-191.59
-71.051
139.54
138.29
31.248
-92.087
-77.286
34.725
107.15
128.17
16.712
-162.96
-99.03
86.818
108.21
28.246
-38.985
-84.243
-0.50678
76.97
66.422
21.872
-72.936
-95.916
-74.108
-95.649
-65.525
38.351
185.75
247.77
173.39
45.124
-47.664
-78.9
-39.92
-8.2568
-72.452
-130.51
-69.493
9.0988
58.333
39.675
-35.411
-102.39
-107.25
-0.54644
97.06
76.406
-41.107
-55.528
57.087
125.97
91.666
-10.572
-128.53
-194.59
-71.105
129.62
154.1
52.659
-35.525
29.046
145.7
92.841
-30.12
-130.07
-176.07
-48.236
109.71
86.528
12.225
-83.734
-126.49
74.913
189.41
96.058
-18.027
-133.64
-61.797
111.49
129.75
44.933
-107.76
-106.05
93.546
166.56
45.614
-75.151
-143.06
-160.1
-50.705
52.223
58.79
-45.728
-118.14
25.728
194.52
218.42
108.25
-26.827
-14.805
83.759
43.619
-33.203
-102.24
-157.98
-37.278
81.063
-23.826
-116.84
-251.51
-282.69
-74.229
33.508
45.671
17.448
-50.472
-46.826
78.282
103.68
58.713
7.032
-1.4459
71.403
87.994
43.034
-46.271
-131.17
-91.928
34.837
106.12
79.726
-19.087
-61.755
32.334
75.423
23.553
-3.9543
-93.22
-139.39
-48.506
31.603
54.547
-1.3666
-34.688
45.584
81.813
58.617
64.968
-29.157
-101.26
-26.815
16.585
34.349
6.1224
-42.229
18.669
57.608
47.449
62.673
-14.106
-88.68
-64.61
-14.846
101.17
84.295
-75.642
-76.994
-11.279
-19.767
-15.211
-55.995
-78.467
-39.89
15.562
72.632
68.728
1.2748
36.468
85.764
52.9
57.941
42.957
-39.268
-58.14
-66.513
-36.611
8.0318
-52.148
-22.623
48.772
15.898
-18.676
-25.955
-2.2202
28.58
-10.759
-37.842
1.6714
22.356
57.162
75.854
16.892
-40.101
-51.423
-36.959
5.99
-1.0666
-51.561
-24.052
-10.819
9.2735
58.614
42.961
-1.2526
-40.32
6.4345
68.921
89.852
43.809
-16.531
-9.6936
28.345
22.916
-11.936
-58.051
-74.136
-0.90193
38.085
-10.808
-76.852
-51.104
33.184
93.118
121.62
46.529
-74.24
-159.96
-104.56
31.105
39.582
-18.303
-11.988
17.723
40.199
35.548
-4.2135
-34.836
-63.801
-28.169
53.348
33.243
-38.806
-77.553
-37.702
49.167
83.278
57.119
-27.113
-86.988
-0.89566
123.32
74.488
-29.15
-92.151
-43.456
96.673
91.644
27.754
-5.4437
-70.907
-47.676
67.346
83.395
4.2436
-100.18
-136.41
3.0857
85.727
21.28
-40.971
-123.89
-85.687
80.144
132.6
60.959
-70.248
-135.64
-17.92
112.28
88.413
-16.684
-115.5
-108.68
29.528
108.42
53.23
-50.852
-136.12
-43.838
115.73
101.67
28.923
-90.016
-129.15
29.243
108.33
69.543
-24.263
-166.88
-87.427
119.23
137.88
52.283
-53.354
-56.242
75.448
116.81
75.098
1.6422
-120.12
-65.36
103.4
95.589
-3.5581
-99.653
-135.11
-8.5299
50.804
13.108
-4.3034
-114.25
-154.37
50.909
172.82
71.421
-40.316
-57.135
42.01
85.579
52.751
20.67
-64.892
-87.903
-9.6784
23.963
63.133
40.717
-39.733
7.9395
47.287
27.649
2.6521
-75.722
-97.865
-44.204
30.203
141.37
108.28
-29.413
-0.56251
44.518
39.916
17.007
-121.45
-128.31
-37.169
-22.15
-2.0457
-21.798
-56.515
41.255
84.495
25.442
15.466
8.7651
-2.9419
2.0006
-41.923
-8.8521
57.513
-4.532
-15.48
35.049
9.6405
-41.208
-91.617
-72.679
-7.7486
-65.426
-34.171
112.97
116.18
98.546
86.479
26.861
-12.074
-51.925
-16.43
33.512
-50.537
-119.84
-44.384
-38.198
7.7979
105.49
91.913
114.04
77.246
-45.266
-89.178
-111.92
-82.358
12.09
18.589
38.019
105.77
54.411
26.986
7.4008
-55.827
-85.1
-125.71
-87.755
134.2
111.79
-44.623
-105.59
-119.68
-18.276
56.883
95.177
165.72
169.91
-35.501
-190.5
-122.18
-57.519
-52.94
-43.57
-32.634
-25.298
33
85.476
51.366
-36.065
-87.207
-26.458
51.073
61.596
52.978
45.486
-19.352
-27.704
85.808
67.842
-68.88
-158.85
-101.57
39.747
51.284
-11.783
-23.145
-39.995
3.0217
77.311
49.862
-18.659
-99.761
-133.05
13.45
111.93
69.734
39.369
-21.355
-18.373
75.152
33.111
-62.605
-123.84
-211.42
-124.89
30.06
56.243
58.554
39.592
46.596
127.47
200.8
165.61
94.88
-21.386
-97.904
-42.044
-59.549
-102.51
-116.59
-114.09
-18.462
72.046
71.764
30.953
-13.479
5.2529
85.256
115.56
86.929
-5.5159
-50.86
29.935
66.619
33.699
19.507
38.484
-8.3691
-44.602
-31.912
-89.908
-230.33
-301.42
-131.83
66.389
188.35
268.41
130.74
-0.84603
47.844
72.287
51.742
19.406
-0.20458
97.614
101.77
-73.574
-108.51
-13.817
13.912
62.067
-29.66
-188.2
-196.09
-184.1
-206.84
-73.392
32.922
75.676
43.178
18.859
106.29
140.4
115.64
66.041
-35.034
-20.968
0.85709
-82.989
-54.829
-29.068
-50.006
-2.0452
13.786
-4.3117
0.31377
-9.671
-18.544
-27.288
-62.273
-31.569
-5.8797
-15.748
21.671
25.661
30.516
45.433
-39.625
-56.608
4.2208
-22.097
-29.73
-4.5138
-27.772
-13.282
-18.801
-18.357
67.805
57.998
9.4164
29.468
14.829
-12.439
-27.75
-8.1739
29.725
-32.735
-86.217
-4.988
50.267
61.756
85.521
38.268
-40.097
-50.841
63.606
116.65
25.744
-50.016
-34.192
28.369
65.127
34.081
-5.8537
-79.552
-121.22
2.3546
115.09
106.09
67.095
35.737
99.118
194.09
138.23
49.12
-93.463
-210.67
-45.657
67.032
-4.1579
-47.349
-66.403
-46.036
102.56
128.79
39.797
-45.547
-236.02
-278.43
-99.893
-14.505
-36.887
-101.64
-43.948
105.95
136.63
68.15
65.052
21.756
138.59
247.48
122.42
-11.853
-103.86
-125.49
-1.0292
6.1076
-101.89
-155.97
-170.32
-89.836
-34.648
-61.836
-79.786
-125.68
-104.49
19.618
83.669
77.718
60.805
56.442
97.823
150.85
89.353
-24.324
-116.37
-86.759
22.759
75.743
48.218
-25.002
-12.598
73.629
114.26
91.53
6.1453
-130.93
-163.57
-74.937
-14.242
34.328
-21.979
-79.243
39.646
117.55
144.79
90.486
-51.543
-62.186
9.1876
38.164
86.021
1.809
-89.135
25.303
78.789
95.282
73.369
-26.823
-66.522
-80.53
-53.34
33.657
4.4678
-78.221
-74.095
-86.451
-131.11
-151.81
-94.433
16.636
41.85
12.685
41.028
103.29
135.45
147.2
107.99
19.635
-45.631
11.145
85.939
10.603
-104.42
-120.6
1.8198
150.59
154.98
57.023
-54.453
-105.85
2.113
76.975
-2.1464
-111.25
-161.67
-81.46
30.529
48.005
15.791
-16.243
-52.08
-6.1243
76.119
60.743
-3.6345
-83.967
-38.359
115.17
142.66
83.53
13.61
-28.243
38.149
123.85
92.255
-10.869
-108.23
-119.26
7.6366
28.041
-30.73
-74.057
-89.091
-2.3969
74.929
84.988
53.237
-21.812
25.083
160.73
211.87
205.95
147.73
120.83
143.58
116.75
0.78192
-171.62
-315.4
-481.56
-476.08
-202.68
-35.013
-96.528
-99.829
39.036
98.285
105.38
110.31
44.146
-12.144
-16.904
-11.997
16.804
46.263
28.461
52.979
111.94
65.332
-35.56
-61.718
-23.659
-19.915
-69.375
-58.209
23.083
4.9849
-40.12
11.519
6.2079
-20.973
3.2696
16.705
-3.2963
-65.353
-115.33
-81.239
6.5201
92.716
139.82
143.35
46.311
-29.378
26.152
13.931
-54.325
-97.075
-77.042
-10.129
56.425
23.781
-12.152
-45.512
-48.558
18.398
42.664
4.3497
-75.12
-150.58
-75.485
51.695
48.727
23.442
-4.4158
-48.943
11.892
113.39
71.496
-36.1
-147.19
-102.69
71.538
112.64
54.366
-3.221
-11.351
63.016
98.295
41.274
-44.373
-153.83
-148.29
38.747
102.03
3.0871
-51.597
-25.512
73.877
162.44
99.063
-59.852
-168.15
-122.72
60.065
142.51
32.918
-47.112
-62.678
37.264
171.53
113.12
-21.076
-115.81
-100.99
73.371
221.26
246.4
235.85
200.68
111.71
-53.595
-287.54
-337.96
-299.08
-266.29
-130.8
40.611
158.53
132.82
89.469
49.98
-44.348
-93.397
-95.173
-136.44
-72.119
31.402
31.586
77.227
96.468
48.715
98.236
10.42
-88.051
-41.634
-47.749
-17.087
26.213
10.419
-4.389
7.1663
7.2465
75.781
57.349
-43.206
-56.711
-35.054
30.358
63.338
26.845
14.223
63.687
64.7
17.008
-34.296
-107.27
-175.13
-114.77
18.975
52.037
20.733
-29.352
7.9745
115.8
94.442
1.719
-56.354
-158.08
-149.33
21.167
62.758
33.394
-32.171
-72.978
82.552
178.88
74.894
-26.091
-108.32
-72.806
82.052
115.14
42.448
-66.386
-163.06
-63.028
77.766
63.23
-21.896
-106.77
-85.431
22.803
73.231
68.349
-14.253
-87.272
4.789
114.28
136.62
121.63
43.282
-34.519
-26.414
1.3928
-6.9282
-67.391
-134.11
-66.368
47.601
112.47
72.56
-66.351
-83.333
10.432
29.697
57.45
42.907
-71.783
-85.717
-3.9648
58.918
82.638
-9.6851
-71.361
-3.5625
5.7753
-24.509
-3.7949
5.6444
24.211
12.67
3.6481
61.315
54.34
-5.9945
16.3
16.397
-20.016
-2.6592
14.97
28.628
16.728
-31.568
-26.631
12.472
22.005
18.362
-26.921
-73.643
-92.159
8.3377
92.406
56.399
-31.47
-77.319
-16.058
57.722
60.443
23.758
-62.138
-126.36
-63.035
20.389
19.19
15.228
-27.43
0.29899
168.6
209.61
76.938
-22.78
-145.9
-145.3
-6.4221
10.248
-4.668
-71.746
-145.28
-4.0565
131.98
96.048
-11.31
-114.58
-65.391
53.09
86.467
95.46
22.531
-106.13
-35.776
65.663
32.364
-49.843
-127.38
-79.971
34.01
48.664
15.871
-58.096
-90.07
28.881
157.51
176.35
112.46
43.713
8.2885
-0.17838
-23.693
-54.604
-133.33
-179.63
-56.326
92.951
114.55
4.0713
-120.17
-79.827
43.601
89.08
84.476
-6.5696
-99.361
-78.683
-24.72
81.042
128.15
-32.619
-111.93
-4.3599
34.256
1.7569
-41.588
-37.448
35.081
-11.054
-19.202
69.333
29.645
-22.533
27.889
17.051
-14.799
-33.384
-31.75
3.9489
-21.301
-33.117
57.349
48.205
-25.341
-25.433
-13.052
11.18
-25.366
-29.528
47.835
27.424
-30.2
5.2461
-8.6985
-54.927
13.629
38.158
1.0756
12.091
34.094
7.1155
-55.143
-118.49
-87.815
87.267
168.56
58.38
-42.65
-50.883
16.173
120.58
106.29
-24.31
-118.23
-139.32
-34.713
89.49
17.54
-63.794
-65.017
-31.098
96.418
127.12
26.583
-65.631
-141.11
-27.616
182.12
112.42
-18.357
-82.21
-99.868
63.44
169.22
63.685
-109.44
-224.92
-131.25
160.84
206.84
35.338
-122.39
-199.19
11.411
169.76
51.448
-136.51
-262.82
-193.65
89.15
293.45
212.16
41.683
-82.787
41.564
163.22
85.32
-38.82
-251.94
-300.31
-57.943
114.08
101.95
-36.304
-113.23
58.93
185.06
92.813
-28.843
-147.24
-126.93
52
139.3
124.27
-2.906
-90.07
1.5504
88.139
60.947
-35.532
-126.52
-67.016
61.256
108.53
81.623
-114.46
-182.61
-0.87557
96.988
108.19
66.886
-85.686
-93.962
8.3482
38.547
93.949
-30.737
-141.63
-22.808
19.548
-0.29271
2.5921
-54.911
-3.2857
88.406
93.014
118.76
71.037
-58.348
-24.322
22.422
-8.1628
10.826
-37.766
-63.938
-52.289
-92.297
-20.724
23.631
-25.442
28.46
48.639
5.5838
20.485
35.944
85.247
85.149
36.48
92.797
91.973
31.109
68.911
26.495
-161.48
-244.29
-107.28
33.332
50.202
-41.733
-83.426
-49.417
-12.645
6.2224
-29.554
-89.146
-108.36
-1.293
106.54
78.037
-11.975
-58.24
23.007
133.77
113.13
10.754
-134.11
-161.91
43.593
136.38
82.981
-7.0646
-153.5
-159.66
83.242
157.15
31.549
-97.652
-190
-51.472
166.89
137.43
-23.16
-152.82
-114.14
56.775
140.21
96.878
38.432
93.145
169.92
133.91
-29.963
-180.35
-293.44
-183.91
94.106
160.29
31.252
-74.931
-185.72
-58.298
177.45
138.1
17.865
-128.21
-187.86
35.104
155.1
17.705
-101.81
-157.54
-26.753
94.955
77.585
44.448
-44.294
-66.036
82.404
137.58
96.16
20.98
-113.25
-69.331
26.782
40.878
43.632
-22.245
-91.299
-28.185
13.136
49.87
36.187
-71.135
-5.508
85.702
55.655
49.444
-22.75
-64.35
2.5241
9.9117
19.249
11.413
-61.537
2.4427
63.807
20.36
15.392
-10.213
-66.486
-58.994
-103.36
-115.99
0.24652
15.122
36.378
90.22
27.007
44.445
73.612
87.352
144.59
77.229
12.952
43.591
-31.45
-50.395
-39.478
-106.98
-124.38
-69.836
-21.618
46.991
-35.815
-111.88
-0.028303
46.372
59.706
73.394
-2.8223
-95.536
-48.169
91.099
159.01
93.805
-43.616
-98.288
-27.229
42.986
22.238
-62.118
-136.99
-145.45
1.7564
126.14
81.568
-49.9
-99.209
-16.697
86.816
91.153
-0.54978
-97.81
-96.419
84.653
201.73
135.74
23.162
-168.87
-203.19
40.334
111.08
24.234
-45.994
-115.55
33.764
178.28
129.82
61.078
-49.095
-121.16
-20.361
57.91
23.642
-76.878
-221.35
-189.49
92.247
165.61
67.79
-21.531
-82.955
49.861
177.86
85.531
-68.96
-225.21
-197.63
19.397
90.765
30.919
-25.096
-155.24
-90.591
129.66
131.13
21.19
-67.147
-58.908
51.637
95.481
56.2
-58.259
-172.44
-90.023
86.43
108.01
38.003
-23.722
-128.22
4.7774
197.62
134.59
34.66
-73.001
-87.52
42.001
113.54
47.516
-88.547
-159.21
-35.635
46.578
27.645
54.3
-7.7387
-86.965
-3.3744
87.708
123.07
82.643
-23.796
15.143
120.18
3.1615
-97.627
-85.594
-11.864
52.654
23.563
9.4591
30.43
-29.358
2.037
33.842
-64.871
-153.4
-125.42
-53.844
-19.329
-19.893
-58.807
-22.769
-2.0351
-33.159
5.4597
19.162
-16.054
-30.655
39.8
124.98
68.902
-64.828
-131.03
-92.802
15.702
71.55
24.097
-48.971
-55.747
82.298
201.61
160.19
37.558
-80.387
-32.916
140.31
134.09
-0.67957
-71.178
-73.476
-32.393
51.876
55.553
-54.638
-158.64
-92.784
32.907
61.062
23.224
-8.0259
-53.492
0.3562
122.98
76.81
-18.551
-111.9
-136.27
69.884
166.41
41.026
-49.342
-132.89
-66.255
98.765
113.17
36.118
-89.515
-168.16
13.394
149.86
67.736
8.6956
-59.097
-100.73
96.507
209.5
110.78
25.94
-150.42
-188.74
40.955
57.56
-108.31
-233.91
-188.85
56.849
209.64
123.14
-3.8444
-144.75
-163.04
36.936
121.22
55.973
-39.625
-138.42
-22.767
123.42
55.36
-31.83
-123.61
-97.238
97.976
147.7
83.737
2.6107
-122.99
-48.087
151.82
156.64
59.857
-82.039
-200.62
-45.27
101.76
97.114
4.974
-146.02
-83.905
53.031
53.926
45.424
-11.143
-76.715
20.52
91.539
50.783
14.87
-53.054
-45.958
75.268
92.198
54.52
-10.345
-94.409
-56.56
31.174
53.317
71.392
32.921
-23.008
-25.396
-56.752
-79.752
-83.072
-128.45
-74
-4.4642
-7.093
39.355
57.238
31.803
130.1
117.73
-10.881
-111.77
-145.69
-22.138
61.875
-35.893
-78.75
-12.539
25.839
63.207
42.632
-13.554
-40.645
25.733
141.72
132
-15.073
-100.81
-50.862
41.977
127.64
62.161
-63.193
-104.87
-66.053
53.533
126.82
34.743
-80.62
-75.751
13.482
91.654
34.071
-73.295
-145.97
-169.59
-5.0155
124.79
53.857
-83.944
-152.01
-31.516
162.53
107.09
-12.258
-12.23
-50.963
60.298
184.06
104.38
-19.363
-120.57
-95.27
51.874
94.93
45.093
-70.601
-199.09
-100.08
103.64
132.17
47.292
-36.224
-17.059
26.952
30.598
42.589
-17.449
-162.55
-60.786
64.093
84.936
51.228
-53.43
-171.5
-53.108
108.02
121.45
48.62
-166.96
-200.63
6.7371
72.719
26.975
-48.756
-107.97
62.627
270.96
224.33
77.253
-93.834
-201.5
-90.391
18.946
-7.3055
-57.061
-151.04
-108.13
91.632
182.78
105.79
-54.85
-81.819
65.373
105.6
65.625
19.674
-82.258
-105.86
11.625
94.518
110.14
14.634
-94.437
-25.533
37.832
-4.6244
6.4181
2.6855
-19.482
28.43
51.452
53.971
28.356
-88.858
-94.675
-32.482
-74.619
-59.26
-23.902
-10.356
64.494
69.487
75.949
110.03
-21.537
-56.383
19.516
-39.435
-36.87
-40.435
-63.011
21.63
30.466
-11.243
40.322
15.036
-49.948
-29.95
-40.518
-34.688
-1.7155
40.376
98.361
35.068
-72.324
18.514
80.677
-23.687
-71.642
-75.051
-46.463
-18.483
9.4977
48.013
0.22897
-81.642
-4.1353
52.131
19.371
40.247
1.6854
-41.664
-30.679
57.123
133.77
89.95
-39.456
-121.47
-59.983
73.762
50.902
-55.536
-110.83
-142.78
-43.898
146.91
139.79
7.4921
-121.88
-143.43
66.743
181.75
88.921
-20.038
-160.19
-141.81
78.055
161.92
42.684
-122.19
-212.91
-44.341
205.38
176.96
21.355
-113.49
-111.11
94.328
204.54
109.44
-41.773
-196.54
-146.42
34.391
118.14
106.36
-61.259
-152.49
-14.94
87.147
121.23
42.514
-91.497
-46.044
38.484
22.389
66.611
28.28
-105.84
-70.198
10.303
31.961
26.916
-45.397
-32.224
-14.226
-60.898
35.661
60.634
-29.89
47.724
58.32
26.313
12.174
-23.896
13.891
11.98
-89.846
-85.259
84.478
104.88
46.946
9.1668
-80.16
-130.48
-40.436
105.48
86.095
-36.298
-155.91
-176.05
25.17
172
89.573
-5.3319
-89.816
-55.738
132.94
137.24
-17.351
-140.51
-233.29
-119.82
118.9
125.34
12.435
-98.791
-93.758
80.488
152.98
112.25
40.841
-83.103
-65.397
105.09
133.52
40.368
-99.847
-156.37
-3.3506
105.11
45.539
-75.552
-188.53
-139.07
38.527
97.442
103.46
61.271
-24.894
41.809
113.52
89.29
44.774
-42.323
-89.28
-37.821
8.6123
14.947
-46.471
-121.88
-33.591
45.817
34.668
12.307
-47.727
-22.877
37.032
43.318
95.383
69.595
-79.02
-24.951
47.102
-39.512
-60.708
-50.921
-29.177
30.027
7.6778
20.279
30.298
-26.924
64.982
70.287
-103.67
-142.31
-61.435
42.623
99.909
33.226
-31.493
24.01
60.712
11.783
-23.432
-73.069
-104.77
-44.589
69.427
92.204
4.0865
-73.464
-23.12
88.692
122.22
62.815
-43.179
-136.32
-130.98
12.682
89.925
25.933
-80.735
-119.95
34.252
180.93
98.634
-22.467
-121.03
-117.95
86.129
176.3
75.679
-58.111
-160.84
-72.142
124.44
103.75
-38.36
-158.25
-194.75
-3.0076
176.03
111.83
-37.212
-188.26
-141.91
126.15
221.29
121.94
-12.074
-154.2
-24.09
168.97
115.16
-33.175
-177.41
-197.72
56.886
209.21
86.059
-94.261
-199.84
-43.399
132.91
108.2
-11.812
-152.4
-228.42
-27.868
131.19
134.72
84.371
-63.309
-40.241
111.23
141.15
83.659
-77.027
-172.04
-31.701
90.398
109.14
60.527
-96.788
-128.55
18.195
81.622
90.836
-25.009
-150.1
-67.513
53.342
128.51
65.755
-94.178
-77.817
24.256
22.922
31.049
-21.95
-125.17
-74.448
9.3546
31.741
73.761
22.492
-37.423
13.957
6.2363
-1.91
17.275
-7.5207
44.162
80.56
38.233
70.622
40.137
-70.802
-23.902
-20.252
-100.21
-79.074
-48.871
-3.658
26.07
-25.886
-28.859
21.073
34.83
49.21
27.287
-48.404
-105.6
-14.904
109.25
101.58
-6.6725
-95.945
-80.45
34.92
96.847
11.53
-83.531
-151.38
-78.022
159.61
193.96
43.125
-96.098
-146.84
32.01
204.81
142.83
24.498
-142.82
-214.52
2.9748
147.17
65.333
-79.119
-192.47
-64.05
201.72
156.67
-30.942
-163.44
-197.3
17.284
158.84
86.95
-11.178
-136.09
-105.03
136.99
168.13
31.984
-131.02
-225.75
-34.574
144
114.41
2.467
-135.46
-90.167
120.08
193.5
133.23
-2.7296
-150.88
-83.217
14.679
15.903
18.639
-81.771
-125.94
1.7641
83.902
104.95
44.353
-106.4
-24.153
112.34
65.736
45.333
-4.9236
-49.724
16.51
2.5268
-8.9401
85.724
45.303
-32.943
-38.282
-125.59
-142.81
-82.293
-11.986
91.394
73.94
-12.266
27.088
81.526
47.65
27.361
-13.655
-93.972
-102.93
12.463
79.652
44.339
-66.763
-130.03
-40.926
117.66
116.71
-1.9694
-128.55
-184.31
-15.196
126.23
57.854
-49.368
-133.26
-63.409
144.92
207.69
79.505
-66.727
-173.99
-94.162
134.11
142.57
0.72826
-130.34
-158.96
58.285
267.09
157.89
-22.745
-167.34
-161.49
50.224
133.53
55.518
-68.58
-199.78
-103.5
153.2
177.12
34.822
-131.8
-145.28
53.67
176.85
154.75
98.59
-52.194
-115.29
-2.1675
52.222
53.333
-22.44
-141.86
-92.463
12.473
-4.2717
-30.331
-82.423
-82.298
30.583
40.891
-10.747
-19.592
16.523
120.03
148.8
47.599
-50.912
-118.2
-65.921
78.556
80.973
-2.6017
-74.763
-133.22
-47.826
43.019
-10.458
-59.993
-77.017
-1.385
148.31
160.71
100.74
21.542
-77.57
-27.531
58.022
69.481
110.09
102.9
27.85
-20.52
-49.005
-41.451
35.522
-47.347
-146.81
-88.769
-83.726
-89.432
-46.546
-21.641
91.958
116.74
-8.3267
-13.226
14.979
-35.361
11.395
5.2846
-72.075
-64.713
0.19712
76.627
107.87
8.625
-91.955
-63.506
-0.085276
68.32
50.782
-43.29
-108.61
-60.144
99.37
175.13
82.877
-53.815
-115.59
-58.25
55.135
66.997
-21.76
-140.27
-204.68
-30.217
168.76
143.93
21.446
-104.6
-153.95
47.393
244.07
162.08
1.5434
-170.94
-234.06
1.8777
158.57
81.171
-11.002
-110.96
-75.657
79.016
85.601
37.417
36.38
1.1758
38.844
98.687
13.342
-71.402
-111.33
-74.1
57.022
57.372
-46.781
-84.208
-74.696
4.8916
109.54
60.757
-38.572
-130.08
-123.44
103.57
185.66
64.262
-27.986
-11.984
132.59
252.51
232.04
90.776
-82.862
-257.49
-343.01
-258.27
-180.97
-151.32
-131.12
-9.6334
164.85
185.72
86.972
16.231
-3.8892
31.759
68.308
44.429
-12.185
-92.299
-71.883
99.451
163.99
77.452
-19.475
-27.05
8.4208
38.152
-0.8906
-74.226
-161.81
-195.07
-47.665
105.03
113.52
28.011
-49.571
-43.315
103.44
179.71
87.572
-25.281
-147.38
-178.46
19.957
123.58
38.839
-74.207
-160.61
-75.668
130.91
138.97
38.232
-81.68
-159.94
5.1497
196.6
141.12
6.3614
-100.4
-92.819
105.94
199.16
61.948
-72.71
-211.49
-258.32
-23.151
112.08
7.301
-106.4
-176.58
-0.72282
230.97
140.41
-39.607
-127.34
-69.799
165.65
230.76
90.515
-65.897
-184.43
-90.186
159.64
138.82
-20.742
-154.88
-229.99
-36.217
177.51
132.82
1.4591
-124.95
-83.46
172.41
237.1
70.39
-93.74
-209.38
-67.075
192.8
177.59
23.499
-144.3
-206.33
21.377
212.73
86.44
-88.306
-175.1
-60.062
133.98
117.42
31.853
-58.592
-174.52
-32.257
184.82
84.878
-54.76
-155.47
-182.21
22.386
130.81
47.978
-73.002
-209.96
-134.72
152.26
211.94
27.134
-152.61
-172.77
75.233
203.5
113.55
4.906
-115.45
-5.4923
230.26
196.73
7.8312
-180.51
-231.13
-42.73
86.938
32.313
-37.834
-140.53
-99.572
129.61
184.1
67.62
-78.673
-152.16
-22.108
84.953
65.503
1.7617
-130.47
-149.82
35.775
135.31
107.99
-57.398
-166.63
-31.544
93.904
80.931
45.599
-35.683
-97.291
41.459
158.8
131.29
-26.235
-198.08
-111.09
75.694
107.65
39.82
-87.01
-110.81
55.945
146.64
152.4
54.432
-134.69
-119.54
22.08
67.017
51.412
-52.971
-161.67
-101.11
-33.155
58.784
77.361
-101.35
-70.96
76.795
88.535
114.02
56.752
-17.98
1.6161
-5.303
77.731
151.7
-54.121
-164.85
-51.006
-32.936
-9.9892
11.458
-23.718
26.778
4.4711
-59.996
26.18
-33.63
-103.11
37.124
39.118
3.4333
18.981
-1.1459
42.751
16.19
-78.271
-18.793
58.802
22.891
-9.8428
-63.551
-109.39
-77.745
60.719
154.72
57.362
-86.673
-157.98
-50.515
108.29
87.188
-11.123
-92.776
-112.56
54.247
176.52
61.256
-84.778
-182.11
-100.58
145.28
149.32
-1.642
-87.208
-115.33
63.621
219.95
121.56
-45.14
-191.02
-199.62
20.618
110.47
12.086
-74.835
-139.25
25.854
237.2
152.06
9.2068
-103.88
-91.303
134.96
178.5
24.085
-123.08
-240.22
-104.81
113.36
94.14
-14.842
-141.24
-148.63
69.711
184.78
90.803
-47.446
-109.86
12.49
147.65
124.86
59.372
-28.95
-94.375
36.35
172.69
184.39
17.972
-203.46
-139.61
23.227
61.405
62.149
-40.893
-115.72
-11.456
52.951
60.917
60.57
-94.284
-143.11
-10.442
-5.8399
-7.0207
-8.4998
-34.089
-26.698
-58.189
-41.07
32.313
-9.3987
26.331
135.3
62.815
20.677
36.889
30.31
35.324
-14.207
-77.931
-43.287
-19.677
-57.935
-44.569
-32.366
-69.575
-39.679
80.033
110.33
-9.758
-121.1
-110.3
36.378
159.85
70.778
-16.866
-79.201
-123.8
38.874
126.31
32.538
-71.732
-169.16
-74.434
157.8
129.08
15.562
-90.065
-117.25
88.421
189.81
64.315
-48.469
-157.31
-126.11
73.833
94.857
1.5347
-91.062
-132.01
39.157
171.97
88.959
-51.525
-154.65
-37.872
186.93
178.63
17.779
-137.6
-158.1
-5.604
72.628
23.188
-89.698
-194.58
-111.42
53.189
110.62
70.934
-70.672
-63.033
115.65
164.71
117.5
20.652
-95.958
-52.111
24.647
45.2
50.526
-78.622
-110.42
4.9529
14.469
2.0451
-22.554
-25.185
57.194
56.97
37.158
84.651
-18.585
-88.284
15.937
7.3017
-21.155
-7.757
4.6213
52.237
28.364
-42.625
33.547
31.841
-18.653
-1.5786
-103.08
-234.05
-166.29
53.951
160.45
112.29
-8.5288
-46.671
32.764
79.505
23.546
-46.199
-133.78
-96.993
126.79
172.35
34.867
-68.981
-118.78
38.518
267.5
132.18
-73.282
-190.99
-225.28
17.96
157.4
55.202
-51.66
-136.11
0.71129
173.73
87.875
-74.318
-216.53
-171.35
85.132
167.3
84.354
-29.923
-145.77
-54.205
128.46
162.95
34.473
-142.7
-113.21
41.172
87.827
50.993
-64.234
-95.049
29.262
67.89
93.665
94.686
-33.816
-40.128
23.74
21.884
66.441
21.92
-24.951
3.852
-59.134
-80.639
8.2994
-5.8694
8.4328
22.901
-45.313
-52.727
7.6809
86.335
79.454
-28.393
-96.949
-98.621
-11.228
61.242
-6.1598
-76.865
-79.373
57.428
190.86
128.61
-25.06
-152.6
-88.97
108.96
110.4
-11.143
-146.01
-243.08
-102.26
111.68
124.3
33.003
-120.13
-135.16
104.87
201.87
46.315
-126.58
-167.04
23.561
146.9
24.792
-71.241
-143.46
-87.775
127.38
170.26
70.146
-85.863
-129
19.672
93.491
97.61
65.081
-28.782
-9.9247
75.916
149.02
161.21
-28.245
-114.53
-2.4456
-23.314
-53.053
-44.376
-74.571
-30.305
-24.935
-8.0889
45.437
-37.223
-40.349
52.214
4.4105
-39.613
-8.9937
77.136
102.9
-2.7474
-110.22
-102.86
1.816
58.766
23.588
-43.494
-119.33
-24.891
179.9
160.13
22.309
-117.83
-134.91
116.63
171.07
-28.352
-118.53
-214.44
-143.91
97.247
111.08
9.9163
-104.82
-121.65
121.31
276.49
100.83
-134.17
-186.59
-31.415
118.39
132.19
55.808
-78.616
-158.52
-61.798
62.486
116.3
29.08
-75.864
-27.265
23.259
36.697
36.744
-24.208
5.966
10.361
-57.841
-43.881
34.889
96.04
116.69
19.975
-65.241
-101.92
-45.93
118.81
113.61
-4.0777
-140.5
-155.97
78.294
197.92
38.557
-119.39
-196.27
-87.815
94.726
105.59
31.156
-67.297
-155.74
-113.56
-59.631
35.881
94.784
-15.888
-2.6945
75.296
37.747
13.771
1.3219
36.278
24.996
-39.303
5.8865
69.695
72.17
102.76
82.268
-45.424
-113.4
-54.975
37.369
13.852
-111.64
-179.29
-107.85
28.33
83.863
30.112
-61.318
-88.895
79.709
206.27
121.36
-24.98
-179.61
-168.11
89.927
162.56
57.514
-32.248
-165.04
-19.66
176.78
132.24
25.386
-127.85
-118.03
66.272
76.683
-83.766
-205.22
-118.93
80.366
143.31
58.411
-83.044
-184.4
-100.07
51.084
129.18
68.514
-74.153
7.4907
141.57
117.17
74.908
-9.0532
-35.545
-1.6009
-22.361
-21.352
36.15
-12.659
-27.845
14.318
-7.078
-6.3347
48.611
76.144
13.729
-92.958
-158
-122.54
17.108
86.263
65.798
15.315
-35.743
102.36
203.84
72.334
-77.687
-165.42
-93.663
130.79
179.52
24.585
-133.93
-208.09
-33.529
154.45
94.117
-23.632
-142.55
-120.49
114.15
190.2
39.55
-124.19
-113.55
71.84
172.63
94.528
-33.56
-172.52
-161.55
-18.851
62.22
62.477
-62.827
-102.54
-26.373
-7.9717
39.319
0.34213
-73.685
-18.532
2.3122
-4.6779
20.935
6.3792
53.925
105.53
49.436
21.833
6.9524
23.284
11.75
-82.718
-131.54
-33.635
108.06
62.029
-27.674
-36.261
-86.712
-5.6642
167.33
119.12
-19.596
-109.03
-103.07
85.748
101.61
-98.637
-164.99
-187.21
-102.53
76.534
120.46
20.337
-135.7
-95.25
132.55
212.72
92.98
-94.144
-143.62
-19.04
74.321
78.231
22.268
-96.768
-98.775
-8.3181
47.733
96.996
64.869
73.246
127.4
65.932
18.389
24.315
42.711
109.06
97.002
48.08
32.782
-10.115
8.8974
15.8
-71.978
-196.87
-214.8
-79.273
28.845
36.998
-71.45
-127.4
24.78
116.5
54.53
1.6951
-115.8
-143.66
22.287
85.272
49.596
-46.945
-119.99
37.569
160.32
72.74
-61.734
-155
-64.379
76.239
61.352
36.265
-22.77
-86.146
17.08
95.428
82.229
11.574
-72.929
-44.512
15.593
22.227
-23.413
-46.607
8.4003
50.976
12.564
24.472
31.628
11.867
32.243
-18.759
-66.791
-11.117
12.714
5.7272
-9.7939
-79.651
-93.598
17.487
93.203
70.369
-11.22
-104.99
-64.653
92.583
134.59
37.982
-101.86
-107.83
58.636
141.03
47.878
-79.656
-171.79
-122.31
122.91
164.66
18.647
-132.12
-184.76
11.248
209.42
169.88
27.816
-87.711
-20.547
173.07
194.27
112.49
17.046
-171.59
-167.38
-63.366
-52.605
-148.71
-157.15
-10.12
83.919
93.298
75.212
3.4951
-53.534
22.243
82.872
78.173
-3.1188
-111.29
-107.96
-92.909
-62.981
-24.233
-30.538
16.271
35.575
69.72
109.46
-40.742
-78.093
50.856
52.662
32.373
16.37
-4.1803
11.738
-24.381
-43.324
-1.3263
48.638
97.142
56.783
-6.0743
9.8911
43.624
54.507
53.8
-28.412
-102.31
-33.289
91.719
80.69
-5.6802
-72.795
-162.84
-83.289
105.63
83.454
-15.037
-114.06
-92.1
78.626
65.547
-35.958
-114.24
-153.57
28.795
172.71
107.02
-24.677
-151.3
-50.109
178.2
177.22
17.814
-125.41
-159.07
-19.088
119.54
107.09
-5.6943
-119.86
-71.887
111.16
150.11
-19.672
-170.42
-118.32
-0.063693
62.68
81.958
7.3661
-62.063
-31.529
30.495
86.124
88.462
-21.743
-79.921
-73.423
-70.457
-54.946
-45.958
23.088
54.988
-11.513
-2.1176
32.174
-15.912
-21.935
-2.6076
-31.839
-17.772
77.807
151.84
105.4
6.0001
-12.451
87.815
180.43
67.413
-91.079
-241.09
-370.11
-193.98
21.113
5.9708
-63.833
-129.17
-37.722
214.54
200.52
-4.3021
-126.09
-82.5
145.92
184.18
22.021
-114.38
-212.23
-136.33
82.275
143.98
49.228
-71.315
-46.886
83.955
133.11
142.59
30.324
-82.933
-19.279
89.078
151.87
5.9928
-173.23
-72.787
17.749
9.5338
21.056
-20.969
-25.682
17.332
32.426
95.689
59.362
-50.349
-30.141
-64.252
-129.75
-112.57
-19.677
114.11
71.66
-42.922
-29.544
-6.5601
10.534
65.854
75.033
2.4779
-41.746
34.293
72.408
7.3696
-101.3
-127.23
36.653
118.43
28.837
-85.751
-197.9
-112.69
129.56
184.24
68.661
-78.958
-147.68
42.073
229.4
167.72
3.6485
-126.78
-48.551
137.83
104.43
-26.397
-162.81
-155.58
69.515
201.45
99.164
-114.87
-248.55
-122.17
25.721
61.528
54.515
32.14
43.513
68.878
72.541
129.4
66.413
-55.625
-20.251
-44.368
-84.713
-62.618
-92.653
-71.973
-9.694
47.383
110.62
25.836
-48.095
-32.683
-59.931
-57.197
-15.908
74.347
113.87
-13.615
-80.593
12.79
46.54
29.177
23.701
-56.833
-72.021
7.1868
61.589
4.428
-104.58
-192.05
-102.87
169.07
219.91
79.635
-39.017
-114.4
40.657
163.14
54.973
-88.365
-194.79
-103.44
129.68
125.87
-0.044399
-115.94
-138.56
60.849
169.01
68.245
-54.536
-186.67
-123.78
114.85
139.93
13.114
-94.769
-95.675
43.588
123.08
53.076
-74.128
-185.39
-124.83
36.694
105.07
16.351
-80.756
35.212
158.91
157.08
123.46
-0.31248
-62.564
-33.041
-24.038
31.064
19.202
-82.44
-35.37
5.2543
-12.479
0.83019
-15.594
25.267
-1.5645
-131.23
-124.92
-12.363
73.01
88.482
20.216
-36.887
22.094
152.56
152.79
21.949
-89.019
-107.12
24.357
62.212
-82.793
-116.68
-149.81
-105.46
118.06
137.42
14.283
-90.271
-154.68
27.579
199.31
85.281
-33.067
-120.49
-84.743
109.26
150.95
34.736
-87.613
-166.39
-29.079
183
154.48
-49.394
-169.5
-71.065
24.455
61.411
35.034
-55.835
-60.951
-15.423
22.009
66.981
10.809
-76.446
-11.981
16.06
28.823
46.724
17.001
48.962
24.111
-12.376
29.393
-0.30763
-18.423
41.6
-7.5218
-47.794
-22.382
40.115
101.66
45.232
-48.362
-68.075
40.427
126.48
-53.831
-201.23
-205.54
-154.4
61.546
149.61
90.399
37.047
-4.5082
80.33
142.63
34.532
-103.45
-251.55
-191.55
3.5127
71.549
33.655
-61.819
-33.406
155.12
186.18
59.931
-49.43
-145.82
-35.704
123.33
88.353
-30.379
-144.05
-97.599
72.193
153.45
75.868
-109.37
-144.63
3.2672
87.775
81.357
15.613
-57.276
-18.706
40.794
79.58
96.454
-43.684
-106.79
-46.38
-45.022
-32.202
-3.3347
52.783
70.863
0.95103
-14.995
43.922
57.876
28.047
-19.429
-82.803
-112.75
-62.084
40.728
48.752
-12.707
-94.025
-63.541
79.844
70.302
-10.095
-74.419
-107.36
71.2
212.13
111.72
-11.937
-106.92
-94.852
131.96
234.56
65.731
-175.86
-303.05
-114.98
164.18
167.96
7.9079
-151.4
-94.317
166.47
261.4
57.327
-196.83
-234.38
-85.753
21.504
41.664
-10.642
-113.74
-105.09
-9.3998
101.81
96.985
-72.436
-47.348
89.053
117.01
126.27
75.746
58.231
127.3
122.17
110.55
87.343
-38.245
-30.119
30.099
-96.378
-317.07
-379.51
-228.28
-124.91
-114.48
-40.732
67.741
141.33
145.76
51.15
-51.089
-103.83
25.537
166.42
112.47
-31.989
-113.57
22.114
189.56
125
33.402
-97.388
-175.58
7.3736
156.48
83.178
-62.651
-174.53
-51.409
216.75
185.89
6.062
-143.29
-177.5
19.354
135.68
62.251
-72.307
-156.55
-45.121
159.1
188.07
-7.7233
-194.31
-116.76
66.865
141.2
115.81
-4.8655
-125.44
-67.48
13.615
73.284
73.923
-63.156
-57.679
17.339
26.446
51.039
-44.168
-35.62
12.721
-33.081
7.6715
57.555
-14.812
7.4913
21.525
-57.153
-71.134
-20.86
37.948
11.674
-70.122
-73.635
-2.6068
84.153
73.025
32.826
-34.809
-68.072
83.485
176.48
91.57
-70.357
-175.72
21.78
234.01
127.57
-61.972
-230.44
-266.42
-28.34
123.19
76.523
-49.409
-201.27
-69.67
179.62
151.31
-68.516
-216.18
-108.42
130.28
144.21
32.848
-74.254
-127.78
64.086
219.99
167.74
-15.938
-162.44
-67.084
77.496
88.173
25.517
-100.12
-126.9
6.4193
96.145
123.95
5.6109
-107.3
-2.1443
64.24
26.677
52.454
25.412
-29.604
-71.341
-106.38
-37.493
28.003
-29.439
-45.287
-52.927
-124.84
-147.72
-10.243
122.35
95.391
6.5383
-47.051
55.117
175.74
99.414
-11.248
-109.37
-71.247
172.45
177.65
2.3643
-133.82
-193.43
-22.635
163.66
108.58
-48.242
-148.63
-68.2
80.599
122.73
102.14
34.391
-40.177
88.532
186.18
65.929
-97.973
-215.24
-174.5
-41.103
-9.5962
-26.049
-86.2
-87.653
22.891
96.468
150.96
26.323
-130.51
-30.733
75.945
70.305
44.95
-29.651
-51.88
-3.7007
9.5379
49.999
10.563
-84.96
-49.164
-44.505
-66.639
-44.384
-4.919
56.509
24.714
-42.778
24.957
61.369
44.155
62.753
24.611
-22.777
-10.074
42.564
43.954
-43.35
-127.56
-95.736
77.17
143.31
15.827
-93.807
-149.58
-70.857
126.78
143.97
-7.7226
-177
-181.68
48.077
182.51
53.072
-73.18
-107.5
-11.031
156.37
140.33
16.701
-129
-137.96
78.329
180.95
83.211
-95.107
-167
-7.6681
84.951
57.056
2.5062
-127.6
-125.5
42.919
180.46
224.9
55.869
-121.07
-91
-36.161
6.598
-4.3482
-32.334
20.286
34.045
90.118
101.12
-30.257
-61.383
-41.222
-82.78
-96.548
-71.308
30.251
93.629
35.789
53.474
69.128
-20.256
-56.801
-32.258
-65.14
-114.67
-21.703
144.35
88.702
-84.501
-136.32
-41.802
135.98
162.71
-3.8739
-117.49
-152.3
-20.406
134.38
98.936
-17.725
-146.98
-68.143
173.74
140.59
-42.993
-149.17
-163.49
43.605
189.98
91.072
-17.378
-147.86
-151.52
79.063
151.52
45.365
-48.735
-71.958
14.092
90.578
85.538
-19.591
-110.37
-46.154
97.583
157.29
100.43
-52.937
-106.52
-33.774
-23.927
-59.119
-91.545
-69.216
7.0166
34.071
79.767
60.422
-23.249
27.384
25.106
-102.85
-181.76
-181.22
-42.636
111.49
61.146
22.971
67.468
84.637
76.221
58.787
7.102
-50.874
-90.981
-7.3153
23.271
-81.425
-198.67
-104.1
115.46
168.54
49.681
-91.896
-173.7
-18.905
151.99
118.69
23.98
-110.33
-113.75
100.85
176.28
56.871
-27.82
-94.362
-16.201
103.38
65.669
-23.011
-123.38
-105.29
102.91
226.65
99.063
-117.5
-150.8
-14.937
72.408
86.08
48.227
-50.853
-82.605
-34.253
12.947
96.357
60.943
-52.937
-51.457
-57.782
-51.822
-55.151
-27.277
77.001
59.438
-24.007
22.85
91.007
66.658
24.947
-54.838
-126.19
-106.41
37.997
108.53
17.377
-92.457
-115.96
65.644
204.76
121.96
-26.969
-252.41
-240.19
36.118
146.6
48.642
-72.746
-168.45
-1.7006
222.74
186.17
42.21
-189.8
-255.58
4.8272
160.17
104.48
-55.361
-93.615
113.71
257.55
142.79
-99.194
-179.63
-82.09
-12.789
-2.6833
-39.471
-109.94
-122.52
-6.7459
80.206
131.11
99.292
11
28.58
1.8213
-13.639
-5.5452
-39.635
51.863
78.428
46.091
86.474
0.69683
-67.535
32.411
13.943
-103.66
-128.47
-54.995
13.436
-19.955
-94.752
-75.032
62.033
135.61
45.038
-26.157
-108.78
-123.07
65.862
166.31
95.196
-27.254
-106.79
57.969
247.14
110.44
-28.336
-157.77
-285.22
-66.088
121.67
65.226
-40.789
-135.39
-4.7551
167.04
106.43
-26.168
-173.75
-137.52
-15.659
-0.14452
0.48417
-20.995
-34.525
86.071
187.46
169.85
42.183
-124.62
-98.334
-7.746
13.021
37.16
15.401
75.585
190.76
132.48
40.095
-25.682
-100.87
-84.665
-119.9
-198.85
-164.57
-57.673
39.171
92.698
49.692
14.742
62.535
81.655
33.878
-9.9536
-101.82
-190.77
-42.67
125.33
125.29
25.776
-83.232
-58.154
111.75
147.53
37.315
-90.8
-191.76
-46.714
139.39
93.012
-15.514
-159.4
-114.93
140.79
186.74
33.126
-144.28
-184.73
35.901
180.86
109.62
-15.318
-159.51
-150.35
48.111
111.24
66.862
-41.269
-40.947
85.032
107.67
46.293
-56.886
-94.107
-3.6719
92.847
99.905
76.475
-36.113
-104.54
-42.581
-9.6639
22.184
-31.122
-76.401
-0.68377
24.061
22.528
47.44
3.2968
-4.5212
13.354
-81.592
-137.29
-85.492
-7.4307
44.607
6.6894
-58.656
-47.315
33.901
86.881
48.557
-23.625
-84.296
-0.91029
118.26
100.15
-13.717
-127.89
-105.17
99.247
203.99
99.096
-54.983
-172.52
-67.34
145.1
128.24
-19.516
-161.24
-150.15
80.43
169.03
9.3909
-125.97
-201.52
-57.964
163.85
137.52
20.098
-140.76
-174.46
48.487
164.84
113.78
-25.011
-147.16
-21.755
119.56
110.54
37.585
-79.219
-85.096
70.301
149.79
97.619
-36.764
-99.857
15
73.082
-2.5493
-52.798
-98.805
-41.489
54.16
76.077
73.948
-75.606
-138.99
29.406
31.418
-53.66
-97.501
-73.099
62.509
63.066
20.35
45.072
-6.4851
-53.337
-18.361
-76.969
-181.13
-145.8
13.921
110.51
48.922
-51.864
-34.43
126
193.73
86.224
-46.896
-127.32
-53.91
167.22
214.32
81.756
-95.132
-205.68
-50.555
134.46
62.886
-41.105
-127.11
-159.68
29.831
125.12
45.52
-82.92
-203.11
-47.165
193.62
167.67
-24.722
-136.44
3.1375
149.27
134.21
46.734
-118.2
-221.29
-45.648
137.35
117.25
-30.573
-146.38
-67.984
83.348
126.02
61.685
-57.259
-33.766
100.2
149.04
160.98
13.469
-186.96
-91.85
-49.992
-103.81
-44.463
-29.957
-21.254
3.8186
-54.798
-7.6775
92.136
18.057
-26.421
-5.2347
-39.089
-70.491
4.7986
106.96
105.74
-1.0909
-92.976
-31.173
113.47
117.86
32.464
-81.581
-137.21
12.784
148.09
66.51
-57.294
-148.82
-44.16
223.13
216.99
87.538
-80.709
-240.32
-76.108
144.88
109.12
-87.118
-269.66
-258.53
8.0951
130.41
43.619
-87.796
-128.36
26.429
129.98
85.77
-4.7016
-96.089
-51.36
93.633
130.96
94.284
-10.606
-70.983
41.149
94.261
68.102
-37.889
-137.82
-58.908
35.446
108.04
90.62
-90.092
-83.568
19.229
35.674
56.731
27.004
-55.714
-50.577
-60.437
-39.07
46.156
-12.069
-24.681
49.723
25.499
10.242
25.26
30.427
3.7267
-69.855
-51.258
11.097
-33.128
-23.152
19.427
-22.558
-38.846
-2.0362
40.804
24.479
-93.134
-163.01
-86.834
55.552
131.97
103.24
33.316
-52.316
-21.496
154.3
191.95
78.161
-63.107
-113.74
27.324
100.05
-33.758
-109.45
-237.37
-248.1
-2.6255
111.17
24.737
-156.37
-198.63
48.749
255.47
214.31
76.815
-74.136
-69.614
97.436
120.97
17.645
-122.41
-164.77
42.904
255.39
236.78
31.985
-110.33
-26.403
-54.441
-202.84
-196.23
-151.49
-112.55
20.321
117.62
199.51
219.32
167.15
190.73
145.3
-46.287
-157.49
-117.83
-10.412
30.089
-19.685
-9.6244
19.84
-56.063
-31.327
-14.033
-29.314
-23.221
-119.9
-108.11
-50.289
-113.3
-139.45
-12.012
149.62
128.59
-14.159
-127.58
-132.07
17.632
157.4
110.35
-49.727
-175.77
-122.73
96.27
159.03
14.094
-139.25
-189.44
-1.4058
235.03
186.58
-33.235
-167.94
-96.558
152.1
282.61
160.45
-14.862
-139.07
-48.127
58.483
42.138
-49.154
-189.63
-133.63
98.371
205.42
135.77
-15.772
-47.128
68.053
99.94
55.943
-11.596
-127.32
-114
6.2048
132.68
160.71
-82.038
-204.21
-39.638
35.434
84.836
54.654
-12.131
59.849
47.796
-50.236
-28.876
-56.406
-99.531
-52.51
-57.799
-105.73
-86.387
17.727
85.873
51.771
-43.821
-85.937
20.013
152.73
130.29
20.527
-108.19
-134.88
59.018
184.76
79.153
-75.375
-184.52
-104.96
129.82
117.93
-33.984
-134.93
-111.81
139.89
234.55
68.737
-100.93
-210.3
-86.229
115.72
88.534
-18.645
-93.704
-92.255
83.307
202.66
122.47
-51.399
-189.65
-124.15
11.54
74.241
38.403
-125.71
-97.426
74.18
129.39
138.61
72.809
-20.587
45.368
54.693
44.859
112.75
49.705
4.0713
41.522
-73.68
-285.96
-282
-138.68
20.807
28.475
-84.673
-71.483
15.548
108.7
125.89
31.574
-66.386
-3.4855
184.33
272.49
247.77
92.793
-132.82
-82.389
59.027
41.769
-53.772
-278.19
-452.7
-256.91
-6.6824
64.288
-0.65613
-99.288
9.7354
194.49
178.5
91.225
-13.607
-114.96
-3.3543
96.304
65.408
32.29
-6.3229
78.454
144.92
73.354
-6.6056
-153.33
-119.47
34.922
10.114
-41.538
-63.696
-122.98
-35.626
90.223
99.997
78.054
-61.095
-54.383
102.73
58.551
-3.9803
-7.1919
-16.467
94.214
144.22
133.26
82.424
-64.903
-159.26
-166.15
-173.94
-275.35
-218.12
-26.491
146.82
154.4
54.686
-5.7549
43.683
159.47
175.67
62.329
-133.35
-287.4
-142.34
73.16
110.11
52.086
-66.416
-73.693
142.89
163.01
31.92
-95.301
-205.03
-56.69
149.95
129.28
24.838
-103
-114.79
89.988
129.56
9.8256
-66.404
-179.82
-86.439
119.57
104.28
11.395
-113.64
-116.67
103.59
207.32
141.82
24.482
-148.33
-81.256
126.18
121.08
18.342
-97.41
-153.62
16.115
136.46
101.73
-45.234
-209.64
-115.26
25.905
24.873
27.174
-2.1423
-10.112
52.738
61.282
-8.7754
-15.774
-17.494
-11.452
14.085
-34.93
-72.954
-42.071
28.791
68.286
29.333
-31.888
-74.312
-25.246
96.793
117.37
59.109
-20.158
-68.771
43.372
94.918
-9.0725
-111.66
-177.29
-66.461
122.68
66.327
-19.147
-73.689
-89.167
108.03
231.09
118.3
-34.026
-162.35
-137.8
72.975
95.828
32.049
-93.65
-164.64
26.069
132.46
76.491
-21.193
-194.78
-172.75
76.886
163.77
130.71
26.067
-93.944
-18.792
77.183
47.908
-28.561
-118.82
-105.08
69.139
159.16
70.002
-87.21
-95.702
57.411
88.01
43.758
30.84
-21.111
-6.5048
86.305
106.79
148.62
129.93
-31.886
-132.59
-205.79
-356.08
-330.88
-226.47
-47.404
119.96
107.59
100.79
134.53
52.502
59.87
46.569
-91.717
-188.82
-113.56
77.035
160.52
115.16
18.544
21.42
140
152.86
53.168
-83.031
-214.79
-181.25
62.517
134.34
24.681
-84.577
-150.18
-62.058
98.019
82.331
-1.2212
-107.87
-94.408
69.906
127.59
81.803
-17.782
-92.364
46.154
172.09
107.45
13.408
-79.539
-137.07
-27.348
46.115
31.754
-28.738
-156.8
-142.58
24.419
113.58
99.587
-49.824
-76.494
86.699
125.9
84.16
35.937
-36.801
-19.286
-11.554
-54.491
-27.887
-92.609
-51.341
76.047
36.569
10.979
10.156
-30.464
32.871
75.762
31.683
51.605
48.288
31.183
36.221
-19.248
-158.75
-250.41
-70.751
130.03
94.494
-28.494
-102.33
-50.6
132.43
115.92
-53.621
-183.77
-247.53
-82.238
139.39
218.23
187.31
91.293
99.825
200.84
177.79
-47.679
-283.51
-408.77
-292.07
7.0685
130.6
35.463
-118.46
-140.84
76.544
196.75
119.06
-67.48
-147.11
-0.6767
100.14
83.555
48.786
-49.575
-108.13
91.266
238.47
206.58
23.068
-188.43
-110.97
34.507
62.255
21.791
-92.211
-140.21
-41.707
94.422
204.38
113.15
-151.44
-138.01
25.086
5.7253
-3.2644
-19.76
-11.24
40.844
-7.8448
-10.23
118.77
65.038
-31.262
9.3675
-8.7068
-72.02
-46.027
28.884
65.814
-17.653
-53.78
4.0128
-26.421
-44.251
-10.908
-32.9
-69.948
-45.468
68.921
148.43
26.423
-106.13
-83.545
47.122
126.37
93.262
11.168
-72.629
-115.43
16.671
90.519
-10.936
-187.55
-262.71
-76.266
218.17
255.92
78.362
-75.146
-114.56
77.516
202.81
115.88
-17.047
-157.43
-156.68
54.972
128.26
31.292
-83.691
-213.89
-117.35
78.963
88.745
33.038
-80.006
-95.143
78.05
164.76
78.905
-33.794
-131.37
-59.676
62.881
67.737
24.627
-80.963
-129.68
9.8798
66.505
48.549
-35.182
-131.45
-27.529
67.868
42.61
27.417
-13.085
-49.148
79.586
171.58
166.24
122.99
-14.121
-52.918
-26.675
-83.704
-93.306
-123.12
-147.03
-59.933
-25.294
-26.13
33.974
31.716
53.322
83.129
-31.593
-134.11
-93.254
54.367
137.38
88.601
14.797
-0.91313
24.263
23.617
-8.2483
-80.001
-191.34
-180.86
45.753
184.71
108.72
-17.756
-84.785
32.478
159.29
85.516
2.4532
-84.441
-104.03
49.678
114.79
15.9
-116.23
-197.99
-43.111
150.09
108.46
2.7356
-121.61
-145.27
73.896
189.22
105.25
-11.336
-141.65
-116.08
88.208
107.09
-35.161
-130.83
-144.65
55.764
239.12
153.31
8.8828
-146.93
-86.746
156.46
208.72
81.949
-70.423
-145.44
12.526
173.86
187.57
88.486
-145.92
-257.25
-64.869
77.691
89.885
-130.96
-259.08
-109.88
-95.146
-84.451
-13.629
-70.416
-18.615
106.98
149.13
226.34
113.72
-113.95
-73.737
-48.841
-81.455
-21.015
-57.28
-45.476
34.41
1.0171
36.742
90.326
29.7
64.979
77.185
20.492
15.217
23.377
76.998
118.78
26.76
-56.608
-1.1874
15.012
-51.977
-110.35
-188.52
-252.32
-132.99
89.729
155.27
51.629
-58.634
-4.408
162.28
186.46
77.09
-22.747
-111.13
-81.211
147.69
193.5
-12.118
-189.32
-232.49
-70.594
167.15
98.791
-96.862
-200.97
-183.6
57.033
212.07
125.68
-16.505
-162.49
-129.27
124.37
222.45
85.524
-86.482
-152.72
19.571
191.23
156.99
32.401
-123.88
-133.99
49.144
52.717
-34.814
-123.63
-159.35
6.5166
150.9
159.7
124.36
-0.79206
-19.85
123.34
166.23
147.9
19.664
-225.68
-276.16
-177.17
-110.49
-7.2046
-46.924
-35.642
57.513
103.41
196.5
149.36
-117.18
-117.92
-28.64
-50.011
19.118
-8.1581
-73.571
-55.947
-78.607
-66.19
5.7114
-10.594
2.3241
52.191
-2.3036
-48.766
14.254
116.8
132.11
-11.249
-128.13
-75.07
30.775
108.05
91.735
-0.52328
-110.29
-116.78
45.717
160.55
87.066
-71.234
-150.04
-20.304
224.31
222.95
115.62
26.678
-167.88
-134
84.932
72.148
-64.426
-123.55
-77.452
133.85
214.24
4.0318
-246.65
-426.15
-355.68
-74.582
136.87
121.43
2.0968
-76.34
116.91
283.6
188.16
12.816
-172.88
-138.01
69.548
96.537
15.649
-79.602
-175.54
-37.726
167.34
180.29
24.82
-146.96
-58.741
130.89
143.28
43.795
-62.042
-143.66
-7.3745
116.72
82.484
-10.375
-117.66
-93.576
61.35
130.07
69.498
-70.746
-170.07
-61.102
64.911
89.631
47.426
-70.869
-14.699
122.67
99.082
42.759
-28.731
-139.61
-97.877
-41.23
1.7484
98.048
-35.237
-78.934
78.943
83.113
55.584
-4.4151
-52.151
32.28
45.196
-10.898
5.7424
-31.805
-76.465
8.8013
8.7231
-41.81
-47.409
-27.347
28.977
54.548
10.841
11.432
22.311
-0.90473
53.064
50.618
-55.623
-112.7
-46.626
55.118
23.013
-57.154
-53.031
48.004
173.29
134.7
0.56198
-89.346
-153.99
-42.411
150.11
138.78
-11.723
-125.66
-121.26
91.897
177.85
10.511
-105.75
-198.1
-183.92
48.007
148.68
52.907
-79.151
-170.32
-13.359
184.81
68.677
-122.6
-249.79
-178
58.744
152.13
126.06
41.797
-93.92
28.542
243.04
183.59
14.583
-142.02
-156.28
20.707
99.694
32.424
-88.006
-189.14
-34.08
176.83
162.24
31.633
-122.1
-146.27
-6.1899
93.908
99.275
41.677
-96.877
-71.432
101.81
163
73.313
-137.12
-188.91
-2.0629
106.61
101.52
43.919
-94.605
-118.83
-14.65
58.883
128.66
-22.143
-160.96
-13.595
48.861
51.886
52.382
-29.71
-5.2294
41.55
9.0417
38.983
-8.7651
-127.35
-66.501
-32.22
-44.333
-6.3912
11.387
73.246
82.469
-12.454
-13.555
11.507
-37.699
33.837
62.557
-52.794
-116.17
-51.258
71.958
97.866
-13.126
-78.663
-12.066
58.193
42.927
-12.784
-91.29
-146.73
-53.293
109.94
120.43
12.852
-85.017
-65.248
120.12
212.01
110.44
-22.98
-161.5
-168.86
-8.2867
44.081
-16.082
-122.51
-151.31
43.488
222.82
144.47
-12.53
-174.68
-114.15
124.5
153.02
15.358
-120.45
-208.28
-65.352
146.24
125.37
18.779
-101.79
-80.969
123.76
162.7
75.049
-63.618
-180.49
-33.691
162.68
115.26
-39.226
-168.08
-177.84
-6.3336
97.417
64.25
-36.769
-125.97
-42.011
116.7
166.29
59.323
-130.08
-110.67
71.149
144.98
107.81
9.2581
-119.65
-81.564
26.397
74.702
86.252
-62.183
-133.29
-41.963
2.2642
32.484
14.978
-18.244
59.85
34.772
-44.698
12.027
-8.4382
-24.012
44.126
23.226
-55.661
-75.866
147.31
295.73
112.62
-82.29
-103.96
-37.333
18.574
-27.544
-135.89
-222.55
-246.83
-44.635
156.32
152.16
5.48
-95.949
-22.18
137.1
123.01
19.329
-90.163
-159.51
-18.678
176.86
150.98
-4.6436
-131.65
-82.973
152.74
192.57
20.699
-110.55
-218.56
-135.96
109.3
149.45
9.2636
-149.14
-211.78
-18.929
196.7
131.21
-35.108
-152.66
-53.887
154.45
196.16
81.233
-85.005
-208.78
-86.941
117.64
142.9
28.261
-133.64
-158.67
-22.904
62.288
87.321
-3.1293
-122.29
-65.997
70.809
186.99
153.05
-21.26
-57.654
30.835
4.7087
-28.109
-41.304
-76.327
-44.195
-15.96
11.687
79.86
48.022
9.051
62.745
24.261
-25.337
21.512
28.205
17.456
-35.293
-109.05
-81.777
2.8793
78.28
90.833
4.0941
-103.26
-137
-7.1075
118.15
81.726
-33.914
-124.42
-85.834
77.047
107.89
22.272
-91.103
-180.82
-58.399
130.42
111.15
9.2513
-109.88
-121.66
92.293
240.1
118.51
-21.27
-160.53
-171.03
63.982
159.2
43.59
-91.308
-191.17
-71.834
166.29
175.72
40.048
-101.25
-87.674
66.549
135.66
86.332
-37.356
-185.15
-140.57
51.634
88.867
58.283
-73.143
-181.49
-55.583
27.625
31.497
47.178
-22.814
20.549
172.73
198.18
126.92
-36.511
-205.66
-125.66
-13.587
-38.206
-17.31
-70.404
-67.094
16.708
64.34
171.07
184.96
-25.717
-103.33
-10.326
-37.279
-36.138
15.589
41.28
92.88
51.46
-61.963
-53.943
25.022
29.17
3.977
-43.755
-128.7
-144.62
19.69
165.84
111.75
-30.022
-132.35
-133.49
69.363
135.17
16.149
-58.292
-166.79
-118.29
115.91
170.21
71.157
-49.445
-140.25
-17.425
169.8
111.57
-31.011
-150.93
-207.56
-9.0473
182.17
100.72
-30.282
-159.73
-126.3
116.5
200.83
53.48
-96.938
-176.37
-39.588
163.79
156.73
36.487
-119.78
-172.9
27.288
163.29
109.72
-34.185
-167.31
-82.23
76.196
87.788
40.569
-22.522
-110.81
-42.527
62.102
97.629
95.788
-43.961
-117.05
-10.347
20.668
1.5948
-32.801
-78.732
10.049
110.23
89.686
98.902
42.486
-73.014
-16.262
29.276
-51.73
-121.23
-135.66
-55.435
34.778
29.991
30.059
69.494
50.783
28.93
32.218
-16.571
-96.852
-88.783
-1.9508
90.484
78.311
33.074
36.05
-14.445
-16.501
1.798
-88.147
-107.93
-73.764
-11.126
85.69
104.52
71.377
69.385
-16.124
-58.115
1.7156
-50.744
-117.35
-153.56
-62.104
146.94
173.58
51.333
35.067
55.115
23.179
60.972
17.096
-87.954
-121.75
-81.834
-13.726
19.012
-45.066
-56.579
2.1045
23.856
72.597
76.077
-19.084
-123.02
-95.915
36.962
134.14
109.38
31.281
23.008
25.363
3.7669
-8.9886
-64.777
-128.74
-116.93
14.668
103.53
59.595
-38.828
-66.734
14.941
130.99
136.16
31.447
-63.725
-142.26
-57.719
91.256
75.246
-7.3312
-91.011
-118.04
54.016
134.97
31.452
-56.041
-174.22
-211.5
5.176
183.48
139.42
-6.6323
-129.62
-47.273
165.34
128.22
-30.856
-164.3
-211.98
0.92534
179.68
107.46
-15.044
-123.92
-128.16
74.044
154.29
37.729
-80.768
-187.48
-80.99
144.45
137.6
24.123
-84.11
-99.999
88.991
256.81
181.51
-23.922
-212.81
-233.52
-26.915
85.755
20.749
-92.758
-182.64
-57.201
137.49
149.94
85.017
-48.545
-93.083
50.14
120.1
62.671
-7.7098
-95.066
-72.354
131.97
234.42
131.8
-63.228
-189.31
-111.3
19.643
16.204
-17.441
-113.72
-160.06
21.423
193.79
217.89
62.134
-170.6
-194.18
-10.339
96.303
60.276
-87.558
-242.09
-119.75
139.04
238.8
135.32
-92.011
-174.62
-0.23874
97.25
93.143
36.065
-78.191
-79.225
62.751
148.04
167.11
55.504
-115.1
-75.047
17.446
43.122
38.765
-40.782
-129.12
-82.047
41.402
100.06
55.874
-108.85
-75.228
45.42
69.377
91.553
26.219
-61.051
5.4142
108.35
149.63
126.88
-60.326
-196.52
-100.1
-84.407
-101.85
-85.796
-103.72
-60.589
36.962
86.716
97.703
6.3136
-101.88
8.7904
39.451
-69.934
-74.455
-58.886
-45.904
49.248
110.96
138
130.9
23.898
-7.8602
52.768
32.401
72.316
107.69
10.748
-69.26
-51.086
-18.022
-30.941
-98.621
-123.62
-22.134
8.944
-23.345
19.416
-4.1297
-40.929
-55.373
-38.664
62.17
26.853
-92.113
10.461
101.26
-11.836
-132.4
-193.14
-69.243
52.52
36.71
40.956
90.094
42.652
23.249
19.251
-101.18
-155.72
-68.385
49.24
138.14
109.95
47.462
80.242
55.319
-3.1002
65.99
51.847
-44.932
-24.017
69.112
117.15
106.87
34.321
32.078
-5.8771
-146.5
-124.24
-71.559
-152.01
-149.95
-48.096
77.087
158.2
95.575
14.52
17.294
-33.202
-47.364
16.205
-32.789
-156.49
-196.13
-49.096
104.73
87.395
35.518
67.636
77.018
80.38
104.13
18.608
-137.99
-170.9
-50.78
74.379
41.073
-81.457
-50.915
63.585
119.09
104.58
33.365
-65.507
-147.26
-60.157
96.593
133.74
72.66
26.966
20.041
28.195
66.782
56.946
-45.999
-164.02
-150.76
34.851
190.73
186.08
107.56
47.681
-1.8245
85.136
173.21
30.09
-158.96
-379.17
-506.37
-294.74
-26.869
-40.234
-89.996
60.551
129.11
145.92
218.88
102.44
-32.161
-43.293
3.2318
68.28
11.922
-97.457
-89.685
-16.625
4.7858
-3.726
-33.036
-130.44
-220.29
-91.817
157.25
186.71
57.379
-41.071
-42.172
116.87
217.18
151.47
36.339
-146.16
-224.32
-36.141
77.374
40.17
-19.722
-70.708
-12.171
134.75
134.76
42.956
-68.4
-184.84
-59.544
167.69
171.42
70.286
7.9567
-8.1901
39.786
19.484
-101.83
-188.07
-204.07
-101.8
145.18
214.61
58.097
-91.792
-135.08
15.821
184.86
120.81
-41.593
-188.73
-269.38
-98.457
142.02
143.36
30.229
-74.907
-43.26
191.24
250.51
62.49
-121.05
-235.32
-100.51
128.65
135.65
42.249
-59.448
-86.094
111.55
242.9
130.1
1.7344
-147.49
-116.57
168.3
215.25
47.051
-97.047
-98.799
143.62
195.19
-51.197
-172.75
-253.54
-340.22
-110.93
170.9
73.416
-126.11
-208.62
-24.348
320.37
303.77
74.974
-117.03
-389.25
-457.63
-282.6
-132.61
39.77
74.589
93.706
324.85
430.63
244.73
55.806
-172.43
-108.46
135.5
156
85.946
-16.304
-60.537
-3.8658
41.651
-130.45
-293
-343.62
-291.72
-58.926
207.68
208.7
110.67
187.03
148.11
-59.729
-148.64
-105.13
-153.52
-99.87
89.154
176.51
138.79
36.227
-36.882
-54.274
-192.97
-168.33
-20.425
-90.326
-176.05
59.424
235.5
214.35
207.18
128.73
110.73
174.07
114.83
-72.398
-306.1
-412.81
-250.01
3.6535
234.24
364.5
232.02
-53.112
10.607
80.466
-31.102
-87.036
-167.79
-79.617
37.276
-10.495
10.103
-5.1614
-58.243
141.39
169.42
-2.2149
-123.52
-224.47
-148.2
130.67
403.62
383.19
239.02
17.158
-45.91
156.76
156.47
26.114
-74.557
-193.18
-356.78
-383.12
-159.58
12.395
21.024
257.74
463.05
358.54
247.22
139.38
-32.109
-190.41
-283.79
-337.49
-199.47
-108.08
-155.01
-226.81
-290.53
-257.55
-268.92
-277.24
-327.39
-440.16
-508
-753.6
-456.67
205.85
314.28
291.44
294.23
275.62
212.76
212.87
147.11
171.26
189.84
257.07
345.58
254.24
95.28
9.9383
-67.146
-158.68
-132.62
50.514
28.91
-36.145
99.447
219.64
378.34
419.57
222.33
145.94
66.303
-30.473
179.18
226.22
67.363
25.646
-76.379
-280.87
-510.87
-543.86
-298.24
-62.783
-150.05
-138.8
93.957
270.92
292.13
117.09
62.451
98.108
-34.157
-93.938
-79.642
-49.926
72.439
177.39
150.4
173.49
125.56
-66.242
-48.784
85.385
146.97
192.65
140.06
-53.003
-188.3
-199.03
-94.346
-5.4688
-134.45
-90.545
-3.9769
-138.89
-188.57
-194.32
-240.77
-89.715
55.007
4.3847
-82.377
-130.89
5.4905
250.51
284.08
156.8
19.801
-98.325
64.729
205.07
110.52
-16.299
-188.7
-270.22
9.9856
371.44
438.82
350.2
256.73
130.61
-27.055
-168.23
-275.38
-294.75
-170.86
-199.57
-214
-186.26
-182.69
-88.03
-62.676
-46.442
-20.479
-51.184
-94.24
-84.108
59.582
78.954
-43.715
-65.287
-54.985
79.263
331.59
332.31
237.24
184.34
8.588
-66.82
-131.31
-267.59
-200.54
-292.73
-353.11
-143.47
93.643
182.98
120.88
52.144
228.41
319.63
111.69
-66.558
-286.08
-359.62
-181.03
62.11
225.8
115.14
-82.65
-37.683
158.23
147.31
23.268
-127.6
-202
-48.543
174.16
236.01
147.12
36.39
141.44
284.72
186.4
18.444
-233.4
-463.74
-351.69
-65.278
103.85
76.644
-64.309
39.206
207.06
143.43
-57.695
-293.2
-352.29
-220.08
-91.717
37.452
233.13
206.63
175.51
357.22
349.42
116.22
-111.9
-275.86
-159.25
115.24
208.12
168.49
77.67
88.696
263.27
263.64
187.67
93.106
-30.659
-105.83
-185.47
-317.55
-454.14
-597.2
-312.9
-41.013
39.216
116.57
41.362
-198.21
-210.25
-1.4596
136.31
295.47
222.89
33.229
97.583
189.41
109.34
-46.803
-192.18
-155.6
62.964
156.57
53.129
-70.142
-249.64
-150.04
167.05
203.26
30.296
-87.753
-207.31
-71.688
169.69
171.36
53.244
-99.363
-59.212
132.75
83.579
-51.732
-171.95
-222.56
-39.75
205.42
210.28
168.14
22.13
-54.291
175.47
250.46
91.481
-23.901
-117.88
-42.601
57.029
-73.35
-99.705
-116.41
-217.01
-68.984
28.521
-66.744
-161.37
-209.33
-121.12
106.85
128.44
54.967
-43.996
-106.26
90.783
90.507
4.2306
-24.569
-165.76
-135.27
93.324
140.02
102.13
38.111
-78.984
33.259
154.38
49.194
-99.172
-219.55
-174.46
63.311
146.91
103.78
19.995
-37.09
127.28
256.32
154.36
13.468
-178.48
-323.28
-118.77
62.907
94.534
91.582
-53.009
-18.03
174.65
135.13
-10.992
-191.68
-269.86
-61.056
110.75
125.75
80.354
-87.843
-99.571
141.32
227.28
182.27
54.11
-171.24
-60.779
217.19
244.86
184.42
84.231
86.482
266.17
340.22
250.57
149.24
-33.871
-208.97
-223.44
-332.63
-496.71
-685.1
-724.56
-541.87
-341.39
-220.87
-47.911
92.86
203.11
393.44
379.2
251.59
135.25
-22.207
12.951
159.83
132.11
103.39
55.761
25.901
90.347
31.88
-63.976
-73.334
-197.05
-263.08
-25.878
15.042
-173.26
-103.44
-160.54
-103.81
98.13
87.61
10.832
-123.05
-122.11
110.13
341.18
388.89
160.7
-193.29
-239.16
-33.8
190.98
181.49
-97.132
-181.85
64.907
254.27
285.15
148.96
-156.58
-204.78
-100.16
65.364
154.11
-19.901
-146.91
-20.987
118.5
212.7
183.32
-135.09
-293.3
-149.11
39.229
190.54
53.101
-157.45
-113.66
143.51
234.72
159.26
-45.639
-227.92
-134.53
5.4343
55.931
-31.448
-151.23
-164.79
98.539
291.89
193.76
24.352
-188.94
-228.45
-97.108
87.603
47.676
-126.55
-104.65
106.02
253.89
185.4
92.862
-40.401
-107.14
-138.67
-130.09
23.94
-0.70759
-83.902
-71.022
51.542
185.86
116.97
30.787
6.7762
-131.07
-253.83
-100.35
35.938
39.614
28.08
44.623
63.4
145.99
160.02
-72.676
-291.52
-290.08
-109.62
119.99
170.85
81.269
-48.204
32.899
137.68
218.44
201.3
-43.102
-216.63
-268.81
-123.66
122.34
120.43
-45.645
-53.278
102.3
226.6
189.05
22.702
-107.08
-321.69
-237.8
58.152
119.74
53.119
-84.697
-90.389
149.05
225.11
115.66
-70.425
-249.69
-351.76
-88.681
162.75
26.208
-177.87
-119.32
142.01
409.55
372.82
98.907
-149.62
-239.7
-6.0004
199.36
33.259
-153.57
-174.53
-25.207
236.34
230.04
-30.488
-266.24
-358.09
-120.31
197.31
198
-45.11
-176.44
3.2189
279.48
258.19
32.551
-225.1
-353.45
-120.91
178.42
138.82
-115.1
-245.02
-65.338
241.96
341.48
152.5
-140.83
-293.77
-54.866
235.92
194.5
1.6921
-200
-151.07
116.9
142.84
27.588
-163.09
-270.38
-9.9925
186.89
81.027
-100.16
-197.2
-31.76
258.16
163.91
7.0704
-106.24
-293
-176.16
37.83
77.366
6.0984
-116.52
-39.072
246.98
279.28
131.67
-95.77
-237.51
-102.79
-28.834
52.804
-5.4233
-116.95
-14.707
220.97
235.14
150.02
0.56198
-149.78
-82.125
-59.274
28.025
20.361
-85.007
0.25884
138.08
173.1
152.72
33.215
3.7173
166.72
163.23
28.837
-92.106
-110.9
-6.9209
69.631
23.362
-14.477
-3.3392
-15.143
-46.964
-127.09
-258.24
-515.1
-556.78
-320.96
-94.525
166.42
247.05
189.75
113.67
-110.81
-231.17
-123.94
19.488
148.32
184.17
86.371
73.807
73.591
119.86
203.99
30.047
-124.19
-115.34
-5.4245
232.06
265.9
11.949
-52.635
-83.787
14.453
203.92
97.557
-84.261
-272.92
-286.87
-48.697
96.895
91.802
5.4212
-13.846
63.64
159.9
108.72
-129.03
-291.15
-221.24
53.271
267.24
153.06
-85.607
-155.75
50.312
264.51
212.25
-40.391
-299.18
-292.57
0.61013
263.62
173.4
-81.997
-224.5
-78.642
218.67
199.17
25.123
-160.25
-282.78
-90.505
155.73
163.33
-74.087
-236.38
-58.304
259.95
296.24
128.62
-95.859
-193.46
-51.57
56.356
83.513
-20.691
-154.81
-78.255
167.27
206.64
57.27
-30.814
-36.282
48.798
36.959
-8.8742
-21.097
-64.959
-104.75
-46.268
26.645
27.942
0.167
-7.7737
-13.01
-68.511
-117.57
-81.266
55.008
62.95
-33.341
2.3779
124.88
118.23
89.17
29.955
-98.031
-169.69
-95.431
97.313
113.41
-36.432
-146.45
-84.81
143.97
231.6
92.22
-144.97
-342.21
-262.35
59.892
274.63
139.97
-67.567
-173.85
-3.7289
272.07
255.48
37.018
-255.58
-418.69
-190.43
168.63
283.47
83.468
-89.846
-45.21
170.23
198.55
93.729
66.959
-164.9
-245.66
-117.53
-3.1635
25.294
-102.78
-85.568
91.421
200.85
171.72
5.0401
-73.098
12.228
47.921
-6.709
-48.188
-56.005
-23.861
-32.505
100.65
187.29
47.188
11.275
-58.358
-168.82
-215.71
-209.34
-3.2374
119.48
-11.003
-17.11
155.96
200.97
212.27
78.428
-170.55
-277.56
-283.09
-9.523
217.99
67.087
-52.052
78.64
255.25
278.47
124.52
-126.6
-324.44
-278.07
6.7479
111.33
-53.229
-176.45
-150.17
56
263.55
198.35
92.097
-167.33
-285.84
-31.173
59.079
41.829
-19.698
-197.76
-97.298
219.63
257.52
132.79
-101.84
-300.61
-175.68
-61.097
111.51
9.6802
-172.01
-49.903
158.09
186.46
79.822
-44.516
-41.778
1.8296
-14.63
56.34
63.782
16.118
11.385
160.81
261.83
167.89
-19.714
-228.96
-303.9
-303.7
-205.3
24.16
212.71
167.24
91.877
196.77
165
96.185
16.568
-157.98
-237.4
-250.41
-49.202
185.13
135.96
-30.189
39.259
171.06
185.22
71.469
-168.04
-373.3
-364.02
-117.99
133.04
111.79
-90.315
-90.385
102.88
251.55
214.11
-16.478
-244.28
-162.57
133.31
236.83
84.249
-65.787
-212.48
-122.69
128.26
196.03
-25.878
-209.66
-131.22
177.72
265.4
112.32
-63.152
-230.36
-59.406
224.55
211.53
30.369
-210.53
-309.58
-18.275
190.17
94.134
-73.433
-201.74
-98.315
181.38
222.31
70.911
-158.87
-240.09
23.193
166.86
93.962
-32.038
-138.19
-48.293
175.79
170.86
14.446
-124.1
-126.74
-59.465
8.2317
45.434
-38.791
-67.979
43.746
180.54
230.27
83.066
-93.698
-97.594
-108.24
-117.53
-83.662
-9.3985
48.884
3.8134
-45.941
131.1
145.73
50.748
61.275
-70.986
-194.53
-167.6
11.304
184.64
113.72
-52.04
-3.7867
69.104
35.882
35.459
-31.973
-213.56
-252.21
-11.005
173.16
95.092
-61.472
-77.682
154.61
297.59
181.03
-5.9625
-246.16
-315.18
-110.7
92.538
109.52
-27.066
-157.18
1.7741
219.18
171.66
67.188
-154.43
-218.82
-70.053
9.5317
-4.4479
-71.756
-184.98
-69.816
174.19
178.26
83.315
-60.953
-131.22
-47.703
9.0082
76.298
38.499
-43.262
56.133
209.45
283.26
211.65
-43.604
-130.65
-161.28
-218.2
-218.55
-115.16
65.497
111.27
37.38
56.303
84.754
122.71
169.01
-14.038
-198.08
-274.31
-147.16
69.062
37.903
-86.294
-113.37
91.519
320.71
237.93
32.426
-161
-235.51
-25.639
152.18
124.84
-22.143
-165.5
-93.337
211.85
214.35
38.451
-208.77
-365.11
-203.89
-55.082
70.927
46.038
-80.107
14.394
188.44
271.44
225.19
-14.995
-137.6
-72.702
7.2066
126.99
92.92
-39.663
-67.996
-17.626
72.95
-17.076
-111.88
1.4613
-3.712
-63.947
-144.35
-188.74
44.787
147.66
35.297
96.935
208.97
174.04
38.046
-110.02
-236.91
-312.63
-163.74
116.87
121.47
-43.534
-143.1
-17.168
226.33
228.58
68.786
-125.71
-217.14
-41.493
106.07
104.41
57.062
-117.79
-151.96
125.36
234.64
66.314
-142.21
-259.22
-122.51
89.088
132.82
50.039
-94.071
-137.14
85.311
237.96
129.38
-56.17
-110.37
-102.37
-39.784
55.571
10.733
-23.345
24.38
91.551
188.91
134.37
-5.1895
-29.625
-77.17
-140.86
-91.694
12.849
75.666
25.689
-77.264
25.938
150.54
70.422
40.508
-108.31
-222.65
-258.5
-70.817
187
151.96
15.766
-64.001
-7.4305
178.74
208.07
7.0522
-281.74
-338.68
-59.322
209.73
153.69
0.21266
-134.4
-78.906
200.94
197.83
19.654
-129.61
-296.64
-129.97
79.621
77.013
-67.097
-172.1
-11.608
281.39
335.17
200.26
-52.506
-128.13
3.2445
-28.357
-67.611
-85.739
-148.39
4.3939
252.28
312
153.38
-141.01
-256.98
-181.7
-110.25
-19.979
-52.287
-70.405
9.074
185.04
240.29
145.71
38.902
-21.741
-77.379
-185.26
-183.85
-17.134
61.218
27.613
107.14
156.29
38.263
29.745
39.027
-109.88
-219.86
-94.604
72.911
70.041
-93.591
-193.29
-107.41
53.111
197.76
104.31
-127.22
-320.08
-319.86
-19.553
221.32
114.35
-53.406
20.027
227.9
309.12
163.12
-89.681
-308.91
-234.08
108.18
250.32
73.65
-69.574
-168.91
57.508
254.21
159.32
-70.914
-258.22
-192.98
4.0889
64.794
5.6129
-81.075
-66.516
194.86
278.8
104.04
-127.41
-216.65
-71.273
-22.803
47.36
42.529
-94.037
-82.892
154.07
243.38
94.632
-43.019
-88.278
-77.945
-47.33
-1.1634
5.7536
28.131
54.001
107.83
244.08
156.18
-18.883
-78.351
-144.58
-215.34
-246.31
-70
88.832
4.6526
-82.283
-10.315
71.073
140.49
131.49
-64.325
-247.86
-280.93
-47.941
185.55
263.59
142.78
-39.205
-9.121
144.47
131.36
-8.8969
-161.47
-281.5
-11.741
182.47
103.3
-69.311
-143.24
80.43
309.74
177.53
-32.87
-276.17
-370.47
-125.66
159.17
160.93
-35.592
-221.65
-34.027
273.13
267.12
53.059
-176.05
-139.27
-33.173
15.945
64.901
-42.005
-160.98
-0.057369
264.8
234.1
29.06
-123.04
-110.19
-65.37
-95.656
-28.349
22.307
1.9348
2.991
37.535
134.08
106.3
86.525
17.048
-131.37
-198.14
-143.85
-16.819
99.942
52.532
-35.475
85.509
74.111
59.577
87.51
-35.683
-183.98
-251.2
-61.457
176.39
124.06
-49.953
-60.117
72.574
111.85
107.7
-14.799
-262.25
-318.82
-71.509
177.58
126.49
-52.348
-152.83
54.594
319.82
262.04
77.548
-173.5
-304.32
-149.81
-15.95
69.181
-23.727
-171.41
-22.96
254.03
270.23
115.92
-139.91
-156.83
-30.386
9.486
98.742
23.412
-69.281
61.085
180.89
102.24
-31.415
-157.03
-157.46
-101
-105.45
-51.445
14.605
19.249
-1.0415
127.26
225.8
120.45
22.254
-43.919
-146.53
-124.15
-50.954
19.55
75.932
14.071
9.4721
162.58
85.33
42.756
37.255
-140.79
-195.77
-142.53
-1.3901
89.744
-12.475
-128.8
-30.465
85.43
152.89
114.54
-109.56
-238.22
-99.431
138.3
202.5
80.856
-108.48
-84.571
112.09
121.5
52.991
-80.008
-289.4
-193.67
117.7
217.1
78.158
-121.72
-200.92
8.8986
149.88
85.9
75.573
-45.288
-142.63
24.281
158.22
110.53
-61.07
-164.75
-8.0089
205.33
156.69
38.326
-103.82
-97.386
-10.643
1.0265
6.6875
-66.593
-108.43
-55.097
79.978
147.34
42.578
-3.6861
28.137
-83.653
-107.71
-19.488
38.73
124.66
0.89644
10.302
130.61
1.7438
-15.459
-22.848
-167.38
-187.9
-100.22
58.336
161.61
27.876
-66.464
-23.818
89.962
203.76
107.5
-59.918
-165.44
-146.8
22.482
78.849
-29.811
-137
-133.96
36.688
148.96
43.88
-137.28
-223.86
-28.211
238.14
257.2
116.75
-82.257
-121.4
101.23
170.18
77.085
-115.29
-317.91
-151.87
80.148
68.345
41.429
-11.876
70.888
282.47
256.39
89.459
-129.44
-333.39
-241.64
-74.683
-0.24258
-14.055
-93.229
-34.361
104
129.59
74.311
-28.647
-47.95
49.446
77.791
23.435
-139.17
-216.47
-144.84
-77.112
135.54
274.7
218.17
167.24
-19.953
-157.94
-194.53
-131.29
106.96
196.91
68.623
38.63
46.896
53.409
110.1
-36.866
-256.24
-370.27
-280.47
-39.401
75.3
-63.172
-185.82
-72.387
164.59
370.76
315.89
4.2389
-288.8
-204.51
112.13
197.78
22.657
-213.93
-167.61
116.69
309.18
319.6
74.808
-226.34
-141.47
35.499
67.976
39.252
-153.85
-193.73
68.334
210.75
206.59
106.16
-79.496
-76.316
-71.181
18.385
117.32
57.42
-32.338
-69.602
55.817
142
19.233
-81.398
-175.1
-242.08
-127.24
-15.747
69.679
122.08
1.1034
11.299
139.23
117.2
94.057
14.775
-129.03
-196.19
-137.55
65.566
127.93
-7.9167
-154.2
-117.71
100.91
252.1
135.64
-140.12
-289.84
-164.35
77.531
160.18
43.315
-105.36
-72.451
178.58
286.65
133.18
-157.22
-356.42
-189.64
103.52
159.35
12.519
-158.77
-170.27
84.731
193.32
91.223
7.6856
-128.09
-98.69
10.952
71.858
65.824
-18.574
-6.215
31.577
194.87
195.97
-16.122
-89.671
-64.185
-127.1
-125.59
-25.186
40.332
39.867
-34.6
-96.556
43.43
174.4
137.08
8.1431
-47.854
-186.55
-173.92
108.86
193.29
23.902
-131.94
-123.67
129.1
216.99
48.646
-92.182
-293.27
-270.71
28.646
191
67.113
-166.61
-220.57
36.422
296.03
285.61
62.753
-210.48
-213.67
-5.697
132.73
136.14
-43.727
-157.51
-41.944
176.93
218.54
91.789
-68.4
-88.156
-35.098
20.958
67.009
3.4221
-46.763
-102.02
-5.9391
172.98
87.385
19.581
-13.306
-125.83
-188.32
-111.76
68.796
163.63
27.134
-96.076
96.739
114.57
17.192
-10.353
-148.08
-262.5
-198.64
61.605
225.04
109.6
-89.98
-129.28
143.81
259.68
84.969
-69.679
-244.88
-247.25
11.76
167.48
103.73
-60.479
-161.39
69.469
326.99
224.61
-40.174
-206.91
-204.92
-109.27
-11.432
4.6349
2.2202
-32.945
71.659
196.71
21.981
-6.6628
-33.78
-115.14
-84.543
-9.6567
15.032
-5.4366
69.067
83.05
114.45
212.56
72.598
-60.32
-143.45
-239.66
-178.15
-99.219
10.691
145.47
91.515
-45.107
76.289
99.694
130.57
73.173
-171.67
-226.93
-198.96
5.8958
160.77
55.635
-104.14
32
286.56
230.52
40.937
-153.14
-334.98
-275.07
40.628
147.86
-1.5988
-93.37
-96.177
167.49
286.14
136.83
-63.276
-295.66
-207.79
-8.8663
81.863
74.542
-37.228
-6.5257
195.92
302.52
184.94
69.616
-148.53
-262.38
-232.19
-163.11
-51.628
6.2446
65.207
159.63
249.02
136.03
76.539
10.212
-100.21
-150.26
-142.09
-90.454
-23.774
36.962
-33.7
-11.809
115.76
120.24
60.602
-70.055
-126.62
-106.53
-65.592
104.07
152.88
22.552
-95.483
-42.209
134.58
163.55
58.947
-146.88
-267.38
-170.8
24.794
144.13
103.6
-56.421
-69.951
187.99
283.2
49.892
-190.5
-287.86
-175.26
7.5037
127.66
37.415
-93.814
-31.191
241.98
321.42
89.885
-76.886
-135.39
-60.023
1.5027
-68.753
-117.58
-83.332
-45.992
61.151
251.21
145.3
-74.544
-160.64
-145.68
-56.618
12.608
21.893
76.386
101.29
5.0349
90.604
202.52
69.407
-7.0402
-68.404
-177.22
-198.66
-56.525
91.333
58.964
-76.036
-117.11
129.73
255.16
115.32
-56.357
-228.92
-252
-72.691
117.94
89.285
-36.645
-138.66
3.7707
281.02
203.73
37.25
-79.912
-158.12
-48.213
14.971
-2.1431
-91.348
-158.41
-78.14
137.63
121.09
19.58
-11.908
-31.855
41.918
22.664
-32.047
-33.815
7.9031
4.6296
85.568
265.45
70.256
-128.27
-138.89
-121.28
-171
-133.47
59.92
192.6
105.18
-53.628
75.108
130.57
93.6
35.811
-84.879
-182.71
-315.7
-121.17
130.59
129.79
-16.599
-57.506
159.46
214.46
95.85
-59.542
-269.22
-238.09
-49.468
77.533
80.827
0.6742
-117.21
46.848
237.16
82.681
-21.836
-96.354
-63.969
23.51
18.57
-16.419
-49.446
-43.879
81.839
258.95
184.75
7.6725
-129.57
-144.26
-92.375
-86.288
-32.772
3.5715
29.463
-9.5939
72.4
136.17
19.913
3.2763
-45.784
-118.46
-122.44
-21.369
107.36
157.5
-5.7844
-57.578
67.275
54.838
73.025
37.017
-119.76
-237.9
-137.98
89.072
117.44
-24.402
-144.48
31.574
197.96
129.7
25.269
-141.73
-211.15
-43.911
135.01
76.707
-42.384
-149.96
-85.475
200.35
209.07
96.296
-33.27
-244.9
-145.73
-44.069
-37.69
-20.613
-26.876
78.474
246.85
179.42
85.271
-55.869
-171.99
-53.881
-14.737
-33.795
-43.058
-26.832
-25.567
73.674
158.44
14.847
-11.223
30.142
-5.4241
-58.736
-89.757
-38.28
84.269
34.156
-27.03
81.372
46.879
45.562
54.351
-74.93
-155.24
-135.35
8.9927
99.497
43.026
-64.035
-35.097
147.16
162.85
83.595
-34.451
-164.74
-75.17
120.48
144.69
88.529
-58.374
-117.4
122.05
189.95
32.167
-156.16
-181.28
31.1
184.23
95.15
-61.651
-49.252
35.66
152.53
145.17
-30.146
-150.41
-241.19
-220.75
-214.13
-235.16
-173.08
-75.893
-42.809
-29.273
157.1
164.97
82.554
53.895
0.96445
-72.39
-115.49
-70.888
139.31
179.59
44.921
75.38
156.58
121.16
57.136
-122.69
-284.2
-330.3
-187.77
87.117
203.99
99.071
-42.777
26.257
224.83
180.67
66.498
-95.29
-240.47
-191.3
-104.46
18.928
47.177
-105.87
-41.482
245.04
331.56
174.16
-130.39
-228.58
-118.39
-149.37
-12.354
94.954
23.711
10.892
191.39
299.61
147.31
-45.857
-140.11
-149.45
-213.01
-121.95
24.058
65.803
-11.214
-64.258
114.33
133.95
65.389
7.2238
-62.401
-105.35
-109.56
2.9472
92.163
44.505
-94.231
9.1579
137.29
107.62
31.227
-139.49
-240.05
-105.08
122.18
158.94
41.602
-87.607
-43.842
178.11
156.08
28.325
-87.52
-264.5
-140.21
47.795
68.604
91.29
-40.716
-150.13
108.69
320.11
210.18
-77.274
-203.78
-19.703
24.025
-13.438
-19.848
-63.816
-13.547
129.49
170.51
12.676
-50.615
-56.207
-75.571
-87.092
-46.084
7.2218
98.615
79.076
-9.6159
84.736
99.385
45.084
34.773
-58.093
-151.43
-206.79
-173.44
48.124
187.48
4.1728
-123.65
109.62
196.23
81.405
-63.997
-259.68
-220.26
26.545
151.04
94.801
-17.993
-160.32
-49.667
175.4
128.21
67.453
-29.632
-83.136
40.971
66.762
31.025
-17.654
-77.38
17.664
157.39
47.823
-30.748
-60.648
-42.117
-29.027
-40.067
19.879
9.1093
21.214
-14.134
-52.097
82.439
62.862
38.775
53.765
-70.886
-182.99
-240.46
-150.62
108.71
141.3
-20.303
-81.84
95.229
118.36
31.968
-28.45
-127.52
-91.725
62.901
98.742
63.324
-62.647
-143.56
59.603
180.79
46.246
-41.935
-103.05
-93.211
-9.421
-18.182
-34.989
-45.016
-33.571
-4.3191
161.14
252.77
100.51
22.483
-22.544
-105.57
-182.13
-193.51
-21.983
104.88
14.304
-103.8
31.057
148.8
127.53
76.413
-71.557
-225.25
-220.25
-30.443
165.71
114.38
-60.967
-64.959
80.324
135.08
77.446
-40.596
-201.64
-152.34
18.518
92.12
50.111
-83.798
-116.48
112.31
267.84
148.54
-4.2395
-146.57
-119.06
-63.557
-67.955
-8.1459
-29.007
-37.736
82.165
230.4
204.46
133.2
67.849
-45.211
-134.27
-201.99
-200.15
-45.965
95.414
21.991
40.746
102.4
76.891
120.02
13.069
-161.84
-277.84
-223.5
43.886
209.58
118.35
-34.721
19.119
197.23
174.54
68.264
-97.17
-333.35
-355.6
-174.15
8.4911
113.67
-12.23
-51.449
168.61
300.06
253.65
117.7
-110.08
-156.51
-152.88
-113.89
48.655
101.11
70.978
23.058
40.018
51.062
-15.231
-11.144
-24.199
-107.34
-181.34
-146.1
80.495
220.13
113.18
1.7954
73.272
111.63
64.545
-17.015
-167.29
-276.21
-160.88
104.43
156.65
-15.127
-124
87.258
242.59
211.35
77.211
-182.29
-320.76
-175.54
1.8605
128.91
110.16
-60.847
-75.207
166.97
163.96
36.497
-97.593
-174.18
-78.344
-36.202
8.9573
58.111
11.24
-11.654
158.24
215.9
77.503
-10.727
-88.266
-135.84
-179.68
-153.63
-11.646
119.37
100.49
-12.687
97.415
100.69
56.082
73.858
-77.899
-159.7
-209.58
-132.09
86.854
171.73
113.7
63.18
20.347
28.758
74.156
-71.549
-196.51
-291.04
-95.837
135.17
118.63
-57.14
-45.392
180.65
250.32
187.18
59.064
-103.3
-62.938
75.028
110.54
81.377
-37.214
-70.184
51.254
77.266
35.488
-11.469
-85.137
-155.96
-133.41
-103.37
-180.74
-187.83
-51.112
63.336
122.21
104.39
13.419
-56.231
-34.32
32.094
46.401
-56.345
-43.397
19.088
-2.7947
-32.606
-102.29
-140.17
-49.331
-5.4179
5.6157
34.955
74.047
175.06
178.79
104.29
107.53
41.178
-1.9048
-22.724
-132.7
-208.98
-237.74
-91.504
113.35
84.793
-7.9852
-61.462
65.011
143.1
23.384
-65.69
-157.53
-167.99
17.616
110.2
85.704
13.439
-50.652
132.84
237.44
131.39
51.592
-28.899
86.159
264.64
241.85
118.62
12.965
-148.19
-218.54
-23.892
149.67
83.872
-37.144
-139.91
-297.84
-493.57
-376.7
-113.1
157.15
427.85
348.81
114.96
-68.914
-307.61
-245.33
-100.51
-216.66
-310.04
-274.74
-65.418
102.81
62.473
13.566
24.832
86.25
109.91
42.9
-56.225
-11.536
174.74
204.54
98.41
-6.7841
-71.326
30.299
101.62
20.797
-60.572
-183.07
-149.92
90.585
142.75
53.318
-73.694
-76.515
144.77
189.24
44.649
-75.103
-133.12
49.202
222.05
109.91
-46.784
-192.27
-187.7
39.494
130.78
17.79
-116.5
-98.454
73.1
96.222
-47.976
-188.06
-188.54
-27.553
74.793
94.695
80.456
73.466
112.49
119.27
40.223
-4.0037
-65.622
-120.5
15.754
38.57
76.799
125.22
140.53
141.99
22.354
-43.232
-50.798
6.7296
130.69
138.95
57.443
55.538
138.25
230.11
221.82
134.98
-15.55
-81.777
53.031
27.717
-117.33
-281.08
-468.93
-519.81
-340.82
-119.09
4.9411
-110.85
-195.82
3.0178
147.49
107.61
24.205
3.5973
198.22
237.19
111
-15.488
-135.47
-9.767
154.11
111.15
51.72
-34.142
-71.211
146.08
275.85
194.26
39.96
-132.62
-56.193
60.13
-24.628
-94.722
-179.22
-30.176
196.58
133.74
-1.501
-116.34
-220.38
-216.47
-263
-285.6
-163.06
-122.42
7.357
138.47
199.79
204.26
53.793
65.184
129.73
33.903
-26.729
-11.063
3.5634
14.76
-43.977
-85.753
-42.368
16.97
-5.6547
-40.645
-58.691
-89.36
16.933
162.58
175.82
122.52
8.4491
32.914
237.12
200.94
-3.4211
-137.8
-236.21
-79.705
179.98
101.64
-84.198
-246.21
-250.26
17.989
162.62
-12.676
-181.51
-208
37.731
240.07
138.84
-49.797
-182.26
-86.941
131.05
116.48
-46.992
-208.73
-125.62
116.84
187.62
134.78
-81.758
-150.1
50.314
84.844
88.161
-14.948
-241.74
-160.2
-66.521
-76.456
-18.276
-22.297
66.992
128.84
99.502
164.01
134.88
80.627
117.55
54.739
-50.147
-145.25
-98.18
20.943
49.867
-10.629
-76.054
-45.712
69.407
25.235
-82.952
-183.45
-154.08
89.745
190.17
71.95
-49.444
-104.68
75.624
175.44
82.04
4.3552
-146.06
-157.04
85.739
103.64
3.523
-100.43
-118.89
125.09
255.82
134.2
-52.642
-171.99
-20.281
122.75
99.43
21.669
-116.63
-142.65
45.17
126.56
36.928
-105.99
-142.95
-50.286
0.55654
1.9238
-41.655
-65.016
25.124
55.277
71.805
63.587
-25.951
27.375
109.47
97.28
88.849
64.296
106.91
95.965
-31.737
-59.821
-58.649
-23.822
17.034
-14.772
-94.965
-156.62
-51.591
98.946
11.193
-177.47
-277
-180.85
47.699
58.725
-47.137
-136.31
-154.21
25.647
189.55
150.71
41.519
-38.419
89.562
250.27
176.9
36.708
-79.606
-62.76
130.94
182.97
84.254
-20.116
-48.239
86.553
137.64
-12.189
-219.01
-397.82
-306.33
-42.385
42.323
-1.9798
-81.154
-24.061
124.65
121.36
80.104
4.484
-85.767
-40.802
11.341
-9.1922
-64.11
-97.091
-8.8686
48.939
6.9661
39.541
82.029
125.24
193.69
184.84
103.26
1.3359
76.386
214.11
176.41
70.157
-82.98
-198.58
-177.88
-263.43
-393.47
-451.19
-368.24
-176.7
24.263
95.512
24.513
21.784
207.38
252.63
113.95
14.779
-150.22
-146.06
59.066
81.126
41.909
-44.461
-7.5906
235.69
225.39
-15.386
-130.72
-139.26
-8.2835
84.068
69.415
-7.5996
-103.92
-45.092
89.267
131.99
101.66
-49.917
-56.583
63.81
96.063
87.124
33.598
62.871
138.64
139.42
94.988
-95.2
-200.86
-101.7
-110.24
-160.5
-108.64
-50.312
32.394
7.2637
-98.066
-49.718
34.129
60.894
111.95
59.598
-63.077
-95.88
76.958
156.29
29.528
-138.19
-206.71
-46.029
144.47
106.52
-4.3853
-113.17
-44.752
189.85
194.61
35.203
-103.56
-214.59
-55.877
116.33
53.581
-13.102
-93.441
-17.538
129.49
96.863
10.207
-99.236
-102.9
24.539
88.544
106.32
39.835
-45.09
27.051
79.8
78.608
52.618
-45.193
-44.152
-52.275
-50.579
30.632
-21.526
-32.028
46.557
20.674
-35.978
-65.165
-15.857
36.879
0.90404
-105.37
-89.174
92.95
177.68
91.514
-24.886
-139.08
-107.52
88.029
151.57
72.212
-76.395
-183.12
10.234
145.34
61.969
-56.009
-154.27
-68.932
22.481
36.937
4.3611
-72.656
-27.013
128.98
172.32
75.963
-61.762
-132.46
-33.18
15.701
-6.0869
-28.616
-74.123
-1.7663
46.493
40.27
35.3
-54.217
-44.929
49.592
32.139
-9.5866
-42.887
-11.236
62.871
45.426
3.6454
5.5405
-18.549
-49.298
-80.896
-123.41
-155.29
-56.522
119.12
106.47
12.281
-100.21
-32.986
157.3
108.38
-1.1354
-62.306
-145.87
-51.553
86.229
50.144
-34.881
-136.54
-65.01
149.38
149.14
27.885
-62.972
-46.175
93.644
130.53
57.995
-72.103
-235.13
-200.78
-32.367
49.472
80.677
63.831
78.913
75.494
29.922
-3.8105
-23.521
56.842
80.805
12.835
-0.66578
-23.001
-4.0509
54.55
4.515
-115.82
-199.89
-72.728
149.81
153.22
20.289
-88.266
-22.282
134.51
114.35
20.596
-96.58
-217.6
-70.052
88.245
17.158
-75.213
-156.18
12.392
156.92
33.765
-48.988
-154.54
-156.54
25.398
86.941
20.564
-54.997
-126.21
-13.939
205.19
204.61
9.1973
-127.04
-22.066
60.685
95.998
81.193
-19.451
-6.7512
37.772
55.234
49.848
-44.191
-80.805
-31.192
-50.577
-72.821
-91.07
-38.304
59.54
56.724
40.757
69.51
159.19
236
183.92
74.714
-113.63
-191.25
-1.5302
63.763
-81.35
-260.85
-294.86
-56.459
100.37
22.303
-83.469
-108.2
91.944
256.72
193.02
77.388
-40.066
21.183
197.95
109.01
-61.822
-212.62
-157.56
18.229
55.627
76.063
40.726
25.321
184.61
157.18
-6.1556
-98.131
-215.86
-166.44
-48.331
-82.666
-95.239
-96.646
-70.138
-33.659
-77.752
-136.34
-77.269
77.124
149.61
76.142
6.9281
-49.962
46.587
203.72
228.36
167.27
54.391
88.232
164.64
-5.3535
-275.16
-451.4
-427.16
-194.46
66.289
62.019
-48.746
-182.52
-128.52
69.668
81.465
1.4065
-48.394
67.267
175.13
143.57
160.8
101.76
127.31
284.57
271.94
225.66
137.21
-5.4812
58.615
-31.341
-172.96
-157.72
-127.33
0.99711
19.488
-132.92
-194.82
-225
-146.23
91.527
148.88
-38.11
-171.1
2.4876
58.929
-121.21
-233.9
-225.18
-125.79
36.565
155.11
138.22
-27.542
28.243
206.36
157.67
118.78
74.838
124.48
151.01
-72.815
-396.75
-488.71
-399.27
-271.35
-81.206
109.77
167.38
86.209
181.98
352.39
368
263.56
85.61
-0.9003
89.979
128.15
65.606
-17.398
-27.72
115.66
160.51
21.901
-58.286
-7.1025
111.86
18.984
-191.63
-426.33
-630.75
-492.81
-241.39
-0.28115
172.48
163.59
200.05
213.6
157.05
88.421
14.003
148.99
292.54
189.81
41.208
-128.43
-109.26
-32.621
-86.973
-255.4
-474.58
-383.83
-42.34
143.1
126.66
107.64
138.92
296.44
278.46
192.91
56.143
-1.0293
207.43
197.87
-6.0173
-156.83
-312.06
-261.93
-74.89
-16.178
-33.231
-61.74
-32.738
74.984
75.818
30.417
58.319
199.99
285.83
231.78
83.929
-78.61
-229.38
-209.02
-143.7
-214.98
-318.03
-158.94
202.4
448.26
370.36
188.63
-44.182
54.681
149.93
-81.977
-321.31
-452.59
-333.45
-6.4
220.81
51.967
-231.05
-267.67
-21.964
179.71
33.801
-290.96
-321.15
-87.756
135.44
226.22
192.92
276.45
477.42
450.21
294.27
85.605
-122.78
-291.63
-488.71
-333.64
-202.02
-339.33
-234.59
-57.583
101.55
224.59
141.62
95.293
214.86
249.98
63.298
-119.11
-80.129
48.332
121.07
172.84
123.73
-15.351
-25.964
-17.196
-1.9024
-88.337
-131.49
20.434
82.505
49.088
-79.545
-172.29
-124.87
-78.737
-107.89
-157.17
-215.56
-57.779
98.096
40.899
37.973
-2.4263
41.542
211.41
232.99
44.843
-126.94
-112.58
18.252
62.28
0.83284
-36.522
25.978
70.123
92.912
87.378
-29.642
-118.39
-68.114
-64.652
-46.977
-67.933
-120.44
-46.075
29.578
151.02
252.09
197.25
131.33
52.959
-106.47
-187.64
-104.38
78.818
112.85
-9.3628
-49.693
80.093
125.53
75.329
-56.552
-224.2
-316.82
-191.45
103.51
186.73
17.624
-84.157
27.048
280.14
313.25
91.503
-164.26
-299.21
-133.64
94.403
123.47
-37.131
-151.2
12.37
250.45
229.91
94.452
-87.226
-150.06
-86.3
-13.134
47.507
-22.056
-74.079
-54.105
86.218
193.84
72.771
-8.288
-77.787
-117.03
-98.909
-102.82
17.47
125.44
31.435
60.314
164.36
136.5
136.3
55.339
-60.484
-122.34
-57.767
60.371
76.537
53.55
-2.6943
11.932
79.9
30.2
-80.636
-142.37
-89.351
58.232
110.17
-22.253
-223.16
-311.68
-221.83
-117.86
-32.619
-11.471
-49.832
-30.831
44.871
23.949
-98.44
-193.61
-156.27
-32.811
150.22
301.84
253.51
73.711
-44.468
-17.442
69.8
8.6225
-42.578
7.3855
-14.376
-92.095
12.734
64.36
94.427
67.656
-81.164
-180.24
-174.59
13.941
154.8
91.847
-54.443
8.7721
159.98
163.64
131.84
20.622
-195.27
-253.25
-146.34
30.598
94.445
-28.544
-24.037
194.49
250.42
131.58
34.05
-54.559
-37.158
21.465
-35.354
-115.79
-111.52
-30.671
60.012
84.108
-5.6407
-68.346
-81.378
-31.89
-54.275
-257.84
-367.48
-235.61
-88.362
72.148
207.86
229.28
104.47
-2.3284
-55.757
-106.61
-105.53
-10.009
93.166
80.196
100.51
168.4
225.78
209.26
91.467
-90.043
-233.14
-189.41
5.1531
80.993
-25.229
-140.56
-74.07
133.17
209.23
134.2
-79.431
-259.34
-171.82
102.61
210.94
86.791
-70.048
-21.679
245.29
349.15
227.16
0.95149
-195.94
-91.745
96.316
110.82
27.443
11.761
141.18
200.9
114.19
-16.031
-150.28
-207.06
-172.44
-295
-489.93
-545.2
-481.29
-269.22
-33.825
181.94
336.31
264.05
60.097
-74.762
-31.499
95.23
108.39
91.844
61.157
33.781
127.53
204.85
176.42
53.836
-143.23
-220.18
-117.97
108.23
174.38
29.488
-102.13
5.104
178.36
246.92
207.41
7.5038
-159.19
-134.42
101.05
163.15
42.36
-18.084
-86.6
-77.541
-43.007
-101.77
-170.17
-148.6
-63.387
-12.612
-32.355
-60.266
-16.378
127.53
198.16
107.77
-17.186
-109.05
-104.47
-4.9218
-78.698
-173.35
-127.36
-15.965
84.375
149.61
227.47
158.16
99.202
114.01
-39.348
-184.8
-253.56
-208.14
30.444
106.48
3.2933
94.688
170.82
160.17
103.67
-109.44
-294.86
-350.81
-143.8
166.57
135.13
-58.418
-117.25
31.332
247.11
220.21
18.109
-177.19
-140.31
141.42
249.12
96.714
-105.33
-157.76
102.56
387.65
287.21
30.188
-202.14
-218.81
-72.255
-23.703
-14.777
-95.981
-104.21
53.908
79.159
96.042
125.37
31.125
23.603
74.895
-69.33
-225.31
-228.08
-157.97
-94.196
-73.181
-74.523
-125.15
-37.703
41.255
69.666
28.553
-141.35
-62.257
42.136
47.337
97.423
118.48
305.53
206.33
-102.91
-216.87
-235.32
-70.414
147.97
123.95
-21.001
-90.481
91.289
194.74
98.265
66.194
-141.92
-296.1
-133.43
88.02
155.63
61.756
-123.59
-62.738
162.59
228.38
153.84
-19.46
-151.9
-171.77
-138.12
22.504
49.471
17.638
57.416
141.76
194.35
98.477
4.7866
-77.083
-186.44
-258.29
-271.78
-88.551
123.56
94.539
15.101
114.27
167.73
156.68
107.79
-41.774
-204.09
-278.01
-65.465
110.45
1.6689
-133.9
-50.103
184.3
191.89
97.98
-24.187
-230.84
-233.66
-1.1694
178.49
127.17
-50.979
-147.45
70.981
232.9
124.97
-26.799
-156.33
-172.31
-69.439
100.24
105.2
-8.6564
-29.37
182.83
300.14
116.11
-37.493
-141.41
-149.58
-178.39
-168.42
32.947
58.544
34.244
-10.884
59.183
171.32
49.829
5.1907
-46.775
-154.69
-264.62
-217.64
60.624
217.16
49.655
-86.489
45.373
221.44
208.71
53.533
-143.69
-280.76
-218.84
28.049
150.06
83.135
-57.671
-4.9138
264.06
224.48
25.363
-126.43
-249.61
-151.26
-74.975
-24.794
29.057
-17.772
-35.413
124.06
217.33
86.969
-11.801
-38.464
-37.399
-71.397
-68.486
-18.607
30.271
68.005
59.351
104.36
39.141
-43.417
33.581
-35.158
-144.2
-153.7
-126.77
52.433
122.22
-26.786
25.302
165.98
130.26
89.652
-5.5887
-182.38
-217.15
-66.987
64.114
48.233
-48.378
-138.28
10.471
213.2
146.64
-8.2199
-176.18
-151.27
30.247
107.11
77.372
-34.422
-117.82
82.852
231.36
71.844
-23.429
-116.87
-146.95
-33.726
-5.8177
-15.636
-25.036
15.968
171
196.37
-12.475
-92.565
-46.392
-15.945
-67.494
-98.684
-41.019
-35.542
-18.858
16.619
119.38
76.775
-66.45
-22.205
37.791
2.4234
-54.225
-66.772
51.47
83.8
-9.0419
27.354
153.82
123.95
62.015
6.5351
-96.287
-184.85
-158.68
-13.669
50.375
-24.523
-144.33
6.4075
172.84
72.187
-10.488
-122.82
-174.15
-26.814
76.526
52.222
-46.75
-131.72
21.423
268.04
223.36
58.622
-103.74
-134.19
-47.367
-66.277
-41.845
-40.609
-85.606
-65.393
113.54
183.57
31.513
-70.416
-34.63
12.141
-6.136
-36.74
16.475
102.84
33.955
-5.442
57.176
10.531
-25.541
20.473
-9.5847
-81.749
-52.984
32.803
61.012
-28.706
-122.97
-6.3384
159.14
122.91
72.225
-16.313
-210.66
-190.11
-12.653
61.282
34.219
-90.395
-129.8
104.96
204.51
70.396
-26.214
-88.545
-7.5489
26.137
-17.862
44.218
29.255
-50.528
39.524
101.74
-4.8791
-83.014
-21.586
4.3106
-34.95
-35.776
-21.844
56.949
91.344
28.324
32.223
-36.927
-100.78
35.081
70.491
-42.174
-73.824
-28.914
59.866
67.178
-44.821
-92.274
85.694
130.23
42.65
30.718
-114.1
-291.9
-145.72
93.986
128.52
-4.7569
-154.27
-54.394
126.55
77.038
58.759
-27.133
-111.43
44.432
214.51
185.73
-42.481
-209.79
-16.999
244.69
116.49
-65.594
-89.692
-43.586
-47.367
-110.29
-98.803
-3.8529
68.285
119.58
181.03
71.72
-59.31
-46.203
-68.454
-115.55
-147.66
-78.539
107.98
180.55
210.67
143.77
-41.78
-104.57
2.5059
6.2648
-78.142
-100.78
-175.13
-144.14
-68.337
-94.441
-110.36
47.291
301.55
313
124.49
-135.87
-320.12
-171.66
-44.31
-2.7087
116.29
19.82
9.7644
205.08
142.76
11.581
-167.38
-260.47
-141.76
-61.07
91.753
81.705
10.363
78.345
254.59
313
175.35
1.8306
-148.56
-214.31
-218.52
-181.92
-105.59
90.116
137.24
115.78
108.89
2.4956
17.74
61.456
-98.651
-218.81
-274.51
-99.087
205.59
220.91
77.182
72.319
95.956
88.296
91.558
-74.805
-294.03
-331.97
-136.78
126.54
140.78
-34.518
-87.896
140.54
258.24
149.2
-83.298
-284.18
-156.04
-23.231
33.308
76.062
-10.282
-70.561
172.91
296.67
147.67
-32.49
-162.96
-95.654
-35.474
-21.485
-22.138
-37.092
67.195
150.46
165.44
60.142
-11.404
68.025
80.3
60.492
67.662
-35.642
-33.499
15.457
-16.793
-86.719
-212.45
-216.93
-95.443
-41.345
-61.747
-97.21
27.812
150.9
141.76
75.879
-16.084
-7.4235
115.73
87.666
-22.28
-55.488
-77.981
-43.283
-130.93
-264.9
-249.95
-206.72
-38.978
177.87
165.99
88.333
-129.37
-187.08
13.321
111.57
96.383
4.9143
-34.624
114.28
306.33
239.52
49.359
-123.91
-130.37
-86.457
-42.494
17.394
14.709
12.738
-4.2008
153.82
212.78
45.974
-76.734
-165.24
-207.95
-135.13
-0.98925
134.89
131.46
-13.457
18.279
133.23
123.66
94.95
-8.6051
-157.07
-217.76
-91.008
111.41
92.575
-48.094
-161.85
-49.675
183.35
155.89
19.691
-133.08
-245.08
-37.612
126.25
54.24
-46.523
-94.211
59.375
255.37
132.93
4.964
-87.982
-179.57
-64.342
29.267
52.719
-26.384
-46.141
-12.37
57.751
134.31
59.026
31.193
15.993
-70.858
-101.05
-123.42
-63.763
102.88
128.47
15.33
47.203
74.383
21.474
25.014
-66.388
-186.8
-155.26
33.887
124.45
56.011
-66.103
-75.222
153.46
226.37
114.24
-33.205
-235.82
-210.74
-12.141
85.382
32.383
-102.1
-173.48
71.613
214.41
119.44
-2.7766
-141.89
-62.226
32.101
44.241
32.316
-51.369
-97.561
54.025
163.16
67.029
27.464
-1.2325
-44.079
-107.37
-138.92
-37.791
42.307
64.352
33.512
82.848
19.601
-73.22
19.419
30.284
-64.414
-90.661
-42.179
51.247
46.737
-43.207
9.1432
50.806
41.459
119.63
30.528
-135.58
-182.05
-61.084
123.16
95.91
-49.61
-138.29
25.705
146.02
66.059
-10.362
-129.34
-86.719
12.857
-51.944
-50.5
-80.353
-137.74
60.016
187.99
72.007
4.2787
-20.028
-17.426
15.05
0.082402
0.092121
-59.192
-52.867
56.942
160.98
61.606
-46.399
-10.764
29.613
5.4886
-51.097
-72.767
-14.335
33.648
-37.938
27.514
71.974
-29.867
14.068
21.057
-71.929
-158.39
-134.37
48.2
126.67
32.672
-50.742
52.674
196.07
150.36
36.06
-43.014
-211.82
-214.3
-19.664
69.208
33.195
-113.51
-47.556
184.35
160.47
89.992
-86.961
-184.49
-13.421
74.721
96.321
4.4733
-161.45
-80.032
137.98
100.94
8.0665
-26.694
-21.438
-33.697
-18.001
55.618
17.323
3.7152
42.153
112.63
105.88
-30.331
-25.807
-3.3387
-65.255
-87.437
-79.546
17.245
99.175
11.591
-68.928
-13.722
-33.836
46.828
59.851
-96.708
-199.47
-125.1
113.54
177.99
74.452
-67.932
-24.126
161.44
185.7
106.08
-80.396
-268.2
-199.85
6.1955
93.024
55.786
-98.38
-38.715
145.03
70.72
1.5152
-108.02
-115.54
19.432
33.099
35.89
33.435
15.696
49.32
167.58
177.44
-0.67322
-85.035
-72.413
-122.67
-173.31
-146.11
-39.197
110.72
84.131
30.188
74.316
15.934
65.103
110.14
-27.973
-171.81
-203.14
7.453
148.66
87.544
-38.442
-65.205
38.089
88.538
56.461
-40.475
-193.57
-150.63
26.445
83.356
37.041
-83.082
-66.955
195.32
203.22
63.275
-38.354
-144.9
-61.895
-7.1266
-18.542
-41.949
-161.63
-124.56
142.53
261.24
186.26
62.518
-11.316
-36.394
-110.93
-170.38
-57.162
68.98
65.698
41.412
144.61
132.02
5.4102
-102.41
-192.49
-278.43
-203.65
69.074
162.02
45.778
-31.403
48.46
203.6
263.53
120.83
-130.58
-340.35
-239.62
85.704
178.7
15.934
-191.47
-174.16
130.31
253.5
151.65
-66.309
-239.33
-139.67
-15.546
97.127
86.558
-56.262
-60.864
210.42
193.5
25.5
-65.486
-170.15
-134.47
-96.685
-1.9542
73.31
71.892
13.299
122.05
247.46
36.689
-100.6
-137.44
-173
-195.94
-127.07
38.477
139.41
44.63
-37.585
131.31
133.84
25.491
7.5067
-54.019
-159.86
-151.08
55.299
173.58
80.889
-113.01
-107.72
126.14
133
30.737
-61.537
-193
-89.876
66.199
137.77
76.889
-91.473
-38.245
180.99
198.95
26.934
-104.32
-148.73
-158.46
-122.9
-53.746
-34.563
-22.269
79.153
131.64
144.54
118.82
88.493
55.863
-42.61
-143.75
-116.86
-41.802
47.841
39.044
12.4
152.88
123.5
32.149
-14.072
-148.33
-240.57
-231.57
23.664
217.3
129.18
-61.176
-82.169
67.842
87.981
23.921
-61.117
-213.07
-140.42
81.117
121.73
74.802
-48.162
-33.785
227.95
201.56
13.558
-73.208
-211.09
-138.04
-54.302
-51.929
25.117
9.7827
-29.219
76.982
232.23
142.65
-46.709
-80.67
-84.36
-133.35
-125.41
14.876
143.95
132.87
-19.594
45.44
169.47
71.305
9.1955
-67.723
-189.38
-295.74
-137.56
130.61
108.35
-58.834
-140.11
38.594
209.46
186.33
73.087
-175.11
-248.56
-67.817
108.69
140.92
5.8232
-184.84
-55.904
195.37
129.76
29.046
-83.248
-127.02
-38.814
26.767
71.025
21.265
-43.349
23.932
221.99
243.71
42.928
-51.06
-81.887
-178.5
-205.6
-152
-2.2431
100.69
29.833
-65.43
43.646
166.34
195.78
126.44
-71.557
-240.19
-236.43
-17.514
158.24
59.014
-135.05
-167.8
98.25
317.44
198.51
-124.27
-358.3
-243.51
-90.933
55.064
179.7
23.218
-74.612
187.55
358.48
174.2
-94.922
-250.32
-205.25
-151.42
-14.096
93.611
58.605
29.23
105.17
283.42
240.04
4.6577
-113.05
-176.29
-224.33
-284.58
-171.47
139.11
195.37
-4.9939
-123.17
95.649
290.48
215.59
3.1032
-251.99
-363.72
-185.85
94.156
201.26
100.21
-79.766
-50.498
199.63
144.38
-9.3684
-112.57
-156.94
-61.453
-30.372
49.897
92.441
0.041169
-42.08
70.518
157.79
55.217
-36.125
-63.792
-120.35
-128.37
-61.052
37.715
137
78.244
-23.025
106.92
149.69
59.139
-0.53748
-93.993
-193.3
-194.05
-9.4181
122.57
45.946
-103.53
-144.67
115.47
291.9
137.53
-41.014
-247.17
-220.85
-25.933
59.143
95.463
11.717
-124.59
-27.097
221.29
208.4
16.778
-94.413
-96.453
-96.842
-71.854
-1.0236
80.651
124.25
29.938
-12.98
125.42
97.988
5.8234
-8.108
-95.534
-221.52
-239.56
-2.1303
181.59
77.321
-114.24
-125.66
122.69
195.61
40.764
-56.524
-164.05
-165.68
50.847
153.54
94.782
-48.335
-148.6
-36.431
221.16
180.02
-50.071
-85.153
-44.534
-55.221
-52.184
-79.084
0.10665
117.61
54.956
-18.367
69.108
95.567
10.134
-62.108
-121.63
-170.29
-105.52
82.041
162.13
57.096
-83.583
-161.46
52.553
231.89
80.099
-70.414
-196.47
-137.33
42.138
90.673
89.134
-6.2427
-115.02
-60.011
145.32
200.98
-7.3748
-105.86
-37.955
-49.924
-30.698
-5.3128
70.664
150.33
49.189
-95.545
-44.626
70.968
56.765
-41.392
-104.56
-151.22
-106.42
109.85
206.78
111.28
-53.616
-174.25
-9.2925
235.34
119.43
-85.592
-165.88
-111.67
24.403
34.437
-37.174
-38.008
-3.8153
33.271
-13.783
19.984
72.898
38.454
77.069
-2.2992
-173.05
-213.76
-60.965
172.98
176.2
30.677
-124.96
-105.59
101.55
154.08
69.741
-161.95
-308.44
-85.695
137.26
169.12
66.383
-47.469
62.719
207.11
139.88
0.39684
-150.27
-166.15
-91.934
-61.139
-35.831
-70.864
7.4671
130.1
140.52
170.15
105.87
43.838
-9.8956
-116.58
-137.6
-149.13
-68.631
45.716
30.235
-27.033
13.209
118.84
167.46
63.622
-88.17
-264.63
-278.85
-28.859
196.26
120.03
-13.009
-107.09
30.616
248.56
162.01
-33.756
-263.82
-280.73
2.9525
164.62
93.467
-77.564
-118.98
106.88
313.88
177.46
-58.787
-149.01
-90.371
-45.041
-34.118
1.2597
-29.105
-20.2
18.27
125.56
151.68
6.8695
-15.991
-29.322
-141.37
-233.46
-114.84
110.39
156.27
52.671
47.898
79.941
32.076
68.762
4.8205
-151.11
-194.98
-62.369
122.98
79.557
-43.567
-140.08
-65.395
168.39
150.01
-0.60977
-137.66
-253.28
-55.575
156.18
118.01
-15.313
-131.76
-23.599
230.8
176.52
25.234
-90.717
-141.45
5.0431
78.373
85
14.704
-44.257
67.281
139.38
61.885
-3.7451
-27.839
7.2369
38.522
4.4935
-72.469
-56.947
80.897
164.22
115.11
-32.336
-242.04
-297.84
-196.88
-122.63
-157.22
-232.05
-90.916
141.49
162.95
52.904
85.348
218.32
177.59
71.763
-118.85
-333.9
-245.34
67.787
190.37
81.852
-67.184
-47.049
185.34
297.51
160.48
-106.77
-321.72
-218
0.54514
137.53
70.577
-72.733
-85.752
147.02
261.33
76.476
-102.49
-137.87
-74.005
-32.194
-12.809
-7.6723
21.268
54.07
116.73
178.42
49.183
-44.649
-30.917
-93.952
-126.35
-84.316
-12.738
81.756
27.853
-11.163
97.815
68.017
62.576
69.674
-77.025
-207.61
-175.65
50.916
178.09
55.958
-88.388
-38.267
113.75
104.97
7.6969
-69.79
-227.66
-141.03
54.006
95.357
80.227
-54.459
-54.41
193.09
173.21
-14.632
-114.92
-233.35
-103
59.868
91.834
13.507
-128.61
-86.375
157.01
226.73
56.071
-80.02
-73.231
-26.892
-14.543
-38.786
-42.767
5.863
82.324
170.41
177.28
49.125
-28.638
-40.11
-93.356
-79.645
-169.22
-177.83
52.441
105.88
2.543
20.05
85.328
108.87
70.261
-101.09
-234.44
-159.56
77.624
163.89
48.274
-96.791
-34.181
188.77
174.66
47.48
-110.49
-341.09
-232.79
55.396
131.2
37.867
-97.994
-70.26
194.5
255.88
66.21
-93.306
-187
-72.347
20.751
45.092
-11.992
-129.22
-92.547
122.91
236.53
92.697
-67.452
-55.971
-53.452
-41.666
0.29848
0.68446
50.053
62.001
60.185
128.11
0.059502
-102.27
-34.463
-58.721
-97.698
-60.786
27.585
98.214
17.894
-43.924
93.584
191.93
136.92
48.784
-102.28
-257.36
-241.3
9.7932
136.66
25.564
-128.88
-140.94
110.67
207.78
75.886
-69.362
-220.97
-119.33
80.673
147.95
41.627
-103.51
-36.461
233.95
253.92
-23.32
-140.37
-167.24
-183.73
-90.45
71.669
19.032
-89.244
-5.5246
187.44
287.59
118.53
-63.244
-60.404
-44.024
-92.874
-86.309
-41.901
31.709
6.2386
-13.568
123.37
136.07
21.326
-43.881
-97.391
-191.34
-169.22
18.072
153.95
79.743
-74.587
-20.236
180.19
201.37
71.05
-71.858
-236.92
-218.65
20.807
120.86
39.576
-81.232
-113.03
121.84
163.48
-10.976
-115.3
-169.56
-33.816
91.514
95.841
70.278
-34.558
-53.905
149.58
194.18
5.9698
-108.82
-61.394
-14.14
-29.406
-58.259
-117.22
-3.5859
120.81
114.94
100.32
8.8786
-107.96
-55.299
-19.288
-86.113
-101.84
-7.8733
102.63
72.742
-38.124
-62.748
32.891
91.692
129.74
19.107
-214.46
-245.31
-54.26
147.01
164.61
8.9706
-151.63
-19.369
161.1
61.804
-38.951
-175.69
-177.89
56.541
153.9
66.71
-115.24
-149.62
87.232
274.25
185.79
-14.356
-195.63
-171.26
1.894
97.914
72.253
-20.412
-11.449
48.634
193.7
186.24
17.232
-29.256
-49.688
-137.61
-170.57
-124.39
-0.66386
79.406
-16.994
-56.403
82.825
118.01
86.545
14.135
-138.06
-253.98
-162.99
97.843
183.15
35.688
-99.79
-53.062
200.31
224.64
-2.3934
-146.6
-259.67
-159.91
100.19
162.25
30.272
-121.27
-127.74
100.69
234.61
65.013
-131.91
-170.81
-14.838
86.37
69.235
27.863
-9.7108
31.229
129.75
216.18
119.98
-68.737
-140.86
-160.29
-159.83
-122.4
-66.548
71.266
91.972
7.0769
123.06
131.11
10.963
-2.3153
-91.067
-221.08
-237.58
-27.131
223.47
174.19
-1.7531
-111.28
-1.8493
125.83
35.514
-54.443
-85.062
-102.95
36.939
161.04
69.021
-94.468
-179.19
14.62
235.12
137.36
-23.356
-159.2
-155.35
2.3244
47.46
34.524
-9.902
-81.688
6.2102
175.65
118.85
-84.264
-125.34
-40.668
-15.834
19.317
-9.2407
24.87
111.17
95.089
99.693
119.74
45.748
-19.07
-36.605
-100.35
-178.45
-215.24
-162.82
21.171
68.829
-28.401
-10.697
192.86
235.81
117.3
-47.088
-308.82
-232.76
46.326
90.138
28.526
-56.746
-82.427
132.71
183.23
11.962
-76.08
-130.13
-39.789
53.647
79.724
51.135
-26.649
22.02
177.03
186.32
30.003
-85.806
-123.03
-108.91
-29.826
6.9802
0.26061
44.413
78.507
65.229
59.497
32.396
57.488
79.224
-10.945
-124.3
-142.78
-37.589
88.609
36.332
-109.1
-82.506
-18.747
-2.5069
-36.976
-84.49
-144.48
-83.417
189.41
267.14
73.468
-62.725
-89.371
48.252
255.37
152.59
-25.336
-185.86
-387.01
-303.47
-144.57
-50.554
-23.748
5.6605
208.42
240.42
67.022
-29.25
-124.45
-71.144
51.784
55.387
36.093
66.897
137.34
242.67
346.63
260.78
64.368
-89.443
-185
-240.38
-302.51
-366.21
-279.11
-12.628
171.05
217.66
188.82
-32.347
-79.355
-72.477
-196.75
-290.69
-220.56
-14.316
185.41
154.59
-27.156
-99.682
37.296
137.82
111.94
51.969
-102.55
-133.09
65.236
144.46
100.69
2.8295
-44.919
145.26
165.17
0.25702
-84.299
-154.36
-39.127
117.87
50.586
-1.0785
2.6678
33.244
131.83
152.21
21.521
-62.878
-103.86
-82.085
-30.997
-30.6
-60.095
63.073
178.04
135.92
129.78
24.431
-149.46
-130.16
-107.68
-126.63
-161.36
-95.15
89.051
190.04
168.57
12.134
-43.708
88.881
90.915
-18.959
-153.06
-315.44
-222.46
34.012
64.271
37.8
-40.898
-43.862
110.58
92.696
25.499
-80.941
-157.17
-25.835
109.89
88.397
40.605
22.376
131.19
237.11
105.58
-2.0206
-71.699
-171.65
-142.72
-81.784
-74.818
-74.012
27.435
153.38
184.46
132.54
-24.896
-55.029
-12.007
-28.853
-47.226
-119.45
-121.8
71.466
111.91
34.77
-10.302
-66.366
4.4606
59.795
-6.2516
-112.98
-202.72
-61.047
119.93
144.33
94.267
-10.273
24.687
130.44
122.73
-20.63
-177.39
-264.47
-64.208
99.74
88.635
45.267
-41.002
93.48
194.68
96.363
27.655
-139.85
-187.63
-7.5202
23.643
4.0252
3.6355
-69.261
25.972
88.488
24.89
-18.351
-92.002
-38.625
20.777
-28.218
-64.015
0.77702
136.68
207.48
161.39
55.25
-29.121
-46.428
-52.857
-108.86
-161.65
-164.49
-53.294
95.071
87.148
-19.802
-104.53
-52.94
73.171
45.75
-66.294
-167.63
-187.37
30.093
178.03
162.91
83.802
-35.979
93.075
232.27
132.85
-13.036
-189.68
-200.89
-57.409
-12.538
18.122
-6.6207
-59.985
99.45
201.94
86.519
-31.502
-127.76
-115.75
15.306
54.991
-23.379
-59.283
5.7148
116.59
125.15
-3.226
-100.7
-113.74
-71.45
-39.782
-15.195
-61.06
-17.475
165.34
213.68
102.93
28.029
-50.926
-77.926
-65.195
-124.83
-178.35
-186.24
25.088
219.62
207.88
81.369
-75.279
-13.813
161.68
121
-58.156
-226.58
-300.51
-85.894
135.4
124.23
44.848
-47.357
75.987
219.28
67.529
-91.069
-232.22
-190.51
17.705
103.9
36.12
2.8195
16.114
136.23
208.94
49.602
-33.992
-89.937
-86.878
-51.454
-70.491
-58.694
-111.77
5.3401
123.4
72.058
21.769
-43.799
-94.628
9.9231
-5.2884
-76.239
-74.712
-17.633
94.916
110.35
50.203
21.817
-45.153
11.936
76.589
-0.15729
-138.4
-184.24
-11.816
187.96
187.58
80.378
-48.087
-6.2258
126.82
87.436
-73.548
-233.36
-323.21
-172.26
63.41
108.45
21.917
-68.573
66.79
206.77
132.54
16.184
-146.07
-151.26
40.591
59.812
33.595
8.3205
-95.98
25.279
121.78
30.207
-49.59
-147.98
-52.592
74.223
43.187
-25.225
-44.726
52.718
170.11
150.75
42.152
-50.248
-83
-40.049
-31.907
-66.347
-111.79
-93.595
80.964
126.82
73.372
35.649
-41.985
5.6932
54.641
-7.4515
-118.7
-178.09
-29.026
153.85
142.13
41.782
-37.158
-36.887
32.509
14.144
-56.726
