3.4234e-08
3.2056e-08
9.8407e-08
7.563e-08
3.0915e-07
-1.4387e-06
-6.9159e-06
-1.7094e-05
-3.3854e-05
-5.6172e-05
-8.8399e-05
-0.00012808
-0.00019058
-0.00027698
-0.0004081
-0.00059796
-0.0008521
-0.0012067
-0.0016318
-0.0021982
-0.0027599
-0.0028266
-0.0022654
-0.0011542
0.00030722
0.0017032
0.0025927
0.0028718
0.0026785
0.002247
0.0017516
0.0012904
0.00090664
0.00060542
0.00038281
0.00022669
0.00012429
6.2145e-05
2.8297e-05
1.1941e-05
4.9861e-06
2.4008e-06
1.5412e-06
1.2807e-06
1.059e-06
6.5025e-07
-2.8931e-07
-1.4855e-06
-2.3911e-06
-4.0518e-06
-5.8807e-06
-9.6875e-06
-1.4266e-05
-2.2717e-05
-3.2768e-05
-4.6944e-05
-6.6315e-05
-8.6882e-05
-0.00011749
-0.00013743
-0.00013409
-6.7039e-05
7.0906e-05
0.00011245
7.2269e-05
4.8194e-05
1.9128e-05
-1.6102e-06
1.7353e-05
1.3695e-05
9.0067e-06
2.4598e-05
6.0353e-05
0.00011407
0.00014695
0.0002045
0.00033749
0.00051137
0.00066872
0.0007194
0.0007445
0.00086003
0.00091542
0.00081874
0.00066117
0.00055841
0.00054445
0.00061304
0.00076595
0.00099998
0.0012394
0.0013525
0.0013527
0.0013233
0.0012498
0.001118
0.0010072
0.00094368
0.00089042
0.00082315
0.00076884
0.00073181
0.00066018
0.00055552
0.00038285
0.00018409
-5.2708e-05
-0.00038309
-0.00062575
-0.00074234
-0.00078078
-0.00080113
-0.00084152
-0.00090745
-0.00095527
-0.0010039
-0.0010901
-0.00117
-0.0011781
-0.0010634
-0.00082699
-0.0005516
-0.00037256
-0.00023439
-7.7555e-05
9.6668e-05
0.00046329
0.00083507
0.00097689
0.00099172
0.00087406
0.00065531
0.0004438
0.00028153
0.00016008
9.7781e-05
5.8272e-05
6.1786e-05
0.00011624
0.00012007
4.5711e-05
-5.2311e-05
-0.00014188
-0.00023167
-0.00032314
-0.00039822
-0.00043517
-0.00045092
-0.00045057
-0.00042825
-0.00037903
-0.00041936
-0.00061302
-0.00072485
-0.00077542
-0.00085577
-0.00081645
-0.00072212
-0.0006516
-0.00063203
-0.00061633
-0.00054709
-0.00040951
-0.00034765
-0.0003611
-0.00036304
-0.00034983
-0.00033161
-0.00032663
-0.00033524
-0.00038105
-0.00040779
-0.00041761
-0.0005461
-0.00071742
-0.00076879
-0.00075615
-0.00073094
-0.0007281
-0.00075027
-0.00075766
-0.00075088
-0.0007122
-0.00060376
-0.00050605
-0.00043798
-0.00036616
-0.00028799
-0.00018823
-0.00012106
-0.00013761
-0.00019283
-0.00026357
-0.00033101
-0.00037674
-0.00041264
-0.00044221
-0.00045911
-0.00045013
-0.00042374
-0.00036653
-0.00027413
-0.00024319
-0.00027954
-0.00031511
-0.00034338
-0.00037783
-0.00041413
-0.0004385
-0.00043812
-0.00041099
-0.00036206
-0.00030171
-0.00024134
-0.00014655
-9.812e-05
-0.0001348
-0.00017643
-0.00019983
-0.00021767
-0.00024014
-0.00026357
-0.00026964
-0.00024388
-0.00021034
-0.00015061
-6.5975e-05
4.6908e-05
0.00021969
0.00035207
0.00037228
0.00033679
0.00029792
0.00026651
0.00022144
0.00015486
4.4882e-05
-8.8142e-05
-0.00023501
-0.00040027
-0.00052521
-0.0006107
-0.00054524
-0.00037035
-0.00034421
-0.00038311
-0.00040621
-0.0003767
-0.00021007
0.00015128
0.00066316
0.0011708
0.0016759
0.0021261
0.0025159
0.0028297
0.0027828
0.0023947
0.0019499
0.0015633
0.001204
0.00087638
0.00062414
0.00037312
0.00011888
-5.7623e-05
-0.00020633
-0.00041884
-0.00054512
-0.00056191
-0.00062383
-0.00072502
-0.00079505
-0.00083883
-0.00089334
-0.00092986
-0.00092601
-0.00089356
-0.00083769
-0.00076845
-0.00067861
-0.00059637
-0.00059805
-0.00064045
-0.00066006
-0.00065514
-0.00064538
-0.00064997
-0.00064711
-0.00063701
-0.00060073
-0.00045941
-0.00025206
5.1354e-06
0.00023932
0.0003161
0.00026852
0.00015645
-1.9069e-06
-0.00015195
-0.00024586
-0.0003091
-0.00034385
-0.00034787
-0.00032471
-0.00027202
-0.00020932
-0.00019559
-0.00023654
-0.00029779
-0.00033872
-0.00037269
-0.00039174
-0.00034016
-0.0002267
-9.4509e-05
3.5843e-06
7.9741e-05
0.00011262
8.0478e-05
4.6695e-05
4.4989e-05
5.74e-05
6.1549e-05
8.5144e-05
0.00013401
0.00023037
0.00035232
0.00046035
0.00058013
0.00058678
0.00039323
0.00018393
9.9374e-05
0.00010545
6.1092e-05
-5.0759e-05
-0.00011877
-0.00013944
-5.5845e-05
2.2254e-05
-2.6872e-06
-6.7619e-05
-0.00019569
-0.00032343
-0.00036544
-0.0003013
-0.00016732
1.7198e-05
0.00024468
0.00053454
0.00084729
0.001148
0.0014172
0.0015502
0.0014345
0.0012839
0.0012148
0.001088
0.00077637
0.00043464
0.00022757
0.00010929
9.4638e-05
0.0001977
0.00026854
0.00022658
0.00017638
0.00011327
1.877e-05
-0.00013137
-0.00039289
-0.00049297
-0.00056301
-0.00077409
-0.00082663
-0.00069174
-0.000605
-0.00061542
-0.00068855
-0.00080052
-0.00088389
-0.00088407
-0.00077474
-0.00061188
-0.00046871
-0.00044999
-0.00053413
-0.00062243
-0.00080762
-0.00095179
-0.00090591
-0.00077913
-0.00062402
-0.00050051
-0.00050298
-0.00059901
-0.0006841
-0.00064459
-0.00046833
-0.00021544
3.9276e-05
7.9261e-05
-7.2534e-05
-0.0002536
-0.00038236
-0.00041208
-0.0003717
-0.00034639
-0.00029398
-0.00012218
0.00015063
0.00048388
0.00087388
0.0011635
0.0012115
0.0011142
0.00096347
0.0007753
0.00061078
0.00049342
0.00035236
0.00021847
9.4497e-05
1.0439e-05
-6.969e-05
-0.00017706
-0.00026017
-0.00036998
-0.00048904
-0.00059345
-0.00068338
-0.0007581
-0.00080197
-0.00080904
-0.00075261
-0.00065858
-0.00054361
-0.0004256
-0.00030104
-0.00015751
-0.00010909
-0.00014684
-0.00019118
-0.00022751
-0.00024502
-0.0002394
-0.00024182
-0.0002358
-0.00018906
-0.00013519
-7.1745e-05
-8.8219e-06
8.3849e-05
0.00018931
0.00018985
0.00010266
2.7088e-05
-5.3802e-05
-0.00011857
-0.00016853
-0.00023986
-0.00026965
-0.00036337
-0.00030558
2.6612e-05
0.00026714
0.00039905
0.00034814
0.00024457
0.00021713
0.00014937
2.2315e-05
-5.8648e-05
-0.00011173
-0.00013135
-0.00011556
-6.2714e-05
3.0041e-05
0.00015632
0.00033547
0.00059544
0.00091533
0.0010709
0.0010238
0.00093359
0.0008267
0.00071627
0.00061995
0.00048353
0.00031772
0.00018155
0.00011164
0.00010893
0.00015163
0.00022937
0.00039222
0.0006133
0.00074394
0.00079354
0.00079415
0.00074975
0.0006901
0.00062472
0.00054471
0.0004724
0.000428
0.00041826
0.00045663
0.00053957
0.00066396
0.00086572
0.00093961
0.00076955
0.0005318
0.00028318
0.00013328
0.00011769
0.00011325
0.00010787
5.4767e-05
-9.1549e-05
-0.00013671
-0.00013047
-0.00017697
-0.00021018
-0.00020069
-0.00016274
-0.00013993
-0.0001646
-0.00024438
-0.0003731
-0.00055352
-0.0007418
-0.00086131
-0.00087783
-0.00082484
-0.00068941
-0.00054119
-0.0004429
-0.00039026
-0.00034477
-0.00028345
-0.00022383
-0.00016413
-0.00011468
-8.0352e-05
-5.5772e-05
-2.7023e-05
1.2291e-05
6.7076e-05
0.00013601
0.00024121
0.0003418
0.00033879
0.00027666
0.00025298
0.00025909
0.00029452
0.00036575
0.00042431
0.00045429
0.00048695
0.00057905
0.00070776
0.00093705
0.0012121
0.0012816
0.0012042
0.0010949
0.00097708
0.00090175
0.0008828
0.00087366
0.00091419
0.0010037
0.0010805
0.0011593
0.0012083
0.0012976
0.0014175
0.0013221
0.0010744
0.00085484
0.00064277
0.00041118
0.00021861
6.0378e-05
-9.4968e-05
-0.00023235
-0.00033003
-0.00048658
-0.00076092
-0.00098244
-0.0011725
-0.0014426
-0.0016729
-0.0017749
-0.0018209
-0.0017968
-0.0016304
-0.0013034
-0.00080225
-0.0001927
0.00049812
0.0013365
0.0020102
0.0022829
0.0023021
0.0021494
0.001836
0.0014003
0.00080979
0.00021234
-0.00013686
-0.00034378
-0.00043517
-0.00032517
-0.00010153
-2.5196e-05
-7.4064e-05
-0.00010645
-8.2945e-05
-0.00010663
-0.00016868
-0.000276
-0.00039536
-0.00045834
-0.00045432
-0.00040209
-0.00033495
-0.00024772
-0.00017314
-0.00016317
-0.00020638
-0.00025842
-0.00030802
-0.00033872
-0.00033759
-0.00031247
-0.00025469
-0.00017149
-4.5067e-05
0.00015323
0.00040794
0.00062775
0.0006532
0.00052476
0.00041922
0.00036654
0.00034781
0.00028159
0.00019026
0.00021197
0.00026224
0.00023108
0.00021609
0.00024579
0.00031918
0.00032902
0.00020398
5.2469e-05
-3.7277e-05
-0.00011587
-0.00021437
-0.00031951
-0.00042173
-0.00050618
-0.00056138
-0.0005768
-0.00054514
-0.0005206
-0.00056297
-0.0006307
-0.00068309
-0.0007122
-0.0007394
-0.00075634
-0.00074083
-0.00066627
-0.00054923
-0.00041015
-0.00024221
-0.00016179
-0.0002127
-0.00030376
-0.00038575
-0.00043789
-0.00047584
-0.00051242
-0.000533
-0.00051396
-0.0004498
-0.0003433
-0.00017891
-6.9105e-05
-8.5858e-05
-0.00014367
-0.00019102
-0.00021824
-0.00024238
-0.00026911
-0.00028476
-0.00027343
-0.00022958
-0.0001583
-3.9496e-05
7.2e-05
6.2777e-05
-2.6804e-05
-0.00010827
-0.00016197
-0.00020449
-0.00024368
-0.00027956
-0.00027385
-0.00022478
-0.00012977
1.4112e-05
8.2235e-05
3.2688e-05
-5.9198e-05
-0.00014463
-0.00023046
-0.00034648
-0.00047873
-0.00058885
-0.00061115
-0.00051634
-0.00030689
-4.4889e-05
0.00012623
0.00018637
0.0001966
0.00019028
0.00016304
0.00011795
7.1507e-05
5.6366e-05
9.6872e-05
0.00017267
0.00029396
0.00044908
0.00049409
0.00041872
0.00031773
0.00021922
0.00012962
4.4992e-05
-4.1165e-05
-9.8899e-05
-0.00011565
-9.6974e-05
-3.4725e-05
4.786e-05
0.00018822
0.00032544
0.00031654
0.00022611
0.00014177
7.0054e-05
8.4558e-07
-7.0969e-05
-0.00013217
-0.00016599
-0.00017518
-0.00016727
-0.0001373
-7.8101e-05
8.9221e-06
0.00015525
0.00029046
0.0002818
0.00019758
0.00011667
4.2819e-05
-3.0465e-05
-0.00011382
-0.0001925
-0.00023284
-0.0002364
-0.00019991
-0.0001375
-3.9983e-05
6.2214e-05
5.3446e-05
-3.6743e-05
-0.0001245
-0.00018637
-0.00023541
-0.00028563
-0.00033632
-0.00035945
-0.00034678
-0.00030077
-0.00020982
-8.5682e-05
9.8677e-05
0.00029032
0.00037104
0.00034854
0.00025496
0.00011131
-3.6551e-05
-0.00017783
-0.0002965
-0.00037012
-0.00040186
-0.00040027
-0.00037557
-0.00032284
-0.00024819
-0.00013068
-8.4304e-06
5.6263e-06
-4.6034e-05
-0.00010474
-0.00016986
-0.0002249
-0.0002639
-0.00029115
-0.00028558
-0.00024819
-0.00018839
-0.00012437
-0.00011151
-0.00014275
-0.00019482
-0.00024608
-0.00025865
-0.00029265
-0.00038142
-0.00046845
-0.00053821
-0.00059112
-0.00063018
-0.00067009
-0.00069664
-0.00068245
-0.00063435
-0.00056459
-0.00047914
-0.00037955
-0.00026714
-0.00015386
-1.7636e-05
9.7194e-05
0.00011011
7.5911e-05
4.8023e-05
2.9891e-05
2.0895e-05
2.3218e-05
4.1824e-05
0.00010539
0.00020081
0.00027767
0.00029366
0.00025781
0.00023467
0.00021291
0.00013282
3.1443e-05
-4.3535e-05
-9.1958e-05
-0.00013172
-0.00016731
-0.00019463
-0.00019625
-0.00017793
-0.00014625
-8.7508e-05
-1.5975e-05
8.9626e-05
0.00021281
0.00024563
0.00020674
0.00015947
0.00010656
5.074e-05
-4.3085e-06
-5.9441e-05
-9.7976e-05
-0.00010698
-9.5325e-05
-6.2527e-05
2.1716e-06
8.6803e-05
0.00021486
0.00036257
0.00040505
0.00036187
0.00029885
0.00022207
0.00013564
4.5177e-05
-4.373e-05
-0.00010885
-0.00014368
-0.00015406
-0.00014356
-0.00011928
-5.7152e-05
3.3407e-05
0.00017457
0.00034883
0.00039901
0.00033033
0.00024089
0.00014384
4.4402e-05
-5.3794e-05
-0.00015471
-0.00023454
-0.00028057
-0.00030329
-0.00030411
-0.00028809
-0.00025219
-0.00018284
-9.5652e-05
3.4459e-05
0.00017277
0.00018116
9.3294e-05
-2.7315e-07
-8.3128e-05
-0.00016494
-0.00024677
-0.00032501
-0.00037575
-0.00039207
-0.00038769
-0.00035338
-0.00030139
-0.00021427
-0.00010298
-8.1898e-05
-0.00014151
-0.00020713
-0.00026243
-0.00031343
-0.00036842
-0.00042139
-0.0004541
-0.00045543
-0.00043619
-0.00039056
-0.00032872
-0.00024166
-0.0001178
-6.0384e-05
-9.5093e-05
-0.00014492
-0.00019541
-0.00024731
-0.00029608
-0.00034582
-0.00038132
-0.00039479
-0.00038632
-0.00036658
-0.00032991
-0.00026807
-0.0001782
-5.8821e-05
-2.1756e-07
-2.3154e-05
-6.0391e-05
-0.00010587
-0.00015795
-0.00020241
-0.00024267
-0.00027114
-0.00028547
-0.00028769
-0.00027421
-0.0002445
-0.00019389
-0.00012835
-3.0979e-05
5.3693e-05
6.1713e-05
3.6283e-05
5.8971e-06
-2.7728e-05
-6.1544e-05
-9.2497e-05
-0.00011935
-0.00013895
-0.00014962
-0.00014735
-0.00012915
-0.00010025
-5.7262e-05
-4.3798e-06
6.6635e-05
0.00014735
0.00016918
0.00013464
9.6478e-05
5.6899e-05
1.3018e-05
-3.2332e-05
-7.9954e-05
-0.00011071
-0.00011033
-9.0959e-05
-5.4423e-05
-1.3795e-05
4.9612e-05
0.00010675
9.8869e-05
6.0144e-05
2.1982e-05
-1.2808e-05
-4.7411e-05
-8.1759e-05
-0.00010967
-0.00011498
-9.9558e-05
-7.0244e-05
-2.1961e-05
3.5667e-05
0.00012354
0.00022264
0.0002488
0.00021862
0.00017619
0.00012369
6.9249e-05
1.5775e-05
-3.447e-05
-6.465e-05
-7.1168e-05
-5.5041e-05
-1.9227e-05
3.8121e-05
0.00011172
0.00022118
0.00033652
0.00035545
0.00030046
0.00019064
1.8147e-05
-0.00016796
-0.00031601
-0.00037753
-0.00039062
-0.0003811
-0.0003296
-0.00026454
-0.00019997
-0.00010231
3.7084e-05
0.00019802
0.00030235
0.00020969
-4.0356e-05
-0.00031079
-0.00056579
-0.00074005
-0.00090773
-0.0011139
-0.0012152
-0.0012844
-0.0014067
-0.00152
-0.0015298
-0.0014335
-0.0012304
-0.00096138
-0.00079917
-0.00073049
-0.00061036
-0.00045495
-0.00031762
-0.00027942
-0.00028981
-0.00028885
-0.00026466
-0.00018919
-7.7728e-06
0.00015362
0.00019052
0.00017056
0.00013654
0.00011123
8.4168e-05
4.0689e-05
-1.2898e-05
-4.6836e-05
-4.3532e-05
3.154e-06
7.0856e-05
0.00017985
0.00029683
0.00033231
0.00031137
0.00026882
0.00022116
0.00016639
0.00010769
5.4904e-05
3.017e-05
2.4458e-05
4.0563e-05
8.452e-05
0.00014739
0.00024137
0.00029601
0.00027649
0.00028029
0.00029728
0.00030283
0.00032715
0.00030726
0.00023856
0.0001868
0.0001722
0.00016704
0.00018731
0.00024373
0.00035164
0.00044284
0.00045078
0.00042417
0.00038919
0.00035662
0.00032603
0.00029807
0.00026981
0.00026338
0.00027221
0.00029275
0.00032569
0.00037567
0.00045598
0.0004947
0.00045838
0.00040667
0.0003648
0.00033426
0.00030179
0.00027022
0.00024597
0.00024468
0.00025983
0.00029098
0.00034369
0.00040568
0.0005079
0.00061701
0.00062511
0.00057811
0.00052825
0.00048246
0.00044158
0.00039761
0.00035084
0.00031912
0.00031155
0.00032316
0.00035535
0.00040389
0.00046298
0.00058221
0.00069169
0.00068258
0.00062234
0.00056519
0.00051123
0.00044464
0.00034918
0.00027967
0.00024891
0.00023681
0.00025372
0.00029242
0.00035514
0.00044933
0.00061216
0.00073261
0.0007134
0.00064444
0.00057676
0.00051774
0.00045988
0.00039404
0.0003266
0.00028551
0.0002758
0.00029008
0.00033334
0.00039612
0.00050238
0.00063645
0.00065666
0.0005729
0.0004779
0.00040185
0.00033744
0.00026798
0.00020088
0.00016469
0.0001616
0.00019841
0.00026649
0.00036933
0.00052422
0.00060413
0.00056858
0.00051689
0.00049693
0.000496
0.00049464
0.00049325
0.00050922
0.00057877
0.00066933
0.00080071
0.00091398
0.0010287
0.0011178
0.00088083
0.00041175
-0.00024109
-0.0010631
-0.0022056
-0.003667
-0.0040427
-0.003317
-0.0025022
-0.0019143
-0.0013632
-0.00079204
-0.00026729
9.5176e-05
0.00035907
0.00059839
0.00074261
0.00078552
0.00072223
0.00055731
0.00037094
0.000232
0.00015989
0.0001395
7.5642e-05
-2.8544e-05
-0.00011399
-0.00016615
-0.00020368
-0.000243
-0.0002866
-0.0002998
-0.00027297
-0.0002284
-0.000129
-4.6596e-05
-5.9448e-05
-0.00010391
-0.00013354
-0.00014421
-0.00014899
-0.00015735
-0.00015945
-0.00012708
-8.5905e-05
-1.242e-05
6.9551e-05
6.3939e-05
1.5852e-05
-2.839e-05
-6.0408e-05
-8.6505e-05
-0.00011397
-0.00013469
-0.00012003
-8.2116e-05
-2.1325e-05
7.2381e-05
9.6333e-05
5.6118e-05
1.4135e-05
-2.3522e-05
-5.4087e-05
-7.8577e-05
-9.9886e-05
-9.2365e-05
-5.4167e-05
-4.1295e-07
9.5166e-05
0.00014109
0.00010955
6.7759e-05
1.7864e-05
-2.6899e-05
-5.6538e-05
-7.8552e-05
-7.5012e-05
-3.5703e-05
2.1781e-05
0.00012206
0.00018187
0.0001553
0.0001118
6.4611e-05
2.2981e-05
-7.7224e-06
-3.3081e-05
-4.3593e-05
-1.5585e-05
2.9366e-05
0.000123
0.00019774
0.00017614
0.00011964
5.7499e-05
-4.8234e-07
-4.8726e-05
-8.8352e-05
-0.00011607
-0.00010522
-7.2887e-05
-1.1591e-05
8.3511e-05
0.00010681
5.7522e-05
1.7134e-06
-5.9838e-05
-0.00011661
-0.00016978
-0.00021999
-0.00025516
-0.00026472
-0.00025353
-0.00023759
-0.00020441
-0.00016097
-9.2188e-05
-6.7149e-06
-3.756e-05
-0.00015725
-0.00028298
-0.00039459
-0.00047918
-0.00053238
-0.00055923
-0.00055802
-0.00052711
-0.0004875
-0.00043032
-0.00036772
-0.00029357
-0.00018948
-8.3447e-05
5.6684e-05
0.00015258
0.00010562
3.3282e-05
-1.1321e-05
-3.9323e-05
-6.9836e-05
-0.00010642
-0.00014151
-0.00015555
-0.00015323
-0.00014131
-0.0001172
-8.6204e-05
-3.9377e-05
2.701e-05
0.00010231
0.00022222
0.00028045
0.00020775
0.0001277
8.4968e-05
5.8819e-05
2.3663e-05
-2.0924e-05
-5.8942e-05
-6.8333e-05
-6.5936e-05
-4.9092e-05
-1.6401e-05
1.7885e-05
6.9695e-05
0.00013454
0.00022791
0.00035399
0.00036302
0.00026988
0.00019512
0.00016035
0.00013796
0.00010136
5.168e-05
1.9972e-05
1.3856e-05
2.6417e-05
6.0855e-05
0.00010468
0.00017338
0.00025469
0.00037748
0.00050292
0.00048202
0.00038036
0.00030783
0.00027338
0.00024006
0.00018698
0.00012865
9.5398e-05
9.0792e-05
0.00011843
0.00016604
0.00024117
0.00033637
0.00046961
0.00064776
0.00069218
0.00060163
0.0005243
0.0005035
0.00051134
0.00051682
0.00054168
0.00062483
0.0007893
0.0010263
0.0012906
0.0014855
0.0015032
0.001357
0.00099732
0.00036408
-0.0002918
-0.00073329
-0.00091325
-0.00091445
-0.00081477
-0.00065912
-0.00045348
-0.00023937
-3.1471e-05
0.00017412
0.00035307
0.00056279
0.00069684
0.00061057
0.00042198
0.0002502
0.00012958
1.4323e-05
-7.8995e-05
-9.8972e-05
-4.2009e-05
7.0545e-05
0.00018867
0.00031942
0.00044831
0.00040603
0.00026088
0.00016806
0.00014525
0.00014624
0.00013564
0.00013868
0.00018717
0.00028526
0.00040668
0.00052654
0.00068395
0.00073506
0.00057902
0.00038819
0.00022213
5.806e-05
-0.00011566
-0.00027342
-0.00039293
-0.00043201
-0.00038013
-0.00027101
-6.879e-05
0.00015037
0.00017736
8.5973e-05
-2.1681e-05
-0.00014292
-0.0002746
-0.00041719
-0.00051893
-0.0005325
-0.00048425
-0.00039953
-0.00032803
-0.00023634
-0.00019904
-0.00036444
-0.00059064
-0.00076269
-0.00087826
-0.00093541
-0.0009423
-0.00090522
-0.00082468
-0.00071986
-0.00061261
-0.00048431
-0.00032587
-0.00027306
-0.0003245
-0.00038922
-0.00046051
-0.0005368
-0.00058964
-0.00059515
-0.00054793
-0.00044506
-0.00031648
-0.00017519
-3.1164e-05
0.00014695
0.00026589
0.00021933
0.00012885
6.3939e-05
1.5557e-05
-4.389e-05
-0.00011928
-0.00019321
-0.00025068
-0.00030237
-0.00035497
-0.00040127
-0.0004633
-0.00049639
-0.00044307
-0.00043982
-0.00048369
-0.00046575
-0.00040821
-0.00035401
-0.000325
-0.00030581
-0.00027459
-0.0002348
-0.00020645
-0.00016629
-0.00013033
-6.9917e-05
-2.9317e-05
-9.6918e-05
-0.00019667
-0.00028853
-0.0003703
-0.00045048
-0.00055155
-0.00062822
-0.00058913
-0.00040415
-0.00010186
0.00025029
0.00057344
0.00082298
0.0010003
0.0010233
0.00089936
0.00074171
0.00056574
0.00034807
9.6865e-05
-0.00014547
-0.00033583
-0.0004481
-0.00047519
-0.00043614
-0.00035878
-0.00022029
-3.432e-05
0.00022229
0.00048367
0.00061498
0.00067884
0.00069543
0.00065511
0.00057422
0.00046648
0.00035533
0.00027983
0.00024257
0.00020484
0.00015573
0.00011405
0.00013866
0.00021992
0.00036573
0.00056282
0.00064006
0.00060377
0.00054404
0.00044491
0.0003207
0.00019959
0.0001232
0.0001412
0.00024923
0.00037828
0.00048679
0.00054228
0.00054354
0.00050251
0.00046209
0.00049135
0.00045435
0.00028621
0.00013586
4.3722e-05
4.8959e-07
-2.4429e-05
-6.9863e-05
-0.00014794
-0.00026655
-0.00039063
-0.00045822
-0.00041518
-0.00026599
-3.6172e-05
0.00026057
0.00043719
0.00045046
0.00045553
0.00047721
0.00047082
0.0003878
0.00023551
6.8757e-05
-5.5995e-05
-8.5461e-05
2.1203e-05
0.00023534
0.00047931
0.00074029
0.00091812
0.00085259
0.00065882
0.00043798
0.00018557
-8.1946e-05
-0.00034283
-0.00056149
-0.00074467
-0.00091545
-0.0010217
-0.00094472
-0.00062521
-8.6515e-05
0.00061404
0.0011597
0.0012639
0.0010407
0.00062583
0.00013764
-0.00030752
-0.0006629
-0.00090478
-0.0010495
-0.0011777
-0.0012791
-0.0013426
-0.0013178
-0.0011595
-0.00082266
-0.00033125
3.1756e-06
5.7621e-05
-6.3469e-05
-0.00031718
-0.00065595
-0.00094408
-0.0010774
-0.0010446
-0.00090707
-0.00075073
-0.00060186
-0.0004413
-0.00021507
9.5349e-05
0.00050633
0.00080724
0.00066691
3.8437e-05
-0.0010581
-0.002236
-0.0028576
-0.0028494
-0.0022503
-0.0012692
-0.00025447
0.00063868
0.0010598
0.00079188
0.00012758
-0.00027818
-9.086e-05
7.1733e-05
-9.6378e-05
-0.00031106
-0.00042343
-0.00043208
-0.00031775
-0.00021284
-0.0001389
-3.5695e-05
5.5274e-06
-2.9805e-05
-8.1811e-05
-0.00014201
-0.00015142
-0.00012602
-0.000171
-0.00021924
-0.00024112
-0.00023407
-0.00022256
-0.00020393
-0.00019116
-0.00011811
0.00011343
0.00036457
0.00048271
0.00039883
0.00025599
0.00020136
5.6725e-05
-0.0003445
-0.00077114
-0.0010458
-0.001176
-0.0012143
-0.001156
-0.00097087
-0.00066137
-0.00036224
-0.00029429
-0.0003528
-0.0003662
-0.00047925
-0.00084679
-0.0012675
-0.0015379
-0.001609
-0.0015263
-0.001226
-0.00077976
-0.00023908
0.00036756
0.00081211
0.0010678
0.0012464
0.001391
0.0014256
0.0013261
0.0012303
0.0011529
0.0010079
0.00084583
0.00075379
0.00081537
0.00084614
0.00057358
4.8996e-05
-0.00052082
-0.0010389
-0.0015159
-0.0016269
-0.0014285
-0.00136
-0.0011079
-0.00070303
-0.00059613
-0.00049334
-0.00014373
0.00026254
0.00068211
0.0011928
0.0015564
0.0015494
0.0012324
0.00081289
0.00056725
0.00050477
0.00042181
0.00035683
0.00033545
0.00035022
0.00042901
0.00040754
0.00031085
0.00025797
0.00021386
0.00022135
0.00036671
0.00062155
0.00085205
0.00086265
0.00075965
0.00083897
0.00099316
0.0010595
0.0010236
0.00090235
0.00079231
0.00083367
0.0010531
0.0013279
0.0015624
0.001668
0.0016392
0.0015414
0.0014149
0.0012521
0.0010858
0.0010576
0.001103
0.0010014
0.0008051
0.00076601
0.00094708
0.0011289
0.001154
0.0012386
0.0015836
0.0020078
0.0021367
0.0019477
0.0016807
0.0013476
0.0011234
0.0010714
0.00098009
0.00085415
0.00080278
0.00075387
0.00076938
0.00076506
0.00058699
0.00041273
0.00029013
0.000136
0.00011658
0.00022581
0.00023207
0.00023655
0.00034445
0.00049776
0.0007044
0.000931
0.0011092
0.0012424
0.001375
0.0015855
0.001539
0.0010756
0.00046907
5.0088e-05
9.344e-06
0.00022305
0.00046339
0.00070421
0.00088094
0.001087
0.0015999
0.0018872
0.0015793
0.00091983
0.00018656
-0.00047131
-0.0010357
-0.0015998
-0.0021922
-0.0027081
-0.003087
-0.0031655
-0.0029231
-0.002539
-0.0020171
-0.0013568
-0.0008852
-0.00062524
-0.00035233
-2.5627e-05
0.00028006
0.00039951
0.00032169
0.00022704
0.00023963
0.00049095
0.0010248
0.0015545
0.0019366
0.0020775
0.0017781
0.001215
0.00056479
-6.7138e-05
-0.00059696
-0.0010312
-0.0012201
-0.0011604
-0.00093579
-0.00045333
-4.1997e-05
0.00022605
0.00042543
0.00045989
0.00038018
0.0001382
-0.00043982
-0.0011076
-0.0014125
-0.0011542
-0.00041928
0.00010961
0.00028173
0.00052763
0.00082269
0.0013746
0.0020483
0.0025961
0.0028631
0.002645
0.002189
0.0016675
0.0010601
0.00039173
-0.00027174
-0.00081996
-0.0011786
-0.0012643
-0.00089804
2.7383e-05
0.0010939
0.0019656
0.0025732
0.0028047
0.0027051
0.0023861
0.0020255
0.0017112
0.0013044
0.0006376
0.00021501
0.00026147
0.00029128
0.00022166
0.00011486
-8.2516e-05
-0.00033628
-0.00052593
-0.00060271
-0.00054931
-0.00040005
-0.00025855
-0.00022761
-0.00026291
-0.00025988
-8.1879e-05
0.00010022
-6.498e-05
-0.00034872
-0.00066563
-0.00099278
-0.001259
-0.0014444
-0.0014521
-0.0012205
-0.00092771
-0.0006843
-0.0005798
-0.00053116
-0.00037286
-0.00039415
-0.00049249
-0.00041233
-0.00013207
0.00031679
0.00084367
0.0012222
0.0013058
0.0011762
0.00099444
0.00077651
0.00054712
0.00052731
0.00059334
0.00060011
0.00057665
0.00061299
0.00061214
0.00053647
0.00037062
-5.621e-05
-0.00060105
-0.0010145
-0.0011402
-0.00099205
-0.00066307
-0.00020356
0.00044278
0.00088602
0.00089473
0.00057815
-5.1274e-05
-0.00083839
-0.0015383
-0.0019437
-0.0019873
-0.0018115
-0.0013872
-0.00069324
-0.00014903
0.00020086
0.00050454
0.00071957
0.00091351
0.0011392
0.0012512
0.0011894
0.0010305
0.00077548
0.00068184
0.00086376
0.0010012
0.0010643
0.001183
0.0011578
0.00078267
-2.0516e-05
-0.001111
-0.0021041
-0.0027868
-0.0029522
-0.0024733
-0.0015376
-0.00037622
0.0010301
0.0023742
0.0032425
0.0035179
0.0030001
0.0019455
0.00088647
-5.878e-05
-0.00067529
-0.00079053
-0.0006916
-0.00061624
-0.00067776
-0.00094602
-0.0012996
-0.0015617
-0.0016571
-0.0014982
-0.0011159
-0.00078025
-0.00070394
-0.0006505
-0.00077362
-0.0012639
-0.0017166
-0.0018353
-0.0015566
-0.001022
-0.00051962
-0.00012132
0.00013224
0.00010957
0.00022093
0.00053392
0.00062886
0.00046422
0.00012879
-0.00015583
-0.00024357
-0.00016638
4.3007e-05
0.00043206
0.0010509
0.0018726
0.002819
0.0035326
0.0036142
0.0031606
0.0022966
0.0010543
-0.00016744
-0.0010631
-0.0014829
-0.0011082
-0.00020821
0.00084725
0.0020002
0.0028759
0.0030774
0.0026507
0.0015613
0.00012487
-0.0010683
-0.001692
-0.0017625
-0.0015669
-0.0013348
-0.0011637
-0.0010765
-0.0011774
-0.0015016
-0.0017787
-0.0017533
-0.0014035
-0.00077879
-6.7592e-05
0.00054977
0.00097206
0.00098908
0.0006395
0.00015859
-0.00014937
-0.00020015
5.6178e-05
0.0006235
0.00090106
0.00078263
0.00062949
0.00029345
-0.00026096
-0.00080016
-0.0013442
-0.0017867
-0.0018432
-0.0017007
-0.0014242
-0.00091764
-0.00032919
2.0769e-05
7.8634e-05
-8.5753e-05
-0.00051298
-0.00088174
-0.00093485
-0.0008118
-0.00062136
-0.00023864
0.00022767
0.00061482
0.00094978
0.0011066
0.00092609
0.00069646
0.00063126
0.00023663
-0.00024941
-0.00037313
-0.00065565
-0.0013021
-0.0019542
-0.0022968
-0.0022305
-0.001762
-0.0010401
-0.00026984
0.00041862
0.00093152
0.0010865
0.00074722
0.00010179
-0.00059495
-0.00095809
-0.0010389
-0.0009951
-0.00076554
-0.00063151
-0.00065523
-0.00070414
-0.00075812
-0.00080831
-0.00096836
-0.0013161
-0.0016941
-0.0018326
-0.0015753
-0.00098974
-0.00019724
0.00072354
0.0013264
0.001464
0.0012757
0.00095901
0.00063326
0.0003467
0.00031783
0.00053998
0.00077403
0.00084695
0.00070067
0.00028896
-0.00026132
-0.0007238
-0.0010532
-0.0014309
-0.0017314
-0.0018286
-0.0016739
-0.0012045
-0.00056968
9.8106e-05
0.00080584
0.0013351
0.0015376
0.0015855
0.0014052
0.00098978
0.00062552
0.00018806
-0.00033192
-0.00079928
-0.0011101
-0.001227
-0.0013366
-0.0013679
-0.0013502
-0.0013444
-0.0014428
-0.0017306
-0.0019669
-0.0017745
-0.0010871
-7.1093e-05
0.00090789
0.0015723
0.0018408
0.0018072
0.0017553
0.0015561
0.0011139
0.00094225
0.00090793
0.0007506
0.00060343
0.00036807
0.00029153
0.0004453
0.00052719
0.00065018
0.00075957
0.0006692
0.00061793
0.00055476
0.00032945
1.494e-05
-0.00028147
-0.00043797
-0.00025815
3.918e-05
0.00013379
0.0001144
4.6082e-05
-0.0001084
-0.00018656
-7.9773e-05
-3.7828e-05
-0.00012176
-2.8753e-05
0.00011906
0.00011684
-9.9589e-05
-0.00047384
-0.00073222
-0.0008079
-0.00087516
-0.00093105
-0.00078607
-0.00057386
-0.00054939
-0.00083339
-0.0011575
-0.0011632
-0.00090088
-0.00058914
-0.00040286
-0.00034562
-0.00034852
-0.00044295
-0.000697
-0.0011431
-0.0017319
-0.0021807
-0.002248
-0.0020232
-0.0015711
-0.00095596
-4.6773e-05
0.00092855
0.0015046
0.0019203
0.0020294
0.0017925
0.0015282
0.0014152
0.0010978
0.00052081
-4.346e-05
-0.00062962
-0.00080886
-0.0003999
2.2415e-05
0.00040691
0.00046821
0.00036213
0.00034516
0.00030519
-2.1928e-05
-0.00061662
-0.0009098
-0.00075946
-0.00060008
-0.00047166
-0.00030109
-0.00026822
-0.00023299
-0.00011108
-4.0466e-05
7.0193e-05
0.0001596
9.1028e-05
-9.9816e-06
2.4349e-06
0.00015586
0.00043745
0.0008262
0.0010926
0.0010607
0.0009604
0.0010342
0.0011326
0.0010953
0.00092326
0.00067913
0.00046423
0.00025059
0.00012904
4.4522e-05
-4.9849e-05
-0.00015981
-0.00033799
-0.00056888
-0.00060258
-0.00035795
-4.6603e-05
0.0003595
0.00075711
0.0010898
0.0012122
0.0011297
0.00082381
0.0002046
-0.00040407
-0.00083082
-0.001147
-0.0015365
-0.0018582
-0.001702
-0.0011263
-0.00056321
-0.00030407
-0.0001919
-5.469e-05
0.00017377
0.00071676
0.0013323
0.0018551
0.0024003
0.0027629
0.0027996
0.0025897
0.0023402
0.0020502
0.0015757
0.0012035
0.00085846
0.00061755
0.00044466
0.00015902
-0.00034517
-0.0012082
-0.0020264
-0.0021596
-0.0017623
-0.00096172
-2.9216e-05
0.00059752
0.0010604
0.0014301
0.0017234
0.0020431
0.0022702
0.0023433
0.0021971
0.0018143
0.0013233
0.00083517
0.00037282
0.00012115
0.00037299
0.00095304
0.0015492
0.0022645
0.0029322
0.0028027
0.0021143
0.0014762
0.0012405
0.0017506
0.0020767
0.0017998
0.0012818
0.00080054
0.00050661
0.00014471
-0.00017898
-0.00036525
-0.00083293
-0.0012349
-0.0011619
-0.00094956
-0.00075512
-0.00076374
-0.00098438
-0.0012565
-0.0011004
-0.00053467
-9.8987e-05
7.6539e-05
1.5251e-05
3.1003e-05
0.00028659
0.00058407
0.00083621
0.0010068
0.0011204
0.0014249
0.001817
0.0021163
0.0023264
0.0021887
0.0018867
0.0017199
0.0015714
0.0014696
0.0014708
0.0013714
0.00067656
-0.00049055
-0.0017452
-0.0028554
-0.0031976
-0.0029499
-0.002605
-0.0020555
-0.0012713
-0.00048558
0.00020551
0.00077681
0.0012885
0.0017776
0.0024223
0.0032109
0.0039383
0.0044641
0.0047721
0.0048185
0.0044357
0.003435
0.0020262
0.00062893
-0.00065689
-0.0016019
-0.0022217
-0.0026306
-0.0024684
-0.0017704
-0.0008207
0.00014036
0.00080479
0.00077745
2.4539e-05
-0.0011155
-0.002198
-0.0030292
-0.0035766
-0.0037956
-0.0035803
-0.0029373
-0.0020002
-0.00090864
-1.288e-06
0.00047854
0.00065352
0.00068044
0.00064584
0.00071956
0.00103
0.0013151
0.0013612
0.0011086
0.00067436
0.00040092
0.0003799
0.00039074
0.00041876
0.00031371
-0.00010898
-0.00046163
-0.00037007
-5.7142e-05
0.00014428
0.0002153
0.00029041
0.00059389
0.0010927
0.0013664
0.0014599
0.0015256
0.0014939
0.0011614
0.00065304
7.0028e-05
-0.00054205
-0.0011232
-0.0016577
-0.0020828
-0.002376
-0.002542
-0.0024999
-0.0022079
-0.0018893
-0.001571
-0.0011084
-0.0006313
-0.00027103
9.194e-05
0.00048442
0.00087475
0.001241
0.0014635
0.0014734
0.0011031
0.00056587
0.00015599
-0.00014177
-0.00045947
-0.00092564
-0.0016297
-0.0023802
-0.0029743
-0.0032519
-0.0030082
-0.0022968
-0.0014328
-0.0006596
-0.00022058
-0.00040609
-0.0011833
-0.0020879
-0.0025905
-0.0023979
-0.0015661
-0.00052983
0.00040429
0.0012213
0.0017893
0.001947
0.0016935
0.0011774
0.00069542
0.00045972
0.00032064
0.00021044
0.00036707
0.00081184
0.0012476
0.0015787
0.0016409
0.0013136
0.0007074
9.5887e-06
-0.00055018
-0.00090874
-0.0010132
-0.00087382
-0.00068655
-0.00040209
0.00016043
0.00097171
0.0018112
0.0025523
0.0032453
0.0037131
0.0037442
0.0033965
0.0027984
0.0021043
0.0015296
0.0011525
0.00088329
0.00080606
0.0006158
0.00016741
-9.4036e-05
-0.00011647
-0.00013359
-0.0003224
-0.00078555
-0.0010844
-0.00096066
-0.00063096
-0.00017928
0.00017658
0.00013971
-6.1382e-05
-0.00011879
3.0796e-05
0.00024304
0.00055866
0.00077308
0.00043674
2.5485e-05
0.00039087
0.00088106
0.0010902
0.0015844
0.0024335
0.0032997
0.0039253
0.0041135
0.0039379
0.0037147
0.0032517
0.0022434
0.00091379
-0.0003618
-0.0010495
-0.0010791
-0.00085004
-0.00047788
-7.2698e-05
0.00013385
-0.00010703
-0.00097772
-0.0019606
-0.0026996
-0.0032175
-0.0035673
-0.0036664
-0.003083
-0.0018019
-0.00031612
0.0009119
0.0017817
0.002392
0.0027548
0.0028594
0.0024613
0.0016486
0.00074454
-4.1295e-06
-0.00054462
-0.00088895
-0.0011788
-0.0013889
-0.0011421
-0.00037989
0.00097217
0.0027076
0.0041497
0.0052798
0.0061732
0.0061634
0.0051105
0.00351
0.0017898
0.0001719
-0.0011252
-0.0019352
-0.002231
-0.0021741
-0.0020614
-0.0018937
-0.0015791
-0.0013117
-0.0010926
-0.00051426
0.00054811
0.0018236
0.0028975
0.0034258
0.003272
0.0026194
0.0018955
0.0013924
0.0011044
0.00090245
0.00089475
0.0011443
0.0015717
0.0019773
0.0022988
0.0026081
0.0027056
0.0025265
0.0021882
0.0017972
0.0013226
0.00061954
-0.00014503
-0.0008677
-0.0014405
-0.0014436
-0.0011625
-0.0010237
-0.00090936
-0.00076652
-0.00050168
-1.2296e-05
0.00048727
0.0011356
0.0014678
0.0012406
0.00096353
0.00081026
0.00063489
0.00044813
0.00012799
-0.00034401
-0.0006904
-0.00098174
-0.0011437
-0.0010412
-0.00075672
-0.00047187
-0.00014941
0.00012321
0.00010701
7.8915e-06
0.00016626
0.00045387
0.00054734
0.00053399
0.00042958
0.00029389
0.00028084
2.2328e-05
-0.0004149
-0.00053233
-0.00029092
-0.0001268
-0.00028736
-0.00069149
-0.00092473
-0.00084277
-0.00061723
-0.00056435
-0.00079753
-0.0011222
-0.0012925
-0.0014629
-0.0017121
-0.0020196
-0.002137
-0.0017128
-0.00084914
-6.4608e-05
0.00035821
0.00046599
0.00035253
-6.0096e-07
-0.00054161
-0.0011399
-0.0016651
-0.0020144
-0.0022775
-0.0024004
-0.0022398
-0.0019796
-0.0017194
-0.0013447
-0.0009782
-0.00069634
-0.00059099
-0.00093263
-0.0016455
-0.0024292
-0.0031116
-0.0035625
-0.0036867
-0.0033971
-0.0026404
-0.0017613
-0.0011653
-0.00098965
-0.0011051
-0.0014628
-0.0019698
-0.0023318
-0.0024401
-0.0022769
-0.0019424
-0.0015435
-0.0012001
-0.00089391
-0.00066981
-0.00051573
-0.00059194
-0.000893
-0.0012017
-0.0016102
-0.0020534
-0.00224
-0.0021249
-0.0018938
-0.0014791
-0.00093037
-0.0003444
0.00032933
0.00096875
0.0011391
0.00092855
0.00056621
5.1135e-05
-0.00041693
-0.00075841
-0.0010119
-0.0011635
-0.0013422
-0.0015917
-0.0017193
-0.0015338
-0.00094
-0.00036669
-7.8504e-05
2.8207e-05
2.3815e-05
0.00013306
0.00031107
0.0004112
0.00049414
0.00062018
0.00065563
0.00054713
0.00025332
-0.00020892
-0.00069958
-0.0013053
-0.0017579
-0.0017459
-0.0014498
-0.00086077
-0.00021288
0.00017401
0.00043284
0.00063428
0.00091186
0.0012714
0.0015955
0.0018714
0.0020182
0.0020673
0.0020355
0.0019293
0.0016928
0.0014514
0.0013255
0.0011389
0.00093793
0.00054508
-8.9452e-05
-0.00043154
-0.0003608
-0.00031826
-0.00032259
-5.4988e-05
0.00033896
0.00059718
0.00091697
0.0014472
0.0021028
0.0025903
0.0026361
0.0021758
0.0012799
6.735e-05
-0.0012214
-0.0022693
-0.0028852
-0.0029937
-0.0028132
-0.0025391
-0.0020407
-0.0014511
-0.00091797
-0.00039904
0.00015447
0.0008754
0.0015644
0.0021105
0.0026029
0.0029082
0.0029679
0.002906
0.0027252
0.0024598
0.0021853
0.0017274
0.0011191
0.00056632
8.4547e-05
-0.00016555
-3.026e-05
0.00024853
0.00044495
0.00078516
0.0014026
0.0019261
0.0019763
0.0015637
0.00092675
0.00012723
-0.00063453
-0.0010653
-0.0011571
-0.00065215
0.00050634
0.0016342
0.0020094
0.0015143
0.00063501
-0.00023251
-0.0011767
-0.0022438
-0.0030774
-0.0032467
-0.0028771
-0.0020854
-0.00086359
0.00051206
0.0018096
0.0029014
0.0035002
0.003376
0.0029535
0.0024896
0.0018982
0.0010133
-0.00023515
-0.0011658
-0.0015314
-0.0018701
-0.0022429
-0.0025486
-0.0027431
-0.0027353
-0.0025718
-0.0022545
-0.0017417
-0.0014123
-0.0012188
-0.00079364
-0.00010413
0.00058705
0.00089285
0.00081259
0.00077549
0.0008219
0.00069132
0.00071066
0.001147
0.0014683
0.0012051
0.0005241
-0.00022236
-0.00046938
-0.00013922
0.00062294
0.0016543
0.0025784
0.0032341
0.00381
0.0042308
0.0042515
0.004058
0.0037577
0.0033872
0.0031115
0.0027452
0.0023252
0.0017933
0.00091582
0.0002128
2.1187e-05
-7.6969e-05
-0.00033047
-0.00065925
-0.00086329
-0.00081075
-0.00075321
-0.00076091
-0.00068545
-0.00047365
-0.00024407
-0.00038697
-0.00094123
-0.0012404
-0.0012627
-0.0013061
-0.001237
-0.0011235
-0.0011992
-0.0013562
-0.0014424
-0.0014555
-0.0013261
-0.0011718
-0.0010488
-0.00091233
-0.0010106
-0.0011949
-0.0010185
-0.00064293
-0.00020556
0.0002571
0.00055983
0.00080499
0.00093636
0.000769
0.00018442
-0.00065105
-0.0012661
-0.0016097
-0.0018716
-0.0021618
-0.0023651
-0.0022377
-0.0017761
-0.0011611
-0.00051278
0.00014252
0.00070623
0.00099717
0.0009321
0.00072569
0.00058108
0.00042343
0.00024437
1.3132e-05
-0.00045579
-0.0011115
-0.0016616
-0.0019775
-0.0021413
-0.0020365
-0.0017236
-0.0013847
-0.001237
-0.001439
-0.0017124
-0.0019314
-0.0022576
-0.0025406
-0.002504
-0.0023539
-0.0021638
-0.0016941
-0.00091618
-0.00013691
0.00023091
0.00023812
0.00013589
-4.3699e-05
-0.00031594
-0.00058762
-0.00066829
-0.00049242
-0.00016881
-5.0097e-05
-0.00020926
-0.00047333
-0.00076321
-0.00099059
-0.0012954
-0.0018697
-0.0027541
-0.0035669
-0.0038673
-0.0036251
-0.0029858
-0.0018232
-0.00016446
0.0014548
0.0026946
0.0035963
0.0040513
0.0039218
0.0033733
0.0024058
0.00077322
-0.00089416
-0.0020048
-0.0024509
-0.0021857
-0.0015856
-0.00077843
0.00012125
0.00059193
0.00072219
0.00075934
0.0006929
0.00067598
0.00047037
-2.5429e-05
-0.00052539
-0.00097684
-0.0011208
-0.0010419
-0.00080794
-0.00037644
3.8733e-05
0.00066033
0.0012299
0.0014131
0.0013098
0.0010196
0.00065724
0.00032339
0.00018857
0.00042696
0.00092023
0.0015517
0.0022946
0.0029698
0.0032373
0.0030183
0.0025687
0.0018275
0.00069036
-0.00044229
-0.001402
-0.002021
-0.0019731
-0.0014208
-0.00085348
-0.0001329
0.00099199
0.0019168
0.0023405
0.0023733
0.0019969
0.0013255
0.00086148
0.00068706
0.00075491
0.0010998
0.0016165
0.0022479
0.002857
0.0031031
0.0027286
0.0020206
0.0013374
0.00050996
-0.00038245
-0.0011382
-0.0016691
-0.0019026
-0.0018292
-0.0014715
-0.00085993
-9.4542e-05
0.00050323
0.00078335
0.00087324
0.00081233
0.00040404
-0.0002472
-0.00084831
-0.0013246
-0.0013223
-0.0013079
-0.0017141
-0.0021137
-0.0022928
-0.0021464
-0.0017439
-0.0014917
-0.0013808
-0.0012157
-0.00093045
-0.0006049
-5.0649e-05
0.0005947
0.00097422
0.00084049
0.00022765
-0.0005881
-0.0012806
-0.0018339
-0.0020518
-0.0018968
-0.0015917
-0.00095179
-6.0588e-05
0.00061152
0.00092826
0.00096656
0.00087849
0.00059442
-3.8193e-05
-0.00055374
-0.00095322
-0.0016101
-0.0021553
-0.0022248
-0.0020256
-0.0017993
-0.0015347
-0.0014239
-0.0014786
-0.0015658
-0.0017595
-0.0020138
-0.0020956
-0.0016898
-0.00076609
0.00012963
0.00075179
0.0016664
0.0029815
0.003901
0.004059
0.0034069
0.0022598
0.001087
5.1728e-05
-0.00076052
-0.0014232
-0.0016954
-0.0015476
-0.0014163
-0.0014175
-0.0012436
-0.00092505
-0.00059777
-0.00016977
0.00011039
0.00020421
0.0003115
0.00039405
0.00047096
0.00046465
8.7667e-05
-0.00049068
-0.00076718
-0.00068245
-0.00039576
-1.0237e-05
0.00031675
0.00058315
0.000912
0.0012713
0.0014728
0.0012901
0.00080385
0.00021041
-0.00026118
-0.00029603
3.0499e-05
0.00022992
0.00024308
0.00017573
-0.00013603
-0.00030406
-0.00018282
-0.00020199
-0.00075241
-0.0015767
-0.0020465
-0.0019224
-0.0013093
-0.00069296
-0.0001142
0.00077377
0.0014839
0.0015907
0.0011514
0.00010273
-0.0013425
-0.0026496
-0.0034746
-0.0034794
-0.0027478
-0.001633
-0.00045421
0.00063955
0.0015958
0.0022248
0.0022184
0.0017692
0.0012864
0.00086957
0.00040892
-9.4157e-05
-0.00039045
-0.00061219
-0.00084384
-0.0009174
-0.00092908
-0.00095832
-0.00086417
-0.00075175
-0.0011081
-0.0018939
-0.0025449
-0.0027826
-0.0024948
-0.0018666
-0.00098904
0.00029519
0.0015953
0.0022891
0.0024016
0.0021846
0.0018979
0.0017542
0.0016626
0.0013584
0.00086873
0.00024986
-0.00033101
-0.0006002
-0.00054112
-0.00010781
0.00047749
0.0008494
0.00081842
0.00054776
0.00016838
-0.00023749
-0.00050822
-0.0008528
-0.0012181
-0.0014115
-0.0014663
-0.0012936
-0.00098424
-0.0007892
-0.00060544
-0.00038472
-0.00018257
-0.00012918
-0.00044689
-0.00099795
-0.0015586
-0.0016857
-0.0014658
-0.0013412
-0.0010694
-0.00065031
-0.00045426
-0.00038787
-0.0001254
0.00041429
0.00095017
0.0010338
0.00057355
-7.9241e-05
-0.00055227
-0.00075707
-0.00081086
-0.00070265
-7.0358e-05
0.00089333
0.0014644
0.001444
0.0012169
0.00084311
0.0003347
-6.0227e-06
-0.0001718
-0.00027838
-0.00012553
-1.8884e-05
-0.00015132
-0.00017547
-0.00022045
-0.00042511
-0.00052159
-0.00045743
-0.00020716
0.00030702
0.00054607
0.00027293
8.6991e-05
2.4435e-05
7.244e-05
0.00025705
0.00028811
0.00035177
0.00066174
0.00075993
0.00051495
8.5487e-05
-0.00049242
-0.00097696
-0.0012565
-0.0013432
-0.0013668
-0.0013115
-0.00091965
-0.00034728
0.00019128
0.00070684
0.0011022
0.0012732
0.0013331
0.0013098
0.0011334
0.0010293
0.0009009
0.0006708
0.00047844
0.00020626
-0.00014286
-0.00056363
-0.0010196
-0.001232
-0.0009827
-0.00060041
-0.00047483
-0.00054162
-0.00057528
-0.00049585
-0.00040183
-0.00037751
-0.00032507
2.3588e-05
0.00060014
0.00092255
0.00052556
-0.00041594
-0.0011483
-0.0012985
-0.00096979
-0.00049125
-5.7168e-05
0.00038031
0.00050708
0.0002082
-0.00038132
-0.0010635
-0.0012609
-0.00084538
-0.00026192
0.00018883
0.00068928
0.0010847
0.001114
0.00095947
0.00062087
7.3e-05
-0.00051803
-0.0010199
-0.001355
-0.0014393
-0.0013687
-0.0012491
-0.00093202
-0.00035491
0.00027085
0.00065538
0.00070235
0.00033571
-0.00017178
-0.00052326
-0.00087865
-0.0011334
-0.0012259
-0.0015065
-0.0019119
-0.0020482
-0.001877
-0.001641
-0.0012088
-0.00065233
-0.00016421
0.00035213
0.00097825
0.001568
0.0018856
0.0018998
0.0017736
0.0016071
0.0012484
0.00053035
-0.0004127
-0.0012598
-0.0019923
-0.0025504
-0.0028078
-0.0028448
-0.0025501
-0.002183
-0.0020385
-0.0015815
-0.00071208
3.8334e-05
0.00044428
0.00052433
0.00046055
0.00061276
0.00095521
0.0010081
0.00078405
0.00079279
0.0010294
0.0011706
0.00111
0.00086315
0.00082706
0.0012448
0.0012679
0.00073657
0.00036159
0.00016723
-0.00011777
-0.00050537
-0.0010022
-0.0013105
-0.0010604
-0.00062357
-0.00031928
0.00017973
0.0008386
0.0011696
0.0011757
0.0010439
0.00077626
0.00021664
-0.00077106
-0.0017199
-0.0022333
-0.0022943
-0.002093
-0.0019434
-0.0015785
-0.00092944
-0.00046185
-0.00030498
-0.00027773
-0.00012764
0.00016521
0.00029013
-6.4477e-05
-0.00074459
-0.0011091
-0.00090715
-0.00027997
0.00023579
0.00038903
0.00038985
0.00038957
0.0003518
0.00013698
-0.00029699
-0.00095589
-0.0016344
-0.0022412
-0.0028172
-0.0032053
-0.0029953
-0.0020131
-0.00061829
0.00068324
0.0013922
0.0015268
0.0017874
0.0021794
0.0021222
0.0016524
0.0013454
0.0015111
0.0017011
0.0013544
0.0005888
-0.00041958
-0.0015027
-0.0021912
-0.0024193
-0.0022668
-0.0017941
-0.0011757
-0.00045968
0.00029004
0.0010605
0.0016712
0.0017791
0.0015112
0.0010021
0.00017523
-0.00081607
-0.0016371
-0.0020903
-0.0022087
-0.0020884
-0.0018008
-0.0016577
-0.00187
-0.0022141
-0.0023477
-0.0021748
-0.0017754
-0.0011278
-0.0003319
0.00052879
0.0012338
0.0016841
0.0022414
0.0029014
0.0032944
0.0033256
0.0029894
0.0023128
0.0016181
0.00094716
0.00016853
-0.00060069
-0.0011964
-0.0015148
-0.001612
-0.0017453
-0.0018575
-0.0017362
-0.0013292
-0.00079056
-0.00026282
0.00026969
0.00067178
0.00080267
0.00067104
0.00019537
-0.00060238
-0.0014464
-0.0021039
-0.0024649
-0.0023249
-0.001672
-0.00090828
-2.9495e-06
0.0010246
0.0019557
0.0027025
0.0029129
0.0025328
0.001885
0.0013177
0.00083243
0.0002679
-5.6274e-05
-8.0539e-05
8.952e-05
0.00051225
0.00086883
0.00068157
0.0001066
-0.00045208
-0.00077879
-0.00081306
-0.00038881
0.00038597
0.0010349
0.0014967
0.0017695
0.001612
0.0013064
0.00098867
0.00042256
-0.00046889
-0.0013733
-0.0016915
-0.0012271
-0.00055045
-0.00027455
-0.00012274
8.9459e-05
0.00029514
0.00057852
0.00050187
-8.6678e-05
-0.00070113
-0.0010633
-0.0010266
-0.000786
-0.0003383
0.00046545
0.0011399
0.0014286
0.0014176
0.0011278
0.00081815
0.00066696
0.00030108
-0.00044934
-0.0011459
-0.0015255
-0.0015887
-0.0014433
-0.00098096
-0.00025299
0.0001829
3.1165e-05
-0.00057101
-0.001347
-0.0018757
-0.0020832
-0.0024068
-0.002841
-0.0030946
-0.0029545
-0.0024389
-0.0019072
-0.0014883
-0.0010773
-0.00058044
0.00019549
0.0011757
0.0019258
0.0024333
0.0026888
0.0025713
0.0020834
0.001169
0.00023825
-0.00029702
-0.00074225
-0.0011697
-0.0014447
-0.0016866
-0.0016564
-0.0014466
-0.0014904
-0.00185
-0.0024077
-0.0027559
-0.0025993
-0.0020184
-0.0012662
-0.00044977
0.00044453
0.0014057
0.0023091
0.0028119
0.0027917
0.0023752
0.0016738
0.00087262
0.0001682
-0.0004587
-0.00087
-0.00065674
0.00011084
0.00093077
0.0015224
0.0018739
0.0022702
0.0026973
0.0025686
0.0017241
0.00077181
0.00032756
0.00025933
0.00021035
0.00014421
0.00024337
0.00051844
0.00060363
0.00022475
-0.00039669
-0.00047345
-4.188e-05
0.00040292
0.00069909
0.00084212
0.0010127
0.0010425
0.00077791
0.00025682
-0.00014886
-0.00023531
-0.00043706
-0.00077706
-0.00088813
-0.00092651
-0.00059021
0.00021759
0.00090691
0.0013236
0.0011888
0.00035472
-0.000568
-0.001077
-0.0011328
-0.00080959
-0.00063134
-0.00050413
-6.3633e-05
0.00033056
0.0007312
0.0010657
0.0012006
0.0012715
0.001423
0.001545
0.0013031
0.00076635
0.00028307
-0.00015606
-0.00055355
-0.00075751
-0.00069844
-0.00044261
-0.00030402
0.00012241
0.00083401
0.0010107
0.00034645
-0.00078761
-0.0016977
-0.0020324
-0.0017438
-0.00092672
0.00021354
0.0012154
0.0019584
0.0027397
0.0033115
0.0034249
0.003342
0.003203
0.0027887
0.002262
0.0016871
0.00086
-4.7273e-05
-0.001057
-0.0017861
-0.0016965
-0.0012256
-0.00094836
-0.00070959
-0.00076851
-0.0012928
-0.0019118
-0.0024701
-0.0026395
-0.002299
-0.0017609
-0.0013628
-0.00069446
0.00047855
0.0017013
0.0025021
0.0027832
0.0026405
0.0022828
0.001785
0.0010831
0.00023166
-0.00047761
-0.00097245
-0.001645
-0.0025226
-0.0034643
-0.0042382
-0.0044083
-0.0038381
-0.0027377
-0.0012912
0.00017352
0.0011657
0.001624
0.0018251
0.0018742
0.0016205
0.0012071
0.00086
0.00038843
-0.0001366
-0.00060069
-0.00097877
-0.0014678
-0.0019488
-0.0018305
-0.0012923
-0.00073429
-0.00036995
-0.00029113
-0.000205
-7.7987e-05
7.6188e-05
0.0003916
0.00058057
0.00043307
-6.1161e-05
-0.00084624
-0.0016196
-0.0020084
-0.0020055
-0.0018139
-0.0013521
-0.00092526
-0.00091858
-0.00093185
-0.00059506
-0.00019577
-4.5923e-06
-4.0238e-05
-0.00027862
-0.00067845
-0.0012348
-0.001628
-0.0018003
-0.0017193
-0.0013292
-0.00081829
-0.00015941
0.00045177
0.00091602
0.0011163
0.0010979
0.0010314
0.00089009
0.00084301
0.00067577
0.00025267
0.00010499
0.00035605
0.00074929
0.0011984
0.0016195
0.0018709
0.0019225
0.0017276
0.00085561
-0.0005226
-0.0016106
-0.002221
-0.0022592
-0.0018235
-0.0010929
0.00018989
0.0017314
0.0029153
0.0036342
0.0036978
0.0030624
0.0022513
0.0014117
0.00070112
0.00043471
0.00054604
0.0010432
0.0014296
0.0014484
0.0012391
0.00069221
0.0001272
-0.00027591
-0.0007759
-0.0015094
-0.0023597
-0.0029164
-0.0029891
-0.0024867
-0.0015058
-0.00046301
0.0001246
0.00021137
0.0001248
3.9013e-05
-0.00033025
-0.00080458
-0.00065528
0.00020559
0.0012459
0.002146
0.0024518
0.002068
0.0014883
0.00096964
0.00045496
-0.00010813
-0.00055581
-0.00070073
-0.00019653
0.0009237
0.0019336
0.0022343
0.0020576
0.0014901
0.00081514
0.00019076
-0.00087603
-0.0017381
-0.0017438
-0.0012252
-0.0004327
0.0002678
0.0005946
0.00060604
0.00046095
8.5487e-05
-0.00041553
-0.00070365
-0.00079428
-0.00087036
-0.00095485
-0.00091983
-0.0007233
-0.00064755
-0.00069035
-0.00072216
-0.00070891
-0.00046148
-9.9535e-05
0.00022828
0.00059019
0.00088681
0.00094985
0.00055106
-0.0005174
-0.0016494
-0.0025337
-0.003342
-0.0037795
-0.0037214
-0.0032239
-0.0025808
-0.0022451
-0.0016773
-0.00077873
-0.00029724
-0.00039328
-0.0011553
-0.002343
-0.0031752
-0.0034178
-0.0034275
-0.0032126
-0.0023321
-0.00087587
0.00034621
0.0008852
0.00078292
0.00024519
-0.00028968
-0.00056201
-0.00076859
-0.0010904
-0.0013482
-0.0010679
-0.00037826
-0.00014072
-0.00036821
-0.0003613
0.00020616
0.00078313
0.00065807
-0.00016868
-0.00096159
-0.001326
-0.0013653
-0.0011071
-0.0004476
0.00074188
0.0020342
0.0026365
0.0023156
0.0014328
0.0006574
0.00047049
0.00070168
0.0010961
0.0015571
0.0018598
0.0018044
0.0014431
0.0012163
0.0011434
0.00074997
0.00015937
-0.00027875
-0.00020483
0.00050371
0.0013007
0.0017236
0.0017901
0.0017747
0.0018771
0.0018783
0.0016431
0.0013288
0.0010553
0.00097729
0.00099312
0.00098887
0.0010408
0.0010443
0.0011418
0.0012516
0.001062
0.0007653
0.00022061
-0.00048872
-0.0011488
-0.0021047
-0.0029888
-0.0030813
-0.0022096
-0.00063293
0.00066825
0.0013463
0.002056
0.0027583
0.0031297
0.0031396
0.002651
0.0017801
0.0010208
0.00075308
0.00083183
0.00082732
0.00053227
-0.00030961
-0.0015499
-0.0026899
-0.003743
-0.004389
-0.0043992
-0.0040765
-0.0032591
-0.0022933
-0.001433
-0.00049203
0.00014109
0.00037474
2.3181e-05
-0.0011197
-0.0023494
-0.0025434
-0.0016632
-0.00068231
-0.00018955
-0.00016915
-4.2914e-05
0.00054386
0.00096503
0.00086945
0.00062028
0.00043353
0.00038307
0.00044295
0.0007138
0.0012346
0.0014683
0.0011759
0.00075538
0.00038283
-0.00021786
-0.00087436
-0.0013254
-0.0017435
-0.0021305
-0.0023357
-0.0021906
-0.0020285
-0.0020259
-0.0019433
-0.0018008
-0.0015751
-0.0012926
-0.0010878
-0.0011308
-0.0014753
-0.0017726
-0.0017368
-0.0012008
-0.00052648
7.6937e-05
0.00072085
0.0013882
0.0019236
0.0020124
0.0016174
0.0013704
0.0016198
0.0019299
0.0020489
0.0018636
0.0014771
0.0013746
0.0015542
0.0017781
0.001817
0.0014648
0.00089904
0.00043761
-1.036e-05
-0.00071674
-0.0014746
-0.0018643
-0.0017225
-0.0012945
-0.00044396
0.00046008
0.0005605
0.00013301
-0.00045523
-0.0010293
-0.0013921
-0.0018292
-0.0023058
-0.0029487
-0.0036436
-0.0038271
-0.0034234
-0.0026662
-0.0016593
-0.00051902
0.00044532
0.001108
0.0016383
0.0019864
0.0021164
0.0021525
0.0021649
0.0023191
0.0022858
0.0015424
0.00042954
-0.00058183
-0.0011151
-0.0011268
-0.0011401
-0.0012068
-0.0011295
-0.0010202
-0.001247
-0.0019213
-0.0026517
-0.003019
-0.0030141
-0.0025848
-0.0016968
-0.00045332
0.001141
0.0027166
0.0039125
0.0046075
0.0043032
0.0028498
0.00081049
-0.0011394
-0.0026918
-0.0034406
-0.0031244
-0.0026196
-0.0024409
-0.0018399
-0.0010644
-0.00021775
0.000955
0.0018147
0.0024442
0.0026821
0.002455
0.0024976
0.0024176
0.0021251
0.0021882
0.0023112
0.0021219
0.001655
0.0012115
0.00086838
0.00039937
-0.00015237
-0.00067695
-0.0011947
-0.0015239
-0.0015652
-0.001248
-0.00064854
-0.00021742
-0.00022752
-0.00035342
-0.00010652
0.00029453
0.00011579
-0.00035698
-0.00093527
-0.0016354
-0.001978
-0.0019076
-0.0011383
0.00027951
0.0013799
0.0018753
0.0020856
0.0018809
0.0011879
0.00015308
-0.00093598
-0.0016877
-0.0019016
-0.0015791
-0.0011969
-0.00103
-0.001097
-0.0016778
-0.0024243
-0.0028303
-0.0027576
-0.0019303
-0.00050221
0.00071404
0.0017173
0.0026244
0.0029755
0.0026204
0.0019619
0.0012888
0.00058475
0.00031165
0.00055604
0.0004103
-0.00023177
-0.00087759
-0.0012633
-0.00096775
-0.00020466
0.00027657
0.00046062
0.00050194
0.0003997
0.00017872
-0.00030401
-0.0011175
-0.0018022
-0.002143
-0.0024168
-0.0022222
-0.0011257
0.00063042
0.0024945
0.0037348
0.0041494
0.0040613
0.003829
0.0035053
0.0030389
0.0028288
0.0031
0.0037146
0.004188
0.0039553
0.0033315
0.0023746
0.000696
-0.0010458
-0.0020145
-0.0026519
-0.0035372
-0.0044157
-0.0049044
-0.0049711
-0.0049214
-0.004734
-0.0037671
-0.0021392
-0.00073
9.4341e-05
0.00052666
0.00081156
0.0015843
0.0026706
0.0034383
0.0036508
0.003103
0.0022556
0.0015453
0.00072758
0.00012218
-5.066e-06
-4.1275e-05
-0.00016215
-0.00029647
-0.00019656
0.00021814
0.00043156
0.00011691
-0.0004681
-0.0012187
-0.001729
-0.001758
-0.0014187
-0.00059553
0.00037831
0.0010076
0.0010705
0.000777
0.00023375
-0.00071295
-0.001825
-0.0024174
-0.0024106
-0.0023872
-0.0022535
-0.0020266
-0.0018881
-0.0021084
-0.0027606
-0.0031388
-0.0030912
-0.0025956
-0.0017722
-0.00094415
-0.00021276
0.00030333
0.0009324
0.0018245
0.002293
0.0021699
0.001607
0.00036707
-0.001324
-0.002682
-0.0034977
-0.0039516
-0.0037516
-0.0026217
-0.0012528
-0.00036018
0.00024266
0.00064628
0.00065492
0.00044322
0.00016953
-0.00013942
-0.00043304
-0.00031803
8.8826e-05
0.00028412
0.00040506
0.00034743
-6.9185e-05
-0.00071706
-0.001354
-0.0017284
-0.0019978
-0.0021185
-0.0017797
-0.0010491
-0.0004645
-5.9039e-06
0.00065956
0.001405
0.002198
0.0028177
0.0029801
0.0029157
0.0030585
0.0034766
0.0037195
0.0031993
0.0018236
9.8901e-05
-0.0015895
-0.0033222
-0.0048408
-0.0054389
-0.0053687
-0.0047045
-0.0031657
-0.0012449
0.00066816
0.0023353
0.0032374
0.0032369
0.0027297
0.0020504
0.0016129
0.0017664
0.0020815
0.0019582
0.0019375
0.0022027
0.0023033
0.0023292
0.0021613
0.0016959
0.0011204
0.00037643
-0.00045696
-0.00089168
-0.0010561
-0.0012019
-0.0010738
-0.00046692
0.00023951
0.00063884
0.00071063
0.00025631
-0.00013796
0.00016158
0.00062005
0.0009188
0.001166
0.0012554
0.0014134
0.0018421
0.0022967
0.0022642
0.0017731
0.0011863
0.00016384
-0.0012343
-0.002208
-0.0025664
-0.0024559
-0.0020663
-0.0014915
-0.00050497
0.00091118
0.0020129
0.0022358
0.0018614
0.0015198
0.0015231
0.001411
0.0005185
-0.0009507
-0.0022946
-0.0032168
-0.0032982
-0.0025592
-0.0017916
-0.0012255
-0.00071733
-0.00039891
-0.00025579
-0.00036275
-0.00057729
-0.0007884
-0.00092493
-0.00056184
6.4815e-05
0.00041331
0.00088036
0.0015483
0.0021481
0.0024369
0.0021559
0.0017794
0.0015461
0.00084269
-0.00033492
-0.0014978
-0.0021344
-0.0015354
-3.9443e-05
0.0012864
0.0019099
0.002207
0.0023809
0.0024599
0.0023848
0.0016289
0.00061515
-7.6277e-05
-0.00086933
-0.0018696
-0.0026943
-0.0032531
-0.003129
-0.0021618
-0.0010043
1.4122e-05
0.00073204
0.00085029
0.00098352
0.0014814
0.001707
0.0016973
0.0016504
0.0013146
0.00043946
-0.00079626
-0.0019698
-0.0028452
-0.0032462
-0.003122
-0.0030056
-0.0031746
-0.0033315
-0.0031033
-0.0022686
-0.0011557
-0.00059063
-0.0011209
-0.0019436
-0.0023291
-0.0021342
-0.001317
-0.0006435
-0.0002716
0.00052773
0.0012332
0.0015074
0.0016298
0.0013299
0.00088148
0.00074267
0.00042132
-0.00051912
-0.0014296
-0.0018192
-0.001478
-0.00068946
-0.0003155
-0.00045642
-0.00054289
-0.00034355
0.00010599
0.00092604
0.0014403
0.0010858
0.00071105
0.00065385
0.00067041
0.00062206
0.00051266
0.00059577
0.00060296
0.00044185
-6.04e-05
-0.00083045
-0.0013168
-0.0016381
-0.0021024
-0.0023163
-0.0017127
-0.0002962
0.00097159
0.0013008
0.00070923
-9.0744e-05
-0.00042093
-0.00061035
-0.00085188
-0.00087609
-0.00087912
-0.0011489
-0.0014758
-0.0017403
-0.0019917
-0.0020379
-0.0015912
-0.00080965
-0.0001866
0.00022291
0.0004429
0.00060144
0.00089993
0.0013782
0.0017643
0.0015148
0.00078939
0.00014726
-0.00015297
-0.00047848
-0.00074997
-0.00048576
2.0724e-06
0.00050535
0.00076787
8.2784e-05
-0.0010747
-0.0019749
-0.0028263
-0.0036896
-0.0042093
-0.004072
-0.0032382
-0.0020454
-0.0010571
-0.00082817
-0.0013652
-0.0018765
-0.0019376
-0.0019723
-0.0021077
-0.0021445
-0.0019741
-0.0013755
-0.00059088
0.00021074
0.00086624
0.001301
0.0016325
0.0018985
0.0020415
0.0016881
0.00079471
-0.0003561
-0.0017708
-0.0031185
-0.0039943
-0.0042485
-0.0036905
-0.0024771
-0.0010169
6.2548e-05
0.00047034
0.00064893
0.00068693
0.00077212
0.0012507
0.001655
0.0015356
0.0010025
0.0003849
6.2708e-05
-7.1415e-05
-3.7926e-05
-0.00017667
-0.00071995
-0.0011882
-0.0012449
-0.00087251
-0.00035657
7.0846e-05
0.00053386
0.0012523
0.0021473
0.0029002
0.0031244
0.0030044
0.0028481
0.0025968
0.002567
0.002766
0.0026999
0.0022148
0.0014617
0.00067823
0.00010649
-0.00011652
8.7521e-05
0.00065429
0.0012714
0.0015855
0.0016453
0.0013698
0.00073818
0.00013545
-0.00031429
-0.00037179
0.00021037
0.00080648
0.00086053
0.00058335
0.00040735
0.00059814
0.00084842
0.00076522
0.00055753
0.00047202
0.00070519
0.0011711
0.0015179
0.0021018
0.0027806
0.0033328
0.0034006
0.0028123
0.0020483
0.0014099
0.0011999
0.0010364
0.0003372
-0.00043497
-0.0010698
-0.0016125
-0.001686
-0.0011082
-1.2807e-05
0.0011836
0.0021809
0.0030079
0.0032671
0.0027367
0.0014148
-0.00060928
-0.0027052
-0.0039733
-0.0042154
-0.0040997
-0.0037943
-0.0030304
-0.0019424
-0.0012125
-0.0012324
-0.0013912
-0.00093506
1.6996e-05
0.0010246
0.0018455
0.0028083
0.0039027
0.0048412
0.0053916
0.0048813
0.003103
0.0011173
-0.00014235
-0.00097901
-0.0017448
-0.0023402
-0.0028458
-0.0031281
-0.0030213
-0.0030671
-0.003045
-0.0022838
-0.0012707
-0.00061272
-0.00026568
7.548e-05
0.0004903
0.00042156
-0.00022015
-0.00072528
-0.00075098
-0.00023653
0.00056097
0.0011925
0.0016704
0.0019715
0.0018268
0.0012633
0.00046515
-0.00042578
-0.0010492
-0.0013317
-0.0017036
-0.0019835
-0.0016845
-0.00066313
0.00048835
0.00089885
0.00066241
5.7566e-05
-0.0009156
-0.0020821
-0.00299
-0.0036524
-0.0044552
-0.0050502
-0.005018
-0.0044677
-0.0036507
-0.0027991
-0.0020781
-0.0016273
-0.001325
-0.00080787
-0.00015829
0.00048611
0.00068458
0.00041172
0.00012893
-1.838e-05
1.6941e-05
0.00010217
0.00022426
0.00078015
0.0018167
0.0026975
0.0032471
0.0036441
0.0040086
0.0041507
0.0037859
0.0033025
0.0030078
0.0029168
0.0028153
0.0021934
0.0011976
7.2467e-05
-0.0010578
-0.0018063
-0.0022845
-0.002615
-0.0028499
-0.0033918
-0.0038703
-0.0035756
-0.0023124
-0.00073103
0.00089022
0.0025723
0.0034334
0.0036032
0.0036898
0.0031381
0.0019097
0.00069
-0.00028637
-0.0010944
-0.0016333
-0.0020864
-0.0025186
-0.0026914
-0.0027601
-0.0030066
-0.0029902
-0.0022799
-0.0015735
-0.0010399
-0.00028695
0.00021614
0.00048974
0.00094918
0.0013861
0.0016249
0.0014695
0.00093286
0.00036296
-0.00034395
-0.0012293
-0.0021432
-0.0029146
-0.0033797
-0.0032999
-0.0023836
-0.001082
-5.5629e-05
0.00048031
7.4533e-05
-0.0006609
-0.0006606
-0.00038631
-0.00027748
-0.00012355
0.00032421
0.0013247
0.002267
0.0027512
0.0032638
0.0033272
0.0028734
0.0024338
0.0018076
0.0010362
0.00023291
-0.00045694
-0.00082638
-0.0010544
-0.0013746
-0.0014164
-0.0010952
-0.0011701
-0.0016574
-0.0020704
-0.0024805
-0.0023055
-0.0013674
-0.00047598
0.00026884
0.00095544
0.0012293
0.0009749
0.0004612
6.158e-05
2.605e-05
0.00059221
0.0014794
0.00206
0.0021959
0.0020914
0.0019052
0.0017007
0.0017963
0.0021816
0.0025285
0.0026251
0.0025147
0.0024736
0.0022151
0.0015837
0.00048717
-0.00096052
-0.0022126
-0.0029614
-0.0034195
-0.0038574
-0.0037077
-0.0025364
-0.00081115
0.00093718
0.0024786
0.0035454
0.0041543
0.0046421
0.0045625
0.0039249
0.0036914
0.0035624
0.0028753
0.0020392
0.0014331
0.0012467
0.0014264
0.001624
0.0013398
0.0003243
-0.00092068
-0.0018679
-0.0023779
-0.0026307
-0.0025445
-0.0023558
-0.0025974
-0.0027784
-0.0026226
-0.0023377
-0.0016786
-0.00071127
5.2828e-05
0.0003808
0.00010818
-0.00045762
-0.00082938
-0.0012936
-0.0018338
-0.0019705
-0.0015053
-0.00045752
0.00091457
0.0019346
0.0024519
0.0026774
0.0028321
0.0030736
0.0032228
0.0030337
0.0025852
0.0016159
3.7758e-05
-0.0012901
-0.0019407
-0.0020305
-0.0013125
-0.00012126
0.00092877
0.0014912
0.001269
0.00043374
-0.00070695
-0.0019755
-0.0027926
-0.0027129
-0.0022408
-0.0016602
-0.00075389
0.00013674
0.00047419
0.00018935
-0.00029346
-0.00052661
-0.00027858
-2.4794e-05
-8.3046e-05
0.00016629
0.00069418
0.00091223
0.00079634
9.0003e-05
-0.00099552
-0.0018646
-0.0028346
-0.0038736
-0.0043925
-0.0040682
-0.0029279
-0.0016399
-0.00051584
0.00036703
0.00090165
0.0012869
0.0011515
0.00039194
-0.0003588
-0.00091651
-0.0011758
-0.0011323
-0.00099375
-0.0008303
-0.00090791
-0.0015309
-0.0020907
-0.0021588
-0.0018898
-0.0016166
-0.0012606
-0.00075823
-0.00027546
0.00010716
3.4596e-05
-0.00012958
0.00025558
0.00090282
0.001546
0.0021192
0.0026628
0.00355
0.0043371
0.0038628
0.0019853
-0.00028227
-0.0018221
-0.0027065
-0.003387
-0.0041479
-0.0049581
-0.0051477
-0.0040505
-0.0022236
-0.00084444
-0.00022136
0.00016974
0.00083573
0.0015006
0.0020301
0.0024457
0.0026146
0.0030769
0.0037844
0.0042722
0.0041494
0.0036752
0.0032807
0.0027164
0.0017073
0.00069468
0.00017056
0.00010372
0.00025009
0.00040047
0.00036243
0.0001739
0.00039166
0.00096868
0.0016983
0.0025013
0.0032105
0.00369
0.0036648
0.003306
0.0027653
0.0020949
0.0016522
0.0017974
0.0021702
0.0021016
0.0015003
0.00060096
-0.00040569
-0.0013833
-0.001907
-0.0016683
-0.00054917
0.001047
0.0020932
0.0019476
0.00071885
-0.0008629
-0.0019114
-0.0021723
-0.0020142
-0.001628
-0.0011397
-0.00036207
0.00060097
0.00079337
4.7286e-05
-0.00073875
-0.0010551
-0.00070172
2.7805e-05
0.00049906
0.00038825
0.00011708
-0.00022424
-0.0009468
-0.0014536
-0.0012152
-0.00066058
-0.00045657
-0.00076991
-0.0010166
-0.00092683
-0.00064219
-0.00014212
0.00049389
0.0011848
0.0016377
0.0016961
0.0015666
0.0011628
0.00095933
0.00095769
0.00043499
-0.00021307
-0.00038672
-0.00013541
-1.4265e-06
-0.00020844
-0.0005093
-0.00086425
-0.0011909
-0.0017215
-0.0026429
-0.0031426
-0.0025048
-0.0011481
2.7394e-05
0.00061283
0.0008215
0.0011088
0.0012117
0.00048812
-0.00055121
-0.0011156
-0.0014141
-0.0011588
-0.00033035
0.00013043
8.8148e-05
0.00025821
0.00073995
0.0011392
0.0013348
0.0011834
0.00090808
0.00085996
0.00049762
-6.7427e-05
-0.00038243
-0.00055025
-0.00023811
0.00029073
0.0003651
0.00018769
1.1801e-05
-0.00026684
-0.00082661
-0.0013059
-0.0012115
-0.00096821
-0.00096471
-0.0010689
-0.0012529
-0.0013649
-0.0012697
-0.0011015
-0.00091838
-0.00041546
0.00056825
0.0019381
0.0031316
0.0034305
0.0031133
0.0026784
0.0021143
0.0012708
0.00025215
-0.00076544
-0.0017334
-0.0020524
-0.0015145
-0.00061102
0.0005121
0.001386
0.0017544
0.0018705
0.0015854
0.00089957
0.00034692
-0.00014666
-0.00041131
-0.0001894
4.417e-05
0.00039612
0.0010093
0.0014325
0.0012931
0.00085257
0.00044383
0.00023254
0.00030434
0.00056449
0.0008246
0.001007
0.0011908
0.0013431
0.0013946
0.0014496
0.0014789
0.001396
0.0012956
0.00097949
0.0003117
-2.4948e-06
0.00016548
0.00014564
5.7871e-05
0.0001038
-2.6885e-05
-5.9778e-05
0.00025038
0.00068696
0.0010829
0.0011873
0.00076772
-0.00011949
-0.0010863
-0.0019652
-0.0024163
-0.0026368
-0.002904
-0.0028096
-0.0024493
-0.0019158
-0.0011859
-0.00098518
-0.0014631
-0.001895
-0.0020334
-0.0018461
-0.0012853
-0.00078105
-0.00071567
-0.0012026
-0.0019542
-0.0024276
-0.0025062
-0.0025043
-0.0022998
-0.0018597
-0.0013083
-0.00060746
-0.00014168
-0.00011179
-0.00045759
-0.00075828
-0.00068099
-0.00042133
-0.00011435
0.00032661
0.00062007
0.00039955
0.00012853
0.00018602
0.00035691
0.00052811
0.0006452
0.00077924
0.0009187
0.0006308
-9.48e-06
-0.00070156
-0.0014349
-0.0015119
-0.00085484
-0.00020977
0.00019001
0.0002772
9.4466e-05
-0.00016119
-0.00057215
-0.00101
-0.00084119
0.00019524
0.0013719
0.0019481
0.0022808
0.0025881
0.0024221
0.0015744
0.00054272
-0.00017938
-0.00048264
-0.00065241
-0.00077379
-0.00071809
-0.00036296
0.00011475
6.7322e-05
-0.00035108
-0.00025919
0.00056742
0.0015589
0.0020544
0.0021257
0.0021358
0.0019719
0.0012873
9.6079e-05
-0.0010836
-0.0015518
-0.0012788
-0.00073882
-0.00023062
0.00043142
0.0012729
0.0018136
0.0017874
0.0014318
0.0010699
0.0010074
0.0011488
0.0011264
0.0010277
0.00085015
0.00020578
-0.0006406
-0.0010419
-0.00073889
8.653e-05
0.0010348
0.0015621
0.0013619
0.0007004
-0.00010892
-0.0011222
-0.002073
-0.0024869
-0.0022085
-0.001395
-0.00041533
0.00050106
0.001449
0.0022573
0.0027761
0.0029898
0.0026427
0.0020799
0.0015893
0.0011086
0.00090425
0.00076497
0.00028361
-0.00019416
-0.0004626
-0.00065275
-0.00079509
-0.00085774
-0.00087797
-0.00074065
-0.00025758
0.00015133
0.00027828
0.00035153
0.00050043
0.00071796
0.00089519
0.0011244
0.0013588
0.0015258
0.0016484
0.0013835
0.00061279
-0.00034722
-0.0011067
-0.0014025
-0.0011502
-0.00072725
-0.00036778
9.3586e-05
0.00056359
0.00085978
0.00080878
0.0004876
0.00021352
0.0001665
0.00021958
0.00026512
0.00029172
2.2576e-05
-0.00051927
-0.00091782
-0.00096753
-0.00062158
2.9346e-05
0.00062469
0.00072663
0.00036838
0.00013975
0.00011992
0.00018415
0.00043409
0.00058188
0.00059674
0.00055076
0.00024706
-0.00010083
-0.00039529
-0.00084906
-0.0015075
-0.0017852
-0.0011765
-3.7363e-05
0.00084472
0.0011958
0.0013369
0.0014063
0.0012054
0.00067197
-8.5903e-05
-0.0004674
-0.00031176
-0.00037119
-0.00077767
-0.00094498
-0.00081573
-0.00049938
-0.00028578
-0.00044496
-0.00043605
5.8164e-05
0.00073589
0.0011616
0.0011961
0.0010875
0.0009054
0.00057759
0.00037331
0.00054451
0.00076703
0.00080965
0.00071757
0.00041947
0.00014215
6.7e-05
-6.9318e-05
-0.00072768
-0.0015862
-0.0016715
-0.0010909
-0.00052466
-9.5238e-05
0.00049925
0.0012035
0.0014752
0.0011042
0.0004154
0.00019087
0.00063625
0.00098487
0.00080153
0.00024156
-0.00029465
-0.00043241
-0.00049043
-0.0010413
-0.0018875
-0.0023469
-0.0020963
-0.0015851
-0.0014118
-0.0013575
-0.00098329
-0.00042654
-7.8102e-05
0.00016701
0.00074041
0.0018656
0.0031257
0.003547
0.0030393
0.0023697
0.0019411
0.0016065
0.00085694
-0.00033205
-0.0010872
-0.0011535
-0.00089633
-0.00040075
-0.00014271
-0.00033313
-0.00027494
0.00025882
0.00069201
0.001046
0.0014222
0.0017635
0.0020772
0.0019343
0.0011302
0.00013758
-0.00066374
-0.0011299
-0.001212
-0.0009172
-0.00024599
0.00046932
0.00088518
0.00096146
0.00065137
0.00018196
-0.00010548
-0.00011401
0.00030087
0.0010093
0.0015309
0.0016713
0.0014518
0.0008608
0.0001177
-0.00055923
-0.0013996
-0.0023858
-0.0029226
-0.0029235
-0.0025747
-0.0020126
-0.0015392
-0.0010415
-0.00033399
0.00051098
0.0011855
0.0016466
0.0019165
0.0019711
0.0018705
0.0016986
0.0015005
0.0010463
0.00028921
-0.00038259
-0.00070654
-0.00062518
-0.00031236
6.5326e-05
0.00067888
0.0011826
0.001222
0.0012106
0.0012643
0.0011964
0.00092648
0.00041819
-0.00022436
-0.00055083
-0.00063066
-0.00059931
-0.00042203
-0.00026918
-0.00016383
-0.00032542
-0.0007394
-0.0010552
-0.0010539
-0.00077192
-0.00029209
0.00025428
0.00064347
0.00094998
0.001311
0.0015443
0.0015135
0.0013819
0.0011745
0.00098351
0.00096099
0.00076336
0.00032511
-0.00031092
-0.0011141
-0.0017229
-0.0019366
-0.0017802
-0.0013714
-0.0008845
-0.0004418
-0.00020938
-0.00037369
-0.00064044
-0.00052757
-1.7161e-05
0.00056217
0.00096116
0.0012074
0.0014107
0.0014744
0.0013173
0.00093537
0.00018019
-0.00049065
-0.00067509
-0.00065473
-0.00069003
-0.00079398
-0.0010131
-0.0012099
-0.00090008
-0.00037607
8.9104e-05
0.00059035
0.00082169
0.00097769
0.0011167
0.00091686
0.00042505
5.9481e-05
-3.4252e-05
0.00012431
0.00031808
0.00048555
0.00068271
0.00064831
0.00047764
0.00035975
0.00017112
6.9897e-05
0.00019927
0.00047422
0.00077041
0.00088605
0.0005659
-0.00017583
-0.00064926
-0.00049588
-0.0002072
-0.00022632
-0.00059519
-0.00067167
-0.00041603
-0.00021375
5.4583e-06
0.00015812
0.00022172
0.00032779
0.00021874
-0.00024103
-0.00080886
-0.0012813
-0.001406
-0.0010111
-0.00045986
-6.0833e-05
0.00023147
0.00043217
0.00045693
0.00060807
0.00093042
0.0010968
0.0013096
0.0018399
0.0023958
0.0026622
0.0024115
0.0020756
0.0020572
0.0020265
0.0019245
0.0018328
0.0017194
0.0016746
0.0015115
0.0011811
0.00066556
0.00010601
-0.00030885
-0.00046714
-0.00036794
-2.3473e-05
0.00028061
0.00059117
0.00084985
0.00097638
0.0011303
0.0014876
0.0020188
0.0024206
0.0027483
0.0028546
0.0025063
0.0020517
0.0018042
0.0015847
0.001189
0.00072237
0.00035357
0.00028844
0.00051869
0.0006312
0.00030077
-5.7897e-05
-7.4336e-05
0.00010313
0.00023347
0.00015259
3.6781e-05
0.00023624
0.00076333
0.0012206
0.0013487
0.0013377
0.0014766
0.0016056
0.0013202
0.0009297
0.00065076
0.00044837
0.00024353
-2.5527e-05
-0.00019789
-4.0734e-05
0.00029694
0.00043389
0.0002511
5.7472e-05
0.00020733
0.00049084
0.00049447
0.00020741
-4.2655e-05
-0.00028492
-0.00071715
-0.001143
-0.0014052
-0.0012019
-0.00064169
-0.00015805
4.1216e-05
0.00024409
0.00046764
0.00049811
0.00031035
-0.00013087
-0.000407
-0.00038844
-0.00059614
-0.00087797
-0.00098917
-0.001077
-0.0013928
-0.0020251
-0.0026175
-0.0028797
-0.0027058
-0.0022157
-0.0019336
-0.0016276
-0.0011754
-0.00094991
-0.00091324
-0.00089437
-0.00055281
0.00027088
0.0010999
0.0011828
0.00064693
0.00018435
-0.0001335
-0.00036248
-0.00050081
-0.00055954
-0.00038332
7.6192e-05
0.00059434
0.0010816
0.00144
0.0012862
0.00066043
8.4417e-05
-0.00063249
-0.0013531
-0.0014819
-0.0013782
-0.0015382
-0.0016486
-0.0015192
-0.0014403
-0.0014012
-0.0014957
-0.0017501
-0.0017687
-0.0014896
-0.0010313
-0.0003844
0.00027422
0.00076691
0.00097822
0.00078704
0.00041046
4.609e-05
-5.4371e-05
-5.7882e-05
-0.00062557
-0.0014284
-0.0017883
-0.0017139
-0.0014075
-0.0011465
-0.0011687
-0.0013102
-0.0014554
-0.0016531
-0.0018052
-0.0018669
-0.0016929
-0.0010782
-0.00022794
0.00025769
0.00044258
0.00051543
0.00018518
-0.00051246
-0.0011388
-0.0014857
-0.0013287
-0.00067143
-0.00010211
0.00036509
0.00083997
0.00098126
0.00069035
0.00025111
-0.00020843
-0.00065183
-0.00080503
-0.00060032
-0.00037524
-8.9246e-05
0.00034754
0.00057068
0.00046298
0.0001962
-3.6565e-05
-0.00025455
-0.00040407
-0.00033034
-0.00030577
-0.00053689
-0.0010211
-0.0015827
-0.0019003
-0.0019096
-0.0017171
-0.0013161
-0.00073997
3.5446e-07
0.0005609
0.00033963
-0.00035504
-0.00089093
-0.0011725
-0.0011252
-0.0008328
-0.00069171
-0.00074953
-0.00086734
-0.0010809
-0.001428
-0.0016667
-0.0015366
-0.0012318
-0.00089927
-0.00059243
-0.00057768
-0.00082623
-0.0012211
-0.0017958
-0.0019539
-0.0014386
-0.00067518
4.7491e-05
0.00057352
0.00071846
0.00042632
-0.00020501
-0.0010208
-0.0015464
-0.0014258
-0.00087359
-0.00045369
-0.00042274
-0.00021331
0.00018999
0.00061448
0.0011086
0.0017456
0.0026588
0.0028166
0.0021859
0.0017365
0.0016077
0.0012994
0.00097774
0.00082325
0.00061646
0.00025691
9.0753e-05
0.00013686
0.00033066
0.00094627
0.0014968
0.0013771
0.00086996
0.00028623
-0.00027859
-0.00055276
-0.00062907
-0.00065668
-0.00051295
-0.00017686
0.00018969
0.00035971
0.00037753
0.00044761
0.00071731
0.0011914
0.0017286
0.0019312
0.0016629
0.0013501
0.0011284
0.00090766
0.00061855
0.00044559
0.0004552
0.00050898
0.00033809
-0.00015324
-0.00055105
-0.00057961
-0.00028175
0.00010976
0.0005832
0.001027
0.0010574
0.00053658
-0.00015364
-0.00075383
-0.0010685
-0.0008718
-0.0007045
-0.00064806
-0.00033015
-2.5935e-05
8.1924e-05
3.7424e-05
-0.00015814
-0.00042414
-0.00067767
-0.00087621
-0.00087869
-0.00061743
-0.00016108
0.00023022
0.00043426
0.00053752
0.00069794
0.001049
0.0011801
0.00063431
-0.0003175
-0.00099798
-0.00096408
-0.00029951
0.00040586
0.00074425
0.00071978
0.00038058
-3.6663e-05
-0.00021205
-4.3981e-05
0.00010295
0.00014508
0.00034745
0.00049139
0.00048177
0.00040948
0.00014604
-0.00012853
-0.00021591
-0.00017837
-3.5507e-05
9.2602e-05
-0.00015147
-0.00070238
-0.0010374
-0.0010488
-0.00078115
-0.00031703
0.00015084
0.00061759
0.00081112
0.0006107
0.00029087
0.00026028
0.00047687
0.00074069
0.00098038
0.00091875
0.00069891
0.00048001
1.8555e-05
-0.00067597
-0.0011829
-0.0011172
-0.00064427
-0.00017237
0.00010167
0.0001404
0.00013924
0.00022626
9.5846e-05
-0.00025077
-0.00040549
-0.0004551
-0.00070928
-0.00097716
-0.0012377
-0.0016068
-0.001734
-0.0016612
-0.0017607
-0.0019879
-0.0021591
-0.0023125
-0.0024217
-0.0022326
-0.0018005
-0.001337
-0.00085239
-0.00048958
-0.00036675
-0.0002674
-0.00031233
-0.00038435
-0.00024045
-5.8362e-06
0.00030382
0.00059039
0.00057677
0.0003309
0.00025491
0.00030685
0.00025939
0.0001536
-8.0243e-05
-0.00039724
-0.00057806
-0.00059973
-0.00053305
-0.00051646
-0.00065657
-0.0010612
-0.0015203
-0.001889
-0.0022808
-0.0025147
-0.0023579
-0.0020496
-0.0018849
-0.0017406
-0.0016056
-0.0015156
-0.0014004
-0.0012385
-0.00071136
0.00013499
0.00089539
0.0014284
0.0014635
0.00093364
0.00039997
0.00024401
0.00051931
0.0010437
0.0014708
0.0016535
0.0016327
0.0014154
0.00092538
0.00037705
-0.00018118
-0.00080354
-0.0012415
-0.0013645
-0.0011506
-0.00072092
-0.00024125
0.00029232
0.00050912
0.00029897
-4.4992e-05
-0.00044091
-0.0010038
-0.0014956
-0.0014985
-0.0011258
-0.00061036
-0.00018771
-1.4414e-05
8.9422e-05
0.00035074
0.00049865
0.00046973
0.00043132
0.00032215
0.00019957
9.02e-05
0.00017484
0.0004013
0.0004982
0.00046232
0.00036289
0.00030388
0.00024348
7.1777e-05
-0.00014271
-0.00013578
-2.9776e-05
-0.00014489
-0.00036581
-0.00044223
-0.0004053
-0.00042246
-0.00059066
-0.00064168
-0.00052537
-0.00048411
-0.0003954
-0.00024518
-0.00032463
-0.00058781
-0.00080181
-0.00090973
-0.0007801
-0.00035875
0.00023581
0.00078995
0.0010384
0.00086951
0.00053798
0.00042767
0.00051229
0.00054612
0.00036857
0.00011714
-1.3125e-05
-6.2098e-05
3.0832e-05
0.00019721
0.00029072
0.00022274
3.2985e-05
-9.9437e-05
-1.43e-05
4.1779e-05
-4.3608e-05
-4.3661e-05
0.00013757
0.00045686
0.00067399
0.00069732
0.00060075
0.00038137
-7.7075e-05
-0.00078132
-0.0013884
-0.0016934
-0.0018362
-0.0018745
-0.0016209
-0.00090483
7.3027e-05
0.00070904
0.00068356
0.00038743
0.00024614
0.00020148
0.00016958
0.00041822
0.00085998
0.0013285
0.001748
0.001712
0.0013353
0.0011787
0.001202
0.0010741
0.00078474
0.00055973
0.00038791
0.00018114
-0.00010907
-0.00035837
-0.00018917
0.00022591
0.00036792
0.0001553
-0.00031307
-0.00064954
-0.00071912
-0.0007815
-0.00082379
-0.00056542
-5.4825e-05
0.00045543
0.00087734
0.0011704
0.001371
0.0015369
0.0015993
0.0014454
0.0014767
0.0018821
0.0021282
0.0021702
0.0019488
0.0013644
0.00078132
0.00035917
4.1295e-05
2.3782e-05
0.0003163
0.00065538
0.00091128
0.001061
0.0012067
0.0014079
0.0014271
0.0011554
0.00082264
0.00061168
0.00055279
0.00048752
0.00023393
-0.00016408
-0.00032694
-0.00023943
-0.00016992
-0.00016549
-3.2736e-05
0.00027781
0.000635
0.0010778
0.0015224
0.0018553
0.0020436
0.0018513
0.0012565
0.0007891
0.00061544
0.00056134
0.00078459
0.0010391
0.0010543
0.0010009
0.00084692
0.00052128
7.5143e-05
-0.00035679
-0.00077707
-0.0011157
-0.0010395
-0.00057526
-0.00012752
0.00019391
0.00046046
0.00053179
0.00043595
0.00043402
0.00045413
0.00019578
-0.00020371
-0.00061635
-0.0010782
-0.0014337
-0.0016436
-0.0016886
-0.0014601
-0.001014
-0.00044331
7.7921e-06
0.00013773
7.6607e-05
6.6925e-06
-9.9783e-05
-0.00035897
-0.00053778
-0.00052557
-0.00044649
-8.1208e-05
0.00046297
0.00084516
0.00091273
0.00070111
0.00041222
8.6767e-05
-0.00035025
-0.00078074
-0.00097862
-0.00090362
-0.00073323
-0.00059389
-0.00057321
-0.00071218
-0.00067021
-0.00038036
-0.00033738
-0.00053726
-0.0005897
-0.00045271
-0.00036066
-0.00024927
-0.00016745
-0.00024812
-0.00046837
-0.0007088
-0.00081036
-0.00086443
-0.0008008
-0.00047371
0.00012855
0.00067063
0.00083254
0.00078824
0.00064619
0.00048653
0.00043616
0.00039432
0.00025409
9.7392e-05
-9.6371e-05
-0.00028972
-0.00029751
-0.00015752
-3.1506e-05
2.4428e-06
-0.00011742
-0.00025073
-0.00012121
7.2596e-05
-1.8156e-05
-0.00011103
2.5712e-05
0.00010546
0.00015201
0.00031078
0.00030032
9.0201e-05
-0.00018595
-0.00038078
-0.00039447
-0.00022105
0.00035944
0.0010867
0.0013242
0.0011986
0.00091596
0.0007187
0.00055843
6.3101e-05
-0.00029294
-3.3523e-05
0.00057473
0.0010019
0.00099444
0.001098
0.0013779
0.0013578
0.00096347
0.00059675
0.00034595
0.00024648
0.00020553
-1.8237e-05
-7.6278e-05
0.00024586
0.00040996
0.00035369
0.00044083
0.00067394
0.00089218
0.0010568
0.0011943
0.0010869
0.0007527
0.00043212
0.00015575
-0.00012949
-0.00025287
1.51e-05
0.00040706
0.00075429
0.0010913
0.0011006
0.00081785
0.00062195
0.00058881
0.00077063
0.0012092
0.001657
0.0017992
0.001545
0.00091219
5.2997e-05
-0.00089989
-0.0018649
-0.0026991
-0.0031073
-0.0028906
-0.0023289
-0.0019928
-0.0020462
-0.0020334
-0.0018204
-0.001532
-0.0011613
-0.00071636
4.9829e-05
0.0010265
0.0018574
0.0023839
0.0024287
0.0021025
0.0015764
0.00080304
-9.1829e-05
-0.00084405
-0.0014233
-0.0017594
-0.0016495
-0.0011954
-0.00068859
-0.00039492
-0.0003849
-0.00035464
-0.00040475
-0.00036859
3.1623e-05
0.00026109
0.00039935
0.00097944
0.0016013
0.0017737
0.0014399
0.00060205
-0.00045479
-0.0012587
-0.0016171
-0.0016578
-0.0014732
-0.0011165
-0.00076998
-0.00048334
-0.00040898
-0.00048661
-0.00042182
-0.00026014
4.5082e-05
0.00047621
0.0008464
0.0010627
0.0011818
0.0012646
0.001233
0.0010953
0.0011702
0.0014371
0.0014443
0.0012344
0.0010019
0.00059019
4.7929e-05
-0.00015842
-0.00019377
-0.00033297
-0.00048965
-0.00073628
-0.00087151
-0.00096579
-0.0011844
-0.0013138
-0.0013942
-0.0014422
-0.0012148
-0.00087823
-0.00080633
-0.00098524
-0.0013079
-0.0015502
-0.0014028
-0.00079226
-0.00012536
0.00035598
0.00081126
0.0013086
0.0015515
0.0013527
0.0010279
0.0008126
0.00053674
0.00018206
-3.6657e-06
-5.4688e-05
5.6695e-05
0.00014755
0.00010571
0.00028356
0.00077642
0.0012014
0.001157
0.0005749
-7.2813e-05
-0.00030047
-0.00018193
-2.3761e-05
1.9898e-05
0.00016018
0.00061967
0.0010142
0.0009959
0.00069283
0.00014768
-0.00021399
-0.00030397
-0.00044756
-0.00065467
-0.00072649
-0.00064834
-0.00040187
-0.00010246
0.00013409
0.00023913
5.024e-05
-0.0002622
-0.00050832
-0.00051161
-0.00024234
0.00027871
0.00090222
0.0014564
0.0021349
0.0029513
0.0037172
0.0043221
0.0046008
0.0042977
0.0036327
0.0029314
0.0022531
0.0015314
0.0007833
-8.0525e-05
-0.00083112
-0.0012536
-0.0015539
-0.0017403
-0.0018049
-0.0019219
-0.0021077
-0.0023135
-0.0025854
-0.0026255
-0.0022045
-0.0015839
-0.00093178
-0.00045212
-6.0561e-05
0.00040434
0.00077269
0.00096683
0.0011016
0.0010805
0.00093747
0.00091975
0.0011408
0.0013372
0.0013634
0.0012919
0.0011034
0.00067551
-4.8366e-05
-0.001025
-0.0021021
-0.0026359
-0.0022403
-0.0013172
-9.5331e-05
0.00076582
0.0010006
0.00079208
0.00043217
0.00027352
0.00023283
8.1872e-05
-0.00020494
-0.00034735
-0.00027229
-0.00016142
-9.573e-05
-0.00023729
-0.00081232
-0.0017646
-0.00268
-0.0034541
-0.0040084
-0.0041758
-0.0039121
-0.0030537
-0.0017549
-0.00039776
0.0007768
0.0017255
0.0019563
0.0013129
0.00035262
-0.00061243
-0.0014051
-0.0016792
-0.0015263
-0.0013547
-0.0012241
-0.0012866
-0.001622
-0.0019532
-0.0020651
-0.0018561
-0.0013828
-0.00088654
-0.00039819
0.00031118
0.0011105
0.0016981
0.0018613
0.001808
0.0016381
0.0011228
0.00040147
-3.4548e-05
-0.00021018
-0.00017874
-8.0832e-05
-0.00012083
1.513e-05
0.00020163
0.00020576
6.2736e-05
-0.00012126
-0.00036659
-0.00050412
-0.00047759
-0.00043058
-0.00028362
3.0738e-05
0.00050159
0.00091008
0.0013033
0.0015328
0.0013903
0.00087392
0.00021356
-0.00018123
-0.00024752
-0.00014071
-0.00013574
-0.00011199
0.00021203
0.0005801
0.00073077
0.00065614
0.0002349
-0.00021994
-0.00057545
-0.00078665
-0.00065274
-0.00032081
-4.294e-05
0.0001832
0.00053303
0.00084541
0.00098305
0.00089707
0.00068144
0.00051937
0.00054545
0.00073369
0.00096283
0.0010956
0.00095881
0.00068134
0.00043592
0.00017179
-0.00015274
-0.00029653
-0.00032262
-0.00050075
-0.00062481
-0.00053442
-0.00020565
0.00028493
0.00076139
0.0011784
0.0015178
0.0018529
0.0021359
0.00243
0.0029085
0.003209
0.0029414
0.0021542
0.0012009
0.00055165
0.00027835
1.2426e-05
-0.00018151
-0.00010633
-1.6958e-05
-2.5274e-05
2.8829e-05
0.00010551
0.00017624
0.00036855
0.00065638
0.00097057
0.0011774
0.0010898
0.00086698
0.00076854
0.00058503
0.00048634
0.00074574
0.0010619
0.0011663
0.00094327
0.00054862
0.00023959
1.2258e-05
-0.00020389
-0.00039022
-0.00065886
-0.0009441
-0.00089273
-0.00041212
0.00028852
0.0007899
0.00090509
0.0009704
0.0010633
0.00091089
0.00043389
-0.00016607
-0.00057545
-0.00058581
-0.00010292
0.00065946
0.0014308
0.0019363
0.002048
0.0021334
0.0022274
0.001906
0.0013389
0.00068819
1.5267e-05
-0.00036495
-0.00049728
-0.00075325
-0.00087246
-0.0007973
-0.00087802
-0.0011359
-0.0013802
-0.0014499
-0.0012776
-0.00065678
0.0003795
0.0014768
0.0023004
0.0027026
0.0028114
0.0025599
0.0020099
0.001514
0.001069
0.00060916
0.00043569
0.00065045
0.0010017
0.0011703
0.0011013
0.00087174
0.00064299
0.00066179
0.00064471
0.00043396
0.00041536
0.00060026
0.00072996
0.00086768
0.00092327
0.00090175
0.0010733
0.0012263
0.0011877
0.00092259
0.00057933
0.00034547
6.7288e-05
-0.00017248
-0.00040349
-0.00064034
-0.00092638
-0.0012472
-0.0013847
-0.0011558
-0.00060919
1.4288e-05
0.00061647
0.0010833
0.0013106
0.0011977
0.00099451
0.00062312
4.7335e-05
-0.00016149
0.00011223
0.00052603
0.00072701
0.00058003
0.00019654
-0.00027841
-0.0007591
-0.0010456
-0.0012423
-0.001408
-0.001301
-0.0010422
-0.00079818
-0.00068248
-0.00060259
-0.00042131
-0.00029794
-0.00029504
-0.00048116
-0.00075688
-0.00087864
-0.00087895
-0.00066343
-0.00034876
-0.00019922
-4.9992e-05
7.7606e-05
-0.00011054
-0.00070625
-0.0015247
-0.0019523
-0.0017723
-0.0011674
-0.00055694
-0.00013313
0.00021927
0.00050926
0.00060187
0.00037739
0.00021524
0.00024091
0.00028063
0.00026139
0.00026882
0.00038086
0.00059374
0.00071408
0.00064483
0.00042231
-3.6853e-05
-0.00066283
-0.0012319
-0.0016237
-0.0017465
-0.0016479
-0.0014806
-0.0011195
-0.00057595
-0.00010322
0.00032682
0.00068918
0.00096112
0.0010879
0.00094828
0.00074255
0.0005994
0.00052965
0.00038574
0.00032261
0.00060731
0.00099091
0.001158
0.001101
0.00098281
0.00088661
0.00066662
0.00029449
-0.00012239
-0.00038617
-0.00024586
-4.3772e-05
-0.00032482
-0.00077081
-0.00087027
-0.00075118
-0.00067397
-0.00079594
-0.00095843
-0.00069453
-0.00023153
6.8102e-05
0.00027259
0.00038163
0.00066961
0.0010807
0.001383
0.0015843
0.0015809
0.0012459
0.00093446
0.00082316
0.00074647
0.00065232
0.00056607
0.00047704
0.00022847
-9.6726e-05
-0.00041294
-0.00092244
-0.0013464
-0.0013502
-0.0011329
-0.0010161
-0.0010959
-0.001111
-0.0010204
-0.00087319
-0.00069063
-0.00041456
0.00010569
0.00071566
0.0010287
0.0010476
0.00075686
8.3043e-05
-0.00071999
-0.001284
-0.0014402
-0.0012768
-0.00077956
0.00014943
0.0011449
0.0016346
0.0016508
0.0013064
0.00076749
0.00038888
-3.5508e-05
-0.00040259
-0.00044814
-0.00043884
-0.00027213
2.2429e-05
0.00029419
0.00034129
0.00044479
0.00063167
0.00064922
0.0005536
0.00018404
-0.0003629
-0.00078884
-0.0013776
-0.0015774
-0.0012353
-0.00081227
-0.00031406
0.00047647
0.0013519
0.0017924
0.001645
0.0012679
0.00096924
0.00088388
0.0010109
0.0010683
0.0010208
0.00096953
0.00069267
0.00026516
2.2827e-05
4.9651e-05
0.00035706
0.00071432
0.00068768
0.00022889
-0.00037196
-0.00094137
-0.001344
-0.0015642
-0.0016227
-0.0013652
-0.00095984
-0.00066524
-0.00043691
-0.00013484
0.00031513
0.00078138
0.00099011
0.00082549
0.0005016
0.00037036
0.00026192
0.0001399
5.6642e-05
-0.00016555
-0.00027039
-0.00029991
-0.00023083
-7.631e-05
-0.00021114
-0.00043274
-0.00070602
-0.0011122
-0.0012305
-0.00094141
-0.00037419
0.00030034
0.00066597
0.00075636
0.00084808
0.00095505
0.0010788
0.0011373
0.0010173
0.00085587
0.00072336
0.0006597
0.00061399
0.00051244
0.00038434
5.4594e-06
-0.00054423
-0.00082233
-0.0011101
-0.0014251
-0.0016994
-0.00181
-0.0016813
-0.0013143
-0.00039381
0.00082262
0.0014415
0.0013977
0.00092309
0.00027807
-0.00024357
-0.00066611
-0.00099956
-0.0011236
-0.0010987
-0.0010775
-0.001322
-0.001553
-0.0015108
-0.0015148
-0.0015927
-0.00148
-0.0010907
-0.00063045
-0.00011629
0.00036355
0.00032021
-0.00029934
-0.00072071
-0.0008475
-0.00087856
-0.00082279
-0.0011079
-0.0012846
-0.0010339
-0.0005062
3.0892e-05
0.00026584
0.00046849
0.00047338
0.00015108
0.0001876
0.00040659
0.00030881
0.0001526
8.517e-05
0.00022549
0.00051765
0.00092899
0.0011448
0.00096279
0.00072325
0.00057224
0.00053053
0.00056312
0.00059043
0.00048953
0.00030401
0.00026763
0.00027091
-5.5157e-05
-0.00051604
-0.0007121
-0.00067351
-0.00051444
-0.00029995
0.00011801
0.00068821
0.0010156
0.00097424
0.00070437
0.00066582
0.0009115
0.0012082
0.0014427
0.0011689
0.0006321
0.00036131
0.00013962
-0.0001622
-0.0003332
-0.00038242
-0.0003516
-0.0004292
-0.00056475
-0.00054644
-0.00043226
-0.00043843
-0.00051345
-0.00038338
-2.1244e-05
0.00021921
0.0002704
0.00029654
0.00017718
0.00017957
0.00050938
0.00099418
0.0014819
0.0016489
0.0016336
0.0016381
0.0014687
0.00087663
0.00021106
-0.00021201
-0.00048696
-0.00064041
-0.00054614
-0.00034869
-0.00013677
0.00026524
0.00064794
0.00072566
0.00062925
0.00048546
0.00031607
0.00037723
0.00068248
0.00085182
0.00094848
0.0010488
0.00091874
0.00059777
0.00041305
0.00043529
0.00050565
0.00048583
0.00045702
0.00044478
0.00030068
0.00023457
0.00038626
0.0003822
0.0002011
0.00013473
8.0401e-05
-8.4583e-05
-0.0002759
-0.00036149
-0.00020171
-0.00017181
-0.00027309
-0.00034095
-0.00034576
-0.00041786
-0.00045474
-0.00040126
-0.00015887
0.00023291
0.00044398
0.00050654
0.00045945
0.00014152
-0.00027543
-0.00039901
-0.00014149
0.00020571
0.0004605
0.00049519
0.00029829
-1.2006e-05
-0.00041883
-0.00081184
-0.00094603
-0.00072667
-0.00015434
0.00031099
0.00034251
0.00015086
4.8825e-05
0.00014777
0.00042723
0.00060653
0.00072353
0.0010388
0.0012432
0.0011448
0.00091022
0.00065442
0.00048149
0.00025882
-3.5731e-06
-9.2776e-05
-4.6254e-05
-0.00010423
-0.00025233
-0.00043495
-0.00049656
-0.00031933
-0.00014303
-0.00017309
-0.00033506
-0.00051258
-0.00063857
-0.00061321
-0.00043908
-0.0001889
8.9636e-05
0.00035238
0.00052979
0.0005968
0.00062516
0.00051033
0.00037354
0.00033238
0.00035244
0.00027036
3.8746e-05
-0.00026739
-0.00062472
-0.00088061
-0.00094499
-0.00092734
-0.00076505
-0.00042299
-0.00013965
-4.447e-05
6.2347e-05
0.00013873
8.5986e-05
4.4268e-05
-0.00010423
-0.00032083
-0.00038061
-0.00050252
-0.00042293
1.7434e-06
0.00022186
6.8659e-05
-0.0002741
-0.00064139
-0.00071558
-0.0004742
-0.00014674
0.00021739
0.00047429
0.00058133
0.00071772
0.00082305
0.00067969
0.00021661
-0.0003615
-0.0011151
-0.0018074
-0.0018785
-0.0015992
-0.0017226
-0.0015747
-0.00080352
-0.00013388
0.00019333
0.00038401
0.00042211
0.00029348
0.00011214
-0.00018283
-0.00060796
-0.0008998
-0.00087827
-0.00059721
-0.00052989
-0.00088468
-0.0012267
-0.001403
-0.0014578
-0.0012238
-0.00061881
0.00021397
0.00080069
0.00089737
0.00058001
0.0002278
0.00019207
0.00018671
-0.00012046
-0.00048525
-0.00060567
-0.00049892
-0.00033837
-0.00029826
-0.00046508
-0.00064037
-0.00079699
-0.00088822
-0.0010089
-0.0011863
-0.0013556
-0.0014151
-0.001082
-0.00057892
-0.0002186
-9.9303e-05
-0.00026476
-0.00044112
-0.0006238
-0.00094041
-0.0011035
-0.0010002
-0.00074361
-0.00046521
-8.9939e-05
0.00030888
0.0006134
0.00078222
0.00076201
0.00069019
0.00053737
0.00032822
0.00032321
0.00057065
0.00070255
0.00060713
0.00043557
0.00031448
0.00023617
0.00023236
0.0004062
0.00064669
0.00078983
0.00073395
0.00060211
0.00037054
4.3272e-05
-0.00024063
-0.00036582
-0.00032402
-0.00023047
-9.2315e-05
7.6583e-05
0.00024818
0.00040652
0.00045388
0.00048677
0.00053313
0.00064274
0.0008199
0.00082156
0.00077391
0.00070687
0.00058782
0.00048568
0.00033234
0.00010485
2.0327e-05
-0.00010814
-0.00018252
-0.00013098
-0.00021726
-0.00049387
-0.00072362
-0.00091476
-0.00096446
-0.00072638
-0.00052643
-0.00042117
-0.00042403
-0.00044372
-0.00036466
-0.00021967
-0.00015175
-7.8678e-05
0.00011591
0.00024815
0.00020716
8.1829e-05
0.00014838
0.00029571
0.00042048
0.00053884
0.00059036
0.000853
0.0010795
0.00081845
0.00023332
-0.00026704
-0.00050781
-0.00047933
-0.00044189
-0.00045755
-0.00045839
-0.00042847
-0.00042179
-0.00035089
-0.00023356
-0.0001211
6.7655e-05
0.00032814
0.00038679
0.00026305
9.629e-05
-9.1724e-05
-0.00023745
-0.00036463
-0.00051683
-0.00052631
-0.00040858
-0.00026439
-5.2155e-05
9.4686e-05
0.00013439
0.00016392
0.00016239
8.0235e-05
-4.1168e-05
-0.00016774
-0.00026794
-0.0003713
-0.00045496
-0.00041345
-0.00022864
8.4111e-06
0.00018068
0.00032452
0.00045498
0.00045612
0.00023624
-4.1582e-05
-0.00019393
-0.00022397
-0.00025469
-0.00022146
-0.00017274
-0.00023775
-0.00028115
-0.00028711
-0.0003405
-0.00041394
-0.00033588
-0.00024499
-0.00019295
-8.137e-05
0.00017603
0.00042692
0.00041254
0.00029894
0.00012547
-0.00011347
-0.00020339
-0.0001798
-0.00021449
-0.00031318
-0.00039445
-0.00041688
-0.00046731
-0.00037914
-0.00018104
-2.0927e-06
0.00015162
0.00016217
8.7222e-06
-0.0002244
-0.00031152
-0.00024395
-0.00017013
-9.1046e-05
-8.7463e-07
6.199e-05
9.4467e-05
0.00010799
0.00012186
9.6149e-05
9.0657e-05
0.00010158
6.8438e-05
6.8038e-05
4.6531e-05
-0.00013215
-0.00033271
-0.00041871
-0.0004027
-0.0002676
-4.4646e-06
0.00031618
0.00056964
0.00075935
0.00076217
0.00057588
0.00038608
0.00027964
0.00025053
0.00019723
0.00016693
0.00024464
0.00039139
0.00056706
0.00062566
0.00043602
0.00010907
-0.00012853
-0.00029383
-0.00042227
-0.00034208
-0.00014598
-1.9538e-07
5.4043e-06
-6.802e-05
-0.00015976
-0.00017309
-9.3036e-05
-0.00011124
-0.00016497
-9.5609e-05
-6.4682e-05
-0.00011759
-0.00018475
-0.00022466
-0.0001978
-2.4021e-05
0.00014287
0.00015282
4.4306e-05
-7.9056e-05
-0.0001461
-0.00014175
-3.2466e-05
9.1561e-05
3.3381e-05
-7.9143e-05
-0.00011877
-0.00015804
-0.00025886
-0.00023797
-4.5048e-05
8.1597e-05
3.6315e-05
-0.00013191
-0.00036572
-0.00046627
-0.00034438
-0.00024117
-0.00022813
-0.00015326
-1.1846e-05
0.00012993
0.00015166
-5.6155e-06
-0.00017281
-0.00020735
-0.00011981
-5.0171e-05
-7.9045e-06
0.00012488
0.00025307
0.00024213
0.00013106
7.2885e-05
8.9375e-05
0.00016535
0.00021202
0.00020568
0.00022223
0.0002374
0.00029038
0.00027845
0.00015458
-1.4067e-05
-0.00013643
-0.0001119
-2.6336e-05
3.4131e-05
0.00010884
0.00019248
0.0002212
0.00021842
0.00020122
0.00020347
0.00029035
0.00052126
0.00065765
0.00055494
0.00028629
2.3041e-05
6.9915e-06
0.00010555
0.00014099
0.00023657
0.0002829
0.00023785
0.0001401
5.395e-06
-0.00015826
-0.00022286
-0.0001412
6.5415e-07
0.00012393
0.00013297
0.00010151
0.00012461
0.00016524
0.00017121
0.00014058
0.00013081
0.00012085
6.749e-05
-7.5326e-05
-0.00032806
-0.00050671
-0.00048293
-0.00028344
-0.00011564
-0.00010359
-0.00017133
-0.00020708
-0.00021362
-0.00022453
-0.00023431
-0.00018535
-0.0001752
-0.00026712
-0.00038037
-0.00048294
-0.00046923
-0.00026639
-2.3996e-05
0.00013791
0.00022483
0.00018236
2.6273e-05
-0.00013779
-0.00022354
-0.00021696
-0.00015164
-0.00014237
-0.00019864
-0.00025186
-0.00024216
-0.00022239
-0.00018684
-0.00011201
-4.5169e-05
-0.00011372
-0.00026674
-0.00044535
-0.00064094
-0.0006944
-0.0005781
-0.00038097
-0.0001649
1.2187e-05
0.00013668
0.00017942
0.0001199
-3.6826e-05
-0.00016938
-0.00017561
-8.4797e-05
8.505e-05
0.00020089
0.00024529
0.00029305
0.00037534
0.00037065
0.00020261
7.5166e-05
0.0001136
0.0001678
0.00010911
-3.206e-05
-0.00013471
-0.0001502
-9.5802e-05
-8.9879e-05
-0.00018149
-0.00030786
-0.00047455
-0.00073269
-0.0010853
-0.0013521
-0.0014338
-0.0013
-0.001094
-0.00093455
-0.00068181
-0.00037892
-0.00016663
3.2986e-06
0.00014495
0.00029375
0.00042076
0.00045094
0.00030281
9.005e-05
6.278e-05
0.00015897
0.00025594
0.00034813
0.00039469
0.00036783
0.00030879
0.00017423
-2.8877e-05
-0.00012438
-8.8126e-05
5.4962e-05
0.00025736
0.00039105
0.00046234
0.00047953
0.00040891
0.00028615
0.00021034
0.00019747
0.0002151
0.00025396
0.00023491
0.0001194
-4.1338e-05
-0.0001208
-0.00010473
-1.7869e-05
0.00013869
0.00029142
0.00039793
0.00039697
0.00031928
0.0002233
0.00012905
8.3472e-05
3.4695e-05
-2.7934e-05
-3.8283e-06
4.5279e-05
6.4608e-05
7.5518e-05
6.3357e-05
3.1444e-05
-1.0641e-05
-0.000142
-0.00034804
-0.00045154
-0.00042167
-0.00032197
-0.00016676
6.3961e-05
0.00025915
0.00029908
0.00020533
3.367e-05
-0.0001078
-0.00014649
-0.00014206
-7.5101e-05
2.1042e-05
8.4769e-05
0.00015556
0.00018792
0.00014421
2.5655e-05
-6.3349e-05
-0.00010823
-0.00014471
-0.00013841
-5.5077e-05
1.0466e-05
1.9055e-05
2.991e-05
3.9419e-06
-4.0082e-06
4.4493e-05
8.9998e-05
0.00010012
5.5681e-05
-2.2024e-05
-0.0001266
-0.00022563
-0.00028567
-0.00029004
-0.0002043
-1.6189e-06
0.00017517
6.7363e-05
-0.00010205
-0.00019098
-0.00021305
-0.00021986
-0.00029853
-0.00044658
-0.00046406
-0.00038312
-0.00032836
-0.00034925
-0.00044916
-0.00060906
-0.00073668
-0.00080184
-0.00092559
-0.00098028
-0.0006933
-0.00024591
0.00014396
0.00042735
0.00060374
0.00059956
0.000471
0.00029072
-1.6103e-05
-0.00021527
-0.00023605
-0.00025445
-0.00027029
-0.00023985
-0.00023832
-0.00033296
-0.00036491
-0.00045211
-0.0004234
-0.00013883
0.00012009
0.00022449
0.00023077
0.00028519
0.00050393
0.00063867
0.00057014
0.00053172
0.00063712
0.00054855
0.00029272
4.6584e-05
-0.00011078
-8.601e-05
0.00013658
0.00027359
0.00040072
0.00046348
0.00048009
0.0006544
0.00079141
0.00074993
0.00065525
0.00049624
0.00031428
0.00011682
-0.00012743
-0.00012273
-3.0569e-05
-7.1585e-05
-4.7648e-05
-2.4909e-05
-4.8069e-05
-5.4793e-06
0.00016621
0.00024582
0.00022612
0.00023274
0.00033165
0.00042896
0.00038779
0.0001981
-2.2494e-05
-0.00015553
-8.1833e-05
0.00015122
0.0002124
0.00018415
0.00029489
0.00029214
0.00023127
0.00019512
0.0001117
2.6431e-05
-0.00017393
-0.00036594
-0.00039767
-0.00042808
-0.00045358
-0.00035457
-0.00013532
7.9371e-05
0.00015493
6.4948e-05
-2.0817e-06
0.00010962
0.00024131
0.00017115
-0.00012089
-0.00040808
-0.00029362
0.00015252
0.00037054
0.00033887
0.00038952
0.00044257
0.00048904
0.00049414
0.00033654
6.2103e-05
-0.00023879
-0.00048595
-0.00072856
-0.00088506
-0.00088532
-0.00094246
-0.0010745
-0.0011373
-0.0012266
-0.0012719
-0.001024
-0.00076385
-0.000653
-0.00056905
-0.00044534
-0.00030988
-0.00018021
2.8496e-05
0.00025171
0.00048524
0.00074752
0.00080847
0.00074346
0.00061624
0.00042562
0.00033985
0.00027146
0.00015447
2.908e-05
-0.00026188
-0.00058679
-0.00077869
-0.00072064
-0.00050219
-0.00030135
-0.00016223
-5.3352e-05
7.5379e-05
0.00022591
0.00028567
0.00025435
0.00019974
8.5238e-05
3.9863e-05
9.2502e-05
0.00010829
3.8868e-05
-7.3365e-05
-0.00026503
-0.0004453
-0.00034698
3.7884e-05
0.00056479
0.00092992
0.00088431
0.00062547
0.00031204
-0.00012749
-0.00047935
-0.00047719
-0.00032676
-0.00018835
-0.0001373
-0.00014948
-0.0001591
-0.00019315
-0.00028966
-0.0003069
-0.00023429
-0.00014222
-6.6918e-05
-7.4121e-05
-5.5521e-05
2.7786e-05
9.8896e-05
8.0798e-05
9.9503e-05
0.00019016
0.00024496
0.00024093
0.00018627
0.0001089
4.2813e-05
-5.872e-06
-6.3472e-05
-4.0134e-05
3.6181e-05
8.7247e-05
8.3061e-05
3.7405e-05
3.2652e-05
8.4808e-05
0.00012096
5.3768e-05
3.1568e-05
0.00015576
0.00027723
0.00031535
0.00032433
0.00038951
0.00041628
0.00032183
0.00015563
7.463e-05
0.00015158
0.00029229
0.0004419
0.00047081
0.0004466
0.00045318
4.3343e-05
-0.00069935
-0.0011041
-0.0010061
-0.00075787
-0.00052744
-0.00027892
-0.00023904
-0.00034351
-0.00032065
-0.00044958
-0.00062848
-0.00049866
-0.00024797
-2.8515e-05
0.00021251
0.00029433
0.00019846
1.7159e-05
-0.00034521
-0.00054131
-0.00023023
0.00017433
0.00042326
0.00053932
0.0005509
0.00058395
0.00054402
0.00034981
0.00025115
0.00023385
0.0002008
0.00012063
-5.2908e-05
-0.00017488
-0.00021662
-0.00022823
-0.00027026
-0.00040815
-0.0004496
-0.0003267
-0.00023011
-0.00026707
-0.00037207
-0.0004938
-0.00062162
-0.00066713
-0.00077202
-0.00093488
-0.0009718
-0.0008984
-0.00081624
-0.00074596
-0.00065906
-0.00061493
-0.000638
-0.00081611
-0.0010929
-0.0011664
-0.00098282
-0.0007469
-0.00056067
-0.00043191
-0.00039265
-0.00045239
-0.00063642
-0.00079545
-0.00072691
-0.00050304
-0.0002705
-0.00013184
-9.1471e-05
-0.00013124
-0.00023523
-0.00044784
-0.0007182
-0.0007072
-0.00039776
-7.7746e-05
0.00012174
0.00010023
-4.8252e-05
-0.00017284
-0.00027595
-0.0004655
-0.00059899
-0.00049557
-0.00026366
-7.77e-05
-1.1949e-05
7.5269e-05
0.00025677
0.00048794
0.0005919
0.00051842
0.00052766
0.00062985
0.00074792
0.00083559
0.00084255
0.00077895
0.00073831
0.00067505
0.00053982
0.00048044
0.00050711
0.00055589
0.00063608
0.00071284
0.00071708
0.0006267
0.00048516
0.00031398
0.00023971
0.00028363
0.00033845
0.00038375
0.00042655
0.00046177
0.00047838
0.00036
0.00015983
0.00011108
0.00021835
0.00037696
0.0005057
0.00065391
0.00076041
0.00081509
0.00096705
0.00099716
0.0008954
0.00092946
0.00094858
0.00083284
0.00064738
0.00039035
0.00015505
0.00010172
0.00019224
0.0003564
0.00057141
0.00065277
0.00048876
0.00024209
2.2866e-05
-4.3823e-05
3.0229e-05
5.5348e-05
-7.7487e-05
-0.00016595
-0.00016155
-0.00021349
-0.00034234
-0.00036699
-0.00024947
-0.00016639
-0.00012782
-0.00017955
-0.00026726
-0.00026734
-0.00021678
-0.00017028
-5.4088e-05
5.7707e-05
6.3081e-05
1.9881e-05
-0.00013692
-0.0002945
-0.00025239
-3.7976e-05
0.00020462
0.00032006
0.00031105
0.00022212
5.2361e-05
-0.00012745
-0.00027473
-0.00030149
-0.00015785
1.5668e-05
8.8439e-05
9.9307e-05
7.2256e-05
5.5767e-05
5.6139e-05
-6.1988e-06
-2.5746e-06
8.2247e-05
0.0001783
0.00023379
0.00018821
7.671e-05
-6.8503e-06
-1.1427e-05
-1.6996e-05
-6.2126e-05
-3.6361e-05
1.9003e-05
5.9837e-06
-5.7568e-05
-0.0001003
-0.00012616
-0.00010821
-0.0001609
-0.0003404
-0.00038793
-0.00029849
-0.00022398
-0.00014708
-6.9971e-05
-4.2514e-05
-1.5355e-05
-5.5442e-05
-0.00025297
-0.00039686
-0.00041502
-0.00042782
-0.00041377
-0.00034793
-0.0002974
-0.00028689
-0.00030085
-0.00039304
-0.00047484
-0.00039273
-0.00023376
-0.00011364
-6.1805e-05
-5.7605e-05
-0.0001158
-0.00018323
-0.00027991
-0.000387
-0.00032747
-0.00012418
7.0412e-05
0.00019317
0.00026317
0.00027443
0.00024845
0.00019169
7.1493e-05
-2.3317e-05
5.4069e-06
0.00010864
0.00019297
0.00018353
0.00013654
0.00010399
0.00011313
0.0001177
5.0558e-05
5.2378e-05
0.00013539
0.00016643
0.0001846
0.00020761
0.00019398
0.00017606
0.00015441
3.4151e-05
-0.00014219
-0.0002046
-0.00017244
-0.0001521
-0.0001317
-7.035e-05
-3.5782e-05
-4.1186e-05
-0.00012705
-0.00026322
-0.00027131
-0.00017089
-7.1454e-05
-9.0352e-06
3.7833e-05
7.6438e-05
8.6384e-05
3.6127e-05
-0.00010706
-0.0002355
-0.00020759
-7.0568e-05
5.0371e-05
8.9776e-05
5.8881e-05
-8.7368e-06
-7.6033e-05
-0.00010854
-0.00013335
-0.00012418
-2.9743e-05
7.6474e-05
0.00011194
7.2617e-05
7.3014e-06
-6.9726e-05
-0.00010682
-0.00010969
-0.00011009
-0.00010616
-6.0697e-05
4.5843e-06
3.3259e-05
5.3866e-05
9.8538e-05
0.00013444
0.00015949
0.00012004
-1.2069e-06
-5.6316e-05
-3.3008e-05
-2.5972e-05
-4.2691e-05
-4.7978e-05
1.3924e-05
7.7507e-05
9.7575e-05
7.8604e-05
-6.9978e-06
-3.7971e-05
1.7882e-05
0.00011669
0.00021514
0.00027611
0.00030186
0.00026413
0.00018341
1.227e-05
-0.00018072
-0.00014971
-2.9437e-05
7.5062e-05
0.00019328
0.00027459
0.00030062
0.00027219
0.00018318
6.4532e-05
-2.4083e-05
1.658e-05
0.0001407
0.00022516
0.0002359
0.0001559
3.6603e-05
-4.3173e-05
-6.3807e-05
-6.4819e-05
-6.534e-05
2.9787e-06
9.7298e-05
0.00014335
0.00013657
0.00013045
0.00015114
0.00018714
0.00017624
0.00010381
7.0138e-05
0.00012187
0.00015769
0.00016998
0.00020398
0.00026717
0.00033617
0.0003675
0.00032779
0.00021513
0.00012993
0.00013328
0.00017012
0.00019072
0.00021134
0.00020562
0.00017452
0.00011488
-2.4128e-06
-8.6976e-05
-5.4576e-05
4.046e-05
0.00012807
0.00019696
0.00023156
0.00022322
0.00017852
9.9658e-05
5.9694e-06
-8.385e-06
7.7686e-05
0.00014635
0.0001702
0.00015601
9.9138e-05
1.5233e-05
-7.11e-05
-0.00013327
-0.00011453
-5.0935e-05
-4.8028e-06
-2.2146e-06
-6.8843e-05
-0.00016741
-0.00027449
-0.00036164
-0.00042266
-0.00042093
-0.00027705
-2.5811e-05
0.00024904
0.00049238
0.00069355
0.00080993
0.0008673
0.00090669
0.00089862
0.00088769
0.0008953
0.00089815
0.00082857
0.00071092
0.00059869
0.00047237
0.00027976
7.9507e-05
0.00010091
0.00030976
0.0004187
0.00029505
8.2146e-05
-4.7537e-05
-0.00012152
-0.00024586
-0.00040998
-0.00048904
-0.00048695
-0.00046313
-0.00042262
-0.00035538
-0.00030032
-0.00027288
-0.00029417
-0.00033469
-0.00029974
-0.00022792
-0.00016705
-0.00010029
-2.5983e-05
1.2494e-05
1.4964e-05
-5.9397e-05
-0.00016275
-0.00017599
-0.00014068
-0.00011084
-7.4153e-05
-6.156e-05
-8.9424e-05
-0.00013559
-0.00023321
-0.00032723
-0.0003318
-0.00027488
-0.00020536
-0.00013402
-0.00010114
-0.00013013
-0.00018291
-0.00029421
-0.00040676
-0.00042169
-0.00039108
-0.00035909
-0.00033809
-0.000352
-0.00040883
-0.00042221
-0.00038958
-0.00038132
-0.00026165
0.00011763
0.00071596
0.0011149
0.00090656
0.00029936
-6.454e-05
-0.00017442
-0.00023872
-0.0002617
-0.00017118
-6.7318e-05
2.5424e-05
6.4533e-05
6.5106e-05
5.4691e-05
2.8488e-05
-4.9032e-05
-0.00019772
-0.0002391
-0.00015498
-5.4528e-05
3.2833e-05
0.0001068
0.00013759
0.00012834
7.841e-05
-4.8444e-05
-0.00019726
-0.0002227
-0.00015725
-8.9496e-05
-1.8704e-05
4.5137e-05
0.00010778
0.00015823
0.0001755
0.00017409
0.00011428
0.00022157
0.00049847
0.00053511
0.00042057
0.00033434
0.00026309
0.00016335
2.8503e-05
-0.00013608
-0.00032373
-0.00042571
-0.00033181
-0.00014453
2.6328e-05
0.00014072
0.00019236
0.00019962
0.00016702
0.00010097
-6.7635e-06
-0.00013504
-0.00014602
-8.2865e-05
-4.8345e-05
-3.9669e-05
-4.1331e-05
-4.6552e-05
-6.3086e-05
-0.00010833
-0.00015216
-0.00023434
-0.00028788
-0.00021445
-0.00010624
-3.3901e-05
-8.835e-07
1.3149e-05
2.275e-05
1.9228e-05
-2.032e-05
-8.5398e-05
-0.000192
-0.00029849
-0.00029223
-0.00020729
-0.00014183
-0.00012185
-0.0001149
-9.1791e-05
-7.1836e-05
-7.6901e-05
-0.0001136
-0.00020888
-0.0002896
-0.00026597
-0.00021833
-0.00021473
-0.00024264
-0.00026649
-0.00026039
-0.000247
-0.00023717
-0.00022804
-0.00030363
-0.00034473
-0.00026099
-0.00015787
-0.00010933
-9.5583e-05
3.3596e-05
0.00024263
0.00040894
0.00050808
0.00050568
0.00034852
0.00017072
0.00011879
0.00011234
6.8188e-05
-3.474e-05
-0.00012789
-0.00019486
-0.00027063
-0.00036439
-0.00050502
-0.00070326
-0.00078009
-0.00072565
-0.00066679
-0.00063005
-0.00058874
-0.00053958
-0.00050399
-0.00052126
-0.00057556
-0.00068776
-0.00077485
-0.00069972
-0.00055582
-0.00044369
-0.00037288
-0.00032382
-0.00028387
-0.00027644
-0.00032746
-0.00041408
-0.0005835
-0.00070387
-0.00061771
-0.00045135
-0.00031854
-0.00022703
-0.00015124
-7.8086e-05
-3.1457e-05
-5.4054e-05
-0.00011668
-0.0002601
-0.00037957
-0.00031674
-0.00018916
-9.6203e-05
-3.0684e-05
2.5915e-05
7.3416e-05
8.7735e-05
6.2485e-05
-1.6228e-05
-0.00015286
-0.00016794
-4.393e-05
7.3275e-05
0.000147
0.00018697
0.00021378
0.00024727
0.0002344
0.00017869
0.00010422
3.3411e-05
8.641e-05
0.00019819
0.00028446
0.00031724
0.00033533
0.00042046
0.00051165
0.00051482
0.00050662
0.00046622
0.0004327
0.00051225
0.00060684
0.00064241
0.0006817
0.00072341
0.00067923
0.00055732
0.00044734
0.00036318
0.00025693
0.00022146
0.00030616
0.00042343
0.0005186
0.00058502
0.00061753
0.00059423
0.0005327
0.0004712
0.00036558
0.00022912
0.00021406
0.00028479
0.00033447
0.00035607
0.00036281
0.00036838
0.00036756
0.00032308
0.00023635
0.00013206
2.3498e-05
7.1548e-08
4.8725e-05
8.9446e-05
0.00010732
0.00013317
0.00017867
0.00020927
0.00020245
0.00015928
0.00010837
1.8162e-05
-7.2341e-05
-6.5143e-05
-1.5963e-05
1.7633e-05
3.6799e-05
4.3508e-05
4.3274e-05
4.5461e-05
2.6159e-05
-1.6232e-05
-6.7372e-05
-0.00015103
-0.00018318
-0.00011799
-3.8534e-05
1.7256e-06
1.6098e-05
3.0709e-05
4.6526e-05
4.9006e-05
3.0887e-05
4.918e-06
-6.3771e-05
-0.00010054
-4.9117e-05
1.0448e-05
3.6812e-05
4.5286e-05
5.8811e-05
6.7204e-05
6.3848e-05
3.1571e-05
-5.3723e-06
-7.0763e-05
-0.00014628
-0.00013529
-7.3871e-05
-3.2361e-05
-1.4498e-05
3.383e-06
2.3608e-05
3.9812e-05
2.874e-05
-3.0729e-06
-5.0765e-05
-0.00013407
-0.00016792
-0.00010754
-3.9847e-05
-1.0822e-05
-4.4459e-06
2.8783e-06
1.0793e-05
5.7307e-06
-1.8346e-05
-4.0096e-05
-8.4214e-05
-0.00015329
-0.00015447
-0.00010091
-5.5862e-05
4.676e-06
8.8152e-05
0.00013093
0.00013287
0.00010939
5.1951e-05
-8.4075e-06
-4.548e-05
-5.9981e-05
-4.4341e-05
-2.2306e-05
-3.7517e-05
-5.418e-05
-4.0302e-05
-2.0241e-05
-3.4065e-05
-9.562e-05
-0.00018366
-0.0003119
-0.00038199
-0.00030045
-0.00017195
-5.3698e-05
6.7831e-05
0.00017486
0.00025515
0.00034979
0.00043106
0.00057138
0.00080392
0.0010103
0.0013424
0.0016384
0.0016853
0.0015636
0.0012799
0.00091033
0.00055743
0.00021946
-0.00013584
-0.00047377
-0.00079072
-0.0010134
-0.0010407
-0.00093838
-0.00083882
-0.00078316
-0.00073234
-0.00066662
-0.00058729
-0.0005209
-0.00045792
-0.00041475
-0.00038385
-0.00026405
-0.00014447
-7.7616e-05
-8.2596e-05
-0.00017403
-0.00025956
-0.00029805
-0.00034712
-0.00042132
-0.00050172
-0.00060227
-0.00059797
-0.00045945
-0.00029907
-0.00014685
3.5997e-05
0.00023345
0.00042856
0.00060031
0.00069715
0.0007324
0.00071071
0.00060262
0.00055396
0.00060755
0.00061947
0.00058113
0.00058547
0.00061787
0.00057991
0.00048806
0.0003663
0.00021425
1.6609e-05
-0.00017746
-0.0002394
-0.00022523
-0.00024244
-0.00029364
-0.00032514
-0.00030655
-0.00026142
-0.00023613
-0.00024823
-0.00029429
-0.00039922
-0.00046968
-0.00046425
-0.00043941
-0.00040999
-0.00037342
-0.00033803
-0.00032631
-0.00033503
-0.0003779
-0.00042819
-0.00049039
-0.00055966
-0.00055428
-0.00049796
-0.00046359
-0.00044717
-0.00042006
-0.00038905
-0.00036201
-0.00033613
-0.0003325
-0.00034814
-0.00037248
-0.00044313
-0.00046996
-0.0004054
-0.00034994
-0.00032357
-0.00030472
-0.0002799
-0.00025828
-0.00025159
-0.00024643
-0.0002453
-0.00027318
-0.0003415
-0.0004411
-0.00045658
-0.00040622
-0.00035903
-0.00032279
-0.00030742
-0.00028153
-0.0002411
-0.00023001
-0.00027011
-0.00034674
-0.00045693
-0.00049798
-0.00041415
-0.00034001
-0.00033554
-0.00032202
-0.00027001
-0.00020482
-0.00013185
-6.4128e-05
-4.8676e-05
-7.062e-05
-0.00014874
-0.00030157
-0.00036015
-0.00028815
-0.00019674
-0.00013298
-0.00010324
-7.3755e-05
-4.7341e-05
-5.017e-05
-7.634e-05
-0.00012536
-0.00019405
-0.00029698
-0.0004091
-0.00040336
-0.00029435
-0.00018366
-0.00010023
4.4203e-06
0.00012908
0.00027498
0.00042841
0.00051191
0.00052074
0.00038428
0.00017169
0.00010051
0.00011737
8.7905e-05
9.3153e-06
-7.0232e-05
-0.00013382
-0.00017261
-0.00021869
-0.00030141
-0.00040278
-0.00054839
-0.00065524
-0.00061519
-0.00052157
-0.000446
-0.00038466
-0.00032181
-0.00026276
-0.00021822
-0.00020124
-0.00021867
-0.00025433
-0.00031809
-0.00041586
-0.00041389
-0.00031147
-0.00020958
-0.00013006
-5.1385e-05
2.5498e-05
8.9434e-05
0.00013502
0.00016551
0.00017688
0.0001782
0.00013863
8.1839e-05
0.0001078
0.00015668
0.00015061
0.00012298
9.8117e-05
7.6671e-05
6.3208e-05
3.296e-05
-1.0063e-05
-6.2576e-05
-0.00014823
-0.00017672
-0.00010873
-1.4927e-05
6.8531e-05
0.00015293
0.00025997
0.00037375
0.00046677
0.000503
0.00045948
0.00035067
0.00017696
4.6456e-05
2.9977e-05
3.52e-05
2.8566e-05
2.5651e-05
3.8628e-05
8.0678e-05
0.00011739
0.00012873
0.00011635
7.6621e-05
2.0848e-05
-7.4329e-05
-0.00010111
-1.4361e-05
8.3933e-05
0.00017319
0.00026764
0.00035843
0.0004301
0.00045915
0.00044332
0.00042787
0.00039625
0.0003457
0.00026638
0.00011347
3.2526e-06
1.1931e-05
3.5041e-05
2.2769e-05
2.3462e-06
-3.8271e-06
-6.5218e-07
-7.1214e-07
-1.0183e-05
-4.2862e-05
-9.5363e-05
-0.00017638
-0.00028983
-0.00031193
-0.00025007
-0.00019283
-0.00014259
-8.642e-05
-2.4448e-05
3.8758e-05
7.8535e-05
8.8561e-05
6.8609e-05
1.3281e-05
-5.7558e-05
-0.00017384
-0.00026678
-0.00024165
-0.00017623
-0.00012927
-8.956e-05
-4.1593e-05
3.7044e-06
4.3953e-05
6.9427e-05
7.0915e-05
5.9029e-05
3.1606e-05
-8.6285e-06
-8.3551e-05
-0.00018555
-0.00020071
-0.00014941
-0.00011936
-0.00010795
-8.5993e-05
-5.9981e-05
-3.2923e-05
-2.9213e-05
-4.6315e-05
-7.0645e-05
-0.00012686
-0.00019173
-0.00028688
-0.00039734
-0.00041484
-0.00036036
-0.00031179
-0.00026328
-0.00019097
-0.00010164
-1.7396e-05
1.6058e-05
9.3397e-06
-5.361e-05
-0.00014948
-0.00027045
-0.00040103
-0.0004042
-0.00029554
-0.00022565
-0.00024043
-0.00023529
-0.0001944
-0.0001658
-0.00013361
-9.5241e-05
-9.2712e-05
-0.00012737
-0.0001529
-0.00013062
-2.8688e-05
0.00010041
0.00013879
0.00013941
0.00019203
0.00025601
0.00027728
0.00022842
0.00014205
5.1501e-05
-4.1288e-05
-0.00016716
-0.00030574
-0.00033332
-0.0002891
-0.00025736
-0.00024965
-0.00023398
-0.00021263
-0.00019312
-0.00020346
-0.00024514
-0.00031013
-0.00042811
-0.00050792
-0.00046361
-0.00037583
-0.00030955
-0.00026921
-0.00021879
-0.00016292
-0.00011742
-0.00010701
-0.00012456
-0.00016698
-0.00024557
-0.00025471
-0.00016995
-8.2015e-05
-2.4174e-05
2.178e-05
6.842e-05
0.00010055
0.00011966
9.107e-05
2.8007e-05
-7.6636e-05
-0.00022853
-0.00028615
-0.00023856
-0.00018848
-0.00014583
-9.5777e-05
-4.5617e-05
-1.5663e-05
-3.0727e-05
-9.8032e-05
-0.00019533
-0.00032306
-0.00048667
-0.0005549
-0.00048357
-0.00038882
-0.00030874
-0.00024598
-0.00017463
-7.4412e-05
3.1871e-05
0.00010931
0.00013673
0.00012296
6.4979e-05
4.0835e-05
0.00011519
0.00018886
0.0002722
0.00041094
0.00051333
0.00056375
0.00057686
0.00052924
0.0004432
0.00032281
0.00018705
0.00016697
0.00022026
0.00026691
0.00031674
0.00035589
0.0003787
0.00042925
0.00043144
0.00035107
0.00029329
0.00028964
0.00023046
0.00015587
0.00019704
0.00030995
0.00042214
0.00049437
0.0005414
0.00060839
0.00065754
0.00059329
0.0004767
0.00041432
0.00037424
0.00032434
0.00028971
0.00029137
0.00030031
0.00025906
0.00021664
0.00020874
0.00023075
0.00024631
0.00020458
0.00016761
3.5571e-05
-0.00011606
-8.7033e-05
5.4118e-05
0.00015294
0.00017907
0.0002026
0.00022025
0.00016415
9.0469e-05
6.3231e-05
2.986e-05
-5.0791e-05
-8.0705e-05
-2.3397e-05
-2.4374e-05
-9.473e-05
-0.00011414
-3.7954e-05
4.7597e-05
6.7465e-05
3.5342e-05
-3.2133e-05
-0.00020247
-0.00034006
-0.00032128
-0.00024361
-0.00015407
-0.00010103
-0.00011283
-0.00018742
-0.00035276
-0.00051116
-0.00056374
-0.00060022
-0.0006209
-0.0005568
-0.00045822
-0.00040634
-0.00040292
-0.00038213
-0.00029088
-0.00018413
-0.00014728
-0.00020253
-0.00036492
-0.00051932
-0.00055365
-0.0004708
-0.00030033
-0.00012707
1.5343e-05
0.00013889
0.00018861
8.37e-05
-8.7578e-05
-0.00022289
-0.00028989
-0.00021795
-6.4362e-05
9.1015e-05
0.00018146
0.0001419
-3.9469e-06
-0.00012368
-0.00017323
-0.00023595
-0.00038795
-0.00041887
-0.00028496
-0.00017119
-0.00011156
-6.1944e-05
-5.2823e-07
6.3882e-05
9.9385e-05
9.5224e-05
2.2165e-05
-9.0209e-05
-9.4871e-05
-1.5242e-05
5.9884e-05
0.00022328
0.00053313
0.00079905
0.00094472
0.0010073
0.00095519
0.00070855
0.00051609
0.00041604
0.0002872
0.00020093
0.00013192
3.7343e-05
1.7437e-05
0.00010278
0.00016081
7.6982e-05
-3.9425e-05
-6.0945e-05
-1.4376e-05
6.7234e-05
0.00013312
0.00015228
9.2014e-05
-4.234e-05
-0.00024723
-0.00043406
-0.00057084
-0.00056349
-0.00044738
-0.00030702
-0.00018608
-0.0001371
-0.00013432
-0.00020176
-0.0002059
-0.00012542
-0.00011805
-6.6456e-05
6.5545e-05
0.00017083
0.00028528
0.00040816
0.00042328
0.00039852
0.00031696
0.000179
0.0001045
0.00013967
0.00024958
0.00034943
0.00032328
0.00025242
0.00026308
0.00032706
0.00035343
0.00024365
2.9617e-05
-0.00013571
-0.00024196
-0.00037072
-0.00048295
-0.00046988
-0.00027164
4.0222e-06
0.00010842
2.6983e-06
-4.1821e-05
0.00010857
0.00034402
0.00060757
0.00084106
0.00089914
0.00080312
0.00056862
0.00016046
-0.00022945
-0.00024467
