-2.0257e-05
-4.5957e-05
-7.6537e-05
-8.9903e-05
-6.3117e-05
-3.1149e-05
-1.1819e-05
1.7367e-06
1.8315e-05
3.8487e-05
5.0371e-05
4.5289e-05
3.3065e-05
1.2987e-05
1.6413e-05
3.9224e-05
4.7052e-05
2.5319e-05
-2.8906e-06
-1.8317e-05
-3.1122e-05
-3.7814e-05
-4.8263e-05
-7.1343e-05
-5.1208e-05
-3.3033e-06
3.0549e-05
3.6251e-05
7.7053e-06
-3.7679e-05
-0.0001361
-0.00019709
-0.00019518
-0.0002036
-0.00019512
-0.00012568
-5.8882e-05
-3.7474e-05
-4.8873e-05
-6.3819e-05
-5.048e-05
-3.5957e-05
-3.2384e-05
-5.0564e-05
-2.594e-05
5.95e-06
-1.7128e-05
-3.538e-05
-4.7935e-05
-6.6332e-05
-7.2125e-05
-7.3511e-05
-0.00010263
-0.00014256
-0.00013329
-7.126e-05
2.7291e-06
6.2924e-05
9.832e-05
0.00013696
0.00016238
0.00015798
0.00012192
5.4929e-05
2.1008e-05
4.845e-05
8.2117e-05
0.00010811
0.00011348
0.00011441
0.00013235
0.00013932
0.00011232
7.9745e-05
7.0064e-05
7.744e-05
0.00010656
0.00014033
0.00012564
0.00011622
0.00013327
0.00011643
9.0519e-05
8.9838e-05
8.5745e-05
9.3684e-05
0.00011445
0.00011132
7.6151e-05
1.4174e-05
-5.2426e-05
-0.00011954
-0.00018078
-0.00024337
-0.00030986
-0.00035319
-0.00040951
-0.00047669
-0.00053892
-0.00057081
-0.00056821
-0.00056023
-0.00056706
-0.00058922
-0.00062722
-0.00065437
-0.0006747
-0.00071763
-0.00077936
-0.00082275
-0.00084704
-0.00087254
-0.00090515
-0.00093714
-0.00094543
-0.00093243
-0.00090755
-0.00088791
-0.00089974
-0.00091739
-0.00092863
-0.00093428
-0.0009324
-0.00093493
-0.0009067
-0.00085122
-0.00080498
-0.00076537
-0.00072716
-0.00069473
-0.00067146
-0.00064422
-0.00063422
-0.00062148
-0.00057768
-0.0005663
-0.00058418
-0.00060756
-0.00061521
-0.00060188
-0.00060171
-0.00060895
-0.00061489
-0.00061405
-0.00057523
-0.00051323
-0.00044522
-0.00037786
-0.00033415
-0.00032024
-0.00032959
-0.00035907
-0.00040038
-0.00042224
-0.00041633
-0.0003881
-0.00034807
-0.00028431
-0.0001992
-0.00011436
-1.9551e-05
6.4398e-05
9.8894e-05
8.0143e-05
5.0183e-06
-3.9859e-05
-4.1482e-05
-3.3277e-05
-1.4723e-05
2.7579e-06
2.4286e-05
5.3418e-05
8.504e-05
0.00017577
0.00031468
0.00047077
0.00063976
0.00078881
0.0008977
0.00099271
0.0010691
0.0011011
0.0011219
0.0011962
0.0012086
0.0010126
0.00073074
0.00065031
0.00072175
0.00084763
0.00099063
0.0010563
0.0009855
0.00092397
0.00092179
0.0009376
0.00094475
0.00093041
0.00090085
0.00085163
0.00081126
0.00075514
0.00067772
0.00066888
0.00072944
0.00080623
0.00088165
0.00090907
0.00088308
0.00086772
0.0008714
0.00088009
0.00093298
0.0010058
0.0010673
0.0010918
0.0010955
0.0010966
0.0011018
0.0011288
0.0011828
0.0012105
0.0011771
0.0011265
0.001128
0.0011022
0.0010221
0.00091833
0.00070239
0.00050247
0.00047226
0.00055233
0.00059531
0.00058538
0.00061581
0.00061866
0.00057885
0.00049552
0.00041032
0.00044411
0.00050703
0.00048577
0.0003987
0.0002869
0.00020258
0.00020061
0.00023075
0.00022687
0.00020375
0.00017975
0.00013461
4.2394e-05
-8.6472e-05
-0.00017846
-0.00027613
-0.00033988
-0.00038676
-0.00057934
-0.00073328
-0.0007429
-0.00070136
-0.00067428
-0.00066369
-0.00068995
-0.00072796
-0.00078694
-0.00082844
-0.00083131
-0.0008311
-0.00083509
-0.00084333
-0.00084839
-0.00085525
-0.00086795
-0.00089089
-0.00091862
-0.00095547
-0.00096574
-0.0009626
-0.0009801
-0.0010069
-0.0010358
-0.0010717
-0.0011283
-0.0011962
-0.0012779
-0.0013439
-0.001355
-0.0013347
-0.0013054
-0.0012737
-0.0012477
-0.0012436
-0.0012599
-0.0012996
-0.0013389
-0.001335
-0.0013109
-0.0013208
-0.0013775
-0.0014228
-0.0014199
-0.0013816
-0.0013061
-0.0012353
-0.0011788
-0.0010961
-0.00099871
-0.00090482
-0.00082389
-0.00075329
-0.00070687
-0.00069338
-0.00073106
-0.00082161
-0.0008809
-0.00087894
-0.00085176
-0.00080527
-0.00073678
-0.00064344
-0.00054794
-0.0004764
-0.0004342
-0.00041128
-0.00038156
-0.00029764
-0.0001835
-8.4327e-05
-2.248e-05
2.2949e-05
6.8917e-05
0.00011251
0.00013275
0.00013658
0.00015473
0.0001939
0.00024934
0.00029326
0.00030023
0.00027197
0.00021498
0.00015069
8.9846e-05
4.8321e-05
4.6789e-05
7.0307e-05
0.0001159
0.00015563
0.00017343
0.00016991
0.00015244
0.00012991
7.5377e-05
-8.5267e-06
-6.4491e-05
-8.9896e-05
-0.0001044
-0.00013284
-0.00014962
-0.00016404
-0.00019296
-0.00023593
-0.0003112
-0.00039108
-0.00046451
-0.0005312
-0.00057632
-0.0006151
-0.0006633
-0.00072535
-0.00079185
-0.00085736
-0.00090421
-0.00089176
-0.00082801
-0.00073351
-0.0006287
-0.00053386
-0.00048439
-0.00049219
-0.00054242
-0.00063092
-0.00070018
-0.00072435
-0.00073053
-0.00073013
-0.00075251
-0.00077615
-0.00077632
-0.00076412
-0.00073324
-0.00068835
-0.00063836
-0.00059025
-0.00055021
-0.0005145
-0.00049962
-0.00048796
-0.00046221
-0.00041948
-0.00036879
-0.00033214
-0.00028855
-0.00021459
-0.00012017
-3.3091e-05
2.2182e-05
6.3265e-05
8.9971e-05
0.00011313
0.0001141
0.00010668
0.00014746
0.00023448
0.00033793
0.00042801
0.00049921
0.00056542
0.00062919
0.00068755
0.00071514
0.00072413
0.00074457
0.00077728
0.00083217
0.00089789
0.00096505
0.001035
0.0011028
0.0011495
0.0011916
0.0012666
0.0013716
0.0014925
0.0015978
0.0016761
0.0017188
0.0017447
0.0017718
0.0017911
0.0018444
0.00194
0.002047
0.0021581
0.0022532
0.0023099
0.0023361
0.0023464
0.0023325
0.0022922
0.0022495
0.0022072
0.0021693
0.0021468
0.0021386
0.0021368
0.0021316
0.0021057
0.0020443
0.0019803
0.0019605
0.0019703
0.0019864
0.0019703
0.0019141
0.0018388
0.0017585
0.001671
0.0015708
0.0014998
0.001494
0.0015246
0.0015668
0.0015852
0.0015766
0.0015482
0.0014975
0.0014159
0.0012865
0.0011646
0.0011045
0.0010818
0.0010593
0.0010117
0.00095124
0.00088049
0.00078552
0.00065658
0.00049991
0.00036809
0.00029821
0.00025281
0.00019977
0.00012183
3.069e-05
-6.2922e-05
-0.00015727
-0.00025844
-0.00038759
-0.00051514
-0.00060767
-0.00068266
-0.00075692
-0.00086527
-0.00099058
-0.0011132
-0.0012409
-0.0013921
-0.0015823
-0.0017502
-0.0018597
-0.0019442
-0.0020081
-0.0020782
-0.002164
-0.0022475
-0.0023342
-0.0024392
-0.0025499
-0.0026199
-0.0026379
-0.002649
-0.0026754
-0.0027132
-0.0027399
-0.0027629
-0.0027981
-0.0028568
-0.0029309
-0.0029685
-0.002965
-0.0029415
-0.0029275
-0.00295
-0.003007
-0.003077
-0.0031485
-0.0031871
-0.0031886
-0.0031844
-0.003178
-0.0031175
-0.0030109
-0.0029047
-0.0028099
-0.0027094
-0.0026027
-0.0025267
-0.0024344
-0.0022701
-0.002069
-0.0019071
-0.0017761
-0.0016135
-0.0014312
-0.001275
-0.0011881
-0.0011191
-0.00098258
-0.00080474
-0.00061011
-0.00040431
-0.00023316
-0.00012518
-7.1216e-05
-2.6043e-05
6.12e-05
0.00020036
0.00039446
0.00062133
0.00084769
0.0010631
0.0012736
0.0015042
0.00176
0.0019751
0.0021194
0.002265
0.002447
0.0026195
0.0028076
0.0030248
0.0032138
0.0033256
0.0033862
0.0034125
0.0034152
0.0034482
0.0035599
0.003703
0.0038246
0.0039372
0.0040603
0.004166
0.0042377
0.0042783
0.0043094
0.0043128
0.0043424
0.0044148
0.0044824
0.0045076
0.0044156
0.0043058
0.0042251
0.0041367
0.0039416
0.0036566
0.0033762
0.003253
0.0033435
0.00338
0.0033418
0.0031977
0.0030142
0.0027922
0.0025619
0.0023255
0.0020044
0.0017358
0.0016008
0.001555
0.0015699
0.001552
0.0014592
0.0013312
0.0011696
0.00097252
0.00076483
0.00054483
0.00039029
0.00029904
0.00020141
7.2369e-06
-0.00018742
-0.00024892
-0.00025582
-0.00027398
-0.00032206
-0.00039866
-0.0004652
-0.00056466
-0.00067813
-0.0007003
-0.00071127
-0.00075529
-0.00081258
-0.00090032
-0.0010398
-0.001224
-0.0014128
-0.0015203
-0.0015841
-0.0016349
-0.0016992
-0.0018166
-0.0019651
-0.0021061
-0.0022768
-0.0024522
-0.0026479
-0.0029183
-0.0031215
-0.003249
-0.0033906
-0.0035699
-0.0037187
-0.0037242
-0.0036521
-0.0036728
-0.0037947
-0.0039316
-0.0040893
-0.0042154
-0.0042338
-0.004187
-0.0041361
-0.0041198
-0.0041209
-0.0041226
-0.0041218
-0.0040963
-0.0040778
-0.0040979
-0.004123
-0.0041251
-0.0040596
-0.0039489
-0.0038053
-0.0036333
-0.0035107
-0.0034186
-0.0033512
-0.0032461
-0.0032359
-0.0034857
-0.0038135
-0.0041639
-0.0043808
-0.004351
-0.0042724
-0.0042898
-0.0043042
-0.0043115
-0.0043032
-0.0042617
-0.0042133
-0.0041099
-0.0040138
-0.0039643
-0.0039156
-0.0038887
-0.0038754
-0.003876
-0.0038974
-0.0039424
-0.0039877
-0.0041507
-0.0044262
-0.0045381
-0.0044998
-0.0044767
-0.0044604
-0.0043467
-0.0041348
-0.0038343
-0.0035635
-0.0033887
-0.0030804
-0.0027152
-0.0024894
-0.0023379
-0.002203
-0.0021054
-0.0020745
-0.0020564
-0.0019665
-0.0018359
-0.0016759
-0.0014922
-0.0013009
-0.0010971
-0.00082784
-0.00056133
-0.00041394
-0.00029116
-7.6316e-05
7.7844e-05
8.3842e-05
0.00013246
0.00025309
0.00034223
0.00045231
0.00057335
0.00052666
0.00043898
0.0003659
0.00029547
0.00032208
0.00049857
0.00057052
0.00033655
8.8556e-05
-0.00013185
-0.00049353
-0.00074153
-0.00083037
-0.00091108
-0.0010288
-0.0011178
-0.0010603
-0.00086487
-0.00067959
-0.00055216
-0.00044231
-0.00030357
-0.0001874
-0.00014274
-0.0001334
-0.00012112
-0.00010558
-6.4109e-05
6.0702e-05
0.00020391
0.00027853
0.00025778
0.00024353
0.00035226
0.00049161
0.00055997
0.00061225
0.00061534
0.00057427
0.00058881
0.00065842
0.00071892
0.00074922
0.00072472
0.00066581
0.00060594
0.0005783
0.00054621
0.00040309
0.00012004
-0.00014066
-0.00025819
-0.0002718
-0.0002335
-0.00020074
-0.00019994
-0.00022847
-0.00028254
-0.00039352
-0.0005329
-0.00068196
-0.0008174
-0.0008971
-0.00092982
-0.00090352
-0.00081711
-0.00066828
-0.00042767
-0.00014997
9.1687e-05
0.0002896
0.00043192
0.0005727
0.00072023
0.00086237
0.00099888
0.0011013
0.0012119
0.0013964
0.0016157
0.0018315
0.0020467
0.0022551
0.0024997
0.0027163
0.0028545
0.0029409
0.0029672
0.0029704
0.0029724
0.0029316
0.0028976
0.0028881
0.0028676
0.0028784
0.0029188
0.0029364
0.0029623
0.003025
0.0031498
0.003351
0.0035772
0.0037549
0.0038705
0.0039642
0.0040286
0.0040128
0.0039061
0.0037575
0.0036227
0.0035113
0.0034143
0.0033416
0.0032955
0.0032054
0.0030575
0.0028668
0.0027795
0.002799
0.0028052
0.0027474
0.0026537
0.0026055
0.0025821
0.0025542
0.0025011
0.002424
0.0023017
0.002174
0.0021117
0.0021245
0.0021502
0.002157
0.0021674
0.002169
0.0021284
0.0020622
0.0019494
0.0017734
0.0015773
0.0014363
0.001339
0.0012502
0.0011576
0.0011033
0.0011165
0.0011908
0.0013113
0.0014634
0.0015923
0.0016559
0.0017005
0.0017688
0.0018152
0.0018366
0.0018303
0.0017754
0.0017079
0.0016488
0.0015533
0.0014286
0.0013091
0.0011628
0.0010127
0.00090451
0.00081994
0.00078132
0.00079812
0.00084789
0.00089445
0.00093181
0.00094593
0.00092872
0.00088747
0.00077158
0.00062925
0.00056692
0.00055094
0.00052855
0.00047886
0.00042891
0.00039905
0.00035868
0.00031109
0.00023883
0.00014753
7.1501e-05
1.1574e-05
2.3593e-05
8.0181e-05
0.00013335
0.00018386
0.00021307
0.00022062
0.000209
0.00016192
9.8132e-05
3.9355e-05
-3.1956e-05
-0.00013448
-0.00022729
-0.00030651
-0.00038155
-0.00044095
-0.00049877
-0.00054833
-0.00056094
-0.0005621
-0.00060854
-0.00069696
-0.00078722
-0.00090627
-0.0010223
-0.0010817
-0.0011101
-0.0010877
-0.0010275
-0.00095454
-0.00085333
-0.00075486
-0.00068889
-0.0006578
-0.00067636
-0.00074356
-0.00084767
-0.00094457
-0.0009949
-0.0010231
-0.001028
-0.00099145
-0.00092609
-0.00084671
-0.00075542
-0.00065639
-0.00055452
-0.000459
-0.0003929
-0.00037575
-0.00035749
-0.00030621
-0.00027374
-0.00026969
-0.00023466
-0.0001499
-4.5114e-05
4.6147e-05
8.987e-05
0.00012647
0.0001911
0.00027467
0.00032025
0.00032115
0.0003152
0.00031571
0.00034974
0.00042362
0.000509
0.00058694
0.00065402
0.00073386
0.0008107
0.00086354
0.0009011
0.00091798
0.00095777
0.0010114
0.0010342
0.0010082
0.00094725
0.00088885
0.00082335
0.00075301
0.00071623
0.00071755
0.00072692
0.00069529
0.00059702
0.00051393
0.00046208
0.00039544
0.00030685
0.00020542
0.00013688
0.00012824
0.00015719
0.00019399
0.00020667
0.00019132
0.00015241
0.0001107
8.7638e-05
5.5339e-05
1.5729e-05
-3.9537e-05
-0.00011769
-0.00020245
-0.00025948
-0.00029107
-0.00029847
-0.00033251
-0.00042872
-0.00051306
-0.00055158
-0.00058493
-0.00061414
-0.00064962
-0.00071291
-0.00080215
-0.00093592
-0.0011319
-0.0013458
-0.0015646
-0.0017445
-0.0018063
-0.0018191
-0.0018323
-0.001881
-0.001995
-0.0021281
-0.0022676
-0.002429
-0.0026031
-0.0028247
-0.003067
-0.0032439
-0.0033709
-0.003458
-0.0035366
-0.0036365
-0.003763
-0.0038777
-0.0039841
-0.0040946
-0.0041737
-0.0041802
-0.0041148
-0.0040133
-0.0039492
-0.0039201
-0.0038922
-0.0038655
-0.0038525
-0.0038893
-0.0039649
-0.0040323
-0.0040829
-0.004133
-0.0042078
-0.0043166
-0.0044309
-0.0045405
-0.0046644
-0.0047979
-0.0048851
-0.0048685
-0.0047576
-0.0046074
-0.0044692
-0.0043468
-0.0042206
-0.0041042
-0.0040132
-0.0039705
-0.0039566
-0.0039386
-0.0039156
-0.0038912
-0.0038796
-0.0038695
-0.0038411
-0.0037803
-0.0036952
-0.0035747
-0.0034258
-0.0032652
-0.0030986
-0.0029154
-0.0027235
-0.0025567
-0.00242
-0.0023323
-0.0022591
-0.0021501
-0.002046
-0.0019437
-0.0017807
-0.0015583
-0.0012885
-0.001015
-0.00078017
-0.0005675
-0.00035993
-0.00014923
6.3805e-05
0.00030198
0.00056669
0.00078298
0.0011369
0.001556
0.0017314
0.0017993
0.0018675
0.0019499
0.0021298
0.0023892
0.0026222
0.0027702
0.0027664
0.0027885
0.0029401
0.0031769
0.0034259
0.0036642
0.0038632
0.0040194
0.0041309
0.0042026
0.0042191
0.0041757
0.0041236
0.004093
0.0040596
0.0040064
0.0039322
0.0038525
0.0037858
0.0037238
0.0036177
0.0034369
0.0032309
0.0030473
0.0028789
0.0027024
0.0025619
0.0024601
0.0023195
0.0021046
0.0018482
0.0016303
0.0014629
0.0013102
0.0011397
0.0010291
0.0010526
0.0011129
0.0011752
0.0012028
0.0010552
0.00081631
0.00057686
0.00031581
6.9295e-05
-0.00014822
-0.00032303
-0.00042052
-0.00052539
-0.00061827
-0.00068752
-0.00078678
-0.00085258
-0.00084294
-0.00081557
-0.00081792
-0.00083528
-0.00087144
-0.00094575
-0.0010437
-0.0011914
-0.001417
-0.0016549
-0.0018718
-0.0020723
-0.0022801
-0.0024877
-0.0027533
-0.0031303
-0.003549
-0.0039489
-0.0043576
-0.0048481
-0.0054384
-0.0059906
-0.0063123
-0.0063738
-0.0063506
-0.0062353
-0.0059146
-0.0055716
-0.0052755
-0.004995
-0.004815
-0.0047318
-0.0047443
-0.0048151
-0.0048556
-0.0048285
-0.0047344
-0.0045876
-0.0043514
-0.003955
-0.0034492
-0.0028779
-0.0023168
-0.0018499
-0.0014722
-0.0011486
-0.00091474
-0.00078856
-0.00074648
-0.0007365
-0.00067695
-0.00056557
-0.00043688
-0.00036482
-0.00036342
-0.00037211
-0.00039129
-0.00045696
-0.00054806
-0.00066232
-0.00081293
-0.00093038
-0.00095414
-0.00094158
-0.0008898
-0.00074864
-0.00055804
-0.00035319
-9.5814e-05
0.00015472
0.00037063
0.0006133
0.00086363
0.0011385
0.0014813
0.001845
0.0021786
0.0024768
0.0027369
0.0029228
0.0030272
0.0031267
0.003328
0.0036254
0.0039509
0.0042614
0.0045842
0.0049371
0.0052607
0.0055369
0.0057519
0.0059055
0.0060048
0.0060535
0.0060236
0.0059049
0.0057443
0.005593
0.0054809
0.0053713
0.0052264
0.0050507
0.0048611
0.0046986
0.004577
0.0044751
0.0044094
0.0044049
0.0044354
0.0044371
0.0043478
0.0042087
0.0040924
0.004007
0.0039702
0.0039604
0.0039692
0.0040027
0.0040503
0.0040971
0.0040974
0.004039
0.0039162
0.0037376
0.0035247
0.0032523
0.0029677
0.0027255
0.0025387
0.0024693
0.0024936
0.0025211
0.0025382
0.0025426
0.0024916
0.0023475
0.0021512
0.0019881
0.001872
0.0018202
0.0018127
0.0018
0.0017671
0.0017107
0.0016421
0.0015619
0.0014515
0.0012512
0.00097324
0.00070346
0.00048378
0.00030342
0.00014158
1.7384e-05
-2.0836e-05
6.4169e-05
0.00022086
0.00034755
0.0003854
0.00035296
0.00026002
0.00011481
-7.0449e-05
-0.00031474
-0.00060937
-0.00091669
-0.00122
-0.0015109
-0.0017597
-0.0019491
-0.0020644
-0.0020945
-0.0020858
-0.0021026
-0.0021634
-0.0022325
-0.0023256
-0.0024419
-0.0025512
-0.0026426
-0.0027016
-0.0027622
-0.0028258
-0.0028469
-0.0027939
-0.0026745
-0.0025627
-0.0024543
-0.002355
-0.0023386
-0.0023934
-0.0024869
-0.0026162
-0.0027633
-0.0028788
-0.0028935
-0.0028
-0.0026774
-0.0025633
-0.0024676
-0.0024209
-0.0024513
-0.0025737
-0.00279
-0.0030574
-0.0033268
-0.0035738
-0.0037735
-0.0039177
-0.0040202
-0.0041082
-0.0041586
-0.0041577
-0.0041747
-0.0042716
-0.0044965
-0.0048104
-0.0051023
-0.0053327
-0.0055289
-0.005685
-0.0057841
-0.0058256
-0.0058092
-0.0057243
-0.0055977
-0.0054627
-0.0053117
-0.005193
-0.0051604
-0.0052205
-0.0053829
-0.0055876
-0.0057531
-0.0058473
-0.0058671
-0.0058084
-0.0056482
-0.0054432
-0.0052496
-0.0050795
-0.0049327
-0.0048183
-0.0047488
-0.0047226
-0.0047331
-0.0047341
-0.0046894
-0.0046139
-0.0045033
-0.0043768
-0.0042558
-0.0041259
-0.0039814
-0.0038224
-0.0036558
-0.0034689
-0.0032656
-0.003065
-0.0028519
-0.0026177
-0.0023407
-0.0019911
-0.0015932
-0.0012166
-0.00088788
-0.00059072
-0.00030329
-7.8405e-06
0.00029046
0.00055763
0.00076957
0.00096797
0.0011789
0.0014018
0.001667
0.0019568
0.0022211
0.0024692
0.0027203
0.0029512
0.0031527
0.0033209
0.0034875
0.0036873
0.0039156
0.0041442
0.0043459
0.0045229
0.0047046
0.0049052
0.0051164
0.0053197
0.0055009
0.0056773
0.0058806
0.0060952
0.0062581
0.006365
0.0064597
0.0065454
0.0066097
0.0066539
0.0066786
0.0067101
0.0067629
0.0068263
0.0068786
0.0069069
0.0068934
0.006819
0.0066997
0.0065415
0.0063358
0.006094
0.0058276
0.0055358
0.0052258
0.0049584
0.0047362
0.0045361
0.0043551
0.0041572
0.0039608
0.0038124
0.0037097
0.00361
0.003468
0.0032701
0.0030179
0.0027775
0.002594
0.0024223
0.0022525
0.0021033
0.0019634
0.0018297
0.0017258
0.0016238
0.0014921
0.0013559
0.0012228
0.0011108
0.0010572
0.0010255
0.0009762
0.0009069
0.00083317
0.00076995
0.00071266
0.00065801
0.00062382
0.00060883
0.00057167
0.000496
0.00042108
0.00033232
0.00023828
0.00013375
-2.2816e-05
-0.0001897
-0.00032849
-0.00044771
-0.00057222
-0.00071723
-0.00089722
-0.0011269
-0.0013601
-0.001557
-0.0017075
-0.0017987
-0.0018508
-0.0018716
-0.0018481
-0.0017863
-0.0017246
-0.0016885
-0.0017057
-0.0017816
-0.0018468
-0.0018862
-0.0019227
-0.0019559
-0.0019963
-0.0020489
-0.0021175
-0.0021778
-0.0022262
-0.0022767
-0.002345
-0.0024565
-0.0025846
-0.0026953
-0.0027766
-0.0028555
-0.0029317
-0.0030004
-0.0030866
-0.0031747
-0.0032308
-0.003272
-0.0033043
-0.0033085
-0.0032493
-0.0031183
-0.0029458
-0.0027476
-0.0025477
-0.0023533
-0.0021624
-0.0020053
-0.001934
-0.0019102
-0.0018851
-0.0018307
-0.0017409
-0.0016491
-0.0015687
-0.0014907
-0.0014111
-0.0013396
-0.0012885
-0.0012492
-0.0011918
-0.0011223
-0.0010607
-0.00097296
-0.00080853
-0.00060269
-0.0004006
-0.00021565
-5.5307e-05
8.9005e-05
0.00022692
0.00034475
0.00044084
0.00052822
0.00059528
0.00061874
0.00062385
0.00065725
0.00074666
0.0008856
0.0010477
0.001235
0.0014478
0.0016842
0.0019127
0.002115
0.0022872
0.0024381
0.0026298
0.0028503
0.0030269
0.003178
0.0033003
0.0033956
0.0035036
0.0036028
0.0036686
0.003722
0.003745
0.0037004
0.0036145
0.0035419
0.0034878
0.0034088
0.0033136
0.0032038
0.0030218
0.0028059
0.0026449
0.0025208
0.0024323
0.0023667
0.0023064
0.0022252
0.002133
0.0020426
0.0019294
0.0017943
0.0016421
0.0014687
0.0012752
0.0010767
0.00087848
0.00067779
0.00047296
0.00025715
4.2861e-05
-0.00011269
-0.0002281
-0.00035473
-0.00051975
-0.00071116
-0.00092027
-0.0011786
-0.001448
-0.0016904
-0.0018939
-0.0020996
-0.0023403
-0.0025321
-0.002701
-0.0029134
-0.0031671
-0.0034592
-0.0037456
-0.0040014
-0.004241
-0.0044588
-0.0046324
-0.0047813
-0.0048996
-0.0049913
-0.0050942
-0.0052642
-0.0055204
-0.005786
-0.0060032
-0.0061642
-0.0063228
-0.0065017
-0.006667
-0.0068157
-0.0068918
-0.0068601
-0.0067682
-0.0066476
-0.0064956
-0.0063358
-0.006212
-0.0061371
-0.0061314
-0.0061603
-0.0061636
-0.0060687
-0.0058959
-0.0056652
-0.0053639
-0.0050388
-0.0047295
-0.0044556
-0.0042303
-0.004084
-0.0040024
-0.0039086
-0.0037829
-0.0036475
-0.0034871
-0.0033125
-0.0031433
-0.0029504
-0.0027198
-0.0024842
-0.00224
-0.0019188
-0.0015571
-0.0012146
-0.00089063
-0.00058008
-0.00027888
-2.2243e-05
0.00016088
0.00026205
0.00030021
0.00032195
0.00031445
0.00025423
0.00016178
8.0315e-05
2.5841e-05
-2.7441e-05
-0.00010439
-0.00020875
-0.00031668
-0.00032656
-0.00020086
-3.7511e-05
0.00012782
0.00025471
0.00033108
0.00038048
0.00035805
0.00025454
9.7335e-05
-0.00011202
-0.00031075
-0.00050252
-0.00073077
-0.00098971
-0.0012515
-0.001493
-0.0017099
-0.0019362
-0.0021925
-0.0024658
-0.0027178
-0.0028796
-0.0029489
-0.0029693
-0.0029812
-0.0030078
-0.0030301
-0.0030251
-0.0030111
-0.0030265
-0.0030713
-0.0031259
-0.003187
-0.0032366
-0.0032466
-0.0032592
-0.0032855
-0.0033055
-0.0033433
-0.0033817
-0.0033945
-0.0034091
-0.0034568
-0.0035431
-0.003603
-0.0036076
-0.00356
-0.0034481
-0.0032822
-0.0030773
-0.0028305
-0.0025516
-0.0022651
-0.0020198
-0.0018558
-0.0017337
-0.0015769
-0.0013384
-0.001037
-0.00072168
-0.00036045
8.7751e-05
0.00056469
0.0010495
0.0015333
0.0019821
0.0023872
0.0027832
0.0031864
0.0035799
0.0039525
0.0043254
0.0047225
0.0051622
0.0056035
0.0059974
0.006351
0.0066809
0.0069893
0.0072649
0.0074728
0.007588
0.0076512
0.0077223
0.0078379
0.007999
0.0081736
0.0083421
0.008532
0.0087578
0.0089939
0.0092225
0.009437
0.0095991
0.0096985
0.0097175
0.0096711
0.009587
0.0094918
0.0094025
0.0093002
0.0091823
0.0090775
0.0089859
0.0088763
0.0087447
0.0085784
0.008406
0.0082357
0.0080352
0.0078286
0.0076263
0.0074249
0.0072453
0.0070781
0.006884
0.0066411
0.00634
0.0060157
0.0056913
0.0053443
0.0049572
0.004531
0.0040919
0.0036408
0.003175
0.0027218
0.0022835
0.0018392
0.001393
0.00098795
0.00060806
0.00024641
-0.00011289
-0.0004771
-0.0007907
-0.0010372
-0.001265
-0.0015085
-0.0017491
-0.0019584
-0.002152
-0.0023489
-0.0025762
-0.0028647
-0.0031558
-0.0034036
-0.0036009
-0.0037404
-0.0038562
-0.0039754
-0.0040804
-0.0041885
-0.0043277
-0.0045059
-0.0046689
-0.0048071
-0.004951
-0.005067
-0.005135
-0.0051342
-0.0050656
-0.0049649
-0.0048448
-0.0047131
-0.004608
-0.0045528
-0.0045299
-0.0044937
-0.0044321
-0.0043839
-0.0043403
-0.0042943
-0.004252
-0.0041813
-0.0040531
-0.0038636
-0.0036365
-0.0034029
-0.0031723
-0.0029524
-0.00272
-0.0024566
-0.0021727
-0.0018732
-0.0015627
-0.00127
-0.0010015
-0.00073826
-0.00045815
-0.00017042
8.4661e-05
0.00028203
0.00046312
0.00063217
0.00075453
0.00084737
0.00096604
0.0011593
0.001375
0.0015607
0.0017016
0.0017864
0.0018356
0.0018683
0.0018999
0.0019688
0.0020462
0.0020928
0.0021231
0.0021279
0.0020892
0.0020299
0.0019794
0.0019707
0.0019887
0.0020427
0.0021542
0.0022925
0.0024274
0.0025046
0.0025284
0.0024947
0.0023762
0.0021816
0.0019825
0.0018277
0.0016964
0.0016103
0.001573
0.0015543
0.0015397
0.0015123
0.0014553
0.0013555
0.0012264
0.0010631
0.00088603
0.00071726
0.00053546
0.00034548
0.00014779
-5.3294e-05
-0.00024624
-0.00043907
-0.00063391
-0.000804
-0.00095716
-0.0011037
-0.0012837
-0.0015404
-0.0018184
-0.0021003
-0.0023548
-0.0025508
-0.0027036
-0.0028276
-0.0029458
-0.0030855
-0.0032231
-0.0033318
-0.0034007
-0.0034373
-0.0034873
-0.0035745
-0.0036927
-0.0038577
-0.0040637
-0.0042682
-0.004469
-0.0046616
-0.0048235
-0.0049356
-0.0049706
-0.0049194
-0.0047879
-0.0046379
-0.0044991
-0.0043559
-0.0042415
-0.004175
-0.004162
-0.0041755
-0.0041772
-0.004156
-0.0041302
-0.0041082
-0.0040894
-0.0041019
-0.0041202
-0.0040823
-0.0039955
-0.0039009
-0.0038143
-0.003723
-0.0036124
-0.0034878
-0.0034029
-0.0033638
-0.0033435
-0.0033143
-0.0032376
-0.0031331
-0.0030171
-0.0028558
-0.0026626
-0.0024806
-0.002317
-0.0021924
-0.0021235
-0.0020397
-0.0019185
-0.0017502
-0.0015096
-0.0012357
-0.00099291
-0.00079079
-0.00059137
-0.00039534
-0.00022117
-6.1417e-05
6.4726e-05
0.00016598
0.00029326
0.00048254
0.00073855
0.0010467
0.0013938
0.0017509
0.0020928
0.0024149
0.0026942
0.0029034
0.0030117
0.0030031
0.0029225
0.0028636
0.0028692
0.0028851
0.0029101
0.0029586
0.0030331
0.0031446
0.0033
0.0034824
0.0036621
0.0038074
0.0039138
0.004029
0.0041312
0.0041478
0.0040991
0.0040236
0.0039317
0.0038307
0.0037158
0.0036008
0.0035243
0.0034925
0.003496
0.0035333
0.0035845
0.0036599
0.003739
0.0037827
0.0037971
0.0038111
0.0038277
0.0038429
0.003853
0.0038182
0.0037399
0.0036232
0.0034642
0.0032733
0.003075
0.0028601
0.0025887
0.0022769
0.0019625
0.0016445
0.0013241
0.001009
0.00073193
0.00048438
0.00023279
-3.0417e-05
-0.00032889
-0.00065762
-0.00099974
-0.0013429
-0.0016665
-0.0019351
-0.0021387
-0.0022917
-0.0023612
-0.0023645
-0.0023905
-0.0024974
-0.0027021
-0.0029301
-0.003105
-0.00325
-0.0033994
-0.0035297
-0.0036561
-0.0037733
-0.0038249
-0.0037876
-0.003732
-0.003692
-0.003626
-0.0035574
-0.0035489
-0.0036262
-0.0037926
-0.0039107
-0.0039814
-0.004052
-0.0041261
-0.0041754
-0.0042231
-0.004292
-0.0043667
-0.0044513
-0.0045363
-0.0046165
-0.0047057
-0.0048068
-0.004861
-0.0048669
-0.0048488
-0.0047702
-0.0046227
-0.0044532
-0.0042932
-0.0041393
-0.0039503
-0.003723
-0.0035051
-0.0033311
-0.0031844
-0.0030519
-0.0029387
-0.0028188
-0.0026401
-0.0024127
-0.0021401
-0.0018194
-0.0014596
-0.0010723
-0.0006962
-0.00036727
-7.5427e-05
0.00019823
0.0004334
0.00061442
0.00079064
0.00098785
0.0011961
0.001428
0.0016379
0.0017955
0.0019007
0.001947
0.0019715
0.0019947
0.0020074
0.0020211
0.0020826
0.0022308
0.0024466
0.0026908
0.0029413
0.0031888
0.0034455
0.0037056
0.0039254
0.0040958
0.0042202
0.0043064
0.0043975
0.004501
0.004638
0.0048246
0.0050305
0.0052126
0.0053596
0.0054766
0.0055741
0.0056706
0.0057679
0.005856
0.0059083
0.0059307
0.0059849
0.0060661
0.0061171
0.0061265
0.0061137
0.0060875
0.0060257
0.0059193
0.0057291
0.0054514
0.0051213
0.0047432
0.0043582
0.0040026
0.0036446
0.0032855
0.0029533
0.0026565
0.0023703
0.0020587
0.001732
0.0014128
0.0010801
0.00075811
0.00046705
0.00019394
-4.2434e-05
-0.00023223
-0.00036987
-0.0004585
-0.00053741
-0.00065219
-0.0007959
-0.00098747
-0.0012554
-0.0015861
-0.0019669
-0.0023785
-0.0027873
-0.0031581
-0.0034997
-0.0038148
-0.0040786
-0.004281
-0.0044354
-0.004537
-0.0046032
-0.0047134
-0.0049001
-0.0051695
-0.0054976
-0.0058362
-0.0061306
-0.006351
-0.0065177
-0.0066502
-0.0067635
-0.0068421
-0.0068826
-0.0068862
-0.006849
-0.0067854
-0.0067216
-0.0066819
-0.006663
-0.0066358
-0.0065912
-0.0065156
-0.0063539
-0.0060798
-0.0057503
-0.005391
-0.0049966
-0.0045937
-0.0042055
-0.0038605
-0.003579
-0.003369
-0.0032166
-0.0031148
-0.0030499
-0.0029422
-0.0027578
-0.0025137
-0.0022345
-0.0019611
-0.0017192
-0.0015023
-0.0013265
-0.0012095
-0.0011602
-0.0011594
-0.0011752
-0.0011854
-0.0011271
-0.00095012
-0.00067293
-0.00033444
4.8863e-06
0.00031316
0.00059529
0.00086585
0.0011114
0.0013025
0.0014083
0.0013994
0.0013365
0.0013405
0.0014543
0.0016511
0.0018997
0.0021677
0.002417
0.0025902
0.0026721
0.0026874
0.002636
0.0025633
0.0025195
0.0024966
0.0024989
0.0025244
0.0025797
0.0026804
0.0028132
0.0029543
0.0030979
0.003218
0.0032806
0.0032802
0.0032393
0.0031584
0.0030372
0.0029052
0.0027588
0.0026096
0.0024716
0.0023363
0.0022203
0.0021511
0.00211
0.0020636
0.0020029
0.0019263
0.0018355
0.0017399
0.0016521
0.001557
0.0014618
0.001399
0.0014045
0.0014613
0.0015384
0.0016263
0.0017012
0.0017272
0.0016783
0.0015736
0.0014571
0.0013209
0.0011183
0.00083213
0.00049624
0.00016776
-0.00010809
-0.0002877
-0.000362
-0.00038345
-0.00041484
-0.00045969
-0.00053087
-0.00060776
-0.00066135
-0.00069046
-0.00067621
-0.00061315
-0.0005376
-0.00049471
-0.00048759
-0.0005187
-0.00060407
-0.00074309
-0.00091801
-0.0010817
-0.0012087
-0.0013358
-0.0014797
-0.0016211
-0.0017332
-0.0017881
-0.0018079
-0.0018162
-0.0018021
-0.0017842
-0.0017645
-0.0017233
-0.0016507
-0.001554
-0.0014588
-0.0013474
-0.0012187
-0.0010877
-0.00096184
-0.00086832
-0.00082226
-0.0007803
-0.00071861
-0.00066049
-0.00060366
-0.00052688
-0.00045976
-0.00039844
-0.00035796
-0.0003662
-0.00038475
-0.00041154
-0.00044735
-0.00046775
-0.00049147
-0.00052627
-0.00053646
-0.00046497
-0.00029968
-9.1113e-05
0.00012792
0.00028771
0.00036512
0.00040351
0.00041201
0.00039735
0.00039462
0.00040296
0.0004161
0.00043103
0.00045613
0.00048705
0.00049502
0.00051178
0.0005449
0.00058811
0.00066025
0.00075854
0.00087711
0.00098245
0.0010422
0.0010654
0.0010508
0.00099242
0.00091737
0.00083322
0.00077612
0.00078196
0.00081409
0.00088947
0.001024
0.0011463
0.0012421
0.0013407
0.0014128
0.0014314
0.0014043
0.0013357
0.001221
0.0011135
0.0010487
0.00094538
0.00082803
0.00080753
0.00085048
0.00086644
0.00086566
0.00085799
0.00084691
0.00083088
0.00079747
0.00080319
0.00083309
0.00086337
0.0009156
0.0010043
0.0011175
0.0012403
0.0013341
0.0013714
0.0013499
0.0013072
0.001254
0.0011482
0.001022
0.00091523
0.0008272
0.00077052
0.00070804
0.00061286
0.00052834
0.00049274
0.00051839
0.00058667
0.00065574
0.00072781
0.00080513
0.00088202
0.00095195
0.00098382
0.00096218
0.00089635
0.00084303
0.00081507
0.00081452
0.00082728
0.00081388
0.00076889
0.0007194
0.00066719
0.00059736
0.00055149
0.00052529
0.00050785
0.00051468
0.00055442
0.00061429
0.00069818
0.00081384
0.00095855
0.0011221
0.0012842
0.0014303
0.0015686
0.0016985
0.0018241
0.0019467
0.0020273
0.0020406
0.002022
0.0020155
0.0020153
0.0020142
0.0020174
0.0020278
0.0020699
0.0021409
0.0022059
0.0022645
0.0023174
0.0023552
0.0023821
0.0024261
0.0024736
0.0025201
0.0025118
0.0023651
0.0020965
0.0017585
0.0014549
0.0012231
0.0011069
0.0010366
0.00096313
0.00086164
0.00070128
0.00050949
0.00033747
0.00017801
-1.6135e-05
-0.00021324
-0.0003467
-0.00043478
-0.0004997
-0.0005231
-0.0004707
-0.00038002
-0.00031193
-0.00030104
-0.00042312
-0.00063661
-0.0008716
-0.0011224
-0.0013496
-0.0015185
-0.0016654
-0.0017207
-0.0016658
-0.0016079
-0.0016684
-0.0018552
-0.0021234
-0.0024481
-0.0028173
-0.0032223
-0.0036069
-0.0039551
-0.0042732
-0.0045221
-0.0047199
-0.0048913
-0.0049835
-0.004982
-0.0049598
-0.0049872
-0.0051102
-0.0053285
-0.0055902
-0.0058552
-0.0061102
-0.006289
-0.0063801
-0.0064257
-0.0063629
-0.0061895
-0.0059443
-0.0056484
-0.0053948
-0.0052205
-0.0050985
-0.0050001
-0.0049296
-0.0048959
-0.0048884
-0.0048835
-0.0048893
-0.0048898
-0.0048584
-0.0047865
-0.0046388
-0.0044664
-0.0043093
-0.0041723
-0.0040935
-0.0040266
-0.0039492
-0.003899
-0.0038922
-0.0039031
-0.0038806
-0.0037991
-0.0036715
-0.0035462
-0.0034697
-0.0034316
-0.0034331
-0.0035099
-0.0036591
-0.0038305
-0.0039374
-0.0039333
-0.0038384
-0.0036718
-0.003428
-0.0031096
-0.0027282
-0.0023116
-0.0018961
-0.0015151
-0.0011999
-0.00093236
-0.00067581
-0.00047279
-0.00033061
-0.00020866
-5.6331e-05
0.00016975
0.00047426
0.00082048
0.0011604
0.001434
0.0016118
0.001681
0.0016212
0.0015097
0.0013799
0.001256
0.0011883
0.0011648
0.0012005
0.0013173
0.0015109
0.0017614
0.0020303
0.0022307
0.0023197
0.0022863
0.0021952
0.0021507
0.0021057
0.002097
0.0022009
0.0024106
0.0026634
0.0028813
0.0030128
0.0030864
0.0031924
0.0033562
0.0035513
0.0037869
0.0040042
0.004155
0.004251
0.0043098
0.0043307
0.0043077
0.0042507
0.0041614
0.0040465
0.0039197
0.0037936
0.0037165
0.0037212
0.0037341
0.0036877
0.0035742
0.0034126
0.0031909
0.0028979
0.0025428
0.0021671
0.0018218
0.0014947
0.0012162
0.0010378
0.0008847
0.00070555
0.00053297
0.00040485
0.00033054
0.00028857
0.00026161
0.00023111
0.00018479
0.00010651
-1.9549e-05
-0.00013663
-0.00019856
-0.00021484
-0.00020077
-0.00018157
-0.00015734
-0.00014447
-0.00017399
-0.00023227
-0.00030327
-0.00035704
-0.00039853
-0.00045714
-0.0005247
-0.0006384
-0.00077071
-0.00084674
-0.00085476
-0.00080988
-0.00071068
-0.00060987
-0.00053546
-0.0004744
-0.00043852
-0.00042525
-0.00045509
-0.00044984
-0.00038586
-0.00033013
-0.00028368
-0.00020946
-6.5544e-05
0.00014655
0.0003934
0.00064222
0.0008619
0.001
0.0010527
0.0010699
0.0011218
0.0012293
0.0013448
0.0014815
0.0016627
0.001874
0.0021194
0.0023671
0.0025393
0.0026274
0.0026642
0.0026639
0.0026376
0.0026021
0.0025496
0.0024963
0.0024579
0.0024346
0.0024381
0.0024919
0.0025907
0.00268
0.0027121
0.0026921
0.0026207
0.0025121
0.0024034
0.0023133
0.002279
0.0022923
0.0023249
0.0023844
0.0024445
0.0024734
0.0024751
0.0024254
0.0023404
0.0022443
0.0020992
0.0019636
0.0018236
0.0016536
0.0014843
0.0012877
0.0010917
0.00092193
0.00074719
0.00052949
0.00033629
0.00025144
0.00023986
0.00023044
0.0002151
0.00017051
8.1079e-05
-0.00010113
-0.00038571
-0.00069001
-0.00092695
-0.0010907
-0.001225
-0.0013407
-0.0014376
-0.0014771
-0.0014903
-0.0015564
-0.0016738
-0.0018022
-0.0019259
-0.001999
-0.0020276
-0.0020667
-0.0021106
-0.0021218
-0.0020779
-0.0020137
-0.0019561
-0.0018632
-0.0017457
-0.0016796
-0.0016766
-0.0017023
-0.0017569
-0.0018213
-0.0018814
-0.0019309
-0.0019484
-0.0019751
-0.0020353
-0.0021235
-0.0022487
-0.0023954
-0.0025745
-0.0027949
-0.0030117
-0.0031669
-0.0032614
-0.0033093
-0.003303
-0.0032898
-0.0032945
-0.0033068
-0.0033378
-0.0033935
-0.0034632
-0.0035358
-0.0035686
-0.0035366
-0.0034833
-0.0034307
-0.0033705
-0.0033512
-0.0033473
-0.0032609
-0.0031513
-0.0030424
-0.0029257
-0.0027936
-0.0025934
-0.0023386
-0.0020482
-0.001791
-0.0016059
-0.0014817
-0.0014269
-0.0013799
-0.0013101
-0.0012496
-0.0011965
-0.0011409
-0.0010642
-0.00095469
-0.00082646
-0.00069982
-0.00058173
-0.00042935
-0.00024291
-4.6005e-05
0.00015771
0.00034025
0.00051027
0.00069044
0.00087768
0.0010531
0.0011961
0.0013142
0.0014375
0.0015708
0.0017397
0.0019567
0.0022006
0.002446
0.0026828
0.0029044
0.0031101
0.0032927
0.0034362
0.0035307
0.0035755
0.003603
0.003618
0.0036165
0.0036479
0.0037055
0.0037891
0.0039056
0.0040108
0.0040689
0.004095
0.0040821
0.00399
0.0038379
0.0036272
0.0033259
0.0030245
0.0027701
0.0025184
0.0022858
0.0020794
0.0018804
0.0016767
0.0014798
0.0012749
0.0010889
0.00095114
0.00085239
0.00077005
0.00070139
0.00066858
0.00065233
0.00059543
0.00048748
0.00033787
0.0001569
-3.2618e-05
-0.0001912
-0.00031884
-0.00043111
-0.00047673
-0.00047226
-0.00045939
-0.00043675
-0.00049375
-0.00065492
-0.00087606
-0.0011284
-0.0014043
-0.0016992
-0.0019997
-0.0022892
-0.0024901
-0.0025895
-0.0026172
-0.0025537
-0.0024018
-0.0022449
-0.0021584
-0.0020938
-0.0020608
-0.0020927
-0.0021609
-0.0022239
-0.0022416
-0.0021817
-0.0020952
-0.0020037
-0.0018934
-0.001748
-0.0016037
-0.0015113
-0.0014508
-0.0013861
-0.0012889
-0.0011338
-0.00095614
-0.00076822
-0.00056477
-0.00040003
-0.00027292
-0.00011934
8.3001e-05
0.00026611
0.00040129
0.00049843
0.00052639
0.00048931
0.00045339
0.00048505
0.00056511
0.00068118
0.00080374
0.00088407
0.00091867
0.00086999
0.00075454
0.00060171
0.00043558
0.00025025
5.0153e-05
-0.00010803
-0.00023018
-0.00035302
-0.00038
-0.000249
-2.0924e-05
0.00023677
0.00049225
0.00076888
0.0010307
0.0011924
0.0012603
0.0012486
0.0011677
0.0010318
0.0008791
0.00078143
0.0007667
0.00081311
0.00087984
0.00094256
0.0010471
0.0012033
0.0013602
0.0015023
0.001649
0.0017991
0.0019322
0.002024
0.0020564
0.0020744
0.0021411
0.0022436
0.0023076
0.0023353
0.0023827
0.0024958
0.0026198
0.0026752
0.002636
0.0025176
0.0023967
0.002405
0.0025284
0.0025952
0.0025884
0.0025565
0.0025545
0.0026023
0.0026605
0.0026744
0.0026742
0.0026565
0.0025282
0.0023063
0.0020975
0.001937
0.0018161
0.0016928
0.0015729
0.0014442
0.0013003
0.0011727
0.0010752
0.00098986
0.00082129
0.00062309
0.00051404
0.00044914
0.00042172
0.00040973
0.00036195
0.00028056
0.000134
1.5072e-05
-2.7977e-05
-0.0001045
-0.00024873
-0.0003783
-0.00046468
-0.00055606
-0.00069033
-0.00091268
-0.0011816
-0.0014182
-0.0016032
-0.0017802
-0.0019549
-0.0020829
-0.0021955
-0.0023405
-0.0025271
-0.0027541
-0.003008
-0.0032428
-0.0034509
-0.0036505
-0.0038145
-0.0039535
-0.0040861
-0.0042068
-0.0043017
-0.0043883
-0.0045102
-0.0046285
-0.0047078
-0.0047445
-0.0047599
-0.0047813
-0.0048154
-0.0048331
-0.0048037
-0.0047482
-0.0046748
-0.0045792
-0.0044943
-0.0044154
-0.0043033
-0.0041974
-0.0041559
-0.0041349
-0.0040983
-0.0040535
-0.004018
-0.0040391
-0.0041066
-0.0041104
-0.0040307
-0.0039254
-0.0037993
-0.0036443
-0.0034657
-0.0033081
-0.0031916
-0.0031213
-0.0031066
-0.0030418
-0.0028526
-0.0026646
-0.0025604
-0.002533
-0.0025238
-0.0024537
-0.0023491
-0.0023242
-0.0024121
-0.002609
-0.0028852
-0.0031473
-0.0033165
-0.0033496
-0.0032501
-0.0030462
-0.0027743
-0.0024965
-0.0022655
-0.0020856
-0.0019209
-0.0017927
-0.0017049
-0.0016145
-0.0015513
-0.0015319
-0.0015183
-0.0015544
-0.0016676
-0.0018074
-0.0019393
-0.002098
-0.0022992
-0.0025469
-0.0028341
-0.0030992
-0.0032908
-0.0034148
-0.0034701
-0.0035058
-0.003615
-0.003698
-0.0036445
-0.0034887
-0.0032931
-0.0031254
-0.0030824
-0.0031303
-0.0032353
-0.0033821
-0.0035462
-0.0037382
-0.0040247
-0.0043642
-0.0046857
-0.0050079
-0.0052061
-0.0051809
-0.0050465
-0.0049356
-0.0049304
-0.0049901
-0.0050336
-0.0050503
-0.0051056
-0.0051616
-0.0051921
-0.0052069
-0.0051995
-0.0051119
-0.0048807
-0.004566
-0.0042415
-0.0039516
-0.0037457
-0.0035687
-0.0033964
-0.0032064
-0.0029929
-0.0028072
-0.0026471
-0.0025313
-0.0024503
-0.0023753
-0.0023233
-0.0023244
-0.0022509
-0.0019654
-0.0015523
-0.0011522
-0.00072138
-0.0003322
-2.1889e-05
0.00027966
0.00060422
0.00090407
0.0011354
0.001349
0.0015522
0.0017508
0.0020277
0.0023179
0.0025394
0.0027308
0.0028998
0.0030306
0.0031441
0.0032867
0.0034951
0.0037025
0.0039019
0.0041766
0.0045258
0.0048739
0.005174
0.0054422
0.0056184
0.0056289
0.005506
0.0053269
0.0052068
0.0052281
0.0053473
0.005539
0.0057912
0.0060335
0.0062591
0.0065354
0.0068405
0.0070989
0.0073209
0.0076354
0.008018
0.0083374
0.0085339
0.0086085
0.0085836
0.0084848
0.0083266
0.0081582
0.007949
0.0077467
0.0076352
0.007595
0.0075825
0.0075249
0.0073835
0.0071463
0.0067965
0.0063563
0.0058786
0.0054649
0.0052286
0.0051071
0.0050308
0.0050049
0.0049831
0.0049539
0.0049321
0.0048685
0.0047281
0.0045961
0.0045233
0.0044169
0.0042495
0.0040965
0.0039921
0.0039132
0.0038331
0.0037995
0.0038221
0.0038392
0.0038458
0.0038458
0.0038201
0.0037543
0.0036392
0.0035148
0.0034188
0.0033456
0.0032699
0.0031789
0.0030613
0.0029199
0.0027296
0.0024621
0.0021161
0.0016939
0.0012273
0.00074385
0.00025147
-0.00024254
-0.00074114
-0.0011772
-0.001436
-0.0015594
-0.0016264
-0.0016688
-0.0017458
-0.0018569
-0.0019024
-0.0018797
-0.0018322
-0.0017795
-0.0017339
-0.0016566
-0.0015782
-0.001556
-0.0015923
-0.0016561
-0.0017259
-0.001819
-0.0019772
-0.0021466
-0.0023085
-0.0024995
-0.0026826
-0.0028355
-0.0029333
-0.0029586
-0.0028915
-0.0027328
-0.0025204
-0.0022683
-0.0019987
-0.0017445
-0.0015549
-0.0013996
-0.0012648
-0.0011888
-0.0011518
-0.0011254
-0.0011071
-0.0010647
-0.00099257
-0.00094558
-0.00092104
-0.00089834
-0.00088859
-0.00088947
-0.0009392
-0.0010406
-0.0011335
-0.00115
-0.001052
-0.00085289
-0.00060888
-0.00034708
-4.2061e-05
0.00030203
0.00067817
0.0010743
0.0014326
0.0017148
0.0018911
0.0019647
0.0019901
0.0020041
0.0020589
0.0021744
0.0022775
0.0023543
0.0024278
0.0024354
0.0023705
0.0022521
0.0021436
0.002111
0.002142
0.0021601
0.0021516
0.002149
0.0021678
0.0022041
0.0022121
0.0021882
0.0021416
0.002036
0.001854
0.0016178
0.0013132
0.00095212
0.00058529
0.00019838
-0.00017811
-0.00051222
-0.00083372
-0.0011531
-0.0014506
-0.0017402
-0.0020436
-0.0023336
-0.002558
-0.0026847
-0.0027008
-0.002623
-0.0025557
-0.0025444
-0.0026018
-0.0026884
-0.0027747
-0.0028617
-0.0029421
-0.003055
-0.0031942
-0.0032714
-0.0032866
-0.0032827
-0.0032986
-0.0033536
-0.0034005
-0.0033873
-0.0033195
-0.0032322
-0.0031369
-0.0030429
-0.0029423
-0.0028053
-0.0027064
-0.0027197
-0.0028321
-0.0030126
-0.0032126
-0.0033847
-0.0035177
-0.0036127
-0.0036526
-0.0036414
-0.0035973
-0.0034832
-0.0032984
-0.0031004
-0.0029234
-0.0027785
-0.0025984
-0.0023802
-0.0021675
-0.0019756
-0.0018078
-0.0016476
-0.0014944
-0.0013518
-0.0012069
-0.0010565
-0.0009242
-0.00082143
-0.00070625
-0.00057758
-0.00044164
-0.00028867
-0.00012399
2.4911e-05
0.00015438
0.00028843
0.00040296
0.00049388
0.00062234
0.00078579
0.00098564
0.0012064
0.0014315
0.0016675
0.0018902
0.0020973
0.0022658
0.0024189
0.0025516
0.0026024
0.0025678
0.002499
0.002407
0.0023016
0.0022037
0.0021026
0.002001
0.0018961
0.0019181
0.0021334
0.0023797
0.0025565
0.0026582
0.0027157
0.0027698
0.0028053
0.0027884
0.0027691
0.0027596
0.0026972
0.0026169
0.0025749
0.0024889
0.0023254
0.0021358
0.0019848
0.0018855
0.0018053
0.0016921
0.0015744
0.0014847
0.0014364
0.0014451
0.0015177
0.0015897
0.0015841
0.0015391
0.0014945
0.001378
0.0011567
0.00080406
0.00029086
-0.00016686
-0.0003828
-0.00053333
-0.0006627
-0.00069077
-0.00064024
-0.00059411
-0.00058335
-0.00060151
-0.00060012
-0.00056878
-0.00047256
-0.00031624
-0.00020767
-0.00014965
-0.00018502
-0.00040114
-0.00066274
-0.00089764
-0.0010868
-0.001111
-0.0010479
-0.0010466
-0.0012238
-0.0015525
-0.0019538
-0.0023632
-0.0026463
-0.0027808
-0.0028497
-0.0028809
-0.0029149
-0.0030221
-0.0031611
-0.0032165
-0.0032537
-0.0032876
-0.0032191
-0.0030613
-0.0028834
-0.0027344
-0.0026587
-0.002641
-0.0026651
-0.0027384
-0.0028285
-0.0028958
-0.0030047
-0.0032247
-0.0035394
-0.0038943
-0.0042562
-0.0045665
-0.0048499
-0.0051366
-0.0053708
-0.0054855
-0.0054416
-0.005243
-0.0049599
-0.0046585
-0.0044167
-0.0043285
-0.0043455
-0.0043946
-0.0045477
-0.0048097
-0.0050843
-0.0052948
-0.0053986
-0.0054308
-0.0054295
-0.0054007
-0.0053501
-0.0053038
-0.0052652
-0.0052248
-0.0051945
-0.0051406
-0.0050065
-0.0048109
-0.0046008
-0.0044146
-0.0042441
-0.0040121
-0.0036909
-0.0033321
-0.0029772
-0.0026881
-0.0024825
-0.0024126
-0.0023679
-0.0022137
-0.001994
-0.0017484
-0.0014672
-0.0012397
-0.0010908
-0.00097829
-0.00082613
-0.00060642
-0.00030082
4.6666e-05
0.00039346
0.00068308
0.00090703
0.0010308
0.001048
0.0010107
0.00097992
0.00097035
0.00095185
0.00088363
0.00089444
0.0011263
0.001515
0.0019581
0.0023289
0.0025075
0.0024733
0.002282
0.0020757
0.0019578
0.0019782
0.0020804
0.0021974
0.0024775
0.0030151
0.0036968
0.0042127
0.0044744
0.0046609
0.0048445
0.0049634
0.0051655
0.0054272
0.0056581
0.0058988
0.0061135
0.0062867
0.0064407
0.0065351
0.006611
0.0067466
0.0069335
0.0071095
0.0072524
0.0073214
0.0072835
0.0071297
0.006937
0.0068888
0.0070248
0.0072378
0.0074146
0.007607
0.0078667
0.0081791
0.008444
0.00849
0.0083661
0.0081009
0.0075597
0.006989
0.0066358
0.0063441
0.0062684
0.0064492
0.0065692
0.0065452
0.0064831
0.006315
0.006038
0.0057241
0.0053485
0.0048773
0.0042719
0.0037093
0.0032585
0.0029006
0.0026665
0.0025723
0.0026041
0.0027265
0.0028431
0.0029231
0.0029735
0.0029931
0.0029258
0.0027283
0.0024574
0.0021684
0.0019012
0.0016735
0.001481
0.0013198
0.0011194
0.00080522
0.00051116
0.00032106
0.00012648
-0.00014519
-0.00048647
-0.00084255
-0.0011338
-0.001356
-0.0015714
-0.001712
-0.0017304
-0.0017374
-0.0017599
-0.0017777
-0.0018548
-0.0020753
-0.0023965
-0.002726
-0.0030169
-0.0032089
-0.003326
-0.0033964
-0.0033825
-0.0032433
-0.0029506
-0.0026076
-0.0023211
-0.0021305
-0.0021401
-0.0023755
-0.0026922
-0.0029584
-0.0031616
-0.0032406
-0.0031511
-0.0029308
-0.0026272
-0.0022916
-0.002017
-0.0018257
-0.0016309
-0.0014363
-0.0012981
-0.0011914
-0.0011281
-0.0011484
-0.0012045
-0.00125
-0.0012854
-0.0012875
-0.0012471
-0.0011986
-0.0011721
-0.0012097
-0.0013394
-0.0015379
-0.0017995
-0.0021506
-0.0025642
-0.0029619
-0.0032158
-0.0033079
-0.0033017
-0.0032171
-0.0031007
-0.0029436
-0.002725
-0.0024829
-0.0022683
-0.0021071
-0.0020629
-0.0020968
-0.0021521
-0.0022069
-0.0021772
-0.0020293
-0.0017901
-0.0015739
-0.0014819
-0.001545
-0.00174
-0.0019698
-0.0022009
-0.0024006
-0.0025537
-0.0026427
-0.0026403
-0.0025779
-0.0025253
-0.0024865
-0.0024011
-0.0022115
-0.0019499
-0.0017755
-0.0017096
-0.0016956
-0.0018178
-0.0020992
-0.0023799
-0.0024702
-0.0023549
-0.0021069
-0.001832
-0.0015649
-0.0013186
-0.0010632
-0.00077608
-0.00049431
-0.0002441
-5.9369e-05
5.95e-05
0.00014579
0.0002397
0.00037388
0.00055982
0.00076562
0.0010013
0.0012564
0.0015094
0.001774
0.0020246
0.0022498
0.0024565
0.0026
0.0026898
0.0027159
0.0026666
0.0026355
0.002616
0.0025872
0.0025878
0.0026373
0.0027481
0.0028856
0.0029942
0.0030715
0.0030768
0.0030632
0.0031112
0.003153
0.0031589
0.0031123
0.0029922
0.0028306
0.0026196
0.00237
0.0021213
0.0018945
0.0017605
0.0017275
0.0017393
0.0017487
0.0017478
0.0017491
0.0017204
0.0016155
0.0014229
0.0011745
0.0009326
0.00070266
0.00046689
0.00024731
0.0001009
2.936e-05
1.6549e-06
-1.3736e-05
-6.4148e-05
-0.00013778
-0.00018415
-0.00021187
-0.00026517
-0.00033529
-0.00038594
-0.00041663
-0.00046003
-0.00053301
-0.00063699
-0.00075942
-0.00089553
-0.0010026
-0.0010856
-0.0011789
-0.0013033
-0.0014185
-0.0014928
-0.0015281
-0.0015544
-0.00162
-0.0016872
-0.0017422
-0.0017834
-0.0018166
-0.0018714
-0.0019535
-0.002052
-0.0021378
-0.002166
-0.0021245
-0.0020125
-0.0018391
-0.0016529
-0.0014325
-0.0011511
-0.00090014
-0.00071915
-0.00059535
-0.00053556
-0.00050247
-0.00047107
-0.00045408
-0.00047074
-0.00048949
-0.00046104
-0.00034613
-0.00013168
0.00015565
0.00049156
0.00084495
0.0011999
0.0015276
0.0017897
0.0019427
0.0019191
0.0017075
0.0013379
0.00085016
0.00036314
-8.7632e-05
-0.00054394
-0.00099001
-0.0013832
-0.0016799
-0.0018772
-0.0019538
-0.0019191
-0.0018194
-0.0016906
-0.0015699
-0.0014478
-0.0013274
-0.0012449
-0.0012267
-0.0012799
-0.0013794
-0.0015072
-0.0016622
-0.0018153
-0.0019294
-0.0020337
-0.0021713
-0.0023017
-0.0023404
-0.0023588
-0.0024324
-0.0025431
-0.0026586
-0.0027767
-0.0029131
-0.0030739
-0.0032598
-0.0034221
-0.003546
-0.0036164
-0.0035896
-0.0034895
-0.0033891
-0.0033803
-0.0034406
-0.0035211
-0.0036687
-0.0038829
-0.0041103
-0.0043216
-0.0045135
-0.0046238
-0.0046589
-0.0047102
-0.0047753
-0.0048089
-0.0047932
-0.0047482
-0.0046924
-0.0046138
-0.0044778
-0.0042981
-0.0040554
-0.0036909
-0.0032358
-0.0027064
-0.0021239
-0.0015494
-0.0010452
-0.0006844
-0.00050007
-0.00045744
-0.00047483
-0.00050836
-0.00048417
-0.00032149
-4.7071e-05
0.00031232
0.0007783
0.0013344
0.0019147
0.0024737
0.0029609
0.0033658
0.0036994
0.0039523
0.0041435
0.0042947
0.0044048
0.0045155
0.0046643
0.0048292
0.0049821
0.0051053
0.0051865
0.005252
0.0053219
0.0053854
0.0054629
0.0055819
0.0057388
0.005939
0.0062158
0.0065806
0.0069961
0.0074326
0.0078546
0.0082028
0.0084365
0.0085434
0.0085457
0.0084802
0.008414
0.0084118
0.008478
0.0085783
0.008692
0.0087908
0.0088602
0.0089323
0.0090047
0.0090517
0.0090457
0.0089722
0.0088152
0.0085583
0.0082329
0.0078541
0.0074227
0.0070132
0.0066345
0.0062656
0.0059412
0.0056463
0.0053573
0.0051074
0.0049312
0.0048018
0.0046519
0.0044126
0.0040942
0.0037827
0.0035198
0.0033154
0.0031923
0.0031426
0.0031239
0.0030733
0.0029557
0.0027821
0.0025617
0.0023266
0.0020622
0.0017673
0.0014782
0.0012026
0.00090939
0.00060685
0.00033038
0.00011748
-0.00012193
-0.00056911
-0.0010725
-0.0014263
-0.0015026
-0.0014907
-0.001649
-0.0018332
-0.0019445
-0.0020178
-0.002187
-0.0025753
-0.0030906
-0.0035964
-0.0041214
-0.0046747
-0.0050904
-0.0052072
-0.0051045
-0.0050752
-0.005213
-0.0051787
-0.004987
-0.0048102
-0.0046177
-0.0044501
-0.0043267
-0.0041297
-0.00393
-0.0037325
-0.0034838
-0.0032459
-0.0030788
-0.0030041
-0.0030714
-0.0032653
-0.0035565
-0.0039762
-0.0044286
-0.0047961
-0.0050523
-0.005213
-0.0054016
-0.0056034
-0.0056888
-0.0057118
-0.0058209
-0.0059451
-0.0060434
-0.0061793
-0.0062455
-0.006182
-0.0060933
-0.0059423
-0.0057112
-0.0054619
-0.005235
-0.0050751
-0.0049845
-0.0049389
-0.0049293
-0.0049987
-0.0050588
-0.0049819
-0.0048673
-0.0047504
-0.0046032
-0.0043926
-0.0041202
-0.0037958
-0.0034782
-0.0031498
-0.0027228
-0.002204
-0.0016562
-0.0011009
-0.00061043
-0.00029502
-0.00016049
-0.00016926
-0.00023786
-0.00036229
-0.00053026
-0.00069716
-0.00078397
-0.00075974
-0.0006874
-0.00057284
-0.00044791
-0.00030507
-0.00011413
0.00010342
0.00035025
0.00060438
0.00078385
0.00083314
0.00079716
0.00076081
0.00076125
0.00082493
0.00092639
0.0010584
0.0012559
0.0015011
0.0017275
0.0018749
0.0019462
0.0019614
0.0020055
0.0022395
0.0026341
0.0030889
0.0035575
0.0039786
0.0043215
0.0046095
0.0048928
0.0051895
0.005465
0.0057077
0.0059215
0.0060945
0.0062376
0.0063113
0.0062738
0.0061012
0.0057758
0.00534
0.0048742
0.0044514
0.004138
0.0039094
0.0037145
0.0035075
0.0032618
0.0030002
0.0027544
0.002613
0.0026052
0.0026828
0.0028546
0.003106
0.0033815
0.0035972
0.0036769
0.0036249
0.0034849
0.0032613
0.0029388
0.0025264
0.0020686
0.0016646
0.0013519
0.001176
0.0011324
0.001152
0.0012095
0.0012505
0.0012459
0.0012087
0.0011509
0.0010552
0.00088879
0.00068243
0.00047846
0.00028361
8.8253e-05
-8.1276e-05
-0.00021729
-0.0003762
-0.00058552
-0.00084396
-0.00116
-0.0014633
-0.0016549
-0.0018679
-0.002201
-0.0025534
-0.0029182
-0.0033443
-0.0038589
-0.0044101
-0.0049209
-0.0053176
-0.0055747
-0.0057943
-0.0059987
-0.0061581
-0.0063216
-0.0065115
-0.0066513
-0.0066902
-0.0066571
-0.0066846
-0.0068528
-0.0069772
-0.0069501
-0.0068993
-0.0068819
-0.0069393
-0.00695
-0.0068284
-0.0067546
-0.0067273
-0.0066184
-0.0063839
-0.0060843
-0.005735
-0.0053688
-0.0050158
-0.0046688
-0.0043545
-0.0041301
-0.003971
-0.0038305
-0.0036525
-0.0034171
-0.0031276
-0.0027675
-0.0024054
-0.0021373
-0.0019564
-0.0018016
-0.0016315
-0.0014431
-0.0012646
-0.0011223
-0.0010469
-0.0010223
-0.0010165
-0.0010101
-0.00098554
-0.00094537
-0.00092143
-0.00092717
-0.00091976
-0.00082287
-0.00059753
-0.00023997
0.00021761
0.00073944
0.0013005
0.0018595
0.0023685
0.002811
0.0032009
0.0035768
0.003952
0.0043197
0.0046784
0.0050125
0.0053031
0.0055573
0.0057849
0.0060174
0.0062409
0.0064187
0.0065596
0.0067123
0.0069352
0.0071903
0.0073754
0.0075037
0.0076237
0.0076763
0.00761
0.0074501
0.0072414
0.0070592
0.0069376
0.0068239
0.0067012
0.0066134
0.0065588
0.0065057
0.0064134
0.0062124
0.0059096
0.0055558
0.0051814
0.0048187
0.004463
0.0040497
0.0035582
0.0030669
0.0026464
0.0023045
0.0020283
0.0018203
0.0016618
0.0015382
0.001447
0.0013927
0.0013607
0.0013547
0.0013809
0.0014178
0.0014641
0.0015076
0.0015192
0.0014741
0.0013558
0.0012133
0.0011402
0.0011371
0.0011804
0.0012304
0.0012501
0.0012122
0.001121
0.00099487
0.00084384
0.00067089
0.00047159
0.00026314
0.00011861
7.8244e-05
0.00011035
0.00016363
0.00017719
0.00015345
0.0001509
0.00017708
0.00022496
0.00033303
0.00049594
0.0006566
0.00077572
0.00086626
0.00090539
0.00088895
0.00084922
0.0007965
0.00075804
0.0007609
0.00078906
0.00085797
0.00098305
0.0011484
0.0013605
0.0016199
0.0019393
0.0022933
0.0026394
0.0029468
0.0031728
0.0033175
0.003391
0.0034103
0.0033803
0.0033238
0.0032639
0.003189
0.0030763
0.0029033
0.0026873
0.0024546
0.0022269
0.0020059
0.0017653
0.0015
0.0012388
0.00095957
0.00063263
0.000265
-0.00012649
-0.0004903
-0.00082218
-0.0011042
-0.0013103
-0.0014811
-0.0016759
-0.0019281
-0.0022194
-0.0025198
-0.0028284
-0.0031268
-0.0034089
-0.0036981
-0.0039978
-0.0043252
-0.0046794
-0.0050481
-0.0054259
-0.0058136
-0.0062201
-0.0066074
-0.0069426
-0.0072401
-0.0074724
-0.0075972
-0.0076454
-0.00764
-0.0076055
-0.0075801
-0.0075769
-0.0075706
-0.0075369
-0.0075095
-0.0075364
-0.0076386
-0.0078216
-0.0080244
-0.0081739
-0.0082682
-0.0083121
-0.00827
-0.0081262
-0.0079166
-0.0076773
-0.0074391
-0.0072131
-0.0069935
-0.0067892
-0.0066229
-0.0064884
-0.006406
-0.0063666
-0.0062923
-0.0060871
-0.0057281
-0.0052665
-0.004704
-0.0041117
-0.0035843
-0.0031775
-0.0029081
-0.0026354
-0.0023044
-0.0020056
-0.0017233
-0.0013639
-0.00091986
-0.00043488
7.8732e-05
0.00052412
0.00075992
0.00069423
0.00046367
0.00025768
0.0001818
0.00030251
0.00057816
0.00088608
0.0011949
0.0015581
0.0019354
0.0023064
0.0026901
0.0030624
0.0034241
0.0037069
0.0038774
0.0039783
0.0040228
0.0040363
0.0040289
0.0040261
0.0040524
0.0040779
0.0040291
0.0039676
0.004035
0.004289
0.004614
0.0048689
0.0050027
0.0049951
0.0048742
0.0046663
0.0043938
0.0040667
0.0037177
0.0034195
0.0031919
0.0030158
0.0028599
0.0027258
0.0026628
0.0027249
0.0028515
0.0029458
0.0030083
0.0029653
0.0027878
0.0026244
0.0025952
0.0026411
0.0026529
0.0026716
0.0027542
0.0029087
0.0030903
0.0032507
0.003445
0.0037171
0.0040385
0.004409
0.004764
0.0049356
0.0049711
0.0049968
0.0050222
0.005043
0.0050735
0.0050714
0.0050523
0.0050522
0.0050507
0.0050491
0.0049826
0.004869
0.0047615
0.0046153
0.0044242
0.0042623
0.0041757
0.0040939
0.0039959
0.003894
0.0037261
0.0035011
0.0031058
0.0024585
0.0018368
0.0013446
0.00095767
0.00071081
0.00051486
0.000311
0.00016123
7.9037e-05
-6.1253e-05
-0.00029158
-0.00055474
-0.00078338
-0.0010255
-0.0012532
-0.0014003
-0.001634
-0.0020705
-0.0026067
-0.0030597
-0.0035543
-0.0041881
-0.0042731
-0.003751
-0.0031709
-0.0027762
-0.0025742
-0.0026646
-0.0030538
-0.0035094
-0.0039883
-0.0045931
-0.0052653
-0.0058836
-0.006421
-0.0068416
-0.007154
-0.007395
-0.0076243
-0.0078811
-0.0079994
-0.008014
-0.0081394
-0.0083281
-0.0085275
-0.0087308
-0.0089633
-0.0091717
-0.009326
-0.0094861
-0.0096564
-0.0097723
-0.0098033
-0.0097731
-0.0096985
-0.0096032
-0.0094784
-0.0092932
-0.0090648
-0.0088342
-0.0086195
-0.008422
-0.0082401
-0.0080527
-0.0078597
-0.0076912
-0.0075526
-0.0074148
-0.007276
-0.0070744
-0.0067992
-0.0064777
-0.0061639
-0.0058659
-0.0056126
-0.0055302
-0.0054187
-0.0051116
-0.004771
-0.0044089
-0.0039031
-0.0033776
-0.0030254
-0.0028564
-0.0028114
-0.0027136
-0.0026322
-0.0025835
-0.0025131
-0.0023649
-0.0020652
-0.0016307
-0.0012323
-0.00095992
-0.00070963
-0.00042619
-0.00013296
0.00022305
0.00058838
0.00096711
0.0015174
0.0020486
0.0024648
0.002813
0.0030075
0.0031506
0.0033178
0.0034017
0.0034466
0.003677
0.0041484
0.0046534
0.0051402
0.0056787
0.0062574
0.0069006
0.0076057
0.0081409
0.0084952
0.0088277
0.0091607
0.0095186
0.0098958
0.010145
0.010376
0.010591
0.010866
0.011188
0.011372
0.01121
0.010736
0.01006
0.0092261
0.0084281
0.0077792
0.007333
0.0070298
0.0067787
0.0066141
0.0065514
0.0065591
0.0065618
0.0065223
0.0064491
0.0063835
0.0063695
0.0063988
0.0064305
0.0064681
0.006555
0.0066806
0.0068558
0.0070762
0.0073137
0.0075343
0.0077799
0.0079944
0.0081294
0.008126
0.0079797
0.0077935
0.0075443
0.0072592
0.0069266
0.0065526
0.0061968
0.0059045
0.0056308
0.0053791
0.0052288
0.0050532
0.0048821
0.0047593
0.0045838
0.0042815
0.0038249
0.0032462
0.0026489
0.0020793
0.0015006
0.00093188
0.00044967
1.7373e-05
-0.00040293
-0.00072894
-0.00098549
-0.0012757
-0.0016985
-0.0022697
-0.0027784
-0.0031659
-0.0034911
-0.0036862
-0.0037412
-0.0037277
-0.0037114
-0.0037055
-0.0037212
-0.0037873
-0.0039056
-0.0040866
-0.0042811
-0.0043954
-0.0044194
-0.0043832
-0.0043172
-0.0041867
-0.0039838
-0.0037602
-0.0035564
-0.0033962
-0.0033033
-0.0032912
-0.0034103
-0.0036954
-0.0040969
-0.004529
-0.0049405
-0.0052906
-0.0055941
-0.0058462
-0.0060801
-0.0061758
-0.0059923
-0.005597
-0.0051585
-0.004785
-0.0045084
-0.0043361
-0.0043072
-0.0044346
-0.0046093
-0.0047427
-0.0047768
-0.0046917
-0.0044981
-0.0042698
-0.004059
-0.003869
-0.0037153
-0.0035694
-0.0034006
-0.0031789
-0.0029154
-0.0027297
-0.0025983
-0.0024432
-0.0022307
-0.0019842
-0.0017501
-0.0015047
-0.0012081
-0.00088218
-0.00054124
-0.00020496
0.00012485
0.00039095
0.00055302
0.00064578
0.00072938
0.00081959
0.0009175
0.0010322
0.0010681
0.00095184
0.00077068
0.00056755
0.00030859
-2.246e-06
-0.0002872
-0.00043492
-0.00043203
-0.00037529
-0.00032457
-0.00025509
-0.0001727
-0.00011272
-0.00010946
-0.0001615
-0.00022156
-0.00024217
-0.00020916
-0.00018483
-0.00022777
-0.00036761
-0.00052359
-0.00062783
-0.00069594
-0.00071792
-0.00068542
-0.00059768
-0.00041744
-0.00022537
-0.00011553
-4.4845e-05
2.0043e-05
0.00010396
0.00021637
0.00035014
0.00052751
0.00075983
0.0010337
0.0012746
0.0014206
0.0015765
0.0017882
0.0019794
0.0020852
0.0021257
0.0021565
0.0021759
0.0022251
0.0024546
0.0029264
0.003437
0.0038478
0.0042177
0.0044762
0.0046186
0.0046576
0.0045178
0.0043484
0.0043571
0.0044619
0.0045881
0.0048235
0.0050992
0.0053457
0.0055879
0.0058226
0.0059997
0.0061353
0.0061895
0.0062167
0.0062941
0.0063769
0.0064616
0.0065859
0.0067177
0.0068106
0.0068237
0.0067803
0.006738
0.0067168
0.0067407
0.0067962
0.0068259
0.0067981
0.0067252
0.00665
0.0065714
0.0065238
0.0065101
0.0065147
0.0065341
0.0065273
0.0064621
0.0063819
0.0063376
0.0062874
0.0062294
0.0062175
0.0062747
0.0063845
0.0064491
0.0063758
0.0061893
0.00594
0.0057023
0.0054607
0.0052019
0.0049421
0.0046697
0.0044086
0.0041716
0.003955
0.003757
0.0035658
0.0033677
0.0031187
0.0028601
0.0026428
0.0023894
0.0020667
0.0017262
0.0013037
0.00068647
-8.6009e-05
-0.00092231
-0.0017628
-0.0025774
-0.0033159
-0.004015
-0.0046517
-0.0052298
-0.0057552
-0.0062585
-0.0066941
-0.0070617
-0.0074323
-0.0077626
-0.007944
-0.0079767
-0.007946
-0.0079138
-0.0078796
-0.0077837
-0.007657
-0.0075496
-0.0074883
-0.007452
-0.0074003
-0.0073172
-0.007245
-0.0072343
-0.0072547
-0.0072216
-0.0071446
-0.0071134
-0.0071274
-0.0071895
-0.0073542
-0.0075959
-0.0078896
-0.0081748
-0.0083636
-0.008417
-0.008348
-0.0082622
-0.008239
-0.0082538
-0.0083027
-0.0084306
-0.0085474
-0.0085492
-0.0084003
-0.008194
-0.0082652
-0.0087022
-0.0092713
-0.0095872
-0.0096669
-0.0095852
-0.0093282
-0.0088688
-0.0082025
-0.0073322
-0.0064227
-0.0056215
-0.0048965
-0.0041882
-0.0035337
-0.0029134
-0.0022999
-0.0016756
-0.0010377
-0.00037354
0.00027681
0.0008925
0.0014718
0.002
0.0024209
0.0027118
0.0029369
0.0031674
0.0033544
0.0033891
0.003253
0.00304
0.0027967
0.0025572
0.0023775
0.0022351
0.0021594
0.0022182
0.0022958
0.0022182
0.0019606
0.0016027
0.0011649
0.00073904
0.00043227
0.00023004
0.00011938
6.6032e-05
2.2659e-05
5.9234e-05
0.0002027
0.00035944
0.00053568
0.00072609
0.00092546
0.0011283
0.0013131
0.0014611
0.0016015
0.0017137
0.0017601
0.0017426
0.0016673
0.0015466
0.0014176
0.0012647
0.0010432
0.00079875
0.00062273
0.00046199
0.00026825
6.1189e-05
-0.0001382
-0.00032396
-0.00048902
-0.00067554
-0.00091524
-0.0012109
-0.0015496
-0.0019617
-0.002491
-0.0031216
-0.0037847
-0.0043982
-0.0048946
-0.0052445
-0.0054571
-0.005561
-0.0055887
-0.005592
-0.0056068
-0.0056989
-0.005887
-0.0061444
-0.0064627
-0.0067788
-0.0070697
-0.0072766
-0.0073147
-0.0071634
-0.0069214
-0.0065983
-0.0061739
-0.0058044
-0.0055332
-0.005272
-0.0050006
-0.0047816
-0.0046414
-0.0045001
-0.0044842
-0.0045208
-0.0044461
-0.0043537
-0.0043462
-0.004321
-0.0042387
-0.0040694
-0.0038106
-0.0036373
-0.0035852
-0.0035654
-0.0035304
-0.003451
-0.0032934
-0.0030422
-0.0027659
-0.0024179
-0.0022556
-0.002393
-0.0024388
-0.0023845
-0.0023397
-0.0021907
-0.0018629
-0.0014069
-0.0010819
-0.0010106
-0.0010221
-0.00084612
-0.00036731
0.00037767
0.0013397
0.0023323
0.0030919
0.0035956
0.0038874
0.0040203
0.0040994
0.004221
0.0044062
0.0046437
0.0049441
0.005331
0.005782
0.0062354
0.0066411
0.0069996
0.0072746
0.0074878
0.0077489
0.0079733
0.0081227
0.0082972
0.0084147
0.008347
0.00816
0.0078877
0.0074944
0.0070898
0.0067153
0.0062996
0.0057974
0.0052969
0.0048857
0.0045493
0.0042572
0.0039837
0.0036949
0.0034317
0.0032815
0.0032575
0.0032806
0.0033371
0.0034738
0.0037032
0.0040079
0.004282
0.0044795
0.0046667
0.0048991
0.0051703
0.0054538
0.0057299
0.0059577
0.006072
0.006038
0.0058628
0.0055763
0.0052328
0.004877
0.0045137
0.0041391
0.0038058
0.0035412
0.0033184
0.0031115
0.0029315
0.0028004
0.0027191
0.0027158
0.0027346
0.0026984
0.0025777
0.0023504
0.0020143
0.0016186
0.0012168
0.00081538
0.00043117
0.00011588
-9.0381e-05
-0.00022224
-0.00032752
-0.00034881
-0.00023365
-3.9637e-05
0.00016666
0.00036695
0.00055876
0.00073004
0.00087851
0.0010345
0.0011572
0.0012196
0.0012865
0.001407
0.0016025
0.0019187
0.0023383
0.0027764
0.0031709
0.0035279
0.0037997
0.0039217
0.0038888
0.0037493
0.0036055
0.0035151
0.0034738
0.0034352
0.0033063
0.0030675
0.0028143
0.0026271
0.0025248
0.0024942
0.0025084
0.0025544
0.0025782
0.0025315
0.002409
0.0022234
0.0019907
0.0017402
0.001561
0.0015159
0.0015697
0.0016381
0.0016416
0.001551
0.0014138
0.0012832
0.0012294
0.001299
0.0014711
0.0016949
0.0019024
0.0020904
0.0022448
0.0022772
0.0021781
0.0019875
0.001741
0.0015004
0.0012993
0.0011516
0.0011015
0.001133
0.0011755
0.0011834
0.0010998
0.00092188
0.00071412
0.00053171
0.00039
0.00028267
0.00012747
-0.00015367
-0.00055754
-0.0010395
-0.0015403
-0.0020528
-0.0025439
-0.0029721
-0.0033182
-0.0036114
-0.0039072
-0.0042103
-0.00453
-0.0048618
-0.00511
-0.0052052
-0.0051754
-0.0050981
-0.0050737
-0.0051327
-0.0052156
-0.0053045
-0.0053658
-0.0053909
-0.00538
-0.005298
-0.0051554
-0.0049834
-0.0048436
-0.0047683
-0.0047023
-0.0046052
-0.0044687
-0.0042864
-0.0040904
-0.0039201
-0.0038251
-0.0037957
-0.0037702
-0.0037404
-0.0037129
-0.0037119
-0.0037376
-0.0037031
-0.0035804
-0.0033945
-0.0031453
-0.0028553
-0.0025612
-0.0022886
-0.0020927
-0.0019382
-0.001723
-0.0014025
-0.00096642
-0.00045227
6.2934e-05
0.00052812
0.00096796
0.0013537
0.001702
0.0020486
0.0023818
0.0027014
0.0029942
0.0032549
0.003507
0.0038119
0.0041174
0.0043397
0.0044965
0.0046791
0.0048923
0.0051039
0.0053299
0.0055734
0.0058261
0.0059632
0.0059926
0.0060414
0.0061187
0.0062793
0.0064242
0.0063508
0.0061313
0.0059638
0.0058158
0.0056665
0.0055316
0.0054402
0.0052614
0.0049063
0.0045937
0.0044034
0.0043132
0.0042704
0.0041751
0.004097
0.0041019
0.0041076
0.0041361
0.0042202
0.0043242
0.004377
0.004246
0.0039931
0.0036961
0.0033942
0.0030944
0.0028256
0.0026513
0.0024009
0.0020532
0.0016607
0.0012468
0.00099917
0.00097532
0.0009878
0.00089793
0.00070341
0.00042966
0.00014537
-8.7571e-05
-0.00032282
-0.00060818
-0.00090246
-0.0011668
-0.0013489
-0.0014394
-0.0014665
-0.0014028
-0.001263
-0.0010644
-0.00091548
-0.00088312
-0.00089951
-0.00094909
-0.0010923
-0.0013548
-0.0016837
-0.0020023
-0.0023176
-0.002561
-0.0026575
-0.0025922
-0.0024248
-0.0022634
-0.0021242
-0.0019881
-0.0019292
-0.0019836
-0.0021236
-0.0023431
-0.00262
-0.0029122
-0.0032
-0.0035
-0.0038361
-0.0042428
-0.0047096
-0.0051817
-0.0056532
-0.0061266
-0.0066349
-0.0072308
-0.0078705
-0.0084336
-0.0089166
-0.0093437
-0.0097406
-0.010133
-0.010471
-0.010703
-0.010763
-0.010645
-0.010388
-0.01004
-0.009718
-0.0094784
-0.0093017
-0.0092203
-0.0091697
-0.0090552
-0.0088271
-0.0084623
-0.0080387
-0.0077194
-0.0075217
-0.007368
-0.0071529
-0.0069337
-0.0067344
-0.0065839
-0.0065017
-0.0064771
-0.0065302
-0.0066046
-0.0066095
-0.0064818
-0.0062337
-0.0059114
-0.0055083
-0.0050279
-0.0045721
-0.0041814
-0.0038029
-0.0034413
-0.0031463
-0.0029206
-0.0026905
-0.0023915
-0.0020262
-0.001627
-0.0012413
-0.0009431
-0.0007201
-0.00053527
-0.00033736
-9.7411e-05
0.00025049
0.00067437
0.0010234
0.0014396
0.0020599
0.0028613
0.0035439
0.0039524
0.0042399
0.0044184
0.0048844
0.0057806
0.0066603
0.0075216
0.0083206
0.008807
0.0090072
0.0088292
0.0082608
0.0076709
0.0073509
0.0071526
0.0069987
0.0070329
0.0070646
0.0070093
0.0069776
0.0068969
0.0068027
0.0066385
0.006201
0.0056418
0.0051066
0.0046442
0.004298
0.0041307
0.0042153
0.0046142
0.0051056
0.0053313
0.0053192
0.0052596
0.0051859
0.0050796
0.0047612
0.0043964
0.0042765
0.0043823
0.0047163
0.0048225
0.0046592
0.0046293
0.0046072
0.0047232
0.0049855
0.0051365
0.0052446
0.005435
0.0056528
0.0059298
0.0061696
0.0062819
0.006228
0.0059825
0.0057342
0.0055684
0.005524
0.0056905
0.0057545
0.0057596
0.005893
0.0058905
0.0057181
0.005508
0.0053286
0.0052968
0.0054182
0.0056207
0.0059127
0.006172
0.0064264
0.0066667
0.0068281
0.0069182
0.0070104
0.0071839
0.0071906
0.0069622
0.0066879
0.0064995
0.0064041
0.0064881
0.0067158
0.007054
0.0072419
0.007013
0.0066449
0.0062889
0.0059227
0.0055676
0.005242
0.00502
0.0047882
0.0044194
0.0039013
0.0032843
0.002732
0.0025131
0.0024522
0.0022877
0.0020008
0.0017438
0.0015952
0.0014038
0.0011302
0.00088436
0.00063176
0.00042987
0.00045884
0.00051338
0.00030596
-6.1791e-05
-0.00071575
-0.0015688
-0.0022168
-0.0027043
-0.0031809
-0.0034779
-0.0035585
-0.0037441
-0.0040775
-0.0044532
-0.0048178
-0.005292
-0.0058235
-0.006365
-0.0069475
-0.0075668
-0.0081636
-0.0087108
-0.0091643
-0.0095378
-0.0098859
-0.010152
-0.010262
-0.010234
-0.010097
-0.0098276
-0.0094595
-0.0090997
-0.0088118
-0.0085747
-0.0083752
-0.0083756
-0.008487
-0.0084235
-0.0081862
-0.0079145
-0.0076308
-0.0074406
-0.0073568
-0.0073012
-0.0073372
-0.0075652
-0.0079074
-0.0081696
-0.0082205
-0.0081782
-0.0081594
-0.0080853
-0.0079308
-0.0077694
-0.0077301
-0.007766
-0.0078129
-0.0078777
-0.0079409
-0.0080211
-0.0080883
-0.0080592
-0.007846
-0.0074338
-0.0068883
-0.0062479
-0.005554
-0.0048973
-0.0043647
-0.004064
-0.0040436
-0.0041781
-0.0043401
-0.0044492
-0.0044164
-0.0042097
-0.0038296
-0.0033357
-0.0027645
-0.0021587
-0.0016433
-0.0012087
-0.00079517
-0.00039628
-2.3986e-06
0.00029715
0.00046393
0.00059296
0.0006741
0.00069988
0.00063013
0.00043882
0.00023832
1.5807e-05
-0.00019222
-0.0003301
-0.00044782
-0.00056637
-0.0006583
-0.00081812
-0.001197
-0.0017365
-0.0022554
-0.0026685
-0.0030024
-0.0032238
-0.0032823
-0.0032052
-0.0031203
-0.0031451
-0.003243
-0.0033451
-0.003402
-0.0033188
-0.0030632
-0.0026532
-0.0020859
-0.0013725
-0.00062612
2.1645e-05
0.00052195
0.00089647
0.0011822
0.0013141
0.0013429
0.0013705
0.0014848
0.0016466
0.0018649
0.0021746
0.002525
0.0028846
0.0032612
0.0035868
0.0038206
0.0039611
0.0039826
0.004036
0.0041615
0.0042616
0.0044158
0.0046212
0.0048208
0.0050078
0.0051115
0.0051791
0.0052795
0.0053711
0.0054387
0.00548
0.0055161
0.0055301
0.0054915
0.0054015
0.005193
0.0049421
0.0047458
0.0045225
0.0043016
0.0042693
0.00446
0.0048231
0.0052205
0.0056098
0.0060153
0.0063594
0.0065723
0.0066443
0.0065888
0.0065699
0.0066528
0.006723
0.0068023
0.0068231
0.0066976
0.0063544
0.0058013
0.0051227
0.0044049
0.0038314
0.003425
0.0031134
0.0028461
0.0026161
0.0024433
0.0022537
0.0019737
0.0015902
0.0010896
0.00056525
0.00019181
-2.3705e-05
-8.8361e-05
-6.2194e-05
5.4149e-05
0.00032698
0.00064622
0.00095712
0.0012457
0.0014952
0.0017156
0.0018484
0.0019315
0.0019815
0.0019555
0.0018599
0.0016646
0.0013881
0.0012298
0.0012252
0.001361
0.0016547
0.0019846
0.0022778
0.0025753
0.0028841
0.0032316
0.0036073
0.0038955
0.0040147
0.0039327
0.0037165
0.0034306
0.0031002
0.0027915
0.0025526
0.0023483
0.002193
0.0021291
0.0021635
0.0022591
0.0023404
0.0023925
0.0023764
0.0023
0.0022038
0.0021088
0.0020565
0.0020913
0.0021926
0.0023159
0.0024125
0.0024621
0.0025037
0.0025814
0.0026981
0.0028531
0.0030402
0.0032086
0.0033164
0.0033047
0.0031759
0.0029878
0.0027153
0.0022848
0.0017352
0.0011616
0.00057182
-4.4627e-05
-0.00072044
-0.0014317
-0.002106
-0.0027011
-0.0031593
-0.0035039
-0.0037508
-0.0039068
-0.0040376
-0.0042515
-0.0045989
-0.0050292
-0.0054648
-0.0058102
-0.0060505
-0.006244
-0.0063991
-0.0064674
-0.0064208
-0.0062456
-0.0060071
-0.0057543
-0.0054915
-0.0052219
-0.0049404
-0.0046851
-0.0044555
-0.004233
-0.0040424
-0.0039368
-0.0038938
-0.0038721
-0.0038297
-0.0037242
-0.0035842
-0.0033905
-0.0031533
-0.0029075
-0.0026029
-0.0023112
-0.0021036
-0.0019968
-0.0019968
-0.0020411
-0.0021506
-0.0023938
-0.0026863
-0.0029724
-0.0032438
-0.0034563
-0.0035376
-0.0034448
-0.0032498
-0.0030087
-0.0027544
-0.0024654
-0.0021293
-0.0017382
-0.0012851
-0.00082397
-0.00039063
6.9479e-05
0.00052889
0.00095283
0.001282
0.001471
0.0015333
0.001515
0.0014725
0.0014972
0.0016089
0.001795
0.0020304
0.0022564
0.0024808
0.0027271
0.0029767
0.0031346
0.0031633
0.0031243
0.0030409
0.002931
0.0027976
0.002643
0.0024681
0.0023466
0.0023784
0.002502
0.002603
0.0026355
0.0025334
0.0023817
0.0022815
0.0021556
0.0020057
0.0018761
0.0017239
0.0015429
0.0012886
0.00095817
0.00064997
0.00046988
0.00037735
0.00032983
0.00034156
0.00039372
0.0004868
0.00063121
0.00079403
0.00094328
0.0010471
0.0010715
0.0010665
0.0010453
0.0010018
0.00090336
0.00073065
0.00050981
0.00031226
0.00025171
0.00026445
0.00028618
0.00029801
0.00033206
0.00047539
0.00070848
0.00092267
0.0010019
0.00095765
0.00085325
0.00063721
0.00027003
-0.00021715
-0.00082734
-0.001447
-0.0019683
-0.0024825
-0.0030069
-0.0034061
-0.0036626
-0.0038017
-0.0038424
-0.0039161
-0.0040748
-0.0042691
-0.0044856
-0.0047615
-0.0051023
-0.0053933
-0.0055633
-0.0054795
-0.0052414
-0.0050662
-0.00496
-0.0048802
-0.0049044
-0.0050198
-0.0051064
-0.0051787
-0.0051659
-0.0050965
-0.0051405
-0.0052471
-0.0052988
-0.0053595
-0.0054521
-0.0054817
-0.0054713
-0.0054603
-0.0053862
-0.0053262
-0.0053042
-0.0053019
-0.0053146
-0.005285
-0.0052114
-0.0050921
-0.0049001
-0.0046798
-0.0045469
-0.0045759
-0.0047794
-0.0051389
-0.0055569
-0.0059913
-0.0064144
-0.0066897
-0.0066582
-0.0063509
-0.0058761
-0.0052561
-0.0044686
-0.0035521
-0.0025702
-0.0016011
-0.00072559
0.0001234
0.001015
0.0017998
0.0024517
0.0029412
0.0033072
0.0036951
0.0041642
0.0046843
0.0052582
0.0058271
0.0062961
0.0066874
0.0070852
0.0073931
0.0075863
0.0077232
0.0078019
0.0078195
0.0078016
0.0076262
0.0072664
0.0068468
0.0063973
0.0061053
0.0060838
0.0061515
0.0062643
0.0064881
0.0067159
0.006851
0.0069157
0.0069284
0.0069054
0.0068886
0.0069223
0.0070519
0.00733
0.0076616
0.0078975
0.0079864
0.0079454
0.0078053
0.0074956
0.0070991
0.0067983
0.0066467
0.0066202
0.0066728
0.0066972
0.0066661
0.006556
0.0063504
0.0060136
0.005568
0.0051021
0.0046343
0.0040354
0.0033388
0.0026084
0.0018577
0.0011861
0.00059601
3.8455e-05
-0.00046028
-0.00086481
-0.0012502
-0.0016898
-0.002198
-0.0027658
-0.0033956
-0.0039912
-0.0044965
-0.0049627
-0.0053244
-0.0055714
-0.0056877
-0.005636
-0.0054959
-0.0052746
-0.0049018
-0.0043524
-0.003707
-0.0031087
-0.0026733
-0.0024696
-0.0024563
-0.0025491
-0.0027894
-0.0031184
-0.003438
-0.0037156
-0.0039068
-0.0039746
-0.0039137
-0.0037762
-0.003643
-0.0036145
-0.0036972
-0.0037714
-0.0037029
-0.0034764
-0.0030855
-0.0024763
-0.0017071
-0.0008846
-0.00015515
0.00035153
0.00066655
0.00090648
0.0011617
0.0015008
0.0018829
0.002271
0.0026687
0.0030063
0.0032294
0.0033811
0.0034678
0.0035294
0.0035004
0.0032752
0.0030346
0.002978
0.0029854
0.0029449
0.0029239
0.0029735
0.0031426
0.0034156
0.0037392
0.0040271
0.0042179
0.0043218
0.0043234
0.0042164
0.0041333
0.0041183
0.0041417
0.0042489
0.0043877
0.0044528
0.0043977
0.0042477
0.0041086
0.004127
0.0043259
0.004577
0.0048853
0.0053043
0.0057627
0.0062174
0.0066492
0.0069294
0.006957
0.0067329
0.0062667
0.0056688
0.00511
0.0046246
0.0041873
0.0037948
0.003447
0.0031037
0.0027734
0.0025275
0.0023534
0.0022329
0.0021134
0.0019406
0.0017041
0.0013661
0.00097346
0.00063604
0.00035128
0.00010485
-0.00012058
-0.00035522
-0.00056721
-0.00067196
-0.0005554
-0.0001593
0.00033188
0.00070901
0.00096221
0.0010662
0.00097832
0.00074313
0.00035665
-0.0001301
-0.00060943
-0.00094107
-0.0010883
-0.0011281
-0.0010518
-0.00086405
-0.00069306
-0.00063142
-0.00068725
-0.00084311
-0.0010359
-0.0012548
-0.001545
-0.0019242
-0.0024068
-0.003019
-0.0037161
-0.0043684
-0.0049522
-0.005494
-0.0059763
-0.0064036
-0.0067821
-0.0070761
-0.0072652
-0.0073303
-0.0072381
-0.0070218
-0.0067651
-0.0065126
-0.0063126
-0.0062059
-0.0061897
-0.0062753
-0.0064504
-0.0066247
-0.0067654
-0.0068511
-0.0068487
-0.0067825
-0.0067148
-0.0066449
-0.0065504
-0.0063866
-0.0061611
-0.005883
-0.0055259
-0.005104
-0.0046647
-0.0043473
-0.0042316
-0.0042421
-0.0042621
-0.0042298
-0.0041539
-0.0040363
-0.0037821
-0.0033238
-0.0027762
-0.0022366
-0.001718
-0.0012649
-0.00091913
-0.0006733
-0.00052565
-0.00045418
-0.00036609
-0.00019104
4.0037e-05
0.00037031
0.00084482
0.001446
0.0021762
0.0030123
0.0039169
0.0047957
0.0055747
0.0061841
0.0066041
0.0068598
0.0069348
0.0068655
0.0067283
0.0065688
0.006401
0.0062343
0.0060757
0.0059087
0.0057508
0.0056097
0.0054665
0.0053279
0.0051952
0.0050817
0.0050342
0.0049628
0.0047961
0.0045771
0.0043323
0.0040645
0.0038194
0.0036457
0.0035461
0.0034497
0.0033074
0.003097
0.0028013
0.0024542
0.0020412
0.0015782
0.0011212
0.0006551
0.00017207
-0.00033781
-0.00085356
-0.001314
-0.0017921
-0.0023767
-0.0030194
-0.00367
-0.0043301
-0.0050086
-0.0056759
-0.0062816
-0.0067929
-0.007204
-0.0075799
-0.0079416
-0.0082786
-0.0086358
-0.0090272
-0.0094471
-0.0098647
-0.010238
-0.010568
-0.010858
-0.011124
-0.011392
-0.011699
-0.012037
-0.012302
-0.01242
-0.012417
-0.012308
-0.012082
-0.011772
-0.011412
-0.011023
-0.010652
-0.010289
-0.0099385
-0.0096651
-0.00945
-0.009221
-0.0089616
-0.0086702
-0.0083638
-0.0080302
-0.0076474
-0.0072563
-0.0069167
-0.0066762
-0.0065049
-0.0063741
-0.0062818
-0.0062271
-0.0061751
-0.006081
-0.0059449
-0.0057614
-0.0055258
-0.005224
-0.0049135
-0.004655
-0.0044461
-0.0042644
-0.0040852
-0.0038482
-0.0034854
-0.0030213
-0.0025265
-0.0020253
-0.0015183
-0.0010198
-0.00052993
-4.7503e-05
0.00046122
0.0010029
0.0015482
0.0020735
0.0025771
0.0031223
0.0037292
0.0043178
0.004852
0.0053391
0.0057908
0.0062326
0.0066807
0.007178
0.0077441
0.0083078
0.0088486
0.0093529
0.0097994
0.010196
0.01055
0.010894
0.01124
0.011612
0.01208
0.012624
0.013131
0.013523
0.013819
0.014051
0.014229
0.014321
0.014304
0.014234
0.014186
0.014191
0.014241
0.014374
0.014618
0.015003
0.015539
0.016098
0.016554
0.016875
0.017101
0.017242
0.01728
0.01726
0.017227
0.017179
0.017139
0.01705
0.016854
0.016615
0.016407
0.016153
0.015786
0.015372
0.014929
0.014456
0.013958
0.013388
0.012715
0.011929
0.010998
0.0099369
0.0088135
0.0077602
0.0068475
0.0061028
0.0055302
0.005091
0.0047421
0.004368
0.0039169
0.0034235
0.0028996
0.0023791
0.001844
0.0012696
0.000647
-6.9744e-05
-0.00085683
-0.0016999
-0.0026178
-0.0035478
-0.0044164
-0.0052193
-0.0060383
-0.0069277
-0.0078083
-0.008579
-0.0091554
-0.0094895
-0.0095974
-0.0095381
-0.0094327
-0.0094313
-0.0096127
-0.0099962
-0.010608
-0.011353
-0.012073
-0.012686
-0.013133
-0.013406
-0.013485
-0.013394
-0.013191
-0.012949
-0.012768
-0.012637
-0.012562
-0.012564
-0.012633
-0.012715
-0.012746
-0.012741
-0.012703
-0.012613
-0.012487
-0.012309
-0.012028
-0.011659
-0.011191
-0.010625
-0.0099619
-0.009244
-0.0085799
-0.0079678
-0.007401
-0.0069314
-0.0065356
-0.0061846
-0.0058865
-0.0056338
-0.0054164
-0.005239
-0.0050782
-0.0049116
-0.004687
-0.004391
-0.0040377
-0.0036886
-0.003432
-0.0033086
-0.0033583
-0.0034787
-0.0034437
-0.0032
-0.002866
-0.0024783
-0.0021019
-0.0018194
-0.0016498
-0.0015549
-0.0014747
-0.0013762
-0.001194
-0.00088169
-0.00043598
8.5052e-05
0.00058498
0.0010462
0.0014425
0.0017069
0.0017779
0.0016223
0.0013112
0.00096568
0.0006299
0.00035473
0.00023219
0.00024715
0.0003659
0.0005851
0.00089413
0.0013513
0.0019371
0.0025899
0.0032552
0.0038635
0.0043704
0.0047518
0.0049534
0.0050248
0.0049843
0.004833
0.0046769
0.004539
0.0044472
0.0044322
0.004423
0.0043853
0.0043653
0.0044097
0.0044978
0.0045676
0.0045099
0.0042501
0.0038471
0.0033993
0.0029432
0.0025388
0.0023095
0.0023286
0.0025899
0.0029719
0.0033301
0.0035457
0.0035855
0.0034143
0.003052
0.0025958
0.0021062
0.0015745
0.0010341
0.00058982
0.00018185
-0.00026189
-0.00074663
-0.0012615
-0.001738
-0.0021241
-0.0023918
-0.0024783
-0.0023705
-0.0021262
-0.0018272
-0.0015687
-0.0013853
-0.0012393
-0.0011778
-0.0012346
-0.0013569
-0.001463
-0.0015031
-0.0015339
-0.0016095
-0.0017622
-0.0019825
-0.0022692
-0.0025818
-0.0028165
-0.0028684
-0.0028259
-0.0027473
-0.0025884
-0.002451
-0.0023996
-0.0024589
-0.0026211
-0.0027999
-0.0029196
-0.0030314
-0.0031786
-0.0033293
-0.0034871
-0.0036205
-0.003633
-0.0035288
-0.003373
-0.0031604
-0.0028549
-0.0025292
-0.0022955
-0.0021684
-0.0020647
-0.0019787
-0.0018805
-0.0016671
-0.0012754
-0.00073578
-0.00011402
0.0005073
0.0011531
0.0018353
0.0024606
0.0030532
0.0036555
0.0042401
0.0048149
0.005354
0.0058135
0.0061888
0.0064724
0.006674
0.0068245
0.0069536
0.0071252
0.007339
0.0075433
0.0077112
0.0078871
0.008103
0.0082345
0.0081317
0.0077446
0.0071384
0.006443
0.0057214
0.0051366
0.0048063
0.0046228
0.0044386
0.0042432
0.0040206
0.0036954
0.0032889
0.0028845
0.0025497
0.0022937
0.0021242
0.0020057
0.0019067
0.001853
0.0018353
0.0018269
0.0018471
0.0018979
0.0019264
0.0018761
0.0017064
0.0014149
0.0010006
0.00051268
2.2624e-05
-0.00047469
-0.00096708
-0.0014345
-0.0018703
-0.002282
-0.0026639
-0.0030309
-0.0033842
-0.0037417
-0.0040672
-0.0043383
-0.0046116
-0.0048961
-0.005197
-0.0055055
-0.0057664
-0.0059927
-0.0062873
-0.0066823
-0.0070817
-0.007395
-0.0075885
-0.0077201
-0.0078475
-0.00802
-0.0082401
-0.0085047
-0.0088344
-0.009139
-0.0093336
-0.0093806
-0.0092992
-0.0091159
-0.0088125
-0.008471
-0.0081497
-0.0078246
-0.0075347
-0.0073134
-0.0071516
-0.0070233
-0.0068895
-0.0066979
-0.0064049
-0.006001
-0.0055308
-0.0050282
-0.0045008
-0.00401
-0.0036205
-0.0033034
-0.0030088
-0.0027451
-0.0025415
-0.0023753
-0.0022152
-0.002028
-0.0018037
-0.0015139
-0.0011684
-0.00079183
-0.00033502
0.00024805
0.00093964
0.0016863
0.0024111
0.0030149
0.0034766
0.0038352
0.0040625
0.0041377
0.0041449
0.0041188
0.0041294
0.0042171
0.0043189
0.0043559
0.0044125
0.0045805
0.0048225
0.0051317
0.0054402
0.0057036
0.0059814
0.006288
0.0066122
0.006929
0.0072283
0.0075162
0.0078306
0.0082325
0.0087359
0.0092854
0.0097793
0.010117
0.010239
0.010174
0.010036
0.0098921
0.0097812
0.0097669
0.0098247
0.0098431
0.0097661
0.0095683
0.009213
0.00873
0.0081361
0.0074818
0.0068483
0.0062809
0.0058407
0.0056042
0.0055822
0.0057198
0.0059335
0.006151
0.0063769
0.0066069
0.0067658
0.0068718
0.0069082
0.0068136
0.0065947
0.0062877
0.0058867
0.0054184
0.0049321
0.004433
0.0039301
0.0033868
0.0028066
0.0022826
0.00182
0.0014041
0.0010681
0.00088217
0.0007881
0.00064574
0.00043179
0.00011031
-0.00033773
-0.00083177
-0.0013206
-0.00174
-0.0020467
-0.0022703
-0.0024102
-0.0024827
-0.0025304
-0.0026186
-0.00279
-0.0030518
-0.0034284
-0.003796
-0.004048
-0.0042187
-0.0043389
-0.0044027
-0.0043575
-0.0043108
-0.0043858
-0.004526
-0.0046508
-0.0047285
-0.004722
-0.0045977
-0.0043516
-0.0040072
-0.003637
-0.0032888
-0.0029978
-0.0028834
-0.0029153
-0.0030158
-0.0031529
-0.0032639
-0.0033536
-0.0034752
-0.0036069
-0.0038076
-0.0041033
-0.0044679
-0.0049547
-0.0055642
-0.0061615
-0.0066292
-0.0069412
-0.0070478
-0.0069555
-0.0066976
-0.0063135
-0.0059068
-0.005479
-0.0050136
-0.0045679
-0.0041928
-0.0038389
-0.0034897
-0.0031843
-0.0028309
-0.00235
-0.0017756
-0.0011746
-0.00057836
-1.3731e-05
0.00054335
0.0010755
0.0014888
0.0017102
0.0017804
0.0018223
0.0018986
0.0020711
0.002292
0.0024917
0.0027014
0.002924
0.003098
0.0032126
0.0033271
0.0034529
0.0035584
0.0036297
0.0036708
0.0036521
0.0035621
0.003419
0.0032385
0.0030454
0.0028149
0.0025288
0.0022758
0.0021277
0.002089
0.002095
0.0020146
0.0017824
0.0014913
0.0012019
0.00092996
0.00067873
0.00040974
0.00014148
-6.5597e-05
-0.00019782
-0.00026255
-0.00026107
-0.00024743
-0.00019167
-4.8833e-05
0.00017116
0.00042621
0.00057557
0.00057285
0.00043763
0.00019561
-7.6016e-05
-0.00030785
-0.00046368
-0.00058963
-0.00073026
-0.00096852
-0.001321
-0.0017406
-0.0021567
-0.0025713
-0.00306
-0.0035726
-0.0039897
-0.0042862
-0.0044989
-0.0046375
-0.0047463
-0.004865
-0.0049612
-0.0050299
-0.0050512
-0.0049879
-0.0049036
-0.0049024
-0.0049511
-0.0049803
-0.0049861
-0.0049269
-0.0047307
-0.0043991
-0.003986
-0.003554
-0.0031511
-0.0027612
-0.0023734
-0.002053
-0.0018663
-0.0017999
-0.001798
-0.0017611
-0.0016227
-0.0014135
-0.0011416
-0.00076691
-0.00025445
0.00036009
0.0010238
0.0017178
0.0024164
0.0030449
0.0035421
0.0039386
0.004207
0.0042998
0.0042043
0.0039245
0.0035331
0.0031011
0.0027259
0.0024562
0.0022215
0.0019608
0.001703
0.0014396
0.0011861
0.0010392
0.0010773
0.0012316
0.0013283
0.001329
0.0013428
0.0014429
0.0016251
0.0018862
0.0022274
0.0026355
0.0030488
0.0034518
0.0038439
0.0041722
0.0043635
0.0044
0.0043195
0.0042522
0.0042884
0.0044116
0.0045858
0.004762
0.0048435
0.004759
0.0045111
0.0041908
0.0039325
0.0037402
0.0036009
0.003543
0.0035176
0.0034577
0.0033679
0.0032471
0.0030945
0.0029188
0.0027155
0.0024389
0.0020944
0.0017774
0.0015377
0.0013748
0.0012629
0.0011937
0.0011777
0.0011732
0.0011715
0.0011877
0.0011749
0.0010962
0.00094634
0.00077435
0.0006271
0.00047446
0.00030815
0.00017951
2.8052e-05
-0.0002291
-0.0006521
-0.0011447
-0.001625
-0.0020808
-0.0023866
-0.0025266
-0.0025643
-0.0025695
-0.0026685
-0.0028832
-0.0032149
-0.0037129
-0.004324
-0.004966
-0.0056391
-0.0062573
-0.006757
-0.0071645
-0.0075112
-0.0078043
-0.0080816
-0.0083998
-0.0087481
-0.0091092
-0.009396
-0.009541
-0.0095454
-0.0094776
-0.0094342
-0.0094018
-0.0093484
-0.0092609
-0.0091163
-0.0089151
-0.0086838
-0.0084497
-0.0082031
-0.0079448
-0.0076757
-0.0073385
-0.0069295
-0.0065195
-0.0061847
-0.0059977
-0.005933
-0.0059718
-0.0060675
-0.006144
-0.0061669
-0.0061424
-0.0060432
-0.0058527
-0.0055847
-0.0052805
-0.0050333
-0.004801
-0.0044481
-0.0039788
-0.0034084
-0.0026563
-0.0016845
-0.00068734
0.00015759
0.00083713
0.0013664
0.0017747
0.002072
0.0022617
0.0024091
0.0026321
0.003015
0.0035565
0.0041917
0.0048256
0.0054
0.0058631
0.006207
0.0064381
0.0065889
0.0066513
0.0065869
0.006483
0.0064006
0.006373
0.0064055
0.0064555
0.0064929
0.0065258
0.0065847
0.0066116
0.0065132
0.0063016
0.0060597
0.0058503
0.005691
0.0055849
0.005503
0.0054413
0.0054162
0.0053385
0.0051639
0.0049871
0.004884
0.0049089
0.005058
0.0052934
0.0055758
0.00583
0.0059839
0.0060624
0.0060839
0.0060462
0.0060402
0.0061291
0.0063091
0.0064842
0.0065712
0.0065968
0.0065156
0.0062721
0.0059374
0.0055743
0.0051807
0.004745
0.0042237
0.0036179
0.0029823
0.0023957
0.0019218
0.0015165
0.0011216
0.00074094
0.00037133
-1.6703e-05
-0.00042864
-0.00085319
-0.0012808
-0.0016506
-0.0018849
-0.0019715
-0.0019208
-0.0017172
-0.0014124
-0.0011662
-0.0011171
-0.0013102
-0.0017211
-0.0022681
-0.0028954
-0.0035269
-0.0040295
-0.0043374
-0.0044965
-0.0045959
-0.0046534
-0.0046893
-0.0046678
-0.0045689
-0.0044924
-0.0043935
-0.0041959
-0.0039881
-0.0038016
-0.0036343
-0.0035358
-0.0035012
-0.0035786
-0.0038352
-0.0042014
-0.004583
-0.0048954
-0.0050828
-0.0052138
-0.0052954
-0.0053018
-0.0052252
-0.0051413
-0.0051511
-0.0051995
-0.0052282
-0.0052237
-0.0051326
-0.0048812
-0.0044208
-0.0037671
-0.0029602
-0.0020688
-0.0011547
-0.00034162
0.00034216
0.00092839
0.0014171
0.0018255
0.0021678
0.0024358
0.0026244
0.0027891
0.0029265
0.0029696
0.0028956
0.0027803
0.0026313
0.002452
0.0022837
0.0021802
0.0022023
0.0023851
0.002713
0.0031517
0.0036279
0.0040605
0.0043663
0.0045287
0.0046555
0.0047664
0.0048145
0.0048069
0.004754
0.0046983
0.0046266
0.0044909
0.0043119
0.0040859
0.0037979
0.0034927
0.0031735
0.0028885
0.0027432
0.0027157
0.0027558
0.0028516
0.002984
0.0031462
0.0032801
0.0033379
0.0033172
0.0032745
0.0032862
0.0033662
0.0034927
0.003624
0.003713
0.0037494
0.0037027
0.003549
0.0032573
0.0028027
0.0022385
0.0016711
0.0011266
0.00058512
9.66e-05
-0.00024628
-0.00040114
-0.00040217
-0.00029885
-0.00017811
-8.2203e-05
2.2142e-06
1.296e-06
-8.3569e-05
-0.00024193
-0.00048695
-0.0007791
-0.0010427
-0.0011973
-0.0012141
-0.0011229
-0.00098904
-0.00081363
-0.00061461
-0.0004313
-0.00032639
-0.00030531
-0.00032682
-0.00038995
-0.00043052
-0.00037833
-0.00030905
-0.00025471
-0.0002019
-0.00020131
-0.00026867
-0.00039879
-0.00058773
-0.00082254
-0.0010852
-0.0013396
-0.0014953
-0.0015775
-0.0016057
-0.0014655
-0.0011906
-0.00096559
-0.00089476
-0.00095763
-0.0011554
-0.0015173
-0.0019536
-0.0024152
-0.0028749
-0.0032719
-0.0036094
-0.0039381
-0.0042021
-0.0044141
-0.0045093
-0.0044458
-0.0043092
-0.0041025
-0.0038158
-0.0035888
-0.0034253
-0.0032454
-0.003147
-0.003099
-0.0029676
-0.0027253
-0.0024036
-0.0019852
-0.0014821
-0.00091238
-0.00029767
0.00034214
0.00099387
0.0015866
0.0020826
0.002482
0.0028315
0.0030819
0.0031409
0.0030691
0.0029785
0.002965
0.0030529
0.0031122
0.0030592
0.0029323
0.0027327
0.0025674
0.0025703
0.002736
0.0030712
0.0035488
0.0041236
0.0047507
0.0053235
0.0057734
0.0061304
0.0064306
0.0066866
0.0068869
0.0069563
0.0069714
0.0070277
0.0071078
0.0071766
0.007202
0.0071726
0.0070868
0.0069207
0.0066871
0.0064458
0.0062839
0.0061899
0.0061048
0.0059638
0.0056713
0.005197
0.0046102
0.0040143
0.0034306
0.0028444
0.0022735
0.0017824
0.0014665
0.0012805
0.0011682
0.0010389
0.00081448
0.00057951
0.00036615
5.8933e-05
-0.00027428
-0.00053785
-0.00069156
-0.00074959
-0.0008236
-0.00096663
-0.0011921
-0.0014467
-0.0017264
-0.0020394
-0.0022965
-0.0024394
-0.002455
-0.0023516
-0.0021769
-0.0020036
-0.0019189
-0.0019916
-0.0022262
-0.0025973
-0.0030727
-0.0036958
-0.0043865
-0.0050123
-0.0055252
-0.005936
-0.006201
-0.0064231
-0.0067141
-0.0069479
-0.0071094
-0.0073071
-0.0075681
-0.0078646
-0.0083612
-0.0091569
-0.010068
-0.010935
-0.01169
-0.012276
-0.012711
-0.012977
-0.012923
-0.012574
-0.012148
-0.011693
-0.011364
-0.011092
-0.01061
-0.009807
-0.0088054
-0.0077729
-0.0068378
-0.0060699
-0.0054161
-0.0048875
-0.004579
-0.0046109
-0.0048419
-0.0049538
-0.0049218
-0.0048448
-0.004885
-0.0050416
-0.0051981
-0.0051685
-0.0048578
-0.0042491
-0.0034825
-0.0026987
-0.0020811
-0.00168
-0.0014534
-0.0014165
-0.0015163
-0.0016337
-0.0016484
-0.0015477
-0.0013928
-0.00118
-0.00090818
-0.00061569
-0.0003072
7.5202e-06
0.00028612
0.00054659
0.00072616
0.00083603
0.000974
0.0010277
0.00087887
0.00062985
0.00057094
0.00082514
0.0013364
0.0021033
0.0029791
0.0039449
0.0048333
0.0056147
0.0061838
0.0063861
0.0062812
0.0059657
0.0054985
0.0050078
0.0046299
0.0043707
0.0042048
0.0040718
0.0038616
0.003405
0.0027274
0.0019632
0.0012055
0.00048337
-0.000184
-0.00081362
-0.0014135
-0.0018636
-0.0021531
-0.0024541
-0.002658
-0.0026568
-0.0025103
-0.0022921
-0.0020706
-0.0017587
-0.0016542
-0.0017833
-0.0017753
-0.0016945
-0.0017465
-0.0017426
-0.001603
-0.0014145
-0.0013069
-0.0013277
-0.0013043
-0.001172
-0.00090966
-0.00070712
-0.00046827
-0.00010423
0.00011719
0.00017225
0.00016525
9.4389e-05
-2.789e-05
-1.0946e-05
0.0001853
0.00038312
0.00044344
0.00032944
7.7074e-05
-0.00018658
-0.00042
-0.000513
-0.00046743
-0.00038805
-0.00023537
-8.8162e-05
-6.2969e-05
-3.764e-05
1.0142e-05
4.5516e-05
1.1587e-05
-8.3496e-05
-0.00019846
-0.0003874
-0.0007017
-0.0011533
-0.0016279
-0.0020699
-0.0024458
-0.0026188
-0.0027401
-0.0028286
-0.0027259
-0.0025224
-0.0022449
-0.0018594
-0.0015552
-0.0013835
-0.0012634
-0.0011953
-0.0011574
-0.0011779
-0.0012577
-0.0014134
-0.0016523
-0.0019056
-0.0021712
-0.0023398
-0.0023365
-0.0021111
-0.0016856
-0.0011728
-0.00071276
-0.00034802
-7.5866e-05
8.6781e-05
0.00011125
0.00019456
0.0005523
0.0011772
0.0018945
0.0026526
0.0034808
0.0042961
0.0050502
0.0056946
0.0062088
0.0066377
0.0070379
0.007448
0.007761
0.0080193
0.0082728
0.0085706
0.0089754
0.0092972
0.0095354
0.0097799
0.0099943
0.010194
0.010363
0.010515
0.010719
0.011137
0.011738
0.012356
0.013045
0.013758
0.014409
0.014917
0.015258
0.015515
0.015696
0.015741
0.01555
0.015073
0.014434
0.013673
0.012841
0.012088
0.011451
0.010932
0.010596
0.010475
0.010447
0.01043
0.010397
0.010318
0.010043
0.0094855
0.0086492
0.0075851
0.0065715
0.0058378
0.0054542
0.0054752
0.0055198
0.0053831
0.0051584
0.0048557
0.0045131
0.0041512
0.0037914
0.0034784
0.0029656
0.0022132
0.0013579
0.00048405
-0.00027978
-0.00083581
-0.001254
-0.0016349
-0.0019263
-0.0022192
-0.0027698
-0.0031988
-0.0029672
-0.0023751
-0.0022681
-0.002535
-0.0029398
-0.0034743
-0.0039161
-0.004102
-0.0044808
-0.0051102
-0.0057332
-0.0062155
-0.0064552
-0.0064659
-0.006327
-0.0061536
-0.0058897
-0.0055158
-0.005284
-0.0052539
-0.0053124
-0.0053179
-0.0050809
-0.0046266
-0.0041575
-0.0036929
-0.0032571
-0.0030477
-0.0029834
-0.0029574
-0.0029375
-0.0029006
-0.0028014
-0.0026248
-0.0024336
-0.0022665
-0.0020485
-0.0017498
-0.0015282
-0.0015741
-0.0016185
-0.0015624
-0.0015331
-0.0012402
-0.001013
-0.0013109
-0.0019245
-0.0023111
-0.0023185
-0.0022462
-0.0019799
-0.0015888
-0.0010921
-0.00058856
-0.00050962
-0.00060077
-0.00052246
-0.00031554
-5.5244e-05
0.00014161
6.9936e-05
-0.00015463
-0.00039509
-0.00064033
-0.00079595
-0.00074634
-0.00045621
2.9381e-05
0.00052782
0.00119
0.0017685
0.0021543
0.0028017
0.0031881
0.0030669
0.0027919
0.0025925
0.0024857
0.0025167
0.0025886
0.0027325
0.0028366
0.0028767
0.0029662
0.0030732
0.0031563
0.0032408
0.0033262
0.0033983
0.0034659
0.0035406
0.0036091
0.0035187
0.0032552
0.0029316
0.0025433
0.002096
0.0015869
0.00099459
0.00034756
-0.00012577
-0.00036586
-0.00045945
-0.00036172
-8.1718e-05
0.00027682
0.00058783
0.00073855
0.00065031
0.00042374
0.00010043
-0.00044722
-0.0011554
-0.0017835
-0.0021955
-0.0024749
-0.0026307
-0.0026248
-0.0025381
-0.0023418
-0.0021007
-0.0019741
-0.0019697
-0.0020803
-0.0022566
-0.0025003
-0.002722
-0.002837
-0.0028533
-0.0027638
-0.0026929
-0.0027481
-0.0028954
-0.0030688
-0.003203
-0.0033172
-0.0033798
-0.0032871
-0.0030951
-0.0029044
-0.00272
-0.0026845
-0.0028227
-0.0031139
-0.003595
-0.0042544
-0.0049735
-0.0056504
-0.0062052
-0.006636
-0.0069931
-0.0072815
-0.0075364
-0.0076983
-0.0077248
-0.0077182
-0.0077368
-0.0077377
-0.0075533
-0.0072306
-0.0070004
-0.0068932
-0.0069429
-0.0071145
-0.0073178
-0.0075209
-0.0077686
-0.0080148
-0.0080862
-0.0080222
-0.0079823
-0.0078603
-0.0076022
-0.0072736
-0.0070305
-0.0069092
-0.0068914
-0.0069246
-0.0069891
-0.0071881
-0.0074161
-0.0075346
-0.0075124
-0.0073304
-0.0070413
-0.0066524
-0.006198
-0.0057329
-0.0053258
-0.0050807
-0.0050189
-0.0050124
-0.0049364
-0.0048705
-0.0048636
-0.0049144
-0.0050099
-0.0051352
-0.005375
-0.0056827
-0.0059431
-0.006198
-0.006404
-0.0064959
-0.0064253
-0.0061771
-0.00586
-0.0055589
-0.0052733
-0.0050143
-0.0048167
-0.0046783
-0.0045106
-0.0042684
-0.0039318
-0.0035256
-0.0030558
-0.0025491
-0.002151
-0.0018862
-0.0017176
-0.0015866
-0.001441
-0.0012907
-0.0010659
-0.00081816
-0.00055252
-0.00032
-0.00024786
-0.00029655
-0.00035962
-0.00036892
-0.00030236
-0.00020129
-6.0924e-05
0.00017946
0.0005195
0.00090331
0.0013421
0.0018363
0.0022529
0.0024779
0.0024835
0.0023299
0.002092
0.0019189
0.0018354
0.001768
0.0017419
0.0017265
0.0017151
0.0016455
0.0014684
0.0011578
0.00078145
0.00048068
0.00018827
-0.0001321
-0.00038724
-0.00056641
-0.00073215
-0.00090005
-0.0010066
-0.0010222
-0.0008607
-0.00054013
-0.00022317
0.00011889
0.00051431
0.00088154
0.0011917
0.0014383
0.0016665
0.0018876
0.0020801
0.002187
0.0020953
0.0019834
0.0020096
0.0021818
0.0025041
0.0028959
0.0032847
0.0036908
0.0040572
0.0042621
0.0043197
0.0043548
0.0043888
0.004502
0.0047101
0.0049609
0.0052268
0.0055469
0.0059937
0.0063769
0.0064991
0.0063605
0.0060657
0.0057885
0.0055742
0.005471
0.005582
0.00593
0.0065049
0.0070963
0.0074859
0.0076754
0.0077308
0.0076786
0.007522
0.0072695
0.0069854
0.0068178
0.0069185
0.0071996
0.0074209
0.0075505
0.0076825
0.0078926
0.0081751
0.0085926
0.0091119
0.0096354
0.010173
0.010549
0.010669
0.01067
0.010513
0.010267
0.0099873
0.0096971
0.0094481
0.0092602
0.0091623
0.0089884
0.0087115
0.0084854
0.0082597
0.0079773
0.0076198
0.0072553
0.006962
0.0067508
0.0065718
0.0062612
0.0058254
0.0053378
0.004901
0.0046792
0.0045944
0.0045027
0.0043971
0.0041677
0.003778
0.0033808
0.0031078
0.0028212
0.0025289
0.0024184
0.0025439
0.0027328
0.0028237
0.0028681
0.0026779
0.0020924
0.001285
0.00057478
4.3326e-05
-0.00043469
-0.00085251
-0.00098077
-0.00058781
5.5196e-05
0.00059095
0.0010123
0.0012949
0.0013364
0.0012529
0.001274
0.0013989
0.0015198
0.0015588
0.0015319
0.0014363
0.0012938
0.0011009
0.00081005
0.00042899
-6.5027e-05
-0.00065681
-0.001152
-0.0014593
-0.0018048
-0.0022901
-0.0026438
-0.0029779
-0.0035182
-0.0040886
-0.0043461
-0.0042701
-0.0039279
-0.0033839
-0.0028695
-0.0025151
-0.0021737
-0.0017729
-0.0013895
-0.001083
-0.00092791
-0.00095272
-0.0010753
-0.0013131
-0.0015278
-0.0017386
-0.0019901
-0.0022498
-0.0024289
-0.0022843
-0.002101
-0.0020395
-0.0019012
-0.0012843
-0.00026779
0.00082594
0.0014402
0.0013236
0.0012841
0.0013582
0.001629
0.0019449
0.0023232
0.0026978
0.0031371
0.0037634
0.0040659
0.0039098
0.0035799
0.0031847
0.0029011
0.0027668
0.0025579
0.0022032
0.0017666
0.0012626
0.00075345
9.3591e-05
-0.00064541
-0.0012265
-0.0013295
-0.0012209
-0.001378
-0.0016114
-0.0016713
-0.0015171
-0.0012133
-0.00088856
-0.00037583
0.00021982
0.00046595
0.00054429
0.00054054
0.00038051
0.00013226
-0.00015862
-0.00041018
-0.00058015
-0.00095986
-0.0014836
-0.0019605
-0.0022476
-0.0022607
-0.0020966
-0.0018892
-0.0015315
-0.0011226
-0.00060179
0.00019976
0.00071329
0.0007642
0.00063344
0.00051036
0.00028403
-0.00030614
-0.0010887
-0.0015359
-0.0015649
-0.0014353
-0.0011611
-0.0008903
-0.00084548
-0.00096789
-0.0011681
-0.0014137
-0.0016624
-0.0018728
-0.0020318
-0.002161
-0.0023008
-0.0023666
-0.0022689
-0.0019925
-0.0016823
-0.0013609
-0.0010726
-0.0008122
-0.00044037
-0.0001682
-7.0612e-05
-0.00025857
-0.00031694
0.00021113
0.0008556
0.0015308
0.0017519
0.0011756
0.00043479
-4.458e-06
-0.00031388
-0.00049824
-0.00073108
-0.0010641
-0.0013133
-0.0016016
-0.001795
-0.0018822
-0.0020582
-0.0022702
-0.0025038
-0.0026778
-0.0027894
-0.0027887
-0.002673
-0.0020664
-0.0010652
-0.00065506
-0.00085153
-0.0010442
-0.0010876
-0.00121
-0.0014246
-0.0018177
-0.0021386
-0.0022301
-0.0027246
-0.003335
-0.0035379
-0.0035775
-0.0036364
-0.0037025
-0.0036986
-0.0037562
-0.0040757
-0.0044827
-0.0048866
-0.0052022
-0.005367
-0.0053889
-0.0052871
-0.0049401
-0.004299
-0.0037917
-0.0037899
-0.0037713
-0.0034531
-0.0034261
-0.0037054
-0.0038905
-0.0040875
-0.0042716
-0.0038557
-0.0030749
-0.0021826
-0.0012931
-0.00081759
-0.00103
-0.0011469
-0.0005233
-5.4297e-05
0.00025722
0.0011509
0.0018814
0.0022108
0.0025618
0.0030862
0.0036917
0.0040689
0.0041444
0.0041957
0.0042507
0.0043238
0.0043861
0.0044432
0.0045248
0.004719
0.0051206
0.0057285
0.006292
0.0064604
0.0063038
0.0060366
0.0057871
0.0054442
0.0047943
0.00406
0.003458
0.0028507
0.0024084
0.0021756
0.0019164
0.0016977
0.0017874
0.0022421
0.0029872
0.0038104
0.0045618
0.0050682
0.0052839
0.0053956
0.0056426
0.0058193
0.0056197
0.0051513
0.0045832
0.0041339
0.0038188
0.0035511
0.0033477
0.0033461
0.0034951
0.0038191
0.0041918
0.004453
0.0046061
0.0046506
0.0046458
0.0046405
0.004672
0.0048177
0.0051079
0.0054315
0.0057498
0.0058837
0.0058382
0.0057853
0.005772
0.0058501
0.005988
0.0061341
0.0063346
0.0065505
0.0068249
0.0072764
0.0076621
0.0079217
0.008015
0.0078255
0.0076095
0.0074837
0.0074638
0.0076845
0.0080026
0.008252
0.0084605
0.008516
0.008415
0.0083199
0.0082346
0.0081021
0.0078187
0.0072554
0.006442
0.0055179
0.0046017
0.0036793
0.0027243
0.0018934
0.0012699
0.0007889
0.00039064
1.544e-05
-0.00034569
-0.00067696
-0.0010229
-0.0012883
-0.0013705
-0.0011667
-0.0010901
-0.0011934
-0.0012281
-0.001215
-0.0012519
-0.0015303
-0.0018431
-0.0019673
-0.0019104
-0.0018437
-0.0017143
-0.0015625
-0.0016695
-0.0020362
-0.0023481
-0.0025599
-0.0027952
-0.0030273
-0.0032301
-0.0034376
-0.003544
-0.0035984
-0.0036737
-0.0038535
-0.0041522
-0.0045368
-0.0048978
-0.0052257
-0.0055451
-0.0058247
-0.0060671
-0.0062467
-0.0062792
-0.0061739
-0.0060682
-0.006107
-0.0062749
-0.0065802
-0.0069488
-0.0072683
-0.007589
-0.0078814
-0.0079892
-0.0079161
-0.007784
-0.0075272
-0.00723
-0.007076
-0.0069761
-0.0068708
-0.0067301
-0.0065328
-0.0063502
-0.0062223
-0.0060839
-0.0060687
-0.0062259
-0.0061721
-0.0059106
-0.0057431
-0.0056214
-0.0055554
-0.0055561
-0.005596
-0.0056392
-0.005573
-0.0054077
-0.0051093
-0.0046522
-0.0040838
-0.0035298
-0.0033068
-0.0033781
-0.0035675
-0.003798
-0.0039799
-0.0041025
-0.0041225
-0.0039038
-0.0034973
-0.0030081
-0.0022998
-0.0013616
-0.00049943
0.00019076
0.00068978
0.0009435
0.0010339
0.0010956
0.0011616
0.0013288
0.001663
0.0020515
0.0024028
0.0027219
0.0028587
0.0027981
0.0027505
0.0026849
0.0026296
0.0025986
0.0025069
0.0024587
0.0024283
0.0023432
0.0022975
0.0023437
0.0025395
0.0027998
0.0029301
0.0029405
0.0028838
0.002863
0.0029369
0.0030845
0.0033338
0.0037122
0.0041288
0.004438
0.00454
0.0045044
0.0044634
0.0044526
0.0045987
0.0049317
0.005193
0.0052152
0.0049957
0.0045882
0.0041351
0.0036031
0.0029967
0.0024417
0.0020415
0.0016782
0.0013293
0.0010735
0.00078323
0.00040504
-3.5485e-05
-0.00052957
-0.0011276
-0.0018359
-0.0025211
-0.0031386
-0.0036397
-0.003898
-0.0040953
-0.0043841
-0.0047318
-0.0051567
-0.0056051
-0.0060213
-0.0063746
-0.0065642
-0.0064768
-0.00621
-0.0059978
-0.0057999
-0.0055087
-0.0053499
-0.0053748
-0.005477
-0.0055913
-0.005632
-0.0056566
-0.0056592
-0.0055149
-0.0052086
-0.0047269
-0.0040853
-0.0033612
-0.0027879
-0.0025826
-0.0026246
-0.0028271
-0.003207
-0.0036878
-0.0040852
-0.0043363
-0.0044042
-0.0043928
-0.0043694
-0.0043435
-0.0045919
-0.0050964
-0.0055724
-0.0058923
-0.006028
-0.0059468
-0.0057291
-0.0053423
-0.0046651
-0.0038552
-0.0028922
-0.0019318
-0.001335
-0.00096322
-0.00073429
-0.00058951
-0.00049668
-0.00049937
-0.0005078
-0.00036551
-0.0001232
0.00026684
0.00074452
0.0010412
0.0012414
0.0014601
0.0017483
0.0021005
0.0024975
0.0029496
0.0035156
0.0041588
0.0047844
0.0053322
0.0058013
0.0062129
0.0066063
0.0068735
0.007004
0.0071403
0.0073443
0.0076807
0.0079831
0.0080135
0.0077666
0.0073265
0.0068256
0.0063087
0.005758
0.0052975
0.0050214
0.0049604
0.0050784
0.005194
0.0051988
0.0051283
0.005095
0.0050642
0.0049733
0.0049111
0.0050152
0.0053281
0.0056997
0.005902
0.0059186
0.0057856
0.0056077
0.0054174
0.0051551
0.0048554
0.0045564
0.0042857
0.0040521
0.0038314
0.0036142
0.0033767
0.0031575
0.0029497
0.0027136
0.0024794
0.0022749
0.0020384
0.0018445
0.0017411
0.0016031
0.0014128
0.001201
0.0010103
0.00087657
0.00072649
0.00053128
0.00026042
-7.9695e-05
-0.00049503
-0.00095181
-0.0011888
-0.0016897
-0.0022901
-0.0022098
-0.00196
-0.0018136
-0.0016788
-0.0017022
-0.0018852
-0.002017
-0.0019662
-0.0014922
-0.00098874
-0.00065228
-0.00037118
2.5319e-05
0.00054331
0.0011516
0.0017663
0.002345
0.0028361
0.0032826
0.0037386
0.0041078
0.0044272
0.0047244
0.0049492
0.0050974
0.0051635
0.0051258
0.0050339
0.0050128
0.0050886
0.0052331
0.0053922
0.005559
0.0057932
0.0060627
0.0062831
0.0064696
0.0066754
0.0068785
0.0069855
0.0070312
0.0071496
0.007361
0.0074403
0.0072578
0.0070282
0.0067102
0.0063474
0.0063456
0.0065553
0.0068093
0.0072446
0.0077366
0.0081585
0.0085483
0.0087447
0.0087563
0.0085213
0.0080061
0.0074097
0.0068298
0.0063101
0.0059123
0.0056183
0.0054094
0.0052671
0.0051423
0.0050836
0.0052161
0.0054747
0.0056452
0.0056608
0.0054392
0.0050084
0.0043795
0.0037717
0.0034203
0.0032477
0.0030867
0.0029271
0.0030391
0.0035213
0.0041146
0.0042991
0.003918
0.0034907
0.0029814
0.0020424
0.001246
0.00079388
0.00034357
-4.505e-06
-0.00015226
-0.000121
-0.00011223
-0.00016977
-0.00017576
-0.00016546
-9.5565e-05
-0.00013414
-0.00057669
-0.0012778
-0.0021811
-0.0031745
-0.0040603
-0.0047935
-0.0054458
-0.0059953
-0.0064226
-0.0067138
-0.0069014
-0.0071797
-0.0076192
-0.0081809
-0.008805
-0.0093874
-0.0097912
-0.0099662
-0.0098426
-0.0094701
-0.0089653
-0.0083746
-0.0078462
-0.0074997
-0.0073501
-0.0074079
-0.0075999
-0.0078725
-0.0082486
-0.0087566
-0.0093118
-0.0097964
-0.010134
-0.010252
-0.010241
-0.01023
-0.010164
-0.010013
-0.009821
-0.0095881
-0.0091611
-0.0084463
-0.0076497
-0.007071
-0.0067151
-0.0064345
-0.0061581
-0.0060383
-0.0060772
-0.0060971
-0.0060344
-0.0058338
-0.0055973
-0.0053464
-0.0050757
-0.0048275
-0.0045502
-0.0041707
-0.0037371
-0.0033381
-0.0029522
-0.0025992
-0.0022459
-0.0017501
-0.0013039
-0.001113
-0.0010509
-0.00096762
-0.00073884
-0.00030658
0.00038385
0.001307
0.0021977
0.0028699
0.0033672
0.0036249
0.0036636
0.0035853
0.0034301
0.0032267
0.0029992
0.0028321
0.0028065
0.0028791
0.0029687
0.0029744
0.002955
0.0029668
0.0030058
0.0030839
0.0031866
0.0033203
0.0034967
0.0037176
0.003935
0.0040787
0.0041077
0.0039691
0.0036557
0.003308
0.0029584
0.0025975
0.0022319
0.0018852
0.0016172
0.001493
0.0014885
0.0015207
0.0015424
0.0015283
0.0013875
0.0011526
0.00088525
0.00058331
0.00028725
4.3655e-05
-0.00016229
-0.00034905
-0.00056377
-0.00078503
-0.0010208
-0.0012051
-0.0012597
-0.0013088
-0.0012966
-0.0011196
-0.00077632
-0.00034698
-3.8975e-05
5.4045e-05
-8.0562e-05
-0.00043301
-0.00088673
-0.0013665
-0.0017794
-0.0020519
-0.0022627
-0.0024031
-0.0024496
-0.0024352
-0.0023866
-0.0023723
-0.0024224
-0.0024633
-0.0024117
-0.0022872
-0.0021526
-0.0019976
-0.0018887
-0.0018437
-0.0017855
-0.0017307
-0.001691
-0.0016617
-0.0016156
-0.0014996
-0.0012694
-0.00092063
-0.00044884
9.9663e-05
0.00060273
0.0010424
0.0014363
0.0017494
0.0019592
0.0020462
0.0020612
0.0020811
0.0021744
0.0023631
0.0026297
0.0029684
0.0032803
0.0034911
0.0036995
0.0039069
0.0040956
0.0042741
0.0044523
0.0046684
0.0050028
0.0054272
0.0058129
0.0061229
0.0063371
0.0063375
0.0060729
0.0057058
0.0053665
0.0051306
0.0050468
0.0051173
0.0053311
0.0057088
0.0062224
0.0067723
0.0072724
0.0076712
0.00793
0.0081297
0.0083151
0.0084906
0.0086393
0.0087262
0.0087817
0.0087935
0.0087797
0.0087674
0.0087395
0.0086762
0.0084636
0.0080903
0.0076487
0.0072312
0.006884
0.0065808
0.0063245
0.0061106
0.0059406
0.0057763
0.0055552
0.005193
0.0046224
0.0039263
0.0031867
0.0024698
0.0018308
0.001302
0.00087649
0.00053348
0.0002752
0.00010072
-1.0377e-06
-0.00010595
-0.00025692
-0.00040248
-0.00052816
-0.00061904
-0.00069401
-0.00078279
-0.00085281
-0.00084162
-0.00076845
-0.00068565
-0.00066946
-0.00080788
-0.0010388
-0.0012929
-0.0015372
-0.0017598
-0.0019411
-0.0020338
-0.0020281
-0.002004
-0.0019583
-0.0019044
-0.0019402
-0.0020581
-0.0022715
-0.0025578
-0.0028827
-0.003194
-0.0034309
-0.0035725
-0.0036731
-0.003735
-0.0036897
-0.0036434
-0.003722
-0.003882
-0.0040611
-0.0041425
-0.0040784
-0.0039299
-0.0037716
-0.0036508
-0.0036027
-0.0036226
-0.0036519
-0.00369
-0.0037709
-0.0038193
-0.0038303
-0.003798
-0.003703
-0.0035352
-0.0032996
-0.0030096
-0.0026977
-0.0023432
-0.0019768
-0.0017642
-0.0017601
-0.0018219
-0.0018889
-0.0019405
-0.0019725
-0.0019805
-0.0019594
-0.001918
-0.0018772
-0.0018611
-0.001842
-0.001826
-0.0018535
-0.0018053
-0.001637
-0.0013818
-0.0010543
-0.00071892
-0.00041929
-0.00014332
0.00013242
0.00043409
0.00080794
0.0012246
0.0015697
0.0018439
0.0020715
0.0022526
0.0024511
0.0026133
0.0027086
0.0027761
0.0028236
0.0028576
0.0029112
0.0030323
0.0031686
0.003297
0.0034317
0.0034908
0.0033965
0.0031179
0.002721
0.0022934
0.0019279
0.0016881
0.0016657
0.0018923
0.0021791
0.0024625
0.0027586
0.0030213
0.0032111
0.003295
0.00325
0.0031297
0.0030694
0.0030763
0.003234
0.0035802
0.0039336
0.0042643
0.0046024
0.0048739
0.0050671
0.0052361
0.0054069
0.0056126
0.0058503
0.0060724
0.0062835
0.0064465
0.0063597
0.0059656
0.0053313
0.0045585
0.0037721
0.0030642
0.0024999
0.00211
0.0018871
0.0017759
0.0017348
0.0016473
0.0014105
0.0011099
0.00076567
0.00040053
1.684e-05
-0.00036255
-0.00065091
-0.00082152
-0.00085593
-0.00075395
-0.00056
-0.00039049
-0.00041345
-0.00066155
-0.0010827
-0.0016193
-0.0021395
-0.0025616
-0.0028576
-0.003011
-0.003044
-0.0030367
-0.00314
-0.0034404
-0.0039338
-0.0046183
-0.0053961
-0.0061461
-0.0067583
-0.0071714
-0.0073682
-0.0074135
-0.0073776
-0.0073342
-0.0073352
-0.0073308
-0.0073202
-0.0073912
-0.0074896
-0.0075311
-0.0075095
-0.0074818
-0.0074634
-0.0074889
-0.0075933
-0.0077817
-0.0079754
-0.0080788
-0.0080439
-0.0079167
-0.0077364
-0.0074972
-0.0073183
-0.0071794
-0.0068723
-0.0063779
-0.0058337
-0.0053232
-0.0049161
-0.0046118
-0.0043784
-0.0041099
-0.0038288
-0.003598
-0.0033666
-0.0031099
-0.0027513
-0.0023009
-0.0018914
-0.0015746
-0.0013236
-0.0010684
-0.0007617
-0.00031971
0.00025058
0.00078262
0.0012723
0.0017511
0.002182
0.002547
0.0028281
0.0030497
0.0032913
0.0036493
0.0040768
0.0046067
0.0051678
0.0054442
0.0054992
0.0054215
0.0051758
0.0048173
0.0044175
0.0040986
0.0039744
0.00402
0.0040515
0.0041291
0.0042119
0.0041298
0.0040165
0.0039954
0.0040374
0.0040811
0.0040603
0.0040222
0.0041097
0.0043403
0.0046421
0.0049363
0.0050582
0.0050169
0.0048791
0.0046225
0.0042568
0.0037737
0.0032619
0.0028395
0.0025525
0.0024176
0.0023748
0.0022303
0.0020302
0.0018073
0.0015414
0.0013021
0.0010722
0.00084102
0.00064354
0.00052219
0.00043932
0.00025098
-4.6338e-05
-0.00036194
-0.00066508
-0.00091139
-0.0010398
-0.0010407
-0.00097262
-0.00084761
-0.00070996
-0.00068994
-0.00074567
-0.0008363
-0.00091516
-0.00093766
-0.00089228
-0.00070135
-0.00034451
0.00015459
0.00070356
0.0011138
0.001346
0.00143
0.0014034
0.0013037
0.0011553
0.00099734
0.00084063
0.00071659
0.00064814
0.00053619
0.00032603
8.2185e-05
-0.00018403
-0.00046692
-0.00069522
-0.00074457
-0.00054972
-0.00018903
0.00020192
0.00055839
0.00081736
0.0010416
0.0013263
0.0016442
0.0019321
0.0021477
0.0022506
0.0022918
0.0023438
0.0024052
0.002533
0.0026678
0.0027235
0.0027409
0.002755
0.0028024
0.0028974
0.0030399
0.0032159
0.003421
0.0036346
0.0038157
0.0039871
0.0041472
0.0041959
0.0041866
0.0041874
0.004202
0.0042581
0.0043224
0.0043725
0.0044641
0.004576
0.0047224
0.0049491
0.00522
0.005488
0.005695
0.0058908
0.0061617
0.0065134
0.0069125
0.0072708
0.0075414
0.0077787
0.0080133
0.008255
0.0085484
0.0089102
0.0093027
0.0095823
0.0096899
0.0096961
0.0096423
0.0095486
0.0094223
0.0092264
0.0089756
0.0087366
0.0085652
0.0084762
0.0084444
0.008374
0.0081416
0.0078254
0.0074899
0.0071289
0.0067408
0.0063409
0.0059939
0.0057058
0.0054483
0.0052143
0.0049868
0.004738
0.0043827
0.0039334
0.0034748
0.0030331
0.0026298
0.0022701
0.0019593
0.0016665
0.001366
0.000999
0.00058443
0.00011301
-0.00040421
-0.00090567
-0.0014326
-0.0020155
-0.002604
-0.0031874
-0.0037691
-0.0044153
-0.0051454
-0.0058589
-0.0065531
-0.007246
-0.007888
-0.0084737
-0.0089568
-0.0092881
-0.0094878
-0.0095926
-0.0096552
-0.009673
-0.0096673
-0.0098222
-0.010149
-0.010524
-0.010886
-0.011188
-0.011435
-0.011628
-0.01178
-0.011866
-0.011895
-0.011893
-0.011882
-0.011975
-0.012154
-0.012319
-0.012398
-0.012338
-0.012145
-0.011841
-0.01146
-0.011102
-0.010814
-0.010586
-0.010347
-0.010059
-0.0097495
-0.0093367
-0.0087894
-0.0081678
-0.0075336
-0.006992
-0.0065572
-0.0061437
-0.0057923
-0.00554
-0.0053262
-0.0050785
-0.0048633
-0.0046959
-0.0045424
-0.0043762
-0.0041255
-0.0037737
-0.0033516
-0.0028212
-0.002172
-0.0014479
-0.00065343
0.00018186
0.00096413
0.0015692
0.0020423
0.0024499
0.0027862
0.0030486
0.0032367
0.0033438
0.0034355
0.0035708
0.0037432
0.0039395
0.0041954
0.004486
0.0046889
0.0048686
0.0050883
0.0052886
0.0054789
0.0056642
0.0058479
0.0060797
0.0063538
0.0065893
0.0067591
0.0068655
0.0068361
0.00674
0.0066335
0.0064524
0.0062639
0.0061541
0.0061241
0.0061491
0.0062166
0.0062629
0.0062187
0.0060533
0.0057755
0.0053404
0.0048538
0.0044524
0.0041402
0.0038548
0.0035982
0.0033771
0.003175
0.0029875
0.0028463
0.0027672
0.0027732
0.0028084
0.0026986
0.002486
0.0022365
0.0018985
0.0014745
0.00094904
0.00031663
-0.00028881
-0.00073703
-0.0010572
-0.0012879
-0.0014822
-0.001722
-0.0019441
-0.0020923
-0.002161
-0.0021885
-0.0022389
-0.0023093
-0.0023586
-0.0023798
-0.0023885
-0.0023447
-0.0023452
-0.0024167
-0.0024573
-0.0025353
-0.0027018
-0.0029253
-0.0031631
-0.0033711
-0.003537
-0.0036942
-0.0038167
-0.0039604
-0.0042437
-0.0045899
-0.0048938
-0.0051186
-0.0052727
-0.0053555
-0.0053674
-0.0053286
-0.0052439
-0.00513
-0.0049559
-0.0047548
-0.0045404
-0.0042926
-0.0040884
-0.0039277
-0.0037036
-0.0033554
-0.0028808
-0.0023121
-0.0016865
-0.0010479
-0.00043648
5.3681e-05
0.00036451
0.00060302
0.0008142
0.0010144
0.0012185
0.0014099
0.0016184
0.0018991
0.0022174
0.0025141
0.0028163
0.0030205
0.0030763
0.0030769
0.0031049
0.0032412
0.0034877
0.0037953
0.0041402
0.0045056
0.0048771
0.0052661
0.0056346
0.0058798
0.0059887
0.0060195
0.006019
0.0060879
0.0062666
0.006494
0.0067038
0.0069202
0.0071568
0.0074702
0.0078168
0.0080383
0.0081922
0.008361
0.0085222
0.0086632
0.0087946
0.0088919
0.0089214
0.0088553
0.0087031
0.0085547
0.0083759
0.0081129
0.0077926
0.0073611
0.0068587
0.0063883
0.0059414
0.0054726
0.0049873
0.0045044
0.0040517
0.0036618
0.003234
0.0027175
0.0022013
0.001685
0.0012004
0.00077005
0.00041598
0.00015365
-1.2881e-05
-0.00013975
-0.00025125
-0.00035912
-0.00057517
-0.0008829
-0.0011925
-0.0015262
-0.0019045
-0.0023378
-0.0028701
-0.003461
-0.0040156
-0.004487
-0.0048343
-0.005094
-0.0053681
-0.0056349
-0.0058616
-0.0060685
-0.0062681
-0.0064658
-0.006666
-0.0068303
-0.006943
-0.0070268
-0.0070348
-0.0070908
-0.0072705
-0.0074967
-0.0077535
-0.0080059
-0.0082238
-0.0084133
-0.0085795
-0.0087219
-0.008842
-0.0088872
-0.0088523
-0.0088591
-0.0089138
-0.0089191
-0.0088554
-0.0086862
-0.0084732
-0.0083036
-0.0081814
-0.0080242
-0.0078053
-0.0075164
-0.0071633
-0.0069615
-0.0069626
-0.0069932
-0.0068352
-0.0063579
-0.0058087
-0.0053977
-0.0050902
-0.0048059
-0.0045215
-0.0041269
-0.003596
-0.0030812
-0.00278
-0.0025558
-0.0022358
-0.0019631
-0.0016633
-0.001107
-0.00021273
0.00096399
0.0019073
0.0025992
0.0031486
0.0035759
0.0038521
0.0039945
0.0040682
0.0041307
0.0042063
0.0042401
0.0042418
0.0042331
0.004314
0.0044932
0.0047757
0.0052058
0.0056559
0.0060029
0.0063014
0.0065492
0.0067363
0.0068541
0.006871
0.0068432
0.0068731
0.006994
0.0071518
0.0073509
0.007559
0.0076284
0.0076397
0.0076285
0.0075581
0.0074868
0.0074037
0.0072615
0.0070841
0.0069297
0.0068056
0.0067298
0.0067625
0.0067815
0.0066794
0.0065659
0.0065053
0.0065318
0.0066163
0.0066965
0.0067803
0.0068428
0.0068404
0.0067528
0.0066346
0.006528
0.0063366
0.0060391
0.0056964
0.0053271
0.0049666
0.0046148
0.0042458
0.0038783
0.003569
0.0033884
0.003316
0.0032989
0.0033252
0.0032219
0.002956
0.0026627
0.0024159
0.0022546
0.002141
0.0020084
0.0018421
0.0017015
0.00161
0.0015907
0.0016596
0.001691
0.0016777
0.0017054
0.0017427
0.0017526
0.0017092
0.0015909
0.001429
0.0012441
0.00097713
0.00062344
0.00025213
-0.00021008
-0.00075459
-0.0012132
-0.0015429
-0.0017558
-0.0019155
-0.0021239
-0.0023958
-0.0026965
-0.0030406
-0.0033715
-0.0037125
-0.0041324
-0.0046005
-0.0050846
-0.0055329
-0.0059327
-0.0062926
-0.0066025
-0.0068016
-0.0068375
-0.0066868
-0.0064459
-0.0062258
-0.0060148
-0.0058496
-0.005765
-0.0057448
-0.0057672
-0.0058006
-0.005752
-0.0056207
-0.005426
-0.0052105
-0.0050575
-0.0049233
-0.0047725
-0.0045671
-0.0043045
-0.0040291
-0.003785
-0.0035754
-0.0034065
-0.003249
-0.0030469
-0.0028862
-0.0028215
-0.002804
-0.0028415
-0.0029198
-0.0030599
-0.0032692
-0.0034931
-0.003623
-0.0035753
-0.0033239
-0.0029406
-0.0025386
-0.002113
-0.0016879
-0.0012277
-0.00070319
-0.00017487
0.00039437
0.001003
0.0016342
0.0022694
0.0028663
0.0034073
0.0038049
0.0040558
0.004263
0.0044359
0.0046038
0.0048246
0.0050655
0.0053034
0.0055422
0.0057986
0.0060605
0.0062663
0.0064256
0.0064266
0.0061607
0.0057415
0.0052169
0.0046628
0.0041653
0.0037266
0.0033846
0.0031735
0.0030709
0.003011
0.0029876
0.0030129
0.0030026
0.0029586
0.002936
0.0029514
0.0030111
0.003095
0.0032343
0.0034281
0.0035647
0.003577
0.0034458
0.0032699
0.003091
0.0028879
0.0027659
0.0027819
0.0029527
0.0032774
0.0036344
0.0039017
0.0040583
0.004122
0.0041196
0.0040371
0.0039101
0.0037051
0.0033302
0.0028446
0.0022564
0.0016063
0.00096209
0.00033194
-0.00027218
-0.00083118
-0.0012873
-0.0015503
-0.0016318
-0.0015518
-0.0013887
-0.0012906
-0.0012019
-0.0011018
-0.0011172
-0.0012616
-0.0014944
-0.0018004
-0.0021087
-0.0023285
-0.0024083
-0.0023243
-0.0020737
-0.0018051
-0.0016259
-0.0015052
-0.0015019
-0.0016154
-0.0018054
-0.0020228
-0.0022143
-0.0023722
-0.002471
-0.0024874
-0.0024817
-0.0024965
-0.0026061
-0.0028195
-0.0030884
-0.0034029
-0.0037178
-0.0040067
-0.0042768
-0.0044938
-0.0046026
-0.0046139
-0.0045903
-0.0045364
-0.004476
-0.0045175
-0.0046064
-0.0046854
-0.0047076
-0.0046317
-0.0045143
-0.004382
-0.0042418
-0.0040853
-0.0038674
-0.0035494
-0.0031493
-0.0027483
-0.002337
-0.0018594
-0.001349
-0.00078751
-0.00023146
0.00024388
0.00061856
0.00087021
0.0010408
0.0011686
0.0012323
0.001225
0.0011608
0.0011286
0.0011565
0.0012378
0.0013925
0.0015951
0.0018308
0.0021217
0.0024689
0.0028793
0.003324
0.003792
0.0041945
0.0044229
0.0045381
0.0045478
0.004423
0.0041622
0.0038003
0.0034408
0.0031468
0.0029277
0.0027941
0.0026995
0.0026835
0.0027403
0.0027393
0.0027207
0.0026953
0.0026369
0.0025385
0.0023249
0.001981
0.0015705
0.0010665
0.00049765
-1.8107e-05
-0.00036537
-0.00048918
-0.00054069
-0.00060635
-0.00063273
-0.00067443
-0.0007668
-0.00090557
-0.0011068
-0.0012954
-0.0014153
-0.0015103
-0.0015614
-0.001596
-0.0016574
-0.0017859
-0.0020412
-0.0024545
-0.0029037
-0.0031621
-0.0032283
-0.0033211
-0.0034498
-0.0034524
-0.0033814
-0.0033012
-0.0032063
-0.0031361
-0.0031836
-0.0034207
-0.0037434
-0.0040809
-0.0044053
-0.0046258
-0.0046802
-0.0046265
-0.0044647
-0.0042118
-0.0039156
-0.0036291
-0.0034053
-0.0031928
-0.0030208
-0.0029271
-0.0028183
-0.0027004
-0.0025579
-0.0023622
-0.0021954
-0.0020719
-0.0019272
-0.0017312
-0.0015295
-0.0013744
-0.0012016
-0.00095256
-0.000689
-0.00031123
0.00023777
0.0008084
0.0013012
0.0016465
0.0018079
0.0018527
0.0017915
0.0016736
0.0015716
0.0015424
0.0015717
0.0015146
0.0013699
0.0012187
0.0010677
0.0009099
0.00074242
0.00060084
0.00059086
0.00078892
0.0011082
0.001442
0.0017555
0.0020065
0.0022361
0.0024448
0.0026003
0.002776
0.0030268
0.0033514
0.0036952
0.0040358
0.0044234
0.0048419
0.0052646
0.0055313
0.0055471
0.0054126
0.0051724
0.0048345
0.0045061
0.0042717
0.0041088
0.0039972
0.0037612
0.0034248
0.0031747
0.0030881
0.0032584
0.0034817
0.0035376
0.0032745
0.0029036
0.0026277
0.0025886
0.0028094
0.0031257
0.0032977
0.0031938
0.0029584
0.0027444
0.0024675
0.0020721
0.00167
0.0012583
0.00076801
0.00030303
-2.5733e-06
-0.00013567
-4.1368e-05
9.7719e-05
0.00021545
0.00043504
0.00065287
0.00075815
0.00085187
0.00073913
0.00032667
-0.0001846
-0.00060101
-0.00095125
-0.0012421
-0.0015777
-0.0020332
-0.0025108
-0.0030353
-0.0035952
-0.0040726
-0.0044169
-0.0045795
-0.0044981
-0.0043428
-0.0043155
-0.0043576
-0.0044114
-0.0044604
-0.0044539
-0.0043831
-0.0043275
-0.004221
-0.0041458
-0.0041075
-0.0040033
-0.003904
-0.0037256
-0.0034296
-0.0031076
-0.002718
-0.0022714
-0.0019452
-0.0018468
-0.00197
-0.002232
-0.0025978
-0.0030207
-0.0033425
-0.0035225
-0.0036281
-0.0036133
-0.0034608
-0.003146
-0.0026701
-0.002064
-0.0013362
-0.00065271
-0.00010375
0.00043148
0.00094232
0.0012864
0.0014442
0.0015012
0.0015012
0.0015142
0.0015516
0.0015107
0.0014862
0.0016773
0.0021155
0.0026261
0.0030612
0.0033959
0.0036518
0.0039041
0.0041392
0.0043321
0.0044234
0.0043733
0.0042679
0.004174
0.0041233
0.004006
0.0036767
0.0032418
0.0028345
0.0025547
0.002437
0.0023963
0.0023523
0.0022929
0.0021911
0.0021002
0.0020381
0.0020148
0.0020353
0.0019028
0.0016661
0.0014529
0.0012514
0.0010657
0.0009244
0.00081964
0.00072575
0.0006895
0.00072559
0.00094357
0.0013432
0.0018813
0.0024055
0.0027172
0.0030113
0.003226
0.0032327
0.0030188
0.0025905
0.002094
0.0017836
0.001653
0.0015027
0.0013211
0.0010938
0.00066807
0.0001751
-0.00022084
-0.00046865
-0.00049351
-0.00037063
-0.00017411
2.3505e-05
0.00018583
0.00026135
0.00024318
0.00020115
7.1386e-05
-0.00013084
-0.00024664
-0.00026683
-0.00018771
-3.419e-05
0.00014771
0.00034499
0.00056836
0.00081267
0.001012
0.0011675
0.0012646
0.0011507
0.00093208
0.00072561
0.00053721
0.0004085
0.00033389
0.00031754
0.00035523
0.00044846
0.00060839
0.00086323
0.0011852
0.0014151
0.001597
0.0018133
0.0020299
0.002248
0.0024257
0.0025388
0.0026374
0.0027858
0.0029966
0.0032413
0.0035727
0.0039678
0.0042197
0.004364
0.004422
0.0043515
0.0041655
0.0038633
0.0034905
0.0031725
0.0029476
0.0028072
0.002776
0.002848
0.0030354
0.0031164
0.0030063
0.0028447
0.0026387
0.0024303
0.0022512
0.0021025
0.0020219
0.0020327
0.0021291
0.0022603
0.0023421
0.0023546
0.0021665
0.0016852
0.0010697
0.00039552
-0.00027781
-0.00087062
-0.0013841
-0.001753
-0.0019377
-0.001982
-0.0019033
-0.0017241
-0.0015745
-0.0016482
-0.0018642
-0.002089
-0.0022573
-0.0023291
-0.0023367
-0.0023393
-0.002357
-0.0023868
-0.0024477
-0.0025957
-0.0027631
-0.002914
-0.0031981
-0.0035099
-0.003753
-0.0039535
-0.0040883
-0.0042451
-0.0044399
-0.0046124
-0.0047675
-0.0048977
-0.0050927
-0.0053108
-0.0052863
-0.005201
-0.0051758
-0.0051499
-0.0051788
-0.0051766
-0.0051714
-0.0052384
-0.005281
-0.0052211
-0.0051946
-0.0052589
-0.0053193
-0.0053552
-0.0054731
-0.0056043
-0.0057201
-0.005805
-0.0058286
-0.0058572
-0.0059836
-0.0061316
-0.0061506
-0.0060234
-0.0056912
-0.0053246
-0.0050406
-0.0047287
-0.0044426
-0.0043046
-0.0042541
-0.0042748
-0.0043157
-0.0042633
-0.0041219
-0.0039138
-0.0037369
-0.0036515
-0.0036844
-0.0039478
-0.0043577
-0.0047029
-0.0049502
-0.0051338
-0.0052183
-0.0052206
-0.0051297
-0.0050168
-0.0049967
-0.0050091
-0.0050311
-0.0050729
-0.0051378
-0.0052412
-0.0053556
-0.0054498
-0.0055101
-0.0054856
-0.0052634
-0.0048894
-0.0045126
-0.0040962
-0.0036395
-0.003197
-0.0028017
-0.0024694
-0.0022078
-0.0020251
-0.0019329
-0.0018946
-0.0019038
-0.0019616
-0.0020559
-0.0020761
-0.0019894
-0.0020293
-0.0020636
-0.0018988
-0.0014679
-0.00085114
-0.00029643
0.00015888
0.00056101
0.0009703
0.0013194
0.0015478
0.0016999
0.0017812
0.0018676
0.0020418
0.002288
0.002524
0.0027339
0.0029481
0.0032259
0.0035726
0.0039188
0.004109
0.0041801
0.0042271
0.0042444
0.0042355
0.0042045
0.004215
0.0043428
0.0045626
0.0048266
0.0050525
0.0052045
0.0052844
0.0051768
0.0049892
0.0048578
0.0047797
0.0047739
0.0048446
0.004995
0.005216
0.0054437
0.0056154
0.0057306
0.0057789
0.0057956
0.0057913
0.0056927
0.0055701
0.0054829
0.0054417
0.005394
0.0053183
0.0053081
0.0053683
0.0054578
0.0055906
0.005755
0.0060038
0.0062657
0.0064388
0.0065782
0.0066471
0.0065605
0.0062556
0.0057065
0.0050058
0.0043214
0.0036955
0.0032728
0.0029894
0.0026998
0.0024661
0.0021734
0.0017634
0.0013746
0.0010259
0.00071235
0.00053685
0.00050083
0.0005225
0.00064397
0.00089697
0.0010357
0.0010632
0.0010185
0.00082089
0.00060332
0.00040593
0.00021411
9.7921e-05
9.7785e-05
0.00018215
0.00037489
0.00063304
0.00079448
0.00084339
0.00085862
0.00084729
0.00070345
0.00046867
0.0002581
-2.1579e-05
-0.00030531
-0.00053693
-0.00071389
-0.00083708
-0.0010082
-0.0013157
-0.0016762
-0.0020187
-0.0022309
-0.0023123
-0.0023467
-0.0023096
-0.0021967
-0.00208
-0.0020043
-0.0020161
-0.0021056
-0.0023261
-0.0026864
-0.0029327
-0.0029859
-0.0029992
-0.0030436
-0.0029183
-0.0024816
-0.0017815
-0.00086152
0.00012465
0.00091814
0.0013327
0.0014607
0.0014372
0.0014382
0.0015921
0.0018568
0.0023117
0.0029164
0.0035787
0.0041697
0.0046554
0.0049666
0.0049909
0.0049493
0.0050194
0.0050095
0.0048201
0.0045716
0.0043637
0.0041914
0.0040053
0.003829
0.0037464
0.0036547
0.0035346
0.0033726
0.0031416
0.0029289
0.0027924
0.0027181
0.0026696
0.0027544
0.0031038
0.0034982
0.0037603
0.0039646
0.0041224
0.0041764
0.0041249
0.0039742
0.0037747
0.0036225
0.0035181
0.003416
0.003365
0.0035089
0.0037144
0.0037515
0.0035722
0.0033729
0.0032968
0.0033495
0.0035113
0.0036395
0.0034213
0.002948
0.0026684
0.0025965
0.0026715
0.002761
0.0027744
0.0027622
0.0027322
0.0024879
0.0021
0.0019032
0.0018379
0.0017388
0.0016647
0.001502
0.0012976
0.001112
0.00093125
0.00071637
0.00047498
0.00022236
-6.6192e-06
0.00013761
0.00047209
0.00058391
0.00057311
0.00039443
0.00012563
-4.8819e-05
-5.7145e-05
0.00025383
0.00067251
0.00090787
0.00099816
0.0010759
0.001115
0.0010087
0.00077521
0.00051436
0.00033724
0.00021488
6.4358e-05
-0.00013311
-0.00026859
-0.00037369
-0.00057156
-0.00079595
-0.0009741
-0.0010566
-0.0010736
-0.0010897
-0.0011611
-0.0012879
-0.00147
-0.0018128
-0.0022676
-0.0026989
-0.0030868
-0.0034385
-0.0036924
-0.0038612
-0.0039902
-0.004056
-0.0041224
-0.0042037
-0.0042506
-0.0042387
-0.004127
-0.0039899
-0.0038138
-0.0035667
-0.0032515
-0.0029584
-0.0028218
-0.0027773
-0.0027778
-0.0027693
-0.0027192
-0.002651
-0.0025127
-0.0022602
-0.0019009
-0.0014992
-0.0012317
-0.0010496
-0.00084075
-0.00059464
-0.00030405
4.7198e-06
0.00028406
0.00053297
0.00073371
0.00096682
0.0012175
0.0014037
0.0015798
0.0017752
0.0020117
0.0022514
0.002429
0.0025269
0.0026259
0.0027394
0.0028669
0.0030445
0.0030774
0.0029434
0.0027205
0.0024432
0.0021776
0.0019834
0.0018957
0.0019553
0.0021639
0.0024489
0.0027946
0.0031058
0.0031934
0.0031306
0.0029995
0.0028296
0.0026877
0.0025382
0.0023492
0.002193
0.0020705
0.0019132
0.0017257
0.0014964
0.0010994
0.00056236
1.278e-05
-0.00058471
-0.0011417
-0.0014099
-0.0014936
-0.0015857
-0.0016727
-0.0017613
-0.0019208
-0.0020222
-0.0021144
-0.0022989
-0.0026175
-0.0031062
-0.0037182
-0.0042424
-0.0046022
-0.0048302
-0.0047622
-0.0046336
-0.0047036
-0.0048406
-0.0050564
-0.0053204
-0.0055892
-0.0058644
-0.0060604
-0.006041
-0.0058227
-0.0053877
-0.0048281
-0.0041772
-0.0035187
-0.0030934
-0.0028563
-0.0026831
-0.0025453
-0.0024331
-0.0024546
-0.0025608
-0.0027805
-0.003122
-0.0034691
-0.0038889
-0.0042634
-0.0044734
-0.0045196
-0.0043384
-0.0037667
-0.0031627
-0.0028847
-0.0027422
-0.0025313
-0.0025075
-0.0024059
-0.00208
-0.0017129
-0.0013535
-0.0009501
-0.00040436
8.6661e-05
0.00041164
0.00066413
0.00070814
0.00057178
0.00050505
0.00050295
0.00055803
0.00067726
0.00082866
0.0010079
0.0012209
0.0015523
0.0019342
0.0021971
0.002414
0.0026446
0.0028928
0.0031296
0.0033662
0.0036041
0.0038061
0.0040107
0.0041359
0.0040656
0.0039666
0.0039075
0.0038827
0.0038592
0.0038295
0.0038569
0.0039419
0.0040756
0.0042077
0.0040932
0.0037448
0.0033512
0.0029993
0.0026908
0.0024068
0.0021893
0.0021372
0.0022047
0.002405
0.0025781
0.002543
0.0024403
0.0023715
0.002296
0.0021504
0.0019758
0.0019751
0.0022523
0.0027279
0.0031881
0.0033996
0.0034361
0.0033603
0.0032024
0.0030192
0.0028263
0.0026708
0.0025571
0.0025015
0.0025024
0.0024166
0.0022964
0.0022268
0.0022085
0.0022254
0.0022128
0.002111
0.0018768
0.0015352
0.0011794
0.00078386
0.00036256
7.0347e-05
-7.812e-05
-0.00013351
-0.000136
-4.7642e-05
0.00013344
0.00033519
0.00046832
0.000507
0.00040055
0.00020866
3.5685e-05
-0.00010761
-0.00026066
-0.00042859
-0.00059386
-0.00070765
-0.00078006
-0.00080846
-0.00080858
-0.00087006
-0.00093397
-0.00096248
-0.00097058
-0.00093229
-0.00085517
-0.00078022
-0.00067921
-0.00059988
-0.00057663
-0.00058931
-0.00069011
-0.00081653
-0.00086721
-0.0008012
-0.00067695
-0.00059024
-0.00056196
-0.00056112
-0.00061266
-0.00069932
-0.00079075
-0.00099084
-0.0012791
-0.0015706
-0.0018203
-0.0020383
-0.0022648
-0.0024803
-0.0026044
-0.0026047
-0.0024888
-0.0022038
-0.0018902
-0.0016471
-0.0014469
-0.0012961
-0.0011947
-0.00117
-0.0011852
-0.0012582
-0.0013257
