-4.2731e-05,7.4666e-06,0.0002409,0.00071542,0.001152,0.0013785,0.0013864,0.0012619,0.00065829,-0.00050507,-0.0012021,-0.00070717,0.00071383,0.0015005,0.0014795,0.0013244,0.0017472,0.0018659,0.0012393,0.00034189,-0.00092322,-0.0019063,-0.0027973,-0.0032943,-0.0037069,-0.004165,-0.0037651,-0.002442,-0.0013998,-0.00087376,-0.00057022,-0.00033277,-0.00034772,-0.00077126,-0.00068765,4.9891e-05,0.00030076,-0.0003321,-0.00069344,-0.00087579,-0.00069526,-0.00010477,3.0844e-05,-0.00022381,-0.00098537,-0.0017227,-0.0013302,-0.00084214,-0.0012727,-0.0018158,-0.0018887,-0.0010732,-8.4885e-05,-0.00031173,-0.0011112,-0.0011436,-0.00054399,0.00031523,0.0009063,0.00067405,0.00076739,0.0010909,0.0011898,0.0015232,0.0010611,-8.8094e-05,-0.00081789,-0.00096677,-0.00099699,-0.0015735,-0.0019496,-0.0011853,0.00021448,0.00095787,0.0010689,0.0018262,0.0029166,0.0034979,0.0030902,0.002276,0.0021638,0.0020145,0.00050773,-0.0009128,-8.2893e-06,0.0023624,0.0039582,0.0037188,0.0040273,0.006124,0.0075875,0.0061801,0.0030323,-6.0946e-05,-0.0027959,-0.0046659,-0.0052137,-0.0044292,-0.0039979,-0.0032087,-0.0010243,0.0015176,0.0038981,0.0047749,0.0050116,0.005965,0.006415,0.0048814,0.0013091,-0.002804,-0.0063064,-0.0087837,-0.0097924,-0.0084841,-0.0058645,-0.0034559,-0.00072515,0.0012182,0.0024374,0.0042017,0.0050286,0.0047037,0.0037766,0.0018992,0.00022174,-0.00062553,-0.0021597,-0.0036012,-0.0040938,-0.0041276,-0.0027121,-0.001193,-0.0010636,-0.0015462,-0.0017812,-0.0016682,-0.0015202,-0.0021532,-0.0028734,-0.0016978,0.00073915,0.0027068,0.0039068,0.0034463,0.002853,0.0035364,0.0036776,0.0027027,0.0013099,0.00014048,-0.0002823,-0.00066026,-0.00211,-0.0027192,-0.0016803,-0.00048439,0.00071544,0.0023322,0.0046631,0.005911,0.0045252,0.0022344,0.00079545,-0.000638,-0.0023115,-0.0051905,-0.0089189,-0.010042,-0.0086772,-0.0068505,-0.00492,-0.00316,-0.0019034,-0.00059325,0.0014192,0.0026555,0.0029739,0.003216,0.0032173,0.0030448,0.0023785,0.00073852,-0.0014786,-0.0032587,-0.0044833,-0.0045487,-0.0038826,-0.0041627,-0.005006,-0.0049644,-0.0033638,-0.00085148,0.00022975,0.00033717,0.00032718,-8.7839e-05,-0.0006344,-0.0020315,-0.0028301,-0.0029725,-0.0033816,-0.0033037,-0.002962,-0.0027254,-0.001244,0.00053028,0.0017879,0.0027143,0.002872,0.0032397,0.0047584,0.0052392,0.0045031,0.0041821,0.0042483,0.0046469,0.0044519,0.003972,0.0041558,0.0048145,0.0057134,0.0064225,0.0064857,0.0061761,0.0046632,0.0025594,0.0015057,0.00093354,-0.00030333,-0.0022276,-0.0039246,-0.0044437,-0.0037553,-0.0037993,-0.0047654,-0.0040775,-0.0019832,-0.0023794,-0.0035552,-0.0022911,-0.00029345,-0.00026766,-0.0012744,-0.0011841,0.0004127,0.0019005,0.00064375,-0.0016392,-0.0030288,-0.0017194,0.0011012,0.002755,0.0030848,0.0021061,0.0010263,0.00096434,0.00088229,0.00021676,-0.00049134,-0.0019538,-0.0022812,-0.001604,-0.0020361,-0.0013572,0.0006284,0.0022679,0.004158,0.0049038,0.0042763,0.0047209,0.0043775,0.0023211,0.0012936,0.00010937,-0.001789,-0.0028553,-0.0036308,-0.004574,-0.0043494,-0.0028342,-0.0014749,0.00013356,0.0014561,0.0014709,0.0017734,0.0025966,0.00224,0.00095231,-0.00023685,-0.0014894,-0.002265,-0.0028033,-0.0037724,-0.0035793,-0.0027876,-0.0020577,-0.0010371,-0.00012294,0.00034272,-0.00048242,-0.0020677,-0.0032152,-0.0041795,-0.0048379,-0.0042574,-0.0030381,-0.0028665,-0.0032198,-0.0032112,-0.0031863,-0.0026759,-0.0017113,-0.00062354,0.00085228,0.0019581,0.0012947,0.0010045,0.0017309,0.0016191,0.0025387,0.0019629,0.00013442,0.0011084,0.0031093,0.0034327,0.0032471,0.0026128,0.0022821,0.0043016,0.0047643,0.0031679,0.0013767,0.00024118,0.00046838,0.00028872,-0.00093548,-0.0035542,-0.0045871,-0.0038489,-0.0045178,-0.0054395,-0.0061963,-0.0062086,-0.0052761,-0.0041093,-0.0030233,-0.0028105,-0.0028413,-0.0024689,-0.0018777,-0.0012478,-0.00041838,-0.00069395,-0.0014771,-0.0013637,-0.0015131,-0.00040199,0.0019591,0.002769,0.0018706,0.00051974,-0.00086672,-0.0019691,-0.0022966,-0.0024682,-0.0025091,-0.0016557,-0.00045383,0.00022072,0.00065303,0.0014393,0.0022425,0.0032176,0.0040904,0.0036916,0.0040351,0.0046549,0.0041622,0.0037327,0.0032607,0.0024787,0.0016432,0.0011415,0.0008096,0.00052013,0.0014802,0.0041423,0.0069155,0.0073794,0.0053889,0.0037609,0.0036452,0.0023553,4.892e-05,-0.0018023,-0.0037863,-0.0048178,-0.0053343,-0.0067329,-0.0076537,-0.0074661,-0.0068829,-0.0048539,-0.0020051,0.00057215,0.0026456,0.0034254,0.0035088,0.0036587,0.0042434,0.0046462,0.0039738,0.0028589,0.0015825,0.00046889,-0.00016105,-6.4167e-05,0.00043902,0.00095864,0.0021299,0.0032502,0.0034668,0.0026769,0.0014312,0.00069268,-8.3154e-05,-0.0013045,-0.002496,-0.0034954,-0.0039996,-0.0039432,-0.0035078,-0.0025733,-0.0013356,-0.00059796,-0.00087227,-0.00086228,4.0335e-05,2.9536e-05,-0.00069602,-0.001168,-0.0018568,-0.0030582,-0.0044008,-0.0044616,-0.0026084,-0.0011624,-0.0012132,-0.00066882,0.0014393,0.003539,0.0046387,0.0033434,0.0011766,0.00037236,-0.0011491,-0.0021503,-0.0027709,-0.0029163,-0.0016823,0.00024672,0.0023832,0.003492,0.0042811,0.0034967,0.0029762,0.0041643,0.0029822,-0.00066372,-0.0032315,-0.0034238,-0.0035336,-0.004956,-0.0062967,-0.0054456,-0.0033876,-0.0021104,-0.0011021,0.00023549,0.0010526,0.0014626,0.002243,0.0027535,0.0021846,-0.00059043,-0.0033305,-0.0033172,-0.002993,-0.0032467,-0.0029686,-0.0022307,-0.00044333,0.001991,0.0031063,0.0035616,0.0041405,0.0043975,0.0045048,0.0028575,-7.5668e-05,-0.0017735,-0.0027438,-0.0030513,-0.0028428,-0.0031717,-0.0027238,-0.0012554,0.00041864,0.0022501,0.002684,0.0019029,0.0019632,0.0028284,0.001692,-0.0014016,-0.0030874,-0.002836,-0.0015542,-0.0007067,-0.00089712,-0.0013317,-0.00093841,0.00023979,0.0013351,0.0014246,0.00088735,0.0011224,0.0010167,3.07e-05,-0.00093673,-0.0017795,-0.0022168,-0.0014693,-0.00037527,-0.00015598,-0.00010528,0.00011288,0.00027032,0.0011621,0.0018487,0.0015493,0.0016451,0.0014522,-0.00017267,-0.00024649,0.0002456,-0.00084133,-0.0021464,-0.0032127,-0.0032472,-0.0028431,-0.0026169,-0.0015596,0.00016789,0.001073,0.0026601,0.004101,0.0032494,0.00070996,-0.0009303,-0.00040025,0.0013367,0.0013175,-0.00044393,-0.00083265,-0.00039247,0.00055321,0.0023158,0.0033059,0.0025855,0.0016025,0.0010165,-0.00029389,-0.0030158,-0.0051846,-0.0056804,-0.0051645,-0.0045851,-0.0040054,-0.0027292,-0.0011729,0.00032263,0.00087073,0.0007709,0.000753,0.0017731,0.0021108,-0.00020305,-0.0027467,-0.003792,-0.0040718,-0.0042103,-0.0051917,-0.0047424,-0.0025485,-0.00083079,0.00169,0.0039912,0.0042728,0.0038244,0.0040096,0.0041172,0.0030329,0.0015485,0.00091875,0.00067404,-0.00070226,-0.0032739,-0.0046028,-0.0044763,-0.0044443,-0.0034489,-0.0015981,-5.3292e-05,0.0017089,0.0035953,0.0048327,0.0061742,0.0064527,0.0047721,0.0036084,0.0019925,-0.00041541,-0.0024753,-0.0036599,-0.0026334,-0.0019903,-0.0018075,-0.00097734,-0.00071221,-0.0002386,0.00046127,-7.6182e-05,0.0010882,0.0025641,0.0010445,-0.0007623,-0.0013291,-0.0015999,-0.0019023,-0.0016128,-0.0011862,-0.0010966,-0.00070929,0.00062606,0.0027583,0.0055213,0.0074505,0.0078651,0.0086125,0.0098894,0.0091407,0.0047024,-0.00087029,-0.0043525,-0.0052816,-0.0055132,-0.0064967,-0.0063143,-0.0042491,-0.0019732,-0.0020599,-0.0033615,-0.0032314,-0.0024686,0.00039101,0.0042866,0.0064422,0.0068776,0.0054639,0.0026324,0.00011807,-0.0020621,-0.0039595,-0.0045825,-0.0036708,-0.0028817,-0.0038402,-0.0040818,-0.0034951,-0.0024524,-0.00088817,-3.2702e-05,0.0013125,0.0028294,0.0023202,0.0010765,0.0011208,0.00010333,0.00080346,0.0023182,0.0013448,0.00044091,-0.00081875,-0.0017625,-0.0018753,-0.0012368,-0.00025802,0.00025414,0.001031,0.0014512,0.0020788,0.0022195,0.0010458,-0.00034722,-0.0018708,-0.0016968,-0.0018853,-0.0042982,-0.0051468,-0.0030931,7.1973e-05,0.00181,0.0011243,-1.766e-05,-0.00013408,6.1206e-05,-0.00019409,-0.0013427,-0.0019359,-0.0016068,-0.0014129,-0.0022912,-0.0043372,-0.0064147,-0.0065217,-0.0044925,-0.0028311,-0.0031326,-0.0047896,-0.0056584,-0.0050288,-0.0026814,-0.0010247,-0.0021265,-0.0027383,-0.0016063,0.00016147,0.0019367,0.0028764,0.0044214,0.0063896,0.0065463,0.0048371,0.0033639,0.0023039,0.0012385,0.00089544,0.00080204,0.0003301,-0.001269,-0.0029064,-0.0032587,-0.0032104,-0.0028049,-0.00074299,0.0014467,0.002176,0.002074,0.00080747,-0.00012924,-6.0982e-05,-0.00069939,-0.0026533,-0.0034538,-0.0018897,-0.00022095,0.00074287,0.0011149,0.0029216,0.006384,0.0088922,0.010296,0.0095451,0.0073938,0.0055433,0.0028968,0.00051295,-0.0012189,-0.0032865,-0.0040285,-0.0039793,-0.0038998,-0.0025118,-0.0012603,-0.00072702,0.0001201,0.00095989,0.0022934,0.0018474,-0.00052117,-0.0024271,-0.0034151,-0.0039695,-0.0043271,-0.0037751,-0.0037174,-0.0044201,-0.004508,-0.0035529,-0.0016449,0.00039397,0.0011351,0.00048166,0.00034139,0.0011045,0.0016999,0.0012563,-0.00043381,-0.0019216,-0.0027657,-0.0013237,0.0014476,0.0012965,0.00082469,0.0024642,0.0043414,0.0046426,0.0039352,0.0027429,0.00061804,-0.0010872,-0.0017472,-0.0030998,-0.0042495,-0.0031365,-0.0022297,-0.0012167,0.00087244,0.0025687,0.0043205,0.0061115,0.0065635,0.0060491,0.0054051,0.0029234,-0.001073,-0.0038888,-0.0065088,-0.0090258,-0.0094858,-0.0078894,-0.0045117,0.00094075,0.0065437,0.0094264,0.011221,0.012595,0.011871,0.0085883,0.0043362,0.00034873,-0.0028062,-0.0045539,-0.0067941,-0.0096838,-0.0097979,-0.0071577,-0.0037964,-0.0007626,-0.00073957,-0.0019346,-0.0012331,-0.0013528,-0.0022762,-0.0021326,-0.0023838,-0.0037193,-0.0058962,-0.0080503,-0.0098401,-0.010131,-0.0087515,-0.0055888,0.00046038,0.0051989,0.0078035,0.0086673,0.0075153,0.0054914,0.0034741,0.0021727,0.00012232,-0.0026551,-0.0041658,-0.003964,-0.0045164,-0.0052529,-0.0050102,-0.0040742,-0.0012736,0.0010983,0.00014207,-0.00067725,-0.00023657,0.00064347,0.001601,0.0013594,0.00090376,0.00048565,-0.0010327,-0.0023346,-0.0026378,-0.0021727,0.00015095,0.0021891,0.0026231,0.0026057,0.0013862,-0.00080649,-0.0015114,-0.0021599,-0.0037481,-0.0041445,-0.0033371,-0.0021634,-0.00080294,0.00047637,0.0012518,0.0034381,0.007153,0.009036,0.0071945,0.004296,0.0031787,0.0029736,0.0028037,0.0023078,0.00081375,-6.9177e-05,0.00048665,0.00084198,0.0010968,0.0022623,0.0032971,0.0049729,0.0059219,0.005282,0.0036258,0.0010221,-0.0011066,-0.0025234,-0.0032185,-0.0033626,-0.0029101,-0.0021383,-0.0012411,8.4728e-05,0.0021273,0.005316,0.0084742,0.0087959,0.006321,0.0030406,-0.0007646,-0.0037013,-0.0047095,-0.0050409,-0.0055567,-0.005827,-0.0065499,-0.0074245,-0.0064895,-0.0034579,-0.00010231,0.0022811,0.0026335,0.0019143,0.00076881,-0.0016828,-0.0037136,-0.0041907,-0.0035476,-0.0026463,-0.0027586,-0.00223,-0.00091542,0.0010989,0.0028159,0.0037616,0.005118,0.0045111,0.0014922,-0.0018486,-0.0044404,-0.0062385,-0.0066434,-0.0068428,-0.0069683,-0.0060691,-0.0062031,-0.006265,-0.0046623,-0.0014135,0.0020725,0.004901,0.0059912,0.0038501,0.0018365,0.00091317,-0.00037452,-0.0010832,-0.0023173,-0.0023686,-0.0010393,-0.00088706,-0.00047209,0.00044794,0.0011897,0.0036302,0.0064095,0.0073229,0.0057715,0.0021338,-0.0019993,-0.0049722,-0.0061884,-0.0070036,-0.0073076,-0.0065763,-0.0063713,-0.0068664,-0.0059297,-0.0034799,-0.00012029,0.003594,0.0043755,0.0030187,0.00094356,-0.0020187,-0.0039732,-0.0043516,-0.0029377,-0.0014406,-0.0016211,-0.0022374,-0.0022124,-0.0026529,-0.0025592,-0.00045251,0.00091955,0.0016164,0.0013127,-0.00094486,-0.001754,-0.0011429,-0.0010985,-0.0013077,1.5405e-05,0.0032119,0.0050593,0.0045652,0.0022387,-0.00032688,-0.0012123,-0.0018764,-0.002266,-0.00055902,0.0016544,0.0023121,0.0015935,-0.00037097,0.00041698,0.0038958,0.00587,0.0074866,0.0064605,0.0037863,0.001956,-0.00046363,-0.00074765,0.00050971,0.00081005,0.00031829,-0.0011024,-0.0022491,-0.0014816,0.00012862,0.0013268,0.0028738,0.0045397,0.004101,0.0023682,0.0010821,0.0005574,0.0015444,0.0018357,0.0015406,0.00083916,-0.00089523,-0.0020487,-0.0028001,-0.0023585,-0.001679,-0.0019286,-0.0015641,-0.0021062,-0.0030411,-0.0030093,-0.0027012,-0.0021096,-0.0013139,-0.0011409,-0.0016009,-0.001753,-0.0015697,-0.0011221,-0.0017635,-0.002214,-3.4489e-05,0.0022608,0.0018962,-0.000317,-0.0023881,-0.0014689,0.00045638,0.00053939,-0.001054,-0.0030043,-0.0045936,-0.0056685,-0.0044942,-0.0012334,0.0024326,0.004598,0.0048999,0.004666,0.0037286,0.00092566,-0.0012427,-0.0020287,-0.0015127,0.00080643,0.0021582,0.00223,0.0024384,0.0031188,0.0046216,0.0051152,0.0030218,0.000382,-0.0011714,-0.0021532,-0.0032097,-0.0056492,-0.0072127,-0.0058027,-0.004474,-0.0031824,-0.0018593,-0.0013246,-0.00067434,-0.0004391,-0.00024365,-0.00024545,-0.00062558,0.00037081,0.0015056,0.00073612,2.3905e-06,0.00037559,0.0015176,0.0024055,0.0024048,0.0031281,0.0042149,0.0037745,0.0012181,-0.0014304,-0.0019901,-0.0014315,-0.0016746,-0.0027081,-0.0027916,-0.0025644,-0.0023068,-0.0011994,3.2059e-05,0.000986,0.0012393,8.7183e-05,-0.0013339,-0.0023817,-0.0034189,-0.0036174,-0.0041023,-0.003724,-0.002051,-0.0010898,-0.00088652,-0.0018437,-0.0052011,-0.0073536,-0.0046346,-0.0019926,-0.0016049,-0.00064402,0.00039038,9.1101e-05,-0.00027077,0.0007916,0.0025907,0.0045493,0.0070232,0.0083126,0.0064437,0.0025746,0.00037859,0.0002503,0.0021153,0.0042565,0.0042725,0.0054964,0.0062303,0.0049671,0.0044498,0.0042959,0.0033969,0.0019029,-0.00033359,-0.0037145,-0.0056069,-0.0051847,-0.0028962,3.468e-05,0.0026544,0.0052061,0.0063909,0.0054992,0.0055677,0.0074227,0.0075734,0.0039605,-0.0015172,-0.0068247,-0.009881,-0.010362,-0.0086204,-0.0051245,-0.0025604,-0.00084668,0.00095844,0.0036625,0.0063262,0.0068717,0.0054815,0.0044804,0.0034018,0.0025171,0.00095762,-0.0020144,-0.00333,-0.0021093,-0.00065012,0.00071039,0.0030644,0.005365,0.0068498,0.007112,0.0059969,0.0041514,0.0021413,0.00032519,-0.0018014,-0.0031615,-0.0036382,-0.0042706,-0.0045213,-0.0044796,-0.0038236,-0.0032707,-0.0032746,-0.0041599,-0.0059792,-0.00566,-0.0027335,0.0010264,0.0039478,0.0033271,0.00045126,-0.002075,-0.0042089,-0.0055791,-0.0067367,-0.0077061,-0.0072107,-0.0060967,-0.00617,-0.0062865,-0.0055529,-0.0043773,-0.0033973,-0.0028262,-0.0021173,-0.0021203,-0.0011282,0.00053278,-2.8859e-05,-0.00058517,-6.9456e-06,0.0012419,0.0032824,0.0037753,0.0024468,0.0014334,0.0015601,0.0018186,0.00078558,-0.0016241,-0.0032836,-0.0042471,-0.006388,-0.0077899,-0.0069319,-0.0051245,-0.0021352,0.0012343,0.00061283,-0.00086537,0.00030163,0.0030216,0.0051274,0.0057345,0.0055612,0.0050925,0.0030462,-0.0016924,-0.0070785,-0.01096,-0.0093355,-0.003917,-6.6871e-05,-5.7346e-05,-0.00074651,0.0010364,0.0049109,0.0084842,0.0098138,0.010319,0.0095311,0.0056358,-0.00037768,-0.0062083,-0.0094607,-0.0085397,-0.0051727,-0.0033581,-0.0037859,-0.0040284,-0.0022367,0.0016195,0.0048762,0.0068824,0.0083646,0.0086121,0.0075504,0.0057428,0.0020943,-0.0020399,-0.0049417,-0.0070378,-0.0080571,-0.008567,-0.007839,-0.004956,-0.0020806,0.00031507,0.0035418,0.0067315,0.0078549,0.0073283,0.005828,0.0028549,0.0002338,-2.7981e-05,0.00066881,0.00094572,0.0015281,0.0029629,0.0033701,0.0025997,0.0021187,0.0022414,0.0032209,0.0039088,0.0035945,0.0039331,0.0059025,0.0079279,0.0079595,0.0073184,0.0066605,0.006107,0.0048455,0.0029143,0.0017645,0.0013248,-4.9418e-05,-0.0040377,-0.0086726,-0.011668,-0.011015,-0.0086564,-0.0064077,-0.0048717,-0.0044178,-0.0042584,-0.0034444,-0.0012304,-0.00085742,-0.0018474,-0.0013964,-0.00023292,-0.00016188,-0.0010204,-0.00082779,-3.5817e-05,0.00073259,0.0016823,0.0027861,0.0037773,0.0032274,0.0013041,-0.00015876,0.0001455,0.00034736,-0.00062361,-0.0019909,-0.0031286,-0.0047419,-0.0061296,-0.0061238,-0.0055054,-0.00433,-0.0025579,-0.00099642,-0.00050707,-0.00056154,-0.00083562,-0.0016019,-0.0015024,-0.00033473,0.0011198,0.0020987,0.00089859,-0.0015428,-0.0022006,-0.0018302,-0.002271,-0.0029474,-0.0036968,-0.0032523,-0.0017216,-0.0020149,-0.0039653,-0.0045635,-0.0019553,0.0015568,0.0037079,0.0054629,0.0072311,0.0091528,0.010516,0.010919,0.01077,0.0094477,0.0078442,0.0064337,0.0021679,-0.0026312,-0.0034334,-0.0026412,-0.0026513,-0.0023523,-0.0022507,-0.0018398,6.1254e-05,0.0014871,0.0017478,0.0025003,0.0032172,0.002674,0.00075298,-0.0032832,-0.0073442,-0.0081882,-0.006366,-0.0031981,1.4796e-05,0.0028032,0.0034661,0.0017412,0.00014961,-0.00018609,0.00070421,0.0021316,0.0034033,0.0043682,0.0045905,0.0039533,0.0022308,0.00094178,0.0020932,0.0041148,0.0046613,0.00052972,-0.0035866,-0.0023294,-0.00062908,-0.0013525,-0.0014528,-0.00057344,0.00018014,0.0011212,0.002325,0.0031344,0.0035486,0.0045192,0.0065633,0.0088779,0.0074252,0.0020084,-0.0025746,-0.0046999,-0.0051753,-0.0026933,-0.0013001,-0.0036558,-0.0047659,-0.0015,0.0023405,0.0036928,0.0040576,0.0052815,0.0052806,0.0034058,0.0012064,-0.00084328,-0.00083424,0.00061564,-7.8524e-06,-0.002119,-0.0035437,-0.0045278,-0.0059917,-0.0081826,-0.0085119,-0.0050166,-0.0017982,-0.0022886,-0.0041661,-0.0049527,-0.0062726,-0.0071164,-0.0020382,0.0039638,0.0067493,0.0085823,0.0083847,0.0075818,0.0087127,0.0082451,0.0052687,0.002783,-0.00010278,-0.0038103,-0.0066824,-0.0079792,-0.0066125,-0.0020703,0.0030082,0.0057682,0.005174,0.0031413,0.0011593,-0.00033974,-0.0019083,-0.0046547,-0.0075955,-0.0094962,-0.010137,-0.0086343,-0.0062626,-0.0043343,-0.00071806,0.0030508,0.0048106,0.0047621,0.0023028,-0.00014956,-0.00060904,-0.00026645,-0.0011283,-0.0036366,-0.0070881,-0.010165,-0.010833,-0.0088548,-0.0061638,-0.0032506,-0.00067561,0.0017902,0.0035969,0.0026463,-0.00011111,-0.001679,-0.0024531,-0.0026747,-0.0021168,-0.0027314,-0.0043607,-0.003745,-0.002309,-0.0017785,3.4352e-05,0.0034679,0.0045794,0.0017091,-0.00084541,-0.0013628,-0.0014968,-0.0011498,-0.001289,-0.0015901,-0.00032274,0.00094437,0.0010123,0.001586,0.0034783,0.0057579,0.0061248,0.0043953,0.001661,-0.00089634,-0.0025594,-0.0022964,-0.0019597,-0.00057153,0.0027713,0.0035196,0.0023531,0.0010482,0.00034419,0.0025646,0.005581,0.0069792,0.0059371,0.0028149,0.00048243,-0.0012089,-0.0020627,-8.589e-05,0.0031159,0.0046273,0.0042434,0.0026735,0.0001449,-0.0015048,-0.0017236,-0.0026731,-0.0049999,-0.0053669,-0.0038885,-0.0035579,-0.0033194,-0.0012532,0.0017143,0.0042533,0.0059505,0.0064738,0.0049393,0.0018356,-0.0016814,-0.004626,-0.0038044,-3.639e-05,0.004617,0.007626,0.0050852,0.0020519,0.0026295,0.0031108,0.0024335,0.0016446,0.0026141,0.0030992,0.00032946,-0.002075,-0.0015872,-0.00016218,0.0018782,0.003778,0.0035916,0.0025075,0.0011076,-0.00066928,-0.0007863,0.0018898,0.0040012,0.0032503,0.0020259,0.001078,-8.6652e-05,-0.0015352,-0.0018209,0.00033109,0.0015779,0.00028374,-0.0024035,-0.005538,-0.0068692,-0.0072813,-0.0065338,-0.00231,-0.00017285,-0.0017247,-0.0033581,-0.0028557,-0.00027214,0.0026649,0.0046703,0.0054694,0.0038378,0.0003853,-0.0025721,-0.0036285,-0.0021127,-0.00030932,-0.00048153,-0.0015437,-0.0020943,-0.0029032,-0.0042778,-0.0046886,-0.0037861,-0.0025794,-0.00092457,-0.0011375,-0.0030201,-0.0023587,-0.00055286,0.00060634,0.0012669,0.0017536,0.0029506,0.003721,0.002627,0.0015427,0.0015529,0.0028309,0.0040865,0.0035823,0.0018295,0.0012617,0.001702,0.001236,-0.00041974,-0.0022952,-0.0031336,-0.0049685,-0.0064314,-0.0067664,-0.0052443,-0.00030604,0.0044839,0.0064935,0.0074768,0.0081205,0.0065022,0.0031438,-0.00099921,-0.002232,0.0003555,0.0017848,-0.0014213,-0.0067683,-0.0068985,-0.0012662,0.0015773,-0.0010901,-0.0043672,-0.0063664,-0.0068684,-0.0059325,-0.007193,-0.0088537,-0.0087045,-0.0092886,-0.0099134,-0.0090864,-0.0070873,-0.0055106,-0.0047096,-0.0027837,0.00093339,0.003999,0.0043208,0.001997,-0.0021195,-0.0046809,-0.004667,-0.0035214,-0.00081995,0.0010371,0.00024659,-0.0014437,-0.00077057,0.001364,0.0036245,0.0070143,0.0094779,0.009586,0.010501,0.0131,0.012862,0.0094924,0.0055513,0.0027422,0.0013347,-8.2765e-05,-0.0021856,-0.0041459,-0.0033107,0.00015507,0.0039309,0.0082538,0.011936,0.01269,0.011374,0.0084336,0.0041237,0.0004492,-0.0032401,-0.0052472,-0.0051862,-0.0057566,-0.0043938,-0.00097925,0.00067223,6.0861e-05,0.00040068,0.0032884,0.0055253,0.0059783,0.0032151,-0.00091503,-0.003119,-0.0041659,-0.0059122,-0.0059401,-0.0020429,0.0014414,0.0020081,-0.00090793,-0.0024377,0.001971,0.0072676,0.006043,0.0004588,-0.0027401,-0.005137,-0.009109,-0.011582,-0.010458,-0.0058135,0.00052195,0.0023679,-0.0016359,-0.0065415,-0.011051,-0.014092,-0.015271,-0.01536,-0.015015,-0.014781,-0.011764,-0.0068666,-0.0019474,0.0029207,0.0051298,0.0055672,0.0073927,0.010104,0.0097267,0.0060923,0.0034981,0.0012744,-0.00079784,-0.0024484,-0.0031133,-0.0010124,0.0031671,0.0073478,0.0074262,0.0066949,0.0088613,0.011374,0.010905,0.007739,0.0046498,0.0029578,0.0014264,-0.0017016,-0.0026682,-0.001918,-0.00084408,0.00057392,0.00051848,-0.0013124,-0.0035346,-0.0050682,-0.0048452,-0.0025925,-0.00019183,0.0019747,0.0061669,0.0084106,0.0055435,0.0028195,0.0023593,0.00018797,-0.0059838,-0.014036,-0.018671,-0.019343,-0.020756,-0.020603,-0.015276,-0.0070722,0.0014897,0.0073158,0.0082639,0.0059147,0.0022164,-0.0016449,-0.0031086,-0.0031561,-0.0018235,-0.00080034,-0.0026529,-0.003398,-0.00059381,0.0048332,0.010712,0.014561,0.015515,0.013889,0.011554,0.010223,0.01036,0.010545,0.0087023,0.0056568,0.0019472,-0.00047963,-0.0017432,-0.0027805,-0.0029652,-0.0031903,-0.0038023,-0.0065986,-0.0093025,-0.011293,-0.01139,-0.0078385,-0.0037584,2.7838e-05,0.0038154,0.0061173,0.0078076,0.0075889,0.0061283,0.0051507,0.005938,0.0049936,-6.0215e-05,-0.0049397,-0.0061471,-0.0046057,-0.0036718,-0.0019426,0.0020993,0.0071735,0.0093032,0.0097604,0.010528,0.0096287,0.0076674,0.0052822,0.0044136,0.0045923,0.0031694,-0.00040518,-0.0038253,-0.0052544,-0.0050934,-0.004489,-0.0038375,-0.0025229,-0.0014745,-0.00053045,6.5958e-05,-0.00022279,0.0004251,0.0012153,-0.0010963,-0.0051359,-0.0066713,-0.0059669,-0.0027589,0.0029713,0.0071619,0.0080723,0.0079537,0.0074084,0.0058104,0.0035758,0.0014758,0.0016009,0.0013385,-0.0019344,-0.005397,-0.0085603,-0.010044,-0.010349,-0.0098277,-0.0064945,-0.0020657,0.0014279,0.0041372,0.0069547,0.0077143,0.0051869,-0.00036642,-0.0084149,-0.013778,-0.013014,-0.011334,-0.011048,-0.006813,-0.0035155,-0.00033216,0.0037545,0.0045189,0.005012,0.0053531,0.006169,0.0081829,0.0070104,0.0032017,0.0011129,-0.0013559,-0.0051553,-0.0055259,-0.0045001,-0.00242,0.0020754,0.0057052,0.0073611,0.0096283,0.013222,0.01649,0.019074,0.018295,0.013306,0.0052754,-0.0028059,-0.0075832,-0.0083306,-0.0070391,-0.0068414,-0.0052058,-0.0020012,0.0017847,0.0054332,0.0056334,0.0049166,0.0061345,0.005368,0.0010462,-0.0034865,-0.0066545,-0.008964,-0.0087937,-0.0076884,-0.0061118,-0.0041485,-0.0011792,0.0013536,0.0019944,0.0012637,0.0012481,0.0036751,0.0050259,0.0028399,0.00078636,0.0012144,0.0014221,0.0018195,0.00092,0.00030025,0.0019422,0.0025413,0.0033318,0.0034989,0.0010282,-0.0004564,0.00070418,0.00076999,0.00049993,0.0014431,0.0018656,0.00050577,-0.0011948,-0.00098655,-0.00040855,-0.00016043,0.0020976,0.0063621,0.0091408,0.011593,0.015249,0.016842,0.01523,0.010297,0.0037726,-0.0011182,-0.0021401,-0.0026118,-0.0021474,-0.0003909,0.0009323,0.0033129,0.005727,0.0054368,0.0037912,0.0040946,0.0039696,0.00012769,-0.0062542,-0.011326,-0.011862,-0.0099433,-0.0081808,-0.0089489,-0.011342,-0.010601,-0.0064861,-0.0024311,0.00017027,0.0042466,0.0092542,0.012865,0.012153,0.0080299,0.0044584,0.00083706,-0.00095269,-0.0021138,-0.0050174,-0.0063489,-0.0036937,-0.0032273,-0.0050255,-0.0020207,0.0026825,0.005351,0.0070693,0.0060757,0.0044673,0.0035169,-0.00092614,-0.0048413,-0.0065396,-0.0092205,-0.010256,-0.0086663,-0.0061686,-0.0057091,-0.0038617,0.0024805,0.010246,0.015218,0.017102,0.016857,0.010983,0.0037388,-0.00011233,-0.0027043,-0.004383,-0.0069405,-0.0093004,-0.00944,-0.0065773,-0.00083116,0.0083129,0.015227,0.014799,0.010444,0.0043137,-2.0011e-06,-0.0014129,-0.0020064,-0.004126,-0.0074801,-0.010097,-0.012853,-0.014729,-0.012417,-0.0087389,-0.0065304,-0.0021729,-0.00044314,-0.0012746,-0.0030733,-0.0033872,0.00084692,0.0048417,0.0074095,0.0061969,0.0016254,-0.0023699,-0.0049717,-0.0059698,-0.0044307,-0.001252,-0.00014956,-0.00080819,-4.4413e-05,0.0016887,0.0015468,0.00013408,-0.0042852,-0.0091992,-0.010563,-0.01048,-0.0096281,-0.0063665,-0.002195,0.0011053,0.0038359,0.0060915,0.010569,0.012258,0.0083218,0.0036033,0.00075777,0.0013748,0.0055348,0.012268,0.016455,0.016072,0.013488,0.0098098,0.0064645,0.0048597,0.0037211,0.0026641,0.0022543,0.00071929,-0.0027038,-0.004841,-0.0052615,-0.0033803,-0.00079143,0.00084145,0.00095387,-0.0024052,-0.0045873,-0.0028065,0.00019096,0.00042878,-0.00053114,-0.0014185,0.0006998,0.0035816,0.0012067,-0.00040459,-0.0009005,-0.0036732,-0.0060237,-0.0053024,-0.0040179,-0.0045251,-0.0051144,-0.0050892,-0.004775,-0.0046413,-0.0044879,-0.0026178,0.0009807,0.0024322,0.0013897,-0.00071065,-0.00060345,0.0012202,0.0012396,-0.00041505,-0.0011675,-0.00028295,0.0012084,0.0020922,0.0031706,0.0061962,0.0060162,0.0025103,0.001185,-1.5071e-05,-0.0037531,-0.0079666,-0.008343,-0.0063549,-0.0084741,-0.012931,-0.012846,-0.0077828,-0.0037623,-0.002983,-0.0042124,-0.0055215,-0.0046106,-0.0043362,-0.0043698,-0.0051865,-0.0065781,-0.0035667,-0.0006779,-0.00068611,0.00038817,0.00084347,0.0017311,0.0043809,0.0065666,0.010882,0.013329,0.01111,0.007817,0.0055638,0.0062235,0.006864,0.0055756,0.0025869,-0.00027333,-0.0014064,0.00034928,0.0030295,0.0021894,-0.0015797,-0.0027425,-0.0030839,-0.0034039,-0.00099728,-0.00024642,-0.001632,0.00096227,0.0066212,0.013706,0.018475,0.018294,0.016508,0.012898,0.010872,0.010089,0.0084582,0.0065417,0.005553,0.0061386,0.0062773,0.008336,0.0088035,0.0069498,0.0043059,0.0012304,0.0012287,7.1962e-05,-0.0048726,-0.0070087,-0.0045512,0.0018013,0.0094109,0.010745,0.0068326,0.0075034,0.013817,0.016256,0.013412,0.0044811,-0.0077937,-0.013745,-0.013097,-0.010889,-0.0066339,-0.00045001,0.0040749,0.0082213,0.0089559,0.0068667,0.0066991,0.0065022,0.0037557,0.00088888,0.00022195,0.0013254,0.0010116,0.00121,0.0030438,0.0043516,0.0040061,0.0019586,-0.0010186,-0.0033081,-0.0052246,-0.0075877,-0.011533,-0.01742,-0.02045,-0.022496,-0.023928,-0.022702,-0.020209,-0.014378,-0.0069244,-9.4884e-05,0.010202,0.022655,0.02934,0.028843,0.026911,0.022604,0.012745,0.00067404,-0.0097271,-0.01403,-0.013756,-0.013566,-0.013057,-0.010273,-0.0070955,0.0019719,0.012144,0.017958,0.022626,0.021269,0.015304,0.0078728,0.0015759,-0.004959,-0.0086481,-0.010158,-0.014176,-0.018408,-0.022355,-0.026467,-0.028985,-0.028697,-0.023848,-0.011696,0.00082373,0.0057094,-0.00031775,-0.0090619,-0.0090013,-0.0054663,-0.0035176,-0.003847,-0.003759,0.0027158,0.0081606,0.0071659,0.008258,0.014567,0.019937,0.019275,0.0093164,-0.0017156,-0.0045701,-0.0010517,0.0054821,0.0084262,0.0074271,0.0015331,-0.0060128,-0.011152,-0.013243,-0.0074,0.0021302,0.0064881,0.006158,0.0059475,0.003067,0.0014269,0.0020937,-0.00099856,-0.0051677,-0.0058503,-0.0036748,-0.0049585,-0.0089465,-0.010558,-0.0049643,0.0037192,0.0066647,0.0032952,-0.0054309,-0.012957,-0.012243,-0.0057204,-0.00043057,0.0041266,0.0091563,0.0095961,0.0071753,0.0040029,0.00039824,-0.00154,-0.0038743,-0.0048463,-0.0052103,-0.0092808,-0.012581,-0.0084012,-0.0011244,0.0010442,0.0025577,0.0055778,0.011468,0.014883,0.015136,0.016297,0.015524,0.015104,0.016112,0.017841,0.020818,0.021509,0.017712,0.013628,0.012316,0.013803,0.013143,0.0085719,0.0032315,-0.0062061,-0.011248,-0.0079298,-0.0021534,2.6073e-05,-0.0079046,-0.016274,-0.018144,-0.020287,-0.026302,-0.034296,-0.04098,-0.039698,-0.031093,-0.024865,-0.021122,-0.016955,-0.011428,-0.0035497,0.0041046,0.013411,0.017779,0.014867,0.0095004,0.0026607,-0.0012073,-0.0035804,-0.0041815,0.0013117,0.0067825,0.0047214,0.00065998,0.0011997,0.0037605,0.0097236,0.015548,0.012435,0.0076549,0.000929,-0.0089867,-0.018014,-0.026849,-0.032393,-0.031466,-0.023618,-0.011996,-0.0031124,0.0045419,0.017741,0.032199,0.03835,0.031158,0.015952,0.0055608,0.0017586,-0.0025253,-0.0076478,-0.008907,-0.0076959,-0.0092174,-0.0094658,-0.0031322,0.0045554,0.011328,0.022619,0.031783,0.033742,0.030309,0.023181,0.018449,0.010789,-0.00055196,-0.0093611,-0.013696,-0.015064,-0.016875,-0.020379,-0.02134,-0.013757,-0.0034677,0.00055188,-0.00013135,0.00084109,0.002921,0.0025335,0.0013856,-0.0044753,-0.011398,-0.010091,-0.0079947,-0.0036848,0.0017539,0.0026618,0.0039219,0.0056448,0.005266,0.0047638,0.0071956,0.0081665,0.0063076,0.003761,0.00040762,-0.0046356,-0.0098402,-0.017393,-0.026993,-0.032902,-0.029024,-0.014206,0.0023263,0.010422,0.010859,0.01327,0.016303,0.02164,0.026232,0.023338,0.01758,0.010586,0.0061585,0.0027829,-0.0033132,-0.0082559,-0.0074021,-0.001951,0.0049555,0.011313,0.011924,0.0076713,0.0097118,0.015513,0.01667,0.013932,0.010654,0.007728,0.0058001,0.006761,0.0064141,0.0022169,-0.0033341,-0.0053229,-0.0055037,-0.0062923,-0.0048611,-0.0025489,-0.0021485,-0.0027168,-0.0060713,-0.012441,-0.014492,-0.012805,-0.01286,-0.01403,-0.012464,-0.0071211,-0.0023445,-0.00039604,-0.00044155,0.0006831,0.0057862,0.0070116,0.0047048,0.0032502,0.0014199,-0.00079707,-0.00082931,0.00036295,-0.00458,-0.0096804,-0.0069271,-0.00049414,0.0056692,0.01172,0.014563,0.013066,0.010124,0.0099998,0.010253,0.0066575,-0.00074595,-0.0071566,-0.0080301,-0.0084892,-0.0083283,-0.0067371,-0.0034464,0.0041508,0.010861,0.01144,0.0082724,0.0091612,0.010767,0.0073974,0.0038339,0.0013127,-0.0007211,-0.0014674,-0.0043328,-0.0078803,-0.0068173,-0.0041529,-0.0026379,-0.001798,-0.0031109,-0.0049686,-0.006343,-0.0090598,-0.010853,-0.01421,-0.016402,-0.013794,-0.0092523,-0.0042806,-0.0033973,-0.0041132,0.00081023,0.0059057,0.002909,-0.0013,9.2027e-05,0.00374,0.0055623,0.0035663,0.0009952,-0.001956,-0.0040889,-0.0024,-0.0019304,-0.0041038,-0.0035882,-0.0030264,-0.0022109,0.0024264,0.0067131,0.0091105,0.011436,0.011236,0.01005,0.0060002,-0.0021413,-0.0086665,-0.0093006,-0.0024913,0.00507,0.0066788,0.0051938,0.0018022,-0.0042488,-0.0060879,-0.0067796,-0.0070952,0.00096176,0.008568,0.0096836,0.0083063,0.0071812,0.0070905,0.0061326,0.0061809,0.0079904,0.0095813,0.011646,0.014749,0.017044,0.015703,0.010542,0.0063239,0.0052516,0.0025368,-0.0011663,-0.0011758,-0.0015739,-0.0028104,-0.0026598,-0.0041873,-0.0023407,0.0026406,0.0045488,0.001942,-0.0036606,-0.0036748,-0.0020863,-0.0028398,-0.00043622,-0.0016257,-0.0098244,-0.016658,-0.021067,-0.022952,-0.022741,-0.025249,-0.025834,-0.023638,-0.021541,-0.016801,-0.008222,0.0050901,0.024295,0.035732,0.034617,0.026891,0.016565,0.016707,0.019569,0.019778,0.01957,0.010338,-0.0031347,-0.0094521,-0.013209,-0.019215,-0.021841,-0.017538,-0.011001,-0.0068903,-0.0034986,-0.0010223,0.0023441,0.0039086,0.0035681,0.0043051,-0.00071765,-0.010061,-0.011912,-0.012796,-0.019313,-0.024224,-0.025825,-0.02059,-0.010174,-0.0020919,0.00019112,-0.0030739,-0.00048585,0.0073828,0.0065582,-0.001966,-0.0097853,-0.011479,-0.009948,-0.01086,-0.011112,-0.0083482,-0.0059349,-0.0017222,0.004746,0.0053382,0.0022517,0.0024194,0.0014946,0.00050934,-0.0022995,-0.0092705,-0.013321,-0.012021,-0.008086,-0.0045157,-0.0037603,-0.00092655,0.0048059,0.0089837,0.010974,0.010035,0.0098347,0.012563,0.013129,0.0079044,0.0018669,-0.0020601,-0.0041887,-0.0016914,0.0027932,0.0050292,0.0049611,0.0079254,0.011143,0.0073855,0.0029565,-0.00020831,-0.0020931,-0.00093046,-0.0017805,-0.0034698,-0.00092482,0.0033326,0.0044088,0.00050807,-0.0072116,-0.011154,-0.007366,9.8918e-05,0.0061751,0.0068772,0.0039128,0.0010637,-0.00059152,-0.0026258,-0.0049451,-0.0072398,-0.0059113,0.0011395,0.0054696,0.0057034,0.007443,0.011303,0.012375,0.0083801,0.0027765,7.815e-06,0.0040457,0.010286,0.013153,0.012747,0.012433,0.015273,0.017823,0.016095,0.013012,0.010119,0.0048406,-0.00041905,-0.0025441,-0.00062562,0.0052873,0.010883,0.012895,0.010728,0.0073566,0.0073763,0.0077953,0.0064921,0.0022522,-0.0048757,-0.0093686,-0.010367,-0.0087888,-0.0052554,-0.0033013,-0.0059083,-0.0065436,-0.0025774,0.0037048,0.011117,0.017288,0.02029,0.019938,0.016125,0.0089538,0.003236,0.003769,0.0057913,0.0032693,-0.0011839,-0.0049091,-0.0061253,-0.0043987,0.00013518,0.0023061,0.0018539,0.002455,0.0026549,0.0017905,-0.00099303,-0.0039835,-0.0055293,-0.0072759,-0.0093713,-0.010806,-0.010929,-0.0093524,-0.008259,-0.0076689,-0.0041114,0.00075961,0.0039851,0.0060864,0.0032383,-0.0039743,-0.0096566,-0.012569,-0.010828,-0.009383,-0.010771,-0.010043,-0.0088733,-0.010634,-0.011564,-0.007068,-0.0028417,0.0024724,0.010471,0.011067,0.0059589,-0.00019251,-0.0086348,-0.014495,-0.014164,-0.012868,-0.013964,-0.017364,-0.022171,-0.024393,-0.022312,-0.016215,-0.0043747,0.0063801,0.0093073,0.0076324,0.0016681,-0.007519,-0.0093669,-0.001836,0.0059619,0.01022,0.0081527,0.00022931,-0.007724,-0.011359,-0.012286,-0.013722,-0.015799,-0.016181,-0.011953,-0.0060495,-0.0050705,-0.0052014,-0.0010758,0.0063342,0.011354,0.010942,0.0053797,-0.0014976,-0.0037349,-0.00044158,0.00396,0.0051693,0.0065955,0.0086609,0.0089587,0.0066101,0.0030552,0.0018449,0.0027458,0.006642,0.0088456,0.0072774,0.0062901,0.01258,0.022021,0.022725,0.017944,0.013412,0.010161,0.0080236,0.0031923,-0.001458,-0.0022815,-0.00030801,0.001202,-0.00036807,-0.0045441,-0.0076594,-0.012833,-0.018829,-0.017289,-0.0094544,-0.0025739,-0.00097251,-0.003108,-0.0044887,-0.0044285,-0.0037307,-0.0031728,-0.0032004,-0.0048854,-0.0048398,-0.0026595,0.0012507,0.0099763,0.022669,0.03469,0.041026,0.039748,0.0304,0.01826,0.010125,0.0042999,-0.003955,-0.0093213,-0.0094435,-0.0083298,-0.004288,-0.00049721,0.0032093,0.0082269,0.013269,0.015493,0.015129,0.01352,0.010062,0.004611,-0.0029716,-0.0074701,-0.0058555,-0.0046137,-0.0066355,-0.0057288,-0.0024202,-0.0003433,0.0054784,0.013211,0.013369,0.010471,0.0097072,0.0032982,-0.0061748,-0.010214,-0.0097014,-0.0048846,0.00073413,0.0016655,0.001421,-0.00032007,-0.0043395,-0.0046194,-0.0038009,-0.0050081,-0.0055843,-0.0047798,-0.0030335,-0.0041484,-0.0065283,-0.0057618,-0.0067548,-0.012349,-0.019676,-0.025539,-0.027228,-0.02547,-0.023305,-0.019072,-0.014083,-0.010679,-0.0069558,-0.0031626,-0.0013668,-0.00035581,0.0023651,0.0038896,0.0049498,0.0043677,0.0010377,-0.0034159,-0.0028721,0.0043001,0.011678,0.014844,0.013706,0.012508,0.01223,0.01066,0.0052615,-0.0013278,-0.00075623,0.0044961,0.0057909,0.002043,-0.0015066,-0.0012294,0.001662,0.004381,0.0044246,0.0022256,0.0011304,0.0018446,0.0030611,0.0025024,0.0016608,0.0045772,0.007013,0.0049088,-0.0011892,-0.0097549,-0.010832,-0.0059439,-0.00048278,0.0067396,0.010059,0.010418,0.0081811,0.0030563,-0.00030167,-0.0028488,-0.0044879,-0.0073336,-0.011899,-0.013268,-0.012189,-0.013143,-0.012921,-0.011638,-0.0084519,-0.0042415,-0.0058181,-0.0070236,-0.0018834,0.0048989,0.0093962,0.0078338,0.0036927,0.0012954,0.00087006,0.0024959,0.0035262,0.0043062,0.0066553,0.0078696,0.0054845,0.0040509,0.0029677,0.003717,0.008096,0.0085784,0.0052472,0.0011156,-0.0030554,-0.0060698,-0.0072675,-0.0087553,-0.0092775,-0.0090404,-0.0099666,-0.011247,-0.011316,-0.0063732,0.0016149,0.0083835,0.012515,0.012658,0.0097776,0.0060817,0.0012943,-0.0032629,-0.0029587,-0.0012625,-0.0016403,-0.002939,-0.0046905,-0.0062919,-0.0065237,-0.0045774,-0.0045425,-0.0078677,-0.011072,-0.011544,-0.008513,-0.0048402,-0.002617,0.00031807,0.004009,0.0088363,0.012834,0.015213,0.015902,0.014508,0.0096652,0.0020966,-0.005412,-0.012326,-0.01209,-0.0097636,-0.00906,-0.0057109,-0.0011709,0.00247,0.0031573,0.001167,-0.002939,-0.0044883,-0.0028205,-0.00098216,-0.003039,-0.0081192,-0.01032,-0.0065078,0.001613,0.0065873,0.0080778,0.0080146,0.0076356,0.0083415,0.0064193,0.0028836,-0.00068628,-0.0030026,-0.0046789,-0.0079724,-0.010852,-0.014478,-0.018409,-0.018861,-0.012299,-0.0027148,0.0080846,0.020943,0.027506,0.025529,0.01885,0.011159,0.0040454,-0.0034617,-0.0086827,-0.0090504,-0.0094244,-0.0096913,-0.0068779,-0.0012189,0.0040157,0.0050467,0.0034939,0.0010007,-0.0036412,-0.0081896,-0.0089474,-0.0070124,-0.0015929,0.00036247,-0.0023927,-0.0031398,-0.0016948,-0.00046715,0.004183,0.011094,0.015186,0.01557,0.011249,0.0017377,-0.0086258,-0.012065,-0.0089916,-0.0059457,-0.0048652,-0.0046194,-0.0053768,-0.0032758,0.00296,0.0082165,0.012004,0.015089,0.015898,0.014165,0.011546,0.010101,0.0087194,0.0073409,0.0040377,0.0031051,0.0059913,0.0075185,0.0079801,0.009882,0.011496,0.013079,0.013972,0.0098035,0.0053738,0.0033148,0.0015224,0.0021063,0.00039965,-0.0039613,-0.0060706,-0.0051679,-0.0024524,-0.0018343,-0.0014929,0.0008237,0.0032906,0.0058601,0.0078839,0.0057528,0.001419,-0.00038315,-0.00035668,0.0010292,0.0024099,0.0037064,0.0051742,0.005646,0.0061723,0.0072722,0.0080983,0.0098447,0.012489,0.0098228,0.006815,0.0072273,0.0053599,0.0023332,-0.00048779,-0.0047986,-0.0066029,-0.006215,-0.0085004,-0.0084426,-0.0082911,-0.0072076,-0.0012885,0.0025648,0.0059153,0.0074816,0.0023371,-0.0048457,-0.010087,-0.011221,-0.0089946,-0.0036529,0.0024489,-0.00056073,-0.011213,-0.017546,-0.016112,-0.012533,-0.008332,-0.0038107,-0.0020582,0.00092429,0.0053186,0.0051037,0.0033661,0.0069524,0.010004,0.004678,-0.0062889,-0.010705,-0.0081037,-0.0020385,0.0049904,0.0072991,0.0041362,-0.0010204,-0.0052006,-0.0088512,-0.0088783,-0.0066054,-0.0057297,-0.0061368,-0.010792,-0.0166,-0.020353,-0.021218,-0.017998,-0.0072259,0.0066339,0.012849,0.013753,0.009626,0.0031398,-0.0014388,-0.0066418,-0.010683,-0.011445,-0.012232,-0.014605,-0.01446,-0.011818,-0.0075829,0.0016445,0.010116,0.011657,0.012505,0.013206,0.011438,0.0078663,0.0057351,0.001726,-0.0081676,-0.016319,-0.017003,-0.012875,-0.0044296,0.0045979,0.010265,0.015412,0.018145,0.019717,0.015807,0.0033456,-0.0029813,-0.0020966,-0.0022161,-0.0028376,-0.002423,-0.0043125,-0.005617,-0.0079456,-0.010601,-0.0065198,-2.4218e-05,0.0037656,0.004715,0.0007971,-0.0042155,-0.0037858,0.0035531,0.013608,0.017711,0.013967,0.0079069,0.0023224,-0.0018986,-0.00063751,0.0012802,0.00015274,0.00027809,0.0027631,0.00068609,-0.0049413,-0.0085861,-0.0097793,-0.0090389,-0.0052678,0.0016346,0.0073841,0.010942,0.014635,0.016542,0.011658,0.0052438,0.0030981,0.0012165,-0.0023511,-0.0043166,-0.0020484,0.0016581,0.0035858,0.0045246,0.0071918,0.01074,0.014296,0.017617,0.01614,0.01022,0.0036709,-0.0019377,-0.0020181,-0.00021857,-0.00011198,-0.00055115,-0.00090856,-0.0010645,-0.0033636,-0.0063683,-0.0075976,-0.0070047,-0.0070247,-0.0090558,-0.012843,-0.014123,-0.0096465,-0.0056977,-0.0064308,-0.0045612,-0.0020935,-0.0014426,0.0031952,0.0081565,0.0095485,0.0078058,0.0054786,0.0044106,0.00013098,-0.0049098,-0.010785,-0.016865,-0.016609,-0.013606,-0.012097,-0.010475,-0.0055367,0.0018928,0.0080878,0.011164,0.0063681,0.0002954,-0.00076697,0.0017394,0.0027975,0.00084239,0.0033966,0.0077123,0.0075895,0.0040231,0.0032269,0.0060875,0.0091808,0.011092,0.01164,0.01417,0.017343,0.018529,0.013638,0.0064889,0.0011493,-0.0031658,-0.008671,-0.01386,-0.016131,-0.015199,-0.010604,-0.0040833,0.0022581,0.0070565,0.0063655,0.0029325,0.0014254,-0.0018043,-0.0040532,-0.00052665,0.00095068,-0.0030104,-0.0088079,-0.00961,-0.0052224,-0.0025461,-0.001063,0.00034684,-0.0019438,-0.0045174,-0.0054462,-0.0011119,0.0074304,0.011587,0.012492,0.0082717,0.00032529,-0.0040378,-0.0036919,-0.0041235,-0.0065181,-0.0078102,-0.0046532,-0.00069459,-0.0004496,-0.00045702,0.0047769,0.010535,0.011383,0.0082086,0.0037491,-0.00059277,-0.0015537,0.00036069,-0.00053101,-0.0036222,-0.0056599,-0.0053973,-0.0023376,0.0050795,0.013397,0.016587,0.012864,0.0070243,0.003503,0.0035701,0.0028161,-0.0018958,-0.007586,-0.0097177,-0.0089158,-0.0076592,-0.0082155,-0.0097303,-0.010933,-0.012384,-0.013632,-0.015772,-0.014279,-0.0083412,-0.0017516,0.0021884,0.0035637,0.00069995,-0.0051944,-0.0091517,-0.012756,-0.015783,-0.015959,-0.010529,-0.0065172,-0.0054079,-0.0010825,0.0067734,0.014405,0.014381,0.0085258,0.0034441,0.0024002,0.0039755,0.0046075,-0.00029851,-0.0095734,-0.013478,-0.013668,-0.013133,-0.013069,-0.010551,-0.0062317,-0.0072504,-0.010296,-0.0067931,0.0026412,0.0089164,0.011786,0.016633,0.019639,0.01698,0.013217,0.0089105,0.0048441,0.0053627,0.0049662,0.0045369,0.0011179,-0.0096555,-0.016443,-0.015045,-0.011737,-0.0086672,-0.005976,-0.0047218,-0.0027711,-0.00052177,0.0018516,0.0013912,-0.0024979,-0.0022354,0.00085166,0.0047084,0.0099599,0.015755,0.020927,0.024151,0.026905,0.027703,0.022148,0.011752,0.0034341,-0.0025333,-0.010145,-0.016079,-0.019136,-0.021863,-0.02173,-0.017489,-0.015677,-0.013101,-0.0076961,-0.0026569,0.0080997,0.020951,0.026318,0.022306,0.013848,0.0046462,-0.0032132,-0.0048369,-0.002566,-0.001248,-0.00069921,0.00055089,0.00035258,-0.0017607,-0.0041687,-0.003321,0.0037569,0.0060668,-0.0007543,-0.0082745,-0.01078,-0.0036571,0.0060117,0.014065,0.01943,0.018435,0.014401,0.0063523,-0.0012959,-0.0069169,-0.012124,-0.015967,-0.018199,-0.018562,-0.021045,-0.019353,-0.01119,0.002063,0.012925,0.016658,0.016385,0.016225,0.015838,0.0097586,0.0022887,0.0018756,0.0056701,0.0061819,0.0050018,0.0031268,0.0049213,0.010391,0.012037,0.007619,0.0033229,0.0018255,0.00048817,-0.0045953,-0.012316,-0.015759,-0.016648,-0.019415,-0.023122,-0.023142,-0.01915,-0.012725,-0.0068395,-0.00511,-0.0072906,-0.0055953,0.00143,0.0087299,0.015409,0.017214,0.017305,0.018318,0.016755,0.012228,0.0026231,-0.0074295,-0.01163,-0.010402,-0.011049,-0.018597,-0.022054,-0.014084,-0.0036658,0.0032617,0.0052915,0.00080777,-0.0061282,-0.011223,-0.014368,-0.014645,-0.010992,-0.0082062,-0.0059476,-0.0063274,-0.013258,-0.015206,-0.0072487,-0.00016674,-0.00072228,-0.0049153,-0.0089459,-0.0042809,0.0056204,0.0072797,0.0053549,0.0042653,0.0015445,-0.0013586,-0.00048323,-0.00033277,-0.0021817,-0.0032655,-0.0028812,0.0021719,0.0069944,0.0088882,0.010696,0.0097432,0.0047882,0.002501,0.0062954,0.011204,0.0089739,0.0025085,0.0001667,0.0012114,0.0015454,-0.00056162,-0.0042063,-0.0075155,-0.0057043,-0.00019019,-0.00064771,0.002373,0.012678,0.015094,0.012802,0.014789,0.020879,0.026791,0.025011,0.019743,0.015324,0.0053614,-0.00065986,0.0028265,0.0043014,-6.0967e-05,-0.007765,-0.013012,-0.010955,-0.0035522,0.0021862,0.0052237,0.0048436,0.0043261,0.0049816,0.0043923,0.0070379,0.012397,0.015508,0.012444,0.0046723,0.00010715,0.0024252,0.0050265,0.0046466,0.0043502,0.0012397,-0.00065508,0.00023886,0.0021033,0.0048188,0.0058526,0.0016484,-0.0054413,-0.012046,-0.014523,-0.010683,-0.010382,-0.011933,-0.0092667,-0.0063684,-0.0072771,-0.0040039,0.0089114,0.022114,0.030696,0.031327,0.023364,0.013908,0.0068094,0.0017318,-0.0019288,-0.0033001,-0.0032788,-0.0061387,-0.01145,-0.014284,-0.014162,-0.01229,-0.010099,-0.0076937,-0.0028575,0.00019832,-0.002537,-0.0067217,-0.01152,-0.014825,-0.010626,-0.0019551,0.0075807,0.015326,0.019677,0.022697,0.022668,0.022772,0.021206,0.015436,0.013569,0.014669,0.013815,0.009936,0.0029481,-0.0039328,-0.0088714,-0.011663,-0.012899,-0.012442,-0.015559,-0.019997,-0.019332,-0.018238,-0.018285,-0.017811,-0.01532,-0.01125,-0.009722,-0.010333,-0.0075008,-0.0018824,0.00044444,-0.002413,-0.0052694,-0.0077765,-0.011282,-0.011532,-0.011335,-0.0090934,-0.0040088,-0.0010025,0.0020498,0.006457,0.0082433,0.007813,0.0045807,0.00012378,-0.0038687,-0.008595,-0.015388,-0.021211,-0.021521,-0.017539,-0.011804,-0.011182,-0.015513,-0.016657,-0.018291,-0.020861,-0.017126,-0.005567,0.013103,0.031097,0.039135,0.036365,0.030674,0.028015,0.026124,0.019025,0.011411,0.009339,0.011644,0.016635,0.021322,0.026863,0.029699,0.024189,0.013742,0.0025468,-0.006997,-0.014833,-0.018035,-0.015974,-0.014729,-0.015862,-0.012325,-0.0078537,-0.0056051,-0.0037969,-0.0048024,-0.008614,-0.0088435,0.00064125,0.0097599,0.013196,0.014939,0.014116,0.0061945,-0.0025746,-0.0056834,-0.0058913,-0.0018535,-0.00022461,-0.0038703,-0.0020879,0.0044902,0.007808,0.0076411,0.0042667,0.0002724,-0.0018888,-0.0011514,0.0040845,0.0086259,0.0128,0.015473,0.011061,0.0084689,0.012212,0.01242,0.011711,0.012931,0.011776,0.0073279,-0.0036778,-0.014078,-0.016934,-0.014284,-0.0096901,-0.0059184,-0.0064297,-0.0096265,-0.010446,-0.0085477,-0.0044555,-0.0036815,-0.0059035,-0.0073401,-0.0096181,-0.011749,-0.013725,-0.012128,-0.0053466,0.00168,0.004349,0.006664,0.0085207,0.007521,0.010536,0.013562,0.012497,0.0085644,0.0037996,0.0014616,-6.876e-05,6.7204e-05,0.0027787,0.0050796,0.005982,0.0037018,-0.0043447,-0.013919,-0.01358,-0.0035547,0.0017661,-0.0031412,-0.010576,-0.0095227,-0.005981,-0.010115,-0.020761,-0.027647,-0.022937,-0.011777,-0.00042383,0.0055928,0.006019,0.0046508,0.0069276,0.013115,0.020219,0.026611,0.031269,0.033016,0.034845,0.040761,0.041127,0.030993,0.014228,-0.0026209,-0.013843,-0.023453,-0.031036,-0.028781,-0.025292,-0.023383,-0.021572,-0.02162,-0.016906,-0.0031258,0.01426,0.027296,0.028998,0.027837,0.032947,0.032457,0.024929,0.01483,0.0050241,0.00014021,-0.00077788,-0.0034131,-0.0070269,-0.0098303,-0.0084745,0.0013231,0.011705,0.01368,0.0092351,0.0061994,0.0032449,-0.0025285,-0.0096533,-0.017357,-0.020396,-0.021456,-0.023775,-0.025189,-0.026786,-0.027227,-0.02213,-0.016558,-0.018945,-0.020086,-0.016014,-0.0083651,-0.0014693,0.00074787,0.0007706,-0.00013985,0.0013262,0.0041519,0.0074114,0.0099351,0.01328,0.018063,0.019726,0.020768,0.021956,0.02044,0.018664,0.019316,0.018345,0.015166,0.0085718,0.001918,0.0010342,-0.00011222,-0.0002497,0.0049342,0.0069199,0.0052411,0.0027086,-0.004274,-0.013987,-0.020302,-0.020089,-0.014739,-0.010623,-0.0050246,0.0029792,0.011083,0.01853,0.019976,0.014386,0.009077,0.0037752,-0.0049138,-0.015194,-0.024176,-0.025649,-0.01785,-0.010107,-0.0068049,-0.0039193,-0.0057382,-0.010482,-0.012819,-0.014996,-0.017743,-0.019466,-0.024939,-0.037917,-0.044812,-0.042251,-0.029628,-0.01215,-0.0025131,0.0063249,0.016462,0.022292,0.026223,0.027826,0.025042,0.018056,0.012645,0.0093113,0.0069031,0.001428,-0.0056939,-0.0071465,-0.012694,-0.018281,-0.016176,-0.013043,-0.006516,0.0046968,0.0084883,0.0087914,0.012704,0.017272,0.024214,0.021623,0.0044387,-0.01425,-0.024841,-0.027752,-0.024946,-0.012561,0.00051348,0.0084755,0.01493,0.020539,0.026442,0.031128,0.032241,0.029592,0.017944,-0.00052469,-0.013549,-0.014408,-0.00818,-0.005213,-0.0054037,-0.0099191,-0.017935,-0.012101,6.92e-05,0.0065629,0.0076614,0.0058372,0.0061678,0.0077377,0.0093036,0.0080572,0.0061031,0.0031653,-0.0045583,-0.013128,-0.017454,-0.012723,0.00064615,0.013175,0.021702,0.025627,0.022592,0.011823,0.0033122,0.0049159,0.013873,0.016441,0.0069915,-0.00011046,-0.0051062,-0.006704,-0.0020374,0.0050653,0.0072156,-0.001935,-0.01404,-0.023684,-0.023281,-0.0096386,0.0094317,0.024583,0.027605,0.024607,0.022617,0.022415,0.024594,0.024329,0.020604,0.011887,-0.0015152,-0.0084138,-0.0090351,-0.0083423,-0.0028925,0.0048276,0.011184,0.014641,0.015431,0.014533,0.011329,0.0047242,-0.00091946,-0.0088873,-0.017551,-0.025873,-0.034236,-0.036074,-0.032968,-0.025175,-0.015102,-0.005054,0.004137,0.010007,0.010466,0.0038937,-0.0059233,-0.012511,-0.016755,-0.014701,-0.0080435,-0.0069604,-0.0019234,0.0084352,0.013029,0.011675,0.0077463,0.0026558,0.00057149,0.0019573,0.0047224,0.0075261,0.0050182,-0.00053213,-0.0078624,-0.015142,-0.026429,-0.036853,-0.038627,-0.037245,-0.02822,-0.015015,-0.0080887,-0.0044612,0.0046773,0.020839,0.03434,0.040321,0.043727,0.041838,0.029494,0.011011,-0.0047059,-0.019141,-0.028233,-0.027021,-0.022939,-0.019624,-0.017586,-0.016581,-0.01482,-0.014825,-0.017342,-0.018878,-0.018507,-0.010809,-0.0012641,0.0044958,-0.00017233,-0.01307,-0.017213,-0.017039,-0.01481,-0.012191,-0.011372,-0.014316,-0.014753,-0.0066897,0.00058293,0.0030355,0.00054845,0.00097191,0.0038735,0.0027108,0.0059528,0.012271,0.013224,0.0042255,-0.0021494,-0.0039925,-0.0074853,-0.0074222,-0.0080938,-0.0060801,-0.0073863,-0.015383,-0.016725,-0.010238,0.00023623,0.012623,0.021207,0.027467,0.038418,0.045064,0.039885,0.030135,0.019823,0.010508,0.00084926,-0.011491,-0.018437,-0.015322,-0.0051828,0.0052932,0.012015,0.017123,0.022529,0.028757,0.031683,0.032253,0.02875,0.019829,0.0079252,-0.0025622,-0.0074306,-0.010415,-0.012424,-0.010421,-0.00098464,0.0074111,0.010063,0.013941,0.017607,0.018898,0.021477,0.019865,0.011626,0.0034285,-0.0039727,-0.0074357,-0.0072988,-0.0071399,-0.0046812,-0.0057876,-0.014745,-0.020849,-0.017188,-0.0072681,0.0042718,0.01468,0.018278,0.016436,0.013898,0.012445,0.010569,0.0029591,-0.0037395,-0.0054018,-0.0079676,-0.013406,-0.018315,-0.017683,-0.011677,-0.00078607,0.011046,0.017661,0.022042,0.025209,0.024653,0.021348,0.014548,0.0056497,-0.0058036,-0.017361,-0.022708,-0.024643,-0.026025,-0.027241,-0.025892,-0.024905,-0.023643,-0.019946,-0.014431,-0.0091131,-0.0028302,0.0053571,0.0084743,0.006814,0.0022841,-0.00192,-0.0055124,-0.016209,-0.026313,-0.029898,-0.02626,-0.016835,-0.0055351,0.0081666,0.021194,0.021955,0.010484,-0.0029663,-0.014449,-0.025655,-0.03258,-0.036158,-0.040567,-0.036208,-0.026322,-0.019772,-0.0098769,0.0078391,0.026071,0.031803,0.025973,0.017475,0.0077943,0.00090034,0.0014229,0.0063959,0.011013,0.0095142,0.0076581,0.0087049,0.0078358,0.0058334,0.0066018,0.010183,0.0076912,0.0026278,0.0038344,0.0065848,0.012207,0.017997,0.01484,0.0086113,0.0079432,0.0056324,-0.0032133,-0.0078793,-0.0030055,-0.0020236,-0.010732,-0.018383,-0.024279,-0.024605,-0.014797,-0.0035966,0.00097637,0.0029975,0.0049448,0.010652,0.016136,0.012672,0.0067104,0.0038272,0.0019111,0.0033869,0.011875,0.018645,0.015183,0.0087104,0.0060149,0.0048957,0.0049658,0.0057144,0.004586,-0.0017144,-0.005599,0.0013077,0.014274,0.020356,0.01873,0.01593,0.0043787,-0.014964,-0.028211,-0.031899,-0.030133,-0.023734,-0.013435,-0.0061074,-0.0044511,-0.0046698,-0.006443,-0.0065723,-0.0021163,0.00081836,0.0042456,0.012197,0.021495,0.027873,0.027172,0.018914,0.0059139,-0.0027852,-0.0042773,-0.004303,-0.0030038,3.9378e-05,-0.00029072,-0.0026593,0.0019005,0.010603,0.017371,0.015599,0.011646,0.0049964,-0.0056013,-0.015696,-0.027233,-0.032254,-0.029288,-0.028556,-0.028512,-0.021739,-0.015119,-0.011998,-0.0060826,-0.0012874,-0.0053358,-0.011863,-0.012105,-0.0043056,0.0068811,0.01379,0.014299,0.011031,0.009782,0.01103,0.01649,0.024595,0.028445,0.024043,0.014774,0.0077296,0.0055321,0.0061598,0.0063321,0.0033094,0.004052,0.008643,0.0031674,-0.012316,-0.023355,-0.022291,-0.013836,-0.0090605,-0.011253,-0.016894,-0.020643,-0.018311,-0.0042921,0.0096331,0.010362,-0.0016932,-0.021022,-0.036618,-0.042451,-0.035572,-0.022107,-0.010724,-0.0012383,0.00058418,0.00094786,0.015257,0.036098,0.04776,0.043525,0.028516,0.012014,-0.00076788,-0.0069453,-0.007176,-0.0023082,0.0017437,-0.0022806,-0.012832,-0.016542,-0.013816,-0.0096744,-0.005121,-0.0031083,-0.00056906,-0.00063722,-0.0029212,-0.00099798,0.00051023,0.0023704,0.0037243,0.0061585,0.012451,0.017898,0.023175,0.027992,0.031984,0.041501,0.049704,0.048293,0.037054,0.017634,0.0018662,-0.0052043,-0.0086182,-0.014567,-0.024484,-0.024939,-0.017326,-0.010219,-0.0015513,0.012495,0.029215,0.039326,0.040671,0.03694,0.026672,0.0066096,-0.0097244,-0.018642,-0.027238,-0.035828,-0.044013,-0.0481,-0.040871,-0.03313,-0.026755,-0.016759,-0.0052611,0.0031615,0.013379,0.022391,0.02202,0.016983,0.011907,0.0078802,0.0064871,0.016385,0.031623,0.040387,0.041592,0.032097,0.014783,-0.00058741,-0.0087802,-0.011885,-0.015205,-0.020039,-0.02203,-0.023992,-0.029155,-0.032297,-0.028992,-0.025612,-0.021027,-0.01241,-0.0092466,-0.0047377,0.010736,0.02903,0.041322,0.043502,0.034668,0.019796,0.008338,0.0060323,0.0054559,0.0037555,0.0044747,0.0030591,-0.0068528,-0.018458,-0.021795,-0.015152,-0.0070003,-0.006218,-0.011691,-0.017324,-0.017668,-0.0093876,0.0010084,0.0087114,0.013168,0.0082021,-0.004728,-0.014864,-0.01562,-0.0065112,-0.00044866,-0.0033349,-0.0080899,-0.0083294,-0.006629,-0.0090451,-0.015423,-0.018809,-0.021177,-0.025787,-0.027157,-0.026064,-0.022143,-0.012774,-0.0026254,-0.00076638,0.0020435,0.0076595,0.0038698,-0.0023715,-0.00020592,0.0071833,0.0053247,-0.0092955,-0.020148,-0.01677,-0.008273,-8.7873e-06,0.0087599,0.013837,0.018123,0.017553,0.012422,0.0099051,0.0092817,0.010521,0.0040284,-0.0063515,-0.0084416,-0.0031203,0.0011741,-0.0016012,-0.0025871,-0.002726,-0.003623,0.00091019,0.0097111,0.013971,0.01259,0.014039,0.014167,0.011649,0.014055,0.015329,0.011382,0.0059645,-0.0062595,-0.019107,-0.02395,-0.025083,-0.017017,-0.0052669,0.00097242,0.0029665,0.0013679,-0.0011525,0.0019773,0.013266,0.023731,0.025476,0.019142,0.0118,0.0059843,0.001644,0.00063951,0.0033371,0.0064388,0.003365,-0.00047044,-0.00036053,0.0007282,0.002905,0.0056457,0.012622,0.018187,0.014941,0.0093185,0.0028034,-0.001592,0.0019213,0.0076896,0.011309,0.010122,0.0090975,0.014041,0.019725,0.01744,0.011123,0.0064098,0.0018176,-0.0020338,-0.0021102,-0.0045208,-0.013297,-0.021417,-0.025792,-0.027074,-0.028604,-0.031349,-0.034311,-0.033019,-0.027898,-0.024237,-0.018395,-0.013189,-0.0071837,-0.0021714,0.0026808,0.011126,0.019838,0.026834,0.024297,0.013914,0.0077613,-0.0014621,-0.013935,-0.016867,-0.014035,-0.012549,-0.011008,-0.0065572,0.00014445,0.0049768,0.0089502,0.011977,0.013188,0.012706,0.012139,0.009169,-0.0024908,-0.013467,-0.016889,-0.019369,-0.025126,-0.023631,-0.012763,-0.0044489,0.0014075,0.005654,0.0067073,0.009498,0.012906,0.010929,0.0056312,0.0091333,0.012618,0.010184,0.008408,0.0079661,0.0055548,0.0021352,-0.0016426,0.00082176,0.010077,0.011881,0.0098411,0.010661,0.013227,0.017232,0.017289,0.007707,-0.0038382,-0.013474,-0.020142,-0.022473,-0.025389,-0.029307,-0.031366,-0.026267,-0.016054,0.00061082,0.017817,0.022669,0.022184,0.017495,0.011489,0.008589,0.0047617,-0.0075582,-0.026902,-0.035997,-0.028484,-0.01527,-0.0022503,0.006857,0.009456,0.0080691,0.00089952,-0.0012968,0.0065977,0.014473,0.016271,0.011725,-0.0028773,-0.020926,-0.024216,-0.022094,-0.020915,-0.016653,-0.0083595,-0.0032926,-0.0019232,0.0090992,0.021149,0.023059,0.021272,0.019172,0.021103,0.024548,0.023209,0.019089,0.012514,0.0044036,0.00022794,-0.00027799,-0.00071242,-0.0028783,-0.0014485,0.0027903,0.0015576,-0.0046555,-0.0079973,-0.0075684,-0.0069162,-0.0036631,0.0021192,-0.00015714,-0.0062905,-0.005138,-0.0019857,0.00080662,0.0030925,0.0020832,0.0023287,0.0025357,-0.0011292,-0.0050322,-0.014775,-0.021638,-0.017956,-0.020237,-0.026473,-0.020711,-0.0092154,-0.0022918,-0.0009733,0.0013949,0.011839,0.023521,0.02798,0.031555,0.03449,0.032364,0.025518,0.014521,0.0037751,-0.0031613,-0.007155,-0.011497,-0.015599,-0.015142,-0.011231,-0.0045445,0.0024825,0.0075757,0.0080607,0.0096793,0.0092549,0.0078697,0.010697,0.01071,0.0082255,0.001951,-0.0056169,-0.010818,-0.011375,-0.0046009,0.0046997,0.010557,0.011382,0.0086286,7.4897e-05,-0.011285,-0.015017,-0.0079499,-0.0019904,-0.0032815,-0.0077345,-0.0099597,-0.0057874,0.0011044,0.002769,0.00087293,0.0025676,0.0065571,0.006676,-0.0025737,-0.011162,-0.011037,-0.0077672,-0.0081986,-0.01246,-0.014139,-0.0086413,0.0011122,0.012255,0.017401,0.019099,0.019963,0.016701,0.015025,0.014594,0.013815,0.016371,0.018847,0.017395,0.014779,0.010239,0.0017374,-0.0046289,-0.0064583,-0.0083079,-0.011266,-0.008942,-0.0013852,0.00014817,-0.0044126,-0.007573,-0.0088209,-0.0066569,-0.0025721,0.001443,0.0054761,0.0086904,0.0096883,0.011476,0.013319,0.009685,0.00045734,-0.0082451,-0.01246,-0.010999,-0.007487,-0.0049821,-0.0067098,-0.012281,-0.015411,-0.017039,-0.02511,-0.033428,-0.031923,-0.028229,-0.019688,-0.0076967,0.0013706,0.013109,0.020881,0.020759,0.018709,0.012858,0.0040804,-0.00071169,-0.0035083,-0.0091036,-0.018758,-0.028309,-0.026906,-0.020702,-0.016007,-0.012755,-0.0084779,-0.0047462,-0.00024882,0.008702,0.016763,0.02567,0.034324,0.034234,0.026928,0.0201,0.016963,0.015801,0.012338,0.0058061,0.00066569,0.00045023,0.0016826,0.0010382,-0.00040414,0.00045413,-0.0010619,-0.0086506,-0.016185,-0.017613,-0.018097,-0.018228,-0.010806,-0.00045037,0.0050283,0.0028992,-0.00068452,-0.00097436,-0.001477,-0.0039141,-0.0093435,-0.015248,-0.013322,-0.0096576,-0.010306,-0.014015,-0.017825,-0.016873,-0.015338,-0.014883,-0.012555,-0.0052065,0.0043885,0.012162,0.016842,0.018993,0.020209,0.019474,0.015935,0.01192,0.012855,0.01615,0.017532,0.014102,0.0049327,-0.0010475,0.00069146,0.004434,0.0048373,-0.0019606,-0.013726,-0.023613,-0.027334,-0.024593,-0.022075,-0.018454,-0.013419,-0.010069,-0.0081466,-0.0040454,0.0022569,0.0064138,0.0074819,0.0023508,-0.0060669,-0.010005,-0.0055937,-0.0018721,-0.0014525,0.00033207,0.0011968,0.0015682,0.00033848,0.00075411,0.0059893,0.0091155,0.006191,3.8294e-05,-0.0059671,-0.010171,-0.010714,-0.0095675,-0.0021291,0.0062465,0.0089585,0.010688,0.012322,0.01697,0.019942,0.017693,0.017617,0.019294,0.019117,0.014982,0.011946,0.011338,0.0094412,0.0068217,0.0043495,0.0044344,0.0070864,0.0070097,0.0024434,-0.0014109,-0.0041409,-0.0054212,-0.010982,-0.021702,-0.025097,-0.020251,-0.015617,-0.015887,-0.01771,-0.014608,-0.0052243,0.0019548,0.0063061,0.010654,0.015003,0.023092,0.029435,0.025731,0.018639,0.013674,0.0098205,0.0049572,0.0018835,-0.0017364,0.00029521,0.010083,0.017261,0.017719,0.013447,0.0098247,0.010644,0.012477,0.011792,0.0068291,-0.0024949,-0.013192,-0.022573,-0.021933,-0.0093561,0.001235,0.0048257,0.0055484,0.0015766,-0.0028757,-0.0080737,-0.015201,-0.019163,-0.019647,-0.016193,-0.012632,-0.014605,-0.018653,-0.017825,-0.013251,-0.010442,-0.0073823,-0.0012713,0.0031697,0.004943,0.0039453,0.0039291,0.0079152,0.005877,-0.0024804,-0.011352,-0.01574,-0.011926,-0.0057406,0.00095927,0.0068866,0.0097636,0.013523,0.017264,0.016075,0.0094919,0.0057688,0.0018999,-0.007165,-0.018281,-0.028359,-0.028032,-0.018487,-0.0090005,-0.0028358,-0.00081513,0.0013031,0.005772,0.0096611,0.012575,0.010634,0.0011975,-0.011035,-0.02502,-0.034202,-0.03292,-0.024365,-0.0095384,0.0031089,0.0076095,0.011136,0.01182,0.010835,0.01201,0.015974,0.018134,0.016704,0.01579,0.016642,0.014983,0.0067607,-0.0026482,-0.0089279,-0.011842,-0.012932,-0.014245,-0.01399,-0.0083012,-0.0047673,-0.0070968,-0.0074392,-0.0065196,-0.0064702,-0.0045044,0.00086382,0.0094324,0.014488,0.0145,0.010388,0.0024738,-0.001174,0.00066758,0.0021747,0.0053029,0.015752,0.025137,0.023526,0.019325,0.021292,0.022878,0.020129,0.012049,0.0032261,0.0011514,3.4551e-05,-0.0077611,-0.019613,-0.023015,-0.016448,-0.0063258,0.0014603,0.005886,0.0080602,0.010309,0.0091763,0.0031141,0.00098265,0.0056371,0.0050575,-0.0027484,-0.0069495,-0.0062856,-0.003927,-0.0006605,0.0012995,0.005364,0.0099667,0.0091596,0.0058443,0.0048093,0.0096183,0.018222,0.018818,0.007827,-0.0047257,-0.01341,-0.014916,-0.012181,-0.010024,-0.0055684,-0.00040492,0.0043771,0.0066687,0.0071856,0.0056686,0.00073526,-0.0049041,-0.011315,-0.015571,-0.013881,-0.0032097,0.011192,0.019551,0.018304,0.012359,0.0059265,-0.003301,-0.0089739,-0.0087602,-0.011903,-0.017201,-0.021804,-0.026451,-0.025486,-0.016891,-0.0064905,0.0020547,0.0074894,0.008141,0.0043056,-0.00015339,-0.0061382,-0.011647,-0.012064,-0.01065,-0.0072331,-0.0032097,-0.0025085,-0.0045594,-0.0051099,-0.0009874,0.0029263,0.00050632,-0.0041972,-0.0024109,0.00054614,-0.00072012,-0.0029824,-0.0065026,-0.0092603,-0.010332,-0.015559,-0.022459,-0.023678,-0.017892,-0.010409,-0.0027245,0.0042318,0.0084459,0.012697,0.017181,0.018514,0.016111,0.0099786,0.0045294,0.0030817,0.00088881,-0.00046031,0.0011846,0.0013333,0.001679,0.0040103,0.0047443,0.0080737,0.011357,0.009184,0.0059928,0.0020289,-0.0028428,-0.0041922,-0.004257,-0.0048647,-0.0054799,-0.004676,-0.0006453,0.002732,0.0044988,0.0081537,0.014251,0.013894,0.0097225,0.0072261,0.0054922,0.005639,0.0049093,0.0024596,-0.0012256,-0.0039688,-0.0077123,-0.0099339,-0.0032399,0.004732,0.0063313,0.0046011,0.0054808,0.0095607,0.011499,0.0069137,-0.0015904,-0.00806,-0.005805,0.0023743,0.010096,0.015,0.013693,0.0062329,-0.0041507,-0.012372,-0.015537,-0.014567,-0.012758,-0.012159,-0.0094291,-0.0031786,0.0024529,0.0044997,0.0031101,0.00083819,-0.0019575,-0.0051075,-0.0076004,-0.0084114,-0.005261,-0.00097718,0.0048497,0.012533,0.015006,0.01019,0.0027123,-0.0058706,-0.0083304,-0.0030941,0.00023204,-0.0021719,-0.0077291,-0.0073767,-0.0015536,0.00078111,-0.0015426,-0.0063683,-0.0092369,-0.010086,-0.0099189,-0.0085101,-0.0062425,-0.001512,0.0037644,0.0045317,0.0016781,-0.00090751,0.00013636,0.0026786,0.0048135,0.0080395,0.0085982,0.0063517,0.004191,-0.0011455,-0.0052203,-0.003849,0.0014399,0.008603,0.016018,0.022157,0.023538,0.024132,0.023114,0.020844,0.020488,0.016174,0.0055001,-0.0061012,-0.0088425,0.001681,0.013607,0.017395,0.017849,0.014842,0.0095978,0.0043776,-0.0011462,-0.0045299,-0.0039813,-0.007178,-0.017263,-0.023229,-0.020554,-0.013536,-0.0036106,0.0081727,0.011342,0.0029406,-0.0096636,-0.018399,-0.020486,-0.017835,-0.012573,-0.008466,-0.0049724,-0.0055124,-0.014285,-0.021803,-0.022867,-0.021007,-0.012699,-0.0057991,-0.0016752,0.003319,0.0079979,0.012265,0.011062,0.0064279,0.0048472,0.0056044,0.0063408,0.0021299,-0.0056118,-0.011871,-0.017908,-0.021656,-0.017971,-0.010354,-0.00011405,0.0082656,0.01914,0.031036,0.02962,0.019355,0.0092786,0.0078345,0.011059,0.01171,0.0075051,-0.00099382,-0.0077971,-0.0071784,-0.0075437,-0.01454,-0.020432,-0.018986,-0.0070969,0.0036782,0.0052196,0.0016009,0.00087754,0.0024798,0.0024971,0.0051718,0.0065954,0.0044892,0.0027389,0.004385,0.0069423,0.0090373,0.01368,0.013115,0.0084645,0.011359,0.018592,0.020833,0.018474,0.015684,0.01598,0.014273,0.010856,0.011866,0.015719,0.018883,0.016553,0.0073781,-0.0034561,-0.011465,-0.018098,-0.022174,-0.022154,-0.018699,-0.013791,-0.0106,-0.012106,-0.019137,-0.024681,-0.027319,-0.030811,-0.032229,-0.031323,-0.02805,-0.022411,-0.017136,-0.013849,-0.0083107,-0.00012527,0.0098522,0.016584,0.01864,0.019938,0.01822,0.015406,0.013169,0.01297,0.01043,0.010228,0.017048,0.019246,0.014275,0.011044,0.012981,0.01079,0.0015932,-0.011093,-0.024493,-0.034718,-0.038885,-0.032603,-0.021465,-0.01731,-0.013191,-0.0050552,-0.0019512,-0.0015447,-0.00049257,-0.0035941,-0.0073916,-0.010799,-0.013728,-0.013447,-0.016223,-0.016606,-0.010048,-0.004071,0.0017616,0.010437,0.016029,0.0097811,0.0031738,0.0072998,0.012002,0.010397,0.0068608,3.8392e-05,-0.009368,-0.019114,-0.023531,-0.020702,-0.021927,-0.019402,-0.014569,-0.012425,-0.0059791,-0.0023341,-0.0071456,-0.01291,-0.01573,-0.013865,-0.013283,-0.013051,-0.0024513,0.012379,0.024614,0.02882,0.030637,0.036532,0.040118,0.037843,0.032971,0.027636,0.018221,0.0069163,-0.0026673,-0.010059,-0.010829,-0.0089516,-0.01021,-0.0094604,-0.0033265,0.00030717,-0.00039119,0.0010955,0.00090052,-0.003998,-0.012175,-0.014496,-0.01258,-0.013254,-0.008663,-0.002244,0.0050605,0.010813,0.014389,0.018564,0.020261,0.022761,0.02322,0.016,0.0043783,-0.003027,-0.001067,0.0040349,0.002616,-0.0044262,-0.012669,-0.022578,-0.028027,-0.021876,-0.0071083,0.0040332,0.012351,0.01821,0.019687,0.021326,0.02041,0.015545,0.0098506,0.0019521,-0.0046333,-0.0076236,-0.0060332,0.0035959,0.013142,0.019173,0.026028,0.031271,0.029116,0.025084,0.020454,0.01144,0.0024053,-0.0035167,-0.0055449,-0.00466,-0.0022012,0.0017466,0.0051955,0.003712,-0.00055914,0.00012583,0.0018379,-0.0013279,-0.0077801,-0.015166,-0.017824,-0.013733,-0.0082792,-0.0029057,-0.0014984,-0.0068273,-0.012317,-0.0099204,0.0022815,0.012075,0.0091083,0.0017344,-0.0041541,-0.0097456,-0.01375,-0.01707,-0.017009,-0.015819,-0.019969,-0.025212,-0.030296,-0.034323,-0.033123,-0.027447,-0.01879,-0.0055773,0.0082827,0.014159,0.012858,0.014015,0.017378,0.01406,0.0098333,0.0076767,0.0046524,-0.00077756,-0.0089717,-0.010947,-0.0060913,0.0031068,0.0090064,0.0048678,-0.0061369,-0.015639,-0.012335,-0.0062714,-0.0082916,-0.013588,-0.017016,-0.020737,-0.021903,-0.017655,-0.013881,-0.0082015,-5.5321e-05,0.010449,0.018062,0.016757,0.0088112,0.0024257,0.0082576,0.017402,0.017823,0.008485,0.0011078,-0.0015603,-0.0089273,-0.015719,-0.019823,-0.022311,-0.01757,-0.0079751,2.3451e-05,-0.00019035,-0.0041529,-0.005796,-0.0049261,-0.0052568,-0.0059348,-0.0014043,0.0040676,0.0085971,0.012751,0.0189,0.024196,0.027791,0.035898,0.040446,0.034418,0.025684,0.023021,0.021702,0.019619,0.018701,0.014072,0.006046,0.0032152,0.0056667,0.0057304,0.0060644,0.006674,0.0065066,0.0056958,0.0010602,0.0044333,0.012446,0.01265,0.010619,0.0098775,0.0074222,0.00012149,-0.0088014,-0.015527,-0.021904,-0.028227,-0.029887,-0.02854,-0.026782,-0.019669,-0.011234,-0.010566,-0.011077,-0.0074091,-0.006346,-0.0062388,-0.0023509,0.0033345,0.0047371,0.0014143,-0.0019517,-0.0036079,-0.0082924,-0.015645,-0.015096,-0.011589,-0.011057,-0.009123,-0.0072382,-0.0059533,-0.0038052,-0.0013474,0.0022014,0.0060951,0.011383,0.01633,0.014139,0.0040868,-0.0032978,-0.0024357,0.00087271,0.002265,0.00053863,-0.0032987,-0.0076842,-0.0073467,-0.0010817,0.0040815,0.008952,0.018153,0.027901,0.027802,0.017087,0.0080216,0.0057785,0.0015377,-0.0019427,-0.0067485,-0.012848,-0.01518,-0.01328,-0.0048221,0.0021957,0.0049189,0.0030278,-0.0005625,-0.00029241,0.0054498,0.015282,0.01862,0.014328,0.0073759,0.0041114,0.0071901,0.0068663,0.00031144,-0.0086299,-0.016868,-0.023801,-0.031461,-0.037763,-0.038345,-0.03334,-0.030735,-0.029567,-0.018606,0.001266,0.020878,0.034541,0.037194,0.029984,0.01986,0.0045836,-0.014739,-0.028379,-0.033517,-0.029331,-0.017531,-0.0085361,-0.006278,-0.0040747,0.0007859,0.0073594,0.0082206,0.0017596,-0.005331,-0.013065,-0.022634,-0.027956,-0.031596,-0.03332,-0.029346,-0.026165,-0.020722,-0.0062429,0.01053,0.032019,0.053015,0.057469,0.054339,0.048182,0.035118,0.018862,0.0047016,-0.0064276,-0.016014,-0.018664,-0.016202,-0.014274,-0.0080974,8.2932e-05,0.0060286,0.011892,0.016251,0.020934,0.025836,0.024022,0.020291,0.015417,0.0058184,-0.0021802,-0.0092661,-0.017012,-0.025854,-0.030487,-0.033665,-0.035226,-0.033398,-0.029616,-0.021699,-0.018853,-0.015435,-0.0044255,0.0054766,0.010564,0.0062141,-0.0030443,-0.0088291,-0.0085098,0.0031261,0.016146,0.021595,0.02184,0.015973,0.0067294,0.0001191,0.0028398,0.014156,0.022029,0.019949,0.0078252,-0.011135,-0.025884,-0.029401,-0.027476,-0.028893,-0.031893,-0.032356,-0.032665,-0.027058,-0.020041,-0.014289,-0.0065051,0.0009127,0.0085424,0.012257,0.013336,0.021596,0.033492,0.034955,0.033018,0.031135,0.027258,0.018683,0.012678,0.016236,0.018246,0.016369,0.010306,0.0011936,-0.0046204,-0.0035645,0.0023682,0.0078315,0.01612,0.023213,0.025024,0.019724,0.010432,0.0094416,0.010478,-0.00030013,-0.014332,-0.019943,-0.025348,-0.02572,-0.016377,-0.010338,-0.005219,0.0027222,0.015047,0.028636,0.034165,0.035487,0.035587,0.030411,0.020739,0.010233,0.0027879,-0.0022822,-0.0076904,-0.0078038,-0.01083,-0.020941,-0.023401,-0.017917,-0.010016,-0.0059757,-0.0043331,0.0036519,0.0078212,0.0035084,-0.0019624,-0.0080177,-0.012569,-0.0093751,-0.0079249,-0.012625,-0.013967,-0.0094447,-0.0035615,0.0036349,0.013253,0.02167,0.030794,0.033466,0.030185,0.028701,0.025456,0.027514,0.031568,0.030463,0.025362,0.017219,0.0071591,-0.0040493,-0.0092038,-0.0099844,-0.010092,-0.0084501,-0.0065394,0.0027583,0.013085,0.0082676,-0.0029276,-0.013988,-0.025354,-0.035311,-0.047959,-0.055669,-0.056699,-0.051549,-0.037264,-0.022174,-0.0087678,0.0029593,0.0039626,-0.0010347,-0.0057508,-0.009711,-0.0064329,0.0021596,0.0085877,0.0093245,0.00748,0.0044333,-0.00069339,0.0009025,0.0093179,0.015483,0.017155,0.012005,0.0066824,0.0086052,0.012818,0.015601,0.016063,0.016008,0.013664,0.0058703,-0.0072841,-0.02038,-0.030341,-0.035108,-0.031312,-0.026773,-0.025173,-0.025945,-0.02612,-0.020358,-0.013502,-0.011008,-0.010033,-0.0050449,-0.00061303,0.0013722,0.0058152,0.0070833,0.0043772,0.0056578,0.010108,0.012313,0.013677,0.014803,0.01352,0.0093098,0.0054303,0.0073399,0.0082179,0.0056447,0.0044166,0.005665,0.0098551,0.014228,0.01488,0.013371,0.0056175,-0.010538,-0.024222,-0.029709,-0.026744,-0.019333,-0.015709,-0.017785,-0.019237,-0.013412,0.0016599,0.017273,0.026718,0.029361,0.029461,0.031603,0.030944,0.022705,0.016627,0.014834,0.010896,0.0035573,0.0027893,0.0067277,0.0031602,-0.0014782,-0.0033412,-0.0020625,0.004097,0.017273,0.032895,0.039286,0.030439,0.011919,-0.0065585,-0.017454,-0.021265,-0.023654,-0.024081,-0.020287,-0.0057546,0.0076874,0.0071507,-0.0019439,-0.005731,0.00087771,0.0030446,0.00082125,0.0041577,0.010057,0.013113,0.017667,0.024351,0.023113,0.022781,0.027095,0.024214,0.014638,0.004913,-0.0021274,-0.0013626,-0.0033112,-0.010377,-0.013263,-0.012381,-0.0072445,-0.0038754,-0.0056782,-0.0097443,-0.016356,-0.02547,-0.032772,-0.032631,-0.020322,-0.006428,-0.00035683,0.003198,-0.0017333,-0.01452,-0.021903,-0.022753,-0.020121,-0.011522,-0.0069408,-0.0072986,-0.0044789,0.0010693,0.0055573,0.0016393,0.00013356,0.008386,0.021334,0.029072,0.025061,0.018038,0.014711,0.010119,-0.0016383,-0.009778,-0.014131,-0.021715,-0.025713,-0.021241,-0.014296,-0.0073336,-0.004213,-0.0059516,-0.0063632,-0.0092481,-0.0099061,-0.0061471,-0.0066565,-0.0056334,-0.0012238,-0.00020526,0.00097044,0.0029446,0.0033007,0.0072946,0.0086504,0.005403,0.003562,0.0011691,0.0012026,0.0023603,-0.00055101,-0.0096653,-0.017245,-0.016295,-0.012715,-0.011244,-0.011629,-0.0098408,-0.0069878,-0.00079102,0.0046318,0.0038681,0.00048115,-0.0057987,-0.014863,-0.01915,-0.018732,-0.016653,-0.0090946,-0.0041941,-0.0063453,-0.0089178,-0.0096534,-0.0052999,0.0022042,0.0096942,0.010305,0.0051866,-0.0008089,-0.0060183,-0.0084369,-0.0084629,-0.0022831,0.0080521,0.0155,0.020597,0.025515,0.027029,0.021087,0.014283,0.012061,0.010982,0.013109,0.015598,0.0093965,-0.002671,-0.013532,-0.020599,-0.024361,-0.025721,-0.024327,-0.01965,-0.010393,0.0091589,0.025212,0.029722,0.032769,0.03047,0.024283,0.018888,0.014633,0.012335,0.0050776,-0.013593,-0.029548,-0.02871,-0.017945,-0.010332,-0.0045858,0.0052478,0.011101,0.013554,0.019624,0.025381,0.028604,0.025833,0.016732,0.0084959,0.001643,-0.0024606,0.002853,0.015563,0.021054,0.013688,-0.0018359,-0.0067501,0.0026627,0.015103,0.027804,0.034136,0.029481,0.012257,-0.0046733,-0.012462,-0.01538,-0.014501,-0.013861,-0.019258,-0.02797,-0.031046,-0.020764,0.0016868,0.025318,0.036191,0.032037,0.016407,0.0012286,-0.0016247,-0.0018894,-0.0054211,-0.0068719,-0.0017625,0.00092247,-0.0023016,-0.0041434,-0.00088478,0.0040646,0.0064612,0.007559,0.0061973,0.0058936,0.010663,0.015515,0.014484,0.005026,-0.0029053,-0.0061393,-0.011716,-0.01675,-0.01708,-0.01313,-0.007845,-0.011864,-0.021794,-0.023331,-0.017885,-0.012711,-0.0037081,0.0044679,0.0028693,-0.004185,-0.010467,-0.020077,-0.031145,-0.032291,-0.029815,-0.033591,-0.035679,-0.026944,-0.017482,-0.01072,-0.0040056,-0.0010476,0.0014276,0.0059165,0.015313,0.02725,0.035666,0.039992,0.037558,0.022156,-0.0028503,-0.024578,-0.037325,-0.036138,-0.026189,-0.018469,-0.010898,-0.005597,-0.0039504,-0.0032886,-0.00015031,0.0027252,0.0017992,0.0022361,-0.00016106,-0.0015135,0.0025942,0.0020809,-0.00099383,-0.0053569,-0.008872,-0.010874,-0.014926,-0.013119,-0.0002971,0.0091867,0.011377,0.0095738,0.0024493,-0.0020657,-0.002859,0.0014016,0.01135,0.015426,0.013631,0.011901,0.011332,0.01535,0.015873,0.011157,0.0060428,0.0034604,0.0014185,-0.0019925,-0.0052725,-0.00012262,0.010793,0.015113,0.013907,0.012272,0.013666,0.012887,0.0048513,-0.0093267,-0.020568,-0.022475,-0.017722,-0.0055092,0.010253,0.019347,0.018264,0.013057,0.016723,0.024405,0.024934,0.017481,0.0072425,0.0020119,3.6344e-05,-0.0027247,-0.0037963,-0.0025985,-0.0019553,0.00016313,0.0047663,0.013293,0.020444,0.020886,0.013047,0.0051498,0.0050255,0.0036356,0.00093555,-0.0029409,-0.0079412,-0.007534,-0.0042195,0.0011143,0.0083886,0.008576,0.0059385,0.0053908,0.0055477,0.0051792,0.0041799,0.0016471,0.00036712,-0.0010124,-0.0039681,-0.011424,-0.017682,-0.015087,-0.0085155,-0.0032207,-0.0018277,-0.0028902,-0.0020854,-0.00028336,-0.0024741,-0.0051663,-0.0044212,-0.0034679,-0.0037876,0.0010609,0.0058668,0.0023874,9.4955e-05,-0.00030504,-0.0040794,-0.0079445,-0.011538,-0.016395,-0.02071,-0.020204,-0.018585,-0.019323,-0.018719,-0.014085,-0.0077121,-0.003612,-0.00052675,0.0017762,0.0037169,0.0077351,0.0090113,0.0013129,-0.012015,-0.021441,-0.023907,-0.020776,-0.016603,-0.0090931,0.0013183,0.010066,0.01537,0.014612,0.0091151,0.0036321,0.0024991,-0.00091252,-0.0057845,-0.0065087,-0.0073896,-0.011649,-0.013401,-0.011094,-0.0070501,8.5246e-05,0.0052758,0.0045473,-0.0027841,-0.01074,-0.01526,-0.019808,-0.020931,-0.020061,-0.017915,-0.013013,-0.0071189,-0.0029989,-0.0018902,-0.0044333,-0.0080554,-0.0090679,-0.0070591,-0.0058039,-0.0068626,-0.0090357,-0.010374,-0.0081884,-0.0044532,-0.0034764,-0.0074781,-0.010053,-0.0076827,0.00013191,0.012876,0.024368,0.030435,0.028607,0.022795,0.015706,0.0066649,0.0011264,0.0022864,0.0059506,0.0099952,0.012853,0.012292,0.0097538,0.0083151,0.012628,0.018446,0.020576,0.022409,0.018822,0.0071066,-0.0061552,-0.010239,-0.0031871,0.0073259,0.01439,0.016816,0.019033,0.021826,0.027462,0.029213,0.021552,0.013253,0.010638,0.0089641,0.0099031,0.01533,0.015126,0.0085348,0.0052495,0.0054268,0.0099066,0.019075,0.021946,0.018108,0.012258,0.0085784,0.0037154,-0.005351,-0.0106,-0.0074081,-0.00050692,0.0050708,0.0059475,0.0062249,0.011622,0.013644,0.011599,0.013958,0.019604,0.025639,0.026171,0.021465,0.021412,0.019747,0.012728,0.0048698,-0.0014196,6.4281e-05,0.0017101,-0.0038978,-0.013267,-0.022918,-0.031015,-0.039013,-0.040445,-0.036587,-0.030035,-0.017838,-0.0063307,-0.0012115,-0.0021402,-0.0093155,-0.018913,-0.019666,-0.015514,-0.01316,-0.01011,-0.0066865,9.8019e-05,0.0042518,-0.00058763,-0.0051038,-0.0063005,-0.011078,-0.018237,-0.024265,-0.024379,-0.016429,-0.010938,-0.0078222,-0.0010917,0.0013866,-0.0025258,-0.0087977,-0.012691,-0.010393,-0.0052573,-0.0013504,-0.001985,-0.0032311,-0.0023692,0.0016438,0.0039805,-0.0014817,-0.012667,-0.020208,-0.020826,-0.020712,-0.019946,-0.012833,-0.00052189,0.0092,0.011048,0.007766,0.0040639,0.0031459,0.0012463,0.0034224,0.0078137,0.0052638,0.00080582,-0.00021963,-0.0034005,-0.010268,-0.013972,-0.020731,-0.027382,-0.02848,-0.027402,-0.024157,-0.020434,-0.014876,-0.0080861,-0.0019024,0.0043437,0.01287,0.022126,0.02771,0.0249,0.020236,0.017523,0.013691,0.0094718,-0.0010265,-0.0099942,-0.0094971,-0.0086342,-0.0097728,-0.0080679,-0.0044317,-0.00107,0.0024168,0.005571,0.0089625,0.015453,0.021544,0.019865,0.01677,0.015863,0.014375,0.014069,0.013508,0.011542,0.010288,0.0090442,0.0036918,-0.0025086,-0.0059529,-0.0020321,0.0040247,0.0047012,0.0058909,0.0090746,0.010484,0.010985,0.01187,0.01023,0.010976,0.012727,0.014496,0.018064,0.022049,0.025918,0.029029,0.02866,0.022008,0.013167,0.00093654,-0.011259,-0.014371,-0.0084202,0.00010162,0.0054558,0.0079686,0.010241,0.012087,0.011187,0.01087,0.010819,0.0095659,0.0073611,0.003935,0.0022298,0.0034369,0.0073808,0.013567,0.015677,0.0095733,0.0010451,-0.0037555,-0.0093763,-0.015171,-0.014343,-0.010546,-0.0097983,-0.012358,-0.012893,-0.014844,-0.018954,-0.017603,-0.014627,-0.011384,-0.0035414,0.0041348,0.0092346,0.013734,0.014289,0.01327,0.012952,0.011622,0.0051631,-0.0023766,-0.0064575,-0.011417,-0.015589,-0.017437,-0.015234,-0.013263,-0.016544,-0.019115,-0.020657,-0.021096,-0.021074,-0.021354,-0.021405,-0.021538,-0.017827,-0.0066756,0.0058454,0.013102,0.01545,0.017545,0.019469,0.016942,0.012053,0.0072257,0.0020728,-0.004229,-0.012915,-0.01936,-0.024386,-0.02601,-0.022882,-0.019296,-0.018273,-0.017745,-0.0097927,0.0017403,0.012157,0.016099,0.006275,-0.0066359,-0.010914,-0.0083564,-0.0072828,-0.0096325,-0.011106,-0.0071749,-0.0039869,-0.0064582,-0.0078317,-0.0024229,0.010244,0.018051,0.016514,0.011924,0.013045,0.021722,0.028037,0.025503,0.015523,0.0069578,0.0019856,-8.6196e-05,-0.0011687,-0.0056018,-0.011178,-0.01557,-0.015137,-0.011226,-0.0047953,0.002008,0.0037333,0.0043338,0.003629,0.00056798,-0.0036287,-0.0089447,-0.01169,-0.011666,-0.010031,-0.0016989,0.013614,0.025536,0.027474,0.023925,0.023023,0.0255,0.026493,0.023464,0.019002,0.012758,0.0014836,-0.010901,-0.020105,-0.026611,-0.024387,-0.015406,-0.0094636,-0.00094239,0.0095554,0.015272,0.016247,0.01532,0.013897,0.010578,0.0066711,0.0036764,0.003341,0.0053777,0.0059457,0.003488,0.0011631,-0.0010431,-0.00052585,0.008557,0.01653,0.015758,0.010727,0.0045089,-0.0043022,-0.012934,-0.015414,-0.01619,-0.016751,-0.014988,-0.012531,-0.008217,-0.0014955,0.0094094,0.019576,0.022015,0.01723,0.011078,0.0051753,-0.0025602,-0.0089751,-0.014276,-0.016171,-0.012912,-0.0093587,-0.0057267,-0.0032037,-0.0001101,0.0016886,0.00099817,-0.0025841,-0.011221,-0.021907,-0.027126,-0.022708,-0.019242,-0.020277,-0.020403,-0.020061,-0.020715,-0.017346,-0.010467,-0.0047405,0.00091867,0.0045033,0.0053991,0.008519,0.0132,0.017702,0.020493,0.016269,0.0076838,-0.00056721,-0.004482,-0.0072495,-0.0092555,-0.0090283,-0.011291,-0.014303,-0.016212,-0.019851,-0.023074,-0.019258,-0.0099105,0.0013945,0.0098859,0.0092645,0.0035329,-0.0012045,-0.0014566,-0.0034153,-0.0077171,-0.0082284,-0.0061829,-0.0038981,-0.0014509,0.0042156,0.013177,0.01406,0.0070349,0.007025,0.012062,0.012692,0.011039,0.0093323,0.0063703,0.00074208,-0.0039696,-0.005482,-0.00073456,0.0084917,0.014889,0.01736,0.017823,0.017453,0.015579,0.01107,0.0063423,0.0044839,0.002779,0.0037001,0.0087149,0.012774,0.012012,0.005398,-0.0023098,-0.010772,-0.016112,-0.012928,-0.0060713,-0.0010821,0.0039572,0.0089672,0.012587,0.018186,0.02511,0.030909,0.031738,0.024753,0.016407,0.010244,0.0046822,-0.005948,-0.018206,-0.025157,-0.024474,-0.016603,-0.0082204,-0.0030467,0.0047945,0.012536,0.017481,0.022646,0.025653,0.023505,0.018785,0.011469,-0.0018846,-0.01257,-0.014194,-0.0090239,-0.0010699,0.0046499,0.008107,0.011532,0.013163,0.013059,0.011537,0.0044983,-0.0060951,-0.013755,-0.013982,-0.011088,-0.012709,-0.015723,-0.016124,-0.014829,-0.012265,-0.010204,-0.012795,-0.014661,-0.012878,-0.012704,-0.013104,-0.011843,-0.010083,-0.008944,-0.0088502,-0.010369,-0.010587,-0.008593,-0.0086831,-0.0075674,-0.0031728,-0.00053952,0.00046383,-0.00011758,-0.0021166,-0.0046648,-0.0058415,-0.0098891,-0.014299,-0.018445,-0.025846,-0.035962,-0.041905,-0.037528,-0.024896,-0.0067171,0.0072057,0.014773,0.021512,0.022719,0.015464,0.0093337,0.0065755,0.00091049,-0.006103,-0.016764,-0.025189,-0.021994,-0.014213,-0.01021,-0.0096491,-0.0086596,-0.0046769,0.0015136,0.0076636,0.0086336,0.0042011,-0.001666,-0.0067287,-0.0084218,-0.009499,-0.010801,-0.004448,0.0064839,0.0095564,0.0081502,0.0033388,-0.0062521,-0.012467,-0.014886,-0.013886,-0.014533,-0.018139,-0.023206,-0.023723,-0.016434,-0.0033552,0.015001,0.038589,0.059047,0.070111,0.070389,0.055754,0.034814,0.020314,0.013722,0.011276,0.00395,-0.0051539,-0.0025122,0.0096362,0.021611,0.02558,0.024472,0.026451,0.021228,0.0099066,0.0052515,0.0047853,0.0035742,0.00074708,-0.0013929,-0.0063016,-0.012695,-0.010523,-0.00038037,0.0076746,0.010678,0.011411,0.0093559,0.0079399,0.0075139,0.0085273,0.0088755,0.008482,0.010271,0.00752,0.0011164,-0.0038462,-0.0040007,-0.0026922,-0.0032405,-0.0010217,0.0061645,0.0092451,0.0031147,-0.0051092,-0.0089182,-0.0086492,-0.0064592,-0.0066093,-0.009527,-0.013485,-0.014757,-0.011442,-0.0052273,0.0018885,0.0044425,0.0062185,0.013507,0.022328,0.025549,0.020069,0.011138,0.0047123,0.0015742,0.0016108,-0.00025513,-0.0029648,-0.0046276,-0.0068223,-0.010128,-0.012935,-0.014312,-0.010805,-0.0043996,-0.0001302,0.0020511,0.0011528,-0.0030504,-0.0099121,-0.014658,-0.015013,-0.01554,-0.01323,-0.0057096,-0.0013513,-0.0019605,-2.2652e-05,0.0016739,0.0042172,0.003963,-0.0042654,-0.014062,-0.024898,-0.033643,-0.034269,-0.033097,-0.031707,-0.026816,-0.01954,-0.011875,-0.0061951,-0.0026257,-0.0001533,-0.0015203,-0.0056526,-0.0068176,-0.0052946,-0.0063283,-0.010095,-0.011492,-0.0081173,-0.0026643,-0.00075597,-0.0059199,-0.0076228,0.002033,0.017513,0.026787,0.028416,0.028712,0.028511,0.023641,0.014518,0.0078091,0.0075899,0.0077695,0.0088806,0.011977,0.0090918,0.0033964,0.0043958,0.0073284,0.0029042,-0.0040487,-0.0067926,-0.00641,-0.0064343,-0.011911,-0.018808,-0.022117,-0.02107,-0.016655,-0.011461,-0.0064138,-0.00049385,0.0080983,0.015411,0.0173,0.011418,0.0039692,0.0059621,0.012369,0.01325,0.011917,0.010458,0.00654,0.0044797,0.0059784,0.0070131,0.0066589,0.0080179,0.0080844,0.0036757,-0.001777,-0.0052224,-0.0087248,-0.011173,-0.010404,-0.0065654,-0.0021414,0.0015922,0.0052076,0.0094472,0.013339,0.014519,0.015196,0.013657,0.0068635,0.0030618,0.0028239,-0.00011284,-0.00070126,0.0039379,0.0068639,0.0069235,0.010305,0.020155,0.027442,0.023574,0.016925,0.01336,0.011576,0.0082854,0.0033025,-0.0015504,-0.0073937,-0.011221,-0.011229,-0.0072005,-0.0023101,0.0012707,0.0052183,0.0057717,0.0019909,-0.0012434,-0.0018616,0.0018434,0.004083,-0.0007005,-0.0072622,-0.010781,-0.011733,-0.011358,-0.011562,-0.011624,-0.010086,-0.0081988,-0.0089484,-0.011117,-0.010206,-0.01019,-0.010935,-0.0063427,-0.0034037,-0.002076,0.001193,0.00011255,-0.0030627,-0.0021614,-0.0020981,-0.0031079,-0.0025691,-0.0046337,-0.011148,-0.018857,-0.026667,-0.029759,-0.023926,-0.016257,-0.0076192,0.0020312,0.0067428,0.0066918,0.0056645,0.0018796,-0.0049184,-0.0073622,-0.0023409,0.003641,0.0065618,0.0095943,0.011229,0.0059527,-0.002728,-0.0076098,-0.0074976,-0.0055903,-0.0037157,-0.00085968,0.0052079,0.0079723,0.0078545,0.0090898,0.0088676,0.0093195,0.011625,0.013355,0.0088944,0.0035575,0.0041619,0.0046051,0.0035232,0.0017543,0.00048387,-0.0023408,-0.011352,-0.019533,-0.021837,-0.020357,-0.015986,-0.013196,-0.015757,-0.019853,-0.023021,-0.02537,-0.027457,-0.030813,-0.030771,-0.02664,-0.019239,-0.010761,-0.0012179,0.011596,0.024429,0.03028,0.027177,0.021133,0.015863,0.010555,0.0032229,-0.0028143,-0.0038827,-0.0021411,-0.0014646,-0.001924,-0.0023821,-0.0022978,0.0043922,0.013005,0.011436,0.0041772,-0.0031941,-0.0075194,-0.0070186,-0.00084417,0.0074563,0.01418,0.020659,0.019825,0.012642,0.0096763,0.012685,0.018675,0.027991,0.035301,0.035911,0.031503,0.025503,0.018716,0.010508,0.0050341,0.0039595,0.0046323,0.0027712,-0.0027799,-0.0091943,-0.0088247,-0.0036868,6.0593e-05,0.0029618,0.0038964,7.5494e-05,-0.0040573,-0.0062355,-0.0068911,-0.0064591,-0.0076838,-0.0092569,-0.0089222,-0.0033089,0.00045411,-0.0015025,-0.0043733,-0.0040701,0.0010428,0.0037046,-0.00055105,-0.0041416,-0.0023651,-0.0023542,-0.001909,0.0012343,0.0038945,0.0036086,-0.00055077,-0.0018704,-0.001812,-0.0011321,0.0059138,0.014204,0.016321,0.0095731,-0.0017721,-0.0092097,-0.010438,-0.0096818,-0.011036,-0.013637,-0.0086271,0.0011726,0.010033,0.01596,0.013436,0.011861,0.011718,0.007105,0.004048,0.00085767,-0.0015731,-0.0030427,-0.0083348,-0.014106,-0.011388,-0.0036887,0.00011388,0.0022861,0.0072742,0.012197,0.011993,0.012323,0.014489,0.015442,0.013802,0.0067305,-0.0010706,-0.0073741,-0.011272,-0.013505,-0.01562,-0.010691,0.0004747,0.013996,0.023627,0.023096,0.020629,0.021548,0.01175,-0.0043849,-0.01613,-0.024986,-0.027336,-0.023165,-0.018835,-0.018572,-0.019354,-0.014949,-0.0063594,0.00025351,0.0017105,0.00099343,-0.0025802,-0.01014,-0.011558,-0.011452,-0.013896,-0.013376,-0.010617,-0.0060826,-0.004917,-0.0066413,0.0055538,0.022527,0.019363,0.0032037,-0.0058396,-0.0060441,-0.0092943,-0.015031,-0.018769,-0.019103,-0.017743,-0.019422,-0.019403,-0.013183,-0.0042996,0.0016052,0.0053844,0.0053913,0.00015666,-0.0064892,-0.0093451,-0.010907,-0.01416,-0.011786,-0.0079754,-0.0033957,0.0034218,0.0066123,0.01062,0.014996,0.018149,0.018869,0.013978,0.0086906,0.011583,0.017551,0.017528,0.0090239,-0.0024985,-0.0075336,-0.009258,-0.01299,-0.017426,-0.017747,-0.011412,0.00092313,0.013382,0.023524,0.030246,0.027242,0.018025,0.010908,0.0074978,0.0047701,0.0043778,0.0050407,0.0068826,0.011111,0.013414,0.016073,0.021722,0.024142,0.018347,0.0064354,-0.0078576,-0.016546,-0.018139,-0.021566,-0.026638,-0.031066,-0.033944,-0.036081,-0.034908,-0.026983,-0.018078,-0.011126,-0.0093054,-0.011138,-0.010797,-0.0090309,-0.0077139,-0.0056557,-0.0026116,0.0037512,0.0088189,0.0075724,0.005035,0.0032797,0.0045144,0.0080316,0.0098867,0.0086994,0.0067944,0.0054978,0.0027507,0.00094718,0.0026602,0.0048198,0.0059761,0.0078989,0.0086706,0.005217,0.0025046,0.0034923,0.0051149,0.0039148,-0.0013468,-0.0043689,-0.0029235,-0.0010021,-0.00052358,-8.5288e-05,-0.0033154,-0.0080585,-0.011891,-0.013598,-0.0084605,-0.0029211,-0.0023873,-0.0062857,-0.01373,-0.02203,-0.025732,-0.020514,-0.0099249,-0.004287,-0.0016025,0.0042687,0.011197,0.015672,0.014697,0.0091917,0.0014987,-0.0066507,-0.013018,-0.013395,-0.01095,-0.0080591,-0.0049023,-0.0023518,0.0033285,0.0083413,0.011877,0.016574,0.015372,0.011059,0.012325,0.015469,0.01872,0.025326,0.032865,0.033005,0.028089,0.024152,0.019181,0.012202,-0.0022622,-0.021003,-0.035695,-0.041684,-0.037959,-0.028613,-0.014652,6.7665e-05,0.010951,0.016122,0.019722,0.023905,0.022319,0.018353,0.015775,0.013687,0.0086167,0.0039347,0.0054696,0.010722,0.015691,0.019911,0.023892,0.026443,0.025423,0.018877,0.011386,0.005298,-0.0017169,-0.007179,-0.011866,-0.017293,-0.018598,-0.014482,-0.0097762,-0.0044856,-0.0016438,-0.0028849,-0.00055025,0.0089957,0.01722,0.017354,0.01575,0.015214,0.013436,0.0084407,0.0027543,0.00077188,-0.0017328,-0.0089246,-0.011681,-0.0045044,0.0019932,0.0037434,0.0047455,0.005484,0.0017324,-0.0071376,-0.01529,-0.018748,-0.018017,-0.016931,-0.018064,-0.017092,-0.011735,-0.0029072,0.0058241,0.0094931,0.010305,0.0072178,-0.0011311,-0.011159,-0.022037,-0.026748,-0.024315,-0.024667,-0.022913,-0.018302,-0.015986,-0.013921,-0.011566,-0.0073347,-0.00015839,0.00557,0.0078169,0.0075859,0.0043937,-0.0032396,-0.017045,-0.026505,-0.02397,-0.017242,-0.014423,-0.014032,-0.0067619,0.0056793,0.0087787,0.0039812,0.00393,0.004382,-0.0014858,-0.012161,-0.020685,-0.012557,0.00069075,0.010378,0.015735,0.017615,0.017759,0.012815,0.0064905,0.0046637,0.0087127,0.011368,0.0080302,0.00077287,-0.00074956,-0.0040433,-0.011471,-0.015548,-0.019052,-0.020414,-0.024146,-0.026869,-0.017807,-0.0045418,0.0064075,0.010977,0.013153,0.017144,0.021756,0.025638,0.024489,0.022059,0.019392,0.018449,0.018283,0.020467,0.026423,0.028361,0.02337,0.01876,0.015416,0.010976,0.004132,-0.001381,-0.0047679,-0.009189,-0.01359,-0.015136,-0.013699,-0.01221,-0.015358,-0.017279,-0.014165,-0.0094053,-0.0046044,-0.0022761,0.00030381,0.00011348,-0.0039108,-0.0053295,-0.006168,-0.0054827,-0.00086953,0.002047,0.0017437,0.0044327,0.0076766,0.0085417,0.0052859,0.0011173,0.0027378,0.0049531,0.0037705,-0.00017411,-0.0048105,-0.008527,-0.010108,-0.0085984,-0.0063578,-0.0019224,0.0025827,0.0056597,0.0075087,0.0069502,0.010309,0.012985,0.0066274,-0.0026698,-0.012716,-0.022134,-0.026783,-0.028821,-0.027714,-0.024721,-0.021005,-0.012016,0.0010326,0.015346,0.025579,0.02955,0.027061,0.021151,0.012005,0.0026771,-0.003581,-0.011751,-0.017654,-0.017405,-0.014972,-0.011547,-0.0096236,-0.0099494,-0.0084444,-0.0078956,-0.013183,-0.022952,-0.028292,-0.025639,-0.01744,-0.0071189,0.0060311,0.017961,0.025288,0.028201,0.021899,0.011247,0.0091151,0.011297,0.0086369,0.0052002,0.001162,-0.0046768,-0.016634,-0.028226,-0.029232,-0.025264,-0.02448,-0.023693,-0.013551,0.0040837,0.019898,0.029691,0.03329,0.036995,0.037908,0.032085,0.03017,0.027666,0.021874,0.015456,0.0058464,-0.0024134,-0.0058954,-0.0098366,-0.013864,-0.015121,-0.0060832,0.0067671,0.011126,0.0066991,-0.0032797,-0.010615,-0.012818,-0.014398,-0.020005,-0.026855,-0.026131,-0.019345,-0.0088923,0.0040606,0.011273,0.012311,0.010701,0.011968,0.012535,0.0098262,0.0078818,0.004638,0.00070298,-0.0021404,-0.0035545,-0.00031102,0.0071178,0.0099774,0.0047264,-0.0016434,-2.2468e-06,0.0082193,0.013097,0.012006,0.0090208,0.0083353,0.011804,0.016754,0.022261,0.027376,0.026969,0.019547,0.0066221,-0.0055894,-0.012831,-0.015173,-0.014538,-0.012136,-0.0088556,-0.0071809,-0.0060156,-0.00089379,0.01039,0.020756,0.02554,0.024905,0.018426,0.010242,0.001775,-0.0046432,-0.0092619,-0.013477,-0.019836,-0.02803,-0.032863,-0.034926,-0.030787,-0.018718,-0.0035417,0.0063836,0.0091639,0.0068261,0.0018896,-0.0019413,-0.0037124,-0.0016708,0.00055506,0.0023564,0.0030213,-0.00050316,-0.0045863,-0.0075918,-0.0092518,-0.0090545,-0.0094483,-0.008864,-0.010415,-0.015748,-0.018344,-0.017352,-0.016195,-0.014808,-0.013457,-0.014252,-0.012851,-0.003199,0.0090854,0.014559,0.014885,0.014038,0.011922,0.0098092,0.012009,0.01341,0.0091566,0.003014,-0.00082294,-0.0028618,-0.0085746,-0.015863,-0.018614,-0.01754,-0.015542,-0.01046,2.1477e-05,0.013729,0.025821,0.034308,0.030381,0.019436,0.013583,0.010015,0.0038327,-0.0061742,-0.012455,-0.017685,-0.026262,-0.03417,-0.039876,-0.040756,-0.034073,-0.023786,-0.014754,-0.0079693,0.0010537,0.012429,0.019336,0.018883,0.01298,0.009354,0.010679,0.0095451,0.0053793,0.0027536,-0.0004198,0.0023513,0.010096,0.019282,0.029584,0.034453,0.032973,0.026503,0.021745,0.021706,0.019259,0.010851,-0.005679,-0.025954,-0.039238,-0.038667,-0.024591,-0.0066607,0.009304,0.01861,0.016012,0.012666,0.011255,0.012852,0.019542,0.020004,0.011219,0.0004343,-0.0045689,-0.0050071,-0.0070461,-0.0091391,-0.0095011,-0.0074559,-0.0041386,0.0031556,0.013238,0.019061,0.018084,0.010608,0.004096,0.0034562,0.0031427,0.00076984,0.004812,0.012066,0.015389,0.016555,0.015432,0.0091533,-0.00067069,-0.014432,-0.029885,-0.038743,-0.03641,-0.027346,-0.018069,-0.011853,-0.009783,-0.0092719,-0.010483,-0.016579,-0.021119,-0.018767,-0.015095,-0.011629,-0.0067978,-0.0060262,-0.0042624,0.0028867,0.0088645,0.011186,0.012573,0.013944,0.016059,0.014467,0.0055895,-0.0025973,-0.0082184,-0.014401,-0.017626,-0.013743,-0.0088681,-0.0072654,-0.0031264,0.0029283,0.0065322,0.0085377,0.012344,0.014329,0.013025,0.011689,0.0091944,0.0046034,-0.0049678,-0.016454,-0.023338,-0.02401,-0.017009,-0.0064522,0.0046894,0.015177,0.01978,0.015787,0.0049304,-0.00616,-0.012339,-0.013283,-0.011683,-0.0066931,0.00013405,0.0068201,0.012471,0.014641,0.015051,0.014724,0.013164,0.010511,0.0076496,0.0030943,-0.0038185,-0.0071988,-0.0070512,-0.0058577,-0.0032723,0.0020981,0.0085049,0.01055,0.0073084,0.0014969,-0.0066023,-0.015868,-0.020396,-0.016833,-0.010698,-0.0064978,-0.0032389,0.00043549,0.0035848,0.0061482,0.010779,0.012878,0.011529,0.01069,0.0095551,0.0058173,-0.00034038,-0.0076881,-0.012022,-0.012107,-0.0086454,-0.0034126,0.0022428,0.0064403,0.0071022,0.0097731,0.014306,0.011919,0.0050572,0.0035346,0.0067202,0.010081,0.013794,0.016157,0.013446,0.0055352,-0.0052887,-0.016053,-0.019615,-0.018687,-0.016221,-0.011853,-0.0088811,-0.0059105,-0.0030945,-0.0032871,-0.0014024,0.0013348,0.0028905,0.0049101,0.0015223,-0.0022544,-0.001115,0.00065811,0.0025558,0.0031123,0.0045702,0.0072478,0.0058775,0.001639,0.00095161,0.0026285,0.0032432,0.0006339,-0.0055019,-0.01061,-0.015529,-0.016862,-0.012177,-0.0047167,0.0022824,0.0059449,0.0056767,0.0055681,0.0069644,0.0056045,0.0048197,0.0093868,0.013299,0.0093897,0.00373,-7.3672e-06,-0.0019623,-0.0019802,-0.0034976,-0.003569,-0.001897,-0.0030455,-0.0052026,-0.0056719,-0.0033753,0.0021701,0.010102,0.015811,0.016687,0.015225,0.012783,0.0093857,0.0062039,0.0027843,-0.0010858,-0.005394,-0.011398,-0.017431,-0.022964,-0.025099,-0.020389,-0.010391,-0.0068273,-0.0098766,-0.011298,-0.0078928,-0.0020285,-0.0023925,-0.0035045,0.0029525,0.0098275,0.013218,0.015284,0.013272,0.0083123,0.0047402,0.0036421,0.0020771,-0.0035319,-0.0075669,-0.012332,-0.016876,-0.019586,-0.019656,-0.013145,-0.0063094,0.0027492,0.0094096,0.010939,0.016579,0.022175,0.022332,0.021213,0.020726,0.016729,0.010494,0.0053339,-0.0028059,-0.010707,-0.011333,-0.0089982,-0.0076532,-0.0043311,0.0019215,0.0084929,0.0095695,0.0054965,0.00066625,-0.0043845,-0.0071595,-0.0048493,-0.0031493,-0.0043971,-0.0039992,0.00081166,0.0085317,0.014885,0.017026,0.01512,0.012981,0.012183,0.010985,0.0086856,0.0026022,-0.0084501,-0.022357,-0.035782,-0.042252,-0.04049,-0.034363,-0.024063,-0.014659,-0.010246,-0.010279,-0.010586,-0.0088426,-0.0080039,-0.0077973,-0.0047646,-0.0019116,-0.0016061,-0.00077722,-0.00017428,0.0018812,0.0052531,0.0066296,0.010413,0.014719,0.016347,0.018411,0.018414,0.010811,0.00070766,-0.0033518,-0.0057537,-0.008444,-0.0071381,-0.004111,-0.0055685,-0.010291,-0.011582,-0.0038338,0.0066637,0.012771,0.016017,0.019856,0.022465,0.020444,0.010905,0.0011857,-0.0049343,-0.011918,-0.018206,-0.022166,-0.021166,-0.014507,-0.0064972,-0.0034084,-0.0030193,0.0019864,0.011091,0.015319,0.014335,0.014609,0.01437,0.01076,0.0024229,-0.0057141,-0.0083092,-0.0087064,-0.010099,-0.0068608,-0.0033962,-0.0036056,0.0021366,0.0081913,0.006943,0.0050663,0.010181,0.011034,0.007921,0.010027,0.01088,0.0076831,0.0036443,0.0012986,0.0023647,0.0024076,-2.9783e-05,0.0011565,0.0043393,0.0042744,0.0024051,0.00066174,0.0034548,0.0085809,0.013546,0.019081,0.02199,0.020892,0.015849,0.0094274,0.0059508,0.006424,0.010283,0.015181,0.018368,0.017069,0.010433,-0.00039737,-0.011324,-0.018241,-0.019754,-0.021097,-0.024491,-0.023094,-0.016692,-0.0084626,8.0771e-06,0.0072065,0.011121,0.0087542,0.003927,-0.0010656,-0.0046309,-0.0071347,-0.0099199,-0.010461,-0.0088794,-0.0068579,-0.0041413,0.0017478,0.007802,0.010584,0.010699,0.0088819,0.0067496,0.0052132,0.0015392,-0.0032806,-0.0049795,-0.0042824,-0.0052632,-0.0072134,-0.0070157,-0.0025759,0.0029446,0.0040749,0.0047454,0.0049945,0.0045428,0.00275,-0.001036,-0.0031196,-0.0040587,-0.0039951,-0.002981,-0.0034303,-0.0042075,-0.0013515,0.0016096,0.0015654,0.0008627,-0.00010836,-0.00069169,-0.001096,-0.00069571,-0.0028688,-0.0077294,-0.0083725,-0.0069733,-0.0077852,-0.0084787,-0.0083269,-0.0073109,-0.0055204,-0.0042251,-0.0052429,-0.0095654,-0.010992,-0.0094082,-0.0061815,-0.0010568,0.0017617,0.0030798,0.0014013,-0.0013423,-0.00033527,-0.00025258,-0.0030792,-0.0055977,-0.0090817,-0.010559,-0.011443,-0.01295,-0.009257,-0.0028785,0.0030976,0.0071798,0.0064539,0.0033649,0.001781,-0.0020987,-0.0099506,-0.01624,-0.017726,-0.017881,-0.016034,-0.009911,-0.00092324,0.0078921,0.013858,0.01589,0.016589,0.015929,0.013204,0.0089511,0.0029775,-0.0020097,-0.0080313,-0.014476,-0.017963,-0.016453,-0.010046,-0.0041116,-0.0031098,-0.00059058,0.0058608,0.010568,0.011549,0.0095898,0.0055887,0.00093128,-0.00060566,-0.00052958,-0.001434,-0.00057691,0.0031191,0.0066045,0.0089557,0.011757,0.01643,0.018844,0.014064,0.0062723,0.00011949,-0.0048523,-0.010591,-0.015244,-0.016524,-0.01569,-0.012987,-0.0066414,0.0015645,0.0077837,0.011265,0.011536,0.0094494,0.0056851,0.00042651,-0.0025486,-0.0015314,0.0012125,0.001802,0.0011624,0.0022193,0.0064929,0.012425,0.015492,0.015108,0.014132,0.01145,0.0064912,0.0027034,0.00061306,-0.0015745,-0.0017623,0.00019905,-0.0010015,-0.0022963,-0.00078254,0.0023864,0.0061399,0.0088595,0.0085765,0.0057786,0.0048051,0.003477,0.0011993,-0.0011944,-0.0028357,-0.0018865,-0.001193,-0.0010198,0.00078666,0.0039038,0.0052616,0.0024179,-0.0010046,-0.0018522,-0.0024217,-0.0035365,-0.0050817,-0.0080957,-0.0085807,-0.0066438,-0.0067647,-0.0072103,-0.004794,6.144e-05,0.0050126,0.007539,0.0082276,0.0070224,0.0044864,0.0011638,-0.0046401,-0.010945,-0.015061,-0.014559,-0.010438,-0.0048494,0.00018747,0.0045043,0.0085739,0.0097048,0.0072149,0.0044846,0.0015595,-0.0016339,-0.0026108,-0.0046626,-0.0078058,-0.0084328,-0.0084207,-0.0099757,-0.011969,-0.011063,-0.010307,-0.0089908,-0.0082504,-0.011194,-0.013687,-0.013876,-0.013008,-0.01241,-0.0087997,-0.0040889,-0.00076128,0.0021993,0.0046572,0.0055716,0.0049013,0.0037783,0.0047166,0.0081494,0.013474,0.019164,0.019682,0.016916,0.01315,0.0096005,0.0091583,0.0092511,0.0083895,0.0065789,0.0037047,0.002271,0.003559,0.0044895,0.004602,0.00309,0.0017229,0.0011115,-0.0010612,-0.003782,-0.0056917,-0.0067987,-0.0087589,-0.011174,-0.013614,-0.012958,-0.0080249,-0.002867,-0.0010318,-0.0014506,-0.00082485,0.0012777,0.00087501,-0.0014242,-0.002259,-0.002696,-0.0019471,-0.0015662,-0.0022582,-0.0059209,-0.011376,-0.011568,-0.0076365,-0.0037312,-0.00046364,0.0040949,0.0079738,0.010026,0.012636,0.014307,0.013257,0.010499,0.0065192,0.0010036,-0.0061929,-0.01149,-0.0097124,-0.0053831,-0.0019451,0.0028522,0.006283,0.0049047,0.00062769,-0.00071464,-0.00028031,-0.00050154,0.0012919,0.0047891,0.007492,0.0086421,0.0093402,0.0090557,0.0085201,0.0076554,0.0065765,0.0041483,-0.0016526,-0.0063969,-0.0074623,-0.0096885,-0.01312,-0.01599,-0.015952,-0.011672,-0.0073642,-0.0019605,0.0057771,0.01422,0.021587,0.025072,0.024231,0.022986,0.021955,0.018709,0.012695,0.0053829,-0.0019033,-0.01014,-0.015345,-0.017081,-0.017856,-0.016374,-0.012634,-0.0084191,-0.0053611,-0.0033383,-0.0021311,-0.0014108,0.0002123,0.0020789,8.5582e-05,-0.0047692,-0.0077588,-0.0088906,-0.0076731,-0.0048913,-0.0036985,-0.0036136,-0.0025623,-0.00075173,0.002803,0.0079535,0.011615,0.012845,0.0098466,0.00065078,-0.0077142,-0.011065,-0.01032,-0.005731,-0.00041256,0.0019135,2.4801e-05,-0.0020194,-0.0025211,-0.0032961,-0.0026134,-0.00066936,0.0022796,0.0031935,0.00014016,-0.0025843,-0.0027765,-0.00067369,0.0017882,0.0014574,0.00052276,0.00039357,0.0011801,0.0013064,0.0001662,0.0010005,0.0032976,0.0046373,0.0038202,0.0011199,-0.0012473,-0.0029922,-0.0031907,-0.0024206,-0.0025116,-0.0025037,-0.0023397,-0.002231,-0.0011029,0.0011096,0.0038973,0.0045235,0.0023487,-0.0022215,-0.0080848,-0.012413,-0.01317,-0.011022,-0.0093656,-0.0090085,-0.0086462,-0.0086817,-0.0086549,-0.0075766,-0.0058537,-0.001942,0.0035081,0.0071433,0.0075665,0.0063052,0.0056624,0.0062798,0.0054709,0.0052132,0.0052134,0.0028861,0.0030722,0.0044556,0.00526,0.0056508,0.0053199,0.0050673,0.0013076,-0.0065706,-0.012252,-0.013686,-0.014864,-0.01577,-0.014282,-0.010781,-0.0059747,-0.00055284,0.0053977,0.0098486,0.012015,0.0097006,0.007509,0.010455,0.012353,0.012622,0.014182,0.017516,0.020145,0.018527,0.015242,0.010556,0.0079109,0.0083858,0.0092479,0.010452,0.0091174,0.0067359,0.0044262,0.0015062,-7.5446e-05,-0.0012585,-0.0029911,-0.0079106,-0.015202,-0.01808,-0.015813,-0.012365,-0.0085764,-0.0037927,-0.0019225,-0.003889,-0.0033178,0.00042535,0.0033805,0.007153,0.0086367,0.0079852,0.0080104,0.0032138,-0.0028051,-0.0047915,-0.00031472,0.0072902,0.0092983,0.0049071,-0.0011868,-0.0061435,-0.0055836,0.0011582,0.0079907,0.010233,0.0073952,-2.0927e-05,-0.010209,-0.014187,-0.010253,-0.0029671,0.0044303,0.0073916,0.0085822,0.010596,0.0093903,0.0069161,0.0056932,0.0034073,-0.002202,-0.0093952,-0.013279,-0.012941,-0.011268,-0.0086877,-0.0071813,-0.0092401,-0.012948,-0.017092,-0.018623,-0.01674,-0.013462,-0.012649,-0.013441,-0.012852,-0.0089711,-0.0029291,0.002739,0.0085115,0.01421,0.020411,0.024422,0.023926,0.021253,0.020613,0.017572,0.0098103,0.0050073,0.0020453,-0.0011407,-0.0059822,-0.01084,-0.0098808,-0.0065218,-0.0046409,-0.0013688,0.00036865,-0.0022062,-0.0080594,-0.014584,-0.018197,-0.017863,-0.018406,-0.018415,-0.017261,-0.014579,-0.0062884,0.0033649,0.0084123,0.0096127,0.012261,0.014555,0.01716,0.018514,0.016237,0.012703,0.003965,-0.0061455,-0.012241,-0.014633,-0.013848,-0.013236,-0.015335,-0.017306,-0.016226,-0.014571,-0.012596,-0.0096226,-0.007278,-0.0033237,0.00067102,0.0047252,0.0077944,0.0091985,0.0087904,0.010712,0.016134,0.019106,0.017482,0.013823,0.013676,0.017333,0.020226,0.017983,0.014243,0.01573,0.019155,0.019112,0.011545,6.578e-05,-0.0096963,-0.017269,-0.019589,-0.018545,-0.016807,-0.014159,-0.01141,-0.0081918,-0.0064005,-0.0068708,-0.0079835,-0.0086493,-0.0076153,-0.0076288,-0.0091657,-0.007404,-0.0018544,0.0047407,0.010455,0.012359,0.014702,0.021272,0.026766,0.032596,0.036443,0.032262,0.024309,0.01754,0.008923,0.00055019,-0.0014137,-9.4788e-06,-0.0040363,-0.012957,-0.018546,-0.019686,-0.019699,-0.020482,-0.019397,-0.016508,-0.013666,-0.0096287,-0.0033394,0.0030554,0.0021216,-0.0021752,-0.0035486,-0.0043765,-0.004419,-0.0014508,0.0029041,0.0041119,0.0017353,-0.0008642,-0.0021407,-0.0016287,-0.0014297,-0.0028164,-0.0058204,-0.01046,-0.0099138,-0.0035521,0.0017547,0.0049348,0.0045702,0.0035402,0.0055487,0.00592,-0.00043991,-0.011338,-0.022753,-0.03123,-0.03194,-0.027179,-0.021263,-0.014857,-0.0099346,-0.0052624,0.00015168,0.0046091,0.0079438,0.0099803,0.0084795,0.0042184,0.001701,0.0021454,0.0027059,0.0018412,-0.00010458,0.00021894,0.0011983,0.0016276,0.0019122,0.0011284,0.0020225,0.0034706,0.0026079,0.000476,-0.0040177,-0.0077159,-0.0062859,-0.0024468,0.0030114,0.0077363,0.0093395,0.0080959,0.0054235,0.0034129,0.00072689,7.3831e-05,0.00057791,-0.0021116,-0.004953,-0.0082147,-0.01173,-0.013346,-0.015035,-0.016855,-0.017759,-0.013895,-0.0064661,-0.0015359,0.0037468,0.011457,0.018724,0.024616,0.026871,0.025344,0.021466,0.015398,0.0091194,0.0050481,0.0031018,0.002605,0.0019119,0.0015949,0.0015725,0.0018465,0.0053189,0.010592,0.013748,0.0146,0.011719,0.0065459,0.0036007,0.0022152,-0.00050292,-0.0034866,-0.0029245,-0.00044632,0.0016915,0.0025532,0.0042152,0.0074324,0.0085576,0.0072362,0.0034408,0.00033984,0.0023188,0.0058238,0.0072207,0.0081804,0.0093251,0.009736,0.0098783,0.0093715,0.0083675,0.0068251,0.0043813,0.0039104,0.0051795,0.0055119,0.0065738,0.0079948,0.0079597,0.0073541,0.007598,0.0061411,-0.00018241,-0.0084532,-0.01411,-0.015358,-0.01429,-0.013665,-0.01165,-0.0075406,-0.0067237,-0.0075946,-0.0071108,-0.0080672,-0.010932,-0.014106,-0.017099,-0.017812,-0.014876,-0.0079406,0.00011061,0.005113,0.0072809,0.0077352,0.0072286,0.0066849,0.0047311,-0.00096187,-0.0064974,-0.0096971,-0.014514,-0.018552,-0.018127,-0.014486,-0.011415,-0.0099569,-0.0084368,-0.0064978,-0.0058409,-0.0074669,-0.010341,-0.011255,-0.010081,-0.01005,-0.0090101,-0.006593,-0.0051069,-0.0026742,3.6177e-05,0.0012092,0.0020706,0.0033295,0.0028798,0.0014051,0.00072823,0.00073788,3.2771e-05,-0.0020499,-0.0033885,-0.0031577,-0.0017614,0.00021135,0.0013491,0.0021574,0.0016628,-4.2756e-05,-0.0013558,-0.00055961,0.0015459,0.0014501,-3.9853e-05,-0.00080748,0.00027976,0.0032718,0.0041119,0.0034349,0.0040561,0.0043594,0.00376,0.0054262,0.0086861,0.010413,0.0099037,0.006929,0.0028639,-0.00098387,-0.002661,-0.0012685,0.00084272,0.0031743,0.0074789,0.010965,0.012168,0.012551,0.010784,0.0096674,0.010022,0.011376,0.012842,0.012026,0.0091075,0.0063987,0.0054397,0.0045956,0.0031029,0.00062615,-0.0004049,0.00080315,0.00071438,0.0010029,0.0021438,0.0024748,0.0015159,-0.00082678,-0.0020507,-0.0015247,0.00090111,0.0042065,0.0072249,0.0089393,0.0072069,0.0037954,0.00084146,-8.4923e-05,0.00045571,0.0014798,0.001175,-0.001877,-0.0036374,-0.0036699,-0.0045741,-0.004226,-0.0021736,-0.00097294,-0.0013545,-0.0022117,-0.0028597,-0.0027022,-0.0012898,-0.00040122,3.2921e-05,0.0014466,0.0017247,0.0016629,0.0010684,-0.0007942,-0.0023514,-0.0026046,-0.0031579,-0.0045967,-0.0064807,-0.0069034,-0.0057258,-0.0050393,-0.0050653,-0.0050917,-0.0055003,-0.0064409,-0.0073388,-0.0070116,-0.0061146,-0.0071395,-0.0089636,-0.0099784,-0.010427,-0.0096572,-0.0089248,-0.0087272,-0.006259,-0.0034764,-0.0010039,0.0025198,0.005196,0.0057753,0.0061478,0.0071933,0.007337,0.0075577,0.0064604,0.002916,0.00022617,-0.0045712,-0.010351,-0.012641,-0.013526,-0.011562,-0.0084501,-0.0060972,-0.0040777,-0.0035851,-0.0036858,-0.0042169,-0.0060917,-0.0066541,-0.0052231,-0.0042109,-0.0050422,-0.0054122,-0.0034027,-0.00085357,0.00044798,-0.00045701,-0.0023206,-0.0030255,-0.0042535,-0.0045087,-0.0028643,-0.00092765,0.0032062,0.0078281,0.0095281,0.0096924,0.0097571,0.010823,0.012482,0.010155,0.0038482,-0.0017026,-0.0070918,-0.010492,-0.0096139,-0.0088461,-0.0077848,-0.0068773,-0.0060874,-0.002618,0.0036418,0.0086096,0.012042,0.016263,0.019279,0.018679,0.013473,0.0090578,0.0056737,0.0021673,0.0018991,0.0020189,0.00035848,-8.6668e-05,-9.2802e-05,-0.0025575,-0.0048562,-0.0024777,0.0029187,0.0063234,0.0085886,0.013051,0.017019,0.016972,0.016002,0.016187,0.016058,0.010527,0.0035448,0.0028377,0.0059851,0.0082577,0.0085696,0.0077985,0.0060398,0.0031418,-0.0029144,-0.0091244,-0.011297,-0.011779,-0.010904,-0.0075787,-0.0048173,-0.0031084,0.0011988,0.0031112,0.0030045,0.0014066,-0.002481,-0.0036441,-0.0051247,-0.0066108,-0.0064348,-0.0084015,-0.010884,-0.0088872,-0.0047421,-0.0026153,-0.0035706,-0.0052771,-0.0022334,0.0035903,0.0069991,0.008925,0.010702,0.0098767,0.005519,0.0028973,0.0022425,0.0018841,0.0011731,-0.0010433,-0.0046505,-0.010077,-0.013622,-0.012775,-0.011619,-0.01232,-0.010911,-0.0085515,-0.0051569,-0.0015464,-0.00024189,0.0020327,0.0055423,0.0069692,0.0056451,0.0067333,0.0093223,0.011735,0.012117,0.0081582,0.004347,0.00089241,-0.0027934,-0.0053689,-0.0051784,-0.0017386,0.0014464,0.002836,0.0016086,-0.0031547,-0.0092303,-0.012241,-0.013499,-0.014813,-0.013529,-0.011781,-0.0093871,-0.0043227,-0.0019659,-0.00077686,-0.0012601,-0.0064528,-0.01356,-0.019215,-0.021957,-0.021877,-0.01918,-0.01608,-0.010843,-0.0011661,0.0079194,0.013702,0.01694,0.015703,0.011128,0.0094852,0.013377,0.013115,0.0038317,-0.0012161,0.0038287,0.011712,0.013481,0.011245,0.012646,0.012853,0.0082196,0.0040399,0.0030585,0.0020326,0.0013609,0.00019258,-0.0032815,-0.0084192,-0.014368,-0.013041,-0.0079538,-0.0086466,-0.0070411,-0.0037414,-0.0023184,0.0014715,0.0046786,0.0053917,0.0048566,0.0050734,0.007371,0.010249,0.0094715,0.0076519,0.0081021,0.0097339,0.0070921,0.0036209,0.0059699,0.008353,0.0066927,0.0005491,-0.0040006,-0.00095023,0.0037509,0.0088314,0.01315,0.014851,0.017135,0.014587,0.011595,0.012763,0.013161,0.010801,0.0034183,-0.0044037,-0.0067185,-0.0080224,-0.012659,-0.017747,-0.020623,-0.02368,-0.030507,-0.033277,-0.025733,-0.014297,-0.002702,0.0076727,0.01513,0.021028,0.022715,0.020933,0.015197,0.0072385,0.0028777,-0.00023218,-0.0045571,-0.0064832,-0.0035484,0.0028325,0.005029,0.0025968,0.0017911,0.0024489,0.0008165,-0.0021331,-0.00194,-0.0010344,-0.0032847,-0.0063407,-0.0071502,-0.0072994,-0.0078891,-0.007809,-0.00466,-0.00034737,0.002435,0.0063384,0.0098129,0.010014,0.008046,0.0043566,-0.0012213,-0.0065122,-0.0099651,-0.013376,-0.015945,-0.013435,-0.0074677,-0.0018997,0.0038431,0.006258,0.005047,0.0028069,0.0045912,0.0094477,0.010246,0.0057148,5.927e-05,-0.0050212,-0.0074638,-0.0091782,-0.011214,-0.010477,-0.010157,-0.010684,-0.0098593,-0.010356,-0.010863,-0.0092192,-0.0076692,-0.00807,-0.009668,-0.0092723,-0.0077574,-0.0061954,-0.007571,-0.011493,-0.012111,-0.0087382,-0.0038751,0.0015575,0.0065018,0.0086606,0.0081049,0.0090622,0.012783,0.015005,0.015961,0.016641,0.015989,0.014071,0.01151,0.0092096,0.006565,-6.2924e-05,-0.009748,-0.017943,-0.022935,-0.022188,-0.015992,-0.0054904,0.0022529,0.0034216,0.0023815,0.0020734,0.0012043,0.00097148,0.00035167,-0.0031397,-0.0069365,-0.0075351,-0.0057831,-0.0058864,-0.0055416,-0.002957,-0.00020681,0.0020665,0.0017837,-0.00020908,0.0016091,0.0038588,0.004211,0.0047329,0.0054932,0.0088927,0.01207,0.012125,0.0094975,0.0064239,0.0051858,0.0034537,-9.188e-05,-0.0047074,-0.0093478,-0.013727,-0.015291,-0.012461,-0.0071096,-0.0014224,0.0024555,0.0060881,0.010931,0.012895,0.010272,0.0069678,0.0031599,-0.0031892,-0.010953,-0.014993,-0.014489,-0.010193,-0.0031589,0.0032931,0.00662,0.0075372,0.0093375,0.011998,0.01297,0.01053,0.0060799,0.0023112,-0.0017493,-0.0046851,-0.0033388,-9.1032e-05,0.001473,0.0030001,0.0050829,0.0049886,0.0040986,0.003689,0.0032485,0.0024508,0.00020684,-0.0032539,-0.0058665,-0.0062099,-0.0053237,-0.0027032,-8.2549e-05,0.0019918,0.0040566,0.0034296,0.0014596,0.0012812,0.0013916,-6.3739e-05,-0.0018681,-0.0045022,-0.0071877,-0.0082479,-0.0082175,-0.0079634,-0.0067143,-0.005085,-0.001933,0.0021306,0.0022697,0.00044663,0.00094161,0.002659,0.0040774,0.0047146,0.0039656,0.0035878,0.0023205,-0.0011686,-0.0041056,-0.0057013,-0.0070523,-0.0071813,-0.0064816,-0.0071331,-0.0066732,-0.0034472,0.00080329,0.0036416,0.0045129,0.0050349,0.0051858,0.0044901,0.0043477,0.0055903,0.0085549,0.01089,0.011025,0.009255,0.0054055,0.0019864,-0.001769,-0.0057082,-0.0064682,-0.0055122,-0.0048404,-0.0056875,-0.0073442,-0.0082064,-0.0076805,-0.0067679,-0.0056417,-0.0036017,-0.0019184,0.00050507,0.0032572,0.0040294,0.0026393,0.0015318,0.00082006,0.00084643,0.0010614,0.00012433,-0.00060541,-0.0014662,3.4796e-05,0.0025487,0.001271,-0.0010951,-0.0010096,0.001205,0.002948,0.0055177,0.0084191,0.0096203,0.0085139,0.0061022,0.004598,0.0048045,0.0043556,0.0011783,-0.0016529,-0.0031829,-0.0043687,-0.0047089,-0.0045889,-0.003708,-0.0019759,-0.00038401,0.0016306,0.0051329,0.0081938,0.0081354,0.0067155,0.003272,-0.0020617,-0.005431,-0.0064549,-0.0042569,0.00060006,0.0059031,0.0088884,0.0084028,0.0074738,0.0066027,0.0056351,0.0050312,0.0033335,0.0021747,0.0021157,0.0014624,0.00067842,-0.00079479,-0.0019087,-0.001528,-0.00086295,-0.0014505,-0.0029988,-0.0051843,-0.010209,-0.013791,-0.01406,-0.013355,-0.01067,-0.0069248,-0.0021638,0.0035171,0.008314,0.010553,0.012285,0.013085,0.010339,0.0067093,0.0025937,-0.0010762,-0.0026259,-0.002863,-0.0026928,-0.0033293,-0.0045375,-0.0030701,-0.00040868,0.0019207,0.0052689,0.0066452,0.0049993,0.0019054,-0.0018861,-0.0058457,-0.0084872,-0.0084191,-0.0062162,-0.0032472,-0.0011847,-0.00073047,-0.00052111,-0.0016236,-0.0037244,-0.0047277,-0.0049644,-0.0049671,-0.0047617,-0.0030835,-0.0011175,-0.0010392,-0.0015245,-0.00026433,0.0017877,0.0035417,0.0046816,0.0053298,0.0037017,0.00042743,-0.0017834,-0.0038805,-0.0057422,-0.0060879,-0.0047154,-0.0034836,-0.00318,-0.0016641,0.001091,0.0020817,0.00077592,-0.00010918,0.00019052,0.00083848,0.0015509,0.0014254,0.0010818,-0.00057733,-0.0025579,-0.0025651,-0.0018008,-0.002158,-0.0031636,-0.0029756,-0.0016198,-0.00071893,-0.0011576,-0.0022968,-0.0029063,-0.0024288,-0.0014012,-2.1369e-05,0.00020983,-0.0010385,-0.00081108,0.00014747,-0.00043613,-0.001222,-0.00089887,0.00020274,0.0011835,0.0021166,0.0037637,0.0051505,0.0044255,0.0031501,0.0037441,0.0045266,0.0037692,0.00343,0.0029949,0.0017238,0.00037029,-0.0008886,-0.0022606,-0.0032422,-0.0038966,-0.003455,-0.0018863,-0.0016725,-0.0011597,0.00043292,0.0020132,0.0039362,0.0060575,0.0072122,0.0070964,0.0072278,0.0078353,0.0072288,0.0058119,0.0053859,0.0057475,0.0045417,0.0019095,0.00017467,-0.00038755,0.00037106,0.00055957,-0.00083568,-0.0010736,-0.00040014,0.00012007,7.1354e-05,-0.0002189,0.00054645,0.00081731,-0.00029075,-0.0016451,-0.0029384,-0.0029491,-0.0015387,-0.00068797,-0.00058599,-0.00070697,-0.0018169,-0.0030647,-0.0030776,-0.0022421,-0.0014484,-0.00087067,-0.00034709,-0.00054926,-0.0013897,-0.00099608,-0.00085894,-0.00032138,0.0020491,0.001766,-0.00078678,-0.0029409,-0.0043061,-0.0040656,-0.003059,-0.0014661,0.00046561,0.0022965,0.0035177,0.0036303,0.0033446,0.0034194,0.00315,0.001685,-0.0023521,-0.0070421,-0.0099738,-0.011282,-0.011169,-0.010513,-0.0091606,-0.0078763,-0.0077958,-0.0080395,-0.0072584,-0.0063079,-0.0065892,-0.007577,-0.0082218,-0.0084093,-0.00844,-0.0067664,-0.0035417,-0.002139,-0.0024677,-0.0025464,-0.0010015,0.00035033,-0.00047112,-0.0015637,-0.0019669,-0.0029654,-0.0030194,-0.0013147,0.0010753,0.0030883,0.002409,0.00075703,8.2378e-05,-0.00057184,-0.00070523,-0.0006044,-0.0010036,-0.0010884,-0.00075847,-0.00029772,-0.00011371,-1.7913e-05,0.00044872,0.00081781,0.0015292,0.0027533,0.0043283,0.0053469,0.0051726,0.0058497,0.0070907,0.0061156,0.0053908,0.0060564,0.0055746,0.0037519,0.0024388,0.0023512,0.0015113,9.7401e-05,-0.00046252,-0.00043458,-0.00056056,-0.0001445,-0.00048209,-0.0025053,-0.0036768,-0.0013888,0.0022556,0.0045502,0.0059662,0.0061521,0.0060188,0.008516,0.0093781,0.0070858,0.0073963,0.0084073,0.0082442,0.0082634,0.0074439,0.0059188,0.0046792,0.0044859,0.0052433,0.0051413,0.0038065,0.0026571,0.0028302,0.0035794,0.0044954,0.006347,0.0070824,0.0065496,0.0059765,0.0046788,0.002835,0.0018096,0.0017645,0.0024958,0.0021917,0.00018879,-0.0017036,-0.0022332,-0.001942,-0.0024155,-0.0025195,-0.00060882,0.0010018,0.0010473,0.0015467,0.0031679,0.005851,0.0087983,0.010179,0.0097123,0.0077426,0.0052871,0.0045329,0.0052145,0.0063508,0.0078703,0.0080323,0.0067914,0.005982,0.0055378,0.0042763,0.0022789,0.00013723,-0.001426,-0.0012157,-0.00059504,2.6687e-05,0.0014625,0.0021873,0.0025987,0.0032229,0.0031346,0.0019781,-0.00021045,-0.0036993,-0.0069388,-0.008262,-0.0067313,-0.0041971,-0.0040406,-0.0045168,-0.0059231,-0.0078962,-0.0091657,-0.009753,-0.0095294,-0.0087521,-0.0085097,-0.008859,-0.0085316,-0.0073913,-0.0060864,-0.0047811,-0.0030539,-0.0025359,-0.0049233,-0.0071398,-0.0067042,-0.0063804,-0.0081606,-0.011354,-0.012841,-0.010252,-0.0069864,-0.0049777,-0.0015912,0.00081468,0.00056879,-9.0786e-05,-0.0021299,-0.0050147,-0.0072147,-0.01066,-0.014807,-0.01693,-0.017796,-0.016919,-0.013814,-0.0099814,-0.0051681,-0.0019037,-0.0014333,-0.0013991,-0.0010318,-0.00050363,0.0011657,0.0025281,0.0018364,0.0018931,0.003908,0.0057568,0.0069771,0.0092979,0.011396,0.011143,0.0087964,0.0054904,0.0026704,0.00059227,-0.00053595,-0.00066554,-0.00044721,-0.0008227,-0.0024268,-0.0035529,-0.0025106,-0.00072398,-0.00045689,-0.00012075,0.0015366,0.0034793,0.0051415,0.0058344,0.0064017,0.0075783,0.00793,0.0078114,0.0077588,0.0064803,0.0053428,0.0048527,0.0041655,0.0029254,0.00097622,0.00054919,0.0029969,0.0032443,0.00040844,-0.0010287,-0.00085359,-0.00033876,-0.0010326,-0.0023679,-0.0031015,-0.0033761,-0.0033366,-0.0025274,-0.0019851,-0.0027714,-0.0025794,-0.0010639,0.0016307,0.005906,0.0098891,0.012498,0.014315,0.015003,0.015148,0.013899,0.0099981,0.0059191,0.0028197,0.00023783,-0.0025403,-0.0055767,-0.0067823,-0.0071067,-0.0081151,-0.0088743,-0.0088571,-0.0075735,-0.0062492,-0.0062379,-0.0062471,-0.0048133,-0.0022224,-0.00061518,-4.8431e-05,-0.00025003,0.0013259,0.0041368,0.0052943,0.0058432,0.0047554,0.0023653,0.00098737,0.00076672,0.00060821,0.0001673,-0.00075365,-0.0018607,-0.0022564,-0.0033776,-0.0064523,-0.0089743,-0.0084337,-0.0067726,-0.0060486,-0.0047071,-0.0027743,-0.0013409,-0.00061833,-5.8967e-05,0.00078833,0.00089025,0.001325,0.0015,-0.00026398,-0.0029213,-0.0048021,-0.0048848,-0.0037787,-0.0024673,-0.00056766,0.0016483,0.0030781,0.0035939,0.0032434,0.0018038,0.00039945,-0.00063441,-0.0021051,-0.0035258,-0.0033089,-0.0022749,-0.0019779,-0.0020278,-0.0013006,-0.0015364,-0.0029169,-0.0025361,-0.0018988,-0.0031773,-0.0046928,-0.0054997,-0.0058124,-0.0049964,-0.0030921,-0.00099212,0.00048819,0.00063784,0.00080514,0.0019208,0.0024004,0.0020419,0.002264,0.0019767,0.00095876,0.00059306,0.00083948,0.0025518,0.0046765,0.005799,0.0068597,0.0074313,0.0066422,0.0056311,0.0045427,0.003639,0.0029734,0.0017534,0.00076696,0.0003375,-0.00085437,-0.0014291,0.00021138,0.0024919,0.0040319,0.0042711,0.0036932,0.0034384,0.0028787,0.00197,0.001336,0.00051646,0.00034025,0.00091724,0.0010303,0.0015088,0.0019861,0.0022875,0.0040666,0.0060331,0.0061916,0.0053871,0.0038539,0.0018695,0.0011258,0.00044065,-0.00045646,6.1032e-05,0.00066399,0.00052447,0.00054137,8.8948e-06,-0.00064178,-0.00027504,0.0013023,0.0034716,0.0048585,0.0045252,0.0022112,-0.00039315,-0.0016331,-0.0020235,-0.0022763,-0.0019071,-0.0028062,-0.0059553,-0.0075929,-0.0064646,-0.0036647,-0.0007801,0.00096506,0.0021737,0.0024993,0.0020717,0.0014439,0.00072094,0.00046279,0.00014721,-0.0011863,-0.002496,-0.0029164,-0.0026302,-0.0015644,0.0004755,0.0022468,0.0030289,0.0034479,0.0029133,0.00097275,-0.0015584,-0.0036461,-0.0048977,-0.0048769,-0.0050637,-0.0051089,-0.0038832,-0.0032552,-0.0035991,-0.0028532,-0.001585,-0.00077107,-0.00078762,-0.00082604,0.00032373,0.0013518,0.0016103,0.0011801,0.00026701,-0.00055297,-0.00084462,-0.00068675,-0.00046143,0.00018337,0.0012984,0.0022931,0.003065,0.0029655,0.0024089,0.0022913,0.0017651,0.0011439,0.0010033,0.00038559,-0.0011043,-0.0028315,-0.0035621,-0.0031782,-0.0031995,-0.0031363,-0.0031684,-0.0034576,-0.0025753,-0.0023084,-0.0025147,-0.0027542,-0.004183,-0.0055863,-0.00618,-0.0063602,-0.0042745,-0.0011564,0.00031104,0.00032082,-0.00038117,-0.00040129,0.00037808,0.0026503,0.0058072,0.0070709,0.0061359,0.0041774,0.0023121,0.0015061,0.0011669,0.0019035,0.0036912,0.0050186,0.005947,0.0058934,0.0048793,0.0035794,0.0026968,0.0028156,0.0020887,-0.00059809,-0.0039482,-0.0061037,-0.0072326,-0.0080179,-0.0085736,-0.0080549,-0.0065957,-0.0056593,-0.0044486,-0.002208,0.00032765,0.0020775,0.0032205,0.0040419,0.0036238,0.0031095,0.00259,0.0013492,0.0011701,0.0025544,0.003651,0.0027555,0.00091226,-0.00013561,-0.00040471,-0.0001058,-0.00035969,-0.0013811,-0.0023539,-0.0038427,-0.0059142,-0.0073545,-0.0076992,-0.0055511,-0.00084375,0.0033423,0.0058538,0.0076853,0.0088805,0.0092468,0.009535,0.0096843,0.010069,0.0093509,0.0066423,0.0045763,0.0031444,0.0024849,0.0035573,0.004128,0.0029672,0.00079355,-0.00088373,-0.00036657,0.00098798,0.0018467,0.0017106,0.00061436,-0.0010604,-0.0035819,-0.0057068,-0.005453,-0.0037178,-0.0012354,0.0002431,-0.0010982,-0.0037234,-0.0062603,-0.0064662,-0.0046221,-0.0031227,-0.0017811,-0.00052657,-0.0008653,-0.0028059,-0.0040943,-0.0032056,-0.002067,-0.0022276,-0.0040218,-0.0078956,-0.01148,-0.01247,-0.011045,-0.0082055,-0.0056784,-0.0034977,-0.001409,-0.00036222,0.00064204,0.0023584,0.0048902,0.0087686,0.011987,0.011945,0.0093534,0.0056154,0.0021402,0.00047577,0.00024218,0.00097021,0.0011539,0.0008622,0.00026691,-0.00065786,-0.00078826,0.00099229,0.0034002,0.0024947,-0.0010808,-0.0033985,-0.0034875,-0.002929,-0.0029966,-0.0026976,-0.0022588,-0.0028126,-0.0042685,-0.0054608,-0.0055073,-0.0042075,-0.0030471,-0.00345,-0.0036269,-0.0039574,-0.0049329,-0.0043699,-0.002,-0.00036126,0.0012286,0.0036644,0.0046734,0.0038808,0.0019046,-0.00038928,-0.0034196,-0.0071372,-0.0095825,-0.010004,-0.0091554,-0.0083955,-0.0083051,-0.0079704,-0.0089268,-0.011091,-0.010258,-0.0056933,4.8072e-05,0.0052237,0.0097486,0.013631,0.015875,0.01681,0.017077,0.016329,0.015679,0.013622,0.01018,0.0074289,0.004579,0.00071339,-0.0023807,-0.0038681,-0.0045378,-0.0026764,0.0017432,0.0048006,0.0057358,0.0077593,0.010936,0.015396,0.019612,0.019803,0.017992,0.015919,0.011275,0.0059945,0.0030575,0.00028961,-0.0043671,-0.0086398,-0.011747,-0.012663,-0.0091397,-0.0035799,0.0012574,0.0021582,-3.1763e-05,-0.0048249,-0.010858,-0.013497,-0.012067,-0.0094074,-0.0068464,-0.0045447,-0.0033793,-0.0011674,0.0020762,0.0050142,0.0071502,0.0099658,0.011614,0.010567,0.0072024,0.0019176,-0.0029112,-0.0056093,-0.0059724,-0.0047241,-0.0024988,-0.0015939,-0.0015563,0.00054769,0.0034798,0.0035889,0.0034326,0.0049769,0.0069546,0.0082496,0.0063258,0.0024696,0.00083685,0.0026105,0.0040739,0.0038023,0.0040289,0.0043127,0.00299,0.00099306,-0.00061565,-0.0027593,-0.0056854,-0.0086183,-0.0095893,-0.0092803,-0.0086633,-0.0077701,-0.0074902,-0.006861,-0.0068477,-0.0077043,-0.0068966,-0.0056638,-0.0045959,-0.0025512,-0.00069587,0.00039531,0.0017712,0.0038286,0.0064973,0.0077005,0.0070409,0.0062259,0.0047919,0.0018533,-0.0025793,-0.0050574,-0.0061024,-0.007471,-0.0086245,-0.0075131,-0.0026426,0.0015489,0.0020307,0.00082554,-0.0010395,-0.0027653,-0.0044357,-0.0047689,-0.0023476,-0.001918,-0.0050975,-0.008017,-0.009402,-0.0093627,-0.0085655,-0.0092765,-0.0084058,-0.0051924,-0.0026894,-0.0016023,-0.0021838,-0.0021498,-0.0021391,-0.0030839,-0.003728,-0.0040528,-0.0034246,-0.0025903,-0.0011427,0.00013391,0.00029652,0.0011409,0.0028194,0.0037786,0.0042987,0.0048847,0.0055589,0.0050588,0.0027676,0.0026092,0.0051012,0.0065087,0.0071063,0.0083875,0.0084795,0.0063024,0.0031821,0.0018638,0.001839,0.00071301,-0.0012312,-0.0020164,-0.00067314,0.0011059,0.0021507,0.0026602,0.0035843,0.0041267,0.0036826,0.0035523,0.0033043,0.0038232,0.0052472,0.0054597,0.0044231,0.0036725,0.0025151,0.00023262,-0.0013659,-0.00097218,0.00092638,0.0022269,0.0020423,0.0019991,0.0032156,0.0037541,0.0026042,0.0016099,0.0016401,0.0016172,0.00045076,-0.00087884,-0.001503,-0.001573,-0.0013099,-0.001752,-0.0010582,0.0015243,0.0028621,0.0025019,0.0014566,0.00094154,0.0013333,0.0014994,0.0009276,0.00062019,0.00051462,-0.00011485,-0.0016566,-0.0024401,-0.0016383,-0.00083232,-0.00028286,0.0004585,0.0014,0.0020543,0.0026288,0.0034368,0.0033778,0.0019369,0.00050055,-0.0014393,-0.0030817,-0.0032341,-0.0027152,-0.0018731,-0.0018792,-0.0019915,-0.0015176,-0.0016203,-0.0020835,-0.0015861,-0.00035149,0.00027686,-0.00026504,-0.00035453,0.00044788,0.00042629,-0.00078046,-0.0025751,-0.0037443,-0.0044915,-0.005058,-0.0053042,-0.0050891,-0.0037222,-0.0019361,-0.00077675,0.00047654,0.00069158,-0.00038157,-0.0010319,-0.0021325,-0.0031785,-0.0040001,-0.0053538,-0.0062154,-0.0059556,-0.0052172,-0.0041714,-0.0027827,-0.0008153,0.00095079,0.0020489,0.0027133,0.0024108,0.0010743,-0.00073655,-0.0024981,-0.0038482,-0.0039812,-0.0033464,-0.0023174,-0.0010286,0.00031703,0.0018942,0.0036321,0.0047756,0.0047488,0.0030593,0.00025355,-0.0018002,-0.0028885,-0.0034412,-0.0025686,-0.0010638,-0.00017223,0.00085092,0.0023366,0.0042565,0.0062483,0.0074328,0.0070326,0.0050053,0.0017984,-0.0013981,-0.0035648,-0.0045011,-0.0032268,-0.0013334,-0.00044221,0.00043789,0.001721,0.003499,0.0056298,0.007325,0.0079317,0.0064746,0.0028954,-0.00055081,-0.0027822,-0.003462,-0.0018431,0.00039544,0.0012152,0.001658,0.0019627,0.0016597,0.0016276,0.0023675,0.0031462,0.0031034,0.0019446,0.00042747,-0.0001526,0.00015115,0.00054377,0.0010945,0.0021607,0.003091,0.0032604,0.0025684,0.0016159,0.0019302,0.0027194,0.0026601,0.0020864,0.0010328,-9.3561e-05,-0.00033497,0.00018581,0.00078798,0.0017118,0.0026776,0.002788,0.0017985,0.00039423,2.9393e-05,0.00021425,0.00036107,0.00018708,-0.00046034,-0.0012545,-0.0021015,-0.0022285,-0.0018505,-0.0012565,-2.4124e-05,0.00062021,0.00045715,0.00042458,0.00062952,0.00064972,0.00047632,0.00043387,0.00039706,0.00016633,-0.00047228,-0.0013843,-0.0022298,-0.0024121,-0.0020913,-0.0021915,-0.0031408,-0.0040835,-0.0042346,-0.002972,-0.0011293,-0.00040975,-0.00066974,-0.00088245,-0.0010485,-0.0011583,-0.0014328,-0.0021411,-0.0022492,-0.0024494,-0.0036217,-0.004746,-0.0058316,-0.0063378,-0.0059054,-0.004782,-0.0029737,-0.0016473,-0.0011492,-0.0010398,-0.0020365,-0.0032932,-0.0036237,-0.0032973,-0.0031321,-0.0031032,-0.0027255,-0.0019163,-0.00025504,0.0021209,0.0042295,0.005213,0.0044874,0.0025826,0.0015178,8.0662e-05,-0.0015898,-0.0019609,-0.0025517,-0.0025179,-0.0025198,-0.0039394,-0.0038222,-0.0014315,0.0012467,0.0032177,0.0038077,0.002632,0.00085258,-0.00089396,-0.002555,-0.0025726,-0.0019804,-0.0015737,-2.2327e-05,0.0016353,0.002483,0.0030193,0.0033529,0.0037204,0.0046032,0.0043333,0.0029566,0.0017915,0.00058689,-0.0001261,0.00021333,0.0014496,0.0030241,0.0041732,0.004838,0.0055968,0.0060173,0.0056246,0.0044958,0.0029094,0.00090986,-0.0009281,-0.0015498,-0.001749,-0.0013102,-0.00058515,-1.2259e-05,0.00064775,0.00095575,0.0016097,0.0021712,0.0017936,0.001345,0.0012046,0.0010826,0.00079673,