-25.59
-14.89
-5.45
2.17
7.92
12.04
14.98
17.13
18.8
20.16
21.22
21.86
21.94
21.36
20.18
18.57
16.82
15.15
13.66
12.33
11.06
9.69
8.13
6.27
4.02
1.33
-1.78
-5.16
-8.62
-11.97
-15.22
-18.65
-22.7
-27.78
-33.95
-40.72
-47.03
-51.56
-53.06
-50.88
-45.13
-36.67
-26.79
-16.83
-7.82
-0.3
5.62
10.13
13.52
16.04
17.84
18.97
19.48
19.41
18.84
17.9
16.74
15.53
14.41
13.44
12.56
11.62
10.38
8.62
6.26
3.36
0.13
-3.17
-6.35
-9.47
-12.75
-16.49
-20.94
-26.19
-32.12
-38.4
-44.49
-49.63
-52.89
-53.36
-50.47
-44.21
-35.25
-24.82
-14.32
-4.85
3.04
9.36
14.51
18.95
22.97
26.6
29.69
31.99
33.33
33.71
33.26
32.25
30.99
29.75
28.68
27.77
26.9
25.86
24.46
22.54
19.98
16.73
12.83
8.41
3.68
-1.09
-5.71
-10.14
-14.57
-19.32
-24.68
-30.68
-36.91
-42.54
-46.45
-47.58
-45.26
-39.46
-30.82
-20.49
-9.75
0.37
9.28
16.84
23.16
28.43
32.72
36.02
38.33
39.79
40.62
41.03
41.07
40.62
39.43
37.43
34.78
31.93
29.3
27.07
25.08
22.88
20.01
16.34
12.11
7.82
3.94
0.67
-2.21
-5.17
-8.78
-13.42
-19.22
-25.96
-33.13
-39.95
-45.48
-48.73
-48.9
-45.67
-39.32
-30.72
-21.05
-11.48
-2.78
4.77
11.31
17.16
22.5
27.24
31.06
33.56
34.5
33.95
32.26
29.93
27.51
25.34
23.59
22.22
21.11
20.08
18.93
17.44
15.42
12.71
9.34
5.5
1.51
-2.29
-5.7
-8.72
-11.6
-14.81
-18.79
-23.85
-29.85
-36.12
-41.53
-44.81
-44.89
-41.34
-34.49
-25.33
-15.14
-5.11
3.97
11.77
18.33
23.83
28.44
32.22
35.11
37.02
37.89
37.82
37
35.76
34.39
33.13
32.06
31.14
30.27
29.26
27.94
26.07
23.43
19.87
15.44
10.42
5.25
0.35
-4.05
-8.01
-11.92
-16.26
-21.48
-27.75
-34.87
-42.26
-48.87
-53.54
-55.15
-53.05
-47.32
-38.76
-28.66
-18.37
-8.86
-0.54
6.66
12.97
18.54
23.31
27.12
29.85
31.59
32.56
33
33.06
32.7
31.76
30.22
28.2
25.99
23.96
22.34
21.13
20.02
18.55
16.3
13.09
9.08
4.7
0.5
-3.15
-6.22
-9.1
-12.45
-16.99
-23.12
-30.67
-38.82
-46.23
-51.48
-53.44
-51.65
-46.42
-38.72
-29.82
-20.95
-13.03
-6.53
-1.5
2.25
5.07
7.27
9.04
10.51
11.65
12.41
12.79
12.88
12.85
12.89
13.11
13.44
13.69
13.53
12.71
11.02
8.46
5.21
1.57
-2.08
-5.43
-8.29
-10.7
-12.91
-15.3
-18.26
-22.1
-26.81
-32.03
-37.01
-40.68
-42.05
-40.38
-35.56
-28.09
-18.95
-9.28
-0.02
8.23
15.25
21.04
25.66
29.17
31.62
33.1
33.76
33.78
33.26
32.23
30.68
28.62
26.19
23.69
21.47
19.82
18.82
18.3
17.92
17.22
15.84
13.62
10.58
6.93
2.93
-1.21
-5.39
-9.76
-14.61
-20.27
-26.87
-34.08
-41.07
-46.62
-49.49
-48.89
-44.71
-37.58
-28.6
-18.96
-9.59
-1.05
6.49
13.04
18.71
23.52
27.49
30.57
32.71
33.93
34.3
33.97
33.1
31.87
30.46
28.99
27.58
26.23
24.88
23.32
21.29
18.54
14.96
10.62
5.79
0.82
-3.97
-8.36
-12.32
-15.96
-19.68
-23.96
-29.27
-35.81
-43.2
-50.46
-56.13
-58.77
-57.46
-52.15
-43.61
-33.17
-22.19
-11.68
-2.19
6.14
13.33
19.39
24.31
28.07
30.74
32.53
33.65
34.28
34.44
34.02
32.97
31.33
29.38
27.52
26.12
25.33
24.92
24.41
23.15
20.7
16.97
12.23
6.96
1.63
-3.5
-8.43
-13.37
-18.64
-24.43
-30.83
-37.58
-44.16
-49.8
-53.63
-54.85
-52.98
-48.04
-40.53
-31.36
-21.51
-11.84
-2.93
4.95
11.7
17.33
21.84
25.29
27.75
29.35
30.28
30.7
30.73
30.47
29.96
29.24
28.37
27.38
26.29
25.02
23.42
21.32
18.57
15.13
11.11
6.75
2.29
-1.99
-5.94
-9.57
-13.04
-16.73
-21.13
-26.62
-33.24
-40.5
-47.34
-52.36
-54.3
-52.4
-46.77
-38.24
-28.05
-17.44
-7.34
1.75
9.68
16.5
22.25
26.95
30.57
33.03
34.32
34.52
33.82
32.44
30.6
28.47
26.15
23.74
21.34
19.11
17.18
15.59
14.19
12.76
11.03
8.83
6.2
3.33
0.51
-2.06
-4.33
-6.46
-8.83
-11.97
-16.28
-21.87
-28.36
-34.82
-40.05
-42.89
-42.66
-39.38
-33.72
-26.78
-19.63
-12.99
-7.11
-1.84
3.07
7.67
11.66
14.48
15.58
14.73
12.29
9.22
6.73
5.91
7.21
10.32
14.21
17.51
18.9
17.57
13.54
7.7
1.76
-2.25
-2.55
1.69
9.81
19.76
28.55
33.3
32.22
25.24
13.95
0.95
-11.1
-20.3
-25.82
-27.88
-27.2
-24.63
-20.85
-16.31
-11.33
-6.24
-1.39
2.93
6.66
9.97
13.19
16.62
20.25
23.69
26.31
27.48
26.83
24.51
21.07
17.24
13.63
10.5
7.77
5.14
2.35
-0.7
-3.88
-6.87
-9.35
-11.13
-12.25
-12.97
-13.77
-15.14
-17.49
-20.83
-24.84
-28.81
-31.92
-33.43
-32.97
-30.58
-26.71
-22.03
-17.18
-12.6
-8.48
-4.68
-1
2.77
6.64
10.39
13.59
15.73
16.43
15.55
13.29
10.16
6.73
3.55
1.03
-0.68
-1.54
-1.68
-1.29
-0.64
-0.01
0.34
0.28
-0.18
-0.92
-1.82
-2.9
-4.35
-6.49
-9.59
-13.73
-18.66
-23.83
-28.55
-32.11
-34.02
-34.09
-32.44
-29.47
-25.7
-21.71
-17.95
-14.75
-12.26
-10.6
-9.79
-9.83
-10.56
-11.63
-12.49
-12.52
-11.32
-8.92
-5.87
-3.04
-1.21
-0.73
-1.23
-1.84
-1.66
-0.19
2.28
4.81
6.2
5.57
2.67
-1.98
-7.37
-12.35
-15.82
-16.94
-15.22
-10.79
-4.68
1.16
4.27
2.58
-4.37
-14.76
-24.7
-29.52
-25.64
-12
9.55
35.28
61.12
84.23
103.45
118.87
130.74
138.68
141.67
138.63
129.16
113.93
94.31
71.72
47.19
21.43
-4.32
-27.61
-44.5
-50.5
-42.2
-18.9
16.51
58.22
99.19
133.27
156.7
168.54
169.92
162.89
149.36
130.64
107.55
80.82
51.57
21.55
-7.06
-31.96
-51.31
-64.29
-71.26
-73.57
-72.97
-70.81
-67.78
-64.01
-59.7
-55.57
-53.02
-53.71
-58.67
-67.91
-80.35
-94.55
-109.53
-125.19
-141.87
-159.18
-175
-185.59
-187.01
-177.3
-158.1
-134.35
-112.32
-96.7
-88.63
-85.72
-83.98
-80.48
-74.85
-69.01
-65.31
-64.55
-65.33
-64.77
-60.3
-51.06
-38.12
-23.6
-9.44
3.44
15.17
26.26
36.81
46.18
53.27
57.06
57.2
54.18
49.14
43.37
37.89
33.29
29.75
27.2
25.4
24
22.46
20.16
16.58
11.52
5.29
-1.37
-7.55
-12.59
-16.36
-19.45
-22.86
-27.61
-34.31
-42.89
-52.67
-62.54
-71.4
-78.4
-83.06
-85.29
-85.27
-83.33
-79.74
-74.68
-67.83
-58.32
-44.85
-26.21
-2.21
25.74
54.5
80.01
98.6
108.32
109.52
104.56
96.69
88.81
82.76
79.05
77.45
77.42
78.48
80.27
82.36
84.14
84.86
83.75
80.31
74.45
66.59
57.5
47.94
38.45
29.11
19.62
9.66
-0.75
-10.91
-19.61
-25.45
-27.49
-25.57
-20.5
-13.72
-6.79
-0.9
3.5
6.58
8.92
11.06
13.21
15.23
16.68
17.16
16.51
14.93
12.83
10.72
8.91
7.44
6.11
4.64
2.85
0.7
-1.65
-4.02
-6.28
-8.52
-10.93
-13.76
-17.17
-21.14
-25.59
-30.5
-36.06
-42.57
-50.17
-58.51
-66.61
-72.91
-75.76
-74.02
-67.5
-57.02
-44.2
-30.9
-18.65
-8.34
-0.12
6.36
11.59
15.93
19.41
21.84
23.01
22.82
21.43
19.16
16.39
13.46
10.67
8.27
6.52
5.58
5.48
5.95
6.45
6.27
4.85
1.98
-1.98
-6.16
-9.49
-11.04
-10.41
-7.82
-3.97
0.37
4.68
8.88
13.3
18.32
24.23
31.03
38.45
45.98
53.04
58.94
63.04
64.85
64.18
61.29
56.85
51.81
47.08
43.31
40.7
39.09
38.08
37.23
36.18
34.69
32.65
29.98
26.71
22.91
18.71
14.3
9.8
5.21
0.38
-4.95
-11
-17.89
-25.5
-33.65
-42.15
-50.89
-59.68
-68.14
-75.52
-80.73
-82.6
-80.35
-73.92
-64.07
-52.15
-39.68
-27.87
-17.35
-8.24
-0.33
6.59
12.57
17.54
21.38
24.09
25.86
27.01
27.86
28.58
29.18
29.51
29.37
28.59
27.09
24.85
21.94
18.47
14.62
10.58
6.5
2.43
-1.68
-5.96
-10.61
-15.85
-21.87
-28.72
-36.16
-43.45
-49.43
-52.69
-52.04
-46.99
-38.01
-26.46
-14.15
-2.67
6.97
14.58
20.49
25.23
29.2
32.51
35.06
36.68
37.34
37.16
36.38
35.23
33.9
32.48
30.99
29.48
27.97
26.5
25.03
23.45
21.57
19.2
16.3
12.93
9.25
5.44
1.49
-2.81
-7.86
-14.03
-21.44
-29.69
-37.79
-44.29
-47.73
-47.16
-42.41
-34.28
-24.13
-13.5
-3.59
4.95
12.01
17.74
22.33
25.84
28.22
29.43
29.54
28.69
27.11
25.09
22.9
20.78
18.91
17.31
15.89
14.4
12.6
10.31
7.5
4.27
0.78
-2.85
-6.58
-10.46
-14.63
-19.25
-24.51
-30.52
-37.2
-44.15
-50.56
-55.3
-57.14
-55.21
-49.3
-40
-28.55
-16.54
-5.29
4.28
11.92
17.8
22.33
25.88
28.57
30.41
31.26
31.14
30.16
28.67
27.04
25.53
24.27
23.18
22.15
21.03
19.8
18.43
16.89
15.06
12.76
9.79
6.04
1.48
-3.86
-9.94
-16.81
-24.61
-33.42
-43.03
-52.74
-61.38
-67.51
-69.94
-68.08
-62.3
-53.8
-44.23
-35.17
-27.67
-22.09
-18.09
-15.01
-12.09
-8.78
-4.84
-0.29
4.6
9.5
14.08
18.08
21.34
23.79
25.39
26.19
26.26
25.69
24.59
23.05
21.15
18.97
16.59
14.1
11.57
9.07
6.62
4.13
1.41
-1.8
-5.8
-10.6
-15.81
-20.47
-23.31
-23.08
-19.04
-11.3
-0.76
11.13
22.96
33.77
43.25
51.61
59.39
66.99
74.52
81.69
87.94
92.6
95.25
95.74
94.33
91.45
87.56
82.91
77.53
71.32
64.21
56.29
47.84
39.21
30.81
22.95
15.88
9.78
4.72
0.57
-3.03
-6.69
-11.12
-16.89
-24.07
-32.16
-40.03
-46.31
-49.76
-49.73
-46.35
-40.46
-33.27
-25.99
-19.47
-14.15
-10.09
-7.19
-5.27
-4.17
-3.72
-3.75
-4.1
-4.64
-5.34
-6.2
-7.3
-8.68
-10.4
-12.45
-14.86
-17.58
-20.51
-23.48
-26.22
-28.5
-30.17
-31.25
-31.94
-32.57
-33.55
-35.28
-38.09
-42.2
-47.54
-53.71
-59.87
-64.85
-67.39
-66.54
-61.96
-54.14
-44.22
-33.6
-23.54
-14.81
-7.57
-1.56
3.62
8.28
12.49
16.14
18.98
20.8
21.53
21.27
20.24
18.75
17.05
15.32
13.58
11.81
9.9
7.76
5.3
2.45
-0.86
-4.66
-8.93
-13.55
-18.39
-23.38
-28.58
-34.2
-40.44
-47.32
-54.43
-60.94
-65.72
-67.76
-66.47
-61.93
-54.91
-46.59
-38.27
-31.02
-25.52
-22.02
-20.39
-20.34
-21.53
-23.61
-26.2
-28.8
-30.81
-31.63
-30.89
-28.63
-25.36
-21.92
-19.13
-17.45
-16.82
-16.76
-16.64
-16.01
-14.79
-13.19
-11.51
-9.89
-8.15
-5.94
-2.96
0.77
4.79
8.47
11.36
13.65
16.23
20.37
27.23
37.35
50.42
65.53
81.54
97.4
112.29
125.44
136.05
143.3
146.63
146.1
142.47
137.14
131.55
126.84
123.43
121.08
119.06
116.43
112.26
105.81
96.6
84.63
70.45
55.18
40.26
27.1
16.59
8.8
2.98
-2.23
-8.36
-16.6
-27.47
-40.61
-54.81
-68.21
-78.7
-84.37
-83.96
-77.26
-65.2
-49.64
-32.87
-17.06
-3.7
6.5
13.57
17.9
19.87
19.8
17.91
14.54
10.1
5.04
-0.41
-6.28
-12.8
-20.07
-27.9
-35.7
-42.76
-48.55
-52.96
-56.27
-58.94
-61.37
-63.8
-66.38
-69.36
-73.15
-78.17
-84.71
-92.64
-101.44
-110.22
-117.91
-123.46
-125.91
-124.56
-119.09
-109.8
-97.54
-83.68
-69.61
-56.37
-44.39
-33.52
-23.35
-13.69
-4.73
2.95
8.77
12.44
14.23
14.79
14.85
14.87
14.94
14.83
14.28
13.18
11.59
9.7
7.6
5.23
2.48
-0.79
-4.54
-8.6
-12.79
-17.08
-21.65
-26.85
-32.98
-39.98
-47.25
-53.57
-57.49
-57.71
-53.57
-45.33
-34.04
-21.24
-8.39
3.42
13.69
22.36
29.63
35.66
40.55
44.37
47.19
49.17
50.45
51.17
51.39
51.14
50.42
49.26
47.66
45.65
43.14
40.02
36.19
31.72
26.82
21.78
16.9
12.31
7.93
3.55
-1.08
-6.26
-12.24
-19.11
-26.63
-34.06
-40.12
-43.21
-41.93
-35.61
-24.77
-10.97
3.58
16.75
27.18
34.43
38.89
41.32
42.4
42.54
41.87
40.44
38.36
35.81
33.05
30.34
27.9
25.92
24.53
23.84
23.84
24.33
24.99
25.35
24.97
23.53
20.94
17.27
12.8
7.81
2.58
-2.75
-8.25
-14.14
-20.69
-27.95
-35.51
-42.44
-47.47
-49.3
-47.14
-40.97
-31.65
-20.61
-9.33
1.13
10.4
18.59
26.04
32.87
38.86
43.56
46.56
47.78
47.53
46.34
44.7
42.93
41.05
39.04
36.9
34.72
32.62
30.58
28.48
26.09
23.3
20.14
16.78
13.39
10.01
6.5
2.65
-1.76
-6.87
-12.73
-19.27
-26.24
-33.02
-38.66
-42
-42.03
-38.27
-31.06
-21.41
-10.73
-0.34
8.87
16.51
22.6
27.26
30.66
32.89
34.02
34.21
33.62
32.47
30.97
29.3
27.61
26.04
24.68
23.52
22.48
21.41
20.08
18.28
15.86
12.74
9.01
4.83
0.44
-3.92
-8.19
-12.4
-16.76
-21.58
-27.11
-33.38
-40.04
-46.28
-50.97
-52.92
-51.24
-45.67
-36.74
-25.63
-13.76
-2.43
7.55
15.89
22.68
28.16
32.56
35.93
38.28
39.61
39.99
39.56
38.55
37.1
35.4
33.54
31.64
29.81
28.14
26.63
25.19
23.62
21.62
18.95
15.39
10.97
5.87
0.42
-5
-10.14
-14.93
-19.57
-24.41
-29.83
-35.86
-42.05
-47.41
-50.71
-50.85
-47.27
-40.24
-30.72
-20.1
-9.7
-0.46
7.22
13.37
18.23
22.03
24.89
26.82
27.82
27.95
27.35
26.24
24.86
23.4
22
20.69
19.48
18.3
17.08
15.69
14
11.84
9.11
5.79
2.01
-1.99
-5.9
-9.47
-12.66
-15.67
-18.93
-22.93
-27.99
-33.95
-40.1
-45.27
-48.14
-47.72
-43.7
-36.61
-27.58
-17.93
-8.81
-0.81
5.93
11.63
16.55
20.77
24.25
26.83
28.39
28.97
28.74
27.92
26.65
25.01
23.03
20.75
18.34
16.08
14.26
13
12.19
11.46
10.31
8.32
5.32
1.44
-2.91
-7.22
-11.05
-14.23
-16.96
-19.76
-23.26
-27.93
-33.75
-40.06
-45.67
-49.2
-49.52
-46.11
-39.28
-30
-19.59
-9.25
0.11
8.06
14.53
19.64
23.57
26.46
28.45
29.68
30.29
30.41
30.13
29.46
28.34
26.75
24.74
22.49
20.29
18.4
16.97
15.95
15.04
13.79
11.76
8.72
4.72
0.11
-4.62
-9.04
-12.93
-16.39
-19.83
-23.74
-28.54
-34.29
-40.59
-46.55
-50.96
-52.64
-50.78
-45.24
-36.67
-26.26
-15.45
-5.48
2.86
9.3
13.97
17.17
19.24
20.46
21.06
21.23
21.12
20.81
20.27
19.44
18.23
16.68
14.9
13.13
11.55
10.24
9.12
8.01
6.63
4.76
2.32
-0.65
-3.96
-7.37
-10.64
-13.68
-16.6
-19.7
-23.49
-28.38
-34.52
-41.52
-48.4
-53.73
-56.06
-54.47
-48.89
-40.16
-29.75
-19.18
-9.57
-1.4
5.43
11.29
16.47
21.06
24.97
28.03
30.14
31.37
31.85
31.75
31.18
30.17
28.75
26.98
25.01
23.1
21.47
20.25
19.31
18.3
16.73
14.18
10.51
5.87
0.74
-4.36
-9.04
-13.19
-17
-20.87
-25.22
-30.45
-36.63
-43.49
-50.27
-55.87
-59.02
-58.71
-54.51
-46.76
-36.54
-25.27
-14.35
-4.72
3.22
9.55
14.61
18.72
22.08
24.7
26.55
27.6
27.91
27.63
26.93
25.94
24.77
23.48
22.18
20.97
19.91
18.94
17.88
16.36
14.08
10.88
6.86
2.31
-2.32
-6.71
-10.73
-14.5
-18.37
-22.82
-28.23
-34.83
-42.38
-50.15
-56.91
-61.2
-61.81
-58.13
-50.44
-39.83
-27.79
-15.76
-4.76
4.74
12.75
19.52
25.3
30.22
34.3
37.52
39.89
41.48
42.43
42.87
42.85
42.33
41.21
39.45
37.12
34.52
32.02
29.93
28.32
26.95
25.36
23.05
19.75
15.48
10.6
5.59
0.84
-3.49
-7.55
-11.65
-16.24
-21.68
-28.15
-35.53
-43.27
-50.43
-55.72
-57.92
-56.18
-50.43
-41.43
-30.58
-19.43
-9.25
-0.7
6.1
11.35
15.29
18.06
19.7
20.35
20.32
20.05
19.91
20.01
20.03
19.37
17.39
13.79
8.77
3
-2.71
-7.71
-11.89
-15.66
-19.68
-24.63
-30.76
-37.83
-45.03
-51.21
-55.01
-55.16
-50.85
-42.02
-29.51
-15.01
-0.64
11.81
21.42
28.53
34.46
40.91
49.11
59.22
70.26
80.52
88.2
92.06
91.7
87.54
80.55
71.89
62.57
53.37
44.76
37.05
30.38
24.83
20.35
16.8
13.86
11.15
8.38
5.49
2.78
0.84
0.31
1.46
3.98
6.95
9.15
9.61
7.94
4.55
0.43
-3.29
-5.8
-6.87
-6.86
-6.58
-6.99
-8.9
-12.69
-18.13
-24.26
-29.53
-32.14
-30.52
-23.9
-12.62
1.79
16.95
30.2
39.24
42.78
40.69
34
24.39
13.71
3.5
-5.25
-12.11
-17.05
-20.28
-22.18
-23.29
-24.23
-25.57
-27.71
-30.65
-34.07
-37.41
-40.14
-41.94
-42.85
-43.22
-43.55
-44.33
-45.82
-47.99
-50.58
-53.24
-55.68
-57.87
-60.06
-62.63
-65.9
-69.92
-74.31
-78.25
-80.75
-80.87
-77.97
-71.88
-62.86
-51.59
-38.97
-26.06
-13.85
-3.14
5.66
12.64
18.27
23.19
27.83
32.24
36.05
38.78
40.17
40.37
39.81
39
38.15
37.05
35.25
32.29
27.98
22.45
16.09
9.35
2.62
-3.77
-9.59
-14.67
-19.02
-22.93
-26.92
-31.64
-37.59
-44.85
-52.92
-60.77
-67
-70.26
-69.57
-64.64
-55.96
-44.64
-32.08
-19.6
-8.15
1.77
10.06
16.89
22.51
27.15
30.98
34.09
36.58
38.51
39.92
40.85
41.28
41.2
40.64
39.68
38.48
37.21
35.98
34.78
33.43
31.67
29.24
26.03
22.11
17.66
12.93
8.04
2.97
-2.49
-8.72
-16.1
-24.77
-34.42
-44.19
-52.67
-58.27
-59.68
-56.27
-48.42
-37.38
-24.86
-12.57
-1.79
6.88
13.43
18.25
21.86
24.67
26.94
28.69
29.84
30.31
30.12
29.42
28.48
27.55
26.8
26.18
25.53
24.64
23.36
21.72
19.83
17.78
15.57
13.1
10.21
6.83
2.98
-1.32
-6.12
-11.64
-18.06
-25.41
-33.18
-40.31
-45.39
-47.06
-44.59
-38.1
-28.58
-17.55
-6.53
3.33
11.51
18.02
23.21
27.49
31.18
34.33
36.79
38.29
38.55
37.44
35.08
31.8
28.12
24.52
21.39
18.86
16.88
15.19
13.49
11.47
8.95
5.84
2.17
-1.92
-6.27
-10.72
-15.21
-19.78
-24.63
-30.03
-36.25
-43.33
-50.88
-57.94
-63.15
-65.08
-62.71
-55.83
-45.2
-32.32
-18.9
-6.42
4.32
13.17
20.4
26.43
31.54
35.81
39.17
41.52
42.84
43.18
42.66
41.4
39.54
37.28
34.85
32.55
30.59
29.06
27.79
26.43
24.53
21.72
17.86
13.06
7.7
2.23
-2.95
-7.66
-11.98
-16.32
-21.21
-27.1
-34.06
-41.54
-48.33
-52.9
-53.85
-50.45
-42.93
-32.38
-20.41
-8.57
2.07
10.99
18.19
23.89
28.37
31.82
34.35
36.03
36.94
37.16
36.71
35.69
34.14
32.19
30.03
27.89
25.98
24.47
23.33
22.39
21.28
19.63
17.15
13.79
9.72
5.28
0.79
-3.57
-7.86
-12.38
-17.57
-23.79
-31.09
-38.92
-46.2
-51.41
-53.09
-50.33
-43.14
-32.53
-20.12
-7.63
3.63
13.06
20.59
26.51
31.13
34.66
37.2
38.8
39.54
39.52
38.79
37.4
35.42
32.99
30.32
27.7
25.4
23.58
22.23
21.14
19.98
18.36
15.98
12.73
8.7
4.14
-0.64
-5.35
-9.87
-14.3
-18.93
-24.2
-30.44
-37.6
-45.1
-51.74
-56.01
-56.57
-52.74
-44.78
-33.87
-21.6
-9.55
1.15
10.03
17.1
22.68
27.12
30.71
33.63
35.97
37.8
39.17
40.06
40.43
40.2
39.28
37.62
35.33
32.66
29.96
27.49
25.33
23.25
20.8
17.53
13.24
8.03
2.38
-3.11
-7.93
-11.9
-15.26
-18.5
-22.27
-27.03
-32.91
-39.57
-46.2
-51.66
-54.77
-54.61
-50.83
-43.75
-34.31
-23.76
-13.33
-3.93
4.03
10.53
15.83
20.22
23.93
27.01
29.48
31.3
32.52
33.15
33.27
32.93
32.2
31.17
29.91
28.48
26.89
25.05
22.84
20.15
16.9
13.15
9.1
4.92
0.8
-3.18
-7.05
-10.87
-14.8
-19.05
-23.88
-29.47
-35.71
-42.01
-47.29
-50.24
-49.71
-45.24
-37.23
-26.89
-15.79
-5.34
3.59
10.81
16.57
21.27
25.17
28.32
30.66
32.13
32.82
32.88
32.47
31.64
30.3
28.37
25.88
23.05
20.31
18.02
16.4
15.29
14.28
12.88
10.66
7.46
3.4
-1.21
-6
-10.66
-15.08
-19.35
-23.76
-28.67
-34.39
-40.95
-47.94
-54.5
-59.4
-61.4
-59.61
-53.84
-44.71
-33.5
-21.73
-10.7
-1.17
6.69
13.07
18.31
22.62
26.07
28.7
30.57
31.82
32.6
33
32.92
32.21
30.74
28.6
26.09
23.71
21.93
20.96
20.65
20.51
19.88
18.21
15.28
11.27
6.7
2.19
-1.85
-5.24
-8.23
-11.31
-15.14
-20.2
-26.64
-33.99
-41.24
-47.01
-49.96
-49.22
-44.66
-36.97
-27.39
-17.29
-7.8
0.37
6.99
12.14
16.02
18.86
20.83
22.12
22.89
23.31
23.46
23.38
22.99
22.2
20.96
19.37
17.64
16.04
14.75
13.76
12.84
11.6
9.64
6.76
3.02
-1.28
-5.66
-9.65
-12.99
-15.77
-18.36
-21.32
-25.2
-30.29
-36.42
-42.94
-48.77
-52.6
-53.34
-50.35
-43.78
-34.5
-23.94
-13.57
-4.59
2.41
7.4
10.73
12.84
14.06
14.57
14.46
13.84
12.88
11.71
10.41
8.93
7.17
5.04
2.65
0.26
-1.83
-3.46
-4.78
-6.18
-8.12
-10.88
-14.44
-18.42
-22.27
-25.48
-27.85
-29.48
-30.81
-32.47
-35.06
-38.9
-43.8
-48.99
-53.18
-54.89
-52.92
-46.77
-36.83
-24.25
-10.56
2.79
14.76
24.82
32.82
38.81
42.91
45.28
46.2
46.09
45.47
44.82
44.42
44.27
44.17
43.87
43.2
42.17
40.95
39.68
38.36
36.78
34.56
31.34
26.96
21.57
15.65
9.84
4.73
0.69
-2.32
-4.72
-7.21
-10.55
-15.27
-21.43
-28.46
-35.2
-40.21
-42.14
-40.26
-34.72
-26.47
-16.97
-7.7
0.29
6.54
11.17
14.58
17.19
19.24
20.79
21.75
22.01
21.55
20.45
18.91
17.15
15.44
13.92
12.63
11.46
10.17
8.57
6.55
4.12
1.42
-1.41
-4.25
-7.11
-10.03
-13.09
-16.34
-19.89
-23.93
-28.69
-34.25
-40.4
-46.37
-50.98
-52.86
-51.02
-45.19
-35.98
-24.72
-13.05
-2.36
6.45
13.14
17.93
21.28
23.61
25.22
26.22
26.64
26.44
25.63
24.3
22.63
20.85
19.16
17.67
16.4
15.24
14.03
12.62
10.86
8.65
5.96
2.79
-0.71
-4.43
-8.19
-11.9
-15.68
-19.81
-24.68
-30.57
-37.47
-44.8
-51.48
-56.1
-57.33
-54.41
-47.41
-37.27
-25.47
-13.57
-2.7
6.62
14.43
21.02
26.6
31.14
34.42
36.26
36.61
35.73
33.99
31.77
29.31
26.73
24.1
21.57
19.34
17.66
16.59
16.01
15.61
15.03
14.03
12.61
10.89
9.09
7.31
5.51
3.52
1.09
-2.01
-5.87
-10.27
-14.66
-18.09
-19.5
-17.93
-12.95
-4.79
5.72
17.46
29.42
40.96
51.87
62.12
71.7
80.39
87.75
93.29
96.66
97.77
96.84
94.32
90.72
86.53
82.15
77.91
74.14
71.19
69.33
68.59
68.57
68.4
66.96
63.22
56.63
47.25
35.73
22.92
9.49
-4.23
-18.32
-32.9
-47.89
-62.71
-76.36
-87.61
-95.38
-99.1
-98.85
-95.38
-89.92
-83.85
-78.37
-74.16
-71.36
-69.61
-68.37
-67.12
-65.61
-63.82
-61.83
-59.78
-57.74
-55.85
-54.32
-53.49
-53.64
-54.83
-56.77
-58.81
-60.22
-60.42
-59.29
-57.05
-54.21
-51.29
-48.68
-46.61
-45.18
-44.45
-44.48
-45.32
-46.95
-49.23
-51.72
-53.77
-54.47
-52.95
-48.56
-41.18
-31.3
-19.91
-8.24
2.66
12.16
20.13
26.88
32.84
38.36
43.57
48.35
52.46
55.71
57.99
59.34
59.84
59.52
58.4
56.44
53.73
50.41
46.69
42.73
38.51
33.88
28.61
22.6
15.93
8.92
1.96
-4.62
-10.72
-16.51
-22.29
-28.38
-34.83
-41.22
-46.69
-50.03
-50.08
-46.14
-38.25
-27.18
-14.17
-0.62
12.34
23.98
33.97
42.19
48.57
53.03
55.5
56
54.72
52.01
48.33
44.11
39.72
35.39
31.25
27.32
23.59
20.01
16.5
12.94
9.24
5.28
1.04
-3.41
-7.92
-12.32
-16.55
-20.72
-25.17
-30.25
-36.14
-42.64
-49.16
-54.86
-58.93
-60.84
-60.43
-57.89
-53.58
-47.96
-41.5
-34.69
-28.07
-22.08
-16.98
-12.81
-9.34
-6.24
-3.21
-0.11
2.96
5.77
8.04
9.62
10.54
10.99
11.27
11.57
11.94
12.26
12.26
11.71
10.47
8.57
6.19
3.62
1.05
-1.43
-3.9
-6.62
-9.92
-14.02
-19.06
-25
-31.59
-38.16
-43.64
-46.67
-46.06
-41.34
-33.14
-23.06
-13.09
-4.8
1.2
5.38
8.69
11.97
15.47
18.82
21.42
22.86
23.17
22.77
22.19
21.79
21.64
21.64
21.54
21.13
20.35
19.31
18.14
16.96
15.81
14.58
13.13
11.37
9.34
7.2
5.23
3.61
2.31
1.06
-0.55
-2.83
-5.72
-8.67
-10.76
-11.04
-8.96
-4.58
1.39
7.94
14.05
18.99
22.46
24.47
25.2
24.96
24.11
23.01
21.98
21.13
20.36
19.3
17.37
14
8.78
1.68
-6.82
-15.8
-24.06
-30.42
-34.13
-35.04
-33.7
-31.11
-28.49
-26.83
-26.69
-28.12
-30.71
-33.88
-37.03
-39.76
-41.95
-43.77
-45.55
-47.66
-50.3
-53.25
-55.86
-57.05
-55.69
-50.9
-42.47
-30.98
-17.61
-3.85
9.02
20.17
29.33
36.64
42.36
46.79
50.05
52.24
53.37
53.5
52.74
51.27
49.34
47.24
45.23
43.51
42.12
41
39.93
38.69
37.08
35.05
32.75
30.45
28.49
27.07
26.11
25.19
23.57
20.4
14.97
6.86
-3.79
-16.15
-28.72
-39.48
-46.29
-47.5
-42.4
-31.51
-16.27
1.48
20.14
38.72
56.61
73.21
87.41
97.82
103.21
103.29
99.01
92.31
85.28
79.22
74.24
69.45
63.79
56.73
48.65
40.55
33.44
27.65
22.76
17.83
11.95
4.73
-3.57
-12.24
-20.51
-27.87
-34.19
-39.61
-44.3
-48.35
-51.74
-54.43
-56.52
-58.16
-59.52
-60.62
-61.28
-61.24
-60.38
-58.8
-56.89
-55.05
-53.48
-52.01
-50.18
-47.57
-44.08
-40.08
-36.25
-33.25
-31.42
-30.64
-30.45
-30.28
-29.71
-28.5
-26.62
-24.1
-21.06
-17.64
-14.09
-10.75
-8
-6.1
-5.09
-4.83
-5
-5.22
-5.17
-4.7
-3.88
-3.03
-2.71
-3.44
-5.53
-8.77
-12.34
-14.97
-15.38
-12.74
-7.09
0.72
9.25
17.05
23.15
27.21
29.58
30.91
31.85
32.71
33.29
33.01
31.01
26.54
19.21
9.24
-2.6
-15.14
-27.14
-37.65
-46.16
-52.59
-57.1
-59.88
-61.02
-60.56
-58.59
-55.45
-51.6
-47.61
-43.94
-40.8
-38.32
-36.61
-36.02
-36.99
-39.73
-43.91
-48.29
-50.96
-49.8
-43.47
-31.93
-16.41
1.35
20.05
39.2
58.8
78.3
95.9
108.59
113.34
108.63
95.41
76.89
57.2
39.74
26.13
16.27
9.2
4.03
0.38
-1.86
-2.95
-3.55
-4.45
-6.08
-8.14
-9.51
-8.57
-3.94
4.93
17.37
31.64
45.22
55.49
60.32
58.53
50.12
36.45
20.07
4.25
-7.72
-13.61
-12.86
-6.79
2.03
10.97
18.38
24.17
29.38
35.24
42.21
49.61
56.03
60.14
61.38
60.14
57.34
53.72
49.44
44.05
36.99
28.19
18.35
8.94
1.67
-2.1
-1.83
2.04
8.31
15.36
21.58
25.66
26.8
24.73
19.69
12.31
3.52
-5.78
-14.87
-23.34
-31.01
-37.84
-43.68
-48.23
-51.18
-52.33
-51.73
-49.71
-46.68
-42.98
-38.76
-34.14
-29.27
-24.54
-20.55
-17.85
-16.81
-17.4
-19.26
-21.66
-23.7
-24.35
-22.73
-18.34
-11.35
-2.68
6.17
13.48
17.76
18.11
14.32
6.83
-3.55
-15.77
-28.74
-41.38
-52.71
-62.01
-68.96
-73.72
-76.8
-78.8
-80.09
-80.63
-80.03
-77.68
-73.18
-66.47
-58.02
-48.65
-39.31
-30.78
-23.4
-16.91
-10.58
-3.5
4.95
14.76
25.16
34.92
42.73
47.69
49.47
48.2
44.32
38.37
31.08
23.49
16.93
12.82
12.16
15.1
20.75
27.36
32.91
35.67
34.74
30.04
22.21
12.17
0.84
-10.92
-22.34
-32.54
-40.6
-45.64
-47.18
-45.31
-40.75
-34.69
-28.32
-22.52
-17.64
-13.57
-9.98
-6.62
-3.47
-0.73
1.29
2.43
2.7
2.42
2.06
2.11
2.96
4.77
7.52
10.99
14.85
18.77
22.42
25.55
28.04
29.81
30.78
30.82
29.77
27.45
23.7
18.43
11.57
3.23
-6.08
-15.28
-22.71
-26.52
-25.38
-19.14
-9.13
2.2
12.16
18.87
21.78
21.65
19.94
17.95
16.36
15.22
14.28
13.46
13.01
13.43
15.07
17.84
21.12
23.91
25.27
24.74
22.41
18.85
14.66
10.21
5.47
0.25
-5.53
-11.76
-18.18
-24.73
-31.63
-39.23
-47.58
-55.89
-62.52
-65.46
-63.22
-55.62
-43.98
-30.62
-17.89
-7.38
0.37
5.56
8.54
9.42
8.11
4.71
-0.1
-5.08
-8.78
-10.18
-8.94
-5.4
-0.16
6.21
13.16
19.91
25.17
27.37
25.26
18.67
8.86
-1.73
-10.43
-15.42
-16.38
-14.5
-11.75
-10.07
-10.67
-13.94
-19.65
-27.19
-35.76
-44.27
-51.39
-55.73
-56.29
-52.77
-45.86
-36.97
-27.75
-19.54
-13.03
-8.19
-4.56
-1.62
0.93
3.09
4.71
5.68
6.08
6.16
6.28
6.75
7.72
9.11
10.69
12.16
13.2
13.63
13.31
12.18
10.22
7.46
4.03
0.1
-4.08
-8.4
-12.93
-17.96
-23.78
-30.41
-37.37
-43.57
-47.62
-48.35
-45.26
-38.72
-29.82
-19.92
-10.13
-1.09
7.07
14.45
21.14
27.04
31.92
35.54
37.81
38.88
39.04
38.63
37.93
37.09
36.14
34.99
33.54
31.77
29.71
27.44
25.02
22.48
19.71
16.61
13.08
9.12
4.79
0.13
-4.94
-10.55
-16.86
-23.71
-30.54
-36.36
-40.02
-40.62
-37.88
-32.26
-24.76
-16.41
-8.01
0.12
7.99
15.63
22.89
29.34
34.47
37.93
39.63
39.81
38.94
37.48
35.82
34.23
32.87
31.81
31
30.33
29.54
28.33
26.47
23.85
20.52
16.71
12.7
8.67
4.64
0.39
-4.47
-10.35
-17.42
-25.4
-33.42
-40.16
-44.2
-44.48
-40.76
-33.76
-24.98
-16.13
-8.55
-2.72
1.71
5.58
9.6
13.95
18.13
21.2
22.29
21.08
17.96
13.93
10.1
7.26
5.5
4.26
2.64
-0.15
-4.35
-9.49
-14.53
-18.18
-19.33
-17.22
-11.65
-3.05
7.25
17.06
23.71
24.94
20.04
10.66
0.78
-4.49
-0.69
14.38
40.02
73.19
109.83
146.04
178.76
205.67
224.86
234.77
234.63
225.08
208.47
188.51
169.18
153.55
142.78
135.96
130.55
123.35
111.66
94.13
71.14
44.53
16.91
-9.23
-32.38
-52.08
-68.7
-82.91
-95.13
-105.34
-113.36
-119.39
-124.12
-128.35
-132.25
-134.92
-134.76
-130.33
-121.45
-109.53
-96.95
-85.92
-77.44
-70.95
-65.01
-58.33
-50.5
-42
-33.65
-25.98
-19.05
-12.65
-6.77
-1.76
1.88
3.95
4.73
4.89
5.22
6.18
7.72
9.32
10.33
10.26
9.03
6.92
4.39
1.85
-0.6
-3.18
-6.32
-10.46
-15.85
-22.36
-29.53
-36.63
-42.78
-47.14
-49.17
-48.7
-45.95
-41.44
-35.7
-29.13
-21.86
-13.78
-4.74
5.1
15
23.47
28.53
28.41
22.45
11.79
-0.56
-10.48
-13.99
-8.52
6.26
28.53
54.97
81.85
105.97
125.24
138.7
146.45
149.17
147.79
143.09
135.54
125.3
112.36
96.73
78.7
58.87
38.3
18.45
1.06
-12.07
-19.52
-20.69
-16.09
-7.53
2.21
9.99
13.19
10.49
2.31
-9.42
-21.98
-32.96
-40.94
-45.82
-48.41
-49.76
-50.57
-51.02
-51.02
-50.51
-49.73
-49.11
-49.07
-49.76
-51.03
-52.49
-53.75
-54.58
-54.88
-54.77
-54.42
-54.06
-53.89
-54.07
-54.74
-55.98
-57.8
-59.95
-61.96
-63.05
-62.41
-59.45
-54.05
-46.62
-38
-29.12
-20.69
-13.08
-6.27
-0.1
5.56
10.64
14.89
18
19.8
20.39
20.12
19.47
18.85
18.45
18.25
18.06
17.64
16.85
15.65
14.11
12.31
10.38
8.38
6.39
4.38
2.29
-0.03
-2.77
-6.1
-10.14
-14.87
-20.03
-25.04
-29.08
-31.25
-30.93
-27.95
-22.71
-16.04
-8.89
-2.03
4.1
9.38
13.86
17.58
20.49
22.48
23.52
23.65
23.06
21.97
20.62
19.23
17.92
16.74
15.62
14.49
13.26
11.93
10.55
9.19
7.91
6.65
5.27
3.6
1.5
-1.11
-4.2
-7.76
-11.79
-16.21
-20.81
-25.07
-28.25
-29.62
-28.67
-25.42
-20.43
-14.61
-8.87
-3.86
0.24
3.54
6.23
8.34
9.72
10.12
9.44
7.85
5.75
3.64
1.92
0.74
0.05
-0.35
-0.67
-1.07
-1.65
-2.49
-3.63
-5.1
-6.86
-8.87
-11.08
-13.45
-16.02
-18.86
-22.15
-26.06
-30.69
-35.89
-41.2
-45.74
-48.49
-48.61
-45.8
-40.45
-33.54
-26.3
-19.76
-14.46
-10.34
-6.97
-3.83
-0.57
2.91
6.42
9.69
12.45
14.61
16.39
18.17
20.41
23.31
26.5
29.05
29.73
27.61
22.73
16.42
11.07
9.4
13.47
23.93
39.87
59.09
78.9
96.66
110.34
118.76
121.75
120.3
116.47
112.94
112.16
115.3
121.56
128.35
132.29
130.61
122.25
108.03
89.95
69.94
48.99
27.05
3.69
-20.87
-45.12
-66.37
-81.64
-88.85
-87.78
-80.32
-69.9
-60.3
-54.34
-52.96
-55.22
-58.93
-61.85
-62.69
-61.54
-59.67
-58.98
-61.21
-67.35
-77.31
-89.87
-102.87
-113.7
-119.94
-120.09
-113.95
-102.62
-87.98
-72.07
-56.51
-42.19
-29.49
-18.43
-9
-1.25
4.68
8.63
10.53
10.48
8.8
6.03
2.72
-0.64
-3.71
-6.31
-8.27
-9.44
-9.71
-9.2
-8.31
-7.69
-8.05
-9.88
-13.21
-17.66
-22.55
-27.27
-31.52
-35.45
-39.49
-44.12
-49.46
-55.11
-60.02
-62.92
-62.67
-58.74
-51.42
-41.71
-30.91
-20.24
-10.49
-1.93
5.5
11.98
17.63
22.36
26
28.41
29.64
29.94
29.79
29.64
29.83
30.35
30.91
31
30.12
28
24.62
20.28
15.35
10.23
5.17
0.35
-4.18
-8.5
-12.83
-17.62
-23.33
-30.16
-37.73
-44.93
-50.1
-51.67
-48.68
-41.29
-30.64
-18.31
-5.7
6.43
17.94
28.92
39.27
48.34
55.08
58.25
56.91
50.62
39.72
25.23
8.91
-6.92
-19.72
-27.15
-27.75
-21.39
-9.52
5.13
19.28
30
35.48
35.36
30.52
22.46
12.72
2.34
-8.15
-18.54
-28.62
-37.95
-45.84
-51.52
-54.37
-54.11
-50.86
-45.06
-37.31
-28.16
-18.11
-7.6
2.87
12.7
21.16
27.64
31.77
33.53
33.29
31.68
29.38
26.99
24.88
23.16
21.73
20.4
19
17.48
15.87
14.26
12.62
10.85
8.71
5.99
2.55
-1.64
-6.48
-11.92
-17.96
-24.65
-31.96
-39.62
-47
-53.13
-56.87
-57.29
-54.02
-47.43
-38.56
-28.74
-19.15
-10.41
-2.5
5.01
12.57
20.34
28.07
35.21
41.23
45.86
49.14
51.39
52.97
54.16
55.02
55.5
55.39
54.46
52.53
49.47
45.28
40.06
34.07
27.65
21.12
14.81
8.92
3.57
-1.28
-5.87
-10.49
-15.34
-20.29
-24.78
-27.93
-28.89
-27.16
-22.89
-16.77
-9.73
-2.58
4.32
10.96
17.56
24.27
30.98
37.36
43
47.49
50.52
51.92
51.55
49.45
45.83
41.14
36.07
31.33
27.48
24.72
22.86
21.43
19.87
17.81
15.15
12.05
8.7
5.2
1.32
-3.41
-9.56
-17.5
-27.11
-37.6
-47.64
-55.69
-60.5
-61.61
-59.45
-55.24
-50.37
-45.9
-42.13
-38.68
-34.83
-30.09
-24.6
-19.21
-15.16
-13.52
-14.69
-18.16
-22.6
-26.39
-28.24
-27.64
-25.13
-22.01
-19.83
-19.74
-21.98
-25.79
-29.67
-31.8
-30.59
-25.13
-15.6
-3.58
7.95
15.21
15
6.23
-8.96
-25.33
-36.14
-35.65
-21.42
4.68
37.33
69.95
97.13
116.24
127.54
133.14
135.61
136.83
137.67
138.37
139.01
139.96
141.83
145.13
149.89
155.59
161.47
167.1
172.69
178.85
185.88
193.09
198.47
199.31
193.13
178.83
157.06
129.84
99.7
68.74
38.18
8.57
-19.73
-46.13
-69.58
-88.88
-103.02
-111.52
-114.54
-112.74
-107.1
-98.78
-89.01
-79.19
-70.76
-64.94
-62.34
-62.53
-64.05
-64.71
-62.37
-55.73
-44.75
-30.63
-15.26
-0.54
12.34
23.17
32.58
41.63
51.38
62.48
75
88.53
102.44
116.08
128.84
140.07
149.01
154.82
156.79
154.61
148.6
139.56
128.59
116.73
104.89
93.9
84.6
77.88
74.41
74.24
76.49
79.42
81.01
79.78
75.56
69.68
64.41
61.95
63.27
67.42
71.7
72.46
66.41
51.81
28.94
-0.05
-31.98
-63.71
-93.17
-119.7
-143.76
-166.1
-186.86
-205.16
-219.37
-228.01
-230.57
-227.96
-222.11
-215.07
-208.14
-201.45
-194.29
-185.83
-175.85
-164.93
-154.15
-144.49
-136.37
-129.51
-123.24
-116.93
-110.33
-103.72
-97.73
-93
-89.79
-87.82
-86.4
-84.75
-82.45
-79.7
-77.28
-76.24
-77.36
-80.81
-86.02
-91.86
-97.07
-100.59
-101.78
-100.43
-96.64
-90.75
-83.25
-74.75
-65.97
-57.58
-50.12
-43.87
-38.89
-35.01
-31.85
-28.9
-25.66
-21.77
-17.17
-12.24
-7.62
-4.09
-2.13
-1.82
-2.83
-4.63
-6.74
-8.87
-10.94
-12.93
-14.73
-16.11
-16.75
-16.33
-14.65
-11.76
-8.02
-4.03
-0.6
1.49
1.75
0.13
-2.95
-6.79
-10.67
-14.22
-17.49
-20.9
-24.92
-29.82
-35.46
-41.28
-46.43
-50.13
-51.85
-51.47
-49.28
-45.68
-41.06
-35.55
-29.19
-22.05
-14.49
-7.13
-0.72
4.18
7.45
9.49
11
12.7
15.01
17.9
20.99
23.78
25.87
27.12
27.59
27.49
27
26.21
25.08
23.51
21.35
18.44
14.65
9.85
4.03
-2.59
-9.5
-15.91
-20.85
-23.44
-23.19
-20.13
-14.8
-8.08
-0.85
6.3
13.11
19.64
25.98
32.05
37.53
41.93
44.81
46.05
45.84
44.69
43.2
41.86
40.92
40.32
39.85
39.25
38.36
37.2
35.96
34.89
34.13
33.63
33.14
32.31
30.74
28.09
24.06
18.51
11.55
3.63
-4.45
-11.67
-17.06
-20.08
-20.65
-19.14
-16.07
-11.87
-6.72
-0.68
6.13
13.29
20.08
25.66
29.35
30.9
30.53
28.96
26.97
25.25
24.11
23.42
22.83
21.95
20.64
18.98
17.23
15.61
14.13
12.57
10.55
7.73
3.87
-1
-6.66
-12.69
-18.47
-23.27
-26.3
-26.85
-24.53
-19.37
-11.91
-2.98
6.47
15.77
24.54
32.76
40.51
47.77
54.31
59.75
63.76
66.16
67.13
67.07
66.61
66.28
66.44
67.09
67.8
67.91
66.69
63.74
59.04
53.01
46.27
39.43
32.96
27.27
22.85
20.3
20.25
23.1
28.94
37.52
48.54
61.93
77.9
96.75
118.39
141.93
165.52
186.7
202.96
212.49
214.6
209.77
199.35
185.03
168.45
150.82
132.95
115.36
98.34
81.96
65.95
49.65
32.16
12.76
-8.66
-31.29
-53.54
-73.52
-89.67
-101.25
-108.55
-112.6
-114.8
-116.46
-118.56
-121.66
-125.9
-131
-136.35
-141.14
-144.61
-146.18
-145.55
-142.67
-137.6
-130.39
-121.17
-110.13
-97.69
-84.43
-71.06
-58.29
-46.73
-36.83
-28.84
-22.77
-18.4
-15.33
-13.05
-11.16
-9.43
-7.91
-6.83
-6.5
-7.07
-8.53
-10.64
-13.04
-15.47
-17.85
-20.37
-23.37
-27.24
-32.2
-38.19
-44.89
-51.71
-57.89
-62.62
-65.23
-65.21
-62.48
-57.33
-50.41
-42.51
-34.38
-26.48
-18.96
-11.78
-4.85
1.78
7.87
13.09
17.15
19.99
21.78
22.82
23.46
23.84
23.89
23.43
22.29
20.52
18.45
16.51
15.02
13.98
13.01
11.52
8.93
4.96
-0.33
-6.63
-13.5
-20.5
-27.21
-33.06
-37.39
-39.5
-38.95
-35.69
-30.18
-23.2
-15.57
-7.89
-0.47
6.59
13.22
19.18
24.05
27.33
28.71
28.22
26.28
23.56
20.78
18.46
16.72
15.39
14.05
12.37
10.16
7.52
4.69
1.94
-0.57
-2.86
-5.15
-7.77
-10.99
-14.91
-19.44
-24.29
-29.11
-33.55
-37.3
-40.01
-41.3
-40.73
-38.02
-33.09
-26.27
-18.23
-9.84
-2.01
4.57
9.43
12.48
13.94
14.19
13.66
12.61
10.96
8.28
4.12
-1.71
-8.75
-15.89
-21.72
-25.08
-25.67
-24.18
-22.23
-21.69
-24.09
-30.15
-39.56
-50.86
-61.4
-67.48
-65.05
-51.05
-25.2
8.63
42.56
66.87
73.49
59.29
27.33
-14.41
-56.49
-91.54
-116.21
-130.59
-136.08
-133.39
-122.09
-101.92
-74.52
-44.08
-16.2
4.63
17.28
24.54
31.52
42.93
60.58
82.5
104
119.72
125.7
120.35
104.19
79.04
47.11
10.75
-27.31
-63.67
-94.39
-115.7
-125.25
-123.23
-112.73
-98.81
-86.52
-78.94
-75.88
-74.16
-69.12
-56.72
-35.09
-5.01
30.79
68.81
105.79
139.16
167.04
188.07
201.49
207.36
206.92
202.37
196.43
191.39
188.39
187.07
185.8
182.46
175.46
164.39
150.1
134.18
118.14
102.76
87.94
72.99
57.23
40.43
23.02
5.93
-9.65
-22.61
-32.23
-38.41
-41.8
-43.6
-45.15
-47.4
-50.44
-53.5
-55.34
-54.96
-52.18
-47.65
-42.54
-37.83
-33.96
-30.77
-27.92
-25.23
-22.94
-21.45
-21.11
-21.91
-23.43
-25.06
-26.32
-27.09
-27.62
-28.41
-30
-32.67
-36.4
-40.9
-45.8
-50.89
-56.26
-62.18
-68.87
-76.07
-83.03
-88.54
-91.4
-90.88
-86.97
-80.44
-72.46
-64.18
-56.38
-49.35
-43.05
-37.38
-32.32
-28.08
-24.96
-23.21
-22.9
-23.84
-25.6
-27.63
-29.34
-30.22
-30
-28.65
-26.39
-23.65
-20.98
-18.88
-17.65
-17.4
-17.97
-19.08
-20.39
-21.6
-22.55
-23.26
-23.94
-24.82
-26.02
-27.24
-27.77
-26.64
-22.97
-16.37
-7.15
3.79
15.23
26.08
35.62
43.53
49.87
54.8
58.57
61.45
63.66
65.33
66.48
67.07
67.16
67.03
67.21
68.28
70.64
74.32
79
84.14
89.28
94.14
98.68
102.9
106.76
110.05
112.51
113.84
113.74
111.83
107.66
100.8
91.18
79.4
67
56.31
49.94
49.92
56.98
70.2
87.46
106.24
124.53
141.07
155.02
165.39
170.62
168.96
159.18
141.41
117.4
90.19
63.24
39.54
21
8.32
1.15
-1.64
-1.71
-1.05
-1.72
-5.52
-13.47
-25.55
-40.72
-57.12
-72.73
-85.91
-96
-103.38
-109.11
-114.39
-119.88
-125.47
-130.37
-133.3
-133.06
-129.11
-122.19
-114.51
-109.21
-109.05
-115.01
-125.43
-136.53
-144.06
-145.25
-140.05
-130.8
-120.74
-112.28
-105.99
-100.88
-95.52
-89.14
-81.95
-74.8
-68.36
-62.65
-57.12
-51.13
-44.49
-37.63
-31.57
-27.36
-25.54
-25.93
-27.47
-28.72
-28.41
-26.25
-23.24
-21.28
-22.06
-25.9
-31.08
-34.25
-31.67
-20.77
-1.03
25.98
57.31
89.63
119.79
145.07
163.19
172.55
172.68
164.55
150.52
133.63
116.55
100.9
87.09
74.66
62.84
51.03
38.92
26.5
13.9
1.31
-11.04
-22.98
-34.5
-45.73
-56.92
-68.3
-79.86
-91.25
-101.72
-110.23
-115.73
-117.45
-115.15
-109.2
-100.48
-90.09
-79.1
-68.26
-57.98
-48.36
-39.32
-30.76
-22.66
-15.14
-8.42
-2.79
1.58
4.73
6.93
8.62
10.24
12.08
14.21
16.51
18.8
20.88
22.66
24.03
24.9
25.09
24.35
22.47
19.26
14.61
8.43
0.73
-8.4
-18.58
-29
-38.38
-45.22
-48.11
-46.26
-39.71
-29.37
-16.68
-3.11
10.19
22.66
34.12
44.64
54.19
62.56
69.43
74.51
77.73
79.27
79.59
79.25
78.8
78.61
78.84
79.37
79.93
80.09
79.34
77.18
73.13
66.84
58.08
46.92
33.73
19.15
3.95
-11.17
-25.74
-39.41
-51.84
-62.48
-70.51
-75.06
-75.52
-71.86
-64.73
-55.23
-44.55
-33.59
-22.85
-12.54
-2.86
5.8
12.82
17.52
19.42
18.44
15.02
10.01
4.42
-0.9
-5.49
-9.39
-13.11
-17.39
-22.99
-30.35
-39.52
-50
-60.94
-71.39
-80.56
-88.04
-93.82
-98.12
-101.14
-102.81
-102.6
-99.69
-93.24
-82.78
-68.49
-51.21
-32.29
-13.19
4.89
21.24
35.6
48.05
58.74
67.72
74.87
80.01
82.98
83.77
82.54
79.65
75.57
70.76
65.59
60.37
55.36
50.81
47.01
44.18
42.34
41.26
40.4
39.14
36.95
33.65
29.42
24.69
19.96
15.49
11.26
7.06
2.72
-1.57
-5.17
-7.1
-6.33
-2.24
5.15
15.1
26.41
37.73
47.88
56.09
62.02
65.69
67.38
67.5
66.48
64.63
62.18
59.24
55.96
52.52
49.2
46.24
43.87
42.26
41.56
41.95
43.54
46.29
49.88
53.6
56.42
57.2
55.03
49.43
40.57
29.18
16.44
3.82
-7.04
-14.65
-18.05
-17.2
-13.24
-8.28
-4.69
-4.18
-7.06
-12.13
-17.29
-20.52
-20.71
-17.97
-13.35
-8.11
-3.07
1.82
7.4
14.77
24.34
34.99
43.69
46.12
38.35
18.87
-10
-42.34
-70.77
-89.41
-96.27
-93.78
-87.12
-81.53
-80.09
-82.96
-88.33
-94.08
-98.94
-102.72
-105.54
-107.15
-106.79
-103.66
-97.62
-89.36
-80.11
-70.86
-61.93
-52.96
-43.37
-32.92
-21.74
-10.07
2.54
17.49
36.83
62.13
93.17
127.3
159.81
185.51
200.52
203.5
195.68
179.86
159.03
135.47
110.62
85.52
61.07
37.88
15.75
-6.66
-31.33
-59.91
-92.5
-127.25
-160.96
-190.17
-212.44
-226.81
-233.65
-234.1
-229.56
-221.34
-210.44
-197.25
-181.28
-161.23
-135.7
-104.14
-67.74
-29.44
6.9
37.96
62.16
80.07
93.96
106.44
119.33
133.03
146.54
158.22
166.6
170.94
171.44
168.97
164.65
159.38
153.62
147.33
140.2
131.89
122.24
111.41
99.88
88.3
77.35
67.4
58.24
49.1
38.84
26.57
12.01
-4.32
-21.22
-37.14
-50.52
-60.16
-65.48
-66.96
-66.14
-65.38
-67.09
-72.74
-82.32
-94.27
-106.18
-115.72
-121.36
-122.61
-119.83
-113.78
-105.41
-95.8
-86.19
-77.89
-71.95
-68.86
-68.41
-69.88
-72.32
-74.9
-77.02
-78.32
-78.48
-77.24
-74.25
-69.29
-62.36
-53.65
-43.6
-32.73
-21.54
-10.44
0.3
10.55
20.28
29.5
38.27
46.59
54.46
61.84
68.79
75.37
81.58
87.26
92
95.21
96.27
94.85
90.99
85.1
77.77
69.52
60.71
51.51
42.08
32.65
23.59
15.21
7.68
0.79
-5.9
-12.84
-20.15
-27.38
-33.61
-37.68
-38.78
-36.77
-32.27
-26.33
-19.98
-13.81
-7.92
-2.12
3.71
9.33
14.18
17.61
19.22
19.06
17.65
15.74
13.99
12.81
12.19
11.85
11.34
10.26
8.41
5.79
2.6
-0.91
-4.49
-8.04
-11.59
-15.31
-19.45
-24.29
-30.06
-36.74
-44.09
-51.52
-58.15
-62.99
-65.19
-64.27
-60.33
-54.01
-46.33
-38.34
-30.76
-23.88
-17.58
-11.58
-5.75
-0.2
4.7
8.62
11.43
13.32
14.73
16.12
17.73
19.46
20.98
21.78
21.46
19.85
16.96
13.05
8.42
3.37
-1.84
-6.97
-11.8
-16.11
-19.83
-23.1
-26.27
-29.76
-33.79
-38.06
-41.68
-43.43
-42.16
-37.36
-29.5
-19.89
-10.28
-2.14
3.75
7.49
9.81
11.58
13.42
15.44
17.43
19.05
20.12
20.68
20.92
21.02
21.06
20.96
20.55
19.66
18.14
15.92
12.99
9.41
5.26
0.65
-4.3
-9.37
-14.31
-18.86
-22.87
-26.4
-29.77
-33.41
-37.66
-42.43
-47.11
-50.65
-51.95
-50.25
-45.41
-37.92
-28.67
-18.55
-8.3
1.58
10.74
18.81
25.45
30.38
33.54
35.14
35.58
35.29
34.66
33.92
33.19
32.55
31.94
31.21
30.1
28.35
25.83
22.63
19.04
15.44
12.05
8.84
5.54
1.75
-2.92
-8.72
-15.68
-23.61
-32.07
-40.33
-47.47
-52.5
-54.65
-53.57
-49.42
-42.82
-34.69
-25.88
-17.04
-8.48
-0.31
7.45
14.66
20.99
26.08
29.67
31.78
32.68
32.83
32.65
32.39
32.11
31.72
31.11
30.21
29.02
27.52
25.69
23.45
20.74
17.6
14.14
10.61
7.23
4.14
1.3
-1.53
-4.69
-8.52
-13.13
-18.35
-23.67
-28.4
-31.79
-33.26
-32.58
-29.82
-25.35
-19.65
-13.15
-6.2
0.97
8.08
14.77
20.66
25.44
29.01
31.55
33.41
34.96
36.42
37.75
38.77
39.24
39.01
37.98
36.16
33.6
30.43
26.85
23.11
19.42
15.91
12.53
9.14
5.54
1.62
-2.62
-7.1
-11.61
-15.86
-19.43
-21.88
-22.79
-21.99
-19.63
-16.16
-12.21
-8.29
-4.65
-1.19
2.27
5.9
9.58
12.98
15.69
17.41
18.12
18.08
17.69
17.3
17.03
16.86
16.63
16.22
15.57
14.72
13.73
12.59
11.25
9.61
7.6
5.25
2.64
-0.11
-2.94
-5.87
-9.01
-12.46
-16.2
-19.95
-23.24
-25.47
-26.15
-25.11
-22.56
-19.03
-15.15
-11.43
-8.12
-5.15
-2.31
0.56
3.4
5.92
7.7
8.44
8.14
7.13
5.92
4.98
4.56
4.57
4.74
4.73
4.35
3.59
2.59
1.53
0.55
-0.34
-1.22
-2.26
-3.6
-5.37
-7.64
-10.41
-13.6
-17.04
-20.44
-23.41
-25.51
-26.36
-25.75
-23.74
-20.66
-16.92
-12.99
-9.14
-5.49
-1.99
1.42
4.73
7.77
10.22
11.76
12.22
11.71
10.61
9.49
8.8
8.78
9.35
10.12
10.67
10.69
10.09
9.02
7.7
6.3
4.79
3.03
0.81
-1.97
-5.29
-8.96
-12.77
-16.48
-19.84
-22.65
-24.57
-25.3
-24.55
-22.27
-18.63
-14.12
-9.36
-4.93
-1.19
1.85
4.42
6.79
9.11
11.29
13.05
14.12
14.38
13.98
13.21
12.38
11.67
11.06
10.41
9.56
8.43
7
5.31
3.43
1.37
-0.87
-3.33
-6.02
-8.94
-12.08
-15.43
-19.03
-22.89
-26.93
-30.88
-34.33
-36.76
-37.77
-37.16
-35
-31.57
-27.22
-22.3
-16.99
-11.41
-5.61
0.3
6.1
11.43
15.87
19.01
20.63
20.86
20.14
19.08
18.2
17.75
17.62
17.48
16.94
15.79
14.01
11.73
9.12
6.3
3.3
0.14
-3.16
-6.55
-10.07
-13.8
-17.87
-22.33
-27.05
-31.59
-35.39
-37.85
-38.61
-37.66
-35.32
-32.07
-28.34
-24.37
-20.19
-15.67
-10.72
-5.4
0.03
5.11
9.37
12.41
14.11
14.61
14.25
13.5
12.77
12.34
12.25
12.36
12.37
11.94
10.85
9.06
6.71
4.04
1.29
-1.46
-4.26
-7.3
-10.77
-14.77
-19.3
-24.25
-29.42
-34.48
-38.89
-42.03
-43.25
-42.08
-38.46
-32.71
-25.48
-17.56
-9.6
-2
5.07
11.64
17.68
23.14
27.82
31.52
34.13
35.69
36.49
36.88
37.23
37.69
38.18
38.39
37.96
36.62
34.3
31.16
27.5
23.56
19.51
15.36
11.07
6.6
1.94
-2.85
-7.7
-12.61
-17.57
-22.53
-27.28
-31.45
-34.5
-35.85
-35.1
-32.17
-27.3
-21.01
-13.9
-6.48
0.97
8.27
15.26
21.64
26.99
30.88
33.06
33.63
33.02
31.88
30.76
29.92
29.31
28.61
27.51
25.79
23.42
20.48
17.13
13.49
9.64
5.64
1.55
-2.53
-6.54
-10.44
-14.32
-18.32
-22.56
-27.05
-31.59
-35.76
-39.01
-40.82
-40.9
-39.31
-36.4
-32.65
-28.45
-23.92
-18.95
-13.34
-7.07
-0.4
6.1
11.7
15.81
18.07
18.58
17.71
16.06
14.2
12.52
11.18
10.05
8.93
7.55
5.71
3.38
0.65
-2.28
-5.21
-7.97
-10.55
-13.04
-15.69
-18.83
-22.81
-27.86
-33.88
-40.37
-46.38
-50.69
-52.18
-50.22
-44.88
-36.97
-27.72
-18.34
-9.59
-1.68
5.65
12.78
19.86
26.71
32.81
37.58
40.65
42
41.93
40.96
39.56
38.01
36.4
34.66
32.76
30.67
28.46
26.18
23.83
21.35
18.68
15.8
12.76
9.71
6.74
3.89
0.95
-2.44
-6.75
-12.29
-18.91
-25.92
-32.13
-36.16
-37
-34.27
-28.43
-20.49
-11.58
-2.53
6.3
14.92
23.4
31.6
39.07
45.17
49.38
51.49
51.73
50.63
48.88
47.06
45.54
44.37
43.36
42.22
40.65
38.48
35.66
32.28
28.46
24.3
19.85
15.17
10.33
5.45
0.61
-4.24
-9.3
-14.87
-21.09
-27.73
-34.13
-39.29
-42.28
-42.46
-39.79
-34.76
-28.19
-20.9
-13.49
-6.27
0.71
7.41
13.7
19.21
23.51
26.17
27.05
26.38
24.69
22.69
20.96
19.81
19.23
18.95
18.64
18.05
17.03
15.57
13.67
11.35
8.56
5.26
1.45
-2.85
-7.53
-12.54
-17.85
-23.48
-29.33
-35.13
-40.34
-44.17
-45.86
-44.84
-41.04
-34.9
-27.16
-18.63
-9.93
-1.42
6.73
14.31
21.03
26.43
30.11
31.9
31.94
30.73
28.92
27.1
25.6
24.43
23.26
21.7
19.39
16.24
12.43
8.29
4.19
0.33
-3.27
-6.81
-10.57
-14.77
-19.61
-25.18
-31.43
-38.17
-44.91
-50.84
-54.93
-56.2
-54.02
-48.39
-40
-30.01
-19.63
-9.78
-0.85
7.24
14.76
21.85
28.39
34
38.24
40.87
41.91
41.71
40.72
39.37
37.94
36.52
35.02
33.31
31.23
28.71
25.67
22.11
18.06
13.6
8.87
4.03
-0.71
-5.25
-9.67
-14.22
-19.27
-25.02
-31.43
-37.93
-43.63
-47.47
-48.58
-46.55
-41.58
-34.39
-25.97
-17.28
-8.92
-1.11
6.23
13.23
19.82
25.69
30.31
33.25
34.35
33.9
32.47
30.71
29.14
27.96
27.06
26.1
24.74
22.73
20.04
16.82
13.35
9.89
6.55
3.24
-0.29
-4.25
-8.82
-13.94
-19.55
-25.58
-31.95
-38.46
-44.62
-49.61
-52.4
-52.14
-48.43
-41.62
-32.64
-22.67
-12.76
-3.47
5.07
12.96
20.25
26.77
32.08
35.72
37.49
37.53
36.37
34.7
33.04
31.61
30.26
28.65
26.51
23.76
20.58
17.23
13.96
10.83
7.75
4.56
1.11
-2.61
-6.55
-10.71
-15.18
-20.12
-25.72
-31.93
-38.31
-44.05
-48.04
-49.32
-47.32
-42.17
-34.59
-25.62
-16.31
-7.38
0.8
8.14
14.58
19.94
23.97
26.43
27.27
26.75
25.34
23.61
21.99
20.72
19.76
18.91
17.92
16.57
14.76
12.5
9.9
7.08
4.12
1
-2.35
-6.06
-10.21
-14.83
-19.89
-25.38
-31.19
-37.09
-42.55
-46.78
-48.9
-48.23
-44.62
-38.53
-30.87
-22.65
-14.6
-7.03
0.1
6.95
13.47
19.38
24.22
27.56
29.26
29.5
28.73
27.49
26.22
25.2
24.4
23.73
23.01
22.11
20.93
19.4
17.41
14.9
11.84
8.34
4.54
0.62
-3.37
-7.53
-12.09
-17.23
-22.94
-28.88
-34.33
-38.36
-40.12
-39.15
-35.47
-29.63
-22.47
-14.84
-7.35
-0.28
6.38
12.7
18.67
24.03
28.42
31.41
32.79
32.64
31.35
29.5
27.63
26.03
24.67
23.34
21.72
19.71
17.35
14.85
12.38
9.96
7.46
4.67
1.42
-2.37
-6.62
-11.27
-16.25
-21.56
-27.15
-32.76
-37.9
-41.82
-43.78
-43.27
-40.18
-34.9
-28.08
-20.46
-12.61
-4.84
2.72
9.99
16.81
22.9
27.93
31.63
33.9
34.88
34.88
34.28
33.36
32.29
31.03
29.49
27.59
25.34
22.9
20.44
18.02
15.58
12.91
9.83
6.22
2.13
-2.29
-6.96
-11.91
-17.3
-23.28
-29.83
-36.6
-42.97
-48.17
-51.46
-52.39
-50.89
-47.29
-42.09
-35.86
-29.02
-21.84
-14.48
-7.17
-0.25
5.83
10.63
13.82
15.42
15.75
15.39
14.98
14.99
15.57
16.54
17.53
18.16
18.22
17.62
16.44
14.7
12.38
9.44
5.92
2.03
-1.94
-5.7
-9.24
-12.81
-16.81
-21.54
-26.95
-32.55
-37.59
-41.24
-42.89
-42.3
-39.57
-35.11
-29.45
-23.14
-16.57
-9.98
-3.38
3.26
9.93
16.37
22.17
26.81
29.94
31.46
31.61
30.84
29.63
28.37
27.23
26.22
25.22
24.08
22.67
20.88
18.6
15.79
12.43
8.61
4.54
0.51
-3.25
-6.68
-9.99
-13.51
-17.54
-22.09
-26.77
-30.95
-33.92
-35.25
-34.83
-32.87
-29.66
-25.46
-20.46
-14.81
-8.72
-2.52
3.45
8.87
13.58
17.52
20.66
22.93
24.28
24.71
24.36
23.51
22.48
21.51
20.7
19.99
19.25
18.36
17.26
15.88
14.17
12.05
9.43
6.3
2.73
-1.16
-5.29
-9.65
-14.3
-19.28
-24.5
-29.61
-34.11
-37.41
-39.06
-38.86
-36.92
-33.58
-29.24
-24.24
-18.8
-12.99
-6.87
-0.58
5.58
11.25
16.08
19.86
22.59
24.47
25.77
26.73
27.45
27.84
27.74
26.95
25.41
23.2
20.48
17.56
14.7
12.08
9.74
7.56
5.27
2.63
-0.59
-4.49
-9.04
-14.04
-19.16
-23.93
-27.85
-30.48
-31.59
-31.19
-29.55
-26.96
-23.73
-20
-15.76
-10.94
-5.58
0.17
6.02
11.59
16.53
20.58
23.64
25.75
27.03
27.66
27.84
27.78
27.61
27.45
27.24
26.85
26.04
24.56
22.29
19.28
15.77
12.02
8.27
4.62
1.05
-2.57
-6.4
-10.56
-15.13
-20
-24.9
-29.34
-32.72
-34.54
-34.49
-32.62
-29.19
-24.61
-19.22
-13.28
-6.97
-0.54
5.66
11.15
15.47
18.33
19.72
19.87
19.21
18.18
17.12
16.22
15.48
14.78
13.94
12.82
11.34
9.51
7.41
5.15
2.81
0.43
-1.98
-4.48
-7.16
-10.19
-13.73
-17.9
-22.67
-27.73
-32.5
-36.26
-38.34
-38.38
-36.45
-32.96
-28.38
-23.05
-17
-10.11
-2.37
5.88
13.94
20.95
26.21
29.47
30.89
30.94
30.07
28.56
26.4
23.37
19.07
13.06
5.08
-4.86
-16.2
-27.94
-38.73
-47.3
-52.82
-55.08
-54.58
-52.31
-49.52
-47.45
-47.06
-48.79
-52.4
-56.9
-60.79
-62.54
-61.06
-56.17
-48.56
-39.49
-30.29
-21.85
-14.46
-7.89
-1.78
4.11
9.67
14.58
18.49
21.18
22.7
23.28
23.24
22.84
22.23
21.49
20.64
19.75
18.9
18.12
17.34
16.35
14.9
12.8
10.09
7.01
3.96
1.27
-0.94
-2.81
-4.65
-6.66
-8.65
-9.88
-9.26
-5.59
2.05
14.07
30.28
49.83
71.12
91.86
109.34
120.99
125.1
121.44
111.29
96.98
80.98
65.13
50.28
36.52
23.68
11.68
0.56
-9.63
-18.91
-27.22
-34.22
-39.23
-41.66
-41.41
-39.29
-36.92
-36.23
-38.77
-45.31
-55.66
-68.94
-83.83
-98.68
-111.53
-120.38
-123.52
-120.13
-110.7
-97.03
-81.67
-67.14
-55.11
-46.06
-39.36
-33.8
-28.17
-21.7
-14.25
-6.21
1.67
8.61
13.96
17.39
19.02
19.29
18.82
18.13
17.45
16.7
15.65
14.08
11.94
9.35
6.47
3.42
0.23
-3.15
-6.68
-10.29
-13.87
-17.4
-21.03
-24.99
-29.34
-33.74
-37.34
-38.93
-37.38
-32.07
-23.26
-12.06
-0.07
11.16
20.65
28.15
34.04
38.9
43.14
46.8
49.54
50.94
50.73
49.01
46.22
43.04
40.06
37.68
35.97
34.75
33.7
32.45
30.65
28
24.32
19.58
13.94
7.75
1.34
-5.05
-11.43
-17.92
-24.59
-31.22
-37.19
-41.65
-43.81
-43.29
-40.27
-35.48
-29.83
-24.09
-18.64
-13.42
-8.17
-2.71
2.87
8.11
12.42
15.3
16.57
16.44
15.4
13.98
12.67
11.75
11.33
11.36
11.7
12.09
12.32
12.22
11.75
11.01
10.06
8.93
7.48
5.51
2.8
-0.79
-5.32
-10.75
-16.96
-23.62
-30.06
-35.35
-38.45
-38.64
-35.76
-30.41
-23.61
-16.47
-9.7
-3.42
2.68
9.11
16.11
23.56
30.99
37.76
43.35
47.48
50.21
51.84
52.81
53.48
54.08
54.65
55.09
55.33
55.3
55.01
54.46
53.61
52.4
50.86
49.13
47.52
46.36
45.84
45.86
46.07
45.96
45.22
43.99
42.85
42.71
44.31
47.8
52.54
57.25
60.46
61.12
58.9
54.29
48.25
41.77
35.55
29.9
24.91
20.63
17.15
14.51
12.53
10.73
8.53
5.46
1.43
-3.21
-7.88
-12.08
-15.58
-18.54
-21.28
-24.01
-26.69
-29.04
-30.71
-31.59
-31.88
-32.02
-32.54
-33.82
-35.98
-38.76
-41.57
-43.48
-43.47
-40.66
-34.65
-25.75
-14.89
-3.39
7.52
17.11
25.36
32.8
40.13
47.8
55.78
63.62
70.64
76.34
80.5
83.24
84.83
85.54
85.47
84.52
82.52
79.33
74.92
69.38
62.8
55.25
46.72
37.18
26.73
15.65
4.38
-6.61
-17
-26.77
-36.22
-45.78
-55.75
-66
-75.85
-84.22
-89.97
-92.31
-91.09
-86.83
-80.58
-73.49
-66.56
-60.42
-55.32
-51.22
-47.9
-45.15
-42.85
-40.95
-39.52
-38.59
-38.16
-38.01
-37.8
-37.2
-35.94
-33.97
-31.43
-28.64
-25.95
-23.71
-22.17
-21.42
-21.39
-21.82
-22.36
-22.62
-22.24
-20.97
-18.64
-15.29
-11.17
-6.69
-2.33
1.54
5
8.46
12.73
18.55
26.29
35.72
46
56.04
64.83
71.84
77.06
80.92
83.89
86.27
87.92
88.49
87.58
85.01
80.92
75.67
69.6
62.84
55.33
46.94
37.62
27.49
16.71
5.39
-6.63
-19.71
-34.14
-49.88
-66.3
-82.3
-96.62
-108.25
-116.86
-122.84
-127.04
-130.42
-133.6
-136.69
-139.3
-140.74
-140.29
-137.43
-131.98
-124.1
-114.23
-102.97
-90.92
-78.53
-66.15
-54.01
-42.33
-31.43
-21.71
-13.65
-7.64
-3.88
-2.3
-2.55
-4.07
-6.21
-8.44
-10.38
-11.87
-12.87
-13.36
-13.32
-12.73
-11.74
-10.67
-9.97
-10.06
-11.18
-13.3
-16.22
-19.69
-23.56
-27.92
-32.91
-38.65
-45.01
-51.53
-57.44
-61.84
-63.93
-63.29
-59.93
-54.35
-47.3
-39.57
-31.86
-24.62
-18.11
-12.51
-7.93
-4.52
-2.32
-1.26
-1.06
-1.21
-1.07
-0.02
2.31
5.9
10.29
14.78
18.55
21.02
21.9
21.24
19.3
16.44
13.06
9.46
5.92
2.61
-0.41
-3.25
-6.17
-9.59
-13.93
-19.47
-26.1
-33.2
-39.67
-44.13
-45.36
-42.67
-36.26
-27.15
-16.88
-7
1.46
8.23
13.8
19.05
24.77
31.3
38.32
45.03
50.5
54.11
55.76
55.83
54.82
53.08
50.72
47.9
45.21
43.98
46.07
53.22
66.33
84.81
106.79
129.72
151.19
169.22
182.06
187.75
184.22
170.12
146.02
115.18
83.13
55.98
38.14
30.79
31.69
36.55
41.15
42.97
41.77
38.83
35.81
33.7
32.55
31.81
31
30.05
29.38
29.59
31.02
33.38
35.88
37.52
37.65
36.32
34.29
32.64
32.27
33.45
35.64
37.84
39.07
38.78
37.11
34.61
31.92
29.21
26.13
21.94
15.94
7.92
-1.68
-11.84
-21.31
-28.95
-34.05
-36.35
-36.06
-33.69
-29.97
-25.69
-21.57
-18.1
-15.48
-13.67
-12.48
-11.75
-11.42
-11.51
-12.02
-12.82
-13.6
-14.01
-13.76
-12.83
-11.43
-9.89
-8.54
-7.55
-6.9
-6.51
-6.35
-6.46
-6.95
-7.87
-9.17
-10.74
-12.49
-14.47
-16.86
-19.96
-23.93
-28.62
-33.58
-37.99
-40.88
-41.48
-39.34
-34.68
-28.19
-20.9
-13.8
-7.56
-2.4
1.74
4.98
7.29
8.52
8.52
7.36
5.36
3.05
0.87
-1.02
-2.78
-4.79
-7.41
-10.76
-14.76
-19.16
-23.73
-28.37
-33.21
-38.54
-44.63
-51.6
-59.23
-67.09
-74.74
-82.02
-89.3
-97.3
-106.73
-117.74
-129.51
-140.33
-148.13
-151.46
-150.21
-145.85
-140.99
-138.38
-139.78
-145.23
-152.84
-159.18
-160.13
-151.88
-131.81
-99.48
-57.27
-10.36
34.59
71.62
97.54
112.91
121.41
128.23
138.13
153.75
174.97
198.88
220.54
234.35
235.75
222.78
197
163.12
127.38
95.36
70.29
52.37
39.56
29.15
19.1
8.61
-2.14
-12.44
-21.47
-28.6
-33.6
-36.57
-37.83
-37.9
-37.44
-37.54
-39.79
-45.84
-56.53
-70.67
-84.37
-91.56
-85.79
-62.52
-21.22
33.72
93.84
148.66
188.6
207.69
205.06
184.73
153.96
120.65
90.94
67.68
50.34
36.3
22.52
7
-10.63
-29.53
-48.35
-65.93
-81.64
-95.26
-106.57
-115.07
-119.96
-120.4
-116.01
-107.23
-95.65
-83.81
-74.7
-70.83
-73.27
-80.94
-90.65
-97.97
-98.81
-91.11
-75.84
-56.7
-38.78
-26.73
-23.24
-28.32
-39.2
-50.96
-57.32
-51.77
-29.21
12.11
69
133.16
193
237.22
258.82
257.43
238.99
212.65
186.69
165.47
148.75
133.36
115.88
94.62
70.21
44.64
19.87
-3.07
-24.03
-43.22
-60.83
-76.95
-91.86
-106.03
-119.79
-132.92
-144.35
-152.54
-156.27
-155.27
-150.5
-143.69
-136.6
-130.34
-125.24
-121.1
-117.71
-115.1
-113.57
-113.45
-114.9
-117.72
-121.59
-126.1
-130.78
-134.88
-137.18
-135.92
-129.08
-115.06
-93.41
-65.25
-33.28
-1.24
26.83
47.43
58.28
58.77
50.22
35.71
19.63
6.75
1.07
4.83
18.02
38.59
63.27
88.42
110.65
127.16
136.13
137.1
131.35
121.68
111.47
103.25
97.57
92.91
86.66
76.77
63.02
47.26
32.34
20.67
13.14
9.03
6.73
4.71
2.06
-1.52
-6.02
-11.33
-17.21
-23.07
-28.17
-31.7
-33.28
-33.11
-31.87
-30.39
-29.16
-28.23
-27.28
-25.95
-24.11
-21.97
-19.9
-18.2
-16.91
-15.83
-14.57
-12.67
-9.64
-5.09
1.17
8.91
17.37
25.38
31.58
34.91
34.94
32.25
28.24
24.73
23.21
24.17
26.93
29.85
31.07
29.27
24.14
16.41
7.42
-1.46
-9.12
-14.79
-17.96
-18.24
-15.46
-9.88
-2.28
6.12
14.07
20.67
25.56
28.86
31
32.39
33.24
33.58
33.31
32.37
30.85
29
27.13
25.56
24.45
23.76
23.26
22.63
21.54
19.75
17.21
14.04
10.5
6.82
3.14
-0.62
-4.68
-9.36
-14.78
-20.75
-26.64
-31.49
-34.27
-34.23
-31.14
-25.35
-17.65
-9.01
-0.23
8.09
15.69
22.47
28.42
33.54
37.84
41.31
43.95
45.71
46.53
46.36
45.25
43.4
41.11
38.76
36.61
34.79
33.2
31.63
29.8
27.49
24.62
21.21
17.36
13.16
8.7
4
-0.96
-6.24
-11.96
-18.19
-24.81
-31.38
-37.07
-40.77
-41.47
-38.61
-32.4
-23.78
-14.12
-4.71
3.6
10.56
16.38
21.39
25.76
29.41
32.1
33.63
34.02
33.56
32.68
31.86
31.44
31.57
32.2
33.17
34.27
35.29
36.05
36.46
36.49
36.12
35.36
34.26
32.82
31.02
28.81
26.14
22.87
18.97
14.57
10.13
6.44
4.54
5.43
9.66
17.19
27.22
38.59
50.03
60.62
69.86
77.63
83.97
88.85
92.13
93.61
93.16
90.89
87.18
82.62
77.84
73.42
69.67
66.69
64.43
62.82
61.82
61.35
61.19
60.87
59.68
56.94
52.29
45.89
38.34
30.46
22.97
16.27
10.52
5.81
2.26
0.02
-0.92
-0.93
-0.72
-1.06
-2.43
-4.67
-7.12
-8.9
-9.49
-9.03
-8.39
-8.81
-11.37
-16.57
-24.12
-33.05
-42.07
-49.94
-55.8
-59.31
-60.69
-60.58
-59.96
-59.9
-61.42
-65.29
-71.82
-80.68
-90.91
-101.05
-109.55
-115.19
-117.58
-117.14
-114.92
-112.01
-109.05
-105.9
-101.76
-95.63
-86.83
-75.34
-61.89
-47.57
-33.43
-20.08
-7.57
4.32
15.77
26.53
35.72
42.04
44.24
41.71
34.74
24.71
13.61
3.61
-3.38
-5.93
-3.22
4.67
16.67
30.66
43.85
53.69
58.74
59.21
56.78
53.6
51.22
49.85
48.51
45.97
41.64
36.15
31.12
28.38
29.23
34.07
42.47
53.5
66.04
78.82
90.54
99.86
105.69
107.58
105.92
101.93
97.15
92.76
88.97
84.77
78.23
67.36
51.08
29.99
6.37
-16.61
-36.03
-50.17
-58.83
-62.88
-63.39
-60.98
-55.83
-48.23
-39.12
-30.32
-24.03
-21.95
-24.62
-31.3
-40.43
-50.37
-59.98
-68.77
-76.65
-83.71
-89.99
-95.38
-99.66
-102.55
-103.8
-103.32
-101.41
-98.73
-96.23
-94.72
-94.49
-95.15
-95.79
-95.35
-93.16
-89.07
-83.29
-76.15
-67.79
-58.31
-48.02
-37.74
-28.58
-21.33
-15.77
-10.48
-3.39
7.22
21.82
39.59
59.05
79.01
99.14
119.53
139.82
158.39
172.54
179.44
177.58
167.57
151.88
133.67
115.4
97.99
81.03
63.65
45.46
27.11
10.07
-4.08
-14.41
-20.94
-24.5
-26.23
-26.98
-27.04
-26.27
-24.37
-21.27
-17.46
-13.85
-11.63
-11.85
-15.13
-21.65
-31.19
-43.38
-57.82
-73.93
-90.83
-107.23
-121.68
-133.05
-140.92
-145.54
-147.37
-146.46
-142.12
-133.27
-119.29
-100.77
-79.75
-59.16
-41.72
-29.01
-21.18
-17.15
-15.44
-14.82
-14.59
-14.53
-14.66
-14.92
-15
-14.44
-12.74
-9.69
-5.54
-0.89
3.41
6.59
8.21
8.22
6.97
5.09
3.31
2.25
2.24
3.14
4.42
5.36
5.53
5.08
4.72
5.4
7.67
11.38
15.54
18.82
20
18.35
13.68
6.21
-3.65
-15.28
-27.7
-39.61
-49.45
-55.75
-57.48
-54.31
-46.61
-35.22
-21.15
-5.33
11.39
28.17
44.05
57.8
68.01
73.19
72.21
64.66
51.26
33.93
15.45
-1.22
-13.9
-21.79
-25.7
-27.66
-30.1
-34.92
-42.87
-53.5
-65.39
-76.72
-85.62
-90.42
-89.7
-82.51
-68.62
-48.9
-25.5
-1.7
18.61
31.84
35.76
30.28
17.62
1.7
-13.09
-23.32
-27.47
-26.13
-21.34
-15.5
-10.3
-6.24
-2.93
0.31
3.7
6.72
8.37
7.77
4.57
-0.86
-7.75
-15.21
-22.66
-29.79
-36.38
-42.11
-46.47
-48.86
-49.02
-47.17
-43.97
-40.26
-36.54
-32.72
-28.12
-21.78
-12.98
-1.71
11.16
24.11
35.36
43.45
47.59
47.75
44.48
38.73
31.53
23.91
16.88
11.48
8.58
8.52
10.81
14.2
17.12
18.45
17.94
16.11
13.62
10.48
5.87
-1.42
-11.93
-24.84
-37.9
-48.62
-55.52
-59.03
-61.17
-64.28
-69.53
-76.23
-82.28
-85.32
-84.1
-78.94
-71.52
-63.73
-56.85
-51.1
-45.94
-40.74
-35.37
-30.3
-26.22
-23.48
-21.77
-20.34
-18.54
-16.36
-14.58
-14.33
-16.38
-20.59
-25.93
-30.99
-34.9
-37.71
-40.36
-43.92
-48.79
-54.36
-59.24
-61.96
-61.62
-58.18
-52.2
-44.35
-35.09
-24.66
-13.29
-1.35
10.57
21.87
32.18
41.37
49.46
56.43
62.06
65.99
67.9
67.69
65.55
61.97
57.64
53.32
49.7
47.15
45.47
43.89
41.32
36.98
31.09
25.22
21.97
24.17
33.66
50.42
72.29
95.43
115.34
128.14
131.49
125.13
110.68
91
69.17
47.81
28.59
12.39
-0.29
-9.04
-13.62
-14.19
-11.73
-8.03
-5.19
-4.89
-7.64
-12.49
-17.37
-19.79
-17.61
-9.7
3.71
21.05
39.64
56.41
68.72
75.17
76.02
72.91
68.01
62.79
57.33
50.29
39.94
25.42
7.69
-10.67
-26.49
-37.53
-43.48
-45.99
-47.6
-50.58
-55.98
-63.19
-70.45
-75.21
-74.2
-63.72
-40.18
-1.86
49.16
105.66
156.25
188.75
194.8
173.55
132.32
83.57
39.77
8.69
-8.42
-15.17
-16.43
-15.04
-10.91
-2.4
11.31
28.56
45.53
58.1
63.89
63.21
58.65
53.22
48.59
44.37
38.49
28.68
13.86
-5.15
-26.1
-46.29
-63.89
-78.58
-91.41
-103.84
-116.65
-129.28
-139.94
-146.43
-147.23
-142.16
-132.49
-120.32
-107.72
-96.09
-85.84
-76.61
-67.73
-58.62
-49.17
-39.65
-30.54
-22.28
-15.07
-8.87
-3.54
0.95
4.41
6.47
6.84
5.63
3.4
1
-0.94
-2.2
-3.15
-4.41
-6.52
-9.73
-14.12
-19.77
-26.81
-35.32
-44.84
-54.35
-62.34
-67.43
-68.87
-66.79
-62.01
-55.5
-48
-39.82
-31
-21.63
-11.98
-2.51
6.29
14
20.42
25.43
28.97
31.05
31.82
31.64
30.98
30.27
29.7
29.19
28.4
27.02
24.91
22.13
18.93
15.49
11.92
8.18
4.16
-0.29
-5.36
-11.27
-18.18
-25.91
-33.8
-40.66
-45.13
-46.13
-43.3
-37.11
-28.65
-19.18
-9.75
-0.87
7.35
15.08
22.5
29.55
35.92
41.13
44.72
46.54
46.86
46.29
45.56
45.11
44.99
44.8
44.01
42.32
39.77
36.68
33.44
30.17
26.72
22.72
17.92
12.25
5.9
-0.89
-8.04
-15.6
-23.63
-31.88
-39.6
-45.65
-48.85
-48.4
-44.21
-36.85
-27.33
-16.67
-5.6
5.45
16.31
26.77
36.47
44.89
51.5
55.94
58.17
58.55
57.65
56.13
54.55
53.23
52.22
51.37
50.42
49.11
47.25
44.73
41.51
37.66
33.26
28.38
23.04
17.15
10.62
3.32
-4.83
-13.76
-23.21
-32.61
-41.05
-47.43
-50.65
-50
-45.48
-37.79
-28.15
-17.89
-7.98
1.15
9.53
17.39
24.8
31.47
36.88
40.5
42.09
41.82
40.23
37.92
35.38
32.79
30.06
27.01
23.52
19.64
15.52
11.29
6.94
2.31
-2.82
-8.47
-14.4
-20.12
-25.1
-28.97
-31.73
-33.56
-34.65
-34.89
-33.78
-30.61
-24.81
-16.33
-5.73
6.01
17.84
29.01
39.26
48.67
57.46
65.62
72.85
78.65
82.5
84.1
83.53
81.15
77.44
72.82
67.51
61.55
54.99
47.96
40.77
33.77
27.2
21.03
15.06
9.04
2.96
-2.9
-7.99
-11.79
-14.1
-15.12
-15.41
-15.54
-15.78
-16.04
-15.89
-14.75
-12.09
-7.53
-0.89
7.78
18.15
29.53
41
51.66
60.83
68.31
74.32
79.35
83.83
88.06
92.14
96.09
99.92
103.57
106.89
109.54
111.04
110.84
108.52
103.88
96.96
88.01
77.37
65.34
52.12
37.82
22.5
6.33
-10.35
-27.01
-43.03
-57.83
-70.87
-81.62
-89.54
-94.09
-94.78
-91.46
-84.34
-74.14
-61.95
-49.05
-36.62
-25.59
-16.53
-9.65
-4.88
-1.94
-0.4
0.21
0.3
0.13
-0.22
-0.82
-1.72
-2.87
-4.08
-5.13
-5.95
-6.65
-7.56
-9.01
-11.17
-13.93
-17
-20.1
-23.1
-26.12
-29.4
-33.27
-37.97
-43.59
-50.05
-56.98
-63.65
-69.04
-72.05
-71.79
-67.95
-60.92
-51.68
-41.47
-31.43
-22.21
-13.96
-6.47
0.57
7.32
13.64
19.16
23.45
26.2
27.35
27.19
26.2
24.96
23.84
22.99
22.27
21.4
20.07
18.1
15.52
12.41
8.91
5.13
1.06
-3.27
-7.82
-12.53
-17.39
-22.53
-28.18
-34.46
-41.16
-47.54
-52.41
-54.48
-52.83
-47.32
-38.62
-28.09
-17.13
-6.88
2.1
9.78
16.36
22.03
26.78
30.42
32.72
33.63
33.31
32.17
30.65
29.12
27.71
26.38
25.02
23.53
21.83
19.92
17.75
15.25
12.38
9.14
5.64
1.97
-1.8
-5.78
-10.16
-15.16
-20.9
-27.27
-33.8
-39.7
-43.98
-45.67
-44.1
-39.13
-31.25
-21.48
-11.01
-0.95
8
15.55
21.8
26.97
31.22
34.6
37.01
38.36
38.62
37.94
36.59
34.86
32.99
31.11
29.17
27.05
24.65
21.88
18.76
15.36
11.77
7.96
3.92
-0.44
-5.13
-10.09
-15.23
-20.48
-25.93
-31.81
-38.26
-45.13
-51.75
-56.95
-59.42
-58.18
-53.03
-44.69
-34.53
-24.12
-14.64
-6.7
-0.33
4.75
8.87
12.25
14.98
17.05
18.48
19.31
19.62
19.54
19.23
18.89
18.71
18.72
18.83
18.73
18.07
16.6
14.28
11.35
8.14
5.01
2.1
-0.64
-3.49
-6.81
-10.97
-16.23
-22.63
-29.87
-37.24
-43.69
-47.99
-49.13
-46.68
-41.02
-33.19
-24.51
-16.14
-8.74
-2.32
3.41
8.74
13.64
17.8
20.74
22.16
22.12
21.03
19.47
17.94
16.69
15.74
14.93
14.1
13.15
12.04
10.77
9.33
7.68
5.73
3.42
0.65
-2.62
-6.47
-10.9
-15.92
-21.45
-27.29
-33.04
-38.03
-41.48
-42.65
-41.07
-36.78
-30.28
-22.44
-14.18
-6.28
0.84
6.99
12.16
16.31
19.44
21.42
22.22
21.87
20.56
18.63
16.54
14.7
13.37
12.6
12.22
11.97
11.61
10.98
10.07
8.88
7.34
5.37
2.88
-0.12
-3.5
-7.05
-10.7
-14.52
-18.7
-23.34
-28.18
-32.49
-35.17
-35.18
-31.94
-25.64
-17.17
-7.87
1
8.61
14.76
19.68
23.77
27.3
30.22
32.26
33.06
32.44
30.56
27.82
24.72
21.69
18.91
16.37
14
11.75
9.63
7.62
5.66
3.56
1.11
-1.75
-4.92
-8.13
-11.17
-14
-16.89
-20.27
-24.51
-29.62
-35.13
-40.09
-43.4
-44.15
-41.95
-37.03
-30.14
-22.23
-14.14
-6.43
0.68
7.13
12.88
17.84
21.83
24.67
26.31
26.81
26.35
25.18
23.55
21.73
19.95
18.39
17.15
16.21
15.42
14.51
13.21
11.34
8.85
5.87
2.61
-0.75
-4.14
-7.63
-11.33
-15.39
-19.95
-25.04
-30.55
-36.1
-41.02
-44.42
-45.43
-43.52
-38.7
-31.6
-23.25
-14.74
-6.92
-0.16
5.57
10.5
14.84
18.67
21.86
24.21
25.57
26.01
25.75
25.11
24.44
23.87
23.42
22.98
22.42
21.61
20.46
18.84
16.62
13.7
10.1
6
1.74
-2.4
-6.26
-9.92
-13.67
-17.86
-22.71
-28.16
-33.86
-39.16
-43.23
-45.29
-44.73
-41.36
-35.49
-27.91
-19.65
-11.69
-4.64
1.32
6.41
10.97
15.19
18.98
22.09
24.23
25.26
25.26
24.51
23.29
21.85
20.35
18.89
17.55
16.34
15.2
13.97
12.41
10.33
7.65
4.46
0.96
-2.62
-6.14
-9.53
-12.89
-16.35
-20.11
-24.36
-29.18
-34.43
-39.64
-44
-46.52
-46.38
-43.23
-37.38
-29.69
-21.29
-13.15
-5.87
0.42
5.88
10.68
14.87
18.33
20.86
22.38
22.99
22.96
22.62
22.25
21.93
21.69
21.41
21.07
20.59
19.92
18.96
17.52
15.39
12.44
8.74
4.47
-0.05
-4.51
-8.72
-12.69
-16.6
-20.72
-25.3
-30.46
-36.01
-41.43
-45.93
-48.64
-48.81
-46.12
-40.8
-33.56
-25.41
-17.25
-9.65
-2.75
3.59
9.6
15.28
20.45
24.75
27.85
29.59
30.05
29.42
28.01
26.1
23.93
21.71
19.61
17.72
16.03
14.38
12.52
10.22
7.32
3.84
-0.05
-4.11
-8.13
-11.98
-15.63
-19.14
-22.69
-26.49
-30.76
-35.54
-40.53
-45.05
-48.11
-48.74
-46.35
-40.99
-33.41
-24.7
-15.97
-7.95
-0.9
5.27
10.79
15.77
20.17
23.84
26.64
28.52
29.49
29.65
29.09
27.91
26.23
24.26
22.22
20.36
18.8
17.47
16.08
14.18
11.41
7.61
2.93
-2.23
-7.43
-12.35
-16.98
-21.56
-26.49
-32.15
-38.72
-46.01
-53.46
-60.21
-65.27
-67.79
-67.33
-63.92
-58.09
-50.6
-42.23
-33.58
-24.98
-16.61
-8.66
-1.43
4.72
9.52
12.93
15.28
17.1
18.98
21.27
23.94
26.65
28.84
30.07
30.2
29.55
28.77
28.78
30.4
34.05
39.57
46.16
52.63
57.84
61.13
62.68
63.52
65.24
69.5
77.49
89.59
105.42
124.12
144.84
166.98
190.19
213.99
237.36
258.53
275.27
285.51
288.02
282.94
271.54
255.7
237.19
217.13
196.05
174.09
151.37
128.13
104.8
81.82
59.61
38.61
19.29
2.13
-12.47
-24.37
-33.75
-41.13
-47.42
-53.75
-61.4
-71.54
-84.94
-101.64
-120.81
-140.92
-160.18
-177.12
-191
-201.87
-210.15
-216.13
-219.61
-219.85
-215.99
-207.67
-195.44
-180.8
-165.75
-152.15
-141.05
-132.58
-126.09
-120.75
-116.02
-111.83
-108.47
-106.19
-104.95
-104.28
-103.53
-102.13
-99.87
-96.92
-93.68
-90.59
-87.85
-85.5
-83.35
-81.21
-78.94
-76.53
-74.02
-71.47
-68.83
-65.91
-62.43
-58.1
-52.91
-47.24
-41.84
-37.52
-34.75
-33.24
-31.9
-29.14
-23.43
-14.04
-1.22
13.77
29.14
43.16
54.68
63.24
68.99
72.42
74.03
74.27
73.71
73.05
72.86
73.01
72.22
68.29
59.04
43.53
22.97
0.46
-20.15
-35.98
-46.25
-52.25
-56.29
-60.33
-65.08
-70.15
-74.77
-78.63
-82.15
-86.14
-91.12
-96.78
-101.97
-105.05
-104.47
-99.49
-90.47
-78.76
-66.06
-53.88
-42.88
-32.87
-23.09
-12.74
-1.54
10.15
21.56
31.88
40.54
47.35
52.48
56.24
58.98
61
62.6
64
65.34
66.61
67.68
68.31
68.21
67.11
64.83
61.34
56.78
51.52
46.03
40.75
35.95
31.58
27.31
22.71
17.48
11.75
6.16
1.66
-0.74
-0.46
2.47
7.32
12.96
18.23
22.34
25.05
26.65
27.64
28.45
29.22
29.68
29.37
27.86
24.99
20.94
16.18
11.28
6.74
2.82
-0.47
-3.36
-6.14
-9
-11.99
-14.96
-17.65
-19.78
-21.16
-21.77
-21.79
-21.59
-21.66
-22.62
-25.1
-29.56
-36.09
-44.14
-52.55
-59.74
-64.11
-64.48
-60.4
-52.12
-40.43
-26.27
-10.52
6.19
23.43
40.84
57.99
74.27
88.86
100.8
109.31
113.95
114.86
112.67
108.33
102.74
96.58
90.3
84.2
78.56
73.66
69.67
66.5
63.9
61.53
59.21
56.92
54.74
52.6
50.07
46.3
40.32
31.34
19.28
5.02
-9.68
-22.6
-31.78
-36.1
-35.68
-31.73
-26.05
-20.32
-15.58
-12.08
-9.51
-7.36
-5.29
-3.33
-1.71
-0.75
-0.63
-1.29
-2.47
-3.8
-4.95
-5.75
-6.19
-6.39
-6.56
-6.84
-7.32
-7.98
-8.81
-9.9
-11.42
-13.62
-16.6
-20.27
-24.28
-28.26
-31.99
-35.54
-39.19
-43.14
-47.16
-50.49
-52.08
-51.09
-47.28
-41.29
-34.31
-27.58
-21.91
-17.36
-13.46
-9.6
-5.42
-1.17
2.44
4.52
4.4
1.97
-2.29
-7.48
-12.7
-17.37
-21.5
-25.55
-30.14
-35.76
-42.52
-50.24
-58.56
-67.1
-75.42
-83.04
-89.33
-93.69
-95.97
-96.64
-96.96
-98.44
-102.18
-108.16
-115.1
-120.82
-123
-120.05
-111.4
-97.4
-78.76
-56.07
-29.42
1.53
37.32
78.31
124.13
173.41
223.64
271.52
313.71
347.66
372.42
388.77
398.62
404.01
406.12
404.69
398.23
384.81
362.93
332.12
292.91
246.59
194.82
139.65
83.68
30.17
-17.25
-55.55
-83.29
-101.3
-112.4
-120.3
-127.97
-136.58
-145.3
-152.01
-154.62
-152
-144.35
-132.95
-119.54
-105.93
-93.73
-84.07
-77.54
-73.94
-72.37
-71.55
-70.35
-68.27
-65.53
-62.85
-60.8
-59.52
-58.61
-57.54
-55.97
-54.04
-52.21
-50.87
-50.11
-49.62
-49.06
-48.29
-47.47
-47.07
-47.57
-49.23
-51.96
-55.44
-59.23
-62.92
-66.18
-68.63
-69.86
-69.46
-67.12
-62.81
-56.87
-49.93
-42.66
-35.56
-28.84
-22.5
-16.49
-10.88
-5.94
-2
0.72
2.22
2.79
2.83
2.78
2.92
3.29
3.76
4.09
4.01
3.37
2.12
0.32
-1.85
-4.27
-6.82
-9.47
-12.25
-15.18
-18.3
-21.69
-25.5
-29.78
-34.43
-39.03
-42.87
-45.13
-45.09
-42.49
-37.56
-30.99
-23.59
-16.1
-8.96
-2.28
4
9.94
15.45
20.31
24.19
26.83
28.11
28.15
27.26
25.81
24.22
22.72
21.41
20.2
18.9
17.31
15.33
12.96
10.31
7.5
4.65
1.76
-1.26
-4.57
-8.27
-12.47
-17.2
-22.39
-27.82
-33.02
-37.29
-39.81
-39.91
-37.28
-32.15
-25.25
-17.56
-9.92
-2.85
3.56
9.48
15.08
20.34
24.99
28.6
30.89
31.81
31.62
30.74
29.56
28.37
27.25
26.19
25.13
24.07
22.94
21.67
20.07
17.97
15.27
12.05
8.57
5.08
1.76
-1.4
-4.67
-8.41
-12.99
-18.5
-24.63
-30.61
-35.36
-37.82
-37.32
-33.87
-28.12
-21.14
-14.01
-7.45
-1.62
3.71
8.9
14.13
19.23
23.73
27.04
28.8
28.95
27.86
26.1
24.27
22.77
21.73
21.04
20.44
19.75
18.81
17.54
15.86
13.66
10.89
7.58
3.92
0.15
-3.49
-6.96
-10.4
-14.17
-18.58
-23.68
-29.1
-34
-37.32
-38.11
-35.95
-31.07
-24.29
-16.69
-9.22
-2.46
3.5
8.8
13.64
18.08
21.96
25.03
27.06
27.99
27.96
27.31
26.39
25.49
24.66
23.8
22.67
21.07
18.94
16.42
13.77
11.2
8.8
6.5
4.09
1.41
-1.57
-4.78
-8.12
-11.64
-15.53
-20.01
-25.01
-30.03
-34.12
-36.21
-35.51
-31.94
-26.11
-19.08
-11.93
-5.34
0.51
5.82
10.87
15.76
20.31
24.11
26.82
28.27
28.59
28.14
27.35
26.58
26
25.61
25.26
24.75
23.91
22.62
20.84
18.64
16.11
13.42
10.67
7.9
5.05
2.05
-1.22
-4.83
-8.9
-13.53
-18.76
-24.34
-29.66
-33.73
-35.52
-34.36
-30.31
-24.18
-17.18
-10.43
-4.57
0.41
4.87
9.12
13.17
16.62
18.97
19.89
19.4
17.89
15.95
14.14
12.81
11.99
11.48
10.94
10.07
8.75
7.04
5.19
3.49
2.07
0.88
-0.32
-1.82
-3.86
-6.54
-9.88
-13.78
-18.02
-22.24
-25.88
-28.27
-28.79
-27.06
-23.16
-17.61
-11.2
-4.71
1.3
6.62
11.31
15.51
19.25
22.41
24.68
25.77
25.58
24.31
22.4
20.42
18.79
17.69
16.99
16.39
15.53
14.17
12.3
10.08
7.74
5.43
3.15
0.73
-2.05
-5.43
-9.52
-14.29
-19.54
-25.02
-30.35
-35.03
-38.44
-39.95
-39.08
-35.74
-30.26
-23.35
-15.85
-8.45
-1.51
4.83
10.66
15.94
20.54
24.2
26.69
27.92
28.01
27.26
26.02
24.63
23.25
21.91
20.48
18.79
16.79
14.53
12.2
9.96
7.88
5.84
3.64
1.06
-1.98
-5.49
-9.41
-13.72
-18.48
-23.61
-28.83
-33.5
-36.74
-37.73
-35.98
-31.61
-25.31
-18.05
-10.78
-4.08
1.95
7.5
12.88
18.14
23.02
27
29.55
30.4
29.63
27.73
25.37
23.19
21.55
20.53
19.88
19.24
18.24
16.63
14.36
11.52
8.32
4.92
1.47
-1.99
-5.44
-8.91
-12.46
-16.2
-20.33
-25.01
-30.15
-35.31
-39.64
-42.14
-41.97
-38.83
-33.11
-25.72
-17.72
-10.01
-3.05
3.09
8.53
13.29
17.25
20.13
21.67
21.83
20.8
19.05
17.1
15.4
14.14
13.33
12.78
12.23
11.44
10.24
8.56
6.4
3.83
0.91
-2.25
-5.54
-8.83
-12.01
-15.06
-18.12
-21.49
-25.55
-30.48
-35.98
-41.2
-44.89
-45.82
-43.27
-37.35
-28.99
-19.56
-10.3
-1.9
5.54
12.3
18.67
24.62
29.79
33.67
35.89
36.46
35.74
34.26
32.55
30.91
29.4
27.93
26.38
24.63
22.66
20.52
18.26
15.94
13.57
11.1
8.45
5.48
2.09
-1.83
-6.36
-11.57
-17.48
-24
-30.83
-37.37
-42.82
-46.42
-47.61
-46.25
-42.59
-37.08
-30.19
-22.34
-14
-5.83
1.29
6.44
8.98
8.78
6.27
2.21
-2.6
-7.48
-11.88
-15.16
-16.54
-15.12
-10.24
-1.76
9.91
23.88
39.2
55.08
70.96
86.33
100.6
113.09
123.25
131.02
136.96
142.01
146.84
151.3
154.23
154.01
149.44
140.56
128.83
116.41
105.19
95.93
88.26
81.27
74.53
68.54
64.47
63.45
65.72
70.45
76.12
81.33
85.39
88.43
91.08
93.85
96.63
98.51
97.95
93.34
83.57
68.53
49.35
28.24
7.97
-8.96
-20.83
-27.11
-28.33
-25.78
-21.02
-15.58
-10.65
-6.93
-4.58
-3.29
-2.58
-2.11
-1.94
-2.47
-4.13
-7.11
-11.08
-15.53
-20
-24.49
-29.38
-35.24
-42.39
-50.71
-59.73
-68.88
-77.84
-86.5
-94.92
-103
-110.32
-116.21
-119.89
-120.81
-118.8
-114.25
-107.84
-100.45
-92.83
-85.59
-79.18
-73.99
-70.34
-68.43
-68.17
-69.14
-70.6
-71.77
-71.92
-70.58
-67.53
-62.75
-56.33
-48.49
-39.56
-30.09
-20.77
-12.3
-5.35
-0.42
2.18
2.36
0.13
-4.3
-10.6
-18.21
-26.26
-33.62
-38.95
-41.03
-39.11
-33.21
-24.16
-13.27
-2.01
8.52
17.81
25.93
33.28
40.31
47.32
54.35
61.35
68.27
75.06
81.65
87.79
93
96.71
98.6
98.83
98.17
97.67
98.1
99.39
100.46
99.55
95.06
86.27
73.67
58.71
43
27.56
12.39
-3.34
-20.7
-40.27
-61.87
-84.54
-106.92
-127.6
-145.24
-158.7
-167.19
-170.48
-169.19
-164.88
-159.66
-155.39
-152.82
-151.26
-148.93
-143.98
-135.51
-124.02
-111.05
-98.4
-87.3
-78.27
-71.34
-66.55
-64.1
-64.07
-65.97
-68.61
-70.3
-69.57
-65.65
-58.73
-49.69
-39.7
-29.74
-20.52
-12.39
-5.45
0.4
5.32
9.42
12.64
14.76
15.52
14.87
13.09
10.75
8.4
6.4
4.77
3.43
2.37
1.84
2.23
3.88
6.74
10.3
13.7
16.15
17.19
17
16.12
15.19
14.45
13.54
11.48
7.13
-0.28
-10.58
-22.52
-34.13
-43.34
-48.85
-50.51
-49.27
-46.61
-43.75
-41.01
-37.68
-32.49
-24.45
-13.49
-0.79
11.61
21.47
27.09
27.76
23.86
16.58
7.68
-1.05
-8.17
-12.89
-15.33
-16.39
-17.49
-19.96
-24.55
-31.15
-38.89
-46.47
-52.66
-56.57
-57.72
-56.06
-51.83
-45.5
-37.64
-28.88
-19.65
-10.24
-0.71
8.95
18.65
27.99
36.38
43.05
47.43
49.44
49.57
48.83
48.36
48.97
50.85
53.52
56.11
57.84
58.31
57.55
55.9
53.6
50.68
46.89
41.89
35.37
27.19
17.36
6.08
-6.12
-18.35
-29.35
-37.77
-42.59
-43.53
-41.14
-36.65
-31.63
-27.48
-25.11
-24.68
-25.64
-26.93
-27.31
-25.88
-22.39
-17.36
-11.85
-7.05
-3.81
-2.57
-3.4
-6.24
-10.99
-17.36
-24.69
-31.8
-37.3
-39.95
-39.18
-35.3
-29.33
-22.66
-16.53
-11.77
-8.67
-7.1
-6.58
-6.45
-5.99
-4.46
-1.21
4.1
11.41
20.25
29.79
39.04
47.12
53.47
57.99
60.97
62.87
63.99
64.4
63.9
62.29
59.53
55.81
51.41
46.62
41.66
36.61
31.55
26.45
21.26
15.85
10.12
4.1
-1.98
-7.68
-12.56
-16.46
-19.66
-22.83
-26.86
-32.57
-40.34
-50.02
-60.87
-71.61
-80.57
-85.97
-86.34
-80.91
-69.9
-54.5
-36.56
-17.95
-0.16
16.11
30.79
44.14
56.4
67.53
77.28
85.4
91.82
96.73
100.44
103.17
105.03
105.98
105.97
105.09
103.48
101.36
98.8
95.81
92.17
87.61
81.8
74.56
65.84
55.87
45.09
34.04
23.22
12.96
3.45
-5.23
-12.96
-19.54
-24.79
-28.68
-31.33
-32.98
-33.79
-33.76
-32.76
-30.74
-27.88
-24.65
-21.56
-19.02
-16.99
-15.19
-13.16
-10.65
-7.66
-4.45
-1.3
1.6
4.22
6.64
8.87
10.83
12.33
13.19
13.32
12.74
11.48
9.56
6.95
3.57
-0.52
-5.13
-9.83
-14
-17.03
-18.49
-18.2
-16.28
-13.11
-9.11
-4.73
-0.29
3.99
8.01
11.76
15.23
18.34
20.9
22.62
23.2
22.52
20.76
18.38
15.96
13.97
12.56
11.54
10.48
8.96
6.82
4.16
1.24
-1.62
-4.31
-6.85
-9.4
-12.13
-15.23
-18.74
-22.64
-26.73
-30.65
-33.85
-35.73
-35.77
-33.74
-29.79
-24.45
-18.5
-12.6
-7.23
-2.51
1.72
5.66
9.4
12.83
15.68
17.64
18.58
18.56
17.85
16.75
15.49
14.18
12.79
11.23
9.48
7.53
5.43
3.27
1.06
-1.13
-3.31
-5.53
-7.89
-10.46
-13.36
-16.7
-20.51
-24.67
-28.82
-32.42
-34.78
-35.34
-33.89
-30.63
-26.16
-21.17
-16.22
-11.5
-6.91
-2.29
2.39
6.86
10.65
13.33
14.64
14.7
13.87
12.64
11.47
10.58
10
9.55
9.03
8.31
7.34
6.21
4.96
3.59
2.06
0.23
-1.97
-4.52
-7.34
-10.36
-13.53
-16.91
-20.56
-24.41
-28.16
-31.28
-33.14
-33.26
-31.53
-28.16
-23.68
-18.7
-13.74
-9.11
-4.9
-1.03
2.55
5.87
8.91
11.59
13.78
15.42
16.44
16.86
16.71
16.12
15.2
14.02
12.62
11
9.23
7.38
5.55
3.78
1.94
-0.14
-2.63
-5.56
-8.75
-11.99
-15.12
-18.19
-21.42
-24.98
-28.73
-32.15
-34.47
-34.97
-33.31
-29.68
-24.69
-19.07
-13.41
-8.01
-2.9
1.97
6.64
10.96
14.7
17.57
19.37
20.07
19.83
19.03
18.04
17.16
16.46
15.77
14.87
13.55
11.87
9.97
8.11
6.42
4.89
3.4
1.81
0.03
-2
-4.32
-7.03
-10.23
-13.97
-18.13
-22.38
-26.16
-28.87
-29.97
-29.19
-26.62
-22.61
-17.72
-12.45
-7.25
-2.33
2.15
6.14
9.58
12.48
14.83
16.62
17.83
18.43
18.46
18.01
17.24
16.31
15.26
14.06
12.61
10.93
9.15
7.49
6.09
4.9
3.68
2.13
0.06
-2.57
-5.6
-8.87
-12.3
-15.9
-19.63
-23.28
-26.43
-28.43
-28.74
-27.09
-23.64
-18.91
-13.61
-8.35
-3.49
0.9
4.91
8.63
12.06
15.05
17.4
18.95
19.66
19.67
19.19
18.52
17.89
17.48
17.29
17.25
17.23
17.1
16.79
16.23
15.39
14.2
12.57
10.42
7.74
4.65
1.32
-2.09
-5.54
-9.11
-12.92
-16.94
-20.93
-24.35
-26.69
-27.72
-27.66
-27.15
-26.82
-26.96
-27.3
-27.05
-25.26
-21.28
-15.04
-7.19
1
8
12.39
13.42
11.25
7.06
2.58
-0.52
-1.31
0.1
2.77
5.52
7.59
8.91
10.19
12.31
16.03
21.58
28.67
36.72
44.91
52.31
57.79
60.23
58.73
53.08
43.95
32.88
21.83
12.49
5.77
1.61
-0.64
-1.79
-2.28
-2.18
-1.43
-0.15
1.21
2.05
1.9
0.76
-0.92
-2.48
-3.42
-3.65
-3.49
-3.49
-4.04
-5.2
-6.7
-8.15
-9.25
-10.01
-10.64
-11.43
-12.61
-14.17
-16.04
-18.09
-20.33
-22.81
-25.61
-28.64
-31.62
-34.06
-35.46
-35.39
-33.72
-30.57
-26.32
-21.38
-16.18
-10.98
-5.89
-0.95
3.81
8.31
12.38
15.77
18.24
19.63
19.93
19.32
18.16
16.8
15.52
14.38
13.26
11.96
10.25
8.02
5.32
2.29
-0.92
-4.18
-7.45
-10.74
-14.04
-17.35
-20.64
-23.94
-27.25
-30.42
-33.16
-34.93
-35.14
-33.36
-29.55
-24.15
-17.87
-11.54
-5.74
-0.68
3.7
7.64
11.31
14.75
17.83
20.32
22.05
22.95
23.13
22.85
22.42
22.08
21.86
21.6
21
19.8
17.9
15.47
12.83
10.33
8.15
6.21
4.22
1.85
-1.12
-4.72
-8.83
-13.31
-17.98
-22.61
-26.83
-30.11
-31.82
-31.53
-29.19
-25.21
-20.3
-15.15
-10.23
-5.62
-1.16
3.39
8.1
12.78
17.09
20.59
22.96
24.15
24.36
23.98
23.48
23.13
22.98
22.84
22.39
21.34
19.55
17.07
14.06
10.75
7.37
4.12
1.18
-1.45
-3.87
-6.37
-9.29
-12.95
-17.41
-22.44
-27.46
-31.63
-34.14
-34.46
-32.52
-28.76
-24.01
-19.12
-14.69
-10.86
-7.31
-3.6
0.56
4.93
8.84
11.33
11.65
9.54
5.44
0.29
-4.86
-9.25
-12.7
-15.64
-18.73
-22.59
-27.4
-32.95
-38.74
-44.17
-48.63
-51.72
-53.22
-53.46
-53.59
-55.54
-61.64
-73.86
-92.78
-117.12
-143.76
-168.65
-188.03
-199.53
-202.62
-198.39
-188.82
-175.99
-161.64
-147.01
-133
-120.3
-109.4
-100.47
-93.2
-86.93
-80.75
-73.96
-66.15
-57.41
-48.22
-39.21
-30.93
-23.68
-17.45
-11.96
-6.86
-1.91
2.79
6.84
9.73
11.05
10.76
9.19
6.92
4.48
2.27
0.32
-1.59
-3.9
-7.2
-12.07
-18.81
-27.03
-35.46
-42.05
-44.52
-41.25
-31.98
-18.07
-1.98
13.53
26.2
34.65
38.3
37.15
31.61
22.51
11.13
-0.88
-11.93
-20.89
-27.39
-31.73
-34.31
-35.31
-34.52
-31.67
-26.74
-20.3
-13.34
-6.86
-1.55
2.33
4.84
6.08
5.92
4.08
0.17
-5.96
-14.04
-23.32
-32.58
-40.23
-44.6
-44.32
-38.6
-27.56
-12.13
6.23
25.95
45.77
64.85
82.68
98.8
112.59
123.26
130.08
132.65
131.2
126.65
120.43
114.09
108.82
105.18
102.92
101.24
99.23
96.25
92.07
86.8
80.63
73.58
65.5
56.3
46.15
35.47
24.76
14.3
3.98
-6.48
-17.14
-27.45
-36.2
-41.8
-42.89
-38.81
-29.92
-17.35
-2.59
12.98
28.41
43.2
57.13
70.04
81.64
91.44
98.98
103.96
106.42
106.83
105.95
104.57
103.3
102.31
101.43
100.22
98.22
95.19
91.18
86.49
81.54
76.55
71.56
66.3
60.45
53.68
45.8
36.72
26.43
15.06
3.08
-8.52
-18.18
-24.18
-25.15
-20.62
-11.28
1.3
15.2
28.81
41.17
52.06
61.67
70.26
77.89
84.38
89.37
92.55
93.76
93.17
91.16
88.33
85.32
82.65
80.63
79.32
78.51
77.84
76.89
75.32
73
70
66.63
63.22
60.1
57.4
55.03
52.69
49.91
46.18
41.18
35
28.31
22.3
18.49
18.18
22.12
30.18
41.48
54.69
68.47
81.78
94.03
104.93
114.27
121.66
126.46
127.88
125.29
118.54
108.08
94.92
80.34
65.52
51.26
37.9
25.53
14.07
3.45
-6.37
-15.4
-23.66
-31.2
-38
-44.08
-49.49
-54.42
-59.18
-64.24
-70.03
-76.86
-84.61
-92.63
-99.71
-104.37
-105.23
-101.56
-93.6
-82.43
-69.67
-56.87
-45.1
-34.79
-25.88
-18.17
-11.46
-5.72
-0.99
2.68
5.32
7.06
8.08
8.73
9.37
10.39
12.03
14.3
16.96
19.52
21.41
22.1
21.24
18.69
14.56
9.09
2.62
-4.59
-12.35
-20.64
-29.57
-39.2
-49.36
-59.36
-68.01
-73.75
-75.18
-71.44
-62.72
-50.18
-35.67
-21.12
-7.94
3.25
12.59
20.58
27.68
34.02
39.35
43.23
45.29
45.44
43.87
41.04
37.46
33.53
29.48
25.37
21.12
16.61
11.76
6.56
1.08
-4.52
-10.08
-15.46
-20.6
-25.55
-30.42
-35.47
-41
-47.29
-54.44
-62.04
-69.09
-74.1
-75.5
-72.18
-64.03
-52.03
-37.96
-23.77
-10.95
-0.22
8.5
15.59
21.44
26.11
29.45
31.31
31.74
31.09
29.91
28.66
27.59
26.65
25.57
24.13
22.24
19.94
17.4
14.66
11.71
8.43
4.72
0.58
-3.89
-8.53
-13.29
-18.26
-23.76
-30.19
-37.81
-46.48
-55.44
-63.39
-68.74
-70.17
-67.13
-60.05
-50.17
-39.16
-28.49
-19.08
-11.19
-4.59
1.05
6.01
10.33
13.96
16.77
18.73
19.9
20.46
20.66
20.71
20.75
20.75
20.56
20.01
18.99
17.54
15.76
13.7
11.22
8.06
3.9
-1.44
-7.99
-15.59
-24.07
-33.19
-42.6
-51.72
-59.6
-65.13
-67.27
-65.49
-59.89
-51.21
-40.56
-29.1
-17.78
-7.28
1.93
9.57
15.42
19.4
21.54
22.1
21.41
19.85
17.73
15.31
12.78
10.3
8.01
6.07
4.67
4.21
5.24
8.43
14.13
21.96
30.42
37.14
39.44
35.29
24.06
6.67
-14.83
-38.06
-60.91
-81.73
-99.11
-111.68
-118.12
-117.57
-110.1
-97
-80.46
-62.99
-46.72
-32.94
-22.11
-14.08
-8.52
-5.14
-3.76
-4.26
-6.38
-9.76
-13.91
-18.43
-23.08
-27.81
-32.66
-37.43
-41.58
-44.08
-43.73
-39.6
-31.47
-20.17
-7.52
4.18
12.85
17.21
17.15
13.46
7.39
0.04
-7.93
-16.22
-24.49
-32.02
-37.62
-39.97
-38.12
-32
-22.46
-10.96
0.94
12.16
22.23
31.19
39.33
46.74
53.23
58.33
61.53
62.52
61.39
58.61
54.89
50.96
47.35
44.32
41.82
39.6
37.38
34.93
32.18
29.13
25.85
22.45
18.99
15.51
12.03
8.47
4.62
0.16
-5.31
-11.99
-19.72
-27.76
-34.87
-39.61
-40.78
-37.85
-31.19
-21.89
-11.42
-1.11
8.16
16.1
22.79
28.48
33.31
37.18
39.88
41.2
41.11
39.81
37.65
35.04
32.28
29.52
26.73
23.87
20.85
17.69
14.45
11.18
7.92
4.67
1.38
-1.96
-5.42
-9.05
-12.94
-17.24
-22.15
-27.83
-34.28
-41.18
-47.78
-52.95
-55.41
-54.22
-49.1
-40.63
-30.02
-18.74
-8
1.55
9.82
17.02
23.39
28.93
33.46
36.74
38.61
39.13
38.53
37.18
35.42
33.49
31.47
29.39
27.19
24.88
22.47
19.93
17.18
14.08
10.53
6.51
2.14
-2.37
-6.88
-11.4
-16.18
-21.57
-27.86
-35.04
-42.6
-49.55
-54.64
-56.64
-54.8
-49.04
-39.98
-28.77
-16.71
-4.93
5.83
15.19
23.1
29.62
34.88
39.04
42.24
44.7
46.58
47.99
48.96
49.46
49.46
49.02
48.26
47.34
46.47
45.84
45.68
46.18
47.48
49.38
51.19
51.73
49.57
43.67
33.81
20.92
6.79
-6.55
-17.43
-24.85
-28.39
-27.83
-22.92
-13.54
-0.2
15.6
31.56
45.25
55.25
61.68
66.05
70.16
74.83
79.12
80.7
77.15
67.54
53.31
37.83
25.1
18.04
17.42
21.81
28.48
34.59
38.1
38.14
34.75
28.55
20.37
11.24
2.54
-4.14
-7.26
-5.83
0.11
9.25
19.32
27.83
32.85
33.87
31.82
28.78
26.96
27.75
31.17
35.91
40
41.65
39.9
34.8
27.03
17.46
6.72
-4.77
-16.53
-27.79
-37.49
-44.69
-49.02
-50.96
-51.81
-53.21
-56.63
-62.85
-71.9
-83.04
-95.02
-106.37
-115.66
-121.85
-124.54
-124.05
-121.28
-117.46
-113.87
-111.63
-111.64
-114.39
-119.76
-126.81
-133.71
-138.03
-137.5
-130.77
-118.01
-101.07
-83.01
-67.14
-56.05
-50.7
-50.14
-51.8
-52.48
-49.62
-42.38
-32.05
-21.49
-13.92
-11.63
-15.26
-23.78
-35.14
-47.08
-57.64
-65.3
-69
-68.2
-62.95
-54.11
-43.17
-31.92
-21.94
-14.26
-9.37
-7.52
-9.07
-14.49
-24.14
-37.91
-54.93
-73.78
-92.61
-109.66
-123.41
-132.76
-136.96
-135.67
-128.99
-117.55
-102.43
-85.08
-67.04
-49.71
-34.13
-20.83
-9.84
-0.7
7.34
15.09
23.14
31.69
40.5
49.14
57.13
64.14
70.04
74.82
78.52
81.11
82.46
82.38
80.63
76.94
71.09
62.86
52.21
39.34
24.82
9.68
-4.6
-16.39
-24.21
-27.19
-25.36
-19.64
-11.51
-2.52
6.19
14.07
21.12
27.5
33.29
38.23
41.87
43.88
44.2
43.2
41.49
39.67
38.1
36.88
35.85
34.78
33.54
32.05
30.32
28.34
26.05
23.39
20.3
16.73
12.66
8
2.63
-3.62
-10.83
-18.86
-27.25
-35.09
-41.16
-44.22
-43.31
-38.14
-29.21
-17.71
-5.18
6.99
17.94
27.42
35.66
42.96
49.43
54.85
58.85
61.08
61.56
60.6
58.71
56.38
53.89
51.24
48.3
44.93
41.11
36.96
32.72
28.66
25.02
21.94
19.38
17.12
14.79
11.99
8.36
3.74
-1.84
-8.12
-14.63
-20.67
-25.42
-28.03
-27.89
-24.79
-19.08
-11.56
-3.24
4.9
12.2
18.43
23.7
28.33
32.62
36.74
40.63
44.14
46.98
48.95
49.88
49.76
48.65
46.68
43.96
40.59
36.7
32.43
28.03
23.79
19.94
16.58
13.53
10.44
6.88
2.49
-2.9
-9.2
-16.23
-23.71
-31.31
-38.58
-44.84
-49.21
-50.69
-48.55
-42.64
-33.56
-22.63
-11.43
-1.28
7.13
13.83
19.27
23.89
27.76
30.54
31.83
31.46
29.73
27.39
25.32
24.26
24.61
26.49
29.9
34.85
41.4
49.49
58.83
68.75
78.34
86.62
92.8
96.29
96.65
93.6
86.96
76.94
64.24
50.05
35.91
23.23
13.1
6.07
2.28
1.35
2.47
4.33
5.3
3.89
-0.47
-6.91
-13.18
-16.34
-13.96
-5.11
9.37
27.15
45.3
61.03
72.18
77.33
75.76
67.49
53.37
34.97
14.38
-6.35
-25.69
-42.81
-57.48
-69.71
-79.31
-85.92
-89.09
-88.74
-85.32
-79.98
-74.27
-69.63
-66.98
-66.42
-67.14
-67.75
-66.63
-62.45
-54.5
-42.82
-28.14
-11.68
5.21
21.33
35.88
48.58
59.57
69.24
78.06
86.32
94.17
101.59
108.62
115.35
122.05
129.07
136.74
145.34
155.01
165.54
176.32
186.24
193.77
197.27
195.25
186.8
171.76
150.83
125.42
97.41
68.72
40.92
15.05
-8.33
-28.93
-46.29
-59.75
-68.58
-72.36
-71.42
-66.89
-60.4
-53.49
-47.08
-41.24
-35.41
-28.84
-21.08
-12.19
-2.72
6.54
14.85
21.7
26.91
30.6
33.19
35.22
37.31
39.96
43.39
47.43
51.52
54.91
56.94
57.25
55.98
53.63
50.8
47.86
44.86
41.46
37.2
31.68
24.79
16.74
8.14
-0.12
-6.99
-11.53
-13.26
-12.44
-10.26
-8.58
-9.34
-13.97
-22.89
-35.59
-51.03
-68.28
-86.9
-106.89
-128.27
-150.71
-173.33
-194.99
-214.68
-231.84
-246.31
-257.98
-266.42
-270.77
-270.15
-264.2
-253.48
-239.51
-224.33
-209.7
-196.58
-185
-174.45
-164.65
-155.91
-149.18
-145.31
-144.23
-144.58
-143.93
-139.7
-130.31
-115.96
-98.51
-80.7
-64.96
-52.52
-43.3
-36.24
-30.11
-24.01
-17.57
-10.66
-3.09
5.58
15.98
28.43
42.39
56.26
67.53
73.52
72.43
64.03
49.91
32.86
15.82
0.92
-10.99
-20.07
-26.78
-31.29
-33.24
-32.18
-28.1
-21.96
-15.6
-11.12
-10.04
-12.59
-17.58
-22.83
-25.95
-25.29
-20.45
-12.28
-2.46
7.31
15.89
23.03
29.22
35.24
41.58
48.16
54.39
59.49
62.96
64.77
65.39
65.42
65.31
65.14
64.73
63.91
62.74
61.57
60.81
60.68
60.95
60.99
60.01
57.31
52.46
45.24
35.54
23.31
8.58
-8.35
-26.8
-45.68
-63.62
-79.3
-91.73
-100.36
-105.14
-106.36
-104.43
-99.76
-92.49
-82.49
-69.38
-52.83
-32.95
-10.56
12.76
35
54.29
69.38
79.91
86.21
88.92
88.64
85.76
80.54
73.3
64.51
54.74
44.53
34.21
23.97
13.87
4.03
-5.29
-13.78
-21.16
-27.39
-32.69
-37.46
-42.03
-46.43
-50.21
-52.56
-52.68
-50.12
-45
-37.92
-29.74
-21.21
-12.87
-5.11
1.67
6.99
10.36
11.57
10.86
9
7
5.76
5.65
6.47
7.48
7.91
7.24
5.43
2.78
-0.41
-4.04
-8.31
-13.5
-19.72
-26.7
-33.92
-40.84
-47.25
-53.35
-59.46
-65.7
-71.57
-76.03
-77.71
-75.46
-68.76
-57.88
-43.78
-27.77
-11.12
5.3
21.08
36.32
51.31
66.28
81.08
95.15
107.66
117.84
125.37
130.71
135.01
139.89
146.91
157.04
170.29
185.67
201.46
215.62
226.32
232.44
233.72
230.84
225.1
217.95
210.54
203.24
195.54
186.1
173.2
155.54
133.05
107.31
81.45
59.35
44.41
38.48
41.24
50.34
62.22
73.22
80.63
83.23
81.26
75.93
68.66
60.64
52.65
45.16
38.58
33.22
29.12
25.84
22.43
17.85
11.53
3.82
-4.21
-11.27
-16.67
-20.64
-24.19
-28.37
-33.64
-39.59
-45.25
-49.8
-53.01
-55.41
-57.95
-61.42
-65.97
-70.91
-75.01
-76.9
-75.54
-70.51
-62.07
-51.08
-38.93
-27.52
-19.09
-15.95
-19.91
-31.72
-50.75
-75.16
-102.35
-129.76
-155.31
-177.57
-195.51
-208.29
-215.12
-215.43
-209.21
-197.26
-181.2
-163.23
-145.72
-130.75
-119.67
-112.99
-110.4
-111.08
-114.03
-118.39
-123.47
-128.82
-134.11
-139.11
-143.64
-147.51
-150.38
-151.68
-150.68
-146.61
-139
-127.81
-113.38
-96.32
-77.2
-56.69
-35.69
-15.5
2.27
16.11
25.12
29.43
30.14
28.87
27.11
25.72
24.75
23.67
21.86
18.92
14.9
10.21
5.38
0.84
-3.33
-7.35
-11.61
-16.44
-22.02
-28.32
-35.23
-42.64
-50.46
-58.48
-66.16
-72.56
-76.4
-76.5
-72.21
-63.71
-51.96
-38.38
-24.41
-11.03
1.35
12.81
23.56
33.74
43.2
51.52
58.22
62.89
65.41
66.02
65.2
63.51
61.35
58.97
56.45
53.85
51.3
48.96
46.9
44.93
42.66
39.64
35.56
30.43
24.51
18.07
11.2
3.71
-4.69
-14
-23.61
-32.23
-38.19
-40.02
-37
-29.44
-18.57
-6.04
6.69
18.65
29.54
39.44
48.53
56.83
64.07
69.86
73.86
75.98
76.39
75.5
73.78
71.64
69.31
66.86
64.21
61.25
57.89
54.09
49.84
45.22
40.26
35.04
29.61
24
18.19
12.11
5.62
-1.4
-9.1
-17.5
-26.42
-35.31
-43.21
-48.91
-51.22
-49.39
-43.4
-34.07
-22.73
-10.83
0.53
10.86
20.19
28.72
36.53
43.37
48.77
52.25
53.61
53.04
51.1
48.45
45.67
43.1
40.8
38.62
36.37
33.91
31.13
28.05
24.65
20.92
16.81
12.27
7.29
1.94
-3.76
-9.84
-16.54
-24.1
-32.62
-41.73
-50.44
-57.29
-60.74
-59.74
-54.11
-44.61
-32.64
-19.76
-7.19
4.42
14.89
24.34
32.86
40.37
46.67
51.52
54.77
56.43
56.69
55.79
54.03
51.66
48.93
46.05
43.2
40.46
37.78
35.05
32.01
28.41
24.09
18.98
13.19
6.95
0.52
-5.93
-12.45
-19.31
-26.93
-35.61
-45.2
-54.85
-63.06
-68.07
-68.45
-63.68
-54.33
-41.84
-27.98
-14.21
-1.38
10.21
20.57
29.64
37.24
43.12
47.16
49.49
50.45
50.41
49.65
48.27
46.28
43.71
40.72
37.57
34.54
31.82
29.41
27.1
24.61
21.63
18
13.72
8.98
3.96
-1.21
-6.55
-12.29
-18.69
-25.94
-33.85
-41.79
-48.59
-52.9
-53.51
-49.73
-41.69
-30.25
-16.75
-2.56
11.2
23.86
35.14
44.96
53.28
59.94
64.72
67.42
68.03
66.78
64.2
60.95
57.63
54.53
51.7
48.95
46.03
42.8
39.16
35.09
30.48
25.22
19.26
12.7
5.8
-1.05
-7.55
-13.63
-19.54
-25.81
-33.01
-41.53
-51.26
-61.41
-70.59
-77.13
-79.55
-77.07
-69.89
-59.09
-46.23
-32.83
-19.96
-8.08
2.71
12.48
21.16
28.53
34.31
38.26
40.37
40.76
39.7
37.51
34.53
31.15
27.75
24.74
22.4
20.8
19.7
18.56
16.78
13.87
9.67
4.41
-1.41
-7.26
-12.75
-17.81
-22.63
-27.61
-33.26
-39.95
-47.72
-56.05
-63.77
-69.26
-70.91
-67.73
-59.8
-48.3
-35.05
-21.81
-9.68
1.11
10.94
20.22
28.97
36.67
42.5
45.85
46.67
45.54
43.44
41.25
39.39
37.57
34.96
30.5
23.47
13.8
2.32
-9.46
-19.8
-27.4
-31.93
-34.1
-35.3
-36.9
-39.38
-41.93
-42.58
-38.84
-28.63
-11.12
12.67
39.66
64.92
82.64
87.52
76.6
50.69
14.6
-24.05
-57.25
-79.2
-87.9
-85.07
-74.53
-60.15
-44.43
-28.28
-11.97
3.8
17.41
26.78
30.48
28.74
23.6
18.25
15.58
16.96
21.66
27.21
30.58
29.39
22.78
11.55
-2.24
-15.7
-25.52
-28.21
-20.79
-1.82
27.44
62.57
96.69
122.52
134.86
132.3
117.44
95.32
71.25
48.95
30.07
14.74
2.75
-5.74
-10.25
-10.57
-7.35
-2.12
3.21
7.14
9.22
10.1
11.11
13.45
17.58
22.98
28.38
32.45
34.36
34.2
32.9
31.77
31.92
33.71
36.73
39.96
42.29
42.96
41.87
39.5
36.6
33.9
31.75
30.09
28.55
26.61
23.83
19.91
14.85
9.01
3.19
-1.48
-3.74
-2.6
2.33
10.68
21.42
33.23
44.82
55.26
64
70.79
75.55
78.21
78.79
77.38
74.24
69.79
64.52
58.89
53.22
47.65
42.18
36.75
31.33
25.87
20.39
14.72
8.51
1.36
-7.04
-16.69
-27.13
-37.63
-47.38
-55.87
-63.09
-69.57
-76.09
-83.38
-91.74
-100.91
-110
-117.78
-122.91
-124.38
-121.79
-115.41
-106.17
-95.31
-84.17
-73.78
-64.83
-57.57
-51.91
-47.56
-44.16
-41.32
-38.69
-35.99
-33.06
-29.97
-27.09
-25.03
-24.54
-26.2
-30.24
-36.38
-43.97
-52.2
-60.42
-68.35
-76.05
-83.82
-91.94
-100.61
-109.79
-119.24
-128.53
-137.15
-144.58
-150.54
-155.11
-158.76
-162.14
-165.73
-169.4
-172.37
-173.32
-170.95
-164.48
-154.04
-140.68
-125.94
-111.41
-98.18
-86.78
-77.19
-69.17
-62.55
-57.34
-53.77
-52.02
-51.99
-53.17
-54.62
-55.2
-53.87
-50.03
-43.65
-35.19
-25.37
-14.94
-4.47
5.6
15.03
23.91
32.76
42.65
54.96
70.72
90.02
111.6
133.1
151.81
165.49
172.77
173.03
165.93
151.1
128.29
98.07
62.38
24.57
-11.22
-41.32
-63.56
-77.79
-85.61
-89.61
-92.4
-95.81
-100.41
-105.44
-109.18
-109.57
-105.16
-95.88
-83.27
-69.88
-58.37
-50.26
-45.23
-41.03
-33.97
-19.8
5.3
43.36
93.19
149.43
202.9
242.83
260.42
252.35
222.24
179.26
134.38
96.06
67.67
47.72
32.21
17.6
2.52
-12.25
-25.1
-34.98
-41.81
-46.07
-47.91
-46.83
-41.84
-32.2
-18.21
-1.37
15.86
30.94
42.01
48.54
51.28
51.86
51.97
52.75
54.37
56.15
57.06
56.27
53.58
49.56
45.21
41.53
39.02
37.47
36.03
33.66
29.54
23.41
15.64
7.06
-1.46
-9.29
-16.24
-22.63
-29.12
-36.44
-45.05
-54.88
-65.08
-74.17
-80.34
-81.99
-78.32
-69.6
-57.08
-42.53
-27.68
-13.74
-1.23
9.81
19.57
28.16
35.56
41.65
46.36
49.82
52.23
53.87
54.91
55.42
55.35
54.7
53.55
52.05
50.37
48.53
46.37
43.55
39.74
34.75
28.71
22.06
15.34
9.09
3.52
-1.49
-6.39
-11.82
-18.46
-26.77
-36.78
-47.88
-58.81
-67.87
-73.25
-73.65
-68.65
-58.84
-45.61
-30.72
-15.77
-1.87
10.39
20.85
29.53
36.51
41.89
45.72
48.09
49.09
48.81
47.34
44.77
41.22
36.86
31.96
26.88
21.98
17.48
13.3
9.17
4.78
-0.01
-4.96
-9.56
-13.31
-16.06
-18.25
-20.84
-24.97
-31.51
-40.72
-52.05
-64.06
-74.44
-80.33
-78.73
-67.38
-45.61
-14.77
21.92
60.3
96.59
128.37
154.96
176.87
194.86
209.16
219.38
225.08
226.6
225.51
224.42
225.97
231.66
240.9
251.09
258.48
259.63
252.76
238.44
219.17
198.29
178.56
161.25
145.96
131.2
115.39
97.75
78.6
59.1
40.56
23.78
8.58
-6.06
-21.42
-38.2
-55.89
-72.91
-87.19
-97.1
-101.93
-101.74
-96.97
-88.16
-76.36
-63.68
-53.71
-50.86
-58.74
-78.3
-106.96
-139.32
-169.27
-192.39
-207.2
-215.04
-218.57
-220.13
-220.92
-220.9
-219.45
-216.09
-211.08
-205.59
-201.47
-200.37
-203.02
-208.53
-214.52
-218.04
-216.9
-210.8
-201.48
-191.83
-184.49
-180.52
-179.1
-178.04
-174.89
-167.89
-156.33
-140.37
-120.67
-98.07
-73.46
-47.77
-22.01
2.84
25.93
46.68
64.83
80.29
93
102.84
109.62
113.2
113.65
111.35
106.95
101.23
95.01
88.99
83.7
79.32
75.43
71.05
64.84
55.66
43.11
27.79
11.1
-5.27
-20.12
-33.09
-44.63
-55.55
-66.42
-77.16
-86.93
-94.29
-97.64
-95.69
-87.88
-74.62
-57.2
-37.45
-17.26
1.83
18.8
33.15
44.68
53.43
59.64
63.72
66.27
67.86
68.9
69.51
69.61
69.08
67.97
66.5
64.95
63.46
61.91
59.98
57.32
53.68
49.05
43.59
37.54
31.13
24.52
17.78
10.84
3.48
-4.61
-13.8
-24.19
-35.31
-46.04
-54.66
-59.3
-58.58
-52.08
-40.54
-25.6
-9.29
6.58
20.85
33.12
43.5
52.26
59.52
65.1
68.67
69.99
69.1
66.47
62.88
59.14
55.88
53.33
51.29
49.32
46.94
43.8
39.81
35.08
29.84
24.37
18.85
13.34
7.74
1.82
-4.74
-12.31
-21.16
-31.3
-42.28
-53.03
-61.95
-67.28
-67.59
-62.31
-51.95
-37.97
-22.23
-6.47
8.15
21.09
32.27
41.8
49.71
55.95
60.5
63.35
64.62
64.49
63.16
60.91
58.09
55.09
52.26
49.77
47.54
45.29
42.6
39.14
34.77
29.55
23.71
17.47
11.02
4.4
-2.45
-9.71
-17.65
-26.58
-36.7
-47.82
-59.07
-68.9
-75.31
-76.49
-71.52
-60.82
-46.04
-29.52
-13.47
0.71
12.63
22.62
31.29
39
45.65
50.78
53.9
54.78
53.63
50.99
47.63
44.19
41.07
38.32
35.73
32.97
29.78
26.07
21.92
17.4
12.53
7.26
1.48
-4.85
-11.64
-18.8
-26.29
-34.24
-42.82
-52.02
-61.3
-69.47
-74.87
-75.87
-71.5
-61.88
-48.22
-32.36
-16.21
-1.16
12.07
23.43
33.08
41.2
47.76
52.58
55.49
56.48
55.76
53.76
51.08
48.22
45.53
43.1
40.78
38.27
35.3
31.78
27.76
23.39
18.83
14.08
9.06
3.6
-2.4
-8.96
-16.04
-23.61
-31.78
-40.62
-49.97
-59.08
-66.63
-70.88
-70.25
-64
-52.6
-37.62
-21.23
-5.4
8.59
20.33
30.03
38.1
44.77
50.01
53.64
55.53
55.72
54.47
52.16
49.25
46.1
43
40.07
37.25
34.39
31.3
27.83
23.9
19.56
14.87
9.88
4.57
-1.07
-7.04
-13.37
-20.12
-27.49
-35.75
-45.05
-55.1
-64.98
-73.12
-77.67
-77.12
-70.9
-59.65
-45.09
-29.38
-14.43
-1.41
9.39
18.31
25.82
32.19
37.3
40.8
42.37
42.01
40.12
37.36
34.41
31.72
29.35
27.03
24.4
21.23
17.57
13.65
9.79
6.15
2.69
-0.79
-4.55
-8.75
-13.5
-18.84
-24.92
-31.92
-39.95
-48.7
-57.23
-64.08
-67.64
-66.75
-61.16
-51.75
-40.07
-27.88
-16.42
-6.25
2.78
11.07
18.89
26.17
32.56
37.58
40.86
42.29
42.07
40.63
38.5
36.09
33.66
31.19
28.54
25.53
22.15
18.53
14.92
11.5
8.27
5.06
1.54
-2.59
-7.57
-13.52
-20.5
-28.5
-37.29
-46.28
-54.41
-60.22
-62.29
-59.69
-52.43
-41.53
-28.67
-15.59
-3.53
7.03
16.21
24.38
31.69
37.96
42.7
45.51
46.25
45.22
43.01
40.26
37.46
34.76
32.07
29.11
25.61
21.46
16.76
11.73
6.65
1.77
-2.85
-7.25
-11.62
-16.17
-21.13
-26.69
-32.98
-40
-47.4
-54.48
-60.08
-62.94
-61.97
-56.75
-47.7
-36.03
-23.32
-11.05
-0.21
8.89
16.47
22.93
28.59
33.43
37.17
39.47
40.12
39.27
37.37
35.01
32.68
30.59
28.68
26.73
24.54
22.06
19.33
16.45
13.39
10.01
6.1
1.47
-3.96
-10.2
-17.15
-24.7
-32.59
-40.35
-47.22
-52.21
-54.35
-52.96
-47.91
-39.73
-29.4
-18.12
-6.93
3.46
12.72
20.83
27.81
33.63
38.14
41.08
42.26
41.73
39.75
36.85
33.65
30.57
27.81
25.26
22.66
19.76
16.45
12.81
9.02
5.23
1.44
-2.51
-6.86
-11.84
-17.56
-24.03
-31.16
-38.77
-46.54
-53.84
-59.75
-63.16
-63.11
-59.16
-51.66
-41.67
-30.67
-20.04
-10.73
-3.04
3.09
7.84
11.32
13.49
14.37
14.21
13.49
12.83
12.74
13.37
14.51
15.71
16.51
16.71
16.39
15.88
15.58
15.69
16.09
16.35
15.81
13.8
9.79
3.57
-4.7
-14.46
-24.76
-34.36
-41.93
-46.27
-46.68
-43.15
-36.4
-27.63
-18.14
-8.94
-0.59
6.8
13.33
19.04
23.79
27.29
29.24
29.55
28.41
26.21
23.48
20.69
18.15
15.95
14.02
12.17
10.2
7.93
5.27
2.19
-1.28
-5
-8.82
-12.59
-16.25
-19.89
-23.74
-28.1
-33.06
-38.37
-43.28
-46.68
-47.41
-44.68
-38.43
-29.35
-18.73
-7.95
1.9
10.3
17.22
22.91
27.56
31.17
33.52
34.34
33.53
31.32
28.18
24.69
21.34
18.33
15.6
12.94
10.14
7.11
3.93
0.69
-2.57
-5.95
-9.64
-13.8
-18.51
-23.73
-29.44
-35.64
-42.29
-49.18
-55.7
-60.8
-63.31
-62.26
-57.37
-49.17
-38.89
-27.94
-17.44
-7.93
0.66
8.62
16.13
22.98
28.72
32.85
35.13
35.79
35.35
34.48
33.7
33.23
33.03
32.78
32.16
30.9
28.84
26.03
22.55
18.51
13.97
8.94
3.33
-2.88
-9.73
-17.22
-25.27
-33.65
-41.83
-48.99
-54.04
-55.96
-54.19
-48.9
-40.96
-31.67
-22.26
-13.53
-5.74
1.26
7.68
13.52
18.51
22.25
24.46
25.1
24.43
22.95
21.21
19.64
18.42
17.48
16.54
15.29
13.53
11.24
8.54
5.62
2.53
-0.78
-4.57
-9.08
-14.5
-20.93
-28.3
-36.38
-44.69
-52.4
-58.43
-61.61
-61.12
-56.74
-48.97
-38.93
-27.92
-17.07
-7.15
1.52
8.92
15.14
20.33
24.55
27.83
30.14
31.42
31.65
30.93
29.5
27.72
25.96
24.48
23.36
22.5
21.7
20.73
19.44
17.71
15.45
12.59
9
4.58
-0.7
-6.8
-13.61
-20.97
-28.67
-36.39
-43.58
-49.43
-52.93
-53.15
-49.59
-42.48
-32.75
-21.82
-11.07
-1.4
6.93
14.21
20.86
27.07
32.6
36.93
39.51
40.06
38.79
36.28
33.25
30.33
27.81
25.71
23.85
21.99
19.97
17.72
15.18
12.31
9.04
5.3
1.07
-3.64
-8.8
-14.42
-20.54
-27.26
-34.55
-42.12
-49.31
-55.07
-58.24
-57.84
-53.48
-45.51
-34.97
-23.24
-11.64
-1.04
8.19
16.11
22.92
28.73
33.52
37.17
39.57
40.69
40.73
39.97
38.76
37.34
35.85
34.26
32.43
30.24
27.59
24.5
21
17.17
13.04
8.66
4.1
-0.57
-5.28
-10.07
-15.08
-20.58
-26.83
-33.92
-41.58
-49.08
-55.25
-58.75
-58.46
-53.9
-45.45
-34.3
-22.07
-10.31
-0.04
8.4
15.18
20.62
24.94
28.02
29.62
29.55
27.9
25.08
21.73
18.47
15.74
13.71
12.29
11.3
10.51
9.73
8.83
7.71
6.28
4.47
2.19
-0.63
-4.1
-8.35
-13.48
-19.61
-26.72
-34.56
-42.48
-49.46
-54.2
-55.49
-52.57
-45.55
-35.36
-23.65
-12.19
-2.39
5.04
10.21
13.69
16.15
18.02
19.28
19.62
18.66
16.24
12.52
7.99
3.22
-1.36
-5.54
-9.33
-12.7
-15.54
-17.65
-18.74
-18.72
-17.74
-16.14
-14.4
-12.91
-11.91
-11.53
-11.84
-12.97
-15.1
-18.34
-22.48
-26.8
-30.04
-30.69
-27.36
-19.45
-7.36
7.5
23.22
37.98
50.67
61.07
69.52
76.48
82.09
86.03
87.73
86.76
83.11
77.26
70.06
62.37
54.86
47.89
41.49
35.6
30.09
24.83
19.71
14.6
9.28
3.56
-2.72
-9.56
-16.89
-24.54
-32.35
-40.3
-48.52
-57.22
-66.47
-75.96
-84.82
-91.63
-94.83
-93.2
-86.34
-74.92
-60.51
-45.02
-30.08
-16.59
-4.66
6.1
16.09
25.36
33.54
40.01
44.33
46.47
46.85
46.2
45.21
44.28
43.44
42.4
40.77
38.22
34.61
29.99
24.58
18.66
12.52
6.33
0.14
-6.05
-12.27
-18.48
-24.69
-30.92
-37.22
-43.59
-49.71
-54.89
-58.01
-57.84
-53.49
-44.79
-32.38
-17.57
-1.92
13.08
26.33
37.13
45.12
50.3
52.93
53.65
53.45
53.59
55.21
58.95
64.52
70.41
74.32
73.84
67.48
55.3
39.02
21.32
4.81
-8.9
-19.47
-27.62
-34.33
-40.23
-45.4
-49.59
-52.67
-54.92
-56.96
-59.44
-62.47
-65.32
-66.5
-64.32
-57.61
-46.34
-31.75
-16.02
-1.38
10.64
19.66
26.33
31.77
36.84
41.74
45.95
48.69
49.41
48.09
45.36
42.12
39.17
36.89
35.16
33.48
31.3
28.23
24.2
19.41
14.22
8.95
3.82
-1.16
-6.13
-11.28
-16.82
-22.97
-29.88
-37.65
-46.12
-54.71
-62.32
-67.5
-68.83
-65.47
-57.54
-46.12
-32.89
-19.53
-7.22
3.61
13.08
21.51
29.04
35.54
40.62
43.93
45.35
45.05
43.46
41.09
38.42
35.71
33.02
30.27
27.31
24.08
20.59
16.89
13.04
9.02
4.77
0.19
-4.73
-10
-15.6
-21.59
-28.16
-35.51
-43.57
-51.78
-59
-63.71
-64.5
-60.57
-52.18
-40.54
-27.4
-14.46
-2.8
7.32
16.17
24.18
31.54
38
42.99
45.99
46.78
45.65
43.22
40.28
37.46
35.05
33.02
31.12
29.04
26.54
23.53
20.06
16.27
12.25
8.07
3.63
-1.2
-6.58
-12.63
-19.35
-26.72
-34.59
-42.58
-50.02
-55.9
-59.02
-58.32
-53.34
-44.46
-32.85
-20.11
-7.74
3.3
12.7
20.67
27.52
33.35
37.96
40.99
42.14
41.45
39.34
36.45
33.51
31
29.07
27.55
26.08
24.29
22
19.21
16.08
12.79
9.4
5.84
1.93
-2.46
-7.39
-12.8
-18.6
-24.74
-31.17
-37.62
-43.46
-47.66
-49.05
-46.8
-40.77
-31.66
-20.78
-9.56
0.94
10.19
18.18
25.07
30.91
35.58
38.84
40.46
40.47
39.11
36.81
34.07
31.32
28.85
26.74
24.88
23
20.82
18.13
14.86
11.09
6.99
2.77
-1.4
-5.4
-9.24
-13.04
-17.05
-21.64
-27.07
-33.37
-40.09
-46.32
-50.76
-52.18
-49.81
-43.63
-34.51
-23.86
-13.2
-3.72
4.02
10.03
14.64
18.15
20.68
22.15
22.46
21.72
20.24
18.43
16.66
15.12
13.8
12.51
11.1
9.44
7.51
5.36
3.07
0.67
-1.84
-4.55
-7.56
-10.98
-14.87
-19.25
-24.12
-29.5
-35.28
-41.1
-46.23
-49.61
-50.13
-47.04
-40.32
-30.83
-20.01
-9.4
-0.16
7.31
13.18
17.98
22.11
25.67
28.47
30.18
30.65
29.94
28.38
26.45
24.54
22.84
21.29
19.69
17.81
15.54
12.91
10.09
7.23
4.41
1.52
-1.6
-5.16
-9.35
-14.21
-19.78
-25.93
-32.38
-38.55
-43.57
-46.42
-46.23
-42.7
-36.14
-27.51
-18.03
-8.77
-0.4
6.9
13.24
18.78
23.56
27.42
30.13
31.48
31.46
30.25
28.21
25.82
23.45
21.36
19.53
17.76
15.79
13.4
10.62
7.62
4.67
1.89
-0.75
-3.47
-6.57
-10.3
-14.77
-20.01
-25.9
-32.15
-38.18
-43.08
-45.83
-45.56
-41.92
-35.35
-26.9
-17.91
-9.5
-2.21
4.01
9.56
14.84
19.84
24.2
27.33
28.81
28.58
27
24.78
22.6
20.9
19.75
18.88
17.95
16.7
15.08
13.22
11.29
9.33
7.23
4.82
1.97
-1.35
-5.03
-9.01
-13.35
-18.2
-23.61
-29.28
-34.5
-38.24
-39.48
-37.65
-32.83
-25.76
-17.54
-9.26
-1.68
4.93
10.61
15.49
19.59
22.74
24.62
25.03
23.95
21.68
18.74
15.7
12.94
10.6
8.62
6.76
4.91
3.08
1.46
0.19
-0.66
-1.24
-1.86
-2.9
-4.7
-7.49
-11.35
-16.24
-22.04
-28.45
-34.94
-40.67
-44.65
-45.95
-43.98
-38.79
-31.05
-21.89
-12.48
-3.73
3.93
10.51
16.18
21.04
24.99
27.75
29.06
28.85
27.37
25.1
22.58
20.27
18.39
16.9
15.62
14.3
12.76
10.93
8.8
6.46
3.93
1.23
-1.67
-4.83
-8.32
-12.19
-16.56
-21.56
-27.32
-33.68
-40.15
-45.74
-49.28
-49.71
-46.58
-40.23
-31.66
-22.22
-13.08
-4.95
2.02
8.01
13.24
17.81
21.6
24.38
25.98
26.33
25.55
23.89
21.65
19.19
16.79
14.63
12.76
11.1
9.52
7.87
6.08
4.06
1.75
-0.89
-3.93
-7.33
-10.97
-14.72
-18.57
-22.68
-27.28
-32.53
-38.13
-43.29
-46.82
-47.6
-45.03
-39.29
-31.28
-22.28
-13.46
-5.46
1.57
7.86
13.68
19.1
23.97
27.98
30.84
32.39
32.66
31.87
30.35
28.48
26.57
24.81
23.23
21.69
19.97
17.9
15.39
12.5
9.34
6
2.48
-1.27
-5.28
-9.55
-14.06
-18.86
-24.05
-29.73
-35.74
-41.53
-46.14
-48.46
-47.63
-43.43
-36.38
-27.58
-18.28
-9.46
-1.62
5.24
11.32
16.83
21.78
25.97
29.14
31.07
31.72
31.26
30.02
28.39
26.75
25.31
24.12
23.08
21.98
20.56
18.59
15.91
12.45
8.29
3.65
-1.11
-5.67
-9.81
-13.57
-17.22
-21.24
-26.1
-31.99
-38.6
-45.07
-50.11
-52.41
-51.06
-45.93
-37.72
-27.73
-17.44
-8.06
-0.19
6.13
11.29
15.69
19.59
22.99
25.75
27.69
28.76
29.03
28.69
27.94
26.98
25.95
24.99
24.13
23.31
22.37
21.07
19.26
16.84
13.87
10.49
6.82
2.93
-1.17
-5.53
-10.21
-15.28
-20.89
-27.05
-33.48
-39.44
-43.78
-45.27
-43.06
-37.1
-28.19
-17.76
-7.25
2.27
10.37
17.18
23.04
28.22
32.77
36.5
39.18
40.68
41.05
40.49
39.25
37.55
35.52
33.19
30.63
27.87
25
22.08
19.13
16.07
12.85
9.43
5.83
2.16
-1.54
-5.26
-9.14
-13.45
-18.53
-24.64
-31.7
-39.16
-45.96
-50.7
-52.13
-49.58
-43.29
-34.35
-24.28
-14.52
-5.96
1.16
7.14
12.34
16.97
20.86
23.67
25.11
25.16
24.11
22.49
20.83
19.48
18.48
17.65
16.68
15.28
13.28
10.75
7.87
4.93
2.1
-0.59
-3.31
-6.33
-9.94
-14.31
-19.48
-25.33
-31.59
-37.73
-43.02
-46.51
-47.34
-45
-39.57
-31.78
-22.68
-13.43
-4.82
2.77
9.35
15.09
20.13
24.46
27.88
30.18
31.18
30.9
29.55
27.56
25.39
23.42
21.81
20.5
19.26
17.85
16.14
14.1
11.82
9.34
6.66
3.69
0.34
-3.47
-7.82
-12.81
-18.56
-25.12
-32.27
-39.38
-45.44
-49.22
-49.68
-46.37
-39.6
-30.44
-20.22
-10.21
-1.18
6.65
13.48
19.56
25.03
29.77
33.47
35.89
36.91
36.71
35.64
34.14
32.54
31.01
29.55
28.04
26.33
24.27
21.78
18.81
15.33
11.37
7.02
2.44
-2.22
-6.85
-11.5
-16.41
-21.91
-28.2
-35.1
-41.9
-47.4
-50.27
-49.54
-45.02
-37.39
-27.94
-18.06
-8.75
-0.41
7.03
13.8
20.01
25.52
30.02
33.2
34.87
34.97
33.55
30.81
26.99
22.42
17.46
12.39
7.49
2.9
-1.21
-4.74
-7.66
-10.07
-12.18
-14.28
-16.61
-19.25
-22.15
-25.25
-28.57
-32.27
-36.51
-41.24
-46.02
-50
-52.14
-51.6
-48.02
-41.66
-33.3
-23.94
-14.47
-5.44
2.94
10.65
17.67
23.82
28.77
32.19
33.9
34.02
32.96
31.32
29.67
28.33
27.34
26.54
25.65
24.46
22.79
20.54
17.61
13.92
9.51
4.61
-0.45
-5.32
-9.88
-14.32
-19.05
-24.55
-31.1
-38.49
-46.09
-52.83
-57.57
-59.33
-57.66
-52.75
-45.46
-37.01
-28.59
-20.98
-14.28
-8.06
-1.66
5.36
12.96
20.55
27.32
32.57
35.92
37.5
37.73
37.17
36.35
35.63
35.2
35.15
35.42
35.84
36.16
36.04
35.19
33.43
30.73
27.18
23.01
18.45
13.69
8.84
3.83
-1.49
-7.2
-13.14
-18.72
-23.01
-25.01
-24.12
-20.37
-14.56
-7.87
-1.45
4.04
8.58
12.56
16.39
20.19
23.63
26.04
26.81
25.61
22.6
18.38
13.81
9.74
6.68
4.77
3.72
3.08
2.42
1.5
0.3
-1.02
-2.33
-3.54
-4.66
-5.76
-6.91
-8.21
-9.81
-12
-15.1
-19.27
-24.3
-29.52
-33.79
-35.9
-34.93
-30.61
-23.46
-14.49
-4.92
4.27
12.53
19.7
25.82
30.91
34.88
37.51
38.62
38.13
36.19
33.05
29.05
24.56
19.9
15.37
11.25
7.73
4.91
2.75
1.06
-0.44
-2.06
-4.06
-6.54
-9.47
-12.67
-15.94
-19.17
-22.44
-26.03
-30.28
-35.31
-40.81
-45.96
-49.57
-50.57
-48.38
-43.23
-36.03
-28.1
-20.7
-14.65
-10.24
-7.35
-5.7
-4.93
-4.72
-4.79
-4.81
-4.5
-3.68
-2.32
-0.44
1.91
4.72
7.94
11.47
14.98
17.99
20.05
20.88
20.54
19.41
17.97
16.61
15.45
14.32
12.84
10.58
7.17
2.54
-2.99
-8.66
-13.36
-15.9
-15.4
-11.63
-5.1
3.13
11.84
20.06
27.39
33.88
39.85
45.49
50.7
55.02
57.78
58.37
56.46
52.11
45.73
38.04
29.86
21.99
15.07
9.54
5.56
3.14
2.09
2.12
2.81
3.6
3.85
2.86
0.1
-4.68
-11.36
-19.48
-28.37
-37.26
-45.31
-51.72
-55.78
-56.96
-55.19
-50.87
-44.88
-38.34
-32.27
-27.31
-23.59
-20.84
-18.64
-16.67
-14.8
-13.09
-11.69
-10.76
-10.37
-10.49
-10.99
-11.56
-11.76
-11.05
-9
-5.39
-0.35
5.71
12.18
18.49
24.25
29.24
33.43
36.87
39.67
41.93
43.77
45.28
46.44
47.18
47.46
47.39
47.29
47.64
48.9
51.37
55.05
59.66
64.66
69.4
73.18
75.42
75.8
74.46
71.98
69.26
67.2
66.43
67.05
68.83
71.38
74.39
77.75
81.43
85.36
89.23
92.58
94.92
96.02
96.02
95.34
94.41
93.29
91.53
88.3
82.73
74.34
63.32
50.32
36.14
21.33
6.04
-9.63
-25.3
-40.05
-52.57
-61.78
-67.31
-69.73
-70.22
-70.05
-70.09
-70.75
-72.07
-74.09
-76.83
-80.2
-83.79
-86.75
-88.21
-87.61
-85.07
-81.31
-77.36
-74.07
-71.8
-70.41
-69.32
-67.73
-64.64
-59.21
-50.93
-40.14
-28.2
-17.26
-9.65
-7.03
-9.76
-16.82
-26.3
-36.08
-44.56
-50.86
-54.68
-56.02
-54.85
-51.15
-45.06
-37.07
-27.96
-18.7
-10.02
-2.26
4.73
11.35
17.82
23.85
28.51
30.54
29.01
24
16.93
10.24
6.71
8.41
15.93
28.14
42.69
56.81
68.22
75.55
78.3
76.45
70.05
59.1
43.75
24.56
2.78
-19.87
-41.46
-60.35
-75.53
-86.65
-93.96
-98.1
-99.83
-99.97
-99.32
-98.64
-98.57
-99.6
-101.95
-105.62
-110.4
-116.01
-122.16
-128.4
-134.05
-138.19
-139.79
-138.04
-132.58
-123.6
-111.58
-96.99
-80.15
-61.38
-41.45
-21.84
-4.58
8.39
15.98
18.32
16.59
12.38
7.03
1.38
-4.04
-8.67
-11.69
-12.21
-9.66
-4.18
3.38
11.73
19.64
26.34
31.64
35.77
39.06
41.7
43.53
44.17
43.24
40.59
36.49
31.55
26.57
22.18
18.64
15.81
13.24
10.48
7.23
3.5
-0.5
-4.47
-8.19
-11.64
-14.95
-18.35
-22.09
-26.41
-31.45
-37.22
-43.5
-49.64
-54.62
-57.26
-56.55
-52.18
-44.6
-34.94
-24.54
-14.49
-5.33
2.89
10.29
16.95
22.63
26.96
29.65
30.67
30.35
29.21
27.79
26.45
25.3
24.18
22.87
21.15
18.94
16.32
13.46
10.54
7.61
4.58
1.27
-2.48
-6.81
-11.77
-17.41
-23.82
-31.02
-38.82
-46.62
-53.46
-58.15
-59.64
-57.4
-51.68
-43.42
-34
-24.71
-16.39
-9.27
-3.1
2.47
7.6
12.08
15.5
17.49
18.09
17.82
17.48
17.82
19.22
21.54
24.26
26.83
28.92
30.51
31.79
32.88
33.78
34.27
34.14
33.29
31.77
29.77
27.31
24.21
20.03
14.42
7.44
-0.22
-7.35
-12.55
-14.69
-13.2
-8.2
-0.45
8.9
18.57
27.35
34.37
39.23
42.03
43.2
43.24
42.43
40.89
38.62
35.89
33.24
31.42
30.97
31.89
33.6
35.21
35.96
35.54
34.17
32.35
30.5
28.71
26.68
23.91
19.99
14.79
8.62
2.09
-3.97
-8.75
-11.65
-12.4
-11.16
-8.38
-4.73
-0.91
2.53
5.23
7.11
8.31
9.11
9.87
10.89
12.29
14.04
15.97
17.92
19.82
21.71
23.61
25.45
26.97
27.76
27.48
25.93
23.2
19.59
15.49
11.28
7.17
3.22
-0.65
-4.59
-8.75
-13.31
-18.43
-24.27
-30.84
-37.86
-44.63
-50.06
-52.91
-52.2
-47.59
-39.61
-29.47
-18.65
-8.44
0.49
8.09
14.73
20.77
26.29
31.08
34.74
37.02
37.92
37.8
37.14
36.37
35.66
34.91
33.93
32.49
30.55
28.2
25.66
23.12
20.74
18.5
16.24
13.71
10.59
6.6
1.58
-4.49
-11.48
-18.99
-26.36
-32.64
-36.71
-37.62
-34.9
-28.77
-20.11
-10.22
-0.31
8.83
16.85
23.81
29.84
35.02
39.22
42.3
44.14
44.8
44.47
43.42
41.92
40.15
38.22
36.2
34.11
31.98
29.79
27.52
25.05
22.26
19
15.21
10.89
6.14
1.01
-4.46
-10.34
-16.73
-23.62
-30.73
-37.4
-42.65
-45.41
-44.85
-40.73
-33.5
-24.19
-14.05
-4.19
4.72
12.45
19.11
24.88
29.82
33.8
36.6
38.01
37.95
36.59
34.23
31.32
28.27
25.45
23.06
21.13
19.5
17.86
15.9
13.41
10.34
6.78
2.97
-0.83
-4.48
-7.91
-11.27
-14.82
-18.92
-23.82
-29.57
-35.77
-41.61
-45.93
-47.56
-45.74
-40.35
-32.02
-21.88
-11.25
-1.23
7.53
14.81
20.77
25.7
29.84
33.27
35.93
37.63
38.22
37.67
36.11
33.87
31.29
28.73
26.41
24.38
22.55
20.71
18.65
16.14
13.07
9.44
5.37
1.04
-3.31
-7.52
-11.52
-15.37
-19.34
-23.71
-28.65
-33.98
-39.06
-42.87
-44.31
-42.62
-37.73
-30.32
-21.59
-12.77
-4.71
2.29
8.37
13.82
18.73
22.97
26.25
28.3
29.1
28.84
27.84
26.44
24.89
23.27
21.65
20.06
18.56
17.17
15.82
14.32
12.41
9.88
6.64
2.77
-1.52
-6
-10.5
-14.94
-19.44
-24.17
-29.35
-35.04
-40.98
-46.49
-50.51
-51.95
-50.03
-44.72
-36.74
-27.36
-17.9
-9.3
-1.94
4.37
9.99
15.27
20.28
24.84
28.61
31.28
32.65
32.72
31.67
29.78
27.41
24.86
22.37
20.02
17.78
15.56
13.18
10.5
7.35
3.72
-0.34
-4.61
-8.81
-12.68
-16.1
-19.14
-22.12
-25.45
-29.46
-34.12
-38.86
-42.58
-44
-42.15
-36.8
-28.64
-19.07
-9.69
-1.68
4.5
9.06
12.54
15.32
17.46
18.7
18.77
17.65
15.68
13.41
11.41
9.98
9.09
8.42
7.55
6.14
4.06
1.47
-1.31
-3.92
-6.17
-8.09
-9.97
-12.2
-15.11
-18.81
-23.22
-28.14
-33.32
-38.5
-43.28
-47.07
-49.12
-48.76
-45.69
-40.19
-33.1
-25.47
-18.28
-12.1
-7.05
-2.95
0.43
3.1
4.89
5.42
4.42
1.91
-1.67
-5.53
-8.74
-10.55
-10.67
-9.28
-7.01
-4.61
-2.77
-1.92
-2.24
-3.71
-6.23
-9.65
-13.83
-18.61
-23.84
-29.42
-35.22
-41.03
-46.49
-50.98
-53.69
-53.84
-50.93
-44.95
-36.48
-26.47
-15.96
-5.72
3.94
13.1
22.05
30.93
39.63
47.7
54.59
59.78
62.98
64.17
63.63
61.79
59.16
56.21
53.28
50.55
48.08
45.82
43.69
41.55
39.28
36.77
33.96
30.81
27.35
23.6
19.55
15.11
10.15
4.57
-1.53
-7.74
-13.22
-16.91
-17.8
-15.38
-9.87
-2.23
6.18
14.15
21.03
26.74
31.66
36.15
40.24
43.56
45.57
45.86
44.43
41.72
38.48
35.46
33.07
31.28
29.55
27.11
23.27
17.71
10.63
2.61
-5.67
-13.78
-21.61
-29.32
-37.09
-44.87
-52.46
-59.51
-65.79
-71.24
-75.77
-79.19
-80.99
-80.55
-77.33
-71.15
-62.28
-51.32
-38.99
-25.97
-12.76
0.3
12.85
24.64
35.42
45.14
53.89
61.92
69.43
76.41
82.56
87.27
89.9
89.91
87.09
81.57
73.77
64.23
53.54
42.2
30.73
19.57
9.09
-0.43
-8.87
-16.28
-22.83
-28.71
-34.07
-38.87
-42.83
-45.46
-46.05
-43.99
-38.93
-31.02
-20.83
-9.26
2.83
14.77
26.22
37.06
47.15
56.24
63.9
69.66
73.13
74.2
73.01
69.85
65.06
58.87
51.5
43.12
34.06
24.72
15.52
6.72
-1.6
-9.49
-17.08
-24.39
-31.31
-37.69
-43.49
-48.91
-54.36
-60.25
-66.71
-73.43
-79.59
-84.13
-86.05
-84.79
-80.46
-73.8
-65.91
-57.91
-50.61
-44.31
-38.88
-33.99
-29.35
-24.89
-20.75
-17.2
-14.46
-12.6
-11.55
-11.14
-11.18
-11.49
-11.91
-12.4
-12.95
-13.67
-14.71
-16.08
-17.7
-19.33
-20.72
-21.77
-22.59
-23.49
-24.88
-27.13
-30.44
-34.8
-39.95
-45.36
-50.25
-53.7
-54.83
-53.13
-48.58
-41.71
-33.46
-24.81
-16.56
-9.14
-2.63
3.06
8.06
12.41
15.99
18.63
20.21
20.69
20.29
19.3
18.1
17.02
16.16
15.49
14.81
13.91
12.59
10.73
8.3
5.34
1.97
-1.59
-5.09
-8.24
-10.89
-13.07
-15.04
-17.27
-20.18
-23.94
-28.29
-32.44
-35.32
-35.87
-33.47
-28.21
-20.82
-12.44
-4.13
3.4
10
15.87
21.31
26.46
31.24
35.42
38.79
41.24
42.78
43.48
43.4
42.66
41.46
40.1
38.95
38.25
38.03
37.97
37.54
36.24
33.81
30.33
26.19
21.9
17.75
13.81
9.88
5.64
0.79
-4.83
-11.22
-18.14
-25.13
-31.47
-36.32
-38.94
-38.91
-36.33
-31.83
-26.28
-20.52
-15.06
-10.01
-5.23
-0.57
3.94
8.05
11.4
13.69
14.83
14.99
14.52
13.79
13.09
12.52
12.05
11.55
10.83
9.73
8.15
6.01
3.31
0.14
-3.32
-6.82
-10.06
-12.85
-15.14
-17.12
-19.21
-21.98
-25.93
-31.29
-37.82
-44.73
-50.8
-54.73
-55.55
-52.96
-47.44
-40.02
-31.9
-24.02
-16.84
-10.34
-4.3
1.44
6.78
11.35
14.69
16.47
16.63
15.46
13.52
11.47
9.89
9.15
9.31
10.11
11.05
11.61
11.36
10.16
8.12
5.48
2.47
-0.81
-4.36
-8.16
-12.21
-16.42
-20.76
-25.25
-29.93
-34.59
-38.74
-41.58
-42.19
-39.95
-34.8
-27.31
-18.53
-9.58
-1.29
5.95
12.21
17.72
22.61
26.8
29.99
31.85
32.26
31.41
29.75
27.89
26.31
25.25
24.67
24.31
23.93
23.31
22.37
21.11
19.51
17.52
15.04
12.03
8.51
4.6
0.44
-3.9
-8.48
-13.55
-19.35
-25.94
-32.89
-39.26
-43.75
-45.18
-42.98
-37.5
-29.88
-21.6
-13.92
-7.53
-2.57
1.09
3.41
3.98
2.12
-2.69
-10.42
-20.34
-31.11
-41.17
-49.18
-54.29
-56.25
-55.26
-51.81
-46.48
-39.93
-32.83
-25.82
-19.39
-13.62
-8.13
-2.12
5.22
14.29
24.83
35.83
45.88
53.54
57.83
58.56
56.3
52.23
47.78
44.26
42.61
43.22
46.03
50.55
56.13
62.06
67.76
72.83
77.03
80.3
82.61
83.9
84.05
82.82
80
75.5
69.36
61.83
53.25
44.09
34.82
25.92
17.84
10.98
5.66
2.06
0.28
0.26
1.77
4.41
7.65
10.84
13.31
14.46
13.87
11.45
7.41
2.37
-2.79
-7.19
-10.18
-11.55
-11.55
-10.6
-9.15
-7.43
-5.39
-2.89
0.24
4.07
8.54
13.48
18.55
23.31
27.25
29.88
30.83
29.98
27.46
23.64
19.02
14.15
9.53
5.43
1.85
-1.56
-5.33
-9.94
-15.62
-22.15
-28.98
-35.46
-41.14
-45.99
-50.4
-55.02
-60.49
-67.18
-74.95
-83.01
-89.98
-94.08
-93.64
-87.54
-75.68
-59.09
-39.62
-19.41
-0.27
16.76
31.39
43.96
55.01
64.97
74.07
82.28
89.39
95.1
99.08
101.13
101.33
100.02
97.71
94.84
91.49
87.41
82.09
75.16
66.58
56.79
46.53
36.63
27.64
19.71
12.6
5.82
-1.18
-8.92
-17.76
-27.86
-39.19
-51.42
-63.93
-75.85
-86.04
-93.3
-96.63
-95.48
-89.97
-81.01
-70.06
-58.79
-48.65
-40.48
-34.47
-30.31
-27.54
-25.82
-25.05
-25.29
-26.49
-28.34
-30.27
-31.66
-32.01
-31.15
-29.25
-26.77
-24.33
-22.53
-21.85
-22.48
-24.28
-26.83
-29.56
-32.06
-34.23
-36.41
-39.16
-43.11
-48.6
-55.57
-63.56
-71.75
-79.1
-84.45
-86.75
-85.2
-79.6
-70.43
-58.84
-46.27
-34.05
-23.06
-13.59
-5.57
1.22
6.82
11.08
13.74
14.74
14.25
12.66
10.41
7.83
5.1
2.3
-0.47
-3.09
-5.45
-7.62
-9.87
-12.55
-15.94
-19.94
-24.11
-27.7
-30.01
-30.64
-29.62
-27.34
-24.45
-21.71
-19.85
-19.47
-20.81
-23.57
-26.88
-29.45
-30.01
-27.67
-22.33
-14.58
-5.42
4.2
13.65
22.69
31.26
39.25
46.4
52.26
56.41
58.6
58.86
57.45
54.78
51.32
47.49
43.65
40.08
36.98
34.4
32.28
30.42
28.56
26.47
23.98
20.98
17.47
13.5
9.18
4.61
-0.2
-5.35
-11.1
-17.75
-25.42
-33.82
-42.12
-49.1
-53.42
-54.14
-50.96
-44.38
-35.51
-25.64
-15.87
-6.84
1.24
8.39
14.67
19.98
24.1
26.83
28.12
28.22
27.53
26.48
25.39
24.34
23.27
22.05
20.61
18.91
17
14.88
12.5
9.78
6.61
3.01
-0.92
-4.96
-8.91
-12.65
-16.25
-20.05
-24.44
-29.69
-35.68
-41.73
-46.7
-49.32
-48.61
-44.25
-36.63
-26.74
-15.79
-4.8
5.56
15.06
23.71
31.7
39.1
45.9
52.05
57.54
62.46
67.04
71.51
76
80.4
84.43
87.79
90.4
92.46
94.34
96.31
98.26
99.58
99.42
97
91.96
84.41
74.71
63.15
49.73
34.24
16.49
-3.13
-23.5
-42.77
-58.77
-69.65
-74.38
-73.01
-66.54
-56.62
-45.05
-33.41
-22.84
-13.99
-6.92
-1.24
3.8
9.1
15.41
23
31.57
40.33
48.38
55.15
60.62
65.39
70.27
75.94
82.61
89.9
97.04
103.24
107.9
110.81
111.99
111.57
109.62
106.1
100.97
94.27
86.24
77.29
67.89
58.58
49.88
42.3
36.35
32.33
30.24
29.57
29.45
28.83
26.84
23.08
17.61
10.87
3.32
-4.65
-12.87
-21.24
-29.59
-37.66
-45.17
-51.98
-58.05
-63.48
-68.3
-72.43
-75.64
-77.73
-78.71
-78.86
-78.69
-78.78
-79.56
-81.2
-83.68
-86.91
-90.98
-96.12
-102.71
-111.01
-120.84
-131.36
-141.04
-147.95
-150.12
-146.14
-135.5
-118.77
-97.49
-73.91
-50.51
-29.66
-13.13
-1.76
4.72
7.58
8.77
10.23
13.27
18.06
23.57
27.96
29.43
26.97
20.92
12.86
4.98
-0.87
-3.75
-3.91
-2.38
-0.39
1.02
0.91
-1.89
-8.95
-21.74
-40.87
-65.08
-91.07
-114.38
-130.94
-138.7
-138.3
-132.58
-125.05
-118.37
-113.43
-109.6
-105.52
-100.18
-93.35
-85.48
-77.15
-68.52
-59.12
-48.11
-34.58
-18.05
1.24
22.47
44.29
65.19
83.82
99.18
110.76
118.5
122.64
123.52
121.57
117.25
111.15
103.93
96.25
88.59
81.12
73.71
65.99
57.61
48.5
39.06
30.25
23.42
19.96
20.76
25.92
34.59
45.3
56.39
66.58
75.24
82.34
88.2
93.18
97.39
100.71
102.89
103.63
102.67
99.86
95.1
88.39
79.75
69.19
56.87
43.13
28.76
14.88
2.76
-6.62
-12.91
-16.56
-18.58
-20.17
-22.27
-25.27
-29.05
-33.19
-37.2
-40.81
-43.81
-46.03
-47.17
-46.79
-44.51
-40.29
-34.56
-28.26
-22.51
-18.23
-15.83
-15.08
-15.3
-15.65
-15.52
-14.66
-13.2
-11.48
-9.73
-8.03
-6.33
-4.55
-2.86
-1.59
-1.11
-1.53
-2.42
-2.95
-2.22
0.19
4.01
8.23
11.56
12.98
12.15
9.33
5.15
0.18
-5.34
-11.58
-18.87
-27.44
-37.22
-47.72
-57.92
-66.47
-71.83
-72.62
-68.03
-58.16
-44.15
-28
-12.04
1.68
11.83
18.04
20.68
20.52
18.39
14.98
10.88
6.56
2.55
-0.68
-2.89
-4.21
-5.28
-7.32
-11.92
-20.68
-34.78
-54.49
-78.9
-106.12
-133.63
-158.96
-180.29
-196.63
-207.84
-214.36
-216.97
-216.54
-213.9
-209.64
-203.94
-196.5
-186.69
-173.8
-157.37
-137.51
-114.84
-90.35
-65
-39.62
-14.74
9.16
31.63
52.17
70.33
85.93
99.01
109.91
119.04
126.7
133.05
138.13
141.99
144.76
146.56
147.42
147.17
145.44
141.9
136.45
129.32
120.98
111.88
102.34
92.4
82.04
71.26
60.18
49.03
38.05
27.56
18.07
10.37
5.42
4.07
6.66
12.68
20.87
29.46
36.77
41.71
43.91
43.64
41.44
37.76
32.77
26.42
18.42
8.56
-3.35
-17.31
-33.27
-51
-70.08
-89.96
-109.83
-128.76
-145.78
-160.01
-170.86
-178.21
-182.6
-184.92
-185.92
-185.78
-184.03
-180
-173.62
-165.84
-158.41
-152.94
-149.79
-147.53
-143.34
-134.47
-119.55
-99.38
-76.51
-54.01
-34.1
-17.46
-3.47
9.06
21.02
32.59
43.35
52.6
59.88
65.2
68.96
71.64
73.55
74.64
74.67
73.39
70.77
67.11
62.98
59.02
55.68
53.16
51.24
49.46
47.26
44.15
39.76
33.89
26.43
17.34
6.82
-4.54
-15.66
-25.04
-31.08
-32.54
-28.95
-20.76
-9.21
4.15
17.91
31.06
43.13
53.99
63.59
71.82
78.41
83.01
85.37
85.47
83.67
80.57
76.98
73.62
70.95
69.1
67.78
66.59
65.08
63.01
60.32
57.07
53.38
49.24
44.59
39.28
33.11
25.91
17.48
7.67
-3.54
-15.76
-28.07
-39
-46.74
-49.7
-47.01
-38.95
-26.82
-12.56
1.97
15.49
27.45
37.89
47
54.83
61.19
65.81
68.52
69.33
68.5
66.41
63.52
60.29
57.11
54.25
51.8
49.67
47.6
45.35
42.62
39.25
35.09
30.06
24.2
17.68
10.84
4.02
-2.63
-9.31
-16.59
-25.08
-34.95
-45.56
-55.37
-62.21
-64.08
-59.75
-49.36
-34.36
-17.07
0.06
15.11
27.11
36.1
42.77
48.09
52.83
57.34
61.43
64.57
66.12
65.59
62.87
58.25
52.38
46.14
40.52
36.48
34.56
34.66
35.75
36.07
33.68
27.36
17.27
5.05
-6.87
-16.37
-22.51
-25.9
-28.12
-30.75
-34.46
-38.64
-41.66
-41.56
-36.81
-26.77
-11.86
6.66
26.99
47.26
65.93
82.02
95.22
105.69
113.84
119.97
124.28
126.9
128.04
128.07
127.38
126.2
124.51
122.07
118.71
114.45
109.63
104.73
100.12
95.82
91.48
86.47
80.17
72.1
62.05
50.03
36.29
21.2
5.18
-11.32
-28.07
-44.85
-61.35
-76.78
-89.77
-98.56
-101.55
-97.94
-88.19
-73.97
-57.61
-41.4
-26.9
-14.82
-5.14
2.44
8.16
12.08
14.17
14.43
13.02
10.28
6.67
2.73
-1.05
-4.28
-6.71
-8.27
-9.01
-9.08
-8.71
-8.14
-7.69
-7.69
-8.46
-10.14
-12.7
-15.99
-19.79
-24.03
-28.93
-34.9
-42.27
-50.89
-59.93
-67.87
-72.92
-73.62
-69.34
-60.56
-48.65
-35.37
-22.29
-10.41
-0.12
8.65
16.15
22.56
27.86
31.89
34.39
35.15
34.13
31.49
27.63
23.08
18.34
13.86
9.88
6.54
3.85
1.73
-0.02
-1.72
-3.78
-6.58
-10.36
-15.17
-20.85
-27.2
-34.04
-41.36
-49.26
-57.76
-66.66
-75.27
-82.41
-86.6
-86.55
-81.64
-72.18
-59.46
-45.29
-31.39
-18.92
-8.34
0.48
7.85
13.96
18.8
22.2
24.07
24.48
23.66
21.91
19.55
16.85
14.13
11.7
9.81
8.54
7.73
6.98
5.8
3.85
1.02
-2.49
-6.38
-10.43
-14.62
-19.19
-24.49
-30.81
-38.18
-46.26
-54.22
-60.86
-64.79
-64.85
-60.41
-51.68
-39.67
-25.91
-12.08
0.47
10.97
19.19
25.35
29.78
32.83
34.74
35.68
35.8
35.25
34.25
33.01
31.69
30.4
29.16
27.92
26.6
25.04
23.14
20.76
17.82
14.34
10.44
6.34
2.29
-1.56
-5.24
-8.89
-12.81
-17.36
-22.88
-29.56
-37.18
-44.99
-51.72
-55.88
-56.22
-52.24
-44.41
-34.07
-22.9
-12.31
-3.08
4.77
11.6
17.79
23.43
28.32
32.12
34.57
35.61
35.32
33.81
31.24
27.79
23.75
19.56
15.66
12.37
9.73
7.5
5.25
2.59
-0.68
-4.57
-8.85
-13.28
-17.65
-21.86
-25.99
-30.26
-34.95
-40.41
-46.78
-53.86
-60.97
-66.97
-70.54
-70.57
-66.61
-59.01
-48.85
-37.62
-26.69
-16.94
-8.64
-1.54
4.8
10.68
16.08
20.7
24.09
26
26.42
25.71
24.4
22.99
21.8
20.88
20.1
19.26
18.22
16.87
15.2
13.2
10.87
8.24
5.4
2.44
-0.55
-3.58
-6.76
-10.26
-14.19
-18.46
-22.69
-26.31
-28.56
-28.74
-26.31
-21.06
-13.09
-2.81
9.11
21.96
35.1
48.06
60.48
71.91
81.62
88.62
91.79
90.37
84.28
74.24
61.5
47.33
32.6
17.57
2.28
-13.1
-27.98
-41.37
-52.35
-60.56
-66.4
-70.86
-75.13
-80.01
-85.7
-91.93
-98.2
-103.95
-108.71
-112.14
-114.09
-114.74
-114.65
-114.66
-115.46
-117.25
-119.37
-120.42
-118.68
-112.72
-101.88
-86.48
-67.73
-47.27
-26.83
-7.75
9.14
23.6
35.77
46.05
54.7
61.84
67.41
71.34
73.54
74.06
73
70.47
66.63
61.81
56.52
51.41
47.04
43.72
41.35
39.46
37.44
34.77
31.31
27.33
23.36
20.04
17.81
16.7
16.31
15.96
14.84
12.46
8.78
4.4
0.4
-1.9
-1.34
2.77
10.45
21.13
33.79
47.32
60.71
73.22
84.39
94.01
101.89
107.91
111.81
113.32
112.17
108.13
101.02
90.63
76.7
58.94
37.31
12.32
-14.77
-42.01
-67.17
-88.44
-105.01
-117.32
-126.71
-134.68
-142.06
-148.66
-153.43
-155.15
-153.28
-148.47
-142.6
-138.24
-138.11
-144.13
-156.68
-173.99
-192.02
-204.85
-206.02
-190.56
-157.1
-109.06
-54.16
-2.21
38.07
61.83
69.3
65.04
55.61
47.03
42.98
44.42
50.45
59.42
69.84
80.55
90.51
98.51
103.29
104.15
101.45
96.75
92.35
90.48
92.28
97.27
103.56
108.66
110.46
108.03
101.84
93.49
85.05
78.26
73.99
72.02
71.15
69.56
65.44
57.49
45.24
29.24
10.91
-7.75
-24.6
-37.85
-46.37
-49.84
-48.61
-43.35
-34.7
-23.06
-8.56
8.72
28.39
49.61
71.11
91.48
109.44
123.92
134.1
139.22
138.61
131.94
119.53
102.61
83.19
63.67
46.19
32.08
21.6
14.09
8.3
2.84
-3.44
-11.29
-20.98
-32.32
-44.78
-57.69
-70.46
-82.7
-94.26
-105.07
-114.97
-123.43
-129.62
-132.5
-131.24
-125.53
-115.78
-103.14
-89.26
-75.98
-64.97
-57.35
-53.49
-52.94
-54.5
-56.66
-58.02
-57.78
-55.94
-53.15
-50.45
-48.76
-48.49
-49.28
-49.88
-48.4
-42.75
-31.4
-14.1
7.69
30.94
51.79
66.77
73.85
73.03
66.09
55.74
44.42
33.57
23.43
13.54
3.51
-6.49
-15.54
-22.21
-25.24
-23.99
-18.7
-10.5
-1.4
6.17
9.99
9.12
4.76
0.36
0.63
9.58
28.44
54.76
83.12
107.23
122.33
126.64
121.3
109.09
92.83
74.54
55.49
36.96
20.72
8.88
3.06
3.54
8.89
16.39
23
26.43
25.7
20.87
12.52
1.36
-11.89
-25.98
-38.9
-48.2
-51.98
-49.99
-44.01
-37.12
-32.13
-30.1
-30
-29.66
-27.4
-23.32
-19.34
-18.02
-20.87
-27.27
-34.67
-39.87
-40.61
-36.66
-29.68
-22.24
-16.54
-13.48
-12.64
-12.84
-13.03
-12.89
-12.9
-13.82
-16.06
-19.16
-21.9
-22.92
-21.33
-17.21
-11.61
-6.07
-2.07
-0.43
-1.2
-3.84
-7.62
-11.98
-16.9
-22.68
-29.78
-38.47
-48.39
-58.55
-67.46
-73.53
-75.36
-72
-63.07
-48.98
-30.93
-10.82
9.04
26.44
39.82
48.65
53.32
54.93
54.73
53.78
52.77
52.11
51.99
52.49
53.49
54.71
55.73
56.2
55.92
54.96
53.39
51.3
48.68
45.36
41.08
35.67
29.14
21.73
13.92
6.23
-0.89
-7.32
-13.23
-19.11
-25.55
-32.99
-41.46
-50.37
-58.56
-64.48
-66.7
-64.29
-57.24
-46.38
-33.22
-19.35
-6.11
5.69
15.77
24.16
30.99
36.3
40.09
42.39
43.34
43.24
42.4
41.17
39.68
38.04
36.3
34.6
33.16
32.13
31.48
30.92
29.94
28
24.73
20.1
14.38
8.06
1.6
-4.63
-10.58
-16.47
-22.77
-29.97
-38.36
-47.72
-57.15
-65.15
-70.03
-70.41
-65.72
-56.43
-43.83
-29.65
-15.5
-2.49
8.82
18.37
26.28
32.8
38.1
42.41
45.9
48.78
51.15
52.97
54.09
54.29
53.45
51.64
49.14
46.42
43.9
41.74
39.76
37.5
34.37
29.92
24.02
16.94
9.2
1.48
-5.75
-12.22
-18.05
-23.65
-29.59
-36.46
-44.57
-53.79
-63.35
-71.92
-77.86
-79.74
-76.74
-69.05
-57.79
-44.69
-31.5
-19.47
-9.21
-0.66
6.5
12.62
17.83
22.07
25.23
27.23
28.12
28.05
27.23
25.87
24.18
22.37
20.69
19.33
18.38
17.73
17.07
15.95
13.9
10.66
6.27
1.04
-4.58
-10.14
-15.46
-20.61
-25.93
-31.86
-38.83
-46.95
-55.93
-64.91
-72.59
-77.47
-78.29
-74.5
-66.38
-55.02
-41.95
-28.65
-16.21
-5.19
4.24
12.09
18.43
23.26
26.61
28.64
29.66
30.05
30.24
30.46
30.76
30.95
30.76
30.04
28.81
27.25
25.62
24
22.26
20.06
17.05
13.07
8.29
3.16
-1.79
-6.17
-9.94
-13.4
-17.09
-21.62
-27.44
-34.65
-42.79
-50.85
-57.33
-60.7
-59.75
-54.04
-44.11
-31.28
-17.24
-3.53
8.82
19.42
28.29
35.65
41.64
46.31
49.65
51.71
52.64
52.67
52.07
51.01
49.61
47.88
45.82
43.46
40.9
38.31
35.85
33.54
31.26
28.67
25.38
21.05
15.6
9.21
2.33
-4.54
-11
-16.93
-22.44
-27.88
-33.72
-40.37
-47.96
-56.21
-64.18
-70.49
-73.57
-72.19
-65.94
-55.4
-41.99
-27.5
-13.5
-0.97
9.71
18.6
25.87
31.62
35.88
38.68
40.21
40.72
40.54
39.82
38.67
37.02
34.88
32.36
29.72
27.2
24.97
22.96
20.88
18.35
15.06
10.86
5.9
0.48
-5.07
-10.5
-15.76
-21.03
-26.56
-32.7
-39.71
-47.69
-56.48
-65.47
-73.57
-79.36
-81.44
-78.92
-71.8
-61
-48.06
-34.63
-21.97
-10.73
-1.05
7.19
14.1
19.65
23.87
26.94
29.24
31.24
33.31
35.51
37.63
39.36
40.51
41.22
41.86
42.92
44.76
47.4
50.55
53.71
56.39
58.21
58.99
58.65
57.22
54.82
51.67
48.13
44.57
41.24
38.18
35.3
32.46
29.81
27.85
27.32
28.97
33.11
39.46
47.12
54.98
62.06
67.79
72.13
75.3
77.56
79.05
79.73
79.46
78.25
76.29
73.99
71.87
70.41
69.89
70.32
71.47
72.89
74.07
74.49
73.68
71.12
66.18
58.23
46.84
32.09
14.78
-3.67
-21.64
-37.87
-51.84
-63.83
-74.51
-84.48
-93.88
-102.35
-109.19
-113.67
-115.16
-113.22
-107.65
-98.63
-86.84
-73.44
-59.91
-47.66
-37.64
-30.18
-25.07
-21.79
-19.76
-18.4
-17.12
-15.37
-12.67
-8.86
-4.2
0.58
4.59
7.14
8.07
7.86
7.44
7.78
9.5
12.65
16.79
21.29
25.58
29.4
32.7
35.43
37.4
38.15
37.1
33.73
27.74
19.16
8.33
-4.03
-16.78
-28.39
-37
-40.88
-38.97
-31.36
-19.46
-5.6
7.84
19.38
29.13
38.95
51.81
70.87
98.16
133.73
175.35
219
259.9
293.65
317.04
328.31
327
313.6
289.26
255.81
215.72
171.88
127.22
84.01
43.46
5.6
-30.35
-65.52
-101
-137.57
-175.72
-215.45
-256.19
-296.58
-334.62
-367.94
-394.21
-411.45
-418.41
-414.57
-400.23
-376.58
-345.58
-309.81
-272.01
-234.64
-199.54
-167.84
-140.08
-116.49
-97.09
-81.63
-69.48
-59.64
-50.96
-42.41
-33.49
-24.21
-15.08
-6.82
-0.11
4.68
7.53
8.86
9.4
10.03
11.58
14.57
19.15
25.17
32.22
39.83
47.36
54.07
59.04
61.36
60.29
55.58
47.53
37.05
25.49
14.38
5.19
-0.92
-3.28
-1.84
2.84
9.73
17.62
25.47
32.6
38.81
44.2
48.92
53
56.23
58.25
58.83
57.97
55.94
53.22
50.24
47.29
44.45
41.72
39.07
36.5
33.98
31.44
28.67
25.39
21.39
16.65
11.41
6.14
1.34
-2.64
-5.73
-8.23
-10.66
-13.57
-17.41
-22.32
-28.1
-34.18
-39.66
-43.46
-44.54
-42.22
-36.42
-27.78
-17.48
-6.87
2.91
11.28
18.14
23.77
28.44
32.27
35.19
37.08
37.95
37.93
37.26
36.05
34.26
31.69
28.22
23.93
19.27
14.85
11.23
8.58
6.66
4.89
2.66
-0.35
-4.11
-8.26
-12.41
-16.28
-19.83
-23.12
-26.3
-29.47
-32.65
-35.91
-39.27
-42.7
-45.96
-48.54
-49.75
-48.85
-45.41
-39.48
-31.58
-22.65
-13.7
-5.58
1.22
6.56
10.65
13.76
16.17
18
19.25
19.86
19.81
19.17
18.09
16.76
15.24
13.49
11.33
8.61
5.3
1.61
-2.11
-5.51
-8.42
-10.99
-13.54
-16.39
-19.68
-23.24
-26.73
-29.85
-32.53
-34.99
-37.65
-40.92
-45.02
-49.83
-54.91
-59.51
-62.73
-63.7
-61.78
-56.79
-49.13
-39.7
-29.68
-20.18
-11.97
-5.35
-0.26
3.54
6.33
8.33
9.69
10.59
11.22
11.74
12.29
12.82
13.19
13.15
12.52
11.27
9.59
7.77
6.09
4.63
3.2
1.44
-0.97
-4.21
-8.17
-12.46
-16.66
-20.41
-23.57
-26.23
-28.72
-31.45
-34.88
-39.25
-44.49
-50
-54.75
-57.54
-57.39
-53.86
-47.18
-38.18
-27.96
-17.55
-7.74
1.07
8.67
15.03
20.18
24.21
27.31
29.71
31.7
33.49
35.19
36.74
37.96
38.6
38.45
37.43
35.65
33.36
30.85
28.24
25.46
22.22
18.14
12.97
6.71
-0.42
-7.93
-15.28
-21.99
-27.77
-32.53
-36.48
-39.97
-43.42
-47.06
-50.77
-54.02
-55.97
-55.78
-52.9
-47.26
-39.3
-29.81
-19.64
-9.54
0.04
8.88
16.94
24.28
30.95
37.09
42.82
48.35
53.8
59.2
64.43
69.13
72.81
74.91
74.93
72.61
68
61.54
53.87
45.7
37.56
29.67
21.95
14.26
6.53
-1.06
-8.09
-14.18
-19.12
-23.15
-26.88
-31.21
-37.04
-45.01
-55.28
-67.4
-80.35
-92.75
-103.25
-110.81
-115.01
-116.03
-114.47
-110.91
-105.57
-98.24
-88.44
-75.77
-60.33
-42.83
-24.52
-6.86
8.79
21.46
30.6
36.08
38.11
37.1
33.56
28.1
21.42
14.24
7.31
1.28
-3.51
-7.21
-10.45
-14.25
-19.5
-26.64
-35.34
-44.68
-53.47
-60.79
-66.4
-70.85
-75.34
-81.17
-89.26
-99.45
-110.27
-119
-122.26
-116.92
-100.99
-74.38
-39.19
0.61
39.92
73.66
98
111.22
114.08
109.38
100.91
92.21
85.54
81.62
79.84
79.07
78.27
76.83
74.53
71.36
67.38
62.81
58.12
53.99
51.11
49.8
49.61
49.42
47.63
42.95
34.88
23.98
11.69
-0.27
-10.55
-18.65
-24.97
-30.59
-36.83
-44.67
-54.33
-65.03
-75.05
-82.08
-84.02
-79.59
-68.82
-53.01
-34.27
-14.81
3.67
20.16
34.33
46.19
55.8
63.18
68.36
71.37
72.36
71.52
69.05
65.14
60.01
53.99
47.58
41.39
36.01
31.77
28.62
26.1
23.47
20.04
15.37
9.45
2.62
-4.53
-11.37
-17.46
-22.52
-26.64
-30.17
-33.68
-37.79
-42.82
-48.58
-54.13
-58.01
-58.63
-54.8
-46.25
-33.7
-18.65
-2.86
12.23
25.73
37.41
47.38
55.82
62.76
68.02
71.38
72.79
72.54
71.37
70.33
70.59
73.11
78.4
86.33
96.08
106.36
115.62
122.43
125.79
125.34
121.42
115.02
107.43
99.89
93.17
87.36
