-73.52
-90.04
-105.12
-115.51
-118.17
-111.26
-94.89
-71.09
-43.19
-14.72
11.56
34.25
53.1
68.55
81.11
91.03
98.32
103.02
105.43
106.26
106.43
106.8
107.91
109.75
111.95
113.97
115.41
116.14
116.41
116.56
116.97
117.92
119.61
122.02
124.57
125.85
123.55
114.91
97.65
70.94
35.83
-4.84
-47.23
-87.31
-121.42
-146.61
-160.7
-162.57
-152.44
-132.18
-104.94
-74.48
-44.14
-16.16
8.31
28.73
44.54
54.93
59.14
56.89
48.84
36.52
21.86
6.67
-7.74
-20.53
-31.17
-39.33
-44.76
-47.56
-48.24
-47.66
-46.73
-46.04
-45.64
-45.1
-43.86
-41.69
-38.94
-36.58
-36.04
-38.94
-46.69
-60.09
-78.97
-101.76
-125.55
-146.48
-160.76
-165.75
-160.85
-147.66
-129.37
-109.62
-91.32
-75.97
-63.66
-53.53
-44.47
-35.66
-26.79
-17.95
-9.45
-1.49
5.9
12.84
19.51
26.11
32.75
39.45
46.08
52.23
57.2
60.05
59.88
56.16
49.05
39.41
28.57
17.89
8.28
-0.06
-7.67
-15.57
-24.86
-36.37
-50.13
-65.03
-78.8
-88.31
-90.55
-83.7
-68.03
-46
-21.56
1.16
19.22
31.6
39.07
43.36
46.13
48.26
49.79
50.32
49.58
47.77
45.52
43.52
42.21
41.63
41.5
41.57
41.83
42.61
44.32
47.12
50.76
54.56
57.68
59.5
59.68
58.14
54.83
49.58
42.05
31.9
18.89
2.97
-15.58
-35.99
-56.79
-75.7
-89.82
-96.3
-93.23
-80.45
-59.73
-34.31
-7.83
16.69
37.56
54.36
67.54
77.76
85.48
90.9
94
94.74
93.22
89.67
84.41
77.84
70.43
62.64
54.89
47.46
40.35
33.35
25.98
17.78
8.45
-2.08
-13.56
-25.55
-37.54
-49.13
-60.17
-70.84
-81.63
-93.21
-106.08
-120.17
-134.4
-146.58
-153.8
-153.25
-143.25
-123.98
-97.54
-67.41
-37.35
-10.43
11.62
28.4
40.56
49.19
55.37
59.92
63.32
65.81
67.47
68.25
68.11
67.04
65.14
62.71
60.32
58.71
58.57
60.17
63.09
66.08
67.45
65.58
59.57
49.59
36.76
22.68
8.83
-4
-15.91
-27.76
-40.83
-56.2
-74.24
-94.08
-113.53
-129.37
-138.2
-137.47
-126.33
-105.99
-79.26
-49.67
-20.4
6.36
29.59
49.05
64.86
77.19
86.17
92.05
95.15
95.9
94.65
91.62
86.9
80.64
73.2
65.21
57.46
50.55
44.66
39.4
33.9
27.18
18.5
7.69
-4.8
-18.12
-31.39
-44.02
-55.9
-67.45
-79.35
-92.39
-107.14
-123.53
-140.58
-156.15
-167.31
-170.95
-164.93
-148.86
-124.5
-95.26
-65.09
-37.27
-13.63
5.54
20.91
33.32
43.23
50.57
55.18
57.05
56.61
54.64
51.96
49.18
46.6
44.23
42.05
39.99
38.1
36.32
34.49
32.24
29.17
24.98
19.6
13.27
6.37
-0.73
-7.92
-15.51
-24.17
-34.71
-47.59
-62.4
-77.51
-90.2
-97.23
-95.91
-84.98
-65.26
-39.33
-10.75
17.07
41.7
61.97
77.84
89.76
98.29
103.83
106.64
107.02
105.28
101.79
96.87
90.83
83.94
76.58
69.21
62.33
56.28
51.07
46.39
41.65
36.26
29.83
22.32
14
5.32
-3.31
-11.75
-20.17
-29.09
-39.29
-51.48
-65.87
-81.72
-97.1
-109.16
-114.81
-111.76
-99.29
-78.62
-52.5
-24.33
2.8
26.76
46.6
62.2
73.93
82.22
87.43
89.95
90.16
88.53
85.56
81.63
76.95
71.67
65.87
59.82
53.96
48.69
44.28
40.57
37.01
32.89
27.59
20.96
13.29
5.16
-2.84
-10.38
-17.5
-24.63
-32.4
-41.48
-52.33
-64.91
-78.25
-90.41
-98.68
-100.32
-93.47
-77.89
-55.19
-28.36
-0.84
24.38
45.36
61.28
72.09
78.13
80.01
78.44
74.37
68.86
62.94
57.34
52.45
48.28
44.73
41.72
39.3
37.46
36.02
34.43
31.92
27.77
21.64
13.71
4.61
-4.84
-14.06
-22.91
-31.71
-41.09
-51.8
-64.4
-79.01
-94.96
-110.54
-123.07
-129.37
-126.87
-114.54
-93.64
-67.41
-40.15
-15.76
3.32
16.51
24.68
29.31
31.75
32.87
33.11
32.71
31.88
30.76
29.35
27.48
24.9
21.59
17.85
14.3
11.65
10.36
10.42
11.3
12.14
12.04
10.39
7.04
2.34
-3.03
-8.28
-12.95
-17.06
-21.29
-26.86
-35.12
-46.98
-62.19
-79.08
-94.58
-105
-107.13
-99.27
-81.86
-57.34
-29.35
-1.55
23.24
43.56
59.13
70.32
77.68
81.67
82.7
81.31
78.3
74.59
71.05
68.18
65.99
64.07
61.89
59.2
56.26
53.74
52.48
52.94
55.02
57.92
60.46
61.43
59.84
55.12
47.08
35.86
21.82
5.37
-13.14
-33.51
-55.66
-79.23
-103.2
-125.52
-143.34
-153.6
-154.15
-144.46
-126.01
-101.74
-75.09
-49.04
-25.39
-4.76
13.02
28.3
41.21
51.56
58.95
63.13
64.22
62.71
59.34
54.87
49.86
44.62
39.31
34.1
29.23
24.99
21.48
18.49
15.47
11.78
6.92
0.85
-6.03
-13.07
-19.63
-25.34
-30.22
-34.71
-39.51
-45.39
-52.79
-61.44
-70.03
-76.23
-77.27
-70.76
-55.66
-32.75
-4.42
26.03
55.42
81.37
102.5
118.24
128.44
133.16
132.77
128.11
120.61
112.04
103.99
97.36
92.14
87.55
82.63
76.83
70.32
63.77
57.81
52.25
45.87
36.54
22.12
1.36
-25.36
-56.02
-87.51
-116.68
-141.29
-160.54
-175.11
-186.68
-197.26
-208.43
-220.9
-234.06
-246.04
-253.98
-254.83
-246.33
-227.79
-200.47
-167.16
-131.43
-96.45
-64.42
-36.34
-12.31
7.93
24.65
38.1
48.55
56.43
62.31
66.72
69.98
72.19
73.25
73.07
71.72
69.51
66.93
64.51
62.57
61.05
59.49
57.17
53.48
48.17
41.56
34.33
27.22
20.52
13.9
6.52
-2.7
-14.54
-29.27
-46.45
-64.88
-82.66
-97.33
-106.23
-107.2
-99.21
-82.96
-60.8
-36.06
-12.06
8.81
25.57
38.43
48.16
55.49
60.8
64.16
65.65
65.54
64.31
62.5
60.45
58.24
55.75
52.88
49.72
46.54
43.68
41.26
39.02
36.39
32.65
27.32
20.36
12.22
3.62
-4.73
-12.46
-19.76
-27.37
-36.36
-47.73
-61.92
-78.31
-95.04
-109.28
-117.91
-118.46
-109.95
-93.2
-70.55
-45.09
-19.78
3.2
22.72
38.46
50.66
59.74
66.18
70.46
72.95
73.95
73.57
71.77
68.46
63.65
57.62
50.91
44.24
38.24
33.27
29.16
25.27
20.61
14.15
5.24
-6.1
-18.98
-31.98
-43.64
-53.24
-61.25
-69.37
-79.88
-94.66
-114.36
-137.85
-162.38
-184.29
-199.95
-206.65
-203.1
-189.59
-167.6
-139.52
-107.98
-75.46
-43.84
-14.16
13.32
38.86
62.79
85.31
106.31
125.53
142.9
158.76
173.94
189.44
206.04
223.73
241.59
257.98
271.12
279.77
283.58
282.98
278.63
270.64
258.07
239.24
212.56
177.76
136.58
92.56
49.98
12.41
-18.19
-41.62
-58.65
-70.04
-75.9
-75.87
-70.01
-59.79
-48.35
-39.85
-38.04
-44.6
-58.39
-75.76
-91.91
-102.76
-106.3
-102.84
-94.05
-81.58
-65.75
-45.63
-19.95
11.33
45.96
79.45
106.25
121.64
123.33
112.08
91.12
64.73
36.75
9.62
-15.53
-38.36
-58.62
-75.8
-89.17
-98.29
-103.41
-105.64
-106.75
-108.53
-112.27
-118.31
-125.94
-133.64
-139.51
-141.69
-138.75
-130.09
-116
-97.71
-77.07
-56.18
-36.9
-20.54
-7.65
1.9
8.68
13.58
17.65
21.85
26.92
33.13
40.29
47.91
55.6
63.24
71.06
79.22
87.51
95.01
100.39
102.4
100.54
95.33
88.18
80.95
75.27
72.12
71.74
73.71
77.24
81.35
85.02
87.2
86.91
83.34
76.17
65.86
53.77
41.86
32.15
26
23.62
24.12
25.85
27.15
26.93
24.9
21.43
17.1
12.4
7.57
2.78
-1.57
-4.77
-5.93
-4.51
-0.75
4.05
7.79
8.2
3.81
-5.43
-18.03
-31.49
-43.27
-51.78
-56.9
-59.78
-62.13
-65.32
-69.78
-75.06
-80.34
-84.86
-88.26
-90.49
-91.51
-91.29
-90.18
-89.31
-90.4
-94.87
-102.6
-111.1
-115.95
-112.53
-98.2
-73.68
-42.65
-10
20.48
47.2
70.62
91.76
110.86
126.86
138.25
144.27
145.78
144.85
143.65
143.13
142.54
139.81
132.7
119.82
101.26
78.21
52.37
25.26
-2.06
-28.84
-54.22
-77.09
-96.16
-110.36
-119.3
-123.53
-124.43
-123.74
-123.06
-123.47
-125.29
-128.31
-132.05
-136.2
-140.7
-145.74
-151.4
-157.21
-161.86
-163.28
-159.26
-148.22
-130.12
-106.65
-80.88
-56.21
-35.27
-19.15
-7.43
1.2
8.03
13.72
18.17
21.02
22.16
22.05
21.6
21.67
22.65
24.31
26.02
27.07
27.02
25.71
23.17
19.38
14.3
7.83
-0
-9.13
-19.48
-30.9
-43.04
-54.91
-64.74
-70.14
-68.57
-58.11
-38.01
-8.88
27.56
68.85
112.14
154.49
192.99
225.24
249.69
266.01
275.04
278.24
277.05
272.33
264.31
252.92
238.23
220.81
201.71
182.02
162.48
143.17
123.67
103.43
82.11
59.77
36.8
13.55
-9.74
-33.12
-56.82
-81.1
-106.21
-132.21
-158.99
-185.94
-211.88
-235.04
-253.53
-265.84
-271.65
-272.15
-269.94
-268.25
-269.7
-275.15
-283.07
-289.8
-290.85
-282.66
-264.04
-236.63
-204.25
-171.41
-141.8
-117.46
-98.84
-85.52
-76.78
-71.89
-69.89
-69.49
-69.14
-67.59
-64.36
-60.03
-55.89
-53.36
-53.26
-55.32
-58.25
-60.15
-59.24
-54.52
-46.13
-35.3
-24.06
-14.47
-8.02
-5.09
-4.71
-4.81
-2.84
3.26
14.31
29.62
47.3
65.12
81.27
94.94
106.13
115.18
122.27
127.21
129.61
129.3
126.5
121.83
115.96
109.26
101.73
93.09
83.2
72.27
61.08
50.67
41.93
35.23
30.18
25.8
20.83
14.42
6.34
-2.92
-12.45
-21.34
-29.23
-36.47
-44.09
-53.57
-66.31
-83.22
-104.04
-127.16
-149.64
-167.84
-178.39
-179.13
-169.77
-151.85
-128.09
-101.57
-74.91
-49.96
-27.77
-8.89
6.41
18.09
26.43
32.12
36.17
39.66
43.45
47.85
52.74
57.61
62
65.65
68.71
71.52
74.35
77.19
79.55
80.65
79.62
75.84
69.24
60.27
49.84
38.88
28.14
17.88
7.83
-2.65
-14.37
-27.93
-43.31
-59.48
-74.34
-85.07
-88.91
-84.08
-70.5
-49.83
-24.95
1.02
25.58
47.3
65.73
80.95
93.19
102.5
108.9
112.46
113.42
112.1
108.84
103.89
97.44
89.79
81.37
72.81
64.84
58.05
52.68
48.47
44.71
40.49
35.03
27.96
19.42
9.88
-0.04
-9.94
-19.77
-29.85
-40.82
-53.47
-68.41
-85.74
-104.68
-123.4
-139.26
-149.46
-151.97
-146.29
-133.61
-116.34
-97.13
-78.08
-60.28
-43.97
-28.97
-15.02
-1.67
12.07
27.9
47.95
73.91
106.13
143
181.16
216.45
244.89
263.57
271.08
267.47
254.2
234
210.59
188.13
170.38
159.72
156.55
159.22
164.62
169.06
169.19
162.6
148.01
125.29
95.32
60.03
22.25
-14.34
-45.68
-67.97
-78.49
-76.37
-62.84
-40.85
-14.14
13.76
40.28
64.11
84.82
102.36
116.61
127.29
134.28
137.81
138.56
137.34
134.59
130.19
123.62
114.4
102.72
89.55
76.35
64.5
54.57
46.15
38.06
28.97
18.06
5.38
-8.26
-21.59
-33.38
-42.76
-49.48
-54.05
-57.63
-61.82
-68.29
-78.17
-91.64
-107.64
-123.85
-137.25
-144.85
-144.5
-135.5
-118.64
-95.73
-68.97
-40.3
-11.2
17.2
43.83
67.54
87.27
102.44
113.29
120.78
126.04
129.74
131.73
131.17
127.24
119.69
109.11
96.61
83.15
69.07
53.96
37.12
18.17
-2.46
-23.57
-43.59
-61.13
-75.45
-86.64
-95.46
-103.2
-111.36
-121.42
-134.38
-150.33
-167.98
-184.62
-196.57
-200.12
-192.73
-173.93
-145.57
-111.24
-75.14
-40.99
-11.21
13.18
32.09
45.9
55.07
60.01
61.26
59.58
55.9
51.09
45.67
39.73
33.09
25.68
17.79
10.21
3.97
-0.22
-2.3
-3.08
-3.86
-5.92
-10.08
-16.43
-24.54
-33.84
-43.92
-54.73
-66.53
-79.62
-94.17
-110.06
-126.76
-143.11
-157.17
-166.36
-167.96
-160.06
-142.48
-117.29
-88.43
-60.68
-38.12
-23.02
-15.51
-14.03
-16.31
-20.24
-24.32
-27.6
-29.51
-29.65
-27.86
-24.32
-19.53
-14.2
-8.95
-4.05
0.64
5.65
11.56
18.87
27.54
36.88
45.46
51.44
53.14
49.71
41.46
29.77
16.48
3.12
-9.67
-22.22
-35.46
-50.21
-66.73
-84.25
-101.12
-114.99
-123.39
-124.28
-116.74
-101.32
-79.97
-55.55
-31.04
-8.72
10.15
25.24
36.79
45.16
50.63
53.42
53.82
52.28
49.33
45.53
41.29
36.85
32.36
27.97
23.93
20.5
17.84
15.84
14.1
11.87
8.39
3.1
-4.12
-12.81
-22.2
-31.37
-39.66
-46.94
-53.59
-60.45
-68.54
-78.63
-90.72
-103.74
-115.37
-122.61
-122.58
-113.65
-96.11
-72.26
-45.65
-20
1.98
19.04
31.4
40.09
46.27
50.72
53.77
55.44
55.73
54.79
52.87
50.26
47.13
43.63
40.11
37.32
36.33
38.08
42.65
48.89
54.53
57.02
54.66
47.36
36.62
24.72
13.62
4.18
-4.05
-12.26
-21.65
-32.93
-46.05
-60.34
-74.6
-87.08
-95.71
-98.41
-93.71
-81.34
-62.55
-39.75
-15.86
6.59
26.01
41.93
54.6
64.54
72.2
77.75
81.22
82.68
82.32
80.41
77.29
73.23
68.5
63.47
58.57
54.27
50.9
48.44
46.5
44.3
40.97
35.82
28.53
19.32
8.85
-1.99
-12.37
-21.7
-29.84
-37.17
-44.48
-52.86
-63.28
-76.2
-91.16
-106.61
-120.03
-128.59
-129.92
-122.95
-108.21
-87.67
-64.13
-40.29
-18.18
1.16
17.49
30.97
41.83
50.15
56.01
59.5
60.98
60.96
60.02
58.6
56.88
54.86
52.46
49.76
47.04
44.72
43.07
41.99
40.89
38.92
35.29
29.65
22.21
13.67
4.85
-3.73
-12.02
-20.57
-30.31
-42.15
-56.62
-73.35
-90.82
-106.51
-117.4
-120.81
-115.27
-101.12
-80.35
-55.93
-30.94
-7.73
12.38
28.98
42.24
52.46
59.95
65.03
68.03
69.42
69.62
68.94
67.48
65.23
62.23
58.72
55.23
52.45
50.89
50.59
51.04
51.25
50.07
46.67
40.77
32.76
23.43
13.79
4.75
-3.11
-9.77
-15.93
-22.92
-32.22
-44.73
-60
-75.9
-89.12
-96.23
-94.94
-84.9
-67.75
-46.32
-23.6
-1.94
17.3
33.62
46.97
57.46
65.28
70.66
73.89
75.18
74.57
71.87
66.77
59.14
49.27
38.05
26.74
16.61
8.51
2.55
-1.87
-5.75
-10.03
-15.27
-21.51
-28.45
-35.61
-42.68
-49.55
-56.4
-63.69
-72.03
-82.03
-93.85
-106.88
-119.47
-129.12
-133.08
-129.27
-117.09
-97.65
-73.47
-47.65
-22.92
-0.96
17.63
33.01
45.59
55.62
63.13
67.97
70.14
69.9
67.71
64.19
60.01
55.76
51.95
48.99
47.06
46.1
45.69
45.15
43.7
40.7
35.85
29.3
21.55
13.22
4.84
-3.35
-11.49
-20.18
-30.26
-42.41
-56.77
-72.34
-86.96
-97.59
-101.3
-96.26
-82.42
-61.63
-36.87
-11.33
12.6
33.66
51.58
66.61
79.02
88.86
96.04
100.5
102.43
102.26
100.56
97.88
94.58
90.83
86.75
82.49
78.22
74.12
70.26
66.54
62.78
58.91
54.99
51.13
47.24
42.76
36.78
28.24
16.29
0.61
-18.61
-40.67
-64.52
-88.54
-110.51
-127.66
-137.17
-136.97
-126.56
-107.34
-82.23
-54.84
-28.45
-5.16
14.27
30.06
42.94
53.59
62.41
69.43
74.46
77.29
77.75
75.88
71.98
66.5
60.1
53.49
47.34
42.2
38.34
35.68
33.76
31.81
28.99
24.61
18.35
10.42
1.41
-7.86
-16.68
-24.81
-32.57
-40.82
-50.57
-62.44
-76.08
-89.85
-101.02
-106.51
-103.84
-91.99
-71.85
-45.88
-17.38
10.51
35.48
56.34
72.88
85.43
94.6
101.08
105.59
108.9
111.6
113.92
115.46
115.26
112.15
105.27
94.62
81.24
66.94
53.66
42.81
34.78
28.97
24.12
18.92
12.44
4.37
-5.05
-15.22
-25.46
-35.28
-44.46
-53.19
-61.95
-71.48
-82.43
-95.05
-108.78
-122.11
-132.68
-137.81
-135.36
-124.4
-105.63
-81.17
-53.91
-26.76
-1.86
19.58
37.25
51.37
62.39
70.68
76.54
80.25
82.14
82.61
82.07
80.85
79.14
76.95
74.24
71
67.39
63.8
60.62
58.09
56.07
53.98
50.97
46.25
39.46
30.74
20.78
10.49
0.67
-8.28
-16.45
-24.32
-32.57
-41.85
-52.62
-64.96
-78.36
-91.59
-102.74
-109.65
-110.48
-104.37
-91.73
-74.21
-54.12
-33.76
-14.84
1.73
15.66
27.03
35.93
42.44
46.65
48.82
49.4
48.93
47.99
46.99
46.19
45.7
45.56
45.86
46.7
48.19
50.25
52.62
54.78
56.03
55.63
53.05
48.04
40.82
31.98
22.35
12.75
3.73
-4.51
-12.23
-19.95
-28.32
-37.91
-48.99
-61.45
-74.48
-86.64
-95.9
-100.16
-97.81
-88.35
-72.65
-52.77
-31.23
-10.37
8.23
23.89
36.55
46.36
53.45
57.92
59.92
59.86
58.41
56.31
54.21
52.42
50.91
49.38
47.4
44.74
41.48
38.04
35
32.89
31.87
31.63
31.54
30.91
29.35
26.9
23.98
21.21
19.09
17.86
17.5
17.74
18.06
17.62
15.31
9.99
0.94
-11.68
-26.56
-41.48
-53.95
-62.07
-65.1
-63.62
-59.08
-53.16
-47.11
-41.61
-36.73
-32.39
-28.57
-25.39
-23.02
-21.5
-20.65
-20.01
-19.02
-17.22
-14.41
-10.69
-6.35
-1.75
2.86
7.42
12.02
16.74
21.56
26.3
30.7
34.6
38.06
41.41
45.03
48.99
52.85
55.47
55.35
51.1
41.89
27.8
9.61
-11.37
-33.68
-55.76
-75.84
-91.94
-102.07
-104.8
-99.85
-88.44
-73.04
-56.64
-41.8
-30.02
-21.52
-15.61
-11.2
-7.35
-3.56
0.24
3.87
7
9.36
10.79
11.26
10.79
9.44
7.22
4.15
0.27
-4.25
-9.13
-14.02
-18.59
-22.72
-26.52
-30.37
-34.67
-39.67
-45.3
-51.23
-56.95
-62.01
-66.13
-69.26
-71.54
-73.25
-74.82
-76.77
-79.5
-83
-86.6
-88.82
-87.77
-81.8
-70.24
-53.77
-34.31
-14.29
4.17
19.86
32.52
42.54
50.47
56.72
61.61
65.61
69.34
73.47
78.18
82.91
86.39
87.05
83.87
76.82
66.9
55.69
44.66
34.64
25.74
17.64
9.98
2.68
-4.12
-10.18
-15.34
-19.6
-23.02
-25.61
-27.35
-28.2
-28.23
-27.57
-26.45
-25.09
-23.57
-21.77
-19.37
-16.14
-12.08
-7.62
-3.69
-1.37
-1.44
-4.09
-8.82
-14.58
-20.22
-24.87
-28.06
-29.64
-29.67
-28.28
-25.65
-22.05
-17.88
-13.54
-9.39
-5.64
-2.43
0.18
2.18
3.7
5
6.5
8.55
11.4
14.94
18.8
22.41
25.17
26.56
26.22
23.98
19.84
14
6.78
-1.42
-10.34
-19.93
-30.48
-42.44
-55.96
-70.56
-84.92
-97.02
-104.77
-106.67
-102.38
-92.77
-79.61
-64.88
-50.19
-36.45
-23.92
-12.52
-2.15
7.1
15.06
21.59
26.8
31.04
34.84
38.63
42.48
46
48.38
48.79
46.64
42
35.57
28.44
21.68
15.91
11.11
6.72
1.94
-3.83
-10.72
-18.33
-25.97
-32.93
-38.76
-43.42
-47.19
-50.63
-54.32
-58.9
-64.78
-72.06
-80.35
-88.6
-95.32
-98.89
-98.09
-92.46
-82.51
-69.49
-55.06
-40.81
-27.95
-17.08
-8.34
-1.43
4.03
8.34
11.66
13.98
15.31
15.82
15.81
15.71
15.82
16.26
16.86
17.43
17.85
18.12
18.32
18.48
18.39
17.67
15.77
12.28
7.03
0.25
-7.49
-15.43
-22.85
-29.24
-34.51
-38.95
-43.25
-48.18
-54.48
-62.46
-71.88
-81.73
-90.3
-95.5
-95.33
-88.52
-74.91
-55.71
-33.11
-9.69
12.27
31.32
46.99
59.53
69.48
77.3
83.21
87.29
89.72
90.88
91.42
91.89
92.61
93.48
94.07
93.95
92.92
91.15
89.06
86.92
84.59
81.44
76.59
69.26
59.22
46.91
33.35
19.74
7.22
-3.58
-12.54
-20.08
-26.96
-34.06
-42.16
-51.56
-61.84
-71.67
-78.98
-81.41
-76.96
-64.78
-45.55
-21.42
4.51
29.1
49.98
66.02
77.28
84.64
89.21
91.89
93.27
93.7
93.56
93.37
93.77
95.32
98.28
102.44
107.25
112.02
116.24
119.74
122.62
124.95
126.46
126.24
122.86
114.62
100.16
78.9
51.4
19.28
-15.06
-49.13
-80.78
-108.69
-132.47
-152.58
-170.03
-185.99
-201.23
-215.64
-227.94
-235.66
-235.82
-225.88
-204.77
-173.48
-135.03
-93.7
-53.78
-18.56
10.16
32.07
47.75
58.18
64.25
66.77
66.52
64.39
61.36
58.38
56.12
54.84
54.37
54.32
54.26
53.89
53.19
52.24
51.16
49.93
48.38
46.17
42.93
38.42
32.56
25.54
17.76
9.82
2.27
-4.56
-10.57
-15.98
-21.21
-26.8
-33.32
-41.32
-51.1
-62.44
-74.28
-84.67
-91.12
-91.34
-84.13
-69.84
-50.36
-28.45
-6.78
12.79
29.49
43.32
54.54
63.26
69.38
72.72
73.35
71.71
68.61
65.03
61.82
59.63
58.68
58.85
59.76
61.03
62.38
63.74
65.18
66.66
67.86
68.04
66.28
61.77
54.23
44.12
32.56
20.94
10.35
1.26
-6.65
-14.34
-22.99
-33.53
-46.25
-60.37
-73.97
-84.21
-88.03
-83.05
-68.59
-46.08
-18.9
8.54
32.07
48.81
57.68
59.3
55.25
47.38
37.19
25.68
13.48
1.08
-10.9
-21.79
-31.01
-38.29
-43.83
-48.19
-52.02
-55.64
-58.93
-61.31
-62.1
-60.95
-58.17
-54.64
-51.63
-50.25
-51.12
-54.12
-58.62
-63.68
-68.53
-72.74
-76.42
-80.14
-84.78
-91.38
-100.72
-113.03
-127.55
-142.37
-154.6
-161.08
-159.26
-148.13
-128.63
-103.4
-75.93
-49.46
-26.22
-7.07
8.16
20.1
29.31
36.11
40.64
43.2
44.38
44.93
45.57
46.59
47.79
48.59
48.39
46.93
44.57
42.06
40.32
39.92
40.81
42.27
43.16
42.35
39.09
33.31
25.61
16.92
8.23
0.26
-6.75
-13.01
-19.06
-25.66
-33.55
-43.1
-54.05
-65.15
-74.23
-78.64
-76.06
-65.42
-47.46
-24.6
-0.26
22.25
40.6
53.89
62.31
66.68
67.85
66.4
62.77
57.43
51.07
44.55
38.68
33.99
30.53
27.97
25.81
23.69
21.62
19.93
19.14
19.59
21.12
23.05
24.28
23.73
20.8
15.69
9.26
2.78
-2.69
-6.63
-9.24
-11.3
-13.85
-17.8
-23.64
-31.21
-39.53
-46.83
-50.84
-49.51
-41.76
-28.05
-10.39
8.31
25.21
38.42
47.44
52.83
55.58
56.52
56.05
54.23
51.15
47.17
42.93
39.15
36.27
34.38
33.16
32.1
30.8
29.14
27.43
26.12
25.55
25.69
25.97
25.47
23.31
19
12.72
5.18
-2.66
-10.01
-16.53
-22.43
-28.3
-35
-43.39
-54.2
-67.64
-83.22
-99.4
-113.68
-123.1
-125.1
-118.34
-103.27
-82.01
-57.55
-32.81
-9.9
10.16
27.13
41.12
52.2
60.32
65.54
68.21
69.02
68.84
68.37
67.95
67.44
66.32
64.14
60.68
56.25
51.59
47.6
44.91
43.56
42.88
41.8
39.21
34.51
27.81
19.86
11.63
4
-2.67
-8.51
-14.09
-20.21
-27.7
-37.27
-49.21
-63.05
-77.26
-89.31
-96.24
-95.57
-86.22
-69
-46.36
-21.54
2.47
23.72
41.41
55.59
66.59
74.64
79.86
82.42
82.79
81.74
80.11
78.55
77.19
75.73
73.61
70.42
66.12
61.13
56.15
51.75
48.13
44.92
41.37
36.59
29.93
21.25
10.97
-0.05
-10.88
-20.87
-29.93
-38.55
-47.74
-58.58
-71.71
-86.86
-102.55
-116.3
-125.11
-126.47
-119.04
-103.22
-81.04
-55.54
-29.83
-6.25
14
30.77
44.51
55.76
64.86
71.93
77.05
80.35
82.13
82.73
82.45
81.39
79.49
76.58
72.6
67.71
62.27
56.82
51.79
47.31
43.06
38.38
32.56
25.13
16.17
6.28
-3.63
-12.74
-20.62
-27.43
-33.93
-41.16
-50.24
-61.89
-76.08
-91.67
-106.42
-117.38
-121.67
-117.38
-104.33
-84.16
-59.77
-34.39
-10.7
9.77
26.55
39.9
50.3
58.21
64.03
68.14
70.95
72.83
73.96
74.32
73.71
71.95
69
65.18
61.04
57.31
54.64
53.35
53.21
53.49
53.07
50.87
46.17
38.92
29.69
19.45
9.18
-0.49
-9.45
-18.07
-27.05
-37.07
-48.58
-61.39
-74.48
-86.1
-93.98
-96.07
-91.13
-79.24
-61.81
-41.13
-19.65
0.67
18.68
34.03
46.75
56.97
64.76
70.18
73.42
74.9
75.15
74.64
73.64
72.09
69.75
66.38
61.95
56.77
51.39
46.4
42.1
38.32
34.44
29.6
23.15
14.97
5.59
-4.02
-12.86
-20.35
-26.53
-32.11
-38.15
-45.79
-55.81
-68.33
-82.5
-96.56
-107.97
-114.12
-113.1
-104.39
-89.07
-69.54
-48.68
-29
-12.03
1.79
12.76
21.45
28.33
33.57
37.24
39.43
40.37
40.45
40.02
39.26
38.12
36.45
34.16
31.42
28.65
26.37
24.97
24.41
24.23
23.65
21.89
18.49
13.47
7.34
0.85
-5.29
-10.71
-15.4
-19.8
-24.54
-30.44
-38.16
-48.02
-59.71
-72.04
-83.1
-90.58
-92.47
-87.76
-76.85
-61.4
-43.81
-26.47
-11.01
1.79
11.99
19.98
26.24
31.06
34.67
37.3
39.36
41.27
43.37
45.67
47.88
49.47
49.96
49.17
47.36
45.08
42.93
41.21
39.73
37.88
34.84
30
23.21
14.89
5.86
-3.01
-11.08
-18.17
-24.55
-30.8
-37.56
-45.32
-54.25
-64.02
-73.77
-82.01
-86.95
-86.83
-80.59
-68.32
-51.4
-32.21
-13.34
3.14
16.13
25.57
32.06
36.25
38.67
39.59
39.25
38.01
36.39
34.97
34
33.48
32.99
32.08
30.42
28.08
25.47
23.06
21.11
19.44
17.44
14.36
9.67
3.31
-4.21
-12.12
-19.64
-26.26
-31.93
-36.97
-42.02
-47.77
-54.88
-63.73
-74.08
-84.98
-94.73
-101.22
-102.54
-97.64
-86.73
-71.28
-53.56
-35.93
-20.15
-7.04
3.41
11.73
18.49
24.05
28.46
31.7
33.8
35
35.66
36.05
36.25
36.08
35.32
33.93
32.19
30.69
29.96
30.22
31.18
32
31.65
29.33
24.83
18.58
11.48
4.5
-1.76
-7.26
-12.52
-18.38
-25.72
-35.11
-46.6
-59.62
-72.89
-84.65
-92.9
-95.88
-92.54
-82.91
-68.11
-50.04
-30.83
-12.34
4.15
18.05
29.23
37.89
44.31
48.82
51.76
53.43
54.1
53.87
52.77
50.68
47.49
43.18
37.87
31.92
25.83
20.13
15.16
10.86
6.85
2.53
-2.62
-8.79
-15.74
-22.87
-29.49
-35.12
-39.63
-43.28
-46.7
-50.6
-55.59
-61.82
-68.74
-75.03
-78.84
-78.22
-71.91
-59.76
-42.87
-23.23
-3.16
15.39
31.14
43.57
52.7
58.79
62.26
63.66
63.64
62.96
62.28
61.96
61.97
61.9
61.12
59.12
55.7
51.06
45.78
40.54
35.78
31.58
27.57
23.1
17.62
10.93
3.26
-4.69
-12.09
-18.34
-23.25
-27.1
-30.55
-34.44
-39.52
-46.23
-54.55
-63.78
-72.59
-79.21
-81.92
-79.52
-71.79
-59.56
-44.51
-28.6
-13.51
-0.31
10.57
19.22
25.89
30.83
34.18
36.01
36.36
35.34
33.11
29.92
26.05
21.74
17.23
12.74
8.45
4.54
1.18
-1.66
-4.19
-6.86
-10.25
-14.81
-20.66
-27.41
-34.32
-40.48
-45.22
-48.28
-49.93
-50.89
-52.05
-54.21
-57.79
-62.61
-67.81
-71.97
-73.44
-70.81
-63.43
-51.67
-36.84
-20.78
-5.32
8.23
19.25
27.78
34.17
38.84
42.04
43.91
44.55
44.1
42.84
41.11
39.22
37.39
35.67
34.09
32.59
31.18
29.8
28.41
26.84
24.89
22.33
18.98
14.79
9.87
4.45
-1.14
-6.62
-11.98
-17.48
-23.68
-31.19
-40.24
-50.28
-59.81
-66.57
-68.26
-63.32
-51.61
-34.57
-14.82
4.75
21.86
35.38
45.27
52.3
57.33
61.11
64.07
66.46
68.41
69.97
71.06
71.43
70.82
69.15
66.74
64.34
62.89
63.2
65.45
69
72.43
73.96
71.95
65.47
54.62
40.41
24.36
7.94
-7.9
-23
-37.78
-52.92
-68.75
-85
-100.48
-113.35
-121.53
-123.31
-117.93
-105.79
-88.38
-67.77
-46
-24.69
-4.83
13.01
28.49
41.34
51.4
58.86
64.31
68.65
72.8
77.38
82.42
87.37
91.4
93.71
93.89
92
88.44
83.74
78.18
71.8
64.46
55.96
46.38
35.95
25.02
13.83
2.36
-9.65
-22.57
-36.75
-52.31
-68.97
-85.95
-101.87
-114.82
-122.69
-123.7
-117.01
-103.06
-83.56
-61.04
-38.08
-16.71
1.92
17.49
30.25
40.63
49.09
56.04
61.9
67.09
72.06
77.07
82.12
86.84
90.57
92.62
92.53
90.27
86.3
81.32
75.92
70.28
64.03
56.55
47.25
35.96
23.1
9.44
-4.22
-17.47
-30.47
-43.84
-58.23
-73.85
-89.99
-104.93
-116.27
-121.58
-119.11
-108.45
-90.66
-67.99
-43.2
-18.85
3.18
21.83
36.66
47.66
54.93
58.74
59.45
57.61
53.85
48.82
43.11
37.21
31.57
26.62
22.71
20.04
18.54
17.92
17.76
17.62
17.2
16.4
15.23
13.71
11.84
9.59
6.86
3.53
-0.65
-6.07
-13.1
-21.76
-31.44
-40.69
-47.49
-49.83
-46.45
-37.41
-24.11
-8.91
5.73
17.85
26.53
31.72
34.01
34.15
32.79
30.45
27.46
24.09
20.5
16.73
12.68
8.15
3
-2.76
-8.88
-14.91
-20.36
-24.9
-28.55
-31.69
-34.92
-38.83
-43.7
-49.45
-55.64
-61.66
-67.03
-71.56
-75.46
-79.36
-84.03
-90.15
-97.94
-106.79
-115.19
-120.91
-121.63
-115.69
-102.7
-83.76
-61.08
-37.4
-15.09
4.25
19.96
32.04
40.88
46.88
50.43
51.92
51.77
50.44
48.29
45.54
42.19
38.17
33.52
28.51
23.63
19.35
15.99
13.42
11.2
8.81
5.87
2.43
-1.13
-4.31
-6.69
-8.14
-8.86
-9.26
-9.88
-11.32
-14.15
-18.65
-24.51
-30.63
-35.09
-35.67
-30.54
-19.01
-1.93
18.56
39.8
59.48
76.24
89.81
100.59
109.1
115.62
120.09
122.39
122.63
121.25
118.96
116.4
113.95
111.6
109.15
106.31
102.83
98.51
93.1
86.25
77.59
66.86
54.1
39.67
24.19
8.3
-7.32
-22.18
-35.98
-48.69
-60.71
-72.77
-85.68
-99.87
-114.88
-129.17
-140.35
-145.93
-144.32
-135.48
-121.03
-103.66
-86.19
-70.62
-57.68
-47.11
-38.19
-30.43
-23.83
-18.82
-15.77
-14.7
-15.15
-16.41
-17.88
-19.29
-20.75
-22.44
-24.45
-26.5
-28.15
-29
-28.95
-28.36
-27.85
-28.1
-29.46
-31.83
-34.7
-37.44
-39.61
-41.24
-42.83
-45.15
-48.88
-54.36
-61.31
-68.79
-75.32
-79.14
-78.57
-72.52
-60.8
-44.31
-24.83
-4.53
14.58
31.16
44.65
55.24
63.37
69.51
73.87
76.39
76.94
75.45
72.09
67.25
61.48
55.27
49.02
42.93
37.11
31.63
26.56
21.96
17.77
13.81
9.76
5.28
0.19
-5.5
-11.54
-17.62
-23.47
-29.07
-34.82
-41.4
-49.58
-59.8
-71.66
-83.78
-93.9
-99.53
-98.82
-91.24
-77.86
-60.94
-43.14
-26.68
-12.86
-2.02
6.13
12.09
16.31
19.18
21.15
22.74
24.56
27.04
30.35
34.33
38.61
42.83
46.88
50.97
55.59
61.26
68.21
76.25
84.69
92.61
99.15
103.8
106.47
107.33
106.57
104.17
99.79
92.82
82.6
68.64
50.91
30.09
7.73
-13.83
-31.85
-43.83
-48.27
-45.14
-35.95
-23.26
-9.85
1.97
10.91
16.65
19.58
20.33
19.41
17.06
13.32
8.17
1.75
-5.61
-13.46
-21.32
-28.82
-35.72
-41.82
-46.95
-50.87
-53.44
-54.7
-55.06
-55.3
-56.33
-58.95
-63.52
-69.82
-77.11
-84.47
-91.14
-96.85
-101.89
-107.03
-113.13
-120.77
-129.88
-139.52
-148.01
-153.23
-153.25
-146.85
-133.86
-115.17
-92.39
-67.24
-41.28
-15.77
8.18
29.36
46.49
58.51
64.93
66.11
63.14
57.39
50.07
41.96
33.46
24.85
16.53
9.16
3.34
-0.64
-3.03
-4.6
-6.29
-8.9
-12.86
-18.05
-24.02
-30.11
-35.75
-40.64
-44.87
-49.04
-54.07
-60.89
-70.07
-81.24
-92.94
-102.8
-108.14
-106.82
-97.95
-82.22
-61.65
-38.91
-16.52
3.8
21.27
35.93
48.1
58.13
66.18
72.39
76.96
80.25
82.65
84.46
85.68
86.12
85.59
84.15
82.14
80.16
78.72
77.96
77.57
76.91
75.3
72.37
68.17
63.13
57.84
52.83
48.35
44.3
40.23
35.48
29.37
21.44
11.77
1.21
-8.63
-15.6
-17.65
-13.56
-3.47
10.99
27.11
41.96
53.27
60.09
62.8
62.78
61.65
60.75
60.88
62.3
65.04
69
74.04
79.85
85.94
91.79
97.07
101.9
106.91
112.97
120.73
130.29
140.93
151.32
159.96
165.66
167.95
167.11
164.11
160.15
156.33
153.18
150.35
146.51
139.68
127.76
109.44
84.97
56.61
28.22
4.31
-11.34
-16.89
-12.95
-2.19
11.72
25.28
36.08
43
46.01
45.62
42.51
37.36
30.84
23.77
16.95
11.04
6.25
2.28
-1.57
-6.06
-11.65
-18.26
-25.3
-31.98
-37.75
-42.63
-47.24
-52.59
-59.56
-68.47
-78.94
-90.08
-100.85
-110.58
-119.25
-127.53
-136.58
-147.56
-161.05
-176.63
-192.47
-205.65
-212.72
-210.77
-198.34
-176
-146.24
-112.71
-79.24
-48.98
-24.04
-5.48
6.32
11.43
10.26
3.62
-7.22
-20.58
-34.65
-47.91
-59.41
-68.93
-76.9
-83.99
-90.69
-96.95
-102.14
-105.36
-105.83
-103.4
-98.69
-92.98
-87.73
-84.06
-82.33
-82.14
-82.64
-83.05
-83.05
-82.97
-83.57
-85.65
-89.78
-95.88
-103.14
-109.93
-114.07
-113.29
-105.84
-91.14
-70.06
-44.7
-17.79
8.16
31.48
51.45
68.09
81.66
92.35
100.19
105.1
107.1
106.33
102.91
96.99
88.59
77.84
65.1
51.08
36.78
23.31
11.48
1.6
-6.63
-13.98
-21.25
-29.06
-37.51
-46.29
-54.86
-62.72
-69.64
-75.8
-81.71
-88.15
-95.92
-105.48
-116.64
-128.24
-138.14
-143.59
-141.9
-131.24
-111.34
-83.6
-50.7
-15.75
18.47
50.17
78.58
103.56
125.21
143.54
158.38
169.64
177.54
182.71
186.14
188.85
191.63
194.68
197.67
199.82
200.2
197.9
192.22
182.66
168.87
150.7
128.22
101.97
73.04
43.07
13.81
-13.21
-37.23
-58.33
-77.4
-95.72
-114.42
-134.14
-154.59
-174.54
-191.82
-203.75
-207.75
-202.15
-186.8
-163.36
-134.93
-105.14
-77.16
-52.96
-33.05
-16.87
-3.47
7.91
17.58
25.51
31.56
35.85
38.73
40.59
41.69
42.02
41.39
39.71
37.21
34.48
32.25
31.01
30.76
30.87
30.35
28.18
23.8
17.24
9.16
0.49
-7.91
-15.62
-22.75
-30.03
-38.44
-48.91
-62.02
-77.55
-94.31
-110.07
-121.93
-127.02
-123.38
-110.66
-90.33
-65.25
-38.83
-13.96
7.54
25.02
38.64
48.88
56.19
60.99
63.7
64.86
65.08
64.81
64.24
63.26
61.57
58.97
55.55
51.72
48.12
45.31
43.53
42.56
41.67
39.93
36.56
31.23
24.24
16.42
8.8
2.24
-2.82
-6.55
-9.71
-13.42
-18.86
-26.73
-36.74
-47.44
-56.3
-60.47
-57.74
-47.46
-30.79
-10.32
10.89
30.29
46.45
59.04
68.39
74.99
79.14
80.98
80.64
78.56
75.33
71.62
67.92
64.4
60.9
57.07
52.63
47.55
42.07
36.67
31.84
27.82
24.4
20.92
16.46
10.17
1.56
-9.24
-21.45
-33.89
-45.34
-54.9
-62.29
-67.87
-72.6
-77.66
-84.12
-92.45
-102.14
-111.53
-118.15
-119.3
-112.97
-98.59
-77.32
-51.64
-24.64
1.03
23.58
42.28
57.13
68.42
76.41
81.3
83.37
83
80.75
77.23
72.96
68.22
62.97
57.01
50.05
42.02
33.17
24.16
15.99
9.6
5.49
3.38
2.34
0.99
-1.85
-6.77
-13.49
-21.19
-28.82
-35.59
-41.29
-46.14
-50.7
-55.63
-61.58
-69.04
-78.09
-88.11
-97.66
-104.56
-106.56
-102.06
-90.79
-74
-53.98
-33.28
-13.9
3.16
17.76
30.28
41.12
50.52
58.65
65.74
72.26
78.86
86.2
94.64
104.2
114.46
124.8
134.61
143.36
150.57
155.74
158.2
157.21
152.06
142.37
128.34
110.81
91.14
70.88
51.4
33.51
17.33
2.33
-12.42
-28
-45.21
-64.27
-84.44
-103.94
-120.16
-130.25
-132.04
-124.73
-109.36
-88.52
-65.48
-43.31
-24.02
-8.35
3.95
13.53
21
26.6
30.39
32.42
32.98
32.61
31.97
31.51
31.32
31.09
30.22
28.22
24.91
20.68
16.22
12.28
9.22
6.77
4.11
0.17
-5.84
-14.13
-24.23
-35.17
-45.98
-55.97
-65.01
-73.53
-82.36
-92.41
-104.43
-118.63
-134.38
-150.02
-162.99
-170.44
-170.02
-160.81
-143.63
-120.93
-95.95
-71.7
-50.26
-32.52
-18.48
-7.69
0.36
6.12
10.05
12.75
14.9
17.14
19.86
23.18
26.9
30.73
34.37
37.54
40.06
41.83
42.87
43.25
43.02
42.15
40.44
37.62
33.49
28.08
21.74
15.03
8.58
2.78
-2.34
-7.08
-11.92
-17.39
-23.88
-31.68
-40.82
-50.83
-60.64
-68.48
-72.22
-69.96
-60.83
-45.33
-25.32
-3.4
17.96
37.12
53.42
66.87
77.68
85.81
91.02
93.16
92.52
89.97
86.72
83.85
81.9
80.74
79.76
78.36
76.2
73.47
70.67
68.26
66.41
64.78
62.77
59.71
55.21
49.35
42.61
35.64
28.96
22.79
17.02
11.32
5.26
-1.52
-9.23
-17.78
-26.68
-34.89
-41.03
-43.71
-42.04
-35.99
-26.36
-14.51
-1.8
10.76
22.62
33.56
43.35
51.66
58.1
62.49
64.97
66
66.2
66.05
65.79
65.42
64.73
63.62
62.08
60.28
58.47
56.9
55.67
54.71
53.77
52.42
50.17
46.57
41.41
34.8
27.19
19.2
11.43
4.16
-2.72
-9.71
-17.56
-26.93
-38.12
-50.83
-63.93
-75.62
-83.71
-86.31
-82.37
-72.17
-57.15
-39.52
-21.55
-4.95
9.3
20.91
29.88
36.35
40.46
42.48
42.87
42.34
41.6
41.15
41.1
41.17
40.84
39.63
37.38
34.35
31.08
28.18
26
24.45
22.99
20.89
17.47
12.41
5.9
-1.52
-9.14
-16.34
-22.82
-28.68
-34.36
-40.53
-47.83
-56.73
-67.11
-78.09
-88
-94.69
-96.15
-91.18
-79.91
-63.8
-45.21
-26.59
-9.83
4.12
15.11
23.41
29.41
33.32
35.33
35.76
35.08
33.92
32.82
32.04
31.48
30.8
29.66
27.89
25.66
23.34
21.31
19.75
18.46
16.91
14.41
10.42
4.78
-2.22
-9.88
-17.45
-24.36
-30.56
-36.43
-42.73
-50.19
-59.19
-69.47
-79.97
-88.94
-94.35
-94.52
-88.67
-77.22
-61.7
-44.22
-26.88
-11.12
2.4
13.69
23.08
30.83
37.01
41.53
44.33
45.53
45.49
44.63
43.37
41.86
40.03
37.7
34.76
31.32
27.79
24.72
22.54
21.31
20.59
19.62
17.55
13.79
8.24
1.36
-6.07
-13.19
-19.39
-24.53
-28.99
-33.53
-39.02
-46.14
-54.95
-64.79
-74.26
-81.46
-84.51
-82.09
-73.9
-60.86
-44.75
-27.72
-11.61
2.48
14.29
24.06
32.25
39.06
44.49
48.47
51.06
52.57
53.49
54.31
55.24
56.21
57
57.37
57.26
56.76
56.09
55.37
54.56
53.38
51.4
48.18
43.41
37.01
29.24
20.6
11.75
3.31
-4.34
-11.21
-17.7
-24.47
-32.23
-41.49
-52.26
-63.82
-74.78
-83.25
-87.32
-85.66
-77.98
-65.19
-49.14
-32.1
-16.03
-2.18
9.04
17.79
24.42
29.15
32.05
33.19
32.85
31.6
30.17
29.13
28.65
28.46
28.03
26.94
25.13
22.96
20.99
19.59
18.73
17.92
16.39
13.49
8.91
2.88
-3.98
-10.87
-17.12
-22.43
-26.95
-31.28
-36.22
-42.53
-50.5
-59.77
-69.15
-76.9
-81.1
-80.28
-73.96
-62.79
-48.38
-32.79
-17.87
-4.8
5.97
14.64
21.63
27.3
31.83
35.25
37.59
38.97
39.69
40.08
40.4
40.7
40.87
40.7
40.03
38.86
37.39
35.87
34.51
33.24
31.82
29.79
26.73
22.42
16.93
10.62
4.04
-2.32
-8.11
-13.23
-17.89
-22.48
-27.53
-33.53
-40.69
-48.72
-56.71
-63.18
-66.46
-65.31
-59.28
-49.03
-36.03
-22.09
-8.75
3.07
13.07
21.39
28.27
33.87
38.22
41.34
43.34
44.44
44.9
44.93
44.65
44.03
43
41.49
39.52
37.23
34.89
32.8
31.13
29.79
28.39
26.41
23.42
19.26
14.16
8.7
3.47
-1.08
-4.86
-8.14
-11.42
-15.27
-20.14
-26.24
-33.37
-40.85
-47.52
-51.95
-52.79
-49.21
-41.16
-29.45
-15.52
-0.93
13.05
25.64
36.54
45.78
53.37
59.31
63.58
66.41
68.3
69.99
72.27
75.58
79.87
84.57
88.95
92.43
94.99
97.18
99.99
104.47
111.32
120.58
131.35
141.7
148.92
150
142.56
125.69
100.41
69.4
36.13
3.79
-25.71
-51.79
-74.86
-95.28
-112.73
-125.88
-132.79
-131.63
-121.5
-102.77
-77.04
-46.69
-14.46
16.96
45.28
68.6
85.6
95.68
99
96.46
89.45
79.5
67.84
55.23
41.81
27.36
11.45
-6.24
-25.7
-46.59
-68.18
-89.56
-109.89
-128.66
-145.85
-161.78
-176.9
-191.42
-205
-216.76
-225.6
-230.57
-231.4
-228.65
-223.61
-217.94
-213.11
-210.14
-209.41
-210.67
-213.1
-215.34
-215.48
-211.4
-201.24
-183.94
-159.68
-129.97
-97.17
-63.87
-32.25
-3.76
20.89
41.44
57.98
70.85
80.74
88.68
95.81
103.1
110.94
119.08
126.7
132.78
136.52
137.57
136.26
133.44
130.26
127.86
127
127.86
129.91
132.09
133.04
131.47
126.48
117.71
105.39
90.21
73.29
55.93
39.55
25.46
14.71
7.81
4.75
4.93
7.33
10.68
13.75
15.43
14.92
11.73
5.78
-2.68
-12.99
-24.31
-35.7
-46.38
-55.85
-63.94
-70.61
-75.83
-79.52
-81.66
-82.49
-82.66
-83.2
-85.21
-89.49
-96.19
-104.73
-113.96
-122.67
-130.04
-135.92
-140.73
-145.15
-149.64
-154.13
-158.05
-160.51
-160.62
-157.65
-151.19
-141.18
-128.06
-112.82
-96.88
-81.73
-68.42
-57.12
-47.16
-37.37
-26.77
-14.95
-2.2
10.76
23.16
34.43
44.18
52.18
58.25
62.37
64.68
65.5
65.1
63.64
61.16
57.74
53.73
49.75
46.6
45.08
45.68
48.46
52.99
58.43
63.64
67.56
69.44
69.21
67.41
65.04
63.1
62.33
63.02
64.99
67.74
70.27
71.21
68.98
62.49
51.78
38.55
25.87
17.18
14.78
18.94
27.71
37.98
46.73
52.26
54.32
53.7
51.46
48.42
45.27
42.88
42.47
45.32
52
61.78
72.53
81.31
85.61
84.3
77.92
68.18
56.87
45
32.48
18.57
2.69
-14.89
-33.01
-50.14
-65.21
-78.17
-90
-102.09
-115.32
-129.31
-142.15
-150.81
-152.03
-143.26
-123.58
-93.96
-57.12
-16.86
22.68
57.79
85.7
104.84
114.79
116.21
110.51
99.49
85.05
68.87
52.46
37.17
24.24
14.52
8.2
4.64
2.55
0.74
-1.16
-2.44
-1.64
2.45
9.68
18.05
24.15
24.43
16.77
1.59
-18.09
-37.42
-51.16
-55.07
-47.02
-27.81
-1.34
26
46.86
55.3
48.96
30.26
5.68
-16.61
-29.83
-30.97
-21.27
-4.88
13.53
30.75
45.69
58.78
70.7
81.54
90.66
97.27
101.11
102.72
103.16
103.58
104.62
106.1
107.08
106.34
102.92
96.67
88.53
80.24
73.72
70.12
69.2
69.35
68.16
63.5
54.45
41.66
27.16
13.54
3.23
-2.3
-2.88
0.28
4.96
8.74
9.94
8.28
4.94
1.94
1.15
3.42
8.24
14.18
19.62
23.43
25
24.01
20
12.3
0.45
-15.35
-33.93
-53.39
-71.61
-87.02
-99.05
-108.19
-115.56
-122.29
-129.07
-135.99
-142.78
-149.1
-154.68
-159.04
-161.39
-160.39
-154.51
-142.56
-124.31
-100.71
-73.65
-45.22
-17.01
10.28
36.59
61.99
86.18
108.36
127.53
142.97
154.8
163.87
171.42
178.39
185.04
190.92
195.41
198.13
199.3
199.5
199.24
198.52
196.69
192.65
185.3
174.08
159.23
141.87
123.74
106.71
92.47
82.33
76.99
76.63
80.83
88.68
98.81
109.46
118.83
125.42
128.62
128.78
127.05
124.64
122.14
119.04
113.92
105.2
91.93
74.16
52.94
29.68
5.43
-19.49
-45.35
-72.24
-99.27
-124.42
-145.02
-158.93
-165.57
-166.41
-164.24
-161.82
-160.54
-159.86
-157.86
-152.58
-143.36
-131.29
-118.64
-107.62
-99.27
-93.12
-87.94
-82.68
-77.35
-73.13
-71.97
-75.78
-85.94
-103.23
-127.79
-159.06
-195.51
-234.33
-271.56
-302.67
-323.83
-333.03
-330.47
-318.25
-299.26
-276.13
-250.54
-223.18
-194.11
-163.36
-131.29
-98.82
-67.31
-38.21
-12.8
8.02
23.81
34.43
39.73
39.59
34.07
23.68
9.7
-6.03
-21.64
-35.96
-48.95
-61.48
-74.63
-88.99
-104.14
-118.8
-131.58
-141.74
-149.74
-157.17
-165.88
-177.06
-190.37
-203.99
-215.47
-222.89
-225.72
-224.83
-221.54
-216.49
-208.78
-196.19
-176.22
-147.3
-109.25
-63.12
-10.91
44.29
97.97
144.33
177.12
191.6
186.57
165.36
134.81
102.63
74.25
51.25
32.03
14.31
-2.18
-14.79
-19.17
-12
6.59
32.29
58.1
77.01
84.36
79.18
63.83
42.61
20.06
-0.27
-16.15
-26.86
-32.84
-35.35
-35.91
-35.94
-36.57
-38.52
-42.14
-47.22
-52.73
-56.57
-55.83
-47.68
-30.78
-6.4
21.58
47.85
67.9
80.12
86.39
91.08
98.76
111.98
130.29
151.05
171.28
189.27
204.87
218.79
231.27
241.35
247.29
247.68
242.66
234.29
225.82
220.05
218.02
218.24
217.24
211.03
196.85
174.33
145.71
114.87
85.65
60.42
39.58
22.18
7.04
-6.02
-16.28
-23.01
-26.75
-29.74
-35.14
-45.37
-60.52
-78.18
-94.69
-107.11
-114.42
-117.36
-117
-113.23
-104.6
-89.57
-68.41
-44.31
-22.78
-9.63
-8.61
-20.09
-41.32
-68.05
-96.02
-121.85
-143.1
-157.91
-165
-164.24
-157.22
-147.13
-138.04
-133.31
-134.19
-139.15
-144.43
-145.34
-137.95
-120.22
-92.55
-57.52
-19.13
17.91
49.14
71.33
83.29
86.28
83.52
78.97
75.84
75.49
77.22
79.18
79.69
78.33
75.97
74.21
74.12
75.57
77.33
77.85
76.16
72.39
67.35
61.68
55.08
46.2
33.27
15.13
-7.94
-34.06
-60.39
-84.11
-103.2
-116.7
-124.49
-126.63
-122.91
-112.9
-96.32
-73.49
-45.83
-15.69
14.13
41.08
63.52
80.95
93.79
102.7
108.06
109.75
107.5
101.49
92.88
83.86
77.03
74.3
76.06
80.83
85.76
87.74
84.7
76.28
63.76
49.3
34.87
21.6
9.65
-1.41
-12.03
-22.3
-32.08
-41.24
-49.84
-58.08
-65.95
-72.84
-77.55
-78.74
-75.56
-68.26
-58.23
-47.53
-38.03
-30.74
-25.48
-21.31
-17.19
-12.7
-8.37
-5.32
-4.67
-6.78
-11.08
-16.26
-21.04
-24.8
-27.89
-31.32
-36.23
-43.14
-51.72
-60.94
-69.5
-76.41
-81.27
-84.36
-86.37
-88.04
-89.85
-91.83
-93.42
-93.45
-90.06
-80.73
-62.85
-34.53
4.08
49.97
97.39
139.28
169.5
185.05
186.98
179.76
169.37
161.13
158.25
161.48
169.51
179.5
187.65
189.64
181.52
161.04
128.91
89.25
48.63
14.15
-8.71
-17.43
-12.55
3.1
25.56
50.56
74.07
92.75
104.44
108.93
108.29
106.37
107.49
114.9
129.77
151.23
177.38
206.45
237.27
268.96
300.17
328.67
351.71
366.89
373.16
371.02
362
347.58
328.32
303.86
273.34
236.5
194.39
149.79
106.82
69.91
42.38
25.01
15.59
9.57
1.96
-10.65
-28.71
-50.08
-71.49
-90.58
-106.92
-121.73
-136.65
-152.28
-167.82
-181.53
-191.96
-198.78
-202.93
-205.83
-208.58
-211.38
-213.55
-214.02
-211.89
-206.69
-198.32
-186.99
-173.03
-156.92
-139.41
-121.46
-104.12
-88.27
-74.5
-63.2
-54.69
-49.43
-47.89
-50.3
-56.3
-64.91
-74.71
-84.4
-93.18
-100.89
-107.83
-114.33
-120.42
-125.81
-129.95
-132.37
-132.89
-131.8
-129.66
-127.14
-124.83
-123.01
-121.64
-120.56
-119.59
-118.69
-118.02
-117.74
-117.81
-117.82
-117.04
-114.66
-110.22
-103.83
-96.12
-87.94
-79.83
-71.83
-63.6
-54.8
-45.51
-36.39
-28.36
-22.21
-18.16
-15.87
-14.7
-14.11
-13.89
-14.13
-15.01
-16.6
-18.76
-21.25
-23.78
-26.02
-27.64
-28.17
-27.06
-23.77
-18
-9.89
-0.17
9.86
18.5
23.97
25.04
21.4
13.81
3.96
-6.14
-14.73
-20.82
-24.22
-25.41
-25.14
-24.14
-22.94
-21.84
-21.11
-21.05
-22.14
-24.82
-29.55
-36.38
-44.96
-54.48
-63.77
-71.51
-76.47
-77.71
-74.73
-67.67
-56.93
-43
-26.07
-5.74
18.88
48.99
85.64
129.44
180.12
236.04
293.66
347.42
390.53
416.48
421.02
403.49
366.89
316.59
258.62
198.21
139.51
86.02
40.82
6.34
-16.48
-29
-34.74
-38.21
-43.24
-51.63
-62.71
-74.35
-84
-89.99
-92.05
-91.23
-89.21
-87.5
-86.88
-87.17
-87.5
-86.94
-85.14
-82.53
-80.21
-79.24
-80.13
-82.46
-85.03
-86.35
-85.15
-80.85
-73.69
-64.68
-55.21
-46.7
-40.04
-35.26
-31.35
-26.35
-17.94
-4.32
14.81
37.69
60.73
79.57
90.63
92.46
86.34
75.71
64.76
56.8
53.38
54.22
57.82
62.53
67.06
70.75
73.31
74.7
74.95
74.21
72.72
70.66
68.05
64.63
59.9
53.32
44.53
33.6
21.01
7.68
-5.27
-16.82
-26.3
-33.63
-39.31
-44.15
-48.88
-53.9
-59.15
-64.29
-68.93
-72.81
-75.8
-77.92
-79.2
-79.72
-79.66
-79.24
-78.62
-77.77
-76.54
-74.75
-72.46
-70.08
-68.35
-67.95
-69.14
-71.59
-74.46
-76.77
-77.74
-77.01
-74.58
-70.61
-65.36
-59.11
-52.23
-45.32
-39.09
-34.2
-31.13
-29.98
-30.6
-32.6
-35.47
-38.56
-40.95
-41.53
-39.14
-33.03
-23.14
-10.25
4.19
18.44
30.97
40.81
47.59
51.5
53.05
52.82
51.31
48.8
45.39
41.07
35.93
30.3
24.8
20.12
16.72
14.57
13.12
11.6
9.35
6.19
2.27
-2.01
-6.38
-10.69
-14.63
-17.54
-18.42
-16.75
-13.3
-10.54
-12.03
-20.77
-37.55
-60.15
-84.02
-103.94
-115.95
-118.2
-110.81
-94.83
-71.61
-42.7
-10.45
21.58
48.98
67.76
75.77
73.6
64.26
51.98
40.59
32.42
27.88
25.99
25.16
24.09
22.2
19.66
16.97
14.57
12.53
10.53
8.1
5.02
1.51
-1.68
-3.53
-2.95
0.94
8.85
21.23
38.02
58.27
79.88
99.66
114.1
120.49
117.86
107.38
91.96
75.16
60.04
48.47
40.96
37.04
35.89
36.76
39.14
42.6
46.64
50.55
53.61
55.39
56.04
56.27
57.01
58.66
60.64
61.25
58.45
50.84
38.62
23.81
9.48
-1.55
-7.91
-10.23
-10.77
-12.26
-16.58
-23.99
-33
-41.03
-45.5
-44.75
-38.56
-28.01
-14.79
-0.53
13.85
28.2
42.8
57.8
72.83
87.07
99.64
110.01
118.13
124.18
128.11
129.31
126.9
120.39
110.42
98.89
88.5
81.65
79.57
81.86
87
93.22
99.35
105.19
111.13
117.5
124
129.71
133.59
135.18
135.03
134.5
135.08
137.5
141.3
145.05
147.22
147.02
144.94
142.31
140.49
139.96
140.04
139.38
136.75
131.72
124.7
116.36
106.96
95.93
82.32
65.39
45.49
24.08
3.25
-15.18
-30.38
-42.61
-52.82
-61.94
-70.4
-78
-84.39
-89.46
-93.59
-97.54
-102.14
-107.93
-115.02
-123.19
-132
-140.92
-149.36
-156.63
-162.07
-165.16
-165.85
-164.54
-162.07
-159.26
-156.7
-154.56
-152.71
-150.95
-149.2
-147.48
-145.79
-143.94
-141.52
-138.16
-133.63
-128.1
-121.93
-115.46
-108.85
-101.93
-94.44
-86.14
-77.09
-67.63
-58.23
-49.34
-41.25
-33.97
-27.46
-21.64
-16.58
-12.48
-9.64
-8.35
-8.88
-11.29
-15.41
-20.65
-26.13
-30.71
-33.38
-33.4
-30.63
-25.5
-18.93
-11.96
-5.5
-0.12
4.03
7.08
9.28
10.82
11.73
11.87
11
8.9
5.51
0.97
-4.41
-10.24
-16.19
-22
-27.51
-32.56
-36.93
-40.3
-42.36
-42.91
-41.91
-39.54
-36.13
-32.06
-27.72
-23.42
-19.51
-16.37
-14.3
-13.35
-13.18
-13
-11.75
-8.52
-2.92
4.75
13.62
22.67
31.04
38.34
44.54
49.79
54.22
57.73
60.12
61.08
60.42
57.98
53.82
48.14
41.45
34.4
27.77
22.18
17.85
14.57
11.76
8.77
5.12
0.65
-4.52
-10.1
-15.68
-20.91
-25.47
-29.22
-32.26
-34.9
-37.58
-40.66
-44.27
-48.12
-51.6
-53.91
-54.2
-51.84
-46.63
-39
-30.14
-21.71
-15.44
-12.44
-12.72
-15.23
-18.27
-20.18
-19.91
-17.16
-12.22
-5.61
2.12
10.4
18.61
26.04
32.14
36.72
40.14
43.19
46.82
51.69
58.02
65.52
73.6
81.55
88.76
94.71
98.94
101.07
100.68
97.47
91.16
81.62
68.91
53.3
35.44
16.45
-2.08
-18.33
-30.66
-38.08
-40.53
-38.91
-34.69
-29.38
-24.06
-19.3
-15.17
-11.57
-8.43
-5.82
-3.89
-2.7
-2.19
-2.19
-2.54
-3.3
-4.84
-7.83
-13.02
-20.96
-31.68
-44.52
-58.36
-71.93
-84.35
-95.44
-105.73
-116.03
-127.02
-138.88
-151.28
-163.63
-175.44
-186.43
-196.4
-205.11
-212.1
-216.8
-218.72
-217.58
-213.22
-205.46
-193.96
-178.35
-158.55
-135.18
-109.66
-83.93
-59.94
-39.11
-22.04
-8.71
1.23
8.13
12.24
13.82
13.37
11.72
9.92
8.96
9.44
11.47
14.56
17.93
20.76
22.43
22.69
21.59
19.46
16.65
13.41
9.79
5.65
0.79
-4.87
-11.31
-18.37
-25.93
-33.98
-42.52
-51.42
-60.08
-67.4
-71.99
-72.61
-68.53
-59.77
-46.98
-31.26
-13.8
4.22
21.69
37.53
50.86
61.05
68.02
72.25
74.65
76.24
77.85
79.82
82.1
84.32
86.14
87.38
88.12
88.7
89.47
90.63
92.08
93.44
94.15
93.66
91.58
87.79
82.52
76.19
69.31
62.31
55.41
48.5
41.23
33.25
24.36
14.79
5.27
-3.05
-8.84
-10.86
-8.27
-0.79
11.17
26.57
43.93
61.54
77.81
91.56
102.18
109.69
114.61
117.69
119.67
121.1
122.29
123.43
124.58
125.8
127.21
128.93
131.08
133.75
136.99
140.66
144.37
147.31
148.42
146.51
140.61
130.25
115.52
97.02
75.66
52.43
28.24
3.74
-20.66
-44.65
-67.83
-89.36
-107.9
-121.71
-129.25
-129.82
-123.89
-113.17
-99.96
-86.31
-73.44
-61.56
-50.35
-39.45
-28.94
-19.33
-11.3
-5.24
-1.07
1.58
3.13
3.75
3.19
1.07
-2.98
-9.04
-16.82
-25.74
-35.26
-44.95
-54.77
-65.03
-76.31
-89.27
-104.41
-121.78
-140.91
-160.93
-180.89
-200.12
-218.39
-235.82
-252.48
-267.99
-281.18
-290.25
-293.17
-288.17
-274.41
-252.02
-222
-185.8
-145.01
-101.26
-56.46
-13.01
26.17
58.05
80.37
92.3
94.78
90.09
80.99
69.79
57.83
45.74
33.96
23.22
14.56
8.95
6.67
7.03
8.52
9.46
8.64
5.8
1.66
-2.61
-5.91
-7.85
-8.91
-10.29
-13.37
-19.1
-27.59
-38.09
-49.22
-59.47
-67.47
-72.22
-72.93
-68.96
-59.81
-45.29
-25.6
-1.51
25.86
55.17
85.04
113.8
139.22
158.56
169.14
169.33
159.54
142.5
122.43
103.52
88.46
77.8
70.4
64.69
59.84
56.11
54.34
54.84
56.63
57.47
54.72
46.62
33.2
16.6
0.59
-10.28
-11.82
-1.36
21.08
52.11
85.23
112.26
125.83
121.91
101.49
70.29
36.69
8.64
-8.77
-14.29
-9.63
2.31
19.07
39.12
61.36
84.34
105.79
123.08
134.14
138.31
136.58
131.17
124.4
117.86
111.9
105.93
99.08
90.97
82.1
73.67
67.04
62.99
61.31
60.8
59.84
56.94
51.32
42.94
32.44
20.67
8.38
-4
-16.53
-29.7
-44.17
-60.27
-77.46
-93.85
-106.24
-110.75
-104.1
-84.72
-53.49
-13.49
30.73
74.36
113.25
144.54
166.83
180.03
185.13
183.75
177.82
169.16
159.29
149.18
139.03
128.14
115.05
97.92
75.4
47.46
15.86
-16.22
-45.2
-68.46
-85.29
-96.79
-105.01
-111.71
-117.57
-122.14
-124.49
-124.16
-121.77
-118.97
-117.78
-119.7
-124.85
-131.75
-137.74
-139.98
-136.47
-126.72
-111.81
-93.73
-74.61
-56.03
-38.79
-23
-8.2
6.62
23.04
43.14
68.88
101.13
138.71
178.14
214.38
242.43
259.03
263.73
258.72
247.55
233.54
218.67
203.39
187.35
170.48
153.65
138.65
127.45
121.31
120.36
123.66
129.96
138.33
148.35
159.74
171.5
181.38
186.03
182.16
167.81
143.33
111.38
75.93
41
9.6
-16.62
-37.11
-51.91
-61.43
-66.4
-68.02
-67.94
-67.82
-68.99
-72.09
-77.14
-83.8
-91.62
-100.28
-109.42
-118.66
-127.57
-135.68
-142.54
-147.67
-150.57
-150.65
-147.51
-141.23
-132.6
-123.08
-114.36
-107.78
-103.85
-102.07
-101.12
-99.53
-96.25
-91.02
-84.38
-77.37
-71.04
-65.87
-61.6
-57.33
-51.82
-44.14
-34.11
-22.32
-9.88
2.18
13.36
23.74
33.78
43.76
53.45
62.08
68.59
72.06
71.99
68.31
61.35
51.62
39.85
26.98
14.06
1.95
-8.87
-18.57
-27.76
-37.05
-46.61
-55.95
-64.16
-70.39
-74.21
-75.93
-76.47
-77.12
-79.14
-83.36
-89.82
-97.57
-104.69
-108.9
-108.24
-101.89
-90.47
-75.86
-60.57
-46.95
-36.47
-29.49
-25.22
-22.09
-18.34
-12.63
-4.57
5.21
15.48
25.12
33.71
41.7
49.95
59.09
68.94
78.62
87.14
94.06
99.86
105.58
112.21
119.8
127.42
133.51
136.93
137.59
136.76
136.33
137.67
140.64
143.23
142.3
134.8
118.84
94.4
63.1
27.64
-8.82
-43.25
-73.08
-96.64
-113.39
-124.07
-130.36
-134.26
-137.22
-139.74
-141.28
-140.86
-137.6
-131.2
-121.98
-110.61
-97.78
-83.93
-69.12
-53.05
-35.28
-15.49
6.22
29.19
52.27
74.02
92.97
107.97
118.39
124.45
127.28
128.83
131.32
136.36
144.21
153.4
161.14
164.26
160.44
148.78
129.84
105.21
76.92
47.05
17.53
-10.19
-35.44
-58.53
-80.6
-102.98
-126.39
-150.32
-173.12
-192.63
-207.01
-215.36
-217.65
-214.38
-206.14
-193.53
-177.42
-159.24
-140.95
-124.48
-111
-100.55
-92.14
-84.36
-76.18
-67.47
-58.82
-51.1
-44.86
-40.12
-36.61
-34.25
-33.51
-35.41
-40.98
-50.81
-64.5
-80.81
-97.81
-113.45
-125.92
-133.89
-136.69
-134.39
-127.89
-118.73
-108.92
-100.5
-95.05
-93.39
-95.51
-100.73
-107.94
-115.85
-123.21
-129.09
-133.05
-135.1
-135.57
-134.59
-131.71
-125.94
-116.12
-101.74
-83.54
-63.62
-44.85
-29.9
-20.39
-16.46
-17.02
-20.34
-24.59
-28.37
-30.86
-31.95
-32.3
-33.22
-36.3
-42.76
-52.77
-65.05
-77.02
-85.45
-87.53
-81.74
-68.35
-49.21
-27.08
-4.71
16
34.33
50.61
65.55
79.65
92.64
103.65
111.6
115.86
116.71
115.26
113
111.11
109.96
109.27
108.43
107.3
106.47
107.21
110.85
118.07
128.44
140.56
152.66
163.38
172.29
179.79
186.68
193.61
200.75
207.79
214.22
219.43
222.74
223.1
219.09
209.18
192.35
168.73
139.9
108.46
77.18
48.04
21.76
-2
-23.94
-44.35
-62.82
-78.51
-90.79
-99.78
-106.37
-111.77
-116.68
-121
-123.92
-124.48
-122.18
-117.28
-110.69
-103.39
-96.06
-88.78
-81.19
-72.82
-63.41
-53.04
-42.14
-31.34
-21.23
-12.41
-5.46
-1.03
0.21
-2.19
-8.21
-17.13
-27.51
-37.43
-45.03
-48.88
-48.3
-43.2
-33.94
-21.06
-5.09
13.28
33.22
53.62
73.33
91.27
106.6
118.87
127.91
133.73
136.39
135.87
132.14
125.28
115.61
103.85
91.07
78.41
66.74
56.18
46.02
34.92
21.61
5.65
-12.21
-30.3
-46.62
-59.72
-69.01
-74.5
-76.3
-74.3
-68.43
-59.31
-48.77
-39.65
-34.74
-35.5
-41.11
-48.73
-54.66
-55.91
-51.28
-41.47
-28.43
-14.24
-0.35
12.65
24.78
36.1
46.35
54.78
60.41
62.34
60.16
54.12
45.01
33.88
21.7
9.13
-3.34
-15.31
-26.1
-34.87
-40.76
-43.24
-42.47
-39.34
-35.18
-31.35
-28.71
-27.53
-27.51
-28.2
-29.36
-31.1
-33.83
-37.85
-42.98
-48.32
-52.39
-53.55
-50.59
-43.22
-32.18
-18.91
-5
8.39
20.86
32.66
44.29
55.97
67.45
78
86.86
93.63
98.46
102.01
105.04
108.14
111.5
114.97
118.28
121.25
123.86
126.2
128.31
129.97
130.8
130.34
128.37
125
120.42
114.62
107.09
96.88
83
64.96
43.07
18.33
-8.07
-35.11
-62.16
-88.6
-113.49
-135.33
-152.56
-164.27
-170.99
-174.73
-178.36
-184.42
-194.03
-206.42
-219.3
-229.65
-234.67
-232.45
-222.12
-203.75
-178.4
-148.26
-116.8
-88.35
-67.07
-55.46
-53.41
-58.06
-65.09
-70.62
-72.72
-71.71
-69.21
-66.67
-64.44
-61.84
-58.13
-53.47
-49.09
-46.41
-46.04
-47.19
-47.99
-46.69
-42.65
-36.62
-30.23
-24.96
-21.33
-18.71
-15.88
-11.7
-5.65
2.16
11.23
21.03
31.13
41.2
50.93
60.02
68.33
75.94
83.06
89.75
95.7
100.14
101.98
100.32
94.64
84.89
71.31
54.37
34.93
14.65
-3.86
-17.57
-23.97
-22.08
-12.91
1.06
17.02
32.96
48.26
63.43
79.23
95.9
112.7
128.14
140.63
149.1
153.47
154.73
154.6
154.94
157.01
160.99
165.98
170.57
173.54
174.37
173.34
171.04
167.82
163.56
157.84
150.39
141.48
131.81
122.18
112.99
104.05
94.72
84.46
73.19
61.49
50.29
40.38
31.99
24.72
17.72
10.25
1.96
-6.94
-15.84
-24.14
-31.5
-38
-44.02
-50.03
-56.22
-62.36
-67.77
-71.48
-72.5
-70.17
-64.44
-55.86
-45.49
-34.53
-24
-14.51
-6.25
0.85
6.84
11.64
14.91
16.31
15.57
12.73
8.17
2.61
-3.19
-8.56
-13.09
-16.7
-19.55
-21.85
-23.72
-25.19
-26.18
-26.69
-26.86
-26.96
-27.32
-28.22
-29.66
-31.46
-33.33
-34.98
-36.3
-37.33
-38.27
-39.25
-40.27
-41.04
-41.05
-39.72
-36.59
-31.56
-25
-17.69
-10.63
-4.64
-0.2
2.75
4.66
5.99
7.06
7.84
8.14
7.82
6.96
5.91
5.02
4.47
4.12
3.53
2.26
0.03
-3.13
-6.96
-11.08
-15.24
-19.26
-23.14
-26.81
-30.24
-33.4
-36.23
-38.82
-41.26
-43.68
-46.11
-48.48
-50.66
-52.51
-53.86
-54.56
-54.37
-52.97
-50.13
-45.75
-40.07
-33.55
-26.82
-20.43
-14.71
-9.73
-5.41
-1.68
1.46
3.84
5.33
5.87
5.63
4.94
4.13
3.45
2.93
2.48
1.87
1.01
-0.21
-1.77
-3.57
-5.41
-7.02
-8.07
-8.23
-7.35
-5.58
-3.36
-1.36
-0.22
-0.36
-1.92
-4.74
-8.47
-12.69
-16.93
-20.75
-23.72
-25.51
-25.94
-25.2
-23.73
-22.25
-21.43
-21.73
-23.15
-25.23
-27.29
-28.7
-29.15
-28.77
-27.98
-27.26
-26.91
-26.94
-27.1
-27.15
-26.98
-26.72
-26.62
-26.91
-27.63
-28.63
-29.68
-30.58
-31.31
-31.97
-32.68
-33.49
-34.3
-34.95
-35.32
-35.51
-35.81
-36.65
-38.45
-41.36
-45.21
-49.39
-52.9
-54.59
-53.42
-48.84
-41
-30.75
-19.45
-8.57
0.66
7.55
12
14.34
15.13
14.86
13.87
12.31
10.29
8.06
5.97
4.43
3.7
3.81
4.5
5.43
6.36
7.18
7.97
8.8
9.63
10.3
10.63
10.52
9.98
9.1
7.92
6.38
4.39
1.85
-1.27
-4.93
-8.97
-13.14
-16.95
-19.8
-21.02
-20.09
-16.85
-11.56
-4.79
2.81
10.74
18.63
26.27
33.32
39.31
43.76
46.38
47.32
47.14
46.56
46.21
46.23
46.41
46.37
45.84
44.83
43.64
42.51
41.51
40.42
38.84
36.42
33.05
28.88
24.26
19.5
14.85
10.35
5.98
1.6
-2.95
-7.9
-13.57
-20.13
-27.6
-35.53
-43.07
-49.09
-52.58
-53.02
-50.51
-45.82
-39.94
-33.8
-27.9
-22.39
-17.2
-12.31
-7.77
-3.84
-0.74
1.42
2.67
3.17
3.14
2.8
2.43
2.24
2.37
2.86
3.63
4.5
5.29
5.87
6.1
5.83
4.95
3.46
1.47
-0.81
-3.13
-5.34
-7.43
-9.52
-11.76
-14.2
-16.84
-19.62
-22.44
-25.19
-27.58
-29.15
-29.27
-27.4
-23.34
-17.41
-10.36
-3.11
3.55
9.21
13.76
17.28
19.92
21.78
22.91
23.43
23.53
23.42
23.26
23.08
22.75
22.07
20.89
19.18
17.08
14.85
12.67
10.53
8.14
4.92
0.27
-6.13
-14.12
-23.08
-32.12
-40.49
-47.73
-53.89
-59.26
-64.26
-69.08
-73.66
-77.66
-80.58
-81.91
-81.29
-78.59
-73.96
-67.79
-60.65
-53.17
-45.91
-39.28
-33.43
-28.27
-23.56
-19.01
-14.46
-9.88
-5.36
-1.06
3
6.81
10.43
13.8
16.83
19.38
21.42
23.09
24.61
26.13
27.67
29.06
30.08
30.49
30.18
29.06
27.06
24.12
20.24
15.55
10.22
4.34
-2.12
-9.31
-17.21
-25.36
-32.81
-38.3
-40.69
-39.35
-34.44
-26.75
-17.36
-7.26
2.79
12.33
20.98
28.39
34.25
38.39
40.89
42.06
42.41
42.42
42.46
42.68
42.97
43.13
42.98
42.48
41.76
41.04
40.51
40.2
39.9
39.29
38.03
35.96
33.12
29.76
26.22
22.8
19.71
16.99
14.62
12.48
10.41
8.24
5.81
3.08
0.18
-2.54
-4.59
-5.49
-4.9
-2.81
0.53
4.69
9.19
13.6
17.67
21.21
24.15
26.34
27.68
28.07
27.46
25.98
23.86
21.51
19.28
17.44
15.99
14.75
13.51
12.09
10.48
8.81
7.23
5.76
4.31
2.66
0.59
-2.02
-5.12
-8.49
-11.85
-15.06
-18.22
-21.65
-25.7
-30.5
-35.68
-40.41
-43.56
-44.15
-41.71
-36.51
-29.31
-21.15
-12.95
-5.33
1.38
7.05
11.57
14.78
16.6
17.03
16.25
14.69
12.93
11.55
10.92
11.06
11.63
12.12
12.07
11.3
9.97
8.41
6.95
5.65
4.38
2.87
0.97
-1.31
-3.78
-6.23
-8.58
-10.9
-13.41
-16.32
-19.78
-23.88
-28.57
-33.66
-38.76
-43.3
-46.54
-47.8
-46.59
-42.89
-37.08
-29.86
-22.04
-14.3
-7.06
-0.43
5.6
11.16
16.31
21.05
25.37
29.18
32.38
34.85
36.5
37.3
37.3
36.71
35.74
34.66
33.65
32.78
31.99
31.16
30.06
28.53
26.38
23.53
20.03
15.99
11.63
7.08
2.49
-2.08
-6.66
-11.31
-16.17
-21.27
-26.5
-31.41
-35.23
-37.14
-36.51
-33.21
-27.72
-20.93
-13.83
-7.21
-1.37
3.7
8.14
11.99
15.06
17.08
17.84
17.46
16.31
14.94
13.79
13.1
12.79
12.58
12.21
11.56
10.64
9.6
8.59
7.67
6.76
5.69
4.19
2.02
-0.95
-4.64
-8.8
-13.03
-17.07
-20.81
-24.5
-28.47
-33
-37.96
-42.79
-46.58
-48.38
-47.55
-43.97
-38.04
-30.5
-22.13
-13.58
-5.28
2.49
9.53
15.67
20.74
24.7
27.63
29.74
31.26
32.38
33.18
33.59
33.55
32.99
31.91
30.37
28.48
26.39
24.22
22.08
19.94
17.7
15.24
12.44
9.39
6.24
3.18
0.26
-2.64
-5.77
-9.36
-13.52
-18.18
-23.14
-28.1
-32.61
-36.01
-37.5
-36.36
-32.24
-25.45
-16.89
-7.71
1.01
8.7
15.15
20.47
24.65
27.62
29.29
29.79
29.52
29.11
29.04
29.52
30.4
31.4
32.28
33.04
33.8
34.72
35.77
36.63
36.82
35.86
33.41
29.36
23.89
17.39
10.34
3.3
-3.23
-8.88
-13.59
-17.6
-21.42
-25.65
-30.68
-36.45
-42.32
-47.19
-49.79
-49.08
-44.68
-36.98
-27.04
-16.28
-6.11
2.48
9.04
13.63
16.62
18.43
19.43
19.85
19.81
19.44
18.87
18.21
17.5
16.7
15.67
14.32
12.59
10.59
8.5
6.54
4.88
3.61
2.76
2.32
2.27
2.55
3
3.35
3.21
2.1
-0.37
-4.47
-10.18
-17.1
-24.4
-30.95
-35.49
-36.86
-34.38
-28.07
-18.8
-8.04
2.47
11.19
17.15
20.16
20.62
19.16
16.33
12.34
7.14
0.71
-6.85
-15.13
-23.66
-32.02
-40.01
-47.61
-54.84
-61.55
-67.41
-71.99
-74.93
-76.16
-75.84
-74.37
-72.08
-69.24
-66.12
-63.07
-60.53
-58.96
-58.55
-58.99
-59.48
-58.92
-56.53
-51.96
-45.45
-37.45
-28.05
-16.82
-2.85
14.58
35.36
58.26
81.11
101.66
118.4
131.08
140.46
147.69
153.54
158.22
161.62
163.67
164.34
163.11
158.34
147.47
127.92
98.72
61.8
21.89
-15
-43.89
-62.69
-72.48
-76.28
-76.93
-75.53
-71.27
-62.56
-48.86
-31.69
-14.69
-2.3
2.02
-2.9
-15.59
-32.72
-50.48
-65.82
-76.96
-83.14
-84.04
-79.39
-68.97
-53.27
-33.87
-13.56
4.39
17.33
24.24
26.21
25.92
26.51
30.26
37.7
47.58
57.68
65.75
70.5
71.8
70.42
67.42
63.64
59.48
55.09
50.54
46.07
41.96
38.41
35.39
32.66
29.81
26.5
22.44
17.49
11.59
4.7
-3.08
-11.46
-19.91
-27.67
-33.87
-37.72
-38.6
-36.27
-30.87
-22.93
-13.35
-3.17
6.6
15.17
22.14
27.4
31.11
33.5
34.82
35.21
34.77
33.55
31.61
29.02
25.8
21.89
17.24
11.8
5.62
-1.09
-7.99
-14.79
-21.28
-27.46
-33.46
-39.41
-45.33
-51.13
-56.68
-61.88
-66.86
-71.83
-77.08
-82.75
-88.7
-94.53
-99.47
-102.64
-103.23
-100.74
-95.12
-86.85
-76.8
-66
-55.37
-45.5
-36.65
-28.78
-21.8
-15.6
-10.14
-5.42
-1.44
1.82
4.35
6.2
7.43
8.2
8.77
9.43
10.48
12.05
14.06
16.29
18.46
20.27
21.55
22.19
22.22
21.64
20.49
18.75
16.34
13.13
9.02
4.07
-1.33
-6.47
-10.42
-12.28
-11.46
-7.89
-2.02
5.29
13.09
20.52
26.97
32.2
36.2
39.09
41.02
42.08
42.35
41.93
41.01
39.79
38.51
37.32
36.21
35.11
33.9
32.54
31.07
29.51
27.86
26.02
23.84
21.24
18.22
14.86
11.25
7.43
3.42
-0.79
-5.13
-9.54
-14.06
-18.81
-23.94
-29.45
-34.99
-39.78
-42.84
-43.22
-40.39
-34.39
-25.8
-15.55
-4.61
6.15
16.06
24.59
31.39
36.19
38.96
39.9
39.47
38.22
36.65
35.14
33.83
32.69
31.59
30.44
29.23
27.99
26.85
25.92
25.24
24.75
24.31
23.69
22.66
21.01
18.65
15.62
12.02
7.99
3.56
-1.34
-6.9
-13.21
-20.16
-27.23
-33.58
-38.17
-40.17
-39.17
-35.32
-29.32
-22.1
-14.57
-7.42
-1
4.6
9.42
13.51
16.86
19.43
21.2
22.26
22.81
23.1
23.35
23.7
24.14
24.54
24.79
24.79
24.56
24.1
23.4
22.35
20.8
18.68
16.06
13.09
9.99
6.95
3.98
1.02
-2.12
-5.67
-9.83
-14.69
-20.13
-25.74
-30.81
-34.48
-35.94
-34.67
-30.72
-24.57
-17.06
-9.07
-1.28
5.92
12.35
17.93
22.56
26.1
28.47
29.66
29.87
29.45
28.83
28.35
28.17
28.21
28.2
27.84
26.93
25.48
23.59
21.4
19.01
16.32
13.23
9.62
5.55
1.19
-3.18
-7.34
-11.14
-14.67
-18.16
-21.87
-26.04
-30.73
-35.82
-40.94
-45.49
-48.7
-49.82
-48.26
-43.87
-37.04
-28.65
-19.77
-11.39
-4.15
1.77
6.44
10.06
12.76
14.62
15.71
16.19
16.26
16.15
15.97
15.7
15.24
14.54
13.58
12.49
11.45
10.63
10.1
9.82
9.6
9.15
8.22
6.62
4.34
1.58
-1.38
-4.27
-7
-9.67
-12.57
-15.98
-20.07
-24.76
-29.71
-34.31
-37.87
-39.75
-39.53
-37.14
-32.82
-27.13
-20.66
-14.05
-7.85
-2.41
2
5.28
7.45
8.62
8.97
8.69
7.97
7.02
6.04
5.24
4.79
4.73
4.96
5.23
5.32
5.09
4.56
3.85
3.04
2.12
0.98
-0.55
-2.56
-5.05
-7.89
-10.89
-13.92
-16.97
-20.23
-23.91
-28.2
-33.01
-37.85
-41.89
-44.19
-43.95
-40.83
-35.07
-27.34
-18.5
-9.31
-0.3
8.18
15.89
22.54
27.82
31.49
33.54
34.22
34.05
33.53
33.05
32.71
32.35
31.73
30.59
28.83
26.51
23.77
20.85
17.97
15.24
12.7
10.26
7.8
5.27
2.72
0.28
-1.89
-3.8
-5.62
-7.78
-10.71
-14.77
-19.97
-25.94
-31.93
-37.02
-40.31
-41.14
-39.21
-34.63
-27.88
-19.73
-11.08
-2.79
4.47
10.37
14.89
18.25
20.73
22.51
23.63
24.05
23.74
22.78
21.36
19.77
18.19
16.71
15.31
13.93
12.6
11.36
10.3
9.46
8.81
8.15
7.21
5.72
3.54
0.66
-2.69
-6.24
-9.72
-13
-16.23
-19.65
-23.52
-27.9
-32.59
-37.01
-40.42
-42.05
-41.35
-38.2
-32.91
-26.15
-18.71
-11.35
-4.65
1.04
5.58
8.94
11.18
12.41
12.73
12.27
11.11
9.44
7.42
5.28
3.3
1.7
0.66
0.22
0.34
0.86
1.58
2.25
2.62
2.46
1.57
-0.11
-2.52
-5.47
-8.74
-12.09
-15.39
-18.65
-21.93
-25.4
-29.06
-32.8
-36.13
-38.4
-38.88
-37.07
-32.83
-26.49
-18.79
-10.58
-2.72
4.26
10.06
14.65
18.1
20.45
21.77
22.12
21.69
20.77
19.74
18.83
18.15
17.57
16.91
16.05
14.98
13.84
12.75
11.67
10.37
8.59
6.17
3.13
-0.24
-3.59
-6.54
-8.91
-10.7
-12.14
-13.59
-15.52
-18.33
-22.26
-27.25
-32.84
-38.25
-42.43
-44.43
-43.6
-39.84
-33.65
-25.9
-17.64
-9.77
-2.83
3.05
7.98
12.15
15.64
18.44
20.46
21.72
22.4
22.82
23.31
24.07
25.03
25.88
26.21
25.74
24.48
22.73
20.88
19.22
17.74
16.15
14.15
11.54
8.51
5.45
2.85
0.96
-0.35
-1.57
-3.33
-6.14
-10.14
-15.14
-20.64
-26.05
-30.76
-34.23
-35.96
-35.58
-32.88
-27.96
-21.22
-13.42
-5.41
2
8.34
13.44
17.4
20.38
22.53
23.89
24.5
24.42
23.82
22.98
22.15
21.53
21.23
21.25
21.59
22.18
22.95
23.7
24.27
24.46
24.22
23.57
22.59
21.38
20.02
18.5
16.8
14.87
12.62
9.86
6.42
2.18
-2.72
-7.8
-12.22
-15.02
-15.49
-13.41
-9.15
-3.51
2.6
8.42
13.55
17.85
21.37
24.16
26.26
27.67
28.43
28.61
28.21
27.18
25.43
22.99
20
16.75
13.57
10.72
8.32
6.4
4.93
3.8
2.89
1.94
0.65
-1.28
-4.01
-7.42
-11.19
-14.86
-18.08
-20.73
-22.99
-25.23
-27.83
-31.07
-34.92
-39.09
-42.98
-45.92
-47.23
-46.46
-43.49
-38.56
-32.2
-25.08
-17.86
-11.03
-4.83
0.67
5.5
9.74
13.45
16.69
19.5
21.87
23.8
25.17
25.81
25.56
24.32
22.2
19.49
16.62
13.98
11.82
10.13
8.71
7.29
5.62
3.58
1.12
-1.69
-4.82
-8.13
-11.5
-14.81
-18.01
-21.18
-24.57
-28.48
-33.03
-37.96
-42.61
-46.02
-47.32
-46.02
-42.3
-36.82
-30.47
-24
-17.79
-11.85
-6.12
-0.59
4.52
8.84
12.11
14.31
15.65
16.44
16.94
17.27
17.44
17.45
17.36
17.32
17.52
18.06
18.91
19.92
20.79
21.2
20.81
19.38
16.8
13.2
8.84
4.1
-0.76
-5.63
-10.65
-15.99
-21.79
-27.95
-34.08
-39.49
-43.45
-45.28
-44.59
-41.39
-36.05
-29.21
-21.61
-13.95
-6.78
-0.38
5.15
9.84
13.75
16.85
19.05
20.25
20.43
19.67
18.21
16.33
14.23
12
9.6
6.9
3.91
0.71
-2.53
-5.64
-8.62
-11.64
-15.07
-19.16
-24.01
-29.37
-34.74
-39.61
-43.61
-46.67
-48.9
-50.56
-51.86
-52.93
-53.79
-54.41
-54.64
-54.22
-52.71
-49.62
-44.58
-37.45
-28.51
-18.29
-7.54
3.01
12.75
21.21
28.11
33.35
37.01
39.34
40.79
41.81
42.76
43.86
45.09
46.26
47.07
47.32
46.88
45.79
44.2
42.32
40.3
38.11
35.63
32.71
29.27
25.43
21.44
17.63
14.16
10.98
7.85
4.46
0.46
-4.31
-9.92
-16.26
-22.98
-29.46
-34.86
-38.27
-38.97
-36.71
-31.82
-25.1
-17.54
-9.97
-2.86
3.73
9.9
15.8
21.34
26.34
30.51
33.73
36.06
37.76
39.19
40.63
42.25
44.08
46.1
48.28
50.58
52.95
55.24
57.21
58.54
58.96
58.3
56.57
53.92
50.58
46.73
42.38
37.36
31.28
23.76
14.57
3.84
-7.81
-19.35
-29.62
-37.54
-42.42
-44.13
-43.02
-39.72
-34.9
-29.22
-23.17
-17.22
-11.88
-7.59
-4.63
-3
-2.39
-2.41
-2.69
-3.09
-3.6
-4.33
-5.25
-6.3
-7.31
-8.18
-8.88
-9.45
-9.92
-10.3
-10.53
-10.65
-10.77
-11.11
-11.93
-13.35
-15.35
-17.75
-20.27
-22.64
-24.78
-26.76
-28.85
-31.38
-34.53
-38.23
-42.01
-45.14
-46.82
-46.44
-43.85
-39.35
-33.58
-27.28
-21.07
-15.3
-10.15
-5.72
-2.21
0.16
1.14
0.76
-0.63
-2.43
-3.99
-4.9
-5.13
-4.96
-4.78
-4.91
-5.34
-5.93
-6.5
-7.01
-7.65
-8.62
-10.13
-12.13
-14.45
-16.82
-19.02
-20.96
-22.63
-24.13
-25.59
-27.15
-29.05
-31.47
-34.56
-38.22
-41.99
-45.15
-46.83
-46.36
-43.41
-38.09
-30.92
-22.62
-13.94
-5.51
2.24
9.1
15.13
20.5
25.49
30.25
34.79
38.93
42.42
45.06
46.72
47.52
47.64
47.28
46.6
45.7
44.59
43.21
41.39
38.89
35.47
30.96
25.4
19.08
12.46
6.03
0.13
-5.09
-9.76
-14.18
-18.73
-23.65
-28.95
-34.19
-38.63
-41.26
-41.17
-37.9
-31.6
-23
-13.18
-3.21
6.1
14.25
21.04
26.41
30.41
33.16
34.88
35.9
36.48
36.9
37.26
37.58
37.79
37.76
37.38
36.64
35.65
34.62
33.84
33.51
33.59
33.76
33.51
32.35
30.04
26.69
22.71
18.6
14.65
10.83
6.79
2
-3.92
-11
-18.79
-26.46
-32.88
-36.98
-37.94
-35.49
-29.95
-22.09
-12.94
-3.45
5.69
14.09
21.55
27.94
33.11
36.97
39.49
40.86
41.4
41.46
41.3
40.91
40.16
38.81
36.8
34.28
31.6
29.19
27.27
25.74
24.18
22
18.83
14.65
9.83
4.91
0.31
-3.86
-7.8
-11.86
-16.27
-21.19
-26.56
-32.23
-37.96
-43.38
-47.86
-50.6
-50.92
-48.44
-43.35
-36.35
-28.45
-20.59
-13.47
-7.38
-2.27
2.02
5.68
8.82
11.46
13.57
15.16
16.28
16.98
17.34
17.38
17.14
16.64
15.95
15.16
14.3
13.35
12.13
10.37
7.81
4.38
0.24
-4.25
-8.59
-12.45
-15.73
-18.65
-21.67
-25.31
-29.89
-35.36
-41.15
-46.25
-49.5
-49.9
-46.97
-41
-32.93
-24.05
-15.59
-8.35
-2.54
2.04
5.81
9.03
11.79
13.99
15.5
16.24
16.34
15.96
15.24
14.22
12.87
11.14
9.12
6.96
4.9
3.08
1.44
-0.28
-2.45
-5.4
-9.2
-13.63
-18.24
-22.55
-26.2
-29.19
-31.83
-34.65
-38.14
-42.54
-47.7
-52.96
-57.22
-59.23
-57.87
-52.5
-43.24
-30.94
-17.03
-3.13
9.38
19.59
27.25
32.5
35.85
37.78
38.8
39.23
39.34
39.25
38.99
38.51
37.68
36.46
34.88
33.15
31.53
30.29
29.53
29.1
28.63
27.56
25.41
21.85
16.91
10.96
4.49
-1.9
-7.86
-13.21
-18.11
-22.89
-27.93
-33.44
-39.29
-44.94
-49.48
-51.93
-51.47
-47.85
-41.38
-32.91
-23.45
-13.94
-5.03
2.99
10.06
16.22
21.44
25.67
28.79
30.74
31.57
31.55
31.02
30.3
29.66
29.19
28.87
28.69
28.65
28.76
29.01
29.24
29.2
28.52
26.87
24.07
20.1
15.18
9.64
3.79
-2.14
-8.08
-14.09
-20.24
-26.42
-32.21
-36.88
-39.59
-39.6
-36.53
-30.56
-22.36
-12.93
-3.34
5.55
13.19
19.37
24.17
27.76
30.35
32.07
33.02
33.25
32.84
31.87
30.48
28.83
27.12
25.57
24.4
23.74
23.54
23.54
23.32
22.44
20.55
17.58
13.7
9.3
4.76
0.31
-4.04
-8.51
-13.38
-18.94
-25.25
-32.14
-39.11
-45.37
-49.95
-51.9
-50.57
-45.89
-38.39
-29.07
-19.11
-9.54
-1
6.41
12.82
18.5
23.59
28.03
31.59
33.98
35.07
34.88
33.66
31.8
29.59
27.25
24.8
22.19
19.4
16.52
13.68
11
8.44
5.8
2.79
-0.74
-4.76
-9.01
-13.19
-17.18
-21.11
-25.33
-30.18
-35.77
-41.81
-47.6
-52.18
-54.61
-54.19
-50.66
-44.29
-35.83
-26.33
-16.88
-8.34
-1.16
4.7
9.57
13.83
17.68
21.07
23.8
25.77
27.04
27.93
28.76
29.74
30.82
31.72
32.06
31.54
29.94
27.04
22.68
16.81
9.51
1.18
-7.63
-16.37
-24.71
-32.64
-40.4
-48.26
-56.41
-64.74
-72.95
-80.44
-86.57
-90.56
-91.67
-89.29
-83.21
-73.72
-61.72
-48.55
-35.62
-24.03
-14.35
-6.56
-0.25
5.06
9.69
13.72
17.15
19.95
22.18
24
25.59
27.01
28.28
29.39
30.41
31.43
32.54
33.7
34.69
35.2
34.93
33.71
31.55
28.63
25.21
21.56
17.81
13.85
9.45
4.28
-1.92
-9.2
-17.24
-25.34
-32.54
-37.79
-40.24
-39.53
-35.89
-30
-22.9
-15.54
-8.62
-2.47
2.86
7.42
11.26
14.36
16.68
18.19
18.97
19.23
19.2
19.12
19.11
19.19
19.22
19
18.36
17.23
15.65
13.76
11.69
9.51
7.15
4.57
1.73
-1.26
-4.25
-7.17
-10.07
-13.17
-16.73
-20.92
-25.65
-30.57
-34.99
-38.03
-38.81
-36.72
-31.64
-23.96
-14.63
-4.79
4.45
12.4
18.77
23.67
27.46
30.5
32.98
34.95
36.3
36.88
36.68
35.8
34.53
33.19
31.99
31.04
30.28
29.58
28.81
27.95
26.96
25.83
24.53
22.98
21.13
18.97
16.58
14.03
11.33
8.42
5.11
1.16
-3.6
-9.02
-14.61
-19.5
-22.66
-23.18
-20.7
-15.5
-8.43
-0.58
7.08
13.95
19.84
24.78
28.81
31.89
33.95
34.96
35.06
34.49
33.54
32.39
31.06
29.49
27.56
25.16
22.29
19.05
15.59
12.09
8.71
5.53
2.47
-0.6
-3.9
-7.5
-11.35
-15.27
-19.03
-22.46
-25.61
-28.77
-32.31
-36.52
-41.36
-46.38
-50.74
-53.39
-53.48
-50.64
-45.1
-37.63
-29.25
-20.89
-13.11
-6.13
0.07
5.51
10.09
13.63
16.01
17.27
17.65
17.51
17.08
16.46
15.56
14.27
12.54
10.41
8
5.41
2.71
-0.08
-3
-6.07
-9.28
-12.59
-15.95
-19.25
-22.43
-25.5
-28.61
-31.99
-35.94
-40.68
-46.15
-51.89
-57.09
-60.78
-62.05
-60.38
-55.8
-48.94
-40.85
-32.59
-25.04
-18.62
-13.37
-9.06
-5.44
-2.36
0.24
2.36
4.1
5.53
6.82
7.98
9.04
9.86
10.37
10.57
10.59
10.64
10.93
11.52
12.33
13.02
13.21
12.56
10.96
8.53
5.6
2.51
-0.51
-3.51
-6.74
-10.51
-15.07
-20.31
-25.79
-30.67
-33.94
-34.77
-32.69
-27.85
-20.96
-13.02
-5.06
2.2
8.45
13.68
18.09
21.84
25.02
27.6
29.6
31.04
31.96
32.45
32.55
32.25
31.53
30.38
28.82
26.95
24.89
22.78
20.67
18.55
16.27
13.61
10.38
6.49
2.08
-2.59
-7.17
-11.43
-15.37
-19.17
-23.13
-27.43
-31.96
-36.22
-39.44
-40.75
-39.46
-35.29
-28.47
-19.72
-10.03
-0.43
8.24
15.51
21.24
25.48
28.41
30.14
30.76
30.4
29.33
27.9
26.48
25.28
24.34
23.48
22.55
21.44
20.24
19.06
17.93
16.71
15.2
13.2
10.74
8.05
5.48
3.24
1.34
-0.43
-2.48
-5.2
-8.88
-13.63
-19.25
-25.26
-30.83
-34.96
-36.7
-35.44
-31.12
-24.3
-15.94
-7.12
1.2
8.4
14.25
18.78
22.14
24.55
26.15
27.16
27.67
27.81
27.64
27.23
26.63
25.86
24.99
24.04
23.08
22.2
21.43
20.75
19.99
18.91
17.21
14.69
11.29
7.14
2.53
-2.26
-7.03
-11.73
-16.52
-21.61
-27.23
-33.41
-39.88
-45.95
-50.65
-52.97
-52.25
-48.35
-41.78
-33.45
-24.47
-15.75
-7.95
-1.36
3.97
8.17
11.41
13.88
15.73
17.06
17.85
18.06
17.69
16.84
15.74
14.7
13.98
13.72
13.83
14.07
14.06
13.47
12.05
9.72
6.52
2.56
-1.95
-6.83
-11.94
-17.17
-22.55
-28.15
-33.99
-39.96
-45.68
-50.54
-53.74
-54.52
-52.4
-47.37
-39.87
-30.7
-20.84
-11.09
-2.07
5.95
12.85
18.59
23.13
26.38
28.35
29.2
29.24
28.81
28.18
27.45
26.53
25.28
23.66
21.86
20.25
19.19
18.82
18.92
18.95
18.31
16.63
13.89
10.43
6.75
3.21
-0.1
-3.37
-6.96
-11.19
-16.13
-21.52
-26.77
-31.02
-33.33
-32.95
-29.54
-23.27
-14.83
-5.27
4.34
13.11
20.5
26.37
30.91
34.45
37.25
39.45
40.99
41.74
41.62
40.74
39.35
37.78
36.27
34.89
33.7
32.72
32
31.64
31.61
31.75
31.74
31.29
30.2
28.43
26.06
23.19
19.86
16.01
11.6
6.55
0.81
-5.65
-12.73
-20.04
-26.84
-32.06
-34.58
-33.62
-29.13
-21.8
-12.96
-4
4
10.56
15.69
19.66
22.67
24.72
25.59
25.1
23.24
20.34
16.97
13.73
11.08
9.2
8
7.29
6.87
6.59
6.29
5.74
4.69
2.9
0.32
-2.91
-6.47
-10.08
-13.54
-16.88
-20.34
-24.2
-28.67
-33.76
-39.17
-44.3
-48.37
-50.54
-50.22
-47.18
-41.69
-34.38
-26.13
-17.75
-9.86
-2.87
3.08
7.98
11.9
15.03
17.49
19.44
20.95
22.04
22.71
22.92
22.65
21.94
20.87
19.55
18.11
16.68
15.23
13.61
11.58
8.94
5.62
1.78
-2.27
-6.23
-10.03
-13.8
-17.83
-22.39
-27.57
-33.3
-39.41
-45.58
-51.41
-56.24
-59.27
-59.7
-57.02
-51.31
-43.3
-34.25
-25.51
-18.1
-12.51
-8.64
-6.03
-4.2
-2.81
-1.78
-1.21
-1.22
-1.93
-3.34
-5.43
-8.06
-11
-13.85
-16.11
-17.24
-17.01
-15.57
-13.5
-11.6
-10.58
-10.75
-12.01
-13.97
-16.19
-18.39
-20.52
-22.58
-24.61
-26.61
-28.67
-30.87
-33.33
-35.88
-37.95
-38.57
-36.73
-31.75
-23.74
-13.56
-2.56
7.92
17.01
24.4
30.29
35
38.77
41.64
43.53
44.41
44.41
43.76
42.79
41.76
40.84
40.12
39.56
39.1
38.6
37.93
36.94
35.5
33.55
31.01
27.95
24.44
20.65
16.81
13.04
9.34
5.53
1.26
-3.73
-9.45
-15.51
-21.12
-25.29
-27.08
-25.9
-21.68
-14.84
-6.24
3.14
12.32
20.55
27.46
32.98
37.29
40.75
43.74
46.55
49.26
51.72
53.67
54.76
54.69
53.38
50.93
47.56
43.58
39.29
34.95
30.69
26.53
22.38
18.12
13.7
9.18
4.76
0.63
-3.08
-6.45
-9.78
-13.53
-18.12
-23.8
-30.58
-38.11
-45.69
-52.38
-57.19
-59.25
-58.1
-53.86
-47.18
-39.06
-30.58
-22.65
-15.82
-10.26
-5.88
-2.46
0.27
2.51
4.34
5.78
6.76
7.24
7.19
6.7
5.88
4.89
3.78
2.57
1.16
-0.47
-2.35
-4.42
-6.63
-8.92
-11.29
-13.81
-16.51
-19.39
-22.44
-25.62
-28.98
-32.73
-37.1
-42.17
-47.73
-53.2
-57.72
-60.42
-60.69
-58.47
-54.15
-48.41
-41.95
-35.18
-28.24
-21.14
-13.96
-7.07
-1.01
3.66
6.6
7.86
7.9
7.27
6.46
5.65
4.84
3.94
3.08
2.61
2.94
4.27
6.35
8.58
10.17
10.56
9.7
7.97
5.97
4.18
2.81
1.73
0.62
-0.86
-2.97
-5.85
-9.36
-13.09
-16.32
-18.14
-17.77
-14.81
-9.45
-2.43
5.28
12.76
19.44
25.12
29.92
33.98
37.37
40.03
41.83
42.71
42.74
42.11
41.11
39.92
38.6
37.13
35.46
33.65
31.83
30.17
28.75
27.47
26.06
24.25
21.82
18.73
15.21
11.57
8.18
5.32
3.18
1.76
0.89
0.27
-0.46
-1.6
-3.22
-5.05
-6.54
-7.01
-5.95
-3.26
0.71
5.26
9.64
13.39
16.42
18.98
21.42
23.9
26.32
28.31
29.52
29.76
29.08
27.76
26.12
24.38
22.65
20.95
19.24
17.45
15.52
13.29
10.65
7.47
3.76
-0.37
-4.71
-8.98
-12.96
-16.45
-19.35
-21.72
-23.82
-26.01
-28.67
-31.94
-35.54
-38.66
-40.25
-39.27
-35.19
-28.16
-18.97
-8.78
1.28
10.46
18.39
25.02
30.39
34.47
37.13
38.3
38.04
36.58
34.31
31.56
28.59
25.62
22.78
20.2
18.01
16.23
14.81
13.67
12.76
12.05
11.55
11.21
10.85
10.17
8.79
6.43
2.93
-1.54
-6.67
-12.01
-17.19
-21.93
-26.08
-29.52
-32.12
-33.66
-33.9
-32.66
-29.99
-26.11
-21.47
-16.54
-11.77
-7.47
-3.87
-1.12
0.69
1.6
1.72
1.3
0.52
-0.56
-2.11
-4.49
-8.11
-13.28
-20
-27.94
-36.5
-44.89
-52.33
-58.17
-62.05
-63.88
-63.96
-62.81
-61.12
-59.56
-58.67
-58.82
-60.21
-62.89
-66.84
-71.94
-77.83
-83.86
-89.04
-92.23
-92.35
-88.74
-81.48
-71.38
-59.76
-48.02
-37.23
-27.88
-19.91
-12.96
-6.65
-0.81
4.52
9.14
12.93
15.95
18.35
20.38
22.23
23.95
25.44
26.54
27.12
27.07
26.37
24.98
22.86
20.01
16.52
12.64
8.74
5.15
2.11
-0.32
-2.31
-4.2
-6.4
-9.27
-13
-17.43
-22.05
-25.96
-28.13
-27.66
-24.2
-18.01
-9.97
-1.19
7.32
14.91
21.37
26.79
31.3
35.07
38.17
40.69
42.8
44.67
46.4
47.9
48.89
49.07
48.23
46.42
43.95
41.31
38.96
37.21
36.03
35.1
33.94
32.18
29.63
26.46
23.05
19.79
16.88
14.16
11.22
7.5
2.61
-3.45
-10.22
-16.77
-22.03
-25.05
-25.2
-22.43
-17.28
-10.67
-3.63
3.03
8.84
13.76
17.93
21.49
24.39
26.47
27.48
27.38
26.33
24.71
22.91
21.13
19.41
17.62
15.69
13.72
11.93
10.53
9.58
8.87
8.02
6.7
4.74
2.22
-0.6
-3.55
-6.51
-9.5
-12.69
-16.2
-20.19
-24.71
-29.63
-34.54
-38.74
-41.34
-41.6
-39.17
-34.23
-27.45
-19.72
-11.89
-4.54
2.04
7.8
12.78
16.97
20.37
23.02
24.95
26.34
27.43
28.41
29.33
30.12
30.61
30.63
30.12
29.17
28.02
26.85
25.7
24.39
22.61
20.02
16.53
12.24
7.54
2.94
-1.14
-4.51
-7.27
-9.78
-12.57
-16.17
-20.86
-26.56
-32.75
-38.49
-42.71
-44.43
-43.16
-39.01
-32.68
-25.19
-17.5
-10.25
-3.7
2.27
7.76
12.76
17.05
20.38
22.56
23.73
24.22
24.44
24.69
25
25.24
25.18
24.72
23.99
23.22
22.6
22.11
21.51
20.34
18.24
15.02
10.83
6.04
1.12
-3.44
-7.37
-10.57
-13.21
-15.71
-18.65
-22.63
-27.99
-34.57
-41.64
-48.01
-52.42
-53.94
-52.27
-47.76
-41.3
-33.86
-26.3
-19.17
-12.7
-6.95
-1.82
2.69
6.54
9.69
12.05
13.61
14.42
14.52
14.01
12.96
11.45
9.61
7.64
5.75
4.08
2.65
1.25
-0.47
-2.83
-5.91
-9.5
-13.07
-15.98
-17.69
-17.99
-17.06
-15.44
-13.91
-13.35
-14.48
-17.61
-22.54
-28.33
-33.63
-36.98
-37.26
-34.05
-27.66
-19
-9.17
0.87
10.47
19.26
27.15
34.08
39.99
44.79
48.38
50.7
51.83
51.94
51.32
50.23
48.89
47.39
45.7
43.77
41.59
39.2
36.75
34.31
31.96
29.63
27.14
24.28
20.85
16.82
12.32
7.61
2.97
-1.43
-5.57
-9.57
-13.68
-18.09
-23.02
-28.55
-34.57
-40.71
-46.21
-50.17
-51.64
-50.04
-45.41
-38.38
-30.03
-21.46
-13.54
-6.67
-0.9
3.93
8.01
11.47
14.35
16.68
18.51
19.91
21
21.81
22.37
22.66
22.66
22.37
21.8
21.02
20.14
19.29
18.6
18.1
17.64
16.98
15.84
13.99
11.37
8.08
4.29
0.16
-4.15
-8.52
-12.86
-17.13
-21.38
-25.75
-30.36
-35.16
-39.77
-43.49
-45.47
-45.1
-42.14
-36.9
-30.08
-22.51
-14.9
-7.74
-1.26
4.44
9.33
13.32
16.34
18.29
19.2
19.22
18.71
18.15
17.88
18.01
18.33
18.45
18.02
16.9
15.29
13.58
12.12
11.02
10.09
8.92
7.13
4.56
1.33
-2.25
-5.78
-9.01
-11.9
-14.66
-17.68
-21.31
-25.74
-30.87
-36.25
-41.11
-44.58
-45.92
-44.72
-41.08
-35.51
-28.69
-21.34
-13.98
-6.92
-0.38
5.45
10.36
14.21
17.01
18.98
20.51
21.93
23.44
24.98
26.35
27.37
27.91
27.97
27.56
26.71
25.41
23.71
21.76
19.77
17.9
16.16
14.36
12.2
9.39
5.82
1.61
-2.95
-7.52
-11.93
-16.24
-20.8
-26
-32.13
-39.16
-46.62
-53.7
-59.43
-62.92
-63.6
-61.31
-56.29
-49.14
-40.63
-31.61
-22.85
-15.02
-8.53
-3.58
-0.1
2.21
3.77
5.06
6.48
8.25
10.44
12.9
15.38
17.6
19.28
20.31
20.77
20.87
20.88
21.03
21.36
21.74
21.89
21.51
20.47
18.77
16.64
14.36
12.14
10.06
7.99
5.67
2.79
-0.86
-5.42
-10.85
-16.95
-23.29
-29.16
-33.65
-35.87
-35.19
-31.45
-25.1
-16.96
-8.07
0.71
8.79
15.84
21.76
26.48
30
32.36
33.75
34.49
34.94
35.41
36.01
36.59
36.84
36.44
35.25
33.35
31
28.5
26.05
23.65
21.13
18.28
14.91
10.94
6.5
1.83
-2.72
-6.9
-10.58
-13.89
-17.2
-21
-25.67
-31.37
-37.83
-44.37
-50.06
-53.87
-54.98
-52.86
-47.46
-39.17
-28.8
-17.35
-5.88
4.79
14.15
22.02
28.33
33.1
36.31
37.98
38.29
37.61
36.44
35.26
34.33
33.65
33
32.16
31.07
29.86
28.72
27.8
27.04
26.2
24.93
22.91
20
16.31
12.16
7.91
3.87
0.14
-3.38
-7
-11.08
-16
-21.95
-28.84
-36.22
-43.29
-48.92
-52.14
-52.26
-49.21
-43.48
-35.95
-27.59
-19.19
-11.23
-3.95
2.57
8.28
13.11
17.01
20.01
22.23
23.89
25.22
26.39
27.39
28.08
28.31
27.96
27.16
26.16
25.33
24.9
24.88
24.98
24.69
23.53
21.13
17.48
12.79
7.48
2
-3.27
-8.17
-12.62
-16.74
-20.77
-25.02
-29.77
-35.12
-40.84
-46.24
-50.31
-51.92
-50.31
-45.29
-37.38
-27.69
-17.47
-7.81
0.67
7.76
13.58
18.32
22.01
24.64
26.15
26.68
26.5
26.03
25.59
25.26
24.83
24
22.58
20.63
18.46
16.42
14.75
13.32
11.8
9.79
7.15
4.06
0.99
-1.53
-3.26
-4.28
-5.11
-6.46
-8.97
-13.07
-18.78
-25.79
-33.43
-40.85
-46.96
-50.78
-51.52
-48.89
-43.17
-35.18
-26.06
-16.96
-8.7
-1.66
4.22
9.23
13.65
17.58
20.9
23.47
25.25
26.42
27.31
28.23
29.29
30.32
30.97
30.94
30.14
28.76
27.1
25.44
23.8
22.01
19.76
16.88
13.4
9.6
5.84
2.47
-0.4
-2.87
-5.24
-7.9
-11.23
-15.56
-21.05
-27.6
-34.8
-41.86
-47.73
-51.39
-52.06
-49.46
-43.86
-35.92
-26.58
-16.68
-7.01
1.86
9.56
15.85
20.66
24.03
26.16
27.32
27.87
28.19
28.63
29.39
30.51
31.83
33.11
34.19
35
35.59
36.03
36.26
36.11
35.32
33.77
31.44
28.56
25.43
22.36
19.52
16.93
14.4
11.51
7.75
2.62
-4.1
-12.19
-20.82
-28.77
-34.72
-37.68
-37.24
-33.68
-27.74
-20.42
-12.69
-5.29
1.27
6.82
11.32
14.88
17.58
19.55
20.85
21.62
21.96
21.98
21.66
20.91
19.62
17.72
15.32
12.68
10.19
8.09
6.49
5.21
3.93
2.29
-0.04
-3.17
-7.02
-11.3
-15.57
-19.41
-22.61
-25.31
-27.95
-31.16
-35.43
-40.89
-47.09
-53.13
-57.79
-59.95
-58.84
-54.29
-46.78
-37.23
-26.78
-16.53
-7.26
0.58
6.88
11.71
15.26
17.78
19.56
20.88
21.97
22.93
23.73
24.27
24.39
24.02
23.19
22.02
20.69
19.41
18.31
17.36
16.45
15.3
13.69
11.51
8.8
5.73
2.49
-0.77
-4.08
-7.53
-11.33
-15.7
-20.85
-26.91
-33.82
-41.16
-48.12
-53.7
-56.85
-56.88
-53.68
-47.65
-39.64
-30.64
-21.56
-13.01
-5.41
1.05
6.23
9.95
12.09
12.66
11.91
10.41
8.88
7.94
7.89
8.52
9.32
9.74
9.51
8.83
8.2
8.03
8.41
8.96
8.97
7.82
5.28
1.59
-2.66
-6.84
-10.65
-14.2
-17.97
-22.59
-28.55
-35.93
-44.28
-52.73
-60.1
-65.22
-67.23
-65.72
-60.86
-53.28
-43.9
-33.69
-23.44
-13.73
-4.83
3.16
10.23
16.31
21.33
25.16
27.78
29.36
30.24
30.81
31.37
32
32.57
32.9
32.86
32.48
31.83
30.95
29.67
27.71
24.77
20.79
16.02
10.96
6.19
2.15
-1.01
-3.49
-5.69
-8.2
-11.54
-16.15
-22.1
-29.01
-35.98
-41.72
-44.92
-44.65
-40.68
-33.55
-24.34
-14.29
-4.38
4.82
13.1
20.48
26.99
32.6
37.18
40.6
42.84
43.97
44.19
43.81
43.1
42.26
41.36
40.4
39.36
38.25
37.15
36.05
34.84
33.25
30.92
27.58
23.16
17.88
12.13
6.41
1.04
-3.83
-8.32
-12.72
-17.43
-22.74
-28.76
-35.35
-41.94
-47.62
-51.31
-52.07
-49.41
-43.5
-35.11
-25.38
-15.42
-6.06
2.28
9.51
15.65
20.7
24.61
27.36
29.03
29.85
30.14
30.13
29.9
29.42
28.57
27.38
25.98
24.63
23.55
22.77
22.13
21.3
19.93
17.8
14.92
11.47
7.77
4.1
0.56
-2.89
-6.56
-10.8
-16.01
-22.4
-29.86
-37.85
-45.34
-51.04
-53.7
-52.57
-47.62
-39.59
-29.74
-19.35
-9.41
-0.42
7.51
14.46
20.49
25.64
29.85
33.11
35.45
36.92
37.56
37.34
36.25
34.31
31.64
28.45
25.05
21.8
18.99
16.83
15.25
13.89
12.22
9.76
6.29
1.96
-2.69
-7.05
-10.67
-13.52
-15.94
-18.56
-22.04
-26.84
-32.99
-40.1
-47.28
-53.43
-57.39
-58.27
-55.63
-49.64
-40.99
-30.69
-19.88
-9.57
-0.43
7.12
12.94
17.1
19.68
20.77
20.51
19.12
16.98
14.63
12.61
11.31
10.81
10.9
11.28
11.73
12.3
13.19
14.53
16.15
17.53
17.97
17
14.53
10.97
6.96
3.11
-0.31
-3.37
-6.47
-10.18
-15.01
-21.29
-29.01
-37.69
-46.35
-53.64
-58.13
-58.74
-55.06
-47.49
-37.11
-25.31
-13.44
-2.44
7.15
15.25
21.93
27.28
31.37
34.24
35.98
36.84
37.11
37.13
37.12
37.11
36.96
36.53
35.64
34.3
32.61
30.7
28.54
25.97
22.75
18.65
13.67
8.08
2.38
-2.91
-7.48
-11.31
-14.77
-18.4
-22.79
-28.38
-35.23
-42.91
-50.44
-56.45
-59.43
-58.2
-52.28
-42.03
-28.64
-13.76
0.96
14.27
25.57
34.89
42.6
49.11
54.55
58.85
61.73
63.03
62.87
61.55
59.46
56.87
53.89
50.49
46.67
42.62
38.65
35.11
32.22
29.9
27.82
25.48
22.47
18.57
13.87
8.68
3.37
-1.75
-6.63
-11.48
-16.62
-22.44
-29.17
-36.79
-44.91
-52.8
-59.43
-63.7
-64.73
-62.03
-55.79
-46.72
-35.93
-24.61
-13.74
-3.96
4.44
11.43
17.15
21.77
25.48
28.42
30.77
32.61
34.03
35.01
35.49
35.37
34.6
33.24
31.47
29.53
27.61
25.77
23.87
21.65
18.86
15.37
11.26
6.74
2.1
-2.46
-6.86
-11.16
-15.48
-19.99
-24.81
-30.02
-35.54
-41.12
-46.25
-50.16
-52.07
-51.36
-47.85
-41.87
-34.15
-25.63
-17.12
-9.25
-2.38
3.32
7.76
10.92
12.8
13.5
13.24
12.3
10.96
9.52
8.11
6.82
5.63
4.55
3.6
2.89
2.48
2.29
2.05
1.34
-0.22
-2.82
-6.28
-10.18
-14.01
-17.4
-20.31
-22.95
-25.79
-29.29
-33.79
-39.34
-45.64
-51.88
-56.97
-59.67
-59.05
-54.76
-47.23
-37.48
-26.82
-16.41
-7
1.16
8.14
14.13
19.23
23.41
26.61
28.85
30.32
31.32
32.15
32.93
33.56
33.79
33.39
32.26
30.56
28.65
26.92
25.62
24.72
23.85
22.4
19.86
15.88
10.59
4.43
-1.99
-8.13
-13.74
-18.91
-23.93
-29.19
-35
-41.45
-48.35
-55.16
-61.06
-64.94
-65.75
-62.84
-56.17
-46.47
-34.97
-23.1
-11.96
-2.16
6.2
13.3
19.32
24.31
28.14
30.72
32.11
32.58
32.5
32.13
31.51
30.46
28.73
26.25
23.2
19.97
17.01
14.52
12.37
10.13
7.29
3.49
-1.34
-6.92
-12.82
-18.56
-23.9
-28.86
-33.68
-38.82
-44.62
-51.23
-58.38
-65.42
-71.31
-74.93
-75.34
-72.13
-65.57
-56.54
-46.37
-36.38
-27.61
-20.53
-15.14
-11.03
-7.75
-4.98
-2.67
-0.89
0.29
0.9
1.14
1.19
1.11
0.88
0.5
0.17
0.26
1.18
3.13
5.88
8.73
10.91
11.77
11.17
9.47
7.2
4.89
2.73
0.56
-1.97
-5.22
-9.43
-14.55
-20.25
-25.89
-30.51
-33.03
-32.39
-27.95
-19.75
-8.59
4.13
16.81
28.06
37.02
43.48
47.68
50.09
51.2
51.4
50.98
50.16
49.11
47.91
46.5
44.77
42.59
40.02
37.29
34.82
33.04
32.16
32.05
32.21
31.96
30.6
27.75
23.4
17.91
11.88
5.95
0.56
-4.13
-8.28
-12.26
-16.55
-21.53
-27.19
-33.02
-38.01
-40.91
-40.59
-36.47
-28.74
-18.29
-6.44
5.49
16.51
26.19
34.46
41.49
47.44
52.34
56.11
58.6
59.77
59.68
58.47
56.33
53.42
49.93
46.08
42.12
38.34
34.9
31.69
28.37
24.44
19.48
13.38
6.39
-0.92
-7.94
-14.26
-19.78
-24.77
-29.71
-35.15
-41.49
-48.77
-56.51
-63.67
-68.83
-70.56
-67.93
-60.83
-50.05
-37.07
-23.56
-10.91
-0
8.85
15.74
20.99
24.92
27.8
29.81
31.09
31.69
31.65
30.99
29.81
28.2
26.26
24.16
22.05
20.04
18.18
16.42
14.63
12.62
10.25
7.47
4.31
0.94
-2.48
-5.85
-9.18
-12.64
-16.57
-21.4
-27.52
-35.04
-43.59
-52.23
-59.49
-63.78
-63.88
-59.3
-50.54
-38.88
-26
-13.51
-2.48
6.67
14
19.75
24.13
27.1
28.55
28.43
26.87
24.19
20.81
17.14
13.42
9.77
6.25
2.96
0.08
-2.22
-3.79
-4.68
-5.12
-5.42
-5.88
-6.66
-7.73
-8.97
-10.25
-11.6
-13.23
-15.52
-18.82
-23.38
-29.27
-36.29
-43.94
-51.46
-57.79
-61.72
-62.2
-58.66
-51.25
-40.87
-28.93
-16.85
-5.76
3.81
11.77
18.33
23.66
27.84
30.88
32.78
33.64
33.62
32.93
31.8
30.4
28.97
27.7
26.84
26.52
26.73
27.18
27.39
26.81
24.97
21.67
17.11
11.78
6.31
1.3
-2.96
-6.56
-9.92
-13.65
-18.34
-24.27
-31.21
-38.36
-44.46
-48.16
-48.39
-44.77
-37.73
-28.37
-18.07
-8.04
0.97
8.74
15.34
20.99
25.84
29.89
33.11
35.48
37.08
38.06
38.54
38.59
38.23
37.42
36.21
34.73
33.22
31.96
31.1
30.57
30.06
29.02
26.93
23.43
18.56
12.7
6.45
0.44
-4.91
-9.55
-13.73
-17.99
-22.78
-28.36
-34.53
-40.58
-45.37
-47.72
-46.75
-42.21
-34.58
-24.92
-14.51
-4.47
4.52
12.16
18.47
23.59
27.6
30.57
32.56
33.67
34.14
34.15
33.84
33.22
32.16
30.56
28.4
25.86
23.24
20.83
18.77
17.01
15.3
13.34
10.93
8.06
4.85
1.51
-1.77
-4.91
-7.94
-10.94
-14.05
-17.52
-21.59
-26.43
-32.01
-37.85
-43.08
-46.57
-47.32
-44.86
-39.39
-31.81
-23.3
-14.97
-7.56
-1.3
3.86
8
11.25
13.59
15.12
16.03
16.7
17.42
18.38
19.51
20.54
21.16
21.24
20.87
20.32
19.87
19.54
19.1
18.14
16.29
13.36
9.46
4.91
0.13
-4.55
-9.02
-13.33
-17.77
-22.7
-28.44
-35.06
-42.22
-49.05
-54.33
-56.79
-55.59
-50.57
-42.41
-32.3
-21.67
-11.75
-3.29
3.39
8.38
11.97
14.54
16.4
17.84
19.03
20.11
21.12
22
22.59
22.66
22.01
20.62
18.68
16.59
14.81
13.62
13.03
12.74
12.27
11.2
9.26
6.48
3.07
-0.64
-4.35
-7.88
-11.28
-14.77
-18.69
-23.32
-28.71
-34.52
-39.94
-43.92
-45.4
-43.65
-38.51
-30.45
-20.45
-9.72
0.55
9.46
16.56
21.81
25.52
28.16
30.12
31.62
32.7
33.25
33.2
32.59
31.61
30.54
29.64
29.08
28.85
28.84
28.89
28.76
28.2
26.98
24.83
21.59
17.22
11.88
5.93
-0.19
-6.06
-11.5
-16.56
-21.56
-26.85
-32.61
-38.61
-44.11
-48.03
-49.27
-47.1
-41.44
-32.91
-22.67
-11.95
-1.85
6.98
14.28
20.03
24.34
27.31
29.05
29.79
29.79
29.38
28.83
28.24
27.52
26.5
25.03
23.13
20.97
18.81
16.83
14.99
13.08
10.73
7.66
3.77
-0.75
-5.47
-9.96
-13.95
-17.48
-20.94
-24.94
-30.13
-36.79
-44.67
-52.85
-59.93
-64.35
-64.9
-61.12
-53.43
-43
-31.45
-20.34
-10.75
-3.18
2.53
6.87
10.46
13.74
16.93
20.02
22.84
25.16
26.82
27.72
27.92
27.54
26.8
25.95
25.18
24.63
24.29
24.02
23.49
22.34
20.22
16.94
12.5
7.18
1.47
-4.13
-9.23
-13.71
-17.82
-22.07
-27
-32.93
-39.59
-46.11
-51.11
-53.16
-51.29
-45.38
-36.22
-25.24
-14.02
-3.75
4.95
12.03
17.71
22.22
25.62
27.9
29.08
29.36
29.02
28.44
27.81
27.21
26.53
25.65
24.58
23.41
22.3
21.32
20.37
19.15
17.35
14.72
11.26
7.21
2.91
-1.27
-5.13
-8.75
-12.38
-16.4
-21.15
-26.74
-32.91
-38.94
-43.76
-46.2
-45.4
-41.13
-33.96
-25.05
-15.76
-7.18
0.14
6.13
11.1
15.35
19.05
22.28
25.04
27.34
29.24
30.74
31.84
32.47
32.62
32.3
31.58
30.55
29.28
27.83
26.18
24.3
22.04
19.25
15.83
11.72
7.07
2.15
-2.71
-7.28
-11.53
-15.71
-20.29
-25.72
-32.19
-39.31
-46.07
-51.06
-52.88
-50.66
-44.42
-35.08
-24.11
-13.04
-3.01
5.41
12.19
17.54
21.68
24.72
26.72
27.71
27.85
27.37
26.53
25.5
24.35
23.05
21.54
19.85
18.13
16.61
15.5
14.84
14.43
13.92
12.83
10.88
7.98
4.3
0.2
-3.99
-7.98
-11.73
-15.36
-19.18
-23.59
-28.84
-34.89
-41.22
-46.85
-50.59
-51.38
-48.71
-42.85
-34.74
-25.68
-16.95
-9.43
-3.43
1.25
5.05
8.42
11.55
14.34
16.57
18.01
18.65
18.69
18.45
18.21
18.07
18.02
17.95
17.81
17.56
17.11
16.33
14.99
12.84
9.79
5.96
1.62
-2.94
-7.51
-12.05
-16.73
-21.82
-27.66
-34.43
-42.03
-49.89
-56.93
-61.77
-63.13
-60.27
-53.25
-43.01
-30.99
-18.73
-7.49
2.03
9.56
15.26
19.41
22.37
24.48
26.03
27.2
28.11
28.77
29.13
29.14
28.78
28.09
27.12
26.03
25
24.19
23.63
23.17
22.51
21.26
19.14
16.1
12.4
8.5
4.84
1.68
-1.07
-3.76
-6.9
-11.01
-16.33
-22.7
-29.45
-35.53
-39.74
-41.06
-39.04
-33.95
-26.66
-18.4
-10.3
-3.23
2.43
6.74
9.98
12.46
14.43
16.04
17.33
18.25
18.79
18.96
18.75
18.19
17.3
16.07
14.59
12.91
11.15
9.34
7.44
5.32
2.81
-0.21
-3.74
-7.61
-11.58
-15.32
-18.6
-21.26
-23.36
-25.17
-27.09
-29.67
-33.23
-37.77
-42.71
-47.07
-49.67
-49.65
-46.66
-41.01
-33.51
-25.12
-16.66
-8.74
-1.64
4.51
9.74
14.12
17.7
20.61
22.9
24.66
25.96
26.88
27.56
28.07
28.45
28.69
28.73
28.58
28.25
27.75
27.02
25.91
24.25
21.9
18.89
15.33
11.46
7.46
3.4
-0.86
-5.59
-11.13
-17.62
-24.8
-31.97
-38.04
-41.81
-42.4
-39.55
-33.61
-25.45
-16.11
-6.52
2.61
10.86
17.92
23.64
27.95
30.94
32.81
33.89
34.48
34.79
34.82
34.45
33.47
31.76
29.37
26.51
23.59
20.96
18.81
17.07
15.4
13.42
10.86
7.72
4.17
0.52
-2.98
-6.25
-9.35
-12.41
-15.64
-19.28
-23.58
-28.73
-34.7
-41.01
-46.72
-50.54
-51.3
-48.25
-41.51
-31.97
-21.05
-10.2
-0.54
7.39
13.56
18.22
21.71
24.31
26.22
27.61
28.62
29.38
29.95
30.26
30.16
29.5
28.22
26.46
24.54
22.88
21.72
21.08
20.58
19.63
17.62
14.21
9.48
3.87
-1.88
-7.1
-11.36
-14.67
-17.49
-20.52
-24.49
-29.83
-36.48
-43.85
-50.96
-56.62
-59.81
-59.9
-56.79
-50.86
-42.89
-33.8
-24.5
-15.71
-7.9
-1.32
3.96
8.1
11.3
13.86
16.03
17.96
19.64
20.97
21.76
21.93
21.52
20.68
19.69
18.76
18.01
17.37
16.62
15.42
13.45
10.5
6.62
2.07
-2.7
-7.21
-11.13
-14.36
-17.15
-19.93
-23.3
-27.64
-33.03
-39.01
-44.62
-48.63
-49.9
-47.77
-42.25
-34.05
-24.26
-14.05
-4.35
4.27
11.61
17.75
22.9
27.33
31.25
34.8
38
40.81
43.09
44.69
45.48
45.33
44.26
42.44
40.22
38.04
36.26
34.91
33.64
31.87
29.07
25.01
19.94
14.48
9.3
4.83
1.07
-2.37
-6.01
-10.4
-15.84
-22.33
-29.56
-36.82
-43.11
-47.34
-48.59
-46.49
-41.28
-33.79
-25.12
-16.25
-7.8
-0.07
6.92
13.17
18.66
23.37
27.36
30.71
33.55
35.8
37.28
37.7
36.84
34.72
31.69
28.33
25.25
22.89
21.36
20.45
19.74
18.83
17.51
15.72
13.55
11.08
8.23
4.82
0.63
-4.47
-10.49
-17.32
-24.76
-32.43
-39.73
-45.78
-49.47
-49.82
-46.34
-39.31
-29.7
-18.87
-8.15
1.62
10.13
17.45
23.73
29.01
33.18
36.14
38.01
39.16
40.06
41.04
42.14
43.07
43.37
42.74
41.1
38.68
35.83
32.83
29.77
26.49
22.75
18.35
13.26
7.68
1.95
-3.47
-8.21
-12.15
-15.47
-18.65
-22.36
-27.18
-33.38
-40.76
-48.6
-55.8
-61.13
-63.52
-62.36
-57.62
-49.88
-40.2
-29.7
-19.4
-9.87
-1.34
6.22
12.86
18.46
22.84
25.84
27.55
28.3
28.5
28.42
28.11
27.34
25.92
23.85
21.38
18.95
16.88
15.24
13.78
12.06
9.74
6.73
3.2
-0.57
-4.25
-7.71
-10.95
-14.22
-17.78
-21.96
-27.03
-33.09
-40.03
-47.32
-54.09
-59.23
-61.62
-60.58
-56.05
-48.64
-39.45
-29.73
-20.51
-12.39
-5.55
0.08
4.61
8.1
10.52
11.82
12.15
11.79
11.19
10.79
10.87
11.47
12.47
13.65
14.79
15.73
16.36
16.52
16.06
14.79
12.6
9.56
5.93
2.08
-1.58
-4.73
-7.31
-9.52
-11.79
-14.68
-18.67
-23.89
-29.86
-35.55
-39.61
-40.83
-38.55
-33.04
-25.3
-16.72
-8.51
-1.38
4.54
9.5
13.73
17.31
20.14
22.11
23.24
23.76
23.98
24.13
24.29
24.38
24.19
23.57
22.49
21.04
19.48
18.06
16.96
16.19
15.56
14.73
13.34
11.16
8.17
4.55
0.59
-3.52
-7.67
-11.98
-16.68
-22.03
-28.21
-35.18
-42.59
-49.69
-55.38
-58.53
-58.16
-53.87
-45.99
-35.53
-23.9
-12.44
-2.17
6.46
13.44
19.01
23.41
26.79
29.13
30.38
30.6
29.97
28.81
27.44
25.92
24.13
21.75
18.53
14.44
9.87
5.44
1.79
-0.78
-2.42
-3.73
-5.41
-7.9
-11.21
-14.93
-18.52
-21.6
-24.09
-26.18
-28.13
-30.15
-32.3
-34.63
-37.21
-40.04
-42.91
-45.23
-46.09
-44.55
-40.1
-32.89
-23.76
-13.9
-4.42
4.02
11.22
17.33
22.53
26.94
30.49
33.09
34.69
35.38
35.36
34.83
33.96
32.91
31.81
30.78
29.95
29.4
29.1
28.81
28.2
26.88
24.59
21.29
17.15
12.48
7.58
2.7
-2.11
-6.94
-12
-17.59
-23.99
-31.33
-39.31
-47.24
-53.95
-58.15
-58.81
-55.54
-48.75
-39.5
-29.14
-18.84
-9.38
-1.02
6.34
12.93
18.91
24.34
29.19
33.31
36.59
38.94
40.35
40.89
40.67
39.84
38.52
36.84
34.91
32.91
31.04
29.37
27.83
26.11
23.79
20.52
16.22
11.19
5.99
1.3
-2.46
-5.31
-7.73
-10.51
-14.43
-19.98
-27.1
-35.11
-42.85
-48.94
-52.08
-51.52
-47.16
-39.54
-29.71
-18.89
-8.21
1.45
9.58
15.93
20.53
23.56
25.34
26.2
26.45
26.34
25.98
25.4
24.52
23.26
21.56
19.45
17.14
14.92
13.09
11.79
10.92
10.16
9.14
7.62
5.55
3.11
0.51
-2.08
-4.74
-7.65
-11.06
-15.23
-20.37
-26.59
-33.85
-41.87
-49.97
-57.09
-61.98
-63.52
-61.21
-55.3
-46.74
-36.88
-26.93
-17.68
-9.45
-2.26
3.96
9.15
13.19
16.08
18.06
19.54
20.97
22.59
24.38
26.02
27.19
27.76
27.85
27.73
27.64
27.57
27.22
26.18
24.13
21.01
17.13
12.91
8.77
4.97
1.48
-1.93
-5.61
-9.94
-15.24
-21.58
-28.66
-35.7
-41.54
-44.89
-44.79
-40.9
-33.71
-24.25
-13.81
-3.47
6.07
14.44
21.53
27.24
31.47
34.19
35.4
35.26
34.04
32.13
29.97
28.03
26.62
25.86
25.62
25.63
25.63
25.46
25.07
24.39
23.22
21.27
18.3
14.3
9.57
4.55
-0.34
-4.91
-9.24
-13.62
-18.38
-23.8
-29.96
-36.76
-43.76
-50.17
-54.94
-56.92
-55.35
-50.1
-41.77
-31.54
-20.77
-10.54
-1.39
6.56
13.48
19.55
24.73
28.88
31.77
33.34
33.71
33.15
31.96
30.35
28.42
26.11
23.45
20.56
17.77
15.38
13.56
12.22
11.01
9.51
7.42
4.67
1.39
-2.15
-5.74
-9.23
-12.66
-16.17
-20.02
-24.5
-29.79
-35.73
-41.7
-46.64
-49.33
-48.77
-44.58
-37.18
-27.63
-17.25
-7.2
1.84
9.63
16.32
22.1
27.06
31.1
34.08
35.96
36.89
37.15
37.01
36.61
35.87
34.63
32.78
30.44
27.97
25.75
24.03
22.74
21.55
20
17.75
14.78
11.33
7.64
3.99
0.42
-3.21
-7.17
-11.79
-17.35
-24.05
-31.71
-39.76
-47.16
-52.65
-55.06
-53.76
-48.92
-41.37
-32.38
-23.11
-14.37
-6.53
0.41
6.48
11.6
15.58
18.3
19.75
20.24
20.23
20.28
20.76
21.81
23.27
24.82
26.09
26.85
27.1
26.99
26.64
26.01
24.76
22.44
18.64
13.35
7.05
0.64
-5
-9.27
-12.14
-14.07
-15.78
-17.96
-21.07
-25.3
-30.49
-36.2
-41.63
-45.77
-47.56
-46.2
-41.52
-34.1
-25.05
-15.71
-7.14
0.13
6.08
11.02
15.29
19.03
22.22
24.74
26.5
27.53
27.98
27.99
27.64
26.97
26
24.88
23.82
23.07
22.78
22.83
22.84
22.33
20.89
18.39
15.02
11.12
7.01
2.79
-1.62
-6.43
-11.8
-17.75
-24.13
-30.65
-36.79
-41.92
-45.25
-46.05
-43.83
-38.5
-30.59
-21.04
-11.04
-1.61
6.63
13.56
19.48
24.79
29.78
34.52
38.87
42.59
45.51
47.61
49
49.77
50.01
49.68
48.74
47.18
45.13
42.87
40.67
38.68
36.83
34.84
32.4
29.29
25.56
21.38
17.06
12.76
8.47
3.97
-1.04
-6.89
-13.8
-21.77
-30.44
-39
-46.34
-51.19
-52.59
-50.24
-44.61
-36.81
-28.09
-19.55
-11.81
-5.05
0.79
5.81
10.02
13.41
15.99
17.91
19.31
20.32
20.97
21.18
20.84
19.87
18.29
16.3
14.19
12.29
10.81
9.76
8.85
7.63
5.69
2.88
-0.7
-4.75
-8.95
-13.11
-17.19
-21.24
-25.36
-29.68
-34.37
-39.64
-45.54
-51.79
-57.56
-61.58
-62.48
-59.31
-52.06
-41.69
-29.92
-18.55
-8.89
-1.44
4.02
8.11
11.3
13.78
15.38
15.84
15.09
13.38
11.17
8.96
7.07
5.52
4.17
2.81
1.35
-0.15
-1.67
-3.24
-5.06
-7.44
-10.61
-14.57
-19.07
-23.74
-28.31
-32.73
-37.23
-42.18
-47.82
-54.14
-60.78
-67.15
-72.43
-75.78
-76.39
-73.74
-67.74
-58.82
-47.9
-36.14
-24.63
-14.18
-5.12
2.64
9.39
15.46
20.99
25.95
30.12
33.31
35.41
36.46
36.62
36.12
35.14
33.84
32.36
30.9
29.67
28.84
28.38
28.01
27.28
25.72
23.08
19.45
15.18
10.8
6.76
3.28
0.31
-2.43
-5.32
-8.74
-12.95
-17.99
-23.59
-29.16
-33.82
-36.56
-36.65
-33.84
-28.52
-21.54
-13.95
-6.63
-0.05
5.71
10.79
15.31
19.28
22.56
25.07
26.81
27.93
28.6
28.91
28.79
28.12
26.82
25.03
23.02
21.13
19.57
18.32
17.13
15.65
13.5
10.53
6.77
2.51
-1.83
-5.93
-9.56
-12.77
-15.8
-19.02
-22.79
-27.31
-32.54
-38.06
-43.16
-46.91
-48.38
-47.02
-42.78
-36.24
-28.42
-20.46
-13.23
-7.17
-2.29
1.63
4.77
7.22
9.02
10.27
11.28
12.42
14.03
16.18
18.56
20.63
21.81
21.8
20.69
18.88
16.86
14.9
12.99
10.91
8.42
5.5
2.29
-0.94
-3.93
-6.57
-8.91
-11.12
-13.43
-16.13
-19.49
-23.68
-28.58
-33.63
-37.89
-40.18
-39.55
-35.56
-28.53
-19.39
-9.33
0.54
9.47
17.18
23.68
29.16
33.86
37.95
41.56
44.74
47.43
49.5
50.7
50.87
49.87
47.76
44.72
41.11
37.29
33.56
30.13
26.97
23.86
20.48
16.6
12.22
7.54
2.94
-1.21
-4.76
-7.77
-10.48
-13.23
-16.35
-20.12
-24.72
-30.14
-36.04
-41.63
-45.82
-47.5
-45.96
-41.18
-33.87
-25.18
-16.24
-7.79
-0.09
6.93
13.42
19.33
24.4
28.33
30.99
32.61
33.55
34.25
34.88
35.25
35
33.83
31.78
29.28
26.89
25.07
23.82
22.76
21.3
19.01
15.81
11.91
7.67
3.33
-1.14
-5.94
-11.33
-17.44
-24.23
-31.37
-38.35
-44.51
-49.08
-51.38
-50.85
-47.41
-41.41
-33.63
-25.09
-16.73
-9.16
-2.61
2.99
7.82
12.02
15.63
18.61
21
22.87
24.34
25.47
26.25
26.6
26.46
25.91
25.1
24.24
23.43
22.57
21.46
19.77
17.29
14.01
10.1
5.8
1.37
-3.01
-7.25
-11.31
-15.26
-19.26
-23.62
-28.64
-34.45
-40.81
-46.99
-51.96
-54.59
-54.1
-50.33
-43.78
-35.47
-26.59
-18.13
-10.76
-4.58
0.55
4.96
8.89
12.39
15.35
17.62
19.11
19.8
19.7
18.74
16.7
13.39
8.84
3.46
-1.96
-6.49
-9.45
-10.65
-10.48
-9.67
-9.02
-9.04
-9.87
-11.38
-13.3
-15.52
-18.03
-21
-24.62
-28.99
-34.04
-39.46
-44.66
-48.89
-51.3
-51.23
-48.3
-42.55
-34.51
-24.91
-14.64
-4.49
4.98
13.41
20.58
26.31
30.46
32.94
33.82
33.37
32.04
30.31
28.52
26.83
25.19
23.46
21.52
19.4
17.21
15.13
13.22
11.48
9.72
7.72
5.23
2.14
-1.45
-5.36
-9.4
-13.43
-17.58
-22.09
-27.22
-32.99
-38.98
-44.28
-47.77
-48.42
-45.77
-40.02
-32.06
-23.06
-14.09
-5.87
1.34
7.54
12.9
17.5
21.4
24.63
27.24
29.34
31.05
32.45
33.56
34.35
34.73
34.61
33.96
32.87
31.5
30.07
28.71
27.37
25.85
23.81
21
17.34
13.04
8.44
3.93
-0.2
-3.91
-7.32
-10.77
-14.67
-19.4
-25.04
-31.29
-37.36
-42.09
-44.32
-43.29
-38.94
-31.96
-23.56
-15.04
-7.38
-1.01
4.12
8.32
11.9
14.98
17.54
19.48
20.79
21.55
21.92
21.97
21.71
21.07
19.9
18.2
16.12
13.91
11.83
10.1
8.68
7.32
5.65
3.31
0.15
-3.72
-7.88
-11.86
-15.3
-18.18
-20.76
-23.48
-26.71
-30.56
-34.78
-38.8
-41.8
-42.91
-41.47
-37.21
-30.39
-21.8
-12.55
-3.71
3.99
10.28
15.35
19.57
23.22
26.38
28.95
30.83
32.13
33.03
33.79
34.53
35.13
35.3
34.79
33.45
31.42
28.96
26.35
23.7
20.92
17.73
13.94
9.42
4.26
-1.26
-6.85
-12.37
-17.93
-23.81
-30.48
-38.26
-47.21
-56.97
-66.71
-75.26
-81.36
-84.01
-82.81
-78.22
-71.37
-63.81
-56.82
-51.06
-46.35
-41.95
-37.03
-31.21
-24.66
-17.93
-11.61
-5.95
-0.82
4.06
8.89
13.52
17.63
20.83
23
24.27
24.95
25.32
25.44
25.09
23.86
21.33
17.2
11.51
4.6
-2.91
-10.26
-16.93
-22.77
-28.21
-34.05
-41.2
-50.18
-60.9
-72.58
-84.08
-94.21
-102.06
-106.99
-108.47
-105.86
-98.52
-86.03
-68.47
-46.59
-21.62
5.11
32.46
59.48
85.1
107.79
125.55
136.27
138.5
132.17
118.88
101.44
83.07
66.43
52.99
43.1
36.3
31.85
29.01
27.13
25.44
23.1
19.29
13.6
6.17
-2.2
-10.58
-18.41
-25.97
-34.44
-45.38
-59.93
-78.06
-98.19
-117.55
-132.96
-141.97
-143.66
-138.92
-130.02
-119.78
-110.7
-104.39
-101.31
-100.96
-102.28
-103.99
-105.1
-105.13
-104.1
-102.47
-100.68
-98.84
-96.65
-93.4
-88.33
-80.87
-70.79
-58.26
-43.83
-28.44
-13.28
0.42
11.81
20.81
28.18
35.3
43.5
53.41
64.59
75.65
84.64
89.63
89.14
82.41
69.65
52.11
32.02
12.34
-3.96
-14.56
-18.42
-15.87
-8.37
2.13
13.7
24.83
34.59
42.66
49.28
55.1
61
67.74
75.6
84.14
92.28
98.62
101.87
101.26
96.74
88.97
79.08
68.38
58.1
49.12
41.9
36.48
32.65
30.13
28.65
28.05
28.05
28.33
28.37
27.58
25.39
21.38
15.36
7.38
-2.18
-12.63
-22.91
-31.73
-37.67
-39.56
-36.78
-29.46
-18.54
-5.51
7.98
20.61
31.65
41.03
49.07
56.13
62.31
67.31
70.66
71.93
71.09
68.62
65.33
62.15
59.77
58.56
58.55
59.62
61.48
63.83
66.22
68.07
68.81
67.93
65.18
60.6
54.55
47.52
40.11
32.86
26.19
20.37
15.4
11.2
7.78
5.46
4.91
6.92
11.94
19.73
29.31
39.38
48.73
56.7
63.16
68.3
72.27
75.05
76.57
76.94
76.6
76.24
76.42
77.33
78.6
79.53
79.37
77.71
74.66
70.73
66.61
62.91
59.93
57.67
55.84
53.94
51.44
47.82
42.69
35.92
27.63
18.24
8.37
-1.23
-9.88
-17.17
-22.91
-27.24
-30.34
-32.27
-32.81
-31.51
-27.8
-21.32
-12.09
-0.55
12.49
26.09
39.23
51
60.61
67.48
71.45
72.92
72.76
72.18
72.37
74.19
77.88
83.05
88.73
93.47
95.74
94.26
88.34
78.24
65.09
50.56
36.37
23.79
13.39
5.03
-1.99
-8.64
-15.85
-24.37
-34.55
-46.33
-59.38
-73.33
-87.91
-102.95
-118.12
-132.7
-145.46
-155.01
-160.29
-161.01
-157.77
-151.61
-143.36
-133.16
-120.47
-104.55
-85.02
-62.22
-37.32
-12.01
11.6
31.23
44.65
50.06
46.82
35.84
19.65
1.68
-14.87
-28.12
-37.98
-45.84
-53.58
-62.5
-72.75
-83.33
-92.59
-98.97
-101.48
-100.05
-95.36
-88.5
-80.54
-72.09
-62.96
-52.11
-37.76
-17.9
8.89
42.47
80.38
118.02
149.54
169.63
175.32
166.97
148.23
124.74
102.34
85.38
75.73
72.6
73.43
75.01
74.87
72.06
67.2
61.82
57.38
54.43
52.52
50.72
48.24
44.9
40.93
36.56
31.75
26.26
20.18
14.23
9.77
8.14
9.99
14.83
21.09
26.57
29.1
27.15
20.23
9.06
-4.6
-18.44
-30.25
-38.54
-42.93
-44.14
-43.55
-42.76
-43.04
-45.04
-48.61
-52.92
-56.63
-58.28
-56.64
-51.1
-41.95
-30.42
-18.49
-8.42
-2.14
-0.64
-3.64
-9.74
-17.02
-23.72
-28.9
-32.54
-35.23
-37.6
-39.97
-42.22
-44.03
-45.23
-45.93
-46.45
-47.08
-47.93
-48.98
-50.18
-51.59
-53.38
-55.59
-57.98
-59.89
-60.41
-58.59
-53.74
-45.7
-34.77
-21.73
-7.63
6.38
19.2
29.86
37.57
41.76
42.17
38.88
32.35
23.47
13.42
3.5
-5.08
-11.34
-14.8
-15.54
-14.16
-11.65
-9.12
-7.63
-8
-10.78
-16.27
-24.38
-34.6
-45.97
-57.29
-67.33
-75.17
-80.36
-82.98
-83.25
-81.16
-76.36
-68.3
-56.73
-42.28
-26.57
-11.8
0.08
8.04
12.29
13.97
14.41
14.45
14.14
13.06
10.77
7.36
3.55
0.57
-0.31
1.89
7.6
16.57
27.89
40.23
52.14
62.46
70.54
76.29
79.89
81.44
80.81
77.72
72.03
64.01
54.3
43.77
33.05
22.37
11.54
0.29
-11.59
-24
-36.65
-49.13
-61.16
-72.57
-83.27
-93.07
-101.66
-108.52
-113.01
-114.48
-112.51
-107.02
-98.4
-87.4
-75.06
-62.34
-50.03
-38.64
-28.41
-19.51
-11.97
-5.77
-0.65
3.75
7.82
11.8
15.65
19
21.33
22.14
21.14
18.3
13.92
8.47
2.55
-3.38
-9.13
-14.85
-21.05
-28.28
-36.81
-46.33
-55.82
-63.78
-68.62
-69.19
-65.16
-57.07
-46.13
-33.73
-21.09
-8.97
2.3
12.66
22.11
30.66
38.26
44.89
50.64
55.64
60.07
64.13
67.94
71.53
74.8
77.54
79.48
80.3
79.79
77.78
74.28
69.49
63.66
57.07
49.95
42.29
33.84
24.05
12.25
-2.06
-18.99
-37.87
-57.26
-75.17
-89.44
-98.29
-100.79
-96.98
-87.87
-74.98
-59.98
-44.28
-28.93
-14.6
-1.75
9.28
18.21
24.97
29.73
32.97
35.32
37.44
39.8
42.6
45.87
49.44
53.19
57.03
61.05
65.38
70
74.64
78.6
80.9
80.55
76.95
70.17
61
50.73
40.68
31.72
24.01
17.01
9.87
1.71
-7.84
-18.47
-29.23
-38.8
-45.92
-49.86
-50.61
-48.83
-45.59
-41.95
-38.72
-36.27
-34.62
-33.61
-33
-32.62
-32.33
-32.03
-31.54
-30.6
-28.9
-26.21
-22.45
-17.93
-13.28
-9.3
-6.74
-5.97
-6.9
-9.07
-11.95
-15.2
-18.8
-23.03
-28.23
-34.7
-42.64
-52.12
-63.04
-74.97
-86.99
-97.52
-104.63
-106.45
-101.72
-90.27
-73.07
-51.84
-28.56
-4.83
18.45
40.92
62.51
82.97
101.74
117.94
130.7
139.54
144.48
145.95
144.47
140.46
134.24
126.22
116.97
107.2
97.39
87.5
76.97
65.02
51.17
35.6
19.16
2.97
-12.02
-25.29
-36.76
-46.63
-55.24
-62.95
-70.16
-77.15
-83.88
-89.8
-93.93
-95.26
-93.16
-87.81
-80.19
-71.73
-63.78
-57.15
-51.94
-47.76
-44.12
-40.73
-37.62
-34.96
-32.69
-30.37
-27.18
-22.22
-15.03
-5.82
4.53
14.88
24.29
32.33
39.16
45.19
50.76
55.89
60.37
63.94
66.59
68.63
70.5
72.4
74.04
74.52
72.66
67.56
59.17
48.45
37.14
27.1
19.6
14.9
12.33
10.76
9.27
7.52
5.78
4.65
4.56
5.56
7.18
8.74
9.58
9.4
8.4
7.16
6.45
6.91
8.82
11.97
15.62
18.62
19.61
17.26
10.66
-0.41
-15.19
-32.07
-48.94
-63.87
-75.76
-84.67
-91.76
-98.77
-107.26
-117.92
-130.23
-142.57
-152.67
-158.23
-157.57
-150.01
-135.99
-116.96
-94.93
-72.07
-50.22
-30.62
-13.81
0.21
11.8
21.35
29.15
35.37
40.09
43.43
45.7
47.27
48.57
49.91
51.41
52.99
54.43
55.44
55.78
55.24
53.68
51.08
47.48
42.97
37.65
31.64
25
17.64
9.4
0.15
-9.93
-20.11
-29.07
-35.08
-36.64
-32.97
-24.4
-12.29
1.38
14.81
26.79
36.93
45.35
52.26
57.62
61.12
62.4
61.42
58.59
54.69
50.56
46.82
43.63
40.79
37.97
34.96
31.8
28.77
26.11
23.92
21.97
19.86
17.18
13.7
9.4
4.5
-0.66
-5.79
-10.58
-14.7
-17.67
-18.78
-17.21
-12.15
-3.2
9.44
24.9
41.87
58.96
75.1
89.81
103.15
115.45
126.98
137.69
147.24
155.13
160.99
164.69
166.41
166.49
165.26
162.87
159.21
154.04
147.03
137.91
126.45
112.53
96.12
77.36
56.57
34.14
10.34
-14.88
-42.03
-71.77
-104.6
-140.2
-177.13
-212.93
-244.6
-269.38
-285.33
-291.57
-288.3
-276.44
-257.4
-232.94
-205.13
-176.1
-147.79
-121.58
-98.01
-76.85
-57.55
-39.79
-23.94
-10.93
-1.86
2.68
3.05
0.59
-2.8
-5.27
-5.6
-3.43
0.89
6.52
12.48
17.74
21.29
22.07
19.02
11.27
-1.5
-18.84
-39.39
-61.17
-82.07
-100.51
-115.73
-127.7
-136.59
-142.22
-143.87
-140.51
-131.56
-117.45
-99.7
-80.57
-62.14
-45.61
-30.93
-16.98
-2.15
15.01
35.18
58.02
82.32
106.31
128.07
146.02
159.14
167.15
170.4
169.61
165.63
159.11
150.47
139.92
127.75
114.49
100.89
87.71
75.38
63.75
52.12
39.63
25.7
10.32
-5.96
-22.42
-38.41
-53.37
-66.51
-76.49
-81.39
-79.28
-69.01
-51
-27.33
-1.21
24.04
45.8
62.6
73.96
79.98
80.94
77.2
69.23
57.69
43.34
26.92
8.99
-10.16
-30.35
-51.29
-72.54
-93.36
-112.79
-129.82
-143.51
-153.25
-158.88
-160.74
-159.63
-156.58
-152.62
-148.58
-145.03
-142.38
-141.02
-141.32
-143.48
-147.11
-151.03
-153.2
-151.29
-143.35
-128.67
-108.03
-83.6
-58.05
-33.83
-12.57
5.07
19.08
29.67
37.17
41.88
44.24
44.96
44.87
44.79
45.32
46.78
49.26
52.64
56.69
61.1
65.46
69.26
71.98
73.2
72.59
69.96
65.29
58.72
50.53
41.21
31.31
21.29
11.21
0.66
-11.08
-24.66
-40
-56.08
-71.01
-82.76
-89.73
-91.3
-87.58
-78.97
-65.63
-47.46
-24.46
2.66
32.17
61.53
88.05
109.65
125.35
135.22
140.02
140.72
138.32
133.8
128.13
122.21
116.63
111.48
106.25
100.07
92.03
81.61
68.91
54.63
39.87
25.82
13.45
3.23
-4.82
-11.29
-17.08
-23.22
-30.41
-38.68
-47.16
-54.28
-58.26
-57.76
-52.39
-42.93
-30.97
-18.35
-6.57
3.54
11.87
18.72
24.44
29.26
33.17
36.05
37.79
38.34
37.74
36.18
33.93
31.34
28.73
26.36
24.24
22.19
19.93
17.19
13.87
9.99
5.7
1.08
-3.85
-9.15
-14.92
-21.24
-28.14
-35.67
-43.89
-52.81
-62.09
-70.89
-77.82
-81.2
-79.61
-72.43
-60.2
-44.5
-27.44
-11.01
3.48
15.55
25.37
33.38
39.93
45.15
49.01
51.46
52.59
52.58
51.77
50.49
49
47.46
45.89
44.25
42.46
40.41
38.01
35.11
31.54
27.08
21.65
15.35
8.48
1.48
-5.3
-11.81
-18.39
-25.63
-34.05
-43.67
-53.72
-62.61
-68.32
-69.03
-63.78
-52.88
-37.87
-20.98
-4.45
10.12
21.96
31.07
37.83
42.64
45.72
47.19
47.15
45.81
43.52
40.67
37.64
34.66
31.89
29.37
27.05
24.8
22.48
19.95
17.08
13.74
9.81
5.26
0.15
-5.3
-10.73
-15.77
-20.22
-24.19
-28.11
-32.63
-38.25
-45.03
-52.29
-58.7
-62.53
-62.3
-57.14
-47.25
-33.74
-18.37
-3
10.9
22.47
31.43
37.95
42.38
45.03
46.19
46.11
45.1
43.47
41.56
39.56
37.56
35.49
33.26
30.85
28.41
26.19
24.39
22.97
21.64
19.89
17.23
13.43
8.63
3.34
-1.83
-6.37
-10.11
-13.24
-16.28
-19.84
-24.42
-30.17
-36.68
-42.95
-47.57
-49.03
-46.19
-38.73
-27.24
-13.14
1.76
15.77
27.62
36.77
43.2
47.24
49.3
49.82
49.1
47.45
45.19
42.62
40
37.47
35.04
32.58
29.97
27.16
24.23
21.32
18.53
15.82
12.97
9.65
5.6
0.81
-4.43
-9.64
-14.29
-18.12
-21.17
-23.89
-26.92
-30.84
-35.89
-41.79
-47.58
-51.85
-53.06
-50.03
-42.39
-30.73
-16.54
-1.75
11.76
22.64
30.32
34.9
36.97
37.22
36.28
34.55
32.28
29.66
26.9
24.26
22
20.28
19.1
18.29
17.58
16.67
15.38
13.62
11.42
8.92
6.2
3.36
0.44
-2.49
-5.38
-8.1
-10.54
-12.66
-14.49
-16.09
-17.42
-18.13
-17.5
-14.4
-7.66
3.57
19.57
39.9
63.67
89.81
117.33
145.35
172.76
198.1
219.46
234.8
242.61
242.43
235.08
222.4
206.67
189.91
173.36
157.39
141.66
125.6
108.8
91.2
73.03
54.56
35.85
16.71
-3.12
-23.7
-44.68
-65.28
-84.53
-101.62
-116.08
-127.96
-137.65
-145.81
-153.16
-160.31
-167.58
-174.67
-180.53
-183.45
-181.5
-173.1
-157.66
-135.8
-109.14
-79.8
-49.75
-20.39
7.46
33.31
56.58
76.41
91.83
102.15
107.47
108.82
107.9
106.47
105.67
105.69
105.78
104.74
101.56
95.72
87.23
76.42
63.58
48.88
32.38
14.2
-5.48
-26.51
-48.95
-73.05
-98.94
-126.14
-153.21
-177.9
-197.77
-211.33
-218.69
-221.55
-222.21
-222.26
-221.59
-218.41
-210.38
-196.03
-175.94
-152.58
-129.33
-108.9
-92.34
-78.96
-67.16
-55.56
-43.75
-32.34
-22.41
-14.86
-9.94
-7.26
-6.12
-5.82
-5.92
-6.33
-7.17
-8.65
-10.89
-13.88
-17.37
-21.11
-24.83
-28.47
-32.18
-36.17
-40.56
-45.27
-50.09
-54.81
-59.44
-64.23
-69.57
-75.59
-81.87
-87.26
-90.19
-89.08
-82.99
-71.96
-57
-39.78
-22.08
-5.28
9.81
22.94
34.28
44.14
52.85
60.58
67.41
73.31
78.16
81.86
84.39
85.79
86.2
85.74
84.53
82.76
80.65
78.48
76.48
74.68
72.86
70.59
67.42
63.07
57.62
51.5
45.31
39.64
34.79
30.75
27.11
23.37
19.19
14.68
10.57
8.05
8.43
12.7
21.23
33.66
48.96
65.8
82.86
98.99
113.34
125.38
134.82
141.63
145.99
148.39
149.42
149.79
150.13
150.81
151.79
152.61
152.4
150.15
144.9
135.94
122.89
105.67
84.41
59.49
31.59
1.84
-28.08
-56.11
-80.1
-98.42
-110.46
-116.81
-119.15
-119.6
-120.06
-121.44
-123.4
-124.45
-122.48
-115.58
-102.69
-84.09
-61.31
-36.64
-12.39
9.73
28.97
45.51
60
73.17
85.51
97.16
108.02
117.87
126.4
133.22
137.86
139.96
139.36
136.27
131.29
125.24
118.96
113.02
107.68
102.84
98.23
93.46
88.21
82.23
75.27
67.1
57.59
46.75
34.97
23.05
12.03
2.92
-3.71
-8.03
-10.8
-13.06
-15.52
-18.25
-20.74
-22.36
-22.86
-22.79
-23.33
-25.87
-31.4
-40.22
-51.97
-65.88
-81.36
-98.3
-117.13
-138.58
-163.41
-191.98
-224.13
-259.13
-295.7
-331.93
-365.16
-392.05
-409.13
-413.99
-406.41
-388.98
-366.34
-343.5
-324.05
-309.19
-298.24
-289.93
-283.72
-280.05
-279.54
-281.89
-285.42
-287.62
-286.32
-280.66
-271.04
-258.3
-242.82
-224.13
-201.25
-173.54
-141.15
-105.13
-66.94
-27.97
10.79
48.88
86.32
123.72
162.23
203.04
246.69
292.15
336.46
375.28
404.21
420.29
422.91
413.62
394.98
369.48
338.76
303.88
265.85
226.27
187.17
150.37
117
87.31
61.08
38.23
18.98
3.66
-7.81
-16.31
-23.31
-30.22
-37.74
-45.4
-51.85
-55.44
-54.88
-49.75
-40.67
-28.86
-15.66
-1.98
11.87
25.94
40.12
53.67
65.25
73.29
76.9
76.55
74.18
72.59
74.32
80.57
90.73
102.72
113.71
121.28
124.06
122.08
116.61
109.63
103.12
98.56
96.71
97.77
101.55
107.57
114.88
121.75
125.65
123.95
114.84
98.38
76.64
52.97
30.61
11.34
-4.92
-19.57
-34.11
-49.05
-63.54
-75.75
-83.78
-86.5
-83.87
-76.76
-66.43
-53.87
-39.65
-23.88
-6.63
11.67
30
46.91
60.98
71.33
77.9
81.29
82.31
81.43
78.36
72.16
61.6
45.83
24.91
0.09
-26.3
-51.48
-72.97
-89.23
-99.91
-105.56
-107.15
-105.48
-100.97
-93.86
-84.49
-73.68
-62.77
-53.32
-46.78
-44.11
-45.55
-50.63
-58.24
-66.97
-75.19
-81.44
-84.56
-83.84
-79.06
-70.36
-58.38
-44.17
-29.33
-15.8
-5.5
0.1
0.61
-3.19
-9.62
-16.7
-22.74
-26.84
-28.82
-29.06
-28.2
-26.97
-26.19
-26.55
-28.56
-32.28
-37.2
-42.46
-46.99
-49.94
-50.81
-49.57
-46.55
-42.28
-37.34
-32.18
-26.97
-21.43
-14.99
-7.06
2.46
12.9
22.83
30.51
34.61
34.68
31.35
25.85
19.61
13.55
8
2.88
-2.07
-6.91
-11.57
-15.95
-20.19
-24.73
-30.07
-36.44
-43.5
-50.23
-55.4
-58.11
-58.28
-56.63
-54.24
-51.91
-49.63
-46.6
-41.71
-34.27
-24.31
-12.58
-0.15
12.13
23.7
34.28
43.53
50.96
55.98
58.21
57.65
54.72
50.19
44.96
39.92
35.81
33.12
31.9
31.78
32.06
31.88
30.55
27.75
23.53
18.15
11.95
5.23
-1.66
-8.34
-14.28
-19.04
-22.57
-25.34
-28.28
-32.54
-38.81
-47.01
-56.04
-64.2
-69.66
-71.24
-68.86
-63.67
-57.65
-52.99
-51.21
-52.7
-56.53
-60.93
-63.9
-63.83
-59.83
-51.8
-40.39
-26.85
-13
-1
6.97
9.21
4.86
-5.92
-21.95
-41.26
-61.24
-79.09
-92.42
-100.02
-102.43
-102.03
-102.25
-106.32
-116.01
-131.04
-148.92
-165.71
-176.7
-177.05
-162.87
-132.76
-89.36
-39.99
4.99
35.58
46.2
38.02
18.3
-3.2
-18.67
-25.33
-25.35
-23.37
-23.24
-26.01
-30.17
-33.38
-34.36
-33.43
-31.88
-30.62
-29.52
-27.72
-24.6
-20.67
-17.87
-19.03
-26.49
-40.86
-60.3
-80.61
-96.26
-102.19
-95.56
-76.92
-50.12
-20.95
5.07
24.69
37.93
47.61
57.78
71.84
91.22
115.09
140.89
165.21
184.9
197.86
203.67
203.67
200.43
196.76
194.49
194
194.4
194.56
194.06
193.59
194.34
196.98
200.92
204.44
205.72
204.01
199.99
194.97
189.66
183.16
173.05
156.73
133.02
103.12
70.2
37.8
8.21
-18.41
-43.35
-67.77
-91.22
-111.31
-124.61
-128.37
-121.79
-106.35
-84.97
-60.74
-35.95
-11.95
10.53
30.78
47.87
60.87
69.28
73.43
74.44
73.81
72.6
70.85
67.27
59.69
45.94
24.93
-2.68
-34.45
-66.98
-97.02
-122.5
-142.96
-159.25
-172.75
-184.66
-195.54
-205.37
-213.86
-220.86
-226.41
-230.6
-233.24
-233.62
-230.61
-222.96
-209.99
-191.91
-169.89
-145.63
-120.81
-96.54
-73.22
-50.87
-29.46
-9.4
8.63
23.86
35.98
45.26
52.43
58.37
63.67
68.47
72.58
75.75
77.96
79.42
80.49
81.43
82.19
82.42
81.58
79.16
74.91
68.94
61.81
54.54
48.51
45.2
45.83
50.94
60.24
72.61
86.37
99.81
111.5
120.51
126.39
129.03
128.66
125.68
120.72
114.56
107.94
101.52
95.73
90.84
86.95
84.03
81.86
79.94
77.61
74.27
69.7
64.29
58.93
54.63
52.09
51.43
52.28
54.19
56.96
60.8
66.12
73.14
81.64
90.95
100.23
108.87
116.56
123.24
128.79
132.85
134.94
134.68
132.09
127.52
121.38
113.64
103.82
91.28
75.97
59.14
43.46
32.35
28.79
34.25
48.16
68.34
91.97
116.42
139.67
160.09
176.18
186.43
189.74
185.96
176.1
162.03
145.57
127.69
108.33
86.87
63.1
37.84
12.8
-10.16
-29.98
-46.81
-61.78
-76.25
-91.02
-106.08
-120.79
-134.42
-146.48
-156.81
-165.48
-172.63
-178.44
-183.25
-187.56
-191.79
-196.03
-199.95
-202.98
-204.69
-205.15
-204.89
-204.68
-205.13
-206.32
-207.6
-207.75
-205.38
-199.39
-189.41
-175.99
-160.52
-144.88
-131.04
-120.59
-114.43
-112.7
-114.84
-119.75
-125.92
-131.47
-134.45
-133.16
-126.79
-115.8
-101.92
-87.35
-73.65
-60.85
-47.18
-29.9
-6.83
22.2
55.16
88.61
119.36
145.72
167.53
185.23
198.65
206.7
208.02
202.3
191.02
177.09
163.43
151.52
140.7
128.96
114.25
95.89
74.98
53.75
34.52
18.67
6.41
-2.95
-10.54
-17.3
-23.69
-29.74
-35.1
-39.47
-42.69
-44.99
-46.73
-48.26
-49.67
-50.76
-51.17
-50.65
-49.29
-47.45
-45.77
-45.01
-45.95
-49.22
-55.06
-62.9
-71.22
-77.62
-79.39
-74.45
-62.19
-43.87
-22.4
-1.62
14.62
23.39
23.29
14.72
-0.28
-18.69
-37.38
-54.1
-67.96
-79.44
-89.66
-99.57
-109.5
-119
-127.29
-133.77
-138.35
-141.41
-143.52
-145.34
-147.45
-150.32
-154.28
-159.27
-164.82
-170.06
-173.93
-175.67
-174.87
-171.58
-166.02
-158.41
-148.99
-138.17
-126.7
-115.57
-105.54
-96.51
-87.37
-76.41
-62.19
-44.62
-25.21
-6.41
9.64
21.99
30.9
36.87
39.66
37.96
30.19
15.75
-4.01
-25.89
-46.06
-61.37
-70.21
-72.29
-67.84
-56.98
-39.73
-16.63
10.67
39.21
65.48
86.68
101.67
111.16
117.01
121.19
124.65
126.98
126.66
121.97
111.64
95.42
73.98
48.7
21.42
-5.79
-30.68
-51.06
-65.03
-71.48
-70.24
-62.13
-48.68
-31.88
-13.84
3.54
18.87
31.44
41.24
48.8
54.91
60.26
65.23
69.91
74.29
78.29
81.95
85.25
88.22
90.96
93.84
97.53
102.85
110.34
119.83
130.19
139.51
145.89
148.14
146.49
142.65
139.22
138.72
142.51
150.14
159.39
166.97
169.66
165.48
154.61
139.62
124.78
114.66
112.45
118.66
130.83
144.2
153.34
153.91
143.9
124.04
97.15
67.1
37.59
11.44
-9.64
-24.78
-33.53
-35.62
-31.03
-20.32
-4.96
12.53
28.98
41.32
47.44
46.57
39.22
26.53
9.74
-10.27
-32.83
-56.9
-80.47
-100.45
-113.24
-115.97
-107.74
-90.47
-68.5
-47.28
-31.38
-22.85
-20.67
-21.53
-21.48
-17.68
-9.28
2.54
15.43
26.8
34.52
37.13
33.98
25.35
12.65
-1.73
-15.01
-25.11
-31.72
-36.65
-43.16
-54.47
-71.98
-94.17
-116.52
-132.8
-137.38
-127.39
-104.11
-72.71
-40.61
-14.88
-0.08
2.79
-4.18
-17.37
-33.37
-50.13
-66.83
-82.84
-96.27
-103.59
-100.53
-84.07
-54.64
-17.08
20.59
50.01
65.62
66.85
58.04
46.19
37.97
37.22
44.37
57.7
75.35
96.75
122.42
152.47
184.85
214.71
235.5
241.57
230.77
205.64
172.4
138.37
109.08
86.57
69.54
54.89
39.57
21.8
1.39
-20.67
-42.72
-62.99
-79.85
-92.11
-99.15
-100.99
-98.15
-91.43
-81.73
-69.97
-57.22
-44.61
-33.23
-23.81
-16.49
-10.9
-6.32
-2.04
2.33
6.64
10.29
12.44
12.45
10.17
6.08
1.1
-3.94
-8.62
-13.31
-18.84
-26.12
-35.44
-46.36
-57.84
-68.75
-78.51
-87.19
-95.37
-103.59
-111.96
-119.95
-126.64
-131.05
-132.49
-130.7
-125.9
-118.64
-109.84
-100.6
-91.98
-84.63
-78.51
-72.8
-66.24
-57.65
-46.67
-34.08
-21.65
-11.53
-5.46
-3.99
-6.27
-10.49
-14.7
-17.57
-18.7
-18.38
-16.88
-13.92
-8.36
1.61
18.21
43.5
78.5
122.05
169.82
214.18
245.43
254.6
236.69
193.07
131.58
64.22
3.29
-42.28
-68.84
-77.7
-73.06
-59.85
-41.95
-21.85
-0.81
20.64
42.44
64.97
88.95
115.01
142.87
170.69
195.09
212.2
219.05
214.89
201.46
182.27
161.33
141.98
126.39
115.56
109.49
107.09
106.08
103.33
95.78
81.86
62.54
41.27
22.73
10.76
6.83
9.43
14.75
18.12
15.44
4.45
-14.69
-39.27
-64.64
-85.42
-96.85
-96.37
-84.41
-64.11
-40.15
-16.99
2.64
18.35
31.43
43.51
55.19
65.46
72.42
74.57
71.67
64.93
56.1
46.26
35.43
22.68
7.09
-11.5
-32.19
-53.37
-73.27
-90.15
-102.42
-108.68
-108.21
-101.66
-91.53
-81.67
-75.73
-75.54
-80.32
-87.16
-92.51
-93.91
-90.78
-84.1
-75.32
-65.52
-55.16
-44.92
-36.7
-33.7
-39.28
-54.68
-77.42
-101.38
-118.8
-123.68
-114.5
-94.58
-69.99
-46.41
-26.66
-10.7
2.49
12.42
16.08
8.88
-12.85
-49.64
-98.04
-151.77
-203.91
-248.96
-284.01
-308.51
-323.43
-330.17
-329.78
-322.93
-309.97
-291.4
-268.2
-241.98
-214.63
-187.62
-161.52
-135.95
-110.13
-83.72
-57.42
-32.92
-12.24
3.2
13.27
19.15
22.7
25.74
29.29
33.38
37.27
39.96
40.65
39.1
35.64
30.93
25.78
20.89
16.76
13.6
11.36
9.69
8.06
5.79
2.21
-3.04
-9.76
-17.15
-23.91
-28.61
-30.16
-28.12
-22.77
-14.92
-5.54
4.51
14.63
24.46
33.7
42.03
49.06
54.43
57.93
59.58
59.62
58.41
56.39
53.96
51.39
48.9
46.6
44.48
42.46
40.41
38.19
35.68
32.87
29.83
26.66
23.49
20.29
16.91
13.09
8.45
2.63
-4.56
-12.95
-21.9
-30.29
-36.75
-40.03
-39.38
-34.73
-26.72
-16.48
-5.26
5.82
16.06
25.19
33.33
40.73
47.57
53.84
59.36
63.8
67
69.04
70.24
71.03
71.7
72.35
72.88
73.1
72.84
72.06
70.68
68.61
65.75
62.06
57.63
52.73
47.7
42.84
38.24
33.76
29.03
23.65
17.4
10.5
3.78
-1.37
-3.32
-0.65
7.3
20.16
36.44
53.87
69.76
81.65
87.69
87.08
80.3
69.03
55.93
44.05
36.01
33.49
36.9
45.37
57.18
70.12
81.93
90.55
94.49
93.05
86.59
76.49
64.72
53.21
43.25
35.1
28.13
21.3
13.68
5.05
-4
-12.3
-18.44
-21.32
-20.34
-15.44
-6.88
4.95
19.65
36.56
54.59
72.11
87.17
98.05
103.74
104.27
100.57
94.03
85.89
77
67.72
58.13
48.28
38.3
28.56
19.45
11.41
4.69
-0.7
-4.98
-8.63
-12.17
-15.99
-20.2
-24.66
-29.06
-33.15
-36.82
-40.16
-43.33
-46.42
-49.42
-52.23
-54.79
-57.14
-59.41
-61.74
-64.12
-66.34
-67.98
-68.58
-67.77
-65.46
-61.81
-57.23
-52.16
-46.93
-41.71
-36.46
-31.09
-25.59
-20.08
-14.8
-9.96
-5.6
-1.64
2.12
5.8
9.32
12.52
15.15
17.08
18.32
18.94
19.03
18.61
17.61
15.96
13.64
10.74
7.42
3.91
0.35
-3.22
-6.93
-11
-15.64
-20.89
-26.51
-31.96
-36.51
-39.47
-40.37
-39.07
-35.85
-31.26
-25.98
-20.62
-15.61
-11.16
-7.3
-4
-1.18
1.16
2.99
4.26
4.96
5.16
4.98
4.58
4.15
3.82
3.71
3.87
4.22
4.61
4.8
4.54
3.63
2.03
-0.24
-3.07
-6.36
-10.02
-14
-18.25
-22.72
-27.35
-32.05
-36.63
-40.72
-43.76
-45.12
-44.25
-40.96
-35.48
-28.48
-20.76
-13.04
-5.79
0.84
6.81
12.09
16.54
20.01
22.46
23.98
24.83
25.29
25.6
25.87
26.04
25.96
25.36
23.93
21.41
17.74
13.06
7.73
2.24
-2.99
-7.75
-11.98
-15.75
-19.18
-22.39
-25.57
-29.02
-33.14
-38.21
-44.09
-50.12
-55.16
-57.96
-57.56
-53.56
-46.19
-36.05
-23.86
-10.27
4.1
18.52
32.11
43.91
53.12
59.39
62.91
64.31
64.34
63.7
62.69
61.29
59.15
55.83
51.01
44.58
36.83
28.39
20.03
12.52
6.32
1.46
-2.43
-5.98
-9.9
-14.75
-20.9
-28.46
-37.34
-47.14
-57.18
-66.44
-73.72
-77.91
-78.28
-74.8
-68.1
-59.32
-49.67
-40.11
-31.14
-22.8
-14.99
-7.57
-0.65
5.46
10.35
13.68
15.25
15.11
13.53
10.93
7.88
4.93
2.64
1.4
1.43
2.72
5.07
8.08
11.26
14.03
15.83
16.22
14.98
12.18
8.15
3.32
-1.86
-7.1
-12.12
-16.52
-19.72
-20.94
-19.53
-15.17
-8.12
0.94
11.08
21.48
31.55
40.92
49.28
56.22
61.26
64.08
64.66
63.48
61.3
58.86
56.57
54.31
51.56
47.8
42.79
36.81
30.52
24.71
20.03
16.78
14.89
13.82
12.54
9.65
3.8
-5.67
-18.04
-30.94
-40.82
-44.17
-38.97
-25.65
-6.99
13.09
31.07
45.05
54.94
61.8
66.8
70.59
73.26
74.93
76.14
77.92
81.35
87.01
94.6
103.14
111.46
118.64
124.2
127.97
129.79
129.34
126.22
120.07
110.85
98.93
85.05
70.22
55.54
41.93
29.95
19.63
10.49
1.76
-7.32
-17.18
-27.82
-38.89
-49.82
-60.08
-69.07
-76.17
-80.6
-81.6
-78.66
-71.87
-62.06
-50.69
-39.49
-29.89
-22.64
-17.68
-14.4
-12.06
-10.16
-8.7
-7.88
-7.94
-8.85
-10.26
-11.69
-12.76
-13.37
-13.76
-14.29
-15.29
-16.84
-18.79
-20.84
-22.65
-23.93
-24.47
-24.18
-23.08
-21.34
-19.27
-17.32
-15.92
-15.4
-15.84
-17.06
-18.6
-19.82
-20.09
-18.92
-16.12
-11.89
-6.81
-1.7
2.48
4.84
4.76
1.97
-3.34
-10.6
-18.96
-27.45
-35.12
-41.24
-45.24
-46.93
-46.47
-44.45
-41.77
-39.47
-38.35
-38.7
-40.21
-42.06
-43.37
-43.43
-42.03
-39.38
-35.9
-31.97
-27.79
-23.42
-19.01
-14.91
-11.71
-10.12
-10.61
-13.2
-17.42
-22.34
-26.95
-30.38
-32.17
-32.2
-30.66
-27.82
-23.96
-19.3
-14.09
-8.73
-3.78
0.03
1.99
1.68
-0.93
-5.32
-10.69
-16.09
-20.74
-24.13
-26.03
-26.4
-25.36
-23.11
-20
-16.49
-13.17
-10.57
-9.03
-8.58
-8.98
-9.84
-10.8
-11.69
-12.61
-13.93
-16.05
-19.21
-23.31
-27.79
-31.69
-33.86
-33.33
-29.52
-22.42
-12.6
-1.06
10.96
22.22
31.7
38.82
43.45
45.94
46.94
47.22
47.35
47.59
47.88
47.92
47.36
45.93
43.49
40.08
35.84
30.94
25.56
19.86
13.98
8.08
2.33
-3.05
-7.81
-11.73
-14.76
-17.02
-18.94
-21.06
-23.85
-27.55
-31.93
-36.46
-40.33
-42.84
-43.47
-42.04
-38.63
-33.5
-27.12
-20.01
-12.81
-6.19
-0.69
3.37
5.97
7.35
7.86
7.76
7.11
5.78
3.59
0.46
-3.39
-7.49
-11.29
-14.48
-17.24
-20.3
-24.63
-30.95
-39.26
-48.6
-57.19
-62.73
-62.94
-55.98
-40.95
-18.31
10.05
40.92
70.44
95.08
112.66
122.96
127.62
129.33
130.64
133.02
136.41
139.64
141.24
140.43
137.57
134.15
132.03
132.56
135.81
140.19
142.94
140.81
131.23
113.32
88.55
60.58
34.35
14.62
4.33
3.8
10.78
21.66
32.88
42.25
49.11
53.8
56.74
57.84
56.83
54.05
51.19
51.06
56.38
68.12
84.21
99.82
108.97
107.12
93.27
70.43
44.42
21.29
4.86
-4.5
-9.42
-13.68
-20.23
-29.97
-41.88
-54.04
-64.91
-73.91
-81.3
-87.52
-92.7
-96.65
-99.18
-100.55
-101.38
-102.26
-103.35
-104.15
-103.85
-101.79
-97.95
-92.86
-87.19
-81.44
-75.84
-70.67
-66.48
-64.17
-64.55
-67.86
-73.47
-80.02
-86.06
-90.78
-94.43
-98.25
-103.85
-112.48
-124.2
-137.67
-150.08
-157.95
-157.96
-148.07
-128.2
-100.63
-69.46
-39.66
-15.52
0.64
9.02
11.98
12.71
13.48
14.52
13.95
9.12
-1.7
-17.94
-36.68
-53.71
-65.03
-67.74
-60.35
-42.76
-16.73
13.51
41.54
60.41
65.74
58.66
46.39
39.76
48.29
75.51
117.17
163.06
201.51
223.77
226.34
210.54
180.59
141.6
98.53
55.99
18.11
-12.1
-33.6
-47.71
-57.71
-67.54
-80.07
-95.86
-112.98
-127.9
-137.09
-138.44
-132.09
-120.26
-106.34
-93.67
-84.57
-80
-79.65
-82.48
-87.2
-92.61
-97.82
-102.29
-105.79
-108.33
-110.11
-111.23
-111.6
-110.77
-108
-102.41
-93.27
-80.25
-63.66
-44.38
-23.57
-2.27
18.93
40.03
61.29
82.83
104.11
123.8
139.94
150.38
153.51
148.68
136.49
118.72
97.94
77.1
58.76
44.59
34.95
28.84
24.33
19.28
12.08
2.15
-9.96
-22.86
-34.82
-44.35
-50.56
-53.32
-53.13
-50.85
-47.47
-43.71
-40.1
-36.83
-33.97
-31.52
-29.46
-27.82
-26.61
-25.77
-25.17
-24.62
-23.81
-22.33
-19.78
-15.88
-10.67
-4.52
1.99
8.41
14.77
21.66
30.04
40.64
53.53
67.79
81.88
94.17
103.69
110.54
115.74
120.66
126.39
133.24
140.68
147.76
153.56
157.67
160.25
161.97
163.62
165.91
169.19
173.3
177.28
179.26
176.61
166.56
147.32
119.28
85.45
50.81
20.7
-1.21
-14.12
-20.1
-22.74
-25.39
-29.76
-35.67
-41.86
-46.92
-50.11
-51.38
-50.94
-48.99
-45.54
-40.71
-34.98
-29.14
-24.03
-20.09
-17.06
-14.17
-10.46
-5.31
1.3
8.89
16.62
23.52
28.52
30.47
28.23
21.09
9.29
-5.7
-21.28
-34.49
-42.91
-45.49
-42.68
-35.98
-27.22
-18.02
-9.55
-2.69
1.9
3.84
3.28
1.05
-1.48
-2.91
-2.32
0.47
4.94
10.33
16.13
22.34
29.42
37.93
48.14
59.57
71.03
80.79
87.26
89.6
88.02
83.77
78.49
73.66
70.18
68.4
68.27
69.54
71.65
73.54
73.69
70.38
62.41
49.74
33.62
16.17
-0.48
-14.92
-26.77
-36.37
-44.1
-49.84
-52.87
-52.17
-47.12
-38.18
-26.99
-15.72
-5.76
3.39
14.35
30.55
54.16
84.26
116.5
144.62
162.95
168.72
162.75
148.4
129.7
109.72
90.09
71.45
54.09
38.33
24.19
10.95
-2.88
-19.08
-38.93
-62.59
-88.81
-115.06
-138.09
-154.59
-162.09
-159.9
-149.66
-135.47
-122.94
-117.58
-122.97
-139.38
-163.58
-189.84
-211.76
-224.16
-224.4
-212.62
-191.27
-164
-134.71
-106.81
-82.62
-62.98
-47.02
-32.38
-15.97
4.62
29.82
57.33
82.61
100.39
106.7
100.47
83.94
61.79
39.46
21.53
10.84
8.62
15.06
29.74
51.38
77.41
103.75
125.5
138.46
140.73
133.45
120.29
105.53
92.11
80.49
68.96
55.07
37.28
15.84
-7.47
-30.29
-50.76
-68.03
-82.05
-93.03
-100.99
-105.57
-106.37
-103.42
-97.65
-91.02
-86.18
-85.89
-92.14
-105.38
-123.91
-143.97
-160.31
-167.62
-162.11
-142.98
-112.78
-76.84
-41.67
-13.26
4.32
9.49
3.25
-11.39
-29.98
-47.7
-60.52
-66.36
-65.43
-59.7
-51.49
-42.15
-31.58
-18.97
-4.04
12.14
27.52
40.33
50.41
59.16
68.26
77.75
85.16
86.26
77.14
56.37
25.54
-11.86
-52.56
-94.98
-139.1
-184.83
-230.23
-271.42
-304.45
-328.16
-345.41
-361.82
-381.96
-405.61
-426.53
-434.88
-421.9
-384.14
-324.82
-252.34
-177.08
-108.67
-54.52
-19.45
-5.42
-10.73
-29.55
-52.7
-70.11
-74.06
-61.53
-34.3
2.95
45.1
88.32
130.22
169.03
202.69
228.8
245.45
252.17
250.5
243.68
235.66
229.74
227.55
228.76
231.64
234.22
235.21
234.53
232.89
231.03
228.82
225.08
218.16
206.84
191.22
172.86
154.31
138
125.51
117.05
111.66
107.81
104.14
100.06
95.87
92.24
89.53
87.04
82.87
74.6
60.4
40.16
15.92
-8.66
-29.36
-42.81
-47.4
-43.45
-32.8
-18.03
-1.62
14.59
29.69
43.7
57.23
70.9
84.69
97.55
107.48
112.12
109.73
99.89
83.96
64.75
45.64
29.56
18.04
10.9
6.53
2.8
-2.16
-9.4
-19.23
-31.72
-47.11
-65.83
-88.02
-112.89
-138.37
-161.48
-179.28
-189.89
-193.16
-190.54
-184.25
-176.29
-167.74
-158.65
-148.55
-137.02
-124.29
-111.2
-98.92
-88.43
-80.16
-73.93
-69.16
-65.23
-61.83
-59.01
-56.98
-55.87
-55.51
-55.36
-54.61
-52.47
-48.33
-41.92
-33.43
-23.4
-12.8
-2.83
5.13
9.76
10.11
5.85
-2.43
-13.26
-24.52
-34.03
-40.16
-42.31
-40.98
-37.42
-33.05
-28.94
-25.61
-23.14
-21.53
-20.89
-21.38
-23.01
-25.35
-27.64
-29.05
-29.16
-28.01
-26.26
-24.71
-24.11
-24.86
-26.96
-30.02
-33.12
-34.89
-33.69
-28.15
-17.9
-4.08
10.75
23.38
31.09
32.52
27.93
18.76
6.83
-6.08
-18.44
-28.81
-35.96
-39.09
-38.41
-35.19
-31.38
-28.7
-27.84
-28.23
-28.53
-27.52
-24.8
-20.94
-17
-13.87
-11.84
-10.53
-9.27
-7.43
-4.72
-1.09
3.4
8.7
14.72
21.03
26.72
30.38
30.59
26.63
18.91
9.03
-0.79
-8.61
-13.48
-15.79
-16.77
-17.87
-20.1
-23.79
-28.72
-34.48
-40.7
-46.97
-52.63
-56.58
-57.35
-53.64
-44.94
-32.1
-17.33
-3.68
5.94
9.76
7.6
0.98
-7.49
-14.96
-19.05
-18.48
-13.25
-4.51
5.93
16.16
24.8
31.33
36.18
40.39
45.05
50.79
57.55
64.64
71.04
75.7
77.77
76.75
72.64
66
57.93
49.88
43.4
39.6
39.07
41.64
46.74
53.68
61.99
71.57
82.5
94.61
107.12
118.58
127.19
131.4
130.52
125.04
116.41
106.49
96.86
88.4
81.29
75.25
69.89
64.71
58.88
50.99
39.12
21.5
-2.7
-32.62
-65.61
-97.89
-125.62
-146.05
-158.32
-163.48
-163.96
-162.71
-162.17
-163.54
-166.45
-169.12
-169.08
-164.11
-153.16
-136.78
-116.93
-96.14
-76.68
-59.8
-45.66
-33.68
-23.07
-13.28
-4.15
4.38
12.43
20.23
27.92
35.34
41.84
46.54
48.73
48.39
46.32
43.83
42.11
41.63
41.92
41.89
40.45
37.15
32.24
26.41
20.15
13.27
5.04
-5.36
-18.08
-32.06
-45.05
-54.25
-57.15
-52.38
-40.13
-21.82
0.37
24.38
48.74
72.61
95.48
116.65
135.05
149.35
158.48
162.21
161.35
157.41
152.04
146.31
140.37
133.72
125.56
115.47
103.51
90.16
75.91
60.99
45.36
29.01
12.27
-4.09
-19.03
-31.7
-41.75
-49.54
-55.85
-61.57
-67.42
-73.75
-80.56
-87.45
-93.66
-98.08
-99.5
-97.01
-90.49
-80.91
-70.17
-60.35
-52.9
-48.04
-44.76
-41.46
-36.79
-30.35
-22.75
-15.19
-8.78
-3.89
-0.09
3.52
7.75
12.86
18.37
23.4
27.02
28.61
28.02
25.4
21.01
14.98
7.4
-1.53
-11.26
-20.92
-29.53
-36.43
-41.53
-45.31
-48.41
-51.21
-53.56
-54.81
-54.23
-51.45
-46.71
-40.77
-34.56
-28.73
-23.46
-18.61
-13.89
-9.2
-4.62
-0.37
3.35
6.55
9.33
11.86
14.3
16.67
18.92
20.89
22.43
23.49
24.1
24.37
24.43
24.28
23.8
22.77
21.01
18.48
15.36
11.89
8.28
4.5
0.27
-4.74
-10.69
-17.22
-23.46
-28.11
-29.84
-27.77
-21.7
-12.22
-0.49
12.14
24.49
35.73
45.43
53.41
59.61
64
66.61
67.62
67.34
66.2
64.66
63.12
61.81
60.79
59.91
58.82
57.13
54.47
50.65
45.74
40.1
34.22
28.57
23.44
18.86
14.63
10.44
5.94
0.82
-5.04
-11.56
-18.31
-24.53
-29.22
-31.37
-30.22
-25.59
-17.95
-8.29
2.15
12.24
21.17
28.6
34.51
39.03
42.29
44.4
45.42
45.48
44.8
43.61
42.09
40.35
38.4
36.25
33.93
31.57
29.3
27.25
25.39
23.61
21.71
19.5
16.95
14.17
11.39
8.77
6.38
4.05
1.41
-1.95
-6.26
-11.38
-16.67
-21.13
-23.67
-23.42
-20.09
-14.03
-6.08
2.71
11.45
19.6
26.95
33.47
39.04
43.38
46.16
47.21
46.77
45.44
44.01
43.1
42.94
43.33
43.76
43.84
43.48
42.96
42.82
43.63
45.72
49.05
53.24
57.71
61.83
64.93
66.27
64.8
59.17
48.06
31
9.24
-13.74
-32.69
-41.72
-36.04
-13.38
25.43
76.79
135.11
194
246.97
288.03
312.33
316.88
301.56
269.79
228.14
184.6
145.93
115.37
92.2
73.42
56.63
42.38
34.32
36.76
51.16
74
97.38
112.35
112.87
98.17
72.36
41.71
11.59
-15.25
-38.39
-58.4
-75.53
-89.35
-99.34
-105.65
-109.3
-111.97
-115.11
-119.23
-123.73
-127.35
-128.68
-126.89
-121.98
-114.77
-106.59
-98.84
-92.63
-88.68
-87.23
-88.23
-91.56
-97.16
-105.12
-115.32
-126.88
-137.5
-143.35
-139.71
-122.37
-89.29
-41.63
16.21
77.84
136.68
187.65
227.96
257.06
275.85
285.84
288.7
286.28
280.76
274.78
271.11
271.7
276.9
284.89
292.06
294.19
288.06
272.74
249.77
222.21
193.14
164.29
135.69
106.17
74.58
40.64
5.16
-30.45
-65.06
-98.41
-131.13
-164.32
-199.06
-236.02
-275.21
-315.98
-356.98
-396.2
-431.23
-459.7
-479.79
-490.6
-492.24
-485.47
-471.38
-451.16
-426.17
-398.19
-369.38
-342.06
-318.04
-298.08
-281.64
-267.14
-252.68
-236.69
-218.48
-198.33
-177.45
-157.62
-140.8
-128.53
-121.37
-118.46
-117.52
-115.52
-109.67
-98.39
-81.78
-61.29
-38.96
-16.5
5.14
25.74
45.26
63.37
79.27
91.99
100.82
105.62
106.85
105.32
101.91
97.24
91.64
85.06
77.33
68.33
58.17
47.15
35.67
24.02
12.36
0.74
-10.62
-21.07
-29.63
-35.13
-36.75
-34.43
-28.93
-21.59
-13.85
-6.79
-0.86
3.96
7.87
11.06
13.52
15.15
15.84
15.62
14.66
13.26
11.77
10.5
9.67
9.32
9.37
9.57
9.68
9.55
9.19
8.7
8.16
7.51
6.53
4.94
2.47
-1.06
-5.73
-11.58
-18.49
-26.09
-33.65
-40.1
-44.26
-45.14
-42.32
-36.12
-27.44
-17.57
-7.74
