1.74
0.95
0.44
0.39
1.16
3.1
6.43
11.08
16.75
22.93
29.13
34.99
40.34
45.12
49.35
52.99
56.03
58.49
60.44
62.03
63.38
64.56
65.51
66.06
66.08
65.47
64.27
62.66
60.96
59.46
58.37
57.63
56.82
55.32
52.46
47.82
41.54
34.26
27.02
20.88
16.48
13.86
12.52
11.68
10.69
9.26
7.52
5.9
4.9
4.86
5.97
8.14
11.1
14.46
17.92
21.33
24.83
28.84
33.92
40.37
47.98
55.64
61.47
63.2
58.89
47.83
31.03
11.26
-7.76
-22.61
-31.49
-34.67
-34.09
-32.28
-31.02
-30.84
-31.24
-31.6
-32.01
-33.36
-36.75
-42.64
-50.24
-57.77
-63.3
-65.79
-65.62
-64.37
-63.98
-65.88
-70.43
-76.78
-83.26
-88
-89.47
-86.91
-80.45
-70.99
-59.92
-48.65
-38.19
-28.92
-20.64
-12.8
-4.79
3.83
13.22
23.21
33.36
42.99
51.28
57.45
60.91
61.5
59.62
56.14
52.18
48.72
46.3
44.85
43.82
42.49
40.32
37.19
33.33
29.15
25
21.07
17.35
13.79
10.4
7.2
4.17
1.17
-1.95
-5.24
-8.42
-10.98
-12.33
-12.14
-10.47
-7.84
-4.99
-2.51
-0.7
0.52
1.44
2.27
3.03
3.53
3.64
3.39
3.17
3.59
5.2
8.27
12.56
17.48
22.31
26.55
30.04
32.89
35.29
37.3
38.79
39.57
39.63
39.15
38.45
37.79
37.17
36.21
34.38
31.23
26.6
20.86
14.75
9.28
5.36
3.57
3.95
6.05
9.21
12.67
15.84
18.36
20.11
21.07
21.18
20.26
18.02
14.11
8.31
0.69
-8.28
-17.78
-26.95
-35.16
-42.22
-48.22
-53.22
-56.91
-58.53
-57.25
-52.56
-44.68
-34.6
-23.72
-13.52
-5.17
0.62
3.58
3.85
1.81
-1.91
-6.61
-11.66
-16.65
-21.4
-25.85
-29.94
-33.43
-36.03
-37.45
-37.49
-36.08
-33.28
-29.23
-24.14
-18.4
-12.49
-6.97
-2.35
0.99
2.95
3.75
3.87
3.94
4.46
5.67
7.5
9.66
11.84
13.84
15.73
17.74
20.11
22.92
26.03
29.09
31.67
33.43
34.2
34.01
33.01
31.46
29.51
27.21
24.5
21.33
17.82
14.24
10.91
7.96
5.09
1.6
-3.37
-10.37
-19.4
-29.74
-40.21
-49.55
-56.67
-60.84
-61.76
-59.49
-54.54
-47.91
-40.88
-34.71
-30.26
-27.73
-26.69
-26.49
-26.55
-26.66
-26.92
-27.57
-28.75
-30.49
-32.77
-35.5
-38.53
-41.54
-44.04
-45.55
-45.81
-44.97
-43.59
-42.42
-42.1
-43.07
-45.49
-49.25
-53.91
-58.73
-62.67
-64.69
-64.07
-60.69
-55.1
-48.28
-41.24
-34.72
-29.01
-23.98
-19.29
-14.52
-9.26
-3.21
3.74
11.46
19.59
27.63
35.09
41.72
47.43
52.26
56.28
59.54
62.12
64.11
65.68
67.02
68.29
69.57
70.79
71.75
72.07
71.43
69.59
66.63
62.93
59.03
55.37
52.09
48.97
45.65
41.98
38.23
35.02
32.96
32.22
32.39
32.62
32.1
30.44
27.84
24.84
21.99
19.47
17.15
14.71
12.06
9.44
7.36
6.34
6.61
8.03
10.16
12.54
14.88
17.08
19.03
20.42
20.74
19.4
16.05
10.76
4.14
-2.82
-9.14
-14.01
-17.14
-18.68
-19.15
-19.2
-19.26
-19.43
-19.44
-18.89
-17.67
-16.17
-15.16
-15.41
-17.2
-20.06
-22.93
-24.7
-24.76
-23.34
-21.38
-20.12
-20.56
-23.08
-27.37
-32.55
-37.57
-41.45
-43.54
-43.51
-41.39
-37.39
-31.91
-25.48
-18.87
-13
-8.77
-6.81
-7.24
-9.67
-13.31
-17.39
-21.47
-25.46
-29.53
-33.59
-37.09
-39.07
-38.53
-35.07
-29.25
-22.52
-16.58
-12.74
-11.32
-11.78
-13.18
-14.77
-16.23
-17.56
-18.68
-19.3
-18.96
-17.49
-15.15
-12.64
-10.69
-9.73
-9.7
-10.18
-10.73
-11.23
-11.89
-13
-14.71
-16.9
-19.06
-20.39
-20
-17.22
-11.99
-5
2.47
8.92
13.27
15.13
14.81
13.01
10.32
7.09
3.48
-0.41
-4.35
-7.99
-11.08
-13.6
-15.85
-18.22
-20.91
-23.69
-26.03
-27.38
-27.59
-27.16
-27.21
-29.05
-33.44
-40.29
-48.55
-56.68
-63.33
-67.87
-70.48
-71.88
-72.9
-74.03
-75.36
-76.77
-77.99
-78.68
-78.4
-76.56
-72.5
-65.69
-56.07
-44.24
-31.37
-18.95
-8.25
0.09
6.17
10.61
14.25
17.66
21
24.07
26.66
28.73
30.53
32.55
35.21
38.77
43.14
47.95
52.68
56.89
60.28
62.68
64.02
64.25
63.34
61.38
58.62
55.52
52.59
50.18
48.36
46.84
45.1
42.68
39.3
35.06
30.34
25.62
21.29
17.67
15.08
13.81
14.13
16.12
19.55
23.77
27.91
31.11
32.95
33.52
33.34
33.16
33.48
34.44
35.75
36.94
37.58
37.56
37.13
36.8
37.05
38.15
40.04
42.4
44.8
46.83
48.27
49.01
49.01
48.36
47.18
45.77
44.5
43.75
43.7
44.33
45.34
46.43
47.5
48.74
50.52
53.14
56.65
60.7
64.86
68.8
72.49
76.25
80.59
86.06
93.01
101.56
111.44
121.74
130.69
135.82
134.65
125.63
108.98
86.89
62.78
40.1
21.07
6.23
-5.22
-14.59
-22.91
-30.69
-38.26
-46.2
-55.4
-66.62
-79.86
-93.99
-107.07
-117.26
-123.58
-126.34
-126.82
-126.56
-126.53
-126.79
-126.8
-125.95
-124.05
-121.37
-118.44
-115.67
-113.21
-110.86
-108.24
-104.8
-99.87
-92.78
-83.07
-70.83
-56.83
-42.42
-29.1
-18.05
-9.75
-4.03
-0.18
2.7
5.45
8.73
12.85
17.78
23.19
28.55
33.38
37.43
40.72
43.4
45.6
47.35
48.63
49.5
50.05
50.37
50.3
49.39
47.02
42.63
36.05
27.6
18
8.13
-1.23
-9.58
-16.66
-22.47
-27.18
-31.07
-34.47
-37.67
-40.71
-43.33
-44.94
-44.84
-42.41
-37.4
-30.07
-21.12
-11.54
-2.29
5.84
12.38
17.19
20.43
22.45
23.7
24.64
25.55
26.59
27.71
28.86
29.91
30.81
31.45
31.67
31.24
30
28.06
25.81
23.89
22.9
23.08
24.04
24.72
23.86
20.52
14.59
6.86
-1.23
-8.34
-13.72
-17.51
-20.54
-23.79
-27.85
-32.62
-37.52
-41.68
-44.44
-45.4
-44.52
-41.94
-37.88
-32.62
-26.46
-19.81
-13.13
-6.95
-1.75
2.14
4.57
5.72
5.98
5.88
5.9
6.39
7.38
8.64
9.83
10.59
10.75
10.38
9.73
9.2
9.08
9.4
9.87
9.92
8.92
6.43
2.47
-2.41
-7.37
-11.5
-14.19
-15.28
-15
-13.82
-12.29
-10.84
-9.78
-9.27
-9.31
-9.67
-9.9
-9.42
-7.75
-4.77
-0.7
3.8
7.97
11.06
12.55
12.16
9.92
6.13
1.31
-3.87
-8.77
-12.97
-16.34
-19.02
-21.26
-23.22
-24.86
-26.08
-26.81
-27.08
-27.04
-26.85
-26.52
-25.99
-25.13
-23.98
-22.64
-21.27
-19.8
-17.94
-15.23
-11.28
-6.18
-0.48
4.95
9.28
12.1
13.51
13.83
13.36
12.11
9.82
6.3
1.72
-3.25
-7.69
-10.82
-12.34
-12.53
-12.03
-11.55
-11.62
-12.57
-14.55
-17.65
-21.84
-26.93
-32.56
-38.25
-43.47
-47.73
-50.63
-51.85
-51.13
-48.39
-43.72
-37.42
-29.99
-21.97
-13.79
-5.69
2.2
9.83
17.02
23.55
29.18
33.75
37.37
40.33
43.08
45.95
48.99
51.9
54.16
55.22
54.79
52.99
50.2
46.88
43.35
39.71
35.96
32.2
28.76
26.2
25.16
26.03
28.79
32.95
37.82
42.67
46.99
50.53
53.09
54.45
54.31
52.45
48.89
44.11
38.89
34.1
30.38
27.91
26.48
25.6
24.73
23.41
21.3
18.08
13.59
7.84
1.12
-5.96
-12.68
-18.4
-22.77
-25.81
-27.79
-28.93
-29.28
-28.68
-27.02
-24.42
-21.46
-19.04
-18.01
-18.83
-21.31
-24.63
-27.58
-28.98
-27.9
-23.95
-17.33
-8.76
0.67
9.78
17.68
24
28.85
32.76
36.29
39.8
43.35
46.83
50.14
53.39
56.92
61.1
66.1
71.56
76.57
79.85
80.09
76.47
69.03
58.79
47.5
37.21
29.53
25.15
23.36
22.17
18.87
10.96
-2.8
-21.67
-42.95
-62.89
-77.83
-85.5
-85.63
-79.65
-69.96
-59.06
-48.97
-41.04
-36.09
-34.45
-35.92
-39.79
-44.94
-50.14
-54.57
-57.98
-60.68
-63.22
-66.1
-69.48
-73.14
-76.55
-79.06
-80.07
-79.29
-76.84
-73.33
-69.65
-66.75
-65.17
-64.72
-64.59
-63.7
-61.21
-57.01
-51.76
-46.58
-42.56
-40.28
-39.59
-39.74
-39.75
-38.69
-36.04
-31.82
-26.6
-21.47
-17.79
-16.84
-19.29
-24.84
-32.13
-39.16
-43.95
-45.19
-42.58
-36.61
-28.14
-17.9
-6.29
6.51
20.19
34.1
47.24
58.56
67.36
73.52
77.43
79.77
81.15
81.86
81.88
81.08
79.43
77.27
75.23
73.99
73.96
75.16
77.2
79.5
81.59
83.16
84.14
84.57
84.49
83.84
82.45
80.09
76.62
72.1
66.77
61.14
55.73
51.01
46.95
43.03
38.35
31.95
23.27
12.25
-0.5
-13.88
-26.51
-36.92
-43.88
-46.75
-45.63
-41.36
-35.3
-28.81
-22.93
-18.19
-14.69
-12.44
-11.58
-12.38
-14.96
-19.08
-23.99
-28.74
-32.58
-35.2
-36.75
-37.75
-38.82
-40.44
-42.86
-46.13
-50.11
-54.53
-58.99
-63.04
-66.09
-67.57
-66.9
-63.66
-57.63
-48.88
-37.9
-25.65
-13.53
-3.09
4.34
8.11
8.49
6.55
3.8
1.64
0.96
1.97
4.44
7.87
11.76
15.62
18.97
21.36
22.48
22.27
21.1
19.6
18.41
17.9
18.07
18.53
18.83
18.64
17.9
16.82
15.79
15.21
15.46
16.76
19.1
22.2
25.49
28.2
29.64
29.39
27.45
24.27
20.53
16.86
13.72
11.23
9.19
7.19
4.78
1.67
-2.11
-6.07
-9.47
-11.5
-11.58
-9.62
-5.95
-1.16
4.15
9.51
14.66
19.34
23.31
26.3
28.18
29.02
29.1
28.83
28.43
27.94
27.19
26.04
24.58
23.06
21.77
20.72
19.61
17.95
15.49
12.52
9.81
8.18
7.87
8.27
8.18
6.42
2.56
-2.85
-8.56
-13.39
-16.85
-19.36
-21.87
-25.34
-30.22
-36.35
-43.14
-49.9
-55.95
-60.59
-63.01
-62.42
-58.24
-50.44
-39.72
-27.35
-14.84
-3.53
5.75
12.71
17.42
20.13
21.02
20.25
17.91
14.11
9.13
3.41
-2.53
-8.22
-13.41
-18.11
-22.62
-27.21
-31.94
-36.44
-40.02
-41.97
-41.88
-39.75
-36.01
-31.1
-25.28
-18.6
-11.2
-3.57
3.31
8.23
10.31
9.39
6.11
1.58
-3.22
-7.76
-11.9
-15.61
-18.45
-19.69
-18.53
-14.63
-8.38
-0.78
6.99
14.21
20.65
26.53
32.03
37.11
41.46
44.65
46.41
46.72
45.8
43.92
41.38
38.43
35.4
32.56
30.07
27.91
25.86
23.72
21.4
18.98
16.63
14.41
12.22
9.83
7.06
3.95
0.69
-2.49
-5.5
-8.43
-11.53
-14.98
-18.82
-22.9
-26.96
-30.81
-34.33
-37.47
-40.04
-41.67
-41.74
-39.66
-35.02
-27.9
-18.91
-9.04
0.63
9.25
16.38
21.95
26.14
29.14
31.1
32.1
32.31
31.99
31.51
31.19
31.08
30.92
30.15
28.16
24.67
20
15.06
11.05
8.88
8.72
9.87
11.17
11.56
10.63
8.7
6.46
4.51
2.89
1.16
-1.32
-4.91
-9.5
-14.74
-20.2
-25.69
-31.18
-36.62
-41.64
-45.57
-47.65
-47.46
-45.2
-41.63
-37.8
-34.48
-31.88
-29.63
-27.1
-23.86
-19.94
-15.86
-12.28
-9.64
-7.85
-6.34
-4.29
-1.09
3.39
8.72
14.15
18.92
22.63
25.28
27.23
28.89
30.43
31.75
32.48
32.27
31.03
28.96
26.49
24.02
21.83
19.9
18.02
15.94
13.48
10.68
7.65
4.64
1.89
-0.35
-1.8
-2.25
-1.55
0.29
3.16
6.79
10.94
15.33
19.76
24.01
27.81
30.86
32.82
33.52
33.02
31.7
30.11
28.91
28.51
28.94
29.82
30.39
29.81
27.34
22.59
15.6
6.9
-2.55
-11.66
-19.53
-25.74
-30.39
-33.92
-36.77
-39.18
-41.08
-42.37
-43.06
-43.51
-44.24
-45.79
-48.42
-52.06
-56.35
-60.72
-64.61
-67.42
-68.61
-67.85
-65.11
-60.72
-55.19
-49.08
-42.7
-36.17
-29.57
-23.09
-17.19
-12.47
-9.41
-8.1
-8.21
-9.02
-9.81
-10.12
-9.89
-9.36
-8.79
-8.28
-7.62
-6.51
-4.73
-2.39
0.12
2.32
3.79
4.4
4.21
3.48
2.54
1.71
1.26
1.35
1.85
2.34
2.12
0.55
-2.7
-7.33
-12.42
-16.71
-18.99
-18.57
-15.49
-10.48
-4.81
0.1
3.01
3.06
0.08
-5.31
-11.89
-18.18
-22.84
-25.2
-25.39
-24.18
-22.57
-21.25
-20.45
-19.99
-19.57
-19.12
-18.89
-19.27
-20.49
-22.35
-24.26
-25.51
-25.57
-24.48
-22.76
-21.28
-20.79
-21.65
-23.54
-25.64
-27.01
-26.92
-25.18
-22.15
-18.57
-15.17
-12.42
-10.3
-8.37
-5.9
-2.06
3.8
11.9
21.97
33.19
44.28
53.8
60.51
63.63
63.01
59.2
53.15
46.02
38.87
32.54
27.56
24.2
22.48
22.24
23.06
24.35
25.49
25.94
25.48
24.22
22.57
21.03
19.93
19.32
18.97
18.57
17.91
16.95
15.86
14.82
13.91
13.12
12.37
11.58
10.77
10.04
9.51
9.34
9.68
10.73
12.71
15.91
20.56
26.77
34.32
42.68
51.05
58.52
64.39
68.41
70.89
72.63
74.61
77.56
81.72
86.77
91.96
96.5
99.73
101.37
101.49
100.52
99.16
98.38
99.15
102.02
106.42
110.28
110.29
102.97
86.32
60.92
30.18
-0.77
-27.1
-46.01
-57.56
-64.03
-68.59
-73.92
-81.45
-91.45
-103.46
-116.78
-130.4
-142.99
-152.86
-158.24
-157.77
-151.02
-138.74
-122.65
-105.1
-88.36
-74.04
-62.85
-54.54
-48.26
-42.97
-37.87
-32.63
-27.36
-22.36
-17.81
-13.68
-9.64
-5.34
-0.62
4.37
9.18
13.24
16.17
17.82
18.36
18.14
17.44
16.44
15.17
13.61
11.82
9.92
8.03
6.13
4.08
1.73
-0.99
-3.94
-6.78
-9.11
-10.59
-10.99
-10.27
-8.53
-5.92
-2.63
1.19
5.41
9.91
14.61
19.44
24.32
29.12
33.67
37.73
41.09
43.66
45.54
47.09
48.83
51.31
54.84
59.38
64.44
69.32
73.25
75.74
76.71
76.51
75.82
75.4
75.72
76.64
77.3
76.28
72.06
63.58
50.6
33.83
14.69
-5.03
-23.61
-39.7
-52.5
-61.8
-67.87
-71.2
-72.25
-71.22
-68.16
-63.12
-56.48
-49.05
-41.91
-36.02
-31.84
-29.18
-27.52
-26.3
-25.34
-24.85
-25.16
-26.43
-28.27
-29.86
-30.17
-28.51
-24.8
-19.65
-14.1
-9.16
-5.39
-2.85
-1.13
0.2
1.41
2.5
3.33
3.82
4.01
4.06
4.11
4.18
4.19
4
3.41
2.28
0.45
-2.13
-5.38
-9.04
-12.73
-16.07
-18.81
-20.82
-22.1
-22.56
-22.07
-20.45
-17.64
-13.87
-9.62
-5.53
-2.09
0.37
1.83
2.36
2.06
1.07
-0.41
-2.06
-3.52
-4.44
-4.69
-4.32
-3.58
-2.78
-2.13
-1.71
-1.5
-1.49
-1.73
-2.4
-3.78
-6.04
-9.21
-12.98
-16.87
-20.27
-22.7
-23.96
-24.13
-23.58
-22.72
-21.9
-21.27
-20.78
-20.16
-19
-16.85
-13.34
-8.27
-1.77
5.69
13.33
20.17
25.32
28.28
29
28.04
26.15
24.1
22.31
20.81
19.38
17.8
16.08
14.51
13.57
13.63
14.82
16.95
19.63
22.41
24.97
27.12
28.87
30.29
31.43
32.29
32.79
32.81
32.24
30.96
28.82
25.73
21.66
16.82
11.63
6.72
2.67
-0.13
-1.71
-2.44
-2.81
-3.2
-3.67
-4.03
-3.94
-3.14
-1.52
0.88
3.96
7.63
11.72
15.9
19.65
22.36
23.52
22.98
21.02
18.32
15.68
13.69
12.6
12.23
12.2
12.16
11.94
11.57
11.18
10.82
10.34
9.36
7.43
4.3
0.04
-4.98
-10.17
-15.09
-19.55
-23.62
-27.47
-31.19
-34.81
-38.33
-41.79
-45.27
-48.72
-51.81
-53.9
-54.26
-52.46
-48.59
-43.29
-37.47
-32.01
-27.41
-23.87
-21.37
-19.81
-19.14
-19.29
-20.06
-21.11
-22.04
-22.43
-22.05
-20.91
-19.16
-17.08
-14.99
-13.13
-11.65
-10.53
-9.62
-8.68
-7.49
-5.88
-3.75
-1.09
1.94
5.04
7.78
9.71
10.53
10.13
8.7
6.55
4.13
1.88
0.29
-0.21
0.78
3.31
7.06
11.28
15.03
17.54
18.45
17.9
16.33
14.28
12.22
10.49
9.37
9.13
9.95
11.83
14.43
17.09
19.07
19.85
19.34
18.03
16.72
16.24
17.13
19.37
22.48
25.73
28.5
30.52
31.97
33.33
35.17
37.88
41.46
45.4
48.89
51.02
51.21
49.47
46.37
43.03
40.67
40.18
41.67
44.26
46.04
44.58
37.61
23.87
3.86
-20.1
-44.46
-65.48
-80.38
-87.95
-88.54
-83.52
-74.61
-63.48
-51.57
-40.1
-30.13
-22.37
-17.15
-14.36
-13.59
-14.31
-16.14
-18.81
-22.18
-26.07
-30.37
-34.85
-39.31
-43.42
-46.74
-48.86
-49.57
-48.94
-47.22
-44.71
-41.51
-37.58
-32.79
-27.1
-20.73
-14.08
-7.64
-1.89
2.88
6.48
8.92
10.37
11.16
11.68
12.24
12.91
13.46
13.52
12.72
10.91
8.21
4.87
1.2
-2.53
-6.11
-9.28
-11.74
-13.22
-13.61
-13.08
-12.05
-11.12
-10.87
-11.69
-13.64
-16.49
-19.73
-22.81
-25.18
-26.52
-26.62
-25.36
-22.64
-18.39
-12.68
-5.72
1.99
9.9
17.42
24.15
29.85
34.38
37.6
39.34
39.52
38.23
35.94
33.31
31.03
29.6
29.14
29.45
30.14
30.78
30.95
30.29
28.53
25.56
21.54
16.94
12.38
8.48
5.56
3.54
1.99
0.37
-1.82
-4.76
-8.36
-12.23
-15.71
-18.04
-18.51
-16.62
-12.36
-6.31
0.58
7.19
12.63
16.57
19.21
21.22
23.4
26.22
29.59
32.72
34.3
33.02
28.07
19.62
8.89
-2.16
-11.54
-17.9
-20.91
-21.32
-20.49
-19.79
-20.25
-22.24
-25.64
-30.03
-34.86
-39.66
-43.99
-47.51
-49.96
-51.25
-51.46
-50.92
-50.12
-49.42
-49
-48.65
-47.82
-45.87
-42.33
-37.25
-31.14
-24.98
-19.73
-16.13
-14.34
-13.99
-14.35
-14.75
-14.74
-14.25
-13.5
-12.75
-12.1
-11.32
-9.92
-7.27
-2.9
3.34
11.16
19.9
28.68
36.6
42.98
47.4
49.75
50.13
48.88
46.5
43.61
40.86
38.75
37.42
36.67
36.01
34.95
33.24
31.01
28.67
26.84
26.14
27.14
30.25
35.56
42.72
50.9
58.92
65.59
70.13
72.34
72.54
71.21
68.72
65.1
60.19
53.82
46.1
37.55
29
21.36
15.45
11.79
10.48
11.15
12.97
14.8
15.45
14.05
10.18
3.97
-4.05
-13.13
-22.5
-31.36
-39.03
-45.03
-49.21
-51.84
-53.68
-55.53
-57.85
-60.38
-62.09
-61.72
-58.46
-52.53
-45.14
-37.92
-32.08
-27.79
-24.19
-19.97
-14.27
-7.14
0.41
6.98
11.54
13.95
14.92
15.53
16.57
18.08
19.49
20.06
19.43
17.82
15.8
13.75
11.36
7.76
2.06
-6.03
-15.79
-25.78
-34.46
-40.79
-44.5
-45.96
-45.8
-44.61
-42.85
-40.88
-38.99
-37.34
-35.88
-34.43
-32.73
-30.61
-28.03
-25.06
-21.77
-18.34
-15.1
-12.59
-11.38
-11.83
-13.81
-16.74
-19.82
-22.35
-23.9
-24.35
-23.8
-22.41
-20.47
-18.36
-16.5
-15.17
-14.29
-13.37
-11.75
-8.94
-4.91
-0.2
4.35
7.96
10.19
11.07
10.95
10.22
9.19
8.02
6.78
5.64
4.97
5.3
7.15
10.86
16.35
23.06
30.06
36.41
41.47
45.12
47.67
49.61
51.24
52.54
53.26
53.17
52.35
51.23
50.39
50.29
50.97
52.01
52.76
52.68
51.59
49.88
48.29
47.53
47.91
49.16
50.4
50.41
48.09
42.74
34.27
23.07
10.07
-3.55
-16.39
-27.27
-35.76
-42.57
-49.5
-58.65
-71.24
-86.48
-101.4
-111.79
-113.94
-106.3
-90.11
-68.76
-46.32
-25.98
-9.3
3.53
12.85
18.79
21.26
20.15
15.96
10.02
4.1
-0.24
-2.22
-2.11
-0.94
0.1
0.15
-0.98
-2.92
-5.01
-6.66
-7.62
-7.94
-7.92
-7.86
-8.03
-8.53
-9.4
-10.59
-12.01
-13.55
-14.99
-16.04
-16.33
-15.55
-13.54
-10.42
-6.57
-2.51
1.25
4.35
6.65
8.17
9.08
9.67
10.19
10.85
11.68
12.5
13.04
12.93
11.95
10.08
7.49
4.47
1.31
-1.75
-4.64
-7.48
-10.64
-14.66
-20
-26.8
-34.62
-42.43
-48.89
-52.71
-53.08
-49.9
-43.81
-35.95
-27.63
-19.93
-13.41
-7.94
-2.82
3.01
10.39
19.57
29.98
40.45
49.63
56.55
60.93
63.18
64.1
64.42
64.59
64.64
64.48
64.01
63.31
62.52
61.73
60.83
59.53
57.64
55.22
52.66
50.44
48.84
47.64
46.25
43.94
40.2
35.03
28.82
22.24
15.94
10.39
5.82
2.17
-0.85
-3.71
-6.9
-10.67
-14.9
-19.04
-22.35
-24.26
-24.6
-23.62
-21.78
-19.44
-16.72
-13.66
-10.4
-7.3
-4.91
-3.67
-3.67
-4.65
-6.13
-7.61
-8.79
-9.54
-9.71
-9.07
-7.35
-4.49
-0.88
2.52
4.4
3.63
-0.19
-6.44
-13.68
-20.29
-25.18
-28.21
-30.12
-31.93
-34.3
-37.21
-40.12
-42.57
-44.56
-46.62
-49.34
-52.82
-56.31
-58.44
-57.83
-53.73
-46.41
-36.99
-27.07
-18.06
-10.82
-5.5
-1.7
1.12
3.34
5.05
6.02
5.93
4.66
2.45
-0.05
-2.08
-3.02
-2.67
-1.27
0.63
2.42
3.66
4.18
3.96
3.14
1.86
0.31
-1.38
-3.04
-4.52
-5.75
-6.75
-7.66
-8.7
-10.1
-11.99
-14.42
-17.16
-19.81
-21.81
-22.56
-21.66
-19.02
-14.94
-10.06
-5.13
-0.79
2.6
5.02
6.72
8.04
9.3
10.63
12.08
13.66
15.41
17.51
20.09
23.06
26
28.16
28.68
26.95
22.81
16.62
9.09
0.99
-6.95
-14.07
-19.83
-23.89
-26.27
-27.39
-27.97
-28.72
-29.98
-31.48
-32.41
-31.76
-28.75
-23.09
-15.13
-5.6
4.52
14.35
23.29
31.18
38.19
44.64
50.64
55.83
59.44
60.65
59.12
55.33
50.35
45.34
40.99
37.32
33.82
30.08
26.09
22.37
19.53
17.91
17.36
17.4
17.69
18.24
19.38
21.36
23.99
26.55
28.16
28.29
27.12
25.45
24.16
23.68
23.59
22.86
20.42
15.88
9.86
3.75
-0.85
-2.83
-1.89
1.25
5.37
9.01
10.89
10.12
6.32
-0.11
-8.03
-15.74
-21.72
-25.39
-27.8
-31.44
-39.22
-52.94
-71.99
-93.12
-111.42
-122.19
-122.76
-113.27
-96.31
-75.66
-54.85
-36.34
-21.45
-10.81
-4.75
-3.4
-6.53
-13.32
-22.32
-31.81
-40.31
-46.94
-51.52
-54.36
-55.92
-56.46
-55.96
-54.16
-50.86
-46.11
-40.31
-34.08
-28.05
-22.75
-18.48
-15.28
-12.97
-11.18
-9.39
-7.01
-3.52
1.41
7.85
15.6
24.37
33.81
43.61
53.38
62.62
70.73
77.11
81.31
83.14
82.75
80.51
76.89
72.35
67.26
61.89
56.45
51.05
45.73
40.46
35
29.05
22.22
14.33
5.59
-3.23
-10.93
-16.25
-18.3
-16.96
-12.91
-7.35
-1.61
3.34
7.1
9.68
11.33
12.24
12.38
11.7
10.19
8.1
5.86
4.07
3.12
3.17
3.98
5.12
6.17
6.94
7.49
8.12
9.11
10.42
11.7
12.31
11.55
8.91
4.37
-1.68
-8.59
-15.63
-22.32
-28.45
-34.26
-40.3
-47.45
-56.59
-68.32
-82.51
-98.15
-113.43
-126.24
-134.82
-138.32
-136.95
-131.84
-124.4
-115.9
-107.11
-98.28
-89.32
-79.99
-70.01
-59.22
-47.68
-35.68
-23.73
-12.37
-2.06
7.01
14.9
21.88
28.19
33.99
39.28
44.03
48.22
51.9
55.14
57.95
60.26
62.03
63.26
63.98
64.27
64.12
63.5
62.33
60.57
58.23
55.47
52.57
49.89
47.85
46.83
46.99
48.29
50.36
52.59
54.28
54.82
53.88
51.47
47.93
43.71
39.32
35.15
31.42
28.33
26.09
25.02
25.5
27.7
31.39
35.92
40.43
44.26
47.17
49.42
51.4
53.33
55.05
56.11
56.18
55.22
53.63
51.99
50.7
49.82
49.1
48.26
47.16
45.82
44.3
42.59
40.5
37.89
34.86
31.79
29.29
27.89
27.94
29.36
31.84
34.94
38.28
41.39
43.7
44.45
42.94
38.78
32.23
24.29
16.37
9.67
4.58
0.47
-3.89
-9.55
-16.78
-24.89
-32.64
-38.95
-43.57
-47.12
-50.7
-55.06
-60.1
-64.8
-67.71
-67.65
-64.4
-58.85
-52.67
-47.61
-44.68
-43.77
-43.66
-42.7
-39.6
-34.07
-26.87
-19.29
-12.48
-6.86
-2.21
1.97
5.88
9.22
11.33
11.72
10.44
8.15
5.75
3.91
2.84
2.28
1.79
1
-0.23
-1.78
-3.39
-4.74
-5.65
-6.03
-6.01
-5.91
-6.08
-6.78
-7.99
-9.44
-10.63
-11.08
-10.49
-8.92
-6.8
-4.92
-4.22
-5.59
-9.64
-16.3
-24.82
-33.72
-41.28
-45.99
-47.02
-44.43
-39.07
-32.23
-25.23
-19.09
-14.42
-11.41
-9.96
-9.72
-10.27
-11.17
-12.07
-12.86
-13.61
-14.44
-15.37
-16.25
-16.75
-16.55
-15.57
-14
-12.34
-11.15
-10.86
-11.6
-13.13
-14.98
-16.63
-17.63
-17.74
-16.94
-15.35
-13.23
-10.81
-8.41
-6.25
-4.57
-3.54
-3.1
-2.95
-2.59
-1.4
1.04
4.87
9.86
15.55
21.41
26.98
31.82
35.48
37.41
37.09
34.25
29.14
22.67
16.18
11.1
8.44
8.47
10.65
13.94
17.24
19.75
21.14
21.49
21.01
19.84
18.04
15.56
12.44
8.89
5.18
1.63
-1.7
-4.92
-8.31
-12.15
-16.5
-21.18
-25.85
-30.02
-33.15
-34.78
-34.55
-32.33
-28.4
-23.41
-18.28
-13.89
-10.76
-8.9
-7.84
-6.96
-5.85
-4.61
-3.68
-3.64
-4.76
-6.86
-9.37
-11.58
-13.03
-13.58
-13.41
-12.7
-11.46
-9.43
-6.29
-1.95
3.26
8.56
13.03
15.91
16.96
16.44
14.96
13.22
11.72
10.58
9.63
8.5
6.92
4.81
2.42
0.21
-1.29
-1.71
-0.96
0.7
2.85
5.07
7.1
8.98
10.92
13.21
16.05
19.45
23.25
27.25
31.26
35.21
39.09
42.82
46.24
49.07
50.99
51.8
51.51
50.31
48.52
46.4
43.95
40.96
37.1
32.15
26.19
19.59
12.89
6.54
0.79
-4.4
-9.22
-13.78
-18.16
-22.33
-26.4
-30.52
-34.85
-39.24
-43.24
-46.06
-47.06
-45.98
-43.13
-39.26
-35.22
-31.72
-29.16
-27.71
-27.35
-27.92
-29.14
-30.54
-31.64
-32.04
-31.69
-30.85
-29.99
-29.54
-29.71
-30.4
-31.35
-32.19
-32.63
-32.56
-32.02
-31.2
-30.43
-29.98
-30.02
-30.53
-31.42
-32.51
-33.74
-35.12
-36.79
-38.94
-41.64
-44.9
-48.5
-51.95
-54.41
-54.91
-52.53
-46.8
-37.99
-27.06
-15.41
-4.47
4.65
11.41
15.88
18.51
19.94
20.71
21.22
21.63
21.95
22.2
22.46
22.88
23.58
24.49
25.29
25.57
25.09
23.98
22.82
22.27
22.82
24.38
26.39
28.07
28.89
28.83
28.28
27.79
27.63
27.58
27.04
25.36
22.26
18.03
13.55
9.93
8.13
8.68
11.49
15.87
20.75
24.85
27.06
26.71
23.79
19.03
13.5
8.39
4.54
2.29
1.54
1.99
3.32
5.26
7.58
9.89
11.72
12.66
12.5
11.46
9.95
8.45
7.28
6.45
5.78
5.06
4.21
3.29
2.51
2.07
2.09
2.49
2.96
3.02
2.25
0.45
-2.2
-5.07
-7.38
-8.47
-8.1
-6.6
-4.64
-2.93
-1.9
-1.65
-1.97
-2.63
-3.41
-4.18
-4.7
-4.69
-3.9
-2.22
0.17
2.93
5.66
8.17
10.47
12.68
14.82
16.77
18.23
19.01
19.16
18.99
18.94
19.3
20.02
20.67
20.63
19.35
16.54
12.32
7.09
1.42
-4.07
-8.74
-12.01
-13.35
-12.5
-9.55
-5.12
-0.26
3.91
6.51
7.24
6.53
5.17
4.03
3.72
4.37
5.72
7.36
8.86
9.95
10.52
10.6
10.31
9.8
9.23
8.66
8.06
7.3
6.28
4.98
3.46
1.9
0.49
-0.61
-1.26
-1.33
-0.7
0.68
2.59
4.45
5.4
4.59
1.6
-3.19
-8.52
-12.69
-14.17
-12.2
-7.1
-0.02
7.6
14.6
20.48
25.38
29.71
33.76
37.52
40.73
43.14
44.78
45.95
47.06
48.41
50.01
51.66
53.1
54.21
54.92
55.07
54.3
51.94
47.24
39.73
29.57
17.62
5.17
-6.52
-16.83
-26.1
-35.71
-47.39
-62.36
-80.47
-99.91
-117.63
-130.35
-135.54
-132.24
-121.02
-103.57
-82.1
-58.88
-36.13
-15.96
-0.28
9.65
13.53
12.22
7.55
1.69
-3.52
-6.97
-8.44
-8.47
-7.99
-7.91
-8.77
-10.58
-12.95
-15.32
-17.19
-18.35
-18.86
-18.96
-18.91
-18.77
-18.43
-17.63
-16.1
-13.62
-10.16
-5.97
-1.53
2.53
5.59
7.31
7.69
7.17
6.49
6.44
7.66
10.48
14.84
20.31
26.19
31.63
35.93
38.75
40.28
41.01
41.48
41.95
42.33
42.43
42.43
43.02
45.28
50.04
57.32
66.01
74.26
80.26
82.98
82.51
79.82
76.23
72.88
70.58
69.88
71.08
74.24
78.78
83.54
86.93
87.63
85.15
80.14
74.13
68.92
65.94
65.96
69.1
75.03
83.09
92.32
101.43
109.11
114.61
118.06
120.42
122.87
125.94
129.07
130.85
129.84
125.39
118.09
109.35
100.53
92.22
84.04
75.15
64.97
53.59
41.76
30.37
20.08
10.95
2.51
-6.04
-15.39
-25.83
-37.11
-48.6
-59.51
-69.26
-77.72
-85.11
-91.88
-98.42
-104.91
-111.41
-117.96
-124.74
-131.87
-139.16
-145.77
-150.25
-151.07
-147.24
-138.9
-127.32
-114.59
-102.96
-94.15
-88.94
-87.21
-88.19
-90.81
-93.94
-96.59
-97.98
-97.59
-95.28
-91.24
-85.97
-80.13
-74.38
-69.22
-64.99
-61.87
-59.89
-59.01
-59.09
-59.93
-61.28
-62.83
-64.29
-65.39
-66.02
-66.14
-65.85
-65.26
-64.57
-63.95
-63.59
-63.59
-63.8
-63.75
-62.66
-59.58
-53.9
-45.63
-35.54
-24.96
-15.31
-7.57
-2.05
1.57
3.89
5.42
6.42
6.9
6.83
6.3
5.53
4.81
4.32
3.99
3.6
2.8
1.44
-0.42
-2.43
-4.23
-5.64
-6.84
-8.36
-10.7
-14.08
-18.2
-22.38
-25.83
-28.09
-29.17
-29.54
-29.86
-30.67
-32.2
-34.36
-36.73
-38.63
-39.14
-37.27
-32.29
-24.17
-13.75
-2.68
7.09
13.96
17.23
17.27
15.15
12.18
9.37
7.26
5.94
5.33
5.34
5.86
6.69
7.48
7.79
7.22
5.7
3.42
0.9
-1.33
-2.95
-3.95
-4.64
-5.44
-6.66
-8.37
-10.41
-12.5
-14.41
-16.07
-17.67
-19.56
-22.09
-25.44
-29.53
-33.88
-37.64
-39.8
-39.37
-35.75
-28.89
-19.45
-8.68
1.95
11.07
17.8
21.85
23.51
23.33
21.95
19.87
17.52
15.21
13.3
12.06
11.68
12.03
12.74
13.21
12.92
11.68
9.69
7.48
5.58
4.22
3.26
2.24
0.72
-1.55
-4.37
-7.25
-9.67
-11.29
-12.1
-12.38
-12.67
-13.51
-15.37
-18.48
-22.77
-27.67
-32.21
-35.21
-35.56
-32.66
-26.6
-18.22
-8.79
0.29
7.97
13.67
17.36
19.35
20.15
20.25
20.02
19.73
19.54
19.58
19.96
20.67
21.56
22.38
22.75
22.38
21.2
19.42
17.46
15.7
14.19
12.72
10.76
7.9
4.06
-0.35
-4.64
-8.1
-10.39
-11.62
-12.32
-13.18
-14.78
-17.46
-21.15
-25.44
-29.53
-32.39
-32.94
-30.43
-24.68
-16.35
-6.7
2.72
10.59
16.21
19.63
21.41
22.32
22.97
23.59
24.11
24.34
24.16
23.64
22.96
22.27
21.62
20.85
19.78
18.31
16.45
14.32
12.02
9.46
6.4
2.53
-2.3
-7.88
-13.72
-19.12
-23.53
-26.71
-28.85
-30.42
-31.95
-33.86
-36.24
-38.82
-41
-41.94
-40.79
-36.98
-30.44
-21.71
-11.77
-1.85
7.05
14.33
19.9
24.01
27
29.13
30.55
31.36
31.74
31.96
32.28
32.87
33.64
34.3
34.48
33.93
32.62
30.8
28.79
26.82
24.89
22.79
20.2
16.93
12.94
8.43
3.7
-0.96
-5.42
-9.73
-14.11
-18.89
-24.3
-30.45
-37.04
-43.37
-48.35
-50.79
-49.74
-44.87
-36.69
-26.41
-15.67
-5.91
1.97
7.81
11.98
15.02
17.3
18.96
20
20.58
21.05
21.85
23.28
25.3
27.5
29.4
30.62
31.17
31.33
31.51
31.9
32.37
32.55
31.95
30.31
27.61
24.13
20.25
16.3
12.52
9.05
5.95
3.17
0.54
-2.24
-5.46
-9.27
-13.37
-17.01
-19.11
-18.71
-15.38
-9.47
-2.09
5.32
11.48
15.62
17.62
17.84
16.81
14.93
12.31
9.02
5.33
1.86
-0.56
-1.33
-0.19
2.54
6.14
9.71
12.51
14.23
14.96
14.95
14.12
12.27
9.08
4.27
-2.24
-10.15
-18.82
-27.27
-34.74
-41.46
-47.83
-54.22
-60.86
-68.04
-76.03
-84.8
-93.88
-102.42
-110.43
-117.07
-120.92
-120.75
-116.71
-110.41
-104.17
-100.15
-99.62
-104.31
-113.44
-123.79
-131.16
-132.64
-127.4
-116.55
-102.42
-88
-78.28
-75.46
-78.18
-82.5
-84.45
-81.32
-72.06
-57.22
-24.57
25
78.56
120.44
143.03
147.31
138.15
120.82
99.77
78.3
55.42
31.53
8.81
-9.83
-22.64
-29.41
-30.93
-28.32
-22.63
-16.09
-9.22
-1.55
7.95
19.27
31.17
41.91
50.06
54.94
55.66
52.82
48.2
43.93
41.22
40.21
40.5
41.53
42.95
43.96
44.25
43.88
43.24
42.46
41.47
40.1
38.14
35.41
31.61
26.72
21.02
15.08
9.32
3.94
-1.17
-6.29
-11.62
-17.21
-22.7
-27.42
-30.38
-30.63
-27.57
-21.11
-11.81
-0.75
10.79
21.6
30.84
38.12
43.39
46.86
48.76
49.4
49.17
48.58
48.2
48.47
49.56
51.19
52.78
53.63
53.25
51.52
48.72
45.32
41.72
38.08
34.27
29.97
24.92
19.04
12.56
5.91
-0.42
-5.99
-10.59
-14.25
-17.18
-19.67
-22.03
-24.32
-26.41
-27.88
-28.14
-26.63
-22.99
-17.3
-10.02
-1.92
6.17
13.56
19.84
24.78
28.34
30.47
31.22
30.76
29.43
27.7
26.04
24.8
24.05
23.73
23.65
23.71
23.89
24.14
24.36
24.32
23.77
22.53
20.67
18.44
16.18
14.21
12.66
11.5
10.58
9.66
8.5
6.85
4.56
1.62
-1.71
-4.89
-7.21
-7.94
-6.58
-3.01
2.46
9.16
16.26
23.03
28.97
33.9
37.83
40.88
43.1
44.56
45.31
45.47
45.36
45.31
45.63
46.47
47.85
49.66
51.77
54.04
56.39
58.77
61.15
63.54
66.04
68.75
71.83
75.43
79.63
84.51
90.07
96.23
102.72
109.16
115.18
120.5
124.96
128.44
130.74
131.54
130.49
127.39
122.45
116.33
109.89
103.84
98.43
93.44
88.4
82.89
76.74
70.01
62.83
55.31
47.56
39.81
32.47
26.11
21.2
17.85
15.69
13.97
11.97
9.46
6.79
4.79
4.3
5.75
8.83
12.45
15.1
15.27
11.89
4.61
-6.34
-20.18
-35.93
-52.49
-68.94
-84.58
-98.85
-111.23
-121.06
-127.59
-130.16
-128.51
-123.02
-114.73
-105.1
-95.45
-86.48
-77.95
-68.88
-58.13
-45.08
-30.06
-14.33
0.49
13.08
22.85
30.11
35.65
40.21
44.19
47.68
50.77
53.96
58.18
64.43
73.29
84.56
97.23
109.81
120.84
129.33
135.03
138.38
140.13
141.14
141.94
142.61
142.82
142.1
140.06
136.55
131.49
124.87
116.46
105.63
91.54
73.31
50.31
22.39
-9.99
-45.84
-83.85
-122.54
-160.41
-195.91
-227.46
-253.6
-273.38
-286.72
-294.49
-298.34
-300.03
-300.84
-301.08
-300.24
-297.41
-291.92
-283.56
-272.58
-259.58
-245.25
-230.32
-215.59
-201.88
-189.74
-179.17
-169.51
-159.64
-148.37
-134.91
-119.21
-101.95
-84.28
-67.42
-52.34
-39.52
-29.08
-20.83
-14.53
-9.99
-7.04
-5.39
-4.55
-3.79
-2.35
0.26
4.05
8.47
12.69
15.83
17.33
17.06
15.24
12.3
8.73
4.93
1.2
-2.39
-5.89
-9.4
-12.9
-16.02
-18.1
-18.26
-15.69
-9.73
-0
13.51
30.26
48.98
67.63
83.65
94.51
98.5
95.34
86.33
73.98
61.14
50.1
42
36.79
33.51
30.87
27.79
23.64
18.41
12.51
6.67
1.7
-1.67
-2.83
-1.48
2.33
8.12
15.19
22.77
30.22
37.14
43.34
48.69
52.88
55.33
55.23
51.89
45.11
35.49
24.28
13.09
3.4
-3.84
-8.26
-9.92
-9.13
-6.26
-1.81
3.54
8.98
13.78
17.54
20.3
22.48
24.52
26.59
28.5
29.91
30.45
30.04
28.82
27.15
25.41
23.9
22.72
21.75
20.65
19.04
16.67
13.57
10.18
7.09
4.79
3.4
2.66
2.15
1.55
0.92
0.59
0.86
1.72
2.86
3.87
4.67
5.59
7.31
10.39
14.96
20.5
25.94
30.08
31.89
30.88
27.11
21.19
14.18
7.26
1.48
-2.46
-4.3
-4.12
-2.38
0.2
2.93
5.53
8.2
11.47
16.08
22.62
31.33
41.94
53.41
64.24
73.28
79.61
82.7
82.39
78.83
72.69
64.61
54.94
43.8
32.3
21.42
11.54
2.43
-6.68
-15.67
-24.35
-32.67
-40.58
-45.97
-47.1
-43.77
-37.35
-30.51
-23.9
-17.71
-12
-6.61
1.88
15.94
35.35
57.42
77.71
95.75
112.43
128.91
146.1
168.07
196.85
230.78
265.33
294.39
317.1
333.68
343.51
320.85
253.07
148.59
32.36
-61.47
-133.39
-188.48
-231.41
-265.12
-290.21
-303.16
-301.97
-288.37
-267.48
-246.49
-227.53
-211.06
-197.13
-185.64
-173.56
-158.72
-141.47
-124.4
-111.68
-103.58
-99.24
-97.68
-97.98
-97.54
-94.49
-88.71
-81.62
-75.55
-70.22
-64.56
-57.46
-48.31
-36.36
-21.91
-6.6
7.13
16.81
21.94
23.28
22.22
20.33
19.25
20.17
23.51
28.99
35.9
43.72
51.93
59.96
67.36
73.91
79.71
85.19
90.86
97.16
104.14
111.45
118.38
124.15
128.19
130.38
131.16
131.35
131.8
133
134.89
136.94
138.45
138.75
137.39
134.12
128.97
122.34
115.11
108.48
103.67
101.36
101.45
103.31
106.27
110.08
115.16
122.2
131.57
142.93
155.26
167.35
178.17
186.73
191.74
191.38
183.66
167.27
142.56
111.89
79.17
48.6
23.43
5.19
-6.21
-11.95
-13.6
-12.8
-11.24
-10.75
-12.98
-18.98
-28.63
-40.53
-52.5
-62.43
-69.08
-72.49
-73.87
-74.93
-76.99
-80.4
-84.44
-87.68
-88.61
-86.31
-80.88
-73.56
-66.32
-61.28
-60
-62.98
-69.71
-79.06
-89.73
-100.66
-111.06
-120.38
-128.33
-135.11
-141.49
-148.78
-158.27
-170.52
-184.9
-199.67
-212.85
-223.25
-231.05
-237.54
-244.15
-251.43
-258.37
-262.86
-262.66
-256.56
-244.93
-229.6
-213.08
-197.67
-184.83
-174.79
-166.5
-157.76
-145.8
-128.03
-102.83
-70.03
-31.08
11.33
54.02
94.19
130.12
161.47
189.13
214.7
239.64
264.54
288.65
309.92
325.61
333.15
330.92
318.55
296.78
267.2
232.06
194.11
156.23
120.71
88.64
59.61
32.11
4.36
-24.82
-55.59
-87.48
-119.92
-152.58
-185.08
-216.41
-244.7
-267.61
-283.31
-291.46
-293.52
-292.22
-290.26
-289.27
-289.31
-289.12
-287.07
-281.96
-273.49
-262.1
-248.55
-233.42
-216.93
-199.08
-179.72
-158.74
-136.23
-112.53
-88.39
-65.08
-44.28
-27.75
-16.58
-10.73
-8.94
-9.13
-9.24
-7.86
-4.57
0.38
6.54
13.62
21.54
30.08
38.72
46.64
53.03
57.54
60.53
62.95
65.8
69.69
74.5
79.63
84.26
87.9
90.59
92.85
95.43
98.99
103.82
109.72
116.06
121.89
126.19
128.25
127.92
125.69
122.42
118.91
115.33
111.02
104.67
95.03
81.61
65.12
47.3
30.14
15.15
2.82
-7.22
-15.69
-23.07
-29.33
-34.18
-37.42
-39.37
-40.75
-42.31
-44.34
-46.47
-47.84
-47.68
-45.75
-42.57
-39.28
-37.13
-36.8
-38.15
-40.14
-41.27
-40.19
-36.31
-29.94
-22.17
-14.36
-7.56
-2.15
2.23
6.36
10.97
16.26
21.82
26.65
29.49
29.25
25.36
18.05
8.52
-1.18
-8.53
-11.31
-8.65
-1.77
6.1
10.72
8.69
-0.93
-15.99
-32.14
-44.79
-51.23
-51.57
-48.33
-44.8
-43.33
-44.44
-47.21
-50.24
-52.67
-54.46
-55.88
-56.82
-56.48
-53.59
-47.07
-36.77
-23.65
-9.53
3.58
14.29
22.2
27.9
32.51
37.17
42.49
48.4
54.32
59.37
62.9
64.68
65.01
64.59
64.22
64.43
65.32
66.5
67.24
66.79
64.59
60.48
54.73
47.84
40.4
32.85
25.34
17.77
9.89
1.58
-7.02
-15.35
-22.59
-27.76
-29.96
-28.55
-23.38
-14.8
-3.66
8.8
21.25
32.52
41.82
48.84
53.6
56.35
57.35
56.85
55.16
52.66
49.8
46.98
44.45
42.21
40.15
38.19
36.31
34.61
33.19
32.01
30.92
29.65
27.97
25.8
23.2
20.36
17.52
14.82
12.27
9.73
7.01
4.02
0.98
-1.57
-2.78
-1.87
1.63
7.62
15.55
24.52
33.58
41.77
48.33
52.69
54.58
54.1
51.74
48.22
44.23
40.15
36
31.54
26.5
20.68
14.01
6.4
-2.07
-11.2
-20.51
-29.29
-36.84
-42.74
-46.91
-49.58
-50.95
-51.05
-49.7
-46.88
-42.96
-38.85
-35.74
-34.38
-34.66
-35.61
-35.71
-33.52
-28.19
-19.66
-8.39
4.89
19.5
34.81
50
63.98
75.42
83.12
86.42
85.4
80.83
73.82
65.37
56.15
46.52
36.87
27.7
19.65
13.23
8.47
4.82
1.3
-2.84
-7.6
-12
-14.42
-13.48
-8.94
-2.02
4.88
9.22
9.3
4.98
-2.35
-10.51
-17.27
-21.12
-21.48
-18.58
-13.34
-7.22
-2.05
0.61
-0.12
-3.77
-8.73
-13.01
-15.07
-14.71
-13.07
-12
-13.02
-16.66
-22.63
-30.29
-39.31
-49.68
-61.39
-73.73
-85.01
-92.82
-95
-90.54
-80.05
-65.51
-49.48
-34.21
-21.3
-11.65
-5.77
-4
-6.43
-12.67
-21.5
-30.8
-38.2
-41.89
-41.42
-37.83
-33.03
-28.69
-25.39
-22.49
-18.54
-12.03
-2.24
10.64
25.75
42.08
58.85
75.45
91.32
105.77
118.2
128.31
136.35
143.06
149.28
155.66
162.23
168.42
173
174.28
170.6
160.73
144.41
122.52
96.93
70
44
20.78
1.63
-12.56
-21.27
-24.53
-22.97
-17.66
-9.7
0.29
12.38
27.28
45.74
67.9
92.87
118.82
143.37
164.03
178.46
184.82
182.4
171.98
156.01
138.07
121.78
109.51
101.76
97.35
94.38
91.32
87.73
84.25
81.8
80.74
80.27
78.55
73.53
63.66
48.46
28.42
4.52
-22.22
-50.84
-80.22
-108.72
-134.02
-153.61
-165.48
-168.89
-164.75
-155.29
-143.34
-131.43
-121.11
-112.99
-107.07
-103.12
-101.01
-100.66
-101.91
-104.27
-106.89
-108.77
-109.05
-107.24
-103.28
-97.58
-90.76
-83.43
-76.07
-69.02
-62.58
-57.04
-52.7
-49.77
-48.24
-47.73
-47.62
-47.17
-45.84
-43.48
-40.36
-36.99
-33.86
-31.17
-28.78
-26.35
-23.5
-20.03
-15.97
-11.59
-7.26
-3.39
-0.28
1.9
3.08
3.38
3.04
2.31
1.53
1.03
1.04
1.62
2.55
3.24
2.87
0.7
-3.53
-9.25
-15.21
-19.93
-22.41
-22.7
-21.9
-21.59
-23.08
-26.82
-32.06
-37.21
-40.42
-40.14
-35.64
-27.2
-16.18
-4.97
3.31
5.58
-0.21
-14.06
-33.56
-54.22
-70.84
-79.14
-77.18
-65.95
-48.66
-29.37
-11.47
3.35
15.07
24.69
33.2
40.93
47.51
52.3
54.97
55.84
55.87
56.09
57.18
59.23
61.79
64.24
66.12
67.24
67.61
67.14
65.37
61.53
54.96
45.49
33.72
20.92
8.68
-1.53
-8.67
-12.31
-12.53
-9.91
-5.31
0.27
5.94
11.3
16.47
21.97
28.22
35.05
41.35
45.46
45.85
42.01
34.75
25.94
17.63
11.21
6.92
3.99
1.29
-1.99
-6.08
-10.68
-15.51
-20.48
-25.73
-31.44
-37.53
-43.57
-48.96
-53.24
-56.29
-58.31
-59.74
-60.95
-62.21
-63.64
-65.19
-66.72
-67.9
-68.18
-66.9
-63.53
-57.9
-50.31
-41.49
-32.34
-23.78
-16.5
-10.95
-7.34
-5.58
-5.29
-5.94
-6.87
-7.52
-7.48
-6.56
-4.79
-2.45
0.09
2.42
4.23
5.41
6.09
6.58
7.28
8.49
10.21
12.25
14.17
15.58
16.28
16.52
16.96
18.5
21.94
27.44
34.28
41.05
46.18
48.65
48.36
46.23
43.72
42.2
42.31
43.77
45.32
45.18
41.5
32.86
18.75
-0.07
-21.61
-42.97
-61.06
-73.41
-78.68
-76.84
-69
-57.08
-43.43
-30.33
-19.6
-12.15
-7.86
-5.8
-4.67
-3.49
-2
-0.6
0.01
-0.57
-2.25
-4.51
-6.87
-9.16
-11.54
-14.25
-17.34
-20.52
-23.28
-25.14
-25.78
-25.16
-23.48
-21.08
-18.41
-15.86
-13.73
-12.05
-10.68
-9.36
-8
-6.69
-5.61
-4.93
-4.64
-4.52
-4.31
-3.84
-3.13
-2.35
-1.66
-1.1
-0.65
-0.26
0.07
0.25
0.12
-0.46
-1.48
-2.78
-4.08
-5.14
-5.81
-6.15
-6.32
-6.49
-6.66
-6.59
-5.65
-3.14
1.57
8.9
18.91
31.24
45.14
59.6
73.56
86.25
96.98
105.33
111.22
114.99
117.21
118.66
120.01
121.91
125.15
129.75
135.18
140.77
146.13
151.2
156.3
161.5
166.82
172.43
177.51
180.75
181.2
178.93
174.59
169.31
163.47
156.78
148.79
137.48
120.45
96.22
65.19
29.26
-8.59
-45.78
-83.08
-114.87
-133.88
-136.51
-124.89
-103.91
-80.71
-57.45
-35.52
-16.42
-1.43
6.87
6.09
-5.72
-28.92
-62.56
-104.51
-152.46
-203.19
-251.95
-294.15
-326.06
-345.53
-352.26
-347.86
-335.08
-317.25
-296.94
-275.43
-253.79
-233.38
-215.43
-200.48
-187.91
-176.09
-163.4
-148.76
-131.87
-113.34
-94.12
-74.79
-55.31
-35.34
-14.61
6.69
28.19
49.66
71
92.12
112.86
133.02
152.4
170.97
188.78
205.77
221.52
235.01
244.84
249.66
248.73
242.19
231.03
216.66
200.32
182.53
163.02
141.03
116.1
88.79
60.94
35.19
14.06
-1.14
-10.94
-17.42
-23.38
-31.23
-42.29
-56.54
-73.07
-90.49
-107.36
-122.35
-134.46
-143.04
-148
-149.76
-149.18
-146.93
-143.34
-138.17
-130.81
-120.8
-108.21
-93.78
-78.78
-64.59
-52.26
-42.36
-34.98
-29.87
-26.74
-25.32
-25.35
-26.5
-28.29
-30.11
-31.48
-32.17
-32.29
-32.19
-32.14
-32.19
-32.11
-31.45
-29.79
-27.06
-23.44
-19.35
-15.23
-11.29
-7.42
-3.33
1.36
6.98
13.68
21.67
31.33
43.2
57.83
75.34
95.24
116.33
137.1
156.08
172.1
184.21
191.46
193.03
188.47
178.39
164.79
150.68
138.94
130.82
125.05
118.07
105.62
84.66
54.77
18.2
-21.4
-60.73
-98.09
-133.61
-168.22
-202.17
-234.02
-260.71
-278.54
-284.53
-277.54
-258.71
-231.03
-198.45
-164.91
-133.55
-106.53
-85.12
-70.07
-61.7
-59.8
-63.45
-70.83
-79.33
-86.04
-88.47
-85.24
-76.41
-63.43
-48.55
-33.98
-21.13
-10.34
-0.99
7.95
17.29
27.14
36.9
45.66
52.69
57.91
61.76
64.88
67.59
69.62
70.15
68.21
63.22
55.32
45.44
34.94
25.2
17.26
11.55
8
6.21
5.74
6.21
7.28
8.64
10.01
11.22
12.26
13.36
14.91
17.3
20.74
25.13
30.1
35.06
39.43
42.75
44.82
45.75
45.87
45.69
45.71
46.36
47.83
50.14
53.06
56.24
59.27
61.72
63.26
63.73
63.17
61.73
59.68
57.25
54.58
51.76
48.84
45.83
42.73
39.51
36.12
32.56
28.81
24.89
20.83
16.59
12.09
7.27
2.18
-2.91
-7.46
-10.8
-12.31
-11.65
-8.94
-4.74
0.17
5.01
9.26
12.8
15.74
18.29
20.56
22.5
23.98
24.97
25.49
25.74
25.96
26.48
27.59
29.57
32.5
36.24
40.32
44.03
46.59
47.46
46.41
43.53
39.07
33.35
26.7
19.56
12.65
6.83
2.9
1.28
1.82
3.93
6.86
10.19
14.03
18.97
25.72
34.71
45.77
58.11
70.54
81.77
90.73
96.72
99.64
100.02
98.93
97.71
97.46
98.66
100.98
103.56
105.42
105.96
105.27
103.97
102.86
102.57
103.25
104.58
105.91
106.45
105.52
102.79
98.51
93.47
88.84
85.73
84.73
85.64
87.47
88.76
88.12
84.79
79.1
72.52
67.22
65.22
67.53
73.52
81.1
87.43
89.96
87.19
78.75
65.2
47.62
27.4
6.19
-14.26
-32.52
-47.97
-61.18
-73.67
-87.13
-102.56
-119.84
-137.87
-155.25
-170.82
-184.05
-194.88
-203.48
-210.24
-215.91
-221.61
-228.59
-237.72
-248.9
-260.97
-271.99
-280.1
-284.27
-284.66
-282.38
-278.78
-274.79
-270.49
-265.16
-257.56
-246.24
-229.9
-207.68
-179.51
-146.31
-110.1
-73.8
-40.49
-12.69
8.47
23.36
33.48
40.6
45.85
49.49
51.02
50
46.59
41.98
38.07
36.8
39.33
45.61
54.41
63.78
71.85
77.21
79.31
78.37
75.31
71.46
68.09
65.96
64.82
63.35
59.52
51.36
37.96
19.91
-0.7
-21.17
-39.05
-52.72
-61.52
-65.51
-65.23
-61.45
-55.27
-48.01
-41.04
-35.33
-31.02
-27.38
-23.31
-17.77
-10.31
-1.34
7.98
16.16
21.92
24.68
24.7
22.82
20.13
17.54
15.22
12.61
8.8
3.22
-3.73
-10.79
-16.38
-19.19
-18.35
-14.03
-7.31
0.34
7.65
14.25
20.26
25.89
31.26
37.11
43.93
51.79
60.36
68.98
77.61
86.08
93.9
100.58
106.93
113.72
120.92
127.57
131.95
133.5
131.98
127.37
120.4
113.96
110.9
112.67
118.71
126.64
134.86
141.67
145.6
137.27
113.2
78.34
43.17
19.44
4.67
-5.15
-12.93
-20.6
-28.33
-34.47
-38.08
-39.95
-42.15
-47.13
-54.85
-64.2
-73.87
-82.66
-88.78
-91.28
-90.46
-87.67
-84.79
-82.17
-79.77
-77.33
-74.31
-69.19
-60.66
-48.36
-33.28
-17.48
-2.62
9.81
18.76
23.76
25.19
23.78
20.24
15.02
8.38
0.84
-7.18
-15.53
-24.14
-32.76
-41
-48.47
-55
-60.7
-65.84
-70.85
-76.15
-82.11
-88.9
-96.43
-104.4
-112.22
-119.04
-123.82
-125.65
-123.93
-118.63
-110.25
-99.68
-87.96
-76.02
-64.39
-53.03
-41.1
-27.21
-9.79
12.13
38.48
68.01
98.69
128.58
156.3
181.23
203.04
221.19
234.65
242.08
242.51
235.76
222.62
204.44
182.75
158.78
133.45
107.59
82.11
57.99
36
16.46
-0.9
-16.76
-31.86
-46.6
-60.72
-73.33
-83.11
-88.8
-89.78
-86.46
-80.34
-73.52
-68.09
-65.45
-65.9
-68.66
-72.23
-74.97
-75.66
-73.75
-69.37
-63.09
-55.72
-48.13
-41.13
-35.43
-31.67
-30.4
-32.08
-37
-45
-55.32
-66.74
-77.81
-87.38
-94.97
-100.92
-106.05
-111.22
-116.76
-122.24
-126.67
-128.83
-127.71
-122.72
-113.7
-100.75
-84.22
-64.58
-42.43
-18.46
6.47
31.38
55.07
76.2
93.42
105.57
112.04
112.86
108.72
100.73
90.14
77.92
64.74
50.95
36.78
22.57
8.82
-3.94
-15.34
-25.43
-34.62
-43.46
-52.26
-60.85
-68.61
-74.76
-78.75
-80.54
-80.61
-79.7
-78.55
-77.65
-77.3
-77.61
-78.46
-79.46
-79.8
-78.43
-74.35
-67.06
-56.73
-44.3
-31.04
-18.2
-6.58
3.6
12.5
20.49
27.84
34.71
41.06
46.8
51.81
55.99
59.3
61.82
63.73
65.27
66.66
67.95
69.03
69.61
69.35
68.04
65.67
62.5
58.8
54.82
50.61
46.13
41.3
36.15
30.81
25.42
20.07
14.81
9.67
4.85
0.74
-2.18
-3.54
-3.11
-0.94
2.81
7.81
13.62
19.67
25.23
29.64
32.48
33.77
33.96
33.7
33.46
33.33
32.87
31.33
27.94
22.09
13.6
2.78
-9.44
-21.67
-32.3
-39.99
-44.08
-44.77
-42.97
-39.85
-36.42
-33.21
-30.34
-27.8
-25.64
-24.06
-23.18
-22.9
-22.93
-22.85
-22.31
-21.17
-19.34
-16.79
-13.54
-9.7
-5.59
-1.65
1.7
4.18
5.77
6.64
7.06
7.18
7.15
7.1
7.25
7.92
9.38
11.77
14.96
18.62
22.3
25.61
28.21
29.86
30.42
29.83
28.13
25.46
22.09
18.31
14.46
10.8
7.48
4.48
1.66
-1.24
-4.36
-7.68
-10.91
-13.53
-14.91
-14.57
-12.34
-8.45
-3.48
1.8
6.68
10.64
13.45
15.14
15.88
15.92
15.43
14.56
13.44
12.25
11.14
10.31
9.8
9.59
9.49
9.33
8.94
8.28
7.45
6.54
5.67
4.85
4.01
3.06
1.92
0.6
-0.78
-2.09
-3.24
-4.28
-5.32
-6.53
-7.87
-9.09
-9.67
-9.05
-6.9
-3.25
1.38
6.26
10.67
14.18
16.68
18.33
19.35
19.86
19.93
19.6
19
18.34
17.87
17.8
18.23
19.12
20.34
21.74
23.14
24.29
25
25.13
24.69
23.84
22.93
22.33
22.33
22.98
24.03
25.09
25.64
25.26
23.71
21.06
17.69
14.21
11.32
9.54
8.99
9.21
9.36
8.46
5.89
1.63
-3.77
-9.41
-14.4
-18.23
-20.84
-22.53
-23.71
-24.68
-25.4
-25.45
-24.23
-21.21
-16.34
-10.24
-4.03
0.97
3.81
4.23
2.68
-0.02
-3.13
-6.22
-9.15
-11.86
-14.06
-15.32
-15.27
-13.85
-11.54
-9.15
-7.47
-6.97
-7.48
-8.22
-8.09
-6.06
-1.63
4.99
12.93
20.94
27.73
32.31
34.17
33.29
30.07
25.18
19.46
13.74
8.68
4.61
1.58
-0.74
-2.69
-4.56
-6.37
-7.92
-8.93
-9.23
-8.84
-7.91
-6.64
-5.1
-3.16
-0.61
2.67
6.51
10.48
13.94
16.36
17.5
17.49
16.67
15.44
14.05
12.67
11.5
10.9
11.33
13.18
16.62
21.44
27.18
33.25
39.14
44.47
48.94
52.31
54.46
55.46
55.72
55.81
56.39
57.86
60.3
63.42
66.84
70.16
73.18
75.85
78.15
80.08
81.57
82.51
82.71
81.95
79.91
76.25
70.72
63.32
54.37
44.47
34.29
24.39
15.14
6.82
-0.18
-5.22
-7.52
-6.53
-2.33
4.11
11.06
16.69
19.67
19.55
16.71
11.91
5.88
-0.97
-8.42
-16.17
-23.64
-30.03
-34.62
-37.09
-37.58
-36.55
-34.52
-31.83
-28.69
-25.33
-22.11
-19.47
-17.76
-17.07
-17.19
-17.75
-18.48
-19.31
-20.43
-22.11
-24.57
-27.78
-31.55
-35.46
-38.89
-41.15
-41.65
-40.13
-36.84
-32.45
-27.84
-23.85
-21.06
-19.73
-19.8
-21.06
-23.14
-25.57
-27.85
-29.52
-30.22
-29.75
-28.14
-25.53
-22.08
-17.89
-12.94
-7.21
-0.74
6.22
13.16
19.33
23.86
26.04
25.41
21.93
15.92
8
-1.13
-10.73
-20.25
-29.27
-37.53
-44.9
-51.33
-56.76
-61.08
-64.17
-65.84
-65.95
-64.46
-61.54
-57.64
-53.36
-49.32
-46.04
-43.79
-42.66
-42.62
-43.51
-45.1
-47.03
-48.79
-49.83
-49.77
-48.59
-46.62
-44.16
-41.31
-37.75
-32.87
-26.29
-18.24
-9.72
-2.18
3.08
5.47
5.26
3.3
0.49
-2.64
-5.97
-9.57
-13.33
-16.78
-19.23
-19.95
-18.5
-14.71
-8.66
-0.43
9.91
22.29
36.45
51.72
67.1
81.36
93.41
102.66
109.22
113.86
117.73
121.91
127.02
133.06
139.53
145.9
151.87
157.47
162.93
168.41
173.85
179.08
184.06
189.01
194.35
200.24
206.23
211.08
213.09
210.77
203.49
191.85
177.38
161.96
147.11
133.45
120.77
108.33
95.44
81.77
67.5
53.04
38.73
24.61
10.58
-3.45
-17.36
-30.85
-43.49
-55.52
-67.22
-78.71
-89.87
-100.23
-109.78
-118.49
-126.22
-132.68
-137.81
-141.15
-141.71
-138.38
-130.32
-118.23
-103.77
-89.16
-76.55
-68.55
-66.46
-69.72
-76.38
-83.77
-90.76
-96.61
-100.54
-101.92
-103.35
-106.82
-112.08
-117.01
-118.09
-115.81
-111.3
-105.35
-98.86
-98.72
-109.54
-130.22
-154.89
-174.65
-189.17
-200.01
-208.23
-214.83
-229.78
-259.44
-301.59
-347.12
-382.72
-408.77
-428.44
-443.92
-457.52
-483.49
-531.69
-600.7
-679.18
-748.84
-807.83
-857.22
-896.95
-845.49
-664.22
-384.52
-87.04
120.99
253.29
333.05
376.62
404.69
424.81
428.99
412.16
379.37
343.59
322.15
313.6
312.4
314.87
318.8
315.65
301.85
282.5
268.42
272.47
291.62
318.45
346.3
369.57
379.56
371.37
346.28
310.33
272.78
235.26
198.74
165.42
137.04
111.73
87.01
61.79
37.09
16.33
0.16
-11.01
-16.97
-18.86
-19.83
-23.07
-30.34
-41.36
-54.12
-67.22
-79.58
-90.39
-99.5
-107.01
-113.15
-118.12
-122.13
-125.42
-128.24
-130.65
-132.32
-132.47
-130.13
-124.48
-115.32
-103.14
-89.02
-74.2
-59.77
-46.33
-34.06
-22.8
-12.38
-2.68
6.3
14.43
21.59
27.54
32.02
34.69
35.21
33.45
29.55
24.02
17.77
11.98
7.75
5.82
6.28
8.48
11.23
13.26
13.69
12.26
9.38
5.79
2.19
-1.04
-3.97
-6.85
-10.07
-13.89
-18.46
-23.81
-29.83
-36.22
-42.32
-47.14
-49.46
-48.29
-43.16
-34.39
-23.03
-10.47
2.06
13.77
24.54
34.68
44.6
54.46
64.05
72.87
80.28
85.77
89.05
90.15
89.36
87.11
83.9
80.22
76.5
73.1
70.24
67.93
65.99
64.05
61.73
58.76
55.14
51.09
46.97
43.05
39.45
36.07
32.73
29.25
25.62
21.91
18.25
14.74
11.33
7.86
4.06
-0.36
-5.6
-11.63
-18.06
-24.06
-28.53
-30.25
-28.33
-22.54
-13.48
-2.42
9.02
19.42
27.9
34.28
39.03
42.78
46.07
49.14
51.87
54.08
55.66
56.68
57.35
57.87
58.31
58.54
58.41
57.78
56.65
55.07
53.13
50.83
48.06
44.76
40.92
36.75
32.5
28.42
24.62
21.08
17.64
14.12
10.47
6.74
3.1
-0.29
-3.26
-5.81
-8.1
-10.44
-13.19
-16.65
-20.83
-25.35
-29.41
-31.91
-31.85
-28.6
-22.24
-13.53
-3.72
5.88
14.36
21.38
27.18
32.25
37.03
41.65
45.95
49.45
51.72
52.44
51.55
49.26
45.97
42.19
38.43
35.01
32.04
29.44
27.04
24.79
22.82
21.42
20.89
21.47
23.15
25.72
28.85
32.1
35.07
37.4
38.8
39.14
38.48
37.08
35.35
33.64
32.08
30.57
28.85
26.62
23.87
20.96
18.63
17.82
19.22
22.89
28.15
33.76
38.29
40.65
40.42
37.88
33.78
29.05
24.41
20.34
16.97
14.24
12
10.18
8.93
8.63
9.76
12.67
17.35
23.38
30.06
36.65
42.58
47.59
51.58
54.62
56.66
57.64
57.46
56.06
53.38
49.36
43.89
36.87
28.35
18.53
7.78
-3.38
-14.47
-25.09
-35.04
-44.25
-52.73
-60.43
-67.22
-72.89
-77.14
-79.56
-79.67
-77.05
-71.5
-63.22
-52.87
-41.51
-30.29
-20.18
-11.77
-5.25
-0.58
2.35
3.56
3.11
1.08
-2.28
-6.65
-11.74
-17.2
-22.71
-27.81
-32
-34.83
-36.14
-36.31
-36.26
-37.1
-39.64
-43.93
-49.05
-53.47
-55.65
-54.65
-50.57
-44.41
-37.59
-31.36
-26.37
-22.57
-19.45
-16.42
-13.16
-9.78
-6.71
-4.47
-3.48
-3.97
-5.94
-9.35
-14.2
-20.43
-27.79
-35.64
-42.91
-48.34
-50.78
-49.68
-45.3
-38.57
-30.84
-23.35
-16.91
-11.74
-7.67
-4.4
-1.71
0.42
1.91
2.72
3.01
3.08
3.32
4.02
5.25
6.85
8.45
9.69
10.35
10.48
10.35
10.36
10.84
11.86
13.25
14.68
15.9
16.81
17.46
17.86
17.96
17.59
16.66
15.31
13.9
12.84
12.35
12.27
12.08
11.18
9.15
5.92
1.78
-2.75
-7.11
-10.82
-13.57
-15.11
-15.36
-14.29
-12.05
-8.88
-5.17
-1.36
2.13
4.98
7.08
8.47
9.29
9.71
9.72
9.18
7.94
5.96
3.46
0.84
-1.47
-3.12
-4.02
-4.25
-3.95
-3.28
-2.3
-0.96
0.75
2.82
5.11
7.31
9.12
10.21
10.4
9.66
8.16
6.1
3.72
1.14
-1.65
-4.68
-7.99
-11.57
-15.39
-19.33
-23.23
-26.81
-29.71
-31.56
-32.08
-31.14
-28.92
-25.74
-22.03
-18.16
-14.34
-10.59
-6.93
-3.3
0.33
4.01
7.85
12.01
16.58
21.59
27
32.66
38.44
44.14
49.56
54.41
58.37
61.12
62.53
62.67
61.73
59.89
57.22
53.57
48.74
42.6
35.15
26.59
17.22
7.36
-2.63
-12.44
-21.72
-30.14
-37.47
-43.53
-48.27
-51.73
-54.04
-55.37
-55.91
-55.87
-55.27
-53.91
-51.42
-47.39
-41.65
-34.42
-26.26
-17.89
-9.95
-2.74
3.65
9.29
14.16
18.12
20.94
22.52
23
22.75
22.34
22.26
22.8
24.04
25.78
27.78
29.81
31.7
33.37
34.79
35.81
36.2
35.59
33.58
29.95
24.77
18.48
11.74
5.29
-0.33
-4.95
-8.7
-11.96
-15.1
-18.39
-21.96
-25.81
-29.84
-33.86
-37.58
-40.65
-42.8
-44.1
-44.95
-45.97
-47.68
-50.15
-52.92
-55.18
-56.18
-55.61
-53.68
-50.98
-48.08
-45.23
-42.29
-38.94
-34.94
-30.39
-25.65
-21.18
-17.27
-13.95
-10.96
-7.99
-4.84
-1.68
1.13
3.15
4.12
4.14
3.62
3.05
2.88
3.36
4.5
6.19
8.16
10.08
11.62
12.52
12.64
12.1
11.17
10.17
9.2
8.06
6.24
3.25
-1.04
-6.22
-11.39
-15.49
-17.68
-17.66
-15.66
-12.24
-7.99
-3.34
1.39
5.84
9.49
11.73
12.06
10.36
6.97
2.62
-1.78
-5.36
-7.47
-7.81
-6.4
-3.65
-0.31
2.82
5.06
6.12
6.16
5.69
5.29
5.35
5.89
6.59
7.02
6.88
6.13
4.98
3.71
2.5
1.43
0.54
-0.12
-0.39
-0.09
0.87
2.39
4.16
5.85
7.18
8
8.2
7.58
5.84
2.67
-1.94
-7.57
-13.44
-18.63
-22.44
-24.67
-25.57
-25.57
-24.93
-23.55
-21.01
-16.92
-11.29
-4.7
1.79
6.88
9.48
8.97
5.36
-0.73
-8.21
-15.85
-22.41
-26.87
-28.54
-27.17
-22.95
-16.56
-9.09
-1.84
3.94
7.44
8.4
7.21
4.66
1.7
-0.93
-2.91
-4.31
-5.46
-6.58
-7.5
-7.51
-5.61
-0.87
7.07
17.96
30.99
44.98
58.6
70.31
78.37
81.11
77.44
67.4
52.5
35.49
19.37
6.43
-2.5
-8.17
-12.21
-16.4
-21.85
-28.84
-36.93
-45.4
-53.47
-60.59
-66.43
-70.72
-73.3
-74.12
-73.24
-70.62
-66.34
-60.26
-52.34
-42.71
-31.83
-20.28
-8.29
4.53
19.07
35.74
53.87
71.36
85.34
93.68
95.99
94.02
90.63
88.27
87.76
88.19
87.95
86.09
83.27
81.05
81.08
83.66
87.51
90.28
89.88
85.77
79.38
73.74
71.8
74.89
81.58
88.04
89.34
81.64
63.95
38.51
9.68
-18.2
-42.39
-62.25
-78.23
-90.4
-97.69
-98.35
-91.49
-78.41
-62.67
-48.45
-38.58
-33.34
-30.7
-28.17
-24.68
-21.61
-21.84
-27.97
-40.55
-57.53
-75.07
-88.99
-96.42
-96.61
-90.96
-82.12
-72.67
-64.17
-56.89
-50.13
-43.1
-35.79
-29.19
-24.81
-23.64
-25.53
-29.1
-32.53
-34.36
-34.13
-32.52
-30.74
-29.89
-30.31
-31.44
-32.32
-32.1
-30.59
-28.23
-25.91
-24.48
-24.3
-25.16
-26.45
-27.63
-28.48
-29.26
-30.46
-32.48
-35.4
-38.73
-41.75
-43.89
-45.06
-45.76
-46.85
-49.08
-52.73
-57.4
-62.15
-65.93
-67.92
-67.69
-65.18
-60.62
-54.39
-46.9
-38.51
-29.43
-19.68
-8.98
3.26
17.56
33.84
50.98
66.89
79.25
86.42
88.26
86.3
82.96
80.34
79.24
79.07
78.54
76.77
73.97
71.31
70.14
71.02
73.39
75.91
77.16
76.35
73.61
69.76
65.84
62.5
59.85
57.42
54.38
49.83
43.15
34.21
23.48
11.91
0.7
-9.1
-16.83
-22.3
-25.71
-27.27
-27
-24.69
-20.04
-12.98
-3.83
6.52
16.85
25.76
32.14
35.45
35.9
34.35
31.95
29.71
28.1
26.94
25.69
23.92
21.49
18.83
16.57
15.24
14.94
15.34
15.88
16
15.5
14.54
13.64
13.3
13.78
14.87
16
16.54
16.07
14.66
12.71
10.81
9.37
8.58
8.34
8.52
9.01
9.81
10.93
12.31
13.91
15.69
17.64
19.79
22.13
24.61
27.15
29.79
32.77
36.58
41.7
48.31
55.91
63.18
68.32
69.47
65.46
56.19
42.84
27.45
12.33
-0.51
-9.87
-15.45
-17.74
-17.65
-16.17
-14.05
-11.52
-8.4
-4.15
1.78
9.66
19.15
29.2
38.12
44.02
45.34
41.43
32.79
20.97
8.03
-4.21
-14.81
-23.93
-32.64
-42.35
-54.07
-67.74
-81.92
-93.94
-100.65
-99.52
-89.57
-71.67
-48.37
-23.12
0.62
20.14
33.69
40.36
39.69
31.73
17.31
-1.81
-23.08
-43.76
-61.55
-75.19
-84.47
-90.26
-93.71
-95.53
-95.81
-94.21
-90.42
-84.45
-76.76
-68.1
-60.22
-54.53
-51.29
-49.44
-47.35
-43.74
-38.07
-30.51
-21.7
-14.19
-10.24
-10.19
-12.24
-13.73
-12.72
-8.42
-1.05
8.64
16.78
19.81
16.75
9.54
0.91
-7.53
-15.53
-23.42
-31.49
-43.65
-63.81
-93.33
-130.43
-172.17
-216.15
-260.35
-302.48
-316.36
-284.16
-207.99
-109.85
-14.32
64.97
125.5
170.19
203.1
225.84
238.11
238.3
227.31
209.53
190.19
172.49
156.98
142.22
128.88
114.44
96.94
77.51
60.27
49.83
48.77
57.12
72.8
92.7
111.43
124.13
128.71
126.24
119.45
111
102.72
95.53
89.81
84.63
79.01
72.94
67.25
62.95
60.45
59.66
60.24
62
64.45
67.17
70.06
73.28
77.03
81.38
86.28
91.55
96.88
101.65
104.98
105.98
103.89
98.49
90.17
79.91
68.93
58.31
48.58
39.64
30.97
21.94
12.09
1.27
-10.51
-23.26
-37.05
-52.01
-68.1
-85.06
-102.36
-119.54
-136.46
-153.58
-171.72
-191.52
-212.97
-235.06
-256.13
-274.52
-289.32
-300.81
-310.32
-319.67
-330.54
-344.1
-360.98
-381.3
-404.4
-428.4
-449.66
-462.94
-462.53
-443.88
-405.28
-348.77
-279.86
-206.1
-134.86
-71.59
-19.03
22.26
53.3
75.97
92.7
106.15
118.74
131.89
145.45
157.44
164.48
163.53
153.79
137.49
118.93
102.65
91.46
85.58
82.95
80.03
74.49
66.89
60.76
60.55
69.54
88.7
116.85
150.71
184.16
210.63
225.02
224.99
210.43
182.68
144.59
100.67
55.84
12.41
-28.09
-63.16
-88.73
-101
-98.14
-80.51
-49.63
-9.63
29.88
57.13
62.63
42.46
-2
-65.64
-140.38
-216.15
-262.88
-256.29
-195.35
-104.19
-10.91
68.61
129.82
170.6
197.35
212.95
215.53
203.49
178.72
146.9
114.97
86.39
60.68
35.09
5.08
-34.6
-85.47
-142.31
-193.74
-227.31
-235.56
-218.45
-182.19
-137.23
-94.78
-62.26
-40.89
-26.47
-12.9
4.36
27.41
56.34
89.25
122.56
152.3
175.56
191.43
200.71
204.77
204.71
200.89
192.7
179.36
161.07
139.68
118.28
99.86
85.98
76.35
69.27
62.38
53.58
41.47
25.4
5.42
-17.82
-43.04
-68.45
-91.85
-110.85
-123.41
-128.61
-127.36
-122.86
-119.93
-123.36
-135.67
-155.04
-175.02
-186.3
-180.31
-152.89
-106.44
-49.18
7.79
54.28
83.78
94.16
86.47
63.42
28.55
-13.67
-57.38
-95.7
-122.32
-133.67
-130.22
-116.15
-97.35
-78.72
-62.44
-47.92
-33.25
-17.09
0.17
16.59
29.65
37.64
40.18
38
32.39
24.69
15.97
7.04
-1.57
-9.57
-16.79
-23.14
-28.54
-32.76
-35.48
-36.27
-34.76
-30.74
-24.23
-15.47
-5.06
6.05
16.67
25.44
31.24
33.48
32.3
28.49
23.08
16.79
9.71
1.48
-8.25
-19.19
-30.27
-39.83
-46.32
-48.62
-46.28
-39.46
-28.71
-14.84
1.05
17.47
32.72
45.28
54.14
59.08
60.54
59.17
55.37
49.28
40.95
30.69
19.43
8.77
0.74
-2.7
-0.11
8.89
23.38
41.36
60.15
77.02
89.63
96.35
96.46
90.3
79.26
65.55
51.91
40.94
34.4
32.85
35.74
41.59
48.72
55.74
61.84
66.76
70.56
73.3
74.82
74.55
71.73
65.74
56.41
44.28
30.52
16.63
4.08
-5.95
-12.9
-16.82
-18.21
-17.98
-17.35
-17.59
-19.61
-23.69
-29.39
-35.78
-41.85
-46.92
-50.97
-54.55
-58.39
-62.94
-67.9
-72.23
-74.41
-72.96
-67.08
-56.99
-43.89
-29.57
-15.83
-3.92
5.69
13.35
19.73
25.48
30.86
35.97
40.91
45.91
51.28
57.22
63.52
69.42
73.79
75.59
74.36
70.44
64.73
58.22
51.39
44.12
35.89
26.27
15.43
4.28
-5.72
-13.06
-16.72
-16.57
-13.39
-8.59
-3.62
0.46
3.25
4.93
5.99
6.97
8.19
9.68
11.18
12.24
12.38
11.31
9.04
5.96
2.86
0.63
0.1
1.66
5.14
9.84
14.81
19.04
21.84
22.93
22.41
20.68
18.22
15.48
12.75
10.16
7.57
4.8
1.55
-2.38
-7.05
-12.23
-17.41
-21.83
-24.63
-25.07
-22.7
-17.46
-9.73
-0.24
10.16
20.54
30.11
38.29
44.65
48.93
51.09
51.15
49.32
45.97
41.61
36.88
32.39
28.56
25.53
23.21
21.35
19.73
18.16
16.66
15.28
14.13
13.27
12.67
12.17
11.62
10.89
9.92
8.73
7.35
5.75
3.74
1.11
-2.4
-6.88
-12.24
-18.21
-24.43
-30.51
-36.14
-41.03
-44.93
-47.58
-48.78
-48.4
-46.43
-42.93
-38
-31.61
-23.6
-13.76
-2.03
11.26
25.42
39.41
52.12
62.57
70.12
74.46
75.49
73.31
68.14
60.4
50.63
39.62
28.18
17.16
7.27
-1.02
-7.56
-12.5
-16.15
-19.03
-21.56
-24.07
-26.72
-29.46
-32.11
-34.3
-35.6
-35.63
-34.29
-31.86
-28.91
-26.11
-23.87
-22.18
-20.56
-18.32
-14.92
-10.3
-4.96
0.3
4.7
7.91
10.11
11.93
14.1
16.91
20.14
22.99
24.42
23.71
20.69
15.83
9.99
4.03
-1.5
-6.5
-11.14
-15.58
-19.73
-23.18
-25.36
-25.77
-24.24
-20.93
-16.21
-10.51
-4.15
2.73
10.05
17.65
25.16
31.96
37.26
40.37
40.84
38.58
33.93
27.48
20.03
12.35
5.12
-1.28
-6.73
-11.47
-15.9
-20.47
-25.46
-30.82
-36.1
-40.67
-43.94
-45.65
-45.86
-44.78
-42.49
-38.82
-33.39
-25.96
-16.6
-5.95
5.08
15.38
24.06
30.59
34.91
37.39
38.63
39.28
39.73
40.02
39.72
38.18
34.85
29.59
22.83
15.33
7.89
1.01
-5.15
-10.76
-16.07
-21.18
-26.06
-30.56
-34.57
-38.03
-40.87
-43.03
-44.33
-44.58
-43.59
-41.33
-37.83
-33.29
-27.96
-22.2
-16.44
-11.17
-6.87
-3.79
-1.92
-0.9
-0.1
1.18
3.48
6.97
11.45
16.33
20.87
24.43
26.67
27.62
27.57
26.96
26.12
25.21
24.22
23.03
21.53
19.63
17.27
14.4
11.06
7.41
3.8
0.81
-0.99
-1.28
-0.21
1.61
3.31
4.21
4.05
3.16
2.14
1.62
1.88
2.73
3.74
4.39
4.32
3.46
1.94
0.03
-1.86
-3.39
-4.28
-4.34
-3.62
-2.28
-0.62
1.02
2.44
3.74
5.37
7.98
12.32
18.82
27.37
37.29
47.36
56.21
62.77
66.49
67.32
65.52
61.33
54.7
45.38
33.18
18.36
1.91
-14.5
-28.97
-40.04
-47.16
-50.77
-51.85
-51.23
-49.12
-45.21
-39.09
-30.89
-21.69
-13.21
-7.15
-4.44
-4.98
-8.01
-12.69
-18.6
-25.91
-35.11
-46.64
-60.62
-76.63
-93.75
-110.53
-125.1
-135.31
-139.25
-135.76
-124.69
-106.96
-84.19
-58.25
-30.96
-3.99
21.19
43.13
60.51
72.51
78.98
80.62
78.78
75.03
70.65
66.28
61.85
56.75
50.27
41.94
31.8
20.38
8.53
-2.81
-12.75
-20.61
-25.85
-28.12
-27.53
-24.61
-20.34
-15.75
-11.7
-8.61
-6.49
-5.17
-4.48
-4.37
-4.79
-5.63
-6.68
-7.77
-8.87
-10.16
-11.89
-14.19
-16.99
-19.84
-22.11
-23.13
-22.47
-20.15
-16.52
-12.24
-7.97
-4.16
-0.98
1.65
3.91
5.89
7.58
8.92
9.87
10.53
11.03
11.55
12.08
12.41
12.25
11.41
9.96
8.28
6.91
6.3
6.59
7.6
8.93
10.14
11
11.52
11.84
12.05
12.21
12.23
12.03
11.56
10.87
9.97
8.92
7.69
6.25
4.58
2.7
0.68
-1.33
-3.17
-4.68
-5.71
-6.21
-6.3
-6.27
-6.47
-7.13
-8.2
-9.39
-10.3
-10.53
-9.86
-8.25
-5.78
-2.57
1.28
5.6
10.05
14.12
17.4
19.55
20.61
20.8
20.33
19.23
17.17
13.56
7.99
0.53
-8.08
-16.47
-23.14
-26.86
-27.18
-24.43
-19.56
-13.61
-7.33
-1.08
5.15
11.33
17.22
22.21
25.56
26.58
24.83
20.2
13.05
4.24
-5.03
-13.42
-19.92
-24.15
-26.45
-27.63
-28.61
-29.99
-31.91
-34.04
-35.85
-36.54
-35.31
-31.48
-24.61
-14.83
-2.87
9.94
22.05
32.03
38.99
42.61
43.09
40.98
36.9
31.63
25.91
20.33
15.29
10.94
7.18
3.84
0.75
-2.11
-4.48
-5.81
-5.48
-2.85
2.42
10.3
20.24
31.29
42.29
52.12
59.92
65.21
67.88
68.17
66.48
63.2
58.5
52.2
43.94
33.39
20.56
6.09
-8.8
-22.61
-33.84
-41.62
-45.86
-47.2
-46.75
-45.73
-45.12
-45.36
-46.31
-47.42
-48.22
-48.65
-49.18
-50.73
-54.12
-59.6
-66.45
-73.06
-77.34
-77.48
-72.57
-62.63
-48.58
-31.82
-13.85
3.86
19.86
32.89
41.85
46.13
45.78
41.48
34.53
26.5
18.7
11.96
6.5
2.14
-1.43
-4.52
-7.27
-9.72
-11.88
-13.82
-15.67
-17.54
-19.51
-21.64
-23.99
-26.55
-29.24
-31.83
-34.01
-35.55
-36.5
-37.31
-38.76
-41.64
-46.33
-52.61
-59.59
-66.08
-70.94
-73.48
-73.56
-71.57
-68.24
-64.37
-60.82
-58.34
-57.42
-58.09
-59.89
-61.79
-62.54
-60.9
-56.2
-48.49
-38.51
-27.34
-15.99
-5.08
5.14
14.67
23.52
31.58
38.68
44.66
49.48
53.01
55.1
55.46
53.78
50.04
44.6
38.19
31.7
25.79
20.71
16.31
12.2
8.09
3.94
0.02
-3.21
-5.38
-6.45
-6.76
-6.98
-7.83
-9.8
-12.91
-16.71
-20.34
-22.9
-23.68
-22.42
-19.28
-14.8
-9.59
-4.17
1.07
5.83
9.84
12.87
14.73
15.49
15.53
15.42
15.82
17.1
19.09
21.13
22.26
21.7
19.15
15.02
10.11
5.38
1.61
-0.8
-1.77
-1.43
0.09
2.73
6.63
11.96
18.93
27.54
37.4
47.59
56.8
63.49
66.22
64.18
57.51
47.52
36.41
26.77
20.87
19.9
23.56
30.29
38.11
45.42
51.6
56.93
62.01
67.08
71.58
74.35
74.13
70.22
62.56
51.7
38.32
23.18
7.19
-8.38
-21.88
-31.61
-36.41
-36.19
-31.93
-25.39
-18.48
-12.66
-8.7
-6.73
-6.55
-7.83
-10.26
-13.37
-16.61
-19.26
-20.68
-20.47
-18.56
-15.35
-11.33
-6.91
-2.19
2.94
8.45
13.97
18.71
21.71
22.24
20.03
15.33
8.88
1.49
-6.06
-13.19
-19.54
-24.78
-28.59
-30.64
-30.67
-28.44
-23.87
-17.26
-9.46
-1.87
3.94
6.71
5.95
2.23
-3.09
-8.5
-12.87
-15.78
-17.33
-17.87
-17.66
-16.82
-15.54
-14.3
-14.01
-15.7
-20.05
-26.89
-34.93
-42.09
-46.23
-45.93
-41.02
-32.6
-22.41
-12.07
-2.64
5.54
12.48
18.14
22.17
24.03
23.25
19.76
13.92
6.48
-1.66
-9.69
-17.04
-23.51
-29.23
-34.44
-39.24
-43.44
-46.43
-47.44
-45.75
-40.98
-33.38
-23.68
-12.86
-1.8
8.85
18.72
27.51
34.87
40.38
43.79
45.21
45.15
44.55
44.32
44.98
46.45
48.09
49.17
49.23
48.25
46.5
44.3
41.79
38.98
35.87
32.67
29.77
27.56
26.04
24.87
23.67
22.52
22.14
23.62
27.72
34.25
41.84
48.39
51.98
51.67
47.9
42.08
35.86
30.21
25.09
19.66
12.9
4.29
-5.97
-17.05
-27.83
-37.14
-44.11
-48.21
-49.19
-47.08
-42.2
-35.14
-26.88
-18.51
-11.03
-5.13
-1.07
1.32
2.48
2.97
3.37
4.18
5.79
8.48
12.33
17.23
22.8
28.5
33.75
38.16
41.7
44.63
47.26
49.68
51.62
52.54
51.85
49.23
44.8
38.97
32.18
24.71
16.55
7.6
-2.03
-11.78
-20.8
-28.23
-33.63
-37.18
-39.56
-41.66
-44.25
-47.74
-52.15
-57.37
-63.32
-69.95
-77.14
-84.36
-90.62
-94.67
-95.42
-92.29
-85.44
-75.54
-63.64
-50.74
-37.67
-25.08
-13.38
-2.96
5.94
13.14
18.57
22.35
24.7
26.17
27.57
29.87
34.03
40.54
49.43
60.21
72.12
84.24
95.61
105.05
111.24
112.82
108.78
98.99
84.5
67.24
49.32
32.33
16.89
2.72
-10.88
-24.46
-38.01
-51.12
-63.3
-74.29
-84.06
-92.81
-100.79
-108.22
-115.23
-121.77
-127.49
-131.69
-133.35
-131.32
-124.65
-112.81
-95.88
-74.58
-50.16
-24.25
1.48
25.6
47.13
65.55
80.8
93.05
102.46
109.06
112.76
113.57
111.63
107.21
100.62
92.19
82.32
71.41
59.84
47.94
36.01
24.5
14.09
5.69
0.11
-2.39
-2.43
-1.34
-0.62
-1.31
-3.61
-6.95
-10.61
-14.2
-17.81
-21.81
-26.35
-30.99
-34.79
-36.79
-36.5
-34.28
-31.14
-28.32
-26.71
-26.44
-27.06
-27.91
-28.74
-29.82
-31.66
-34.42
-37.45
-39.42
-38.88
-35.02
-28.03
-19.14
-9.93
-1.66
5.18
10.64
14.97
18.25
20.26
20.62
19.18
16.18
12.21
8.05
4.34
1.44
-0.5
-1.45
-1.42
-0.47
1.2
3.28
5.39
7.29
8.99
10.59
12.11
13.38
14.01
13.48
11.49
8.1
3.88
-0.28
-3.53
-5.45
-6.16
-6.28
-6.67
-7.99
-10.5
-13.95
-17.57
-20.42
-21.78
-21.47
-19.95
-18.12
-17.02
-17.38
-19.41
-22.58
-25.83
-27.91
-27.86
-25.43
-21.09
-15.81
-10.58
-6.06
-2.29
1.09
4.58
8.41
12.39
16.04
18.96
21.06
22.6
23.96
25.37
26.7
27.59
27.63
26.68
24.96
22.98
21.27
20.12
19.49
19.07
18.41
17.18
15.27
12.79
10.18
7.96
6.61
6.36
7.09
8.41
9.8
10.79
11.06
10.54
9.34
7.69
5.76
3.6
1.19
-1.55
-4.7
-8.29
-12.2
-16.19
-19.98
-23.24
-25.61
-26.75
-26.27
-23.86
-19.46
-13.52
-7.07
-1.43
2.18
3
1
-3.23
-8.82
-15.11
-21.69
-28.44
-35.09
-40.99
-45.11
-46.22
-43.3
-35.94
-24.65
-10.81
3.73
17.15
28.19
36.3
41.49
44.07
44.16
41.68
36.49
28.78
19.27
9.17
-0.12
-7.51
-12.56
-15.49
-16.93
-17.39
-17.11
-15.99
-13.91
-11.1
-8.22
-6.24
-6.02
-7.91
-11.63
-16.46
-21.42
-25.56
-28.15
-28.8
-27.5
-24.63
-20.81
-16.79
-13.38
-11.13
-10.23
-10.38
-10.99
-11.42
-11.33
-10.76
-10.26
-10.62
-12.57
-16.45
-21.94
-28.14
-33.71
-37.35
-38.28
-36.43
-32.37
-27.01
-21.22
-15.55
-10.06
-4.47
1.7
8.9
17.4
27.26
38.25
49.78
61.08
71.34
79.89
86.12
89.54
89.65
85.98
78.21
66.34
50.93
33
13.78
-5.59
-24.25
-41.71
-57.57
-71.2
-81.47
-86.87
-86.08
-78.55
-64.91
-46.92
-26.93
-7.32
9.95
23.54
32.79
37.47
37.81
34.54
28.77
21.81
14.86
8.82
4.07
0.65
-1.59
-2.73
-2.71
-1.46
1.08
4.73
9.08
13.51
17.36
20.01
21.19
21.08
20.27
19.57
19.57
20.41
21.57
22.34
22.2
21.17
19.7
18.27
16.95
15.33
12.64
8.11
1.36
-7.55
-18.07
-29.5
-41.04
-51.83
-60.78
-66.79
-68.99
-67.18
-62.01
-54.64
-46.44
-38.52
-31.43
-25.33
-20.19
-16.11
-13.2
-11.48
-10.68
-10.3
-9.96
-9.65
-9.86
-11.41
-15.08
-21.14
-29.2
-38.23
-46.74
-53.03
-55.65
-53.71
-47.08
-36.41
-22.96
-8.37
5.64
17.52
26.11
30.81
31.64
29.19
24.4
18.34
11.88
5.58
-0.3
-5.7
-10.52
-14.59
-17.6
-19.25
-19.28
-17.58
-14.14
-9.02
-2.27
6.02
15.65
26.13
36.67
46.28
53.96
59.03
61.28
61.03
58.97
55.91
52.56
49.39
46.63
44.34
42.49
41.01
39.84
38.86
37.87
36.59
34.66
31.8
28.03
23.71
19.37
15.49
12.3
9.57
6.75
3.19
-1.53
-7.29
-13.4
-18.93
-23.03
-25.29
-25.93
-25.65
-25.27
-25.36
-25.97
-26.66
-26.76
-25.69
-23.13
-18.96
-13.25
-6.11
2.2
11.16
19.88
27.34
32.66
35.33
35.55
34.15
32.34
31.14
31.08
32.05
33.54
34.95
35.76
35.78
35.09
33.93
32.52
30.99
29.35
27.53
25.51
23.33
21.16
19.1
17.07
14.82
11.98
8.37
4.1
-0.41
-4.7
-8.38
-11.42
-14.02
-16.45
-18.96
-21.51
-24.02
-26.4
-28.73
-31.1
-33.55
-35.84
-37.35
-37.31
-34.99
-30.06
-22.83
-14.13
-5.12
3.14
9.95
15.14
18.93
21.76
24.02
25.91
27.43
28.47
28.94
28.89
28.56
28.2
28.08
28.27
28.68
29.09
29.24
29.01
28.45
27.79
27.2
26.75
26.27
25.5
24.17
22.23
19.85
17.33
14.89
12.53
10.01
6.94
3.1
-1.44
-6.28
-10.94
-15.09
-18.76
-22.35
-26.38
-31.28
-37.02
-43.04
-48.35
-51.73
-51.94
-48.03
-39.5
-26.53
-10.08
8.14
25.92
41.13
52.25
58.8
61.4
61.35
60.01
58.23
56.14
53.29
49.12
43.36
36.27
28.58
21.11
14.52
9.1
4.78
1.43
-1.01
-2.38
-2.42
-0.96
1.91
5.65
9.47
12.56
14.48
15.32
15.64
16.14
17.21
18.67
19.73
19.39
16.69
11.08
2.49
-8.84
-22.41
-37.48
-52.84
-66.94
-78.27
-86.03
-90.6
-93.43
-96.26
-100.05
-104.17
-106.49
-104.24
-95.31
-79.28
-57.52
-32.69
-7.68
15.15
34.33
49.07
59.13
64.56
65.71
63.3
58.33
51.84
44.84
37.93
31.32
24.98
18.85
13.06
7.87
3.59
0.15
-2.97
-6.77
-12.37
-20.45
-30.9
-42.61
-53.85
-62.85
-68.35
-69.97
-68.1
-63.66
-57.65
-50.96
-44.18
-37.65
-31.4
-25.08
-18.01
-9.48
0.96
13.02
25.5
36.54
44.35
47.78
46.74
42.13
35.39
28.06
21.33
15.94
12.18
9.99
9.09
9.1
9.62
10.33
11.02
11.59
11.96
12.05
11.8
11.24
10.5
9.79
9.28
8.99
8.61
7.66
5.75
2.74
-1.08
-5.2
-9.05
-12.36
-15.22
-18.16
-21.77
-26.47
-32.4
-39.42
-47.27
-55.67
-64.12
-71.75
-77.26
-79.22
-76.51
-68.79
-56.74
-41.78
-25.77
-10.33
3.41
14.88
24.01
30.92
35.84
39.06
41
42.03
42.47
42.62
42.76
43.12
43.82
44.83
45.89
46.64
46.6
45.42
42.89
38.95
33.72
27.4
20.37
13.19
6.55
1.12
-2.62
-4.43
-4.38
-2.66
0.5
4.77
9.68
14.69
19.26
23.06
26.03
28.3
30.05
31.27
31.63
30.62
27.76
22.9
16.22
8.26
-0.4
-9.16
-17.48
-24.88
-30.84
-34.88
-36.66
-36.2
-33.98
-30.88
-27.85
-25.54
-24.14
-23.37
-22.71
-21.74
-20.37
-18.93
-18.07
-18.51
-20.59
-24.1
-28.28
-32.05
-34.3
-34.27
-31.92
-27.87
-23.3
-19.53
-17.68
-18.48
-22.21
-28.65
-37.14
-46.5
-55.08
-61.02
-62.65
-58.97
-49.98
-36.72
-21.05
-5.11
9.25
20.89
29.29
34.3
36.01
34.64
30.68
24.93
18.45
12.35
7.38
3.68
0.74
-2.12
-5.44
-9.3
-13.36
-17.03
-19.74
-21.19
-21.31
-20.29
-18.46
-16.1
-13.54
-11.06
-8.94
-7.46
-6.77
-6.71
-6.69
-5.91
-3.7
0.1
4.95
9.73
13.23
14.68
14.09
12.22
10.05
8.27
7.06
6.13
5.09
3.76
2.15
0.39
-1.56
-3.95
-7.16
-11.41
-16.55
-22.09
-27.39
-31.82
-34.96
-36.56
-36.54
-34.87
-31.73
-27.4
-22.24
-16.63
-10.82
-4.97
0.82
6.33
11.23
15.08
17.54
18.58
18.57
18.11
17.82
18
18.59
19.33
19.92
20.23
20.27
20.12
19.72
18.91
17.53
15.54
13.15
10.7
8.51
6.77
5.44
4.35
3.3
2.19
1.09
0.22
-0.2
-0
0.85
2.24
3.85
5.3
6.15
6.08
4.91
2.59
-0.68
-4.54
-8.43
-11.68
-13.61
-13.68
-11.74
-8.05
-3.22
1.94
6.73
10.66
13.52
15.39
16.52
17.21
17.72
18.26
18.81
19.24
19.28
18.72
17.51
15.81
13.9
12.1
10.61
9.49
8.75
8.37
8.37
8.75
9.45
10.28
11.04
11.56
11.73
11.57
11.08
10.28
9.1
7.42
5.11
2.19
-1.25
-4.91
-8.42
-11.49
-14
-16.13
-18.27
-20.85
-24.14
-28.04
-31.96
-34.94
-36.01
-34.46
-30.08
-23.33
-15.08
-6.45
1.57
8.29
13.45
17.08
19.44
20.85
21.61
22
22.15
22.14
21.99
21.72
21.39
21.09
20.86
20.75
20.68
20.56
20.24
19.61
18.59
17.13
15.22
12.82
9.98
6.82
3.56
0.44
-2.32
-4.59
-6.37
-7.73
-8.77
-9.66
-10.54
-11.55
-12.77
-14.3
-16.2
-18.53
-21.29
-24.35
-27.4
-29.89
-31.15
-30.51
-27.59
-22.45
-15.63
-7.99
-0.45
6.21
11.51
15.31
17.72
19.04
19.56
19.58
19.33
18.99
18.69
18.52
18.59
18.93
19.54
20.28
21.01
21.56
21.82
21.73
21.28
20.47
19.24
17.57
15.5
13.14
10.68
8.32
6.16
4.2
2.39
0.6
-1.22
-3.12
-5.03
-6.88
-8.61
-10.15
-11.56
-13
-14.77
-17.19
-20.39
-24.26
-28.23
-31.5
-33.21
-32.79
-30.15
-25.76
-20.41
-14.94
-10.01
-5.93
-2.78
-0.46
1.15
2.18
2.73
3.04
3.34
3.89
4.86
6.23
7.86
9.49
10.9
11.94
12.64
13.09
13.41
13.66
13.77
13.61
13.04
11.99
10.53
8.79
6.95
5.13
3.42
1.85
0.32
-1.31
-3.24
-5.62
-8.43
-11.47
-14.43
-16.99
-19.02
-20.6
-22.01
-23.59
-25.54
-27.89
-30.41
-32.63
-33.92
-33.69
-31.45
-27.05
-20.86
-13.58
-6.22
0.33
5.52
9.22
11.65
13.22
14.35
15.29
16.17
17.02
17.84
18.58
19.2
19.68
19.95
20.08
20.14
20.26
20.51
20.87
21.22
21.33
20.98
20.02
18.41
16.26
13.77
11.17
8.63
6.29
4.16
2.18
0.19
-1.93
-4.26
-6.72
-9.08
-11.06
-12.42
-13.12
-13.39
-13.69
-14.54
-16.36
-19.24
-22.82
-26.37
-28.91
-29.56
-27.76
-23.5
-17.31
-10.13
-3
3.21
7.99
11.24
13.14
13.98
14.08
13.71
13.09
12.43
11.94
11.86
12.29
13.28
14.79
16.72
18.87
21.03
22.93
24.31
25
24.94
24.18
22.83
21.05
18.93
16.57
14.04
11.37
8.63
5.85
3.04
0.26
-2.37
-4.68
-6.51
-7.77
-8.55
-9.1
-9.77
-10.88
-12.66
-15.21
-18.4
-21.85
-24.96
-26.96
-27.16
-25.09
-20.84
-14.92
-8.26
-1.8
3.71
7.92
10.8
12.57
13.49
13.75
13.5
12.88
12.1
11.4
11.02
11.08
11.59
12.35
13.12
13.66
13.87
13.8
13.6
13.43
13.36
13.3
13.05
12.41
11.24
9.51
7.42
5.3
3.47
2.19
1.5
1.2
0.94
0.35
-0.81
-2.58
-4.75
-7.04
-9.17
-11.08
-12.9
-14.95
-17.58
-21.04
-25.28
-29.88
-34.09
-36.95
-37.58
-35.45
-30.63
-23.78
-15.96
-8.34
-1.85
3.01
6.18
8.01
9
9.68
10.44
11.5
12.89
14.42
15.86
17.04
17.87
18.4
18.75
19.01
19.3
19.69
20.27
21.08
22.06
22.98
23.45
23.09
21.68
19.3
16.27
13.04
9.85
6.72
3.35
-0.57
-5.17
-10.28
-15.41
-19.84
-22.84
-23.9
-22.8
-19.68
-14.93
-9.04
-2.53
4.17
10.76
17.08
23.25
29.57
36.49
44.29
52.87
61.46
68.88
73.95
76.07
75.58
73.46
70.67
67.51
63.48
57.58
49
37.64
24.24
10.03
-3.75
-16.14
-26.51
-34.52
-40.07
-43.53
-45.71
-47.64
-50.01
-52.78
-55.24
-56.42
-55.69
-53.09
-49.2
-44.68
-39.72
-34.14
-27.76
-20.85
-14.34
-9.48
-7.28
-7.8
-10.14
-12.86
-14.68
-14.89
-13.53
-11.15
-8.45
-6.15
-4.87
-5.06
-6.94
-10.51
-15.32
-20.54
-25.13
-28.14
-29.06
-27.86
-24.91
-20.84
-16.36
-12.12
-8.59
-6.03
-4.41
-3.32
-2.15
-0.22
2.9
7.37
13.03
19.58
26.67
34.04
41.43
48.52
54.81
59.63
62.34
62.49
59.85
54.2
45.33
33.07
17.48
-0.86
-20.6
-39.68
-55.78
-67.19
-73.39
-75.1
-73.68
-70.5
-66.43
-61.81
-56.71
-51.23
-45.7
-40.53
-35.97
-32.1
-29.06
-27.25
-27.39
-29.97
-34.8
-40.75
-45.91
-48.33
-46.74
-41.07
-32.27
-22.01
-12.05
-3.69
2.47
6.55
8.98
10.37
11.2
11.82
12.51
13.4
14.51
15.83
17.38
19.16
21.17
23.27
25.29
27.01
28.27
29.05
29.41
29.44
29.15
28.46
27.29
25.68
23.8
21.91
20.23
18.79
17.38
15.62
13.08
9.53
5.09
0.27
-4.26
-7.86
-10.14
-11.28
-11.88
-12.85
-14.99
-18.76
-24.15
-30.73
-37.79
-44.49
-49.97
-53.56
-54.75
-53.27
-49.05
-42.37
-33.8
-24.17
-14.43
-5.38
2.39
8.53
12.99
15.92
17.64
18.48
18.69
18.34
17.4
15.9
14.02
12.07
10.36
9.11
8.44
8.37
8.85
9.89
11.56
13.83
16.44
18.81
20.16
19.71
17.1
12.63
7.28
2.32
-1.11
-2.56
-2.38
-1.45
-0.79
-1.14
-2.68
-5.18
-8.21
-11.48
-14.96
-18.9
-23.65
-29.56
-36.79
-45.18
-54.21
-63.07
-70.74
-76.08
-78.16
-76.38
-70.61
-61.25
-49.23
-35.76
-22.15
-9.54
1.34
10.36
17.8
24.2
29.93
34.95
38.78
40.83
40.76
38.82
35.76
32.43
29.46
26.96
24.67
22.22
19.35
16.1
12.59
8.86
4.76
0.1
-5.2
-10.77
-15.79
-19.25
-20.37
-18.97
-15.58
-11.2
-6.79
-2.92
0.4
3.51
6.68
9.8
12.34
13.51
12.67
9.69
4.92
-0.83
-6.57
-11.32
-14.33
-15.25
-14.11
-11.25
-7.04
-1.71
4.83
12.75
22.14
32.65
43.41
53.14
60.45
64.24
63.96
59.89
52.97
44.56
35.96
28.1
21.43
16.12
12.38
10.6
11.28
14.5
19.72
25.68
30.79
33.84
34.6
33.87
33.06
33.58
36.26
41.25
48.25
56.84
66.82
78.15
90.76
104.24
117.67
129.63
138.49
142.86
141.87
135.47
124.36
109.8
93.16
75.78
58.73
42.95
29.25
18.14
9.6
2.87
-3.4
-10.62
-19.61
-30.13
-40.93
-50.29
-56.79
-59.89
-60.03
-58.27
-55.85
-53.81
-52.76
-52.97
-54.38
-56.66
-59.44
-62.41
-65.48
-68.7
-71.93
-74.62
-75.74
-74.21
-69.7
-63.21
-57.05
-53.87
-55.46
-61.79
-71.1
-80.66
-88.07
-92.11
-92.85
-91.22
-88.13
-84.2
-79.7
-74.96
-70.57
-67.23
-65.42
-65.04
-65.54
-66.09
-65.95
-64.68
-62.08
-58.03
-52.36
-44.82
-35.3
-23.96
-11.39
1.47
13.58
24.09
32.4
38.13
41.03
40.87
37.57
31.36
22.81
12.86
2.54
-7.17
-15.52
-22.02
-26.53
-29.27
-30.92
-32.5
-34.99
-38.86
-43.72
-48.35
-51.06
-50.52
-46.25
-38.92
-30.04
-21.39
-14.52
-10.39
-9.25
-10.61
-13.24
-15.34
-14.8
-9.65
1.32
18.2
39.9
64.46
89.54
113.04
133.47
150.01
162.39
170.79
175.46
176.71
174.8
170.05
162.82
153.62
143.09
131.89
120.66
110.01
100.42
92.23
85.48
79.8
74.48
68.56
61.16
51.71
40.16
27.02
13.14
-0.57
-13.48
-25.43
-36.74
-48.09
-60.2
-73.54
-88
-102.85
-116.9
-128.75
-137
-140.4
-138.05
-129.58
-115.41
-96.87
-76.04
-55.29
-36.62
-21.15
-8.96
0.59
8.31
14.68
19.7
23.07
24.6
24.42
22.96
20.79
18.36
15.93
13.72
11.93
10.9
11.05
12.68
15.73
19.77
23.96
27.35
29.13
28.92
26.87
23.54
19.74
16.18
13.19
10.64
7.95
4.4
-0.64
-7.5
-16.05
-25.67
-35.32
-43.58
-48.95
-50.16
-46.61
-38.74
-27.94
-16.17
-5.32
3.4
9.75
14.23
17.61
20.39
22.6
23.86
23.85
22.55
20.37
18.03
16.27
15.51
15.79
16.79
18.05
19.13
19.77
19.86
19.39
18.36
16.73
14.49
11.68
8.55
5.41
2.56
0.07
-2.19
-4.6
-7.54
-11.19
-15.29
-19.18
-21.91
-22.57
-20.68
-16.35
-10.36
-3.91
1.81
5.95
8.24
8.99
8.76
8.16
7.53
7.01
6.57
6.27
6.23
6.61
7.44
8.59
9.81
10.85
11.65
12.28
12.95
13.74
14.49
14.82
14.31
12.63
9.84
6.26
2.42
-1.2
-4.3
-6.9
-9.26
-11.63
-14.21
-17.06
-20.03
-22.93
-25.47
-27.3
-28.03
-27.3
-24.9
-20.87
-15.66
-9.95
-4.57
-0.18
2.92
4.81
5.86
6.55
7.25
8.11
9.09
9.98
10.55
10.68
10.38
9.79
9.14
8.65
8.47
8.66
9.14
9.7
10.1
10.05
9.34
7.93
5.99
3.8
1.65
-0.31
-2.16
-4.2
-6.82
-10.31
-14.77
-20.1
-26.06
-32.4
-38.9
-45.29
-51.2
-56.15
-59.55
-60.88
-59.87
-56.48
-51.01
-43.96
-35.89
-27.38
-19.06
-11.59
-5.67
-1.84
-0.18
-0.19
-0.83
-0.88
0.55
3.57
7.5
11.12
13.24
13.21
11.16
7.72
3.64
-0.61
-4.93
-9.32
-13.6
-17.24
-19.53
-19.92
-18.44
-15.8
-13.15
-11.57
-11.61
-13.04
-15.02
-16.56
-17.03
-16.47
-15.51
-15.09
-15.94
-18.15
-21.07
-23.5
-24.18
-22.28
-17.64
-10.82
-2.91
4.8
11.14
15.5
17.94
19.25
20.54
22.85
26.65
31.62
36.78
40.91
43.15
43.24
41.56
38.75
35.35
31.56
27.45
23.13
18.96
15.5
13.15
11.9
11.25
10.52
9.26
7.52
5.82
4.81
4.78
5.48
6.21
6.24
5.16
3.12
0.56
-1.98
-4.22
-6.09
-7.63
-8.75
-9.27
-8.96
-7.76
-5.92
-3.82
-1.88
-0.26
1.14
2.68
4.68
7.19
9.93
12.32
13.79
13.95
12.82
10.8
8.55
6.68
5.58
5.25
5.36
5.36
4.78
3.47
1.65
-0.15
-1.39
-1.81
-1.54
-1.07
-0.96
-1.62
-3.12
-5.21
-7.6
-10.08
-12.57
-15.14
-17.82
-20.55
-23.28
-25.92
-28.47
-30.87
-32.89
-34.11
-33.94
-31.89
-27.95
-22.67
-17.22
-13.04
-11.44
-13.22
-18.44
-26.41
-35.83
-45.13
-52.81
-57.84
-59.84
-59.17
-56.69
-53.22
-49.18
-44.24
-37.54
-28.22
-16.07
-1.8
13.05
26.77
38.08
46.55
52.44
56.28
58.42
58.78
57.01
52.92
46.77
39.35
31.77
25.06
19.79
15.96
13.09
10.44
7.4
3.73
-0.35
-4.31
-7.53
-9.53
-10.06
-9.11
-6.83
-3.46
0.62
4.97
9.09
12.5
14.86
16.02
16.03
15.17
13.8
12.27
10.85
9.69
8.81
8.13
7.58
7.06
6.52
5.95
5.38
4.85
4.4
4.01
3.49
2.61
1.12
-1.15
-4.2
-7.85
-11.81
-15.77
-19.44
-22.67
-25.4
-27.66
-29.45
-30.67
-31.11
-30.57
-29.01
-26.63
-24.01
-21.82
-20.66
-20.67
-21.46
-22.25
-22.16
-20.56
-17.26
-12.51
-6.86
-0.94
4.72
9.76
14.02
17.43
20.03
21.87
23.03
23.62
23.76
23.56
23.18
22.82
22.59
22.55
22.64
22.83
23.11
23.53
24.21
25.22
26.54
27.93
28.9
28.81
27.03
23.23
17.46
10.17
2.09
-5.99
-13.44
-19.83
-25.09
-29.29
-32.58
-35.15
-37.08
-38.29
-38.57
-37.51
-34.71
-29.98
-23.45
-15.72
-7.72
-0.48
5.17
8.82
10.58
11.02
10.83
10.63
10.7
10.97
11.17
11.06
10.56
9.91
9.5
9.72
10.76
12.53
14.72
16.89
18.68
19.82
20.22
19.96
19.23
18.17
16.86
15.28
13.39
11.16
8.73
6.32
4.19
2.44
0.83
-1.16
-4.26
-9.07
-15.87
-24.36
-33.75
-42.85
-50.25
-54.67
-55.2
-51.54
-44.06
-33.87
-22.48
-11.63
-2.76
3.3
6.55
7.69
7.8
7.92
8.7
10.43
13.14
16.91
21.85
28
35.06
42.28
48.68
53.31
55.74
56.01
54.67
52.4
49.74
46.92
43.75
39.7
34.1
26.56
17.2
6.88
-3.01
-11
-16.2
-18.58
-18.94
-18.52
-18.5
-19.71
-22.52
-26.9
-32.57
-38.95
-45.22
-50.38
-53.46
-53.87
-51.56
-47.08
-41.39
-35.51
-30.14
-25.6
-21.77
-18.2
-14.42
-10.1
-5.22
-0.05
5.03
9.77
14.13
18.29
22.46
26.74
31.08
35.25
38.96
42.04
44.39
45.97
46.75
46.62
45.47
43.26
40.05
36.02
31.43
26.57
21.71
17.02
12.57
8.3
4.03
-0.41
-5.05
-9.69
-13.94
-17.48
-20.3
-22.91
-26.06
-30.43
-36.16
-42.59
-48.32
-51.61
-51.06
-46.13
-37.38
-26.3
-14.83
-4.88
2.09
5.31
4.87
1.63
-2.94
-6.91
-8.48
-6.4
-0.36
9.04
20.47
32.47
43.85
53.95
62.57
69.74
75.44
79.6
82.03
82.54
80.89
76.92
70.55
61.89
51.29
39.31
26.84
14.77
3.94
-5.15
-12.31
-17.72
-21.7
-24.69
-27.1
-29.24
-31.39
-33.72
-36.31
-39.1
-41.99
-44.85
-47.54
-49.86
-51.37
-51.51
-49.61
-45.23
-38.3
-29.37
-19.48
-9.82
-1.34
5.46
10.59
14.33
16.91
18.4
18.8
18.18
16.99
15.86
15.42
15.91
17.15
18.59
19.68
20.19
20.21
20
19.71
19.14
17.83
15.38
11.69
7.14
2.47
-1.48
-4.04
-4.94
-4.26
-2.36
0.43
3.77
7.45
11.35
15.24
18.77
21.39
22.53
21.68
18.71
13.96
8.31
2.87
-1.24
-3.31
-3.24
-1.56
0.78
2.78
3.69
3.45
2.8
3.13
6.09
13.07
24.55
39.86
57.19
73.99
87.68
96.38
99.37
97.17
91.3
83.57
75.56
68.1
61.14
53.97
45.63
35.39
23.08
9.19
-5.28
-19.24
-31.82
-42.53
-51.24
-57.94
-62.58
-64.98
-65.11
-63.25
-60.12
-56.65
-53.65
-51.37
-49.47
-47.33
-44.69
-42.16
-41.13
-43.27
-49.59
-59.82
-72.35
-84.99
-95.91
-104.17
-109.77
-113.08
-114.06
-111.81
-104.86
-92
-73.12
-49.69
-24.45
-0.7
18.64
31.6
37.5
36.83
30.9
21.57
10.96
1.16
-6.11
-9.75
-9.54
-6.15
-0.88
4.57
8.5
9.59
7.13
1.17
-7.37
-16.91
-25.63
-31.83
-34.47
-33.38
-29.25
-23.26
-16.67
-10.5
-5.38
-1.76
-0.01
-0.51
-3.57
-9.32
-17.45
-27.11
-36.97
-45.34
-50.47
-50.83
-45.5
-34.44
-18.6
0.14
19.39
36.77
50.47
59.51
63.88
64.31
61.87
57.56
52.04
45.59
38.35
30.54
22.46
14.66
7.74
2.23
-1.52
-3.38
-3.5
-2.12
0.39
3.55
6.82
9.63
11.46
12.07
11.46
9.86
7.53
4.66
1.17
-3
-7.85
-13.17
-18.5
-23.21
-26.69
-28.52
-28.45
-26.49
-22.77
-17.61
-11.47
-4.91
1.38
6.8
10.94
13.68
15.09
15.42
14.96
14.02
12.9
11.69
10.36
8.81
7.14
5.6
4.59
4.48
5.28
6.64
7.91
8.65
8.89
9.28
10.62
13.48
17.85
23.13
28.52
33.26
36.78
38.7
38.71
36.62
32.46
26.62
19.77
12.7
6.12
0.41
-4.27
-8.02
-10.98
-13.27
-15.07
-16.79
-18.88
-21.79
-25.77
-30.54
-35.42
-39.45
-41.76
-41.89
-40.08
-37.09
-33.92
-31.34
-29.54
-28.05
-26.03
-22.65
-17.48
-10.68
-2.83
5.28
12.82
19.12
23.75
26.61
28.04
28.78
29.83
32.09
36.01
41.29
47.04
52.02
55.24
56.23
55.1
52.32
48.39
43.65
38.25
32.26
25.82
19.19
12.71
6.66
1.17
-3.82
-8.45
-12.88
-17.25
-21.65
-26.19
-30.92
-35.78
-40.46
-44.38
-46.75
-46.85
-44.25
-39.1
-32.05
-24.09
-16.23
-9.22
-3.4
1.25
4.98
8.13
11
13.76
16.45
18.99
21.22
22.98
24.18
24.82
25.04
25.04
25.01
25.04
25.12
25.1
24.77
23.97
22.6
20.72
18.49
16.07
13.6
11.06
8.45
5.7
2.81
-0.16
-3.12
-6.01
-8.81
-11.56
-14.28
-17.07
-20.02
-23.24
-26.75
-30.43
-33.88
-36.47
-37.41
-36.08
-32.24
-26.18
-18.67
-10.75
-3.41
2.69
7.32
10.66
13.1
15.1
16.96
18.85
20.75
22.53
24.04
25.13
25.75
25.89
25.61
25
24.12
23
21.71
20.32
18.95
17.7
16.59
15.55
14.41
12.98
11.07
8.67
5.84
2.73
-0.45
-3.54
-6.37
-8.85
-10.94
-12.79
-14.62
-16.78
-19.61
-23.31
-27.8
-32.61
-36.95
-39.88
-40.58
-38.62
-34.16
-27.9
-20.83
-13.96
-7.99
-3.17
0.63
3.8
6.73
9.65
12.62
15.52
18.1
20.12
21.34
21.7
21.38
20.75
20.24
20.16
20.55
21.07
21.24
20.62
19.05
16.76
14.21
11.85
9.99
8.64
7.67
6.87
6.1
5.25
4.21
2.87
1.05
-1.36
-4.42
-8.03
-12.09
-16.46
-21.11
-26.04
-31.17
-36.2
-40.54
-43.39
-43.93
-41.66
-36.57
-29.27
-20.79
-12.29
-4.71
1.46
6.24
10.02
13.27
16.43
19.68
23
26.29
29.4
32.21
34.64
36.61
37.98
38.67
38.55
37.6
35.88
33.48
30.54
27.19
23.53
19.58
15.26
10.41
4.83
-1.57
-8.74
-16.39
-24.15
-31.51
-37.99
-43.1
-46.44
-47.72
-46.88
-44.18
-40.14
-35.44
-30.6
-25.82
-20.86
-15.3
-8.77
-1.24
6.88
14.84
21.83
27.19
30.66
32.39
32.8
32.4
31.57
30.52
29.25
27.71
25.81
23.54
21.03
18.42
15.81
13.14
10.24
6.87
2.84
-2.04
-7.77
-14.11
-20.48
-26
-29.59
-30.3
-27.65
-21.87
-13.85
-4.9
3.67
10.94
16.47
20.27
22.64
23.93
24.43
24.29
23.57
22.24
20.19
17.37
13.87
9.99
6.25
3.32
1.85
2.31
4.76
8.85
13.89
18.96
23.18
25.92
26.93
26.33
24.58
22.32
20.19
18.78
18.52
19.6
22.05
25.73
30.43
35.91
41.9
48.12
54.15
59.44
63.28
65.06
64.34
61.01
55.26
47.41
37.84
26.95
15.22
3.34
-7.96
-18.06
-26.82
-34.53
-41.81
-49.1
-56.27
-62.55
-66.84
-68.27
-66.68
-62.73
-57.6
-52.52
-48.38
-45.5
-43.78
-42.77
-41.91
-40.62
-38.36
-34.77
-29.73
-23.47
-16.53
-9.64
-3.54
1.19
4.26
5.55
5.18
3.44
0.75
-2.44
-5.75
-8.99
-12.13
-15.24
-18.48
-21.92
-25.51
-29.04
-32.17
-34.53
-35.93
-36.4
-36.2
-35.53
-34.31
-32.07
-28.16
-22.07
-13.97
-4.85
3.67
9.91
12.83
12.36
9.35
5.07
0.71
-2.96
-5.71
-7.56
-8.75
-9.44
-9.68
-9.39
-8.46
-6.79
-4.37
-1.25
2.49
6.8
11.61
16.75
21.86
26.4
29.77
31.62
32.12
31.86
31.51
31.41
31.32
30.64
28.78
25.5
21.14
16.37
11.94
8.34
5.77
4.23
3.69
4.28
6.21
9.59
14.32
19.82
25.07
28.88
30.16
28.29
23.13
14.91
3.83
-9.89
-25.67
-42.12
-57.02
-67.78
-72.34
-70.11
-62.54
-52.61
-43.68
-38.08
-36.43
-37.94
-41.29
-45.42
-49.85
-54.32
-58.15
-60.01
-58.31
-52.02
-41.28
-27.58
-13.04
0.42
11.71
20.73
27.88
33.56
37.84
40.56
41.51
40.67
38.36
35.21
32.03
29.44
27.7
26.56
25.47
23.85
21.42
18.37
15.21
12.44
10.28
8.58
7.06
5.59
4.4
3.93
4.54
6.27
8.69
11.11
12.85
13.51
12.98
11.31
8.61
5.07
1.03
-2.99
-6.4
-8.8
-10.07
-10.4
-10.18
-9.9
-10.06
-11.04
-13.09
-16.31
-20.58
-25.49
-30.4
-34.48
-37
-37.5
-35.81
-32.14
-26.96
-20.85
-14.32
-7.62
-0.72
6.54
14.1
21.61
28.48
34.14
38.15
40.25
40.37
38.52
34.9
29.81
23.77
17.41
11.24
5.42
-0.45
-7.26
-15.86
-26.48
-38.36
-50.03
-59.82
-66.62
-70.23
-71.47
-71.77
-72.59
-74.97
-79.4
-85.99
-94.6
-104.73
-115.18
-123.9
-128.36
-126.39
-117.01
-101.08
-81.24
-60.98
-43.44
-30.28
-21.49
-15.91
-12.15
-9.34
-7.27
-5.95
-5.07
-3.94
-1.68
2.37
8.33
15.72
23.86
32.02
39.66
46.39
51.85
55.69
57.71
58.07
57.22
55.66
53.59
50.76
46.75
41.4
35.14
28.82
23.3
18.86
15.21
11.67
7.68
3.07
-1.92
-6.88
-11.52
-15.89
-20.27
-24.9
-29.67
-33.96
-36.8
-37.19
-34.54
-28.88
-20.98
-12.11
-3.58
3.5
8.59
11.66
13.22
14.1
15.24
17.42
21.07
26.03
31.77
37.61
43.06
48.02
52.68
57.28
61.73
65.52
67.95
68.42
66.74
63.17
58.24
52.43
46.1
39.33
32.15
24.63
17
9.67
3.2
-1.9
-5.24
-6.81
-7.04
-6.69
-6.67
-7.75
-10.28
-14.16
-18.85
-23.56
-27.46
-29.79
-30.12
-28.36
-24.9
-20.38
-15.56
-11.01
-6.92
-3.1
0.88
5.35
10.41
15.89
21.44
26.72
31.43
35.44
38.63
40.93
42.26
42.61
42.08
40.83
39.1
37.06
34.82
32.32
29.52
26.3
22.6
18.35
13.43
7.8
1.47
-5.44
-12.68
-19.94
-26.86
-33.05
-38.08
-41.6
-43.37
-43.43
-42.13
-40.07
-37.88
-36.01
-34.5
-33.02
-31.02
-27.97
-23.59
-17.89
-11.21
-4.15
2.61
8.42
12.86
15.77
17.21
17.42
16.67
15.19
13.15
10.8
8.5
6.76
6.11
6.95
9.35
13.09
17.69
22.59
27.29
31.41
34.72
37.07
38.34
38.45
37.31
34.9
31.31
26.67
21.21
15.17
8.85
2.51
-3.68
-9.68
-15.6
-21.69
-28.17
-35.01
-41.82
-47.83
-51.99
-53.18
-50.61
-44.02
-33.82
-21.06
-7.09
6.58
18.68
28.36
35.36
39.94
42.6
43.88
44.12
43.41
41.7
38.95
35.33
31.25
27.38
24.38
22.76
22.81
24.56
27.85
32.42
37.93
43.88
49.62
54.41
57.61
58.83
58.05
55.67
52.28
48.49
44.66
40.85
36.96
32.75
27.96
22.38
15.98
8.92
1.62
-5.35
-11.34
-15.83
-18.6
-19.87
-20.33
-20.87
-22.33
-25.23
-29.59
-34.86
-40.16
-44.48
-46.96
-47.1
-44.83
-40.55
-35.03
-29.23
-23.98
-19.66
-16.01
-12.36
-8.06
-2.97
2.2
6.07
6.98
3.75
-3.87
-14.86
-27.22
-38.49
-46.48
-49.73
-47.86
-41.49
-32.01
-21.08
-10.32
-1.03
5.85
9.65
10.08
7.29
2.02
-4.37
-10.08
-13.35
-13.01
-8.65
-0.74
9.72
21.69
34.39
47.38
60.27
72.4
82.76
90.14
93.52
92.3
86.57
77.04
65.02
52.13
40.01
30.08
23.23
19.54
18.41
18.88
20.02
21.2
22.13
22.6
22.25
20.36
16.1
8.84
-1.53
-14.43
-28.74
-42.99
-55.78
-66
-73.15
-77.37
-79.43
-80.43
-81.36
-82.77
-84.64
-86.51
-87.84
-88.27
-87.65
-85.88
-82.8
-78.1
-71.63
-63.48
-54.2
-44.62
-35.49
-27.29
-20.16
-14.04
-8.9
-4.81
-1.72
0.66
2.86
5.4
8.65
12.61
16.96
21.27
25.13
28.36
30.93
32.95
34.57
35.9
36.95
37.66
37.85
37.35
36.05
34.03
31.51
28.8
26.08
23.25
19.98
15.87
10.62
4.17
-3.21
-11.07
-18.74
-25.55
-30.79
-33.89
-34.51
-32.68
-28.82
-23.68
-18.04
-12.59
-7.75
-3.66
-0.25
2.69
5.32
7.79
10.1
12.24
14.17
15.94
17.66
19.45
21.3
23.07
24.43
25.05
24.71
23.4
21.33
18.81
16.11
13.43
10.85
8.35
5.87
3.36
0.87
-1.4
-3.14
-4.03
-3.86
-2.72
-1
0.7
1.72
1.56
-0.12
-3.34
-7.87
-13.1
-18.12
-21.89
-23.52
-22.62
-19.39
-14.59
-9.32
-4.67
-1.65
-0.96
-2.86
-7.03
-12.51
-17.83
-21.51
-22.43
-20.34
-15.78
-9.83
-3.6
2.04
6.48
9.38
10.49
9.81
7.51
3.95
-0.59
-6.09
-12.88
-21.33
-31.38
-42.26
-52.36
-59.49
-61.57
-57.27
-46.42
-30.14
-10.59
9.33
26.46
37.93
41.68
36.9
24.23
5.56
-16.29
-38.14
-56.84
-69.82
-75.37
-73.03
-63.71
-49.61
-33.75
-19.1
-7.78
-0.44
3.7
6.27
8.78
11.99
15.8
19.64
22.85
25.1
26.51
27.48
28.32
29.18
29.92
30.26
30.05
29.4
28.75
28.71
29.88
32.43
36
39.78
42.81
44.49
44.69
43.82
42.51
41.27
40.36
39.68
38.99
38
36.52
34.34
31.25
26.99
21.49
14.99
8.05
1.27
-4.88
-10.17
-14.55
-17.91
-20.09
-20.86
-20.2
-18.51
-16.5
-14.84
-13.81
-13.09
-12.09
-10.37
-8.16
-6.44
-6.55
-9.41
-15.18
-23.05
-31.31
-37.81
-40.6
-38.52
-31.54
-20.97
-9.05
1.62
8.84
11.52
9.85
4.98
-1.62
-8.61
-14.97
-20
-23.1
-23.79
-21.73
-16.94
-9.85
-1.05
8.89
19.41
29.94
39.66
47.54
52.43
53.4
50.06
42.63
31.84
18.72
4.47
-9.73
-22.78
-33.72
-41.79
-46.68
-48.61
-48.36
-47.04
-45.73
-45.1
-45.18
-45.38
-44.79
-42.59
-38.31
-31.94
-23.89
-14.78
-5.43
3.3
10.54
15.67
18.46
19.11
18.25
16.61
14.77
13.02
11.35
9.66
8
6.63
6.03
6.67
8.81
12.31
16.74
21.51
26.05
29.87
32.69
34.3
34.68
33.95
32.4
30.46
28.54
26.85
25.28
23.45
20.85
17.11
12.18
6.41
0.38
-5.36
-10.43
-14.74
-18.38
-21.58
-24.61
-27.76
-31.2
-34.96
-38.87
-42.47
-45.21
-46.57
-46.34
-44.74
-42.21
-39.29
-36.33
-33.33
-30.07
-26.21
-21.52
-16.03
-9.98
-3.72
2.3
7.6
11.7
14.26
15.31
15.37
15.38
16.46
19.45
24.56
31.32
38.77
45.82
51.59
55.57
57.55
57.49
55.42
51.43
45.82
39.12
31.96
24.92
18.33
12.2
6.33
0.47
-5.45
-11.2
-16.41
-20.75
-24.11
-26.66
-28.78
-30.96
-33.61
-37
-41.14
-45.76
-50.2
-53.5
-54.55
-52.43
-46.78
-38.05
-27.39
-16.32
-6.22
2.11
8.5
13.31
17.08
20.26
23.07
25.58
27.86
29.96
32.01
34.01
35.89
37.46
38.56
39.16
39.42
39.62
39.97
40.58
41.36
42.17
42.88
43.41
43.71
43.78
43.59
43.18
42.67
42.3
42.25
42.62
43.26
43.79
43.73
42.67
40.47
37.27
33.56
29.96
27.04
25.11
24.14
23.66
22.96
21.28
18.16
13.68
8.53
3.83
0.68
-0.23
1.09
3.95
7.15
9.37
9.44
6.66
0.89
-7.43
-17.31
-27.29
-35.74
-41.27
-43.23
-41.92
-38.46
-34.21
-30.12
-26.35
-22.39
-17.64
-12.01
-6.26
-1.8
-0.04
-1.64
-6.07
-11.91
-17.57
-21.91
-24.62
-25.87
-26.14
-25.79
-25.02
-24.09
-23.36
-23.11
-23.53
-24.45
-25.32
-25.5
-24.45
-21.97
-18.13
-13.26
-7.92
-3.08
-0.09
-0.54
-5.83
-16.67
-32.74
-52.49
-73.38
-92.3
-106.26
-112.94
-111.18
-101.03
-83.76
-61.56
-37.03
-12.71
9.36
27.83
42.06
51.96
57.68
59.68
58.75
56.16
53.51
52.28
53.15
55.62
58.13
58.85
56.7
51.9
45.83
40.19
36.19
34.02
32.96
32.08
30.76
28.9
26.75
24.5
22.14
19.59
16.86
14.02
11.15
8.25
5.17
1.82
-1.76
-5.38
-8.74
-11.63
-14.11
-16.55
-19.55
-23.6
-28.94
-35.48
-42.74
-49.99
-56.39
-61.25
-64.24
-65.63
-66.27
-67.42
-70.4
-76.15
-84.88
-95.88
-107.64
-118.16
-125.48
-128.07
-125.12
-116.75
-103.89
-87.97
-70.59
-53.13
-36.52
-21.26
-7.56
4.49
14.74
23.07
29.22
33.06
34.59
34.1
31.87
28.22
23.37
17.5
10.89
3.94
-2.87
-9.07
-14.32
-18.48
-21.5
-23.33
-23.83
-22.85
-20.42
-16.95
-13.15
-9.83
-7.66
-6.86
-7.33
-8.74
-10.69
-12.81
-14.67
-15.66
-15.09
-12.41
-7.43
-0.47
7.77
16.51
25.05
32.82
39.45
44.62
48.17
50.19
51.15
51.85
53.14
55.69
59.62
64.5
69.53
73.84
76.84
78.32
78.35
77.13
74.84
71.61
67.46
62.41
56.6
50.39
44.22
38.42
33.19
28.51
24.28
20.46
17.1
14.3
12.04
10.12
8.18
5.85
2.96
-0.44
-4.05
-7.56
-10.75
-13.57
-16.19
-18.95
-22.34
-26.71
-32.13
-38.22
-44.13
-48.68
-50.77
-49.66
-45.27
-38.18
-29.45
-20.25
-11.56
-4.05
2.01
6.64
10.05
12.58
14.6
16.48
18.45
20.57
22.69
24.51
25.75
26.23
26.06
25.49
24.87
24.46
24.39
24.56
24.74
24.66
24.06
22.82
20.96
18.61
16
13.39
11.04
9.07
7.48
6.17
4.89
3.44
1.63
-0.53
-2.91
-5.22
-7.24
-8.86
-10.19
-11.56
-13.43
-16.16
-19.87
-24.24
-28.54
-31.72
-32.73
-30.82
-25.8
-18.16
-8.9
0.73
9.62
17.1
22.9
27.13
30.04
31.85
32.69
32.59
31.62
29.83
27.28
24.06
20.26
16.04
11.63
7.36
3.59
0.6
-1.52
-2.83
-3.52
-3.82
-3.9
-3.89
-3.77
-3.52
-3.05
-2.35
-1.5
-0.66
-0.14
-0.18
-0.94
-2.33
-4.17
-6.18
-8.19
-10.17
-12.24
-14.6
-17.39
-20.66
-24.23
-27.79
-30.75
-32.44
-32.15
-29.43
-24.26
-17.19
-9.22
-1.47
5.13
10.14
13.64
16.02
17.74
19.07
20.1
20.81
21.23
21.48
21.73
22.13
22.69
23.25
23.64
23.7
23.41
22.9
22.28
21.64
20.85
19.66
17.78
15.01
11.33
6.88
1.97
-3.03
-7.75
-11.8
-14.9
-16.81
-17.5
-17.04
-15.68
-13.73
-11.52
-9.31
-7.37
-5.9
-5.12
-5.22
-6.39
-8.79
-12.52
-17.63
-23.97
-31.14
-38.39
-44.78
-49.4
-51.67
-51.55
-49.57
-46.54
-43.23
-40.02
-36.79
-32.98
-27.88
-20.96
-11.98
-1.13
11.07
23.87
36.52
48.23
58.35
66.33
71.83
74.75
75.25
73.73
70.64
66.36
61.11
54.92
47.79
39.79
31.2
22.42
13.92
6.08
-0.93
-7.02
-12.15
-16.29
-19.36
-21.27
-22.09
-22.08
-21.56
-20.85
-20.08
-19.16
-17.88
-16.05
-13.59
-10.65
-7.51
-4.56
-2.26
-1.06
-1.36
-3.37
-7.08
-12.11
-17.72
-22.92
-26.7
-28.38
-27.81
-25.46
-22.21
-19.05
-16.79
-15.84
-16.24
-17.69
-19.76
-22.01
-23.92
-24.97
-24.83
-23.33
-20.61
-16.96
-12.68
-8.03
-3.1
2.05
7.3
12.4
17.05
20.98
24.1
26.51
28.38
29.89
31.15
32.14
32.73
32.82
32.31
31.19
29.41
26.96
23.83
20
15.45
10.17
4.13
-2.65
-10.12
-18.1
-26.26
-34.03
-40.6
-45.01
-46.41
-44.42
-39.38
-32.41
-25.07
-18.78
-14.39
-11.85
-10.4
-8.94
-6.58
-2.92
1.84
7.15
12.3
16.67
19.82
21.54
21.82
20.89
19.1
16.91
14.68
12.69
11.03
9.68
8.57
7.56
6.6
5.68
4.88
4.29
4.07
4.36
5.29
6.85
8.87
11.05
12.93
14.11
14.35
13.59
12.06
10.08
7.99
6.01
4.21
2.48
0.69
-1.2
-3.19
-5.24
-7.41
-9.88
-12.89
-16.59
-20.96
-25.72
-30.35
-34.25
-36.96
-38.19
-37.89
-36.07
-32.69
-27.51
-20.13
-10.26
2.06
16.17
30.78
44.21
54.82
61.48
63.89
62.57
58.68
53.63
48.72
45.03
43.2
43.55
46.04
50.25
55.48
60.82
65.53
69.33
72.51
75.76
79.68
84.3
88.82
91.89
92.15
88.8
81.89
72.21
60.63
47.71
33.47
17.59
-0.02
-18.84
-37.58
-54.53
-68.04
-77.05
-81.3
-81.23
-77.66
-71.44
-63.28
-53.84
-43.85
-34.08
-25.35
-18.32
-13.38
-10.63
-10.1
-11.88
-16.21
-23.27
-32.86
-44.14
-55.58
-65.38
-71.97
-74.65
-73.79
-70.59
-66.48
-62.51
-58.91
-55.18
-50.56
-44.58
-37.39
-29.85
-23.21
-18.71
-17.15
-18.56
-22.14
-26.38
-29.34
-29.2
-24.67
-15.65
-3.21
10.66
23.68
34.02
40.7
43.76
43.89
42.01
38.77
34.51
29.32
23.41
17.33
11.95
8.33
7.28
9.2
13.98
21.09
29.77
39.09
48.15
55.98
61.7
64.42
63.44
58.36
49.25
36.69
21.69
5.54
-10.6
-25.87
-39.84
-52.25
-62.78
-70.86
-75.75
-76.85
-73.98
-67.65
-58.86
-48.88
-38.86
-29.61
-21.65
-15.28
-10.66
-7.84
-6.6
-6.42
-6.6
-6.55
-5.98
-4.98
-3.88
-2.98
-2.35
-1.84
-1.19
-0.22
1.02
2.39
3.71
4.81
5.56
5.81
5.42
4.38
2.82
1.03
-0.67
-2.1
-3.29
-4.43
-5.74
-7.3
-8.93
-10.37
-11.35
-11.81
-11.9
-11.88
-11.9
-11.95
-11.9
-11.62
-11.16
-10.76
-10.82
-11.77
-13.94
-17.41
-22.13
-27.84
-34.1
-40.27
-45.44
-48.62
-48.97
-46.1
-40.26
-32.36
-23.65
-15.33
-8.25
-2.66
1.56
4.76
7.17
8.9
9.94
10.4
10.58
10.85
11.5
12.61
13.98
15.38
16.65
17.78
18.95
20.27
21.65
22.85
23.52
23.36
22.29
20.41
17.9
15
11.91
8.76
5.74
3
0.67
-1.14
-2.41
-3.17
-3.65
-4.15
-5.07
-6.74
-9.33
-12.7
-16.49
-20.29
-23.82
-27.04
-30.1
-33.28
-36.77
-40.66
-44.87
-49.16
-53.11
-56.01
-56.9
-54.77
-48.91
-39.29
-26.67
-12.55
1.25
13.11
22.05
27.82
30.76
31.51
30.71
28.9
26.42
23.52
20.44
17.48
14.96
13.17
12.35
12.49
13.45
14.95
16.72
18.59
20.5
22.41
24.25
25.8
26.77
26.87
26.01
24.32
22.11
19.74
17.46
15.36
13.4
11.41
9.25
6.97
4.68
2.56
0.68
-1.09
-3.03
-5.45
-8.56
-12.32
-16.45
-20.61
-24.45
-27.84
-30.91
-33.88
-37.05
-40.62
-44.69
-49.14
-53.57
-57.31
-59.48
-59.24
-56.07
-50.06
-41.89
-32.63
-23.38
-14.98
-7.84
-1.96
2.87
6.96
10.66
14.29
18.06
22.05
26.01
29.51
32.09
33.5
33.87
33.59
33.19
33.09
33.48
34.32
35.48
36.73
37.88
38.68
38.92
38.39
37.05
35.06
32.75
30.47
28.44
26.66
24.92
23.03
20.85
18.45
16.02
13.81
11.98
10.51
9.16
7.6
5.52
2.77
-0.57
-4.21
-7.72
-10.71
-13.07
-14.99
-16.9
-19.28
-22.46
-26.47
-31.01
-35.48
-39.12
-41.2
-41.06
-38.31
-32.91
-25.22
-15.96
-6.15
3.23
11.42
18.12
23.44
27.78
31.52
34.92
38.01
40.68
42.77
44.24
45.05
45.15
44.37
42.49
39.39
35.17
30.22
25.03
20.05
15.51
11.37
7.41
3.48
-0.44
-4.19
-7.53
-10.27
-12.39
-14.04
-15.47
-17.01
-18.87
-21.09
-23.44
-25.5
-26.84
-27.17
-26.52
-25.27
-24.04
-23.49
-24.03
-25.66
-27.9
-29.86
-30.52
-29.07
-25.32
-19.94
-14.32
-10.09
-8.51
-9.93
-13.68
-18.29
-22.08
-23.7
-22.39
-18.12
-11.35
-2.84
6.49
15.72
24.01
30.74
35.66
38.89
40.8
41.85
42.36
42.51
42.36
42.01
41.57
41.21
40.97
40.75
40.46
40.03
39.44
38.66
37.57
35.72
32.55
27.66
21.13
13.74
6.74
1.31
-1.88
-2.96
-2.65
-1.81
-0.98
-0.3
0.39
1.19
1.84
1.85
0.71
-1.83
-5.6
-10.1
-14.76
-19.24
-23.44
-27.42
-31.32
-35.13
-38.77
-42.19
-45.48
-49.03
-53.3
-58.52
-64.35
-69.73
-73.16
-73.2
-69.02
-60.74
-49.49
-36.87
-24.53
-13.66
-4.82
2.02
7.17
11.05
14.05
16.5
18.7
20.91
23.32
25.94
28.61
30.95
32.63
33.51
33.74
33.7
33.87
34.55
35.77
37.25
38.57
39.34
39.37
38.66
37.33
35.58
33.52
31.24
28.78
26.1
23.17
19.91
16.23
12.1
7.55
2.66
-2.43
-7.56
-12.57
-17.35
-21.88
-26.22
-30.54
-34.97
-39.61
-44.48
-49.57
-54.91
-60.61
-66.81
-73.56
-80.68
-87.62
-93.53
-97.36
-98.3
-95.83
-89.77
-80.15
-67.1
-50.87
-32.04
-11.7
8.75
27.85
44.73
59.42
72.68
85.49
98.37
110.94
122.05
130.35
134.89
135.47
132.61
127.2
120.1
111.86
102.63
92.21
80.32
66.88
52.16
36.89
22.02
8.49
-3.07
-12.47
-19.89
-25.62
-29.98
-33.23
-35.54
-37.17
-38.4
-39.56
-40.78
-41.86
-42.29
-41.51
-39.28
-35.84
-31.93
-28.46
-26.13
-25.16
-25.29
-25.98
-26.74
-27.29
-27.53
-27.41
-26.76
-25.28
-22.62
-18.51
-12.86
-5.8
2.27
10.55
17.91
23.11
25.26
24.03
19.91
13.88
7.1
0.33
-6.25
-12.66
-18.75
-23.68
-25.97
-24.01
-16.83
-4.68
10.89
27.54
43.02
55.8
65.37
71.98
76.18
78.28
78.3
75.93
70.8
62.71
51.73
38.26
22.99
6.7
-9.7
-25.28
-39.22
-50.95
-60.18
-67.02
-71.89
-75.32
-77.81
-79.76
-81.43
-82.92
-84.25
-85.44
-86.61
-88.16
-90.69
-94.8
-100.68
-107.72
-114.6
-119.58
-121.04
-117.91
-109.93
-97.54
-81.66
-63.32
-43.59
-23.46
-3.91
14.07
29.64
42.23
51.79
58.75
63.96
68.32
72.37
76.06
78.91
80.41
80.34
79.05
77.27
75.67
74.52
73.62
72.42
70.32
66.89
61.86
55.06
46.37
35.82
23.79
11.34
0.06
-8.33
-12.63
-12.58
-8.97
-3.27
2.87
8.07
11.46
12.65
11.46
7.84
1.87
-6.18
-15.71
-25.86
-35.8
-45
-53.35
-60.99
-67.96
-73.93
-77.9
-78.47
-74.31
-64.86
-50.78
-33.95
-16.81
-1.61
10.27
18.52
23.65
26.51
27.69
27.31
25.24
21.59
17.08
13.13
11.38
13.12
18.68
27.3
37.43
47.44
56.18
63.23
68.75
73.07
76.3
78.2
78.45
76.88
73.79
69.83
65.7
61.89
58.55
55.45
52.25
48.76
44.98
41.11
37.37
33.95
30.88
28.05
25.26
22.26
18.77
14.46
9.01
2.22
-5.92
-15.29
-25.8
-37.54
-50.59
-64.83
-79.65
-93.76
-105.41
-112.72
-114.44
-110.31
-101.11
-88.36
-73.78
-59.01
-45.48
-34.54
-27.4
-24.96
-27.49
-34.38
-44.2
-54.94
-64.63
-71.72
-75.39
-75.39
-71.81
-64.86
-54.83
-42.26
-27.88
-12.62
2.5
16.51
28.67
38.52
45.89
50.74
53.14
53.26
51.37
47.91
43.45
38.56
33.76
29.45
25.93
23.37
21.84
21.18
20.98
20.67
19.64
17.46
14
9.36
3.92
-1.76
-7
-11.02
-13.15
-13.05
-10.88
-7.3
-3.2
0.76
4.39
7.88
11.55
15.43
19.21
22.33
24.26
24.76
23.91
22.03
19.61
17.23
15.49
14.94
16
18.79
23.19
28.71
34.64
40.17
44.68
47.82
49.57
50.08
49.57
48.18
45.98
43.01
39.41
35.49
31.64
28.15
25.1
22.32
19.5
16.33
12.65
8.53
4.15
-0.26
-4.53
-8.59
-12.38
-15.87
-19.09
-22.12
-25.18
-28.53
-32.3
-36.37
-40.3
-43.33
-44.65
-43.6
-39.93
-33.83
-25.93
-17.15
-8.42
-0.58
5.87
10.8
14.4
17.12
19.46
21.8
24.31
26.92
29.36
31.36
32.78
33.62
34.08
34.39
34.78
35.35
36.09
36.86
37.48
37.76
37.55
36.77
35.47
33.83
32.05
30.38
28.95
27.73
26.56
25.24
23.6
21.55
19.12
16.35
13.33
10.08
6.58
2.81
-1.25
-5.58
-10.13
-14.78
-19.36
-23.73
-27.81
-31.68
-35.52
-39.59
-44.04
-48.74
-53.17
-56.53
-57.98
-56.94
-53.32
-47.62
-40.76
-33.77
-27.49
-22.36
-18.4
-15.35
-12.84
-10.55
-8.26
-5.93
-3.69
-1.71
-0.25
0.48
0.35
-0.69
-2.66
-5.4
-8.6
-11.7
-13.98
-14.69
-13.34
-9.82
-4.5
1.89
8.45
14.3
18.74
21.31
21.82
20.45
17.64
14.13
10.64
7.79
5.85
4.8
4.43
4.49
4.77
5.13
5.4
5.35
4.73
3.3
0.96
-2.28
-6.27
-10.75
-15.33
-19.45
-22.48
-23.77
-22.88
-19.76
-14.78
-8.75
-2.55
2.98
7.31
10.23
11.87
12.56
12.75
12.84
13.08
13.53
14.07
14.5
14.64
14.44
13.98
13.45
13.04
12.85
12.85
12.87
12.68
12.13
11.14
9.78
8.15
6.39
4.55
2.64
0.62
-1.52
-3.79
-6.09
-8.34
-10.46
-12.42
-14.22
-15.91
-17.48
-18.96
-20.38
-21.78
-23.21
-24.61
-25.81
-26.54
-26.51
-25.57
-23.9
-21.99
-20.53
-20.12
-21.04
-23.01
-25.25
-26.74
-26.49
-23.94
-19.14
-12.68
-5.52
1.35
7.15
11.52
14.5
16.38
17.56
18.45
19.26
20.12
21.02
21.88
22.57
22.93
22.83
22.21
21.17
19.9
18.68
17.74
17.27
17.26
17.59
18
18.21
17.95
17.1
15.62
13.55
10.97
7.9
4.34
0.33
-4.03
-8.47
-12.63
-16.08
-18.52
-19.87
-20.26
-20.01
-19.46
-18.92
-18.51
-18.23
-17.97
-17.61
-17.17
-16.76
-16.56
-16.78
-17.6
-19.1
-21.27
-23.85
-26.33
-27.98
-27.95
-25.64
-20.83
-13.94
-5.78
2.64
10.44
17.08
22.45
26.77
30.35
33.58
36.78
40.21
43.92
47.8
51.52
54.56
56.51
57.12
56.55
55.34
54.24
53.88
54.5
55.88
57.42
58.49
58.68
57.93
56.5
54.81
53.14
51.54
49.74
47.13
42.9
36.12
26.07
12.69
-3.11
-19.65
-34.86
-47.1
-55.59
-60.56
-62.96
-63.88
-64.17
-64.37
-64.85
-66
-68.34
-72.43
-78.68
-87.26
-97.8
-109.36
-120.35
-128.59
-131.75
-128.11
-117.28
-100.37
-79.77
-58.19
-37.9
-20.16
-5.27
6.94
16.58
23.39
27.01
27.35
25.16
22.09
20.26
21.49
26.65
35.34
46.15
57.32
67.46
75.98
83.02
88.94
93.75
96.91
97.38
94.15
86.74
75.47
61.55
46.79
33.18
22.29
14.86
10.64
8.57
7.19
5.11
1.27
-4.8
-13.11
-23.35
-35.09
-48.11
-62.43
-78.28
-95.88
-115.1
-135.13
-154.16
-169.59
-178.48
-178.5
-168.66
-149.77
-124.26
-95.48
-66.8
-40.88
-19.21
-2.12
10.87
20.55
27.62
32.58
35.83
37.86
39.37
41.02
43.12
45.38
47.02
47.36
46.48
45.46
45.96
49.35
55.72
63.67
70.84
75.03
75.23
71.77
65.91
59.03
51.89
44.31
35.5
24.54
10.9
-5.07
-22.08
-38.11
-50.88
-58.37
-59.52
-54.48
-44.64
-32.25
-19.8
-9.62
-3.57
-2.76
-7.37
-16.48
-28.12
-39.71
-48.61
-52.97
-52.2
-47.08
-39.33
-30.91
-23.31
-17.18
-12.48
-8.75
-5.51
-2.36
1.06
5.14
10.1
15.88
22.05
27.89
32.58
35.6
37.02
37.44
37.62
37.95
38.37
38.6
38.53
38.56
39.36
41.28
43.88
45.73
45.06
40.61
32.44
21.83
10.67
0.41
-8.47
-16.48
-24.39
-32.46
-40.26
-46.98
-51.88
-54.62
-55.21
-53.64
-49.7
-42.91
-32.99
-20.44
-6.7
6.04
15.58
20.45
20.52
16.9
11.41
5.72
0.76
-3.34
-6.84
-9.8
-11.78
-11.96
-9.74
-5.25
0.49
5.96
9.84
11.72
12.17
12.52
14.06
17.47
22.55
28.58
34.65
40.15
44.83
48.69
51.68
53.47
53.34
50.49
44.41
35.03
22.84
8.81
-5.7
-19.13
-29.86
-36.49
-38.14
-34.77
-27.27
-17.26
-6.62
3.09
10.92
16.67
20.5
22.58
22.78
20.76
16.15
8.88
-0.66
-11.61
-22.75
-32.69
-40.19
-44.44
-45.16
-42.66
-37.7
-31.3
-24.4
-17.78
-11.85
-6.8
-2.62
0.78
3.44
5.46
6.94
8.02
8.74
9.02
8.64
7.28
4.79
1.36
-2.49
-6.02
-8.57
-9.87
-10.07
-9.67
-9.34
-9.57
-10.7
-12.79
-15.83
-19.82
-24.9
-31.21
-38.72
-47.2
-56.01
-64.3
-71.18
-76.06
-78.67
-78.96
-76.78
-71.7
-63.25
-51.19
-36.08
-19.34
-2.93
11.31
22.33
30.05
34.97
37.59
38.06
36.25
32.17
26.47
20.48
15.9
14.09
15.52
19.68
25.45
31.62
37.38
42.64
47.86
53.63
60.18
67.09
73.25
77.32
78.41
76.51
72.6
68.12
64.25
61.43
59.33
57.28
54.74
51.55
47.94
44.25
40.6
36.79
32.42
27.1
20.67
13.3
5.44
-2.34
-9.56
-15.96
-21.51
-26.37
-30.78
-34.93
-38.98
-42.98
-47.07
-51.45
-56.4
-61.93
-67.69
-72.92
-76.64
-77.95
-76.27
-71.36
-63.29
-52.48
-39.72
-26.19
-13.32
-2.33
6.17
12.38
17.16
21.51
26.04
30.73
35.07
38.44
40.56
41.41
41.2
40.09
38.2
35.55
32.24
28.49
24.66
21.09
17.96
15.25
12.72
10.09
7.18
3.97
0.6
-2.73
-5.84
-8.68
-11.25
-13.63
-15.86
-17.92
-19.7
-21.07
-21.93
-22.33
-22.47
-22.62
-23.11
-24.18
-25.92
-28.21
-30.64
-32.61
-33.36
-32.27
-29
-23.72
-17.06
-9.88
-3.08
2.77
7.43
10.98
13.68
15.74
17.29
18.36
18.93
19.01
18.63
17.84
16.75
15.49
14.22
13.08
12.2
11.69
11.56
11.79
12.3
12.93
13.43
13.56
13.13
12.11
10.65
9
7.4
5.97
4.66
3.27
1.58
-0.48
-2.82
-5.22
-7.42
-9.26
-10.76
-12.12
-13.67
-15.72
-18.48
-21.92
-25.68
-29.05
-31.18
-31.3
-28.99
-24.43
-18.28
-11.54
-5.14
0.29
4.56
7.84
10.46
12.72
14.77
16.72
18.62
20.49
22.33
24.04
25.43
26.34
26.67
26.46
25.96
25.44
25.06
24.83
24.6
24.15
23.32
22.09
20.53
18.74
16.79
14.71
12.54
10.35
8.24
6.29
4.48
2.73
0.9
-1.12
-3.36
-5.74
-8.2
-10.65
-13.05
-15.39
-17.72
-20.15
-22.87
-26.07
-29.78
-33.73
-37.29
-39.58
-39.74
-37.31
-32.39
-25.68
-18.26
-11.16
-5.11
-0.36
3.25
6.12
8.61
10.99
13.35
15.62
17.71
19.52
21
22.14
22.94
23.47
23.75
23.83
23.71
23.44
23.05
22.55
21.96
21.25
20.4
19.37
18.16
16.77
15.24
13.62
11.97
10.37
8.96
7.88
7.29
7.23
7.63
8.24
8.68
8.63
7.91
6.48
4.51
2.19
-0.33
-3.06
-6.16
-9.85
-14.25
-19.36
-25.01
-30.78
-36.07
-40.12
-42.19
-41.76
-38.63
-33.07
-25.82
-17.9
-10.37
-4.06
0.64
3.76
5.69
6.96
8.05
9.15
10.16
10.66
10.11
8.07
4.32
-0.9
-7
-13.08
-18.17
-21.31
-21.83
-19.42
-14.28
-7.08
1.17
9.4
16.78
22.91
27.73
31.4
34.05
35.72
36.3
35.69
33.89
30.98
27.09
22.39
17.01
11.17
5.18
-0.63
-5.92
-10.53
-14.49
-18.06
-21.66
-25.77
-30.8
-37.01
-44.36
-52.34
-59.99
-65.92
-68.73
-67.33
-61.35
-51.29
-38.43
-24.45
-10.95
0.89
10.47
17.76
23.06
26.76
29.22
30.67
31.26
31.19
30.69
30.09
29.73
29.86
30.54
31.65
32.88
33.88
34.34
34.01
32.72
30.29
26.64
21.8
16.15
10.38
5.37
1.87
0.18
0.09
0.96
2.06
2.89
3.3
3.46
3.53
3.55
3.31
2.54
1
-1.3
-4.16
-7.31
-10.49
-13.59
-16.6
-19.58
-22.48
-25.32
-28.1
-30.92
-33.93
-37.17
-40.47
-43.29
-44.89
-44.47
-41.6
-36.37
-29.41
-21.69
-14.2
-7.71
-2.56
1.19
3.73
5.37
6.49
7.45
8.58
10.1
12.02
14.19
16.32
18.13
19.47
20.35
20.96
21.53
22.31
23.49
25.12
27.15
29.42
31.68
33.63
35.02
35.66
35.54
34.79
33.57
32
30.05
27.53
24.17
19.77
14.26
7.75
0.5
-7.18
-15.04
-22.81
-30.15
-36.63
-41.74
-45.06
-46.31
-45.49
-42.89
-39.02
-34.53
-30.12
-26.49
-24.2
-23.59
-24.64
-26.82
-29.2
-30.67
-30.24
-27.4
-22.18
-15.2
-7.4
0.23
6.88
12.07
15.66
17.8
18.81
19.06
18.84
18.24
17.11
15.19
12.21
8.02
2.74
-3.34
-9.62
-15.32
-19.5
-21.22
-19.81
-15.06
-7.39
2.28
12.69
22.53
30.7
36.43
39.32
39.38
37.01
32.96
28.15
23.49
19.57
16.63
14.53
12.93
11.41
9.6
7.32
4.49
1.16
-2.54
-6.39
-10.14
-13.57
-16.62
-19.41
-22.23
-25.47
-29.4
-33.99
-38.77
-42.9
-45.3
-45.03
-41.64
-35.42
-27.32
-18.69
-10.8
-4.51
-0.03
2.91
4.81
6.19
7.36
8.46
9.54
10.66
11.83
13.09
14.38
15.57
16.45
16.86
16.71
15.99
14.77
13.1
11.05
8.66
6.08
3.51
1.24
-0.47
-1.4
-1.5
-0.82
0.48
2.15
3.95
5.64
7.02
8
8.56
8.72
8.44
7.65
6.21
4.08
1.3
-1.99
-5.53
-9.08
-12.45
-15.54
-18.41
-21.22
-24.25
-27.76
-31.91
-36.45
-40.72
-43.76
-44.53
-42.36
-37.21
-29.71
-20.93
-12.08
-4.13
2.36
7.27
10.81
13.35
15.35
17.17
19.11
21.26
23.51
25.62
27.27
28.27
28.65
28.59
28.39
28.28
28.35
28.52
28.6
28.37
27.64
26.28
24.28
21.69
18.66
15.41
12.15
8.97
5.8
2.43
-1.39
-5.77
-10.54
-15.28
-19.41
-22.45
-24.25
-25.05
-25.31
-25.5
-25.81
-26.14
-26.26
-26.07
-25.77
-25.79
-26.55
-28.22
-30.63
-33.31
-35.81
-37.75
-38.87
-38.83
-37.25
-33.73
-28.14
-20.82
-12.68
-5.07
0.71
3.71
3.81
1.53
-2.04
-5.74
-8.57
-9.85
-9.36
-7.1
-3.22
2.12
8.81
16.65
25.43
34.87
44.69
54.57
64.1
72.64
79.33
83.22
83.51
79.83
72.42
62.17
50.34
38.3
27.17
17.79
10.72
6.2
4.25
4.53
6.4
8.9
11.08
12.15
11.65
9.52
6
1.46
-3.73
-9.29
-15.05
-20.9
-26.72
-32.49
-38.23
-43.9
-49.28
-53.8
-56.61
-56.81
-53.73
-47.29
-38.08
-27.23
-16.02
-5.49
3.9
12.19
19.82
27.17
34.4
41.28
47.38
52.17
55.22
56.27
55.23
52.22
47.5
41.43
34.44
26.98
19.46
12.17
5.3
-1.07
-6.93
-12.29
-17.12
-21.32
-24.63
-26.76
-27.47
-26.69
-24.56
-21.38
-17.59
-13.64
-9.93
-6.84
-4.61
-3.42
-3.18
-3.67
-4.48
-5.22
-5.6
-5.56
-5.3
-5.21
-5.79
-7.42
-10.29
-14.18
-18.45
-22.1
-24.11
-23.8
-21.15
-16.92
-12.33
-8.73
-7.08
-7.66
-10.06
-13.36
-16.48
-18.45
-18.61
-16.72
-12.87
-7.43
-0.93
6.03
12.96
19.45
25.3
30.38
34.64
38.04
40.57
42.27
43.15
43.29
42.73
41.49
39.6
37.09
34.05
30.64
27.05
23.45
19.93
16.53
13.23
9.99
6.77
3.5
0.09
-3.56
-7.52
-11.67
-15.83
-19.68
-22.98
-25.63
-27.74
-29.55
-31.41
-33.62
-36.36
-39.64
-43.19
-46.46
-48.64
-48.87
-46.45
-41.18
-33.48
-24.4
-15.3
-7.48
-1.79
1.48
2.54
1.96
0.33
-1.77
-3.87
-5.47
-6.12
-5.48
-3.4
-0.01
4.29
9.01
13.7
18.04
21.81
24.84
27.02
28.38
29.16
29.77
30.64
32.02
33.84
35.72
37.22
38.05
38.12
37.53
36.38
34.61
32.11
28.7
24.39
19.38
14.01
8.65
3.55
-1.19
-5.6
-9.74
-13.7
-17.42
-20.81
-23.83
-26.53
-29.15
-32.04
-35.42
-39.25
-43.02
-45.88
-46.86
-45.24
-40.83
-34.11
-26.04
-17.8
-10.36
-4.36
0.06
3.11
5.19
6.76
8.16
9.58
11.07
12.62
14.06
15.22
15.9
15.96
15.39
14.24
12.69
10.91
9.07
7.29
5.63
4.17
2.95
1.93
0.94
-0.29
-2.04
-4.38
-7.12
-9.84
-11.97
-13.03
-12.79
-11.35
-9.02
-6.28
-3.51
-1.04
0.98
2.41
3.16
3.13
2.26
0.49
-2.16
-5.65
-9.88
-14.72
-20
-25.44
-30.57
-34.72
-37.13
-37.19
-34.68
-29.96
-23.84
-17.36
-11.41
-6.46
-2.49
0.79
3.79
6.73
9.69
12.56
15.17
17.32
18.93
20.06
20.85
21.5
22.14
22.87
23.65
24.49
25.38
26.35
27.32
28.1
28.41
27.96
26.61
24.46
21.83
19.14
16.72
14.72
13.04
11.49
9.85
8.03
6.04
3.97
1.88
-0.24
-2.46
-4.87
-7.45
-10.05
-12.5
-14.69
-16.69
-18.7
-21
-23.81
-27.12
-30.71
-34.13
-36.78
-38.01
-37.2
-33.87
-27.92
-19.76
-10.33
-0.83
7.59
14.22
18.95
22.15
24.44
26.35
28.21
30.12
32.02
33.81
35.34
36.41
36.84
36.45
35.2
33.16
30.51
27.51
24.35
21.18
18.07
15.08
12.25
9.6
7.11
4.73
2.39
0.09
-2.12
-4.13
-5.85
-7.29
-8.49
-9.56
-10.65
-11.89
-13.49
-15.64
-18.5
-22.11
-26.28
-30.62
-34.6
-37.72
-39.6
-40.16
-39.55
-38.14
-36.43
-34.81
-33.45
-32.18
-30.42
-27.38
-22.39
-15.19
-6.15
3.8
13.51
21.84
28.09
31.93
33.47
33.09
31.29
28.74
26.07
23.89
22.49
21.86
21.67
21.42
20.65
19.16
16.88
13.88
10.24
5.95
0.99
-4.53
-10.27
-15.67
-19.99
-22.57
-23
-21.26
-17.73
-13.01
-7.78
-2.59
2.16
6.24
9.5
11.8
13
12.97
11.7
9.34
6.18
2.61
-1.04
-4.52
-7.83
-11.08
-14.52
-18.4
-22.88
-28.01
-33.68
-39.55
-45.02
-49.27
-51.35
-50.4
-46.01
-38.34
-28.24
-16.97
-5.9
3.91
11.87
17.96
22.5
25.9
28.54
30.62
32.24
33.39
34.07
34.2
33.73
32.59
30.81
28.58
26.18
24.07
22.57
21.88
21.89
22.27
22.53
22.19
20.95
18.71
15.7
12.29
8.94
5.96
3.45
1.26
-0.92
-3.42
-6.42
-9.87
-13.58
-17.23
-20.57
-23.54
-26.21
-28.8
-31.58
-34.77
-38.44
-42.4
-46.11
-48.8
-49.63
-47.97
-43.7
-37.3
-29.71
-22.05
-15.27
-9.88
-5.84
-2.82
-0.34
1.98
4.33
6.69
8.99
11.19
13.28
15.31
17.24
19.01
20.44
21.41
21.88
22
22.01
22.15
22.61
23.42
24.52
25.76
26.99
28.03
28.63
28.52
27.5
25.49
22.59
19.13
15.52
12.09
9.02
6.21
3.44
0.43
-2.91
-6.54
-10.21
-13.65
-16.68
-19.24
-21.49
-23.63
-25.91
-28.57
-31.8
-35.6
-39.7
-43.47
-45.95
-46.15
-43.36
-37.5
-29.19
-19.62
-10.15
-1.93
4.37
8.68
11.36
12.98
14.18
15.4
16.86
18.57
20.41
22.13
23.59
24.66
25.33
25.64
25.7
25.6
25.41
25.2
24.96
24.63
24.11
23.2
21.75
19.71
17.17
14.36
11.56
9
6.81
4.99
3.47
2.22
1.26
0.62
0.29
0.06
-0.33
-1.16
-2.59
-4.59
-6.94
-9.42
-11.82
-14.1
-16.3
-18.56
-20.99
-23.71
-26.84
-30.37
-34.14
-37.71
-40.36
-41.2
-39.47
-34.89
-27.77
-19.02
-9.84
-1.36
5.7
11.09
14.97
17.65
19.49
20.77
21.73
22.58
23.49
24.57
25.75
26.88
27.65
27.79
27.2
25.91
24.16
22.23
20.38
18.77
17.42
16.27
15.19
14.02
12.57
10.66
8.23
5.35
2.29
-0.56
-2.82
-4.31
-5.14
-5.6
-6.08
-6.88
-8.08
-9.57
-11.17
-12.75
-14.28
-15.93
-18
-20.78
-24.49
-29.1
-34.35
-39.67
-44.3
-47.36
-48.04
-45.72
-40.21
-31.81
-21.34
-10.01
0.9
10.35
17.79
23.23
27.07
29.85
31.98
33.6
34.58
34.71
33.83
31.94
29.24
26.02
22.62
19.29
16.25
13.63
11.48
9.77
8.42
7.3
6.3
5.33
4.29
3.13
1.84
0.49
-0.81
-1.86
-2.5
-2.68
-2.53
-2.34
-2.44
-3.07
-4.23
-5.74
-7.34
-8.82
-10.14
-11.43
-12.97
-15
-17.69
-21.1
-25.18
-29.77
-34.53
-38.91
-42.17
-43.56
-42.54
-39.02
-33.49
-26.81
-20.07
-14.09
-9.28
-5.61
-2.71
-0.1
2.62
5.67
9.07
12.71
16.37
19.76
22.6
24.67
25.87
26.25
25.94
25.1
23.82
22.1
19.83
16.92
13.33
9.17
4.65
0.1
-4.07
-7.46
-9.71
-10.56
-9.9
-7.78
-4.46
-0.41
3.81
7.61
10.53
12.32
12.93
12.44
11.04
8.93
6.28
3.24
-0.04
-3.4
-6.8
-10.26
-13.89
-17.79
-21.91
-25.89
-29.05
-30.52
-29.56
-25.81
-19.54
-11.59
-3.15
4.67
11.08
15.81
19.01
21.07
22.35
23.12
23.49
23.48
23.06
22.29
21.24
20.01
18.66
17.19
15.66
14.1
12.59
11.23
10.09
9.24
8.63
8.2
7.85
7.48
6.99
6.27
5.25
3.9
2.34
0.69
-0.91
-2.48
-4.24
-6.49
-9.56
-13.56
-18.35
-23.51
-28.46
-32.58
-35.35
-36.46
-35.88
-33.93
-31.21
-28.47
-26.34
-25.09
-24.5
-23.93
-22.54
-19.65
-15.01
-8.95
-2.17
4.4
10.03
14.32
17.23
18.98
19.88
20.21
20.16
19.87
19.41
18.9
18.41
17.97
17.54
16.97
16.17
15.1
13.84
12.56
11.38
10.34
9.44
8.6
7.78
7.01
6.33
5.81
5.41
4.98
4.35
3.34
1.87
-0.01
-2.13
-4.32
-6.41
-8.4
-10.39
-12.56
-15.16
-18.29
-22.01
-26.12
-30.27
-33.87
-36.2
-36.55
-34.42
-29.79
-23.13
-15.34
-7.42
-0.27
5.61
10.07
13.28
15.49
16.98
17.96
18.63
19.16
19.61
20
20.22
20.11
19.6
18.66
17.42
16.07
14.76
13.61
12.53
11.37
9.9
7.96
5.55
2.9
0.33
-1.87
-3.58
-4.95
-6.22
-7.64
-9.25
-10.92
-12.42
-13.6
-14.5
-15.3
-16.28
-17.6
-19.37
-21.59
-24.29
-27.4
-30.65
-33.5
-35.14
-34.74
-31.83
-26.58
-19.78
-12.63
-6.26
-1.33
2.08
4.36
6.11
7.79
9.63
11.58
13.54
15.34
16.86
18.02
18.73
18.9
18.46
17.5
16.15
14.7
13.39
12.46
11.97
11.85
11.87
11.69
10.93
9.32
6.8
3.55
-0.07
-3.61
-6.69
-9.16
-11.07
-12.74
-14.57
-16.92
-20.03
-23.82
-27.89
-31.53
-33.91
-34.29
-32.3
-28.03
-22.06
-15.27
-8.52
-2.51
2.41
6.19
9.03
11.22
13.07
14.83
16.62
18.45
20.19
21.61
22.46
22.57
21.93
20.7
19.14
17.56
16.2
15.18
14.45
13.88
13.24
12.27
10.77
8.61
5.81
2.6
-0.72
-3.78
-6.36
-8.44
-10.26
-12.24
-14.82
-18.23
-22.33
-26.56
-30.01
-31.69
-30.85
-27.34
-21.61
-14.66
-7.64
-1.51
3.25
6.7
9.27
11.45
13.61
15.85
18.03
19.93
21.39
22.42
23.11
23.57
23.79
23.65
23.01
21.83
20.28
18.68
17.38
16.57
16.16
15.81
15.08
13.66
11.46
8.62
5.43
2.13
-1.09
-4.2
-7.21
-10.16
-13.07
-15.98
-18.96
-22.15
-25.65
-29.43
-33.12
-36.03
-37.2
-35.74
-31.18
-23.77
-14.42
-4.49
4.63
12.07
17.56
21.38
24.05
26.04
27.56
28.6
29.09
28.97
28.35
27.35
26.08
24.6
22.89
20.95
18.81
16.62
14.59
12.89
11.61
10.7
9.95
9.06
7.73
5.73
3.06
-0.13
-3.53
-6.83
-9.8
-12.3
-14.38
-16.16
-17.84
-19.65
-21.82
-24.52
-27.74
-31.16
-34.14
-35.85
-35.53
-32.87
-28.09
-22.02
-15.66
-9.96
-5.43
-2.09
0.35
2.33
4.17
6.05
7.99
10.01
12.07
14.13
16.09
17.84
19.29
20.39
21.12
21.52
21.57
21.26
20.56
19.51
18.14
16.49
14.54
12.23
9.5
6.43
3.26
0.29
-2.17
-4.02
-5.4
-6.69
-8.29
-10.51
-13.38
-16.67
-19.9
-22.46
-23.8
-23.47
-21.3
-17.46
-12.36
-6.67
-1.06
3.88
7.81
10.67
12.6
13.83
14.61
15.15
15.51
15.69
15.59
15.11
14.22
12.96
11.41
9.68
7.86
6.03
4.33
2.91
1.97
1.63
1.89
2.67
3.71
4.8
5.8
6.64
7.33
7.87
8.18
8.13
7.62
6.55
4.96
2.96
0.69
-1.82
-4.68
-8.09
-12.22
-17.03
-22.14
-26.93
-30.61
-32.51
-32.3
-30.11
-26.55
-22.46
-18.76
-16.09
-14.75
-14.6
-15.15
-15.78
-15.89
-15.1
-13.28
-10.58
-7.3
-3.74
-0.14
3.34
6.58
9.49
11.95
13.86
15.24
16.18
16.84
17.32
17.65
17.71
17.36
16.44
14.9
12.85
10.45
7.91
5.38
2.92
0.52
-1.81
-4.07
-6.22
-8.17
-9.76
-10.8
-11.09
-10.49
-8.99
-6.74
-4.05
-1.35
0.9
2.23
2.25
0.69
-2.5
-7.13
-12.7
-18.47
-23.64
-27.5
-29.7
-30.29
-29.67
-28.38
-26.92
-25.56
-24.27
-22.77
-20.68
-17.67
-13.52
-8.21
-1.81
5.47
13.34
21.45
29.41
36.82
43.44
49.13
53.89
57.74
60.58
62.15
62.08
60.03
55.87
49.84
42.44
34.39
26.33
18.71
11.74
5.46
-0.19
-5.29
-9.89
-14.05
-17.8
-21.19
-24.23
-26.95
-29.31
-31.27
-32.8
-33.88
-34.56
-34.95
-35.27
-35.85
-36.99
-38.92
-41.67
-45.06
-48.68
-51.92
-54.14
-54.7
-53.19
-49.52
-44.02
-37.32
-30.22
-23.44
-17.45
-12.38
-8.13
-4.54
-1.46
1.13
3.24
4.91
6.18
7.15
7.92
8.59
9.18
9.7
10.14
10.5
10.81
11.11
11.43
11.8
12.2
12.61
13
13.31
13.51
13.59
13.55
13.4
13.15
12.78
12.25
11.43
10.2
8.44
6.16
3.49
0.67
-2.06
-4.59
-6.92
-9.21
-11.71
-14.63
-18.08
-21.92
-25.89
-29.56
-32.45
-34.13
-34.36
-33.18
-30.93
-28.12
-25.2
-22.33
-19.26
-15.4
-10.1
-2.77
6.75
18.23
31.04
44.32
57.07
68.33
77.32
83.51
86.77
87.34
85.75
82.66
78.69
74.3
69.78
65.23
60.63
55.89
50.9
45.56
39.86
33.83
27.55
21.14
14.73
8.47
2.53
-2.91
-7.71
-11.82
-15.35
-18.55
-21.65
-24.81
-28.05
-31.19
-34.03
-36.45
-38.48
-40.26
-42.01
-43.89
-45.99
-48.41
-51.24
-54.52
-58.13
-61.59
-64.11
-64.67
-62.45
-57.14
-49.13
-39.52
-29.73
-21.1
-14.6
-10.67
-9.33
-10.2
-12.6
-15.43
-17.28
-16.69
-12.52
-4.35
7.35
21.31
35.97
49.8
61.65
70.84
77.11
80.46
81.13
79.5
76.09
71.4
65.83
59.68
53.12
46.3
39.4
32.61
26.14
20.09
14.55
9.5
4.92
0.81
-2.79
-5.88
-8.56
-11.04
-13.67
-16.77
-20.51
-24.77
-29.23
-33.46
-37.13
-40.15
-42.67
-45.02
-47.49
-50.31
-53.62
-57.46
-61.72
-66.06
-69.8
-71.98
-71.61
-67.98
-61.03
-51.39
-40.27
-28.97
-18.59
-9.79
-2.81
2.41
6.13
8.73
10.71
12.74
15.45
19.27
24.28
30.16
36.29
41.98
46.64
49.86
51.51
51.71
50.73
48.9
46.56
43.91
40.93
37.39
32.95
27.37
20.68
13.24
5.74
-1
-6.29
-9.66
-11.02
-10.59
-8.78
-6.12
-3.1
-0.15
2.31
3.98
4.63
4.2
2.74
0.38
-2.79
-6.87
-12.12
-18.84
-27.07
-36.3
-45.32
-52.51
-56.28
-55.57
-50.18
-40.79
-28.62
-15.08
-1.42
11.49
23.13
33.27
41.82
48.8
54.19
57.99
60.21
60.93
60.28
58.44
55.53
51.63
46.77
41.04
34.62
27.9
21.31
15.28
10.06
5.67
1.91
-1.44
-4.54
-7.36
-9.63
-10.95
-10.85
-9.02
-5.34
-0.07
6.24
12.84
18.91
23.82
27.27
29.39
30.71
31.96
33.79
36.5
39.84
43.12
45.35
45.65
43.55
39.33
34.1
29.53
27.22
27.99
31.46
36.02
39.4
39.52
35.22
26.78
15.8
4.61
-4.5
-10.04
-11.69
-10.32
-7.65
-5.7
-6.15
-9.77
-16.09
-23.65
-30.64
-35.59
-37.98
-38.06
-36.71
-34.86
-33.09
-31.55
-30.18
-29.12
-28.85
-30.17
-33.86
-40.34
-49.42
-60.21
-71.17
-80.4
-86.04
-86.68
-81.68
-71.23
-56.35
-38.55
-19.5
-0.72
16.7
32.18
45.68
57.43
67.72
76.76
84.69
91.71
98.11
104.26
110.54
117.05
123.69
130.29
136.77
143.19
149.48
154.98
158.29
157.7
152.01
141.36
127.46
112.83
99.61
88.45
78.29
67.14
53.39
36.67
18.04
-0.68
-17.86
-32.67
-45.28
-56.52
-67.45
-79.01
-91.86
-106.21
-121.66
-137.06
-150.62
-160.41
-164.96
-163.8
-157.58
-147.86
-136.51
-125.21
-115.24
-107.32
-101.66
-97.97
-95.49
-93.19
-90.19
-86.06
-80.89
-75.15
-69.43
-64.03
-58.88
-53.81
-48.93
-44.94
-42.9
-43.77
-47.59
-53.17
-58.2
-59.93
-56.06
-45.48
-28.44
-6.23
19.34
46.52
73.81
100.07
124.29
145.77
163.9
178.22
188.36
193.9
194.65
190.67
182.58
171.33
158.12
144.01
129.72
115.74
102.36
89.93
78.75
68.89
60.02
51.41
42.27
32.15
21.12
9.69
-1.53
-12.3
-22.83
-33.56
-44.65
-55.6
-65.23
-72.15
-75.51
-75.39
-72.93
-69.78
-67.38
-66.45
-66.86
-67.9
-68.8
-69.04
-68.47
-67.21
-65.57
-63.97
-63.02
-63.28
-65.16
-68.58
-73.04
-77.78
-82.2
-86.07
-89.59
-93.03
-96.46
-99.59
-102.03
-103.5
-104.1
-104.31
-104.72
-105.74
-107.43
-109.5
-111.51
-113.07
-113.98
-114.33
-114.62
-115.67
-118.52
-124.14
-132.96
-144.56
-157.67
-170.57
-181.74
-190.42
-196.73
-201.44
-205.2
-208.03
-208.91
-206.15
-198.01
-183.44
-162.63
-136.87
-108.16
-78.53
-49.8
-23.44
-0.86
16.59
27.81
32.42
31.09
25.48
17.61
9.13
0.91
-6.86
-14.07
-20.03
-23.36
-22.34
-15.67
-3.01
14.72
35.77
58.03
79.56
98.96
115.38
128.43
137.82
143.13
143.8
139.34
129.78
115.92
99.39
82.16
65.99
51.89
40.18
30.78
23.72
19.22
17.51
18.38
20.71
22.56
21.8
16.99
8.32
-2.27
-11.58
-16.41
-14.83
-6.96
5.12
18.26
29.52
37.06
40.47
40.49
38.43
35.49
32.52
29.83
27.41
25.13
23.03
21.41
20.75
21.66
24.49
29.27
35.72
43.49
52.32
62.09
72.46
82.63
91.23
96.62
97.52
93.59
85.66
75.5
65.09
55.94
48.71
43.16
38.54
34.03
29.03
23.2
16.47
8.86
0.59
-7.88
-15.91
-22.81
-28.11
-31.73
-34.11
-36.01
-38.19
-41.06
-44.51
-47.87
-50.21
-50.48
-47.72
-41.2
-30.57
-15.99
1.7
21.15
40.7
58.89
74.79
88.17
99.27
108.57
116.54
123.53
129.93
136.13
142.47
148.96
154.97
159.26
160.39
157.27
149.6
138.07
124.24
110.06
97.41
87.54
80.91
77.12
75.09
73.4
70.74
66.25
59.79
51.97
43.76
36.14
29.7
24.46
20.01
15.87
11.71
7.55
3.66
0.24
-2.71
-5.51
-8.67
-12.6
-17.38
-22.68
-27.76
-31.68
-33.56
-32.86
-29.51
-24
-17.17
-10.07
-3.62
1.51
5.07
7.26
8.58
9.75
11.3
13.51
16.26
19.06
21.32
22.41
21.91
19.52
15.12
8.74
0.63
-8.71
-18.51
-27.87
-35.92
-42.08
-46.2
-48.46
-49.22
-48.69
-46.96
-44.02
-40.04
-35.45
-30.94
-27.26
-24.93
-24.11
-24.6
-26.05
-28.14
-30.78
-34.02
-37.9
-42.35
-47.09
-51.68
-55.61
-58.33
-59.33
-58.17
-54.6
-48.6
-40.46
-30.78
-20.44
-10.31
-1.08
6.95
13.84
19.89
25.41
30.6
35.5
39.95
43.69
46.47
48.1
48.56
47.9
46.18
43.43
39.56
34.44
28.09
20.84
13.41
6.72
1.65
-1.41
-2.66
-2.81
-2.64
-2.7
-3.25
-4.34
-6.13
-8.97
-13.3
-19.33
-26.72
-34.52
-41.5
-46.76
-49.98
-51.58
-52.33
-52.96
-53.87
-55.18
-56.9
-59.08
-61.89
-65.29
-68.81
-71.58
-72.58
-71.12
-67.31
-62.11
-56.96
-53.23
-51.6
-51.85
-53.01
-53.77
-52.93
-49.87
-44.63
-37.85
-30.46
-23.31
-17
-11.8
-7.68
-4.53
-2.23
-0.61
0.61
1.83
3.57
6.37
10.52
16.07
22.67
29.67
36.21
41.54
45.06
46.54
46.18
44.43
41.92
39.18
36.52
34
31.54
29.01
26.28
23.33
20.19
16.98
13.83
10.9
8.29
6.04
4.07
2.24
0.37
-1.68
-3.95
-6.26
-8.29
-9.57
-9.57
-7.9
-4.42
0.58
6.45
12.3
17.3
20.9
23.02
23.92
24.03
23.77
23.36
22.84
22.17
21.33
20.41
19.51
18.72
18.05
17.4
16.72
15.98
15.27
14.7
14.33
14.1
13.78
13.14
11.99
10.34
8.38
6.4
4.6
3.08
1.75
0.45
-0.9
-2.32
-3.72
-5.04
-6.3
-7.68
-9.38
-11.59
-14.33
-17.44
-20.64
-23.63
-26.19
-28.24
-29.91
-31.45
-33.21
-35.51
-38.47
-41.96
-45.51
-48.44
-50.02
-49.71
-47.41
-43.47
-38.64
-33.8
-29.73
-26.87
-25.31
-24.78
-24.86
-25.02
-24.8
-23.82
-21.85
-18.83
-14.9
-10.36
-5.54
-0.82
3.59
7.61
11.31
14.77
18.06
21.16
24.05
26.71
29.16
31.53
33.92
36.37
38.78
40.94
42.62
43.65
43.95
43.55
42.53
40.98
38.98
36.59
33.9
31.05
28.15
25.28
22.43
19.62
16.88
14.33
12.13
10.42
9.2
8.29
7.45
6.49
5.44
4.62
4.52
5.65
8.25
12.16
16.82
21.41
24.95
26.67
26.05
22.96
17.54
10.08
0.98
-9.19
-19.62
-29.44
-37.79
-44.15
-48.41
-50.65
-50.87
-48.67
-43.24
-33.93
-20.95
-5.85
8.6
19.14
23.24
19.9
10.01
-3.98
-18.88
-31.6
-39.93
-43.02
-41.36
-36.4
-30.05
-24.09
-19.63
-16.94
-15.55
-14.6
-13.17
-10.62
-6.71
-1.75
3.45
7.72
9.86
9.22
5.92
1.08
-3.64
-6.5
-6.31
-2.75
3.71
11.97
20.81
29.04
35.77
40.37
42.55
42.27
39.78
35.5
29.92
23.52
16.6
9.38
1.92
-5.71
-13.33
-20.6
-26.98
-31.91
-34.97
-35.97
-35.05
-32.63
-29.25
-25.44
-21.63
-18.1
-14.95
-12.06
-9.19
-6.02
-2.31
1.89
6.28
10.25
13.16
14.44
13.83
11.35
7.27
1.98
-4.03
-10.24
-16.13
-21.14
-24.74
-26.42
-25.93
-23.26
-18.78
-13.05
-6.68
-0.15
6.37
12.87
19.46
26.16
32.81
39.04
44.41
48.51
51.1
52.13
51.72
50.07
47.47
44.19
40.47
36.53
32.52
28.56
24.79
21.31
18.24
15.68
13.68
12.19
10.99
9.78
8.2
6.04
3.31
0.22
-2.91
-5.8
-8.39
-10.91
-13.71
-17.15
-21.38
-26.32
-31.56
-36.48
-40.28
-42.11
-41.26
-37.34
-30.47
-21.37
-11.16
-1.11
7.73
14.83
20.17
24.18
27.47
30.56
33.66
36.69
39.24
40.85
41.13
39.95
37.5
34.23
30.65
27.19
24.08
21.38
19.07
17.12
15.57
14.35
13.34
12.31
10.99
9.18
6.79
3.95
0.89
-2.11
-4.83
-7.18
-9.17
-10.92
-12.56
-14.26
-16.23
-18.63
-21.58
-25.04
-28.72
-32.04
-34.25
-34.63
-32.72
-28.52
-22.55
-15.67
-8.81
-2.73
2.21
5.95
8.76
10.92
12.66
14.07
15.18
16.04
16.68
17.23
17.74
18.27
18.8
19.28
19.68
19.97
20.13
20.08
19.72
18.91
17.54
15.59
13.19
10.53
7.8
5.14
2.59
0.12
-2.33
-4.81
-7.35
-9.93
-12.54
-15.13
-17.66
-20.11
-22.53
-25.06
-27.87
-31.15
-34.92
-38.89
-42.42
-44.64
-44.7
-42.07
-36.88
-29.91
-22.39
-15.58
-10.37
-7.03
-5.16
-4
-2.69
-0.58
2.67
7.05
12.32
18.1
23.94
29.47
34.42
38.64
42.13
44.86
46.78
47.8
47.78
46.52
43.85
39.58
33.53
25.59
15.76
4.27
-8.32
-21.15
-33.29
-43.92
-52.55
-59.18
-64.11
-67.83
-70.84
-73.35
-75.36
-76.5
-76.12
-73.33
-67.28
-57.5
-44.22
-28.54
-12.18
3.03
15.78
25.69
33.22
39.27
44.68
49.74
54.11
57.18
58.36
57.53
55.06
51.61
47.85
44.3
41.24
38.83
37.17
36.37
36.47
37.47
39.1
40.83
41.97
41.86
39.99
36.24
30.85
24.34
17.41
10.66
4.49
-0.92
-5.6
-9.75
-13.67
-17.76
-22.36
-27.6
-33.29
-38.78
-43.12
-45.32
-44.72
-41.18
-35.26
-27.93
-20.41
-13.75
-8.64
-5.3
-3.58
-2.99
-2.92
-2.86
-2.48
-1.77
-0.93
-0.27
-0.11
-0.64
-1.83
-3.38
-4.82
-5.66
-5.57
-4.53
-2.85
-1.08
0.18
0.38
-0.78
-3.38
-7.17
-11.72
-16.4
-20.6
-23.8
-25.73
-26.45
-26.34
-25.88
-25.55
-25.59
-25.95
-26.36
-26.5
-26.12
-25.2
-24.01
-22.93
-22.38
-22.47
-22.88
-22.91
-21.54
-17.76
-10.84
-0.59
12.5
27.25
41.98
54.9
64.48
69.75
70.56
67.6
62.18
55.88
50.03
45.56
42.85
41.83
42.18
43.53
45.58
48.07
50.58
52.39
52.64
50.55
45.8
38.73
30.21
21.27
12.77
5.18
-1.43
-6.99
-11.19
-13.65
-14.09
-12.7
-10.35
-8.23
-7.28
-7.83
-9.46
-11.28
-12.56
-13.1
-13.38
-14.25
-16.46
-20.24
-25.22
-30.58
-35.41
-38.87
-40.41
-39.85
-37.31
-33.05
-27.43
-20.82
-13.61
-6.14
1.3
8.36
14.5
19.1
21.58
21.84
20.34
18.16
16.74
17.37
20.73
26.67
34.3
42.38
49.64
55.21
58.6
59.68
58.64
55.96
52.49
49.23
47.22
47.18
49.39
53.55
58.98
64.81
70.23
74.59
77.25
77.39
74.07
66.61
54.97
40.26
24.63
10.84
1.44
-2.06
0.38
7.52
17.33
27.59
36.41
42.32
44.23
41.59
34.59
24.33
12.87
2.64
-4.48
-7.81
-8.15
-7.37
-7.49
-9.63
-13.48
-17.46
-19.85
-19.88
-18.19
-16.48
-16.69
-20.05
-26.68
-35.78
-46.11
-56.72
-67.19
-77.53
-87.85
-98.02
-107.43
-115.17
-120.17
-121.41
-118.26
-110.58
-98.83
-84.19
-68.12
-52.11
-37.56
-25.74
-17.57
-13.68
-14.12
-18.25
-24.82
-32.11
-38.21
-41.61
-41.65
-38.8
-34.56
-30.87
-29.3
-30.39
-33.35
-36.44
-37.72
-35.79
-30.18
-21.31
-10.09
2.47
15.43
27.88
38.64
46.23
49.28
46.87
38.92
26.25
10.43
-6.71
-23.37
-38.17
-50.37
-59.9
-67.24
-73.1
-78.02
-82
-84.41
-84.04
-79.64
-70.52
-57.07
-40.73
-23.61
-7.71
5.67
16.22
24.52
31.59
38.4
45.53
52.97
60.39
67.29
73.13
77.34
79.39
78.84
75.32
68.59
58.61
45.8
31.27
16.83
4.66
-3.39
-6.48
-5.05
-0.58
4.92
9.73
12.82
13.88
13.17
11.04
7.75
3.31
-2.2
-8.66
-15.93
-23.8
-32.08
-40.54
-48.95
-57.21
-65.33
-73.34
-81.18
-88.58
-95.09
-100.2
-103.51
-104.8
-103.96
-100.95
-95.73
-88.19
-78.26
-65.88
-51.25
-34.79
-17.11
0.89
18.13
33.56
46.43
56.18
62.47
65.23
64.81
62.05
58.13
54.25
51.31
49.33
47.39
43.96
37.5
27.28
13.94
-0.41
-12.61
-19.34
-18.36
-9.59
4.56
19.64
30.57
33.48
27.07
13
-4.88
-22.25
-35.62
-43.12
-44.46
-40.54
-32.7
-22.6
-12.05
-3.01
2.74
4.13
1.13
-5.3
-13.48
-21.41
-27.41
-30.44
-30.29
-27.58
-23.48
-19.36
-16.39
-15.11
-15.33
-16.27
-17.03
-16.99
-16.15
-15.08
-14.5
-14.88
-16.17
-17.89
-19.46
-20.59
-21.5
-22.78
-24.98
-28.3
-32.38
-36.38
-39.21
-39.98
-38.22
-33.99
-27.87
-20.69
-13.33
-6.55
-0.87
3.5
6.55
8.55
10
11.61
14.22
18.48
24.64
32.35
40.79
48.84
55.52
60.19
62.62
62.86
61.06
57.39
52.12
45.73
38.94
32.61
27.5
24.06
22.37
22.24
23.34
25.29
27.64
29.78
31.06
30.84
28.79
25.01
20.05
14.56
9.1
3.8
-1.47
-6.86
-12.34
-17.56
-21.83
-24.43
-24.93
-23.27
-19.76
-15.05
-9.81
-4.76
-0.56
2.13
2.74
1
-2.94
-8.4
-14.26
-19.3
-22.51
-23.39
-22
-18.85
-14.52
-9.5
-4.1
1.47
7
12.08
16.23
18.97
19.96
19.12
16.62
12.72
7.78
2.22
-3.42
-8.49
-12.3
-14.37
-14.51
-12.89
-10.01
-6.46
-2.9
0.17
2.36
3.35
2.98
1.37
-1.01
-3.39
-5.02
-5.45
-4.73
-3.33
-1.88
-0.78
-0.05
0.64
1.66
3.15
4.93
6.51
7.4
7.32
6.34
4.77
3
1.34
-0.13
-1.55
-3.21
-5.44
-8.37
-11.83
-15.36
-18.3
-20.05
-20.17
-18.59
-15.54
-11.52
-7.03
-2.52
1.7
5.54
8.99
12.15
15.09
17.87
20.46
22.84
24.92
26.7
28.23
29.55
30.71
31.74
32.62
33.32
33.77
33.92
33.7
33.04
31.87
30.18
28.01
25.44
22.56
19.55
16.52
13.63
10.96
8.57
6.43
4.44
2.51
0.52
-1.52
-3.59
-5.68
-7.8
-10.05
-12.49
-15.19
-18.09
-21.05
-23.83
-26.19
-27.85
-28.65
-28.59
-27.79
-26.52
-25.1
-23.88
-23.14
-22.98
-23.37
-24.1
-24.9
-25.4
-25.33
-24.52
-23.01
-20.92
-18.35
-15.32
-11.74
-7.5
-2.62
2.64
7.89
12.66
16.64
19.72
22.06
23.89
25.38
26.53
27.13
26.89
25.51
22.81
18.77
13.51
7.29
0.51
-6.41
-12.9
-18.39
-22.28
-24.05
-23.23
-19.55
-13.07
-4.3
5.83
16.02
24.98
31.63
35.3
35.8
33.29
28.03
20.24
10.08
-2.22
-16.21
-31.11
-45.83
-59.18
-70.06
-77.78
-82.1
-83.19
-81.25
-76.5
-69.12
-59.44
-48
-35.46
-22.53
-9.87
2.04
12.96
22.74
31.23
38.28
43.93
48.44
52.34
56.26
60.52
65.01
69.15
72.24
73.67
73.28
71.35
68.51
65.41
62.37
59.29
55.83
51.71
46.92
41.68
36.48
31.89
28.33
25.94
24.51
23.6
22.88
22.16
21.32
20.38
19.44
18.61
17.77
16.64
14.81
12.03
8.3
3.75
-1.38
-6.83
-12.2
-17
-20.68
-22.79
-23.17
-22.19
-20.64
-19.32
-18.56
-17.82
-15.93
-11.67
-4.57
4.71
14.44
22.47
27.08
27.37
23.35
15.48
4.24
-10.05
-26.99
-45.66
-64.28
-80.51
-92.16
-97.94
-97.97
-93.52
-86.22
-77.28
-66.94
-54.71
-40.12
-23.45
-5.95
10.46
23.95
33.43
38.69
40.15
38.44
33.99
27.12
18.3
8.44
-1.27
-9.66
-15.94
-19.9
-21.81
-22.12
-21.32
-19.79
-17.77
-15.52
-13.36
-11.7
-10.87
-11.1
-12.39
-14.49
-17.11
-19.98
-22.85
-25.66
-28.49
-31.5
-34.81
-38.32
-41.7
-44.47
-46.15
-46.28
-44.49
-40.42
-33.72
-24.21
-12.05
2
16.67
30.34
41.47
49.03
52.78
53.07
50.7
46.55
41.37
35.73
30.12
24.92
20.44
16.88
14.23
12.31
10.98
10.36
10.84
12.86
16.58
21.63
27.04
31.63
34.3
34.46
32.06
27.58
21.86
15.95
10.93
7.54
6.11
6.31
7.18
7.46
6.02
2.43
-2.93
-8.91
-14.21
-17.82
-19.44
-19.51
-19.05
-19.18
-20.72
-23.99
-28.82
-34.67
-40.88
-46.85
-52.03
-55.84
-57.74
-57.19
-53.87
-47.82
-39.59
-30.16
-20.64
-11.98
-4.61
1.51
6.74
11.48
16.01
20.34
24.4
28.1
31.42
34.38
37.02
39.29
40.98
41.87
41.75
40.57
38.44
35.56
32.16
28.43
24.54
20.68
17.18
14.37
12.63
12.05
12.44
13.33
14.12
14.35
13.84
12.74
11.36
10.04
9
8.32
8.08
8.32
9.11
10.47
12.25
14.05
15.33
15.47
13.97
10.73
6
0.44
-5.03
-9.42
-11.94
-12.1
-9.96
-6
-1.06
3.92
8.13
11.12
12.87
13.74
14.3
15
16.17
17.89
20.02
22.35
24.68
26.8
28.58
29.93
30.75
30.95
30.39
28.82
25.95
21.49
15.38
7.89
-0.31
-8.25
-14.89
-19.4
-21.4
-21.01
-18.78
-15.5
-12.01
-8.95
-6.63
-4.99
-3.74
-2.53
-1.09
0.61
2.36
3.83
4.75
4.97
4.54
3.61
2.39
1.01
-0.45
-1.93
-3.43
-4.88
-6.15
-7.02
-7.14
-6.11
-3.63
0.35
5.57
11.49
17.46
22.88
27.35
30.63
32.54
32.85
31.34
27.96
22.95
16.93
10.77
5.37
1.32
-1.18
-2.33
-2.51
-2.11
-1.46
-0.67
0.26
1.54
3.42
6.16
9.87
14.31
18.91
22.78
25.03
24.98
22.5
17.98
12.24
6.19
0.6
-4.17
-8.14
-11.54
-14.64
-17.56
-20.25
-22.47
-24.02
-24.75
-24.63
-23.68
-21.89
-19.19
-15.52
-10.89
-5.5
0.17
5.46
9.67
12.35
