64
-0
-0
-0
-0
-0
-0
-0
-0
-0
-0
0
0.01
0.01
-0
-0.03
-0.05
-0.05
0
0.13
0.36
0.66
1.01
1.37
1.72
2.06
2.4
2.79
3.24
3.8
4.42
5.06
5.66
6.2
6.68
7.15
7.68
8.31
9.14
10.09
11.04
11.88
12.56
13.14
13.76
14.65
15.96
17.91
20.32
22.9
25.38
27.58
29.57
31.68
34.32
37.81
42.54
48.15
54.1
59.83
64.97
69.58
74.14
79.34
85.71
93.76
103
112.62
121.73
129.77
136.75
143.3
150.75
157.77
166.64
177.95
191.79
206.97
220.57
228.25
225.36
208.53
176.87
132.76
80.05
23.07
-34.94
-92.44
-149.16
-205.23
-260.37
-313.74
-363.87
-409.83
-450.91
-486.5
-515.74
-537.23
-549.22
-549.96
-538.37
-514.21
-478.68
-433.89
-382.45
-327
-269.79
-212.58
-156.63
-103.01
-52.56
-6.22
35.17
71
100.99
125.28
144.31
158.74
169.22
176.35
180.52
182.06
181.3
178.59
174.33
168.91
162.65
155.74
148.29
140.42
132.32
124.25
116.45
109.07
102.03
95.1
87.98
80.52
72.82
65.29
58.43
52.66
48.03
44.19
40.48
36.19
30.92
24.8
18.5
13.02
9.27
7.6
7.55
7.96
7.33
4.52
-0.64
-7.16
-13.23
-16.88
-16.91
-13.55
-8.47
-4.39
-4.1
-9.35
-19.81
-32.46
-42.01
-42.67
-31
-8.03
19.97
43.71
54.79
49.39
29.85
3
-23.37
-43.07
-52.56
-50.11
-34.9
-7.95
26.29
59.08
79.67
80.46
62.07
34.28
11.37
4.26
13.68
29.99
39.78
34.93
18.32
1.65
-3.09
7.54
25.78
37.99
34.07
14.78
-8.67
-22.19
-18.17
-0.44
18.64
26.61
18.33
-1.35
-21.65
-32.99
-32.04
-22.31
-10.32
-1.42
2.58
2.71
0.56
-3.25
-9.04
-16.24
-22.77
-25.15
-20.14
-7.07
11.3
29.53
41.69
43.7
34.88
18.15
-0.85
-15.73
-20.98
-13.64
5.63
31.95
57.11
72.45
72.52
58.3
37.09
18.52
8.86
7.36
7.01
-0.19
-17.16
-38.86
-55.51
-58.97
-48.49
-30.78
-15.52
-9.2
-11.36
-16.65
-20.03
-21.25
-24.32
-33.82
-50.23
-68.66
-80.83
-79.96
-64.56
-39.04
-10.54
14.93
34.99
50.29
61.5
67.01
62.94
45.85
16.18
-19.54
-50.69
-67.31
-65.17
-47.94
-24.64
-4.26
9
16.96
24.56
34.46
44.51
48.79
42.4
25.27
2.8
-17.75
-32.3
-42.31
-53.09
-69.41
-91.63
-114.37
-129.02
-128.4
-108.5
-73.19
-32.77
0.36
16.83
13.93
-3.84
-27.39
-47.53
-58.81
-60.89
-56.65
-48.84
-37.92
-22.78
-3.02
18.61
36.43
45.31
44.65
40.26
41.58
55.91
83.54
117.48
147.98
168.58
179.44
185.71
192.79
201.76
208.14
204.8
186.4
152.67
107.83
57.54
5.95
-45.08
-94.49
-140.42
-179.9
-210.02
-229.55
-239.16
-240
-232.12
-214.03
-183.62
-139.93
-84.58
-21.74
42.96
103.67
155.14
193.46
216.75
226.41
227.31
226.43
229.71
238.71
249.32
253.91
245.55
221.54
184.93
142.22
99.52
59.64
21.37
-18.79
-64.25
-116.62
-174.98
-235.87
-293.81
-341.98
-373.67
-384.08
-372.18
-340.88
-295.13
-239.61
-177.21
-110.39
-43.52
16.04
59.65
82.31
86.71
82.96
83.64
96.79
121.5
149.15
169.09
174.44
164.8
144.32
117.7
87.67
55.58
23.72
-3.54
-21.37
-28.2
-28.45
-31.65
-48.38
-85.13
-140.65
-206.22
-269.12
-316.77
-340.78
-338.51
-313.04
-271.31
-221.13
-168.63
-116.36
-63.5
-7.68
52.19
113.85
171.42
216.93
242.63
243.27
217.36
167.64
100.89
27.06
-42.04
-94.62
-121.16
-116.55
-81.68
-23.66
45.49
111.66
162.22
189.6
193.34
179.9
160.24
145.6
143.26
154.18
173.39
192.96
205.93
209.12
203.43
191.96
177.5
161.06
142.14
120.09
95.39
69.75
44.71
20.09
-6.14
-36.12
-69.39
-101.49
-125.5
-135.93
-132.41
-120.69
-109.82
-107.25
-115.1
-129.9
-145.48
-156.98
-162.51
-161.97
-154.69
-138.43
-110.97
-73.39
-31.67
5.12
28.59
35.08
27.55
13.84
2.77
0.41
8.46
24.48
43.85
60.03
66.46
59.34
40.36
16.97
0.03
-1.59
13.94
40.56
65.06
73.75
59.91
27.61
-10.85
-40.77
-51.54
-39.37
-5.45
44.02
100.14
153.57
196.48
223.42
232.43
225.18
196.38
149.66
94.59
40.38
-8.89
-52.27
-88.31
-114.17
-129.07
-133.87
-130.06
-121.73
-114.23
-112.05
-115.15
-122.17
-129.9
-134.35
-132.15
-121.2
-103.58
-84.53
-69.56
-61.02
-57.24
-53.92
-47.58
-38.06
-28.13
-22.17
-22.81
-29.1
-37.17
-43.7
-48.55
-54.84
-65.92
-81.42
-96.27
-102.83
-94.99
-71.45
-36.48
2.34
37.39
63.38
77.93
81.18
75.38
64.38
52.61
43.36
37.68
34.58
32.85
32.66
35.8
43.69
54.85
64.4
66.56
58.69
43.81
29.07
20.81
20.13
22
18.87
6.02
-15.48
-39.82
-60.5
-73.91
-80.1
-80.87
-77.02
-67.37
-50.45
-26.74
0.61
27.41
51.3
72.76
93.56
113.44
128.29
131.94
120.52
96.36
67.91
45.65
36.2
38.93
47.09
52.18
49.02
37.53
21.53
5.7
-6.57
-13.4
-13.72
-7.31
4.34
16.91
23.78
18.37
-2.73
-37.39
-78.34
-115.57
-140.01
-146.91
-137.12
-116
-90.45
-66.03
-45.4
-28.8
-15.63
-5.77
0.16
2.3
2.58
4.27
9.98
18.95
26.43
25.84
13
-11.13
-41.18
-70.77
-96.41
-118.69
-139.47
-158.1
-169.57
-166.28
-142.44
-97.77
-38.33
25.98
85.47
133.67
167.98
188.38
195.84
191.58
177.4
156.22
132.04
108.58
88.19
71.52
58.18
47.63
40.09
36.05
35.28
35.94
35.18
30.8
22.71
13.47
6.95
5.93
10.26
16.76
21.14
20.5
14.96
7.13
0.21
-4.01
-5.68
-6.02
-5.71
-4.24
-0.49
5.98
14.12
21.72
26.56
27.29
23.5
15.31
2.94
-12.98
-30.67
-46.79
-57.25
-59.3
-53.6
-44.72
-39.11
-41.62
-52.31
-65.91
-74.08
-69.6
-49.98
-18.63
16.6
46.51
63.29
62.43
43.3
9.17
-33.09
-73.63
-101.36
-106.77
-85.43
-40.31
18.2
75.27
116.62
133.35
124.33
95.27
55.08
11.68
-30.35
-69.36
-104.27
-132.14
-147.71
-145.54
-123.45
-85.02
-39.11
3.51
34.51
50.92
55.13
52.59
48.43
45.16
42.36
37.87
29.78
17.99
4.5
-7.49
-14.95
-16.42
-12.26
-4.25
5.42
15.1
24.19
32.73
40.4
46.05
47.64
43.23
31.89
14.24
-7.67
-30.55
-50.04
-61.14
-59.5
-43.33
-15.14
18.21
47.56
64.99
66.9
55.25
35.85
15.35
-1.5
-12.54
-16.81
-12.97
0.52
23.46
52.12
79.57
98.78
105.96
102.24
92.05
79.71
67.15
53.91
39.14
23.46
9.41
-0.31
-5.08
-7.6
-12.81
-25.04
-45.3
-70.27
-93.82
-109.8
-114.56
-108.21
-93.99
-76.74
-60.76
-48.03
-38.02
-28.96
-19.75
-11.55
-7.14
-8.76
-16.01
-25.42
-32.1
-32.28
-24.85
-11.49
4.74
20.89
34.92
45.6
52.34
55.39
56.58
59.05
65.82
77.68
92.25
105.2
113.18
116.34
118.36
123.77
134.16
145.92
151.21
141.55
112.56
66.94
14.12
-32.98
-63.11
-71.39
-61.41
-43.61
-30.23
-29.51
-41.99
-61.54
-80.16
-93.52
-103.48
-115.45
-132.93
-153.52
-169.65
-173.4
-162.58
-142.89
-124.5
-115.45
-116.5
-121.17
-120.28
-107.71
-83.2
-51.4
-18.44
10.67
32.94
46.86
51.6
47.37
36.16
22.14
10.57
5.59
8.24
15.76
22.88
24.59
18.8
7.28
-5.36
-13.93
-14.41
-5.1
13.07
37.08
62.41
83.51
94.49
90.23
68.43
31.76
-11.62
-50.34
-74.51
-80.38
-71.79
-57.46
-45.57
-39.3
-36.09
-30.69
-19.18
-1.45
19.19
38.57
54.54
68.28
82.9
101.05
122.47
143.47
158.16
160.25
145.06
110.79
58.93
-5.67
-75.37
-141.25
-194.93
-230.66
-246.62
-244.49
-228.13
-201.61
-168.24
-130.81
-92.66
-58.16
-31.59
-14.87
-6.09
-0.11
8.9
24.46
46.22
70.55
92.53
107.8
112.93
105.23
83.17
47.67
4.16
-37.3
-64.85
-69.84
-51.43
-17.38
19.74
49.14
66.99
77.27
87.76
103.65
122.85
135.76
130.08
97.92
41.01
-28.79
-94.01
-138.73
-155
-143.92
-112.24
-67
-12.34
49.64
115.82
179.26
229.24
253.34
242.99
197.99
128.1
49.58
-20.59
-69.92
-92.77
-89.56
-66.32
-31.39
6.2
38.42
58.9
63.55
51.26
22
-17.46
-55.99
-83.41
-96.85
-98.88
-93.73
-84.78
-74.42
-65.03
-59.28
-62.73
-77.3
-101.73
-130.33
-154.72
-166.64
-161.13
-138.29
-97.75
-50.6
-9.83
16.03
27.11
29.53
30.56
34.36
40.68
47.73
51
49.45
45.26
43.32
48.17
62.26
85.22
113.78
142.96
166.44
180.55
180.14
166.01
143.2
119.42
102.13
95.58
98.91
105.96
109.24
103.48
89
70.16
52.81
41
35.73
35.97
40.42
49.01
61.48
76.11
88.4
93.37
89.06
78.86
70.43
71.02
82.58
99.74
112.73
112.59
96.15
66.79
30.57
-8.6
-51.34
-100.94
-158.47
-218.06
-266.84
-289.49
-275.61
-225.74
-152.37
-75.56
-15.28
15.74
14.77
-12.68
-57.22
-109.53
-161.6
-205.82
-233.74
-236.85
-209.91
-154.56
-81
-5.83
53.1
82.69
78
42
-17.38
-90.44
-167.74
-240.43
-299.77
-337.67
-348.6
-331.64
-291.33
-236.72
-177.8
-121.92
-71.86
-26.4
17.34
61.93
108.16
155.01
200.09
239.84
269.77
284.93
280.93
255.13
207.45
140.87
61.42
-22.38
-100.32
-162.37
-200.59
-211.29
-196.24
-161.72
-115.99
-66.21
-16.56
31.81
78.63
122.74
161.48
191.3
209.47
214.7
206.85
185.73
150.67
101.7
41.7
-22.11
-78.87
-117.14
-128.92
-112.31
-71.6
-15.3
46.89
106.12
155.23
188.92
203.98
199.26
176.27
139.2
94.14
47.76
5.76
-28.06
-52
-66.08
-71.63
-70.33
-63.68
-52.74
-38.2
-21.17
-3.64
11.39
20.61
21.78
14.82
2.1
-12.37
-24.53
-31.93
-34.63
-35.02
-36.8
-43.03
-54.68
-70.22
-86.52
-100.24
-109.36
-113.48
-113.53
-110.74
-105.97
-99.58
-91.51
-81.2
-67.67
-49.46
-24.95
6.87
45.76
89.35
132.67
168.55
189.22
188.89
166.5
127.02
80.38
37.96
8.34
-5.77
-7.54
-3.27
1.43
4.23
6.05
9.07
14.18
19.54
21.31
16.01
2.82
-15.57
-33.92
-47.09
-52.73
-52.42
-50.93
-53.52
-62.84
-77.15
-90.73
-96.66
-90.65
-73.76
-52.01
-33.45
-23.95
-24.55
-31.12
-36.69
-35.11
-23.98
-5.05
17.81
41.42
65.04
89.34
113.33
131.99
136.7
119.27
77.73
19.92
-38.15
-78.82
-90.76
-73.84
-38.64
-0.73
26.58
36.77
30.63
13.66
-7.09
-24.92
-34.35
-31.65
-15.89
10.17
40.05
65.9
82.02
87.31
84.47
77.21
67.03
52.54
32.29
8.15
-13.25
-22.83
-14.06
12.2
46.53
75.01
86.53
78.95
60.21
43.58
39.37
48.53
62.38
68.13
56.84
28.6
-7.67
-39.44
-56.92
-57.05
-43.61
-24
-5.73
6.01
9
3.43
-8.74
-24.48
-40.74
-55.23
-66.47
-72.46
-69.5
-52.39
-17.09
35.37
96.53
152.41
188.74
196.97
177.67
139.72
96.41
60.6
41.32
42.32
62.05
94.06
128.26
153.1
159.13
142.5
106.56
60.46
15.14
-20.97
-44.22
-55.75
-59.74
-61.6
-66.64
-78.79
-99.42
-125.85
-151.38
-167.29
-166.77
-148.41
-117.7
-84.77
-60.21
-51.03
-58.74
-80.2
-110.1
-143.14
-174.94
-202.02
-221.53
-231.56
-231.66
-222.82
-206.91
-185.55
-159.44
-128.57
-93.2
-54.58
-15.1
22.41
55.29
81.29
98.66
106.02
102.8
89.7
69.27
46.25
27.09
18.07
22.58
39.54
63.61
87.83
107.05
119.95
128.15
133.09
133.41
124.99
103.87
69.71
27.43
-14.6
-48.52
-70.13
-79.65
-79.66
-72.83
-60.66
-44.55
-27.2
-12.73
-4.03
-0.04
4.79
18.07
44.53
81.79
120.13
146.56
151.45
133.07
98.29
58.73
25.32
4.3
-3.54
-1.06
7.53
18.27
27.69
32.94
32.23
25.81
16.12
6.39
-1.59
-8.99
-18.96
-33.94
-52.85
-70.67
-81.04
-80.49
-70.69
-57.26
-46.14
-39.76
-36.09
-30.91
-21.33
-8.34
3.8
10.42
9.86
4.74
0.33
1.35
9.15
21.25
33.12
40.97
43.58
42.43
40.3
39.55
41.21
44.92
49.36
52.87
53.89
51.36
45.13
36.43
27.77
22.35
22.78
29.85
41.67
53.81
60.61
57.12
41.11
14.41
-16.61
-42.38
-53.27
-43.23
-13.22
27.98
65.95
86
79.27
46.73
-1.34
-50.29
-87.6
-107.39
-110.34
-100.24
-80.23
-51.67
-16.24
21.1
51.57
66.02
59.92
36.68
6.44
-19
-32.11
-32.5
-25.39
-17.29
-12.3
-11.31
-13.07
-15.79
-17.73
-16.88
-11.18
-0.15
13.71
25.11
28.71
23.06
12.38
4.42
5.66
16.71
31.32
39.74
34.01
11.61
-24.58
-69.63
-119.6
-172.19
-224.76
-272.12
-306.27
-319.06
-306.63
-271.63
-222.27
-168.75
-118.92
-76.04
-39.52
-7.18
22.54
49.65
73.23
91.82
104.08
109.05
106.79
99.26
90.98
87.86
93.69
106.89
119.67
121.53
105.61
74.23
39
16.06
18.21
47.72
94.63
141.53
171.94
177.53
159.54
124.04
77.32
23.45
-35.88
-98.24
-157.74
-204.89
-229.33
-224.12
-190.65
-137.74
-76.65
-16.99
37.1
87.27
135.21
177.21
213.45
242.5
257.14
254.79
238.04
212.81
184.67
156.08
126.3
93.85
57.8
20.18
-13.26
-36.43
-45.88
-42.58
-31.65
-20.15
-14.41
-19.26
-36.68
-64.92
-100.35
-138.74
-176.3
-209.7
-235.54
-250.29
-251.42
-237.86
-210.46
-172.66
-129.97
-88.51
-53.3
-27.26
-11.2
-5.08
-8.7
-21.35
-40.99
-63.02
-80.24
-84.83
-71.75
-41.74
-1.98
36.94
65.98
81.32
84.91
81.9
77.11
73.03
70.29
68.8
68.54
69.12
69.13
66.15
57.94
44.15
26.46
7.77
-9.19
-22.67
-31.57
-34.91
-32.13
-23.4
-10.11
5.38
20.46
33.01
41.8
46.22
45.96
41.02
32.01
20.84
10.65
4.7
4.67
9.15
13.51
11.95
0.78
-18.93
-41.25
-57.98
-62.78
-54.45
-37.37
-18.41
-2.88
8.11
16.96
26.73
38.56
51.47
64.13
76.88
91.66
109.68
128.95
143.85
147.56
136.15
111.07
78.73
47.08
21.88
4.78
-6.23
-14.77
-24.18
-36.64
-52.95
-72.61
-93.86
-114.04
-130.34
-140.72
-144.32
-141.89
-135.25
-126.81
-118.91
-113.35
-110.51
-108.72
-104.46
-93.56
-73.27
-43.65
-7.85
29.29
63.54
92.76
116.8
135.73
148.23
151.49
143.07
123.07
95.14
65.69
41.46
27.16
24.31
31.18
43.54
55.69
61.49
55.92
37.06
7.14
-27.49
-57.75
-74.65
-72.53
-51.31
-16.97
20.12
48.28
58.16
45.74
13.64
-29.65
-72.37
-103.2
-114.97
-106.85
-84.4
-57.06
-33.92
-19.75
-13.5
-9.86
-3.15
8.91
24.32
38.79
49.09
55.12
59.48
64.95
72.11
78.65
80.67
75.23
62.01
43.51
23.59
5.92
-7.01
-14.24
-16.45
-16.27
-17.79
-25.06
-39.53
-58.78
-77.35
-90.09
-95.58
-97.1
-100.03
-107.41
-116.8
-120.46
-109.09
-76.61
-23.6
42.59
110.7
169.15
208.85
224.07
212.52
175.64
119.58
55.68
-1.26
-37.3
-45.02
-26.97
5.51
37.78
58.67
64.92
60.68
52.9
46.64
42.91
40.65
40.34
45.83
62.04
90.47
125.88
156.93
171.58
163.01
133.1
90.87
46.96
7.95
-26.58
-62.26
-105.55
-158.55
-216.67
-269.68
-305.85
-316.23
-297.76
-253.91
-193.37
-127.88
-69.38
-27.09
-5.16
-1.57
-9.52
-20.64
-28.61
-30.85
-27.84
-20.38
-7.43
13.85
45.9
87.59
133.27
174.38
203.19
215.59
211.74
194.03
164.77
125.79
79.62
30.91
-14.05
-49.54
-73.23
-87.03
-95.76
-104.41
-115.66
-129.26
-143.13
-154.57
-161.05
-160.24
-150.11
-129.83
-101.23
-69.51
-42.15
-25.81
-22.83
-29.49
-37.48
-38.07
-26.49
-3.92
23.92
50.02
69.28
80.03
83.47
82.44
79.87
77.85
76.85
75.35
69.78
55.29
27.82
-13.7
-65.53
-119.07
-163.25
-188.4
-189.64
-168.62
-132.45
-90.52
-50.59
-16.18
13.56
41.36
68.1
90.22
100.46
91.73
62.15
18.23
-25.98
-54.26
-55.41
-28.98
14.27
57.71
86.74
95.08
86.28
69.93
55.63
48.41
47.57
48.8
47.51
41.14
29.13
11.74
-11.03
-39.1
-70.69
-101.15
-123.1
-128.63
-112.94
-77.1
-28.92
19.24
55.13
71.89
71.02
61.32
54.17
57.24
71.06
89.67
105.3
113.8
116.99
120.19
127.05
135.53
138.38
128.19
103.44
70.97
42.36
26.99
25.85
31.3
32.42
22.38
2.69
-18.93
-34.65
-42.05
-44.99
-49.33
-57.53
-66.58
-71.01
-68.16
-61.37
-57.93
-63.18
-75.67
-87.14
-87.82
-73.25
-47.66
-21.33
-4.11
0.16
-5.02
-11.82
-13.09
-5.84
8.63
26.53
44.09
58.74
68.91
73.31
70.51
59.54
40.66
15.81
-11.67
-37.71
-58.37
-70.57
-73.06
-67.12
-56.6
-46.77
-42.03
-43.86
-50.1
-56.25
-58.08
-53.91
-45.25
-35.31
-26.78
-20.35
-15.05
-9.94
-5.51
-3.18
-3.44
-4.16
-1.01
9.86
28.66
50.67
67.94
73.13
63.08
40.1
10.75
-17
-36.66
-44.56
-39.84
-23.86
0.31
28
53.28
69.87
73.04
61.84
39.93
14.36
-7.56
-21.35
-26.69
-26.2
-22.51
-16.34
-6.82
6.19
20.04
29.6
30.32
21.63
7.64
-5.54
-14.13
-18.74
-22.82
-28.49
-33.67
-33.34
-23.8
-6.48
12.53
26.81
34.32
38.51
44.74
54.92
64.91
67.24
56.92
36.47
15.71
5.97
12.79
31.82
51.07
57.82
46.24
20.52
-7.63
-25.94
-28.23
-16.76
0.02
12.99
16.99
12.65
4.67
-1.84
-3.8
-1.11
4.41
10.58
15.92
19.48
20.46
18.14
12.22
3.31
-7.35
-18.35
-29.14
-39.83
-50.31
-59.31
-64.24
-62.43
-53.02
-38.6
-24.66
-17.33
-19.93
-30.54
-42.4
-47.15
-39.17
-18.68
8.06
31.5
42.96
37.68
16.6
-14.43
-47.12
-73.7
-89.48
-93.9
-89.75
-81.09
-71.47
-62.87
-56.36
-53.12
-54.81
-62.35
-74.02
-84.6
-86.65
-73.74
-43.6
0.35
50.26
96.75
131.81
150.57
152.09
139.08
117.01
92.47
70.92
54.75
42.76
31.58
18.42
3.09
-12.17
-24.81
-34.17
-42.19
-51.61
-62.98
-73.28
-76.9
-68.85
-48.01
-18.3
12.99
38.73
54.93
61.74
61.82
57.83
50.63
39.4
23.48
4.4
-13.77
-25.9
-28.37
-21.23
-8.36
4.5
12.56
13.94
9.64
2.28
-5.6
-12.56
-18.42
-23.8
-29.88
-38.01
-49.11
-62.75
-76.52
-86.25
-87.27
-76.42
-53.37
-20.83
16.62
54.13
87.6
114.12
132.26
142.25
146.2
147.63
149.94
154.37
158.66
157.61
145.58
119.82
82.64
41
3.74
-22.33
-35.05
-37.22
-34.69
-33.35
-36.74
-45.16
-56.36
-66.87
-73.74
-75.46
-72.11
-64.84
-55.3
-45.19
-35.98
-28.68
-23.66
-20.79
-19.53
-19.23
-19.32
-19.18
-18.1
-15.36
-10.62
-4.28
2.59
8.81
13.7
17.47
21.01
25.31
30.78
36.83
42.33
46
47.27
46.65
45.44
45.38
47.88
53.48
61.4
69.65
75.15
74.33
64.13
43.09
12.66
-22.48
-55.05
-77.25
-83.89
-75.36
-58.95
-46.62
-50.41
-76.69
-122.61
-176.64
-223.17
-248.63
-246.2
-217.49
-170.73
-117.06
-66.33
-24.75
5.35
24.39
34.33
38.1
39.79
44.38
56.39
78.05
107.74
140.17
168.41
186.61
192.27
186.43
172.12
152.03
127.1
96.72
60.06
17.46
-29.76
-80.15
-132.75
-186.42
-238.54
-284.31
-317.22
-331.37
-323.86
-296.16
-253.22
-201.21
-145.22
-87.94
-30.32
26.47
79.09
121.9
148.7
155.86
144.64
121.37
95
73.57
61.37
58.05
60.16
63.33
64.44
62.62
58.68
53.71
47.41
37.58
21.17
-3.24
-33.13
-61.42
-78.7
-77.71
-57.52
-25.03
8.06
30.89
38.61
33.96
24.98
20.15
24.3
37.14
53.97
68.31
74.85
71.98
62.67
53.36
51.05
59.7
78.02
100.05
117.97
125.81
121.57
106.86
85.01
59.72
35.39
17.78
13.53
27.79
60.69
105.44
150.21
182.63
194.76
185.59
159.16
120.58
72.86
16.25
-49.21
-118.88
-182.27
-226.33
-239.55
-218.39
-170.51
-112.76
-64.86
-41.99
-49.93
-84.8
-136.7
-194.21
-247.74
-290.22
-316.27
-321.66
-304.2
-264.96
-208.98
-144.04
-77.81
-15.48
41.23
92.48
138.01
175.89
203.78
220.99
229.85
234.7
239.21
243.8
245.55
240.25
225.49
203.29
178.8
156.25
135.16
110.11
74.48
26.04
-29.71
-81.22
-115.17
-123.25
-106.64
-75.48
-44.38
-26.73
-30.29
-55.21
-96.15
-143.17
-185.32
-214.36
-226.71
-222.84
-205.95
-180.23
-145.45
-107.49
-75.43
-56.07
-49.92
-52.08
-55.17
-53.02
-42.74
-24.09
0.23
27.81
57.97
92.2
129.32
168.58
207.6
241.46
263.24
265.93
247.19
211.51
169
131.39
106.87
96.46
94.52
92.7
84.32
67.79
45.64
21.07
-4.82
-32.26
-60.2
-84.09
-96.86
-93.33
-74.14
-46.82
-22.24
-8.56
-7.08
-12.59
-17.5
-16.55
-8.52
5.36
23.75
45.85
69.77
90.75
101.56
96.08
73.61
41.05
9.74
-10.45
-16.43
-12.62
-7.15
-6.85
-14.48
-29.74
-52.39
-83.37
-122.86
-166.73
-205.05
-225.39
-219.85
-191.46
-155.1
-130.76
-133.44
-164.51
-210.62
-250.61
-266.14
-250.01
-207.68
-152.43
-97.69
-51.19
-13.36
20.07
54.39
92.57
133.69
173.44
205.21
221.8
217.71
190.83
144.12
85.78
27.26
-19.89
-47.99
-55.66
-47.31
-29.89
-9.45
11.18
31.85
53.41
75.49
96.08
112.28
121.84
124.61
122.72
119.9
120.1
125.75
136.37
147.99
154.13
149.02
130.88
103.99
77.48
60.19
54.65
54.38
46.77
20.28
-27.83
-88.83
-145.78
-181.13
-183.82
-153.09
-97.56
-31.25
30.17
73.55
90.24
77.17
37.64
-18.98
-79.18
-128.78
-157.22
-162.7
-152.2
-138.69
-135.12
-148.5
-176.72
-209.99
-236.27
-246.6
-239.49
-218.63
-189.02
-152.77
-108.23
-52.31
15.53
87.04
157.18
216.47
258.49
280.89
284.61
272.7
249.38
219.87
189.71
164.03
144.15
128.17
112.24
93.9
75.18
62.75
64.05
81.43
109.05
133.33
140.82
125.58
92.64
55.07
26.87
15.61
19.66
30.99
39.67
39.47
29.5
12.58
-7.88
-30.39
-56.05
-87.79
-128.83
-181.63
-245.85
-316.77
-385.19
-439.13
-467.84
-466.44
-437.96
-391.88
-340.23
-292.37
-251.26
-213.52
-172.6
-123.36
-64.94
-0.24
66.34
130.01
186.09
229.86
257.24
266.55
260.65
247.01
235.99
236.99
252.86
278.6
304.43
321.48
325.39
316.9
299.31
276.01
249.92
222.01
192.3
161.17
130.44
102.22
77.66
55.77
27.89
-8.37
-49.63
-91.87
-134.68
-177.04
-215.22
-239.06
-237.68
-206.3
-149.02
-79.96
-17.32
18.85
16.81
-22.3
-85.14
-152.38
-205.9
-233.61
-233.2
-211.01
-178.12
-145.29
-120.62
-108.17
-108.22
-117.03
-127.22
-130.36
-120.24
-95.44
-59.36
-19.01
18.31
47.86
68.58
81.67
87.27
83.09
66.33
37.68
3.65
-24.64
-36.25
-25.67
4.37
44.05
81.17
106.38
116.32
113.56
103.62
91.7
80.91
71.55
61.02
44.79
17.74
-23.07
-76.23
-135.01
-188.93
-226.95
-240.97
-227.49
-187.08
-123.06
-40.79
52.12
145.49
226.86
283.53
305.81
290.41
242.62
175.75
108.03
57.43
36.12
46.53
81.02
125.06
163.1
184.19
184.73
167.5
137.91
100.59
57.82
10.67
-38.67
-85.88
-125.44
-153.22
-168.83
-175.66
-178.95
-182.5
-186.27
-185.8
-174.17
-145.3
-97.82
-37.32
23.64
68.86
84.03
62.54
8.88
-62.17
-130.45
-177.37
-191.55
-171.19
-123.41
-60.55
4.16
60.69
104.3
135.41
157.09
171.95
180.29
180.42
171.04
153.65
132.5
112.65
96.63
82.82
66.58
44.23
16.5
-11.13
-31.26
-38.86
-33.25
-16.97
6.99
36.64
70.55
105.66
136.09
154.83
157.11
143.86
121.14
97.06
76.74
61.28
49.05
38.46
30.1
26.43
30.33
42.48
60.21
76.95
86.71
86.73
77.81
63.42
47.26
32.74
21.86
14.24
5.06
-10.04
-32.82
-62.2
-95.16
-130.01
-166.25
-205.28
-249.47
-302.9
-364.21
-424.8
-472.3
-495.47
-490.4
-459.77
-411.09
-335.6
-239.11
-138.75
-52.91
5.46
41.82
61.6
70.31
73.08
76.62
84.32
98.64
120.71
149.37
181.27
210.21
230.61
239.2
235.62
219.63
193.91
163.52
133.79
108.87
90.11
78.49
75.07
79.83
88.96
97.02
98.12
87.48
62.82
24.6
-22.91
-71.99
-112.66
-135.56
-134.04
-107.68
-64.36
-18.19
16.16
31.14
29.84
23.03
21.54
29.51
41.71
47.51
38.81
15.95
-11.74
-31.25
-33.95
-20.08
2.4
23.77
38.65
48.2
57.18
68.36
78.44
78.34
58.59
16.19
-41.45
-98.36
-136.6
-144.03
-119.08
-70.24
-12.21
41.15
81.04
104.63
112.81
108.21
94.09
74.19
52.49
30.83
10.66
-5.59
-13.62
-8.26
14.18
53.2
102.75
152.05
186.31
194.84
176.37
139.09
94.92
52.91
16.28
-16.63
-49.16
-86.97
-132.88
-184.7
-236.53
-283
-322.41
-356.1
-386.15
-390.15
-352.79
-276.92
-182.62
-91.04
-13.55
46.96
91.66
123.41
145.3
155.19
152.73
139.69
120.49
99.65
78.96
58.05
35.81
10.15
-12.66
-30.41
-42.11
-47.12
-45.33
-38.57
-28.87
-17.28
-4.67
7.03
15.25
19.25
20.71
22.47
25.44
26.86
28.87
32.64
37.91
42.82
46.02
47.33
47.59
45.77
41.21
33.95
23.52
8.92
-12.18
-42.43
-84.72
-127
-161.07
-181.34
-186.46
-179.45
-165.01
-147.9
-131.44
-117.32
-105.86
-98.94
-97.57
-100.92
-105.99
-107.34
-99.07
-77.13
-41.58
3.03
47.57
83.45
105.79
114.42
112.9
105.91
97.19
88.77
81.67
75.66
71.03
68.2
67.01
66.56
65.24
61.94
56.58
50.57
45.82
44.81
49.83
61.94
79.91
99.67
115.17
120.29
111.59
89.92
60.78
32.14
11.08
1.21
0.81
5.17
9.14
10.66
10.21
9.63
10.38
12.41
14.33
14.26
11.5
6.56
0.74
-4.73
-9.36
-13.68
-18.69
-25.23
-33.52
-42.26
-49.38
-52.58
-50.29
-41.94
-28.33
-11.08
9.43
30.55
50.44
67.93
82.56
94.04
102.19
106.5
106.61
102.56
94.78
84.72
73.99
64.34
57.18
53.72
53.79
56.84
62.47
70.36
80.63
92.71
105.71
118.33
129.62
136.62
136.75
128.62
111.94
90.02
65.41
40.28
16.2
-4.47
-22.94
-40.26
-56.22
-69.01
-76.15
-76.34
-69.66
-58.03
-42.6
-29.65
-24.97
-32
-51.06
-80.44
-118.33
-163.31
-215.04
-249.88
-252.24
-218.43
-158.68
-88.15
-18.11
46.41
104.16
144.54
173.11
190.87
197.96
194.02
179.82
156.11
121.81
81.7
36.55
-10.52
-59.96
-110.46
-160.9
-208.6
-250.47
-283.89
-309.29
-327.93
-338.06
-340.02
-332.74
-318.15
-298.43
-276.48
-255.2
-239.57
-232.49
-231.63
-233.12
-230.07
-219.82
-201.4
-176.67
-127.13
-46.83
56.04
163.37
242.99
294.7
323.92
334.94
330.8
309.95
267.8
203.05
119.42
24.09
-72.83
-166.55
-238.8
-276.74
-277.56
-252.02
-215.75
-181.29
-154.78
-135.54
-122.46
-112.14
-101.32
-86.19
-64.9
-37.44
-6.67
22.43
45.74
59.77
64.61
61.55
52.63
39.23
22.4
3.26
-16.1
-32.18
-42.1
-43.94
-38.38
-27.73
-15.27
-1.92
12.61
29.6
50.71
76.66
106.96
139.32
168.56
191.57
206.77
213.96
214.27
209.61
202.01
193.04
183.41
173.1
162.16
150.55
138.4
126.1
114.26
103.4
93.74
85.26
77.65
70.74
64.29
58.14
52.26
46.76
41.76
37.25
33.28
29.74
26.68
24.03
21.76
19.83
18.22
16.92
15.83
14.93
14.2
13.7
13.31
13
12.64
12.06
11.53
10.52
8.83
6.3
3.28
-0.55
-5.12
-10.22
-15.57
-20.88
-25.9
-30.27
-33.77
-36.26
-37.83
-38.56
-38.66
-38.4
-38.06
-37.95
-38.21
-38.94
-40.13
-41.73
-43.45
-45.06
-46.35
-47.19
-47.53
-47.38
-46.82
-46.08
-45.42
-44.88
-44.55
-44.5
-44.84
-45.6
-46.84
-48.56
-50.86
-53.86
-57.27
-60.96
-64.87
-68.95
-73.21
-77.65
-82.33
-87.36
-92.99
-98.78
-104.57
-110.24
-115.76
-121.13
-126.38
-131.59
-136.93
-142.69
-148.35
-153.63
-158.35
-162.28
-165.14
-166.39
-165.14
-159.7
-153.64
-147.81
-142.48
-137.59
-132.88
-127.94
-122.39
-115.91
-108.4
-100.02
-90.29
-79.17
-66.92
-53.97
-40.92
-28.42
-17.19
-7.98
-1.54
2.06
2.75
0.54
-4.27
-11.08
-19.03
-27.13
-34.45
-40.36
-44.2
-45.79
-45.4
-43.48
-40.6
-37.24
-33.81
-30.57
-27.75
-25.37
-23.47
-22.06
-21.04
-20.14
-18.93
-16.87
-13.46
-8.48
-2.08
5.12
12.25
18.54
23.7
28.05
32.5
38.13
45.71
55.24
65.96
76.61
86.09
94.1
101.37
109.5
120.2
134.47
152.05
171.43
190.53
207.64
222.24
235.21
248.34
263.55
282.3
305.44
333.28
365.29
399.3
430.88
453.37
459.94
446.6
414.84
371.92
328.06
291.72
265.8
247.06
229.3
208.05
183.61
160.47
143.55
134.28
129.18
122.21
108.8
88.97
67.16
49.26
38.77
34.92
33.65
30.67
24.24
15.92
9
6.02
7.23
10.81
14.48
16.99
18.78
21.09
24.1
26
23.47
13.54
-4.29
-27.02
-49.06
-64.72
-70.98
-68.61
-61.24
-52.74
-45.04
-37.52
-28.46
-17.39
-6.37
0.6
-0.09
-9.14
-23.6
-38.22
-48.13
-51.06
-47.98
-41.89
-35.92
-31.69
-29.14
-27.47
-26.32
-26.25
-28.55
-34.19
-42.64
-51.57
-57.52
-57.73
-51.91
-42.89
-35.38
-33.35
-37.62
-45.1
-50.53
-49.69
-42.05
-31.29
-23.1
-21.8
-27.7
-36.89
-43.78
-44.47
-39.01
-31
-24.82
-22.87
-24.3
-27.21
-30.69
-36.37
-47.1
-63.46
-81.25
-92.22
-88.74
-69.17
-41.34
-18.7
-13.16
-27.76
-54.45
-78.52
-86.63
-73.72
-44.33
-10.67
15.58
28.06
27.55
19.9
12.05
8.72
10.8
17.67
24.61
29.61
32.78
35.73
40.02
45.66
50.49
51.11
47.89
37.61
23.95
12.73
9.21
15.73
29.99
45.26
52.17
46.83
19.74
-25.95
-79.54
-125.93
-151.01
-147.12
-115.81
-66.42
-5.45
49.25
91.8
121.9
142.71
158.29
171.51
184.11
158.19
146.58
144.54
153.74
172.3
193.11
205.4
198.72
168.08
117.22
63.81
14.79
-20.83
-42.76
-58.31
-76.64
-102.71
-134.83
-166.67
-187.52
-200.59
-207.41
-209.41
-204.91
-189.29
-158.95
-116.59
-72.46
-37.41
-24.69
-34.6
-57.46
-79.06
-88.21
-81.29
-61.86
-36.3
-8.48
17.24
39.58
57.08
67.87
71.26
69.43
66.55
65.75
66.39
62.54
48.39
22.91
-7.73
-33.11
-45.2
-44.15
-38.26
-38.66
-51.51
-73.52
-94.07
-102.23
-94.27
-76.05
-59.13
-52.81
-58.35
-68.76
-74.21
-68.99
-54.82
-38.69
-27.1
-21.22
-15.79
-2.56
24.23
63.74
108.16
145.74
165.49
161.55
134.97
93.16
46.97
7.03
-19.83
-32.33
-34.12
-31.11
-28.77
-30.84
-39.59
-56.59
-82.59
-116.06
-151.65
-180.44
-192.83
-182.49
-149.41
-100.21
-45.68
3.11
38.19
56.25
58.26
47.82
29.21
6.31
-17.52
-39.05
-54.7
-60.86
-55.44
-39.48
-18.03
1.35
11.8
10.47
-0.14
-13.5
-22.74
-24.29
-19
-10.91
-4.65
-4
-11.49
-28.83
-56.14
-90.31
-123.51
-144.08
-140.92
-109.3
-55.27
5.11
52.09
71.32
60.54
30.02
-3.29
-24.02
-24.57
-6.04
24.95
60.86
95.53
123.49
138.66
135.04
109.66
66.32
16.66
-23.37
-40.07
-28.31
6.2
49.52
85.57
102.03
94.51
67.06
29.66
-6.05
-31.41
-43.22
-44.04
-39.54
-35.23
-33.56
-33.38
-31.77
-27.16
-21.33
-18.83
-23.86
-36.89
-53.2
-64.44
-62.46
-43.24
-8.95
32.95
72.21
99.18
107.64
96.54
70.13
36.52
5.09
-16.47
-24.34
-19.59
-7.46
4.91
11.08
7.4
-5.52
-23.3
-39.08
-46.28
-41
-24.07
-1.12
19.68
31.65
33.52
30.12
29.4
36.63
50.3
62.59
64.47
51.41
26.22
-2.7
-26.28
-39.22
-41.45
-36.81
-30.43
-26.78
-29.28
-39.77
-57.97
-81.06
-103.15
-116.53
-114.31
-93.24
-55.47
-8.22
38.3
73.63
89.97
85.01
63.08
33.82
8.35
-5.92
-8.46
-4.82
-2.12
-3.94
-8.01
-8.68
-2.16
9.69
19.78
20.3
8.32
-11.66
-30.09
-37.68
-30.87
-13.38
6.54
20.81
25.43
21.27
12.31
3.01
-3.31
-4.87
-0.81
8.86
22.53
36.58
46.12
47.22
39.41
26.43
14.61
9.35
12.32
20.98
31.04
39.14
44.26
46.88
47.53
46.08
42.24
36.72
31.83
30.77
36.27
49.28
68.38
89.53
107.13
115.49
111.19
95.04
72.53
51.46
37.94
33.04
32.39
29.5
20.46
6.85
-5.61
-11.68
-10.52
-6.28
-4.88
-10.07
-21.26
-35.28
-48.74
-60.36
-71.17
-83.15
-97.46
-113.33
-128.13
-137.54
-136.99
-122.54
-93.26
-53.66
-13.53
16.03
28.61
25.54
15.17
5.83
0.73
-3.44
-12.97
-30.85
-52.66
-67.6
-66.75
-49.67
-27.96
-18.32
-32.83
-72.11
-125.62
-178.27
-218.13
-242.94
-248.43
-236.54
-213.57
-187.2
-162.51
-141.11
-128.01
-119.48
-110.78
-96.44
-73.32
-40.2
3.48
53.67
104.17
148.05
179.93
195.42
193.72
177.51
154.33
135
129.01
139.71
161.31
181.29
185.18
164.84
122.59
71.37
29.3
11.06
21.09
51.8
87.71
111.55
111.38
83.65
33.31
-29.06
-91.09
-141.23
-170.77
-174.07
-149.3
-98.88
-29.89
46.24
115.05
161.46
174.2
149.69
94.5
23.51
-45.39
-98.24
-129.69
-142.7
-144.33
-140.24
-132.26
-119.89
-103.42
-86.25
-74.31
-73.19
-85.21
-108.44
-137.59
-165.77
-186.3
-193.61
-183.91
-155.96
-112.07
-57.83
-0.38
54.12
101.81
141.26
172.26
194.73
208.61
214.15
211.99
201.99
183.02
154.01
116.35
75.8
41.31
20.97
16.58
21.3
22.69
9.74
-19.67
-56.01
-81.95
-81.67
-50.02
3.81
60.78
101.95
117.79
111.99
97.78
89.93
96.95
118.25
146.02
170.77
185.89
189.49
182.61
166.06
138.89
99.38
48.9
-5.69
-52.43
-78.96
-78.38
-53.31
-15.36
19.71
38.86
36.5
14.99
-18.59
-56.79
-93.59
-123.73
-141.81
-142.66
-124.02
-89.35
-47.92
-11.95
8.38
8.15
-11.54
-45.42
-85.9
-124.21
-151.11
-158.95
-145.14
-115.01
-81.74
-60.87
-62.58
-85.44
-116.72
-138.75
-137.99
-110.77
-63.22
-6.4
49.12
95.85
129.22
145.97
144.6
126.91
99.05
69.87
46.6
30.99
19.14
5.5
-11.68
-27.7
-34.12
-24.88
-1.54
26.02
44.34
42.87
18.66
-23.22
-72.78
-119.03
-152.55
-166.21
-155.95
-121.85
-69.45
-9.62
43.65
77.36
83.64
61.98
19.25
-32.72
-80.07
-110.54
-116.38
-96.7
-57.9
-11.45
30.43
59.63
74.78
80.67
84.39
90.32
97.13
98.21
85.89
56.69
14.62
-29.19
-61.43
-73.3
-65.25
-46.51
-29.83
-24.07
-29.16
-36.19
-32.98
-11.7
26.02
69.38
104.44
121.81
121.21
110.26
98.72
92.5
90.98
89.19
82.73
71.58
60
52.81
51.61
53.23
52.61
47.24
39.7
35.78
39.58
49.16
56.42
51.49
29.46
-5.49
-41.59
-65.52
-68.8
-50.91
-17.75
22.86
64.52
102.55
132.26
147.73
143.8
119.74
81.75
41.76
12.07
-1.37
-2.76
-4.06
-18.14
-50.85
-96.68
-141.51
-169.65
-171.31
-145.94
-101.13
-47.86
3.68
46.32
74.98
85.77
76.37
47.77
5.56
-40.77
-81.48
-111.43
-132.44
-151.44
-174.81
-202.64
-226.87
-234.62
-215.22
-166.77
-98.8
-29.17
23.06
45.1
34.97
1.13
-41.73
-78.43
-98
-96.16
-74.99
-41.15
-3.58
28.78
49.21
55.04
48.36
35.99
27.14
29.75
46.45
72.86
98.87
113.23
109.12
87.64
57.28
29.11
11.08
4.69
5.88
9.47
12.99
17.53
25.54
37.64
50.72
59.44
59.77
52.17
42.13
37.02
41.54
54.24
67.71
72.34
61.9
37.5
7.31
-17.41
-28.3
-24.18
-11.37
0.49
3.91
-2.47
-13.91
-23.29
-26.15
-23.29
-19.76
-21.09
-29.47
-41.92
-51.91
-53.14
-43
-23.67
-1
18.28
29.15
30.12
23.65
14.8
8.86
8.5
12.1
14.51
9.71
-5.74
-30.38
-57.7
-78.92
-87.42
-81.82
-65.99
-45.77
-24.55
-1.5
26.52
60
93.54
117.16
121.45
103.15
67.15
23.86
-16.24
-46.54
-65.01
-72.14
-68.53
-55.23
-35.73
-16.88
-6.79
-10.44
-26.02
-45.09
-57.22
-55.77
-41.83
-23.29
-10.12
-8.63
-18.62
-34.35
-48.06
-53.66
-48.39
-32.43
-7.68
22.79
54.48
81.31
96.42
94.04
71.82
32.7
-15.29
-60.38
-90.22
-95.5
-72.45
-24.13
39.6
103.84
152.7
174.35
165.71
133.73
91.55
52.02
22.33
2.75
-10.1
-18.49
-21.67
-17.8
-7.28
5.59
14.55
15.82
10.82
4.8
2.25
2.52
-0.44
-14
-40.91
-75.91
-107.52
-123.66
-117.77
-91.79
-54.52
-16.99
11.97
28.2
31.85
25.3
11.63
-5.94
-23.54
-36.57
-40.36
-31.85
-10.75
20.16
55.63
89.44
115.88
130.77
132.18
120.84
100.14
75.28
51.59
32.61
19.18
9.69
1.97
-5.11
-10.94
-13.83
-12.77
-8.91
-5.98
-8.8
-21.4
-44.13
-72.25
-96.64
-107.69
-100.5
-78.35
-51.67
-32.32
-26.74
-32.32
-39.75
-40.21
-31.73
-20.49
-15.93
-23.95
-42.74
-64.38
-80.1
-85.41
-81.3
-71.48
-59.02
-44.84
-29.01
-12.51
2.41
13.67
21.38
28.19
37.46
50.49
65.57
79.24
88.76
93.52
94.85
94.49
93.28
91.2
87.88
83.07
75.92
64.5
46.14
19.09
-15.39
-51.74
-81.03
-94.46
-87.14
-61.09
-24.96
9.29
31.34
36.14
24.98
4.08
-18.78
-37.26
-48.49
-52.93
-52.71
-49.45
-43.01
-31.64
-14.07
8.18
30.43
46.28
51.23
45.39
33.57
22.74
18.14
20.54
26.37
30.64
29.32
20.85
5.56
-15.43
-40.49
-66.83
-90.03
-104.92
-107.37
-96.34
-73.87
-43.28
-7.64
30.28
66.19
93.09
102.76
90.6
59.78
21.8
-8.92
-22.95
-21.21
-13.83
-12.77
-23.55
-41.69
-55.86
-55.5
-37.85
-10.01
15.46
27.89
24.2
9.91
-4.75
-10.81
-4.67
11.19
30.31
46.08
54.33
54.6
49.64
43.78
40.93
42.86
48.43
54.22
56.61
53.71
46.3
37.32
30.11
26.56
26.08
26.13
23.83
17.7
8.49
-1.16
-7.92
-9.18
-4.02
6.73
20.64
34.29
43.96
46.71
41.5
30.01
16.25
4.78
-1.51
-2.84
-2.02
-2.34
-5.35
-10.07
-14.19
-16.33
-17.58
-21.01
-29.43
-43.3
-60.48
-77.97
-94.24
-109.95
-126.23
-141.84
-151.79
-149.29
-129.87
-94.97
-52.14
-11.49
19.01
36.49
43
43.07
41.14
40.31
42.28
47.09
52.83
55.73
51.64
38.96
20.86
4.9
-0.91
6.93
24.59
42.57
51.56
48.16
36.58
25.24
20.75
23.96
30.22
33.29
29.71
20.31
7.94
-6.26
-24.82
-52.17
-90.61
-136.59
-180.46
-209.95
-215.56
-194.7
-152.37
-98.24
-41.96
9.95
54.71
90.94
116.57
128.35
124.09
106.15
82.91
66.19
65.54
82.88
111.28
138.4
152.95
150.04
131.95
104.61
73.23
40.36
7.52
-22.1
-43.04
-50.18
-43.1
-28.59
-18.97
-26
-54.59
-99.64
-148.12
-185.13
-199.5
-186.98
-149.74
-94.47
-29.85
35.05
92.06
135.59
163.47
177.74
183.17
183.55
178.85
165.35
139.62
102.94
63.25
31.22
14.77
13.84
20.13
21.82
12.15
-5.54
-20.45
-22.31
-9.75
10.26
28.13
38.32
41.72
43.83
49.36
57.23
59.63
46.17
12.21
-35.52
-79.9
-103.12
-98.49
-73.66
-48.65
-33.55
-31.25
-39.1
-52.69
-66.12
-79.02
-93.63
-111.88
-133.87
-159.89
-190.54
-224.43
-258.81
-290.87
-318.79
-338.92
-345.75
-318.21
-248.67
-150.14
-47.42
37.76
95.86
127.48
140.17
143.08
143.48
143.9
143.41
143.64
148.03
159.53
177.81
201.29
226.91
250.31
265.15
257.77
224.31
171.4
115.78
63.47
15.26
-29.25
-68.22
-98.23
-113.43
-106.66
-75.37
-26.43
22.77
52.45
48.6
9.92
-51.21
-112.75
-152.23
-156.3
-126.91
-80.5
-38.12
-15.94
-19.58
-44.99
-83.21
-126
-167.24
-202.8
-229.23
-241.33
-232.74
-199.21
-142.03
-64.05
18.1
83.8
120.61
128.68
116.76
95.51
73.65
56.75
49.02
49.3
56.16
68.45
84.49
101.8
116.82
125.6
125.2
111.61
86.06
56.94
35.93
31.36
42.6
59.55
67.45
54.66
18.72
-32.11
-82.28
-116.71
-127.04
-113.21
-80.24
-33.7
22.11
82.71
141.19
187.51
211.16
205.71
172.45
120.41
62.74
11.64
-25.3
-45.7
-51.31
-46.86
-39.07
-35.2
-40.93
-57.17
-78.26
-93.33
-91.01
-65.48
-19.72
36.03
89.43
131.66
159.74
174.71
178.14
169.69
147.35
109.89
58.93
-0.85
-63.17
-122.75
-176.48
-222.83
-260.52
-287.18
-299.74
-296.2
-277.38
-247.35
-212.2
-177.16
-144.16
-110.85
-72.53
-25.97
26.79
77.19
112.5
121.33
99.76
54.71
2.16
-38.72
-53.01
-35.71
7.23
61.98
112.58
146.47
158.58
151.6
133.93
115.37
103.37
101.2
107.9
119.98
133.43
145.12
153.06
155.93
152.47
141.49
122.48
96.19
64.8
30.61
-5.22
-43.22
-84.15
-126.96
-167.45
-198.74
-213.52
-206.71
-177.56
-130.41
-73.29
-15.52
35.18
73.75
97.98
107.53
103.61
88.26
64.22
34.74
3.6
-24.4
-44.38
-52.72
-48.87
-36.01
-19.71
-5.24
4.73
10.42
14
16.69
17.72
15.38
9.78
3.8
1.67
4.85
9.78
10.58
3.19
-11.14
-25.9
-33.73
-31.93
-24.1
-17.38
-16.41
-18.52
-16
-2.18
23.39
54.52
82.28
100.17
106.25
96.87
72.48
38.88
5.61
-19.8
-34.88
-44.45
-52.75
-61.38
-68.78
-69.99
-60.44
-39.41
-11.62
14.46
30.55
32.45
20.45
-1.51
-27.3
-51.84
-73.17
-92.51
-112.3
-133.87
-155.36
-172.26
-179.46
-173.34
-154.32
-127.19
-98.6
-73.97
-55.1
-39.94
-24.95
-7.37
14.22
39.1
64.57
86.19
98.16
95.52
77.35
48.84
20.82
6.03
13.54
44.5
91.61
142.44
184.26
208.74
213.74
202.25
179.94
152.65
124.67
98.69
75.91
57.02
43.31
36.22
36.2
40.75
44.18
39.6
22.98
-3.17
-29.09
-42.34
-34.81
-7.79
28.29
59.57
76.34
77.86
70.85
62.82
56.06
45.99
25.9
-5.95
-42.98
-73.6
-88.54
-87.35
-78.89
-75.67
-86.26
-110.93
-142.62
-172.01
-192.25
-200.58
-196.28
-178.17
-143.9
-91.93
-25.2
46.6
108.68
146.34
151.27
125.53
80.82
32.83
-6.37
-33.24
-52.29
-70.94
-92.98
-115.69
-132.07
-136.53
-129.46
-117.08
-106.63
-100.76
-95.12
-81.24
-52.34
-8.45
43.24
92.83
133.61
165.11
191.77
218.07
243.64
262.11
264.23
243.33
199.8
141.76
81.93
32.76
2.5
-6.03
5.53
32.79
69.88
109.66
144.1
165.59
169.98
158.84
139.08
119.54
105.91
97.64
88.35
69.93
37.32
-7.48
-55.15
-92.51
-108.57
-100.29
-73.6
-40.91
-15.55
-7.7
-20.3
-48.6
-82.65
-112.28
-133.54
-149.11
-165.88
-188.79
-219.56
-253.55
-281.16
-291.48
-277.76
-242.95
-195.65
-144.75
-92.88
-40.95
10.88
59.09
96.2
111.83
94.74
42.22
-36.19
-118.66
-186.36
-229.15
-249.25
-256.61
-245.03
-212.88
-163.89
-127.01
-105.91
-99.33
-98.01
-98.27
-95.1
-82.11
-56.72
-19.01
28.14
83.27
141.12
196.72
245.6
285.21
311.99
319.02
301.43
259.94
204.15
144.41
89.44
42.83
7.38
-15.32
-28.05
-34.6
-36.63
-31.73
-19.61
-2.98
13.07
24.69
30.54
31.69
31.71
34.03
41.04
51.67
62.77
69.86
70.19
62.19
45.91
24.07
1.17
-15.96
-20.42
-7.08
24.03
66.36
108.08
136.45
143.12
125.76
89.35
42.04
-7.61
-52.87
-91.39
-124.49
-154.02
-170.54
-166.84
-141.1
-99.63
-52.5
-10.08
20.89
38.93
47.42
52.08
55.24
59.61
64.92
69.7
71.06
66.68
55.83
39.71
20.3
-2.8
-28.12
-57.03
-84.38
-106.17
-120.85
-129.64
-134.22
-134.88
-131.74
-124.62
-114.73
-103.56
-93.71
-87.41
-85.91
-89.21
-96.24
-105.05
-111.87
-112
-100.52
-75.71
-40.09
-0.03
36.49
63
76.8
79.71
76.12
70.57
65.22
59.81
53.16
44.73
35.36
26.91
20.99
17.99
16.9
15.76
12.57
6.56
-1.67
-10.48
-17.6
-21.12
-20.02
-14.53
-5.94
4.01
13.86
22.82
30.85
38.75
46.62
55.25
64.5
73.25
79.82
82.61
81.8
77.25
70.25
62.68
56.46
52.36
50.15
49.37
49.72
50.82
51.62
49.69
41.9
26.64
5.43
-16.48
-31.94
-35.23
-25.29
-5.81
16.1
33.72
43.67
46.29
44.2
40
34.89
26.26
15.17
3.09
-7.83
-15.73
-20.06
-21.93
-23.05
-24.37
-27
-29.85
-31.25
-28.92
-21.08
-7.13
11.48
31.08
46.08
49.9
38.01
9.68
-29.64
-69.36
-97.65
-106.66
-95.7
-70.57
-40.32
-12.18
9.08
21.87
26.72
25.12
19.24
12.37
9.28
14.81
32.04
59.68
92.48
122.8
143.37
149.96
142.39
124.4
101.88
80.99
65.08
52.88
38.63
14.84
-22.53
-69.58
-113.76
-138.68
-131.73
-91.24
-28.28
37.91
87.59
107.69
94.86
54.37
-3.93
-68.92
-129.98
-177.15
-201.26
-195.91
-160.61
-103.04
-37.85
18.26
53.55
66.3
64.96
62.74
69.93
88.41
111.17
126.86
126.11
105.82
69.02
21.92
-29.35
-80.05
-125.63
-160.55
-179.09
-178.45
-162.08
-140.54
-128.22
-137.03
-170.37
-220.89
-273.4
-311.24
-322.83
-304.92
-261.77
-201.55
-132.76
-62.62
3.06
59.44
103.17
133.3
152.04
163.76
172.82
181.28
188.34
191.99
191.37
187.72
182.95
177.37
168.62
153.63
132.05
108.27
89.65
81.48
82.51
84.7
78.3
58.69
30.27
4.24
-8.35
-3.64
12.93
30.53
40.05
38.97
31.39
23.88
20.61
21.23
22.61
21.8
17.89
11.66
4.04
-4.82
-14.67
-23.66
-28.14
-24.19
-10.48
9.53
27.86
35.14
24.61
-4.99
-48.91
-98.31
-143.21
-174.87
-187.27
-177.76
-147.55
-101.78
-48.31
4.2
48.65
80.98
100.6
109.66
111.97
111.5
111.08
111.61
111.82
108.67
98.71
79.71
52.28
20.65
-8.57
-29.01
-37.44
-35.37
-28.32
-22.79
-22.69
-27.49
-32.82
-33.55
-27.06
-15.27
-3.8
1.1
-4.06
-18.21
-36.18
-51.07
-57.18
-52.21
-38.08
-20.35
-5.7
0.75
-2.35
-12.31
-23.9
-31.71
-32.45
-26.24
-16.27
-7.16
-2.47
-3.19
-7.7
-12.98
-16.17
-15.85
-12.47
-7.88
-4.03
-2.1
-1.8
-2.12
-2.43
-3.49
-6.86
-13.08
-20.54
-25.96
-26.48
-21.64
-13.44
-4.89
1.92
6.51
9.44
11.07
11.04
8.77
4.44
-0.56
-4.41
-6.09
-5.95
-5.11
-4.31
-3.22
-0.81
3.51
8.83
13.05
14.33
12.74
10.61
11.21
16.67
26.37
37.06
44.44
45.11
37.94
24.51
8.64
-4.93
-12.32
-12.06
-5.63
3.22
10.08
11.34
5.43
-6.53
-20.7
-31.68
-34.88
-28.82
-16.03
-1.63
9.42
15.01
16.15
15.28
13.59
9.37
-1.07
-20.56
-47.92
-77.09
-99.41
-108.42
-103.65
-90.82
-78.16
-70.94
-68.36
-64.78
-55.03
-39.21
-24.1
-19.75
-32.55
-60.09
-90.76
-109.56
-106.32
-81.4
-44.55
-8.32
19.94
41.48
62.42
86.67
110.87
125.74
122.62
100.58
68.37
39.27
22.8
18.72
17.89
8.71
-14.78
-49.01
-83.36
-106.31
-111.49
-99.48
-75.8
-46.43
-14.56
19.71
57.07
95.64
130.04
153.1
159.47
149.13
128.13
105.21
86.73
72.7
57.16
32.92
-1.68
-39.02
-64.73
-65.79
-39.22
4.53
46.58
70.25
70.39
55.33
40.12
36.18
44.08
54.42
55.47
42.03
18.88
-3.19
-15.15
-15.58
-10.53
-8.47
-14.26
-27.27
-44
-62.31
-83.31
-109.33
-139.81
-169.22
-188.89
-191.7
-176.01
-146.58
-111.64
-78.61
-51.02
-28.51
-9.2
7.5
19.71
24.2
18.94
5.94
-8.11
-14.41
-6.57
15.47
44.71
70.65
85.17
87.01
81.85
77.83
79.55
84.76
86.32
78.01
59.7
38.15
22.59
19
27.01
41.36
56.84
72.1
89.55
111.21
134.43
150.74
149.73
125.79
83.19
35.36
-1.57
-16.8
-9.99
9.77
29.89
41.27
42.59
39.27
38.52
43.86
52.9
59.63
59.17
51.65
42.01
36.33
36.91
40.41
39.95
29.56
7.91
-21.35
-52.06
-79.01
-99.7
-114.33
-123.71
-127.77
-125.72
-117.27
-103.6
-87.28
-71.51
-59.19
-52.32
-51.34
-54.48
-58.06
-57.87
-51.52
-40.45
-29.8
-25.27
-29.19
-38.56
-46.76
-48.08
-41.27
-30.03
-19.97
-14.62
-13.54
-13.53
-11.64
-7.41
-2.67
0.54
1.48
0.96
0.12
-0.53
-1.1
-1.45
-0.88
1.29
4.97
9.25
13.4
17.92
24.42
34.13
46.28
57.73
64.39
63.72
56.24
44.97
33.38
23.53
15.88
10.33
7.31
7.91
12.77
20.89
29.48
35.21
35.71
30.39
19.92
5.47
-11.5
-28.72
-42.77
-49.85
-47.69
-37.04
-21.99
-8.24
-0.6
-1.04
-8.69
-21.45
-37.38
-55.13
-72.9
-87.69
-95.87
-95.42
-88.21
-80.31
-78.87
-87.29
-102.31
-115
-116.09
-101.7
-75.62
-46.68
-23.49
-9.92
-4.46
-3.24
-3.75
-6.31
-12.15
-20.02
-25.13
-21.06
-3.26
28.13
68.17
109.75
146.63
175.35
195.18
206.54
209.54
203.08
185.54
156.31
117.69
75.71
38.77
13.98
2.91
-0.19
-5.96
-23.77
-55.34
-92.57
-121.96
-132.31
-121.14
-95.29
-65.13
-37.96
-14.96
6.22
25.85
38.77
36.63
14.56
-22.94
-61.02
-80.42
-67.61
-22.38
41.13
101.03
137.82
142.87
120.92
86.15
54.67
37.44
36.75
47.29
60.16
67.31
64.07
49.51
25.45
-4.81
-37
-66.08
-87.03
-96.32
-93.52
-81.73
-66.45
-52.99
-44.19
-39.5
-36.16
-31.55
-25.1
-18.52
-14.25
-13.31
-14.2
-13.78
-9.51
-1.26
8.56
16.39
19.42
16.82
9.73
0.43
-8.82
-16.26
-20.75
-21.87
-20.34
-17.95
-16.54
-16.49
-15.72
-11.02
-0.53
14.31
29.17
39.26
42.08
38.92
33.55
29.97
29.29
29.38
27.27
22.04
15.15
9.02
5.33
4.61
8.37
18.55
35.81
58.1
80.08
94.19
94.16
79.51
57.65
42.91
48.16
76.93
121.29
165.92
194.92
198.32
175.5
127.72
67.3
12.9
-22.42
-38.2
-42.26
-42.02
-42.75
-42.98
-40.94
-36.11
-31.43
-33.64
-49.09
-76.34
-109.56
-135.49
-143.33
-129.07
-95.51
-50.8
-6.73
27.46
45.39
51.35
50.86
47.21
40.65
29.93
12.21
-15.74
-56.22
-107.56
-164.08
-219.56
-269.48
-311.57
-344.78
-351.37
-322.62
-262.9
-187.28
-111.29
-44.61
9.33
50.8
81.87
105.12
120
126.47
126.3
123.18
120.46
119.97
121.99
125.84
130.58
132.54
129.55
121.2
109.03
94.96
80.2
65.16
49.71
35.68
21.66
6.85
-8.29
-22.08
-32.76
-39.43
-42.27
-42.27
-40.75
-39.81
-40.53
-42.77
-45.39
-47.03
-46.95
-45.34
-43.18
-41.69
-42.29
-45.27
-49.83
-54.42
-57.68
-58.86
-58.26
-56.93
-56.09
-56.92
-60.1
-66.06
-74.62
-84.48
-92.59
-94.69
-86.65
-66.73
-37.09
-3.46
26.89
48.12
58.02
58.35
53.14
46.36
40
34.05
27.62
20.27
12.7
6.21
1.75
-0.89
-2.87
-5.71
-10.54
-17.3
-24.88
-31.58
-35.78
-36.49
-33.64
-27.78
-19.99
-11.11
-1.5
8.84
20.08
32.2
44.81
56.47
66.45
73.92
78.52
80.45
80.25
78.58
76.07
73.19
70.16
67.51
65.02
62.68
60.6
58.78
57.01
55.09
52.9
50.5
48.18
46.37
45.19
44.55
44.22
43.3
41.2
38.23
35.33
33.56
33.44
34.72
36.51
37.69
37.27
34.96
31
26.3
22.14
19.82
20.31
24.1
30.97
39.63
47.65
51.57
47.67
33.29
8.4
-23.72
-56.96
-84.2
-99.69
-101.64
-92.63
-77.61
-61.68
-47.63
-36.18
-26.8
-19.16
-14.04
-12.52
-15.31
-21.89
-30.79
-39.86
-47.19
-51.9
-53.97
-54.03
-52.76
-50.45
-46.11
-39.84
-31.39
-20.96
-9.37
2.14
12.3
20.14
25.38
28.45
30.11
31.48
33.39
36.09
39.44
43.03
46.28
48.71
50.04
49.93
48.44
45.49
40.89
34.55
26.51
16.83
5.82
-5.56
-16.86
-27.3
-36.12
-42.74
-47.25
-48.69
-46.82
-41.64
-33.43
-22.89
-10.81
1.76
13.6
23.69
31.27
35.63
36.46
33.85
28.16
20.11
11.36
2.39
-6.07
-13.25
-18.81
-22.62
-24.78
-25.58
-25.27
-24.23
-22.86
-21.39
-19.85
-18.37
-17
-15.75
-14.65
-13.61
-12.65
-11.86
-11.19
-10.55
-10.01
-9.56
-9.25
-9.07
-9
-9.06
-9.29
-10.04
-10.94
-11.95
-13.08
-14.35
-15.74
-17.27
-18.92
-20.74
-22.72
-24.73
-26.8
-28.96
-31.22
-33.57
-36.03
-38.67
-41.55
-44.77
-48.17
-51.77
-55.54
-59.34
-62.93
-66.01
-68.23
-69.09
-68.54
-65.45
-59.14
-49.13
-35.25
-17.71
2.83
25.3
48.83
71.3
91.27
107.51
119.22
126.01
127.8
124.91
117.54
106.17
91.44
74.53
56.62
39.04
22.9
9.03
-2.26
-11.12
-17.92
-22.94
-25.9
-26.22
-23.11
-16.19
-5.66
7.3
20.59
31.81
38.95
41.15
38.71
32.86
24.85
15.65
5.45
-6.35
-20.54
-37.77
-58.3
-82.22
-107.75
-133.85
-157.57
-174.28
-179.32
-170.27
-148.72
-120.21
-92.39
-71.95
-62.09
-61.87
-67.57
-75.05
-81.64
-86.6
-89.81
-90.71
-88.34
-80.42
-65.78
-44.93
-19.87
6.93
33.25
58.33
82.36
104.9
126.05
145
160.16
169.88
173.28
170.67
164.02
155.85
148.39
142.75
138.37
133.71
127.33
119.69
110.14
99.55
89.34
80.97
75.88
75.26
79.48
86.83
92.53
89.46
71.8
38.18
-5.75
-48.36
-77.19
-84.12
-69.58
-41.91
-13.33
6.19
12.92
9.62
2.23
-4.42
-8.81
-12.32
-16.63
-21.48
-24.32
-22.88
-18.14
-15.11
-20.6
-38.57
-67.1
-97.82
-119.56
-123.45
-107.84
-79.3
-49
-26.26
-12.59
-2.79
10.88
32.95
61.46
88.86
106.08
107.79
91.68
65.48
42.03
31.18
34.07
44.29
53.2
55.97
53.26
49.41
49.67
56.43
68.88
83.04
94.97
103.14
108.87
114.56
122.28
133.04
146.26
159.05
165.97
163.45
151.61
134.09
115.3
99.09
87.92
82.1
80.14
76.26
65.44
44.66
18.15
-11.2
-41.74
-72.86
-104.56
-136.83
-173.53
-216.95
-266.46
-319.02
-372.27
-425.34
-478.62
-532.71
-559.88
-543.79
-485.43
-402.21
-314.97
-238.09
-176.88
-130.51
-95.27
-67.38
-48.36
-39.52
-39.02
-41.02
-38.18
-24.27
3.46
42.98
88.04
127.77
154.13
165.66
166.96
163.87
160.05
154.21
143.46
125.02
97.12
62.67
28.37
1.06
-17.01
-28.21
-37.44
-48.72
-62.12
-74.19
-79.78
-75.21
-58.1
-36.57
-21.52
-20.65
-35.87
-63.11
-94.91
-124.64
-148.25
-164.91
-177.46
-189.39
-199.12
-203.88
-201.07
-189.57
-171.13
-148.85
-126.45
-109.34
-100.68
-100.03
-106.16
-116.35
-128.16
-140.58
-152.44
-162.17
-170.19
-175.07
-172.22
-157.02
-126.55
-79.47
-24.71
26.3
79.49
137.83
194.58
247.17
293.96
338.27
382.53
426.77
470.17
512.24
551.22
587.2
623.08
661.02
707.47
764.82
829.54
894.01
949.24
985.69
996.93
981.25
903.72
753.99
546.38
313.25
88.61
-104.89
-259.45
-376.64
-461.56
-520.81
-555.01
-566.4
-560.41
-544.61
-525.96
-509.47
-497.32
-488.93
-482.87
-472.94
-455.26
-429.65
-398.81
-366.55
-334.23
-301.56
-267.11
-229.82
-186.36
-135.84
-80.45
-26.36
21.53
60.38
89.65
110.68
125.03
135.77
144.32
150.26
152.2
149.62
142.75
132.88
124.66
118.69
116.39
118.83
126.04
133.75
139.72
139.56
128.45
103.88
67.3
25.08
-14.29
-43.89
-61.09
-67.54
-68.41
-68.63
-70.36
-72.98
-73.98
-71.6
-66.28
-60.09
-55.01
-52.54
-52.5
-53.26
-53.03
-50.54
-46.07
-41.65
-39.93
-43.36
-54.32
-73.87
-101.2
-133.13
-163.89
-185.22
-190.47
-176.76
-143.92
-97.18
-45.72
0.19
31.92
45.08
40.45
22.44
-0.58
-20.44
-32.24
-34.98
-30.81
-23.49
-16.73
-13.02
-13.25
-16.21
-19.23
-18.68
-10.83
6.54
32.76
63.83
93.78
117.15
130.96
135.51
133.13
126.7
118.16
109.1
99.01
88.12
77.23
67.1
57.59
47.49
35.21
19.67
0.24
-21.02
-41.51
-58.72
-70.92
-77.65
-79.66
-78.36
-75.24
-71.43
-67.22
-62.38
-56.47
-49.26
-41.08
-32.75
-25.22
-19.53
-16.25
-15.35
-16.39
-18.58
-21.09
-23.22
-24.5
-24.41
-22.75
-19.35
-14.04
-6.82
2.2
12.72
24.15
34.59
43.86
51.58
57.52
61.63
64
64.9
64.67
63.64
62.09
60.43
58.67
56.79
55.68
54.33
52.17
48.74
43.78
37.13
28.93
19.24
8.28
-4.6
-18.28
-31.98
-45.08
-57.02
-67.29
-75.41
-81.01
-83.89
-83.89
-81.17
-75.83
-68.04
-58.05
-46.23
-33.09
-19.24
-5.55
6.84
16.93
23.96
27.69
28.51
27.31
25.24
23.8
23.86
25.65
28.97
33.29
38.13
43.17
48.25
53.11
57.82
61.64
63.18
61.33
55.61
46.69
36.34
27.07
21.24
21.19
27.37
38.11
51.49
65.56
79.37
93.06
107.7
118.89
125.87
129.62
131.15
131.31
128.36
118.01
95.16
56.92
5.21
-51.95
-104.84
-147.78
-177.47
-194.81
-203.37
-207.14
-208.27
-206.56
-200.08
-181.89
-154.03
-122.03
-92.85
-71.19
-58
-50.55
-43.88
-33.32
-16.92
2.6
20.68
31.02
30.3
18.18
-2.8
-27.94
-51.83
-69.66
-78.89
-75.21
-59.05
-34.19
-6.74
17.59
36.08
49.36
61.12
74.9
92.11
109.29
119.63
115.55
91.84
49.41
-4.14
-55.71
-91.41
-102.2
-88.72
-61.33
-36.94
-31.32
-52.23
-97.28
-154.57
-208.31
-245.51
-261.22
-258.62
-249.32
-244.94
-248.83
-260.76
-275.05
-283.12
-277.86
-257.07
-222.55
-183.59
-147.07
-114.14
-82.69
-49.39
-12.76
26.08
65.01
105.99
145.41
183.24
221.32
259.08
294.14
324.05
348.33
368.9
392.7
416.95
441.45
469.34
503.34
545.36
595.4
650.96
680.84
708.89
720.32
681.51
577.96
419.82
239.08
72.28
-57.49
-145.78
-196.97
-228.09
-249.04
-260.08
-258.7
-244.54
-221.46
-196.25
-175.03
-157.6
-146.96
-140.57
-132.75
-119.68
-102.65
-86.2
-75.3
-72.84
-76.81
-87.33
-101.19
-112.86
-118.72
-118.34
-113.22
-105.69
-98.05
-91.2
-87.37
-86.88
-88.72
-89.62
-90.05
-91.86
-97.22
-107.9
-123.82
-142.8
-158.86
-164.1
-155.01
-135.06
-113.18
-100.31
-105.55
-132.26
-176.67
-229.26
-265.53
-265.99
-227.18
-163.54
-95.58
-36.66
10.33
48.56
81.82
111.46
134.36
146.14
145.54
135.94
123.76
115
113.01
117.83
126.87
134.68
135.72
127.81
112.69
94.43
76.78
61.52
48.13
34.63
19.53
0.71
-21.66
-44.78
-64.92
-79.2
-86.82
-88.95
-87.85
-86.43
-87.48
-92.55
-101.48
-112.18
-120.75
-122.23
-112.14
-88.68
-54.3
-15.55
19.58
44.84
57.94
60.8
57.73
52.96
48.67
44.82
40.28
34.49
28.24
23.22
20.83
21.3
23.67
26.29
27.58
26.91
24.77
22.45
21.37
22.32
25.1
28.65
31.31
31.69
29.34
24.91
20.22
17.37
18.15
23.43
32.85
44.74
56.94
67.54
75.01
78.71
78.61
74.93
67.85
59
50.41
44.08
40.85
38.95
34.51
22.52
-0.14
-32.13
-67.27
-96.69
-112.44
-110.43
-93.58
-69.19
-45.47
-28.55
-19.87
-18.33
-22.31
-30.79
-43.15
-58.09
-72.39
-80.92
-79.79
-67.72
-47.22
-23.83
-3.58
9.5
14.92
15.8
16.51
19.27
22.75
22.6
14.35
-2.96
-25
-43.35
-49.46
-38.84
-13.85
17.7
46.95
68.6
83.14
95.11
108.67
122.77
132.38
130.03
111.19
78.06
39.21
5.4
-15.39
-21.6
-17.75
-11.09
-7.56
-8.87
-12.64
-14.85
-13.11
-8.15
-3.32
-2.34
-7
-16.38
-27.36
-36.01
-39.67
-38.21
-33.78
-29.85
-29.58
-34.8
-45.96
-61.96
-80.16
-96.72
-107.27
-107.56
-96.6
-76.75
-53.14
-32.04
-18.16
-12.79
-14.06
-18.41
-22.7
-25.66
-27.6
-28.87
-28.92
-26.08
-18.39
-5.06
12.89
32.93
52.13
67.56
78.46
85.33
89.3
91.77
94.07
97.37
102.25
107.64
110.73
107.23
92.95
66.3
29.7
-11
-48.73
-78.38
-97.49
-105.67
-103.18
-90.16
-67.1
-36.15
-2.31
27.32
45.99
50.12
40.77
22.85
2.49
-15.42
-28.3
-35.77
-38.5
-37.16
-32.16
-23.94
-13.35
-1.67
9.67
19.28
26.39
30.77
32.5
31.83
29.11
24.77
19.36
13.56
8.13
4.04
1.97
2.02
3.7
6.29
9.19
12.15
15.26
18.82
23.63
29.84
36.53
42.09
44.96
44.5
41.22
36.47
31.8
29.37
29.98
32.67
35.5
36.56
35.09
31.77
28.24
26.41
29.49
39.63
57.29
80.63
105.76
127.3
139.59
138.48
114.13
66.92
6.65
-51.53
-94.87
-118.42
-125.09
-121.58
-114.07
-105.87
-96.21
-84.13
-70.29
-57.14
-47.41
-42.38
-41.33
-42.19
-42.61
-40
-33.67
-24.89
-16.09
-9.57
-6.29
-5.7
-6.32
-6.58
-4.76
-0.38
5.91
12.69
18.59
23.03
26.32
29.21
32.36
36.3
40.6
44.57
47.04
46.86
43.54
37.32
28.87
19.09
9
-0.63
-9.27
-15.66
-20.3
-23.41
-25.19
-25.87
-25.78
-25.22
-24.51
-23.86
-23.38
-23.22
-23.24
-23.26
-23.15
-22.88
-22.34
-21.53
-20.51
-19.34
-18.23
-17.2
-16.26
-15.4
-14.69
-14.07
-13.52
-13.01
-12.5
-12.11
-11.78
-11.53
-11.34
-11.22
-11.19
-11.27
-11.47
-11.74
-12.53
-13.54
-14.73
-15.85
-16.72
-17.21
-17.13
-16.66
-15.34
-13.13
-9.85
-5.44
0.17
6.99
14.76
23.13
31.5
39.31
45.71
50.16
52.28
51.93
49.11
43.95
36.67
27.45
17.45
6.57
-4.68
-15.57
-25.26
-33.09
-38.78
-42.52
-45.08
-47.34
-50.26
-54.04
-58.27
-61.96
-64
-63.8
-61.41
-58.47
-55.48
-53.12
-51.24
-48.78
-44.13
-36.07
-24.56
-11.29
1.2
10.1
13.46
11.3
5.3
-2.14
-8.93
-14.11
-17.26
-18.23
-17.31
-15.39
-14.34
-16.63
-24.09
-36.42
-50.17
-59.28
-58.02
-44.3
-21.33
3.35
21.34
27.69
23.1
12.84
3.99
1.17
4.19
9.37
12.62
12.03
9.05
6.84
7.62
11.12
14.77
15.03
9.74
-1.38
-16.46
-31.6
-41.99
-43.03
-32.17
-9.88
19.09
47.71
68.95
78.59
76.78
67.35
55.61
45.72
39.5
36.13
34.11
32.66
32.39
34.72
40.47
48.96
56.46
61.65
63.05
60.58
55.57
50.11
46.23
45.03
46.32
48.88
51.57
53.11
53.05
51.8
50.12
48.77
48.03
48.57
48.71
47.3
43.33
36.29
26.16
13.43
-1.35
-17.46
-35.08
-52.72
-69.11
-83.12
-93.43
-99.42
-100.36
-96.01
-86.63
-73.16
-56.89
-39.47
-22.56
-7.89
3.08
9.41
10.62
6.85
-1.31
-12.51
-25.1
-37.13
-46.84
-52.8
-53.97
-49.94
-40.86
-27.61
-11.23
5.42
21.11
34.69
45.37
52.66
56.48
57.2
55.22
51.45
46.82
42.32
38.47
35.73
34.04
33.13
33.97
35.05
35.68
35.38
34.01
31.43
27.88
23.38
18.07
12.18
5.7
-1.1
-8.11
-15.28
-24.49
-34.77
-45.72
-57.22
-69.05
-81.09
-92.81
-103.63
-112.99
-120.18
-125.05
-127.27
-126.62
-122.9
-116.17
-106.47
-94.23
-80.27
-65.85
-52.48
-41.14
-32.68
-27.64
-26.06
-27.45
-31.02
-36.14
-42.53
-50.22
-58.6
-67.09
-74.81
-80.47
-82.47
-79.13
-69.08
-50.93
-29.31
-6.21
16.98
39.53
61.42
83.16
105.76
130.23
157.19
186.2
216.69
245.81
268.9
281.09
279.12
263.46
237.88
207.94
178.79
154.98
137.32
123.37
109.67
93.51
75.36
57.2
40.92
27.61
19.41
16.79
18.65
23.42
29.44
37.58
48.78
62.81
78.45
95.83
113.35
128.36
138.85
143.82
146.18
148.71
152.2
140.72
107.98
59.88
9.59
-25.09
-49.25
-71.82
-101.18
-144.85
-201.47
-260.33
-308.56
-336.91
-342.61
-329.28
-300.44
-258.84
-206.83
-147.43
-85.47
-30.32
7.31
20.85
12.06
-6.9
-20.19
-15.96
10.08
54.17
102.76
136.76
141.41
115.61
71.62
24.64
-15.97
-46.77
-68.44
-82.91
-90.23
-90.32
-84.95
-78.47
-77.13
-88.35
-113.87
-148.27
-176.24
-182.53
-163.1
-126.69
-90.72
-60
-33.21
-6.33
24.96
62.12
102.89
141.09
172.04
194.42
209.86
217.17
211.43
186.51
138.83
70.1
-13.74
-100.71
-176.22
-222.82
-227.85
-193.69
-137.48
-83.79
-39.15
-3.32
27.01
52.7
72.79
84.35
85.01
76.79
66.83
64.76
71.93
86.96
106.09
124.71
136.57
134.5
113.75
74.06
21.15
-35.75
-83.95
-111.44
-111.84
-87.62
-49.38
-10.43
18.27
32.04
29.34
12.8
-12.48
-40.95
-68.43
-92.83
-112.11
-123.52
-123.4
-108.57
-76.91
-29.57
28.11
87.03
133.52
158.23
160.63
148.34
131.52
117.9
110.12
106.77
105.89
105.88
106.59
107.24
104.67
94.01
71.39
36.93
-6.98
-54.21
-98.22
-133.3
-156.89
-169.46
-173.3
-170.36
-162.72
-152.28
-135.92
-116.52
-98.27
-84.86
-77.3
-76.29
-77.85
-79.31
-79.78
-79.03
-78.68
-81
-88.63
-103
-124.41
-152.01
-183
-213.14
-234.88
-241.16
-228.41
-198.32
-155.69
-106.32
-54.6
-4.73
42.49
90.23
140.43
190.51
227.42
238.34
218.68
187.73
159.7
145.05
147.99
171.08
211.7
263.17
318.56
371.94
417.77
447.8
439.14
380.04
277.15
153.48
36.02
-56.01
-115.92
-147.38
-160.89
-166.21
-166.96
-163.49
-156.71
-149.36
-143.97
-141.01
-138.43
-133.86
-124.98
-109.27
-86.99
-61.99
-39.9
-24.87
-17.71
-16.41
-18.12
-20.22
-20.1
-16.68
-10.77
-4.22
1.4
6.07
9.65
12.11
13.15
12.61
10
4.87
-2.62
-11.29
-18.99
-23.52
-23.43
-18.69
-10.25
0.05
10.57
20.37
29.16
36.66
42.02
44.03
41.62
34.82
25.44
16.71
12.03
13.52
21.25
33
44.84
51.92
49.87
36.15
11.71
-18.72
-47.59
-66.93
-71.38
-60.26
-38.26
-13.23
7.34
19.25
23.04
22.96
24.29
30.24
39.94
48.42
49.01
36.69
10.99
-23.18
-57.53
-83.73
-97.04
-97.84
-89.94
-79.6
-71.06
-65.86
-62.11
-57.48
-50.08
-39.02
-23.89
-4.79
17.43
41.25
63.95
82.65
94.86
98.92
94.1
80.92
61.13
37.97
15.83
-1.45
-12.13
-17.44
-21.03
-26.98
-37.09
-49.97
-62.08
-69.23
-70.4
-67.14
-62.13
-56.83
-50.76
-42.25
-30.35
-16.01
-1.3
11.95
24.36
37.9
54
71.12
84.54
88.92
81.06
64.01
45.19
33.17
32.8
42.37
54.39
59.62
51.54
29.07
-3.17
-37.71
-67.22
-87.37
-97.27
-97.99
-92.68
-83.74
-72.89
-61.32
-51.08
-44.58
-43.18
-45.57
-46.81
-40.77
-22.85
6.81
43.21
78.07
103.33
114.54
112.25
100.96
85.99
73.27
66.19
65.43
69.01
72.76
71.3
59.09
33.42
-3.87
-46.01
-84.15
-110.4
-120.99
-116.39
-102.43
-85.66
-70.64
-59.46
-52.15
-48.02
-45.56
-42.62
-35.92
-22.78
-2.23
24.22
52.85
79.29
99.85
112.18
114.18
106.21
89.82
68.28
46.12
27.19
13.26
3.36
-4.43
-10.59
-13.01
-9.02
1.79
15.17
22.98
17.78
-3.21
-35.69
-70.2
-96.89
-110.63
-112.26
-105.43
-95.5
-85.05
-73.95
-61.44
-47.79
-35.14
-26.89
-25.7
-31.58
-41.43
-49.43
-48.98
-35.83
-9.43
25.76
61.57
89.56
104.47
106.07
98.92
89.88
84.54
84.06
85.97
84.85
74.83
53.26
23.09
-9.48
-37.79
-57.55
-68
-71.31
-70.1
-65.11
-54.82
-37.44
-13.63
12.22
33.3
43.75
41.91
31.25
19.15
13.05
17.17
30.91
50.17
69.62
84.92
93.28
92.45
80.23
55.65
20.77
-18.3
-52.51
-73.77
-79.48
-73.93
-65.76
-62.42
-65.5
-70.37
-69.67
-58.5
-37.4
-11.36
13.44
32.55
44.16
47.98
43.87
31.82
12.78
-10.14
-31.89
-47.26
-53.56
-51.29
-43.19
-32.25
-20.42
-8.77
1.73
10.15
16.07
19.83
22.8
26.69
32.09
37.95
41.64
39.9
30.2
12.04
-12.74
-39.42
-61.82
-74.61
-75.25
-64.62
-46.46
-25.82
-7.73
3.82
6.74
1.23
-9.94
-21.89
-29.12
-27.58
-16.46
1.29
19.93
34.04
40.87
41.03
37.43
33.07
29.37
26.12
22.35
17.71
13.04
9.79
9
10.67
13.78
16.71
18.02
17.15
14.5
11.3
8.97
8.5
10.13
13.27
16.84
19.64
20.85
20.36
18.77
17.13
16.49
17.49
20.05
23.64
27.05
29.23
29.5
28.1
25.83
23.87
23.53
25.63
30.73
38.69
48.63
58.69
66.07
67.44
60.14
43.32
18.47
-9.68
-35.7
-55.16
-66.04
-69
-66.52
-61.4
-55.57
-49.78
-44.15
-38.65
-33.7
-29.96
-27.9
-27.37
-27.56
-27.3
-25.83
-22.9
-19.08
-15.35
-12.56
-11.15
-10.91
-11.15
-11.05
-10.05
-8.05
-5.42
-2.83
-0.87
0.2
0.52
0.52
0.73
1.5
2.89
4.68
6.49
7.98
8.98
9.6
10.1
10.76
11.82
13.29
15.11
17.1
19.09
21.02
22.94
24.93
26.99
29.01
30.47
30.91
29.8
26.79
21.87
15.43
8.14
0.74
-5.88
-11.78
-17.17
-22.41
-27.74
-33.05
-37.85
-41.38
-43.28
-43.25
-41.92
-40.4
-39.93
-41.31
-44.53
-48.72
-52.54
-54.91
-55.29
-54.23
-52.8
-52.17
-53.25
-56.56
-62.31
-70.19
-78.79
-85.2
-85.54
-76.22
-55.91
-26.85
5.59
34.79
55.58
66.22
68.47
65.95
61.99
58.2
54.45
50.13
45.19
40.64
37.82
37.43
38.88
40.63
41.09
39.16
35.06
29.97
25.51
23.14
23.82
27.71
34.14
41.35
46.91
48.4
44.39
35.08
22.46
9.43
-1.31
-8.41
-12.02
-13.27
-13.3
-12.71
-11.57
-9.83
-7.85
-6.35
-6.1
-7.32
-9.39
-10.92
-10.47
-7.43
-2.44
2.6
5.54
4.98
1.14
-4.12
-8.21
-9.2
-6.72
-2.09
2.6
5.57
6.11
4.49
1.4
-2.43
-6.31
-9.46
-10.96
-10.13
-6.84
-1.83
3.75
8.81
12.74
15.31
16.3
15.28
11.81
5.89
-1.82
-9.9
-16.89
-21.61
-23.59
-23.26
-21.84
-20.88
-21.73
-25.23
-30.63
-36.58
-41.04
-42.12
-39.33
-34.11
-29.2
-27.48
-30.74
-38.32
-47.41
-53.43
-51.51
-38.72
-15.69
13.3
41.11
59.65
63.11
49.72
23.07
-8.9
-36.8
-52.85
-52.61
-36.04
-7.05
28.49
61.68
83.91
91.57
87.34
77.38
68.05
65.6
69.1
74.98
78.24
74.23
60.43
37.62
8.09
-21
-41.44
-48.17
-41.35
-26.49
-11.08
-0.78
2.52
0.16
-5
-12.53
-22.35
-33.94
-45.91
-55.61
-59.77
-56.36
-45.83
-30.93
-15.74
-4.27
1.76
3.05
1.92
0.88
1.11
2.09
2.43
0.78
-3.21
-9.21
-16.53
-24.43
-31.96
-37.9
-40.99
-40.82
-38.82
-37.94
-41.52
-51.16
-65.09
-78.34
-84.86
-80.18
-63.18
-36.87
-4.43
30.94
66.98
101.31
130.05
147.63
148.79
131.39
98.7
59.05
22.88
-1.48
-10.73
-6.85
4.83
18.69
30.97
40.68
48.63
56.36
64.78
73.54
81.25
86.02
86.98
84.82
82.16
82.11
86.74
95.14
103.6
107.55
103.88
93.33
80.06
69.76
62.77
57.86
53.66
50.89
52.11
57.9
66.49
70.55
62.29
37
-3.72
-52.63
-99.45
-133.21
-149.03
-150.15
-145.89
-145.56
-153.25
-165.38
-173.42
-170.1
-153.9
-131.59
-113.82
-109.29
-119.94
-141.05
-164.48
-183.12
-194.32
-192.88
-176.98
-148.39
-112.35
-74.55
-38.77
-8.2
19.57
45.31
67.73
83.91
92.29
93.05
89.32
85.45
84.64
87.63
91.92
94.08
90.97
81.62
67.33
51.23
37.14
28.19
26.1
30.14
37.86
45.37
48.81
45.63
35.58
20.96
5.23
-8.63
-19.39
-26.47
-28.91
-24.29
-11.4
6.73
23.05
30.14
24.51
8.37
-11.46
-26.88
-32.51
-27.72
-15.81
-0.5
16.37
34.43
52.08
64.13
62.56
40.89
-0.01
-51.28
-96.44
-118.05
-106.34
-65.04
-11.04
32.81
47.96
28.45
-16.83
-68.6
-106.24
-116.94
-99.8
-63.61
-20.9
17.62
45.85
60.67
60.28
44.25
14.4
-23.69
-60.87
-87.31
-96.84
-90.01
-73.23
-54.65
-39.58
-27.66
-14.47
4.56
29.69
55.6
73.95
77.97
67.04
47.94
32.03
30.09
47.23
79.9
117.17
145.53
154.97
143.81
119.05
91.97
71.13
57.5
44.34
22.8
-10.41
-48.54
-76.9
-81.18
-57.24
-16
20.68
31.01
5.42
-47.46
-104.02
-136.9
-127.84
-75.5
4.81
88.35
150.78
176.66
163.66
121.81
68.7
22.82
-2.16
-0.85
23.99
63.23
104.86
137.37
152.06
144.33
114.36
67.87
15.81
-28.05
-52.16
-52.23
-33.45
-8.35
8.53
6.72
-16.38
-56.23
-101.66
-140.14
-163.8
-172.03
-169.08
-159.36
-145.13
-127.11
-106.07
-84.08
-64.65
-51.17
-45.19
-45.59
-49.06
-52.02
-52.6
-50.73
-47.57
-44.29
-40.46
-34.71
-24.08
-6.59
16.79
41.52
61
68.46
59.78
35.58
2
-30.65
-51.33
-52.17
-30.53
10.89
64.54
120.04
166.25
193.08
193.15
163.22
105.66
26.67
-58.23
-129.71
-171.08
-174.36
-143.64
-93.32
-41.52
-2.76
17.63
24.38
27.21
34.97
51.99
76.93
104.19
126.68
138.23
135.47
119.02
92.44
61.19
30.97
5.89
-13.32
-28.1
-42.34
-58.46
-73.56
-81.3
-77.23
-63.17
-47.11
-38.81
-43.92
-60.59
-80.11
-91.47
-86.84
-64.77
-30.27
7.34
37.77
54.02
54.34
42.57
25.91
10.75
0.04
-7.18
-14.26
-23.81
-35.56
-46.41
-52.06
-49.53
-39.77
-27.4
-18.2
-15.49
-18.8
-23.18
-21.96
-10.12
13.51
44.82
76.9
103.76
126.29
143.68
153.21
151.41
133.32
101.02
63.43
33.3
21.15
29.98
52.99
77.77
91.9
88.23
67.69
36.28
1.02
-33.19
-63.23
-86.61
-99.74
-99.54
-86.42
-64.82
-43
-29.44
-29.18
-40.16
-54.09
-59.86
-51.56
-33.62
-16.96
-12.79
-23.55
-45.36
-70.33
-89.82
-97.37
-88.03
-62.3
-25.21
15.07
50.02
72.61
79.25
69.24
43.21
2.28
-51.16
-110.46
-164.46
-200.19
-207.57
-182.81
-129.48
-56.94
22.69
97.58
158.89
200.7
218.88
211.19
178.33
124.64
57.3
-15.27
-84.52
-141.5
-177.55
-186.73
-167.44
-123.24
-61.9
6.51
72.12
123.31
153.06
163.05
160.25
151.62
140.48
127.82
114.38
101.57
94.11
95.73
108.79
131.38
156.73
174.61
175.74
154.56
110.29
48.23
-21.74
-85.1
-128.37
-142.82
-127.43
-86.35
-23.48
50.52
121.51
176.4
206.89
210.15
191
152.64
99.57
37.99
-26.35
-88.94
-144.12
-188.65
-222.15
-246.13
-265.72
-285.44
-308.78
-338.2
-373.48
-411.53
-447.97
-479.08
-490.66
-474.98
-429.21
-355.74
-261.13
-154.45
-47.36
46.03
112.63
145.94
147.97
131.57
114.42
110.92
126.44
156.38
190.46
219.41
241.85
257.5
266.14
265.48
251.99
223.84
183.7
139.64
103.04
84.48
88.05
109.27
136.71
156.86
159.24
139.98
101.77
51.32
-6.89
-63.02
-107.55
-135.55
-147.98
-149.48
-144.59
-134.84
-119.01
-94.64
-60.88
-21.55
15.61
42.28
53.53
50.3
40.17
29.46
22.13
18.72
16.37
11.8
4.79
-0.8
1.19
14.41
38.26
65.42
83.88
82.07
54.92
7.42
-46.49
-89.26
-107.43
-97.35
-65.96
-26.64
7.09
27.57
35.21
36.03
37.01
41.57
48.44
53.73
54.33
50.14
43.87
39.41
39.36
44.01
51.32
58.48
63.73
67.11
69.57
71.29
70.45
63.25
46.83
20.11
-13.9
-48.88
-77.49
-94.43
-98.25
-90.04
-74.76
-56.92
-39.41
-23.42
-9.71
0.97
7.72
9.68
7.64
2.88
-2.82
-8.09
-12.56
-17.13
-22.93
-30.94
-41.4
-53.46
-65.66
-76.18
-83.73
-88.09
-90.37
-91.82
-93.52
-95.73
-97.61
-97.76
-94.6
-87.32
-74.75
-59.61
-44.9
-32.95
-24.85
-20.15
-17.43
-15.13
-12.15
-8.49
-5.31
-3.69
-4.41
-8.08
-14.84
-24.36
-35.03
-43.6
-45.46
-36.56
-15.06
16.86
52.94
85.47
108.27
119.16
120.14
115.67
109.75
104.37
99.35
93.42
86.29
79.03
73.64
71.5
72.61
75.23
76.92
76.09
71.21
62.95
53.34
44.89
39.08
35.97
33.99
30.26
23.38
13.13
1.3
-9.04
-14.79
-14.94
-10.26
-3.44
1.81
2.17
-4.64
-18.62
-37.82
-58.15
-75.16
-84.89
-85.05
-75.25
-57.23
-34.11
-9.89
11.53
27.37
36.9
41.91
45.42
49.04
52.73
52.92
43.73
21.37
-13.2
-53.56
-89.59
-111.45
-113.45
-95.63
-63.51
-25.24
11.73
42.31
63.93
77.11
84.46
88.19
88.98
85.18
73.79
53.19
23.84
-10.53
-43.9
-70.37
-86.78
-93.49
-92.74
-88.87
-83.87
-76.96
-65.92
-49.94
-31.4
-15.48
-7.51
-10.1
-21.51
-35.92
-46.57
-48.54
-40.7
-25.22
-6.03
12.93
29.31
41.98
51.25
57.95
62.55
64.42
61.76
52.21
34.59
10.15
-16.98
-40.52
-54.48
-55.14
-43.2
-22.9
-0.34
18.95
31.64
36.87
35.8
31.31
26.32
23.29
23.24
25.2
26.69
24.97
18.55
8.03
-4.18
-15.05
-22.3
-25.17
-24.31
-21.11
-16.92
-12.64
-8.76
-5.61
-3.52
-2.68
-2.94
-3.76
-4.34
-4.12
-2.97
-1.17
0.52
1.02
-0.59
-4.53
-10.25
-16.51
-21.75
-24.61
-24.6
-22.07
-17.65
-11.77
-4.62
3.07
9.62
11.8
7.03
-4.21
-17.5
-26.12
-24.58
-11.79
8.17
28.22
42.04
47.25
45.79
41.86
39.14
38.95
40.48
42.14
43.11
43.5
43.86
44.41
44.56
43.4
40.84
38.36
38.58
43.37
51.98
59.94
60.95
48.46
20.13
-20.49
-64.76
-102.33
-124.99
-129.35
-117.08
-93.4
-64.85
-37.04
-14.24
0.91
7.2
5.2
-2.47
-10.85
-13.87
-6.48
13.1
41.39
70.22
89.72
92.86
78.73
52.91
24.03
-1.19
-21.28
-39.25
-58.53
-78.79
-93.05
-92.09
-69.6
-27.94
20.06
55.95
65.15
45.55
9.63
-22.32
-33.04
-17.3
16.19
49.88
66.62
57.44
24.2
-23.62
-75.38
-123.92
-165.43
-196.56
-212.69
-208.45
-180.12
-128.02
-57.35
21.84
97.06
156.82
193.43
203.68
188.94
154.49
103.82
46.82
-3.56
-39.31
-62.5
-80.79
-99.16
-114.81
-120.61
-106.16
-66.7
-8.76
50.86
92.29
102.35
80.94
38.87
-3.43
-24.57
-11.72
32.79
92.02
142.23
163.66
147.95
99.29
31.25
-39.45
-97.84
-133.98
-143.81
-128.26
-91.69
-40.88
15.04
66.36
102.61
116.48
110.95
97.76
88.74
88.85
96.38
106.79
116.76
125.7
135.31
147.59
162.31
176.69
186.74
188.89
180.95
162.5
135.19
103.87
73.25
47.16
28.07
16.64
12.25
13.97
21.12
33.4
50.58
71.62
93.39
112
124.34
129.55
129.21
126.15
122.8
119.84
119.56
120.34
119.46
114.69
105.42
92.66
78.22
63.81
50.56
38.66
25.71
9.68
-10.01
-31.93
-53.49
-72.14
-86.32
-95.65
-100.78
-106.56
-117.06
-134.02
-156.26
-181.02
-205.82
-229.32
-251.26
-271.86
-296.67
-329.59
-370.86
-416.57
-461.08
-499.97
-531.37
-555.56
-573.91
-594.65
-623.95
-663.11
-707.96
-751.9
-789.67
-818.97
-839.78
-811.75
-712.47
-544.52
-337.16
-128.44
54.25
199.65
307.84
383.99
434.75
460.22
461.76
444.24
416.15
386.7
361.93
343.9
331.76
323.49
311.91
291.54
260.97
224.24
189.21
164.27
155.82
166.01
191.86
222.88
247.66
258.41
253.97
238.94
219.84
202.13
188.11
177.24
166.29
153.07
137.57
121.85
109.27
99.86
92.61
85.78
77.8
67.78
56.21
44.33
33.64
25.07
18.3
12.37
6.03
-1.45
-10.7
-19.97
-27.87
-33.46
-36.6
-38
-38.56
-39.11
-39.84
-40.33
-39.53
-36.97
-32.79
-27.74
-23.11
-19.59
-17.72
-16.89
-15.59
-11.88
-4.81
5.39
17.31
28.99
38.67
45.59
50.3
53.16
56.51
61.84
69.59
79.15
88.61
94.94
94.43
84.04
62.86
33.1
-0.57
-32.59
-58.39
-75.76
-85.01
-87.91
-86.17
-80.49
-70.65
-55.62
-35.08
-9.85
17.6
42.94
60.42
64.39
51.5
23.22
-13.83
-49.56
-74.06
-81.61
-72.84
-53.66
-32.03
-14.28
-3.01
2.66
5.13
6.39
6.99
6.34
3.92
0.24
-3.12
-4.04
-1.13
5.24
13.03
19.28
21.52
18.82
12.09
3.66
-3.78
-8.26
-8.99
-6.22
-1.13
4.91
10.61
15.16
18.39
20.57
21.93
22.39
21.5
18.42
13.54
8.37
4.81
3.92
4.9
5.26
2.34
-4.83
-14.63
-23.86
-30.05
-32.98
-34.36
-35.94
-37.62
-37.11
-31.78
-21
-7.24
4.67
10.19
7.74
-0.65
-10.56
-17.73
-20.13
-18.3
-14.3
-10.23
-7.22
-5.47
-4.7
-4.67
-5.31
-6.77
-8.96
-11.37
-13.06
-12.97
-10.53
-6.01
-0.55
4.2
6.49
5.43
1.34
-4.22
-8.94
-10.98
-9.63
-5.78
-1.46
0.83
-0.59
-6.04
-14.23
-22.73
-29.43
-33.03
-33.58
-29.43
-19.4
-3.69
15.11
33.53
49.05
60.54
69.06
76.74
85.94
96.8
106.16
109.18
98.92
72.06
30.63
-17.68
-63.31
-98.12
-119.08
-124.67
-120.7
-115.6
-114.21
-118.17
-119.54
-110.33
-86.53
-50.07
-8.07
29.17
53.03
58.66
46.16
21.35
-7.35
-31.2
-43.91
-42.82
-29.23
-6.77
19.79
45.25
65.38
77.36
81.33
80.74
80.66
84.45
91.43
96.38
92.13
74.27
44.16
9.91
-16.95
-26.84
-16.58
9.54
41.17
65.94
74.1
61.48
31.02
-8.43
-45.11
-68.7
-73.98
-63.85
-47.54
-35.49
-33.67
-40.42
-47.97
-47.32
-33.25
-6.89
23.6
47.68
58.24
55.39
45.46
35.95
30.52
27.09
20.19
3.01
-27.61
-68.22
-109.21
-136.76
-139.68
-117.44
-85.4
-54.56
-29.58
-8.86
10.3
29.71
48.3
61.97
66.29
60.05
47.27
33.41
23.1
18.5
19.32
23.53
27.83
29.05
25.24
16.96
5.66
-6.14
-14.66
-15.54
-5.17
15.87
42.38
66.12
81.16
85.64
81.45
72.49
62.59
54.9
50.64
50.03
52.67
57.75
62.76
63.43
55.02
34.2
2.92
-35.24
-74.07
-106.93
-129.14
-139.69
-140.96
-133.72
-122.56
-109.48
-94.06
-75.16
-53.55
-32.7
-17.58
-11.98
-16.11
-26.48
-35.83
-37.46
-28.03
-9.18
13.49
33.22
45.13
48.31
44.24
36.52
28.44
21.96
17.33
13.79
10.29
6.63
3.25
0.6
-0.53
-0.18
0.94
1.89
2.14
1.68
0.94
-0.02
-1.87
-4.76
-8.04
-9.59
-5.94
6.93
31.96
69.56
116.79
164.82
202.29
218.61
207.57
169.56
111.37
44.03
-20.77
-73.98
-111.06
-131.67
-138.5
-135.75
-127.67
-117.49
-107.07
-96.76
-85.47
-71.16
-51.13
-23.41
11.69
49.99
83.65
103.43
102.68
80.96
45.08
6.69
-23.05
-38.41
-40.88
-36.59
-31.64
-28.46
-25.92
-22.14
-17.69
-16.06
-20.79
-31.63
-42.78
-45.16
-31.7
-2.61
33.21
61.74
70.34
53.97
17.6
-26.42
-64.23
-86.32
-90.66
-81.72
-66.79
-51.88
-39.25
-27.79
-15.36
-1.22
13.02
23.98
28.4
24.92
14.81
1.67
-10
-16.15
-14.29
-3.97
13.23
34.06
54.25
69.41
75.87
71.65
56.98
34.43
8.26
-16.71
-36.27
-47.73
-50.31
-45.01
-34.14
-20.59
-7.2
3.72
10.67
13.17
11.68
7.45
2.15
-2.51
-5.3
-5.68
-4.04
-1.55
0.34
0.62
-0.81
-3.31
-5.95
-7.94
-9.05
-9.64
-10.47
-12.3
-15.15
-18.39
-21.33
-23.72
-25.69
-27.55
-29.53
-31.57
-33.32
-33.76
-31.69
-26.83
-20.3
-13.94
-9.44
-7.78
-9.35
-14.19
-21.53
-29.77
-36.85
-40.3
-37.2
-24.9
-2.29
29.04
61.34
84.7
94.34
92.72
85.52
77.3
69.81
62.53
54.28
44.77
35.7
29.79
28.69
31.91
37.12
41.46
42.69
39.99
34.23
27.84
23.79
24.12
29.17
37.61
46.88
53.57
54.11
45.81
28.27
4.21
-21.16
-41.41
-50.93
-46.77
-29.94
-5.32
20.3
40.61
51.82
53.17
46.18
33.2
16.14
-3.83
-26.06
-49.14
-70.37
-86.28
-94.15
-93.14
-84.77
-72.37
-58.94
-48.09
-41.21
-37.9
-36.65
-35.72
-33.58
-29.45
-23.57
-17.06
-11.85
-9.59
-11.14
-16.02
-22.29
-27.19
-28.36
-24.94
-18.01
-10.4
-5.16
-4.53
-9.1
-17.89
-28.7
-38.49
-43.52
-39.84
-24.54
2.07
34.81
64.04
79.39
74.83
52.58
23.14
1
-2.48
15.7
48.37
81.54
100.92
98.01
73.07
34.14
-7.11
-40.07
-58.17
-59.87
-47.52
-25.54
0.61
25.1
42.27
47.63
39.45
20.03
-4.56
-26.42
-38.85
-39.02
-28.76
-12.91
2.9
14.46
19.84
18.93
12.73
3.04
-7.64
-16.32
-20.33
-18.4
-11.38
-2.21
5.11
7.39
3.65
-4.53
-13.7
-19.68
-19.2
-11.19
2.23
15.91
23.66
21.03
7.44
-12.88
-32.13
-42.3
-38.31
-20.17
8.3
39.61
65.91
81.2
81.68
65.87
35.73
-2.51
-39.19
-67.19
-81.87
-83.49
-76.78
-67.8
-59.86
-51.48
-38.31
-16.32
12.54
41.17
61.04
67.72
63.52
55.75
52.01
56.13
66.67
78.51
86.23
85.72
75.29
56.95
33.9
11.15
-6.3
-15.72
-18.32
-18.61
-22.12
-31.53
-46.26
-61.43
-70.69
-70.32
-61.8
-50.88
-43.84
-44.15
-50.96
-60.42
-67.91
-69.67
-64.18
-52.23
-36.25
-20.14
-6.56
2.53
6.42
6.09
4.05
3.26
6.03
13.17
23.61
35.16
45.75
53.57
58.38
61.82
66.29
73.62
83.76
94.74
101.22
98.26
83.07
56.47
23.01
-10.9
-39.34
-57.59
-65.72
-67.22
-66.04
-64.59
-63.37
-61.77
-59.38
-56.04
-51.37
-44.41
-33.79
-19.56
-2.86
12.6
22.64
24.81
20.11
12.35
6.11
4.7
9.04
17.98
29.38
42.08
55.67
68.95
78.5
78.71
64.16
32.92
-11.11
-58.38
-96.64
-116.09
-113.75
-94.72
-69.42
-48.18
-36.3
-32.11
-29.36
-21.86
-7.42
10.92
27.31
37.1
39.56
38.09
38.17
43.73
54.6
65.97
70.58
62.71
41.78
13.5
-12.19
-25.91
-23.84
-9.49
7.66
16.93
11.78
-7.42
-34.45
-60.9
-80.26
-89.64
-89.11
-79.85
-62.94
-39.33
-11.04
18.34
44.58
63.46
72.93
74.16
70.76
66.85
65.22
66.34
67.17
63.4
51.23
29.4
0.4
-30.3
-56.83
-75.48
-86.33
-91.43
-92.65
-88.47
-75.95
-53.14
-21.28
14.13
45.75
67.8
79
83.07
86.08
92.32
100.46
106.67
103.34
85.31
53.02
12.82
-25.99
-53.95
-67.26
-68.17
-62.52
-56.36
-52.64
-51.02
-49.31
-45.85
-40.74
-35.93
-33.6
-34.62
-38.45
-43.13
-46.02
-45.11
-39.69
-30.75
-20.9
-13.05
-9.07
-8.93
-10.36
-9.92
-4.83
5.61
19.51
33.25
43.3
47.85
47.21
43.33
38.49
34.16
30.66
27.68
24.46
20.67
16.61
12.72
9.39
6.7
4.5
2.55
0.79
-0.71
-1.72
-2.02
-1.65
-0.91
-0.26
-0.1
-0.58
-1.53
-2.62
-3.47
-3.88
-3.89
-3.64
-3.28
-2.89
-2.52
-2.24
-2.16
-2.37
-2.81
-3.26
-3.4
-3.03
-2.16
-1.11
-0.28
-0.01
-0.33
-0.96
-1.52
-1.68
-1.39
-0.9
-0.57
-0.7
-1.28
-2.07
-2.69
-2.88
-2.56
-1.89
-1.12
-0.47
-0.08
0.03
-0.15
-0.54
-1.08
-1.72
-2.34
-2.85
-3.24
-3.6
-3.97
-4.3
-4.45
-4.25
-3.69
-2.97
-2.44
-2.35
-2.71
-3.23
-3.58
-3.58
-3.36
-3.3
-3.74
-4.74
-5.99
-7
-7.36
-7
-6.18
-5.3
-4.68
-4.42
-4.44
-4.61
-4.84
-5.07
-5.26
-5.34
-5.24
-5.04
-4.87
-4.91
-5.13
-5.13
-4.24
-2.02
1.27
4.56
6.28
5.34
1.78
-2.78
-5.8
-4.88
0.92
10.53
21.18
29.71
33.84
33.11
28.89
23.68
19.86
18.36
18.12
16.82
12.22
3.53
-8.17
-20.31
-29.67
-33.32
-29.27
-16.89
2.9
27.48
51.71
68.25
69.74
52.43
18.98
-21.15
-54.99
-70.85
-63.13
-34.7
4.36
41.83
69.06
83.52
87.54
84.23
74.5
56.72
28.32
-11.86
-61.14
-112.05
-151.86
-165.63
-146.53
-102.71
-52.14
-11.1
12.73
21
22.59
25.73
33.5
43.37
49.92
49.11
40.78
28.52
16.72
10.17
11.07
18.06
26.69
31.66
29.74
20.75
6.96
-8.04
-20.26
-26.54
-24.83
-14.59
3.02
25.05
46.71
62.15
66.42
57.86
38.86
15.09
-7.08
-23.22
-32.18
-35.64
-36.37
-36.23
-35.31
-32.71
-27.91
-21.73
-16.34
-14.15
-16.67
-23.41
-31.79
-38.29
-40.17
-36.77
-29.83
-22.76
-19.06
-21.02
-28.15
-37.08
-43.3
-43.53
-37.36
-27.26
-17.33
-11.28
-11.39
-17.2
-25.76
-33.46
-37.85
-37.52
-31.09
-16.76
6.44
35.94
65.19
85.73
90.19
75.88
47.25
15.09
-8.86
-12.66
5.29
33.81
58.9
73.16
77.35
76.49
74.85
73.68
71.43
65.99
57.45
49.7
47.89
55.06
69.94
86.97
99.22
98.47
79.94
44.46
0.04
-42.33
-73.82
-91.04
-96.64
-97.07
-99.63
-108
-121.34
-132.47
-132.68
-116.5
-83.9
-39.69
11.7
62.9
108.25
141.78
164.21
180.28
193.58
202.13
198.73
176.13
132.01
73.37
6.94
-56.8
-108.83
-143.78
-160.43
-161.28
-151.77
-140
-124.68
-112.85
-111.5
-124.57
-148.54
-172.72
-183.52
-170.15
-129.31
-67.03
-2.35
51.32
82.88
87.01
66.04
28.62
-13.96
-52.72
-83.59
-102.41
-108.42
-104.43
-93.69
-78.47
-60.47
-41.94
-25.66
-14.27
-9.48
-10.5
-15.21
-20.69
-25.2
-28.79
-32.33
-35.55
-35.76
-28.75
-10.88
18.19
54.91
92.65
124.32
145.11
153.88
152.87
145.56
134.98
123.27
112.28
103.99
100.01
100.73
104.45
107.49
105.24
93.96
72.44
43.26
11.81
-15.53
-33.74
-40.79
-37.84
-28.34
-16.18
-4.18
6.31
14.97
21.92
27.46
31.41
34.39
35.89
34.67
28.31
15.11
-4.65
-28.42
-51.93
-70.97
-83.18
-88.29
-89.02
-88.17
-86.65
-83.16
-75.39
-61.72
-42.57
-20.36
1.11
18.38
29.4
33.65
32.47
27.66
21.68
17.21
15.81
16.94
17.98
15.46
7.24
-5.5
-18.02
-24.45
-21.49
-11.17
-0.15
4.32
-0.24
-9.21
-13.25
-4.64
16.77
41.99
57.04
51.03
22.54
-18.77
-57.39
-80.01
-82.12
-68.5
-48.86
-31.55
-18.99
-8.28
5.64
25.27
49.01
72.06
88.92
95.53
90.16
75.39
53.35
27.4
1.68
-19.74
-34.03
-40.38
-38.73
-32.17
-23.54
-13.65
-1.22
14.49
31.11
43.08
44.09
30.69
4.71
-26.45
-53.38
-68.57
-69.11
-57.53
-40.04
-23.4
-12.19
-7.4
-6.7
-6.76
-4.8
-0.07
6.04
11.57
15.24
16.83
16.94
16.53
16.07
15.4
13.54
9.03
0.67
-11.36
-25.48
-39.28
-50.14
-56
-55.43
-46.85
-32
-14.11
3.32
17.49
27.21
33.02
36.31
38.22
38.61
36.68
31.42
23.42
15.07
9.32
8.06
10.87
15.3
18.28
17.86
14.32
9.56
5.52
3.15
2.41
2.57
2.88
2.78
2.03
0.82
-0.56
-1.94
-3.28
-4.69
-6.05
-7.35
-8.57
-9.64
-10.48
-11.04
-11.56
-12.3
-13.22
-13.97
-14.16
-13.54
-12.15
-10.38
-8.85
-8.38
-9.35
-11.31
-13.15
-13.88
-13.02
-10.85
-8.25
-6.31
-6.4
-9.39
-15.21
-22.83
-30.81
-37.68
-42.28
-44.13
-41.18
-33.02
-21.49
-8.99
3.69
17.3
32.37
47.96
61.6
70.61
73.23
69.72
62.61
55.41
50.8
49.9
52.59
58.17
65.86
73.77
78.49
75.56
61.2
34.73
0.31
-33.48
-58.31
-68.29
-63.38
-49.24
-34.24
-25.3
-24.65
-30.67
-38.65
-44.57
-47.12
-47.64
-48.12
-49.3
-50.24
-49.51
-46.47
-42.16
-38.69
-37.58
-38.77
-40.2
-38.9
-32.28
-19.32
-0.81
20.79
41.78
58.21
66.46
64.34
52.23
33.54
13.89
-0.97
-7.54
-5.96
0.57
7.88
12.99
15.02
14.71
12.84
9.52
4.36
-2.52
-9.62
-14.34
-14.38
-9.35
-1.17
6.44
9.82
6.94
-1.93
-14.44
-27.18
-36.92
-41.44
-39.3
-30.06
-14.15
7.14
31.21
53.36
69.92
79.18
81.4
78.46
72.72
66.38
60.99
57.55
56.88
59.86
66.68
75.72
83.58
85
74.8
50.48
14.15
-27.68
-66.3
-94.45
-110.43
-115.19
-112.32
-105.76
-98.03
-89.67
-80.39
-70.21
-58.87
-48.99
-42.04
-38.21
-36.09
-33.92
-30.13
-24.5
-18.41
-14.12
-13.83
-17.31
-22.24
-24.94
-21.93
-11
7.48
30.78
54.7
74.38
86.03
87.07
77.36
58.78
36.09
15.58
3.25
2.51
12.83
30.92
52.19
72.39
88.38
98.24
99.39
88.71
64.59
28.31
-14.28
-54.51
-84.03
-99.12
-100.15
-92.1
-81.56
-73.74
-71.31
-73.95
-80.29
-88.9
-98.19
-105.42
-106.92
-98.92
-78.04
-46.86
-10.91
22.82
48.61
64.08
70.71
71.84
70.59
68.61
65.65
61.42
56.39
51.97
49.9
51.64
57.54
66.56
76.48
83.42
83.33
72.9
51.53
21.34
-12.42
-43.27
-66.13
-78.84
-82.66
-80.54
-75.44
-69.06
-61.89
-54.02
-45.68
-38.72
-34.56
-33.59
-34.76
-36.15
-36.14
-34.23
-31.37
-29.59
-31.46
-38.96
-52.75
-70.71
-88.23
-99.07
-97.88
-82.5
-55.35
-22.96
6.82
27.99
38.78
41.59
41.27
41.79
44.58
48.51
51.32
51.59
49.76
47.8
47.83
51.14
57.01
63.6
68.72
71.18
71.15
70.04
69.8
70.12
72.41
76.54
81.55
86.27
89.44
89.51
84.63
73.28
55.32
32.91
9.63
-10.5
-24.79
-32.95
-36.92
-40.02
-44.55
-50.93
-57.57
-62.38
-63.67
-60.85
-54.47
-45.66
-35.49
-25.04
-14.88
-5.14
4.01
12.25
19.07
23.79
26.06
26.05
24.5
22.63
21.56
21.99
24.29
28.8
35.89
45.41
55.84
63.63
64.6
54.56
32.33
1.06
-32.49
-60.37
-76.68
-79.41
-72.03
-60.86
-51.77
-47.58
-47.71
-49.32
-49.62
-47.59
-44.57
-42.95
-43.53
-44.95
-44.49
-39.62
-30.64
-20.46
-12.09
-5.9
0.89
12.15
29.08
47.85
60.74
60.09
42.99
13.99
-16.51
-36.94
-39.63
-24.41
1.78
28.02
44.11
44.55
30.66
9.62
-9.27
-18.54
-15.99
-4.55
9.85
21.72
28.33
29.77
27.78
23.12
14.99
1.75
-16.82
-38.26
-57.6
-69.21
-69
-56.47
-35.82
-13.03
5.07
14.18
13.91
7.32
-1.04
-7.27
-9.1
-5.99
1.43
11.62
22.08
29.23
29.27
19.93
2.13
-19.53
-38.32
-48.24
-46.45
-33.93
-14.64
6.78
27.07
44.58
58.73
68.79
73.2
69.95
58.62
42.3
26.85
18.23
18.73
25.2
30.35
27.69
15.9
0.1
-11.68
-14.08
-7.9
0.53
3.64
-2.93
-17.83
-35.29
-48.61
-53.82
-50.83
-42.76
-34.44
-29.03
-28.44
-32.9
-40.6
-47.55
-49.18
-42.91
-29.15
-12.82
0.21
6.67
7.47
6.46
7.7
12.53
18.66
21.62
17.93
8.01
-3.68
-10.76
-8.38
4.44
24.06
43.89
57.52
61.55
56.86
47.71
39.5
36.12
38.63
45.57
54.18
62.06
67.71
70
67.47
58.77
42.12
17.74
-11.42
-40.53
-64.75
-81.16
-90.13
-94.78
-98.64
-102.42
-105.11
-101.42
-86.8
-61.02
-29.71
-2.54
11.48
8.87
-5.98
-22.12
-28.04
-18.03
5.15
32.63
55.19
68.57
74.9
79.36
85.92
92.94
94.45
84.13
59.38
23.94
-13.73
-44.03
-61.41
-67.01
-66.5
-65.2
-63.98
-58.63
-43.32
-16.3
18.28
50
67.24
62.87
39.15
6.1
-23.83
-42.14
-47.4
-44.09
-38.87
-36.21
-36.59
-37.64
-37.12
-34.89
-32.75
-32.53
-34.32
-35.95
-33.97
-25.47
-10.06
9.53
28.56
42.44
48.68
47.83
42.58
36.3
31.48
29.05
28.37
28.3
27.94
26.82
24.96
22.45
19.26
15.36
10.75
5.74
0.92
-3.01
-5.48
-6.23
-5.46
-3.64
-1.41
0.54
1.65
1.58
0.24
-1.91
-3.99
-5.04
-4.32
-1.85
1.57
4.6
6.02
5.25
2.66
-0.7
-3.73
-5.6
-6.05
-5.44
-4.6
-4.27
-5.15
-7.45
-10.85
-14.64
-17.18
-16.27
-9.44
4.54
24.2
44.45
57.63
56.83
38.18
4.21
-36.14
-70.62
-89.11
-88.05
-71.46
-48.11
-26.76
-12.38
-5.02
-2.55
-2.4
-3.79
-7.22
-12.52
-17.47
-18.61
-13.4
-1.54
14.23
29.97
42.27
49.6
52.28
51.52
48.66
44.6
40.46
37.35
36.36
38
42.28
48.92
57.44
66.65
74.01
76.43
70.11
53.2
27
-3.88
-33.07
-55.03
-66.64
-68.93
-65.34
-59.58
-53.72
-48.18
-42.75
-37.72
-34.16
-33.18
-34.99
-38.33
-41.17
-41.69
-39.16
-34.52
-29.65
-26.62
-26.69
-29.99
-35.18
-39.95
-41.52
-37.61
-27.49
-12.13
5.47
21.65
33.44
39.76
41.75
42.02
43.37
47.29
53.01
57.55
57.18
49.44
34.75
16.67
0.49
-9.28
-11.14
-7.22
-1.95
0.69
-0.72
-4.6
-7.78
-7.75
-4.03
1.79
7.55
11.82
14.22
14.85
13.56
10.15
4.56
-2.47
-9.41
-14.52
-16.78
-16.42
-14.58
-12.62
-11.17
-9.93
-8.15
-5.23
-1.18
3.34
7.29
9.58
9.27
6.17
0.88
-5.23
-10.44
-13.07
-12.18
-7.85
-1.36
4.82
8.17
6.9
0.84
-8.24
-16.9
-20.97
-17.01
-2.42
20.83
47.2
70.3
85.86
93.09
94.27
92.89
91.82
92.66
95.86
101.52
108.89
115.74
117.86
110.44
90.18
57.53
17.46
-22.29
-54.07
-73.63
-80.96
-79.6
-73.65
-66.1
-58
-49.23
-40.93
-33.06
-26.51
-21.98
-19.54
-18.04
-16.27
-13.34
-9.38
-5.15
-1.85
-0.63
0.46
1.43
3.35
7.38
14.37
22.57
32.35
43.27
54.45
65.35
75.44
85.18
94.94
105.2
116.18
128.06
140.47
152.94
165.25
177.03
188.49
199.38
209.51
218.45
225.62
229.96
230.15
224.8
211.51
192.33
168.45
141.42
112.95
84.6
57.37
31.93
8.74
-13.43
-35.28
-57.18
-78.45
-98.18
-115.92
-131.8
-146.21
-159.39
-174.48
-193.22
-215.3
-238.06
-258.3
-273.95
-284.69
-291.36
-295.3
-302.96
-318.85
-343.81
-374.76
-407.29
-438.38
-466.96
-493.17
-517.44
-546.44
-584.07
-629.25
-675.83
-716.22
-744.91
-759.52
-759.85
-706.18
-581.07
-395.5
-185.46
10.26
168.51
283.66
360.79
409.16
438.18
449.08
442.98
423.42
396.91
370.03
346.9
328.7
315.13
305.3
293.26
274.63
248.22
216.86
184.33
152.98
122.24
90.77
57.62
20.74
-18.44
-54.52
-78.7
-84.64
-71.51
-45.4
-15.48
9.84
24.35
26.56
18.94
8.05
-0.85
-5.19
-6.21
-5.46
-3.43
0.35
7.14
18.47
39.67
70.26
109.79
155.54
205.25
257.36
311.27
366.34
401.21
401.18
363.61
299.86
225.01
151.32
84.82
27.19
-22.64
-66.91
-104.97
-136.58
-157.68
-173.56
-188.49
-205.13
-223.98
-244.78
-266.85
-287.01
-302.49
-311.52
-314.65
-311.58
-305.45
-296.69
-285.23
-270.94
-252.42
-228.99
-201.11
-171.3
-141.89
-115.1
-91.97
-73.2
-58.99
-48.42
-40.43
-34.2
-29.76
-26.93
-25.57
-25.07
-25
-25.02
-24.58
-23.2
-20.6
-16.96
-12.47
-7.47
-2.12
3.29
8.53
13.52
18.8
24.92
32.1
40.25
48.98
57.88
66.46
74.35
81.49
88.6
96.54
105.95
116.98
129.33
142.46
155.76
168.73
181.22
194.3
209.01
225.93
245.27
267.27
292.21
319.72
348.03
373.79
395.08
409.45
414.5
408.99
394.04
373
349.91
328
308.95
297.57
295.74
301.18
308.83
314.22
315.32
312.22
306.02
298.07
296.95
307.72
329.15
355.15
379.42
397.88
408.3
409.57
401.76
396.1
400.87
416.7
437.42
455.86
467.77
471.95
469.53
402.68
252.18
44.29
-167.37
-341.62
-465.95
-546.83
-596.33
-625.17
-640.9
-638.67
-616.15
-578.08
-534.51
-494.43
-462.09
-437.83
-420.39
-408.2
-392.37
-367.52
-334.53
-299.01
-266.56
-239.99
-219.9
-205.86
-196.96
-187.18
-172.21
-151.79
-129.02
-107.64
-90.02
-76.73
-66.88
-58.92
-49.67
-38.62
-29.04
-25.67
-30.98
-42.52
-53.58
-56.5
-46.79
-25.56
0.15
20.67
29.47
26.7
18.6
12.49
11.13
11.32
6.75
-5.98
-23.45
-36.98
-38.49
-26.22
-6.62
9.14
12.63
3.18
-11.59
-21.78
-21.8
-13.86
-6.03
-6.53
-18.41
-37.23
-54.17
-60.74
-53.6
-35.91
-15.17
0.34
5.48
0.04
-11.37
-22.39
-27.76
-26.06
-20.3
-14.94
-13.89
-18.14
-25.74
-33.19
-37.57
-37.42
-32.55
-23.45
-10.86
3.5
17.58
28.38
33.13
30.48
21.55
9.25
-3.27
-13.63
-21.01
-25.63
-28.08
-28.54
-27.23
-24.69
-22.03
-20.44
-20.3
-20.7
-19.19
-13.14
-0.99
17.43
40.41
65.04
87.43
103.25
108.44
100.13
77.7
43.89
4.79
-31.33
-56.43
-65.61
-58.75
-40.54
-18.19
1.21
13.28
17.03
13.98
6.54
-3.11
-13
-21.5
-26.89
-27.68
-22.43
-10.78
5.83
23.9
37.93
42.37
34.19
15.12
-8.05
-26.46
-33.63
-28.52
-15.36
-0.37
12.24
21.79
29.8
36.72
39.69
33.75
15.71
-11.87
-40.64
-59.6
-61.04
-44.94
-18.52
7.89
25.91
32.15
28.63
20.34
12.78
8.65
7.89
8.52
8.16
5.67
1.78
-1.48
-2.33
-0.62
1.95
3.09
1.54
-1.98
-5.22
-6.07
-4.08
-0.74
1.51
1.11
-1.53
-4.44
-5.7
-4.93
-3.58
-3.96
-7.6
-14.5
-23.18
-31.53
-37.82
-40.96
-40.32
-35.41
-25.94
-11.59
5.53
21.41
31.51
32.81
25.39
12.53
-0.86
-10.49
-14.42
-13.37
-9.3
-3.85
2.39
9.43
16.88
23.37
26.96
26.3
21.51
14.53
8.41
5.71
7.4
12.39
18.37
23.07
25.22
24.69
22.19
18.83
15.74
13.74
12.84
12.51
12.24
11.79
11.2
10.34
9.14
7.73
6.73
6.46
7.21
9.06
11.53
13.27
11.75
4.72
-8.18
-24.78
-42.03
-56.78
-66.71
-70.75
-66.27
-52.8
-32.85
-12.71
4.94
17.96
24.06
21.8
12.38
-0.37
-11.99
-18.86
-19.51
-14.44
-6.07
3.22
12.18
20.67
28.75
35.64
40.31
41.91
40.52
36.2
29.22
19.85
8.65
-3.39
-15.28
-25.46
-31.88
-32.59
-27.19
-17.31
-6.04
3.48
9.33
11.2
10.53
9.43
9.27
9.77
9.58
7.66
4.15
-0.05
-5.02
-11.75
-21
-31.44
-39.25
-40.11
-32.17
-18.16
-4.53
1.28
-4.67
-20.96
-42.11
-62.12
-77.65
-88.28
-94.48
-91.95
-76.44
-47.44
-10.68
24.71
51.15
65.7
70.39
70.14
69.68
70.81
72.8
73.43
71.16
66.08
59.97
56.09
58.07
68.01
84.47
103.2
115.78
113.84
92.71
53.21
1.56
-52.79
-99.73
-131
-140.98
-128.41
-96.53
-52.75
-7.75
27.38
44.6
41.4
19.68
-11.39
-40.5
-60.07
-68.88
-71.01
-71.65
-73.88
-77.73
-80.74
-79.01
-69.74
-53.54
-31.08
-4.98
21
43.88
62.94
80.17
98.75
119.17
137.67
147.45
141.36
115.58
71.49
15.1
-46.13
-102.47
-146.26
-172.91
-179.98
-166.58
-133.48
-84.43
-27.18
27.25
67.43
85.01
78.54
54.33
23.68
-2.09
-15.72
-15.5
-4.11
13.65
32.25
47.1
54.98
54.65
46.47
32.88
18.16
7.36
4.34
9.5
20.39
33.24
44.59
50.64
47.14
30.7
1.29
-35.39
-69.16
-88.4
-86.72
-64.4
-29.42
5.44
27.61
29.32
9.81
-26.5
-71.57
-114.2
-141.08
-143.19
-119.64
-77.91
-33.02
4.57
27.27
32.56
23.52
7.2
-8.68
-18.08
-16.05
0.13
30.88
72.41
116.44
150.87
162.98
144.92
98.97
37.8
-20.43
-59.08
-69.97
-54.95
-22.46
14
41.87
56.62
61.91
63.71
64.97
64.74
60.85
52.66
42.01
32.46
27.76
29.88
38.44
51.41
65.79
77.84
83.07
78.62
61.87
33.5
-2.5
-40.01
-72.76
-96.18
-107.48
-107.99
-101.85
-93.43
-85.11
-78.04
-73.31
-72.78
-78.01
-88.73
-102.53
-113.13
-113.78
-99.52
-70.41
-31.52
8.91
43.12
65.64
77.16
83.23
90
100.54
112.54
121.16
119.95
105.83
80.48
49.5
19.52
-5.22
-22.41
-33.87
-42.71
-50.97
-58.02
-61.71
-60.25
-53.96
-45.64
-38.97
-36.78
-39.66
-46.22
-53.7
-59.07
-59.85
-54.74
-43.69
-28.05
-10.68
5.35
17.82
26.61
33.02
38.46
42.87
44.45
41.17
32.37
20.1
8.4
1.6
1.95
9.22
21.49
36.41
51.82
65.16
72.91
70.92
56.48
30.05
-3.73
-37.38
-63.38
-77.01
-77.25
-66.26
-47.61
-24.15
2.11
29.59
55.92
77.48
88.88
86.03
68.01
36.23
-2.76
-38.94
-62.36
-67.33
-55.29
-34.36
-15.41
-6.49
-10.24
-21.11
-29.87
-29.32
-18.11
-0.57
16.17
26.78
29.04
23.78
14.09
3.19
-6.14
-12.13
-14.19
-12.52
-8.78
-4.73
-1.24
2.74
7.77
12.69
14.95
12.27
4.92
-3.68
-8.41
-4.89
6.45
20.9
32.82
39.22
40.88
40.64
40.15
37.96
30.62
14.89
-9.04
-36.9
-62.03
-78.33
-82.73
-75.98
-61.47
-43.46
-25.5
-9.29
4.77
16.5
24.98
28.48
25.22
14.72
-1.4
-19.52
-34.38
-41.37
-38.46
-27.05
-11.28
3.88
14.81
20.39
21.78
21.24
20.41
19.51
17.53
13.34
7.12
0.74
-3.25
-3.09
1.15
7.4
12.43
13.44
9.41
2.3
-3.78
-4.95
0.18
9.84
19.84
25.36
23.26
13.32
-0.53
-11.69
-14.37
-6.48
9.69
28.49
42.9
46.81
36.82
14.82
-12.43
-36.03
-48.14
-43.84
-21.86
14.69
59.68
97.41
108.77
84.97
33.79
-25.88
-73.74
-95.26
-86.1
-52.15
-6.91
35.22
64.3
75.46
68.1
44.34
9.35
-32.57
-75.46
-113.34
-140.68
-152.87
-149.42
-134.72
-116.94
-104.39
-103.68
-117.79
-145.81
-182.21
-216.27
-238.09
-237.69
-213.22
-169.2
-114.23
-57.42
-5.3
40.91
87.23
140.2
201.77
266.64
325.25
368.15
389.72
390.01
359.32
300.42
227.72
159.5
106.31
68.79
42.78
24.05
10.04
-0.5
-6.37
-7.91
-7.62
-7.88
-11.65
-19.38
-29.46
-39.9
-48.73
-52.89
-51.21
-45.15
-37.83
-32.33
-30.19
-31.59
-36.66
-44.98
-54.84
-64.63
-72.91
-77.68
-76.59
-64.97
-40.46
-6.39
30.52
63.56
86.73
94.6
83.37
54.65
10.03
-45.01
-102.21
-151.61
-184.88
-198.37
-193.96
-171.64
-135.71
-92.02
-43.13
3.65
41.24
66.16
79.19
83.06
81.02
75.9
70.21
66.43
66.07
70.77
81.27
96.14
112.45
124.07
124.75
110.65
82.17
43.31
1.27
-36.83
-63.62
-77.26
-80.83
-79.33
-76.74
-74.5
-72.45
-69.28
-63.91
-55.92
-46
-35.21
-24.37
-13.95
-3.52
7.49
19.48
31.27
40.41
43.66
39.39
29.06
16.89
8.08
6.16
11.39
19.85
26.37
27.59
23.87
18.65
15.86
17.54
22.99
29.47
32.66
29.87
21.97
12.89
7.25
8.03
15.54
27.93
41.65
50.22
46.7
26.27
-12.12
-65.52
-126.77
-185.77
-231.29
-245.18
-218.15
-157.97
-85.22
-19.47
29.38
60.9
78.86
87.62
90.56
89.33
86.05
83.95
85.35
88.4
88.73
79.68
57.67
24.47
-14.4
-51.7
-80.53
-93.82
-90.89
-75.84
-54.74
-33.42
-17.08
-10.25
-15.19
-29.73
-46.66
-56.83
-52.41
-30.75
3.81
40.2
65.94
70.51
51.18
15.15
-23.58
-49.52
-52.23
-30.44
7.4
47.08
74.68
81.04
66.94
42.13
19.24
7.35
8.81
19.99
35.08
48.9
58.37
61.69
56.68
41.57
17.03
-11.56
-34.61
-42.86
-32.38
-7.53
19.45
33.67
25.65
-4.53
-46.89
-86.55
-110.32
-111.8
-92.21
-57.76
-15.61
28.87
71.12
106.1
127.6
129.77
109.41
68.45
14.08
-42.98
-91.57
-122.76
-133.5
-128.14
-114.27
-97.97
-81.71
-65.58
-50.95
-35.82
-19.2
-0.91
19.55
42.86
68.52
93.5
112.46
117.99
107.03
81.74
48.97
18.14
-2.4
-8.93
-1.78
12.2
23.47
26.49
22.89
16.05
8.34
0.8
-6.39
-13.14
-18.95
-23.4
-26
-27.67
-30.95
-38.23
-49.68
-62.03
-67.89
-60.4
-37.98
-5.44
28.81
56.94
74.78
81.84
79.8
70.55
55.05
35.07
14.87
0.8
-1.39
9.85
29.35
46.05
47.69
26.95
-13.12
-58.91
-92.21
-99.66
-79.83
-44.1
-10.45
6.51
2.71
-13.83
-28.68
-29.65
-13.46
14.57
45.29
71.7
92.07
107.46
118.19
121.46
112.58
88.77
52.43
11.31
-23.34
-43.5
-47.61
-40.45
-30.28
-25.17
-29.44
-42.47
-58.62
-69.95
-68.7
-50.06
-14.42
31.66
77
108.13
115.97
98.85
62.7
18.48
-22.41
-52.23
-68.65
-73.91
-73.28
-69.25
-62.78
-54.05
-43.13
-31.2
-20.91
-15.13
-15.6
-22.03
-31.89
-42.04
-50.23
-55.65
-59.22
-63.14
-69.68
-80.1
-94.19
-110.6
-126.02
-140.43
-153.52
-163.64
-167.54
-161.18
-141.93
-110.53
-71.63
-32.38
-0.21
21
31.56
34.82
34.88
34.59
34.93
35.93
38.29
42.67
50.36
61.99
76.65
92.03
105.36
114.42
117.3
115.59
111.67
108.02
106.06
105.69
105.5
103.7
99.06
91.69
83.26
75.75
70.99
69.65
70.95
73
73.86
72.25
68.24
63.19
58.69
56.2
56.65
60.41
67.12
75.21
81.65
82.21
72.96
51.96
20.91
-14.83
-48.13
-72.91
-86.57
-90.36
-87.91
-83.05
-78.05
-73.25
-67.95
-61.77
-55.29
-49.78
-46.28
-44.8
-44.29
-43.29
-40.51
-35.65
-29.41
-23.13
-18.09
-14.98
-13.62
-13.12
-12.33
-10.34
-6.93
-2.51
2.04
5.91
8.61
10.21
11.23
12.34
14.08
16.54
19.46
22.24
24.26
25.03
24.37
22.41
19.46
15.82
11.82
7.62
3.17
-1.66
-6.98
-12.74
-18.65
-24.22
-28.33
-30.91
-31.93
-31.75
-31.08
-30.71
-31.24
-32.78
-34.86
-36.96
-38.16
-38.05
-37.01
-35.96
-36
-37.9
-41.66
-46.44
-50.94
-54.13
-55.48
-55.41
-54.97
-55.32
-57.4
-61.83
-68.96
-78.58
-89.31
-98.18
-101.01
-93.91
-75.23
-47.08
-15
14.08
34.54
44.33
45.2
41.07
35.81
31.51
28.31
25.51
22.86
20.99
21.04
23.74
28.78
34.72
39.9
42.88
43.34
42
40.03
38.56
38.25
39.02
40.3
41.4
41.96
42.21
42.95
44.88
48.62
54.21
61.13
68.45
75.16
80.46
83.22
84.54
85.52
86.94
88.54
88.55
84.29
73.3
54.79
30.41
3.96
-20.2
-38.12
-47.2
-46.47
-36.91
-21.43
-4.77
7.37
10
0.7
-18.79
-42.66
-63.04
-73.27
-70.62
-57.18
-38.66
-21.67
-11.49
-10.44
-17.81
-30.49
-43.8
-52.39
-51.54
-38.64
-14.95
13.85
38.88
51.18
45.71
23.97
-6.23
-34.32
-51.59
-54.6
-45.59
-30.1
-13.52
1.24
13.75
24.44
32.69
36.64
34.31
25.38
12.02
-1.82
-12.19
-16.9
-16.63
-14.45
-13.98
-17.46
-24.57
-32.85
-39.2
-41.16
-37.63
-28.36
-14.95
0.13
14.46
26.05
33.18
33.89
26.6
11.33
-9.83
-32.95
-53.32
-66.62
-70.12
-63.37
-48.96
-30.98
-13
2.4
13.18
17.03
11.8
-3.29
-26.38
-53.38
-78.1
-93.27
-93.39
-74.99
-40.47
2.23
45.3
86.56
125.05
155.75
173.56
174.84
158.87
128.39
89.4
46.2
7.18
-20.13
-32.27
-30.25
-18.08
-1.07
15.88
29.02
36.68
37.85
32.91
23.36
11.96
1.86
-4.73
-7.35
-7.13
-5.88
-4.82
-4.74
-5.66
-6.55
-6.12
-3.83
-0.36
2.59
3.45
1.83
-1.53
-5.06
-6.88
-5.71
-1.62
3.94
8.41
9.58
6.5
-0.66
-11.06
-23.14
-34.35
-40.89
-38.24
-23.87
1.43
32.23
59.71
75.08
74.21
60.32
42.8
32.59
35.28
49.82
69.5
86.34
95.07
94.77
87.02
72.47
49.14
11.57
-43.13
-111.91
-184.61
-247.06
-286.58
-296.87
-280.13
-234.53
-167.5
-92.63
-25.43
22.51
45.32
42.51
18.76
-18.8
-60.1
-95.98
-113.87
-106.26
-75.33
-31.85
11.16
44.88
66.82
79.58
86
88.61
88.28
85.18
79.89
73.69
68.49
65.53
65.01
64.98
63.39
59.21
53.16
47.35
43.04
38.77
30.11
12.46
-15.9
-50.44
-81.71
-99.39
-97.05
-75.33
-41.22
-4.62
25.74
44
47.23
34.21
5.7
-34.2
-77.21
-111.97
-128.03
-120.4
-92.04
-52.64
-14.09
14.83
31.48
38.42
40.5
41.83
44.12
47.02
49.58
51.55
53.76
57.57
63.69
72.2
82.55
94.04
105.99
117.45
125.53
127.87
122.15
107.31
84.52
56.8
27.66
-0.08
-24.67
-44.57
-57.6
-61.8
-56.76
-45.07
-31.9
-22.94
-21.56
-27.16
-36.16
-44.74
-51.64
-58.25
-65.95
-73.05
-74.07
-62.79
-36.97
-1.49
33.11
55.93
61.46
52.28
36.16
21.1
10.73
3.22
-5.9
-19.43
-35.88
-50.36
-57.8
-56.53
-49.09
-40.4
-34.8
-34.36
-38.58
-45.45
-52.31
-55.88
-52.83
-40.36
-17.71
12.74
46.22
77.11
101.57
118.76
129.92
136.02
135.98
126.78
105.73
73.42
34.98
-1.25
-27.29
-39.05
-38.34
-30.84
-22.67
-17.59
-15.84
-15.49
-14.4
-11.82
-8.6
-6.37
-6.33
-8.74
-12.8
-16.94
-20.06
-21.78
-22.52
-23.05
-24.16
-26.12
-28.67
-31.04
-32.36
-32.16
-30.42
-27.57
-24.04
-20.22
-16.19
-11.85
-6.87
-0.97
5.7
13.15
20.3
26.43
31
33.74
34.47
33.15
30.43
26.67
22.28
17.62
13.18
9.24
5.79
2.38
-1.31
-5.44
-10.23
-15.56
-21
-25.97
-30.15
-32.6
-34.76
-37.55
-41.31
-46.06
-51.02
-54.85
-56.15
-54.24
-49.52
-43.7
-39.28
-36.68
-35.97
-36.18
-35.59
-32.67
-27.06
-20.02
-14.23
-12.08
-15.05
-23.79
-37.84
-55.48
-73.68
-88.61
-94.4
-88.08
-68.43
-37.56
-1.04
34.3
63.23
84.4
100.21
114.68
131.1
149.73
168.01
181.29
183.69
170.98
145.4
112.9
80.86
55.1
38.16
28.63
22.9
17.66
11.63
6.42
3.8
4.3
6.78
9.1
9.41
6.99
2.79
-1.5
-4.01
-4.32
-3.71
-4.07
-7.19
-13.75
-23.28
-33.97
-43.69
-50.28
-52.47
-50.23
-43.91
-34.27
-21.9
-7.58
8.32
24.96
41.5
58.89
74.95
88.11
96.45
100.52
100.45
96.66
89.16
78.09
63.68
46.13
26.03
3.67
-21.02
-49.8
-74.55
-91.36
-99.41
-99.97
-94.79
-85.02
-71.23
-53.72
-34.24
-19.82
-9.65
-1.94
4.65
11.26
18.56
26.56
34
36.86
30.95
12.73
-15.38
-52.13
-96.05
-145.87
-200.26
-246.65
-276.22
-286.02
-278.99
-261.65
-240.24
-218.3
-197.23
-177.08
-158.76
-145.21
-138.91
-139.02
-142.78
-147.09
-149.16
-151.43
-151.29
-148.26
-144.73
-144.24
-147.81
-155.31
-164.9
-172.91
-172.94
-157.36
-121.5
-62.81
8.69
78.59
134.59
171.89
190.17
194.02
189.97
182.71
174.92
160.04
136.95
106.02
71.6
38.65
13.44
0.93
2.91
19.13
46.77
84.64
129.8
181.88
225.86
247.72
239.28
201.54
143.79
75.47
19.33
-24.88
-59.33
-85.63
-102.11
-105.62
-103.05
-98.09
-94.99
-96.52
-106.39
-124.22
-148.3
-174.92
-199.69
-219.63
-232.49
-238.49
-238.51
-235.12
-228.57
-218.73
-204.83
-184.42
-156.69
-122.13
-83.55
-44.21
-7.55
25.57
55.5
83.05
113.31
149.23
190.69
234.12
274.91
309.48
336.97
358.45
375.3
396.05
426.25
466.25
511.4
555.12
592.85
622.86
646.1
663.38
684.9
716.94
758.64
802.88
839.84
863.01
869.56
860.76
785.76
624.79
392.89
133.51
-107.57
-304.83
-451.89
-554.49
-614.7
-645.9
-648.01
-620.42
-567.36
-496.94
-419.67
-340.87
-273.39
-224.62
-199.76
-191.73
-191.96
-195.47
-190.45
-181.04
-172.17
-167.76
-167.17
-168.63
-169.78
-167.15
-166.64
-171.73
-185.04
-204.04
-225.98
-246.48
-263.13
-271.7
-270.13
-257.31
-233.89
-203.13
-167.1
-129.48
-91.47
-53.52
-13.25
32.14
74.44
107.56
125.87
141.2
157.91
179.32
200.05
218.83
235.58
251.91
269.75
288.2
304.09
310.8
303.77
281.56
247.36
194.98
127.48
54.34
-13.95
-69.78
-111.24
-138.19
-151.72
-153.44
-147.11
-135.98
-123.11
-110.5
-98.51
-87.35
-76.58
-66.66
-58.43
-53.42
-50.87
-48.99
-45.62
-38.9
-28
-12.44
7.31
29.65
50.88
67.39
74.5
69.09
51.4
25.37
-2.5
-25.98
-40.99
-47.05
-46.66
-43.47
-39.79
-36
-31.69
-27.16
-24.81
-26.84
-34.54
-46.82
-60.5
-70.99
-74.33
-68.86
-56.04
-40.01
-25.64
-16.97
-16.19
-23.53
-36.49
-50.24
-58.51
-55.31
-37.3
-5.52
34.02
71.89
98.15
106.95
98.44
77.65
51.2
23.74
-3.93
-31.89
-61.14
-92.65
-125.22
-156.1
-182.58
-203.28
-218.45
-229.2
-236.55
-233.52
-215.55
-181.82
-136.12
-85.28
-36.24
6.15
39.49
63.57
79.59
88.43
91.53
90.75
88.09
85.17
82.84
80.89
78.5
74.74
68.05
57.71
44.27
29.35
14.16
0.32
-11.72
-22.35
-32.43
-43.73
-58.08
-76.88
-100.47
-127.55
-154.2
-174.67
-182.18
-171.8
-143.33
-101.72
-55.5
-13.5
17.73
36.32
43.95
42.11
33.4
20.39
4.86
-11.76
-27.69
-40.82
-48.51
-49.35
-41.76
-26.59
-6.25
16.62
40.1
63.64
87.53
113.66
136.22
152.24
159.74
157.44
144.86
122.6
98.61
74.83
53.54
36.91
27.06
24
25.91
30.37
35.84
38.45
38.27
38.2
41.3
50.22
65.78
87.28
112.82
139.19
161.7
175.79
177.96
166.03
140.21
102.54
56.26
4.17
-52.93
-116.07
-183.86
-251.31
-309.95
-350.07
-364.45
-350.97
-313.46
-260.29
-200.87
-139.05
-73.46
0.22
85.06
180.08
280.15
378.33
468.05
527.63
539.5
497.43
412.71
309.22
211.65
136.27
88.26
62.48
46.17
26.97
-3.06
-44.25
-90.08
-131
-159.06
-171.21
-170.67
-163.38
-152.02
-136.4
-114.86
-87.64
-58.41
-32.88
-17.12
-11.62
-12.93
-15.61
-16.52
-16.43
-19.91
-30.91
-52.64
-84.25
-120.91
-156.87
-186.93
-207.52
-216
-210.69
-191.39
-160.01
-120.83
-79.03
-39.59
-4.89
24.44
49.26
70.6
86.67
95.55
91.3
70.53
35.79
-4.58
-41.09
-63.21
-64.73
-45.34
-9.37
37.39
90.62
146.32
198.97
240.1
259.79
249.28
205.25
132.23
42.4
-46.95
-118.61
-159.81
-165.18
-136.7
-83.37
-18.43
42.89
86.62
104.26
94.7
65.73
31.45
7.96
5.99
27.2
62.71
97.61
118.5
118.37
99.15
68.02
32.89
-4.01
-40.85
-77.49
-117.19
-156.41
-191.19
-213.98
-219.33
-202.47
-167.4
-123.92
-84.51
-58.68
-49.39
-54.17
-66.93
-83.09
-98.79
-116.12
-136.01
-156.32
-167.81
-161.59
-133.8
-86.88
-28.15
36.15
101
163.89
222.1
271.64
306.65
321.3
312.91
274.27
209.61
132.19
58.7
0.51
-38.7
-60.35
-67.37
-62.99
-51.59
-36.98
-24.13
-16.6
-14.6
-14.09
-9.76
2.53
23.18
47.73
69.32
79.24
71.09
43.98
3.86
-38.67
-72.6
-90.86
-92.61
-79.08
-56.84
-34.13
-16.85
-6.35
-0.31
4.57
9.96
14.68
16.13
11.45
0.81
-11.33
-18.27
-15.03
-1.82
15.21
27.28
28.02
16.14
-3.37
-22.17
-33.62
-36.47
-34.83
-34.9
-40
-44.95
-41.25
-23.02
8.39
45.78
81.28
110.23
131.53
146.47
155.91
157.46
146.7
120.97
82.91
41.56
9.43
-3.82
3.68
24.81
46.78
57.55
54.47
42.57
30.7
26.51
31.38
41.19
49.69
52.59
49.98
45.61
44.05
47.29
54.24
59.65
58.33
47.53
28.54
5.55
-17.11
-32.91
-40.31
-41.34
-43.44
-53.84
-77.17
-112.94
-156.75
-202.67
-245.79
-283.78
-316.39
-348.55
-384.31
-425.46
-469.33
-511.12
-546.67
-573.44
-590.01
-571.53
-502.03
-379.67
-222.17
-56.41
93.24
211.66
293.96
343.25
367.55
372.01
365.23
348.07
322.55
293.01
264.94
243.13
230.28
226.46
221.86
211.41
192.27
166.51
139.04
115.16
98.59
91.22
93.33
101.71
112.4
119.45
117.77
103.81
76.79
40.33
0.02
-36.91
-65.01
-81.35
-87.42
-86.44
-81.64
-73.14
-62.63
-51.1
-39.56
-30
-24.41
-24.58
-30.16
-38.69
-46.95
-52.49
-54.46
-53.95
-53.89
-55.91
-60.82
-67.59
-73.76
-76.87
-75.56
-68.88
-59.19
-49.5
-42.37
-39.69
-42.22
-49.24
-58.69
-66.78
-68.56
-59.81
-39.04
-8.98
23.7
51.59
69.7
76.13
72.94
64.49
54.76
46.02
38.62
32.14
26.92
25.05
28.37
37.83
52.46
69.45
85.33
97.28
104.33
103.98
99.8
95.23
92.46
91.96
92.84
93.7
93.1
89.76
82.54
71.24
55.7
37.29
18.77
3.23
-7.75
-15.32
-22.74
-33.11
-46.05
-58.8
-66.08
-63.3
-49.56
-28.71
-7.78
6.7
11.12
7.46
0.65
-3.93
-3.1
3.31
13.67
25.55
36.37
43.42
43.52
33.05
10.21
-23.12
-60.37
-91.61
-107.57
-104.92
-86.17
-59.97
-37.65
-27.85
-33.15
-48.83
-65.61
-74.69
-71.51
-56.73
-34.75
-10.77
11.52
29.53
40.47
41.3
30.05
8.01
-18.91
-41.79
-51.57
-43.24
-18.85
13.46
43
60.48
61.22
46.01
19.8
-10.62
-35.57
-48.49
-47.69
-36.09
-19.38
-3.1
9.54
18.33
24.86
30.44
34.57
35.9
33.76
28.8
23.08
19.12
18.3
20.21
23
24.29
21.78
14.8
4.47
-6.77
-15.95
-20.71
-20.05
-14.72
-7.07
-0.08
4.06
4.57
2.18
-1.36
-4.24
-5.33
-4.41
-2.15
0.41
2.4
3.37
3.18
2.04
0.09
-2.38
-4.84
-6.64
-7.31
-6.61
-4.34
-1.05
2.23
4.18
4
1.99
-0.68
-2.69
-3.14
-1.85
0.45
2.54
2.83
0.69
-2.81
-5.51
-5.62
-2.75
2.09
7.04
10.18
9.56
4.16
-5.8
-19.1
-33.89
-47.44
-56.01
-55.75
-41.01
-11.96
23.53
54.35
73.99
82.59
84.47
84.69
86.77
92.04
99.3
106.46
110.67
108.58
96.57
72.39
37.15
-4.16
-44.3
-77.18
-99.31
-110.93
-114.5
-113.08
-108.81
-102.34
-93.65
-83.21
-74.13
-67.12
-62.39
-58.74
-54.21
-47.21
-37.2
-25.33
-12.95
-3.41
1.56
1.89
-0.69
-3.71
-5.11
-4.1
-1.42
1.21
1.94
0.03
-4.07
-8.74
-12.27
-13.42
-12.2
-9.69
-7.47
-7.06
-9.57
-15.66
-25.17
-36.53
-46.46
-50.63
-45.23
-29.29
-4.82
22.74
46.78
62.24
67.54
64.64
57.31
48.98
40.89
33.49
26.14
18.89
12.82
9.32
9.09
11.34
14.18
15.63
14.53
11.13
7.09
4.58
5.21
9.39
16.11
23.59
30.01
34.56
36.95
37.97
38.75
40.46
44.15
50.53
59.4
68.9
75.53
74.9
63.67
41.41
11.35
-20.63
-48.4
-67.7
-77.33
-78.8
-74.24
-64.91
-51.33
-34.36
-16.34
-0.93
8.48
10.46
6.24
-0.86
-7.27
-10.9
-11.62
-10.76
-9.77
-9.3
-9.06
-8.47
-7.25
-5.68
-4.34
-3.73
-3.85
-4.21
-4.31
-3.91
-3.14
-2.34
-1.69
-1.16
-0.55
0.15
0.76
0.97
0.6
-0.18
-0.94
-1.11
-0.3
1.5
3.86
6.13
7.69
8.23
7.8
6.68
5.33
4.25
3.86
4.37
5.74
7.69
9.85
11.83
13.17
13.73
13.66
13.57
14.07
15.47
17.63
20.04
22.01
22.35
20.36
16.14
10.44
4.03
-2.65
-9.5
-16.41
-23.12
-29.77
-35.92
-40.34
-41.57
-39.06
-33.61
-27.14
-21.93
-20.04
-23.78
-34.12
-50.14
-69.48
-89.3
-106.74
-118.99
-123.4
-112.69
-85.11
-46.92
-8.55
22.27
43.1
55.19
61.23
63.72
64.27
62.84
59.42
55.1
51.54
49.89
50.1
51.23
52.15
52.08
50.29
47.01
43.61
41.67
41.98
44.16
47.04
49.28
49.93
48.27
44.71
41.01
39.62
42.6
50.17
59.79
66.38
63.86
47.58
16.91
-23.59
-65.77
-100.75
-122.07
-127.43
-118.63
-100.05
-76.98
-54.75
-36.45
-24.45
-19.7
-21.28
-26.12
-29.9
-28.72
-20.71
-6.91
9.43
24.18
34.4
39.19
39.75
38.33
36.88
36.16
35.84
34.57
30.8
23.86
14.3
3.52
-6.93
-16.1
-23.77
-30.26
-35.72
-39.8
-41.57
-40.26
-35.9
-29.85
-24.37
-21.59
-22.63
-27.22
-33.74
-39.83
-42.89
-40.85
-32.83
-19.51
-3.11
13.24
26.62
35.34
39.46
40.6
40.95
42.1
44.02
45.13
42.98
35.49
22.13
4.61
-13.4
-27.45
-33.97
-31.68
-22.17
-9.24
2.87
11.24
15.11
15.66
14.73
13.59
12.36
10.4
7.13
2.72
-1.74
-4.71
-5.27
-3.58
-0.85
1.39
2.02
0.99
-0.84
-2.29
-2.54
-1.54
0.04
1.27
1.4
0.26
-1.71
-3.72
-4.98
-5.03
-3.9
-2.12
-0.39
0.72
0.96
0.54
-0.15
-0.76
-1.16
-1.48
-1.84
-2.18
-2.26
-1.77
-0.64
0.83
2.1
2.68
2.4
1.52
0.69
0.54
1.43
3.25
5.58
7.82
9.54
10.56
10.94
10.93
10.7
10.35
10.04
10.06
10.79
12.58
15.52
19.01
22.11
23.67
22.85
19.53
14.46
8.81
3.58
-0.81
-4.51
-7.86
-10.97
-13.61
-15.09
-14.63
-11.98
-7.74
-3.21
0.18
1.39
0.21
-3.05
-7.18
-10.46
-11.48
-9.82
-6.19
-1.98
1.35
2.79
1.77
-0.97
-3.63
-4.47
-2.92
0.19
3.13
4.09
1.82
-4.79
-15.58
-28.96
-42.55
-53.63
-59.3
-57.22
-47
-27.7
-5.29
9.76
10.09
-3.07
-21.48
-35.23
-37.38
-26.25
-5.06
19.85
43.03
61.65
75.34
84.9
91.27
95.48
98.67
102.07
106.15
110.74
114.32
113.63
104.58
84.01
52.23
13.67
-24.67
-56.38
-77.65
-88.22
-90.68
-88.47
-84.4
-79.53
-73.84
-67.52
-61.46
-56.54
-52.89
-50.48
-46.86
-40.35
-30.05
-16.41
-1.49
12.22
22.79
29.43
32.63
33.9
34.71
36.24
39.17
42.47
44.95
45.79
44.99
43.34
42.22
42.77
45.76
51.67
58.7
65.05
69.34
71.02
70.36
68.05
64.64
60.5
56.18
49.62
39.05
23.29
2.02
-24.42
-55.71
-92.22
-135.72
-174.22
-200.92
-212.49
-210.07
-197.92
-180.72
-162.08
-143.98
-127.34
-111.26
-97.1
-85.65
-77.03
-70.6
-65.02
-58.88
-50.9
-43.58
-34.37
-23.17
-10.31
3.61
18.11
33.08
48.13
65
82.04
97.97
111
120.22
125.11
125.52
122.08
115.07
104.88
91.97
76.69
59.44
40.97
21.73
1.77
-18.21
-38.51
-59.38
-80.78
-103.06
-126
-149.26
-173.17
-198.69
-225.9
-255.94
-290.56
-322.02
-349.26
-372.08
-388.62
-394.6
-392.2
-374.62
-337.37
-281.78
-214.35
-145.19
-81.81
-26.79
18.89
55.36
84.44
108.78
129.21
144.89
153.2
153.33
146.61
135.57
123.23
113.42
112.71
125.67
153.58
193.79
242.8
297.43
354.77
412.07
467.24
523.58
582.94
643.92
701.65
750.85
787.79
810.38
817.81
775.07
667.6
506.65
324.31
153.42
13.12
-92.05
-166.36
-217.29
-252.08
-270.79
-273.7
-263.61
-245.62
-224.58
-202.88
-180.66
-157.49
-134.32
-109.63
-86.11
-70.09
-68.11
-82.66
-110.3
-143.51
-174.36
-197.72
-209.63
-211.09
-206.44
-200.33
-195.78
-193.65
-193.87
-196.65
-202.89
-212.66
-223.4
-234.6
-245.98
-256.9
-266.31
-273.1
-276.47
-275.93
-263.4
-235.23
-193.23
-143.57
-93.96
-50.28
-15.13
11.62
31.45
46.18
56.03
60.62
60.07
55.22
47.07
36.29
23.34
9.43
-2.42
-8.26
-3.83
13.49
42.54
77.88
111.57
136.46
149.17
150.91
145.4
136.69
127.32
117.85
107.85
97.23
86.98
78.74
73.7
71.54
70.68
69.18
65.49
59.38
51.87
44.63
39.29
36.65
36.42
37.49
38.36
37.93
35.85
32.62
29.26
26.9
26.16
27.1
29.1
31.05
31.81
30.56
27.04
21.63
15.66
9.5
3.78
-1.3
-6.05
-11.06
-16.88
-23.6
-30.95
-37.51
-42.06
-43.64
-42.19
-38.61
-34.5
-31.48
-30.35
-30.97
-32.16
-32.7
-31.57
-28.59
-24.02
-18.15
-11.12
-3.45
3.25
6.04
1.66
-11.48
-32.27
-56.45
-78.36
-93.68
-101.41
-103.73
-103.16
-100.74
-93.81
-77.82
-49.93
-12.08
28.84
64.05
86.87
95.69
94.09
88.25
83.74
82.98
85.06
87.52
87.98
85.22
79.09
69.97
57.77
42.7
25.48
7.29
-10.04
-24.56
-34.75
-39.84
-40.08
-36.73
-31.75
-27.35
-25.2
-25.72
-27.89
-29.96
-30.49
-29.27
-27.5
-26.74
-27.96
-30.86
-34.35
-37.33
-39.56
-41.44
-43.28
-44.28
-42.63
-36.42
-24.95
-9.97
5.27
17.45
24.79
27.72
28.42
29.63
33.57
41.57
52.78
65.28
76.17
82.28
81.1
71.8
55.71
35.36
15.5
-0.04
-9.02
-11.2
-7.74
-0.89
6.67
11.91
11.74
3.49
-13.91
-38.89
-66.95
-91.36
-105.13
-103.36
-85.2
-53.45
-16.51
17.3
42.58
57.75
64.54
66.04
64.96
62.82
60.26
57.7
56.44
58.34
64.77
75.37
87.22
95.13
93.35
77.92
48.92
11.3
-26.92
-57.96
-77.32
-85.15
-85.4
-83.14
-81.95
-82.68
-83.83
-83.44
-80.84
-77.02
-73.84
-72.76
-73.89
-75.91
-76.81
-75.18
-69.78
-61.05
-50.59
-40.4
-32.03
-26.07
-21.99
-18.61
-14.38
-8.9
-2.58
3.37
7.42
8.35
5.88
0.82
-5.23
-10.42
-13.48
-14.05
-12.92
-11.52
-11.26
-13.09
-17.46
-24.53
-33.81
-43.65
-50.87
-51.29
-41.22
-19.64
10.73
43.82
72.33
90.94
98.29
96.92
91.26
85.44
80.73
76.61
72.07
66.68
61.48
58.23
58.2
61.35
66.52
72.18
76.56
79.42
80.07
77.4
70.09
57.34
39.64
19.45
-0.63
-17.5
-29
-34.85
-36.21
-34.98
-32.97
-31.41
-30.94
-31.65
-33.18
-34.91
-36.19
-36.04
-33.43
-27.75
-19.3
-9.74
-1.83
1.68
-0.7
-8.33
-18.34
-26.79
-30.54
-28.65
-22.69
-15.63
-10.22
-7.68
-7.62
-8.66
-9.5
-9.62
-9.19
-8.65
-8.2
-7.67
-6.65
-4.87
-2.54
-0.17
1.62
2.42
2.18
1.25
0.21
-0.39
-0.2
0.73
2.02
3.14
3.62
3.25
2.21
0.98
0.07
-0.18
0.23
1.04
1.83
2.22
2.11
1.61
1
0.51
0.16
-0.17
-0.62
-1.27
-2.02
-2.76
-3.42
-4.04
-4.66
-5.29
-5.81
-6.02
-5.85
-5.36
-4.81
-4.35
-4.01
-3.73
-3.48
-3.42
-3.82
-4.88
-6.49
-8.29
-9.79
-10.67
-10.91
-10.8
-10.55
-10.18
-9.48
-8.19
-6.31
-4.14
-2.21
-0.89
-0.22
0.03
0.24
0.68
1.43
2.32
2.95
2.86
1.55
-1.19
-5.13
-9.46
-13.02
-14.78
-14.41
-12.6
-10.98
-11.34
-14.82
-21.21
-28.98
-35.88
-40
-40.69
-38.93
-36.95
-37.39
-42.08
-51
-62.17
-72.25
-78
-77.81
-72.72
-66.35
-63.68
-69.07
-84.48
-108.32
-135.57
-159.17
-172.02
-168.9
-147.75
-110.43
-62.68
-13.21
28.5
55.17
64.76
62.06
57.33
62.07
83.44
120.36
163.53
199.73
218.2
215.81
198.18
176.24
160.09
154.04
155.11
155.78
148.87
131.68
107.16
81.96
62.53
51.71
47.83
46.32
42.81
35.65
26.57
19.16
16.3
18.05
21.59
22.76
18.5
8.45
-4.85
-17.29
-25.24
-27.21
-24.32
-19.5
-15.91
-15.52
-18.42
-23.05
-27.21
-29.25
-28.84
-26.97
-25.31
-25.28
-27.43
-31.21
-35.3
-38.3
-39.27
-38.26
-36.07
-33.96
-33.14
-34.37
-37.59
-41.7
-44.62
-44.13
-38.98
-29.71
-18.71
-9.3
-4.19
-4.19
-7.57
-10.59
-8.94
0.46
18.01
41.09
64.73
83.2
91.87
88.63
74.65
53.82
31.34
12.11
-0.71
-6.21
-5.25
0.32
8.44
17.29
25
29.81
30.42
26.46
18.73
8.95
-0.58
-7.49
-9.77
-6.98
-0.61
6.67
12.42
15.55
16.74
17.86
20.6
25.85
32.5
38.23
41.5
42.98
44.96
49.3
55.65
61.24
63.21
59.78
51.2
39.68
27.96
17.56
8.15
-1.23
-14.81
-30.21
-40.71
-42.05
-37.18
-33.99
-39.46
-55.2
-76.39
-94.62
-102.48
-96.71
-79.68
-57.87
-38.67
-27.61
-27.06
-36.18
-52.37
-70.48
-84.88
-90.93
-85.56
-67.69
-39.09
-4.89
27.07
48.36
53.24
40.48
14.07
-17.49
-43.84
-56.38
-51.41
-31.24
-3.09
24.27
43.34
49.95
44.03
28.69
8.69
-10.92
-25.68
-31.99
-27.54
-12.27
10.68
34.93
52.41
56.3
43.92
18.52
-11.83
-37.32
-50.15
-47.2
-30.61
-6.38
17.92
35.28
40.8
32.55
12.2
-14.85
-40.18
-54.61
-51.27
-28.55
8.38
48.91
80.54
93.14
82.28
50.63
6.35
-39.9
-78.04
-100.9
-104.92
-90.14
-59.98
-20.83
18.37
47.73
58.91
47.81
16.53
-26.54
-68.89
-97.8
-104.47
-86.96
-50.71
-6.67
32.41
55.84
58.52
42.17
14.27
-15.13
-37.31
-47.49
-45.33
-33.85
-17.48
-0.17
15.29
27.24
34.89
38.13
37.47
33.89
28.91
24.46
22.52
24.32
29.71
36.96
43.33
46.31
44.82
39.77
33.56
28.91
27.56
29.63
33.99
38.84
42.29
42.87
39.75
32.98
23.58
13.41
4.61
-1.28
-3.99
-4.45
-4.04
-3.7
-3.71
-3.89
-4.07
-4.39
-5.14
-6.53
-8.58
-11.1
-13.82
-16.39
-18.54
-20.06
-20.89
-21.07
-20.74
-20.25
-19.88
-19.58
-19.01
-17.8
-15.85
-13.36
-10.65
-7.99
-5.91
-4.9
-5.01
-5.79
-6.58
-6.86
-6.23
-4.54
-1.89
0.73
2.05
1.41
-0.78
-3.49
-5.75
-6.93
-6.82
-5.76
-5.33
-7.55
-13.9
-24.81
-40.07
-59.04
-80.14
-100.36
-110.9
-103.71
-77.74
-40.39
-1.91
29.8
50.91
61.56
64.96
65.31
65.5
66.35
67.29
67.76
67.55
66.78
65.74
64.43
62.21
57.89
51.22
43.97
39.69
40.6
45.17
48
42.54
24.89
-3.76
-37.16
-67.61
-88.39
-97.09
-95.76
-88.78
-79.93
-70.99
-62.36
-53.36
-45.01
-37.31
-29.65
-20.93
-10.49
1.24
12.45
20.82
24.55
22.96
16.76
6.82
-6.37
-22.49
-40.18
-56.23
-65.49
-62.38
-43.7
-10.74
29.37
66.46
89.8
92.69
75.24
44.3
10.64
-15.59
-28.33
-27.1
-15.57
0.79
17.18
29.87
35.85
33.29
21.94
4.02
-15.81
-31.5
-37.95
-32.78
-17.14
5.08
28.93
49.97
65.12
72.16
70.17
58.24
37.32
10.41
-17.77
-41.85
-57.32
-61.43
-54.65
-40.39
-24.09
-11.39
-6.31
-9.83
-19.57
-30.85
-38.83
-40.78
-37.08
-30.71
-24.97
-21.68
-19.75
-16.66
-10.15
0.12
12.05
22.37
28.47
29.89
28.88
28.7
31.47
36.74
41.81
43.42
39.92
32.36
24.3
19.69
21.05
28.28
39.1
50.15
57.83
58.67
49.76
29.9
1.11
-30.52
-56.07
-67.41
-61.15
-41.29
-17.64
-1.58
-0.04
-11.87
-28.68
-39.82
-38.66
-25.9
-8.52
5.17
10.58
9.03
5.9
6.39
11.93
19.4
23.75
21.38
12.85
2.37
-4.83
-5.69
-1
5.37
8.83
6.58
-1.31
-12.39
-23.42
-32.06
-37.58
-40.5
-41.55
-40.75
-37.02
-29.11
-16.66
-1
14.88
27.51
34.54
35.6
32.28
27.19
22.53
19.48
18.36
19.05
21.21
24.07
26.14
25.17
18.83
5.85
-12.89
-34.03
-52.68
-64.1
-65.55
-57.21
-41.98
-24.22
-8.21
3.22
9.1
10.07
7.73
3.86
-0.02
-2.83
-3.89
-3.01
-0.21
4.09
9.14
13.92
17.32
18.39
16.64
12.46
7.11
2.49
0.3
1.4
5.36
10.52
14.79
16.51
15.27
11.98
8.28
5.64
4.77
5.47
6.97
8.53
9.78
10.7
11.36
11.51
10.48
7.63
2.84
-3.28
-9.51
-14.52
-17.47
-18.38
-17.35
-15.34
-13.45
-12.46
-12.63
-13.78
-15.44
-17.16
-18.6
-19.57
-20.05
-20.08
-19.66
-18.8
-17.57
-16.06
-14.26
-12.09
-9.38
-6.02
-2.02
2.44
6.97
11.05
14.33
16.69
18.38
19.78
21.17
22.55
23.6
23.87
22.98
20.85
17.71
13.99
10.16
6.54
3.34
0.61
-1.66
-3.61
-5.39
-7.18
-9.01
-10.75
-12.14
-12.91
-13.02
-12.68
-12.19
-11.78
-11.36
-10.61
-9.24
-7.22
-4.91
-2.85
-1.45
-0.77
-0.48
-0.08
0.81
2.22
3.86
5.27
6.1
6.22
5.74
4.86
3.73
2.42
0.93
-0.68
-2.21
-3.34
-3.7
-3.17
-2.02
-0.8
-0.06
-0.07
-0.62
-1.21
-1.38
-1
-0.35
0.15
0.22
-0.05
-0.3
-0.15
0.51
1.49
2.48
3.2
3.64
3.93
4.26
4.72
5.32
6.04
6.82
7.61
8.26
8.54
8.22
7.12
5.31
3.03
0.64
-1.59
-3.57
-5.45
-7.39
-9.46
-11.6
-13.64
-15.41
-16.78
-17.78
-18.41
-18.61
-18.25
-17.27
-15.8
-14.26
-13.21
-13.13
-14.19
-16.21
-18.75
-21.34
-23.7
-25.72
-27.43
-28.81
-29.69
-29.79
-28.73
-26.14
-21.64
-15
-6.26
3.97
14.65
24.53
32.65
38.7
43.14
46.89
50.87
55.34
59.78
63.11
64.33
63.01
59.55
54.9
50.16
46.13
43.05
40.56
38.05
35.06
31.48
27.69
24.31
21.99
21.34
22.48
24.88
27.45
28.89
28.34
25.83
22.19
18.66
16.22
14.91
13.43
9.77
2.41
-8.74
-22.32
-36.52
-50.73
-63.32
-71.12
-70.58
-60.06
-41.58
-20.82
-5.39
-0.75
-7.57
-22.05
-36.84
-44.83
-42.93
-33.38
-22.02
-14.85
-16.52
-28.31
-47.91
-70.17
-89.36
-101.11
-102.91
-93.63
-73.44
-44.02
-7.58
28.34
55.66
70.75
75.08
72.38
66.43
59.98
54.63
51.11
49.19
48.73
49.23
49.79
49.43
47.86
45.8
44.82
46.97
53.58
64.61
77.21
86.97
87.24
73.56
45.9
9.05
-29.08
-60.82
-80.28
-86.4
-83.01
-75.81
-68.89
-63.62
-59.37
-55.19
-51.24
-48.64
-48.78
-51.77
-55.71
-57.13
-52.43
-40.19
-22.08
-2.29
14.6
25.56
30.35
31.12
30.37
29.66
29.12
28.05
26.02
23.54
21.67
21.3
22.52
24.31
25.63
26.07
26.06
26.43
27.71
29.65
31.55
32.78
32.77
31.81
30.72
30.49
31.96
35.62
41.4
48.6
55.7
59.54
56.65
44.11
21.1
-10.35
-45.69
-79.57
-107.99
-124.74
-127.76
-118.32
-100.42
-78.82
-57.64
-39.82
-27.13
-20.36
-19.11
-22.44
-28.02
-33.21
-35.3
-32.61
-25.36
-15.78
-7.32
-3.19
-5.37
-13.35
-25.04
-37.04
-46.03
-50.22
-50.24
-48.93
-49.91
-56.23
-63.95
-68.36
-65.08
-51.75
-28.37
2.8
37.39
69.44
92.74
102.52
96.34
76.21
48.62
22.72
7.38
8.04
24.78
52.13
81.07
101.92
107.65
95.53
67.45
28.87
-12.84
-50.01
-76.08
-84.99
-76.53
-55.45
-28.63
-2.57
18.42
32.52
39.82
41.31
38.33
31.8
23.02
13.96
7.02
3.77
4.19
6.69
8.57
8.08
4.72
-0.34
-5.07
-7.64
-7.27
-4.82
-2.56
-3.29
-8.76
-18.81
-30.79
-40.3
-42.76
-35.41
-18.68
4.56
27.99
45.93
55.61
57.98
56.7
56.09
59.26
66.72
75.89
81.8
79.14
63.86
34.74
-5.63
-50.57
-91.69
-119.94
-128.71
-116.08
-84.91
-41.95
3.97
43.83
70.47
79.81
71.43
48.23
15.51
-20.06
-52.08
-74.38
-84.08
-82.27
-72.38
-58.19
-42.79
-28.26
-15.96
-6.65
-0.85
0.72
-2.36
-9.57
-18.98
-27.51
-31.81
-29.46
-20.12
-5.79
9.99
24.05
34.79
42.16
46.69
48.55
47.47
43.32
37.08
29.85
23.14
18.03
14.43
11.29
7.44
2.38
-3.37
-8.68
-12.52
-14.26
-13.9
-11.96
-9.25
-6.78
-5.58
-6.42
-9.51
-14.34
-19.68
-23.97
-25.89
-24.71
-20.52
-14.11
-6.67
0.36
5.54
7.67
5.89
-0.05
-9.49
-20.82
-31.77
-39.92
-43.41
-41.83
-36.49
-30.07
-25.35
-24.05
-26
-29.26
-31.11
-29.28
-22.95
-13.01
-1.96
7.25
12.04
10.75
2.94
-10.26
-25.79
-38.86
-43.46
-34.64
-10.1
28.45
74.97
120.56
156.22
175.83
177.35
163
136.85
104.19
70.75
41.34
18.8
4.2
-2.06
0.12
10.47
25.83
40.77
49.25
46.55
31.55
8.71
-11.85
-20.89
-9.33
18.35
42.91
43.57
12.57
-40.8
-95.79
-130.8
-134.08
-107.7
-66.55
-28.65
-5.18
2.76
2.03
-1.56
-7.17
-19.02
-41.4
-76.17
-118.27
-155.32
-173.02
-162.28
-123.38
-64.45
2.77
68.96
127.82
173.59
202.81
213.9
206.55
181.52
142.34
89
31.46
-18.13
-53.31
-75.19
-88.28
-95.85
-98.32
-94.26
-82.65
-63.51
-39.81
-16.1
3.95
18.57
27.43
30.56
28.4
22.73
15.35
8
2.06
-1.19
-0.91
2.78
8.54
14.36
18.19
18.94
16.2
10.39
3.05
-3.68
-8.05
-9.65
-9.29
-8.29
-8.05
-9.45
-12.49
-16.4
-20.08
-22.69
-23.87
-23.43
-21.35
-17.65
-12.62
-7.13
-2.53
-0.19
-0.88
-4.46
-9.9
-15.67
-20.13
-21.5
-18.17
-9.23
4.75
21.24
36.28
45.99
47.81
41.62
29.83
16.62
6.52
2.64
5.43
12.51
19.61
22.46
18.78
9.58
-1.07
-7.62
-5.79
5.3
22.81
41.64
56.86
65.61
67.23
62.15
50.67
32.78
9.13
-17.64
-43.07
-62.14
-70.98
-68.85
-58.66
-45.45
-34.05
-26.97
-23.56
-21.88
-20.45
-18.98
-18.5
-20.37
-25.02
-31.3
-37.01
-39.52
-37.88
-33.22
-27.49
-22.63
-20.1
-20.36
-23.38
-28.89
-35.38
-41
-43.24
-38.6
-24.65
-1.9
25.7
53.19
72.22
81.92
88.15
94.27
100.53
102.68
93.98
69.32
29.33
-18.36
-60.75
-86.3
-89.99
-74.35
-47.79
-20.09
1.89
16
23.66
27.96
30.1
29.12
23.56
13.16
0.09
-11.66
-18.14
-17.83
-12.48
-6.85
-5.67
-10.1
-16.58
-18.65
-10.66
8.49
33.62
55.23
63.46
53.58
28.28
-4.34
-35.36
-59.14
-74.5
-83
-85.88
-83.02
-72.65
-53.62
-28.08
-1.94
17.44
24.58
17.96
0.14
-24.53
-50.5
-72.54
-86.92
-91.85
-87.06
-73.18
-52.02
-22.5
10.59
39.46
59.4
71.69
80.62
89.13
96.64
99.52
93.65
76.99
52.78
28.74
13.14
10.77
20.91
38.37
56.54
70.52
77.63
77.43
69.83
54.02
30.26
2.04
-23.7
-39.55
-42.08
-35.45
-27.93
-27.66
-38.7
-57.9
-76.22
-83.34
-73.23
-46.91
-11.72
22.79
48.83
62.19
62.58
52.05
33.21
8.55
-19.02
-45.11
-63.86
-67.62
-53.34
-24.32
10.56
40.25
56.01
54.74
39.45
16.54
-7.72
-29.58
-47.2
-60.08
-66.99
-66.26
-56.99
-39.9
-17.81
5.1
24.37
36.86
41.31
38.34
29.96
18.45
7.94
2.02
2.28
7.39
13.74
17.03
13.98
3.83
-11.16
-26.14
-35.66
-35.26
-22.9
0.3
29.91
58.6
77.67
77.91
56.04
16.57
-28.89
-66.02
-83.33
-76.7
-50.37
-14.38
19.69
43.52
53.68
51.64
42.3
32
26.32
28.07
36.63
47.88
56.57
58.03
49.98
33.23
10.84
-13.39
-36.37
-55.75
-69.79
-76.85
-75.72
-66.53
-51.33
-33.83
-17.39
-5.83
-0.43
-0.15
-2.3
-3.94
-3
0.93
6.18
9.77
8.57
0.96
-12.53
-29.22
-45.14
-56.24
-59.05
-51.61
-34.16
-9.84
15.86
36.53
47.03
45.95
36.26
23.73
14.15
10.49
12.2
16.48
20.18
21.41
20.28
17.92
15.35
13.06
11.15
9.88
9.77
10.78
11.63
10.23
5.03
-3.19
-10.88
-13.44
-8
4.13
17.61
25.47
22.9
9.88
-8.75
-25.74
-35.31
-35.65
-29.07
-20.29
-13.94
-12.79
-17.34
-25.89
-34.42
-37.95
-32.09
-15.27
9.53
35.2
53.45
58.08
47.06
22.98
-8.58
-41.04
-68.17
-84.62
-86.36
-71.75
-43.19
-7.74
24.17
42.37
41.52
23.87
-1.56
-23.58
-34.18
-31.89
-20.72
-6.33
7.56
19.97
31.61
43.19
53.44
58.84
55.26
40.59
16.67
-10.73
-33.59
-44.6
-40.01
-20.83
7.83
38.85
65.46
82.94
88.92
83.72
69.61
50.02
28.88
9.93
-3.98
-12.41
-15.54
-17.25
-21.7
-30.46
-41.85
-51.39
-53.69
-44.99
-25.26
0.94
25.35
39.59
38.48
21.91
-4.98
-33.68
-55.28
-63.36
-56.09
-37.06
-13
8.94
23.55
28.63
24.56
13.53
-1.11
-15.63
-26.89
-31.75
-27.21
-11.46
15.02
47.36
76.14
93.03
96.12
89.33
79.12
71.4
70.13
76.36
87.23
96.24
95.88
81.01
51.78
16.37
-11.73
-22.54
-13.2
9.27
31.15
39.49
28.04
-1.72
-41.89
-83.35
-119.7
-148.02
-166.88
-173.69
-164.87
-133.2
-82.53
-25.89
19.34
40.1
33.35
7.36
-23.72
-47.55
-59.58
-64.33
-68.81
-76.76
-81.51
-75.19
-55.07
-26.77
0.49
20.74
33.44
42.28
50.35
58.55
63.93
63.08
55.16
43.1
31.65
23.81
20.38
19.61
18.54
14.5
6.61
-3.82
-13.99
-21.03
-23.94
-23.32
-20.8
-18.26
-17.68
-20.62
-27.79
-37.85
-44.87
-42.75
-29.01
-6.47
19.28
44.02
66.04
84.36
97.12
100.91
91.58
67
31.05
-10.21
-48.43
-77.46
-96.6
-109.19
-119.28
-128.36
-134.87
-135.41
-126.93
-107.94
-75.95
-32.83
17.84
72.27
125.87
171.47
200.3
205.26
184.63
142.8
88.28
30.71
-23.19
-63.95
-84.62
-84.55
-68.87
-44.79
-20.49
0.49
15.74
24.33
27.49
26.8
21.77
11.99
-2.89
-22.78
-45.97
-68.86
-85.89
-91.18
-79.49
-51.7
-16.24
15.54
36.52
47.22
52.5
57.43
64.63
73.78
82.72
89.52
95.25
100.07
103.79
105.12
102.13
93.33
78.29
57.53
32.85
7.83
-12.44
-22.61
-18.36
1.03
30.48
60.46
82.33
90.41
81.49
56.44
19.65
-22.63
-63.79
-98.16
-121.95
-134.18
-136.92
-133.89
-128.33
-121.53
-112.77
-100.7
-84.96
-66.98
-49.65
-36.1
-27.8
-23.83
-21.73
-19.39
-16.46
-14.31
-14.71
-18.4
-24.67
-31.33
-35.97
-37.02
-34.29
-29.05
-23.43
-19.4
-17.96
-19.01
-20.91
-21.13
-17.32
-8.17
5.69
21.89
37.7
51.8
64.74
78.21
92.3
104.44
110.48
106.8
92.77
71.73
50.98
34.79
25.57
22.76
23.71
26.1
27.95
28.09
25.87
20.9
12.37
-0.16
-16.99
-36.16
-51.06
-54.18
-40.61
-10.03
31.66
73.34
103.52
113.47
101.52
75.24
43.74
13.39
-12.12
-31.27
-43.3
-47.47
-46.13
-44.31
-45.84
-56.22
-79.58
-113.58
-150.05
-178.86
-182.05
-152.05
-112.97
-78.79
-50.15
-28
-11.34
1.32
10.71
16.95
18.28
14.15
9.3
7.47
9.39
14.39
20.44
25.02
26.26
22.5
14.11
5.77
1.19
1.43
6.08
13.35
20.71
25.89
26.87
23.3
18.07
13.91
12.02
12.55
14.43
15.91
15.46
12.22
6.83
1.96
0.02
1.89
6.81
12.49
16.11
15.73
11.07
4.07
-1.68
-3.03
1.23
9.81
19.12
24.46
21.89
9.96
-9.5
-31.51
-49.12
-55.22
-44.56
-15.83
27.14
75.38
116.56
138.66
134.22
103.64
55.82
5.25
-33.24
-50.17
-44.49
-23.07
3.39
25.26
37.58
40.58
37.53
31.93
25.72
19.1
11.76
4.1
-2.18
-5.15
-3.8
1.04
6.9
10.68
10.18
5.1
-2.82
-10.56
-15.21
-15.07
-10.37
-3.01
4.2
8.74
9.31
6.26
1.23
-3.78
-7.31
-8.89
-9.19
-9.51
-11.15
-14.77
-20.27
-26.95
-34.25
-41.65
-48.62
-54.56
-58.86
-61.02
-60.82
-58.43
-54.5
-50.53
-47.71
-46.21
-45.16
-43.27
-39.59
-33.88
-26.72
-19.34
-13.87
-11.64
-12.09
-13.12
-12.37
-8.27
-0.7
8.75
17.05
19.52
12.65
-3.78
-26.39
-49.74
-68.01
-76.81
-74.46
-55.95
-22.11
18.86
55.84
81.33
93.45
94.08
86.89
76.6
67.97
63.24
61.94
61.11
56.21
43.65
23.76
1.89
-13.76
-16.87
-7.79
5.92
16.19
17.28
8.05
-7.82
-24.27
-36.22
-42.02
-42.99
-43.43
-46.69
-53.12
-59.94
-63.22
-59.79
-48.58
-31.06
-10.76
8.26
23.46
34.3
41.84
47.62
52.72
56.95
59
57.35
51.39
42.31
32.56
24.66
20.11
18.93
20.03
21.38
21.19
18.52
13.56
7.31
1.15
-3.64
-6.3
-6.86
-6.03
-4.92
-4.42
-4.85
-5.72
-6.18
-5.51
-3.57
-1.07
0.88
1.33
-0.01
-2.6
-5.32
-7.09
-7.39
-6.34
-4.59
-2.86
-1.64
-1.05
-0.94
-1.05
-1.15
-1.16
-1.1
-1.08
-1.1
-1.19
-1.34
-1.53
-1.77
-2.09
-2.58
-3.3
-4.19
-5
-5.46
-5.34
-4.6
-3.47
-2.37
-1.69
-1.58
-1.88
-2.2
-2.14
-1.58
-0.72
-0.03
-0
-0.9
-2.69
-4.99
-7.23
-8.9
-9.77
-9.82
-9.27
-8.5
-7.98
-8.25
-9.73
-12.48
-15.99
-19.43
-21.83
-22.25
-20.01
-14.92
-7.32
1.93
11.6
20.26
26.45
29.37
29.41
28.03
26.97
27.3
28.99
31.16
32.69
32.36
29.77
25.55
20.98
17.09
14.2
12.14
10.63
9.61
7.89
4.21
-1.57
-7.86
-12.28
-13.12
-10.19
-4.7
1.78
5.72
3.69
-5.8
-21.57
-40.36
-58.14
-71.11
-75.93
-64.81
-35.05
7.59
52.58
91.61
123.63
148.12
160.75
156.15
132.98
89.47
30.68
-33.2
-90.55
-132.24
-149.13
-137.34
-111.18
-81.82
-53.9
-32.67
-21.19
-19.48
-24.63
-32.19
-38.25
-40.04
-34.92
-24.06
-11.98
-4.01
-3.49
-9.72
-18.06
-22.89
-20.77
-11.44
0.02
5.94
0.94
-14.8
-35.63
-52.15
-55.47
-42.64
-19.03
4.94
21.39
28.71
30.15
30.32
33.13
37.87
41.42
41
35.55
26
14.36
2.74
-7
-13.42
-14.73
-9.42
2.86
20.06
37.4
48.8
49.8
40.45
25.47
11.59
3.64
2.42
5.76
11.44
19.33
31.08
47.54
65.99
79.91
82.07
69.14
44.38
16.46
-5.12
-14.91
-13.65
-6.86
-0.98
-0.04
-4.41
-11.95
-20.11
-27.47
-33.86
-39.35
-43.09
-43.08
-36.88
-23.18
-3.14
19.21
38.08
48.21
47.24
36.88
22.18
9.03
1.51
0.44
3.51
7.07
8.11
5.54
0.18
-6.22
-12.31
-17.43
-21.58
-25.02
-27.86
-29.91
-30.78
-30.21
-28.22
-25.7
-23.67
-22.82
-23.19
-24.31
-25.4
-25.7
-24.77
-22.67
-20.79
-20.51
-22.37
-25.89
-29.89
-32.93
-33.89
-32.69
-30.58
-30.59
-35.3
-45.24
-58.52
-72.02
-82.74
-88.82
-89.78
-80.71
-60.11
-31.13
0.03
28.28
51.15
68.21
79.99
87.46
91.65
92.56
90.03
84.51
77.53
70.98
66.64
65.93
69.91
78.79
90.66
101.69
106.79
102.49
85.76
57.16
21.3
-14.64
-43.58
-61.8
-68.21
-66.3
-60.97
-56.05
-52.72
-50.27
-47.59
-44.29
-41.23
-39.49
-39.61
-40.93
-42.23
-42.23
-40.61
-38.22
-36.62
-37.04
-39.24
-41.19
-39.49
-31.36
-16.18
3.63
23.5
38.75
46.77
47.45
42.7
35.4
27.91
21.49
16.45
12.82
10.87
10.87
12.59
15
16.6
16.06
12.99
8.15
3.4
0.81
1.64
5.58
10.9
15.15
16.38
13.92
8.71
2.96
-0.83
-0.81
3.52
11.24
20.4
28.8
34.47
35.81
32.02
23.5
12.18
1.49
-4.5
-2.6
8.04
26.02
46.37
62.38
68.6
63.24
48.86
30.62
13.57
0.35
-9.32
-17.38
-25.18
-32.18
-36.45
-36.39
-32.06
-25.47
-19.61
-17.01
-18.65
-23.37
-28.75
-32.23
-32.29
-28.94
-23.47
-17.77
-13.6
-12.03
-13.02
-15.57
-18.25
-19.86
-19.96
-19.01
-18.05
-18.26
-20.51
-24.74
-29.86
-34.26
-36.44
-35.85
-33.02
-29.35
-26.71
-26.74
-29.8
-34.74
-39.32
-41.28
-39.14
-32.65
-22.71
-11.37
-1.54
4.15
4.26
-1
-9.74
-18.99
-25.51
-26.53
-20.91
-9.53
5.22
19.97
30.59
33.06
25.12
7.11
-14.29
-28.04
-26.56
-10.74
12.06
33.06
46.47
51.45
51.34
50.86
52.75
56.43
59.58
60.39
58.17
53.55
47.77
42.53
39.55
39.63
42.26
46.31
51.25
56.63
61.72
64.92
63.72
55.21
38.1
11.96
-20.28
-53.06
-81.07
-101.4
-113.96
-120.02
-120.11
-113.47
-97.78
-73.57
-43.09
-10.38
19.68
42.71
55.66
56.97
47.39
28.95
6.79
-11.13
-18.14
-12.68
-0.24
9.51
9.24
-1.49
-15.42
-22.16
-14.86
4.72
27.3
41.07
40.52
30.87
23.72
29.13
49.1
76.08
97.17
102.11
86.84
55.24
16.97
-17.66
-41.49
-52.25
-52.35
-47.47
-43.94
-45.4
-54.71
-67.94
-77.67
-75.46
-56.1
-20.71
22.46
61.18
84.22
85.4
66.13
33.65
-1.87
-31.68
-48.57
-49.27
-34.78
-10.07
17.04
38.13
46.46
40.53
24.96
8.48
-0.53
2.22
14.66
29.56
38.58
34.06
15.42
-9.55
-30.37
-41.6
-45.21
-46.76
-50.54
-56.4
-60.81
-59.62
-51.36
-38.64
-26.6
-19.86
-20.07
-25.6
-32.65
-37.5
-37.58
-32.73
-25.32
-19.16
-17.39
-20.79
-27.34
-32.91
-33.1
-24.87
-8.38
12.69
32.65
46.37
51.47
48.93
42.3
34.93
29.15
25.47
22.88
20.03
16.3
12.12
8.54
6.37
5.64
5.76
5.73
4.64
2.18
-1.25
-4.72
-7.22
-8.13
-7.53
-6.09
-4.79
-4.43
-5.33
-7.13
-8.94
-9.83
-9.37
-7.81
-6
-4.91
-5.03
-6.15
-7.24
-6.72
-3.15
3.47
12.09
20.77
27.46
30.8
30.58
28.11
25.99
26.94
32.33
41.3
50.85
57.1
56.8
48.7
34.22
16.81
0.7
-11.28
-18.02
-19.65
-15.96
-5.48
12.41
34.12
52.55
60.56
54.08
34.39
7.74
-17.19
-33.93
-41.75
-45.26
-49.77
-56.22
-59.58
-52.05
-30.28
2.07
34.05
52.31
48.19
22.47
-15.2
-51.89
-76.63
-84.27
-77.94
-64.23
-48.66
-33.11
-17.04
0.01
16.57
29.42
35.54
32.98
22.51
7.29
-8.26
-20.23
-26.49
-27.13
-24.13
-20.44
-18.53
-19.13
-21.14
-22.46
-21.1
-16.25
-8.63
-0.27
5.98
7.63
4.13
-2.79
-9.79
-13.44
-11.71
-4.9
4.57
13.29
18.34
18.54
14.49
7.87
0.4
-6.86
-13.64
-20.07
-26.09
-31.12
-34.15
-34.17
-30.67
-23.74
-14.03
-2.41
10.24
23.1
35.35
46.11
54.33
58.94
59.22
55.15
47.64
38.54
30.19
24.69
22.91
23.88
25.28
25
23.02
22.11
26.29
37.72
54.03
68.32
72.68
63.32
43.93
24.55
16.03
23.44
42.49
61.77
69.34
59.66
36.44
9.88
-9.58
-16.88
-14.07
-7.64
-3.74
-4.64
-8.25
-10.57
-9.04
-4.38
-0.32
-1.26
-9.67
-24.52
-41.72
-55.98
-63.27
-62.54
-55.81
-46.93
-39.63
-35.89
-35.42
-36.15
-35.54
-31.87
-24.95
-16.08
-7.28
-0.39
3.55
4.53
3.31
1.05
-1.16
-2.68
-3.25
-3.11
-2.71
-2.5
-2.82
-3.68
-4.81
-5.82
-6.43
-6.64
-6.84
-7.58
-9.2
-11.68
-14.49
-16.93
-18.45
-18.96
-18.84
-18.7
-18.98
-19.73
-20.57
-20.92
-20.36
-18.82
-16.59
-14.12
-11.88
-10.13
-8.95
-8.25
-7.87
-7.57
-7.16
-6.5
-5.65
-4.77
-4.12
-3.91
-4.17
-4.72
-5.21
-5.33
-4.96
-4.28
-3.58
-3.12
-2.87
-2.42
-1.15
1.62
6.25
12.61
20
27.45
33.91
38.59
41.1
41.52
40.38
38.47
36.62
35.38
34.84
34.55
33.7
31.55
27.68
22.3
16.1
9.97
4.65
0.37
-3.08
-6.08
-8.91
-11.56
-13.82
-15.52
-16.67
-17.5
-18.35
-19.45
-20.83
-22.25
-23.37
-23.89
-23.63
-22.62
-21.01
-19.17
-17.66
-17.08
-17.94
-20.36
-24.04
-28.41
-32.8
-36.74
-40.1
-42.97
-45.58
-48.08
-50.42
-52.32
-53.25
-52.52
-49.48
-43.84
-35.89
-26.59
-17.27
-9.12
-2.79
1.75
5.1
8.11
11.58
16.16
22.28
29.97
38.66
47.12
54.01
58.58
61.36
64.03
68.4
74.99
82.47
88.49
91.52
92.08
92.43
94.68
98.74
101.62
98.93
87.68
68.41
45.29
24
8.77
0.46
-3.15
-5.44
-8.93
-14.17
-20.2
-25.78
-30.37
-34.34
-38.47
-43.28
-48.71
-54.1
-58.51
-61.2
-61.83
-60.56
-57.77
