110.17
98.4
88.25
80.43
75.03
71.53
68.97
66.02
61.1
52.91
40.92
25.7
8.76
-8.23
-24.35
-40.07
-57.16
-77.86
-103.43
-133.12
-163.99
-191.89
-213.24
-226.54
-232.83
-234.93
-235.85
-237.51
-240.28
-243.53
-246.5
-248.92
-250.84
-251.9
-250.89
-246.26
-237.28
-224.77
-210.63
-196.13
-180.36
-160.1
-131.85
-94.76
-52.84
-14.51
10.55
15.98
2.07
-23.79
-50.09
-66.01
-65.87
-51.08
-28.93
-9.16
0.27
-3.97
-19.98
-42.35
-65.23
-84.94
-100.87
-114.38
-126.9
-138.52
-148.19
-155
-159.56
-164.14
-171.42
-182.53
-195.67
-206.41
-209.48
-201.14
-180.82
-151.42
-117.98
-85.85
-58.94
-38.83
-24.86
-14.83
-5.97
4.13
16.86
32.2
48.71
63.94
75.19
80.26
78.26
69.87
57.15
42.78
29.34
18.68
11.69
8.56
8.97
12.33
17.83
24.39
30.8
35.99
39.23
40.38
39.77
37.97
35.63
33.21
30.97
29
27.38
26.23
25.75
26.21
27.72
30.22
33.35
36.58
39.3
41.06
41.71
41.36
40.25
38.64
36.7
34.55
32.29
30.1
28.13
26.44
24.88
23.22
21.14
18.51
15.44
12.22
9.23
6.69
4.66
2.96
1.34
-0.41
-2.4
-4.6
-6.9
-9.12
-11.1
-12.74
-14.05
-15.21
-16.58
-18.61
-21.68
-25.84
-30.66
-35.26
-38.5
-39.34
-37.14
-31.89
-24.19
-15.05
-5.63
3.04
10.24
15.63
19.24
21.39
22.57
23.26
23.89
24.73
25.97
27.7
29.97
32.75
35.91
39.18
42.18
44.6
46.27
47.26
47.9
48.63
49.86
51.83
54.47
57.43
60.21
62.37
63.77
64.7
65.82
67.92
71.6
77.04
83.88
91.34
98.41
104.08
107.6
108.76
108.2
107.6
109.34
115.66
127.43
143.16
159.03
170.07
172.17
163.87
147.04
126.07
105.94
90.2
79.85
73.53
68.46
61.54
50.15
32.58
8.55
-20.05
-48.77
-71.11
-80.12
-70.92
-42.92
-0.63
47.48
91.67
123.95
139.89
138.93
123.15
95.78
60.13
19.58
-22.13
-60.76
-92.21
-113.59
-124.33
-126.62
-124.85
-124.15
-128.67
-140.27
-158.07
-178.85
-198.24
-212.12
-217.92
-215.46
-206.96
-196.25
-187.47
-183.67
-185.89
-193.01
-202.35
-210.49
-214.02
-210.1
-197.04
-174.76
-145.31
-112.62
-81.6
-56.38
-38.72
-27.25
-18.13
-7.03
8.89
29.7
53.1
75.72
94.75
108.52
116.37
117.95
112.86
101.01
83.16
61.35
38.68
18.62
4.19
-2.53
-0.37
11.1
31.83
60.86
95.97
133.35
168
194.42
207.68
204.38
183.12
144.75
92.56
32.38
-27.81
-79.2
-114.59
-130.98
-131.18
-123.2
-117.37
-122.13
-140.45
-168.82
-198.82
-220.79
-227.36
-215.55
-186.99
-146.56
-100.65
-55.62
-17.04
10.88
25.86
28.06
20.23
7.13
-5.44
-12.28
-10.14
1.36
19.75
40.68
59.36
72.24
78.1
78.12
75.02
71.42
68.35
64.59
57.12
42.31
17.52
-17.7
-61.09
-107.79
-151.15
-183.94
-199.78
-194.76
-168.82
-126.2
-74.68
-23.63
18.51
46.41
58.74
57.69
47.56
33.03
18.08
5.52
-2.99
-6.68
-5.65
-0.7
6.69
14.59
21.11
24.86
25.36
23.03
18.94
14.31
10.04
6.46
3.37
0.24
-3.45
-7.94
-13.13
-18.66
-24.03
-28.86
-32.91
-36.16
-38.71
-40.74
-42.52
-44.43
-46.89
-50.34
-55.06
-61.01
-67.65
-73.9
-78.32
-79.35
-75.79
-67.16
-53.9
-37.3
-19.27
-1.8
13.41
25.22
33.2
37.49
38.66
37.57
35.18
32.46
30.26
29.13
29.29
30.64
32.86
35.51
38.17
40.54
42.42
43.72
44.44
44.58
44.21
43.35
41.99
40.1
37.67
34.77
31.58
28.27
25.03
21.87
18.74
15.48
11.9
7.85
3.22
-1.96
-7.55
-13.27
-18.76
-23.77
-28.29
-32.62
-37.28
-42.84
-49.5
-57
-64.49
-70.74
-74.5
-74.82
-71.29
-64.17
-54.19
-42.37
-29.79
-17.34
-5.6
5.04
14.35
22.12
28.12
32.24
34.72
36.17
37.61
40.17
44.67
51.3
59.51
68.16
76.05
82.34
86.96
90.49
93.93
98.07
103.18
108.73
113.63
116.7
117.36
116
114.12
113.99
118.04
128.28
145.64
169.58
197.83
226.39
250.07
263.74
263.95
250.56
227.3
200.73
178.02
164.05
159.51
160.73
161.48
155.75
140.11
114.86
83.52
51.26
23.37
4.24
-2.96
3.43
23.09
53.03
87.35
118.05
137.05
138.61
121.3
88.45
46.74
3.65
-35.02
-66.64
-91.65
-112.21
-130.54
-147.58
-162.75
-174.56
-181.56
-183.1
-179.32
-170.8
-158.1
-141.79
-123.04
-104.33
-89.6
-83.44
-89.21
-107.16
-133.43
-160.76
-180.64
-186.01
-173.39
-143.51
-100.47
-50.07
1.99
51.2
94.75
131.27
160.45
182.5
197.77
206.41
208.31
203.29
191.62
174.53
154.25
133.59
115
99.77
87.51
76.42
63.94
47.67
26.4
0.84
-26.15
-50.02
-65.89
-70.24
-62.43
-45.29
-24.6
-7.32
0.34
-5.16
-24.08
-53.63
-89.23
-125.92
-159.26
-185.52
-201.2
-202.86
-187.93
-156.27
-111.76
-62.53
-19.06
9.23
17.34
6.15
-19.04
-51.6
-86.74
-122.34
-157.65
-190.82
-217.61
-232.12
-229.39
-207.95
-170.75
-124.11
-75.47
-31.36
3.7
27.58
40.34
44.21
43.35
42.91
47.27
58.07
73.37
88.66
99.39
103.56
102.65
100.19
99.15
99.58
98.31
90.7
73.39
46.17
11.96
-24.8
-60.31
-92.57
-121.22
-146.09
-165.93
-177.94
-178.7
-166.06
-140.65
-106.43
-69.68
-36.89
-12.63
1.66
7.37
7.44
4.66
0.53
-4.79
-11.8
-20.6
-30.24
-38.73
-43.78
-43.73
-38.36
-29.02
-18.14
-8.41
-1.81
0.81
-0.28
-4.18
-10.04
-17.39
-26.26
-36.79
-48.87
-61.73
-74.02
-84.02
-90.1
-91.12
-86.75
-77.5
-64.66
-49.89
-34.86
-20.79
-8.3
2.47
11.62
19.07
24.56
27.8
28.83
28.29
27.38
27.45
29.48
33.62
39.19
45.03
50.09
53.85
56.45
58.49
60.55
62.9
65.36
67.39
68.45
68.24
66.97
65.29
64.11
64.42
66.85
71.46
77.61
84.15
89.94
94.41
98.04
102.35
109.44
121.42
139.61
164
192.89
222.8
248.91
266
269.82
258.71
234.66
203.11
171.43
146.46
132.36
129.52
135.1
144.68
154.02
160.27
162.21
159.78
153.41
143.5
130.44
114.54
96.13
75.58
53.32
29.91
6.05
-17.59
-40.74
-63.64
-86.78
-110.24
-133.11
-153.35
-168.41
-176.19
-176
-168.88
-157.06
-142.74
-127.09
-109.9
-89.95
-66.13
-38.27
-7.64
23.2
50.76
71.44
82.16
80.97
67.55
43.28
11.07
-25.17
-61.36
-94.03
-120.93
-141.3
-155.79
-166.08
-174.49
-183.49
-195.3
-211.44
-232.22
-256.35
-280.96
-301.95
-314.89
-316.02
-303.26
-276.86
-239.41
-195.41
-150.19
-108.76
-74.71
-49.61
-33.03
-23.1
-17.42
-13.85
-11.05
-8.38
-5.67
-2.76
0.62
4.72
9.59
14.91
20.14
24.75
28.5
31.53
34.21
36.87
39.54
41.85
43.11
42.63
40.08
35.73
30.42
25.34
21.65
20.07
20.7
22.88
25.52
27.37
27.52
25.81
22.99
20.55
20.23
23.36
30.35
40.52
52.44
64.38
74.9
83.05
88.33
90.36
88.85
83.5
74.13
60.68
43.16
21.72
-3.03
-29.42
-54.42
-73.9
-83.74
-81.32
-66.65
-42.44
-13.1
16.88
44.32
67.79
87.29
103.57
117.53
130.08
142.25
155.18
169.88
186.81
205.58
225.05
243.58
259.36
270.72
276.4
275.73
269.01
257.47
243.09
227.99
213.69
200.61
188.12
175.03
160.33
143.63
125.12
105.16
83.76
60.36
34.06
4.11
-29.57
-66.26
-104.67
-143.29
-180.82
-216.35
-249.18
-278.47
-302.91
-320.72
-330.1
-329.94
-320.41
-303.16
-281.05
-257.63
-236.76
-222.11
-216.61
-221.57
-235.68
-254.48
-271.02
-277.74
-269.04
-243.55
-204.61
-158.84
-113.41
-73.35
-40.33
-13.28
10
31.06
50.09
66.27
78.79
87.61
93.69
98.31
102.28
105.35
106.36
104.02
97.9
88.88
79.01
70.68
65.66
64.38
65.81
67.99
68.71
66.16
59.34
48.27
34.1
19.17
6.69
0.1
2.06
13.36
32.46
55.7
78.51
96.64
107.32
109.55
103.73
91.04
72.86
50.67
26.19
1.48
-21.15
-39.75
-53.26
-61.94
-67.25
-71.31
-76.1
-82.77
-91.35
-100.91
-109.93
-116.73
-119.92
-118.54
-112.22
-101.15
-86.2
-68.77
-50.68
-33.76
-19.52
-8.91
-2.1
1.24
1.83
0.47
-2.04
-4.92
-7.33
-8.42
-7.48
-4.15
1.32
8.04
14.69
19.99
23.06
23.69
22.38
20.02
17.53
15.47
13.95
12.76
11.69
10.74
10.25
10.77
12.8
16.57
21.95
28.48
35.55
42.57
49.1
54.91
59.95
64.32
68.12
71.4
74.12
76.17
77.58
78.72
80.53
84.38
91.87
104.33
122.3
145.13
170.96
197.03
220.28
238.13
249.01
252.53
249.32
240.58
227.51
211.02
191.76
170.42
148.06
126.08
105.73
87.42
70.23
52.09
30.68
4.16
-28.12
-65.68
-107.07
-149.86
-190.17
-222.38
-239.9
-237.52
-214.66
-177.26
-136.94
-106.91
-96.47
-107.13
-132.47
-161.9
-186.08
-200.83
-207.38
-209.66
-210.4
-208.88
-201.53
-184.45
-156.36
-119.83
-80.24
-43.42
-13.4
8.7
24.24
35.51
44.32
51.28
56.11
58.61
59.62
61.23
66.15
76.5
92.38
111.31
128.54
138.43
136.38
120.69
93.39
59.92
27.52
2.97
-9.47
-9.12
1.33
17.11
33.18
45.68
52.78
54.53
52.26
47.68
42.39
37.72
34.88
35.07
39.36
48.3
61.64
78.13
95.83
112.78
127.57
139.64
149.03
155.81
159.58
159.32
153.76
141.9
123.41
98.86
69.45
36.66
1.83
-33.85
-69.07
-101.93
-129.88
-150.46
-162.33
-166.54
-166.64
-167.46
-172.88
-183.54
-195.75
-202.44
-196.12
-172.23
-131.25
-78.64
-22.8
27.69
66.54
90.7
100.03
96.36
82.42
61.19
35.68
8.68
-17.39
-40.6
-59.65
-73.76
-82.5
-85.81
-84.14
-78.54
-70.49
-61.5
-52.5
-43.61
-34.1
-22.78
-8.87
7.15
23.15
35.8
41.56
38
24.49
2.6
-24.7
-53.96
-82.14
-106.92
-126.72
-140.46
-147.5
-148.04
-143.32
-135.75
-128.43
-124.15
-124.44
-129.1
-136.46
-144.39
-151.49
-157.77
-164.55
-173.39
-184.79
-197.27
-207.46
-211.23
-205.38
-188.95
-163.61
-132.99
-101.25
-71.76
-46.3
-25.05
-7.16
8.46
22.66
35.71
47.5
57.62
65.64
71.12
73.78
73.52
70.55
65.41
58.85
51.71
44.8
38.73
33.87
30.32
27.82
25.83
23.69
20.79
16.92
12.38
7.83
3.96
1.17
-0.73
-2.41
-4.77
-8.64
-14.44
-22.13
-31.28
-41.13
-50.68
-58.69
-63.84
-64.92
-61.14
-52.44
-39.57
-23.98
-7.41
8.46
22.41
33.81
42.57
48.89
53.19
55.92
57.54
58.55
59.47
60.74
62.63
65.15
68.04
70.89
73.24
74.71
75.11
74.43
72.78
70.36
67.35
63.87
59.99
55.7
51.08
46.24
41.37
36.67
32.24
28.09
24.1
20.11
15.99
11.62
6.95
1.92
-3.51
-9.36
-15.69
-22.51
-29.74
-37.14
-44.15
-49.89
-53.33
-53.53
-49.96
-42.75
-32.62
-20.67
-8.08
4.14
15.2
24.54
31.68
36.29
38.31
38
36.04
33.35
30.9
29.43
29.32
30.56
32.83
35.64
38.43
40.65
41.87
41.84
40.53
38.15
35.06
31.63
28.09
24.58
21.14
17.8
14.67
11.85
9.37
7.17
5.06
2.87
0.49
-2.08
-4.82
-7.74
-10.95
-14.59
-18.61
-22.71
-26.2
-28.15
-27.58
-23.75
-16.45
-6.07
6.45
19.9
33.01
44.75
54.42
61.68
66.46
68.89
69.3
68.29
66.68
65.37
65.15
66.35
68.77
71.71
74.21
75.38
74.64
71.9
67.5
62.09
56.39
51.05
46.42
42.55
39.2
35.97
32.47
28.38
23.6
18.19
12.33
6.35
0.59
-4.6
-9.04
-12.73
-15.94
-19.11
-22.73
-27.06
-31.94
-36.77
-40.52
-42.09
-40.55
-35.5
-27.14
-16.33
-4.34
7.44
17.81
26.03
31.87
35.57
37.61
38.5
38.62
38.2
37.41
36.48
35.74
35.51
35.96
37.01
38.3
39.4
39.95
39.78
38.94
37.57
35.74
33.47
30.64
27.2
23.07
18.33
13.06
7.38
1.51
-4.33
-9.82
-14.64
-18.6
-21.73
-24.34
-26.96
-30.17
-34.45
-40.04
-46.8
-54.16
-61.17
-66.62
-69.25
-68.11
-62.8
-53.69
-41.88
-28.88
-16.19
-4.93
4.4
11.81
17.61
22.15
25.65
28.23
30.03
31.34
32.6
34.27
36.71
39.91
43.56
47.14
50.08
52.08
53.08
53.33
53.17
52.82
52.27
51.28
49.56
46.92
43.46
39.55
35.61
32.02
28.89
26.15
23.6
21.09
18.59
16.12
13.63
11
8.02
4.48
0.3
-4.4
-9.45
-14.67
-20.04
-25.63
-31.58
-37.83
-44
-49.31
-52.75
-53.3
-50.3
-43.7
-34.12
-22.77
-11.04
-0.16
9.08
16.39
21.89
25.88
28.62
30.33
31.21
31.59
31.86
32.44
33.58
35.27
37.16
38.76
39.62
39.5
38.48
36.81
34.78
32.55
30.1
27.32
24.17
20.75
17.28
14.05
11.23
8.78
6.53
4.17
1.5
-1.59
-5.02
-8.56
-11.99
-15.09
-17.75
-19.99
-21.93
-23.73
-25.5
-27.29
-29.06
-30.79
-32.49
-34.3
-36.39
-38.96
-41.95
-45.01
-47.47
-48.49
-47.31
-43.52
-37.17
-28.82
-19.35
-9.71
-0.73
7.03
13.33
18.15
21.6
23.83
25.03
25.38
25.13
24.55
23.95
23.59
23.55
23.79
24.15
24.4
24.41
24.18
23.82
23.41
22.99
22.44
21.54
20.11
18.02
15.31
12.2
8.96
5.89
3.18
0.93
-0.85
-2.23
-3.36
-4.35
-5.37
-6.53
-7.93
-9.62
-11.6
-13.75
-15.92
-17.9
-19.57
-20.92
-22.09
-23.29
-24.72
-26.54
-28.76
-31.27
-33.81
-35.98
-37.27
-37.15
-35.22
-31.34
-25.75
-18.99
-11.8
-4.92
1.07
5.85
9.32
11.51
12.56
12.67
12.08
11.05
9.84
8.7
7.82
7.3
7.12
7.17
7.27
7.32
7.24
7.04
6.77
6.39
5.83
4.98
3.8
2.3
0.61
-1.11
-2.71
-4.05
-5.1
-5.86
-6.4
-6.85
-7.37
-8.1
-9.13
-10.36
-11.65
-12.84
-13.87
-14.84
-15.92
-17.25
-18.83
-20.52
-22.12
-23.47
-24.63
-25.79
-27.24
-29.18
-31.59
-34.12
-36.18
-37.08
-36.21
-33.26
-28.28
-21.7
-14.25
-6.68
0.32
6.24
10.8
13.91
15.62
16.11
15.7
14.74
13.64
12.69
12.09
11.9
12.13
12.74
13.63
14.65
15.53
16.05
16.03
15.42
14.33
12.94
11.41
9.84
8.27
6.71
5.24
3.95
2.88
2.04
1.29
0.55
-0.28
-1.17
-2.08
-2.95
-3.87
-4.99
-6.5
-8.49
-10.87
-13.41
-15.82
-17.9
-19.61
-21.13
-22.72
-24.65
-27.08
-29.95
-33.01
-35.79
-37.66
-37.97
-36.22
-32.23
-26.23
-18.8
-10.76
-2.93
4.09
9.93
14.48
17.76
19.88
20.94
21.14
20.76
20.16
19.69
19.62
20.05
20.93
22.11
23.39
24.61
25.61
26.32
26.68
26.65
26.23
25.4
24.12
22.36
20.15
17.57
14.85
12.28
10.04
8.19
6.6
5.04
3.34
1.44
-0.56
-2.51
-4.29
-5.94
-7.56
-9.32
-11.34
-13.61
-16.1
-18.71
-21.38
-24.1
-26.93
-29.92
-33.1
-36.44
-39.75
-42.69
-44.8
-45.49
-44.32
-41.03
-35.73
-28.82
-20.97
-12.94
-5.48
0.83
5.61
8.77
10.4
10.81
10.28
9.16
7.71
6.2
4.86
3.95
3.6
3.81
4.42
5.12
5.65
5.83
5.66
5.24
4.67
3.9
2.77
1.03
-1.52
-4.89
-8.89
-13.09
-17.06
-20.45
-23.1
-25.09
-26.7
-28.22
-29.92
-31.91
-34.13
-36.4
-38.44
-40.02
-41.01
-41.46
-41.6
-41.82
-42.5
-43.91
-46.02
-48.42
-50.4
-51.06
-49.6
-45.54
-38.92
-30.34
-20.74
-11.16
-2.46
4.84
10.51
14.59
17.17
18.41
18.54
17.95
17.11
16.53
16.61
17.49
19.01
20.85
22.66
24.23
25.52
26.58
27.48
28.15
28.43
28.09
27.01
25.19
22.77
19.99
17.07
14.16
11.35
8.65
6.05
3.5
0.91
-1.81
-4.76
-7.96
-11.34
-14.81
-18.25
-21.65
-25.1
-28.8
-32.96
-37.68
-42.76
-47.68
-51.54
-53.36
-52.29
-47.97
-40.66
-31.19
-20.71
-10.36
-1
6.86
13.05
17.61
20.64
22.32
22.89
22.69
22.16
21.72
21.7
22.26
23.41
25.01
26.94
29.03
31.12
33.02
34.58
35.57
35.89
35.51
34.5
33.02
31.23
29.28
27.27
25.3
23.38
21.53
19.72
17.91
16.1
14.35
12.72
11.25
9.85
8.34
6.5
4.23
1.5
-1.58
-4.92
-8.42
-11.87
-14.84
-16.55
-16
-12.26
-4.88
5.86
19.01
33.22
47.3
60.44
72.36
83.14
93.06
102.47
111.85
121.74
132.64
144.66
157.3
169.19
178.18
181.79
177.9
165.39
144.63
117.35
86.02
52.96
19.77
-12.81
-44.36
-74.06
-100.27
-120.76
-133.51
-137.57
-133.57
-123.48
-109.89
-95.22
-81.24
-68.92
-58.58
-50.01
-42.59
-35.41
-27.48
-18.15
-7.56
3.3
12.7
18.86
20.67
18.46
14.33
11.9
15.3
27.55
49
76.48
103.9
124.08
131.21
122.76
100.16
68.01
32.36
-1
-27.75
-45.5
-53.69
-53.3
-46.45
-35.83
-24.16
-13.57
-5.51
-0.89
-0.55
-5.48
-16.69
-34.8
-59.68
-90.44
-125.62
-163.48
-201.86
-238.01
-268.42
-289.25
-297.2
-290.77
-270.95
-241.07
-205.69
-169.18
-134.64
-103.5
-75.9
-51.4
-29.62
-10.54
5.52
17.95
26.02
28.97
26.4
18.64
7.02
-6.11
-17.91
-25.77
-28.18
-24.99
-17.43
-7.47
2.77
11.62
18.17
22.29
24.52
25.66
26.56
27.8
29.61
31.89
34.36
36.67
38.69
40.44
42.21
44.35
47.21
50.97
55.59
60.88
66.41
71.7
76.33
80.09
83.05
85.65
88.48
92.07
96.68
102.13
107.91
113.38
118.06
121.83
125
128.27
132.52
138.5
146.5
156.03
165.88
174.39
179.97
181.59
179.07
172.99
164.29
153.84
142.25
129.88
117.05
104.05
91.1
78.08
64.32
48.71
29.96
6.88
-21.18
-54.25
-91.43
-130.75
-169.26
-203.46
-230.05
-246.88
-253.64
-251.89
-244.38
-233.89
-222.3
-209.97
-196.15
-179.74
-160.26
-138.27
-115.23
-92.84
-72.42
-54.61
-39.48
-26.97
-17.1
-9.97
-5.43
-2.66
-0.12
3.99
11.16
21.89
35.52
50.51
65.01
77.33
86.23
91.05
91.74
88.99
84.15
78.88
74.61
71.78
69.38
65.25
56.87
42.66
22.84
-0.5
-24.07
-44.52
-59.26
-66.61
-65.33
-54.21
-32.17
0.77
42.31
87.36
128.7
159.03
173.18
169.61
150.35
119.93
83.91
47.79
16.57
-5.55
-15.64
-12.9
0.91
21.68
43.94
62.5
73.57
75.36
67.87
52.43
31.3
7.13
-17.56
-41.18
-63.51
-85.52
-108.38
-132.17
-155.16
-174
-184.93
-185.26
-174.4
-153.99
-127.27
-98.06
-69.82
-45.09
-25.28
-10.57
-0.08
7.97
15.66
24.56
34.96
45.65
54.46
59.4
59.79
56.7
52.44
49.35
48.77
50.56
53.72
57.23
60.85
65.1
70.51
76.74
81.98
83.17
76.78
59.94
31.69
-6.25
-49.23
-90.43
-122.6
-140.29
-141.9
-130.35
-112.12
-95.03
-85.87
-88.77
-104.94
-133.19
-170.58
-212.61
-253.22
-285.03
-300.51
-294.13
-264.73
-216.74
-159.57
-105.08
-64.03
-43
-42.87
-59.15
-83.85
-108.14
-124.68
-128.98
-119.73
-98.2
-67.56
-32.19
2.84
32.69
53.87
65.5
69.84
71.68
76.33
87.28
104.48
124.22
140.83
149.27
147.37
136.43
120.49
104.59
93.1
88.5
90.97
98.22
106.11
109.74
105.05
90.49
67.84
41.75
17.99
1.26
-6.53
-6.61
-2.45
1.89
3.2
0.01
-7.34
-17.17
-27.36
-36.25
-43.16
-48.6
-53.92
-60.99
-71.68
-87.67
-110.15
-139.35
-173.82
-209.67
-240.61
-259.14
-258.75
-236.41
-193.88
-137.41
-75.79
-17.89
29.34
61.78
78.14
79.51
68.77
50.09
28.16
7.37
-9.11
-19.83
-25.04
-26.08
-24.68
-22.39
-20.28
-18.82
-17.8
-16.34
-13.22
-7.27
1.94
13.83
26.89
39.23
49.24
56.08
59.68
60.44
58.83
55.21
49.95
43.51
36.61
30.04
24.46
20.12
16.83
14.01
11.11
7.72
3.77
-0.59
-5.03
-9.22
-12.98
-16.46
-19.94
-23.75
-28.11
-33.1
-38.52
-43.89
-48.26
-50.46
-49.43
-44.49
-35.57
-23.41
-9.46
4.64
17.47
28.48
37.75
45.6
52.36
58.56
64.41
69.7
74.08
77.14
79.36
81.54
84.39
88.37
94.49
102.96
112.91
122.6
129.9
134.43
136.91
138.44
140.24
144.6
152.61
163.45
174.71
182.89
186.96
187.27
184.97
182.07
182.92
190.94
206.78
227.59
247.04
260.26
263.69
255.92
226.06
172.55
104.63
38.57
-5.5
-29.51
-41.47
-49.67
-62.12
-82.54
-108.59
-134.58
-153.47
-159.13
-148.72
-120.99
-78.9
-29.8
16.72
52.81
72.66
73.36
55.23
21.14
-21.94
-66.05
-104.52
-132.48
-146.18
-143.64
-124.83
-91.79
-49.08
-1.5
45.89
88.74
124.45
152.63
173.6
187.32
193.03
189.99
179.65
165.71
153.04
145.61
144.45
146.62
146.25
137.19
115.78
82.67
42.09
-0.49
-40.97
-77.96
-112.33
-145.17
-175.78
-201.09
-216.95
-220.61
-212.59
-196.99
-179.62
-165.51
-156.91
-153.11
-151.78
-150.92
-150.01
-149.91
-151.62
-155.14
-159.02
-161.11
-159.82
-155.19
-149.17
-145.07
-146.21
-154.53
-169.41
-187.51
-203.61
-212.33
-210.01
-195.6
-170.79
-138.88
-103.4
-67.17
-32.05
0.52
29
51.61
66.81
73.99
73.97
68.89
61.52
54.41
49.28
46.73
46.34
46.76
45.89
41.41
31.61
16.27
-2.66
-21.18
-34.39
-38.12
-30.48
-12.67
11.56
37.16
59.51
75.64
84.65
87.34
85.53
81.27
76.37
72.09
68.91
66.46
63.84
60.37
56.38
53.76
55.51
64.62
82.51
107.95
137.1
164.66
185.42
195.61
193.56
179.84
157.08
129.61
102.75
81.62
69.82
68.44
75.82
88.35
101.78
112.5
118.08
117.19
109.19
93.81
71.18
42
7.61
-30.37
-70.45
-111.68
-153.59
-195.93
-238.23
-279.5
-317.97
-351.09
-375.86
-389.16
-388.13
-370.56
-335.49
-283.97
-219.81
-149.94
-83.75
-31.35
-1.12
2.73
-18.29
-57.06
-102.44
-141.95
-164.69
-163.95
-138.74
-94.05
-39.61
12.59
51.75
71.4
71.26
57.07
38.31
24.72
22.85
33.98
54.29
77.27
97.12
111.63
123.15
137.04
158.38
188.82
225.27
261.12
289.3
305.25
308.01
299.35
281.53
255.57
220.99
177.09
124.63
67.01
10.16
-38.73
-73.07
-88.98
-86.7
-70.94
-49.41
-30.19
-18.6
-15.22
-16.3
-16.32
-11.39
-1.43
10.12
18.7
21.53
19.23
15.26
13.63
16.39
22.24
27.08
25.7
14
-9.45
-42.96
-82.21
-121.24
-153.7
-174.03
-178.38
-165.37
-136.27
-94.82
-46.58
2.12
45.31
78.56
99.73
109.28
109.84
105.28
99.34
94.48
91.11
87.63
81.43
70.15
52.88
30.78
7.06
-13.63
-26.26
-26.52
-12.12
16.25
54.44
95.38
130.59
152.35
155.61
139.2
105.65
60.12
9
-41.51
-86.28
-122.05
-147.81
-164.99
-177.15
-188.85
-204.27
-225.81
-253.38
-284.44
-315.02
-340.96
-358.98
-367.28
-365.48
-354.22
-334.67
-308
-275.36
-238
-197.48
-155.93
-115.82
-79.55
-48.9
-24.67
-6.7
5.88
14.16
19.22
22.01
23.3
23.71
23.71
23.63
23.67
24.02
24.93
26.66
29.41
33.13
37.57
42.27
46.75
50.59
53.42
54.9
54.63
52.1
46.86
38.73
28.06
15.88
3.85
-5.99
-11.61
-11.44
-4.73
8.18
25.84
45.69
64.51
78.88
86.01
84.32
73.83
56.08
33.64
9.53
-13.39
-32.69
-46.47
-53.24
-51.96
-42.21
-24.39
-0
28.48
58
85.66
109.48
128.87
144.59
158.08
170.71
183.16
195.27
206.43
216.14
224.26
231.05
236.67
240.95
243.33
243.24
240.5
235.44
228.64
220.4
210.35
197.62
181.43
161.73
139.46
116.07
92.53
68.6
42.9
14.09
-17.52
-48.9
-74.72
-89.19
-88.39
-72.14
-44.03
-10.06
23.51
51.91
72.51
84.26
86.99
80.8
65.93
43.17
13.83
-20.65
-59.26
-101.73
-148.11
-197.74
-248.23
-295
-331.9
-352.61
-352.42
-329.76
-287.13
-230.93
-170.19
-114.37
-71.06
-44.23
-33.85
-37.03
-49.67
-68.19
-89.91
-112.29
-131.73
-143.26
-141.78
-124.41
-92.53
-52.07
-11.57
21.13
41.83
50.91
52.23
50.62
49.47
49.71
50.32
49.78
47.45
44.09
41.42
41.2
44.36
50.61
58.63
66.77
73.8
79.31
83.65
87.33
90.37
91.88
90.37
84.54
74.22
60.82
46.87
34.96
26.6
21.89
19.94
19.95
22.07
27.53
37.94
54.21
75.7
100.18
124.54
145.73
161.61
171.28
175.23
175.04
173.15
172.36
175.03
182.2
192.68
203.12
208.78
205.07
189.05
160.29
120.88
74.86
27.39
-16.09
-50.64
-72.67
-80.69
-75.89
-61.96
-44.2
-28.14
-18.24
-17.04
-25.27
-42.3
-66.84
-97.2
-131.21
-166.03
-198.19
-224.08
-240.6
-246.02
-240.53
-226.2
-206.39
-184.68
-163.72
-144.48
-126.27
-107.44
-86.52
-63.24
-38.99
-16.56
0.7
9.99
9.84
0.31
-17.26
-40.77
-67.74
-95.25
-119.92
-138.14
-146.61
-143.41
-128.8
-105.34
-77.19
-48.85
-23.66
-3.07
13.39
27.38
40.66
54.33
68.62
83.09
97.09
110.11
121.89
132.31
141.32
148.89
154.94
159.21
161.09
159.52
153.04
140.18
120.13
93.27
61.42
27.64
-4.38
-30.96
-48.82
-55.42
-49.2
-30.06
0.14
37.36
75.81
109.1
131.72
140.53
135.42
119.08
96.1
71.58
49.83
33.36
22.42
15.08
7.88
-3.15
-21.26
-48.06
-82.92
-123.16
-164.74
-203.11
-234.26
-255.56
-266.23
-267.6
-262.85
-256.32
-251.97
-251.98
-255.62
-259.16
-256.99
-243.65
-216.08
-175.1
-125.64
-75.42
-32.58
-3.24
10.43
10.59
2.66
-6.72
-11.97
-10.16
-1.28
12.43
27.77
41.8
52.45
58.56
59.68
55.9
47.94
37.27
25.92
16.09
9.59
7.18
8.38
11.76
15.55
18.38
19.9
20.92
23.11
28.27
37.65
51.38
68.52
87.52
106.84
125.47
143.01
159.34
174.13
186.49
195.02
198.22
195
185.28
170.26
152.33
134.52
119.58
108.98
102.29
97.24
90.67
79.82
63.57
42.75
19.75
-2.56
-21.6
-35.34
-42.11
-40.34
-29.03
-8.45
19.15
49.45
76.85
95.82
102.18
93.74
70.42
34.24
-10.5
-57.08
-97.02
-121.95
-126.09
-108.37
-72.95
-27.83
17.84
56.23
82.12
92.65
86.39
62.76
22.43
-31.6
-93.01
-152.42
-199.08
-223.7
-221.26
-192.69
-144.68
-87.74
-32.92
11.46
41.73
58.82
66.57
69.21
69.46
67.77
62.95
53.38
37.98
16.66
-9.51
-38.19
-65.71
-87.41
-98.68
-96.66
-81.57
-57.07
-29.13
-3.74
15.29
27.6
35.71
43.42
53.85
68.28
86.19
105.91
125.4
142.41
154.45
158.94
153.93
139.16
116.87
91.74
69.67
55.84
53.05
60.98
76.63
95.43
112.48
123.49
125.3
116.27
96.67
68.7
35.99
2.48
-28.96
-57.52
-84.36
-111.56
-140.57
-170.7
-198.66
-219.14
-226.51
-216.79
-189.39
-147.73
-98.59
-50.19
-9.67
18.8
34.9
41.42
42.56
42.08
42.23
43.64
46.01
48.91
52.15
55.44
57.89
57.68
52.41
39.96
19.3
-9.1
-43.6
-82.11
-122.74
-163.75
-203.1
-237.92
-264.91
-281.53
-287.54
-285.74
-281.05
-278.21
-279.38
-282.86
-284.1
-278.08
-261.94
-236.08
-203.49
-167.78
-131.57
-96.12
-62.09
-30.74
-4.41
14.19
23.36
23.61
17.93
10.88
6.99
9.35
18.78
33.95
52.28
71.1
88.6
104.21
118.41
131.94
145.31
158.38
170.69
181.94
192.4
202.91
214.5
227.74
242.32
257.01
270.11
279.97
285.38
285.62
280.23
268.97
251.75
228.86
201.25
170.5
138.75
108.27
81.16
59.01
42.71
32.32
26.99
25.16
24.88
24.36
22.43
18.71
13.43
7.03
-0.24
-8.41
-17.64
-28.06
-39.61
-52.23
-65.98
-81.2
-98.29
-117.46
-138.54
-160.94
-183.88
-206.55
-228.22
-248.04
-264.88
-277.08
-282.57
-279.24
-265.4
-240.23
-204.18
-159.18
-108.63
-57.19
-10.22
27.21
51.3
60.47
55.75
40.55
19.72
-1.63
-19.4
-31.16
-36.28
-35.6
-30.88
-24.25
-17.81
-13.36
-12.18
-14.89
-21.3
-30.58
-41.46
-52.73
-63.57
-73.49
-82.12
-88.81
-92.41
-91.41
-84.33
-70.17
-48.58
-20.04
14.22
51.99
89.88
123.38
147.52
158.18
153.55
135.14
107.48
76.69
48.39
26.05
10.44
0.13
-7.1
-13.14
-19.01
-25.08
-31.6
-38.92
-47.47
-57.23
-67.38
-76.18
-81.39
-80.94
-73.55
-59.04
-38.27
-12.84
15.37
44.56
73.08
99.19
120.66
134.68
138.33
129.85
109.9
82.39
53.95
32.34
23.95
31.69
54.12
86.06
120.32
149.72
168.77
174.55
167.18
149.75
127.62
107
93.05
88.19
91.03
96.93
99.72
94.14
77.88
52.23
21.24
-10.31
-38.88
-63.42
-85.13
-106.35
-129.16
-154.42
-181.41
-208.05
-231.24
-247.46
-253.25
-246.31
-226.49
-196.44
-161.17
-126.48
-96.78
-73.62
-55.51
-39.14
-21.2
0.23
25.41
53.6
83.88
115.47
147.47
178.33
205.74
227.13
240.67
246.17
245.42
241.64
238.29
237.87
241.02
246.39
251.31
252.74
248.43
237.53
220.71
199.77
176.76
153.3
130.23
107.53
84.78
61.59
37.72
13.01
-12.83
-39.96
-67.84
-94.54
-116.8
-131
-134.89
-128.93
-116.5
-102.39
-90.67
-82.78
-77.35
-71.43
-62.64
-50.64
-37.47
-26.41
-20.45
-21.05
-28
-39.92
-55.14
-72.41
-91.12
-111.12
-132.15
-153.4
-173.36
-190.17
-202.41
-209.89
-213.89
-216.4
-218.83
-220.77
-219.81
-212.57
-196.67
-172.25
-142.46
-112.36
-86.82
-68.68
-57.91
-51.92
-46.79
-38.66
-24.91
-5.02
19.12
43.43
62.59
71.64
67.53
50.05
21.5
-14.35
-53.56
-92.62
-128.19
-156.62
-173.84
-176.25
-162.16
-132.95
-93.12
-49.19
-7.85
25.4
46.86
54.47
47.47
26.42
-6.21
-45.55
-84.68
-115.99
-133.22
-133.31
-117.21
-89.15
-54.97
-20.28
10.84
36.08
54.49
65.91
70.75
70.02
65.5
59.51
54.35
51.57
51.44
52.97
54.44
54.29
51.72
47.02
41.24
35.63
31.1
27.83
25.35
22.83
19.42
14.67
8.62
1.79
-5.17
-11.68
-17.55
-23.07
-28.93
-35.99
-44.91
-55.76
-67.77
-79.38
-88.43
-92.87
-91.32
-83.55
-70.51
-53.94
-35.64
-16.95
1.66
20.49
40.31
61.88
85.38
110.07
134.27
155.76
172.54
183.66
189.6
192.13
193.58
195.76
199.36
203.7
207.1
207.46
202.78
191.6
173.61
150.33
125.36
104.02
91.93
93.1
108.2
134.07
164.62
192.79
212.68
220.97
217.27
203.41
182.5
157.78
131.97
106.79
82.72
58.96
33.61
4.22
-31.24
-73.24
-119.58
-165.09
-202.4
-224.04
-225.04
-205.14
-169.35
-126.44
-85.92
-54.78
-35.47
-25.94
-21.47
-17.13
-9.75
1.45
15.42
30.36
44.73
57.52
68.15
76.17
81.28
83.62
84.04
84.08
85.66
90.38
98.93
110.88
124.85
139.1
152.12
163.02
171.63
178.42
184.21
189.83
195.73
201.64
206.59
208.93
206.92
199.25
185.57
166.61
144.03
119.92
96.36
74.93
56.61
41.56
29.14
17.79
5.05
-12.35
-38.07
-75
-123.74
-181.1
-239.7
-289.28
-319.57
-323.76
-300.95
-256.53
-200.18
-142.42
-91.48
-51.75
-24.26
-8.42
-3.58
-9.62
-26.32
-52.35
-84.73
-118.96
-149.69
-171.53
-179.76
-171.31
-145.58
-105.29
-56.51
-7.42
33.93
62.24
76.47
79.78
77.67
75.35
75.49
77.4
77.91
73.06
59.97
37.95
8.64
-24.53
-57.19
-84.89
-103.58
-109.98
-102
-79.32
-43.97
-0.44
44.97
85.55
115.72
132.07
133.58
120.99
96.21
62.06
22.48
-17.21
-50.8
-72.45
-78.66
-69.78
-50.37
-27.93
-10.65
-5.01
-14.27
-38.08
-73.02
-113.51
-152.68
-183.42
-199.5
-197.09
-175.93
-139.71
-95.26
-50.71
-13.51
10.97
19.9
12.75
-9.16
-42.93
-83.99
-126.1
-161.96
-184.57
-189.04
-174.32
-143.85
-104.82
-65.96
-34.77
-15.11
-6.19
-3.52
-1.19
5.4
17.75
33.94
50.04
62.06
67.83
67.77
64.44
61.22
60.82
64.07
69.88
75.94
79.78
79.66
74.86
65.18
50.38
29.9
3.11
-29.93
-67.73
-106.95
-142.74
-169.53
-182.16
-176.95
-152.54
-110.51
-55.52
5.3
63.64
111.91
145.1
161.84
164.33
157.16
145.72
134.7
127.26
124.73
126.82
131.99
138.08
143.15
146.25
147.67
148.57
149.81
150.86
149.44
142.3
126.81
102.39
70.98
36.26
2.4
-27.24
-50.61
-66.67
-74.8
-74.62
-66.23
-50.71
-30.55
-9.38
8.84
20.77
24.53
20.09
9.13
-5.32
-19.48
-29.66
-32.94
-27.92
-15.15
2.96
22.78
40.49
53.16
59.39
59.34
54.11
45
33.11
19.33
4.75
-9.17
-20.82
-29
-33.58
-35.91
-38.37
-43.72
-54.16
-70.95
-94.3
-123.73
-158.05
-195.21
-231.95
-263.72
-285.41
-292.52
-282.52
-255.67
-214.92
-165.09
-111.84
-60.74
-16.73
16.33
36.2
42.88
38.84
28.44
16.71
7.66
3.09
2.46
3.65
4.42
3.55
1.14
-1.74
-3.81
-4.1
-2.14
2.15
8.48
16.11
23.69
29.25
30.85
27.46
19.7
10.08
2.27
-0.3
4.21
15.14
29.38
42.19
48.59
44.6
28.25
0.11
-36.76
-76.98
-113.78
-140.17
-150.75
-143.2
-119.33
-84.71
-47.13
-14.31
8.21
18.23
16.74
6.91
-7.2
-21.43
-32.03
-36.11
-32.19
-20.86
-4.82
11.95
25.77
34.86
39.96
43.61
48.34
55.03
62.27
67.2
67.08
60.81
49.55
36.13
23.75
14.62
9.29
6.81
5.27
2.78
-1.78
-8.3
-15.58
-21.81
-25.38
-25.47
-22.37
-17.23
-11.49
-6.17
-1.54
2.71
7
11.31
14.99
16.85
15.63
10.38
0.72
-13.12
-30.5
-50.35
-71.16
-90.83
-106.7
-115.91
-116.09
-106.21
-87.25
-62.21
-35.33
-10.95
7.75
19.33
24.06
23.36
19.01
12.64
5.53
-1.34
-7.38
-12.39
-16.65
-20.82
-25.64
-31.57
-38.51
-45.67
-51.86
-55.82
-56.65
-54.04
-48.31
-40.19
-30.58
-20.4
-10.41
-1.31
6.3
11.96
15.47
16.95
16.9
16.06
15.29
15.41
17.05
20.44
25.26
30.55
34.99
37.4
37.62
36.98
38.24
44.72
59
81.66
110.7
141.71
168.7
185.59
187.77
173.65
145.45
109
72.26
42.86
25.62
20.95
24.85
30.38
30.15
18.59
-6.5
-43.47
-87.39
-131.16
-167.25
-189.59
-195.14
-184.58
-161.72
-132.12
-101.14
-72.71
-48.83
-30.07
-16.42
-7.77
-3.96
-4.33
-7.48
-11.26
-13.41
-12.13
-6.59
2.99
15.63
29.98
44.81
59.27
73
86.03
98.56
110.83
123.03
135.4
148.22
161.9
176.78
192.81
209.06
223.44
232.87
233.95
224.03
202.11
169.51
129.54
86.82
45.81
9.71
-20.43
-45.64
-68.25
-90.76
-114.47
-138.62
-160.02
-173.83
-175.09
-160.61
-130.55
-88.76
-41.88
2.57
38.08
60.5
68.34
62.3
44.61
18.43
-12.57
-44.79
-75.47
-103.26
-128.32
-151.53
-173.35
-192.93
-208.3
-217.26
-218.5
-212.22
-199.83
-183.04
-163.12
-140.59
-115.65
-88.81
-61.01
-33.28
-6.1
21.14
49.88
81.63
116.84
154.16
190.33
220.92
241.46
248.81
241.93
221.98
191.9
155.69
117.91
83.27
56.23
40.46
38.05
48.75
69.63
95.48
119.87
136.74
141.87
134.01
115.18
90.2
65.2
45.89
35.97
36.31
45.04
58.54
72.53
82.94
86.51
80.8
64.61
38.51
5.2
-30.69
-63.53
-88.31
-102.1
-104.52
-97.43
-83.89
-67.23
-50.69
-37.46
-30.62
-32.76
-45.25
-67.37
-96.08
-126.35
-152.41
-169.19
-173.62
-165.12
-145.44
-117.88
-86.21
-53.77
-22.87
5.35
30.61
53.02
72.72
89.8
104.42
117.15
128.89
140.77
153.68
167.81
182.52
196.34
207.39
213.82
214.31
208.36
196.36
179.44
159.15
137.12
114.82
93.42
73.72
56.24
41.03
27.51
14.24
-1.03
-20.85
-47.23
-80.63
-119.39
-159.72
-196.61
-225.13
-241.65
-244.91
-236.4
-220.11
-201.76
-187.58
-182.71
-189.69
-207.5
-231.51
-254.72
-269.78
-271.04
-256.05
-225.74
-183.58
-134.28
-82.56
-32.34
13.42
52.7
84.55
109.18
128.25
144.7
162.07
183.18
208.77
236.74
262.53
280.66
286.69
278.85
258.49
229.34
195.91
161.95
129.58
99.22
70.16
41.39
12.28
-16.95
-45.16
-70.74
-92.25
-109.25
-122.61
-134.19
-145.89
-158.69
-172.17
-184.77
-194.61
-200.18
-200.88
-197.04
-189.89
-181.38
-174.09
-170.89
-174.32
-185.69
-204.3
-227.17
-249.57
-266.02
-271.84
-264.36
-243.79
-213.08
-177.11
-141.1
-109.09
-83.1
-63.02
-47.51
-34.93
-24.04
-14.07
-4.41
5.61
16.8
29.75
44.62
61.05
78.31
95.62
112.22
127.22
139.32
146.92
148.5
143.49
132.78
118.87
105.17
94.93
90.22
91.36
97.19
105.68
114.7
122.63
128.5
131.94
133
132.28
131.01
131.18
135.2
145.12
161.68
183.65
208.07
231.28
250.45
264.68
275.02
283.19
290
294.07
292.12
280.35
256.46
220.98
177.22
129.92
83.53
40.76
2.32
-32.64
-65.63
-98.37
-132.61
-169.73
-210.01
-251.48
-289.37
-316.87
-327.46
-317.64
-288.91
-247.54
-202.29
-161.26
-129.53
-108.48
-96.85
-92.55
-93.73
-99.05
-107.08
-115.97
-123.61
-128.3
-129.42
-127.54
-124.01
-120.32
-117.55
-116
-115.41
-115.09
-114.25
-112.21
-108.47
-102.78
-95.08
-85.39
-73.84
-60.69
-46.34
-31.43
-16.76
-3.28
8.15
16.93
22.89
26.38
28.14
29.11
30.17
31.92
34.63
38.24
42.45
46.88
51.13
54.9
57.97
60.26
61.8
62.63
62.79
62.25
60.98
59.02
56.47
53.56
50.54
47.67
45.11
42.89
40.86
38.77
36.3
33.19
29.38
25.01
20.41
15.94
11.83
8.12
4.68
1.29
-2.2
-5.91
-9.9
-14.25
-19.1
-24.53
-30.39
-36.18
-41
-43.77
-43.49
-39.66
-32.43
-22.62
-11.5
-0.41
9.5
17.42
22.99
26.14
27.1
26.29
24.31
21.76
19.15
16.76
14.58
12.42
9.94
6.85
3
-1.58
-6.5
-11.12
-14.69
-16.68
-17.09
-16.78
-17.21
-19.86
-25.56
-33.87
-43.19
-51.33
-56.45
-57.78
-55.73
-51.51
-46.35
-40.93
-35.18
-28.48
-20.28
-10.46
0.51
11.7
22.09
30.9
37.68
42.35
45.16
46.55
47.16
47.9
49.8
53.97
61.18
71.6
84.67
99.12
113.4
126.03
135.95
142.68
146.29
147.22
146.02
143.21
139.17
134.18
128.69
123.46
119.52
117.91
119.16
122.95
128.08
132.92
136.02
136.62
134.81
131.15
126.23
120.27
113.12
104.59
94.76
84.12
73.48
63.66
55.1
47.79
41.2
34.52
26.99
18.09
7.84
-3.22
-14.16
-23.92
-31.61
-36.85
-39.79
-41.02
-41.33
-41.34
-41.35
-41.27
-40.75
-39.45
-37.21
-34.19
-30.67
-26.85
-22.72
-18
-12.54
-6.5
-0.57
4.3
7.25
7.97
6.89
5.01
3.51
3.22
4.45
6.91
9.95
12.79
14.67
14.96
13.23
9.35
3.54
-3.61
-11.26
-18.57
-24.89
-29.94
-33.82
-36.87
-39.46
-41.93
-44.5
-47.25
-50.17
-53.13
-55.9
-58.25
-60.06
-61.39
-62.53
-63.83
-65.58
-67.82
-70.3
-72.47
-73.62
-73.05
-70.13
-64.49
-56.14
-45.5
-33.36
-20.76
-8.69
2.1
11.25
18.74
24.8
29.74
33.89
37.54
40.98
44.49
48.32
52.6
57.22
61.82
65.76
68.34
69.02
67.64
64.55
60.43
56.03
51.99
48.59
45.74
43.11
40.17
36.42
31.55
25.55
18.86
12.22
6.42
2
-0.99
-3
-4.63
-6.33
-8.15
-9.76
-10.72
-10.79
-10.04
-8.79
-7.46
-6.41
-5.87
-6.05
-7.03
-8.76
-10.86
-12.65
-13.24
-11.81
-7.89
-1.63
6.24
14.55
22.01
27.42
30.08
29.94
27.65
24.43
21.6
20.11
20.14
21.09
21.9
21.66
20.12
17.85
15.93
15.33
16.42
18.66
20.85
21.58
19.87
15.46
8.96
1.47
-5.85
-12.33
-18.1
-24.09
-31.73
-42.51
-57.35
-76.12
-97.04
-116.49
-129.47
-130.73
-116.7
-87.2
-46.27
-1.43
38.49
66.23
78.13
74.75
59.7
37.74
13
-11.68
-34.5
-54.11
-69.35
-79.52
-84.85
-86.79
-87.55
-89.19
-92.67
-97.3
-101.13
-101.72
-97.25
-87.16
-72.32
-54.58
-36.19
-19.15
-4.83
6.16
13.86
18.64
20.98
21.29
19.89
17.07
13.33
9.36
6
3.88
3.18
3.49
3.98
3.72
2.11
-0.9
-4.84
-8.96
-12.53
-15.09
-16.55
-17.16
-17.39
-17.8
-18.87
-20.92
-24.02
-27.98
-32.36
-36.64
-40.44
-43.54
-45.82
-47.21
-47.4
-45.91
-42.12
-35.56
-26.14
-14.28
-0.96
12.52
24.74
34.56
41.3
44.86
45.72
44.79
43.14
41.8
41.47
42.45
44.63
47.57
50.61
53.12
54.81
55.97
57.51
60.62
66.12
73.93
82.9
91.2
97.12
99.88
100.01
98.87
97.85
97.36
96.4
92.92
84.78
70.87
51.81
29.82
7.93
-11.05
-25.49
-35.21
-41.15
-44.73
-47.1
-48.94
-50.48
-51.8
-52.85
-53.48
-53.23
-51.32
-47.01
-39.9
-30.37
-19.68
-9.56
-1.62
3.03
4.13
2.07
-2.36
-8.31
-15.03
-21.93
-28.59
-34.69
-40.05
-44.61
-48.31
-51.09
-52.76
-53.15
-52.2
-50.1
-47.33
-44.55
-42.39
-41.29
-41.38
-42.53
-44.4
-46.56
-48.53
-49.84
-50.15
-49.3
-47.45
-45.08
-42.79
-41.06
-40.03
-39.45
-38.83
-37.79
-36.26
-34.65
-33.67
-34.03
-36.18
-40.01
-44.9
-49.82
-53.59
-55.04
-53.3
-47.88
-38.82
-26.75
-12.88
1.26
14.06
24.25
31.2
34.98
36.21
35.74
34.34
32.5
30.49
28.46
26.69
25.47
25.07
25.56
26.65
27.84
28.65
28.76
28.17
27.11
25.79
24.26
22.35
19.83
16.51
12.5
8.15
3.95
0.28
-2.78
-5.47
-8.16
-11.13
-14.32
-17.36
-19.84
-21.55
-22.73
-24
-26.12
-29.62
-34.68
-41.01
-48.01
-54.81
-60.35
-63.54
-63.47
-59.64
-52.23
-42.15
-30.8
-19.68
-9.93
-2.04
4.1
8.98
13.09
16.67
19.65
21.72
22.62
22.28
20.91
18.94
16.77
14.63
12.56
10.48
8.43
6.66
5.57
5.45
6.22
7.3
7.84
6.94
4.11
-0.55
-6.38
-12.36
-17.5
-21.17
-23.38
-24.85
-26.77
-30.39
-36.45
-44.82
-54.47
-63.85
-71.5
-76.71
-79.73
-81.58
-83.62
-86.97
-92.18
-98.96
-106.22
-112
-113.75
-108.75
-94.8
-71.15
-38.97
-1.47
36.96
71.87
100
119.85
131.65
136.68
136.62
132.98
127.12
120.31
113.92
109.33
107.49
108.68
112.19
116.45
119.5
119.59
115.76
108.24
98.37
88.07
79.07
72.16
66.87
61.79
55.18
45.81
33.3
18.15
1.26
-16.42
-34.16
-51.34
-67.25
-81.01
-91.66
-98.45
-101.1
-100
-96.01
-90.21
-83.63
-77.06
-71.09
-66.2
-62.86
-61.42
-61.85
-63.56
-65.38
-65.79
-63.41
-57.39
-47.77
-35.37
-21.55
-7.71
5.03
16.07
25.21
32.47
37.95
41.66
43.62
43.95
43.01
41.38
39.76
38.63
38.12
37.88
37.33
35.94
33.49
30.27
26.89
24.1
22.4
21.81
21.92
22.04
21.56
20.22
18.21
16.06
14.34
13.35
12.9
12.39
11.01
8.16
3.74
-1.79
-7.64
-13.04
-17.57
-21.35
-24.89
-28.83
-33.64
-39.5
-46.33
-53.76
-61.19
-67.74
-72.17
-73.16
-69.64
-61.3
-48.86
-33.96
-18.66
-4.82
6.4
14.65
20.14
23.39
24.91
25.14
24.61
23.93
23.75
24.6
26.69
29.84
33.59
37.38
40.74
43.39
45.21
46.19
46.34
45.71
44.31
42.16
39.32
35.82
31.76
27.23
22.29
17.01
11.45
5.67
-0.21
-6.06
-11.75
-17.24
-22.59
-27.95
-33.48
-39.25
-45.16
-51.01
-56.57
-61.7
-66.42
-70.95
-75.65
-80.91
-87.06
-94.18
-101.96
-109.63
-115.91
-119.18
-117.96
-111.34
-99.42
-83.42
-65.4
-47.62
-31.9
-19.15
-9.42
-2.15
3.35
7.67
11.2
14.38
17.82
22.34
28.82
37.83
49.39
62.91
77.34
91.36
103.75
113.54
120.1
123.12
122.59
118.74
112.08
103.4
93.65
83.86
74.89
67.23
60.88
55.46
50.4
45.22
39.72
34.01
28.35
22.95
17.89
13.06
8.28
3.44
-1.45
-6.26
-10.83
-15
-18.74
-22.16
-25.51
-29.16
-33.5
-38.75
-44.92
-51.62
-58.03
-62.98
-65.15
-63.42
-57.17
-46.64
-32.86
-17.51
-2.45
10.73
21.01
28.07
32.11
33.64
33.22
31.34
28.5
25.16
21.83
18.97
17
16.12
16.25
17.05
17.93
18.16
17.15
14.58
10.55
5.49
-0.01
-5.49
-10.77
-16.05
-21.74
-28.35
-36.17
-45.21
-55.19
-65.56
-75.7
-85.04
-93.29
-100.53
-107.34
-114.64
-123.34
-133.81
-145.27
-155.49
-161.01
-158.05
-143.68
-117.11
-80.37
-38.2
3.01
36.87
58.68
66.53
61.67
47.89
30.3
14.02
3
-0.69
3.03
12.5
24.95
37.27
46.72
51.5
51.02
45.94
37.77
28.39
19.5
12.24
7.06
3.86
2.21
1.64
1.83
2.6
3.95
5.81
8.04
10.36
12.4
13.82
14.37
13.97
12.64
10.65
8.32
6.05
4.21
3.04
2.58
2.62
2.89
3.08
3.06
2.85
2.59
2.41
2.27
1.89
0.91
-1.02
-4.07
-8.12
-12.88
-17.91
-22.84
-27.44
-31.65
-35.63
-39.69
-44.22
-49.48
-55.51
-61.91
-67.85
-72.22
-73.85
-71.83
-65.82
-56.15
-43.77
-30
-16.21
-3.58
7.15
15.72
22.25
27.1
30.68
33.3
35.17
36.4
37.06
37.33
37.44
37.68
38.29
39.36
40.75
42.12
43.02
43
41.75
39.14
35.31
30.71
26.1
22.39
20.4
20.5
22.4
25.26
27.97
29.74
30.42
30.49
30.64
31.25
32.05
32.2
30.81
27.43
22.42
16.79
11.83
8.6
7.69
9.09
12.25
16.27
19.96
22.19
22.18
19.9
16.17
12.47
10.47
11.3
15.22
21.44
28.6
35.21
40.14
42.87
43.42
42.1
39.36
35.7
31.6
27.64
24.43
22.49
22.14
23.32
25.58
28.18
30.43
31.85
32.41
32.46
32.49
32.82
33.45
34.04
34.05
33.05
30.91
27.87
24.43
21.14
18.41
16.36
14.9
13.7
12.43
10.77
8.57
5.83
2.68
-0.75
-4.35
-8.1
-12.06
-16.29
-20.83
-25.6
-30.48
-35.37
-40.33
-45.54
-51.25
-57.55
-64.09
-70.1
-74.39
-75.8
-73.53
-67.44
-58.16
-46.81
-34.72
-23.06
-12.7
-4.12
2.59
7.65
11.7
15.67
20.64
27.56
36.87
48.29
60.86
73.18
83.77
91.55
95.99
97.19
95.71
92.37
87.92
82.93
77.6
71.86
65.51
58.41
50.7
42.81
35.39
29
24.04
20.56
18.34
17.01
16.15
15.48
14.81
14.07
13.27
12.47
11.74
11
10.07
8.55
6.01
2.08
-3.42
-10.45
-18.81
-28.15
-38
-47.69
-56.38
-63.02
-66.64
-66.52
-62.3
-53.92
-41.4
-24.81
-4.34
19.21
44.11
67.74
87.07
99.59
104.04
100.82
91.67
79.02
65.26
52.26
41.31
33.23
28.45
26.97
28.3
31.45
35.19
38.25
39.73
39.25
37.01
33.52
29.5
25.56
22.08
19.19
16.76
14.58
12.52
10.61
9
7.98
7.68
7.99
8.48
8.47
7.32
4.72
0.84
-3.67
-7.89
-11.07
-12.83
-13.33
-13.19
-13.23
-14.25
-16.68
-20.51
-25.09
-29.32
-31.66
-30.68
-25.45
-15.92
-3.09
11.29
25.19
37.02
46
52.31
56.83
60.61
64.31
67.73
69.74
68.48
62.05
49.22
30.2
6.86
-17.53
-39.15
-54.54
-61.5
-59.44
-49.4
-33.65
-15.17
2.88
17.56
26.62
28.81
24.1
13.73
-0.08
-14.7
-27.76
-37.75
-44.25
-47.85
-49.71
-50.97
-52.31
-53.86
-55.33
-56.37
-56.75
-56.45
-55.54
-54.16
-52.39
-50.27
-47.74
-44.43
-39.66
-32.58
-22.52
-9.61
5.02
19.45
31.56
39.79
43.59
43.42
40.36
35.66
30.4
25.41
21.25
18.23
16.29
14.91
13.17
10.08
5.03
-1.89
-9.83
-17.51
-23.69
-27.64
-29.31
-29.18
-27.85
-25.64
-22.28
-17.1
-9.37
1.18
14.05
28.06
41.54
52.87
60.83
64.92
65.33
62.78
58.42
53.8
50.73
50.96
55.59
64.39
75.5
85.77
91.7
90.47
80.84
63.3
39.49
11.47
-18.84
-49.84
-80.04
-107.84
-131.51
-149.57
-161.14
-166.16
-165.33
-159.82
-150.78
-139.02
-124.83
-108.15
-89.14
-68.78
-49.09
-32.84
-22.78
-20.63
-26.64
-39.62
-57.54
-78.21
-99.48
-119.21
-135.06
-144.54
-145.61
-137.5
-121.26
-99.6
-75.76
-52.16
-29.63
-7.5
15.27
38.58
60.38
76.94
84.07
78.77
60.4
30.93
-5.59
-43.84
-78.06
-102.63
-112.91
-106.15
-82.54
-45.61
-1.42
43.15
82.34
112.77
133.56
145.53
149.98
147.97
140.15
127.05
109.37
88.05
64.29
39.84
17.23
0.01
-7.69
-2.37
17.17
48.68
86.44
122.79
150.7
166.11
169.03
162.94
152.75
142.47
133.66
125.26
114.94
100.91
83.14
63.67
45.63
31.77
23.44
20.48
21.91
26.8
34.74
45.37
57.58
68.86
75.47
73.69
61.35
38.91
9.35
-23.01
-54.26
-82.1
-106.1
-127.16
-146.27
-163.71
-178.81
-190.41
-197.47
-199.71
-197.67
-192.56
-185.91
-179.12
-173.33
-169.44
-168.01
-168.93
-171.08
-172.17
-169.23
-159.77
-143.04
-120.92
-97.58
-78.05
-66.21
-63.17
-66.86
-72.97
-76.91
-75.59
-68.37
-56.83
-43.58
-31.16
-21.21
-14.52
-11.34
-11.76
-15.82
-23.24
-33.13
-43.87
-53.47
-60.17
-62.97
-61.85
-57.72
-51.97
-46.02
-40.99
-37.54
-36.01
-36.32
-37.89
-39.37
-38.63
-33.2
-21.05
-1.49
24.45
54.13
84.07
110.95
132.23
146.47
153.11
152.38
145.12
132.87
117.71
101.9
87.35
75.19
65.87
59.34
55.36
53.28
51.77
48.69
41.37
27.36
5.22
-24.68
-59.82
-95.68
-126.22
-145.06
-147.04
-130.02
-95.98
-50.92
-3.07
39.87
73.26
96.6
112.71
125.55
137.97
150.75
162.98
173.39
181.27
186.61
189.46
189.43
185.77
177.93
166.49
153.41
141.41
132.88
128.92
128.91
130.94
132.54
131.54
126.47
116.56
101.5
81.25
56.25
27.78
-1.54
-27.89
-47.07
-55.95
-54.02
-43.97
-30.73
-19.26
-12.32
-9.34
-7.29
-3.04
4.38
12.9
18.61
18.27
11.41
0.74
-9.37
-15.39
-16.62
-15.5
-16.21
-22.34
-35.14
-53.22
-73.68
-93.88
-112.58
-129.98
-146.44
-161.21
-171.84
-174.79
-167.2
-148.59
-121.73
-91.96
-65.66
-48.26
-43.05
-50.74
-69.6
-95.82
-123.84
-147.02
-158.95
-155.42
-136.1
-105.34
-70.92
-41.43
-23.08
-17.73
-22.71
-32.5
-41.12
-43.98
-38.71
-25.18
-5.13
18.08
39.81
54.89
58.68
48.53
24.69
-9.47
-48.29
-85.39
-115.2
-134.29
-141.69
-138.73
-128.26
-113.62
-97.6
-81.61
-65.44
-47.53
-25.9
0.88
32.73
67.88
103.36
135.89
163.09
184.21
200.26
213.5
226.44
240.73
256.3
271.19
281.99
284.99
277.51
258.97
231.13
197.38
161.52
126.34
92.88
60.43
27.42
-7.35
-43.73
-79.83
-112.48
-138.28
-154.69
-160.82
-157.54
-146.97
-131.66
-113.93
-95.57
-78.06
-62.77
-51.06
-43.87
-41.23
-41.98
-44.02
-45.11
-43.71
-39.62
-33.84
-28.1
-24.03
-22.59
-23.79
-26.99
-31.25
-35.74
-40.02
-43.91
-47.35
-50.08
-51.48
-50.59
-46.44
-38.49
-27.06
-13.43
0.51
12.87
22.44
28.96
32.98
35.3
36.5
36.63
35.44
32.72
28.7
24.11
19.92
17.03
15.91
16.52
18.4
20.96
23.63
26
27.87
29.18
29.93
30.1
29.68
28.63
26.98
24.84
22.4
19.85
17.3
14.71
11.95
8.92
5.7
2.52
-0.36
-2.82
-5.07
-7.57
-10.81
-15.02
-20.03
-25.29
-30.17
-34.26
-37.62
-40.73
-44.2
-48.49
-53.62
-59.1
-64
-67.13
-67.3
-63.58
-55.54
-43.41
-28.09
-11.02
6.12
21.78
34.8
44.53
50.81
53.89
54.24
52.55
49.63
46.37
43.66
42.21
42.35
44.03
46.81
50.01
52.98
55.23
56.57
57.12
57.11
56.8
56.24
55.3
53.73
51.33
48.22
44.91
42.19
40.76
40.92
42.29
43.89
44.62
43.75
41.33
38.22
35.63
34.52
35.21
37.15
39.17
39.83
37.8
32.18
22.87
10.69
-2.69
-15.14
-24.86
-31.03
-34.26
-36.36
-39.48
-45.05
-52.9
-61.14
-66.85
-67.4
-61.67
-50.83
-38.05
-27.46
-22.46
-24.23
-31.12
-39.29
-44.46
-43.95
-38.08
-30.17
-25
-26.51
-35.67
-49.71
-63.18
-70.17
-67.09
-54.39
-36.64
-20.96
-14.43
-21.48
-42.15
-71.8
-102.19
-123.68
-127.87
-110.29
-72.15
-20.75
32.15
73.65
93.84
89.06
62.98
25
-13.3
-42.26
-57.08
-58.51
-51.47
-42.66
-38.17
-42.03
-55.77
-78.61
-108.08
-140.48
-171.52
-197.01
-213.56
-219.2
-213.82
-198.99
-177.5
-152.65
-127.44
-103.92
-82.86
-63.85
-45.62
-26.83
-6.63
15.05
37.7
60.65
83.3
105.06
124.88
141.05
151.29
153.49
146.37
129.86
105.02
73.7
38.63
3.83
-25.2
-41.97
-40.36
-16.78
27.99
87.96
152.77
210.05
248.72
262.07
249.85
218.56
179.44
144.63
122.91
116.55
120.96
127.13
125.83
111.4
83.59
46.79
7.72
-27.12
-53.16
-68.19
-71.93
-65.59
-51.26
-31.83
-10.59
9.09
24.19
32.23
31.27
19.88
-2.65
-35.83
-77.32
-122.65
-165.54
-199.2
-218.17
-219.88
-205.36
-178.7
-145.6
-111.73
-81.46
-57.39
-40.54
-30.92
-27.89
-30.3
-36.32
-43.46
-48.96
-50.56
-47.14
-39.05
-27.75
-14.98
-2.07
10.2
21.16
29.48
32.77
28.11
13.13
-12.68
-47.15
-85.56
-121.56
-148.52
-160.89
-155.46
-132.08
-94.04
-47.51
-0.3
40.09
68.24
81.89
81.94
71.46
54.35
34.18
13.62
-5.56
-22.32
-36.07
-46.6
-54.02
-58.83
-61.84
-64.02
-66.2
-68.97
-72.49
-76.53
-80.59
-83.94
-85.71
-84.96
-80.89
-73
-61.34
-46.56
-29.72
-12.05
5.29
21.35
35.41
46.87
55.34
60.69
63.2
63.57
62.8
62.02
62.29
64.58
69.59
77.58
87.94
98.86
107.38
110.23
104.89
90.84
70
46.04
23.13
4.58
-7.67
-12.55
-9.12
3.62
25.92
55.91
88.97
118.54
138.45
145.39
140.38
127.95
113.79
102.16
94.45
89.36
84.33
76.95
65.65
49.69
28.75
2.96
-26.49
-56.76
-83.31
-100.79
-104.68
-93.07
-67.62
-33.38
2.51
32.94
52.67
59.41
53.96
39.37
19.75
-0.86
-19.27
-33.45
-42.55
-46.74
-46.92
-44.25
-39.92
-34.81
-29.41
-23.85
-18.04
-11.74
-4.78
2.91
11.14
19.42
27.04
33.14
37.05
38.48
37.78
35.86
33.98
33.29
34.42
37.19
40.66
43.53
44.69
43.88
41.87
40.33
41.07
45.2
52.46
61.31
69.46
74.88
76.59
75.08
72.01
69.62
70.03
74.64
83.69
95.95
108.64
117.85
119.57
111.21
93.21
69.48
46.74
32.37
31.68
45.94
71.71
102.19
129.62
147.85
153.81
147.69
131.98
110.28
86.49
64.6
48.65
42.43
48.76
68.3
98.89
135.6
171.67
200.1
215.25
213.98
196.22
164.83
124.83
82.16
42.22
8.62
-17.1
-35.03
-45.77
-49.65
-46.67
-37.14
-22.51
-5.66
9.67
19.98
23.02
18.01
5.24
-14.6
-40.78
-72.33
-107.6
-144.03
-178.43
-207.71
-229.72
-243.96
-251.56
-254.87
-256.57
-258.82
-262.53
-267.2
-271.24
-272.73
-270.09
-262.48
-249.94
-232.98
-212.27
-188.51
-162.5
-135.4
-108.76
-84.31
-63.53
-47.28
-35.56
-27.75
-22.81
-19.64
-17.32
-15.03
-12.15
-8.08
-2.46
4.71
13.06
21.9
30.51
38.41
45.55
52.26
58.98
65.96
73.09
79.88
85.6
89.65
91.72
91.91
90.62
88.42
85.79
83.14
80.71
78.63
76.96
75.69
74.6
73.29
71.2
67.9
63.34
58.07
53.1
49.49
47.96
48.51
50.55
53.14
55.36
56.54
56.33
54.64
51.54
47.4
43.08
39.93
39.5
42.76
49.27
56.79
61.58
59.72
48.96
30.19
8.03
-10.54
-18.54
-11.91
8.64
37.66
66.87
88.03
95.73
88.74
69.82
44.35
18.56
-2.09
-13.98
-15.91
-9.41
1.66
12.1
17.13
14.4
5.28
-5.36
-11.07
-6.64
9.69
35.42
64.95
91.89
111.53
122.21
125.25
123.67
120.71
118.7
118.62
120.32
122.73
124.16
122.39
115.05
99.99
76.04
43.3
3.19
-42.16
-90.34
-138.93
-185.17
-225.57
-255.88
-272.14
-272.17
-256.96
-230.73
-199.46
-168.76
-142.04
-120.19
-102.45
-87.99
-76.88
-69.97
-67.94
-70.36
-75.71
-82.15
-88.57
-95.08
-102.51
-111.32
-120.59
-127.8
-129.39
-122.01
-103.82
-75.1
-38.32
2.5
42.86
78.8
107.84
129.34
144.3
154.6
161.88
166.67
168.05
164.27
153.73
136.02
112.34
85.16
57.24
30.6
5.88
-17.85
-42.38
-69.5
-99.85
-132.38
-164.38
-192.36
-213.22
-225.45
-229.45
-227.07
-220.43
-210.78
-198.18
-181.98
-161.95
-139.04
-115.4
-93.3
-73.99
-57.1
-41.12
-24.78
-8.18
6.78
17.29
21.12
17.92
9.56
-0.75
-9.89
-16.09
-19.26
-20.4
-20.66
-20.55
-19.77
-17.72
-14
-8.86
-2.94
3.03
8.63
14
19.49
25.37
31.52
37.38
42.14
45.04
45.6
43.74
39.81
34.47
28.55
22.88
18.07
14.4
11.82
10.05
8.83
8.09
7.88
8.26
9.07
9.86
9.98
8.89
6.39
2.74
-1.49
-5.72
-9.58
-13.08
-16.49
-20.1
-24.08
-28.38
-32.86
-37.36
-41.72
-45.69
-48.77
-50.17
-48.91
-44.15
-35.61
-23.82
-10.11
3.71
15.91
25.32
31.58
35.18
37.17
38.69
40.62
43.43
47.12
51.51
56.46
61.9
67.89
74.38
81.25
88.34
95.73
103.79
113.07
123.91
136.02
148.44
159.8
168.76
174.36
176.04
173.34
165.57
151.86
131.5
104.7
73.26
40.54
10.72
-12.66
-27.98
-36.09
-39.8
-42.6
-46.94
-53.38
-60.61
-66.51
-69.49
-69.55
-68.28
-68.03
-70.61
-75.99
-81.87
-84.11
-78.1
-60.5
-30.85
7.72
49.16
86.13
112.13
123.2
118.59
100.47
73.15
42.44
15.02
-2.32
-4.1
11.96
43.51
83.38
121.44
147.67
155.34
142.71
112.72
71.06
24.25
-21.54
-60.57
-87.42
-97.79
-90.03
-66.58
-34.06
-1.27
23.97
37.55
39.95
34.71
25.54
13.81
-2.13
-25.61
-58.88
-100.83
-146.18
-186.81
-214.47
-223.81
-214.31
-190.33
-159.47
-129.96
-108.24
-97.68
-98.48
-108.68
-125.22
-144.79
-164.12
-180.14
-190.19
-192.47
-186.39
-172.81
-153.76
-131.97
-110.21
-90.73
-74.83
-62.62
-53.1
-44.48
-34.87
-23.06
-9.08
5.73
19.18
29.24
34.88
36.66
36.42
36.57
39.09
44.96
54
65.41
78.19
91.54
104.83
117.42
128.65
137.94
145.04
150.2
154.02
157.2
160.11
162.72
164.5
164.64
162.23
156.5
147.1
134.39
119.49
104.18
90.38
79.53
72.19
67.89
65.55
64.14
63.16
62.91
64.13
67.61
73.58
81.53
90.03
96.9
99.47
95.05
81.55
58.32
26.85
-8.65
-41.3
-62.51
-64.34
-42.29
2.16
61.02
121.53
170.15
197.1
199.62
182.36
155.05
128.68
111.8
108.63
118.95
139.26
164.21
187.84
204.76
211.15
205.69
189.61
165.86
137.7
107.27
74.96
39.94
1.16
-41.61
-87.57
-135.33
-183.66
-231.76
-279.2
-325.4
-369.36
-409.41
-443.22
-467.87
-480.17
-477.25
-457.48
-421.34
-371.88
-314.4
-255.37
-201.12
-156.66
-125.01
-107.02
-101.61
-106.19
-117.12
-130.3
-141.89
-148.89
-149.51
-143.24
-130.68
-113.21
-92.7
-71.23
-50.64
-32.26
-16.66
-3.78
6.93
16.01
23.73
30.02
34.56
37.25
38.33
38.53
38.77
39.88
42.23
45.59
49.31
52.5
54.52
55.08
54.41
53.03
51.56
50.52
50.26
50.9
52.39
54.55
57.07
59.56
61.72
63.4
64.7
65.94
67.39
69.09
70.75
71.72
71.33
69.25
65.75
61.86
59.13
59.09
62.62
69.38
77.75
85.24
89.46
89.05
84.39
77.51
71.46
69.1
71.91
79.19
88.07
94.33
93.75
83.71
64.36
39.05
13.74
-4.62
-10.16
-0.07
24.34
57.71
92.1
119.12
132.52
130
114.05
91.19
70.07
58.72
62.09
80.57
110.04
143.38
172.74
191.68
196.48
186.15
161.98
126.66
83.87
38.06
-5.8
-43.08
-70.73
-88.45
-98.8
-105.95
-113.47
-122.41
-130.74
-134.52
-130.02
-115.86
-93.65
-67.18
-40.61
-16.91
2.7
18.13
29.51
36.71
39.45
38.11
34.08
29.66
27.34
29.04
35.69
47.06
61.94
78.37
93.89
105.8
111.62
109.49
98.72
79.87
54.5
24.78
-6.61
-36.57
-61.64
-78.52
-85.25
-82.24
-72.75
-61.94
-54.71
-53.43
-56.79
-60.57
-59.84
-51.41
-35.3
-14.5
6.67
24.49
37.06
44.29
47.03
45.94
40.95
31.31
16.25
-4.13
-28.41
-53.94
-77.55
-96.48
-109.28
-115.88
-117.11
-114
-107.2
-97.05
-84.01
-69.16
-54.18
-41.1
-31.62
-26.76
-26.98
-32.57
-44.09
-62.11
-86.63
-116.15
-147.39
-175.99
-197.84
-210.62
-214.5
-211.64
-204.87
-196.19
-186.01
-173.59
-158.32
-140.69
-122.53
-106.03
-92.69
-82.84
-75.82
-70.81
-67.18
-64.38
-61.19
-55.42
-44.3
-25.88
-0.34
29.63
59.56
84.89
102.57
111.87
114.13
111.67
106.66
100.49
93.68
86.22
77.86
68.35
57.38
44.49
29.22
11.42
-8.29
-28.29
-46.13
-59.1
-65.01
-62.92
-53.57
-39.33
-23.58
-9.82
-0.82
2
-1.36
-9.89
-22.49
-38.63
-58.52
-82.42
-109.75
-138.42
-165.05
-185.88
-198.1
-200.55
-193.77
-179.26
-158.7
-133.5
-104.81
-73.88
-42.29
-11.92
15.52
38.83
57.67
72.5
84.21
93.87
102.33
110.04
117.01
122.75
126.64
128.15
127.16
124.07
119.68
114.76
109.81
104.88
99.65
93.8
87.37
80.9
75.24
71.27
69.4
69.39
70.39
71.23
70.82
68.55
64.53
59.46
54.43
50.45
48.14
47.58
48.49
50.39
52.75
55.07
56.73
56.97
54.96
50.02
41.94
31.18
18.82
6.2
-5.46
-15.47
-23.64
-30.14
-35.09
-38.34
-39.5
-38.18
-34.29
-28.13
-20.24
-11.16
-1.23
9.4
20.55
31.81
42.63
52.53
61.35
69.27
76.52
83.09
88.55
92.3
93.96
93.73
92.41
91.02
90.25
90.14
90.16
89.58
88.04
85.83
83.75
82.56
82.41
82.33
80.45
74.59
63.07
45.42
22.43
-4.15
-32.35
-60.65
-88.27
-115.2
-142.05
-169.53
-197.91
-226.32
-252.35
-272.24
-281.85
-278.03
-259.86
-229.12
-189.77
-146.72
-104.5
-66.51
-34.85
-10.72
5.45
13.98
16.09
13.9
10
6.72
5.55
7.03
10.86
16.33
22.66
29.08
34.96
39.7
42.88
44.3
44.06
42.4
39.62
35.83
31.03
25.2
18.49
11.26
3.97
-3.1
-9.93
-16.82
-24.13
-32.13
-40.81
-49.92
-59.14
-68.15
-76.78
-84.97
-92.75
-100.18
-107.37
-114.4
-121.28
-127.89
-133.88
-138.79
-142.11
-143.41
-142.37
-138.89
-133.03
-125.07
-115.61
-105.59
-96.25
-88.9
-84.48
-83.06
-83.56
-83.86
-81.24
-73.27
-58.52
-37.05
-10.3
19.37
49.43
77.8
103.12
124.74
142.46
156.29
166.44
173.2
176.98
178.12
176.83
173.25
167.67
160.73
153.47
146.89
141.51
136.98
132.27
126.28
118.54
109.45
100.02
91.17
83.12
75.41
67.34
58.62
49.56
40.92
33.23
26.5
20.22
13.74
6.86
0.1
-5.48
-8.82
-9.34
-7.31
-3.76
-0.13
2.11
1.79
-1.85
-9.14
-19.89
-33.35
-47.97
-61.53
-71.49
-75.78
-73.51
-65.3
-53.15
-39.57
-26.7
-15.65
-6.54
1.07
7.58
13.07
17.46
20.83
23.68
26.83
31.04
36.57
43.06
49.71
55.6
60.17
63.3
65.27
66.58
67.65
68.65
69.49
69.82
69.13
67
63.27
58.17
52.41
46.89
42.54
40.01
39.55
40.96
43.7
47.08
50.41
53.19
55.13
56.18
56.46
56.19
55.49
54.46
53.2
51.77
50.37
49.23
48.51
48.28
48.47
48.9
49.45
50.11
50.88
51.82
52.85
53.84
54.59
55.02
55.18
55.28
55.58
56.29
57.49
59.1
60.91
62.65
64.1
65.11
65.69
65.9
65.79
65.31
64.25
62.35
59.41
55.44
50.65
45.29
39.51
33.18
26.09
18.09
9.44
1.02
-5.86
-9.82
-9.98
-6.3
0.36
8.7
17.55
26.31
35.09
44.39
54.62
65.84
77.76
90.02
102.27
113.86
123.31
128.07
125.06
111.92
88.36
56.49
19.84
-18.47
-57.5
-98.7
-144.69
-197.03
-254.53
-312.89
-365.95
-407.65
-433.66
-442.03
-433.04
-408.56
-371.57
-325.92
-275.93
-225.88
-179.32
-138.21
-102.5
-70.26
-38.65
-5.46
29.48
63.68
92.62
111.56
117.52
110.62
94.1
72.95
52.18
35.33
24.14
18.83
18.86
23.33
31.07
40.45
49.56
56.58
60.43
61.03
59.21
56.21
53.15
50.57
48.43
46.24
43.51
40.01
35.85
31.55
27.67
24.56
22.03
19.19
14.67
7.06
-4.4
-19.42
-36.51
-53.55
-68.56
-80.42
-89.16
-95.56
-100.55
-104.55
-107.36
-108.53
-107.93
-106.22
-104.85
-105.61
-109.87
-118.06
-129.38
-141.94
-153.22
-160.75
-162.7
-158.32
-148
-132.91
-114.38
-93.2
-69.24
-41.51
-8.75
29.82
73.86
121.64
170.28
216.16
255.5
284.97
302.23
306.45
298.35
279.87
253.5
221.53
185.69
147.31
107.8
68.88
32.58
0.6
-26.36
-48.94
-68.91
-88.62
-110.39
-135.65
-164.1
-192.89
-216.7
-229.11
-225.12
-203.75
-169.09
-128.97
-91.86
-63.41
-44.75
-33.24
-25.08
-17.87
-11.72
-8.26
-8.77
-12.69
-17.72
-21.14
-21.44
-19.18
-16.47
-15.99
-19.55
-27.26
-37.59
-47.96
-55.74
-59.08
-57.4
-51.35
-42.4
-32.25
-22.32
-13.35
-5.4
1.93
9.16
16.46
23.59
29.93
34.87
38.19
40.24
41.79
43.68
46.44
50.03
53.96
57.6
60.46
62.42
63.72
64.65
65.4
65.83
65.55
64.08
61.12
56.76
51.45
45.85
40.6
36.09
32.34
29.08
25.82
22.07
17.47
11.82
5.14
-2.35
-10.34
-18.39
-26.11
-33.17
-39.37
-44.63
-49.13
-53.14
-57.12
-61.46
-66.33
-71.47
-76.08
-78.95
-78.75
-74.46
-65.71
-52.96
-37.41
-20.71
-4.54
9.78
21.5
30.46
37.01
41.75
45.33
48.26
50.93
53.56
56.3
59.31
62.67
66.38
70.27
74.02
77.25
79.7
81.26
82.01
82.06
81.49
80.18
77.94
74.6
70.14
64.78
58.82
52.64
46.54
40.69
35.18
29.99
25.01
20
14.72
8.87
2.39
-4.53
-11.53
-18.13
-24.04
-29.24
-34
-38.79
-44.03
-50.03
-56.77
-63.96
-70.91
-76.61
-79.83
-79.35
-74.3
-64.48
-50.51
-33.69
-15.75
1.71
17.51
31.09
42.46
51.95
60.06
67.26
74.01
80.72
87.84
95.72
104.57
114.38
124.93
136.04
147.66
160.02
173.48
188.37
204.61
221.63
238.3
253.21
264.94
272.46
275.32
273.68
268.27
260.15
250.37
239.54
227.55
213.42
195.51
172.13
142
104.73
60.88
12.01
-39.45
-90.36
-137.24
-176.81
-206.83
-226.7
-237.68
-242.42
-243.95
-244.83
-246.49
-249.28
-252.72
-255.93
-257.79
-257.07
-252.61
-243.66
-230.33
-213.65
-195.36
-177.19
-160.39
-145.38
-131.87
-119.4
-107.63
-96.57
-86.45
-77.39
-69.33
-61.95
-54.91
-47.97
-41.14
-34.53
-28.25
-22.32
-16.67
-11.22
-6.02
-1.26
2.8
5.88
7.8
8.47
7.85
5.96
2.89
-1.2
-6.05
-11.3
-16.56
-21.47
-25.77
-29.37
-32.38
-35.08
-37.86
-41.05
-44.88
-49.3
-54.07
-58.82
-63.15
-66.83
-69.89
-72.65
-75.62
-79.31
-83.97
-89.35
-94.59
-98.33
-98.96
-95.09
-85.96
-71.71
-53.44
-32.95
-12.28
6.79
22.97
35.6
44.54
49.88
51.88
50.95
47.72
43.21
38.58
35.03
33.39
33.94
36.37
40.02
44.14
48.12
51.63
54.51
56.66
57.9
58.07
56.99
54.72
51.54
47.88
44.16
40.59
37.15
33.68
29.99
26.07
22.11
18.5
15.64
13.76
12.8
12.29
11.42
9.23
4.82
-2.34
-12.17
-23.84
-35.82
-46.2
-53.11
-55.2
-52
-44
-32.49
-19.17
-5.79
6.22
15.94
22.9
27.06
28.77
28.65
27.54
26.3
25.67
26.06
27.49
29.65
32.07
34.31
36.15
37.55
38.64
39.47
40
40.01
39.22
37.43
34.58
30.83
26.52
22
17.55
13.29
9.12
4.84
0.23
-4.86
-10.44
-16.37
-22.47
-28.55
-34.48
-40.22
-45.79
-51.33
-57.01
-63
-69.27
-75.42
-80.51
-83.2
-82.04
-75.95
-64.69
-49.12
-31.04
-12.74
3.65
16.67
25.9
31.81
35.4
37.82
39.9
42.05
44.29
46.45
48.45
50.36
52.37
54.77
57.8
61.69
66.63
72.67
79.57
86.64
92.75
96.67
97.61
95.67
91.92
88
85.41
84.86
86.12
88.29
90.49
92.39
94.54
98.11
104.35
113.93
126.46
140.41
153.4
162.97
167.42
166.42
161.21
154.11
147.7
144
144.06
148.06
155.73
166.52
179.53
193.21
205.32
213.36
215.42
210.97
201.11
188.01
173.93
160.28
147.16
133.82
119.31
103.23
85.97
68.57
52.21
37.66
24.97
13.51
2.13
-10.5
-25.78
-45.02
-69.26
-98.93
-133.28
-169.91
-204.9
-233.61
-252.19
-259.14
-256.03
-246.88
-236.52
-228.67
-224.64
-223.51
-223.51
-223.47
-223.71
-225.8
-231.64
-242.11
-256.23
-271.12
-282.84
-287.92
-284.57
-273.26
-256.22
-236.19
-215.02
-193.11
-169.77
-144.48
-118.1
-93.15
-72.83
-59.27
-51.99
-47.55
-41
-28.21
-8.04
16.98
41.86
61.29
72.16
74.7
72.03
68.32
66.69
67.92
70.62
72.48
71.82
68.35
63.04
57.28
51.98
47.29
42.89
38.47
34.13
30.29
27.31
25.28
23.73
21.9
18.98
14.49
8.49
1.54
-5.53
-11.88
-17
-20.85
-23.78
-26.28
-28.63
-30.64
-31.71
-31.06
-28.2
-23.1
-16.3
-8.66
-1.06
5.87
11.77
16.5
19.92
21.93
22.45
21.59
19.71
17.35
15.16
13.58
12.84
12.84
13.34
14.1
14.97
15.97
17.15
18.56
20.07
21.43
22.29
22.36
21.47
19.69
17.33
14.81
12.51
10.65
9.22
7.98
6.59
4.73
2.26
-0.79
-4.2
-7.74
-11.17
-14.36
-17.27
-19.99
-22.68
-25.55
-28.85
-32.7
-37.07
-41.61
-45.63
-48.23
-48.53
-45.97
-40.55
-32.89
-24.03
-15.08
-6.94
-0.05
5.56
10.03
13.57
16.26
18.14
19.29
19.89
20.19
20.47
20.92
21.61
22.5
23.46
24.4
25.19
25.8
26.19
26.35
26.26
25.88
25.14
23.98
22.35
20.3
17.96
15.51
13.14
10.97
9
7.14
5.23
3.08
0.56
-2.33
-5.53
-8.86
-12.1
-15.04
-17.61
-19.82
-21.93
-24.23
-27.07
-30.66
-35.01
-39.81
-44.47
-48.16
-49.97
-49.2
-45.5
-39.04
-30.55
-21.05
-11.64
-3.15
3.97
9.71
14.27
17.93
20.91
23.34
25.26
26.72
27.82
28.63
29.23
29.66
29.93
30.1
30.23
30.43
30.72
31.06
31.28
31.14
30.41
28.98
26.93
24.48
22.01
19.85
18.23
17.2
16.55
15.97
15.11
13.76
11.92
9.77
7.58
5.53
3.66
1.82
-0.17
-2.47
-5.1
-7.99
-10.98
-13.95
-16.86
-19.74
-22.65
-25.64
-28.83
-32.27
-36.02
-39.99
-43.92
-47.24
-49.22
-49.07
-46.22
-40.61
-32.77
-23.66
-14.44
-6.05
0.98
6.6
11.1
14.86
18.11
20.91
23.14
24.69
25.67
26.32
26.97
27.86
29
30.18
31.17
31.8
32.11
32.29
32.49
32.77
32.93
32.73
31.93
30.47
28.49
26.24
23.99
21.93
20.09
18.46
16.9
15.3
13.54
11.56
9.41
7.2
5.11
3.27
1.69
0.22
-1.39
-3.39
-5.91
-8.82
-11.8
-14.51
-16.68
-18.32
-19.65
-21.06
-22.92
-25.49
-28.82
-32.7
-36.68
-40.1
-42.1
-41.87
-38.81
-32.7
-23.89
-13.2
-1.72
9.45
19.49
27.98
34.87
40.38
44.87
48.74
52.36
56.06
60.09
64.61
69.62
74.93
80.17
84.92
88.89
92.15
95.18
98.75
103.69
110.56
119.49
130.19
142.19
155.14
168.92
183.65
199.34
215.59
231.44
245.43
256.02
261.99
262.69
258.1
248.62
234.88
217.55
197.39
175.21
152.03
128.88
106.77
86.36
67.91
51.33
36.35
22.71
10.19
-1.39
-12.2
-22.4
-31.98
-40.77
-48.51
-55.13
-60.95
-66.86
-74.2
-84.36
-98.41
-116.58
-137.92
-160.01
-179.09
-190.7
-190.88
-177.63
-151.97
-117.97
-81.56
-48.72
-23.69
-8.14
-1.41
-1.62
-6.66
-14.87
-25.05
-36.24
-47.57
-58.36
-68.19
-76.78
-83.7
-87.95
-88.02
-82.4
-70.38
-52.69
-31.7
-10.87
6.29
17.17
20.7
17.42
9.07
-1.93
-13.12
-22.38
-28.35
-30.68
-30.25
-29.01
-29.63
-34.67
-45.74
-62.89
-84.4
-107.26
-128.31
-145.56
-159.06
-171.2
-186.14
-208.28
-240.51
-282.58
-330.4
-376.74
-413.13
-432.35
-430.49
-407.89
-368.46
-318.02
-262.39
-206.26
-152.88
-104.62
-63.45
-30.96
-7.81
6.79
15.08
20.02
24.08
28.39
32.61
35.48
35.86
33.57
29.52
25.24
22.11
20.71
20.64
20.87
20.32
18.33
14.92
10.62
6.17
2.25
-0.68
-2.43
-3.04
-2.74
-1.87
-0.93
-0.5
-1.09
-3.03
-6.38
-10.85
-15.89
-20.95
-25.6
-29.74
-33.62
-37.75
-42.73
-48.97
-56.47
-64.74
-72.79
-79.33
-82.99
-82.58
-77.43
-67.63
-54.14
-38.64
-23.15
-9.5
1.21
8.75
13.62
16.6
18.32
19.07
18.97
18.25
17.41
17.16
18.07
20.29
23.45
26.87
29.89
32.2
33.88
35.18
36.28
37.13
37.48
37
35.58
33.29
30.46
27.44
24.48
21.67
18.97
16.21
13.18
9.71
5.66
1
-4.11
-9.39
-14.49
-19.09
-23.17
-26.96
-31
-35.92
-42.19
-49.83
-58.27
-66.33
-72.43
-74.98
-72.72
-65.12
-52.59
-36.38
-18.26
-0.09
16.64
31.04
42.84
52.21
59.49
64.99
68.96
71.66
73.38
74.56
75.61
76.79
78.16
79.56
80.77
81.66
82.2
82.45
82.5
82.33
81.84
80.88
79.3
77.01
73.97
70.2
65.8
60.97
56
51.22
46.85
42.89
39.04
34.84
29.84
23.82
16.88
9.48
2.15
-4.64
-10.69
-16.08
-21.12
-26.18
-31.61
-37.71
-44.67
-52.4
-60.38
-67.54
-72.35
-73.19
-68.93
-59.34
-45.28
-28.42
-10.72
6.11
21.01
33.6
43.92
52.15
58.46
62.94
65.72
67.14
67.7
67.96
68.44
69.41
70.86
72.57
74.28
75.78
76.97
77.86
78.42
78.58
78.17
77
74.98
72.12
68.54
64.4
59.85
54.99
49.93
44.78
39.71
34.86
30.28
25.9
21.46
16.67
11.35
5.5
-0.59
-6.44
-11.54
-15.6
-18.66
-21.1
-23.53
-26.64
-30.9
-36.48
-43.11
-49.99
-55.91
-59.4
-59.1
-54.13
-44.46
-30.93
-15.17
0.9
15.61
27.78
37
43.4
47.42
49.58
50.33
50.13
49.35
48.41
47.69
47.49
47.92
48.88
50.15
51.42
52.44
53.13
53.49
53.61
53.46
52.91
51.62
49.32
45.85
41.41
36.4
31.41
26.91
23.14
20.06
17.38
14.75
11.85
8.54
4.83
0.92
-2.94
-6.48
-9.5
-12.01
-14.19
-16.41
-19.14
-22.71
-27.19
-32.17
-36.79
-39.84
-40.1
-36.7
-29.42
-18.82
-6.07
7.31
19.87
30.5
38.63
44.15
47.31
48.55
48.36
47.24
45.6
43.81
42.07
40.46
38.9
37.21
35.3
33.21
31.18
29.52
28.41
27.77
27.28
26.49
24.99
22.62
19.51
16.06
12.86
10.52
9.53
10.13
12.16
15.04
17.91
19.83
20.11
18.46
15.02
10.26
4.74
-1.04
-6.82
-12.51
-18.16
-23.84
-29.56
-35.22
-40.52
-44.96
-47.86
-48.51
-46.34
-41.15
-33.21
-23.3
-12.53
-2.09
7.04
14.35
19.82
23.83
27.03
30
33.16
36.63
40.35
44.18
48.12
52.41
57.58
64.27
73.14
84.65
98.96
115.87
134.72
154.37
173.42
190.31
203.46
211.53
213.41
208.23
195.57
175.41
148.29
115.25
77.73
37.64
-2.57
-39.87
-70.9
-92.73
-103.64
-103.85
-95.45
-81.6
-65.3
-48.4
-31.45
-14.17
3.45
20.57
35.47
46.12
50.73
48.02
37.4
19
-5.71
-33.33
-58.51
-74.91
-77.23
-63.26
-34.85
2.87
43.59
82.32
116.74
147.02
174.24
198.88
219.96
235.5
243.68
243.74
236.15
222.19
203.21
180.29
154.14
125.53
95.37
64.76
34.76
6.07
-21.25
-47.83
-74.72
-102.72
-131.56
-159.32
-182.69
-198.08
-203.35
-199.22
-189.6
-180.29
-176.83
-182.36
-196.84
-217.71
-241.76
-266.77
-292.01
-317.52
-342.77
-365.66
-382.78
-390.61
-386.98
-372.04
-348.11
-318.54
-286.47
-253.86
-221.54
-189.6
-158.18
-127.85
-99.42
-73.57
-50.38
-29.28
-9.32
10.32
29.91
48.99
66.49
81.16
91.95
98.34
100.51
99.11
95.06
89.01
81.16
71.22
58.64
43
24.34
3.27
-19.1
-41.4
-62.32
-80.6
-95.03
-104.39
-107.64
-104.26
-94.59
-80.02
-62.65
-44.79
-28.36
-14.51
-3.68
4.11
8.77
10.03
7.56
1.53
-7.07
-16.29
-23.92
-28.39
-29.69
-29.7
-31.53
-38.31
-51.84
-71.71
-95.34
-118.62
-137
-146.36
-143.76
-127.96
-99.88
-62.73
-21.58
17.84
50.72
74.55
89.45
97.45
101.06
101.99
100.73
97.05
90.9
83
74.75
67.67
62.6
59.49
57.75
56.75
56.28
56.47
57.44
58.99
60.41
60.71
58.92
54.53
47.68
39.16
30.19
22.03
15.54
10.99
8.05
5.97
3.97
1.52
-1.48
-4.84
-8.25
-11.54
-14.72
-17.85
-20.98
-24.12
-27.28
-30.53
-33.91
-37.37
-40.58
-42.91
-43.57
-41.84
-37.33
-30.17
-20.97
-10.66
-0.27
9.37
17.76
24.71
30.27
34.57
37.7
39.64
40.35
39.87
38.42
36.38
34.22
32.3
30.77
29.54
28.3
26.71
24.55
21.75
18.42
14.77
11.02
7.4
4.08
1.13
-1.47
-3.8
-6.02
-8.22
-10.45
-12.65
-14.77
-16.79
-18.81
-21.05
-23.72
-27
-30.87
-35.18
-39.67
-44.06
-48.15
-51.89
-55.39
-58.86
-62.62
-66.92
-71.81
-77.07
-82.05
-85.76
-87.03
-84.83
-78.64
-68.66
-55.79
-41.41
-26.99
-13.71
-2.23
7.26
14.96
21.19
26.19
30.08
32.93
34.86
36.1
36.98
37.81
38.79
39.96
41.22
42.45
43.61
44.72
45.86
47.01
48.02
48.61
48.49
47.44
45.54
43.03
40.29
37.62
35.14
32.75
30.23
27.41
24.27
20.93
17.59
14.31
11
7.4
3.3
-1.37
-6.4
-11.43
-16.07
-20.11
-23.63
-26.94
-30.49
-34.71
-39.87
-46.01
-52.84
-59.72
-65.7
-69.57
-70.2
-66.8
-59.25
-48.17
-34.8
-20.65
-7.07
4.98
15.03
23
29.01
33.24
35.91
37.32
37.84
37.94
38.06
38.5
39.34
40.49
41.77
43
44.16
45.3
46.48
47.67
48.67
49.18
48.87
47.55
45.27
42.26
38.87
35.43
32.15
29.12
26.34
23.69
20.97
17.92
14.26
9.85
4.74
-0.69
-5.97
-10.71
-14.85
-18.79
-23.19
-28.76
-35.84
-44.2
-53.02
-61.06
-66.95
-69.5
-67.94
-62.05
-52.2
-39.31
-24.67
-9.72
4.25
16.29
25.93
33.13
38.14
41.34
43.11
43.78
43.66
43.08
42.35
41.75
41.48
41.61
42.09
42.86
43.77
44.73
45.58
46.18
46.38
46.05
45.09
43.5
41.29
38.5
35.24
31.62
27.82
24.01
20.28
16.63
12.94
9.1
5.02
0.71
-3.76
-8.24
-12.56
-16.58
-20.25
-23.58
-26.73
-30
-33.81
-38.57
-44.48
-51.34
-58.41
-64.44
-67.96
-67.65
-62.79
-53.52
-40.84
-26.28
-11.45
2.31
14.22
23.97
31.58
37.15
40.79
42.63
42.86
41.86
40.13
38.29
36.86
36.18
36.31
37.11
38.23
39.36
40.23
40.78
41.02
40.98
40.62
39.8
38.33
36.04
32.92
29.12
24.93
20.72
16.79
13.25
10.04
6.9
3.53
-0.25
-4.44
-8.84
-13.12
-17.07
-20.63
-23.93
-27.24
-30.86
-35.04
-39.99
-45.72
-51.98
-58.17
-63.21
-65.83
-64.83
-59.53
-50.01
-37.25
-22.78
-8.31
4.72
15.38
23.29
28.54
31.39
32.24
31.49
29.59
27.03
24.36
22.14
20.76
20.42
21.01
22.24
23.74
25.18
26.38
27.25
27.74
27.68
26.85
25.01
22.07
18.18
13.73
9.26
5.14
1.54
-1.74
-5.06
-8.77
-13.02
-17.65
-22.32
-26.64
-30.41
-33.61
-36.48
-39.46
-43
-47.47
-52.9
-58.86
-64.43
-68.3
-69.09
-65.75
-57.9
-46
-31.24
-15.28
0.18
13.76
24.68
32.72
38.13
41.42
43.12
43.63
43.28
42.35
41.18
40.16
39.67
39.89
40.77
42.09
43.52
44.79
45.78
46.44
46.81
46.8
46.26
44.98
42.77
39.58
35.56
31.06
26.54
22.4
18.84
15.82
13.05
10.16
6.83
2.96
-1.35
-5.82
-10.16
-14.2
-17.93
-21.53
-25.29
-29.55
-34.62
-40.65
-47.48
-54.52
-60.65
-64.48
-64.71
-60.54
-52.02
-40.07
-26.29
-12.4
0.14
10.42
18.14
23.45
26.7
28.33
28.73
28.26
27.29
26.21
25.4
25.15
25.59
26.6
27.88
29.04
29.76
29.92
29.58
28.92
28.08
27.09
25.81
24.08
21.74
18.8
15.39
11.81
8.34
5.22
2.48
0.02
-2.44
-5.17
-8.33
-11.89
-15.6
-19.16
-22.36
-25.2
-27.88
-30.74
-34.13
-38.28
-43.26
-48.82
-54.42
-59.16
-61.92
-61.63
-57.58
-49.72
-38.75
-25.95
-12.88
-0.88
9.12
16.71
21.89
24.84
25.89
25.38
23.75
21.53
19.29
17.53
16.6
16.64
17.54
19.04
20.78
22.42
23.65
24.27
24.17
23.32
21.71
19.35
16.32
12.75
8.86
4.96
1.34
-1.86
-4.71
-7.48
-10.48
-13.94
-17.86
-22.04
-26.14
-29.86
-33.08
-35.91
-38.65
-41.69
-45.45
-50.14
-55.62
-61.33
-66.26
-69.17
-68.93
-64.86
-56.98
-45.99
-33.08
-19.6
-6.73
4.7
14.16
21.45
26.5
29.45
30.65
30.6
29.99
29.47
29.51
30.2
31.24
32.13
32.39
31.86
30.73
29.49
28.65
28.5
29.05
30.08
31.07
31.35
30.06
26.44
20.19
11.9
3.16
-3.8
-6.99
-5.51
-0.04
7.54
14.97
20.65
24.23
26.51
28.84
32.45
38.08
46.04
56.46
69.48
85.16
103.2
122.71
142.26
160.41
176.28
190.02
202.58
215.09
228.01
240.58
250.99
257.09
257.32
251.24
239.59
223.78
205.29
185.28
164.54
143.63
123.03
103.12
84.06
65.82
48.27
31.34
15.15
-0.05
-13.86
-25.8
-35.37
-42.15
-46
-47.31
-47.22
-47.37
-49.49
-54.75
-63.26
-74.06
-85.63
-96.56
-106.18
-114.71
-123.03
-132.15
-142.58
-153.8
-164.2
-171.33
-172.75
-166.99
-154.56
-138.39
-123.44
-115.34
-118.55
-134.68
-161.64
-194.26
-225.87
-250.54
-264.75
-268.07
-262.77
-252.49
-240.94
-230.93
-224.19
-221.52
-222.97
-227.68
-233.96
-239.65
-243.09
-244.18
-244.79
-248.09
-256.82
-271.41
-289.02
-304.2
-310.99
-305.25
-286.21
-256.35
-220.06
-181.77
-144.68
-110.4
-79.38
-51.65
-27.05
-5.35
14.13
32.65
51.79
72.7
95.29
117.92
137.67
151.39
156.83
153.6
143.24
128.56
112.55
97.3
83.65
71.25
59.32
47.23
34.86
22.54
10.69
-0.49
-11.12
-21.37
-31.21
-40.09
-47.07
-51.14
-51.6
-48.33
-41.76
-32.72
-22.06
-10.56
1.12
12.42
22.8
31.84
39.29
45.11
49.52
52.86
55.5
57.81
60.03
62.36
64.91
67.66
70.57
73.52
76.44
79.28
81.95
84.41
86.56
88.34
89.7
90.67
91.31
91.67
91.82
91.82
91.71
91.57
91.38
91.08
90.54
89.6
88.2
86.47
84.74
83.4
82.68
82.56
82.71
82.58
81.61
79.41
75.79
70.79
64.57
57.29
49.17
40.45
31.47
22.65
14.56
7.84
3.2
1.3
2.54
6.93
13.92
22.51
31.45
39.58
46.15
50.9
53.93
55.6
56.23
56.05
55.23
53.97
52.6
51.54
51.21
51.97
53.95
57.04
60.89
64.98
68.82
72.06
74.52
76.06
76.51
75.6
73.04
68.81
63.23
57.1
51.38
46.84
43.78
41.9
40.58
39.15
37.12
34.35
30.96
27.28
23.67
20.45
17.8
15.56
13.36
10.6
6.79
1.78
-4.15
-10.41
-16.37
-21.64
-26.17
-30.06
-33.37
-35.88
-37.01
-35.94
-31.86
-24.19
-12.85
1.56
17.82
34.2
48.78
59.87
66.38
68.01
65.35
59.73
52.87
46.53
42.12
40.44
41.65
45.34
50.75
57.05
63.41
69.02
73.1
74.95
74.15
70.78
65.4
58.96
52.33
45.97
39.74
33
25.12
15.89
5.83
-3.84
-11.78
-17.1
-19.84
-21.14
-22.69
-25.93
-31.21
-37.31
-41.77
-41.75
-35.11
-21.13
-0.69
24.19
50.79
76.07
96.71
109.33
110.95
99.95
76.95
45.01
8.89
-26.38
-57.08
-81.53
-99.67
-112.12
-119.16
-120.52
-115.89
-105.91
-92.74
-79.8
-70.66
-67.68
-70.97
-78.32
-86.15
-90.86
-90.16
-83.72
-72.98
-60.26
-47.84
-37.24
-29.12
-23.49
-19.92
-17.6
-15.3
-11.59
-5.33
3.56
13.64
22.19
26.18
23.55
14.07
-0.72
-18.28
-36.26
-53.15
-68.31
-81.53
-92.63
-101.42
-108.18
-113.91
-120.24
-128.72
-139.95
-153.02
-165.71
-175.26
-179.45
-177.27
-169.07
-156.11
-139.9
-121.74
-102.49
-82.71
-62.86
-43.4
-24.79
-7.3
8.86
23.65
37
48.84
59.13
67.98
75.66
82.53
88.87
94.75
99.97
104.19
107.17
108.89
109.64
109.95
110.31
111.12
112.38
113.7
114.33
113.41
110.29
104.76
97.24
88.52
79.51
70.94
63.12
56.01
49.3
42.71
36.15
29.75
23.74
18.31
13.45
8.92
4.32
-0.79
-6.73
-13.66
-21.48
-29.92
-38.42
-46.17
-52.12
-55.18
-54.59
-50.21
-42.79
-33.79
-25.06
-18.21
-14.22
-13.23
-14.63
-17.34
-20.15
-21.99
-22.15
-20.34
-16.71
-11.84
-6.55
-1.74
1.85
3.84
4.35
3.93
3.4
3.47
4.35
5.62
6.33
5.52
2.72
-1.76
-7.02
-12.04
-16.21
-19.62
-22.83
-26.36
-30.2
-33.71
-35.91
-36.02
-33.87
-29.97
-25.23
-20.53
-16.54
-13.72
-12.43
-13
-15.55
-19.69
-24.31
-27.61
-27.68
-23.12
-13.72
-0.59
14.23
28.49
40.38
48.92
53.86
55.46
54.18
50.56
45.34
39.53
34.4
31.26
31.01
33.85
39.15
45.65
51.9
56.76
59.61
60.39
59.39
57
53.57
49.43
45
40.86
37.71
36.07
36.04
37.02
37.85
37.15
33.83
27.43
18.2
6.97
-5.31
-17.86
-30.19
-42.1
-53.56
-64.52
-74.89
-84.51
-93.09
-100.19
-105.23
-107.58
-106.86
-103.08
-96.74
-88.7
-79.89
-71.07
-62.74
-55.2
-48.69
-43.5
-39.83
-37.77
-37.06
-37.2
-37.5
-37.36
-36.39
-34.47
-31.75
-28.45
-24.9
-21.39
-18.3
-15.99
-14.67
-14.32
-14.64
-15.14
-15.38
-15.15
-14.58
-14.02
-13.82
-14.18
-15.04
-16.16
-17.32
-18.42
-19.55
-20.86
-22.49
-24.5
-26.89
-29.59
-32.48
-35.36
-37.8
-39.22
-38.85
-36.09
-30.65
-22.89
-13.67
-4.19
4.38
11.29
16.31
19.64
21.65
22.6
22.54
21.58
20.06
18.83
19.15
22.3
29.13
39.72
53.26
68.24
82.83
95.22
103.95
108.1
107.2
101.29
90.85
76.61
59.49
40.34
19.84
-1.6
-23.57
-45.35
-65.6
-82.27
-93.14
-96.69
-92.91
-83.51
-71.49
-59.99
-51.26
-46.16
-44.31
-44.88
-47.07
-50.28
-53.75
-56.24
-55.98
-51.25
-41.15
-26.05
-7.66
11.7
29.78
45.12
57.23
66.35
72.92
77.18
78.84
77.28
71.88
62.54
49.92
35.41
20.76
7.49
-3.53
-12.25
-19.28
-25.53
-31.79
-38.6
-46.15
-54.35
-62.88
-71.22
-78.69
-84.56
-88.4
-90.25
-90.84
-91.32
-92.77
-95.55
-98.86
-100.81
-98.98
-91.32
-77.06
-57.14
-33.99
-10.86
9.09
23.61
31.64
33.34
29.8
22.71
14.08
5.96
0.22
-1.83
0.41
6.75
16.37
28.16
40.94
53.68
65.52
75.78
83.87
89.46
92.47
93.07
91.61
88.52
84.18
78.98
73.36
67.81
62.89
58.98
56.13
53.98
51.89
49.17
45.37
40.43
34.69
28.73
23.15
18.31
14.23
10.58
6.78
2.19
-3.71
-11.1
-19.71
-28.95
-37.97
-45.95
-52.23
-56.38
-58.18
-57.46
-54.07
-47.92
-39.11
-28.18
-16.1
-4.22
6.09
13.79
18.38
20.07
19.51
17.64
15.33
13.2
11.52
10.27
9.29
8.48
7.95
8.08
9.31
11.91
15.67
19.82
23.24
24.79
23.75
20.02
14.11
6.84
-0.94
-8.6
-15.88
-22.81
-29.69
-36.84
-44.39
-51.97
-58.47
-62.02
-60.24
-50.93
-32.85
-6.4
26.12
60.88
93.37
119.44
136.24
142.69
139.39
128.18
111.45
91.63
70.76
50.4
31.56
14.62
-0.5
-14.26
-27.24
-39.8
-51.88
-62.94
-72.21
-79.08
-83.39
-85.6
-86.77
-88.23
-91.18
-96.21
-102.96
-110.04
-115.4
-116.9
-113.05
-103.49
-89.14
-71.76
-53.53
-36.35
-21.47
-9.47
-0.31
6.4
11.24
14.77
17.54
19.88
22.03
24.12
26.24
28.48
30.92
33.6
36.51
39.53
42.49
45.16
47.38
49.01
50.04
50.43
50.2
49.33
47.85
45.85
43.52
41.14
38.97
37.18
35.76
34.54
33.32
31.95
30.44
28.94
27.65
26.62
25.72
24.66
23.02
20.53
17.14
13.05
8.59
4.08
-0.31
-4.59
-8.87
-13.23
-17.67
-22.12
-26.43
-30.36
-33.51
-35.33
-35.16
-32.36
-26.61
-18.02
-7.21
4.83
17.01
28.37
38.28
46.43
52.78
57.41
60.46
62.1
62.58
62.25
61.56
60.99
60.94
61.62
62.91
64.41
65.51
65.62
64.28
61.4
57.23
52.25
46.98
41.78
36.79
31.92
27.05
22.12
17.25
12.67
8.64
5.28
2.56
0.33
-1.67
-3.64
-5.72
-7.88
-10.04
-12.03
-13.77
-15.28
-16.68
-18.16
-19.88
-21.93
-24.26
-26.77
-29.3
-31.75
-34.11
-36.46
-39.02
-42.02
-45.66
-49.95
-54.61
-58.92
-61.88
-62.36
-59.51
-53.07
-43.58
-32.22
-20.54
-9.91
-1.14
5.64
10.8
14.88
18.19
20.62
21.77
21.29
19.13
15.77
12.07
8.94
7.04
6.45
6.7
6.91
5.98
2.86
-3.18
-12.4
-24.15
-36.68
-47.3
-52.86
-50.78
-40.05
-21.87
0.6
23.18
41.96
54.38
59.57
58.06
51.03
39.82
25.68
9.86
-6.24
-21.11
-33.52
-42.82
-49.13
-53.27
-56.24
-58.81
-61.22
-63.11
-63.74
-62.38
-58.63
-52.63
-44.99
-36.65
-28.52
-21.34
-15.49
-10.98
-7.6
-4.88
-2.21
1.05
5.52
11.61
19.42
28.71
38.97
49.61
60.08
69.95
78.91
86.69
93.11
98.13
101.75
103.86
103.94
100.87
93.08
79.21
58.88
33.18
4.7
-23.28
-47.66
-66.39
-78.43
-83.36
-80.84
-70.44
-52.06
-26.61
3.42
34.22
61.53
81.91
93.61
96.78
92.99
84.32
72.55
58.82
43.79
28.02
12.37
-1.95
-13.7
-22.05
-26.99
-29.28
-30.14
-30.65
-31.35
-32.23
-32.9
-33.06
-32.78
-32.5
-32.78
-33.94
-35.87
-38.01
-39.7
-40.45
-40.23
-39.4
-38.45
-37.6
-36.5
-34.23
-29.63
-21.88
-11.02
1.95
15.27
27.09
36.14
42.1
45.5
47.25
48.21
48.82
49.23
49.49
49.7
49.86
49.43
47.21
41.54
31.06
15.5
-4.01
-25.28
-46.1
-65.07
-81.79
-96.14
-107.34
-113.43
-111.81
-100.58
-80.06
-53.21
-24.94
-0.41
16.69
24.97
25.13
19.05
8.73
-4.22
-18.53
-33.04
-46.46
-57.51
-65.39
-69.92
-71.78
-72.13
-72.26
-73.08
-74.82
-76.93
-78.3
-77.68
-74.13
-67.45
-58.25
-47.77
-37.41
-28.23
-20.66
-14.49
-9.17
-4.13
1.03
6.53
12.49
18.96
25.82
32.66
38.75
43.07
44.75
43.22
38.41
30.82
21.39
11.51
2.77
-3.21
-5.22
-2.85
3.3
11.73
20.49
27.79
32.53
34.42
33.88
31.68
28.64
25.41
22.44
20
18.16
16.93
16.19
15.84
15.82
16.22
17.23
19.12
22.17
26.61
32.51
39.73
47.84
56.15
63.88
70.45
75.73
80.08
84.2
88.78
93.99
99.3
103.51
105.29
103.76
98.91
91.52
82.74
73.44
63.93
53.91
42.97
31.02
18.5
6.3
-4.68
-13.92
-21.38
-27.36
-32.1
-35.5
-37.12
-36.44
-33.33
-28.31
-22.66
-18.06
-15.92
-16.76
-19.76
-23.02
-24.29
-21.92
-15.6
-6.49
3.3
11.5
16.5
17.52
14.56
7.85
-2.23
-15.34
-30.97
-48.25
-66.08
-83.19
-98.48
-111.06
-120.18
-125.1
-125.17
-120.01
-109.79
-95.31
-77.89
-58.98
-39.8
-21.26
-4.2
10.27
20.57
24.9
21.89
11.38
-5.07
-24.28
-42.23
-55.13
-60.41
-57.25
-46.64
-30.98
-13.45
2.74
15
21.93
23.56
21.19
16.76
12.09
8.22
5.22
2.48
-0.6
-4.18
-7.73
-10.29
-11.03
-9.55
-5.95
-0.62
6.1
14.1
23.44
34.19
46.26
59.36
73.08
86.94
100.32
112.32
121.58
126.29
124.56
115.08
97.85
74.72
49.32
26.41
10.7
5.55
12.03
28.65
51.76
76.49
97.91
111.97
116.13
109.51
92.73
67.41
35.67
-0.36
-38.88
-78.52
-118
-155.84
-189.92
-217.6
-236.09
-243.13
-237.66
-220.08
-192.2
-156.67
-116.44
-74.4
-33.15
5.11
38.6
65.92
86.04
98.31
102.51
99.06
89.06
74.32
56.93
38.73
20.71
3.03
-14.7
-32.72
-50.58
-67.16
-81.22
-92.09
-100.09
-106.25
-111.53
-115.92
-118.05
-115.58
-106.13
-88.57
-63.88
-35.19
-6.81
17.24
34.52
44.52
48.2
47
41.93
33.37
21.47
6.78
-9.39
-25.2
-39.01
-50
-58.41
-65.21
-71.27
-76.73
-80.82
-82.2
-79.55
-72.2
-60.67
-46.59
-32.36
-20.41
-12.46
-9.09
-9.59
-12.05
-13.81
-12.28
-5.8
5.54
19.84
34.03
45.07
51.38
53.47
53.66
54.88
59.15
66.68
75.83
84.12
89.43
91.03
89.58
86.62
83.7
81.94
81.74
83.12
86.08
90.69
97.07
104.93
113.25
120.42
124.61
124.42
119.35
109.99
97.71
84.15
70.69
58.08
46.48
35.55
24.75
13.59
1.77
-10.74
-23.8
-37.01
-49.8
-61.37
-70.9
-77.75
-81.73
-83.26
-83.18
-82.56
-82.33
-83.05
-84.84
-87.34
-89.83
-91.31
-90.75
-87.27
-80.54
-70.95
-59.53
-47.65
-36.66
-27.49
-20.54
-15.82
-13.17
-12.43
-13.57
-16.55
-21.16
-26.68
-31.87
-35.01
-34.39
-28.87
-18.47
-4.36
11.36
26.53
39.54
49.64
56.85
61.59
64.24
64.95
63.71
60.35
54.79
47.01
37.18
25.76
13.53
1.56
-9.03
-17.53
-23.87
-28.69
-33.04
-37.91
-43.77
-50.37
-56.76
-61.44
-62.81
-59.39
-50.36
-35.9
-17.46
2.41
20.54
33.98
40.81
40.69
34.84
25.52
15.36
6.67
1.02
-0.91
0.87
5.8
12.93
21.07
28.84
34.88
38.28
38.91
37.57
35.74
35.03
36.33
39.47
43.18
45.74
45.73
42.62
36.79
29.2
20.91
12.69
5.04
-1.75
-7.4
-11.75
-14.74
-16.51
-17.31
-17.43
-17.09
-16.45
-15.74
-15.17
-14.98
-15.37
-16.42
-18.27
-21.15
-25.33
-30.89
-37.44
-43.89
-48.65
-50.12
-47.27
-40.05
-29.41
-17.01
-4.59
6.47
15.4
21.95
26.28
28.68
29.57
29.46
28.97
28.73
29.25
30.75
33.06
35.68
38.03
39.7
40.66
41.41
42.64
45.08
49.09
54.49
60.6
66.53
71.46
74.95
77.11
78.58
80.26
82.99
87.09
92.16
97.05
100.22
100.2
96.27
88.93
79.87
71.39
65.37
62.45
61.69
60.96
58.05
51.71
42.37
32.03
23.51
19.25
20.52
27.08
37.34
48.99
59.57
66.97
69.98
68.62
64.22
59.12
56
57.01
63.22
74.34
88.9
104.79
119.7
131.44
138.22
138.95
133.71
124.09
113.06
104.1
99.99
101.58
107.52
114.81
120.13
121.05
116.72
107.6
94.69
78.84
60.44
39.69
17.12
-6.12
-28.4
-48.1
-64.15
-76.29
-85.01
-91.32
-96.44
-101.66
-108.07
-116.41
-126.7
-138.12
-149.11
-157.9
-163.24
-164.92
-164.04
-162.6
-162.77
-166.01
-172.56
-181.35
-190.48
-197.95
-202.36
-203.35
-201.62
-198.56
-195.87
-195.08
-197.24
-202.5
-209.81
-216.6
-219.01
-212.75
-194.49
-163.43
-121.96
-75.18
-29.19
10.8
41.9
63.67
77.31
84.61
87.09
85.77
81.3
74.11
64.8
54.53
45.34
40.09
41.79
52.21
70.7
93.65
115.33
129.92
133.76
126.63
111.47
92.8
74.63
59.02
45.92
33.99
21.91
9.32
-2.92
-13.25
-20.21
-23.37
-23.56
-22.57
-22.5
-24.89
-30.39
-38.68
-48.8
-59.55
-69.79
-78.78
-86.43
-93.53
-101.67
-112.97
-129.52
-152.58
-182.01
-215.81
-250.18
-280.07
-300.21
-306.31
-296.08
-269.79
-230.12
-181.38
-128.33
-75.17
-25
20.1
58.63
89.3
110.96
123.06
125.93
120.99
110.38
96.57
81.88
68.11
56.55
48.04
42.94
41.22
42.39
45.7
50.49
56.39
63.42
71.63
80.55
88.96
94.98
96.75
93.38
85.48
75
64.37
55.45
48.68
43.05
36.63
27.68
15.44
0.39
-16.1
-32.38
-47.05
-59.24
-68.58
-74.99
-78.59
-79.57
-78.32
-75.38
-71.58
-67.89
-65.3
-64.45
-65.39
-67.41
-69.12
-68.75
-64.41
-54.41
-37.61
-13.77
15.99
49.07
81.57
109.04
127.57
134.94
131.1
117.99
98.71
76.49
54.04
33.33
15.8
2.64
-5.27
-7.52
-4.55
2.33
11.19
19.9
26.74
30.79
32.02
31.19
29.43
27.78
26.91
26.93
27.48
28.08
28.36
28.27
28.06
28.09
28.64
29.72
31.15
32.6
33.86
34.9
35.91
37.1
38.61
40.3
41.74
42.4
42.03
40.95
40.24
41.48
46.26
55.64
69.82
88.11
109.33
131.94
154.35
174.79
191.35
201.94
204.68
198.29
182.62
158.72
128.79
95.62
62.01
30.08
0.87
-25.81
-50.98
-75.7
-100.2
-123.13
-141.48
-151.33
-149.01
-132.39
-101.65
-59.36
-10
40.8
87.01
122.84
143.68
147.13
134.14
109.54
81.18
57.78
46.06
48.38
62.07
80.59
96.11
102.08
95.08
75.09
44.79
7.97
-31.8
-72.13
-111.88
-150.46
-186.74
-218.21
-241.04
-251.22
-246.38
-227.34
-198.3
-165.68
-135.98
-113.99
-101.96
-100.08
-107.25
-121.46
-139.65
-157.36
-169.29
-170.68
-159.37
-136.87
-108
-78.77
-53.74
-34.35
-18.85
-4.09
12.12
29.29
44.24
52.52
50.59
37.41
14.94
-12.53
-39.81
-62.18
-76.25
-80.33
-74.26
-59.13
-37.19
-11.57
14.14
36.63
53.69
64.76
70.9
74.16
76.79
80.62
86.79
95.82
107.67
121.75
136.6
149.73
157.92
157.88
147.11
124.6
91.25
49.84
4.77
-38.75
-75.51
-101.39
-114.19
-114.23
-104.17
-88.07
-70.12
-53.54
-40.09
-30.35
-24.34
-22.13
-24.1
-30.78
-42.58
-59.45
-80.54
-103.96
-126.66
-144.74
-154.2
-151.96
-136.8
-109.96
-75.01
-36.99
-1.27
27.64
46.81
55.27
54.02
45.76
34.38
24.1
18.71
20.7
30.89
48.39
70.89
95.03
116.9
132.65
139.13
134.73
119.86
97.06
70.48
44.85
24.25
11.11
5.79
6.91
12.24
19.46
26.81
33.1
37.46
39.13
37.4
32.16
24.18
15.58
9.32
8.45
14.88
28.6
47.55
68.24
86.94
100.67
107.76
107.78
101.04
88.06
69.39
45.77
18.47
-10.29
-37.55
-60.13
-75.57
-82.95
-83.12
-78.4
-71.75
-65.89
-62.55
-62.29
-64.59
-68.36
-72.55
-76.43
-79.88
-83.13
-86.35
-89.36
-91.46
-91.71
-89.49
-84.92
-79.06
-73.53
-69.91
-69.02
-70.59
-73.46
-76.09
-77.17
-76.08
-72.94
-68.37
-62.99
-56.91
-49.57
-39.88
-26.69
-9.41
11.82
36.16
62.37
88.97
114.04
134.82
147.64
148.69
135.57
109.11
74.28
39.53
14.46
6.67
19.2
49.32
89.39
129.14
158.5
170.25
161.52
134.18
93.86
48.37
5.57
-28.34
-49.97
-58.84
-57.01
-48.15
-36.67
-27.16
-23.63
-28.96
-44.26
-68.46
-98.43
-129.7
-157.56
-178.24
-189.45
-190.34
-180.94
-161.6
-132.97
-96.47
-54.81
-12.2
26.29
55.93
73.66
78.95
73.71
61.5
46.31
31.64
19.87
12.19
8.77
8.81
10.77
12.52
11.6
5.53
-7.69
-28.89
-57.12
-89.34
-120.74
-146.05
-161.07
-164.05
-156.12
-140.57
-121.38
-101.76
-83.51
-67.25
-53.18
-41.63
-33.12
-27.82
-25.09
-23.51
-21.45
-17.88
-12.84
-7.35
-2.75
0.06
1.08
1.17
1.61
3.68
8.27
15.79
26.19
38.77
52.21
64.75
74.71
81.09
84.15
85.16
85.65
86.43
86.94
85.76
81.71
74.87
66.95
60.47
57.43
58.25
61.75
66.01
69.59
72.22
74.54
77.16
79.74
80.74
78.08
70.19
56.89
39.54
20.48
2.17
-13.56
-25.78
-34.47
-40.16
-43.67
-45.9
-47.61
-49.36
-51.19
-52.56
-52.38
-49.34
-42.46
-31.53
-17.36
-1.59
13.87
27.5
38.63
47.45
54.69
61.05
66.81
71.83
75.77
78.51
80.38
82.15
84.63
88.28
93.02
98.23
103.15
107.19
109.97
111.02
109.39
103.53
91.74
72.9
47.3
16.82
-15.62
-47.17
-75.87
-100.65
-120.6
-133.95
-137.84
-129.17
-106.09
-69.34
-22.36
29.78
82.01
130.37
172.31
206.16
230.58
244.5
247.68
241.48
228.79
213.28
197.84
183.47
169.1
152.47
131.32
104.37
71.75
35.02
-2.95
-38.03
-64.99
-78.49
-74.77
-53.49
-18.94
20.7
55.68
78.02
83.98
74.84
55.48
31.93
9.12
-10.31
-25.75
-37.84
-47.7
-56.82
-67.06
-80.53
-98.9
-122.02
-146.89
-167.71
-177.43
-170.4
-145.11
-105.65
-60.91
-21.69
3.11
9.5
-0.62
-21.01
-44.06
-63.82
-77.77
-86.71
-93.43
-101.04
-111.84
-126.68
-144.9
-164.27
-181.18
-191.24
-190.46
-176.72
-150.92
-117.07
-81.18
-49.29
-25.68
-11.94
-7.23
-9.22
-15.27
-23.11
-31.11
-38.45
-45.08
-51.78
-59.85
-70.39
-83.34
-96.86
-107.34
-110.46
-102.72
-82.79
-52.16
-14.76
24.22
59.73
88.02
107.25
117.47
120.19
117.75
112.67
107.07
102.32
98.98
96.94
95.6
94.07
91.27
86.11
77.77
66.13
52
37.2
24.02
14.57
9.95
9.95
13.24
18
22.85
27.36
32.15
38.38
47
58.04
70.49
82.55
92.45
99.23
103.21
105.95
109.57
115.71
124.69
135.11
144.17
148.67
146.06
135.15
116.46
91.91
64.31
37.08
13.81
-2.01
-7.54
-1.29
16.15
41.93
71.39
99.04
119.91
130.53
129.3
116.36
93.18
62.09
25.94
-12.08
-48.76
-81.21
-107.36
-126.3
-138.26
-144.28
-145.69
-143.79
-139.81
-135.2
-131.86
-131.91
-137.18
-148.21
-163.81
-181.05
-196.14
-205.61
-207.25
-200.47
-185.96
-165.15
-139.57
-110.78
-80.44
-50.46
-22.94
0.09
16.99
26.83
29.5
25.84
17.58
7.22
-2.27
-7.99
-7.88
-1.4
10.25
24.3
37.18
45.6
47.5
42.59
32.23
18.82
4.83
-8.01
-19.09
-29.07
-39.4
-51.74
-67.24
-85.82
-105.86
-124.2
-136.93
-140.47
-132.81
-114.27
-87.56
-57.01
-27.29
-2.19
16.24
27.84
34.1
37.41
40.2
44.14
49.71
56.33
63
68.97
74.15
78.98
83.91
88.97
93.61
97.18
99.48
100.94
102.52
105.05
108.79
113.22
117.32
120.19
121.52
121.73
121.71
122.21
123.23
123.69
121.55
114.25
99.57
76.51
46.03
11.43
-21.87
-47.38
-59.28
-54.44
-33.86
-2.79
30.62
57.8
72.28
71.13
55.02
27.31
-6.91
-41.58
-70.19
-86.66
-86.85
-70.22
-40.6
-5.36
26.86
49.09
57.73
52.74
36.24
10.94
-20.65
-55.87
-91.11
-121.48
-141.73
-147.88
-138.74
-116.29
-84.71
-48.77
-12.44
21.57
51.28
74.58
89.09
92.92
86.14
71.77
55.45
43.47
39.93
44.65
52.84
57.21
51.41
33.05
4.71
-27.5
-57.13
-80.49
-97.9
-112.64
-128.35
-146.51
-165.44
-181.17
-189.59
-188.36
-177.91
-160.97
-141.33
-122.61
-107.48
-97.46
-92.99
-93.41
-96.88
-100.56
-100.96
-94.95
-80.72
-58.49
-30.35
0.44
30.69
58.12
81.8
101.92
119.15
134.04
146.57
156.16
161.63
161.4
153.57
136.44
109.33
73.55
33.04
-5.9
-36.06
-51.51
-49.52
-31.39
-1.89
32.35
64.57
89.08
102
101.52
88.04
64.44
35.7
7.84
-13.67
-25.61
-27.76
-22.65
-14.25
-6.42
-1.76
-1.23
-4.75
-12.04
-23.41
-39.8
-62.12
-90.14
-121.6
-152.12
-176.2
-189.06
-188.29
-174.73
-152.08
-125.45
-99.6
-77.71
-61.01
-49.18
-40.98
-34.78
-28.65
-20.42
-7.94
10.44
35.12
64.56
95.37
123.02
143.23
153.29
152.94
144.14
130.14
114.11
97.96
82.04
65.37
46.47
24.52
0.07
-24.72
-46.57
-62.18
-69.46
-68.52
-61.82
-53.4
-47.53
-47.24
-53.48
-65.09
-79.42
-93.26
-103.53
-107.82
-104.7
-94.01
-76.92
-55.8
-33.61
-13.12
3.68
15.96
23.81
27.79
28.6
26.93
23.53
19.28
15
11.06
7.2
2.59
-3.61
-11.64
-20.81
-29.54
-36.03
-39.01
-38.45
-35.71
-33.07
-32.79
-36.26
-43.34
-52.29
-60.2
-63.9
-60.86
-49.85
-31.39
-7.44
18.96
44.57
66.64
83.6
95.31
102.88
108.21
113.23
119.25
126.47
133.97
139.88
141.94
138.38
128.81
114.73
99.35
86.72
80.45
82.35
91.7
105.2
117.84
124.16
119.76
102.57
73.47
36.23
-3.56
-40.15
-69.33
-89.67
-102.65
-111.73
-120.99
-133.78
-151.93
-175.41
-202.44
-229.66
-252.56
-266.42
-267.44
-254.15
-228.16
-193.95
-157.62
-125.1
-100.49
-85.28
-78.5
-77.57
-79.3
-80.71
-79.48
-74.16
-64.23
-50.23
-33.61
-16.44
-0.88
11.35
19.44
23.6
24.86
24.71
24.64
25.7
28.33
32.34
37.14
41.99
46.39
50.21
53.69
57.24
61.17
65.4
69.53
72.95
75.1
75.71
74.9
73.12
70.98
69.05
67.7
66.98
66.63
66.06
64.65
61.87
57.64
52.6
48.01
45.41
45.95
49.74
55.54
60.95
63.18
59.87
49.78
33
10.8
-14.71
-40.92
-64.89
-83.65
-94.66
-96.39
-88.83
-73.54
-53.22
-30.84
-8.95
10.78
27.49
40.81
50.55
56.54
58.7
57.19
52.51
45.48
37.22
29.1
22.62
19.17
19.73
24.46
32.64
42.85
53.51
63.35
71.7
78.41
83.53
87.11
89.15
89.8
89.54
89.16
89.45
90.76
92.8
94.78
95.89
95.82
94.87
93.68
92.69
91.58
89.16
83.74
73.74
58.39
38.15
14.71
-9.15
-29.9
-43.8
-47.56
-39.16
-18.74
11.04
45.29
78.11
104.01
119.23
122.38
114.17
96.5
71.58
41.2
6.41
-32.36
-74.85
-120.33
-166.86
-210.9
-247.66
-272.41
-282
-276.19
-257.79
-231.52
-202.24
-173.23
-145.55
-118.44
-90.47
-60.81
-29.78
0.99
29.16
52.42
69.3
79.61
84.38
85.34
83.87
80.54
75.03
66.83
56.17
44.47
34.03
27.07
24.69
26.35
30.21
33.81
35.06
32.73
26.6
17.34
6.18
-5.42
-16.21
-25.46
-33.21
-40.11
-47.06
-54.75
-63.36
-72.53
-81.72
-90.45
-98.36
-105.07
-109.87
-111.57
-108.82
-100.63
-86.88
-68.66
-48.08
-27.7
-9.79
4.24
14.05
20.22
23.82
26
27.62
29.14
30.69
32.21
33.63
34.96
36.34
37.91
39.76
41.85
44.04
46.17
48.07
49.66
50.86
51.55
51.55
50.77
49.41
48.21
48.36
51.14
57.34
66.76
78.22
90.12
101.19
111.06
120.28
129.73
139.92
150.56
160.66
169
174.66
177.19
176.32
171.56
161.96
146.45
124.49
96.66
64.84
31.88
0.84
-25.59
-45.35
-56.86
-58.89
-50.7
-32.71
-6.99
22.61
51.25
74.59
90.14
97.73
98.9
95.46
88.16
76.38
59.02
36.01
9.54
-15.98
-35.29
-44.5
-42.8
-32.83
-19.21
-6.2
4.24
12.77
21.3
30.65
39
42.03
34.76
14.12
-19.32
-61.26
-105.01
-143.66
-171.73
-186.1
-186.07
-173.02
-149.89
-120.66
-89.69
-61.07
-38.04
-22.69
-15.78
-17.04
-25.43
-39.63
-58.45
-81.01
-106.65
-134.41
-162.31
-187.05
-204.39
-210.32
-202.49
-181.27
-149.79
-112.98
-76.04
-43.06
-16.35
3.61
17.58
27.03
33.61
38.94
44.36
50.78
58.35
66.55
74.4
80.94
85.63
88.42
89.54
89.24
87.31
83.03
75.15
62.32
43.65
19.36
-8.8
-37.7
-63.5
-82.74
-93.22
-94.61
-88.21
-76.2
-60.76
-43.46
-25.19
-6.53
11.88
29.06
43.82
55.04
62.05
64.87
64.16
60.97
56.31
50.73
44.15
36.11
26.23
14.67
2.37
-9.29
-19.07
-26.48
-31.93
-36.46
-40.99
-45.71
-49.87
-52.04
-50.85
-45.47
-36.05
-23.54
-9.33
5.09
18.43
29.59
37.79
42.51
43.69
41.69
37.34
31.78
26.21
21.7
19.01
18.53
20.24
23.74
28.33
33.08
37.12
39.81
40.95
40.7
39.46
37.68
35.73
33.86
32.36
31.6
31.96
33.59
36.06
38.23
38.48
35.24
27.62
15.89
1.55
-13.19
-26
-35.2
-40.11
-41.03
-38.95
-35.12
-30.78
-26.97
-24.57
-24.28
-26.51
-31.39
-38.54
-47.13
-55.87
-63.27
-68.02
-69.28
-66.9
-61.36
-53.62
-44.68
-35.4
-26.32
-17.63
-9.31
-1.14
7.13
15.68
24.48
33.2
41.23
47.93
52.97
56.5
59.24
62.08
65.67
70.06
74.83
79.53
84.11
89.05
94.73
100.7
105.14
105.08
97.51
80.63
54.63
21.42
-16.01
-54.33
-89.97
-118.87
-136.59
-139.25
-125.27
-96.83
-60.02
-23.25
5.51
21.43
23.85
15.71
1.65
-14.09
-28.75
-41.15
-51.12
-58.84
-64.59
-68.8
-72.16
-75.51
-79.6
-84.59
-89.78
-93.63
-94.25
-90.1
-80.76
-67.21
-51.54
-36.31
-23.6
-14.4
-8.37
-4.28
-0.67
3.46
8.25
13.18
17.46
20.69
23.14
25.66
29.24
34.52
41.36
48.89
55.87
61.16
64.27
65.53
66.09
67.49
71.31
78.75
90.25
105.33
122.46
139.19
152.55
159.71
158.67
148.81
130.86
106.42
77.23
44.53
8.95
-28.95
-67.86
-104.9
-135.7
-155.35
-160.2
-149.48
-126.08
-95.81
-65.55
-41
-25.07
-17.51
-15.75
-16.29
-15.98
-12.72
-5.51
5.66
20.1
36.57
53.49
69.55
84.02
97.09
109.52
122.06
134.72
146.25
154.16
155.27
146.73
127.18
97.67
62
26.3
-2.21
-17.04
-14.48
5.21
37.64
75.78
112.2
141.44
161.22
172.54
178.3
181.6
184.28
186.46
186.76
183.2
174.07
158.45
136.35
108.43
75.48
37.95
-4.01
-49.69
-96.79
-140.59
-174.74
-193.46
-194.28
-179.8
-157.06
-134.91
-120.51
-117.01
-123.58
-137.18
-154.73
-174.04
-193.25
-209.59
-218.97
-217.03
-201.11
-171.89
-133.53
-92.19
-54.02
-23.61
-3.53
5.11
2.12
-11.84
-34.81
-63.15
-91.85
-115.61
-130.34
-134.26
-128.27
-115.13
-98.24
-80.37
-63.1
-47.02
-32.29
-19.25
-8.54
-0.89
3.38
4.66
4.11
3.33
3.84
6.74
12.55
21.14
31.8
43.2
53.51
60.72
63.24
60.49
53.24
43.37
33.26
24.88
19.18
16.02
14.6
14.12
14.33
15.49
18.12
22.31
27.5
32.39
35.37
35.05
30.82
23.05
12.83
1.43
-10.54
-23.65
-39.69
-61.08
-89.7
-125.76
-167.05
-209.03
-246.03
-272.9
-286.62
-287.09
-276.6
-258.54
-235.79
-209.8
-180.76
-148.46
-113.24
-76.37
-39.78
-5.53
24.68
49.5
67.64
77.82
79.16
72.01
58.58
42.87
29.67
22.99
24.68
33.77
47.21
61.22
72.95
81.24
86.58
90.03
92.14
92.57
90.47
85.6
79.07
73.24
70.75
73.26
80.7
91.52
103.74
115.99
127.93
139.89
151.82
162.82
171.26
175.48
174.66
169.14
160.12
148.91
136.36
122.79
108.39
93.74
79.9
67.96
58.35
50.31
42.08
31.56
17.23
-1.14
-22.45
-44.65
-65.35
-82.37
-94.15
-100.07
-100.76
-98.16
-95.14
-94.7
-98.87
-107.87
-119.94
-132.07
-141.28
-145.76
-145.59
-142.35
-138.23
-134.84
-132.3
-129.15
-122.91
-111.22
-92.77
-67.93
-38.66
-8
20.78
44.9
62.49
72.74
75.68
71.83
61.8
46.01
24.71
-1.71
-32.26
-65.12
-97.79
-127.64
-152.69
-172.02
-185.51
-193.36
-195.25
-190.28
-177.34
-155.9
-126.69
-91.83
-54.46
-18.09
14.22
40.3
59.05
70.44
75.14
74.1
68.24
58.24
44.9
29.56
14.48
2.71
-2.69
0.26
11.45
28.5
47.48
64.37
76.45
83.03
85.18
84.79
83.58
82.46
81.64
81.14
81.23
82.64
86.33
93.06
103.07
116.08
131.57
148.99
167.79
187.18
205.84
221.75
232.47
235.69
229.86
214.67
191.1
161.09
127.08
91.33
55.45
20.18
-14.52
-48.98
-83.32
-117.14
-149.75
-180.47
-208.8
-234
-254.26
-266.28
-265.63
-248.7
-214.73
-167.38
-114.26
-64.59
-26.11
-2.6
6.55
5
-2.9
-14.01
-26.99
-41.69
-57.97
-74.87
-90.5
-102.62
-109.63
-111.28
-108.79
-104.2
-99.43
-95.37
-91.6
-86.83
-80.02
-71.22
-61.84
-53.99
-49.46
-48.75
-50.83
-53.65
-54.96
-53.22
-47.97
-39.71
-29.58
-18.96
-9.13
-1.16
4.2
6.55
5.76
1.92
-4.68
-13.48
-23.58
-33.68
-42.2
-47.61
-48.94
-46.04
-39.57
-30.79
-21
-11.24
-2.12
6.06
13.07
18.69
22.58
24.54
24.55
22.92
20.31
17.59
15.75
15.61
17.62
21.68
27.14
32.89
37.77
40.87
41.85
40.89
38.59
35.67
32.65
29.83
27.27
24.9
22.68
20.64
18.86
17.39
16.22
15.33
14.66
14.28
14.3
14.85
15.99
17.53
19.04
20
20.06
19.47
19.22
21
26.68
37.67
54.22
75.25
98.65
121.99
143.38
161.97
177.88
191.56
203.03
211.54
215.74
214.27
206.67
193.65
176.95
158.62
140.32
123.22
108.41
97.54
92.97
97
110.63
132.68
159.73
187.29
211.38
229.69
241.67
247.59
247.68
241.75
229.81
212.91
193.56
175.01
159.81
148.35
138.56
126.76
109.2
83.67
50.3
11.37
-29.61
-69.25
-105.21
-136.73
-164.45
-189.68
-213.61
-236.52
-257.44
-274.38
-284.95
-287.32
-280.91
-266.83
-247.76
-227.05
-207.62
-190.61
-174.91
-157.65
-135.76
-108.08
-76.76
-46.99
-25.26
-16.65
-22.65
-40.62
-64.99
-89.56
-109.61
-122.75
-128.47
-126.9
-117.97
-101.3
-77.1
-47.01
-14.53
15.68
39.21
53.52
58.83
57.89
54.76
53.08
54.68
59.15
64.35
67.8
67.95
65.02
60.78
57.61
57.41
60.76
66.94
74.32
81.14
85.89
87.42
84.9
77.74
65.95
50.41
33.19
17.22
5.63
0.75
3.42
12.59
25.58
38.67
47.9
49.92
42.6
25.52
0.31
-29.27
-57.55
-77.84
-83.93
-71.97
-42.07
1.01
48.79
91.24
119.87
130.34
123.75
105.79
84.32
66.29
55.36
51.16
50.33
48.54
42.47
30.77
13.75
-7.62
-32.65
-61.15
-92.92
-126.99
-161.14
-191.95
-215.5
-228.37
-228.54
-216
-192.99
-163.48
-132.27
-103.89
-81.48
-66.38
-58.37
-56.33
-58.95
-65.11
-73.7
-83.38
-92.48
-99.36
-102.89
-102.95
-100.35
-96.24
-91.17
-84.58
-74.83
-60
-39.17
-13.2
15.06
41.6
62.56
75.64
80.74
79.93
76.68
74.99
78.42
89.25
107.81
131.98
157.4
178.55
190.61
191.32
182.06
167.29
152.67
142.7
138.99
140.01
142.43
142.94
139.66
132.41
122
109.04
93.13
72.92
47.03
15.38
-19.68
-53.3
-79.34
-92.46
-90.47
-75.72
-54.42
-34.19
-20.71
-15.34
-14.92
-14.04
-8.51
1.84
12.52
16.31
6.44
-20.34
-62.48
-114.26
-167.65
-214.33
-246.98
-260.21
-251.16
-220.55
-173.24
-117.94
-65.37
-25.41
-4.16
-2.2
-14.97
-34.73
-53.52
-65.59
-68.64
-63.67
-53.81
-42.63
-32.62
-24.42
-16.79
-7.68
4.36
19.14
34.49
47.14
54.2
54.28
47.96
37.19
24.34
11.42
-0.09
-8.97
-14.09
-14.47
-9.79
-0.83
10.48
21.59
30.18
34.99
36.15
34.83
32.56
30.41
28.6
26.53
23.19
17.66
9.53
-0.93
-12.88
-25.21
-36.77
-46.65
-54.29
-59.45
-62.12
-62.39
-60.34
-56.1
-49.82
-41.85
-32.66
-22.79
-12.69
-2.74
6.72
15.3
22.38
27.33
29.68
29.51
27.56
25.06
23.34
23.37
25.32
28.65
32.33
35.41
37.31
38.14
38.52
39.21
40.82
43.42
46.58
49.51
51.43
51.78
50.52
48.21
45.95
45.34
47.87
54.47
64.91
77.6
89.86
98.72
101.81
98.14
88.17
73.21
54.6
32.8
7.2
-23.44
-59.95
-101.78
-146.39
-189.5
-225.88
-250.4
-259.15
-250.28
-224.35
-184.5
-136
-85.59
-40.26
-5.94
13.87
18.76
11.4
-3.3
-19.6
-32.27
-37.67
-34.16
-22.08
-3.3
19.28
42.36
62.92
78.67
88.45
92.41
91.73
88.18
83.43
78.56
73.84
69.04
63.66
57.34
49.94
41.62
32.77
23.99
16.04
9.76
5.78
4.18
4.33
5.05
5.02
3.36
-0.05
-4.61
-9.29
-13.23
-16.06
-17.97
-19.57
-21.53
-24.36
-28.29
-33.19
-38.61
-43.8
-47.74
-49.31
-47.5
-41.76
-32.21
-19.73
-5.78
7.97
20.1
29.66
36.29
40.14
41.7
41.68
40.93
40.35
40.78
42.8
46.56
51.74
57.63
63.34
68.15
71.7
74.14
76.07
78.38
81.9
87.16
93.99
101.48
108.09
112.12
112.35
108.5
101.58
93.59
87.03
84.07
86.08
93.31
104.89
118.89
132.51
142.25
144.49
136.29
116.14
84.52
43.82
-2.07
-48.38
-90.08
-122.36
-141.35
-144.93
-133.4
-109.79
-79.2
-47.49
-19.71
0.95
13.4
17.96
15.42
6.37
-8.87
-29.77
-55.06
-82.35
-108.45
-129.95
-144.12
-149.61
-146.79
-137.53
-124.52
-110.38
-96.85
-84.47
-72.69
-60.38
-46.59
-31.2
-15.29
-1.08
8.68
11.56
6.39
-6.21
-23.86
-42.99
-59.76
-70.95
-74.45
-69.5
-56.52
-36.86
-12.56
13.85
39.73
62.64
80.72
93.1
99.9
102.22
101.65
99.76
97.52
95.05
91.77
86.94
80.45
73.24
67.21
64.45
66.06
71.34
77.67
81.49
79.81
71.65
58.48
43.67
31.05
23.44
21.73
24.76
29.74
33.21
31.93
23.91
9.4
-8.68
-25.18
-34.31
-32.06
-18.26
2.77
23.65
36.92
38.26
28.2
11.58
-5.05
-16.45
-20.84
-20.04
-17.97
-18.4
-23.18
-31.8
-42.06
-51.6
-59.06
-64.64
-69.7
-75.75
-83.43
-92.02
-99.79
-104.82
-106.03
-103.82
-100.05
-97.43
-98.54
-104.9
-116.44
-131.3
-146.09
-156.41
-157.85
-147.18
-123.48
-88.94
-48.79
-10.3
19.06
33.66
31.3
13.82
-13.59
-43.97
-70.59
-88.61
-95.94
-93.12
-82.45
-66.85
-48.91
-30.51
-12.91
2.87
15.86
25.39
31.67
36.19
41.41
49.66
61.51
74.62
83.95
83.46
68.68
38.7
-3.2
-50.73
-96.84
-135.62
-163.27
-177.93
-179.01
-166.93
-143.3
-111.34
-75.88
-42.51
-16.22
-0.14
5
0.55
-10.93
-26.5
-43.42
-59.2
-71.68
-79.1
-80.36
-75.29
-64.77
-50.52
-34.64
-19.03
-5.04
6.65
15.9
22.82
27.61
30.45
31.54
31.29
30.25
29.11
28.48
28.76
30.05
32.12
34.58
37.02
39.12
40.68
41.59
41.77
41.15
39.68
37.37
34.4
31.07
27.75
24.8
22.39
20.45
18.66
16.64
14.06
10.88
7.42
4.26
2.04
1.06
1.12
1.54
1.33
-0.33
-3.78
-8.81
-14.69
-20.57
-25.69
-29.49
-31.62
-31.76
-29.57
-24.68
-16.77
-5.53
9.36
28.14
50.65
75.84
101.4
123.95
139.78
145.96
141.56
128.15
109.4
89.84
73.06
60.58
51.36
42.71
31.81
17.36
0.72
-14.25
-22.23
-18.44
-0.41
30.77
70.61
112.43
149.42
176.55
191.78
196.27
193.42
187.12
179.96
172.16
161.66
145.27
120.46
86.96
47.55
7.67
-26.07
-47.83
-54.43
-46.38
-27.73
-4.6
16.91
32.87
42.67
48.96
56.37
69.4
90.6
119.33
151.82
182.23
204.29
212.98
205.68
182.56
146.07
99.81
47.43
-8.05
-63.97
-117.21
-163.59
-198.05
-215.88
-214.48
-194.57
-160.29
-118.02
-74.52
-35.38
-4.09
17.75
30.22
34.7
33.85
31.38
31.4
37.16
49.73
67.23
85.26
98.38
102.13
94.5
76.47
51.19
22.48
-6.76
-35.33
-63.59
-92.58
-122.85
-153.78
-183.52
-209.61
-229.89
-243.26
-249.91
-250.89
-247.55
-240.93
-231.58
-219.73
-205.77
-190.67
-175.97
-163.35
-153.75
-146.65
-139.88
-130.24
-114.85
-92.46
-64.21
-33.22
-3.25
23.07
45.09
64.04
81.93
100.11
118.44
135.49
149.5
159.46
165.73
169.76
173.49
178.38
184.84
192.01
197.99
200.47
197.36
187.7
171.81
151.47
129.71
110.12
95.81
88.22
86.33
86.5
84.52
76.87
63.06
46.32
32.37
26.8
32.16
46.48
63.39
76.24
79.37
70.59
51.15
24.46
-5.88
-37.42
-69.13
-101.87
-135.39
-170.25
-206.44
-242.66
-275.92
-301.81
-315.81
-314.94
-300.45
-274.92
-244.2
-213.98
-187.4
-164
-140.47
-112.96
-73.57
-32.78
4.79
32.02
43.95
40.48
26.89
11.75
3.59
7.69
23.42
48.11
75.9
101.25
120.37
131.44
134.29
130.07
121.08
109.68
99.93
93.98
92.03
92.62
93.53
93.09
90.78
86.92
81.09
73.03
61.2
44.22
22.06
-3.42
-29.08
-51.71
-69.35
-82.05
-90.53
-95.92
-98.62
-98.07
-93.33
-83.87
-70.15
-53.65
-36.55
-20.98
-9.03
-2.27
-1.56
-6.47
-15.12
-24.24
-29.76
-28.14
-17.59
0.95
23.91
46.35
63.79
73.77
76.23
72.81
65.41
55.12
42
25.81
6.81
-13.86
-34.6
-54.24
-72.4
-89.26
-104.55
-116.79
-123.18
-120.58
-107.14
-83.43
-52.83
-20.64
7.48
27.15
36.44
35.98
28.37
16.97
4.75
-6.35
-15.45
-22.33
-27.11
-30.02
-31.52
-32.36
-33.49
-35.62
-38.92
-42.86
-46.48
-48.86
-49.66
-49.37
-49.1
-50.29
-54.04
-60.8
-70.12
-80.69
-90.65
-97.93
-100.8
-98.2
-90.1
-77.34
-61.51
-44.37
-27.54
-12.13
1.32
12.69
22.18
30.01
36.35
41.26
44.77
47.02
48.28
49.03
49.77
50.96
52.82
55.31
58.11
60.81
63.05
64.71
65.93
66.98
68.21
69.86
72.01
74.56
77.29
79.88
81.99
83.39
84.07
84.56
85.86
89.27
95.87
105.87
118.24
130.81
140.85
145.88
144.47
136.66
123.78
108.01
91.59
76.26
62.78
50.94
39.81
28.36
16.06
3.36
-8.29
-16.91
-20.78
-19.28
-13.3
-5.16
1.97
4.96
1.62
-8.73
-25.02
-44.65
-64.25
-80.39
-90.35
-92.62
-87.18
-75.44
-59.92
-43.62
-29.02
-17.14
-7.16
3.08
15.72
31.23
47.51
60.33
64.92
58.02
39.13
10.5
-24.05
-60.49
-95.25
-125.25
-147.53
-159.27
-158.47
-144.99
-121.08
-91.06
-60.19
-33.09
-12.7
0.18
6.4
7.65
5.57
1.17
-5.14
-13.38
-23.36
-34.34
-44.84
-53.03
-57.35
-57.28
-53.64
-48.37
-43.8
-41.62
-42.07
-43.72
-43.82
-39.22
-27.4
-7.4
19.76
51.14
82.31
108.31
124.69
128.97
121.59
106.33
89.41
77.77
76.72
88.18
110.13
137.34
163.45
182.99
192.83
192.51
183.48
168.15
148.95
128.07
107.39
88.46
72.15
58.2
45.14
30.91
13.97
-5.49
-25.14
-41.26
-50.34
-50.81
-43.76
-32.43
-20.71
-11.55
-6.19
-4.35
-5.42
-9.37
-17.3
-30.94
-51.79
-80.07
-114.2
-150.84
-185.33
-212.73
-228.7
-230.54
-217.75
-192.31
-158.34
-121.25
-86.44
-58.13
-38.58
-28.03
-25.18
-27.98
-34.15
-41.31
-47.01
-48.82
-44.82
-34.28
-18.22
0.81
19.55
35.28
46.85
55.04
62.08
70.46
81.83
96.36
112.9
129.72
145.35
159.1
171.14
182.15
192.75
202.97
212.09
218.77
221.54
219.28
211.55
198.71
181.61
161.19
138.06
112.44
84.59
55.53
27.49
3.75
-12.33
-18.65
-15.4
-5.3
7.06
16.55
18.82
11.37
-5.81
-30.1
-56.4
-78.07
-88.65
-84.25
-65.42
-37.7
-9.96
8.81
12.89
1.61
-21.22
-49.72
-78.82
-105.58
-128.92
-147.99
-160.99
-165.18
-158.29
-140.18
-113.75
-84.27
-57.63
-38.47
-29.08
-29.48
-38.22
-53.22
-72.21
-92.68
-111.8
-126.76
-135.24
-136.09
-129.55
-117.07
-100.72
-82.49
-63.99
-46.5
-31.25
-19.64
-13.1
-12.51
-17.73
-27.26
-38.56
-48.73
-55.43
-57.62
-55.94
-52.67
-51.13
-54.92
-66.69
-86.93
-113.11
-139.76
-159.86
-167.21
-159
-137.12
-107.72
-78.83
-57.32
-46.56
-45.72
-50.99
-57.74
-62.3
-62.81
-58.95
-51.12
-39.93
-26.11
-10.69
4.9
18.87
29.61
36.02
37.88
35.92
31.77
27.73
26.29
29.53
38.5
52.69
70.14
87.98
103.34
114.32
120.45
122.68
122.85
122.89
124.15
126.81
129.85
131.12
127.74
116.9
96.71
67.12
30.49
-8.55
-44.02
-69.94
-81.68
-77.01
-56.49
-23.3
17.16
58.1
92.27
113.4
117.67
104.98
79.16
47.1
16.76
-5.02
-14.14
-9.67
6.59
31.17
59.85
88.3
112.41
128.68
134.69
129.49
113.89
90.2
61.44
30.42
-0.89
-31.42
-60.42
-86.73
-108.3
-122.53
-127.27
-121.79
-107.18
-85.99
-61.14
-35.11
-9.66
13.6
32.43
43.76
44.32
32.01
7.33
-25.83
-60.52
-88.18
-100.99
-94.44
-69.16
-31.25
9.32
42.12
59.96
61.43
50.99
36.48
25.66
23.2
29.71
42.75
58.84
75.23
90.49
104.07
115.35
123.15
125.86
122.15
111.86
96.38
78.33
60.62
45.33
32.8
21.62
9.21
-6.83
-27.69
-52.86
-80.47
-108.26
-134.37
-157.7
-177.62
-193.44
-204.01
-207.83
-203.62
-191.08
-171.38
-147.05
-121.29
-96.98
-75.82
-58.04
-42.62
-28.03
-13.03
2.86
19.38
35.86
51.64
66.24
79.27
90.14
97.91
101.37
99.46
91.77
78.82
62.08
43.57
25.28
8.56
-6.26
-19.95
-34.15
-50.67
-70.95
-95.42
-123.15
-151.79
-177.83
-197.13
-205.65
-200.39
-180.37
-147.18
-105.03
-60.05
-18.93
12.75
31.94
38.88
36.78
30.71
25.9
26.37
34.01
48.54
68.19
90.61
113.63
135.61
155.25
171.47
183.42
190.75
193.92
194.33
193.92
194.53
197.25
202.03
207.88
213.47
217.75
220.33
221.51
221.94
222.27
222.84
223.62
224.16
223.72
221.27
215.65
205.92
191.61
173.03
151.1
127.19
102.61
78.36
54.95
32.5
10.77
-10.87
-33.39
-57.79
-84.49
-112.71
-140.14
-163.5
-179.66
-187.06
-186.53
-181.07
-174.73
-171.1
-172.15
-177.85
-186.4
-195.09
-201
-201.85
-196.47
-185.36
-170.78
-156.45
-146.59
-144.52
-151.52
-166.22
-185.18
-204.1
-219.34
-228.95
-233.01
-233.12
-231.36
-229.27
-227.03
-223.44
-216.51
-204.52
-187.04
-165.33
-142.09
-120.47
-103
-90.74
-83.13
-78.41
-74.25
-68.41
-59.3
-46.47
-30.64
-13.69
2.01
14.43
22.58
26.81
28.53
29.42
30.55
32.1
33.35
33.28
31.09
26.56
20.12
12.72
5.68
0.5
-1.25
1.72
10.11
23.78
41.58
61.6
81.69
100.05
115.69
128.33
137.83
143.53
143.75
135.9
117.22
85.92
42.33
-10.2
-65.22
-114.19
-148.34
-161.18
-150.46
-119.09
-74.11
-24.58
21.08
57.06
80.72
92.13
92.92
85.45
72.39
56.67
41.32
29.03
21.52
19.07
20.56
24.04
27.39
29.01
28.2
25.13
20.58
15.51
10.67
6.31
2.21
-2.19
-7.43
-13.76
-21
-28.67
-36.17
-43.02
-48.92
-53.66
-56.82
-57.79
-55.75
-50.07
-40.63
-27.95
-13.19
2.3
17.3
31.06
43.29
54
63.26
71.01
77.14
81.58
84.52
86.54
88.53
91.49
96.12
102.5
109.89
116.94
122.24
125.08
125.98
126.78
129.94
137.44
149.7
165.2
180.99
194
202.27
205.63
205.43
203.53
201.19
198.58
194.87
188.87
179.61
166.66
149.93
129.34
104.91
76.85
45.89
13.34
-19.31
-51.12
-82.36
-114.22
-147.77
-182.33
-214.53
-238.79
-249.42
-243.38
-222.26
-191.98
-160.36
-133.75
-114.57
-101.07
-89.4
-76.45
-61.94
-48.3
-38.94
-35.98
-39.01
-45.42
-51.9
-56.17
-57.72
-57.61
-57.28
-57.42
-57.5
-56.14
-51.93
-44.26
-33.77
-22.09
-11.15
-2.36
3.86
8.2
11.82
15.82
20.62
26.01
31.55
37.3
44.27
54.15
68.67
88.52
112.91
139.66
166.02
189.51
208.48
222.15
230.34
233.29
231.74
226.98
220.83
215.17
211.3
209.47
208.86
208.07
205.83
201.5
195.23
187.68
179.67
171.85
164.49
157.39
149.89
141.05
129.88
115.73
98.59
79.2
58.88
39.23
21.62
6.77
-5.44
-15.86
-25.73
-36.03
-47.06
-58.23
-68.33
-76.15
-81.12
-83.64
-84.99
-86.73
-90.08
-95.4
-102.18
-109.46
-116.39
-122.81
-129.39
-137.49
-148.65
-163.82
-182.73
-203.51
-222.9
-237.17
-243.34
-240.4
-229.8
-214.92
-199.91
-188.19
-181.52
-179.82
-181.97
-186.69
-193.24
-201.49
-211.59
-223.32
-235.69
-246.81
-254.17
-255.28
-248.4
-233.2
-210.88
-183.87
-154.96
-126.53
-100.09
-76.48
-56.35
-40.48
-29.61
-23.78
-21.8
-21.13
-18.71
-12.06
-0.28
15.84
34.34
53.05
70.42
85.75
98.92
110
118.92
125.5
129.75
132.07
133.38
135
138.32
144.21
152.54
162.07
170.67
176.07
176.76
172.74
165.53
157.59
151.2
147.43
145.69
144.06
140.26
132.66
120.86
105.69
88.52
70.79
53.48
37.12
21.98
7.97
-5.6
-20.44
-39.04
-63.49
-93.88
-126.99
-156.56
-175.12
-177
-160.77
-130.02
-92
-54.74
-24.31
-3.39
8.34
12.59
10.82
3.56
-9.15
-26.52
-46.08
-63.7
-74.65
-75.31
-64.65
-44.9
-20.67
2.78
21.46
33.81
40.66
44.12
46.22
47.95
49.11
48.92
46.77
42.82
37.97
33.39
29.86
27.34
24.98
21.55
16.14
8.65
-0.09
-8.7
-15.84
-20.73
-23.4
-24.43
-24.66
-24.68
-24.79
-25
-25.24
-25.48
-25.87
-26.63
-27.98
-30.15
-33.18
-36.93
-40.99
-44.67
-47.11
-47.47
-45.16
-40
-32.35
-23.03
-13.15
-3.86
3.95
9.76
13.54
15.67
16.65
16.96
16.98
17.01
17.32
18.29
20.28
23.47
27.71
32.48
36.98
40.47
42.5
43.02
42.39
41.19
39.94
38.86
37.8
36.31
33.9
30.33
25.83
21.08
16.99
14.3
13.17
13.07
13.01
12.02
9.59
5.95
2.01
-1.18
-2.84
-2.83
-1.58
0.17
1.78
2.86
3.25
2.85
1.6
-0.37
-2.5
-4.05
-4.62
-4.83
-6.73
-13.22
-26.65
-47.16
-71.67
-94.4
-108.75
-109.82
-96.24
-70.51
-37.81
-4.08
25.77
48.76
63.79
71.04
71.43
66.47
58.15
48.97
41.47
37.62
38.28
42.95
50.09
57.89
64.94
70.75
75.72
80.72
86.38
92.84
99.59
105.9
111.18
115.33
118.7
121.99
125.98
131.42
138.8
148.04
158.11
166.82
171.14
168.11
156.26
136.71
113.36
91.77
77.16
72.42
77.02
87.32
98.08
104.3
102.63
91.79
72
44.24
9.96
-28.43
-66.83
-99.16
-118.64
-120.28
-103.49
-73.3
-39.21
-11.92
0.54
-4.57
-24.75
-54.37
-87.63
-120.49
-150.89
-177.52
-198.63
-211.78
-214.82
-207.18
-190.72
-169.44
-148.22
-131.42
-121.84
-120.42
-126.6
-138.92
-155.53
-174.43
-193.52
-210.51
-222.93
-228.3
-224.54
-210.41
-186.08
-153.41
-115.79
-77.5
-42.85
-15.19
3.75
13.95
16.82
14.47
9.02
2.02
-5.64
-13.52
-21.23
-27.98
-32.62
-33.98
-31.38
-25
-15.94
-5.78
3.87
11.78
17.36
20.51
21.44
20.54
18.25
15.08
11.65
8.63
6.64
6.16
7.37
10.16
14.11
18.56
22.85
26.43
29.07
30.81
31.89
32.55
32.86
32.69
31.78
29.92
27.09
23.5
19.56
15.69
12.18
9.11
6.36
3.69
0.81
-2.42
-6.04
-9.9
-13.77
-17.42
-20.77
-23.9
-27.04
-30.52
-34.63
-39.47
-44.83
-50.12
-54.47
-56.83
-56.27
-52.27
-44.87
-34.81
-23.28
-11.67
-1.19
7.35
13.64
17.78
20.02
20.72
20.23
18.95
17.36
16.02
15.4
15.79
17.18
19.24
21.56
23.78
25.73
27.34
28.63
29.55
29.94
29.61
28.43
26.42
23.69
20.46
16.94
13.32
9.76
6.37
3.23
0.28
-2.61
-5.58
-8.78
-12.21
-15.75
-19.24
-22.58
-25.81
-29.13
-32.87
-37.3
-42.44
-47.86
-52.64
-55.49
-55.17
-50.82
-42.41
-30.75
-17.3
-3.74
8.53
18.68
26.45
31.99
35.58
37.45
37.83
37.06
35.72
34.58
34.38
35.56
38.09
41.5
45.01
47.92
49.84
50.78
51.04
51.04
51.07
51.19
51.17
50.65
49.25
46.8
43.44
39.61
36.01
33.28
31.88
31.83
32.73
33.87
34.47
33.97
32.27
29.73
27.06
25.12
24.58
25.72
28.31
31.6
34.46
35.51
33.45
27.5
17.83
5.72
-6.7
-17.19
-24.24
-27.63
-28.37
-28.06
-27.94
-28.32
-28.47
-27.28
-23.94
-18.81
-13.29
-9.25
-7.71
-8.25
-9.16
-8.34
-4.27
3.35
13.41
23.96
33.04
39.73
44.26
47.47
50.19
52.73
55.3
57.7
59.71
60.9
61.51
62.06
62.99
64.12
64.67
64.44
62.96
59.75
53.67
45.28
35.97
27.53
21.16
17.66
19.44
28.04
43.32
61.64
80.58
98.35
113.85
125.93
133.99
141.26
150.78
164.06
178.08
192.58
208.33
226.3
245.83
265.33
286.79
311.03
336.36
355.1
363.74
361.68
351.03
334.23
289.94
209.88
101.24
6.67
-63.81
-111.45
-146.53
-172.82
-192.93
-209.23
-220.74
-228.39
-236.07
-252.97
-282.05
-320.49
-360.16
-391.66
-406.65
-397.67
-363.81
-311.47
-254.73
-204.34
-166.32
-141.52
-128.34
-124.15
-124.72
-127.29
-130.87
-137.33
-146.12
-155.38
-162.79
-167.38
-169.47
-169.3
-167.33
-163.77
-159.07
-151.87
-140.22
-122.65
-99.36
-72.04
-42.96
-14.47
11.51
33.56
51.54
65.99
77.71
87.2
94.67
100.19
104
106.66
109.13
112.54
117.85
125.52
135.24
146
156.38
165.09
171.49
175.87
179.36
183.41
189.25
197.36
207.28
217.67
226.58
231.79
231.18
223.09
206.83
183.05
153.62
121.31
88.82
57.86
28.67
-0.03
-30.44
-64.85
-104.8
-150.27
-199.04
-246.59
-286.85
-313.8
-323.35
-314.83
-291.39
-258.9
-223.7
-190.25
-159.76
-130.42
-99.12
-63.76
-24.94
13.57
45.79
65.48
68.22
52.89
22.04
-18.74
-62.42
-101.8
-130.86
-145.47
-143.82
-126.62
-96.9
-59.41
-19.59
17.34
47.51
68.88
81.48
87.17
88.91
90.07
93.65
101.67
114.97
133.22
155.15
178.86
202.16
222.63
237.98
246.11
245.57
235.72
216.99
190.81
159.45
125.77
92.99
64.44
43.23
31.66
30.49
38.17
50.68
62.37
67.71
63.47
50.35
32.97
17.96
10.94
13.83
23.89
34.92
39.95
33.87
14.87
-15.64
-53.97
-94.95
-132.34
-159.38
-170.09
-161.15
-133.74
-93.74
-50.1
-11.75
15.3
29.06
30.84
23.15
7.91
-14.17
-42.97
-77.81
-116.67
-156.09
-191.77
-219.39
-235.5
-238.35
-228.46
-208.63
-183.41
-158.01
-137.19
-124.52
-122.18
-130.93
-149.9
-176.08
-204.03
-226.34
-235.37
-225.69
-196.32
-151.57
-99.8
-50.66
-11.79
13.49
26.59
32.11
35.34
39.84
46.27
52.63
55.55
52.07
41.04
23.82
4.05
-13.37
-23.73
-23.98
-13.76
4.48
26.47
47.72
65.13
77.92
87.39
95.91
105.56
117.3
130.67
144.29
156.32
165
168.93
167.17
159.51
146.73
130.74
114.36
100.75
92.57
91.22
96.49
106.61
118.9
130.55
139.47
144.77
146.82
146.93
146.61
146.98
148.13
148.99
147.58
141.72
129.9
111.98
89.35
64.49
40.12
18.24
-0.38
-16.23
-30.56
-44.67
-59.4
-74.89
-90.84
-106.89
-123.12
-140.11
-158.9
-180.66
-206.11
-235.13
-266.41
-297.43
-324.8
-344.8
-354.2
-350.92
-334.54
-306.42
-269.35
-226.7
-181.48
-135.79
-90.99
-48.36
-9.89
21.46
42.41
50.52
45.38
28.96
5.02
-22.4
-50.31
-77.31
-103.34
-128.51
-151.97
-171.34
-182.94
-182.84
-168.2
-138.44
-95.59
-44.12
10.29
62.11
107.15
143.19
169.9
188.18
199.45
205.04
206.03
203.49
198.7
193.14
188.04
183.73
179.04
171.39
157.67
135.56
104.67
67.24
27.63
-8.74
-36.96
-54.11
-60
-57.12
-49.78
-42.46
-38.15
-37.42
-38.44
-38.37
-35.08
-28.48
-20.62
-14.68
-13.39
-17.75
-26.49
-36.32
-42.85
-41.77
-30.3
-8.36
21.11
52.76
80.49
99.12
105.72
99.83
82.89
57.56
27.5
-2.7
-27.71
-42.56
-44.39
-33.84
-15.37
4.12
17.81
21.23
13.39
-3.61
-26.01
-50.1
-73.37
-94.87
-115.03
-134.95
-155.64
-177.1
-197.78
-214.24
-221.77
-215.7
-193.35
-155.73
-108.05
-58.77
-17
10.52
21.73
19.56
10.29
0.67
-4.64
-3.94
2.11
12.23
25.84
43.13
64.21
87.9
111.35
130.82
143.24
147.76
146.22
142.38
140.19
142.04
147.56
153.71
156.14
151.44
139.11
122.13
105.73
94.52
89.77
88.05
82.45
65.77
34.23
-10.54
-61.98
-111.25
-150.56
-175.54
-185.7
-183.8
-174.37
-162.6
-153.67
-151.95
-159.74
-176.03
-196.16
-212.85
-218.95
-210.49
-188.61
-159.27
-130.62
-109.51
-98.8
-96.71
-98.59
-99.68
-97.44
-92.1
-85.41
-78.6
-71.09
-60.73
-45.37
-24.73
-1.38
20
34.71
40.17
37.35
29.98
22.5
17.77
15.78
14.2
10.21
2.5
-7.65
-16.84
-21.19
-18.3
-8.33
6.11
21.22
33.46
40.78
43.42
44
46.96
57.05
77.32
107.3
142.28
174.31
194.77
197.63
181.88
151.92
115.8
82.18
57.64
45.33
45.1
54.5
69.95
87.78
104.8
118.74
128.39
133.53
134.34
130.82
122.37
107.76
85.64
55.23
16.93
-27.53
-75.18
-122.24
-164.42
-197.38
-217.3
-221.53
-209.32
-182.17
-143.69
-98.99
-53.81
-13.37
18.54
40.01
51.09
53.33
49.14
41.09
31.44
21.81
13.42
7.24
4.22
5.27
11.07
21.84
36.89
54.54
72.25
87.27
97.31
101.08
98.49
90.55
79.12
66.57
55.59
48.63
47.3
51.61
59.74
68.32
73.67
73.15
66.21
54.46
40.74
27.79
17.09
8.48
0.65
-7.92
-18.06
-29.46
-40.81
-50.5
-57.33
-61.05
-62.33
-62.42
-62.33
-62.28
-61.44
-58.35
-51.62
-40.72
-26.32
-10.05
6.13
20.67
32.82
42.7
50.78
57.38
62.26
64.68
63.8
59.17
50.96
39.88
26.88
12.8
-1.68
-15.88
-28.74
-38.57
-43.05
-39.83
-27.29
-5.48
23.49
55.65
86.11
110.35
125.42
130.75
128.12
120.98
113.3
108.43
108.16
112.27
118.71
124.19
125.23
119.37
105.95
86.23
62.9
38.89
16.37
-3.84
-22.31
-40.49
-60.18
-82.85
-109.16
-138.3
-167.78
-193.63
-211.18
-216.52
-207.77
-185.59
-152.53
-111.88
-66.67
-19.77
25.22
63
86.84
90.46
70.95
31.04
-20.58
-71.56
-109.91
-127.91
-124.3
-103.81
-74.48
-44.56
-19.98
-3.48
5.01
7.23
5.62
2.58
0.07
-0.42
2.11
8.36
18.83
33.76
52.61
73.46
92.63
105.11
105.99
92.16
63.79
24.44
-19.75
-61.74
-95.09
-114.98
-118.86
-106.76
-81.59
-48.89
-16.03
9.59
22.65
21.56
8.76
-10.43
-29.8
-44.35
-51.38
-50.53
-42.94
-30.25
-14.01
4.41
23.62
42.19
58.89
73.1
85.17
96.18
107.43
119.71
132.99
146.4
158.77
169.16
177.34
183.66
188.64
192.32
194.01
192.52
186.77
176.42
162.19
145.6
128.14
110.65
92.92
73.91
52.38
27.63
0.08
-28.63
-56.09
-80.04
-99.27
-114.26
-127.01
-139.96
-154.41
-169.2
-180.65
-183.9
-175.38
-155.03
-127.12
-98.91
-78.01
-69.3
-73.34
-86.6
-103.19
-117.18
-124.44
-123.54
-115.41
-102.55
-87.86
-73.6
-60.78
-48.97
-37
-23.98
-10.57
0.67
5.79
1.13
-14.76
-40.1
-70.06
-98.46
-119.78
-130.67
-130.43
-120.39
-103
-80.95
-56.82
-32.85
-10.89
7.77
22.52
33.44
41
45.73
48.04
48.14
46.17
42.19
36.18
28.05
17.79
5.78
-6.94
-18.71
-27.74
-32.9
-34.28
-33.23
-31.83
-31.99
-34.63
-39.42
-45.09
-50.18
-53.69
-55.62
-56.71
-58.02
-60.29
-63.49
-66.75
-68.62
-67.59
-62.52
-52.96
-39.25
-22.37
-3.78
14.87
31.96
46.17
56.71
63.4
66.69
67.57
67.25
67.03
67.94
70.61
75.18
81.22
87.97
94.55
100.21
104.6
107.78
110.1
111.98
113.74
115.46
116.97
117.96
118.06
117.07
115.1
112.76
111.1
111.32
114.01
118.51
122.5
122.38
114.45
96.58
69.35
36.39
3.46
-23.14
-38.24
-38.9
-24.68
2.6
39.33
80.5
120.31
153.04
174.4
182.67
179.22
167.69
152.45
136.68
121.34
105.23
86.25
62.81
34.69
3.2
-29.56
-61.4
-90.6
-115.93
-136.3
-150.53
-157.44
-156
-145.82
-127.52
-102.83
-74.41
-45.36
-18.64
3.4
19.06
27.34
27.92
21.14
8.09
-9.5
-29.53
-50.18
-70.37
-89.64
-107.6
-123.18
-134.41
-139.14
-136.21
-126.51
-112.89
-98.97
-87.41
-78.89
-72.11
-65.05
-56.31
-45.94
-35.17
-25.49
-17.75
-11.89
-7.38
-3.67
-0.49
2.3
5.06
8.45
13.35
20.47
30.08
41.97
55.67
70.56
86.03
101.42
115.87
128.33
137.57
142.47
142.58
138.56
132.44
127.2
125.74
129.52
137.58
146.46
151.19
147.05
131.15
103.41
66.7
26.28
-10.95
-37.62
-47.56
-37.76
-10
28.74
68.14
97.94
111.57
108.15
91.96
69.53
46.34
24.68
3.64
-19.32
-46.52
-78.95
-115.97
-155.34
-193.25
-224.43
-243.06
-244.63
-228.05
-196.8
-158.22
-120.87
-91.37
-72.15
-61.27
-54.05
-45.67
-33.01
-15.44
5.48
26.77
44.92
56.65
59.8
54.25
42.38
28.88
19.6
19.94
33.14
59.14
94.36
132.32
165.2
185.79
189.43
175.33
146.76
110.1
72.86
41.5
19.83
8.35
4.69
4.79
4.21
-0.75
-12.25
-30.48
-53.43
-77.08
-96.05
-104.81
-99.18
-77.75
-42.6
1.09
46.38
86.59
116.9
135.24
141.97
138.82
127.77
110.3
87.33
59.69
28.52
-4.71
-38.62
-72.35
-105.62
-138.19
-169.15
-196.53
-217.61
-229.79
-231.37
-221.84
-201.35
-170.22
-128.94
-79.1
-24.73
27.1
67.27
87.17
81.83
52.2
5.47
-46.77
-91.78
-119.22
-123.88
-106.75
-74.26
-36.06
-2.22
19.52
25.6
17.09
-1.22
-22.96
-42.7
-57.67
-68.39
-77.68
-88.74
-103.22
-120.01
-135.53
-145.05
-144.82
-133.65
-113.5
-88.86
-65.39
-48.29
-40.98
-44.34
-56.45
-73.14
-89.13
-99.56
-101.2
-93.22
-77.05
-55.75
-33.18
-13.03
1.82
9.75
10.67
6.05
-1.41
-8.35
-11.63
-9.23
-0.74
12.61
28.4
43.71
55.74
62.34
62.25
55.24
42.21
25.03
6.32
-10.93
-23.82
-29.94
-27.81
-17.06
1.42
25.49
51.98
77.03
96.82
108.34
110.06
102.31
87.18
68.02
48.57
32.03
20.36
14.01
12.07
12.83
14.36
15.05
13.88
10.47
4.98
-2.16
-10.31
-18.86
-27.19
-34.75
-41.1
-46.08
-49.85
-52.86
-55.78
-59.11
-62.96
-66.83
-69.69
-70.14
-66.97
-59.53
-47.99
-33.5
-17.73
-2.51
10.67
21.06
28.62
33.86
37.49
40.15
42.24
44.01
45.66
47.48
49.85
53.07
57.21
61.98
66.77
70.86
73.72
75.2
75.61
75.54
75.56
76.03
76.88
77.74
78.1
77.61
76.22
74.23
72.22
70.85
70.76
72.29
75.36
79.31
82.98
85.04
84.57
81.65
77.61
74.67
74.71
78.1
82.98
85.41
80.72
65.16
37.53
0.03
-41.81
-80.13
-106.32
-112.89
-95.51
-54.59
3.91
69.24
128.24
168.84
183.55
171.42
137.84
92.28
44.96
3.78
-27.41
-48.77
-63
-73.52
-82.91
-92.45
-102.28
-111.94
-120.85
-128.26
-133.22
-134.78
-132.29
-125.98
-117.34
-108.95
-103.59
-102.91
-106.32
-110.54
-110.56
-101.22
-79.3
-44.86
-1.65
43.96
84.78
114.9
131.08
133.09
123.15
104.75
81.56
56.77
32.9
11.83
-5.07
-16.85
-22.91
-23.07
-17.61
-7.27
6.87
23.49
41.03
57.74
71.59
80.42
82.08
74.84
57.78
31.22
-2.91
-40.66
-76.15
-102.2
-112.05
-101.46
-70.81
-25.54
25.08
70.99
104.71
123.53
129.48
127.24
121.38
114.47
106.65
96.76
83.62
66.87
46.87
24.26
-0.18
-25.35
-49.6
-70.76
-86.74
-96.3
-99.6
-98.03
-93.59
-87.96
-82.09
-76.28
-70.54
-64.93
-59.49
-54.09
-48.48
-42.5
-36.5
-31.42
-28.47
-28.48
-31.18
-35.12
-38.08
-37.95
-33.57
-25.21
-14.38
-3.25
6.09
12.24
14.89
14.81
13.63
13.31
15.51
21.03
29.62
40.13
51.03
61.2
70.33
78.94
87.8
97.21
106.44
113.93
118
117.9
114.42
109.88
107.28
109.21
116.86
129.77
146.09
163.18
178.04
187.67
189.54
182.37
166.83
145.7
122.96
102.27
85.15
70.24
53.93
32.25
2.88
-33.69
-74.55
-115.95
-155.14
-191.41
-225.82
-260.19
-295.64
-331.88
-367.07
-398.21
-421.84
-434.64
-434.09
-418.7
-388.45
-344.83
-290.61
-229.23
-164.03
-97.64
-31.78
32.4
93.66
150.09
198.95
237.32
262.91
274.83
273.86
261.97
241.48
214.31
181.41
142.85
98.56
49.57
-0.8
-46.59
-80.18
-94.71
-87.06
-59.74
-20.79
18.94
49.57
65.6
67
57.86
43.38
27.08
9.52
-11.08
-37.01
-69.44
-107.5
-148.31
-187.55
-220.21
-241.56
-248.13
-238.65
-214.52
-179.78
-140.19
-101.99
-70.7
-50.27
-42.52
-46.89
-60.4
-78.16
-94.35
-103.82
-103.73
-94.49
-79.38
-63.02
-49.47
-40.85
-37.16
-37.08
-39.09
-41.97
-44.8
-46.54
-45.87
-41.54
-32.98
-20.73
-6.42
7.85
20.28
30
37.11
42.37
46.51
49.84
52.02
52.4
50.41
46.02
39.79
32.69
25.67
19.36
13.89
9.12
4.84
0.99
-2.34
-4.98
-6.73
-7.31
-6.35
-3.47
1.57
8.62
17.09
26.09
34.74
42.47
49.11
54.73
59.34
62.75
64.58
64.57
62.82
59.93
56.83
54.48
53.49
53.99
55.6
57.63
59.35
60.24
60.19
59.46
58.56
57.91
57.6
57.28
56.32
54.1
50.47
45.92
41.41
38
36.35
36.37
37.25
37.83
37.08
34.65
30.97
27.09
24.15
22.91
23.29
24.44
25.06
23.88
20.14
13.83
5.84
-2.22
-8.21
-9.91
-5.61
5.05
20.46
36.98
49.71
54
47.06
29.19
3.83
-23.21
-45.35
-56.88
-54.17
-36.03
-3.42
41.2
94.32
151.33
206.44
252.7
283.03
292.11
278.58
246.39
204.33
163.53
133.88
120.92
124.59
140.23
160.86
179.61
191.31
192.99
183.94
165.4
140.33
112.9
87.55
67.71
54.68
47.25
42.15
35.31
23.17
3.63
-23.84
-58.32
-97.77
-139.22
-178.83
-212.15
-234.72
-242.81
-234.48
-210.17
-172.93
-127.76
-80.33
-35.65
2.72
32.82
53.63
64.37
64.08
51.89
27.61
-7.59
-50.96
-98.47
-145.46
-187.34
-219.96
-239.87
-244.69
-233.71
-208.48
-172.95
-132.91
-94.68
-63.56
-42.72
-32.79
-32.14
-37.66
-45.63
-52.58
-55.9
-54.26
-47.64
-37.23
-24.89
-12.67
-2.29
5.07
8.83
8.94
5.79
0.26
-6.32
-12.33
-16.23
-17.04
-14.73
-10.34
-5.72
-2.91
-3.54
-8.35
-16.95
-27.88
-38.88
-47.27
-50.6
-47.32
-37.56
-23.41
-8.45
3.42
9.66
10.27
7.88
6.39
9.04
16.68
27.48
37.93
44.73
46.28
43.04
36.9
29.89
23.35
17.62
12.55
8.04
4.28
1.65
0.28
-0.24
-0.94
-3.11
-7.75
-15.04
-24.06
-33
-39.76
-42.73
-41.41
-36.61
-30.05
-23.76
-19.26
-17.16
-17.05
-17.84
-18.14
-16.68
-12.56
-5.29
5.16
18.46
34.03
51.12
68.86
86.44
103.16
118.49
132.11
143.85
153.53
161.05
166.45
170.08
172.69
175.33
178.86
183.38
187.89
190.38
188.52
180.7
166.89
148.8
129.42
111.83
98.12
88.83
83.12
79.4
76.04
71.49
64.01
51.53
32.11
5.12
-27.61
-61.39
-89.8
-106.88
-109.32
-97.51
-75.04
-47.07
-18.67
6.03
23.78
31.96
28.79
14.02
-10.18
-39.24
-67.34
-89.38
-102.59
-107.09
-104.94
-98.68
-89.91
-78.94
-65.53
-50.03
-34.31
-21.8
-16.57
-22.08
-39.93
-69.17
-106.38
-146.21
-182.47
-209.36
-222.84
-221.68
-207.87
-185.95
-161.51
-139.15
-120.95
-106.02
-91.26
-72.88
-47.98
-15.63
22.73
63.63
102.21
133.31
152.83
158.79
151.99
135.63
114.03
91.14
69.31
49
29.32
9
-12.97
-37.11
-63.58
-92.02
-121.22
-148.69
-170.97
-184.49
-186.85
-177.85
-159.61
-135.78
-110.07
-84.73
-59.79
-33.51
-4.05
28.66
61.9
90.86
110.62
118.41
114.92
103.65
88.94
73.82
58.89
43.32
26.97
12.3
4.4
8.88
28.65
61.28
98.85
130.12
144.46
135.7
104.35
57.39
5.57
-40.53
-74.05
-93.45
-102.16
-106.23
-111.47
-121.06
-134.54
-148.04
-155.81
-152.38
-134.9
-104.96
-68.8
-35.69
-14.87
-12.24
-28.35
-58.66
-95.78
-132.64
-164.59
-189.62
-206.91
-215.17
-212.24
-196.16
-167.2
-129.03
-88.21
-51.93
-25.23
-9.12
-0.47
6.38
16.94
33.97
56.31
79.47
97.6
106.12
103.47
91.4
73.76
54.63
36.73
20.99
7.35
-4.1
-12.21
-15.04
-10.91
0.47
17.5
37.02
55.49
69.93
78.67
81.41
79
72.99
65.15
56.92
48.78
40.04
29.17
14.54
-4.63
-27.69
-52.66
-76.75
-97.33
-112.59
-121.59
-124.13
-120.48
-111.35
-97.96
-82
-65.3
-49.44
-35.29
-22.94
-12.03
-2.16
6.87
14.99
21.96
27.43
30.99
32.11
30.25
25.13
17.04
7.02
-3.29
-12.22
-18.6
-22.1
-23.24
-22.91
-21.86
-20.27
-17.74
-13.51
-7.05
1.62
11.72
21.9
30.71
37.01
40.35
40.98
39.69
37.51
35.44
34.25
34.28
35.44
37.22
38.79
39.27
37.96
34.6
29.27
22.29
13.95
4.41
-6.14
-17.31
-28.29
-37.77
-44.33
-46.84
-44.82
-38.65
-29.43
-18.57
-7.39
3.17
12.64
20.88
27.81
33.31
37.22
39.44
40.16
39.91
39.49
39.66
40.93
43.31
46.38
49.45
51.87
53.23
53.38
52.39
50.38
47.4
43.53
38.94
33.94
28.97
24.4
20.39
16.8
13.34
9.7
5.87
2.08
-1.29
-3.88
-5.55
-6.49
-7.11
-7.87
-9.27
-11.6
-15.1
-19.75
-25.27
-30.99
-35.92
-38.88
-38.86
-35.29
-28.23
-18.33
-6.65
5.67
17.58
28.3
37.28
44.19
48.99
51.87
53.33
54.02
54.68
55.96
58.33
61.94
66.61
71.87
77.05
81.45
84.46
85.76
85.34
83.48
80.56
76.98
72.97
68.68
64.16
59.42
54.41
48.97
42.87
35.83
27.65
18.37
8.28
-2.13
-12.39
-22.23
-31.65
-40.77
-49.66
-58.05
-65.37
-70.88
-73.95
-74.19
-71.67
-66.69
-59.75
-51.36
-42.01
-32.22
-22.51
-13.33
-4.96
2.57
9.48
16.1
22.7
29.35
35.92
42.15
47.82
52.88
57.4
61.51
65.17
68.13
69.96
70.28
68.92
66.11
62.38
58.35
54.49
50.95
47.63
44.37
41.1
37.9
34.97
32.47
30.4
28.57
26.6
24.13
20.91
16.89
12.27
7.4
2.64
-1.72
-5.59
-9.1
-12.52
-16.23
-20.57
-25.81
-32.04
-39.09
-46.39
-52.92
-57.43
-58.73
-56.1
-49.67
-40.34
-29.59
-18.93
-9.52
-2.04
3.31
6.58
7.9
7.43
5.46
2.42
-1.14
-4.64
-7.6
-9.76
-11.05
-11.54
-11.41
-10.88
-10.28
-10.01
-10.47
-11.96
-14.61
-18.28
-22.67
-27.36
-31.9
-35.77
-38.28
-38.6
-36.08
-30.62
-22.89
-14.31
-6.3
0.38
6.21
12.63
21.17
32.38
45.25
57.55
66.73
71.1
70.41
65.67
58.43
50.12
41.79
34.39
29.03
27.1
29.93
38.23
51.56
68.37
86.46
103.75
118.86
131.2
140.64
147.11
150.51
150.93
148.84
145.29
141.34
137.4
132.67
125.42
113.79
96.83
75.11
50.52
25.54
2.75
-15.16
-25.28
-24.72
-11.67
13.12
45.43
78.21
103.56
115.37
111.16
92.14
61.76
23.96
-17.51
-58.51
-93.66
-116.57
-121.83
-107.55
-76.85
-37.2
2.47
35.3
58.44
72.72
80.44
82.89
79.23
67.4
46.05
16.24
-18.33
-52.59
-81.91
-103.29
-115.52
-118.51
-112.43
-97.29
-73.25
-41.33
-3.99
34.91
70.99
100.53
121.56
134.11
139.81
140.89
139.28
136.29
132.66
129.03
126.03
124.12
123.13
121.97
118.74
111.3
98.19
79.23
55.74
30.12
5.01
-17.51
-36.45
-52.11
-65.81
-79.35
-94.15
-110.57
-127.5
-142.56
-152.96
-156.73
-153.71
-146.01
-137.38
-131.89
-132.28
-138.86
-149.44
-160.35
-168.12
-171.03
-169.69
-166.73
-165.41
-168.33
-176.32
-188.07
-200.32
-208.65
-208.58
-196.99
-173.43
-141.01
-105.84
-75.46
-56.11
-50.16
-55.11
-64.73
-72.24
-73.67
-69.41
-63.38
-60.2
-62.34
-68.73
-75.68
-79.08
-76.41
-67.54
-53.85
-37.15
-18.85
0.05
18.67
36.13
51.87
66.08
79.58
93
105.67
115.2
118.15
111.36
93.01
63.51
25.6
-15.98
-54.99
-84.52
-98.42
-92.97
-68.37
-29.36
15.94
58.27
89.8
106.09
106.77
94.9
75.5
53.81
33.87
17.7
5.08
-6.08
-18.58
-34.74
-55.21
-78.61
-101.89
-121.48
-134.48
-139.61
-137.65
-131
-122.99
-116.78
-114.34
-115.78
-119.32
-121.9
-120.38
-112.85
-99.46
-82.64
-66.28
-54.34
-49.31
-51.23
-57.5
-63.85
-65.97
-61.01
-48.59
-30.69
-10.62
8.19
23.34
33.73
39.4
41.01
39.5
35.88
31.33
27.15
24.54
24.33
26.56
30.41
34.37
36.78
36.43
33.04
27.34
20.92
15.55
12.49
12.02
13.25
14.65
14.62
12.3
7.81
2.2
-3.13
-7.17
-9.74
-11.62
-14.08
-18.19
-24.09
-30.75
-36.19
-38.22
-35.35
-27.37
-15.47
-1.74
11.44
22.15
29.11
31.83
30.4
25.46
18.21
10.22
2.93
-3.09
-8.65
-15.89
-27.22
-43.66
-63.48
-81.78
-91.79
-87.29
-65.29
-27.61
19.45
67.23
107.7
135.82
150.46
153.46
147.89
136.47
120.92
102.36
82.13
62.27
45.18
32.72
25.33
21.78
19.73
16.85
11.73
4.41
-3.91
-11.64
-17.53
-21.22
-23.28
-24.85
-27.09
-30.66
-35.57
-41.31
-47.22
-52.79
-57.75
-61.9
-64.91
-66.14
-64.73
-59.97
-51.64
-40.26
-26.99
-13.29
-0.44
10.73
20
27.49
33.46
38.06
41.3
43.15
43.67
43.26
42.62
42.68
44.32
48.05
53.72
60.35
66.39
70.33
71.49
70.68
70.09
72.54
80.14
93.02
108.88
123.4
131.77
130.2
117.15
93.8
63.68
31.82
3.72
-15.81
-23.77
-19.84
-6.8
9.92
23.65
28.54
21.66
4.27
-18.48
-39.39
-51.97
-52.77
-42.19
-23.52
-0.76
23.22
47.24
70.89
92.91
110.51
120.03
119.15
108.84
93.73
80.5
74.94
79.24
90.98
104.16
111.51
107
87.58
53.77
9.67
-37.8
-80.04
-108.59
-117.4
-104.86
-74.82
-35.78
1.7
28.46
39.54
