125.73
121.02
-36.454
9.7673
-4.9622
25.62
14.548
-53.865
-35.268
-13.007
-57.443
-29.097
155.88
60.976
-70.763
-57.625
-44.978
-42.152
-12.159
-56.518
-63.503
-19.467
-2.1207
-16.44
56.624
70.161
-32.314
-16.947
38.344
-34.503
-62.586
-43.502
-33.052
77.761
123.19
-4.5035
37.529
148.21
10.806
-66.518
-44.714
13.426
14.491
-27.521
-26.861
-69.147
63.963
121.9
-43.799
-33.866
-20.146
-30.901
-148.36
33.967
111.88
-76.495
-55.839
21.259
-21.605
-55.135
79.418
64.366
115.29
89.7
-56.77
-143.01
-202.97
-79.308
136.86
71.876
21.044
-14.543
2.7172
-31.333
36.738
117.89
173.48
26.817
-153.46
-138.96
21.075
8.8945
-57.487
14.666
86.016
39.874
-5.7069
-108.19
-94.571
51.251
47.045
-28.016
47.134
55.309
-65.22
-42.154
32.76
70.113
24.934
-45.119
-32.331
-33.693
-32.016
-24.909
31.545
106.94
-33.858
-115.41
-1.4859
65.718
1.6741
-35.032
69.15
60.867
-53.187
-47.229
10.991
78.748
44.269
-36.269
-97.941
-73.434
79.53
118.94
13.468
-31.581
-21.629
-18.664
-116.12
-68.245
0.62345
-119.36
-18.073
83.396
-0.83984
121.17
181.38
12.795
-16.204
10.353
28.543
57.244
-15.342
-157.08
-22.04
-42.604
12.963
-11.583
22.267
115.35
4.4938
-4.8506
-78.837
-91.65
102.65
123.14
19.328
34.483
-15.337
-182.53
-130.64
2.6036
72.203
21.773
75.072
6.3081
-16.693
-23.894
-93.713
58.585
139.31
134.07
36.203
-147.36
-255.55
33.429
121.8
-8.8816
-12.375
31.88
-26.017
-10.286
56.144
-49.773
-38.69
-40.241
53.681
54.25
45.904
96.694
48.477
-114.62
-146.06
-8.1223
96.365
68.851
-152.69
-56.78
52.158
-9.5065
41.644
44.282
-35.882
-28.296
15.715
88.618
10.232
-122.71
-24.129
72.091
-29.527
-79.424
14.254
114.98
66.232
-162.35
-229.88
108.57
140.99
8.368
-15.272
7.2776
21.996
-7.6337
1.8806
4.3091
-16.79
-13.382
33.457
2.2627
7.8617
0.097958
-1.0132
15.844
-6.6469
-26.803
10.258
32.904
17.122
-80.503
44.056
38.508
29.72
-57.407
-60.411
77.497
-17.265
16.369
-14.398
20.38
25.377
-45.12
27.213
39.02
-64.01
13.19
87.103
-13.062
-75.898
-89.856
-21.341
-43.251
28.728
-42.141
38.809
76.211
-64.579
-9.1095
214.36
42.132
-163.89
-12.914
62.203
8.2948
-63.912
16.282
5.9332
-28.169
12.411
33.396
-63.014
-45.198
205.93
86.17
-56.322
-48.95
-58.25
-29.473
26.334
47.955
-56.43
0.50463
6.6022
-99.648
-2.5611
52.905
-52.738
57.204
63.443
-0.47099
-159.56
151.93
46.541
-115.94
-58.933
-65.183
153.81
-1.3917
-100.8
41.299
22.539
-47.151
106.11
136.45
-115.71
-63.488
187.33
-32.708
-65.987
10.996
11.77
-133.46
-21.853
-38.471
10.845
19.458
20.438
56.371
91.517
24.072
-112.42
-61.36
-7.398
-44.201
2.2882
103.07
66.436
-98.394
-143.86
71.413
65.202
10.449
-81.386
82.585
25.587
-75.613
-50.251
86.65
59.151
-52.718
-12.438
73.447
11.183
-53.522
63.189
62.646
24.255
-25.614
-136.38
25.878
-112.22
21.924
79.04
-55.563
24.445
95.198
-12.332
-49.151
-44.689
-120.67
47.06
188.75
11.519
-96.482
-116.79
81.494
14.745
-83.996
101.07
90.299
20.695
20.879
83.275
35.242
-51.682
-31.335
45.447
-36.121
-71.331
-103.85
13.555
-81.14
-66.298
-6.841
74.656
102.94
-8.4223
63.287
-10.254
-72.499
4.2899
-16.014
-25.796
-75.136
93.605
105.91
-8.8189
26.084
-53.494
-44.717
69.519
-114.36
-62.556
203.32
51.495
-187.06
-21.189
124.64
-23.457
68.026
-96.924
-45.585
-0.095112
-55.6
78.48
13.623
10.786
-15.589
-11.31
-139.69
-49.059
177.27
114.35
-85.951
-29.666
-19.871
-12.93
28.324
-16.558
-16.996
-32.145
55.604
112.74
-10.557
-31.616
-17.295
35.365
-0.25183
-85.889
-17.028
-8.4582
82.392
42.181
-24.566
-30.897
-85.702
-57.418
103.4
136.64
-40.427
-31.142
20.263
-91.268
68.447
-7.4125
-108.75
41.991
-31.307
-21.396
98.195
47.259
-59.196
-8.0638
-48.944
-32.885
121.04
16.372
-104.63
43.252
84.525
-38.51
-15.068
70.252
16.312
-64.895
-14.952
12.865
-49.682
-12.893
171.18
-7.6481
-84.263
54.884
-2.4836
11.068
16.955
25.475
4.1147
-64.724
-50.23
-8.617
13.196
-30.581
-31.948
-15.489
2.6219
16.178
-5.1982
33.196
4.6142
-32.599
9.2465
8.1279
-43.909
-39.749
77.468
56.027
-42.385
-26.983
25.257
41.197
-22.729
-19.248
9.1041
10.751
-20.05
-11.339
20.117
-4.7231
4.834
-15.126
5.8332
17.242
-19.487
-14.202
-44.45
-15.49
18.532
45.756
24.428
-12.219
4.3935
-11.055
-11.492
28.894
-1.9722
-60.794
-9.9939
-7.9768
0.34837
47.93
-23.18
-6.101
33.71
23.389
10.664
-58.309
6.8333
23.472
7.2247
-39.35
-9.2416
42.643
28.918
-6.9745
-17.34
28.984
15.014
-22.71
-13.61
18.874
6.84
-24.95
26.177
-4.2584
-28.101
-7.9441
-3.1413
26.138
-3.3557
-26.24
16.63
-6.7007
-8.9266
8.0344
-2.9515
12.536
-3.1993
-9.1216
-18.399
3.7942
28.018
-4.8464
-23.473
23.634
4.2301
-25.275
4.2421
19.781
0.95117
-28.262
15.236
16.71
-11.56
-8.756
36.884
5.1002
-28.603
-0.57519
12.46
-8.133
-17.79
15.152
5.8432
-23.276
8.2981
16.063
-18.286
-8.4754
19.784
2.0651
-20.724
2.6324
30.544
-15.144
-19.901
29.002
4.6463
-23.589
8.1622
15.821
-24.239
-0.051184
19.277
-14.444
-11.982
27.759
-3.6292
-24.648
20.157
7.7961
-20.509
-10.956
37.636
5.485
-35.778
8.6024
15.311
-22.776
-7.4418
24.946
-10.789
-0.57038
25.346
-16.021
-12.329
27.068
4.4715
-35.087
14.583
29.531
2.6724
-35.505
11.543
21.653
-8.9903
-27.319
15.237
18.433
-13.05
-15.499
12.457
4.738
-13.299
-20.289
21.408
-7.0889
-8.7337
30.202
-6.1447
-25.017
4.3786
8.0422
-22.666
-0.83513
16.559
-21.688
-16.901
27.9
17.083
-34.659
22.224
57.374
-12.077
-32.08
-0.089643
25.192
-22.727
-13.869
16.933
-7.2947
-13.214
17.461
19.682
-24.608
6.0596
22.672
-11.773
-24.668
22.993
14.376
-28.306
-10.886
34.568
-11.676
-25.382
16.746
12.426
-26.241
6.4585
19.902
-27.954
-5.0494
21.76
12.704
-40.406
6.6196
31.971
9.8123
-39.667
0.55126
35.913
17.261
-11.293
-11.017
8.1737
-5.3298
-15.296
13.862
10.582
-12.796
-20.97
11.328
2.5537
-11.858
-1.4642
28.197
-24.575
-20.399
19.626
-0.75225
-15.041
6.2314
6.9085
-27.506
6.333
24.374
-21.394
-11.848
26.399
13.714
3.2362
-1.1466
21.091
-0.62016
-47.818
-2.0459
54.871
-50.667
-33
29.731
-1.5958
-27.27
12.863
57.682
-9.5605
-27.051
18.227
0.75876
-21.158
30.46
6.7497
-32.784
21.979
0.080771
-47.741
17.215
41.452
-35.88
-50.803
83.446
50.467
-11.921
-47.825
22.422
40.384
-24.445
-17.99
4.6278
18.991
-20.872
-33.089
24.426
-7.1469
1.1183
11.677
-28.884
-5.8294
28.021
20.126
-36.642
-15.745
19.573
-4.4367
9.1622
8.1667
18.02
-24.134
0.5959
-3.4582
-17.254
3.253
34.047
-9.8872
-36.198
-14.41
28.436
-6.3975
-19.625
22.154
6.6564
-32.102
6.8141
24.463
-14.625
-6.2494
12.464
28.242
-31.407
-12.093
25.183
-5.2877
-28.756
16.543
18.148
-18.198
-16.825
23.489
9.8678
-21.632
-2.3592
24.993
-10.452
-16.672
17.344
14.366
-23.83
8.6543
24.106
-4.8739
-2.4989
7.3811
-18.575
31.615
-13.115
31.97
-54.233
3.8354
32.092
-9.1167
-28.409
-1.8393
40.372
-43.663
22.542
15.81
-35.694
10.44
-1.0539
-35.653
16.794
21.553
-35.907
6.025
36.122
-14.613
-26.393
31.149
17.468
-34.042
-6.2871
27.765
7.6873
-38.249
34.229
36.911
-42.354
-15.063
13.955
6.6087
-31.622
11.07
25.835
-22.839
-15.404
47.838
-7.9925
-20.176
16.472
-0.056794
-40.81
2.0336
46.552
-11.439
-21.648
20.367
5.4124
-32.358
-8.982
28.202
9.4701
-30.152
7.7082
39.324
-21.98
-21.113
43.563
15.269
-40.063
-4.0253
26.515
0.50342
-10.64
-4.554
15.481
-14.039
-4.2326
20.114
0.26972
-27.717
-11.993
24.211
-7.5574
-24.175
19.369
11.031
-25.51
4.9926
25.076
-10.616
-21.807
14.34
-0.86381
-6.1596
5.8319
30.282
-3.6307
-50.738
-3.8708
50.669
-10.368
-20.548
23.1
16.135
-31.326
-0.58863
28.179
-11.661
-31.316
20.631
27.723
-20.331
-25.109
21.784
14.034
-30.149
-4.0858
34.981
-1.3358
-19.742
48.982
-21.094
-35.956
-3.5435
27.183
-20.357
-21.077
22.954
48.899
-25.027
-27.205
25.682
8.6368
-29.081
-5.9273
15.418
-26.231
-5.9845
35.552
0.90353
-29.531
13.907
23.562
-1.274
-30.944
15.286
29.656
6.5737
-46.378
31.086
41.944
-73.564
4.225
18.049
-12.161
-23.409
30.666
-0.16177
-38.1
70.538
-24.476
-5.5032
-39.361
19.82
25.991
-21.477
-7.5256
17.964
-0.76782
-25.97
10.602
15.464
6.2288
-35.606
8.8243
17.499
9.4595
-37.648
26.223
17.59
24.262
6.9436
-38.092
12.928
-12.959
-18.534
7.7823
8.1765
-28.545
21.688
26.619
-51.009
-34.398
31.487
47.011
-27.9
-9.0593
45.23
-33.954
11.228
-3.7377
40.512
-2.5985
-27.633
12.696
-21.259
-17.822
-8.8744
-0.73556
-17.749
7.4789
11.538
48.468
3.48
-11.056
3.671
-14.606
-23.086
2.7231
18.75
15.429
-7.0768
1.706
-29.626
-16.733
15.672
8.4782
-26.981
3.9883
24.241
1.7878
-15.579
7.0646
13.288
-0.70054
-13.907
4.0033
15.738
-9.4965
-7.3367
12.966
13.202
-20.629
-9.1897
18.156
-6.943
-12.527
14.548
9.8096
-11.852
-4.5561
13.885
-3.7973
-10.996
11.104
4.0684
-24.013
6.933
20.664
-15.641
-9.0912
18.269
18.059
-2.8227
-15.381
13.15
4.564
-24.723
-18.827
14.479
-10.274
-8.9723
17.462
14.83
-16.302
-12.785
38.733
0.25499
-24.056
22.071
15.516
-8.7631
-22.495
15.108
36.997
-13.555
-18.947
8.3572
3.9489
-29.675
-13.523
17.887
14.013
-10.888
-15.963
19.196
9.988
-15.835
-1.7163
19.736
-2.1369
-21.654
11.877
24.992
-6.817
-12.524
12.14
-4.4613
-59.347
8.5806
15.485
4.4208
-22.575
17.436
36.519
-16.013
-0.78498
20.243
16.452
-32.755
-34.769
24.403
27.515
11.006
-1.175
-17.516
-52.82
-7.384
30.406
2.7148
-16.656
24.591
52.11
24.226
6.1235
-12.396
-41.494
-33.247
13.882
-8.2154
-41.628
11.163
-13.216
-22.67
27.396
36.458
-16.33
22.149
20.014
-67.331
65.507
-34.849
-27.787
33.423
4.7899
-17.446
-28.075
11.132
34.075
-2.7528
-12.234
6.1909
-20.902
25.465
44.943
-14.987
-31.348
1.1762
1.9433
-10.459
29.782
31.302
-4.3433
-22.545
11.186
13.297
-42.564
-35.99
25.036
9.1208
-9.3188
26.183
8.8631
-30.385
-14.171
53.868
33.688
-58.956
62.669
9.8361
16.001
-140.91
-3.8609
24.565
-87.204
8.3814
53.359
31.015
4.9325
8.7769
-14.084
17.717
-1.3814
-34.555
50.253
-48.59
-17.495
19.926
15.553
-20.906
29.941
22.129
-7.5637
-3.5272
24.456
-6.6871
-27.618
10.688
12.787
-38.732
2.5361
32.491
-2.0203
-17.449
13.326
14.832
-20.186
5.9392
10.852
-26.763
-7.0698
13.993
-6.3948
-19.193
-1.0473
39.075
-2.4775
-37.48
55.807
15.422
-0.9895
21.61
-6.5779
-66.33
77.195
-75.666
-125.3
97.528
14.388
61.041
-0.24586
-77.718
21.622
6.3993
-101.04
-62.992
34.8
56.225
27.315
-44.361
-103.09
75.993
154.8
101.89
-64.485
-3.0777
19.997
30.905
-9.307
16.471
19.189
-32.852
-24.023
7.074
-15.368
-14.929
7.3597
-10.135
-15.817
-6.7768
1.4034
-16.318
0.9139
4.41
-25.118
-0.67186
19.647
-48.697
-12.74
29.344
-8.465
-18.763
5.3658
16.851
2.898
-19.077
7.7127
29.696
-10.463
-14.093
13.267
19.109
1.9031
-25.193
13.018
9.7576
-4.5316
-12.475
-1.488
27.146
-3.9847
-34.667
19.801
31.31
-6.7504
18.41
-27.288
2.3996
11.818
-21.376
13.113
-5.1863
-18.549
14.785
4.3363
-23.85
6.2793
9.5756
-19.967
3.2289
16.865
4.8965
-22.185
14.799
1.6925
-1.4407
-8.3366
11.228
9.906
-19.516
-1.0712
6.2743
-13.199
-8.7444
19.602
20.525
-26.746
-14.742
24.926
2.9452
-31.196
-14.252
18.913
12.972
-27.837
24.57
36.945
3.3643
-54.483
34.025
81.249
-46.733
-19.187
-16.203
-40.462
-0.71418
-5.1769
2.4576
44.189
14.98
-26.958
-0.96046
32.98
-15.476
-32.758
19.026
23.477
-28.503
-54.77
36.821
23.677
-21.426
-14.337
24.517
7.0265
-18.362
7.106
6.8211
-18.122
13.035
-0.44692
-21.665
16.513
9.9937
-31.25
19.554
27.85
5.1574
-33.782
7.8735
24.681
4.7877
-34.324
7.4228
26.53
0.85119
-12.036
-0.51245
11.527
-45.05
-48.649
52.508
19.704
6.1842
-7.7609
2.7102
4.2449
-13.587
8.0586
5.4743
-1.5939
-15.234
16.695
52.543
-37.786
-39.311
18.238
-2.9471
22.103
15.781
17.62
-43.37
-65.863
20.405
-30.641
38.85
62.244
61.358
-92.458
-107.05
66.753
9.5207
18.859
38.587
8.9408
-19.947
8.9568
36.736
-41.46
-30.858
30.793
-28.013
29.33
7.3806
3.8644
23.9
57.626
-12.686
-74.75
-53.204
29.104
15.616
-46.958
11.428
26.869
6.1992
-18.261
91.66
16.366
-77.713
-66.956
-8.9816
-3.7913
-2.7294
35.213
-2.0712
23.147
10.508
-37.098
-31.731
10.125
29.647
-22.991
-8.9116
16.389
17.571
47.957
11.332
12.892
-23.734
-62.326
-1.1597
16.027
-4.3785
18.15
-2.7869
-59.201
-46.986
12.114
9.4125
-8.3364
41.922
32.005
-7.8313
-11.718
29.957
24.166
-6.0841
2.6558
23.285
2.637
-26.726
6.6085
-3.0102
1.3203
-31.92
-26.348
9.4764
1.3188
16.869
-14.067
18.71
38.478
10.438
-27.826
3.4639
43.663
-44.289
-28.277
22.745
28.072
-16.618
-23.855
12.767
12.599
-19.396
-8.4599
39.643
8.7537
-31.295
-9.852
-15.562
26.992
-30.672
11.868
40.966
-47.172
-31.165
15.707
16.242
-5.591
-8.3218
23.75
-6.3965
-0.75643
18.793
-18.486
10.537
17.532
9.7379
6.857
-38.622
-4.7252
12.003
6.0924
-10.611
-16.132
20.651
5.7821
-28.243
32.794
-17.451
2.0242
10.204
-9.6098
-6.8238
16.947
13.517
-9.1334
-0.18475
-5.7446
-17.195
13.342
15.361
-22.525
64.27
-15.013
-12.446
-56.462
-78.953
-77.308
-103.22
184.6
61.166
18.468
176.99
-68.488
-64.989
47.685
2.7716
-124.68
116.44
23.938
-14.985
-73.818
-15.075
53.707
-36.481
-57.727
133.43
59.945
-2.9111
-131.75
3.4348
89.649
-41.785
-84.225
7.4438
4.8704
-0.38458
44.762
-32.867
-19.54
-65.92
79.483
96.283
-59.657
-104.15
14.277
91.128
43.973
-16.193
-39.929
-43.38
-49.417
52.054
10.041
-9.4464
52.584
-11.139
31.316
-88.064
-59.951
-17.693
107.61
-39.883
-77.236
119.85
123.14
48.451
14.515
-19.646
-43.521
-31.445
-12.717
-3.2459
-16.658
-13.875
23.37
-13.515
-32.717
-5.8791
-26.483
-151.28
44.708
104.58
17.517
14.867
-50.599
-15.404
22.905
-53
-6.2295
23.822
-41.354
58.371
72.308
83.526
53.089
-19.703
-18.653
-51.524
-15.411
-20.378
7.2598
-8.3028
39.591
144.69
-45.03
-158.48
-16.073
44.262
40.932
-30.219
-28.656
-36.675
73.238
-17.361
-89.958
-0.17508
60.484
91.085
-57.173
-102.82
-30.525
97.409
25.376
-40.264
-23.847
-7.3115
-48.431
49.462
35.568
-29.444
-143.92
-157
0.041239
241.43
-5.4714
-48.951
97.401
29.579
71.034
25.831
31.782
-28.482
-0.98401
-1.4069
22.782
-18.861
-44.746
13.024
46.568
31.079
-57.598
-82.924
-66.752
32.508
61.632
11.421
3.2299
-37.807
-10.753
27.621
-5.0108
-20.576
-35
4.9839
-30.996
-5.6656
-49.134
-95.531
105.48
126.39
-81.436
0.16873
35.274
25.813
16.159
61.004
30.523
-76.182
29.016
-20.199
-36.58
-61.71
6.9506
62.911
-1.1977
-47.703
38.56
56.202
10.564
15.447
-16.364
-62.166
-81.559
-19.591
80.39
29.982
5.405
47.888
47.469
28.607
-5.4635
-46.998
-23.717
-1.2662
-67.195
8.8606
13.612
-48.003
-42.999
28.59
7.3797
19.329
55.895
2.0852
11.15
-21.849
-3.9464
-25.449
18.573
20.706
-33.679
6.2524
14.376
-20.918
-8.5253
20.085
-16.924
-9.4327
2.3616
5.9951
-1.5866
8.3494
12.346
-19.788
-5.8527
6.8016
5.2861
-21.126
12.124
21.865
-15.999
-2.7691
-1.7209
8.2944
22.664
-38.185
-5.8974
8.2245
-12.101
0.23779
11.058
-0.27702
-14.563
33.947
37.293
-42.177
-6.8415
-16.44
3.9467
30.824
-12.735
-9.5327
8.4064
21.096
-19.958
6.8983
15.254
-9.3046
-50.693
33.494
26.441
-13.077
-14.549
-0.99103
-19.519
-0.33833
21.135
19.555
0.89623
-9.0471
1.581
-33.728
11.606
12.358
-10.043
-26.774
3.0241
12.126
-9.6564
13.06
19.692
-21.297
0.61425
2.6509
5.3266
16.57
-29.543
26.205
25.74
-8.9334
-14.801
12.634
-8.1056
7.6389
-19.295
15.505
16.065
-16.765
-18.828
17.409
6.306
-9.7018
-13.042
13.124
18.543
-17.372
2.8142
15.619
-3.2548
-33.553
1.2804
29.728
-26.896
-8.6785
15.658
-12.397
-16.561
22.926
-4.7826
-14.275
14.094
25.529
-14.486
-21.777
27.027
18.625
4.1188
-35.914
14.698
22.052
5.5056
-21.7
0.84675
17.255
6.0683
-20.802
-0.43335
15.334
-24.204
-26.33
27.207
10.293
-11.745
-15.072
8.1273
20.738
-12.394
-11.258
21.124
6.1018
-24.918
-15.33
20.975
1.0939
-12.678
-2.6719
15.197
-1.3485
-25.913
18.386
19.881
-17.024
-1.1628
19.091
-14.088
-5.2391
13.904
12.156
-35.969
11.469
31.517
1.7205
-22.926
0.17796
20.078
8.126
-17.206
-16.297
11.3
5.3452
-31.162
1.7365
34.983
-14.479
-12.092
15.424
8.8666
-20.512
-0.74249
26.222
1.7282
-14.084
14.87
8.3565
-41.345
14.085
15.379
5.4199
-0.64574
-13.984
-3.0564
-18.984
-7.1594
-9.9821
-13.667
5.8777
14.513
-11.567
-4.7553
19.757
18.133
-16.665
-12.51
13.383
-15.347
-146.03
-220.11
158.36
224.53
9.7174
-183.3
-1.2267
157.25
40.841
34.447
50.8
31.915
-83.193
46.302
215.86
-93.147
-69.783
154.12
168.04
-443.13
-117.41
27.77
-78.815
31.708
4.0367
30.063
20.829
-30.162
51.511
-39.278
54.294
16.083
1.7472
51.96
-41.909
31.281
4.4778
-19.314
44.186
-32.374
20.921
14.397
-23.136
31.25
-20.669
18.555
6.469
-22.529
12.928
-49.209
22.247
1.9655
-23.999
31.124
-27.545
58.007
43.727
-94.841
14.848
-13.163
13.673
-28.534
-28.577
9.6102
7.4497
38.98
-10.361
-0.15316
47.99
-11.739
38.445
-11.6
4.5266
139.39
170.59
40.858
-184.45
75.777
-84.508
-148.51
-106.36
-61.459
-111.51
-183.6
-8.1643
190.54
74.839
-9.4714
27.35
-145.74
-169.78
243.23
-103.62
1.5551
-47.389
72.812
76.684
7.5715
98.387
-2.0608
81.527
-20.232
30.842
24.597
14.736
43.091
-44.865
0.32578
-48.746
5.2204
-28.294
-15.142
-39.87
19.384
70.605
8.5136
32.499
73.663
96.988
67.733
-86.985
45.17
15.717
-28.234
39.525
40.812
-377.46
-253.94
120.17
-201.75
-95.306
131.98
-3.8337
25.823
16.381
55.31
263.4
82.987
-78.788
74.256
-68.143
75.505
-11.644
87.085
153.21
-120.44
-153.81
-52.438
84.1
22.381
-90.91
-99.243
42.997
6.2407
-72.979
56.501
-4.4247
-129.84
65.869
55.75
-146.34
-131.91
-23.756
2.0633
-45.304
79.962
76.94
93.12
33.356
-83.335
-25.553
150.71
88.646
23.007
9.0001
-55.01
48.755
6.307
-44.758
78.752
-6.7782
11.238
35.337
-54.445
-3.944
-20.935
43.951
33.383
-39.3
82.695
-205.82
-61.429
168.06
-4.4653
7.1767
7.0484
38.415
-0.79383
97.437
159.02
-32.779
-106.74
-62.712
-51.145
-43.249
-35.129
-18.062
-12.85
-21.444
1.2629
-11.436
-15.823
3.6696
-1.2034
19.32
4.2496
-15.602
-4.8941
2.0758
-20.647
-13.226
-2.6928
-2.1873
4.6954
-3.9333
-7.9406
2.8532
3.3204
-11.53
13.24
13.357
-6.8644
-9.6104
16.468
7.172
-11.29
-4.9494
0.59622
7.0613
43.727
-10.483
-8.6273
-13.108
-12.6
-59.44
4.3492
85.68
33.747
-13.205
-26.731
-19.889
62.831
-29.139
-12.654
14.321
-10.907
8.741
-20.69
-56.903
9.3525
56.359
24.103
-8.5708
10.763
-40.433
-37.065
52.567
-3.461
-18.392
2.7918
2.2096
-10.661
-7.4421
12.402
12.006
-3.2761
6.4809
15.688
-9.2809
-13.215
17.504
17.372
-1.1537
-7.8852
16.399
-7.9779
-11.165
-3.8005
-19.771
-0.42538
14.689
5.2444
-21.062
9.9407
15.075
5.8036
-11.518
-6.8755
18.174
2.6855
-6.8454
-16.195
14.486
20.454
0.27294
-20.197
6.7376
2.2811
-7.122
-16.433
12.227
-5.5403
71.451
-4.051
-30.678
-15.313
-19.496
1.3488
10.659
2.0078
-11.257
5.4688
7.3624
-9.3545
-7.5448
17.722
-9.4159
-10.489
12.001
3.0559
-10.154
-9.7291
15.023
9.9806
-5.7272
6.2874
33.904
-34.497
-39.514
5.3656
42.758
34.377
-42.523
-37.729
28.923
-228.98
-15.002
211.99
-36.015
-20.203
-7.6803
-91.893
172.96
138.06
-29.544
8.5407
-48.891
8.118
93.068
-114.18
12.373
107.31
-52.753
-40.015
-25.523
43.048
32.475
2.2124
-35.259
-47.453
-12.382
19.81
9.7881
-31.694
14.44
4.3369
-5.4178
-15.137
55.431
-2.7172
-41.105
-13.803
-15.998
-16.139
1.2289
4.8435
-35.321
96.616
39.765
-87.136
-45.102
31.376
-42.058
-45.859
-12.891
123.01
11.941
-23.112
6.7971
-13.183
31.735
41.206
-32.444
-35.316
-5.1429
2.4775
-21.734
7.8957
0.684
-9.3457
6.5373
13.7
-9.199
-12.24
19.331
9.27
-19.914
-2.9143
21.175
8.6286
-19.576
-4.903
2.51
32.436
-13.133
-3.2354
8.9514
-9.3566
-11.514
8.3932
-0.72305
-17.122
52.71
17.137
-57.627
-9.7676
24.499
-11.943
-12.597
13.29
11.648
-19.99
22.327
-14.22
4.7281
5.2243
-27.55
21.4
8.1751
-12.902
-3.7676
14.697
-2.3087
-4.366
11.314
-5.9526
-13.397
12.165
-5.5193
-20.837
16.438
13.066
-22.619
1.5013
30.116
15.342
-29.16
-10.513
27.471
5.6155
-28.512
1.8789
25.164
-14.63
-19.797
27.01
42.627
-41.231
-4.4701
4.846
5.6585
26.959
-12.432
-7.3529
-107.19
-219.96
69.586
227.96
22.734
14.294
36.182
-10.916
-38.162
32.558
15.042
-14.659
-24.017
3.6972
-9.9067
-1.2077
12.947
2.0251
-11.033
-5.456
2.3507
8.5354
7.3894
-2.6012
-7.1338
-34.561
-7.0389
17.469
12.593
-19.699
-34.83
13.423
15.239
3.1502
-7.6489
11.85
5.7913
16.426
40.369
-16.229
-31.047
-39.782
14.637
28.353
21.38
-4.0783
-34.639
-27.743
35.005
-14.463
3.5135
4.2692
-9.8049
-8.171
8.6156
-1.6632
-13.879
0.45151
9.1808
-1.6981
-10.448
8.5499
5.0428
-7.593
-2.9334
12.032
-8.9285
-11.104
-7.5174
41.253
-6.0629
-5.8583
-5.1621
-3.1991
9.6129
-9.5139
-8.9657
15.083
7.4906
-14.864
-8.522
12.79
9.6459
-10.129
-6.5761
34.551
-0.81957
-8.5606
-13.958
8.0485
6.8054
-3.7862
-10.489
11.23
2.2835
-14.131
-28.198
32.985
6.0951
-9.1303
15.161
-3.7245
-9.02
1.4684
5.0635
-15.67
-0.99387
8.1758
-8.6972
-5.3733
15.097
6.4196
-17.243
-45.017
-2.678
61.257
20.719
-7.3051
8.132
7.2547
-3.3534
30.503
-1.6453
-30.57
-19.814
2.8929
6.2753
-10.661
-14.923
18.379
27.65
-34.082
4.2013
10.305
1.1942
-6.1235
0.17549
-18.481
-6.0019
34.398
1.8452
-2.8224
-12.185
-5.9087
9.8405
-0.18201
-8.3613
0.5
9.5301
-4.5304
-6.1257
4.5065
12.259
-13.8
-9.8045
13.337
6.8187
-14.431
-1.3995
13.365
-2.5103
-10.432
6.9435
7.7559
-8.3471
-4.6257
9.1077
0.11761
-10.322
5.2026
4.0865
-11.523
0.14153
9.9626
-12.09
-7.6013
11.439
7.6951
-10.656
2.5717
14.892
11.73
-2.4657
3.7225
-8.5437
-40.169
29.082
25.886
-14.017
-20.716
-2.058
11.595
-17.197
-1.7077
15.841
2.5881
-19.278
8.3919
15.615
-9.4419
-23.888
14.728
17.963
0.2694
-25.501
8.5165
23.267
-3.7884
-16.514
14.854
9.4686
-10.972
-1.742
20.937
9.982
-14.043
-63.609
64.034
23.36
-33
-12.449
7.1524
7.718
-15.814
1.5737
10.382
-4.6809
-27.747
-7.9854
53.28
-14.715
-2.2367
3.162
-16.814
3.9399
9.4523
-1.5924
-13.732
6.3755
7.4086
-5.8313
-11.437
15.537
2.4035
-10.017
-3.6768
9.0448
1.8434
-10.927
-1.5003
16.68
2.5266
-14.091
0.36984
20.192
-5.8694
-11.009
5.8195
1.4654
-14.356
-0.25685
10.266
-2.4723
-11.163
9.006
12.127
-17.289
-7.4494
15.742
-37.592
39.18
36.406
-18.243
-1.6264
-17.953
2.9585
9.9283
-13.436
-6.0844
11.675
0.92451
-12.98
10.844
18.04
6.6067
-31.247
5.2018
51.215
-52.215
-37.584
20.825
22.008
-4.7485
4.2947
-1.5209
-16.083
6.4094
1.6124
-11.857
-3.4741
3.6389
9.6562
14.582
4.0903
-1.2647
-11.249
-14.157
17.38
7.5036
-14.727
-0.7419
13.834
-15.282
-10.994
11.095
3.8334
-29.555
-3.5341
61.178
-18.626
-14.881
16.963
5.3616
-13.375
-3.1505
12.11
-8.0533
-9.3253
13.718
-5.5712
-15.821
16.562
1.6725
-16.861
6.5392
15.665
-4.9866
-19.275
15.724
11.437
-2.797
-7.9958
9.4932
10.07
-6.7917
-4.0101
-26.911
21.103
18.647
-15.995
11.038
-16.64
1.6932
11.532
-11.688
-9.4364
7.9416
1.9625
-14.942
10.564
1.3986
-10.917
-0.79407
-12.576
39.049
6.8377
-8.7367
-21.976
6.04
0.30913
-13.727
52.371
-21.816
-55.021
-8.1361
47.081
38.572
-20.527
-24.036
16.805
6.2124
-17.124
-2.9338
11.164
1.8498
-25.077
6.8415
13.901
-8.2521
-19.591
9.6852
20.666
-12.799
-13.31
20.246
3.0727
-14.528
2.8723
9.9316
-12.005
-7.2853
20.856
-6.7045
-17.447
15.184
14.094
-11.422
-29.685
18.142
50.475
-25.151
-0.032914
25.247
3.086
-31.035
6.5117
4.1005
-18.469
11.04
17.703
-12.652
-31.488
-65.691
23.062
44.149
19.429
4.5938
-0.15966
18.142
10.785
-10.468
-17.983
-20.295
-0.82553
6.5137
0.057508
-10.709
10.833
10.11
-1.7952
-12.161
8.6946
3.0375
-3.7414
-3.273
13.153
7.6155
-21.895
-2.4707
10.873
-2.2258
-8.5871
56.443
8.8829
-34.941
-19.261
12.673
-30.555
-75.127
40.928
24.525
11.972
12.016
53.734
-52.581
-48.641
37.139
8.5973
-4.9376
-14.358
21.431
13.885
39.582
21.822
-72.272
-47.649
61.172
37.017
-21.46
-11.765
-18.916
3.74
-18.024
-31.582
43.135
0.57335
1.8582
-14.226
-1.7491
13.39
-1.885
-13.705
10.546
10.164
-7.4338
-14.689
16.597
1.8314
-17.028
7.6441
13.476
-4.4652
-15.855
14.836
6.701
-14.183
2.5374
13.914
-1.783
-16.701
8.8451
12.51
-6.8603
-7.6655
10.5
-0.1638
-12.182
10.358
1.4627
-17.179
11.256
1.6839
-18.194
9.5311
5.9235
-18.66
10.332
16.341
0.379
-15.955
8.6909
15.482
-0.11164
-27.637
7.8876
-31.483
23.788
36.608
-2.9253
-0.79686
-18.865
6.591
7.2094
-41.494
12.206
48.589
-16.784
-14.077
-3.2555
14.446
-10.498
-11.391
10.501
-6.4612
-7.9744
14.738
-7.5276
-8.9818
11.239
-1.1297
-10.427
15.21
4.8377
-13.893
7.14
4.5546
-12.212
-0.86212
8.4062
-5.6518
-3.1942
6.7239
1.7416
-10.216
14.15
6.3753
-13.528
0.40935
1.4665
-37.869
30.354
33.431
-10.463
-21.248
2.4029
14.191
-3.7269
-16.398
7.6616
6.7613
-8.997
-2.0539
10.907
-9.242
-10.018
12.85
-3.326
-11.9
11.357
-3.4275
-12.565
10.823
11.869
-16.607
-1.6214
16.862
2.5218
-16.985
9.9329
13.545
-11.824
-2.3026
18.089
-6.4161
-10.857
12.641
-5.3678
-15.941
-23.5
55.998
9.8338
-21.048
15.935
-1.7594
-9.6759
-6.5758
13.932
2.3037
-14.64
1.3145
10.001
-7.462
-17.718
14.382
0.80124
-18.253
4.8834
11.323
-14.78
-6.3541
-8.3514
35.152
-4.3693
-4.4527
12.439
-18.803
-5.6353
16.182
10.184
-15.929
2.4979
16.149
-10.498
-14.129
-35.443
-8.8388
60.65
-3.2243
1.6709
1.4516
-17.197
-0.90436
10.325
-8.9348
-4.0119
13.154
-3.794
-11.87
11.501
-7.9835
-9.85
16.443
-1.4802
-12.207
6.6894
17.022
-0.96905
-3.6666
5.1021
2.8949
-43.598
25.722
31.331
-14.456
-10.993
4.1561
4.4877
-6.9098
-2.0275
1.6894
-7.6122
3.275
8.6588
-16.603
-5.522
-25.852
39.82
15.866
-5.7239
1.8259
-14.079
5.5288
12.45
-7.8372
-4.0953
3.8457
-0.61098
-2.7488
-0.33268
9.1872
-11.342
-3.1931
-12.222
-21.922
48.51
3.2404
-0.30167
-10.117
3.0368
4.0289
-3.2321
-6.4572
1.3161
2.5235
-7.9135
-2.8297
14.926
-5.2387
-6.612
-15.594
17.048
4.0812
-5.2715
4.0056
-5.3175
1.5736
1.7552
3.3601
-1.9267
2.1881
6.936
-8.5032
-4.3406
5.7279
4.1833
-15.884
-5.4879
14.691
0.85366
-9.8495
0.25814
5.0456
0.50807
-14.579
11.091
4.1369
-9.0147
-2.9514
6.2366
-11.492
-1.092
14.684
-1.5382
-11.998
12.475
-8.2543
17.938
0.12683
-9.2123
15.17
5.7969
-6.9607
-9.7645
1.5444
-14.114
4.2953
0.86842
39.338
3.4819
-26.522
-2.4106
14.462
-1.4265
-13.926
-4.5625
11.275
-3.3599
-8.807
-21.502
20.123
14.015
-12.252
11.785
-3.8813
-9.5051
0.93456
8.8585
-19.386
-19.009
42.382
-8.7083
-14.323
10.48
4.886
-11.909
2.3557
14.979
0.85398
-10.627
3.1885
12.801
0.27087
-21.051
-2.0388
15.403
-3.5038
-21.903
-15.377
41.365
2.464
-17.648
5.5451
10.783
-4.4753
-9.9346
8.1452
2.7701
-11.144
0.15056
9.3137
-3.8185
-10.551
4.79
7.8593
-10.045
-7.5859
12.988
11.656
-11.238
-13.052
12.082
11.014
-7.3308
-11.636
10.981
-7.5653
-4.4544
27.8
5.0188
-3.5811
-15.438
-2.0583
9.2729
2.097
-8.0622
1.4571
3.206
-9.1199
-1.7811
8.1543
-22.198
1.2087
27.44
-10.668
-19.171
7.1646
14.265
-12.667
-3.7845
13.617
5.5276
-15.372
10.811
11.842
7.2161
-21.004
-1.2681
11.98
0.65393
-20.733
-1.9296
13.229
-5.1256
-5.3266
9.4884
6.1859
-17.597
-9.4452
16.341
-2.1338
-1.9119
-20.928
-10.688
56.234
-7.462
6.4907
3.2487
-12.35
0.90057
1.5919
-32.011
6.3996
47.547
-17.358
-23.329
18.307
-12.204
-15.644
-15.598
25.422
-6.6637
1.7067
16.85
1.2769
-6.4439
6.4968
11.716
-28.188
1.2509
41.957
-23.157
-7.7121
13.58
0.49481
-15.066
3.5296
6.4502
-21.061
-19.386
43.161
1.7011
-18.242
10.743
-3.2438
-6.2324
8.5962
-4.9624
-11.186
12.242
-7.7976
-8.5635
15.407
5.311
-19.408
6.9342
18.013
-4.899
-16.565
9.1874
10.689
-7.9949
-9.9494
16.628
4.2835
-15.22
2.9501
17.171
-15.239
-12.039
17.228
-0.20765
-12.861
9.6466
4.0923
-23.928
-1.1522
26.767
-2.484
-19.228
16.693
9.8288
-26.863
2.5788
18.829
-12.795
-12.807
23.868
3.73
-26.059
7.1379
13.505
-2.874
-19.67
18.842
4.3009
-17.291
5.4377
19.35
-12.071
-12.484
23.517
11.527
-20.591
-2.6368
17.03
1.4951
-14.554
7.0081
9.0032
-12.814
-4.0884
15.486
-7.8176
-15.638
13.7
4.9877
-17.184
-1.5341
16.246
-6.7954
-9.8804
10.476
2.1068
-13.432
-7.7263
6.7272
21.784
-9.822
8.6877
2.1637
-17.648
0.11762
16.484
-3.1762
-17.124
2.8895
10.602
-6.8142
-6.4229
5.9381
-2.0091
-4.6254
5.983
2.9026
-16.135
-0.0207
-8.8245
9.0518
11.189
4.4704
-7.561
-9.7531
9.1331
10.038
-8.5209
-29.301
-11.618
43.605
7.3065
-11.242
8.2125
3.5429
-9.3716
-3.2477
14.298
1.2953
-13.468
-0.11934
14.304
-1.8371
-3.0676
4.1041
-2.5798
-6.7643
-2.4189
9.9908
-3.3402
-13.244
5.0488
12.374
-3.4736
22.065
11.405
-26.324
-24.794
26.876
20.047
67.029
-69.931
-39.598
2.7086
-26.482
13.696
29.144
-76.69
50.056
57.865
12.864
-83.869
-22.803
51.041
-18.812
43.079
-51.56
-41.236
19.879
22.699
14.626
17.365
18.156
-28.745
1.4887
41.733
6.6007
-44.287
-1.5906
7.8441
-9.1847
-7.8378
15.172
12.935
-19.92
-11.425
12.05
-3.2961
-10.328
8.7091
5.4988
-13.613
10.802
-1.1264
-0.98423
13.008
7.7456
-8.68
-6.2825
0.35516
-8.4221
21.571
-3.4696
-35.881
33.621
42.444
-57.765
-56.298
31.908
31.026
-61.218
13.299
89.539
7.9699
-98.334
48.252
44.044
6.3447
-5.674
-31.34
17.285
-19.541
-111.4
-92.149
26.656
63.804
82.551
-10.787
18.53
30.546
-9.5402
29.526
28.979
-77.568
47.686
-73.954
-34.09
35.934
80.123
104.02
-109.62
36.285
-40.59
12.139
-2.2968
62.188
5.2423
-30.557
10.038
-206
-35.172
38.691
64.041
21.624
-23.806
69.691
52.871
-58.634
-39.299
33.242
33.077
-16.62
-91.401
-210.49
-87.289
264.19
127.83
5.1474
97.333
33.267
36.051
-21.967
-44.524
-66.399
-44.196
-148.45
-77.258
99.382
-5.6377
127.73
116.37
-7.6073
-1.8365
-64.978
-28.657
-117.73
-41.707
104.51
74.686
16.596
-105.27
-33.094
81.601
16.712
12.334
-5.4075
-30.283
29.587
-6.4664
84.037
32.719
0.96728
-38.232
-5.7162
-23.005
-117.94
40.455
7.813
18.073
2.5872
-63.043
93.789
76.56
44.057
-33.426
63.365
-22.496
25.992
-194.74
-137.39
118.09
-80.81
-6.7929
30.188
-8.5337
78.796
168.08
-63.123
-144.15
-0.55546
4.475
-22.602
51.03
33.037
-30.35
36.202
16.343
-35.524
100.53
104.34
73.173
26.16
40.568
-34.95
-105.44
-74.039
-287.34
-277.27
141.87
167.14
93.811
22.531
-74.674
-134.53
-67.687
64.193
-8.6964
57.211
90.255
-11.972
41.683
63.396
-28.363
50.55
177.6
180.64
-123.75
-56.587
32.826
-9.4337
-5.8077
-111.42
-62.296
-174.94
-39.342
-46.756
-50.231
3.1751
-10.648
-25.249
114.43
68.532
-68.22
121.81
224.73
86.868
-199.88
-79.03
118.26
104.54
-8.8274
-25.948
-84.839
-54.483
-12.902
12.614
-42.423
-69.835
-107.95
-246.08
-240.6
301.78
184.4
162
144.89
92.157
31.609
-188.94
-66.345
103.72
47.554
-27.917
-49.539
11.453
-83.785
-58.211
-141.34
7.9744
36.829
45.469
70.698
-73.204
64.507
46.404
-41.104
-74.685
44.642
9.9511
-133.82
48.288
167.98
59.87
-99.067
5.443
-97.571
29.444
29.972
-30.584
71.359
-19.32
88.013
-17.426
23.812
5.636
-7.9121
20.02
-107.89
-31.726
18.778
29.449
-66.443
2.1815
15.711
17.966
81.549
-93.389
-58.975
-16.15
-27.59
41.391
131.72
-49.257
-50.323
135.41
80.028
23.945
-6.8938
-47.355
-73.838
-20.345
10.241
101.26
6.4942
-89.864
-54.285
-17.383
-5.2209
-45.898
-1.6013
39.153
73.078
56.883
-64.853
-2.9766
-30.518
-34.116
78.148
-85.421
20.065
-9.0938
-78.813
-86.781
18.871
100.5
7.7936
20.556
85.436
-78.29
23.827
67.112
45.051
31.134
-39.112
-16.676
-8.8284
-50.715
-33.531
-12.33
4.2125
56.681
-80.522
12.551
75.517
24.305
-5.6818
-180.43
-73.626
40.969
50.976
6.2078
111.79
90.686
-64.917
57.369
-7.5909
-59.205
-12.68
21.996
-9.0893
-27.061
51.571
80.587
-124.31
-48.366
77.234
-13.881
-52.437
96.623
32.815
-112.8
0.35006
18.663
0.9056
-61.418
88.306
-55.918
-47.258
5.875
64.722
63.342
-23.882
-5.0033
-22.632
-29.467
22.342
-71.168
3.9667
26.92
74.421
69.806
-42.469
-73.038
-64.81
68.075
25.134
3.7038
-3.2493
-41.136
-9.1573
64.949
-11.33
-5.1121
1.153
2.7059
20.115
-41.185
-18.03
-21.586
10.457
15
-7.6045
8.5507
-3.2282
-3.1372
15.083
-14.171
0.47256
11.436
8.1825
-17.46
-9.8934
28.669
-9.7295
-2.2441
-18.715
-80.568
50.207
105.36
2.3952
12.919
-68.22
21.661
-3.5256
-57.367
79.123
-50.628
-18.248
80.91
-3.3045
-16.598
-34.309
-41.052
55.967
31.451
-2.619
-12.577
-14.168
-16.345
-65.816
-71.099
147.06
109.37
-152.67
-48.001
90.64
11.767
-121.6
51.105
55.983
60.843
51.344
-62.702
-94.003
7.2956
7.0741
41.269
-9.5057
-46.628
56.605
106.46
-46.134
-78.128
-43.427
-29.523
100.79
-108.41
59.683
61.054
-15.917
-34.43
-59.203
26.912
86.732
-62.505
25.726
39.464
3.7659
-45.316
-53.662
-67.967
66.859
199.35
-100.47
-70.267
34.741
44.582
-82.674
57.115
23.302
-50.644
60.828
-8.0551
-158.03
47.775
91.437
-11.128
63.196
-31.693
-69.341
28.267
-89.094
-70.962
43.395
73.055
118.27
-61.594
7.3975
34.44
-59.388
66.826
7.5112
-61.838
19.623
-42.392
20.533
71.006
-30.221
-132.05
40.066
46.387
36.172
-92.887
16.809
88.485
-42.408
47.625
-87.946
-62.916
175.22
-23.578
-141.14
61.921
79.243
3.4255
18.698
-29.76
-128.07
54.507
-50.117
-15.693
71.665
-12.077
-16.267
-44.484
-25.01
111.44
8.4014
-74.792
41.581
75.313
37.854
-118.6
97.347
104.31
-51.168
-67.722
11.559
11.922
-100.52
-34.501
36.813
-40.578
-22.885
39.365
50.22
43.585
-31.726
-103.51
-39.579
54.034
63.337
39.506
107.24
-13.868
-113.78
11.997
-23.962
32.667
-6.5166
36.303
-103.46
14.502
26.338
-86.748
64.629
64.673
-26.396
-39.604
71.147
12.316
-32.643
-9.3078
-53.613
-19.681
48.259
30.214
-3.9312
-20.85
-72.772
1.3537
-5.0297
120.55
10.317
-51.415
6.4513
-109.49
16.347
128.07
-85.559
20.338
81.339
24.042
-76.973
37.274
-6.0921
-6.1493
-11.678
-16.079
1.9059
-94.751
-11.39
8.7469
80.643
114.82
-17.16
-192.41
-36.018
126.94
23.17
-12.398
26.451
21.671
-37.961
-7.0513
28.081
5.0532
6.8455
12.718
-9.3773
-27.075
9.2368
14.673
-18.942
-28.2
-29.798
47.49
20.261
-38.948
7.2791
18.065
9.9671
-1.4776
-1.4376
-19.279
-26.07
-7.864
-1.3333
42.549
-9.2152
-33.889
-7.5285
36.287
18.354
-68.221
-106.01
-103.71
171.31
57.488
40.912
99.913
35.819
-45.178
-15.462
27.937
12.185
-19.213
-37.497
-21.527
-177.56
79.379
149.27
-44.404
-37.759
2.5672
-7.7423
7.5096
-18.592
-27.228
-24.689
-164.92
-123.66
-13.817
-16.982
115.11
-76.957
20.252
17.305
6.8844
327.97
60.356
6.3241
55.124
-20.658
47.821
-35.32
1.1822
45.405
-17.274
32.53
15.173
-51.987
3.4404
13.271
-61.011
-5.9006
17.985
-28.816
-3.1291
29.266
-52.963
-1.5491
39.76
-40.204
-23.477
-10.894
-6.8515
33.845
-9.7044
155.37
6.9124
-236.09
178.48
13.567
-41.619
-27.239
-191.87
-291.27
136.79
400.16
264.67
-123.16
-188.96
-63.613
7.6322
-11.893
48.151
5.7026
-115.13
-15.967
21.353
28.975
-37.928
-8.4107
-16.309
-12.565
8.6424
72.086
40.166
-37.44
-93.061
9.3776
10.603
-2.9094
-24.974
-24.917
53.258
27.169
-0.83986
-39.826
-165.09
-525.33
172.14
362.86
77.753
-55.357
64.067
47.803
-79.385
3.3785
90.269
-167.73
491.34
462.64
-612.57
-115.56
-98.273
-29.793
101.88
-7.2258
-2.8276
20.972
0.10783
43.828
-39.422
1.9179
-12.86
-129.79
151.47
135.69
-67.607
-77.935
78.329
4.8989
228.58
349.32
-20.237
-48.593
-62.484
-185.1
-269.78
-99.234
-62.833
4.8162
-7.9932
-2.5965
-11.276
-15.8
-21.496
16.124
15.304
-3.197
0.31457
-0.078208
-2.6778
2.288
-0.096627
-14.177
-5.4634
-74.358
-176.73
-64.299
172.48
-66.914
-107.01
-14.275
47.54
10.974
203.49
89.593
29.563
109.75
-50.741
118.95
77.748
17.308
-6.6202
-43.311
-4.0161
-39.356
33.879
37.868
-18.905
-47.363
68.51
70.548
-45.266
32.559
-35.229
-34.303
61.571
-48.814
51.481
74.287
-198.63
-49.66
150.92
-101.49
-0.48521
43.442
-89.036
-80.399
19.609
125.37
129.27
-95.094
-138.43
-25.608
-97.912
-108.9
96.321
35.498
-26.346
79.296
5.1433
-32.398
44.807
-85.008
59.884
49.168
-48.31
54.978
-27.939
-41.513
20.068
-30.833
-17.544
62.658
-15.324
-111.08
16.706
78.322
-27.182
53.541
106.83
7.5677
-28.985
36.966
6.4656
-42.661
45.101
-9.8348
-61.363
36.22
20.073
-63.291
-11.506
15.733
-54.1
-2.462
78.208
-26.456
-75.502
-27.462
-83.255
-113.4
26.305
65.654
60.692
130.27
30.9
-130.34
9.6151
95.439
60.909
101.07
18.789
-76.842
-7.3076
34.166
-55.58
25.93
16.431
-82.765
-37.56
22.801
-11.105
6.5266
50.369
-16.375
-15.175
31.768
35.846
-45.586
-95.776
-23.941
-41.799
22.654
71.624
-10.239
-8.2255
51.099
-34.62
9.7154
75.225
23.469
79.762
-16.33
-191.34
-43.993
117.56
-66.341
10.287
25.204
-24.923
-18.217
28.151
98.055
33.209
-95.077
-57.453
-73.133
-25.603
59.064
49.906
18.163
81.424
29.496
-108.8
-80.409
22.555
18.3
10.085
58.341
32.185
-21.879
-36.779
-37.494
39.08
-23.796
-30.516
-16.882
-3.9636
48.021
-17.975
119.64
77.403
-206.22
-70.13
48.674
15.476
-7.1868
51.141
29.422
45.157
19.805
-102.73
-91.109
23.97
35.886
9.6205
134.29
36.243
-143.63
-60.565
18.915
-43.457
43.226
108.46
30.267
105.18
-73.12
-119.57
-47.006
18.207
98.666
24.269
-11.528
-31.666
-92.326
-41.968
50.76
57.395
15.311
58.76
2.5625
-172.55
-137.03
57.611
71.475
-2.4715
89.56
28.952
-140.36
-71.682
101.47
61.919
53.934
61.868
-10.313
-55.71
-45.341
-114.36
-34.228
132.74
17.006
77.741
68.198
-61.906
3.9432
-152.84
-71.757
63.352
68.156
57.534
34.636
-11.11
112.97
8.3023
-266.64
-145.71
58.332
78.312
69.811
127.73
-110.35
-173.99
45.151
19.303
17.829
60.659
-12.302
80.187
105.37
-118.68
-82.435
140.96
-103.6
-129.37
135.79
109.24
91.201
-92.969
-142.7
-60.905
-10.097
69.954
23.32
-20.886
32.582
113.76
22.281
-106.06
-45.869
46.865
-19.935
57.653
100.83
-135.02
65.439
137.91
-125.59
-190.46
-79.811
207.78
98.367
-215.45
-218.87
59.285
145.35
139.88
74.23
12.943
19.504
-63.635
-67.851
-81.733
62.671
60.425
-284.29
-201.57
282.94
50.129
54.343
15.018
-38.781
-51.563
-5.1012
48.923
202.14
81.381
-71.719
130.98
-211.33
-194.98
-170.83
188.23
269.99
17.254
-135.28
-147.68
-203.06
252.49
179.14
69.492
-98.042
-410.31
-32.728
200.74
46.785
251.87
69.873
-79.643
94.79
-168.37
-127.02
-230.41
107.36
108.35
215.92
48.569
-133.91
28.019
35.549
-144.54
-139.59
-26.999
-57.582
7.9214
114.38
-6.6373
28.451
63.216
6.9603
-41.206
60.41
28.253
8.3938
35.4
1.9131
122.48
165.58
-206.41
-190.34
46.001
29.242
-1.3756
44.763
28.075
186.09
-101.02
-77.588
132.73
-198.37
-134.66
-114.24
7.5019
-5.0318
59.912
59.469
23.538
117.1
1.8595
5.51
-13.763
13.805
118.05
-71.28
-35.607
45.875
-102.82
-61.838
-61.461
-49.597
62.616
56.023
-19.14
25.589
33.536
14.099
98.557
-16.693
-146.24
2.2057
74.076
-24.913
-28.366
28.486
-18.91
9.3933
27.184
-20.717
39.739
68.386
19.146
-33.74
-127.71
-45.008
59.037
65.061
-15.229
26.799
42.34
-38.96
-60.317
23.912
52.635
-3.8421
-20.296
-2.9107
29.698
-54.29
-55.716
52.515
53.678
77.909
-50.93
-133.55
-68.027
38.701
56.205
98.751
-3.5863
-82.669
73.243
-98.837
-93.505
-27.735
3.305
54.706
120.76
124.71
143.57
-26.242
-177.54
-53.711
31.748
-50.913
-61.003
29.259
-22.434
-47.435
26.632
0.23491
-36.956
21.702
-19.118
-3.7689
27.358
-36.846
32.108
7.569
-32.495
58.966
-25.949
-109.17
20.64
83.666
46.825
4.1933
146.54
-22.908
45.819
19.057
-176.93
-148.8
-106.64
78.537
68.978
1.9056
26.919
-18.884
8.6122
20.77
-12.488
41.339
14.805
-24.379
22.288
0.69405
14.063
38.293
-9.7575
0.82248
-15.279
2.2402
30.59
-3.0801
10.741
25.525
-25.95
-12.771
5.5277
-12.507
15.136
35.896
-18.239
-12.316
-11.438
-33.898
-7.7562
19.725
-19.951
-5.187
33.301
-17.441
11.901
45.406
90.5
186.23
-19.647
-234.12
-178.31
93.149
40.348
-21.398
-150.69
-92.535
86.563
11.563
78.482
94.68
23.616
-129.26
-8.4656
58.136
20.714
85.726
9.908
-60.531
-0.99673
-14.599
-15.92
10.702
-14.114
9.1237
3.9193
-23.831
24.513
5.894
10.315
33.413
-27.265
-31.44
-58.246
-36.379
26.357
-2.2624
23.375
46.568
-39.617
-10.345
13.916
-23.428
37.916
59.967
-51.048
-62.802
-16.481
-11.92
47.557
-24.688
7.8103
-27.731
-33.063
56.104
-0.3872
43.355
51.219
-10.409
17.767
-12.975
48.3
-29.108
-5.651
16.581
-15.453
25.402
-26.408
46.506
-30.695
-15.929
-11.297
-11.488
7.802
-91.749
23.102
-1.1173
28.978
-21.981
-64.947
57.775
55.075
46.232
7.8978
-8.1791
14.582
-34.093
-1.551
-24.111
-17.944
36.05
-23.401
18.655
-21.91
-55.832
-16.674
-28.595
74.38
9.0847
-10.849
32.92
-18.452
49.093
-21.335
8.686
42.414
45.495
29.908
-85.69
-0.65648
37.177
-91.168
-44.601
-9.8475
9.1172
69.19
-3.2988
29.795
-2.7183
-15.022
16.516
-36.308
104.53
-81.232
-46.809
10.157
-30.734
12.108
-46.52
-4.0323
-23.252
-8.7053
13.625
-22.308
50.054
-16.344
100.44
66.687
-122.23
-84.563
52.88
84.912
-42.563
27.769
-37.209
11.709
-46.3
39.518
29.411
1.8068
0.5958
-16.201
-3.0388
-39.649
56.235
39.866
26.345
33.518
-62.188
-54.958
-59.294
25.24
52.119
-34.266
21.772
-29.697
-5.7174
35.872
-48.645
41.98
15.569
-30.133
56.382
2.4191
81.121
93.086
-146.6
-140.64
19.78
13.826
-8.2727
50.987
24.72
-23.239
47.521
-29.847
25.776
-11.866
-10.13
25.825
-42.082
6.5132
29.813
-31.483
14.935
-2.7806
-27.138
34.83
-36.347
6.3655
33.917
-32.126
15.805
-5.7681
-27.317
20.246
-24.114
31.657
6.6885
-30.7
44.061
7.5173
-25.736
20.193
-26.056
-12.177
20.426
-10.628
-11.829
10.545
-33.426
-15.139
47.493
-36.738
9.2289
48.568
-26.174
-14.991
97.381
30.567
-20.578
1.1024
-40.179
-21.044
-11.246
-55.444
-18.495
25.123
-45.905
19.133
54.517
-78.053
12.084
41.011
-50.114
48.151
55.829
-33.165
17.325
49.161
-43.636
-5.6702
31.726
-54.942
20.846
23.242
-36.6
38.861
-0.83521
-4.0179
-0.12629
-74.923
12.339
49.885
-47.774
26.333
21.299
-21.66
27.378
-6.8235
-23.194
43.569
-2.6005
-15.542
23.628
-17.63
36.702
46.412
-21.066
-67.447
-33.062
28.944
11.858
-35.491
120.44
37.095
-5.1814
-79.394
-151.54
6.4708
14.5
-4.283
77.909
30.642
-139.91
-38.722
-56.914
37.66
83.207
-11.976
63.848
34.907
33.815
59.163
2.7623
-49.384
9.4409
-22.006
-46.571
18.942
33.055
139.26
-25.843
-134.24
-15.003
-31.251
0.34048
11.996
-0.90431
82.729
-184.31
-29.056
75.225
-59.413
51.249
43.843
20.613
-31.39
-41.76
56.238
72.3
-69.272
33.194
37.791
-37.661
28.777
136.56
-102.61
-12.539
106.51
177.25
-189.41
-186.1
3.7376
-140.34
19.337
-11.977
25.346
20.936
-39.933
40.794
24.697
-23.933
61.54
-11.831
66.396
-28.309
-6.9761
74.317
-27.923
6.2079
42.381
-25.701
-10.852
39.595
-2.5953
-11.056
20.175
-22.602
-17.346
74.506
-2.4081
-51.855
0.19446
-7.5323
-29.243
4.2283
-9.5544
-25.491
22.79
-23.876
0.69766
25.016
2.9312
44.237
-28.803
-78.318
16.295
16.498
-45.383
25.197
14.544
-37.399
47.31
36.948
-54.191
31.438
57.168
-35.687
-11.364
17.245
-12.734
23.647
67.31
-8.53
1.1035
-85.707
-26.021
133.07
1.6323
-126.33
-54.982
16.552
-27.509
8.4066
-6.1161
21.243
167.31
130.58
-82.803
-24.039
-48.092
-77.308
-62.56
-54.661
-53.318
29.462
32.867
40.147
40.222
73.382
45.302
26.255
19.868
-93.704
-102.12
-19.619
-59.131
8.7966
-30.768
-95.202
112.56
87.446
-10.598
7.4904
10.583
-38.845
68.953
-21.757
-93.004
132.75
-8.9562
-66.347
231.18
-83.159
-197.78
-88.475
-170.7
85.254
121.72
74.186
191.36
-54.152
-34.337
27.695
-200.49
65.548
-3.9132
-19.642
5.2754
17.532
-64.218
97.645
74.287
-6.5166
64.894
-18.924
-10.38
21.108
96.899
2.8311
-108.01
-67.039
4.9148
20.588
-5.0661
5.7179
27.096
40.487
123.56
-50.765
-188.29
-98.877
13.201
93.915
45.275
263.49
-62.822
-175.92
-99.81
-90.822
69.112
159.42
192.07
99.156
-50.488
-226.57
-118.88
43.724
59.952
-4.8
135.17
-116.49
-164.01
71.845
4.2578
-44.153
-110.05
-126.41
147.95
-14.116
11.05
177.54
-154.21
-4.8227
-8.1117
-33.065
106
-62.065
-5.9332
-7.4656
-7.4375
89.037
12.36
30.508
-6.7276
-77.852
16.976
15.551
75.017
-0.93678
-51.875
82.715
-88.48
-1.5856
-45.272
-35.145
116.87
-42.446
55.247
63.397
-14.217
40.015
-108.14
-102.65
83.154
164.09
30.238
-212.63
-95.412
-0.44877
70.819
16.273
-125.33
66.951
248.95
86.726
-142.03
-141.12
-133.89
-73.016
33.951
4.1111
99.018
18.238
-9.8977
56.281
-33.933
42.693
-0.9379
-2.0703
61.335
-16.947
58.189
33.042
-34.492
47.117
12.179
174.75
-26.032
-116.31
-12.972
-18.815
-51.329
38.133
-72.928
-167.56
25.855
39.772
37.084
10.659
5.2297
0.32072
44.262
-11.444
-6.1551
31.55
-39.233
5.4862
38.674
-25.513
-6.8386
41.907
9.3412
22.997
28.601
-29.018
-4.6067
13.973
79.987
0.16033
-33.786
-148.01
-104.44
-6.2156
2.3939
119.24
49.106
-51.931
-5.7556
30.123
86.591
123.09
-38.881
-277.59
65.851
38.802
-64.713
142.97
-1.1316
-129.61
-20.538
-53.34
31.444
-0.23956
30.346
-9.2824
-4.7797
17.29
-8.3401
43.656
-13.688
36.506
36.154
109.61
73.243
-178.77
-99.567
-29.394
34.791
50.517
17.392
-1.9826
-28.813
24.399
-6.9556
-42.702
19.447
2.213
5.3142
35.073
-28.566
-24.435
36.097
11.791
-32.82
28.299
11.455
-14.579
10.564
-89.464
-94.664
192.36
89.323
-103.94
143.23
-150.08
-66.362
32.016
-181.53
49.017
-3.3503
27.977
45.796
72.552
144.43
159.7
169.05
-95.843
-204.22
-352.95
-129.67
231.29
88.751
46.629
-28.445
-17.223
-2.091
-47.849
-3.656
-30.225
-123.18
-35.68
213.47
10.95
126.35
79.473
-80.647
-80.391
-34.454
-8.1449
-27.238
8.7972
-42.649
-81.166
-69.415
53.736
-107.11
-163.72
61.058
237.99
69.183
92.639
169.51
