56.401
23.443
25.964
73.37
153.02
156.25
94.308
41.189
-34.466
-108.24
-300.04
-346.83
-122.68
-27.14
-29.951
-77.629
-57.843
103.67
151.09
89.833
48.443
3.2057
-25.477
-79.516
-159.76
-148.38
-70.839
-75.505
-116.9
24.224
131.56
129.36
220.02
238.98
72.04
-70.132
-147.84
-215.76
-151.35
-100.28
-44.703
90.007
118.73
97.077
83.272
61.96
45.323
47.2
15.337
3.1545
-18.04
-9.2206
73.695
128.59
139.26
104.73
58.112
19.371
-19.468
-76.313
-109.96
-116.37
-151.63
-127.62
-39.295
-4.0704
22.74
49.859
43.418
44.306
43.939
17.935
-16.027
-47.559
-82.613
-142.28
-108.78
-21.766
11.717
39.59
55.07
53.055
56.589
52.963
28.509
-4.4794
-30.013
-76.203
-91.118
-16.602
28.944
40.27
52.009
45.65
41.943
42.969
27.686
7.2996
-19.386
-35.629
-68.328
-69.677
6.8704
45.667
52.995
59.254
49.772
43.53
39.121
20.495
-2.5531
-29.607
-46.846
-78.96
-64.36
8.4488
30.811
29.952
25.054
16.363
13.477
10.884
-12.219
-32.933
-41.629
-70.222
-58.723
-1.8211
16.983
17.145
14.667
12.479
21.569
26.544
16.012
6.286
-10.735
-52.147
-34.166
-12.615
-24.705
-20.393
-47.133
32.587
124.01
39.583
-47.095
-76.848
-21.464
-3.2439
43.387
107.96
89.797
53.92
44.786
14.597
15.516
20.678
-11.658
-36.657
-50.715
-62.277
-101.86
-65.895
26.733
45.048
47.761
52.335
33.282
28.11
19.776
-9.9911
-33.848
-58.841
-71.369
-104.5
-113.15
-12.637
50.248
61.386
75.675
65.394
53.198
53.878
34.962
9.5392
-11.991
-30.62
-57.182
-72.421
-96.197
-131.36
-41.202
50.641
54.574
63.929
62.018
48.584
51.475
35.308
3.0599
-30.045
-55.656
-79.836
-115.03
-45.324
41.503
51.604
55.249
49.645
38.857
40.941
31.718
4.0565
-12.797
-26.215
-50.973
-64.254
-104.28
-108.74
-0.47145
56.429
54.775
60.218
54.319
48.361
61.425
49.967
29.225
14.871
-4.398
-20.502
-48.355
-63.413
-97.257
-113.35
-15.69
49.105
48.118
56.16
53.667
41.494
43.365
31.669
5.1993
-13.305
-33.432
-51.746
-70.531
-98.191
-40.838
44.699
52.015
51.069
42.313
33.668
31.229
15.865
-7.5426
-39.884
-19.998
-50.913
-150.29
-47.3
82.039
101.47
97.894
81.177
41.064
26.677
3.888
-27.314
-44.187
-67.489
-80.449
-104.34
-136.4
-62.26
22.742
40.782
59.725
67.462
53.784
54.404
50.64
28.071
10.423
-19.782
-43.872
-85.036
-127.02
-64.807
-0.30079
11.951
27.465
20.562
11.963
21.198
15.312
-1.9512
-18.875
-32.233
-67.041
-72.119
9.302
57.449
67.698
80.438
68.283
57.755
57.006
33.305
7.3931
-19.005
-34.711
-57.918
-76.237
-9.4257
45.334
57.888
72.061
62.324
47.411
46.453
36.681
14.129
-2.9451
-20.866
-38.327
-56.373
-92.628
-68.619
-0.92533
14.187
21.215
29.233
15.816
11.239
6.8774
-16.484
-23.914
-28.817
-36.15
-57.517
-67.621
-13.516
29.218
37.59
38.607
30.639
31.995
38.575
29.116
12.855
0.38182
-18.335
-29.853
-50.191
-59.732
-15.166
16.2
21.081
29.049
26.002
23.646
32.461
29.838
18.148
8.282
-5.0246
-10.739
-21.726
-32.788
-37.196
-56.286
-30.396
28.019
50.471
56.684
53.393
39.503
38.599
39.372
27.361
16.7
2.9791
-1.3865
-8.1047
-19.943
-28.723
-39.439
-45.757
-72.628
-62.592
15.289
38.631
30.772
33.035
22.229
14.02
19.914
15.349
2.5909
-7.9747
-17.956
-26.321
-33.241
-45.155
-48.445
-69.45
-62.735
16.005
46.36
35.068
35.475
29.235
22.72
28.113
18.851
2.9917
-4.6568
-13.569
-19.239
-28.76
-45.036
-53.45
-80.255
-71.506
8.8627
38.338
25.926
25.124
19.938
13.908
18.432
3.3044
-16.986
-32.893
-46.572
-60.404
-89.825
-46.051
28.098
37.032
30.028
21.666
17.412
19.333
10.091
-14.349
-43.173
-63.893
-105.36
-105.02
-4.5503
54.583
58.898
62.546
53.836
47.024
49.886
28.213
4.9923
-31.76
-62.951
-100.81
-147.36
-61.304
46.267
68.986
85.799
90.719
71.431
67.132
54.854
17.675
-16.041
-59.457
-83.838
-116.88
-148.9
-56.695
50.164
85.373
114.41
130.58
140.12
180.63
175.52
159.88
120.88
91.975
166.46
72.619
-49.428
-49.554
-37.895
-57.298
-79.6
-71.411
-39.932
-20.305
-44.934
-96.368
-219.91
-174.84
-9.3277
97.929
183.22
121.54
74.654
71.118
65.76
113.11
183.1
182.96
164.99
108.33
36.596
11.386
-15.12
-74.343
-170.91
-258.21
-320.4
-461.22
-543.29
-368.16
-52.369
65.528
-9.4392
-35.933
81.704
345.05
341.08
135.33
-76.497
-152.78
-122.19
-78.262
11.339
84.681
99.969
32.226
-68.819
-79.257
-10.633
6.7995
2.5933
7.4457
8.7108
8.6132
9.1805
26.061
45.259
65.332
103.81
124.66
173.61
148.08
-35.758
-194.54
-256.3
-262.66
-249.92
-192.21
-151.55
-79.665
154.2
338.89
281.84
109.99
-98.388
-119.02
-5.1975
35.313
16.776
-22.887
-116.05
-97.045
1.6205
12.654
12.116
26.648
29.271
52.144
72.316
37.735
-28.814
-148.42
-219.1
-120.02
43.076
145.47
315.38
395.81
221.82
23.548
-89.513
0.25882
128.59
151.93
193.33
243.45
180.99
100.31
69.04
36.674
-33.668
-135.56
-198.67
-225.41
-358.03
-276.67
-46.443
-28.574
-82.697
-222.06
-314.61
-216.84
-105.49
-68.468
-58.277
36.807
129.39
195.84
88.384
40.575
208.41
306.48
182.52
55.797
26.027
28.936
23.273
31.46
51.602
43.361
20.384
-11.994
-40.146
-53.027
-83.852
-98.773
-106.24
-114.52
-128.24
-131.5
-126.87
-118.26
-100.36
-75.6
-19.242
76.661
74.517
-78.441
-213.39
-99.444
61.359
95.165
140.97
185.72
69.876
-81.48
-24.541
222.2
368.05
271.79
165.44
97.809
3.1207
-150.84
-228.14
-76.522
223.93
259
69.54
-71.723
-176.07
-116.14
-102.88
-192.35
-295.45
-374.37
-297.19
-130.56
-151.5
-160.82
-58.881
17.865
142.48
249.13
240.26
137
4.2789
115.36
249.8
265.5
301.56
271.84
163.74
0.5464
-48.59
-2.6264
-18.561
-64.711
77.691
152.82
31.792
-79.636
-116.41
-142.09
-167.33
-183.29
-145.11
-190.19
-192.35
-53.539
-80.852
-119.3
-44.423
71.536
139.22
171.08
88.76
-80.634
-92.409
101.79
209.06
165.38
127.76
128.71
34.13
-74.586
-96.844
-199.73
-259.02
-70.049
38.269
12.932
-40.829
-57.758
-57.38
-73.777
-106.05
-177.62
-149.67
53.794
211.12
272.6
294.59
343.12
400.96
347.26
233.58
124.22
13.908
-116.32
-253.51
-244.93
-118.61
34.198
121.5
27.881
-139.69
-381.84
-582.75
-515.61
-417.09
-350.66
-262.92
-146.4
-53.05
53.661
154.68
201.09
228.9
222.09
159.79
83.633
63.39
49.318
9.3606
27.578
-8.4897
117.32
354.07
385.87
302.81
140.8
38.96
-147.94
-325.53
-209.68
-221.14
-193.21
52.812
283.61
184.51
56.743
41.777
56.559
97.073
72.023
-21.78
39.025
324.43
307.74
147.91
228.11
225.17
32.967
-117.65
-133.6
-30.364
3.9351
10.356
48.287
53.174
26.477
-19.884
-117.59
-269.08
-413.94
-417.69
-314.91
-242.42
-119.51
-18.914
-22.52
-37.226
-89.481
-98.083
-193.45
-233.04
-104.18
48.95
125.06
97.686
108.32
119.84
111.21
41.093
-48.912
-15.159
-9.3447
-82.632
-237.76
-530.56
-361.37
62.711
197.04
393.8
549.66
393.27
299.76
265.44
96.002
-88.047
-358.36
-330.89
-197.98
-275.26
-247.89
-101.81
137.88
368.45
313.09
144.88
109.88
101.9
-43.275
-102.55
30.431
204.4
310.66
289.34
187.88
-39.761
-116.7
-80.933
-198.7
-289.72
-70.661
127.99
168.41
200.27
250.52
246.58
180.24
94.69
25.94
-27.065
-128.54
-183.96
-127.06
-95.175
-99.28
-133.6
-205.65
-256.66
-258.81
-237.97
-158.32
-64.755
-2.699
11.361
15.045
8.9327
-4.6206
-24.896
-52.885
-59.636
-3.6517
33.837
33.646
55.588
59.323
8.5029
-27.359
-99.16
-160.39
-59.14
64.545
77.128
74.995
88.25
70.582
21.78
-47.898
41.88
196.15
200.08
107.08
19.666
-36.637
-118.74
-202.72
-301.95
-351.73
-236.57
7.4946
207.7
248.44
194.73
106.79
-0.18835
-94.505
-115.63
-142.87
-72.088
82.59
156.06
145.16
127.52
131.51
113.86
60.32
8.9284
-32.222
-29.735
183.4
384.63
401.96
359.49
300.74
211.14
44.485
-170.47
-334.92
-406.63
-237.06
25.934
133.47
132.19
134.37
94.738
23.425
-85.218
-220.89
-306.9
-321.63
-112.36
129.43
173.11
144.58
99.744
67.189
65.817
59.969
4.5029
-36.093
-104.41
-93.074
37.154
65.503
11.689
-43.012
-78.724
-110.72
-148.62
-173.54
-175.17
-164.93
-145.04
-164.83
-122.26
54.919
226.34
210.33
139.47
110.45
41.419
-4.9771
-31.301
-108.44
-196.92
-208.89
-78.509
79.793
67.431
37.014
136.83
184.11
159.71
65.993
-131.56
-201.29
-193.69
-260.01
-199.78
0.95176
130.11
118.73
118.18
174.09
96.403
-49.386
-144.24
-145.16
-100.84
-102.57
-213.59
-261.97
-109.15
106.29
241.79
325.41
329.11
263.44
192.08
117.68
75.586
11.087
20.658
191.49
256.86
175.48
79.12
97.248
166.36
154.45
45.868
-71.791
-171.72
-197.72
-204.63
-217.27
-221.67
-196.95
-179.03
-153.65
-108.11
-46.892
-13.368
-24.327
-15.322
35.044
41.363
54.453
86.731
90.211
41.865
-28.638
-88.895
-127.18
-125.52
-102.98
-80.947
-58.924
-35.655
1.9718
54.645
89.988
98.639
116.04
102.46
59.537
24.035
39.747
116.89
75.556
-13.498
35.444
20.75
-34.42
-30.932
-16.803
-13.281
-11.241
-8.1125
-42.236
-48.643
-17.933
-20.009
-50.162
-79.026
-126.85
-156.37
-236.47
-355.94
-321.65
-240.38
-193.47
-140.15
-33.222
74.287
163.83
278.19
315.14
233.67
178.93
112.02
-4.4109
-93.69
-134.79
-124.25
38.435
176.95
180.64
144.65
139.76
125.75
94.728
29.933
-23.564
-67.345
-160.01
-93.86
27.888
17.088
-62.942
-135.82
-97.695
-60.999
-31.726
11.088
-8.9654
-53.091
-97.664
-30.272
116.95
163.07
143.44
133.44
147.11
153.77
101.47
9.6528
-71.081
-130.53
-132.87
-171.09
-111.6
75.791
152.09
145.87
130.14
133.37
96.699
15.763
-22.165
-34.786
-54.362
-105.75
-138.46
-19.52
89.239
102.14
90.988
89.972
85.678
42.6
-0.87037
-28.222
-76.544
-104.87
-125.58
-135.93
-9.6078
88.315
104.37
104.7
114.08
129.71
156.88
161.69
126.23
93.601
95.728
89.641
85.515
53.35
-24.226
-125.07
-352.87
-486.8
-353.59
-196.87
-79.16
83.492
217.49
195.83
102.57
-37.987
-147.8
-195.42
-172.43
-165.82
-154.79
25.496
170.16
188.54
187.4
185.15
174.87
144.59
62.888
-36.57
-88.14
-131.01
-171.75
-210.55
-307.26
-225.84
-8.731
69.109
164.2
195.26
195.44
235.59
166.71
-19.866
-152.86
-222.55
-117.82
-31.556
-14.56
97.199
195.2
165.87
117.48
72.613
40.729
11.622
-13.51
5.4942
20.75
44.969
96.239
37.438
-49.481
-12.065
11.684
-66.409
-112.34
-118.13
-100.79
-94.87
-108.65
-105.35
-108.85
-106.76
-87.894
-66.193
-35.116
-4.6943
15.501
21.552
1.4314
-44.646
-85.192
-107.85
-130.79
-185.84
-180.19
-18.184
178.55
225.54
216.65
216.64
173.74
116.29
32.895
-35.625
-154.43
-287.91
-188.26
-192
-372.79
-351.7
-192.56
-5.3056
158.76
246.54
250.7
238.68
209.9
169.48
174.89
161.86
129.1
84.818
62.466
46.993
24.461
20.69
5.9132
-1.6986
-3.555
-2.5451
-35.531
-54.199
-19.282
-5.4754
-17.417
-82.926
-99.489
-68.853
4.1598
112.4
128.91
71.431
9.4071
-23.473
-5.9018
-4.1289
-56.95
-63.865
43.267
68.611
24.84
3.4732
-29.262
-89.756
-153.58
-164.76
-120.43
-62.153
-26.751
44.568
60.981
-25.97
60.56
222.24
200.28
70.362
-41.4
-31.237
31.787
8.9606
-62.276
-88.394
-35.281
63.553
51.795
-21.097
-2.3693
51.481
22.565
-61.156
-107.08
-85.383
-59.391
-97.957
-98.82
128.89
319.78
201.38
61.016
6.2452
-4.4257
-3.0092
-69.906
-112.19
-63.993
19.905
86.902
107.27
92.345
77.16
61.045
-42.439
-108
-115.15
-97.542
-126.76
-149.56
-84.132
-7.7373
-1.6871
-75.454
-94.357
-128.08
-211.63
-245.08
-227.44
-162.45
-47.324
101.48
303.83
429.21
399.23
350.91
264.67
209.44
150.83
-11.618
-122.26
-187.54
-33.063
149.84
18.097
-104.46
-98.727
-28.998
-57.054
-96.196
-64.021
-26.049
-23.662
-89.371
-39.541
8.5304
34.152
17.084
-46.337
-74.375
-77.651
-40.369
-141.8
-246.59
-232.5
-57.033
127.04
174.33
178.76
195.28
200.51
176.86
-17.113
-228.61
-276.81
-202.09
27.563
142.99
143.88
37.336
15.572
-20.907
-162.54
-73.644
41.507
-21.505
-154.4
-168.26
-30.22
132.11
167.76
141.08
175.16
150.21
-6.2566
-72.267
-46.375
-11.364
-31.55
-69.293
-62.666
1.5999
45.556
28.054
-11.755
21.097
46.454
37.969
57.641
63.525
93.778
139.83
118.97
143.08
56
-17.391
-5.8395
-75.345
-103.57
-61.255
-26.494
-77.066
-115.11
-97.263
-7.1656
18.854
17.242
59.872
40.22
5.6178
1.1584
-25.27
-53.557
2.9439
-43.691
-97.602
-37.128
34.891
141.47
112.16
14.346
13.786
61.209
61.064
-1.8427
-98.388
-112.23
-70.854
-100.16
-50.789
-70.337
-184.78
-95.002
38.932
276.21
385.82
210.55
-19.471
-144.16
-163.29
-210.94
-285.01
-289.34
-219.76
-85.912
68.784
103.99
91.789
124.36
133.93
119.96
104.62
67.112
42.041
67.621
96.946
92.351
59.926
58.583
93.233
61.063
-85.669
-168.23
-207.65
-179.31
32.585
117.74
44.838
23.248
89.208
158.97
96.076
-66.952
-159.02
-148.34
-94.919
-26.752
23.839
20.61
31.639
78.888
39.639
-41.273
-66.975
-4.2495
24.357
-129.91
-118.2
78.813
181.26
109.58
-31.22
-49.261
39.312
15.981
-132.72
-186.47
-159.3
11.388
161.91
129.74
40.969
69.703
165.81
138.28
-14.184
-91.716
-33.005
-24.732
-54.55
28.255
86.919
111.83
105.62
17.209
-33.481
-3.9681
37.6
26.259
-75.386
-129.23
-79.615
61.118
118.59
7.2209
-61.538
-38.21
7.923
1.9655
-58.312
-70.318
-35.157
33.352
37.472
-35.905
-45.331
-1.1613
27.567
40.506
-28.123
-102.71
-112.33
-99.259
-87.246
-152.3
-256.92
-291.16
-195.75
-35.854
117.57
156.9
101.44
70.28
166.33
237.57
240.5
210.55
180.75
137.73
92.68
7.7421
-117.71
-199.95
-234.74
-120
45.058
117.59
129.31
100.1
109.47
123.16
123.33
128.81
113.43
102.1
52.604
-90.613
-130.94
-108.2
-90.902
-55.688
-20.348
25.35
46.208
-27.833
-154.52
-232.74
-321.58
-302.1
-142.74
-59.123
-33.889
13.658
86.673
108
95.752
48.812
17.361
-0.25002
-54.327
-11.709
122.73
152.77
96.756
23.726
-26.006
-23.656
0.73902
3.6905
12.863
8.9517
-71.439
-186.81
-136.65
-28.325
-3.2799
-15.004
24.636
108.7
91.701
67.518
27.291
-103.75
-209.33
-226.81
-166.55
38.891
209.4
217.85
194.76
207.62
197.76
163.02
121.69
64.718
33.477
67.6
2.4915
-119.8
-152.57
-71.925
30.628
51.749
12.332
-24.725
-69.673
-189.9
-211.59
-117.12
75.126
141.87
-1.4981
-44.179
39.203
19.932
-69.745
-44.33
29.508
-19.15
-106.8
-81.322
58.472
151.03
164.66
106.44
12.788
8.6768
75.974
88.082
70.446
15.531
-52.183
-59.664
-109.88
-18.14
116.95
34.359
24.959
72.648
50.854
-1.1505
-63.748
-66.452
-93.318
-105.35
-113.95
-121.87
-75.012
-42.299
-35.675
-20.528
68.919
211.87
202.06
66.796
-62.618
-47.465
-6.6594
-44.655
-108.9
-137.72
-296.74
-380.42
-107.19
72.394
119.31
240.4
347.44
331.92
277.34
106.97
-30.176
-139.42
-97.555
38.067
81.386
43.669
-20.781
-89.493
-179.94
-285
-289.7
-157.75
67.76
325.13
392.14
230.22
95.357
-85.794
-288.81
-301.79
-312.16
-246.07
-82.196
129.38
245.91
126.18
53.625
145.43
181.47
153.98
103.09
-11.686
-20.746
76.214
66.245
-30.722
-104.62
-84.229
-19.146
-35.257
-59.012
-52.505
-34.453
-25.817
-8.0807
3.6727
10.55
7.4002
4.2193
-13.466
-22.349
-19.121
-35.297
-59.539
-77.427
-94.794
-114.47
-127.68
-139.91
-147.13
-128.75
-79.823
-52.503
-98.21
-61.535
168.55
283.27
126.88
-24.02
-111.37
-171.05
-167.02
-196.53
-262.06
-174.8
-41.62
59.73
179.76
276.19
276.97
269.18
180.17
43.264
-61.487
-107.71
18.062
120.09
103.75
106.45
157.32
183.09
152.19
136.31
132.43
101.74
77.66
73.717
103.41
105
75.164
65.417
1.6961
-45.561
-129.92
-340.26
-308.99
-166.67
-115.16
-15.95
30.029
0.16734
25.15
69.629
91.052
33.798
-18.216
-11.696
-1.6879
-4.8797
-15.348
-22.733
18.312
156.93
257.57
220.98
107.42
-3.4134
-59.912
-122.88
-172.24
-165.21
-131.13
-114.9
-94.312
-100.72
-209.62
-250.44
-141.42
-5.599
77.402
112.6
95.225
30.901
-14.245
-41.682
3.9567
129.48
170.36
41.633
-106.23
-62.675
50.917
41.847
-1.8091
-38.366
-44.298
110.62
186.01
108.74
50.16
15.06
-16.978
67.331
226.44
223.8
153.33
90.762
81.734
97.689
9.0622
-129.2
-170.99
-238.88
-217.9
-123.79
-141.73
-206.86
-227.6
-219.26
-255.39
-295.67
-332.85
-378.51
-284.27
-81.971
68.106
155.55
204.54
205.5
207.95
263.22
296.94
315.95
246.23
76.833
46.339
234.11
367.86
267.48
111.25
-32.861
-144.63
-134.28
-121.3
-87.327
-117.47
-144.69
-14.319
63.649
13.507
-41.766
-106.5
-71.948
-1.4806
-22.783
-40.362
-42.069
-4.3016
66.171
59.587
-71.676
-133.38
-90.721
-13.497
115.37
155.85
56.478
-145.66
-189.03
-12.299
246.38
460.24
463.79
397.95
229.5
80.484
13.876
-53.067
-161.63
-288.22
-427
-436.64
-399.21
-390.06
-384.49
-367.39
-350.18
-334.86
-200.49
13.474
153.02
206.87
209.34
203.55
267.75
363.36
423.18
349.39
229.51
184.49
173.93
198.27
100.45
-48.647
-127.16
-192.74
-231
-201.14
-189.27
-165.35
41.784
324.37
355.9
174.29
-29.891
-201.73
-268.1
-237.7
-176.59
-131.24
113.02
361.22
321.76
173.73
73.046
-83.907
-297.51
-288.39
-191.69
-185.37
-114.42
92.351
371.54
441.96
270.5
117.11
-76.632
-258.48
-225.52
-153.14
-182.56
-147.34
-93.926
-76.037
-35.356
-37.587
38.684
126.42
108.39
38.75
27.191
126.28
200.43
192.53
100.95
24.772
-32.65
-108.29
-135.11
-119.18
-178.54
-170.09
-41.03
228.49
351.3
241.73
238.48
255.66
173.27
21.124
-52.268
-74.29
-84.057
-120.26
-150.45
-186.9
-259.25
-354.81
-417.99
-332.37
-257.12
-360.63
-284.59
-66.735
58.387
131.04
193.56
196.84
266.65
239.36
101.48
97.173
76.796
83.306
109.18
34.172
98.873
298.64
349.56
176.95
68.895
100.62
29.979
-115.37
-248.8
-288.65
-237.14
1.366
176.18
112.71
77.787
114.6
132.52
45.087
-126.59
-126
-56.817
-142.81
-181.51
-101.84
-13.048
47.688
52.351
19.605
-10.368
-13.771
-19.38
6.5132
-4.3831
-48.982
-0.19869
52.941
14.489
-31.54
-38.217
-8.9516
44.493
42.504
-16.402
-35.366
24.371
91
144.1
252.38
299.3
155.84
-0.85023
-185.25
-415.53
-312.73
-83.761
-71.238
-60.928
-13.274
-4.9152
12.362
0.89957
-20.134
-47.675
-84.96
-9.4708
28.099
15.441
59.764
11.29
15.746
101.79
277.83
302.22
137.42
-9.0426
-17.911
25.439
-41.289
-73.133
-15.842
80.115
89.161
60.168
-15.304
-224.82
-388.93
-332.73
-281.73
-186.17
-12.667
-17.15
-17.918
-5.7162
-35.075
-1.8378
62.46
31.328
-25.381
-125.75
-135.56
15.81
125.14
207.85
254.88
193.69
134.8
133.99
111.56
-27.547
-134.37
-19.864
82.315
-30.67
-75.028
-58.046
-5.7886
26.02
-106.85
-217.36
-118.95
-44.685
-8.514
99.846
125.86
131
70.018
-98.5
-89.362
48.899
202.88
271.73
80.978
-62.914
54.796
117.71
82.021
90.979
37.371
-75.698
-78.178
-31.604
114.66
108.46
-95.725
-182.45
-106.76
-100.48
-69.334
4.7706
41.507
107.33
120.69
30.419
13.432
12.551
-11.359
-38.309
-133.3
-171.45
-285.83
-367.23
-163.14
-91.619
28.475
262.94
344.38
219.1
64.91
39.366
35.509
-64.197
-130.26
-182.64
-183.99
-139.88
-16.629
188.36
193.68
43.597
-82.435
-82.522
31.638
235.11
363.06
293.52
156.19
23.634
-98.088
-187.58
-187.22
-194.66
-238.44
-185.38
-118.59
-3.26
186.2
238.05
96.145
-176.56
-290.95
-171.46
35.317
225.71
322.11
267.36
137.08
-28.021
-191.17
-295.37
-314.74
-107.29
-14.46
164.22
268.61
116.96
192.84
284.55
126
27.618
-91.715
-273.38
-374.95
-269.98
-143.03
-121.24
-84.29
1.1515
83.186
151.78
187.08
186.29
169.69
120.36
173.89
274.83
127.49
-32.829
-56.806
-128.69
-75.878
29.467
4.8596
-46.729
-119.65
-200.26
-228.34
-225.81
-261.51
-267.51
-199.45
-39.995
68.612
169.43
281.44
358.45
350.68
221.94
183.53
202.73
182.59
162.11
39.508
-69.066
-133.59
-156.5
-186.66
-256.52
-310.83
-302.82
-341.01
-389.36
-408.12
-506.18
-424.45
-194.27
18.148
223.44
370.42
533.35
551.97
317.3
107.64
5.7433
114.87
265.77
172.15
-5.2561
-24.646
70.043
82.855
30.752
-12.443
-58.336
-33.584
26.197
15.198
17.858
64.706
59.954
65.752
38.593
-1.6911
-25.693
-61.073
91.739
244.6
249.2
176.39
83.833
-85.772
-283.85
-197.32
-134.59
-226.56
-236.55
-254.32
-251.04
-49.582
113.17
86.384
10.955
-59.67
-114.65
-126.22
-104.49
68.808
257.06
134.14
39.803
105.68
171.7
53.693
-86.986
-86.8
-80.668
-67.774
82.589
148.61
24.144
-16.493
-62.123
-78.52
-67.176
-32.947
-16.425
48.514
100.99
135.84
162.31
109.52
-63.066
-218.29
-228.21
-111.46
88.662
56.265
-94.818
99.3
283.96
182.34
86.582
89.962
128.73
216.55
136.19
-38.659
-150.98
-191.37
-125.75
-67.562
-73.936
-138.42
-184.82
-242.02
-102.37
74.186
1.7044
-89.531
-76.481
60.206
162.47
104.66
-23.976
-35.845
25.051
73.042
12.891
-80.616
-58.991
-50.601
-37.476
158.43
286.86
237.07
110.58
7.3209
-86.98
-148.52
-208.86
-251.39
-312.86
-329.51
-174.01
69.32
198.11
181.65
206.36
208.38
157.91
51.288
-64.496
-162.95
-179.8
0.44097
178.28
185.36
84.026
35.627
76.861
76.347
24.032
-53.666
-111.09
-168.02
-257.86
-227.1
13.012
210.71
222.23
176.24
166.97
126.65
20.073
-88.317
-119.34
-149.25
-153.15
-124.81
-148.78
-4.5817
263.85
337.85
244.97
106
6.0601
-62.041
-108.48
-142.01
-127.49
-103.4
-81.181
-54.973
-60.986
-18.35
80.668
60.912
-25.665
-57.496
-9.6567
36.861
32.007
5.8966
2.7021
-11.161
-40.159
-77.997
-142.91
-81.187
83.713
125.63
84.795
81.839
60.602
21.873
-17.024
-61.003
-108.72
-142.28
-144.62
-164.05
-59.916
184.09
251.55
120.9
3.7994
-15.293
-13.196
-38.417
79.188
68.79
-169.11
-315.31
-353.96
-260.67
-40.405
228.15
354.62
333.91
301.85
247.72
144.34
61.21
52.104
35.31
18.263
3.8917
-34.388
-86.062
-128.71
-156.73
-130.98
-93.794
-57.14
-30.659
-91.341
-170.91
-184.81
-157.7
-136.07
-129.49
-112.74
-115.2
-107.94
-34.991
-5.2383
-64.064
1.1949
139.72
126
88.238
196.38
288.48
126.33
-95.86
-120.1
-29.999
17.322
-47.947
-53.967
99.073
254.14
162.71
10.688
19.935
78.588
30.376
0.61778
221.97
290.5
131.39
21.28
-18.549
-49.567
-63.768
-74.019
-106.07
-133.36
-161.78
-201.98
-179.84
-33.13
125.73
183.7
168.33
148.47
107.72
48.412
-36.381
-101.08
-110.36
-170.17
-209.85
-97.799
63.132
145.21
135.29
119.49
70.542
7.8411
-39.379
-33.221
-21.644
-68.107
-46.985
107.22
174.39
151.38
116.85
34.139
-52.6
-77.663
-89.579
-77.272
-130.3
-246.79
-207.03
45.253
224.55
214.08
101.36
30.827
17.858
-26.08
-82.628
-137.3
-132.31
-135.56
-190.28
-60.881
98.113
125.59
98.084
117.55
114.07
18.27
-87.33
-111.39
-90.816
-164.74
-142.63
79.359
174.61
114.93
99.433
144.52
156.49
66.152
-123.2
-206.49
-210.95
-240.52
-100.08
119.15
183.92
178.58
169.16
191.71
146.97
-15.123
-147.97
-176.29
-158.55
-188.96
-266.19
-175.41
79.311
303.19
355.43
372.91
300.14
134.22
-73.756
-230.04
-110.2
8.0671
-14.863
-34.372
-23.323
-2.9567
26.869
18.723
-33.86
-81.663
-111.71
-153.02
-164.26
-147.16
-151.34
-190.77
-231.49
-295.61
-230.6
-53.808
116.98
299.81
408.99
404.36
380.06
342.12
258.68
125.01
-98.095
-263.36
-332.23
-237.93
28.7
160.27
199.15
176.75
56.653
-79.985
-107.66
-113.27
-96.899
-73.763
-59.636
-34.104
-22.193
-22.844
-10.347
-2.4888
-12.413
-12.677
-2.7508
-17.052
-35.637
-34.616
-30.871
-15.283
4.9193
5.7492
1.2176
1.3607
-0.98653
1.9719
5.6717
-2.5825
-10.062
-14.772
-19.852
-3.9684
15.919
14.743
10.28
14.68
15.435
13.418
6.4065
-3.5121
-10.152
-18.54
-23.387
-23.678
-20.795
-7.5241
16.494
16.27
-13.521
-47.209
-61.017
-73.252
-75.992
-99.797
-118.23
-9.6199
206.41
307.1
159.39
66.167
61.432
-106.7
-192.44
-286.63
-271.85
-70.923
18.443
55.365
52.22
124.94
139.56
136.87
95.614
-88.454
-97.484
-16.323
141.39
442.94
498.23
231.51
-66.678
-245.94
22.729
222.24
123.63
-36.988
-123.23
-163.79
-138.36
-20.387
-19.76
-115.78
-154.4
-135.61
-157.26
-213.1
-247.19
-366.1
-389.01
-336.46
-201.56
-77.037
79.174
218.22
378.57
556.14
551.53
459.31
416.9
301.92
143.81
28.582
-82.672
-240.62
-347.41
-337.29
-324.3
-290.95
-262.72
-384.55
-433.84
-293.83
-174.53
-62.64
73.829
212.28
397.47
470.84
362.17
238.04
145.56
155.5
187.9
13.054
-140.38
-51.665
45.051
-0.757
-155.11
-139.77
11.565
114.34
110.94
56.59
-0.19985
-37.92
-26.332
-4.9808
-63.333
-134.87
-111.3
-33.869
93.425
207.53
184.93
153.44
131.52
219.84
224.23
70.198
-47.674
-215.65
-255.57
-130.53
-218.67
-280.75
-128.15
-8.555
159.9
219
37.206
-125.02
-252.31
-230.28
-102.8
92.193
370.37
478.44
347.22
179.31
35.784
13.307
95.05
58.16
-150.95
-271.25
-322.94
-338.13
-300.32
-225.69
-188.61
-217.24
-263.79
-251.73
-209.14
-109.3
47.347
291.58
456.15
332.91
276.94
401.18
392.18
282.24
186.38
38.104
-74.865
-137.63
-158.13
-85.861
-49.554
-85.127
-94.048
-27.978
17.502
8.9684
-21.578
0.39062
16.723
-35.646
74.586
167.14
47.357
-61.999
-62.355
-30.566
53.202
49.797
-24.924
-31.127
-99.674
-83.704
-3.792
-53.615
-100.47
-92.98
-111.82
-44.858
21.076
-18.137
-64.595
-65.818
-15.366
46.737
38.318
-5.4822
-42.221
-77.128
-80.729
-80.4
-95.082
-71.253
86.073
292.17
302.99
127.91
-24.324
-45.234
-63.77
-7.2279
-16.918
-81.246
-60.984
-32.833
71.383
67.699
-78.162
-99.879
56.063
138.44
158.46
63.545
3.5841
-31.528
-77.73
-129.06
-176.97
-192.38
-186.5
-213.79
-269.24
-317.9
-317.16
-209.08
38.694
326.2
451.04
386.21
363.57
556.62
621.58
373.92
158.43
22.97
-94.405
-162.08
-189.58
-181.79
-172.23
-118.05
48.458
86.35
47.562
53.977
-26.307
-178.81
-225.31
-191.42
-172.95
-184.21
-202.49
-247.13
-334.27
-312.83
-195.35
-94.293
-11.327
92.142
237.02
292.21
276.06
200.28
11.006
-137.03
-163.75
-164.73
-71.75
95.769
214.15
247.83
237.08
221.84
178.71
86.203
23.593
150.09
224.13
95.29
26.107
36.042
49.615
-2.6982
-87.914
-71.764
-35.837
-115.25
-196.08
-27.859
137.8
173.22
122.71
54.267
41.277
-4.8528
-143.86
-207.98
-80.109
-108.85
-55.988
151.55
119.3
-53.382
-70.809
148.49
248.56
162.68
-54.294
-208.38
-96.147
-76.35
-90.093
-23.862
-187.6
-331.65
-169.89
61.19
124.42
164.81
174.99
109.42
-64.403
-285.81
-300.98
-208.3
-35.21
213.8
304.64
332.99
321.45
129.88
-27.307
-117.91
-213.6
-187.48
-171.84
-119.89
130.55
285.97
233.93
104.15
-16.349
-74.269
-41.019
-40.37
7.2296
41.358
9.2468
-36.083
-35.345
-51.268
-62.01
-105.28
-143.9
-174.26
-104.1
15.251
8.0512
44.863
29.742
-16.234
142.69
207.34
55.03
-13.193
-80.799
-126.24
-61.155
-89.009
-36.12
102.15
49.029
-174.75
-296.66
-95.488
81.189
132.65
298.13
437.16
340.94
281.38
205.21
83.616
-81.268
-199.15
-337.29
-457.32
-297.73
31.095
245.83
146.82
36.595
60.377
-11.166
-74.686
-139.88
-139.59
-101.92
-67.576
-86.401
-94.609
-58.246
19.562
61.526
-2.6509
-68.661
-64.278
-48.515
-5.4798
-7.0723
-51.308
-114.18
-161.76
-164.36
-306
-412.39
-304.65
-180.11
-91.067
38.12
195.43
366.28
588.93
620.68
505
416.25
334.51
184.01
101.78
5.6793
-193.81
-198.51
-73.066
-53.081
-101.34
-222.57
-88.003
67.308
17.006
-59.582
-65.118
-148.98
-160.36
-63.93
88.293
208.82
176.6
73.577
0.0074
-27.554
-42.358
-44.869
-81.92
-182.46
-153.33
49.443
98.21
-21.027
-44.144
131.89
85.013
-57.069
34.445
90.865
179.05
215.84
67.349
-3.9758
24.967
25.287
-86.171
-122.01
-12.72
132.65
91.415
-69.353
-306.93
-352.51
-50.584
162.67
103.81
5.02
-114.95
-178.23
-224.13
-300.22
-282.28
-153.35
-24.323
167.64
244.51
166.79
136.35
67.857
41.286
40.182
41.19
59.356
47.714
28.347
-60.694
-205.35
-244.08
-288.66
-257.52
-143.36
-75.167
4.6025
-34.248
-144.83
-83.183
99.957
252.29
455.62
429.42
171.38
57.855
106.3
230.84
347.01
260.4
50.071
-160.74
-340.07
-154.6
50.213
5.8558
157.42
303.59
139.88
-46.781
-299.21
-298.44
-89.35
-47.324
30.941
287.58
403.26
437.54
359.86
50.622
15.981
-29.655
-111.24
-119.52
-176.1
-228.47
-220.85
-385.12
-519.91
-419.35
-316.81
-243.87
-172.57
-134.07
-121.7
-100.88
-62.623
-18.374
17.089
32.365
29.801
-1.8309
-46.998
-85.272
-95.193
-60.538
26.883
176.01
354.69
533.11
713.79
734.7
552.75
362.79
260.54
175.17
62.696
17.981
32.642
-57.71
-153.4
-184.78
-230.72
-241.28
-257.43
-279.25
-263.69
-338.98
-276.19
-153.46
-126.28
-74.431
32.445
110.87
71.675
46.035
-57.035
-125.41
-5.5771
101.66
120.66
90.461
61.611
100.26
76.517
49.544
29.315
-40.442
82.764
208.09
132.22
11.149
-7.4685
-32.786
-122.62
-217.56
-249.36
-243.85
-173.3
30.633
184.5
197.05
191.45
197.96
215
204.58
177.53
271.36
273.75
367.13
431.17
-112.16
-474.86
-460.01
-351.16
-295.14
-220.01
-210.89
-235.38
-164.66
19.957
108.18
112.38
128.29
126.53
80.104
-33.316
-124.46
-146.31
-133.2
-64.093
30.644
113.44
155.99
250.02
325.97
139.73
12.869
24.648
42.04
14.377
-49.456
-150.37
-279.57
-421.92
-480.53
-327.29
-98.36
-62.588
-44.344
-8.1581
-5.8543
144.25
371.3
353.73
213.44
45.715
-153.51
-145.94
-42.894
12.856
-27.934
-27.411
97.52
147.9
125.93
73.405
20.026
-40.503
-49.496
-37.745
30.102
-12.155
-116.49
-35.812
-10.943
-56.683
-29.91
57.749
62.267
72.174
76.956
57.976
14.311
-28.686
64.131
144.02
44.743
-27.551
-73.342
-88.453
1.0785
0.36435
-30.853
-34.998
-83.471
-3.5825
129.9
160.3
146.61
159.32
177.03
95.268
-64.388
-197.75
-248.88
-267.1
-212.68
-167.09
-158.7
-183.71
-96.955
66.423
81.604
40.884
-15.165
-35.828
129.2
247.22
219.73
228.03
192.12
64.537
-58.773
-109.85
-147.33
-179.08
-11.754
217.01
202.44
90.677
-78.116
-270.38
-298.4
-170.7
-90.578
-71.847
25.661
201.85
215.09
113.81
157.16
218.3
170.77
110.92
20.463
-218.69
-321.58
-33.606
138.48
0.2284
-127.54
-175.19
-120.43
-12.168
-83.553
-246.25
-282.66
-244.14
-120.7
70.82
200.47
215.6
208.14
229.61
241.59
140.66
-23.016
-157.8
-138.54
86.008
155.81
-94.029
-300.02
-171.1
5.7892
83.503
79.018
53.297
34.524
93.381
179.43
177.49
125.46
19.922
-36.196
-87.382
-98.969
-108.66
-55.164
-38.838
-12.644
107.05
161.9
173.87
81.161
-19.84
-53.119
-117.25
-226.26
-384.17
-408.38
-284.39
-158.63
-11.658
123.47
68.751
-10.172
56.924
77.132
51.719
35.959
36.1
145.99
241.89
220.43
170.14
100.16
58.456
28.243
-60.395
-111.87
-170.81
-176.39
-23.12
76.634
123.46
172.47
221.04
243.85
193.08
214.69
105.95
-161.08
-243.58
-199.07
-82.483
2.6116
-23.897
-146.46
-119.46
-39.708
-40.103
-105.16
-48.829
38.31
78.977
127.12
136.17
160.58
142.82
96.281
91.754
36.323
-94.607
-265.88
-475.6
-528.16
-310.35
-12.023
141.6
170.07
193.42
192.73
180.88
138.67
104.58
37.025
11.844
143.15
161.73
36.12
-34.814
-20.694
-3.102
-7.6135
-28.186
-90.038
-139.23
-187.79
-210.49
-78.875
41.828
10.181
-88.583
-131.59
-117.96
-134.32
-103.78
-51.796
-32.313
79.153
174.75
132.35
60.239
7.7057
-34.944
-64.65
-98.742
-128.92
-147.63
-178.82
-125.34
-16.931
49.894
99.243
168.6
206.01
202.17
133.08
37.286
-33.861
-82.382
-34.039
54.804
97.955
107.53
171.95
244.94
280.58
236.02
116.39
-23.221
-247.06
-316.08
-201.35
-96.685
-107.45
-151.13
-179.08
-156.2
-46.892
32.586
113.73
254.17
380.63
424.62
349.81
245.86
139.88
15.978
-144.14
-325.86
-421.32
-262.05
-81.91
-37.324
-18.645
5.2636
37.2
-17.257
-109.56
-106.76
-112
-22.419
108.11
81.771
18.267
-29.494
-15.968
21.61
28.706
57.26
62.513
65.957
117.73
99.72
16.125
-73.462
-143.56
-163.09
-119.34
-56.416
-65.663
-55.948
86.381
145.51
110.4
60.73
18.535
-14.998
-41.913
-66.264
-65.744
-39.082
55.335
111.92
91.017
44.815
12.721
6.1409
-14.831
-46.326
-92.711
-104.12
-14.766
45.344
45.081
28.004
27.705
37.953
41.877
29.214
-39.649
-42.535
114.08
204.97
174.18
41.43
-76.756
-114.78
-132.79
-136.09
-165.21
-151.87
-6.5444
68.88
51.94
28.912
5.6819
-7.4193
-19.001
-49.044
-119.9
-100.27
23.052
74.425
63.818
30.253
12.876
-0.68194
-15.947
-39.8
-79.901
-26.154
81.079
98.649
63.251
6.2592
-16.773
-15.537
-23.827
-40.776
-95.303
-70.214
62.873
105.35
83.596
38.505
5.4474
16.847
3.9473
-27.788
-102.29
-147.59
-23.788
61.404
103.32
192.21
297.24
332.12
310.21
277.9
217.24
160.93
119.72
69.28
-1.412
-92.194
-187.78
-304.14
-427.01
-553.91
-661.93
-562.44
-353.1
-211.34
-67.806
171.08
441.1
538.7
480.69
308.44
128.5
-65.792
-340.03
-449.45
-239.57
-76.418
-106.91
-1.5849
191.66
202.42
119
20.093
15.144
40.633
30.55
4.2962
-35.124
-34.253
5.206
25.737
7.8799
-7.4096
79.368
121.61
48.194
30.253
3.7589
-51.672
-86.355
-116.33
-137.64
-196.27
-135.56
33.705
96.538
113.86
109.14
79.939
54.427
13.4
-42.944
-91.259
-105.76
7.3058
97.18
84.199
44.269
18.64
5.1695
-17.248
-49.161
-89.447
-145.75
-43.509
95.12
107.04
84.182
41.68
16.734
-0.067232
-12.207
15.884
-6.7588
37.106
149.92
161.97
116.81
45.65
-6.6709
-20.957
-29.847
-51.083
-108.34
-14.675
158.38
212.11
224.26
112.5
-18.963
-24.771
-31.346
-43.849
-53.345
-38.033
34.399
46.734
-10.557
-44.914
-77.571
-97.086
-86.742
-76.379
-64.093
-40.453
-52.748
-74.388
-58.038
-23.652
5.2453
17.072
32.758
48.435
21.562
-3.5147
-17.449
-18.176
-13.196
-17.175
-25.787
-70.566
-100.66
-83.954
-75.891
-60.145
-38.719
-38.774
-89.238
-165.79
-211.43
-283.93
-345.63
-237.15
-63.193
51.581
194.14
319.5
266.9
201.82
140.92
70.655
-31.097
-79.779
46.002
128.82
117.31
101.55
76.331
1.9583
-73.765
-116.49
-163.88
-156.02
18.612
143.54
147.19
120.38
79.074
75.399
83.383
28.921
-33.743
-137.52
-82.315
109.17
146.96
93.953
34.367
5.3925
-3.8145
-26.07
-91.548
-162.36
-64.322
137.13
191.53
155.72
82.776
5.3852
-39.963
-77.701
-93.868
-125.71
-148.67
14.247
131.36
125.12
70.356
-5.3083
-34.875
-2.8718
33.221
19.715
-13.336
69.792
143.94
140.85
104.91
44.387
5.0302
21.185
74.929
2.158
-122.5
15.844
106.58
14.322
-50.037
-96.641
-131.56
-179.39
-299.53
-369.71
-389.99
-286.98
-46.311
53.074
39.877
47.478
111.2
178.39
167.29
6.4718
-66.285
47.979
63.578
-31.232
-93.476
25.896
63.815
-42.162
-92.492
-117.45
-0.071393
165.77
184.6
131.61
61.474
-0.3494
-28.764
-34.449
-72.76
-87.856
70.433
259.36
350.75
397.9
355.66
279.48
172.78
24.441
-119.93
-339.38
-340.59
-66.984
130.9
210.61
129.02
33.502
-24.077
-64.23
-128.4
-244.57
-388.63
-392.53
-361.45
-301.49
-280.82
-226.03
-168.45
-297.9
-333.88
-202.46
-99.289
-34.041
37.172
70.23
78.956
70.536
19.586
38.05
102.3
273.21
503.27
494.13
305.16
133.39
101.7
204.48
355.52
445.23
416.98
222.14
-57.144
-216.13
-252.28
-232.93
-160.79
-143.18
-148.49
-121.77
-90.427
-76.022
-46.324
-12.765
24.02
47.68
45.071
32.961
20.338
12.052
2.3971
-1.2123
-14.614
-29.406
-64.546
-118.37
-137.17
-158.51
-199.94
-180.76
-132.99
-159.73
-106.14
75.595
200.88
284.36
248.97
83.189
-4.2876
5.8163
-19.557
-0.58858
72.985
102.76
115.8
80.981
91.742
67.202
14.682
-24.698
-94.549
-47.665
34.791
25.98
-24.741
-54.734
-39.498
-41.098
-33.841
-15.875
22.102
82.211
74.807
37.014
-2.2687
-20.577
-10.326
-3.4637
-32.54
-75.7
-86.215
18.162
109.15
103.61
70.964
68.791
65.324
1.5527
-88.048
-106.47
-119.49
-30.123
133.07
187.71
80.991
-11.306
-18.828
-33.92
-69.644
-101.34
-157.12
-127.23
0.44509
38.405
36.842
31.68
33.374
35.808
8.2899
28.269
33.848
32.205
190.13
104.1
-78.031
-64.659
5.577
22.395
4.6139
-27.551
-29.134
-35.899
-134.38
-149.33
-21.323
34.002
17.723
77.843
103.8
-20.276
-67.484
46.395
80.289
-46.044
-223.93
-187.23
11.83
88.596
34.805
-37.904
-79.942
-85.433
-73.308
-98.505
-93.121
-148.97
-114.92
41.48
110.84
103.62
114.41
125.06
92.761
32.076
-52.745
-101.05
-137.12
-194.85
-107.07
36.802
75.123
70.315
87.069
121.59
120.06
100.47
11.828
-61.664
-75.031
-91.516
57.633
238.99
191.31
111.67
124.75
141.86
87.98
77.414
153.23
180.69
56.834
-60.566
106.02
173.02
-10.232
-207.76
-301.02
-294.43
-290.06
-288.94
-421.04
-450
-211.9
42.545
254.54
258.09
158.93
167.05
143.68
3.2366
-105.18
-108.13
-91.311
-110.16
-48.122
123.42
177.49
155.7
114.68
102.22
135.21
160.16
133.99
147.57
98.192
93.013
208.44
224.85
149.49
75.094
-36.741
-154.13
-230.34
-291.53
-292.67
-384.03
-347.52
-133.59
-142.59
-138.42
-43.44
-41.4
-73.469
25.121
96.46
9.0049
-79.146
12.928
60.146
60.149
89.73
96.251
140.65
134.8
74.49
28.089
-5.2645
59.829
153.62
81.958
-17.517
-26.939
32.138
78.434
45.51
-37.878
-75.997
-88.829
88.907
242.3
178.53
60.109
-27.324
-11.796
33.821
-96.328
-241.12
-309.98
-316.07
-150.94
99.024
156.11
76.261
155.11
221.9
201.47
152.07
-63.943
-211.32
-51.084
33.569
-25.061
-58.473
-69.971
-142.69
-143.09
-71.121
15.536
44.75
-0.34468
25.147
68.209
51.056
-2.8556
-23.653
-35.193
-91.154
-111.79
-123.93
-84.932
82.071
134.79
72.272
10.755
-43.013
-73.293
-97.539
-114.77
-144.07
-163.12
-38.036
64.213
66.45
80.979
99.32
107.79
85.571
32.503
-0.89182
-58.403
-7.9889
152.39
173.21
126.1
110.55
108.43
85.989
28.249
-32.775
-161.63
-200.02
38.096
113.11
31.942
-104.98
-207.29
-109.24
-6.3435
-6.1088
-89.503
-180.16
-20.601
141.77
84.932
8.2417
14.658
1.0661
8.6492
87.131
18.915
-50.511
57.559
111.68
110.43
80.934
1.6652
-72.913
-76.473
-84.382
-109.94
-76.573
38.433
103.22
120.52
92.648
28.99
-40.891
-90.047
-136.36
-157.45
-53.636
14.416
38.381
60.976
23.065
14.148
21.427
-4.3556
-51.161
-59.434
68.421
141.7
92.827
35.933
-18.12
-47.109
-52.225
-75.023
-78.363
-109.36
-49.491
105.36
132.65
101.72
114.86
143.06
133.11
80.669
-39.369
-154.4
-143.43
-17.462
62.897
33.103
35.756
74.342
35.337
-17.899
-35.562
-44.891
-73.757
-15.318
113.75
136.92
71.255
22.392
-7.8949
-41.187
-63.576
-87.087
-125.21
-117.87
-21.987
41.96
49.404
25.217
21.428
60.662
95.163
62.279
-55.886
-149.8
-70.982
-0.91178
-16.592
-51.882
-52.532
-55.194
-43.146
-1.9477
34.518
30.623
36.519
165.26
236.47
152.55
19.507
-76.38
-98.943
-111.26
-149.76
-139.31
-126.18
-82.52
5.5303
27.689
33.908
57.29
82.398
88.802
30.483
-75.945
-149.41
-158.75
-64.778
7.9254
-15.135
-48.197
-1.7832
12.771
36.673
73.645
92.563
75.541
61.918
145.1
139.44
33.598
-59.071
-110.1
-110.63
-114.07
-131.91
-123.96
-123.03
-22.513
95.192
116.6
113.94
103.87
97.129
50.464
-45.556
-132.71
-190.86
-94.037
56.959
72.76
60.986
37.432
-47.677
-51.568
-14.357
-1.8636
15.114
28.89
101.6
124.46
82.9
26.437
-20.611
-31.053
-62.905
-85.646
-141.63
-198.59
-32.187
118.77
129.1
133.22
131.49
90.099
55.48
-12.158
-98.389
-96.525
13.709
53.85
-20.415
-96.213
-189.08
-221.95
-74.876
106.62
188.59
207.66
238.28
179.82
67.382
-15.008
2.2654
64.987
92.847
53.569
-15.638
-11.582
2.7498
-71.5
-184.6
-234.72
-239.91
-131.03
80.005
37.584
65.269
276.5
238.72
44.583
-163.03
-182.64
-92.453
-19.56
142.09
190.51
263.58
344.9
222.73
29.626
-132.55
-330.37
-398.47
-262.63
-208.38
-251.7
-128.85
129.47
218
103.63
-12.536
-21.858
-42.55
-74.605
-37.238
237.94
348.13
171.87
-51.202
-269.55
-281.35
-117.77
-95.932
-124.12
116.77
350.52
366.89
248.47
80.207
-66.794
-79.043
-70.884
-136.46
14.179
171.93
88.863
9.1078
-43.503
-153.31
-268.41
-269.25
-269.61
-257.97
-87.943
164.67
260.82
132.56
19.565
-42.167
-114.71
-94.376
-125.83
-81.049
63.707
77.683
43.063
-26.464
-180.59
-280.86
-224.95
-198.28
-76.759
125.27
297.07
357.76
325.49
256.53
145.07
31.218
-15.958
-50.894
2.0941
69.725
39.153
29.296
54.675
39.445
44.847
21.402
-65.384
-105.68
-113.6
-119.74
-93.995
-36.322
10.408
4.3349
12.744
-60.757
-106.2
28.481
20.149
-118.88
-179.45
-129.87
-39.1
18.636
-38.576
-145.87
-23.397
152.47
175.69
82.946
67.511
104.73
162.87
165.9
4.6107
20.671
112.8
7.0046
-122.27
-147.33
-96.868
-66.821
-58.569
-141.17
-102
119.25
190.86
124.33
38.053
46.967
26.187
-81.105
-178.04
-252.53
-133.52
-34.93
137.05
230.47
206.69
183.38
46.436
-73.439
-194.74
-198.44
-28.32
84.52
90.208
28.198
-11.49
-8.4536
51.891
-47.625
-91.768
68.321
153.99
135.64
61.216
30.861
44.602
55.326
-2.3107
-126.55
-68.855
68.817
59.501
5.9285
-43.521
-73.775
-54.273
-70.738
-136.29
13.713
240.74
211.18
46.57
-98.804
-119.31
-84.984
-117.95
-182.38
-160.94
-4.8663
158.86
128.35
74.546
138.18
187.39
290.33
319.1
139.74
166.65
270.84
131.77
-1.7719
-103.45
-210.46
-375.66
-432.58
-380.5
-287.98
-58.577
106.46
61.518
5.2364
-79.717
-144.14
-101.65
-118.79
-105.78
124.66
251.85
200.83
72.061
-1.2408
-22.268
12.501
-17.173
-68.831
-7.7599
37.064
2.7723
-54.111
-73.236
-76.001
-55.033
-61.172
-70.202
80.828
181.41
146.02
88.394
66.21
55.724
86.32
-8.1902
-81.044
149.64
223.78
46.547
-177.44
-355.91
-395.75
-391.53
-365.77
-215.93
18.195
258.18
413.56
372.82
249.43
136.41
14.623
-105.9
6.3111
117.13
91.189
84.154
4.3916
-41.17
24.747
-36.817
-124.63
32.065
63.983
41.01
41.293
-27.637
-134.71
-180.94
-242.7
-229.22
-33.483
102.59
91.08
24.235
11.823
71
79.168
34.889
74.848
148.46
108.35
33.803
-15.565
-80.647
-72.545
-38.233
-51.827
107.4
249.42
220.8
99.829
-39.524
-197.32
-240.99
-239.86
-141.99
93.534
267.82
146.63
-63.851
-66.688
-146.89
-267.32
-323
-198.23
-20.213
-35.824
-19.981
41.421
28.841
-3.9957
1.6893
-99.66
-77.235
96.946
133.35
97.773
116.52
126.17
104.27
26.785
-35.299
62.484
154.3
121.44
70.182
19.676
-93.308
-155.86
-214.27
-233.72
-41.969
204.49
261.05
175.23
115.92
124.38
120.77
38.994
-63.375
71.899
319.89
385.87
287.24
189.71
136.95
39.905
-40.316
-122.96
-137.06
-141.38
-255.11
-287.3
-158.41
-154.02
-299.22
-319.69
-322.59
-310.49
-82.839
113
91.336
92.933
56.773
-66.942
-82.613
-89.177
23.592
171.75
231.04
236.87
168.38
64.383
-5.7907
-70.612
-250.81
-328.2
-137.63
-21.131
-26.442
-32.414
14.139
68.878
65.764
53.601
99.415
60.572
25.24
35.572
42.969
105.79
145.29
158.06
133.55
92.994
150.74
143.41
106.06
25.157
-61.504
-119.01
-199.52
-321.31
-348.16
-155.54
93.745
113.1
-42.015
-136.47
-114.98
2.7539
-46.972
-168.65
-17.439
195.54
202.84
12.861
-152.22
-248.12
-292.19
-306.01
-270.87
-130.78
14.053
131.22
234.88
190.45
117.4
125.94
102.41
22.115
116.63
247.27
213.33
129.22
41.475
-19.698
-102.03
-164.37
-224.53
-134.37
103.2
157.44
110.14
28.852
-145.99
-152.73
-71.717
-92.96
-126.54
15.051
206.95
224.38
160.45
132.22
155.95
144.24
22.664
16.394
174.38
108.18
-28.234
12.405
44.052
-26.214
-85.189
-160.52
-37.294
128.82
169.85
94.079
-32.532
30.218
123.59
172.88
70.645
10.193
33.326
-61.469
-155.29
-191.61
-184.76
-169.71
-132.49
-167.96
-201.72
-51.134
171.48
189.89
34.087
-54.901
-78.103
-132.37
-152.09
-92.129
73.735
153.95
182.46
157.95
111.95
27.934
-24.969
-110.03
-142.91
-30.764
32.994
27.722
6.9035
-19.472
-58.606
-61.268
-141.3
-167.81
-50.966
18.047
11.924
-22.294
-30.043
-34.092
-32.538
-77.805
-110.95
3.672
92.749
76.754
27.274
-3.5833
-43.412
-49.093
-22.514
-42.703
4.1314
106.14
169.41
103.43
29.665
43.115
-66.168
-83.347
-21.636
37.205
176.63
238.34
161.71
97.02
88.1
20.438
11.864
-77.413
-134.83
-62.113
-67.717
-87.903
-44.892
-1.9086
9.2256
37.249
5.6803
-26.889
54.751
138.22
161.64
43.361
-112.03
-127.05
-136.8
-157.08
-154.34
-57.038
115.54
204.9
186.65
128.08
63.741
2.4253
-49.736
-65.759
-91.5
-57.391
86.729
63.492
-64.403
-107.84
-11.246
37.407
4.1795
-37.245
-121.78
-142.43
49.855
143.72
111.5
43.014
14.042
20.52
-4.3088
-68.074
-178.05
-152.36
95.45
219.21
162.55
79.314
-25.317
-100.94
-137.81
-160.53
-194.12
-162.38
50.945
184.2
135.03
60.881
40.505
51.56
2.71
-69.513
-165.14
-191.29
23.372
191.45
158.36
66.615
14.917
-9.8459
-67.36
-162.49
-238.17
-164.55
54.203
235.5
203.06
88.461
-7.3044
-38.795
-28.95
-38.828
-140.01
-144.8
57.648
148.69
80.185
-26.196
-20.694
28.793
22.787
-36.85
-159.55
-106.46
99.736
154.2
84.472
11.21
-46.607
-73.518
-89.984
-174.09
-207.98
-50.798
158.79
236.87
192.22
116
59.161
15.189
-18.023
-63.414
-131.58
-56.421
57.696
93.17
43.729
-4.7162
24.801
54.275
42.453
-30.905
-42.285
65.635
121.42
92.83
41.128
18.8
-18.182
-13.633
-24.153
-118.05
-52.88
73.463
80.445
64.572
36.014
-27.751
-82.258
-91.467
-96.46
-69.682
63.897
142.43
78.632
-14.539
-104.28
-98.9
-77.466
-71.754
-33.834
67.185
136.45
154.62
112.57
-11.986
-66.254
-67.023
-76.894
-90.87
-91.524
2.179
90.142
48.548
-14.243
-17.893
2.3469
24.86
40.721
-12.14
-98.157
32.595
236.97
245.47
215.16
185.73
49.693
-147.84
-341.39
-425.5
-326.23
-62.923
118.47
79.602
74.021
69.606
34.842
13.768
-24.498
-219.93
-334.76
-87.095
48.613
34.74
97.122
156.21
152.73
80.504
-7.4267
-125.02
-112.79
53.844
99.6
26.152
-61.967
-119.91
-85.455
5.4091
-38.059
-41.472
149.54
229.47
123.44
7.3222
-25.098
-71.111
-59.049
-103.74
-218.95
-185.02
-66.15
87.385
164.3
64.158
-85.701
-172.57
-165.38
-168.93
-133.97
25.001
141.22
99.988
22.509
1.9551
-2.6657
21.73
18.83
69.256
161.24
134.18
25.224
-34.339
-24.165
-29.117
-31.499
-107.72
-114.97
24.273
107.92
136.68
152.24
143.69
110.11
70.06
-59.266
-101.06
22.01
114.77
113.73
69.593
22.008
-40.909
-90.141
-128.91
-78.328
45.782
132.23
119.58
60.562
-6.5038
-59.633
-50.066
-46.196
-6.9058
10.152
-16.142
-32.586
-32.448
-5.48
48.308
59.971
-32.904
-73.764
-62.456
-40.903
18.839
113.29
150.35
168.57
154.86
-47.037
-167.24
-62.04
51.117
44.809
-0.15887
-25.44
-51.433
-57.352
-124.74
-105.69
3.3221
25.884
20.796
47.999
22.458
-35.157
-68.94
-88.422
47.112
170.68
48.425
-155.76
-227.74
-189.38
-105.53
-67.87
-94.227
23.456
175.41
172.5
58.015
7.9106
18.277
25.649
3.5541
-43.884
-35.657
-7.6035
12.889
30.377
-1.3024
-24.328
-12.067
-5.7924
-18.104
-6.227
22.219
47.613
45.766
17.913
-3.3568
-13.571
-15.959
-89.824
-78.528
57.942
80.089
37.818
28.697
61.461
50.315
-8.4858
-109.6
-114.43
45.437
119.7
76.359
4.0905
-49.365
-79.364
-73.901
-128.17
-152.45
4.5096
138.77
169.46
82.626
-4.8161
-58.192
-69.662
-65.581
-100.1
-13.954
92.26
83.974
42.209
5.0414
-21.923
-19.205
8.8289
9.6898
59.517
111.75
95.049
37.051
0.1219
4.5079
-8.1118
-35.465
-86.779
-82.697
4.5628
24.3
-7.6546
-6.5004
62.677
58.668
-3.3525
-85.754
-131.35
4.5763
89.07
55.462
37.869
34.955
-1.1824
-23.934
-73.017
-122.67
3.7134
143.67
156.85
82.067
5.8807
-49.652
-67.738
-51.752
-74.232
-47.034
61.826
102.58
63.326
-22.055
-85.704
-88.369
-33.022
20.758
53.001
95.211
74.044
3.8683
-55.764
-72.912
-75.136
-53.547
-32.173
-35.162
5.1068
28.465
3.6521
-49.91
-29.318
50.274
45.923
23.672
-70.854
-62.644
83.407
106.88
60.722
9.9689
-68.37
-142.93
-156.85
-181.64
-144.47
51.558
207.82
192.36
88.531
11.397
-12.383
1.6734
-10.951
-78.79
-103.31
-33.904
-5.0509
-30.021
-59.581
-29.291
25.326
75.744
22.795
-21.667
38.296
68.339
60.948
26.907
-0.70015
-23.705
-27.691
-90.327
-79.632
63.048
121.65
99.338
84.644
52.592
-52.363
-122.1
-181.16
-133.58
63.108
141.44
95.845
53.37
4.4753
-62.007
-59.193
-38.063
101.38
293.71
262.69
88.238
-42.108
-120.56
-170.62
-144.86
-169.16
-220.38
-105.01
35.059
33.479
-17.865
4.3204
51.952
92.547
80.615
-13.847
13.217
48.796
31.127
5.177
10.584
14.238
-14.266
-45.289
-30.215
36.354
58.122
26.326
5.0135
54.391
31.977
-62.324
-156.75
-100.01
53.153
71.594
40.497
32.398
27.146
31.395
-0.72142
-95.869
-25.215
79.666
69.504
12.561
-73.937
-98.562
-63.869
-29.734
-44.552
14.668
107
99.163
56.765
22.095
-33.614
-63.782
-68.342
-76.583
21.524
64.901
2.5873
-54.861
-82.419
-70.622
-33.183
-41.15
-69.648
27.162
103.03
52.714
-25.267
-35.622
-13.864
34.999
9.0901
-45.943
48.665
101.8
48.994
14.75
12.161
6.3708
4.2494
-66.495
-33.635
56.425
30.991
-7.7872
7.1143
53.605
56.491
-28.3
-153.21
-98.275
-2.6691
-0.69821
2.4987
5.3337
12.026
65.151
49.813
40.374
137.61
131.34
83.281
65.193
14.109
-50.124
-58.847
-113.83
-66.239
61.951
60.539
33.494
-14.677
-87.908
-75.088
-11.229
-55.53
10.932
177.7
151.95
107.97
133.53
91.063
20.142
36.495
-37.318
-83.455
-69.404
7.9704
54.032
23.565
-3.1677
-97.089
-185.92
-212.95
-104.46
-46.263
-53.116
-22.883
-16.335
-27.808
-8.1026
-26.98
-56.128
99.182
94.79
-19.179
-32.561
-30.519
-23.315
6.4958
54.929
30.202
4.6574
47.815
63.201
31.816
17.494
3.1619
-13.859
-19.318
-95.844
-75.407
17.905
20.639
10.072
17.712
42.539
27.449
-11.84
-87.22
-118.39
25.912
78.615
34.062
-0.93511
-40.284
-95.606
-77.595
-112.4
-143.65
-2.0949
86.625
65.216
-22.493
-70.711
-48.768
11.693
10.284
83.798
289.03
293.49
199.98
86.577
-56.956
-183.02
-168.57
-172.15
-204.25
-25.087
101.11
85.09
42.029
16.648
11.453
-28.131
-169.14
-231.28
-30.007
172.36
174.16
63.637
-13.694
-69.506
-78.162
-103.61
-128.7
51.749
179.37
163.12
101.91
51.404
23.246
-10.842
-65.119
-151.66
-50.754
123.32
152.72
80.453
12.918
-21.231
-44.599
-58.141
-114.86
-96.292
24.753
76.601
54.112
25.297
8.2647
-30.862
-28.008
-69.025
-67.205
67.874
123.35
78.651
-2.778
-2.8142
20.059
4.2391
-71.583
-148.75
-29.244
90.135
75.205
-13.688
-66.718
-108.55
-111.04
-47.518
32.35
203.96
309.98
225.97
55.711
-56.707
-94.617
-92.641
-110.71
-160.06
-47.204
78.662
70.511
13.944
-8.2116
-17.568
-20.895
-53.235
-95.074
13.33
90.059
46.895
-18.101
-25.665
-31.875
-33.259
-79.962
-88.333
50.79
112.13
69.652
32.916
35.246
19.455
7.9326
-39.585
-37.375
59.884
90.974
47.191
7.7973
23.824
28.27
9.8335
-68.307
-82.952
23.027
56.414
-15.502
-74.267
-74.285
-84.715
-97.746
-150.68
-99.684
31.26
59.766
21.271
4.643
-4.393
-31.126
-68.679
-132.38
-68.95
9.6684
-17.077
-72.509
-105.51
-74.33
56.753
129.63
169.79
297.59
287.69
213.32
160.81
136.35
108.83
20.544
-26.294
5.695
104.68
151.47
21.929
-134
-152.19
-140.61
-192.16
-177.58
-161.89
-179.92
-116.38
-66.372
-19.326
16.218
59.489
109.5
177.17
193.02
129.45
158.3
242.99
167.74
-16.835
-125.85
-102.91
-99.305
-82.924
-65.808
-144.71
-136.88
-79.194
-80.2
-31.645
27.582
62.317
98.812
92.868
67.763
96.348
117.61
61.895
6.1241
-69.563
-59.608
-29.419
-73.001
-128.37
-197.05
-130.25
-8.1475
-52.864
-120.33
-117.99
-139.55
-143.86
-90.32
-67.732
-33.784
49.831
158.8
184.94
108.63
47.266
100.69
127.9
121.1
33.25
-85.627
-55.733
1.146
32.512
35.902
60.782
74.081
7.0184
-87.83
-225.23
-201.1
-18.928
71.156
127.77
146.15
84.119
18.808
-64.309
-131.24
-195.93
-215.04
-66.249
51.47
106.43
109.96
74.958
46.083
56.13
59.744
16.057
20.066
109
144.92
105.44
50.335
27
-9.6417
-60.109
-145.6
-246.38
-168.9
29.567
113.73
170.91
184.68
122.99
2.2698
-87.262
-128.25
-137.48
-7.7306
112.89
128.12
103.95
67.856
33.048
-63.869
-118.35
-72.621
-27.163
54.078
100.03
80.324
28.238
4.5827
-20.917
-49.079
-84.215
-145.35
-76.425
59.136
105.32
118.47
50.401
-1.7595
-48.133
-138.45
-225.83
-211.17
-15.531
101.71
120.15
128.48
160.38
178.85
193.84
232.25
243.55
205.44
151.5
20.822
-91.298
-158.61
-186.07
-147.55
-70.428
-3.4588
-66.052
-70.616
-21.842
-140.18
-213.68
-201.04
-192.01
-195.32
-111.12
-92.275
-70.115
85.547
143.44
135.07
10.92
-129.59
-134.78
-107.53
-184.61
-255.31
-155.99
16.726
-7.747
-32.067
29.145
86.263
168.4
163.06
-23.248
-20.33
114.89
101.05
27.29
-73.891
-143.99
-159.46
-131.37
-140.58
-95.391
-17.263
68.323
183.25
192.63
133.38
94.116
52.813
-21.471
-136.04
-88.271
88.006
171.97
161.05
112.74
68.094
19.408
-21.876
-108.15
-99.718
117.51
259.45
229.08
129.86
61.259
19.033
19.154
-35.215
-74.58
-14.575
15.666
29.353
26.119
57.068
55.5
16.805
-71.836
-175.66
-118.3
-19.763
55.511
66.846
64.214
61.785
41.994
25.187
0.20407
40.862
133.53
138.73
71.44
-20.814
-58.505
-53.464
-46.63
-124.69
-209.03
-105.5
-15.422
-12.489
-27.142
-29.262
-17.726
-14.567
-14.064
-55.487
0.79776
129.46
129.48
66.79
-15.978
-21.36
2.6403
-26.839
-68.374
-113.64
-61.578
31.113
71.602
75.811
67.63
38.147
-14.827
-55.571
-130.1
-93.102
43.125
78.723
14.42
-33.432
-47.839
-44.666
-58.581
-137.74
-132.76
49.547
183.36
156.85
59.469
6.365
-30.299
-52.321
-60.847
-118.41
-50.599
69.109
46.714
45.619
63.665
85.118
122.77
150.76
105.15
-108.49
-175.87
-71.583
-125.71
-173.24
-234.24
-273.81
0.68647
128.58
94.39
232.83
284.42
185.66
85.179
34.353
-0.3945
-106.52
-279.75
-376.3
-225.33
-38.721
55.22
159.14
189.52
90.745
13.611
-41.5
-129.18
-67.855
92.924
128.01
84.851
29.801
3.4751
-24.927
-17.081
-76.365
-134.57
3.7652
115.51
94.283
47.398
26.025
-7.2926
-26.423
-72.997
-113.17
-2.8402
116.5
165.69
158.16
139.11
98.586
39.825
-17.453
-96.389
-63.473
28.195
37.076
9.5254
-21.048
-48.743
-83.767
-84.461
-112.01
-136.94
-48.479
36.549
48.938
32.123
28.516
19.972
6.1361
-19.257
-73.161
-34.595
31.695
14.919
-41.024
-79.211
-95.574
-82.338
-21.21
-14.056
6.8065
74.188
62.181
3.3303
-38.673
-38.54
-32.08
14.567
58.465
48.54
90.147
136.69
122.86
86.753
55.805
33.766
4.6027
-20.305
-55.111
-82.41
-22.354
25.185
10.149
-18.81
-21.158
-18.725
-35.496
-48.779
-91.5
-86.051
3.3616
42.672
29.307
27.698
55.998
34.077
-9.3345
-48.588
-91.464
-32.366
47.1
55.682
41.178
28.339
22.598
-6.4086
-36.592
-80.056
-110.72
-28.486
50.446
48.694
35.178
18.221
1.2051
-21.315
-52.825
-52.538
-64.352
-33.215
77.834
105.24
85.725
71.14
65.001
53.421
30.301
-3.5039
-30.646
-54.567
4.3607
128.05
201.92
179.43
137.14
114.11
80.583
12.549
-65.201
-135.4
-149.2
-85.987
-61.345
-63.616
-58.149
-40.742
-31.37
-33.6
-39.319
-51.054
-71.544
-12.673
37.378
18.285
-7.8687
-18.964
-21.759
-42.375
-63.192
-84.734
-91.791
-4.6296
76.796
76.175
61.622
48.092
36.733
14.434
-12.698
-39.075
-74.381
-35.416
29.999
32.109
30.065
30.05
29.457
21.555
-11.984
-37.424
-71.268
-87.328
6.0275
69.097
56.133
36.417
34.242
26.98
16.138
-9.1591
-27.365
-41.602
-75.269
-21.134
51.816
37.736
4.2818
-2.1787
0.32098
-3.1775
-19.44
-30.071
-44.76
-65.135
-1.702
45.737
20.69
-4.8976
-7.2781
5.4038
-1.6257
-13.979
-14.984
-36.37
35.284
85.694
-2.3965
-50.892
-49.177
-12.764
20.487
29.463
13.123
-48.657
-79.02
-33.922
-8.3919
2.1291
24.39
22.377
-4.4455
-49.073
-99.864
-134.3
-98.759
65.596
194.53
238.03
235.56
169.05
57.77
-8.3495
-44.065
-66.296
-99.425
-76.904
38.111
46.762
-10.885
-29.691
-28.443
-18.873
-16.279
-20.798
-29.23
-76.289
-59.01
25.624
29.03
5.1291
11.224
25.487
7.5993
-4.9847
3.6228
-35.964
-68.878
10.61
37.598
19.504
12.628
15.457
15.317
17.289
-12.446
-25.355
-54.297
-85.639
7.7556
70.048
58.933
28.821
-4.3918
-14.177
-23.125
-48.329
-43.923
-47.411
-42.644
-35.933
-77.51
-8.1603
48.611
38.757
60.304
83.061
71.452
45.199
14.902
-7.6233
-35.668
-45.304
-22.441
-63.947
-41.409
38.688
49.608
38.248
33.742
47.067
46.301
25.258
-3.6107
-2.6907
-16.357
-58.442
-33.949
22.515
16.192
15.173
34.673
35.901
17.899
3.7933
5.2573
16.31
6.5471
-4.078
-70.215
-25.749
56.382
-77.188
-157.04
-81.394
-28.771
-17.374
-7.1102
-19.853
-24.092
-29.635
-36.855
-23.897
-57.837
-26.988
90.302
98.555
53.611
39.314
46.783
72.937
78.27
48.494
2.5228
-48.974
-63.966
-96.939
-66.069
71.639
114.6
92.211
19.307
-74.889
-115.2
-83.807
-68.843
-74.979
-72.74
-109.4
-72.422
67.133
102.65
69.598
50.353
50.685
34.363
3.9943
-36.71
-68.283
-97.017
-162.18
-125.52
22.838
65.868
42.658
33.569
44.283
37.231
25.903
-19.155
-57.267
-84.875
-125.85
-39.358
102.72
122.22
87.017
62.653
48.7
30.375
-12.814
-33.898
-59.989
-92.681
16.117
90.483
60.977
27.915
8.1976
10.481
-1.9608
-44.177
-66.232
-120.61
-72.407
65.705
94.478
87.254
74.854
56.096
50.052
24.963
-17.027
-51.613
-110.5
-45.935
48.778
82.508
131.58
145.16
107.42
95.997
81.679
48.621
22.464
-65.614
-47.067
43.304
37.48
34.42
21.82
-8.6979
-22.316
-19.76
-35.749
-37.183
-68.783
-83.75
12.489
57.509
51.748
54.508
48.925
30.602
20.195
-3.8909
-36.685
-40.409
-88.039
-105.25
-12.883
24.133
30.809
44.433
39.708
30.347
20.656
-0.5482
-16.015
6.2723
-44.058
-130.59
-58.094
34.527
64.98
102.8
94.76
39.06
-5.4218
-47.477
-62.083
-54.329
-68.16
-79.322
-120.05
-64.186
28.435
27.734
27.51
41.048
29.154
12.381
-13.456
-27.054
-20.395
-28.174
-49.115
-37.983
66.03
75.474
15.12
1.3258
-9.0377
19.091
48.437
25.598
-12.877
-35.436
-70.84
-101.36
-33.403
49.408
38.794
11.987
-7.13
-8.3863
-0.31308
-12.867
-29.407
-63.081
-56.061
-30.564
-75.841
-4.226
92.223
63.768
24.409
0.28417
-5.0683
14.897
19.272
-3.1484
-24.095
-25.604
-50.019
-64.226
24.198
61.667
24.792
-1.1788
9.2675
11.138
10.656
-14.843
-42.98
-45.59
-95.302
-56.804
74.785
113.23
105.61
77.79
51.467
13.235
-23.094
-54.258
-70.632
-103.94
-166.11
-83.229
57.424
79.01
70.88
74.639
79.976
71.804
57.857
10.708
-24.448
-59.25
-128.07
-74.961
42.974
59.22
39.827
35.221
31.246
26.497
13.16
-30.958
-50.459
-102.89
-102.77
23.132
79.593
54.19
39.171
44.597
37.907
22.999
-21.348
-42.218
-85.8
-106.42
9.0474
69.722
51.379
39.488
44.697
38.467
32.048
4.4771
-23.745
-34.617
-77.832
-26.285
89.923
116.85
114.33
98.434
81.684
48.448
-14.549
-83.106
-100.73
-94.753
-138.28
-105.11
12.586
36.791
12.073
15.368
51.461
59.85
51.788
37.06
6.4556
-70.033
-78.058
-13.07
-17.508
-25.563
-15.775
-5.3543
12.123
5.3991
-13.062
-9.4089
-32.929
-7.4074
86.009
108.69
111.96
118.51
75.997
-16.905
-64.624
-94.969
-96.795
-85.716
-96.104
-45.056
4.5009
-5.5195
-13.172
-16.4
-2.9086
9.9866
8.809
4.3732
4.3492
-2.249
-33.853
-33.009
30.46
40.288
32.47
29.821
4.341
-13.267
-8.5303
8.4712
19.936
-37.326
-98.618
-53.818
10.616
37.415
36.556
23.575
23.871
18.592
2.3465
-26.5
-45.631
-76.776
-103.95
-48.489
11.5
41.794
69.027
84.143
99.1
101.38
86.77
62.084
36.448
8.1321
-3.5536
-53.983
-81.275
-15.318
12.402
10.188
19.639
23.293
35.45
39.47
15.267
-3.8237
-24.819
-39.777
-57.527
-84.999
-28.71
16.11
12.085
11.139
2.6412
-0.26486
-9.0574
-21.002
-28.897
-46.333
-62.725
-88.11
-92.056
-17.771
19.269
24.619
55.06
85.754
80.232
70.502
54.19
47.117
37.002
28.92
36.199
29.315
101.19
92.052
-46.499
-78.082
-62.46
-63.183
-46.069
-32.531
-51.201
-41.404
-55.781
-99.318
-132.92
-142.23
-20.118
75.603
52.755
27.369
37.052
43.125
25.273
0.77476
-34.259
-45.051
-79.616
-84.586
23.533
77.083
59.439
40.452
39.108
32.217
15.336
-16.397
-45.602
-54.733
-99.246
-63.047
66.356
81.612
31.423
20.854
24.484
19.839
16.913
-2.1366
-3.9037
3.1566
24.481
118.31
154.7
109.77
90.096
99.293
95.597
45.494
-12.494
-23.263
-33.441
-81.898
-14.467
35.284
5.9032
-26.982
-15.151
16.264
15.573
-16.395
-70.403
-90.452
-104.45
-107.56
-3.6873
43.895
-10.174
-32.536
-55.843
-102.67
-141.35
-196.5
-179.6
-101.79
-32.181
123.82
175.54
134.68
115.29
97.904
93.698
51.162
-90.696
-134.63
-125.15
-13.879
116.81
94.066
9.4057
-28.603
-46.15
-63.194
-69.028
-100.06
-92.956
-134.95
-99.659
68.706
123.43
90.507
55.548
60.323
32.736
7.457
-23.065
-40.141
-60.241
-113.64
-55.3
42.022
46.72
48.623
17.252
24.273
34.015
2.1639
-52.929
-69.372
-106.32
-177.67
-90.599
77.352
159.53
182.11
147.82
88.134
34.808
8.0504
-31.546
-68.428
-154.31
-182.52
-15.397
100.15
112.03
139.16
138.87
130.42
114.66
50.642
-30.548
-71.131
-88.307
-145.73
-94.599
42.66
51.4
41.544
44.47
45.926
37.34
20.404
0.88273
0.63889
2.6117
6.774
-14.892
34.282
76.976
25.75
28.568
40.85
-37.089
-93.381
-95.551
-102.01
-61.511
-38.653
-44.4
82.423
185.55
172.45
158.27
133.22
47.295
-103.57
-214.05
-236.34
-208.47
-177.19
-189.36
-136.04
38.811
95.054
77.702
60.042
52.925
27.078
15.727
-26.089
-62.565
-37.044
-76.547
-46.293
106.25
123.46
84.825
80.052
74.893
64.47
41.086
10.5
-17.72
-35.412
-49.658
-106.08
-53.839
22.706
20.332
11.721
14.628
21.094
18.552
-9.668
-43.399
-44.343
-100.67
-72.503
68.445
99.55
61.615
36.796
45.078
35.229
22.807
-32.679
-63.665
-73.91
-122.59
-19.399
85.491
48.938
53.237
65.063
49.849
51.248
16.439
-11.926
-19.142
-99.644
-165.44
-217.31
-127.72
49.582
99.953
122.23
129.74
124.1
128.69
119.3
63.33
37.697
61.347
26.96
-39.6
-128.48
-240.39
-137.45
8.3427
35.972
66.221
85.173
86.587
80.606
54.814
18.682
3.3745
-18.541
-55.428
-63.733
-157.57
-242.21
-87.131
31.914
94.519
149.4
172.26
101.99
-44.898
-138.45
-122.97
-48.38
-1.4799
43.452
46.009
8.7615
53.78
121.71
144.49
71.923
2.5749
-20.904
-41.763
-70.451
-77.602
-97.807
-113.65
-136.59
-158.63
-62.067
32.625
64.042
96.56
116.21
115.45
115.12
86.096
56.488
39.777
16.035
18.855
-30.846
-91.529
-35.368
24.19
29.641
24.469
29.981
36.626
39.436
20.244
-51.578
-98.119
-114.2
-61.601
51.643
73.231
50.316
-6.4166
-36.329
-61.33
-26.24
37.815
-6.6438
-42.346
-45.849
-25.94
66.115
113.11
109.68
99.393
73.425
-14.57
-114.31
-141.75
-112.61
-88.115
-101.47
-5.0633
94.74
113.39
98.055
87.141
63.5
99.847
89.05
51.501
29.246
-124.8
-71.279
63.608
21.13
9.739
-27.072
-86.109
-26.228
27.415
-6.0748
-21.707
-129.28
-88.739
34.113
32.075
69.004
77.062
-20.605
-78.73
-39.777
-0.42796
-34.109
-117.42
-82.084
-7.7241
-20.846
31.204
128.8
86.913
-22.505
-61.697
-58.107
-7.4966
42.449
3.1409
-1.8956
-6.4326
62.231
124.78
-2.1638
-129.5
-178.88
-168.69
-9.7857
102.01
4.0713
-70.22
-46.92
16.187
98.322
131.41
40.051
-76.894
31.79
178.38
133.51
32.276
-99.55
-159.09
-87.044
-5.3216
3.083
-102.97
-95.175
80.298
160.44
196.45
118.32
-54.175
-176.37
-150.42
-31.32
21.488
30.497
65.339
70.16
64.712
58.085
28.281
-36.347
-111.26
-224.9
-106.56
120.93
121.39
82.664
68.373
91.947
123.77
62.679
-17.147
-126.07
-131.52
47.408
143.41
102.27
9.6466
-115.69
-192.15
-70.498
-45.714
-112.09
-54.416
-1.0538
1.4448
59.835
76.121
6.8155
-38.061
-86.809
-84.599
59.94
93.139
86.075
-3.7961
-52.607
15.812
24.526
-55.418
-144.64
-50.96
85.465
73.282
-7.4027
-12.448
-93.161
-88.919
39.04
31.521
16.001
40.891
94.186
104.59
75.121
-14.26
-129
-128.6
-71.603
62.17
91.505
26.235
-19.848
-27.517
18.587
69.005
-45.813
-170.7
-77.932
57.491
120.06
131.9
46.92
-54.383
-51.328
-10.301
-16.013
-65.98
-83.996
-121.5
-93
55.554
135.65
94.279
142.31
185.47
169.61
138.32
59.418
30.459
-87.121
-199.71
13.434
157.18
161.61
94.973
-84.786
-162.38
-156.2
-247.33
-272.76
-147.72
-44.109
-15.594
-21.97
-38.976
-23.421
-50.643
-90.006
65.118
159.88
73.935
-47.828
-74.371
121.57
199.36
134.84
229.85
266.3
188.76
55.498
-77.12
-77.565
-204.56
-320.91
-66.781
2.5526
-109.02
-104.93
-44.197
149.39
232.89
108.24
124.39
131.38
13.188
-62.944
-132.63
-155.95
-174.09
-159.66
-45.185
-89.224
-85.75
-49.399
-120.28
-197.63
-100.03
196.41
240.67
102.48
40.516
40.062
102.7
101.24
45.371
47.13
129.93
92.549
-65.032
-132.11
-120.63
-194.48
-122.96
117.98
52.698
-69.13
-141.9
-166.04
-90.103
-143.03
-83.229
108.95
116.12
99.35
114.93
114.33
30.399
-65.294
62.834
196.49
96.41
-80.746
-187.78
-144.62
-33.414
-15.367
-5.3454
-27.988
-58.418
43.855
156.35
101.13
136.5
225.16
229.52
121.14
-145.17
-296.08
-339.4
-325.8
-64.673
195.59
286.48
181.55
10.468
29.256
134.62
229.24
283.18
181.73
68.245
-18.092
-90.061
-277.74
-316.56
-91.775
17.482
17.729
-3.2627
-56.536
-151.68
-193.8
0.94324
164.5
63.194
-40.699
-81.848
-54.875
41.307
98.114
-18.325
-72.463
-50.166
-82.976
-75.92
-4.1475
88.794
98.083
5.1706
-5.6639
117.67
39.633
-156.53
-101
134.14
239.28
225.71
120
-27.374
20.757
178.17
90.162
-66.927
-138.99
-220.85
-187.06
-72.282
40.634
79.639
21.119
25.696
119.6
66.931
-51.422
-146.22
-153.06
-98.129
-41.159
-26.087
-33.122
-93.651
-1.747
153.22
120.41
-39.43
-168.36
-219.81
-142.66
29.533
21.99
-103.62
-118.95
-70.079
76.666
146.1
40.718
-90.302
-217.48
-143.9
122.12
154.31
86.618
68.025
52.437
95.801
46.726
-82.585
-243.62
-297.58
-87.78
194.95
285.78
160.04
11.757
-75.133
-28.988
65.547
70.49
-127.89
-313.43
-318.14
-88.057
131.64
306.19
298.95
153.97
169.72
231.37
46.886
-150.63
-204.18
-194.53
-28.836
148.88
97.401
23.07
64.941
176.14
271.43
144.75
-85.703
-297.23
-332.32
-46.883
245.16
257.02
155.18
8.2984
-44.62
144.68
300.07
156.33
-86.516
-209.75
-216.95
25.375
204.42
239.06
183.46
145.38
243.46
233.76
246.02
321.85
491.73
502.09
-76.049
-520.18
-468.63
-294.91
-307.01
-278.93
-306.58
-232.42
-142.87
-85.953
1.2894
-75.392
-113.25
-133.19
-293.36
-349.5
-202.76
-83.011
22.278
10.716
14.634
77.324
121.86
216.76
198.17
107.91
77.412
81.108
46.583
75.329
132.82
139.5
23.849
-232.43
-325.16
-233.72
-41.751
116.91
58.602
98.281
110.76
-103.7
-254.04
-147.49
-65.843
20.839
138.41
136.6
124.84
199.03
152.73
-13.551
-97.901
-107.91
-142.54
-67.905
27.339
47.051
20.931
-27.57
0.37805
-0.9012
2.402
63.882
66.911
-39.751
-153.34
-256.88
-255.92
-50.544
96.197
-30.289
8.223
114.58
-58.647
-104.36
-59.685
9.3721
164.88
194.57
14.108
-109.88
-18.513
165.15
205.19
-3.4686
-174.53
-323.9
-266.69
31.356
280.99
227.16
71.084
-27.771
20.771
232.46
249.4
45.514
-148.73
-245.12
-126.04
124.03
196.34
168.61
74.773
11.332
86.483
87.436
-65.77
-158.75
-222.95
-175.05
-1.8268
22.412
53.269
96.113
86.897
101.59
109.81
-40.805
-225.79
-169.62
-59.596
96.419
113.89
51.134
-67.134
-22.591
163.42
229.7
165.42
-38.027
-257.58
-215.04
13.204
118.05
93.796
54.851
-30.258
24.352
181.76
56.843
-148.19
-267.45
-243.15
-116.86
21.672
86.499
97.52
111.24
83.224
127.77
79.372
-90.79
-132.13
-134.64
-80.527
14.798
-1.5895
-52.515
8.6106
31.449
58.423
98.078
-37.321
-245.72
-238.7
-32.43
92.457
67.786
-8.9929
-60.648
-60.68
88.328
198.64
92.462
-101.24
-207.95
-225.51
-49.687
124.99
120.91
98.723
45.632
-30.063
91.409
164.29
28.734
-84.905
-158.79
-188.92
-82.899
68.545
131.38
126.62
50.848
98.687
103.43
-41.757
-77.636
-82.822
-131.68
-65.168
-13.93
2.0864
102.89
113
137.37
125.06
14.543
-148.54
-196.46
-119.75
-22.452
6.1827
-10.199
-3.8814
-65.171
14.324
188.03
136.48
-65.43
-220.8
-304.22
-130.76
86.241
134.39
113.61
27.856
-29.233
51.908
164.01
97.933
-59.134
-159.91
-207.18
-104.43
124.54
243.46
185.51
56.723
51.545
77.615
-31.266
-87.989
-110.44
-211.4
-86.648
60.498
61.651
132.64
128.03
94.835
105.42
19.976
-161.47
-141.19
-83.272
-20.084
72.525
96.671
25.396
-62.338
65.896
189.21
135.34
-37.182
-202.11
-304.89
-116.21
130.8
179.67
138.52
6.8457
-57.8
83.702
193.41
81.665
-75.133
-151.43
-223.1
-74.643
195.72
287.18
249.39
110.23
32.779
65.707
23.432
-98.446
-128.96
-213.9
-235.86
-108.78
13.952
111.35
89.863
-34.815
17.057
38.973
-60.239
-47.886
-56.709
-98.691
-23.769
15.404
7.1361
67.949
58.719
79.099
79.642
-11.273
-135.97
-159.56
-103.21
-25.793
31.171
24.838
-17.259
-58.983
45.645
128.91
69.328
-54.518
-180.93
-229.62
-112.55
43.63
102.84
59.146
2.9071
-62.777
79.665
225.62
111.98
-55.871
-154.71
-238.32
-95.452
156.98
198.34
128.78
17.382
2.2706
88.339
86.997
-12.803
-99.514
-171.36
-170.54
-14.611
147.54
182.08
99.28
44.706
77.327
9.1881
-57.392
-22.617
-62.039
-97.934
-17.153
11.407
33.903
110.47
66.817
51.615
46.338
-67.516
-143.41
-84.118
-64.166
-43.072
21.426
29.9
18.222
56.265
72.098
85.709
70.311
-20.163
-160.4
-145.06
-59.037
-7.794
34.397
46.151
12.415
-34.295
40.807
45.017
-50.429
-110.81
-221.99
-263.9
-64.142
59.411
41.804
31.307
43.109
61.53
137.09
145.12
101.41
44.897
-10.833
-19.267
127.82
140.09
-33.921
-106.56
-24.008
-42.209
-151.46
-115.38
-42.926
-31.052
-143.81
-155.96
106.23
226.46
168.81
79.352
0.46683
-2.7949
21.45
-8.8701
-38.75
-77.218
-201.06
-145.17
-6.3944
95.433
160.04
99.779
33.159
80.327
68.737
-81.128
-88.052
-143.41
-241.05
-95.457
-10.757
32.872
122.21
101.9
94.541
118.66
-24.284
-149.17
-97.404
-139.36
-90.273
39.595
43.52
-19.603
27.093
156.01
234.58
127.58
-61.289
-208.92
-251.34
-104.25
108.26
157.69
116.7
-7.5713
-0.72724
221.63
251.3
41.413
-127.81
-257.2
-211.91
36.766
189.29
175.97
104.69
-45.387
-26.652
185.93
202.11
27.882
-87.418
-201.69
-173.13
83.357
161.89
105.94
28.512
-69.249
-14.679
125.56
77.035
-56.658
-136.32
-206.18
-161.89
65.702
151.93
103.4
11.675
-22.585
44.114
88.651
29.502
-47.14
-122.67
-115.78
-45.569
19.386
81.717
59.392
-34.833
9.1242
34.532
-46.403
-45.965
-30.142
-109.56
-72.245
0.45952
43.846
145.31
85.085
5.1505
36.652
-11.487
-101.35
-62.985
-70.184
-66.421
18.443
40.516
19.884
42.343
22.097
-14.379
-25.878
-59.04
-108.28
-85.446
-53.834
-19.444
36.572
49.876
10.387
24
52.382
100.63
78.548
-58.002
-180.27
-192.52
-90.806
0.36276
23.874
48.504
61.285
105.65
185.98
185.42
146.8
139.43
86.179
3.9667
21.518
-92.162
-201.11
-180.77
-137.5
-50.168
32.365
45.142
63.153
95.614
69.865
82.633
103.42
81.491
97.129
60.011
-19.176
-150.25
-178.33
-106.84
-49.353
-101.9
-165.78
-202.43
-427.79
-539.91
-525.55
-397.49
128.22
357.95
281.66
245.61
315.95
105.86
-82.817
30.805
177.99
239.62
222.26
116.61
56.984
75.772
-3.0739
-65.55
-97.556
-182.35
-140.07
-40.641
1.7799
130.77
124.84
46.981
46.918
64.632
-62.868
-112.65
-117.92
-155.34
-91.239
0.73895
14.755
67.334
137.67
129.04
161.89
157.12
-68.073
-149.33
-70.77
-23.904
28.707
39.009
1.2288
4.327
81.864
155.03
154.6
48.121
-91.53
-168.68
-119.02
-12.76
53.265
73.999
60.317
25.802
96.157
163.35
73.941
-73.511
-162.13
-175.66
-74.217
64.513
79.604
55.214
19.75
-26.457
79.912
150.9
55.304
-92.522
-172.18
-190.1
-43.041
92.866
88.798
49.121
-16.375
-58.534
62.281
87.8
-41.263
-118.82
-167.21
-161.84
-9.7363
107.47
116.95
62.496
-5.7457
14.963
124.96
142.62
18.491
-130.17
-178.78
-100.57
13.261
94.577
103.35
37.62
-4.3428
21.591
21.067
-42.574
-112.15
-164.29
-153.37
-53.891
21.268
94.922
170.36
51.877
51.008
78.606
-39.127
-69.811
-70.521
-123.66
-85.583
-11.549
56.757
193.53
122.7
6.7428
68.986
28.275
-136.51
-96.729
-87.899
-108.9
-19.941
6.1908
-2.217
78.197
63.524
81.643
145.29
13.627
-125.84
-118.9
-87.423
-45.946
-5.3649
-9.165
-8.1622
-8.8378
46.942
133.86
83.031
-39.111
-162.64
-150.99
-26.298
26.08
52.547
40.803
-34.566
-20.449
133.19
147.69
45.963
-80.361
-178.83
-119.94
5.0348
90.568
90.687
55.272
-34.561
-0.86363
203.53
186.3
-34.224
-191.18
-198.64
-111.6
27.262
102.77
99.382
15.879
7.2147
145.01
125.67
-12.348
-128.27
-181.1
-138.02
9.0941
129.53
130.97
69.551
-0.18964
-66.727
-26.375
-3.5297
-11.513
-61.545
-100.93
-30.692
23.487
80.503
86.343
38.824
29.04
103.64
33.857
-64.795
-139.78
-140
-19.515
40.84
7.6802
34.98
36.526
-1.3518
57.026
29.891
-79.846
-113.28
-92.174
-76.765
-45.973
-14.082
-10.634
74.852
67.99
110.25
160.15
43.063
-104.78
-151.35
-87.7
-15.832
26.664
12.035
0.071875
4.9834
99.377
182.65
113.74
-21.044
-169.77
-172.1
-45.213
47.278
59.538
55.005
41.034
8.3236
118.34
141.64
6.1559
-103.36
-142.06
-134.51
-8.8571
47.163
31.902
45.416
33.639
12.643
93.473
123.43
15.681
-114.39
-192.08
-98.72
53.819
69.605
49.61
74.523
26.322
30.535
138.76
74.363
-79.994
-155.87
-173.37
-115.53
23.88
75.189
80.59
23.327
-34.109
53.567
48.785
-7.7056
-80.228
-137.97
-84.463
-21.11
50.838
79.195
58.554
-58.113
-32.395
10.566
-52.449
-129.22
-200.53
-202.74
-121.61
22.08
110.18
104.91
103.03
62.828
-24.745
-35.689
92.546
150.9
99.874
39.316
4.2051
23.078
147.8
235.81
173.32
100.73
31.171
-24.969
-104.56
-163.1
-141.68
-136.96
-147.07
-72.834
72.555
91.132
-26.03
-25.55
-37.53
-150.23
-192.74
-115.05
-23.182
90.475
131.64
51.009
-21.69
68.366
199.75
47.453
-161.06
-253.9
-264.56
-90.432
106.21
112.53
38.481
-37.924
-71.974
120.13
196.33
43.978
-107.8
-224.63
-138.57
88.09
190.66
121.52
38.198
19.184
82.255
280.12
260.54
11.083
-181.61
-266.64
-198.99
2.2295
87.613
61.455
1.0106
-48.497
84.842
194.19
100.96
-66.977
-169.34
-150.63
-38.131
140.42
171.31
123.12
51.539
19.416
125.5
126.24
-24.604
-108.42
-150.74
-128.15
-63.244
30.386
54.216
32.888
-29.228
7.7124
126.03
97.709
-36.141
-152.01
-159.08
-72.634
23.194
84.624
89.066
25.175
-5.5293
109.9
60.764
-81.751
-96.341
-103.53
-82.343
14.697
39.222
-0.72596
17.003
0.70749
95.961
146.14
-48.906
-143.39
-105.9
-85.634
-19.276
69.641
32.301
52.842
75.668
25.111
96.795
90.002
-79.159
-134.07
-84.341
-27.52
28.993
47.127
-28.689
-8.9942
33.957
-18.615
173.04
245.28
-67.477
-228.24
-213.12
-104.21
62.043
53.328
-4.392
-13.347
30.264
92.7
50.619
-114.2
-238.93
-218.5
-100.66
41.412
132.64
89.544
60.095
109.43
143.47
224.66
213.52
5.0401
-199.23
-263.07
-105.39
53.607
70.391
24.477
-11.744
-34.197
60.689
142
40.341
-99.314
-200.9
-189.71
-37.312
51.398
25.146
-1.6106
-35.132
-17.992
167.65
141.69
11.456
-59.059
-109.79
-79.229
58.503
116.91
91.62
52.292
-27.831
2.3549
145.44
136.3
-22.608
-114.2
-152.6
-155.28
-26.469
25.819
-13.93
31.119
-8.2684
26.021
107.05
16.098
-99.349
-169.53
-164.25
9.7601
152.36
145.04
119.97
57.813
-11.549
37.134
12.129
-132.01
-189.06
-172.63
-91.724
47.2
160.36
125.28
61.267
8.8159
-10.776
98.823
66.987
-70.592
-169.16
-181.33
-39.768
84.354
124.36
113.02
106.04
16.507
14.483
93.847
-43.391
-157.11
-199.36
-96.021
8.8903
29.891
80.687
77.666
-18.752
32.645
81.823
-47.042
-80.489
-93.773
-80.1
18.715
40.912
6.5064
28.711
87.191
23.877
20.602
37.842
-72.397
-99.281
-65.583
-9.2712
-0.19558
32.38
18.697
32.069
26.696
41.369
69.897
-24.173
-144.75
-125.86
-97.293
-2.3518
38.602
-22.355
-30.599
-14.574
11.606
89.972
90.472
35.891
-75.488
-131.01
-14.186
59.817
65.125
39.561
2.7155
-29.237
48.153
128.52
58.874
-56.165
-131.59
-173.42
-48.18
106.76
96.613
60.975
-15.926
-60.179
80.531
189.97
70.495
-91.977
-170.96
-166.51
14.598
164.3
121.02
53.718
-21.899
-35.361
108.57
153.64
-17.429
-147.98
-216.1
-203.9
22.163
133.91
87.7
43.496
-35.237
-43.018
123.52
123.96
-20.355
-89.767
-152.8
-82.074
94.053
133.07
85.369
44.511
-23.014
13.614
164.78
105.82
-94.692
-225.87
-251.97
-135.14
77.179
180.09
120.51
33.68
-66.395
-19.871
125.67
86.276
-70.614
-212.68
-249.15
-95.912
113.43
164.63
135.42
47.883
-11.698
78.401
73.557
-39.689
-101.05
-138.21
-89.999
-18.882
73.521
100.91
50.163
-50.275
-8.8735
104.25
97.477
31.564
-30.57
-80.845
-95.758
-18.601
65.969
103.85
112.4
45.325
31.273
35.99
-53.452
-148.9
-192.57
-143.36
-58.109
16.554
122.83
179.09
120.54
73.743
56.329
-38.424
-65.427
-56.898
-101.04
-62.571
23.784
54.662
113.62
117.72
76.065
111.56
55.233
-126.18
-209
-209.21
-203.36
-55.89
11.902
-37.954
-33.478
24.588
26.569
152.11
204.96
3.4716
-93.023
-130.05
-87.696
17.889
67.672
15.735
12.297
42.171
94.259
135.36
3.4527
-145.36
-151.57
-103.57
-14.93
63.739
36.148
-10.204
18.682
47.737
99.224
85.154
-29.469
-122.32
-166.36
-87.397
62.38
87.314
38.323
20.533
26.172
113.65
175.08
48.604
-117.65
-227.18
-222.95
-23.679
51.559
8.8548
-10.984
-20.889
31.668
185.39
168.22
-4.5056
-154.01
-220.93
-127.66
67.977
140.32
124.04
85.332
17.559
64.631
155.83
41.151
-124.45
-187.46
-226.58
-125.72
38.974
82.884
66.202
40.415
-21.338
59.315
197.8
112.26
-57.987
-196.66
-255.39
-112.3
86.894
131.6
132.66
73.448
-27.333
38.187
115.55
-14.355
-110.88
-188.15
-212.26
-88.959
75.063
102.6
77.137
23.938
-5.6222
123.12
200.02
81.068
-50.776
-173.41
-199.56
-66.792
83.692
106.13
85.15
26.567
-2.9747
79.006
100.89
-19.233
-114.84
-170.39
-161.76
-63.805
73.824
116.43
107.47
45.149
23.932
107.29
130.44
50.264
-51.148
-150.59
-137.27
-35.173
58.635
90.039
93.144
33.537
64.489
100.56
-12.27
-109.18
-170.48
-178.75
-88.62
6.556
68.297
119.24
86.975
-2.4991
77.981
111.43
37.164
-42.651
-131.01
-146.01
-87.351
-15.069
50.484
119.56
69.094
73.745
122.45
-10.381
-139.33
-143.06
-155.92
-115.51
-36.826
-8.5983
59.648
121.58
72.04
59.749
30.726
-77.27
-65.624
-33.212
-88.445
-79.089
-30.469
-12.466
47.416
90.83
69.609
99.892
25.705
-105.79
-142.59
-84.7
-65.746
-55.744
16.422
25.78
50.106
69.28
148.66
166.31
51.856
-46.857
-88.334
-56.742
-32.711
-3.6757
33.304
-50.734
-76.925
14.272
64.835
154.47
85.467
-111.75
-161.93
-63.763
-2.4007
53.832
82.793
6.1
-43.257
43.9
184.58
219.86
96.395
-67.556
-205.82
-183.92
-28.6
65.436
67.578
6.8003
-67.947
-2.5581
119.63
202.87
117.97
-80.112
-189.6
-112
8.3621
70.109
93.437
48.145
21.875
23.557
110.34
159.86
7.9674
-133.29
-186.36
-94.403
19.894
75.621
41.705
17.973
-49.555
23.992
166.84
88.887
-53.744
-144.61
-180.06
-51.096
68.916
86.087
49.858
-28.602
-78.728
70.416
144.91
64.635
-39.375
-165.74
-170.81
-31.712
84.492
110.78
72.873
-30.334
-41.138
97.307
59.886
-62.442
-125.16
-148.38
-97.964
12.097
82.253
62.429
18.559
-24.007
11.952
80.082
43.309
-40.882
-130.46
-175.38
-102.86
0.047221
42.56
59.338
33.257
-2.6531
55.76
100.58
43.926
-64.042
-168.57
-150.08
-78.56
22.794
64.095
68.606
18.615
0.53075
111.92
87.938
-60.684
-133.04
-141.88
-101.63
-52.783
37.25
74.617
53.725
-16.91
43.049
112.45
18.661
-43.467
-93.948
-142.02
-84.094
1.8557
-3.5243
70.638
73.463
67.927
105.88
39.084
-81.446
-76.181
-78.454
-89.537
-18.385
39.93
50.303
83.152
73.231
114.39
148.71
30.035
-93.311
-99.935
-68.87
-25.492
56.406
68.372
42.491
42.313
71.502
85.194
34.942
-56.459
-153.68
-115.05
-24.637
23.87
62.011
59.234
36.595
31.702
101.71
102.03
-14.143
-77.937
-103.3
-69.597
7.8142
40.37
19.683
-8.1457
-50.804
36.163
145.28
66.88
-58.161
-130.99
-150.5
-23.268
50.843
31.793
35.785
7.3597
-32.096
93.095
144.98
58.247
-67.977
-197.58
-158.57
-15.207
39.819
27.792
9.5477
-52.281
-39.754
118.67
116.02
-21.579
-102.83
-110.55
-76.536
21.469
82.55
52.605
10.236
-37.332
3.0249
128.17
148.17
17.826
-167.54
-295.01
-189.22
6.0897
96.538
131.02
71.686
-2.2377
-39.068
98.978
164.41
33.106
-119.36
-195.5
-138.2
21.489
153.57
167.81
94.839
-30.278
-7.9892
31.519
-39.212
-116.53
-170.53
-135.8
-72.607
29.358
149.55
201.32
182.97
107.51
47.852
93.421
124.61
107.04
83.429
-31.845
-108.56
-46.216
-15.853
-44.822
-39.413
-59.973
-71.681
47.087
76.407
-36.106
-92.648
-118.9
-173.44
-91.856
54.149
100.39
52.181
-32.839
-41.902
6.6494
35.831
-24.734
-155.81
-232.83
-122.6
80.838
264.25
301.24
152.64
17.025
-27.875
-35.642
-167.83
-332.07
-287.18
-96.076
25.553
110.51
81.935
-30.797
-116.63
-172.95
-174.81
-121.98
1.622
127.3
147.53
64.262
10.978
187.65
360.86
243.64
-39.947
-207.66
-206.05
-88.557
81.65
190.29
207.16
165.53
125.42
104.66
47.167
-5.2131
-30.655
-107.82
-132.93
-100.95
-124.44
-120.23
-114.47
-23.716
92.822
106.16
110.28
81.568
70.848
23.781
-49.471
-32.117
47.451
114.27
103.96
-45.057
-171.29
-94.55
-46.831
-83.588
-84.34
-59.702
-30.909
33.279
78.573
115.94
176.87
184.47
77.455
10.519
-81.837
-133.58
-152.24
-288.79
-241.05
33.795
163.68
112.19
98.276
52.637
-24.883
-46.479
-125.23
-129.99
-42.964
41.066
72.076
81.414
46.016
7.402
14.392
23.166
-66.66
-153.71
-163.91
-160.69
-164.39
-89.612
60.357
176.62
92.775
132.95
158.3
-11.663
-153.49
-117.33
-120.34
-109.73
12.634
51.865
82.928
91.435
139.6
241.42
168.27
-68.547
-220.22
-189.52
-118.41
37.247
123.14
45.968
40.338
124.94
156.05
154.21
16.832
-200.27
-223.82
-106.86
-16.804
92.337
113.39
18.862
65.067
152.9
206.04
216.83
33.208
-161.55
-162.79
-31.002
41.747
79.333
32.974
-42.864
-33.539
97.14
180.97
51.812
-113.64
-211.53
-149.2
-32.164
-3.7364
16.906
-40.633
-92.873
-11.895
151.23
270.86
187.3
-25.934
-124.35
-31.491
36.535
45.669
13.603
-15.448
-71.511
13.465
207.57
139.37
-65.87
-201.81
-255.09
-99.489
39.02
61.981
19.66
-42.462
-60.377
88.158
203.92
79.223
-84.368
-191.81
-161.86
-20.726
58.066
57.568
44.99
-41.659
-18.704
150.26
120.15
-6.2974
-84.585
-169.96
-221.32
-67.242
36.265
60.351
39.502
-21.285
102.56
193.66
52.285
-58.634
-138.47
-162.55
-53.298
91.801
105.2
82.81
-13.306
-108.15
21.481
73.389
-38.446
-94.677
-143.72
-137.66
16.857
133.29
100.34
41.6
-57.934
-63.828
83.28
109.18
10.588
-124.53
-180.76
-168.1
-143.47
-24.258
-14.516
-58.523
-35.075
34.595
47.417
95.076
175.49
207.67
157.4
98.255
120.62
89.337
-124.74
-158.4
-93.463
-111.77
31.237
64.246
-38.342
-72.906
-8.1235
77.605
89.526
60.886
14.928
-65.263
-50.339
-71.71
-16.671
-7.3574
-138.3
-114.3
-47.164
7.2106
82.99
143.9
81.205
13.973
-23.439
-3.0061
52.444
143.72
154.65
107.5
76.78
12.419
-2.9445
-7.0504
0.079712
64.363
11.743
-68.88
-50.124
5.9166
-48.785
-63.455
-161.7
-239.98
-360.28
-505.89
-294.08
101.91
212.53
132.72
171.41
202.35
47.573
15.316
69.532
103.31
85.887
59.72
107.94
93.718
7.9859
-116.78
-140.58
-94.015
-35.311
21.243
34.842
10.712
-12.606
92.228
158.3
56.372
-75.445
-190.59
-174.71
-98.983
0.14394
65.194
71.56
36.5
45.776
159.94
217
125.24
-28.09
-215.18
-196.81
-24.144
86.499
60.18
20.903
-50.185
-24.008
123.53
146.14
-21.59
-148.3
-184.74
-75.189
80.339
129.8
98.32
54.568
-15.788
24.961
157.92
60.294
-103.29
-150.39
-145.03
-16.957
125.21
112.69
38.014
-13.038
-76.959
34.01
135.17
-70.703
-208.77
-176.44
-85.547
65.471
158.12
88.142
3.6798
-15.351
3.0349
149.6
125.97
-79.93
-186.46
-152.84
-69.18
88.701
141.08
34.34
-40.353
-87.766
-36.088
149.15
49.069
-187.1
-233.76
-209.88
-76.379
129.66
121.29
82.231
11.371
-39.273
104.88
165.6
-23.838
-173.15
-212.73
-238.75
-86.769
91.425
128.7
118.88
16.74
1.6022
127.23
130.19
-52.543
-164.84
-201.24
-156.99
84.989
211.27
183.26
105.91
24.288
105.81
155.14
20.03
-102.16
-142.11
-197.96
-121.53
93.687
148.65
131.1
57.377
33.224
150.64
133.35
6.5325
-71.684
-110.13
-111.76
-0.6167
79.484
93.069
63.189
-25.01
51.123
135.78
21.254
-63.699
-80.439
-112.6
-83.037
12.515
71.172
111.97
15.667
12.68
102.54
39.361
-53.544
-101.24
-124.42
-106.54
-18.956
47.609
52.449
46.104
-6.1061
26.275
93.114
-8.5578
-63.892
-70.85
-83.302
-80.854
1.8378
59.231
52.688
26.967
-24.415
82.103
98.405
-47.387
-111.61
-112.56
-92.71
-39.487
28.771
70.006
72.174
-54.148
-10.355
76.294
-29.551
-49.359
-67.626
-90.924
-56.466
-8.1488
26.851
76.182
53.363
-2.951
86.405
96.873
-63.636
-150.22
-160.53
-161.76
-109.55
4.4735
85.794
127.12
90.01
36.44
99.541
95.524
-33.917
-111.22
-153.8
-133.08
-41.583
31.175
64.537
116.58
55.661
63.125
123.6
2.6507
-109.96
-116.69
-142.62
-135.59
-36.136
17.613
74.292
84.897
41.978
139.86
139.75
-22.29
-77.598
-81.828
-93.755
-46.602
-23.517
-6.6357
82.108
46.137
31.578
94.082
27.234
-73.867
-90.388
-88.295
-43.861
14.322
-4.5626
12.756
69.689
56.875
124.35
106.91
-39.138
-95.898
-56.75
-26.107
3.5898
43.984
-8.5471
-24.011
34.859
31.121
127.34
123.93
-69.569
-133.49
-82.682
-89.518
-45.662
12.439
-12.515
66.811
83.165
121.08
163.21
48.005
-90.901
-94.904
-67.166
-60.855
3.5887
42.927
29.342
69.576
46.291
88.35
141.38
7.3139
-106.99
-73.286
-65.483
-66.216
5.8909
19.105
23.217
74.241
72.448
135.82
126.22
-30.128
-105.27
-82.176
-71.838
-49.966
-5.2052
2.9579
28.146
44.176
28.704
98.232
69.225
-105.65
-180
-157.89
-114.34
-48.35
24.612
26.718
123.26
177.86
145.93
160.91
157.54
117.87
106.54
85.587
78.84
25.445
-31.158
-60.762
-40.054
-128.64
-190.86
-199.5
-319.39
-348.45
-169.52
17.54
32.725
51.182
29.024
50.315
151.97
86.139
66.924
35.738
-73.387
-103.15
-159.38
-152.59
7.9845
33.108
18.282
27.528
63.142
99.208
31.844
-91.312
-138.6
-85.119
-54.752
3.1387
96.878
110.99
74.523
71.551
105.39
155.86
62.298
-129.96
-276.88
-287.89
-152.7
27.595
125.86
43.283
-66.434
-4.4369
157.81
187.34
50.864
-124.11
-205.45
-129.47
58.627
188.36
137.62
38.909
-35.128
96.705
271.55
193.24
-11.51
-161.11
-223.7
-108.72
83.717
105.27
10.538
-78.174
-75.968
129.05
280.41
181.14
-24.02
-182.05
-147.38
19.392
101.8
75.776
1.179
-92.625
-28.766
163.71
137.75
-21.978
-160.91
-255.88
-138.58
82.946
110.51
41.611
-35.049
-65.366
97.747
210.24
51.423
-110.58
-180.36
-192.45
13.519
167.69
88.336
7.1015
-35.807
73.225
242.05
93.339
-119.22
-202.36
-230.25
-109.26
101.59
101.24
-2.4014
-73.204
-102.38
76.745
219.64
54.618
-96.65
-148.64
-136.02
27.982
124.46
67.372
33.077
-31.441
41.329
118.92
7.1715
-108.53
-167.57
-185.49
-80.461
81.891
115.99
59.153
-19.678
-10.15
48.906
27.58
5.5689
-75.987
-157.48
-131.05
5.4463
154.44
141.74
56.814
-39.553
-6.9575
71.509
35.172
-48.283
-99.283
-148.32
-145.74
-48.207
56.883
44.193
13.067
-28.723
41.478
194.81
146.11
-19.872
-151.5
-158.71
-109.28
34.178
121.67
84.494
3.0383
-13.748
32.9
82.665
43.195
-66.241
-107.44
-58.975
-13.603
65.718
154.93
139.69
66.152
109.24
0.88584
-176.22
-126.05
-6.8204
-60.201
-32.651
59.265
55.329
67.918
29.158
-11.488
70.443
87.757
35.682
-37.152
-95.504
-96.839
-117.9
-35.145
71.402
60.301
-27.21
11.204
63.279
-22.645
-67.947
-93.138
-101.02
-63.444
-14.247
11.087
74.647
56.959
-0.54223
81.404
77.683
-41.375
-85.346
-115.42
-140.98
-38.866
52
10.137
64.577
92.489
24.805
8.4432
6.4621
121.65
214.18
125.96
54.024
-31.58
-81.123
-35.001
-68.707
-105.45
-86.505
-57.772
-16.864
54.664
43.675
5.2995
-119.62
-300.43
-241.66
18.215
165.7
114.86
151.38
93.737
-45.392
-45.718
-91.947
-134
-80.368
-76.423
-54.076
-22.19
23.778
121.48
8.5945
-187.88
-239.1
-170.15
-126.49
-8.7223
63.525
20.625
36.552
105.72
168.21
171.87
62.833
-87.506
-51.428
39.673
97.591
126.93
97.479
-40.609
-138.57
-10.218
124.73
59.664
-67.304
-162.9
-89.932
-15.619
29.388
113.35
103.11
67.295
110.61
282.56
295.97
80.137
-100.37
-149.18
-92.112
-6.3215
80.425
75.433
33.444
11.176
87.217
207.3
152.54
-13.998
-159.2
-128.11
-33.545
5.2791
65.119
58.802
26.002
12.328
131.51
169.32
-7.312
-199.41
-302.7
-218.64
-61.712
80.455
110.89
30.642
-4.943
31.586
113.13
153.48
-6.0612
-171.38
-234.14
-125.7
53.893
138.53
121.52
15.42
-18.465
20.74
73.33
45.102
-97.923
-190.67
-138.06
-22.545
51.113
44.189
11.856
-17.426
-47.862
46.856
108.12
-16.783
-161.67
-246.93
-183.26
5.2559
123.14
150.8
104.12
32.37
32.918
124.98
112.01
-10.118
-117.28
-232.68
-191.91
-24.118
59.094
91.011
68.774
-28.323
-9.969
80.292
91.637
5.4809
-152.14
-263.3
-154.23
21.094
90.525
93.27
74.819
-10.719
70.869
181.08
132.46
-11.47
-146.38
-206.01
-43.634
220.34
227.41
54.831
79.575
108.03
118.94
77.8
-29.57
-185.1
-252.22
-172.44
-98.077
-54.759
37.135
98.953
71.487
25.524
-5.2808
-62.03
-88.667
-64.142
-29.896
133.23
278.27
208.17
26.471
-170.92
-107.41
-29.783
14.817
59.772
-90.022
-261.82
-301.17
-104.21
139.3
176.12
108.2
0.064783
-75.906
1.6364
76.365
33.172
-75.489
-187.71
-208.6
-28.844
109.47
116.94
69.276
-59.347
-38.962
92.534
110.21
-1.4576
-176.01
-272.75
-168.64
54.496
143.5
138.27
34.164
-51.964
69.631
254.38
228.2
-19.748
-220.07
-250.54
-19.675
222.06
294.25
216.21
47.063
-15.595
-33.059
-61.125
-127.34
-198.24
-296.02
-263.04
1.8963
201.82
207.12
74.322
-42.372
45.811
235.28
253.27
54.143
-135.65
-255.02
-113.89
120.58
112.37
14.488
-54.367
-81.914
98.376
187
15.488
-158.62
-252.19
-241.58
7.8077
229.24
186.88
92.509
1.3883
3.7326
168.9
160.25
-53.725
-183.82
-250.55
-187.94
68.275
142.93
91.456
27.164
-53.192
59.622
138.94
53.697
-53.362
-149.77
-193.31
-56.873
142.06
146.14
73.354
-35.677
17.995
141.19
68.983
-55.893
-138.69
-190.11
-168.56
-19.109
128
132.65
25.786
-66.366
14.214
112.54
62.25
-78.27
-138.59
-158.35
-106.26
62.316
171.85
128.88
15.18
-12.535
61.707
111.19
49.725
-67.115
-135.56
-187.04
-152.8
-25.661
90.63
135.61
128.83
149.32
135.92
165.93
180.92
176.5
115.68
7.7524
-64.2
-76.525
-60.209
-92.47
-148.75
-176.92
-211.93
-133.02
-105.15
-158.87
-238.76
-386.05
-543.47
-677.32
-380.33
287.43
483.61
423.5
376.29
268.07
66.174
-7.1986
-79.275
-23.114
96.116
197.65
176.23
70.861
27.154
-34.24
-79.649
-103.5
-122.57
-144.06
-120.52
9.4307
179.43
200.36
48.518
3.0272
3.0494
-15.453
-4.1092
-28.829
-97.844
-129.11
-47.141
86.738
190.46
155.98
46.523
32.172
27.574
-26.626
-61.886
-128.56
-166.05
-180.68
-65.414
155.11
181.43
102.09
46.778
-0.44379
3.7973
14.04
-36.063
-82.476
-111.24
-106.57
14.482
177.39
178.7
60.208
48.953
47.511
28.962
18.333
-48.037
-110.66
-117.3
-49.96
75.664
201.24
165.6
64.753
43.417
1.9849
-55.694
-68.958
-118.15
-151.42
-123.01
-16.68
113.15
160.61
76.977
43.576
77.532
9.0156
-69.823
-93.128
-128.41
-133.87
-52.55
53.911
172.68
174.81
51.037
38.418
40.326
-36.801
-75.613
-80.293
-103.12
-66.235
11.608
89.852
170.88
75.975
27.864
47.303
-54.468
-108.56
-92.735
-110.93
-103.63
-63.214
-8.8223
53.569
62.466
63.441
108.6
114.59
38.263
-53.313
-101.7
-123.53
-83.789
16.041
14.268
67.504
104.21
56.423
67.101
43.755
-75.575
-115.21
-104.91
-114.23
-126.34
-14.729
14.933
64.627
89.042
55.003
113.38
50.041
-86.667
-96.713
-73.295
-107.01
-49.605
20.054
31.969
101.83
64.783
80.328
78.58
-42.707
-138.3
-109.94
-104.79
-102.63
6.8875
48.668
-0.52896
48.834
84.935
117.95
91.504
-88.991
-171.5
-99.567
-110
-57.765
38.311
-13.322
80.412
220.02
257.46
205.02
69.423
41.944
28.963
-0.1513
18.419
-57.67
-225.76
-265.51
-45.919
202.95
182.82
122.78
69.597
-104.51
-190.42
-105.55
-36.933
-26.739
-40.234
-71.052
-65.802
126.63
137.28
-8.0719
-146.29
-231.15
-161.76
-30.407
68.844
95.136
87.183
-23.27
-13.566
122.04
142.07
33.451
-114.44
-218.11
-162.46
-1.031
110
136.3
83.297
-36.508
85.721
185.17
-4.7848
-209.15
-359.34
-371.79
-102.38
179.32
198.68
137.77
27.587
-34.916
124.94
194.67
51.228
-67.673
-177.98
-180.4
13.975
139.97
103.58
13.325
-105.81
-3.7064
182.3
130.22
-28.661
-174.3
-238.79
-41.787
180.21
212.72
154.91
41.662
-43.875
99.329
194.85
74.897
-83.599
-226.62
-260.89
-78.243
137.74
156.9
64.311
-30.113
-35.424
167.68
193.17
11.615
-149.96
-198.96
-163.28
18.217
159.88
137.41
60.846
-58.37
3.0835
133.54
57.448
-104.57
-208.81
-243.23
-119.74
112.29
157.42
71.47
-42.917
-48.056
168.55
244.18
110.07
-79.697
-236.56
-228.7
-31.724
144.36
131.04
51.927
-26.242
-43.504
96.25
124.1
-19.481
-154.72
-229.05
-150.05
33.915
106.9
51.036
-7.3673
-59.738
71.919
182.42
74.184
-69.215
-186.33
-238.34
-130.26
32.823
87.152
57.908
14.602
46.837
175.33
156.9
-15.78
-118.72
-222.08
-188.1
-26.541
87.868
99.278
26.483
-53.091
69.351
196.19
74.524
-76.615
-174.51
-235.14
-173.27
17.763
118.12
68.277
-29.344
-95.157
53.361
228.02
152.3
-30.572
-185.64
-211.7
-17.731
180.82
190.32
94.58
-32.07
-32.147
141.11
134.77
1.4939
-77.06
-232.89
-263.41
-35.25
113.53
83.209
2.1262
-98.427
-39.998
196.98
173.37
-28.408
-162.63
-259.2
-124.03
139.61
178.63
81.853
-40.123
-88.558
118.16
299.28
130.56
-57.402
-187.81
-145.56
102.25
203.28
71.16
-65.856
-160.85
-63.082
184.34
123.3
-57.956
-173.4
-232.55
-102.55
124.5
185.16
109.85
-18.77
-45.769
160.25
176.94
-9.099
-156.8
-215.56
-185.35
7.5691
134.92
91.917
18.808
-68.734
18.682
185
117.03
-46.326
-179.67
-233.08
-84.895
86.061
137.11
94.07
-23.356
-80.825
84.625
135.38
-20.424
-139.98
-212.13
-168.38
33.998
108.61
55.123
9.4626
-78.904
-0.018131
178.6
119.37
-53.287
-176.65
-217.15
-80.918
96.913
104.5
49.806
-45.44
-31.737
77.478
35.969
-72.472
-151.7
-201.38
-123.3
59.932
133.08
99.403
27.836
-13.646
87.801
147.76
49.715
-103.16
-178.5
-150.52
-32.557
91.159
94.363
13.659
-85.453
-35.268
136.92
142.19
16.081
-126.44
-210.27
-151.6
31.933
155.49
155.98
67.37
15.056
92.853
99.652
34.893
-45.59
-115.88
-121.45
-67.535
39.513
87.524
33.77
-60.676
14.258
120.41
115.4
25.638
-71.878
-130.73
-110.84
75.497
187.41
108.84
-23.068
-34.353
47.035
49.898
-34.925
-80.879
-71.92
-138.47
-59.646
131.46
163.72
67.199
-25.475
24.774
126.45
135.45
3.2708
-130.77
-183.43
-134.54
-18.796
64.146
45.899
-21.364
-9.8994
24.162
64.006
39.106
-82.649
-134.46
-127.5
-36.12
117.62
142.1
78.551
11.989
20.258
21.493
8.5605
-52.377
-210.67
-264.12
-182.45
34.869
157.81
95.878
-40.351
-51.135
40.017
96.495
73.935
-22.862
-137.68
-218.01
-84.64
120.5
153.59
59.585
-45.129
-19.423
49.428
44.47
-48.104
-117.52
-180.28
-139.19
94.925
202.71
162.89
46.923
-8.3166
72.846
147.73
78.237
-46.746
-162.03
-221.11
-49.519
143.22
141.88
31.442
-74.683
-50.088
161.65
282.49
82.26
-107.58
-146.46
-73.979
114.37
170.07
79.418
-46.272
-93.596
19.114
107.35
20.022
-110.39
-149.66
-105.32
-33.232
45.54
93.58
124.36
116.95
57.311
70.427
109.33
115.22
80.149
43.327
27.313
21.942
-25.651
-85.783
-95.073
-101.41
-99.51
-60.484
-60.424
-55.693
-52.299
-21.552
-5.5527
-33.264
-66.161
-88.522
-63.954
-49.171
-11.39
-39.736
-75.008
-38.322
-1.3393
35.47
24.017
-5.0222
-31.786
-106.91
-92.602
45.002
41.369
8.7515
-27.819
-182.33
-140.02
79.682
147.16
89.586
-30.94
-107.26
-19.396
38.978
-36.402
-138.57
-285.87
-282.88
-24.679
206.72
237.45
184.4
151.12
149.78
146.55
87.142
-10.487
-94.375
-177.9
-15.326
216.06
177.03
142.91
202.25
219.21
180.44
113.38
-13.009
-93.994
-214.41
-271.88
-140.98
-145.28
-193.27
-222.93
-255.62
-167.72
-6.6536
-22.609
-65.705
18.158
199.02
267.98
149.84
30.905
-60.324
-206.58
-73.694
131.65
118.41
-20.603
-147.56
-202.13
-67.733
92.494
89.961
-40.588
-131.28
-121.63
-2.5404
77.976
115.4
43.06
-174.79
-197.59
62.056
277.26
400.2
314.38
106.79
201.38
276.95
91.827
-123.86
-387.51
-457.3
-271.15
-48.623
75.754
70.911
-30.761
-38.162
118.79
245.26
192.53
-33.194
-222.56
-139.98
71.558
171.21
149.98
29.559
-58.043
102.64
253.86
143.76
-40.538
-238.11
-237.19
5.3719
157.27
151.6
72.629
-43.262
-29.81
109.12
157.31
27.856
-184.58
-273.97
-100.13
54.858
97.807
68.233
-7.7013
-2.5773
111.37
210.82
126.56
-48.809
-176.44
-160.13
-44.681
22.627
61.992
19.136
-46.273
-9.8167
87.411
98.609
-32.303
-191.49
-183.59
-39.847
-2.3051
31.491
61.453
5.9078
16.737
84.182
159.19
107.43
-48.689
-187.03
-149.14
-35.922
18.007
62.942
37.748
-24.796
-1.8578
52.765
79.459
-9.196
-160.76
-179
-75.33
-32.996
-5.5215
48.422
15.86
54.815
96.976
117.64
129.31
-6.2289
-146.69
-95.79
-30.732
-60.751
17.961
69.221
-8.9696
37.219
17.859
60.381
76.091
-140.08
-172.74
-29.167
-49.871
-65.642
27.2
26.171
57.233
70.169
105.47
79.003
-68.505
-152.19
-83.073
-50.29
-57.866
17.022
-2.1528
5.7348
78.6
65.071
95.033
42.074
-58.507
-54.442
-64.484
-81.196
17.228
51.849
-3.6754
50.356
67.311
80.924
126.39
1.0367
-117.76
-68.143
-95.86
-107.24
21.989
46.488
51.224
98.258
64.005
94.378
49.196
-74.314
-57.127
-33.986
-88.336
-30.242
53.742
53.401
99.298
58.607
60.85
106.27
-22.706
-120.72
-64.326
-50.394
-64.548
-22.429
29.044
75.209
53.634
5.9333
78.503
48.526
-37.16
-30.794
-38.758
-71.467
-72.774
-0.15733
61.994
90.546
21.76
19.662
102.14
83.955
-14.177
-88.943
-121.9
-26.625
5.6594
-66.352
-61.577
-102
-67.033
70.629
20.899
-31.325
-34.415
-118.34
-160.56
-91.505
-21.171
76.259
99.671
20.415
64.693
165.66
63.437
-24.927
-56.878
-139.3
-112.86
-0.85339
49.189
58.509
20.798
-41.775
8.0055
55.116
0.89683
-27.257
-96.147
-139.88
-81.794
55.057
148.71
131.58
44.916
8.1066
87.432
87.393
4.0224
-66.219
-117.79
-182.54
-129.33
67.181
127.29
67.693
-12.486
37.321
126.09
76.849
-25.437
-66.406
-110
-118.93
71.128
149.61
87.531
31.44
-24.88
56.988
125.34
-3.98
-159.92
-210.2
-206.15
-47.966
136.43
137.04
70.823
-33.396
-20.486
153.51
144.04
1.8144
-104.1
-198.46
-151.81
86.347
159.23
86.982
-10.243
-62.78
88.409
156.43
18.648
-96.243
-159.33
-166.13
-20.179
111.28
60.047
-7.2739
-90.198
-35.992
169.64
133.37
-33.554
-129
-156.36
-79.287
128.28
186.82
106.24
-1.0168
-28.671
170.63
257.34
104.36
-110.68
-309.81
-323.89
-79.486
31.155
-8.0028
-29.45
-84.709
-13.065
183.51
120.58
-43.52
-136.03
-155.51
-13.301
136.55
155.66
79.721
-41.082
-53.079
133.33
179.75
21.093
-113.2
-189.94
-108.27
68.168
131
105.11
8.9083
-33.851
24.304
15.232
-15.995
-98.382
-201.08
-180.28
-33.756
55.727
64.435
1.7085
-44.769
9.9978
149.17
159.01
-5.4585
-116.68
-104.3
-47.904
7.4829
48.149
33.221
-30.48
-46.98
36.319
105.2
26.666
-128.29
-204.14
-85.587
-8.374
-28.286
9.9168
-5.6792
23.698
151.34
153.77
52.911
14.155
-66.525
-35.378
74.062
35.108
41.858
61.693
65.986
170.59
216.26
149.94
89.603
-17.045
-166.89
-179.55
-211.69
-259.66
-176.23
-136.38
-67.877
93.42
77.243
136.17
149.35
-84.873
-149.77
-81.997
-89.792
10.842
-31.164
-42.832
14.612
100.04
134.07
70.156
-80.719
-187.83
-141.48
-113.28
-23.506
76.464
56.354
83.63
112.4
163.2
189.33
89.501
-57.852
-86.369
-96.992
-122.93
-24.036
44.917
72.02
109.75
54.088
113.39
134.86
-41.607
-106.35
-86.405
-146.64
-144.47
-60.427
40.59
134.67
119.75
59.783
150.13
116.71
-3.1604
-25.962
-62.437
-106.78
-90.391
38.93
127.29
109.22
-9.4984
-34.566
52.735
38.349
-0.22028
-78.351
-146.85
-191.91
-96.998
150.67
215.97
141.25
67.168
70.059
74.74
16.453
-97.026
-167.05
-183.59
-151.96
43.862
143.73
116.85
41.549
-26.924
34.057
79.469
68.909
7.7068
-160.63
-186.03
-85.14
44.361
109.53
50.911
-8.4469
-68.084
33.129
203.25
66.132
-137.22
-282.54
-348.04
-125.45
113.82
98.978
28.809
-34.566
18.423
225.57
174.91
-15.739
-127.17
-232.63
-144.77
111.66
160.56
84.545
-20.465
-89.823
111.61
188.62
23.914
-115.57
-253.59
-202.15
17.986
114.46
100.64
17.096
-97.052
46.057
241.46
153.92
-11.812
-165.27
-227.26
-51.788
57.832
49.087
11.2
-96.535
-71.736
138.76
249.3
127.59
-103.95
-211.63
-92.424
12.352
88.938
83.759
-32.572
-76.183
59.27
120.4
123.59
52.565
-89.16
-90.878
-36.521
-37.328
2.3838
-6.0993
-13.85
55.235
169.18
179.2
59.683
-112.77
-157.45
-41.713
-3.5289
-2.0799
34.624
-28.446
-42.504
-13.794
21.924
64.315
25.778
-83.751
-135.62
-96.25
-82.828
-101.04
55.981
221.52
275.66
243.5
161.89
48.27
-72.618
-95.399
-98.431
-152.33
-174.66
-172.78
-147.07
-18.477
27.476
-26.389
-32.169
-90.531
-35.34
81.83
85.257
58.633
33.279
13.49
106.75
174.56
193.36
201.98
60.948
-46.797
-69.411
-79.978
-93.603
-151.83
-174.25
-45.871
85.654
111.78
162.37
81.149
-57.964
-167.16
-224.3
-180.09
-111.32
6.3197
76.459
163.94
127.57
-13.16
-102.45
-168.61
-139.29
-127.38
-160.53
-123.02
-29.722
21.425
109.17
111
4.6532
117.28
132.44
-44.47
-110.91
-103.19
-119.53
-124.87
-29.447
117.83
161.28
56.567
16.873
59
31.426
57.245
21.041
-72.669
-141.58
-93.935
129.13
246.67
190.45
32.517
2.2879
100.66
70.967
-55.346
-163.12
-232.15
-239.5
-90.229
165.07
211.67
85.415
-57.779
-3.7721
169.41
223.65
74.355
-79.422
-181.5
-163.71
54.332
150.26
68.62
-28.656
-105.74
39.687
270.11
212.65
-44.458
-254.44
-236.72
-0.9757
173.84
165.68
75.913
-58.25
15.628
213.71
123.44
-49.617
-183.7
-250.87
-112.74
66.978
90.745
-7.6277
-136.06
-117.04
109.16
202.45
111.16
-59.291
-184.92
-120.18
12.6
89.847
100.21
59.967
66.485
118.84
109.71
75.897
117.42
143.38
141.77
104.48
-12.708
-105.93
-161.52
-195.75
-49.924
51.858
39.654
-10.864
-49.363
-73.262
-81.032
-126.31
-273.54
-357.67
-627.23
-617.35
-10.452
253.78
254.95
140
54.681
125.58
102.69
35.615
84.503
72.576
47.796
98.797
194.12
171.79
53.692
-112.7
-176.13
-44.119
66.473
44.071
-16.47
-55.237
-40.146
76.542
140.68
36.012
-113.57
-208.43
-65.847
27.851
63.326
79.319
2.3629
-9.6614
37.415
146.99
119.42
-26.625
-130.74
-147.85
-77.473
-54.02
21.857
46.618
61.987
139.53
139.87
112.35
41.435
-136.8
-234.38
-125.6
-67.328
-14.428
27.953
-18.734
10.66
100.35
188.47
229.94
78.243
-102.29
-88.135
-50.657
-15.149
49.049
46.124
83.703
145.62
167.14
89.632
-79.185
-236.31
-240.28
-193.23
-147.92
-51.578
3.2786
51.852
124.16
104.64
133.16
127.74
-25.637
-91.038
-82.519
-105.62
-56.919
-2.8429
5.1157
81.496
93.87
29.471
103.76
89.875
-34.953
-28.52
-57.987
-70.215
-63.718
-9.2913
86.813
120.84
45.703
66.265
174.8
70.609
-69.857
-154.23
-202.81
-187.89
-106.44
79.105
128.39
41.548
-38.084
43.798
88.651
45.306
9.4145
-69.528
-116.3
-98.746
0.57222
106.53
83.465
-13.827
-94.911
24.357
113.26
19.458
-77.789
-155.4
-196.86
-31.049
160.86
163.27
89.496
-35.115
33.363
163.07
62.669
-45.421
-144.44
-216.55
-138.51
49.838
138.49
89.216
-14.34
-115.57
0.8192
163.19
43.918
-114.53
-197.97
-214.73
-47.865
114.34
130.04
41.587
-68.358
-99.698
111.51
271.21
131.54
-54.03
-183.58
-205.74
-89.117
74.065
126.41
24.07
-92.024
-4.5598
194.97
171.41
31.603
-117.56
-154.37
-60.459
19.492
75.398
35.923
-58.834
-86.733
75.108
131.6
11.415
-92.159
-150.29
-57.921
22.246
55.482
60.104
-15.582
-29.771
42.721
137.71
186.24
65.412
-130.88
-165.84
-74.333
-21.937
46.994
28.288
-51.916
-20.226
69.369
137.53
70.528
-97
-157.08
-51.152
2.5424
12.381
43.115
7.2515
-2.2696
23.339
69.367
124.81
-2.5186
-166.04
-116.55
-32.277
-20.687
0.047134
12.348
47.317
95.705
65.865
113.23
75.272
-75.722
-97.597
-59.799
-78.282
-63.352
-21.166
19.2
67.21
51.133
3.8799
87.401
45.139
-72.944
-55.795
-73.32
-93.254
-87.509
9.302
155.91
185.69
69.905
28.881
88.324
14.627
-77.39
-133.46
-190.97
-175.42
-141.86
17.34
152.99
132.3
25.824
51.482
78.589
61.229
46.777
-55.081
-146.1
-182.64
-75.617
144.37
159.87
71.668
-22.476
-28.332
91.43
78.395
-42.955
-171.37
-187.33
-46.602
31.413
46.398
9.4183
-71.342
-97.487
77.243
243.13
146.38
-36.651
-145.28
-203.86
-56.073
112.55
102.78
26.207
-91.369
-124.5
43.431
163.46
87.294
-81.558
-232.57
-174.31
78.544
161.21
100.32
18.598
-75.319
-13.739
177.09
191.14
-7.9344
-257.52
-315.13
-91.11
153.3
173.24
87.589
-39.396
-60.835
132.94
265.4
156.27
-77.28
-279.23
-269.78
-25.246
135.81
104.32
-5.1824
-104.31
16.975
221.4
192.75
-53.97
-311.03
-334.83
-59.497
188.33
196.62
113.57
-37.836
-101.12
123.15
188.7
21.151
-142.16
-299.72
-193.21
88.395
207.97
111.25
-32.314
-132.04
20.66
250.62
214.67
27.937
-206.59
-305.89
-116.85
97.592
147.07
64.589
-40.213
-56.598
130.91
205.68
62.214
-161.34
-297.95
-152.21
34.115
145.12
167.34
42.647
-70.888
82.767
287.91
214.2
29.069
-170.93
-331.49
-229.81
-37.798
73.152
17.312
-86.926
-16.417
135.9
187.83
141.34
0.98921
-133.28
-74.834
-6.4751
57.906
56.129
-43.83
-103.84
-19.065
117.64
144.47
10.142
-186.12
-166.98
-21.474
5.2646
52.534
14.379
-59.947
51.282
139.37
180.31
78.868
-144.29
-266.15
-145.55
-48.626
46.197
109.21
38.733
-27.307
21.107
92.785
132.97
13.534
-170.19
-107.33
10.392
-37.653
-4.5949
25.729
-4.698
70.032
102.87
152.49
137.77
-60.205
-167.75
-95.796
-73.981
-28.832
44.943
8.0482
-15.172
18.892
56.417
160.54
103.93
-103.82
-158.32
-142.31
-158.58
-64.996
-4.5333
33.837
102.39
47.135
37.392
148.95
45.467
-39.908
33.524
-54.113
-153.7
-104.9
-11.845
63.658
90.04
37.197
33.397
58.568
35.449
-24.304
-65.715
-103.19
-181.61
-107.35
127.01
210.72
128.96
17.059
33.157
126.05
118.03
34.169
-69.459
-156.84
-154.97
22.572
144.12
139.57
59.094
-62.09
-48.363
27.679
-3.2048
-25.474
-84.691
-234.1
-167.29
109.49
220.81
163.71
46.627
28.685
54.726
-15.039
-106.34
-149.18
-176.62
-197.51
-59.742
112.22
119.37
37.009
-59.004
32.913
167.59
134.63
24.35
-98.812
-187.95
-107.15
91.471
123.69
96.041
-12.64
-77.335
93.757
106.71
-53.569
-168.77
-257.47
-208.09
22.475
168.93
124.69
53.994
-87.762
-128.98
105.41
174.53
18.477
-124.91
-287.96
-234.42
14.072
119.59
67.641
-80.483
-178.87
-48.152
210.5
221.91
25.633
-153.69
-230.75
-71.119
149.42
178.49
51.819
-87.612
-121.32
85.013
247.66
135.85
-64.288
-228.08
-197.87
12.299
116.6
77.685
-6.2294
-96.52
-6.8929
193.41
166.72
-1.3649
-124.39
-184.3
-91.446
57.863
130.38
73.029
-57.746
-66.916
114.23
206.38
85.344
-90.273
-213.27
-98.534
25.851
72.415
124.02
21.062
-106.5
-21.177
107.55
170.15
76.927
-135.65
-184.75
-39.518
1.7767
24.918
43.689
-65.309
-65.919
103.42
191.56
118.14
3.6606
-146.99
-130.63
-67.38
-26.265
110.19
83.823
-44.256
38.024
100.71
110.92
162.08
-27.251
-207.73
-113.88
-56.65
-125.97
57.619
131.98
82.863
105.3
73.22
99.762
104.84
-59.394
-161.14
-71.255
-115.04
-111
36.405
50.672
94.268
107.55
45.852
98.731
49.058
-148.11
-127.03
-78.649
-121.84
-64.959
27.836
26.4
65.552
20.941
32.38
109.68
-48.251
-138.54
-46.097
-58.411
-94.851
-67.807
59.277
149.06
141.89
7.7115
21.837
126.65
0.52557
-66.312
-74.293
-121.32
-159.63
-77.783
10.985
39.495
36.868
-65.448
-24.531
113.9
76.673
23.878
-26.641
-108.43
-182.72
-49.351
248.6
320.13
167.47
-27.632
-34.111
76.664
11.163
-109.89
-191
-239.52
-247.71
-51.855
224.25
234.63
48.261
-120.31
-32.924
136.78
168.96
59.533
-73.805
-153.86
-193.85
30.086
221.59
134.05
-29.728
-149.77
-47.166
102.79
50.955
-69.576
-169.95
-233.84
-113.54
199.97
270.54
126.31
-29.147
-105.11
58.876
206.94
99.03
-124.36
-284.21
-305.1
-77.739
212.74
197.22
56.229
-73.352
-79.013
115.69
201.76
24.813
-187.51
-294.49
-172.64
144.08
290.67
156.65
-0.2771
-144.85
-53.169
200.62
165.06
-49.434
-200.96
-238.73
-35.489
187.06
160.64
15.779
-96.306
-116.56
118.48
238.82
61.774
-115.05
-284.76
-266.01
31.147
208.06
129.96
-1.8256
-117.42
-13.264
231.71
188.27
-39.101
-228.35
-256.44
-47.039
171.96
194.87
81.126
-59.402
-155.55
42.286
200.72
57.907
-118.29
-259.16
-214.57
2.659
115.77
106.57
-11.247
-147.96
-48.095
234.04
266.94
135.3
-66.19
-264.95
-130.61
65.82
120.44
54.734
-92.57
-172.99
65.958
264.96
137.27
-62.609
-258.99
-250.43
-55.754
81.81
133.16
55.1
-63.8
10.933
218.16
237.16
51.863
-174.77
-332.51
-208.5
-25.116
82.542
97.314
-35.123
-88.116
99.916
239.58
152.69
-53.322
-268.98
-223.12
14.848
82.944
122.19
101.39
-80.779
-94.48
102.9
173.39
118.16
-66.188
-266.61
-145.66
-0.77871
-16.614
103.12
37.135
-55.349
104.4
195.44
173.04
80.289
-165.58
-322.02
-164.2
-67.785
4.1036
110.87
1.0781
-34.3
112.73
178.31
142.48
-25.75
-213.26
-152.52
-1.6383
-41.268
23.541
69.272
-42.305
9.2775
109.24
130.68
84.359
-51.682
-198.36
-132.33
-72.794
-35.132
111.24
27.963
19.851
162.16
134.5
149.58
102.43
-131.26
-160.22
-62.97
-93.382
-24.278
85.745
-8.1647
12.28
102.21
69.269
96.786
-4.9167
-222.25
-147.21
-34.081
-93.453
-17.551
43.902
66.607
218.09
175.85
87.683
130.7
-22.991
-176.05
-145.55
-187.2
-201.74
-38.093
28.135
108.27
175.59
66.117
70.9
72.939
-89.836
-64.13
-7.0496
-125.3
-156.61
-20.608
107.04
196.83
153.86
31.841
47.96
9.8682
-106.64
-112.95
-166.63
-219.2
-121.66
41.947
176.02
193.39
58.835
47.2
54.211
-34.467
36.66
32.575
-122.33
-196.93
-77.174
81.424
141.16
81.381
-4.0797
-23.059
22.54
64.586
33.498
-68.529
-169.78
-198.69
4.5635
290.51
321.39
178.51
95.951
1.3771
-95.201
-125.19
-182.24
-290.25
-349.22
-266.45
27.896
257.86
219.72
95.689
-32.114
33.048
207.95
144.9
-61.968
-221.28
-285.27
-151.86
197.24
284.74
152.85
1.3995
-51.132
77.729
85.182
-62.087
-208.78
-302.25
-260.1
22.802
285.6
225.66
27.04
-128.19
-47.762
182.14
197.45
3.6267
-171.95
-306.03
-199.99
118.9
234.2
95.03
-69.082
-120.3
64.468
244.38
126.67
-160.56
-367.14
-305.39
6.0133
282.88
226.78
20.54
-130.69
-84.302
149.99
204.73
4.9802
-233.41
-361.79
-192.57
138.88
283.95
153.06
-25.553
-45.252
183.68
318.85
137.02
-135.8
-375.23
-366.75
-69.926
213.35
205.08
31.102
-105.88
17.138
260.92
214.39
-20.166
-257.24
-302.22
-36.942
197.58
234.35
138.92
-17.91
-23.935
252.92
301.81
111.48
-64.889
-262.82
-191.9
-12.038
-17.145
-11.378
-62.789
-9.5351
231.92
227.83
79.224
33.275
-45.634
-13.823
198.18
161.13
30.312
-78.97
-212.19
-80.257
86.072
-47.102
-208.55
-302.79
-458.19
-399.58
-240.86
-222.56
-131.98
-141.42
-197.21
-47.677
89.901
186.58
156.47
-188.3
-273.58
-4.4522
265.63
329.85
180.65
-9.4728
109.65
362.39
393.45
202.38
-172.39
-391.34
-186
94.828
173.64
118.98
-41.071
-118.59
113.95
258.4
163.34
-60.84
-324.23
-271.6
-24.643
65.196
76.087
3.0647
-39.531
159.67
337.74
228.6
26.755
-257.73
-420.92
-214.21
14.905
112.56
97.091
-44.263
-27.371
212.84
260.2
129.94
-100.91
-339.53
-205.05
7.2894
80.536
106.94
24.379
-102.93
45.466
276.19
267.59
106.27
-171.2
-299.65
-69.535
79.263
167.2
150.32
-43.17
10.003
256.4
252.45
179.41
66.534
-103.07
-191.69
-182.21
-177.09
-162.59
-210.41
-207.91
60.595
233.18
94.94
-45.097
-267.4
-296.59
-109.56
-165.74
-239.37
-172.61
-127.57
18.834
256.96
340.07
330.92
162.44
-146.98
-191.03
-114.61
-51.56
138.69
75.807
-45.141
100.52
156.81
161.94
137.47
-121.4
-221.61
-53.655
-79.425
-25.005
94.719
8.1979
59.797
124.32
91.113
152.26
75.551
-164.42
-172.7
-129.61
-121.88
47.433
71.205
82.525
173.75
95.991
95.811
123.48
-69.012
-151.59
-76.675
-159.44
-110.04
42.443
63.855
139.18
102.83
-42.129
22.229
55.377
-50.283
-27.881
-41.819
-95.387
-23.965
40.036
114.33
181.61
41.24
-19.197
35.503
-27.544
-97.342
-139.45
-208.67
-148.46
-5.711
83.967
211.8
146.43
15.965
109.82
99.681
0.56102
-16.573
-135.51
-251.95
-179.98
-16.455
109.63
147.1
71.532
-27.451
0.49684
96.343
134.35
4.4501
-191.77
-267.57
-158.07
132.46
307.59
226.38
24.313
-52.694
-36.701
3.9333
-7.8105
-109.91
-186.07
-251.24
-102.14
136.22
191.39
73.923
-14
23.451
101.51
116.1
-22.693
-188.14
-252.23
-198.9
50.05
231.89
196.53
-4.9853
44.234
121.8
38.947
-36.466
-136.13
-246.36
-275.33
-106.75
152.12
220.04
51.248
-37.495
48.301
81.795
108.07
20.168
-115.15
-191.24
-136.06
72.795
209.67
139.19
-23.942
-49.745
13.891
39.441
-50.915
-163.94
-219.9
-221.56
-32.696
231.58
266.08
133.57
32.853
9.8652
-5.0596
16.993
-3.9008
-101.94
-184.54
-181.22
-1.2143
164.07
124.52
-41.012
-100.02
30.1
115.26
112.57
-2.6526
-161.57
-270.59
-179.4
154.25
330.86
205.01
19.926
-74.7
64.273
212.04
62.513
-161.45
-308.23
-348.27
-149.3
166.47
204.68
74.578
-78.522
-79.885
125.22
233.33
45.307
-183.89
-306.99
-224.11
96.069
312.56
195.94
11.076
-95.118
17.85
275.98
262.4
5.0615
-294.57
-473.15
-268.44
126.21
280.16
117.76
23.044
154.66
271.37
165.02
-27.037
-299.3
-488.21
-340.56
-49.626
194.77
166.26
10.458
-76.966
84.698
250.64
169.64
-26.685
-256
-294.25
-15.398
243.94
261.34
83.119
-115.39
-131.83
79.392
236.78
123.51
-149.67
-403.88
-344.97
-19.024
209.69
201.08
35.945
-56.955
71.646
259.94
178.41
-52.012
-234.21
-284.97
-37.297
172.49
140.29
10.592
-99.611
-49.283
213.29
234.26
20.71
-133.64
-252.2
-54.222
142.18
115.89
40.856
-79.988
-173.35
15.233
214.76
149.69
-5.65
-195.25
-248.01
-40.993
42.228
97.119
47.111
-114.11
6.3571
225.9
230.29
89.575
-177.66
-323.91
-101.11
8.666
3.9135
73.753
-3.2216
-79.209
71.776
223.61
186.01
8.9881
-184.22
-150.01
0.23405
-18.558
4.6419
14.646
-118.68
-80.169
103.73
197.91
119.51
-102.43
-200.88
-73.834
-46.26
-12.091
59.018
-57.96
-26.724
155.46
196.51
184.35
86.083
-178.34
-198.11
-88.118
-113.26
-0.47851
44.39
-70.188
-0.18029
26.491
29.97
102.17
20.902
-87.834
-12.116
0.72508
-38.541
-20.552
-30.931
21.269
141.28
122.74
159.6
176.4
-31.563
-97.904
-85.549
-183.92
-191.8
-94.019
23.675
182.57
145.02
-22.934
-1.1779
-36.505
-93.869
27.883
31.416
-47.045
-20.537
46.109
133.76
200.22
82.372
-22.456
-123.1
-225.61
-119.54
-43.779
-22.17
-32.7
-10.22
168.81
314.19
300.98
166.13
35.633
-152.21
-236.42
-91.486
-138.24
-349.08
-338.32
-170.29
-12.208
127.19
47.617
-104.54
-160.19
26.326
171.13
87.464
-88.119
-230.72
-206.47
61.527
330.51
290.57
53.17
-89.033
-24.677
135.05
87.216
-98.699
-250.85
-278.29
-67.117
241.73
310.56
136.85
-61.9
-66.414
125.04
275.33
127.24
-169.7
-197.95
-83.777
29.281
133.74
59.06
-131.22
-163.01
35.219
216.3
168.12
-49.146
-257.39
-226.28
95.54
301.77
208.18
11.105
-185.79
-130.98
137.51
192.55
24.652
-208.15
-328.27
-91.147
225.95
259.67
76.511
-117.55
-99.353
179.04
291.12
117.57
-105.32
-369.89
-309.74
-4.3304
151.3
136.52
-50.437
-181.98
-32.304
211.35
249.95
18.735
-254.66
-216.21
59.665
150.91
133.74
-1.2729
-169.77
-115.97
145.75
300.38
150.08
-119.83
-283.73
-129.13
4.3993
37.035
0.95803
-165.72
-119.19
201.87
337.93
282.71
76.262
-232.5
-214.97
-25.829
35.296
91.747
7.7624
-139.59
0.35815
139.09
115.98
62.976
-165.88
-314.93
-97.063
68.665
97.125
63.327
-88.537
-34.592
202.04
231.68
134.85
-114.91
-393.81
-303.39
-74.801
15.615
69.254
-4.0915
-105.3
106.5
238.09
185.51
67.206
-203.36
-301.25
-115.82
17.793
142.43
129.15
-42.93
16.004
161.06
232.53
177.4
-75.098
-267.62
-110.55
-7.5199
16.001
99.275
-21.674
-129.2
43.637
166.33
194.24
74.726
-255.44
-299.42
-53.509
-40.713
-5.6513
43.831
-15.329
115.26
231.92
209.98
145.58
-55.491
-260.6
-152.28
-52.783
-67.737
16.357
-8.2695
-76.888
59.687
46.39
-9.6864
67.429
-45.637
-85.213
-45.007
-100.76
-44.137
32.439
39.593
208.04
225.16
136.95
164.01
16.343
-206.01
-158.62
-118.52
-90.309
0.62071
-18.982
2.0674
119.55
97.167
68.453
10.083
-175.5
-141.43
-56.439
-90.955
-55.832
2.1674
65.321
207.25
169.5
57.349
91.753
-32.404
-145.58
-46.834
-94.701
-142.33
-62.818
-17.502
57.319
100.62
9.231
95.103
124.7
-65.836
-61.978
-28.887
-107.75
-71.859
76.228
179.28
189.94
61.508
-20.273
20.301
9.9839
-67.068
-119.57
-201.3
-217.83
-178.48
-11.459
231.96
268.86
118.26
25.618
66.044
104.36
80.473
-25.223
-150.88
-227.46
-150.95
90.526
154.86
61.891
-42.416
-38.709
70.37
111.45
-4.2013
-174.68
-283.13
-269.16
-49.739
236.96
206.33
53.08
-7.1587
34.51
172.47
189.03
1.597
-189.72
-289.25
-212.97
92.978
211.91
81.141
-57.11
-38.675
115.94
177.65
37.482
-206.41
-338.3
-278.89
-38.006
265.14
258.02
68.598
-52.611
60.554
177.55
68.842
-93.861
-221.51
-295.31
-181.98
150.38
280.8
129.42
-48.535
-120.54
7.8762
152.88
77.746
-97.748
-240.5
-230.44
33.17
298.39
247.34
38.929
-143.65
-154.24
96.261
238.09
56.569
-160.77
-276.03
-184.84
110.64
316.45
192.61
-57.51
-188.92
17.623
148.54
-18.79
-170.83
-269.22
-218.8
39.92
264.4
238.37
41.763
-154.62
-91.893
164.71
258.59
53.143
-204.92
-282.28
-61.343
129.02
155.83
69.997
-99.131
-48.143
188.35
243.34
101.4
-128.94
-338.19
-228.77
-17.731
55.31
116.87
15.406
-121.83
49.685
148.35
155.14
121.24
-171.93
-278.74
-74.725
-43.542
26.351
129.51
3.9785
-20.05
111.54
136.87
220.95
210.13
-72.985
-196.7
-166.86
-202.28
-64.316
39.327
60.132
152.19
87.964
66.129
128.05
-38.214
-118.99
-51.418
-133.35
-162.39
-38.526
89.496
133.34
104.44
-56.655
-22.696
91.157
-28.625
-38.91
-80.325
-215.6
-220.86
-35.412
236.51
295.37
105.36
-43.865
24.272
30.791
-24.041
-46.733
-107.61
-176.01
-116.99
132.14
244.23
129.67
-74.689
-88.249
51.327
87.682
60.109
-57.001
-217.07
-270.15
-95.309
187.5
205.91
45.009
-93.453
-20.655
115.8
120.34
11.685
-189.15
-284.98
-198.75
97.032
315.71
217.42
3.1492
-123.48
-15.191
184.23
131.24
-59.568
-256.46
-368.18
-233.18
97.36
215.69
103.26
-42.658
-98.165
70.521
223.1
145.81
-106.83
-361.78
-328.76
-6.2554
342.46
349.49
123.61
-104.95
-101.82
102.82
151.67
2.1724
-249.78
-350.25
-172.82
188.53
333.31
143.07
-95.665
-168.16
-9.0861
159.37
107.24
-107.14
-245.44
-129.22
177.89
315.63
173.07
-33.762
-175.06
-55.155
206.31
185.47
-52.719
-269.87
-348.54
-65.611
253.24
258.28
126.78
-3.6749
89.14
291.93
225.12
79.216
-12.772
-197.87
-156.2
149.08
178.9
83.702
-63.651
-160.1
46.617
106.34
-30.448
-135.94
-227.49
-271.08
-344.58
-390.24
-232.41
-154.9
-222
-138.73
-53.56
-4.8559
41.993
-240.93
-383.63
-145.68
64.14
249.73
338.24
181.52
200.68
392.34
468.87
251.34
-111.53
-339.8
-134.67
193.2
251.34
92.32
-104.45
-165.95
-0.32379
201.28
190.06
-80.922
-363.98
-275
54.538
212.41
164.14
-37.731
-129.94
85.765
267.64
181.15
-19.979
-321.52
-410.72
-132.02
183.45
271.79
83.3
-141.95
-82.311
159.78
305.76
195.54
-122.24
-370.71
-208.38
97.939
197.16
114.55
-71.867
-126.9
113.71
286.14
190.01
-23.403
-304.57
-322.74
-38.628
99.346
100.02
-72.436
-157.11
90.301
283
272.3
99.265
-235.22
-294.33
-16.804
67.767
63.056
12.152
-159.59
-18.014
191.7
124.71
118.09
-40.283
-257.47
-100.82
44.705
52.652
65.184
-83.919
-92.591
95.619
181.42
151.49
-9.2908
-265.45
-249.21
-68.029
2.3272
96.507
27.354
-61.773
104.14
169.56
136.09
101.53
-113.5
-221.43
-22.02
18.515
8.1007
54.889
-71.612
-24.572
72.935
41.103
101.06
26.332
-179.41
-151.2
-84.565
-85.466
53.927
65.296
79.783
206.06
106.61
36.007
44.699
-152.44
-141.71
-5.4972
-99.78
-138.02
-37.531
8.2464
144.09
128
6.5597
48.888
-3.3527
-144.23
-73.172
-60.821
-88.848
11.614
66.72
140.03
141.58
-55.646
-35.89
34.088
-37.637
58.913
53.387
-86.56
-108.98
-9.0223
101.14
130.21
33.825
-116.47
-99.976
-0.035083
45.141
40.458
-53.599
-173.1
-222.75
-18.071
281.17
269.44
61.809
-113.65
-91.898
90.937
115.42
-40.604
-215.82
-292.41
-197.64
92.963
331.65
221.42
-17.165
-142.78
-10.213
200.59
204.98
-29.38
-246.79
-314.72
-153.18
170.17
253.95
80.499
-113.08
-171.06
-2.8012
207.94
151.05
-80.934
-272.31
-225.79
108.2
329.96
224.4
21.108
-162.04
-159.35
85.245
178.45
9.136
-203.2
-388.15
-289.18
56.244
295.7
190.09
-40.046
-143.33
22.337
254.92
266.85
56.913
-234.72
-343.65
-46.958
211.61
189.58
37.611
-137.57
-138.85
93.608
273.02
132.91
-179.42
-357.23
-179.66
102.41
175.6
80.755
-97.498
-170.14
19.776
277.96
267.89
26.116
-234.21
-309.16
-63.588
106.21
129.35
37.834
-126.41
-39.729
183.59
253.05
180.45
-82.922
-319.93
-162.81
37.716
59.988
84.436
-21.716
-131.86
-9.2488
102.76
150.31
87.624
-128.07
-178.77
-8.1921
-36.361
-12.785
91.393
25.852
61.759
118.66
18.465
28.317
61.195
-96.114
-132
-125.82
-178.65
-70.998
5.9978
63.862
193.34
111.33
27.037
92.006
0.77572
-42.881
69.122
-4.6374
-104.21
-18.125
86.288
163.06
163.42
-63.803
-185.39
-89.342
-84.627
-46.73
-29.651
-133.1
-208.06
-111.88
96.21
269.22
168.44
16.659
46.239
5.6206
-66.702
-1.1819
-41.769
-118.58
-90.794
-6.5158
59.286
73.887
-39.959
-35.66
65.838
133.82
164.91
25.992
-175.33
-221.93
-128.8
127.99
302.8
214.05
15.692
-18.584
17.108
8.1266
-65.413
-223.21
-355.49
-321.29
-87.053
214.98
267.62
100.57
-48.361
-37.543
77.1
170.89
62.271
-123.9
-198.05
-131.1
104.03
172.51
63.154
-92.769
-134.76
38.254
224.43
146.67
-93.369
-215.33
-242.21
-63.782
208.99
215.46
46.435
-117.94
-27.571
151.45
120.34
-57.702
-208.39
-275.92
-159.74
133.78
276.87
181.31
-1.5803
-87.554
58.025
277.36
174.3
-90.727
-265.17
-340.72
-139.89
183.29
198.89
59.66
-85.817
-112.5
86.838
189.28
31.286
-186.3
-303.42
-195.88
141.02
331.12
167.06
-44.321
-174.86
-70.79
192.18
237.25
11.478
-256.34
-383.44
-156.88
191.33
276.72
50.039
-142.9
-120.59
136.58
294.49
122.97
-158.83
-316.03
-160.37
143.24
238.32
82.049
-135.02
-207.59
-3.9394
286.53
282.89
-10.14
-304.37
-337.71
-63.93
167.76
152.65
-44.084
-182.94
-37.05
256.5
354.44
169.2
-144.96
-347.79
-139.91
104.84
137.04
90.683
-107.48
-171.08
74.571
191.95
133.44
-55.73
-315.81
-247.64
13.546
34.907
33.728
-31.585
-2.6105
212.51
248.5
139.17
48.286
-181.57
-313.14
-108.99
1.0477
10.311
59.568
-63.07
-47.751
122.94
106.61
132.06
59.675
-159.63
-59.178
49.163
-45.996
-17.868
1.2774
-4.0463
123.93
111.36
34.962
58.089
-35.153
-213.9
-152.25
-121.17
-65.218
34.546
55.639
144.1
146.7
-25.604
-17.431
12.367
-48.996
49.851
32.919
-91.818
-82.813
24.042
188
223.73
77.536
-43.735
1.2631
6.3105
-116.54
-148.6
-161.18
-232.79
-207.11
53.265
282.63
206.33
6.6975
-51.028
41.214
180.45
207.67
69.275
-132.99
-294.91
-210.09
52.645
108.75
-6.735
-146.19
-148.88
4.6538
179.85
83.943
-117.94
-173.6
-177.61
34.922
304.28
253.56
53.984
-137.32
-48.386
175.51
174.93
-9.9511
-200.37
-290.45
-176.01
134.64
255.99
66.336
-142.77
-187.17
-16.066
214.62
196.97
-31.602
-230.21
-261.34
-38.273
283.84
294.89
58.707
-126.73
-159.33
61.028
218.64
91.267
-134.85
-333.15
-277.04
56.96
241.37
93.246
-85.53
-167.15
-16.339
202.75
210.7
40.734
-229.39
-388.67
-173.96
112.22
116.83
-60.406
-191.19
-109.12
165.93
367.68
287.78
49.055
-189.52
-125.83
205.99
278.65
33.58
-237.27
-304.79
-35.142
229.69
230.87
106.09
-160.79
-252.89
89.889
325.79
188.78
-87.517
-350.05
-311.84
-69.319
151.67
182.13
-25.239
-271.25
-135
181.36
251.23
126.29
-114.61
-183
67.781
273.6
229.01
76.848
-221.37
-309.95
-24.611
126.81
114.56
26.177
-177.13
-162.44
81.273
188.85
135.85
-38.702
-255.2
-168.96
-7.2372
33.176
37.761
-95.165
-126.89
61.017
155.49
147.3
87.124
-96.703
-90.548
58.55
68.932
121.58
59.943
-154.49
-148.02
74.763
212.29
177.7
-58.849
-289.04
-140.62
-10.119
-13.833
62.535
-60.02
-107.06
66.23
181.73
273.11
166.67
-168.41
-269.99
-33.455
28.465
23.468
32.665
-91.043
-42.767
84.889
121.32
99.095
-94.226
-218.4
-11.49
155.86
39.875
-0.33057
-25.635
-97.573
41.717
106.38
89.559
88.85
-108.85
-248.01
-26.748
22.829
1.4643
50.55
-68.576
-20.598
155.15
203.41
118.23
-10.567
-189.67
-178.61
-47.187
-47.486
-5.8055
-9.1166
-90.868
5.0836
110.4
59.688
-10.086
-91.99
-162.9
8.7545
110.34
77.569
109
-29.493
-93.025
39.561
54.697
77.315
104.44
-97.193
-164.08
17.397
-18.206
-26.949
-2.561
-97.27
43.791
146.66
51.63
88.942
75.787
-82.013
-59.939
5.9671
-73.154
-53.271
-0.7354
-58.684
39.803
88.015
33.624
85.521
-31.844
-205.34
-35.002
38.005
-68.891
-29.191
-28.875
38.673
186.96
145.57
92.963
112.57
-19.364
-114.85
-25.046
-67.134
-27.321
3.116
20.787
291.15
479.92
365.8
203.75
121.48
11.908
-23.609
-50.806
-172.56
-280.51
-436.65
-466.66
-278.96
-269.13
-523.41
-705.82
-909.73
-951.49
-109.16
486.39
470.69
427.59
427.14
385.15
426.45
436.23
427.78
317.23
-92.943
-265.48
-104.3
-59.764
32.323
102.03
3.0863
104.49
236.74
251.14
194.59
-48.271
-332.78
-246.12
-83.623
-81.206
20.477
23.323
-21.791
134.2
230.01
251.81
165.77
-122.16
-340.81
-242.68
-131.64
-30.894
43.533
-63.751
-40.266
166.84
211.89
162.25
69.669
-176.76
-193.14
-9.9446
-14.468
7.6347
19.853
-131.78
-44.305
151.64
223.57
229.36
31.66
-226.34
-153.76
-70.527
-73.505
57.936
37.627
-40.818
128.26
236.56
156.99
16.671
-216.76
-360.95
-117.39
41.017
85.574
130.7
-43.509
-129.83
97.9
235.11
192.94
37.598
-231.13
-234.72
1.4512
35.643
68.988
41.99
-126.67
-47.487
198.28
244.93
133.44
-66.376
-339.1
-280.73
-35.409
73.121
95.696
-63.874
-186.91
20.816
251.97
222.74
81.257
-168.85
-266.09
-15.56
149.13
160.45
101.14
-94.307
-204.01
-6.4187
211.73
132.95
-60.193
-248.97
-240.1
13.251
156.98
170.03
13.693
-154.76
-79.618
187.92
313.38
146.43
-119.25
-382.31
-345.43
-31.523
237.68
207.57
-42.818
-231.31
-94.095
218.46
367.27
207.83
-123.28
-328.09
-139.31
92.561
194.19
119.07
-57.023
-147.19
73.85
270.77
132.18
-117.46
-342.43
-400.71
-150.59
190.52
263.5
53.779
-139.44
-104.1
144.41
262.56
115.32
-101.43
-320.24
-296.02
24.711
301.75
206.6
-20.362
-164.72
-32.641
245.94
193.99
-32.979
-214.58
-329.67
-119.33
200.8
218.69
48.505
-96.322
-166.94
25.755
246.87
171.46
-62.747
-298.57
-327.04
-42.218
283.77
283.22
44.363
-161.25
-107.79
143.94
187.99
-3.2977
-243.47
-392.38
-242.74
105.17
325.07
176.52
-82.509
-178.64
-27.756
189.5
254.43
10.789
-293.24
-351.09
-61.611
258.64
263.58
17.003
-152.06
-99.862
100.9
280.45
218.78
-44.251
-317.49
-334.78
-27.052
230.04
145.17
-41.49
-89.634
141.28
443.48
344.3
-3.8951
-330.57
-426.03
-195.11
136.29
225.49
-0.92641
-191.45
-180.54
83.187
321.85
226.1
-43.549
-303.74
-334.52
-41.906
221.79
152.74
-93.356
-199.51
-51.783
235.71
308.74
87.095
-198.45
-408.91
-276.67
32.394
241.68
206.77
-28.862
-159.85
85.752
309.77
202.61
-101.79
-377.6
-365.1
-89.551
177.12
201.04
37.385
-159.08
-131.01
156.37
333.39
182.34
-118.97
-371.42
-264.11
43.929
218.23
158.04
-25.983
-108.98
88.415
352.8
253.19
-32.464
-192.27
-403.67
-376.91
-46.034
220.04
149.93
-53.788
-61.694
209.2
348.11
170.68
-121.21
-371.02
-297.08
9.76
232.04
187
11.28
-151.32
-100.93
166.88
291.78
111.87
-185.16
-365.87
-207.48
100.28
228.26
78.267
-98.339
-131.49
97.321
296.37
153.38
-10.453
-181.99
-348.02
-157.46
172.14
243.94
81.864
-98.5
-136.22
67.756
289.18
225.51
-95.502
-412.48
-384.03
-47.983
253.55
233.6
-12.65
-180.16
-62.027
197.01
230.73
28.79
-204.24
-333.29
-125.27
191.85
237.74
113.67
-46.802
-133.1
89.563
268.48
144.89
-67.589
-241.4
-315.96
-90.591
189.65
181.3
43.782
-103.84
-16.903
193.38
266.07
253.8
60.604
-66.317
-204.62
-308.55
-477.03
-795.85
-491.18
27.447
166.91
205.74
272.83
280.02
-10.379
-216.81
-65.582
142.34
272.31
227.3
-0.34971
5.161
232.04
379.56
248.46
-49.098
-340.23
-381.12
-58.223
340.33
442.97
327.44
123.9
50.823
213.05
126.04
-35.093
-136.77
-308.61
-204.49
1.1508
-73.002
-90.039
-124.53
-37.841
183.86
172.88
11.669
-135.61
-274.36
-498.33
-616.75
-494.75
-356.78
-192.52
-77.9
2.1212
109.61
157.72
241.72
150.61
-88.029
-35.821
168.33
355.11
292.68
25.572
-87.25
59.225
215.01
258.24
56.67
-231.88
-255.21
-22.361
261.47
324.04
65.294
-138.28
-88.45
132.01
290.69
170.36
-139.12
-362.16
-266.89
64.864
329.96
215.27
-37.4
-190.07
-65.559
198.8
203.22
-0.76719
-263.71
-453.18
-287.8
77.56
254.19
37.197
-153.98
-76.561
132.54
304.23
245.82
-30.748
-271.53
-214.45
99.912
333.05
193.09
-90.47
-214.64
-85.287
171.12
228.01
-13.716
-193.14
-228.08
-31.555
265.59
244.27
6.9773
-175.54
-204.23
27.016
233.43
128.86
-105.78
-339.2
-303.33
35.045
284.22
192.22
-9.9755
-155.65
-81.548
160.44
249.64
20.713
-227.63
-369.83
-215.61
125.12
290.25
128.01
-122.34
-204.4
-30.048
211.48
281.44
48.948
-237.1
-263.5
48.812
294.36
195.7
-82.231
-260.3
-180.26
80.446
242.23
101.8
-175.22
-326.91
-132.95
222.19
335.38
116.6
-129.83
-145.21
158.03
255.52
41.42
-165.66
-371.68
-349.97
-47.895
272.14
273.11
44.486
-168.22
-54.263
210.81
246.16
37.206
-256
-398.75
-245.5
61.057
260.5
112.36
-136.4
-157.93
48.47
254.13
256.84
38.736
-256.09
-340.37
-85.328
222.93
263.82
7.0532
-237.52
-182.92
99.492
300.99
222.01
-77.944
-310.35
-151.29
140.07
216.79
95.705
-120.44
-188.81
49.938
260.33
202.84
1.1595
-284.18
-295.69
8.6096
158.03
115.95
-24.414
-191.11
-112.44
165.06
298.73
185.33
-70.964
-336.84
-245.59
67.071
194.06
78.715
-119.55
-155.44
75.101
281.09
204.61
-35.13
-316.48
-282.01
35.539
205.5
139.31
-37.367
-192.6
-121.44
166.9
232.73
31.823
-160.21
-315.98
-153.13
153.49
255.22
106.66
-111.26
-150.62
97.44
332.16
280.2
103.2
-169.81
-242.21
44.866
175.94
132.41
7.9909
-37.187
180.21
250.6
61.299
-101.71
-297.88
-501.55
-368.99
-147.01
-169.41
-255.6
-246.32
-152.74
57.92
259.89
283.04
139.95
-143.2
-254.76
-53.481
162.13
229.11
98.828
-91.064
-45.537
198.1
357.3
226.67
-88.543
-314.54
-148.23
102.57
162.94
154.03
4.3443
-181.28
-45.091
209.79
204.37
47.811
-241.71
-360.89
-94.212
85.73
88.118
-5.0652
-116.63
7.349
207.03
267.37
191.78
-19.984
-252.11
-142.29
67.515
126.37
130.98
-65.934
-170.82
30.298
170.62
