-18.373
-10.691
-12.425
-28.944
-34.046
-37.869
-9.6373
29.556
39.474
31.352
16.206
10.833
9.8658
4.8681
-11.379
-26.482
-9.1449
13.862
19.098
8.6609
2.4733
6.4832
-2.4722
-16.77
-32.232
-48.576
-26.169
9.6409
20.89
16.953
9.8029
4.4755
-30.203
-69.698
-98.79
-123.92
-65.058
41.626
90.62
98.781
87.644
85.917
81.663
72.552
51.853
22.277
30.456
61.882
69.026
77.216
91.275
72.859
24.768
-5.0337
-14.101
-35.282
-1.926
23.384
54.683
62.214
-3.957
-65.135
-99.339
-50.794
19.813
25.217
25.66
7.8922
-43.836
-91.205
-120.64
-105.43
-81.761
-67.142
-38.113
-52.744
-66.129
-49.761
-57.299
-92.176
-57.838
-0.95507
-14.721
-58.672
-69.968
-63.877
-45.586
33.467
126.3
121.9
57.973
46.459
59.274
64.76
20.603
6.5062
-14.595
-42.717
-36.126
-31.006
-27.256
-22.809
8.7392
35.018
42.847
20.601
-13.651
-28.981
-39.21
-18.671
36.005
60.727
59.278
58.082
57.574
51.421
30.321
0.90269
-19.035
-42.986
-30.135
24.809
51.018
41.519
23.615
18.505
16.091
-4.8036
-27.26
-42.098
-61.424
-31.668
27.589
45.462
37.933
28.2
25.34
20.017
2.9687
-13.268
-35.031
-50.405
-7.6131
31.774
36.206
25.853
15.461
14.987
8.3517
-11.145
-27.017
-47.424
-38.387
14.344
37.299
30.613
22.663
22.355
25.331
21.297
12.566
-6.3466
-31.422
-4.8881
40.74
44.117
9.6998
-23.292
-45.387
-57.252
-44.294
-11.246
-14.983
-36.905
11.771
97.205
111.94
86.303
103.64
142.25
114.18
20.615
-58.684
-122.79
-113.54
-152.72
-281.67
-193.88
-16.769
18.22
-14.717
-21.376
-28.068
-23.615
-12.496
-11.844
-8.4201
-23.806
-6.0795
76.476
119.11
53.486
21.569
52.398
74.68
63.574
26.702
40.675
75.253
118.47
99.474
45.726
-22.216
-66.191
-57.751
-59.453
-89.616
-97.687
-89.284
-103.82
-117
-124.33
-126.12
-134.64
-95.831
37.035
48.465
-36.401
-42.981
-13.61
-17.624
-2.8411
3.6896
15.474
78.184
90.171
150.23
191.11
104.25
81.808
69.566
26.699
13.221
37.32
103.59
124.48
72.502
47.607
56.287
34.303
10.342
-8.0091
-57.574
-140.71
-166.2
-115.74
-60.958
-32.08
-47.728
12.35
153.57
177.32
85.454
-55.45
-125.43
-97.279
-56.737
-17.33
28.68
45.266
53.781
89.938
39.665
-110.66
-227.98
-150.69
-26.057
-35.495
-21.194
22.549
49.782
42.88
75.145
66.259
-6.0493
-90.533
-97.013
-48.818
-53.756
-105.55
-87.187
-34.275
50.301
146.3
77.806
1.4306
-28.605
38.781
102.1
117.08
165.96
112.46
69.773
107.61
-25.725
-175.39
-184.59
-147.08
-50.398
29.889
-36.99
-91.584
-82.08
-64.717
-71.404
-103.06
-135.86
-143.82
-99.175
26.366
147.67
191.95
163.56
119.97
74.916
36.956
13.032
-21.613
-43.955
22.505
91.083
99.81
76.996
42.114
15.607
0.53637
-21.337
-55.701
-84.745
-58.571
6.0774
43.358
54.036
54.794
64.052
60.803
25.491
-11.987
-44.671
-75.918
-50.785
-3.4073
11.253
8.2337
18.224
41.039
50.099
27.56
-5.5594
-40.331
-45.181
17.698
74.285
74.095
36.402
3.0537
-12.578
-21.089
-29.732
-17.406
-14.075
-48.83
-21.831
56.873
-2.6636
-71.736
50.84
111.54
34.201
-14.831
-17.595
-50.181
-36.102
13.695
13.456
36.753
15.106
-59.738
-43.858
-8.624
-17.608
-39.799
-32.398
-15.698
-8.8359
-18.122
-21.463
-15.199
-11.924
-20.678
-32.612
-48.728
-51.037
-9.75
22.464
20.618
9.6055
10.666
13.515
5.5079
-10.621
-34.79
-46.79
-6.3781
29.377
27.702
14.315
9.7374
12.12
-0.33061
-20.372
-33.194
-36.958
-2.4436
41.374
46.565
35.698
30.408
30.582
25.467
6.5051
-12.44
-35.028
-39.524
1.0838
28.881
28.055
16.368
15.289
18.087
11.188
-8.3416
-23.904
-36.911
-42.97
-5.9481
28.975
31.584
21.359
19.863
20.942
16.892
2.5885
-10.375
-18.615
-31.827
-15.416
15.197
20.594
9.0191
-0.54524
3.3972
3.3962
-0.63896
-9.5446
-15.295
-27.622
-36.878
-8.3764
19.482
20.891
14.456
14.607
15.707
11.714
1.7943
-4.1768
-22.454
-43.516
-21.836
8.288
11.012
2.6122
-2.2282
1.6069
5.0949
-8.5051
-23.372
-34.316
-39.967
-10.729
22.842
29.351
18.446
10.412
11.435
12.352
-2.1851
-17.856
-30.85
-41.12
-3.1455
43.133
52.996
47.069
40.509
25.024
1.0351
-29.259
-42.254
-48.914
-54.01
-10.272
36.914
47.144
35.322
27.75
29.516
23.45
2.8971
-13.029
-30.463
-39.727
-2.8026
34.014
38.847
24.331
12.975
11.185
5.3711
-14.363
-33.061
-46.399
-54.893
-18.436
25.581
37.215
27.027
22.796
30.729
32.457
23.806
18.296
-8.0078
-23.917
2.9118
19.696
14.85
10.217
3.4514
-13.325
-33.548
-48.216
-61.581
-66.175
-24.297
14.739
22.028
18.738
14.867
10.084
-5.1119
-25.431
-40.886
-57.235
-45.24
0.72431
21.681
17.749
15.883
16.935
16.152
4.8221
-9.1464
-22.675
-35.13
-5.7551
34.555
53.787
59.87
68.748
82.653
94.727
105.06
56.984
-27.794
-80.706
-90.397
-78.701
-81.745
-93.112
-53.009
16.621
52.319
84.343
86.473
38.149
27.539
46.468
70.637
90.385
35.099
-3.8431
-10.505
-55.599
-49.64
-41.144
-11.571
57.166
54.701
51.296
66.015
37.153
70.806
50.86
-151.45
-258.18
-223.46
-143.83
-71.789
-63.565
-168.29
-304.11
-245.54
-45.678
106.1
143.01
141.02
114.1
32.714
24.662
65.475
93.296
39.664
-85.342
-108.83
-50.542
49.987
92.525
168.19
157.06
-96.65
-123.76
45.872
143.62
231.34
283.42
186.14
-16.253
-227.66
-340.59
-357.47
-309.02
-78.276
67.393
71.838
105.5
57.407
18.382
-12.25
-84.148
-102.31
7.0479
56.208
22.887
14.354
-8.77
11.843
42.66
45.278
3.14
-12.694
61.077
164.47
170.28
119.56
135.48
81.322
-36.573
-133.09
-166.09
-135.84
-35.223
52.033
2.1495
-16.439
-9.2856
-11.947
21.415
87.155
68.188
-129.71
-265.46
-70.822
106.35
88.943
36.871
28.164
-7.1982
-18.053
-45.586
-80.414
-25.928
45.622
54.065
27.047
15.546
29.901
37.249
20.311
-16.649
-63.716
-45.114
24.201
54.844
58.569
46.94
41.588
34.09
13.849
-5.0922
-33.602
-33.343
25.823
59.375
58.225
46.274
39.648
36.921
19.729
-12.68
-39.323
-64.032
-37.125
22.85
33.174
13.452
0.17505
8.6913
5.5238
-10.33
-23.807
-47.52
-37.656
21.452
46.003
29.974
9.2026
8.4168
4.6783
-15.296
-36.605
-61.426
-55.165
7.6157
40.963
30.754
11.091
9.1326
10.193
-6.2287
-26.657
-54.942
-64.29
-9.5352
35.248
31.139
9.2032
8.5129
15.953
2.0989
-18.59
-42.124
-56.553
-9.3589
37.446
34.393
13.829
8.0435
15.353
4.7454
-17.705
-40.819
-61.114
-22.157
30.874
31.497
10.263
3.8731
11.521
4.5784
-14.063
-35.373
-61.25
-33.891
26.878
40.432
22.599
12.395
18.771
12.144
-7.5777
-30.716
-57.769
-38.973
18.703
35.631
20.854
10.043
19.851
13.915
-8.4784
-31.178
-55.881
-30.833
26.435
41.133
28.964
16.161
18.683
13.116
-8.551
-35.718
-60.067
-31.842
27.669
41.279
32.611
22.939
24.95
18.484
-3.3839
-26.479
-53.187
-38.785
20.05
45.637
36.587
26.34
29.855
30.157
11.832
-13.007
-34.834
-51.36
-15.579
29.481
36.082
24.173
17.88
17.012
10.406
-9.728
-27.246
-40.259
-48.876
-12.41
21.281
18.571
4.0089
-2.9628
-7.904
-24.619
-45.429
-42.928
-21.653
16.048
56.108
80.713
96.414
102.26
69.99
2.5651
-34.258
-74.359
-130.26
-140.65
-74.786
-14.117
-24.052
-13.986
53.536
107.33
110.62
76.175
-26.4
-92.289
-69.001
-10.334
21.564
30.483
21.326
-4.0774
-6.0943
20.57
45.351
16.042
-35.657
-5.6653
87.545
126.16
144.52
153.24
124.63
39.552
-68.434
-139.62
-185.08
-198.77
-165.94
-144.64
-143.13
-129.13
-83.882
8.9006
130.24
161.92
103.56
1.1874
-104.85
-130.53
-108.4
-104.62
-94.823
-23.863
41.68
42.36
10.176
-49.539
-59.872
51.39
118.02
99.671
75.084
67.01
62.738
40.943
13.797
-15.204
-29.819
3.668
41.761
45.97
27.568
18.931
24.711
15.86
-0.38767
-22.77
-33.39
0.19039
29.828
29.915
18.893
23.655
27.547
16.357
1.9279
-22.798
-21.616
17.53
37.97
31.844
18.788
16.68
9.8348
-3.7971
-23.455
-47.03
-34.109
6.8484
20.868
14.405
7.3334
11.279
7.849
-4.5707
-23.29
-39.08
-17.248
16.078
21.265
5.5553
-2.3741
2.2468
-0.67099
-11.527
-35.002
-39.071
-5.6723
17.368
12.491
0.50858
0.9608
1.3997
-3.7629
-20.82
-39.385
-19.144
14.052
21.321
9.128
3.2142
5.4426
0.23583
-12.41
-31.601
-31.498
1.7048
22.275
20.459
10.011
10.314
5.2744
-5.7786
-21.797
-41.934
-25.1
14.217
26.995
15.774
8.0608
11.296
4.4116
-8.2063
-29.582
-40.045
-6.7896
29.405
37.63
27.824
24.827
24.413
9.6533
-10.222
-37.227
-39.911
2.3089
28.335
25.535
16.802
16.107
11.198
-4.0363
-20.491
-42.253
-37.42
5.4488
28.068
32.318
30.205
33.614
45.046
44.698
29.28
14.667
25.446
77.82
114.93
100.85
54.488
10.023
16.078
38.945
-5.7328
-35.243
-0.18918
55.187
44.035
3.8671
-28.095
-64.952
-94.258
-120.68
-116.95
-68.896
11.794
121.45
121.45
41.32
5.2747
4.1365
-15.596
-25.281
-35.717
-50.252
-50.643
-58.156
-66.197
-98.31
-115.71
-156.63
-271.43
-180.23
-37.897
-30.73
-24.187
-8.2374
-14.799
4.037
14.638
23.535
31.792
36.699
48.242
20.328
-9.4629
-6.9573
41.803
123.52
191.08
270.19
325.55
322.2
236.83
104.76
-1.9873
-46.157
-77.227
-133.26
-145.93
-150.81
-142.99
-147.96
-150.46
-132.23
-107.95
-62.686
-127.95
-152.26
2.5866
83.387
80.341
104.23
161.92
193.45
113.35
3.3432
-29.62
-53.712
-80.62
-77.985
-61.041
-114.8
-203.96
-259.33
-243.9
-194.19
-199.81
-178.11
-85.937
-16.734
22.708
77.982
132.01
134.29
105.65
71.899
32.538
28.014
85.809
126.38
104.81
80.44
66.257
32.184
-6.4474
-41.02
-63.027
-47.118
17.695
75.278
102.03
91.705
133.25
167.35
132.3
92.223
68.155
48.832
52.881
49.332
15.819
0.60526
22.712
68.309
79.763
27.344
-71.007
-146.19
-131.75
-109.87
-103.29
-94.41
-70.691
-26.347
-11.954
-22.851
-32.883
-33.009
4.2743
52.141
60.579
44.444
51.495
58.958
45.485
27.585
2.9852
-25.148
-7.3646
19.243
15.998
0.86032
6.6238
15.588
8.1641
-4.811
-19.523
-27.041
0.85121
26.193
26.686
13.327
5.3749
1.0332
-14.159
-25.646
-44.445
-53.814
-14.384
18.803
19.07
6.7802
4.8099
6.8174
-7.3475
-24.659
-49.72
-50.163
0.078812
32.705
32.482
21.622
20.351
23.168
9.7668
-6.8606
-26.033
-25.374
23.424
59.527
63.009
52.453
45.718
40.318
25.968
8.6799
-15.295
-34.871
-9.0497
32.479
40.235
27.408
17.729
14.99
7.0457
-9.7179
-25.924
-49.244
-53.528
-14.91
11.644
13.161
3.7947
2.1483
5.34
-5.6085
-21.204
-35.446
-48.846
-25.797
2.4088
2.2306
-8.5128
-14.125
-12.378
-21.357
-34.464
-46.267
-62.368
-48.747
-22.817
-23.045
-30.105
-33.168
-22.084
-13.733
-13.297
-10.466
-7.894
20.171
68.036
94.674
99.604
81.728
60.778
50.473
28.505
-19.689
-68.623
-68.668
-32.59
-25.146
-25.108
-30.297
-34.188
-47.043
-58.027
-70.269
-156.78
-159.95
-80.18
-21.223
32.43
44.219
44.068
51.599
34.007
-8.8244
-10.542
42.807
98.026
101.53
73.877
69.202
89.158
82.572
71.617
39.047
20.493
45.712
54.208
-2.4233
-48.69
-40.882
-22.208
-38.217
-40.657
-20.394
37.145
93.548
108.8
104.58
88.557
27.889
-9.4605
-75.556
-167.96
-193.86
-265.39
-191.68
86.932
209.62
99.179
-37.157
-80.806
-75.898
-54.978
-61.54
-65.497
-61.65
-16.39
48.878
142.6
196.53
132.15
25.585
47.815
164.89
158.08
-19.374
-111.03
-106.93
-70.227
-88.421
-135.23
-145.15
-118.34
-88.753
-79.844
-74.116
-68.961
-63.349
-50.312
-57.291
-34.242
29.761
73.108
85.703
69.855
63.675
45.403
-0.48121
-60.213
-79.771
-22.844
44.446
74.066
71.009
72.677
65.824
48.14
16.483
-10.333
27.063
75.604
73.936
47.274
37.249
34.285
8.0482
-17.754
-44.073
-37.403
17.651
51.141
51.824
37.545
36.712
30.761
10.081
-19.727
-41.142
-15.415
21.114
26.484
13.112
5.4871
9.4591
19.296
26.016
0.97151
-19.19
-0.019025
1.3208
-10.568
-19.225
-18.183
-13.425
-19.883
-35.516
-48.345
-48.177
-24.153
-10.895
-20.59
-16.178
17.302
37.556
48.924
55.562
32.984
22.694
37.851
35.684
3.2063
-35.217
-45.243
-40.435
-50.128
-57.415
-39.445
6.2615
75.753
97.784
70.176
49.841
48.528
39.952
0.42043
-30.845
-82.452
-141.3
-145.26
-113.83
-63.772
-25.866
54.545
125.34
111.98
58.725
19.242
-2.5242
35.266
105.76
81.711
62.381
79.565
28.55
-47.236
-111.01
-118.76
-98.872
-67.593
-24.149
11.793
1.4124
-12.917
-5.6494
-58.66
-131.22
-150.19
-120.53
-89.408
-32.104
37.978
57.107
52.564
57.71
72.822
64.455
36.082
20.859
15.394
-6.7006
-40.798
-65.39
-41.211
-12.609
-24.143
-32.778
-37.24
-3.2976
33.746
59.028
120.2
215.53
225.39
150.61
81.291
33.475
-21.913
-67.242
-114.54
-154.24
-137.19
-72.542
1.5484
50.434
72.118
41.435
-20.137
-50.797
-69.989
-76.405
-39.935
42.814
58.984
56.07
30.857
-2.6957
-14.226
-0.32754
-12.618
-48.471
-73.938
-93.357
-68.457
-34.645
-12.431
2.4877
20.217
52.082
51.23
26.881
-7.2877
-26.238
-3.2511
35.931
38.825
15.638
-14.199
-21.63
-10.026
-9.1001
-11.423
-17.734
-28.803
-3.6788
21.318
20.327
1.7375
-6.6844
2.7518
9.2498
5.0649
-4.3816
-13.776
9.7362
60.782
96.879
105.83
105.28
94.495
64.952
42.963
14.259
10.482
40.3
68.465
31.553
-98.47
-121.55
-83.516
-114.64
-144.1
-157.79
-123.04
2.9646
87.435
53.658
4.3796
-35.784
-73.844
-69.893
-22.836
9.7488
2.2474
-4.7721
7.4197
35.173
47.376
43.353
40.789
89.99
161.34
199.48
133.64
-56.926
-177.48
-142.91
-84.481
-49.642
-35.546
-38.522
-41.435
-45.761
-49.454
-52.816
-30.314
11.718
35.883
45.531
65.139
68.661
37.238
15.061
40.453
21.419
-31.89
38.583
67.978
18.291
-32.52
-46.291
-32.767
-6.2654
59.17
35.304
4.1752
12.905
-0.89022
-1.2014
-0.76098
-10.498
2.5718
14.724
14.695
-4.2015
3.2425
23.36
-0.081356
-8.2688
-28.705
-98.056
-156.37
-117.42
-11.247
71.297
73.879
34.803
15.911
-5.0668
13.273
68.705
49.242
-1.2311
-3.5776
50.773
37.217
6.4164
33.754
45.947
32.985
53.779
14.918
-185
-234.81
-60.922
36.941
29.14
2.2269
-75.139
-150.41
-120.32
-13.303
50.577
3.5176
-46.583
-39.087
-32.196
23.508
75.289
46.721
-11.88
-40.002
-15.605
15.544
18.606
69.783
80.355
71.515
173.72
218.11
194.67
182.85
105.26
-82.518
-237.39
-193.3
-58.273
-95.216
-190.83
-0.78201
95.929
-53.361
-34.286
19.197
-0.24299
-18.82
-6.538
-34.169
-106.92
-43.8
22.358
61.273
148.47
76.385
-26.099
-50.623
-12.305
12.018
10.569
-6.0444
52.587
96.388
60.398
8.8604
43.378
96.313
86.104
21.544
-108.38
-176.06
-92.26
72.55
192.21
129.23
11.587
36.892
-56.019
-226.94
-260.74
-216.03
-23.318
184.5
94.219
10.672
15.527
-22.454
-73.012
-61.165
-1.056
67.903
28.834
-18.982
58.307
87.613
0.65532
-26.793
6.5825
14.8
-105.76
-184.92
-137.5
-57.05
-4.5573
12.856
-0.90116
-25.067
-11.385
-9.6332
-31.863
-48.675
-44.848
63.66
203.85
255.54
312.37
303.38
141.74
-35.382
-149.73
-169.56
-116.83
-57.331
-4.709
-17.598
-25.575
-26.107
18.288
-60.751
-210.67
-185.07
-149.06
-60.4
33.539
67.184
59.764
49.263
51.131
96.146
97.428
48.337
-9.5605
40.521
129.67
165.02
211.94
183.88
80.513
-5.8188
-39.997
-76.18
-91.757
-101.21
-82.111
-67.106
-72.442
-84.405
-103.81
-109.89
-151
-135.3
7.7079
105.52
85.202
37.823
53.361
84.572
56.477
15.857
11.454
54.4
46.111
15.339
19.88
-17.283
-80.727
-68.741
-20.629
-28.246
-40.151
1.9742
13.394
91.055
139.11
-20.266
-107.02
-31.168
7.0983
-5.5135
7.913
-1.6443
-13.311
6.1207
106.35
91.405
-36.536
-147.51
-91.755
114.99
82.176
-79.185
-105.3
-78.721
95.189
119.46
-30.95
-106.49
-99.47
-77.107
-59.264
-36.164
35.575
79.588
39.242
48.693
43.997
31.657
25.146
-13.289
-11.908
-27.027
-50.26
-12.277
24.941
59.548
95.441
114.24
115.94
99.149
-5.5726
-133.25
-142.41
-116.87
-142.09
-80.619
23.471
60.736
65.833
15.227
-19.588
7.275
6.3903
-28.819
-72.923
-91.748
-62.071
-19.995
-7.431
-2.4961
27.036
34.693
27.96
35.448
66.241
65.545
57.645
62.063
45.789
14.666
-14.794
-15.873
-5.68
-25.908
-32.606
-17.499
0.35962
49.787
85.77
80.184
38.644
12.154
-12.386
-46.06
-57.919
-39.814
6.1959
-4.6742
-24.917
1.8797
24.944
28.746
31.453
33.284
23.02
13.631
0.9967
-14.447
-10.913
20.124
27.268
8.399
-9.9712
-17.399
-29.373
-43.069
-45.943
-45.226
-46.615
-18.471
14.217
26.844
27.012
22.192
36.866
40.004
11.638
-19.811
-54.799
-56.906
-18.874
-1.0426
3.3
13.629
21.275
23.521
20.38
12.749
9.6805
16.957
39.236
48.408
29.963
-4.2467
-14.862
7.1669
31.209
44.4
49.624
-4.299
-42.204
-26.165
-21.798
-26.14
-16.95
11.05
11.433
-24.446
-59.81
-70.553
-24.041
14.566
-2.7735
-31.954
-41.293
-36.401
-34.193
-37.211
-42.628
-33.765
9.1473
49.552
54.27
40.988
28.713
21.816
3.3458
-16.485
-32.527
-33.64
7.872
47.224
54.223
43.499
30.091
1.2902
-36.169
-71.938
-95.939
-84.31
-32.45
14.368
39.9
47.108
54.598
74.655
71.359
39.061
7.6378
-9.1816
17.937
45.48
39.592
28.956
33.173
41.327
27.904
-0.74521
-16.22
-25.917
-22.856
2.7853
33.198
51.088
62.398
55.622
21.912
-17.631
-74.803
-139.94
-143.53
-77.157
-15.424
9.3174
25.503
0.59029
-25.351
-19.306
-15.938
-37.898
-49.976
-45.99
-11.499
32.656
54.837
61.778
56.734
46.649
34.793
23.331
-1.864
-37.239
-68.221
-40.662
-3.8831
12.136
12.288
5.0551
14.31
14.086
-7.2218
-41.031
-64.216
-96.227
-89.342
-29.066
59.891
119.6
97.065
73.777
45.107
10.08
34.96
54.306
20.681
-35.328
-21.867
7.9496
2.6236
-24.717
-37.868
-5.9739
73.487
79.24
-47.075
-135.7
-129.48
-58.815
23.606
65.45
88.459
86.324
91.018
165.65
143.7
-3.744
-118.57
-165.45
-140.54
-91.739
-133.18
-133.85
-51.273
-94.538
-109.57
-22.231
-31.396
-72.39
-38.082
76.969
172.55
104.03
4.086
-56.519
-108.32
-162.49
-102.61
-31.639
-13.997
7.2575
17.182
87.552
167.88
139.83
74.028
63.836
76.052
97.833
34.122
-30.954
-15.232
-18.446
18.89
113.72
124.25
79.14
20.761
-22.845
-37.698
-48.044
-67.664
-93.357
-96.03
-20.261
70.189
97.299
79.345
56.3
39.652
14.069
-24.344
-61.006
-58.385
-25.535
-7.281
-33.11
-56.126
-37.029
-1.478
21.297
7.1245
-5.4578
25.673
20.354
6.0365
18.43
1.4132
-33.267
-77.008
-90.256
-43.391
-26.663
-42.798
-74.779
-78.991
-39.776
-2.0164
24.28
47.735
82.725
102.82
86.948
46.443
-11.361
-58.461
-41.843
-9.9357
-0.84368
-12.6
-20.324
-17.902
-23.745
-34.903
-42.376
-46.673
-16.431
29.975
37.835
14.639
-8.385
-25.503
-56.324
-114.8
-190.34
-181.37
-51.927
121.37
238.78
260.46
227.6
114.42
23.354
2.975
-9.8872
45.36
80.209
44.572
-32.641
-45.329
3.9855
34.372
40.145
-3.9643
-53.603
-49.429
9.0309
83.603
90.24
34.858
-27.436
-49.083
-44.37
-31.688
-19.725
-7.9418
23.916
43.498
43.158
60.445
118.09
143.84
-2.0089
-131.78
-113.29
-82.772
-52.335
-11.762
-21.717
-66.021
-65.737
-36.568
2.7854
26.904
5.9968
-26.457
-34.624
-13.423
36.965
22.928
-22.079
-17.365
4.5435
-65.102
-170.81
-184
-54.016
127.78
100.96
4.9131
105.69
140.34
44.75
11.027
-30.173
-28.631
-32.456
-107.24
-144.83
-108.64
-42.027
58.104
125.62
54.101
25.57
0.62637
25.282
98.384
29.709
-31.633
-29.367
-13.409
42.576
29.697
-53.255
-45.807
-26.424
16.388
26.02
44.257
85.439
15.408
-63.785
-56.079
-54.641
-24.953
46.138
11.502
-21.349
26.774
63.46
129.38
120.05
-48.98
-117.13
-23.112
14.26
-12.006
-17.383
17.664
76.532
35.672
-75.504
-77.853
66.671
90.943
33.985
68.085
-9.7071
-75.428
-62.33
58.738
119.38
118.17
118.71
10.292
-149.72
-247.24
-253.29
-198.52
-137.93
-29.794
54.943
11.341
102.65
162.96
102.87
25.718
-55.817
-46.531
54.345
70.016
54.922
26.127
-81.83
-166.44
-176.79
-112.53
84.722
150.62
-90.506
-207.46
-131.52
-86.968
-15.146
68.105
50.299
39.297
61.675
135.29
164.87
-0.55743
-111.48
-42.94
44.357
123.07
127.21
104.17
-0.0012908
-197.27
-213.9
-84.926
13.042
6.3168
-45.882
-43.23
13.187
22.51
1.8866
-15.091
-2.1996
-1.5003
3.4951
6.6025
-14.116
52.07
111.28
75.881
28.437
13.092
19.979
22.21
-6.6515
-27.876
-47.569
-57.294
57.246
165.45
116.39
20.393
-13.732
6.1554
36.646
53.542
76.973
55.783
47.121
60.283
53.477
26.665
3.8864
3.2548
4.0453
-3.6491
-24.028
-39.52
-23.289
11.44
15.514
5.1403
9.0431
14.829
5.3732
-19.174
-51.879
-66.69
-34.473
2.496
9.5122
8.3558
14.426
13.104
-4.2931
-26.631
-70.315
-110.28
-97.517
-43.419
-7.4506
0.96789
6.0152
8.7472
11.291
18.315
33.026
32.059
25.498
25.159
7.4306
-1.977
5.8371
17.494
17.376
8.8221
-4.0778
-25.525
-35.911
-14.283
-0.14325
-5.3668
-14.529
-12.715
-19.392
-41.361
-49.496
-40.701
-35.409
7.4089
51.895
60.188
56.219
50.244
49.028
45.869
38.172
27.118
11.964
25.978
63.978
53.101
0.75371
-51.17
-98.578
-121.77
-120.57
-103.44
-33.855
12.2
30.452
70.778
81.205
56.276
9.8434
-56.741
-26.42
32.527
20.946
10.01
-7.9022
-2.4368
24.394
44.031
48.095
16.516
-7.2311
-19.553
-5.7895
-3.8153
-39.822
-54.177
-41.509
-19.88
-6.4317
-9.2176
-11.939
-0.28767
-0.31802
-9.419
-20.677
-36.832
-25.318
6.5826
23.802
21.799
19.916
27.878
25.606
17.092
12.213
-31.952
-117.23
-109.56
-1.1969
78.66
99.165
80.653
60.564
3.3791
-52.276
2.6101
14.048
-9.4922
38.334
80.794
73.059
45.501
11.459
-14.736
-40.593
-63.911
-63.576
-72.631
-64.389
-30.065
-7.0323
3.5089
7.5574
50.824
66.967
20.195
-27.882
-37.052
-48.063
-60.931
-36.284
-4.4379
6.1641
5.56
9.4672
13.383
14.2
4.1716
-5.1465
-10.845
-13.985
8.0784
19.241
12.266
6.1119
4.8076
8.1072
7.8146
-7.4108
-24.653
-39.482
-48.891
-21.088
8.0717
18.863
19.296
18.967
20.808
18.864
2.1791
-12.883
-24.878
-39.042
-20.195
9.6793
20.551
20.94
18.687
20.454
17.092
6.7621
-7.2805
-18.002
-36.133
-23.532
15.76
32.441
31.862
27.102
29.836
27.286
15.43
-3.7711
-17.664
-39.094
-39.448
-0.2091
10.438
-19.357
-63.979
-76.355
-32.053
33.443
84.099
77.038
64.192
31.321
-16.396
28.535
91.981
59.23
1.4
6.2104
17.507
18.423
-6.3015
-26.219
-0.062523
32.045
73.179
95.375
70.108
42.034
-21.5
-118.46
-184.12
-229.86
-225.78
-92.607
90.812
135.87
86.462
128.82
235.82
102.44
-62.988
-71.381
10.916
79.164
13.578
-146.88
-179.47
-158.88
-211.87
-161.01
-39.537
14.308
19.381
-5.0156
51.606
131.73
122.08
50.801
12.48
-31.874
-63.718
-99.94
-107.82
-91.561
-95.517
-74.024
-1.3708
48.084
56.932
49.744
54.474
91.096
85.675
60.591
74.491
61.532
42.129
-38.266
-58.479
44.018
99.127
118.87
169.05
178.53
197.29
178.42
58.584
-77.626
-201.51
-252.97
-218.28
-175.6
-69.565
59.053
32.415
-64.746
-148.16
-227.31
-233.98
-106.85
11.563
84.467
105.79
91.231
68.676
45.593
23.503
2.6393
-6.5368
-25.981
-54.316
-24.288
33.706
44.989
40.122
39.168
44.517
55.09
46.746
26.877
20.651
-19.281
-21.75
32.251
46.531
46.816
42.698
36.617
36.86
26.386
-17.363
-49.848
-69.572
-80.84
-37.778
1.5786
4.1756
-13.107
-36.935
-46.796
-46.309
-15.313
56.167
36.518
-37.523
-43.942
-5.9817
20.748
26.977
28.835
36.347
34.52
11.324
-7.9002
-34.094
-45.982
-0.56499
41.265
37.431
24.439
16.102
17.713
16.005
-7.9822
-29.353
-43.689
-23.772
31.256
55.133
44.349
28.083
31.657
31.974
17.283
-1.3164
-26.485
-36.979
5.6159
47.517
50.457
41.092
39.249
38.695
26.165
5.8694
-19.114
-43.313
-24.899
19.263
29.491
11.297
-2.5969
2.1145
2.8155
-9.1748
-22.143
-39.388
-40.833
4.0079
42.744
43.608
35.751
28.754
-10.274
-50.056
-57.092
-52.065
-64.255
-39.034
-10.982
-17.698
-30.788
-41.178
-35.212
-27.468
-28.75
-35.023
-39.483
-7.5391
28.702
42.566
45.196
39.917
39.467
28.713
11.129
-7.4872
-27.384
-35.12
-9.0251
28.457
49.387
74.549
107.47
107.49
92.964
70.469
24.717
-47.519
-91.588
-115.12
-100.52
-14.127
58.022
108.17
72.878
-1.1527
-41.88
-61.873
-48.983
-5.2098
48.842
64.513
43.42
10.292
6.0844
25.547
-13.85
-56.307
-20.279
2.0985
-46.927
-51.676
-17.387
-2.475
10.6
-0.54701
-59.588
-45.825
26.367
-40.633
-7.3352
63.376
-18.044
-27.804
25.39
30.934
0.011562
-8.245
-29.854
-54.98
-68.873
-82.194
-35.279
13.9
45.647
93.924
95.955
43.729
0.032713
-30.766
-41.078
-42.057
-61.784
-29.025
7.2049
28.293
41.231
45.463
81.516
30.628
-34.257
-23.546
23.756
78.531
77.982
45.192
59.37
43.624
-19.128
-6.8723
-8.753
-54.855
-122.57
-204.58
-262.4
-240.67
-140.48
1.664
31.634
29.186
32.903
1.4308
30.844
52.256
-26.654
-6.0975
69.823
62.773
85.063
75.315
-17.94
-85.751
-84.017
-66.691
-48.289
-49.77
-61.347
-87.498
-110
-57.315
36.247
60.251
19.795
31.244
64.731
69.484
39.459
-19.508
-81.477
-121.15
-62.888
27.671
73.591
78.25
76.336
92.258
89.962
70.91
51.727
7.7707
-45.051
-10.683
60.97
82.411
72.003
59.619
58.827
64.111
46.835
18.558
-4.8312
-44.621
-36.012
8.2841
23.615
43.939
68.273
68.007
51.748
11.183
-18.901
-42.938
-54.46
-13.453
21.307
19.473
6.4472
-11.136
-15.956
-9.7766
-14.481
-23.954
-46.644
-33.091
17.419
23.233
10.112
3.9631
7.4327
5.2765
-8.5037
-26.225
-48.545
-63.858
-27.421
12.996
23.1
22.311
16.023
18.335
15.675
-3.5416
-27.904
-53.949
-52.42
-7.7285
22.592
26.913
23.516
21.513
21.263
13.449
-3.9208
-17.246
-43.251
-39.317
1.622
17.521
15.539
9.1966
8.9077
9.8145
-3.0305
-17.173
-32.321
-48.052
-21.36
14.934
22.158
17.321
14.601
17.089
11.514
-5.1485
-24.023
-46.292
-39.701
1.6938
21.752
22.382
19.578
19.929
18.16
4.8869
-11.952
-33.341
-49.826
-18
14.307
20.843
21.273
16.684
17.109
12.393
-5.6076
-19.189
-36.14
-31.614
7.6182
29.232
32.663
28.388
26.716
25.358
13.206
-6.6291
-23.792
-44.638
-28.98
8.0325
17.574
13.609
11.656
13.587
15.378
5.4899
-10.609
-23.648
-39.498
-20.195
15.983
23.564
16.318
12.96
17.601
17.33
2.35
-11.656
-24.766
-31.187
1.1075
29.378
25.864
15.241
8.3033
0.8722
-2.282
-9.5373
-28.398
-49.056
-28.584
11.783
28.8
36.044
31.029
14.877
-7.8085
-35.945
-64.38
-81.067
-59.83
6.3995
43.342
37.305
14.614
-0.6257
30.276
54.547
35.719
-31.552
-98.809
-84.006
-16.152
15.242
19.546
17.615
7.781
6.411
-0.060115
-15.324
-33.139
-19.702
23.719
47.607
39.479
21.385
21.273
13.083
-11.689
-30.891
-48.871
-52.184
-10.955
30.542
35.034
20.456
5.4139
-1.1389
-13.09
-31.359
-43.761
-58.159
-49.548
-2.2353
22.582
27.195
23.373
20.861
19.45
3.1543
-24.162
-40.972
-41.073
4.6606
45.982
48.612
38.677
30.422
35.355
36.953
28.87
8.4835
-20.543
-21.068
4.1066
18.446
19.07
15.815
21.559
14.669
-10.273
-28.719
-48.952
-52.518
-0.90436
34.24
36.637
34.746
28.991
26.838
14.919
-9.1876
-29.723
-44.592
-19.269
24.511
34.227
29.237
20.678
14.535
7.4596
-9.3023
-26.717
-50.649
-53.08
-10.913
20.514
26.834
20.593
15.963
21.276
11.136
-9.3645
-23.216
-45.312
-29.098
14.551
31.016
34.07
34.073
51.298
62.407
55.992
31.988
-45.059
-119.3
-129.12
-106.48
-43.157
53.456
104.81
130.7
130.78
55.529
-52.648
-133.83
-136.1
-24.754
24.183
-16.838
-10.082
34.87
57.419
73.513
78.676
92.57
95.08
90.501
101.97
80.611
36.882
-14.273
-48.448
-60.414
-71.391
-102.98
-138.24
-157.16
-153.99
-96.512
-58.545
-88.144
-135.17
-170.57
-221.14
-179.17
-82.376
-44.428
20.576
94.16
119.39
136.35
157.25
171.82
144.38
109.71
59.18
-12.413
-21.115
27.948
79.616
67.615
-20.41
-86.531
-75
-54.274
-62.741
-84.493
-124.45
-128.82
-71.302
-13.184
2.0064
21.986
68.871
89.053
87.425
22.911
-29.491
-44.376
-15.558
43.417
59.282
60.295
75.446
82.99
67.31
38.799
21.519
-4.9653
-58.026
-30.828
43.966
64.283
36.108
24.561
34.838
36.05
16.545
0.84021
-8.6718
-30.285
-11.978
7.708
0.047732
3.9515
-1.3929
1.4246
8.7618
1.9049
-11.064
-35.54
-43.306
-3.5313
28.503
28.762
15.457
7.2818
11.025
4.2492
-11.295
-34.126
-43.319
-6.7316
26.76
32.434
28.908
24.802
23.272
14.761
-6.6975
-27.961
-52.3
-41.319
3.6854
23.324
24.707
19.309
18.922
20.246
10.125
-2.4798
-17.34
-27.341
1.3068
25.241
19.435
5.2831
-1.6019
0.073391
-6.5931
-24.544
-39.18
-58.496
-56.128
-16.707
5.6894
4.4995
-1.527
-0.18876
0.94776
-9.4616
-23.621
-36.208
-46.6
-19.678
14.342
22.168
14.789
8.4967
12.813
6.8394
-7.3403
-25.175
-47.098
-33.599
4.6714
16.567
13.72
5.5926
7.0972
5.292
-10.653
-29.548
-50.655
-45.048
-4.9968
12.991
6.0711
-6.7027
-8.674
-11.644
-26.504
-42.9
-61.631
-53.748
-6.7181
28.444
45.247
52.374
61.293
61.707
43.075
9.6991
-31.192
-45.183
-8.1024
19.329
8.5336
-4.7324
4.8216
9.9357
-3.194
-20.721
-44.399
-38.675
-5.2114
15.885
1.4389
-33.755
-73.387
-80.704
-26.74
5.3252
19.656
50.97
83.572
74.383
44.858
21.853
16.41
10.929
13.834
14.025
48.632
88.403
100.86
89.781
82.446
80.193
66.137
37.956
-19.679
-34.852
-6.7307
-3.1122
-4.7458
-0.90159
-6.6221
-2.6198
57.265
79.118
33.163
-0.40717
-11.311
-43.709
-87.261
-162.17
-194.33
-159.61
-18.321
175.35
146.29
-57.448
-87.593
-7.7408
3.3113
-30.673
-34.59
-30.815
-56.98
-33.784
34.675
77.287
66.99
83.279
114.36
130.22
87.289
27.058
27.836
2.8304
-119.62
-175.17
-109.81
-81.072
-108.37
-117.88
-84.386
-36.921
-6.7392
-1.5253
-17.917
-8.7944
43.539
72.068
56.961
28.029
35.665
71.446
90.98
67.989
23.048
20.281
10.739
-38.872
-82.543
-91.777
-48.838
1.1668
34.433
24.056
-28.021
-16.916
57.049
128.33
121.71
43.07
4.0322
-17.741
-54.652
-70.394
-73.335
-56.053
-27.99
-9.3141
-17.773
-21.964
-6.8059
3.3762
3.7443
-1.9439
-19.204
-21.859
10.186
32.152
37.492
42.487
58.849
71.79
68.076
40.894
2.2596
-30.584
-35.548
-38.016
-39.547
-34.284
-33.692
-25.905
-19.396
-32.712
-53.765
-63.619
-41.716
-6.0435
20.55
32.099
53.235
71.466
77.658
72.318
42.85
10.109
19.664
45.683
37.142
20.946
-5.5066
-27.959
-39.555
-51.182
-51.466
-51.26
-57
-34.673
-4.1621
-1.2295
-1.0273
7.6023
14.685
4.9839
-17.511
-36.382
-50.325
-52.486
-25.788
1.1825
4.7284
-2.717
-2.5529
-4.7749
-17.288
-31.712
-41.414
-51.444
-25.388
28.201
48.592
42.625
34.979
39.513
24.085
-1.0691
-19.552
-54.219
-60.038
-14.919
14.543
21.931
23.003
24.458
22.054
4.2675
-1.5965
-16.513
-28.688
13.506
41.379
31.724
16.918
7.7255
5.7777
-2.2811
-17.604
-25.04
-16.109
34.927
75.034
62.033
23.032
-1.0966
26.922
37.631
11.298
-15.541
-27.031
-22.812
27.418
35.819
22.242
6.3124
-4.2069
13.707
8.7358
-12.952
-17.665
-42.929
-34.293
22.592
47.802
46.107
33.682
11.569
-12.988
-36.165
-48.985
-53.747
-52.259
-19.345
18.402
34.79
16.098
0.023755
-3.9799
-15.175
-37.116
-60.724
-105.86
-115.95
-58.48
-15.107
-22.086
-45.147
11.654
61.691
31.755
21.289
1.6348
0.69871
48.864
69.694
58.649
38.523
25.083
15.333
-13.557
-36.741
-83.95
-122.38
-74.567
-9.4436
47.708
85.826
71.062
54.526
15.943
-44.873
-68.266
-95.097
-66.261
17.168
135.45
166.69
74.309
26.806
53.266
57.049
2.9944
-50.702
-88.92
-56.778
1.8062
49.539
59.832
12.588
-29.042
-43.952
-47.959
-50.486
-31.827
-35.435
-50.287
-10.81
66.217
93.353
90.988
106.16
103.96
67.864
33.54
6.3364
-24.914
-31.472
3.521
24.609
25.551
17.297
11.5
10.941
3.8561
-16.696
-22.248
-39.087
-71.339
-47.98
-9.3688
-0.90591
-5.7378
-4.2966
3.8178
2.4721
-20.191
-35.724
-53.793
-71.92
-37.563
0.3773
-1.5993
-14.378
10.09
28.904
14.186
1.2309
-3.72
-14.831
-13.093
37.465
65.043
61.557
40.197
21.506
15.83
6.1757
-17.795
-33.952
-54.236
-43.068
9.0105
34.758
36.788
28.308
25.165
30.004
20.618
-2.6306
-21.674
-53.614
-45.123
-0.33151
15.852
16.087
18.538
24.869
28.005
10.445
-18.821
-37.015
-68.398
-62.614
-2.6486
31.72
32.589
27.733
24.867
10.826
-13.612
-32.687
-45.388
-66.776
-49.698
-2.0089
18.696
10.611
-1.9128
4.9104
6.3545
-11.185
-27.33
-51.8
-58.575
-12.237
21.201
18.958
8.1991
11.458
15.794
1.3442
-18.404
-37.004
-58.062
-28.636
16.006
32.428
37.144
31.345
33.115
22.87
-2.7259
-22.546
-49.462
-50.9
-2.0484
41.975
73.553
90.312
77.728
51.835
32.121
28.648
35.181
13.829
-4.1305
-0.74546
-1.5173
-6.5573
-13.311
-15.478
-22.016
-34.801
-44.287
-47.075
-61.041
-33.428
1.4806
-16.369
-26.514
-4.5906
4.768
5.2837
4.771
-6.6566
-9.605
-14.242
-2.8219
31.836
45.895
33.965
25.925
40.053
47.873
31.714
9.6575
3.9199
-9.6419
-7.6018
-1.3144
-32.25
-58.328
-47.401
-21.673
19.549
54.133
8.3926
-63.64
-97.595
-72.739
-24.671
0.81269
6.3684
3.8566
9.7975
7.3104
25.615
31.646
-9.4429
-27.882
-27.331
17.284
27.659
22.285
35.013
13.77
17.586
-169.41
-290.87
-22.338
98.372
41.599
-8.6277
46.077
111.45
170.21
111.97
82.939
122.72
70.446
-50.578
-112.3
-132.67
-138.2
-97.998
-37.684
-2.3556
19.39
63.339
51.87
-28.775
-72.575
-76.287
-104.27
-65.107
21.158
73.243
149.55
123.49
32.748
17.717
26.192
7.8244
-47.219
-117.17
-91.332
-3.7421
40.829
48.232
35.239
27.523
29.166
12.189
-9.8041
-29.864
-55.752
-27.473
30.628
47.307
37.127
29.089
37.257
36.152
18.952
-9.2681
-44.851
-59.012
-6.8097
36.334
31.62
27.11
39.106
45.49
33.877
9.4509
-11.476
-37.582
-23.304
24.342
32
22.134
19.722
25.647
29.683
1.3152
-28.094
-40.024
-31.591
13.112
25.841
14.145
11.341
9.1829
13.222
3.2104
-24.012
-40.491
-56.187
-45.663
1.1334
26.203
32.97
27.489
16.65
12.599
7.7371
-5.9817
-16.02
-34.077
-33.169
-0.59409
19.243
21.639
20.296
20.139
7.2364
-28.951
-94.672
-145.13
-112.79
-2.8762
116.96
160.42
153.08
111.09
31.947
-3.5819
-12.947
12.945
49.159
64.921
63.658
-18.4
-94.356
-76.365
-50.153
-45.925
-44.477
-54.859
-89.772
-104.87
-109.18
-75.612
-7.9822
51.143
103.59
95.259
-56.225
-179.84
-202.89
-127.66
-47.38
-62.652
-100.75
-76.267
41.195
121.32
41.303
-33.599
-2.888
32.898
85.128
113.17
90.241
57.396
68.978
79.723
84.408
66.243
40.625
42.999
70.485
75.77
39.73
2.1346
-25.496
-19.667
1.4299
4.493
-2.4143
19.116
61.21
75.614
36.051
-2.1451
-35.51
-62.236
-58.031
-68.835
-71.826
-70.69
-80.384
-70.885
-63.688
-59.305
-51.532
-64.27
-87.475
-40.978
27.558
63.046
90.849
111.7
82.102
-20.51
-102.08
-94.336
-37.921
-12.344
-21.401
38.426
84.205
50.398
30.866
25.767
13.272
10.851
11.327
6.3839
-29.663
-28.342
-3.57
31.578
30.097
19.572
35.467
24.757
5.7881
-22.506
-46.191
-32.378
5.6757
16.528
7.7417
-10.255
-1.0494
17.784
12.887
6.8712
1.5637
0.59744
26.979
33.548
18.667
-5.6731
-16.89
-12.813
-16.581
-16.32
-5.0379
-1.6133
7.9332
23.728
28.268
25.706
17.367
13.21
7.2488
-5.6358
-17.759
-27.215
-2.7072
45.856
51.208
26.095
8.739
5.0295
4.4683
-6.2337
-15.806
-28.17
-38.481
-9.2627
19.03
20.04
11.219
7.4246
9.8484
10.725
11.747
12.237
-8.7658
-14.533
11.08
18.938
2.5067
-17.079
-16.115
-12.954
-18.527
-29.596
-43.854
-31.544
11.292
29.771
20.044
0.84256
-9.8744
-17.909
-33.416
-53.558
-73.333
-79.367
-46.929
-17.829
-5.2105
-1.2824
4.7464
19.239
20.138
-6.5794
-38.654
-59.248
-37.118
1.1051
6.8373
-11.863
-19.004
-2.6851
4.5935
-1.5931
-11.746
-25.971
-13.039
18.422
37.468
33.044
17.511
20.624
31.214
19.378
-4.9518
-28.782
-32.584
13.01
56.732
66.369
48.055
28.937
26.966
12.735
-8.9845
-34.279
-41.813
15.645
82.668
126.29
128.46
108.41
96.01
67.367
11.921
-0.96346
59.363
119.01
102.28
21.629
-47.016
-84.491
-81.417
-75.972
-116.78
-200
-207.59
-110.85
-10.909
31.204
13.852
-3.4874
24.422
48.784
43.099
28.259
8.1663
1.7217
22.455
25.634
10.849
-6.2557
-8.5676
-9.4536
-21.366
-33.301
-42.328
-49.851
-20.563
14.504
21.8
18.995
21.92
18.564
5.1398
-5.5768
-17.541
-31.66
-16.002
10.927
19.99
15.515
14.361
14.936
5.2339
-6.6443
-24.177
-38.461
-13.931
11.844
16.652
18.036
13.267
15.306
9.7203
-7.7368
-23.159
-37.71
-22.108
10.619
21.5
19.24
9.7071
10.932
15.689
9.1313
0.47723
-12.777
-18.224
1.1029
12.294
16.461
13.204
-2.0393
-5.6575
-9.6628
-26.26
-38.641
-54.206
-42.517
-1.9521
18.343
27.314
28.743
24.95
23.784
16.417
2.4591
-14.556
-35.185
-23.467
8.9752
22.126
18.665
12.087
15.217
14.018
0.46022
-9.4507
-23.733
-26.254
2.5637
19.666
19.497
14.978
13.389
11.611
-1.3745
-13.957
-22.831
-34.859
-15.193
9.7885
14.572
12.484
10.543
10.859
1.4409
-10.653
-20.764
-38.303
-29.2
6.3771
19.548
16.783
11.168
9.0251
6.9304
-5.765
-17.989
-32.692
-40.073
-7.0628
16.489
19.87
21.9
21.85
24.402
16.24
-2.0832
-15.519
-32.899
-24.756
12.887
29.072
25.384
17.434
18.462
19.311
4.5231
-15.868
-30.329
-43.079
-20.145
10.1
15.379
8.3449
4.9246
10.888
10.589
2.2098
-15.259
-35.981
-25.621
9.2244
23.807
19.214
11.811
13.749
9.4465
1.344
-13.649
-37.668
-34.316
-2.2525
14.059
20.505
17.675
15.872
11.858
-3.6878
-19.947
-36.606
-43.601
-14.383
7.5378
5.2352
-0.61204
-4.1933
-3.7125
-5.5312
-13.797
-3.606
7.9915
37.717
69.371
18.747
-16.686
11.068
13.701
-23.353
-39.933
-29.388
-11.863
-29.69
-15.649
47.431
52.235
47.12
50.996
33.334
33.507
14.099
-26.047
-41.77
-34.082
14.798
85.64
101.52
69.082
-4.8519
-50.296
-51.667
-91.717
-105.02
-96.259
-74.053
-4.1997
39.267
14.744
-3.0966
-5.2869
-20.157
-29.131
-18.969
-8.0169
22.201
56.45
41.148
23.874
49.234
83.39
80.43
63.934
44.51
14.822
-22.683
5.482
60.396
63.026
60.756
68.627
69.411
33.099
-35.031
-83.151
-104.47
-110.91
-55.266
-12.889
-14.693
-37.659
-66.931
-69.593
-70.741
-87.84
-84.945
-56.274
6.5901
50.959
46.722
12.106
-24.008
-61.973
-133.49
-221.18
-212.28
-127.11
-72.398
8.1611
129.65
168.54
134.25
87.005
42.436
28.761
9.0832
-25.156
-17.693
32.67
48.419
30.197
15.477
-26.501
-20.35
-14.209
-65.191
-85.993
-34.449
56.343
101.04
113.93
133.23
127.35
70.278
-4.1334
-60.942
-61.43
-13.62
2.9264
-7.7566
-15.73
-1.205
22.133
38.931
29.278
0.83766
13.618
50.351
58.38
46.576
30.36
29.301
27.591
8.2465
-17.42
-51.818
-48.787
7.1285
54.325
71.143
72.321
84.215
59.536
20.475
2.8814
-5.248
8.0052
29.688
28.38
12.565
-28.292
-54.682
-59.029
-65.937
-61.762
-58.79
-42.22
-9.5886
-4.3972
-19.823
-31.276
-22.94
-18.388
-28.866
-36.313
-46.364
-43.237
-9.708
17.132
21.298
16.542
13.873
18.374
16.765
2.7661
-18.081
-35.306
-15.174
14.208
5.2847
-8.9763
-3.7021
4.2606
5.6975
-3.7747
-18.409
-35.594
-43.199
0.08312
31.436
18.556
-2.5051
-19.965
-21.44
-25.915
-25.742
-7.4408
-11.947
-0.11527
58.017
78
41.565
8.0031
-17.322
-61.29
-86.563
-69.427
-44.99
-28.015
20.473
63.329
59.775
42.07
44.599
39.824
6.0922
-18.172
-15.144
-0.28934
42.853
75.554
29.055
-62.406
-153.42
-153.38
-86.817
-45.612
-17.104
44.669
167.84
290.69
302.08
205.79
101.69
-8.5425
-87.316
-119.57
-130.68
-63.802
4.7132
11.196
-18.876
-55.457
-37.698
17.358
85.827
85.079
-27.05
-135.93
-107
-23.98
-50.467
-70.755
-44.577
-0.0020757
8.058
-7.6631
-33.198
-54.762
-36.691
-1.7987
15.747
14.357
14.489
17.194
7.7665
-8.0996
-31.604
-42.245
-3.6177
34.41
48.442
44.361
41.667
41.579
23.876
-6.7521
-46.466
-67.486
-29.889
12.03
29.053
23.392
16.047
22.629
14.093
-4.5227
-26.213
-51.327
-24.118
26.922
44.684
40.53
33.586
27.776
17.87
-0.56667
-22.577
-45.643
-45.786
8.1368
71.071
87.891
94.351
152.23
175.75
206.71
147.26
-33.184
-67.039
-72.484
-109.17
-66.331
2.8489
69.625
36.964
-114.81
-170.98
-66.131
-81.244
-158
-182.32
-132.18
-48.386
8.2067
26.315
33.815
60.633
52.033
16.305
-41.956
-80.312
-116.03
-99.825
9.9952
137.3
158.26
123.81
183.1
143.98
-27.47
-58.686
-5.2972
-25.446
-116.61
-137.45
-53.388
18.196
-8.8832
6.4086
65.94
147.88
107.88
-115.78
-125.64
-72.899
-105.08
-8.0805
9.2018
-43.411
37.044
95.489
65.41
47.683
54.022
14.364
-23.109
-90.924
-154.33
-101.51
-8.9778
115.72
114.55
-41.405
-62.152
-44.931
-7.0267
123.61
22.809
-166.42
-77.52
23.871
39.874
-0.057002
-8.8349
15.114
21.51
-13.932
-30.917
-41.627
-21.187
37.471
57.631
69.739
89.89
93.804
68.238
26.904
-8.5202
-25.091
-48.429
-27.563
40.618
82.942
97.052
92.594
100.61
114.08
85.137
27.874
-54.171
-131.88
-43.402
64.081
45.228
13.058
-15.539
-20.894
-6.3266
-8.4226
-42.676
-46.901
-61.624
-52.249
-17.197
-12.691
-24.902
-30.93
-26.084
-25.633
-39.776
-67.306
-64.892
-69.222
-104.76
-127.79
-202.08
-232.4
-115.12
-64.594
-88.678
-43.454
-27.288
-20.059
51.571
88.764
88.459
77.852
74.189
63.897
32.521
-9.9612
-62.677
-61.696
12.755
57.944
54.854
45.429
50.22
48.472
29.214
-2.3734
-49.439
-65.565
7.4476
67.574
68.952
45.02
39.899
46.164
33.757
11.392
-18.922
-34.918
28.044
96.134
104.7
86.522
82.378
79.13
49.819
11.194
-33.557
-54.267
5.7141
60.61
60.939
43.189
36.067
35.374
13.485
-17.569
-52.797
-68.297
-13.804
44.275
54.182
40.738
29.872
30.838
15.554
-11.533
-43.948
-72.559
-27.581
30.276
40.826
30.773
22.585
20.951
8.0996
-15.397
-45.9
-65.212
-28.907
13.094
18.302
12.162
10.92
16.534
8.7397
-9.4677
-36.172
-56.062
-19.049
23.615
25.684
16.292
10.62
14.181
9.7006
-7.3169
-24.592
-48.63
-37.076
14.455
33.981
24.107
11.99
11.648
11.168
-2.8172
-26.597
-46.926
-66.833
-38.202
11.21
21.907
8.9909
2.1644
11.22
8.84
-8.8528
-26.383
-48.081
-47.299
1.3475
26.348
15.959
1.4315
4.5875
8.9566
-1.7643
-15.357
-37.847
-61.124
-28.074
11.315
9.2544
-6.781
-13.188
-9.293
-13.531
-36.167
-53.955
-70.391
-53.609
9.9452
31.733
10.915
-14.587
-13.733
11.264
32.327
38.49
22.101
-27.744
-22.09
33.199
46.34
48.586
50.649
39.44
41.522
39.321
-8.0477
-60.041
-61.951
-4.6353
30.433
10.596
-3.1678
18.725
31.133
12.068
3.319
-2.4747
-22.542
-27.469
9.8018
31.027
29.237
21.93
20.658
8.9534
-18.93
-42.84
-70.447
-91.268
-53.008
-0.49881
21.767
21.265
21.055
19.592
0.58025
-24.652
-51.227
-59.832
-8.9804
56.841
78.955
51.231
27.658
43.818
57.409
40.383
-4.9683
-28.397
12.582
30.106
1.1475
16.044
21.614
0.91426
-20.716
-30.664
-24.889
-41.886
-68.507
-38.853
1.377
14.503
17.468
20.201
20.228
7.3691
-11.399
-32.844
-54.893
-31.707
16.222
29.163
17.688
10.085
10.172
6.0852
-9.0162
-22.269
-40.502
-53.317
-16.226
13.862
12.386
7.1292
12.541
18.563
8.2801
-5.9948
-28.748
-41.8
-4.4587
33.199
37.094
21.742
10.826
14.011
9.111
-3.3373
-18.67
-41.737
-35.486
-1.2795
14.338
16.235
17.81
24.258
22.957
5.3817
-17.726
-43.684
-37.616
7.7233
31.609
30.723
21.353
16.414
15.229
4.3087
-11.741
-27.275
-41.557
-15.099
23.111
31.79
23.752
17.358
16.203
9.5734
-7.645
-21.355
-38.786
-42.27
-3.2219
24.928
26.15
16.826
16.19
17.845
9.3275
-9.8804
-23.715
-40.333
-24.94
16.608
30.111
19.711
12.121
16.122
16.642
5.6576
-7.7867
-25.579
-19.484
14.294
14.222
5.7349
-21.423
-30.23
27.256
19.425
-13.558
-17.249
-20.319
24.729
75.42
93.84
88.838
88.7
99.853
130.05
147.05
155.87
158.53
179.02
134.69
-10.628
-153.51
-321.09
-526.21
-640.32
-621.83
-388.18
-74.924
17.969
24.448
62.452
66.796
64.168
128.42
155.81
118.73
62.746
26.994
-5.4389
13.799
92.622
128.02
106.58
92.483
118.75
107.11
67.897
62.665
7.1539
-83.299
-94.363
-55.52
-31.691
-23.871
-65.408
-58.471
-8.7365
0.80854
-12.916
-38.535
-0.69613
62.353
85.971
96.825
73.326
45.781
22.141
-7.5655
-29.918
-44.545
-7.8429
66.795
81.119
57.904
39.501
38.588
33.642
15.29
-0.28383
-27.906
-53.037
-27.257
6.4429
9.7517
-0.16359
-6.2066
-5.5045
-13.669
-23.522
-40.155
-62.554
-39.859
3.528
12.704
8.0845
6.792
12.167
17.132
7.004
-3.7035
-22.355
-30.56
6.2864
33.674
32.284
17.937
8.2477
8.5179
-1.7367
-17.867
-31.312
-48.755
-26.907
12.693
19.712
5.1227
-5.2693
-3.7169
-8.8662
-21.064
-37.535
-57.035
-42.739
0.22469
15.601
3.9885
-12.09
-3.9786
7.8419
2.3287
-3.9458
-16.07
-14.414
18.31
32.375
23.638
8.3696
7.6884
4.8268
-9.8031
-26.422
-51.181
-50.098
-2.0608
25.312
12.522
-6.8627
-4.7082
-0.54396
-6.7019
-21.905
-45.629
-27.107
27.845
49.035
34.04
16.915
17.586
10.699
-3.1486
-28.642
-56.02
-25.43
25.523
32.183
12.986
3.2785
2.01
-12.197
-33.279
-59.991
-69.099
-15.083
45.792
66.232
55.131
45.535
41.999
19.402
-7.5559
-33.41
-33.107
23.362
64.068
52.547
19.839
2.9981
-17.686
-50.715
-85.956
-120.94
-107.82
-67.779
-4.237
156.98
358.46
381.44
134.34
-47.447
-97.163
-138.44
-122.74
-71.158
-57.849
-53.386
-26.338
-26.693
-24.377
-21.787
-22.429
-20.405
22.561
58.915
57.427
55.512
58.706
65.813
67.414
50.467
29.447
19.159
36.403
64.72
68.013
40.249
0.78488
-8.179
-18.85
-60.241
-100.32
-135.87
-133.65
-70.594
-30.86
-30.071
-39.226
-37.694
-33.219
-31.676
-30.446
-26.193
-36.809
-22.442
9.9691
31.773
26.753
20.357
19.487
1.8322
-15.709
-39.055
-55.694
-20.017
23.972
40.211
40.158
44.117
32.784
3.4962
-20.786
-50.114
-59.717
-0.93426
70.782
96.908
94.258
91.863
82.311
53.395
5.2756
-40.64
-77.507
-74.329
-27.447
-14.017
-38
-54.857
-46.965
-39.29
-48.919
-62.465
-62.57
-68.134
-20.237
39.759
49.245
22.048
-2.2484
-4.4001
-4.6049
-14.705
-20.855
-19.503
-11.063
30.777
76.886
88.613
60.356
27.538
30.785
27.707
17.921
5.9419
-30.099
-27.46
3.9365
-15.043
-51.397
-45.645
22.758
69.186
83.112
99.644
82.499
47.27
52.563
55.539
-3.226
-111.72
-136.1
-93.201
-50.363
-19.874
22.224
42.003
21.203
27.737
30.993
0.53971
-22.312
-34.343
-47.413
-32.286
23.76
111.42
108.12
28.201
-8.7289
-5.2615
5.7617
4.4847
-2.8956
-7.1658
-23.737
-51.893
-79.098
-76.412
-26.824
17.179
33.666
25.165
-10.475
-48.207
-27.262
18.138
59.608
67.689
88.414
133.73
104.12
32.27
2.9314
-26.765
-25.283
-37.174
-24.125
-37.367
-68.426
-10.911
57.739
78.928
82.557
12.509
-52.765
-50.227
-87.105
-179.54
-168.88
-76.319
-29.991
-12.104
-2.9691
13.495
28.096
23.035
5.0212
-12.234
-6.6505
16.111
17.056
11.891
12.13
14.836
3.3476
4.108
-18.02
-95.011
-107.54
-18.011
36.73
74.586
142.55
160.34
115.78
5.0736
-85.065
-133.09
-127.26
-61.694
-17.397
26.97
29.394
-40.035
-71.673
-14.146
31.388
16.809
-15.508
-10.254
69.681
129.18
121.91
61.323
-15.826
-11.317
55.987
81.056
55.748
4.084
12.132
47.497
85.26
134.05
171.29
171.27
122.6
-16.636
-174.57
-235.35
-178.64
-116.09
-99.536
-109.64
-89.335
-52.026
-58.322
-74.572
-104.86
-129.22
-97.915
-47.072
-57.532
-90.685
-82.676
-37.231
14.102
46.201
55.79
28.26
-2.1025
23.622
31.444
25.892
35.199
62.615
166.89
206.89
125.93
41.966
33.027
60.838
10.408
-61.218
-73.646
-19.037
41.004
81.533
113.85
149.11
208.44
311.41
316.8
114.61
-99.157
-179
-167.16
-186.02
-200.68
-199.13
-201.31
-170.06
-153.18
-167.78
-201.04
-119.38
139.64
245.95
108.03
-50.028
-153.77
-181.36
-175.54
-129.68
47.912
162.51
190.75
182.91
215.36
232.67
112.9
17.478
-31.493
-108
-175.98
-163.02
-79.765
0.78169
89.627
125.66
81.092
34.589
-12.277
-62.305
-39.416
33.397
84.615
65.629
11.845
-7.5689
-17.306
58.399
112.34
23.55
-19.113
-17.178
-27.135
-30.255
-55.933
-64.901
-19.345
-1.3917
-9.8494
-43.306
-127.32
-191.47
-181.89
-129.6
-67.74
14.094
76.208
93.456
92.725
97.713
94.573
76.203
53.381
14.727
-3.3245
10.181
13.182
4.7073
-1.7726
9.1044
16.864
20.659
9.1368
1.2157
19.974
37.336
32.963
15.293
10.103
2.0742
-6.4453
-19.86
-41.822
-25.515
12.87
28.585
24.467
24.746
28.043
31.854
22.487
-20.151
-53.373
-32.038
1.0809
8.4163
6.3039
1.5513
3.468
4.5491
-3.2008
-22.079
-48.862
-39.839
-4.1456
13.728
12.421
6.4319
4.4496
2.9688
-12.121
-28.895
-45.542
-64.608
-47.422
-17.76
-19.396
-23.15
15.086
77.294
126.94
133.22
105.55
66.694
28.007
37.065
54.731
42.548
23.582
-8.9698
-54.249
-141.72
-231.03
-274.33
-263.99
-180.62
-118.56
-97.561
-31.765
16.162
90.159
234.53
274.42
196.55
153.6
117.75
98.424
87.599
50.936
-9.6744
-29.93
-12.668
19.24
50.388
80.975
107.86
140.91
100.88
-43.243
-176.67
-184.85
-160.05
-129.45
-82.758
-4.5103
-24.645
-44.328
20.417
-92.117
-210.53
-142.25
31.511
170
159.12
151.42
22.951
46.916
109.28
1.6539
-160.61
-165.74
-114.49
-161.01
-84.072
99.599
133.58
41.127
14.703
21.214
45.543
56.39
75.961
109.09
75.142
-1.952
-57.427
-78.386
-74.457
-80.113
-98.023
-115.77
-144.58
-132.36
-67.802
12.456
99.033
179.44
202.3
102.92
-51.07
-117.72
-126.96
-109.08
-54.294
-19.849
-25.501
-12.042
37.166
70.338
69.581
46.696
18.916
-19.552
-24.283
6.6068
31.191
51.844
71.713
90.249
90.182
61.321
23.776
-4.8446
30.79
94.579
92.682
81.763
72.028
81.959
85.621
-20.8
-124.92
-106.43
-35.596
22.333
20.061
-14.103
-47.299
-91.929
-81.065
-33.544
-28.189
-51.085
-99.775
-110.3
-60.383
-5.3522
0.15802
5.1628
34.118
46.417
29.735
7.6387
-12.441
6.4909
43.881
53.433
41.072
26.683
32.715
23.435
20.689
6.0513
6.176
91.37
111.89
38.263
-9.4682
-23.926
-17.497
-3.5852
-1.0554
15.646
27.59
40.645
43.901
100.54
176.87
128.82
75.946
-14.022
-129
-233.52
-342.93
-312.72
-130.07
-25.457
-15.335
-25.668
-47.423
-33.441
-8.8673
3.6601
-12.696
-6.2665
30.161
47.005
36.161
20.874
18.92
14.82
-0.4055
-18.796
-38.419
-27.826
16.275
35.441
40.529
42.17
33.777
29.715
18.51
-1.988
-29.622
-42.535
-0.63315
35.059
42.195
40.65
30.93
20.904
1.7217
-20.302
-40.945
-59.837
-34.183
20.936
34.43
19.555
20.664
44.76
44.073
-4.1199
-43.218
-59.705
-65.191
-17.523
24.057
31.022
18.639
26.853
52.021
26.861
-17.387
-35.494
-51.348
-35.302
16.193
62.471
76.05
67.408
57.956
37.065
-3.8708
-29.525
-30.888
-30.054
-14.069
6.5984
15.734
32.737
43.534
39.477
31.905
7.9484
-26.083
-49.289
-55.502
-17.916
22.938
34.393
39.134
83.675
26.972
-79.549
-78.161
-68.072
-74.975
-68.283
-49.237
-21.652
10.815
23.235
31.308
27.054
15.097
7.4791
1.5745
-7.161
-25.397
-32.387
2.0795
27.974
22.289
7.3052
-1.8177
1.327
4.2715
-3.9657
-15.527
-32.699
-38.164
-33.058
-37.23
-12.907
44.101
73.443
58.65
20.085
-25.79
-49.14
-64.275
-34.073
31.556
51.513
24.542
-4.5442
-0.13014
13.876
-3.392
-22.329
-38.857
-57.564
-25.715
10.31
18.058
17.408
19.616
52.946
90.641
53.042
-21.451
-85.844
-104.37
-24.666
79.234
79.49
30.727
35.679
36.672
7.8675
-26.706
-41.72
-59.249
-55.608
-4.5258
28.368
27.255
5.751
13.852
54.143
34.967
-18.551
-42.876
-62.728
-39.404
45.772
131.48
107.1
33.173
30.732
36.741
51.123
87.723
-20.171
-175.79
-156.85
-82.297
-37.005
-13.827
-2.8821
-3.4028
6.9381
-2.6291
-15.711
-19.376
19.66
45.016
20.282
30.747
66.042
73.799
29.74
-17.116
-32.743
-58.398
-49.364
5.417
36.037
12.068
-15.827
-32.744
-13.185
29.223
38.961
30.837
17.882
4.9469
-68.983
-112.3
-23.804
78.47
106.8
74.116
46.828
44.937
16.702
-47.851
-108.32
-67.963
31.562
5.8373
36.001
58.105
-87.64
-117.3
-41.351
-27.594
-16.861
17.755
35.606
38.934
7.2602
17.95
34.225
9.4892
-45.406
-66.147
-23.748
33.72
22.332
0.67481
14.39
-9.1755
-22.239
-27.525
-37.047
-59.114
-87.149
-110.52
-67.916
-15.734
4.5973
24.069
42.038
50.089
20.233
-12.624
1.8112
9.1449
-36.083
-51.294
-1.0559
50.077
64.293
57.583
57.586
57.209
41.506
11.369
-16.704
-41.507
-63.325
-30.36
31.567
52.757
45.023
38.318
42.915
33.881
19.068
6.1197
-2.3577
-11.982
-18.589
17.564
52.438
26.886
-12.985
-20.585
-15.688
-46.743
-67.626
-75.887
-85.203
-39.24
55.198
97.103
79.338
67.554
58.977
34.928
-3.7763
-34.515
-41.785
-58.329
-35.899
10.645
25.745
11.106
2.6581
-1.218
-10.017
-20.041
-34.192
-35.983
-48.211
-25.13
28.489
41.611
24.175
15.046
18.737
16.834
7.5782
-10.891
-21.178
-43.021
-37.413
17.118
49.036
49.54
43.379
46.965
45.641
23.983
-10.971
-33.047
-51.087
-52.932
-16.95
12.057
2.8012
-21.397
-20.736
-4.5123
-1.0681
-9.469
-22.36
-51.719
-37.35
18.145
39.143
29.205
14.395
6.292
6.28
-4.9273
-24.336
-43.702
-62.635
-33.669
15.716
31.78
27.519
22.635
26.492
29.364
10.834
-17.939
-36.471
-53.856
-22.538
27.114
36.696
26.105
22.894
28.853
28.33
15.492
-0.52518
-14.862
-31.137
-8.4855
27.929
32.59
15.147
2.9783
5.2329
4.5099
-11.147
-28.188
-44.039
-57.57
-25.81
16.926
23.351
10.796
5.0013
8.1264
4.5963
-14.124
-28.203
-42.774
-43.262
3.1194
43.657
45.887
31.563
21.596
23.251
18.656
-2.1514
-22.972
-49.142
-54.622
-10.506
25.8
30.981
21.326
18.03
20.26
15.896
-4.2545
-16.959
-32.163
-40.142
0.77547
38.132
39.311
29.473
27.126
27.576
19.895
-0.10289
-11.691
-28.241
-54.002
-29.958
3.9842
15.838
16.979
16.545
17.978
17.118
2.8848
-13.07
-20.306
-31.886
-6.5336
45.528
61.996
52.742
63.975
70.683
39.201
-5.842
-56.637
-85.646
-68.86
10.666
123.68
211.78
179.31
45.181
-32.966
-37.797
-40.181
-72.489
-102.46
-126.53
-127.19
-99.339
-93.154
-98.936
-94.86
-79.438
-64.926
-56.077
-55.373
-60.546
-74.583
-40.499
23.067
55.111
68.468
69.778
61.817
64.198
55.048
35.033
17.443
-8.9894
4.3105
39.086
42.571
27.989
15.39
14.442
12.209
-7.7516
-30.011
-54.366
-56.046
-6.7678
26.926
28.46
19.695
20.421
21.29
7.1157
-9.4123
-33.161
-48.476
-11.777
31.767
40.363
27.828
19.176
23.115
13.682
-4.2677
-23.929
-48.78
-26.401
27.381
49.393
44.941
34.412
32.332
22.972
1.1232
-25.98
-58.327
-51.688
-2.7847
16.737
10.29
-0.72266
-1.7597
-6.4059
-20.024
-34.661
-51.488
-36.618
17.82
49.907
51.403
47.861
56.447
52.27
31.59
-0.66486
-41.651
-51.647
-15.176
7.1164
-3.5541
-17.3
-8.974
-7.7161
-11.978
-18.837
-40.578
-31.889
16.656
43.576
40.982
23.621
28.486
21.026
-11.166
-35.034
-50.597
-30.364
11.939
32.667
25.061
22.632
26.76
8.7511
-18.303
-31.416
-22.935
7.8047
13.395
-6.6255
-24.8
-37.076
-51.006
-75.16
-99.574
-125.49
-118.98
-58.699
-16.708
-12.19
-0.74716
52.957
134.79
211.29
226.04
135.76
10.741
11.249
32.835
18.53
25.303
20.51
23.106
21.903
-18.322
-31.195
-20.181
-3.3927
48.839
74.336
70.696
112.48
124.29
61.805
-29.71
-103.21
-138.73
-138.35
-99.317
-36.94
-7.8263
-13.044
-15.812
-2.5586
-0.90491
-15.241
-33.726
-51.359
-42.625
-5.1227
15.074
18.767
8.7665
4.95
5.2715
-4.0681
-19.999
-41.067
-36.888
1.1566
20.025
19.384
10.208
6.7769
6.7469
-5.024
-19.108
-38.354
-44.124
-6.5639
22.53
21.995
9.8236
7.9961
8.9124
-3.8443
-25.454
-53.793
-49.108
1.1897
24.766
15.783
1.7965
-1.2677
3.0228
5.0619
-7.6012
-24.761
-33.79
-28.916
27.393
37.171
-26.528
-23.342
10.001
24.54
11.694
-6.5911
-29.011
-10.338
40.531
65.146
56.067
25.563
9.2545
3.6462
-6.1693
-24.572
-48.672
-51.728
-15.728
7.8815
1.2395
1.6367
16.18
68.84
111.91
88.593
33.093
22.831
52.631
56.487
37.807
11.752
15.465
23.906
-5.9389
-37.093
-100.46
-126.88
-117.71
-214.3
-247.83
-154.47
-51.906
-12.5
-0.51654
21.418
-3.674
-22.676
50.408
120.07
125.22
110.43
94.223
75.953
53.019
31.941
-11.422
-62.078
-58.007
-10.635
17.328
10.747
-13.114
-29.591
-27.629
-24.012
-24.662
16.001
40.663
19.35
12.306
8.3986
24.365
61.083
66.307
38.499
13.514
-14.52
-38.747
8.2311
48.392
30.596
6.1525
17.523
52.361
50.418
24.326
-25.008
-84.172
-48.125
-3.584
41.623
44.969
-28.619
-29.23
-4.0203
-18.646
-27.829
-38.265
-48.922
-0.044942
5.7653
-8.2851
12.461
26.459
5.9461
-62.042
-82.04
-38.435
-33.61
-19.912
10.715
12.767
9.4182
6.9202
11.849
23.389
6.8259
-24.209
-50.115
-80.302
-50.982
13.104
40.296
37.151
33.737
40.555
40.237
22.925
-3.2576
-23.009
-53.99
-49.333
9.4702
50.746
49.443
37.096
42.264
41.88
30.544
6.1128
-10.77
-32.649
-50.827
-9.4052
40.151
44.162
30.222
27.583
33.54
29.838
5.7622
-15.404
-37.739
-48.669
-1.2565
40.541
40.898
27.785
24.364
29.687
27.252
4.5976
-11.591
-31.427
-42.715
12.52
48.547
32.387
23.058
29.925
36.006
37.552
21.867
5.0674
-9.5973
-37.529
-25.508
14.23
17.591
-4.033
-21.874
-28.369
-26.175
-31.683
-43.187
-55.767
-64.013
-21.943
14.518
11.652
3.6817
5.169
45.288
66.701
22.621
-23.567
-55.949
-57.28
-13.75
15.95
7.3804
-1.275
7.6925
13.867
0.53352
-13.723
-25.894
-45.023
-26.593
18.664
28.798
2.0819
-20.4
-4.9956
12.442
-0.11061
-19.687
-43.758
-47.075
-7.4565
13.307
1.8126
-12.352
-2.9329
2.3517
0.41462
-6.3866
-12.927
-10.145
45.758
136.14
147.16
115.89
128.02
88.595
7.4781
-17.491
-67.372
-193.19
-159.68
-20.391
56.306
28.219
-38.005
-88.683
-156.27
-139.54
-62.637
-59.853
-114.61
-136.75
-91.161
-16.566
29.471
29.619
35.403
51.817
56.086
42.469
12.598
-6.6283
-25.567
-50.448
-8.9922
51.22
64.901
44.579
46.052
61.217
55.366
35.167
8.5097
-9.0543
-41.836
-30.815
33.674
66.824
57.5
44.238
55.481
50.603
23.586
-5.1
-21.625
-11.636
37.412
96.848
56.247
-27.371
-35.273
-6.7442
13.516
7.2929
-12.802
-22.585
-11.388
-33.513
-53.278
-9.5958
37.45
43.343
32.157
27.189
31.362
18.142
-8.5838
-34.056
-57.161
-63.073
-48.971
22.388
58.79
26.553
22.466
30.737
32.243
23.36
12.31
-7.5968
-26.846
-33.485
-35.612
-8.5368
32.955
30.809
12.88
0.5499
-4.5497
-16.507
-14.69
6.5633
19.548
-11.202
-65.785
-45.226
31.626
56.724
7.451
-32.136
-30.786
-21.327
-21.538
-20.713
-14.746
22.675
46.872
58.664
88.313
27.491
-90.495
-100.88
-27.079
15.068
10.117
2.4725
-16.553
-25.927
10.22
63.843
40.098
-11.295
-27.47
-28.747
-14.273
1.1454
14.543
19.613
-2.027
-24.915
-72.51
-135.62
-88.415
31.732
74.94
58.08
75.519
74.945
56.634
63.804
-10.845
-137.08
-136.94
-105.54
-86.929
78.597
167
107.86
63.169
-6.0839
-95.186
-130.16
-133.45
-141.5
-131.61
-70.564
0.20055
34.099
34.167
42.326
50.425
46.539
27.379
-4.5106
-30.268
-18.351
43.422
82.294
90.742
83.887
56.975
34.731
27.582
4.579
-49.894
-82.346
-99.571
-71.005
-9.4083
13.236
13.715
17.699
28.674
51.627
80.407
52.676
-10.542
-57.315
-60.434
-8.7224
40.77
38.656
16.699
13.765
20.089
15.206
-6.9242
-24.825
-41.665
-68.841
-51.484
11.664
45.701
47.643
60.929
51.365
35.05
15.96
-4.4012
-21.539
-32.606
-0.18349
32.415
35.978
21.864
12.032
13.087
10.657
-1.6587
-6.2453
-10.987
-38.35
-24.517
27.423
40.789
22.084
7.0788
10.346
11.262
-3.8419
-32.793
-51.741
-63.367
-79.219
-43.094
22.495
39.474
26.902
21.248
23.725
19.676
10.49
-4.4487
-14.94
-26.135
-45.204
-27.155
16.34
31.872
26.155
19.539
23.701
22.428
10.008
-9.4561
-23.792
-36.519
-52.031
-32.72
7.7152
22.401
15.263
10.302
15.846
15.9
2.7943
-17.878
-30.054
-47.636
-41.051
5.2278
29.683
27.065
20.326
23.919
28.648
21.183
4.1808
-12.841
-28.832
-51.18
-37.59
9.2702
34.689
33.984
27.257
29.86
29.543
22.214
5.5039
-11.884
-23.454
-41.138
-34.54
11.444
22.183
5.9277
1.0659
8.8976
12.048
8.3199
-10.316
-23.128
-33.725
-55.841
-39.589
6.4262
30.21
20.131
8.3343
13.32
16.051
7.401
-2.1348
-1.0899
-4.3176
14.75
40.089
53.46
57.171
58.302
72.48
39.192
-32.825
-59.573
-54.526
-77.935
-96.75
-45.508
-97.797
-219.54
-116.72
61.536
156.32
166.47
117.46
62.59
25.471
-14.947
-12.218
14.541
8.1815
-8.7573
-17.814
-4.6988
8.1039
-5.5417
-24.158
-51.925
-72.485
-39.952
-5.331
11.794
40.3
92.147
101.81
54.319
29.211
-24.814
-101.35
-107.33
-51.066
-12.805
1.5094
4.2098
10.773
23.291
17.882
13.998
16.527
-4.9657
-8.9536
-4.2808
-25.245
-2.3434
50.829
69.737
18.666
-62.95
-64.819
-5.3003
-21.4
-79.756
-62.504
-28.445
-12.629
-9.7472
-2.0591
12.574
29.707
31.368
31.628
40.846
28.838
40.829
66.507
70.683
44.062
-11.36
-68.954
-91.116
-49.797
-12.199
-30.703
-42.808
-6.4642
24.734
28.844
30.663
56.261
84.03
111.89
53.978
-41.686
-33.908
61.991
83.572
-14.886
-40.155
-103.35
-177.83
-88.427
-54.662
-72.248
-68.488
-72.349
-63.202
-13.681
-15.706
-26.342
3.9054
49.266
54.562
16.117
-19.477
-43.666
-57.262
-0.17866
64.695
64.853
37.138
31.007
25.307
9.9538
1.0597
-17.477
-33.795
-18.82
30.992
51.897
51.933
46.495
51.451
62.432
42.58
4.5632
-25.778
-49.558
-24.426
16.56
21.776
17.807
8.2721
16.998
27.117
17.239
-8.4254
-29.827
-51.261
-62.031
-12.341
44.022
58.556
49.198
48.411
55.714
50.013
19.121
-20.718
-20.831
-22.579
-23.86
27.919
29.454
-63.762
-117.39
-40.886
61.454
100.29
88.342
35.995
33.245
37.159
46.871
109.39
120.62
103.13
86.002
7.3836
-46.448
-76.806
-157.06
-206.32
-170.46
-124.83
-53.922
21.953
13.34
-17.473
-0.014542
25.744
27.78
19.716
36.176
36.324
-33.903
-21.356
77.331
55.658
-43.153
-44.73
33.823
68.974
80.736
34.318
-21.08
-37.783
-142.32
-146.99
29.196
66.144
-13.786
-51.014
-87.039
-86.096
-46.333
-55.4
-49.677
-52.063
-5.2916
48.17
4.6243
-58.226
-51.073
29.453
58.176
41.663
20.152
22.061
-5.8459
-8.9023
10.169
24.698
59.655
11.214
-64.268
-46.983
-21.231
-39.037
-40.762
-55.145
-70.452
-15.044
37.676
56.329
57.557
58.026
60.198
48.193
21.574
-1.5651
-30.4
-54.895
-15.751
35.702
51.103
50.636
58.208
74.295
71.918
61.168
54.702
48.976
42.083
58.554
107.46
73.544
31.918
116.85
180.17
120.02
23.003
-45.13
-88.265
-123.09
-160.6
-91.116
-16.244
-44.127
-87.297
-111.52
-105.13
-105.68
-118.93
-93.596
-20.041
2.679
-19.798
-1.2737
21.72
8.7824
1.5781
-32.326
-6.8156
71.961
74.659
9.502
-47.534
-80.197
-52.065
-9.3421
16.509
16.416
14.113
16.949
20.083
2.1269
-19.554
-41.446
-62.754
-41.883
-4.1557
22.428
28.735
24.993
27.924
20.101
-8.3325
-44.366
-75.172
-100.45
-67.182
10.308
56.004
67.508
66.554
68.009
67.203
42.084
12.765
-21.152
-52.386
-8.7317
54.982
72.488
58.952
53.92
57.09
47.825
18.542
-13.67
-45.915
-53.845
1.9598
37.396
28.436
17.106
21.875
29.275
18.276
-1.5399
-20.436
-48.727
-39.266
17.204
43.228
31.755
19.389
20.385
21.49
3.8848
-19.229
-38.37
-44.401
-4.8728
30.673
28.457
14.149
9.7622
14.884
9.5446
-11.123
-30.405
-52.75
-48.229
-3.6399
20.898
19.285
12.356
14.85
19.192
10.09
-10.074
-22.041
-39.641
-34.564
4.9528
24.482
20.522
13.738
17.779
20.221
10.286
-11.019
-24.22
-40.299
-53.716
-19.739
17.756
21.398
10.788
10.818
19.201
16.204
2.6585
-15.564
-26.955
-43.79
-55.224
-20.24
17.415
24.125
14.855
14.004
20.26
17.674
-0.35475
-17.036
-33.014
-47.473
-19.899
18.253
26.312
11.113
7.3431
15.776
11.383
-9.5111
-29.726
-50.661
-64.781
-23.187
23.526
30.565
20.18
20.292
26.138
22.383
-1.2804
-24.749
-44.768
-67.427
-32.467
22.791
41.227
37.161
36.639
45.77
47.077
33.392
12.762
-3.1873
-34.46
-48.423
-5.6242
41.996
60.481
73.19
78.188
43.439
-16.919
-69.165
-90.021
-83.501
-74.019
-30.139
40.266
34.233
-14.876
-7.2864
29.155
57.185
50.083
0.35551
-22.812
-45.091
-61.586
-44.932
-15.121
13.036
34.892
32.413
12.653
46.248
43.983
-6.9511
-46.616
-56.129
61.458
70.102
12.818
-15.91
-11.613
9.6583
27.749
-10.988
-66.873
-77.712
-24.155
42.967
73.075
64.882
25.632
21.655
2.3985
-38.152
-24.734
-28.454
-67.627
-77.363
-52.918
3.3486
68.586
111.94
137.43
91.569
27.44
6.0679
-17.518
-45.883
-85.386
-89.627
-33.579
13.145
20.156
9.4642
2.4405
12.952
5.7366
-22.452
6.7547
29.883
6.8384
-46.893
-130.19
-109.09
-20.779
5.6963
0.7377
10.897
1.7587
-17.478
-23.674
-35.169
-52.338
-10.866
39.771
48.37
49.09
34.319
4.0162
-8.3271
-16.321
-33.726
-46.577
-71.919
-48.091
15.884
45.329
48.754
51.98
60.461
66.367
28.925
3.5922
-28.988
-173.64
-190.61
-31.43
53.539
42.08
16.834
11.935
28.435
38.39
17.309
-7.381
-27.155
-52.411
-47.652
3.2184
38.034
37.384
31.569
41.543
52.648
34.6
-4.3206
-26.827
-52.802
-69.903
-19.459
47.865
58.103
33.673
22.649
30.641
28.046
4.7943
-19.524
-51.051
-65.772
-8.9025
39.523
35.365
23.434
28.347
30.292
14.742
-20.016
-45.755
-79.758
-87.485
-8.9262
47.165
49.125
34.195
36.172
39.981
28.871
-0.88042
-25.135
-48.029
-73.937
-25.184
36.295
44.211
27.713
27.847
35.435
28.714
8.6028
-18.375
-34.174
-65.278
-61.945
10.058
58.719
60.4
46.587
49.624
55.045
43.297
20.798
-2.3727
-19.117
-44.016
-29.271
37.589
51.621
20.728
5.4699
5.0374
5.3829
-7.2109
-28.804
-40.657
-65.542
-72.426
-18.303
27.405
25.21
4.1964
13.229
24.91
14.099
-16.093
-37.92
-61.962
-73.68
-18.225
36.635
45.452
31.27
30.341
35.834
28.193
4.8075
-19.471
-43.452
-73.871
-46.79
14.742
36.627
29.328
22.914
25.772
23.37
8.9338
-21.155
-41.763
-62.649
-77.029
-22.46
37.752
57.86
55.479
64.717
81.245
81.659
73.356
32.038
40.147
20.119
-81.314
-45.541
32.508
43.864
19.164
19.337
42.952
35.237
20.183
-2.7393
-2.2947
-40.86
-101.19
-43.579
27.208
23.389
-10.108
-29.323
-51.854
-84.123
-134.02
-165.58
-217.16
-208.3
-147.57
-118.3
-34.249
76.265
77.511
64.212
52.836
26.04
-15.091
-42.094
-73.275
-39.068
40.33
86.54
94.103
82.803
96.792
95.785
37.932
-6.3707
-22.24
-22.729
32.947
141.91
226.53
215.45
184.1
184.96
172.35
116.92
43.166
-31.864
-86.591
-133.61
-180.1
-183.47
-201.1
-184.58
-128.19
-162.69
-188.71
-160.95
-110.34
-78.006
-100.41
-88.663
-20.534
31.314
43.092
61.032
101.17
109.92
84.37
64.741
22.983
7.5087
72.274
106.3
86.301
65.158
60.029
73.754
72.793
22.262
6.912
11.143
46.99
118.97
93.548
41.061
112.74
98.251
-31.389
-63.896
13.692
29.002
10.32
-26.782
-103.94
-125.89
-81.242
-24.784
-50.623
-130.86
-94.774
-76.296
-96.352
-25.013
37.69
32.72
22.765
-8.4968
-40.147
-36.339
-45.687
-63.074
-48.583
-5.0785
28.974
30.247
12.649
24.04
38.009
25.283
12.097
-2.4536
-16.838
29.249
93.935
107.96
101.08
120.43
142.72
160.27
139.69
17.76
-52.951
-26.041
-0.24788
80.156
16.373
-172.98
-155.69
-129.98
-225.9
-147.14
-0.40216
7.8695
42.711
44.223
16.471
21.961
-8.4712
-18.043
11.699
35.909
66.242
48.306
-29.887
-78.599
-121.35
-96.165
13.897
-31.733
-53.18
-16.671
44.696
161.96
189.44
165.08
168.82
10.203
-140.56
-89.149
-79.575
-71.288
-6.9593
13.233
-14.006
-67.292
-84.674
-42.428
-20.606
-76.846
-162.18
-106.74
-76.312
-62.222
8.93
55.584
51.279
43.577
46.21
16.243
10.177
9.6633
-3.8373
-21.548
-35.612
-3.7534
40.406
54.714
51.965
47.828
42.386
44.005
35.102
2.2413
-9.0214
-29.328
-27.485
36.831
88.047
102.99
97.785
116.11
138.22
152.6
110.25
25.986
-28.093
-135.83
-132.87
-82.977
-85.979
-53.601
-40.911
-51.575
-50.097
-20.298
-31.467
-2.732
-4.194
-48.912
-13.343
0.63806
-41.096
-24.791
-12.539
-32.569
-26.347
-8.0904
-1.154
-6.5776
-28.118
18.482
65.292
85.943
72.44
4.4536
-22.703
-9.246
-16.623
-22.119
-63.431
-147
-135.86
-33.777
77.417
113.74
96.026
93.217
102.31
86.105
54.388
54.854
72.204
70.559
89.201
89.675
-16.666
-132.09
-154.99
-38.482
69.351
12.501
-53.729
-99.508
-92.863
19.856
49.276
-36.591
-96.346
-76.153
-43.144
-24.107
-43.613
-49.337
-65.407
-85.303
-27.397
47.54
64.424
38.471
43.707
92.905
111.24
12.665
-58.396
-22.57
-6.0434
75.42
92.191
-12.253
-62.796
-57.251
-53.206
-51.082
-79.639
-118.76
-99.992
-22.97
68.522
87
55.767
22.549
5.131
-9.5541
-9.582
9.6776
-15.074
-65.52
-10.664
61.08
61.527
31.581
23.906
33.696
20.328
-13.673
-51.372
-85.693
-37.608
58.011
84.337
56.577
28.598
30.772
27.651
-1.1214
-29.258
-70.448
-71.603
16.275
66.792
55.114
36.57
36.994
43.39
24
-10.959
-41.931
-74.921
-27.544
57.984
71.675
42.333
32.089
44.783
36.066
3.4809
-30.562
-70.967
-50.388
41.114
74.632
50.712
25.635
27.54
26.31
-2.7571
-35.434
-72.697
-77.964
2.921
58.736
50.996
30.187
26.142
30.301
13.523
-18.177
-42.463
-78.584
-59.263
19.664
55.298
47.503
35.272
32.824
22.84
3.5636
-27.17
-47.347
-73.366
-54.507
20.458
58.435
53.377
37.337
31.605
28.446
13.865
-18.621
-39.182
-67.426
-75.921
-15.011
29.349
32.15
22.758
23.352
26.159
19.484
-5.7927
-26.181
-45.315
-70.498
-38.553
17.697
32.408
21.438
13.038
17.261
18.537
-0.084575
-22.609
-36.736
-63.13
-42.37
15.191
32.428
18.982
10.495
11.612
9.3377
-8.0487
-31.404
-46.191
-70.766
-44.161
13.778
30.825
23.12
17.793
19.739
19
6.0468
-18.904
-38.976
-65.655
-44.74
12.488
33.027
25.052
16.015
14.713
15.202
5.6983
-16.998
-34.724
-63.135
-61.123
3.5253
43.182
39.27
21.771
16.501
17.95
4.0993
-20.102
-58.928
-89.109
-56.611
33.126
89.26
73.393
41.133
39.616
52.45
37.07
23.883
41.271
-1.957
-24.941
-3.9764
-77.05
-101.32
-57.892
-4.8492
44.699
67.135
25.556
-28.672
-44.639
-2.0483
56.552
28.632
5.5386
-2.4022
-5.8769
-28.785
-135.5
-238.7
-256.85
-183.39
-13.94
154.4
231.63
193.17
121.07
69.583
24.209
7.6982
-5.2236
-21.55
-12.493
19.948
39.337
26.224
6.6001
7.0804
-13.54
-54.889
-91.246
-118.79
-138.7
-81.993
20.161
100.43
132.45
113.75
76.353
35.753
-6.1315
-56.995
-105.16
-83.367
3.7465
40.94
14.452
46.546
122.69
173.75
175.33
104.18
80.345
82.866
5.4344
-50.091
-33.374
-27.922
-23.964
-3.7488
36.496
107.31
78.06
5.2098
-5.82
-30.238
-57.831
-61.571
-33.666
-20.879
-59.67
-115.25
-90.538
-24.596
-9.8883
-36.152
-165.83
-118.67
35.312
27.135
-5.795
-5.123
19.159
62.098
71.43
39.485
50.241
49.552
-110.3
-338.77
-321.63
-180.39
-104.1
-29.188
1.5386
26.328
24.326
13.617
4.4977
47.547
68.243
1.621
-10.119
76.782
132.87
159.09
157.66
140.98
123.78
91.751
-14.299
-100.13
-94.967
-9.9447
30.659
8.0105
-7.3489
-24.601
-28.865
-12.994
-17.253
-42.284
-77.68
-67.821
-14.726
24.538
23.604
27.504
38.661
87.446
133.58
133.32
101.09
5.6977
-23.891
17.807
4.1035
-15.169
-38.836
-41.732
-46.514
-69.39
-91.216
-114.19
-104.81
23.087
95.943
67.645
34.216
5.7885
4.9208
8.688
-28.997
-74.611
-131.07
-107.39
-7.1015
21.822
25.401
-9.3864
-24.504
-53.164
-122.32
-163.88
-162.29
-139.17
-26.74
91.252
110.8
116.3
115.97
133.55
113.26
39.979
-36.255
-95.018
-114.25
-60.088
1.5272
20.089
-63.444
4.1108
138.32
107.4
22.428
-45.439
-108.45
-76.529
9.4326
33.318
32.829
34.998
38.813
28.478
10.288
-19.176
-56.587
-21.548
61.901
92.559
78.917
51.65
48.333
45.072
12.956
-23.06
-55.727
-39.811
29.198
62.928
57.673
42.978
40.646
31.554
17.147
0.83087
-30.458
-25.601
28.47
48.514
33.23
19.197
23.528
24.637
13.496
-1.7811
-25.899
-35.117
15.007
49.691
43.232
28.609
23.192
29.125
12.227
-12.502
-34.41
-50.674
-15.645
10.683
-13.516
-41.652
-55.689
-47.029
-36.065
-12.57
7.197
-26.687
-39.592
14.124
71.39
86.455
76.887
75.166
61.65
32.118
12.49
3.7859
14.156
27.62
2.239
-37.651
-58.232
-53.433
-27.63
-9.3162
-7.0612
0.53694
2.4779
-0.46285
-15.366
-27.279
14.378
34.513
-8.7228
-66.378
-89.645
-108.33
-75.159
-2.0364
87.438
121.48
104.57
73.745
72.45
33.394
-22.363
-61.654
-96.921
-78.475
-103.04
-173.16
-100.8
19.267
17.016
14.805
36.969
8.027
6.4555
28.313
21.804
-28.673
-58.064
-40.886
-15.933
-35.17
-26.566
45.048
28.332
-15.163
-61.531
-55.228
23.894
37.003
77.844
140.63
52.48
-45.843
7.7309
43.234
-30.583
-77.931
-68.651
-41.954
1.152
-19.699
-74.214
-20.239
31.322
18.315
-4.2936
-22.836
-4.5358
50.965
50.139
11.076
-22.874
-29.202
7.1087
25.611
47.475
67.664
44.065
-24.228
-85.707
-47.602
27.545
18.033
28.507
61.496
46.392
30.716
17.003
-14.386
-6.7711
-0.28293
-27.012
10.57
-9.7025
-32.819
14.668
-12.657
-48.794
-45.558
-20.874
22.128
-8.8015
-77.998
-83.641
-54.214
-2.7012
31.216
29.656
-0.027785
8.761
49.096
35.228
-15.517
-28.444
-24.103
-1.5807
15.416
5.8577
16.988
17.053
10.746
19.059
29.611
19.796
5.3685
-12.248
-32.605
-13.29
45.92
91.3
92.621
66.239
44.1
29.142
4.1223
-13.526
-25.959
-51.643
-40.694
6.0974
30.63
28.659
27.306
49.413
59.794
54.91
56.647
55.2
59.932
51.684
-39.592
-74.171
-26.782
-80.427
-146.57
-33.63
37.697
11.962
-50.285
-57.201
-31.739
-4.8851
-7.9774
-1.6169
-0.44096
-13.936
-8.4025
-17.485
-7.0636
25.79
27.318
2.5231
-22.562
-79.021
-128.87
-87.466
-14.775
28.019
35.065
10.296
22.788
68.802
89.285
69.217
35.274
28.681
27.924
13.743
-14.273
-61.046
-61.048
-0.76307
26.225
19.511
4.3572
-4.3415
-0.059033
1.2163
-9.982
-30.151
-42.091
-19.07
8.6572
8.4982
-1.99
5.12
0.89058
-14.662
-26.016
-42.125
-47.349
-15.163
18.66
25.778
19.689
15.775
19.761
10.592
-7.3872
-22.189
-34.32
-14.358
22.048
38.842
35.709
27.617
27.334
20.984
7.6441
-10.473
-33.896
-36.474
-3.8898
15.992
12.643
8.0718
9.1886
6.9609
-6.9513
-14.443
12.181
-2.0716
-38.267
-13.374
14.96
11.844
0.43535
3.3012
11.606
6.3709
-5.9725
-15.837
-22.646
1.3305
46.466
66.69
65.051
58.54
47.655
20.9
-36.62
-78.482
-76.623
-104.08
-71.119
15.66
47.461
24.867
17.942
17.556
18.502
6.5527
-13.729
-33.956
-63.898
-32.759
21.63
47.131
39.57
19.449
28.967
26.908
11.415
-17.71
-108.08
-142.22
-57.296
6.7704
8.2359
-5.3355
-1.6304
16.767
17.646
18.774
34.151
30.814
-7.8269
23.813
89.714
59.15
-26.2
-37.871
-39.891
-16.496
-4.9606
-30.025
-77.519
-74.816
-13.935
18.62
22.637
33.012
31.228
40.226
1.0066
-45.309
-22.142
-26.091
8.696
69.809
60.425
48.452
63.092
78.893
52.251
-13.552
34.226
85.594
14.499
6.2193
-20.139
-69.356
-57.83
-40.253
-15.939
4.8682
6.828
7.4871
-20.846
6.0103
53.482
20.494
-41.208
-66.248
-38.713
-22.635
-46.491
-81.756
-107.89
-81.345
-12.117
55.801
82.843
61.586
46.237
25.079
-19.809
-27.201
-27.381
-25.108
22.752
61.94
42.965
-2.5054
-1.7808
7.5779
-13.038
-19.785
-15.706
-20.471
18.183
45.818
44.391
47.481
56.432
78.216
79.799
23.972
-77.599
-167.43
-118.21
-43.3
5.0421
44.205
64.299
89.996
71.676
59.237
27.227
-98.581
16.731
163.06
88.404
-102.83
-274.8
-196.96
-23.854
-17.557
-80.954
-82.843
-40.52
49.996
124.74
181.7
150.74
75.884
25.29
-73.475
-99.444
-22.364
-14.985
-29.985
-34.859
-2.0377
64.208
32.493
8.2145
15.953
5.4902
-54.538
-90.957
-106.01
-48.857
6.3869
-90.932
-146.83
-58.616
4.3902
18.806
63.732
83.617
-4.8038
-26.474
12.304
-4.1405
-3.0864
43.482
62.42
70.073
49.041
21.803
9.024
-9.3313
-5.1393
-8.1395
-3.519
-11.063
-3.1395
11.237
11.089
-7.6661
-13.778
-45.939
-66.58
-11.903
44.957
59.995
49.469
55.451
76.393
83.677
76.022
49.483
3.8834
-46.247
-39.589
4.0957
37.749
42.161
37.193
46.671
42.387
13.556
-15.437
-29.754
-45.206
-36.187
0.024325
12.709
-6.8668
-19.522
-30.693
-32.114
-34.728
-40.294
-52
-42.919
10.262
55.332
59.788
60.247
62.371
56.471
36.639
0.63929
-13.674
-57.001
-79.823
-53.253
-59.324
-5.4417
30.567
5.8958
29.267
72.53
72.892
31.037
-51.288
-84.989
-23.5
2.0094
-26.439
-34.87
-38.592
-34.27
-9.6743
22.736
32.109
-11.088
-27.183
-11.675
22.984
24.859
-7.2982
-27.804
-41.362
-48.975
-38.934
-35.341
-49.008
-36.84
5.5855
30.958
32.945
26.281
32.665
50.21
28.466
-23.202
-66.751
-78.252
-23.484
19.338
21.056
12.44
18.337
22.749
12.218
-1.3555
-23.354
-46.364
-18.101
27.204
41.204
31.4
27.621
35.652
32.271
23.021
-6.3693
-51.751
-50.963
-3.5272
27.167
49.182
39.402
19.107
19.542
20.443
14.1
-18.022
-57.871
-38.083
14.706
30.735
27.917
20.992
23.149
23.455
4.8658
-12.485
-23.372
-51.266
-42.108
6.2033
29.228
23.765
19.727
27.74
37.73
28.409
9.4739
-3.3157
-22.933
-18.826
6.2457
12.917
11.751
20.606
36.029
47.816
33.811
10.577
-39.042
-68.228
-6.2238
42.315
31.398
-0.17533
-24.98
-45.891
-48.097
-55.68
-20.421
-1.5317
-48.577
-76.464
-39.449
5.7922
5.1477
4.7665
-28.192
-26.935
22.388
41.555
12.995
-3.1944
32.732
49.632
17.763
-20.456
16.812
80.217
62.809
4.3731
2.8169
22.164
33.235
85.231
113.72
90.151
55.022
24.427
-11.198
-64.624
-125.13
-182.84
-232.81
-208.03
-133.89
-77.204
-34.871
3.5486
36.499
40.655
20.239
-0.55366
-18.724
-5.7975
37.973
64.644
67.266
61.257
60.327
61.024
38.838
5.3115
-25.796
-32.906
5.3958
28.303
25.027
13.615
7.9017
8.8472
-0.062526
-13.912
-31.967
-56.846
-26.96
25.329
30.706
12.644
6.182
10.937
2.7803
-10.969
-32.331
-56.195
-22.547
24.329
27.495
14.591
7.4898
13.881
8.8448
-9.2911
-34.412
-50.692
-15.74
27.264
34.577
17.81
6.6888
7.8724
-6.012
-24.814
-51.89
-67.551
-28.309
13.83
14.087
-1.2654
4.1051
14.071
19.694
34.634
44.473
79.289
146.83
191.26
186.21
127.14
82.494
26.087
-55.288
-125.18
-172.7
-150.25
-86.759
-55.112
-51.601
-39.815
-29.804
-33.214
-63.775
-103.28
-110.6
-93.39
-98.242
-143.29
-193.84
-173.27
-99.307
-61.284
-37.57
89.407
257.79
311.99
251
133.35
50.29
48.285
35.823
19.682
35.239
68.063
91.636
69.936
53.194
125.99
125.66
82.317
71.928
30.638
12.917
30.824
31.354
-50.069
-171.69
-192.44
-134.72
1.1947
88.903
0.44251
-72.652
-117.31
-106.98
-7.251
-25.316
-134.46
-168.2
-144.06
-125.52
-102.53
-56.018
25.66
65.552
73.705
63.666
47.759
34.294
10.281
-13.386
-31.514
-32.078
3.4632
40.133
44.362
28.915
26.867
25.191
3.0457
-19.479
-46.457
-41.951
13.853
58.453
79.484
73.654
68.553
68.671
45.657
13.272
-22.303
-55.744
-21.045
39.057
60.427
55.414
46.925
44.47
34.107
7.1596
-17.584
-42.385
-63.135
-27.896
20.208
41.545
38.44
35.943
38.939
32.154
9.6098
-13.357
-30.722
-55.589
-39.146
11.024
36.489
34.639
25.108
26.118
22.893
8.4781
-13.874
-30.209
-44.879
-70.833
-60.66
-20.801
-15.549
-28.927
-40.443
-38.939
-30.317
-7.2079
45.627
56.033
8.7915
5.9362
56.575
98.065
82.663
17.087
-15.119
-7.4108
-17.164
-37.66
-49.782
-58.366
-32.646
7.9587
19.199
9.0724
2.027
7.5488
6.566
-6.1148
-15.905
-31.659
-42.592
-11.013
16.049
14.669
-0.087126
-8.1965
-6.9591
-17.348
-35.896
-56.577
-72.251
-47.172
-0.072539
14.345
20.66
31.022
18.69
6.7266
13.586
37.519
55.353
84.517
148.23
158.46
74.545
-40.252
-64.347
-29.504
-24.098
-53.279
-102.69
-115.54
-65.143
-31.064
-32.818
-27.885
-13.85
7.9174
8.5573
-13.752
-20.804
-33.275
-18.665
21.499
33.686
24.143
15.693
22.097
21.877
10.035
-17.351
-39.859
-14.494
21.905
30.237
20.092
11.282
5.9364
-7.2729
-19.305
-37.059
-43.724
-5.8723
26
27.93
18.977
14.831
13.164
3.1576
-9.9162
-29.027
-32.773
6.362
35.746
33.984
21.042
16.852
12.553
0.79192
-10.674
-28.959
-40.343
-10.289
18.006
19.744
18.02
19.951
24.675
21.631
7.1642
-4.5046
-22.975
-21.885
13.524
35.41
38.576
37.764
43.305
54.067
51.698
41.721
26.392
-26.613
-71.907
-72.357
-55.948
-39.819
-37.732
-35.501
-21.923
-12.057
-10.569
-9.3079
-8.1775
-16.493
-8.132
18.527
31.1
34.568
21.13
6.1372
1.9884
-2.8696
-16.145
-32.141
-39.77
-48.907
-41.037
-11.094
1.9196
-1.9034
-1.2087
12.238
25.391
26.274
15.449
4.8769
-15.841
-23.819
-0.29526
19.287
22.36
15.683
15.714
18.278
11.642
-6.3136
-20.75
-37.756
-50.93
-22.475
13.964
28.833
29.289
27.867
26.34
22.29
9.5806
-9.962
-21.523
-42.954
-38.54
5.2362
33.275
38.887
32.091
30.81
29.318
20.099
3.0317
-14.456
-27.845
-47.18
-33.964
10.194
30.942
32.784
29.154
30.829
31.341
21.215
6.6943
-7.0065
-19.543
-36.326
-35.944
-0.57653
23.949
24.407
16.265
17.138
18.05
14.027
2.9012
-12.319
-18.717
-31.422
-37.429
-6.7361
20.282
21.95
14.753
13.859
14.802
10.806
-2.9991
-12.443
-24.335
-35.938
-15.746
9.7868
15.004
8.9184
3.62
4.42
5.2319
-4.4623
-16.047
-25.953
-39.734
-21.654
8.1671
15.21
9.8157
5.9117
4.8926
4.6196
-5.0102
-18.204
-28.585
-43.502
-25.125
6.6142
15.444
12.338
8.5357
10.355
11.07
1.5518
-13.704
-22.608
-39.69
-29.201
6.7426
21.483
19.742
17.081
18.366
17.51
8.8606
-6.639
-17.06
-33.485
-36.851
-3.1668
22.154
23.196
16.987
19.081
21.884
13.643
-1.9404
-14.14
-31.205
-20.003
15.439
27.1
21.647
15.076
17.26
17.462
6.9676
-6.5086
-22.614
-33.431
-8.3514
16.686
19.198
13.998
9.7196
8.2731
5.0461
-7.2287
-18.998
-33.898
-36.191
-4.2059
18.417
21.018
16.956
15.417
14.194
9.6711
-4.0206
-16.9
-29.801
-37.587
-12.261
14.515
21.161
17.597
15.914
15.89
11.687
0.83634
-11.43
-20.244
-36.153
-25.728
4.225
18.777
18.533
12.569
12.794
13.029
8.4046
-5.361
-15.342
-29.329
-37.344
-12.436
14.582
19.427
10.867
8.4711
10.771
7.0142
-5.3961
-16.759
-32.713
-32.06
-0.71603
19.343
18.839
10.791
10.221
11.315
3.3804
-12.241
-25.866
-42.268
-29.605
6.2593
20.592
19.234
14.725
15.83
15.933
3.8674
-12.366
-25.49
-43.918
-25.228
11.914
23.809
20.552
17.38
18.628
16.836
3.5385
-11.253
-25.276
-41.605
-20.619
15.886
27.07
23.215
18.154
18.489
16
1.6909
-13.415
-29.01
-42.701
-14.164
21.586
26.761
18.727
15.75
17.907
13.125
-0.9094
-14.353
-33.454
-31.333
7.0167
26.531
23.175
15.293
13.432
12.944
1.7558
-12.129
-29.004
-37.566
-6.273
19.595
20.568
10.759
5.5698
5.908
-2.8227
-12.438
-27.337
-41.056
-15.731
18.249
25.49
18.999
13.441
14.813
5.2232
-8.6419
-21.776
-40.056
-23.234
17.677
30.177
25.805
17.917
14.981
10.758
-4.0662
-17.294
-35.719
-42.168
-6.088
20.867
20.978
13.474
11.469
12.711
5.5454
-8.0747
-21.619
-39.426
-25.638
15.213
29.948
23.034
14.326
15.915
11.755
-1.9628
-18.288
-36.456
-25.6
13.647
29.641
22.892
12.077
13.073
9.12
-6.0667
-20.42
-40.973
-38.101
4.675
26.469
26.702
21.8
18.058
16.601
4.6028
-10.558
-26.987
-41.867
-14.224
19.766
21.573
16.181
12.762
11.9
5.7251
-9.6324
-20.532
-36.545
-33.553
6.29
27.819
25.88
17.411
15.034
12.284
-0.91574
-15.778
-29.991
-42.172
-14.691
18.845
22.591
12.205
6.4892
9.3638
2.98
-10.046
-23.382
-37.204
-17.292
20.005
26.144
13.945
6.8434
8.5644
3.711
-10.939
-24.069
-40.827
-34.777
5.9521
25.068
18.479
8.3141
10.545
9.5539
-2.4365
-15.927
-34.161
-37.676
0.79103
26.247
20.881
6.7847
6.8411
9.2941
-4.0565
-19.938
-41.534
-43.199
-1.1727
25.824
23.891
14.868
14.498
15.323
3.5116
-10.691
-29.601
-35.995
0.76264
28.717
28.103
20.897
15.196
14.408
3.2315
-15.768
-31.394
-48.578
-28.51
10.203
19.57
13.423
10.136
18.381
19.556
5.7611
-6.5723
-25.223
-31.731
9.9354
42.366
43.226
30.886
24.028
23.498
12.666
-10.154
-25.144
-45.099
-37.941
13.645
44.066
44.528
36.441
47.605
68.921
50.619
1.1541
-45.848
-99.158
-95.543
-27.193
6.5845
-3.1497
-5.0915
1.3277
-8.1544
-21.279
-31.98
-44.586
-20.24
20.759
28.257
22.32
18.949
16.068
7.7791
-5.3898
-18.493
-35.82
-30.131
10.935
31.543
25.138
16.456
15.867
13.945
3.0151
-12.646
-23.867
-40.039
-22.767
16.77
27.567
18.91
12.447
14.029
13.877
2.9727
-12.518
-22.105
-37.897
-24.839
13.859
26.055
15.21
4.7041
9.4354
10.15
-1.8661
-13.527
-30.923
-33.895
2.3449
23.028
17.101
7.6273
6.8632
9.5681
-1.0263
-15.581
-27.527
-46.561
-24.724
17.01
24.795
15.451
11.155
12.654
11.109
-2.7517
-18.528
-31.86
-46.696
-20.242
16.359
23.465
16.417
13.666
15.449
13.899
0.17383
-16.401
-29.264
-43.567
-18.086
18.206
29.076
22.568
21.636
23.6
20.246
8.7377
-9.8464
-22.716
-42.539
-33.399
9.1976
28.505
23.249
14.311
16.888
19.171
9.6937
-5.4848
-16.798
-35.712
-32.652
5.5971
27.929
20.195
10.665
13.909
14.311
2.3883
-11.876
-25.599
-43.227
-26.733
13.22
26.26
17.31
11.76
15.724
16.5
6.3602
-9.9143
-21.163
-37.506
-18.06
27.343
48.865
54.762
63.466
78.391
95.859
96.683
91.659
104.38
61.286
-12.266
-50.538
-90.953
-114.34
-98.623
-99.462
-98.729
-84.466
-83.027
-77.102
-71.27
-72.274
-36.989
17.497
39.25
33.578
35.926
51.032
55.924
39.212
12.936
-22.809
-71.039
-48.573
15.023
40.216
53.605
54.509
55.199
33.276
-13.734
-32.243
-36.471
-23.39
26.722
53.845
41.164
16.485
-19.884
-26.532
-24.756
-54.833
-81.748
-69.95
15.882
106
94.655
50.594
34.058
22.252
9.3699
-15.912
-25.394
-26.725
-30.098
4.1519
45.153
52.415
28.437
-37.219
-79.161
-66.3
-41.3
-62.815
-105.8
-93.566
-29.134
18.444
51.31
93.82
128.48
131.66
109.33
82.148
54.294
55.336
94.546
89.295
42.202
-3.8046
-33.278
-53.136
-83.072
-147.61
-187.96
-154.83
-78.883
-28.741
-1.6153
14.587
27.222
41.407
49.201
29.713
-30.192
-74.387
-48.613
-9.2901
0.0031955
-7.1095
-14.1
-5.6526
-7.1161
-18.3
-32.51
-53.46
-35.259
7.2776
20.222
9.9719
-3.4215
-11.894
-14.438
-3.8446
-2.2748
-14.056
7.8608
58.879
75.253
60.701
38.644
30.049
23.965
5.9676
-11.831
-34.239
-36.261
3.2212
24.854
16.329
3.4583
5.8764
6.4853
-3.7253
-21.112
-45.992
-41.133
1.0994
21.055
12.412
-2.7613
-0.6997
-0.85229
-12.744
-27.149
-50.218
-44.635
3.3837
30.482
25.037
10.389
11.717
14.001
0.74178
-18.28
-44.95
-48.727
2.4179
40.271
39.786
26.885
24.506
28.383
19.088
-3.5117
-23.1
-49.344
-35.293
20.629
44.943
31.791
23.701
29.959
31.157
17.95
-5.7513
-20.337
-46.688
-34.651
21.661
50.294
43.775
32.476
37.665
39.413
27.885
-2.9184
-25.924
-50.097
-71.52
-34.718
14.408
23.104
6.6632
-0.6898
7.1784
7.603
-10.3
-24.651
-39.097
-53.845
-13.693
32.329
37.661
23.667
18.788
23.65
20.643
5.9208
-15.907
-28.97
-51.506
-55.049
-6.4068
29.7
33.854
24.827
24.677
27.056
18.63
2.912
-17.435
-31.637
-51.835
-62.538
-18.783
25.567
32.329
24.75
25.026
32.489
27.808
11.814
-7.5942
-22.456
-39.199
-61.418
-35.586
17.109
35.135
31.034
25.424
31.228
34.934
20.195
2.8257
-14.797
-28.048
-45.905
-55.958
-8.4751
35.683
37.587
25.346
26.757
30.643
25.213
7.5561
-14.861
-28.515
-52.344
-45.001
7.4126
36.223
33.47
20.139
22.523
27.135
19.053
-0.24055
-22.977
-37.962
-60.221
-60.306
-5.0407
32.492
34.367
25.955
25.343
32.061
26.47
7.8252
-13.12
-28.352
-43.07
-62.446
-34.918
21.012
36.75
28.202
21.664
25.771
27.866
18.299
-2.0964
-20.309
-32.477
-52.751
-53.47
-5.1114
29.529
27.408
11.777
14.037
21.777
17.495
-1.4033
-21.462
-33.787
-55.895
-45.769
5.5572
33.002
25.352
12.267
18.845
23.069
13.399
-7.6751
-26.522
-41.825
-65.034
-48.634
6.1125
31.607
27.905
21.938
28.558
29.503
22.289
0.70486
-21.217
-34.327
-56.335
-43.981
10.042
36.057
33.737
24.588
31.598
34.411
25.116
7.4149
-12.624
-24.715
-43.966
-37.686
12.877
41.083
36.524
26.585
28.861
29.807
21.507
2.6868
-13.8
-27.384
-47.003
-38.584
5.276
25.58
18.051
13.966
21.437
22.864
10.411
-10.143
-21.578
-36.82
-44.847
-10.102
16.15
17.407
10.255
10.641
15.105
11.804
0.57541
-14.479
-23.629
-39.612
-37.553
-1.4722
22.555
23.619
18.306
18.146
17.224
11.116
0.90144
-12.916
-21.908
-36.866
-42.385
-9.5675
16.835
18.201
14.356
14.769
15.514
12.024
2.8391
-11.475
-20.657
-33.941
-46.294
-22.002
9.3435
16.015
11.627
10.762
14.284
13.719
5.4944
-10.226
-18.285
-32.69
-36.224
-4.9245
19.886
20.368
12.145
13.125
15.769
13.835
1.7616
-12.853
-22.629
-38.461
-27.179
9.1318
24.251
16.883
8.3203
13.079
16.159
6.6438
-8.9889
-17.522
-34.67
-35.152
1.8508
24.091
17.705
7.8725
9.0963
12.423
7.3022
-9.05
-21.591
-41.232
-37.54
1.8399
23.722
19.866
10.402
11.113
12.043
7.2931
-10.718
-24.315
-43.071
-53.673
-15.43
22.42
32.795
28.49
33.43
46.392
52.173
51.59
30.257
9.8014
-57.558
-124.21
-84.248
-3.171
100.13
59.468
-62.827
-83.839
-90.421
-109.93
-114.2
-84.072
-82.056
-40.05
26.389
74.5
109.97
84.549
58.848
73.732
67.003
35.353
35.007
21.561
0.6445
32.631
62.097
54.715
29.23
9.2018
4.213
-5.8451
-18.279
-37.662
-69.46
-47.09
15.167
61.127
51.047
-26.575
-55.191
-28.861
-23.443
-31.209
-41.631
-60.777
-16.179
28.522
20.47
-3.5568
-4.4599
38.939
59.605
30.924
8.7556
-9.1487
-30.615
-2.8582
38.782
52.509
39.254
32.667
34.306
23.082
0.90423
-24.075
-37.282
-59.62
-55.333
-3.2637
28.717
27.041
17.675
20.525
22.851
13.357
-0.65615
-8.5806
-28.954
-45.063
-15.274
21.085
39.231
35.347
30.55
26.66
18.893
14.953
0.87783
-17.123
-37.017
-65.731
-52.428
-9.9743
9.6699
8.9076
17.652
42.897
44.545
34.784
34.355
34.031
25.236
28.11
22.164
52.831
115.98
159.73
157.74
24.514
-120.94
-192.84
-218.96
-121.14
-34.159
-28.434
-10.31
-14.522
3.6814
67.724
60.464
10.318
-17.922
-39.285
-32.819
6.7176
12.001
-43.828
-117.06
-120.5
-95.074
-47.921
14.572
71.237
121.62
132.54
100.7
56.017
60.18
36.455
-33.314
-59.728
-79.487
-124.74
-90.545
-21.734
3.3465
-15.162
-48.143
-47.677
-6.5408
4.5739
-26.718
-35.83
-43.589
-31.603
42.491
103.43
120.06
78.974
92.369
113.78
32.722
-42.045
-144.78
-202.67
-175.8
-92.823
-2.6973
61.308
80.212
73.407
96.713
108.57
101.27
13.638
-77.767
-61.404
-30.538
11.359
59.364
94.187
65.351
28.443
20.822
-45.366
-134.8
-108.32
-44.268
-61.626
-99.904
-56.397
-3.2076
-2.9393
22.572
45.997
34.174
11.912
-10.615
-27.668
-17.127
-28.182
-3.7772
80.345
131.66
136.07
131.34
157.94
187.12
139.08
1.1619
-120.68
-203.23
-215.96
-118.73
-64.643
-118.29
-143.41
-56.781
25.64
75.446
70.861
17.756
-29.66
-64.6
-20.455
67.566
124.34
52.317
-127.12
-171.5
-81.638
-30.302
-45.418
-44.116
-49.829
-74.225
-12.094
98.927
130
116.51
113.52
117.91
105.17
58.18
-10.516
-38.451
-63.819
-99.481
-80.587
9.043
102.01
85.424
62.211
78.614
69.774
44.807
22.111
-7.6564
-37.728
-70.474
-50.39
-6.6476
-15.718
-27.301
4.4438
43.362
32.29
9.0692
1.0064
-6.5777
-38.992
-76.632
-29.949
18.154
21.422
13.345
11.117
12.719
5.634
-7.1566
-17.654
-11.67
-19.389
-43.583
-14.971
35.54
42.019
35.624
37.193
47.53
38.639
12.622
-9.9607
-27.438
-43.634
-58.687
-39.633
42.073
85.353
75.994
59.804
55.754
59.042
50.992
34.997
32.699
27.876
38.234
27.858
-22.999
-54.763
-77.733
-56.679
-28.492
-12.373
-0.45492
13.02
26.04
-117.48
-290.45
-255.46
-159.11
-66.897
0.53928
38.629
30.921
82.199
106.61
113.75
82.498
26.406
4.9667
8.819
36.013
64.526
53.432
54.295
85.453
89.06
88.328
85.706
37.737
20.933
8.5911
-3.934
-48.158
-96.01
49.974
99.912
-38.586
-40.812
8.0026
-33.602
-58.349
-77.409
-119.29
-173.4
-225.89
-88.107
69.204
44.016
20.098
35.769
-37.622
-132.47
-32.616
38.268
-1.1924
-18.746
-30.469
-8.864
46.103
59.894
51.337
29.879
-46.25
-101.46
-83.925
-52.713
-47.07
-66.777
-70.491
-18.23
33.149
39.892
34.975
42.454
60.516
54.377
28.055
-2.8639
-26.509
-57.036
-45.781
33.569
97.232
99.56
135.22
196.91
177.53
141.81
103.41
38.226
-29.357
-32.547
28.521
32.255
-30.632
-163.61
-216.43
-144.01
-66.617
-29.643
12.75
57.131
78.222
95.641
113.04
105.93
125.1
131.36
102.71
77.543
57.199
7.3415
-38.94
-61.481
-75.716
-91.551
-89.668
-56.329
-72.702
-88.808
-77.176
-83.517
-121.35
-122.99
-103.69
-62.369
-80.462
-129.52
-106.93
-115.6
-126.61
-52.886
-13.085
-4.0859
21.771
20.224
-0.48244
-10.828
-35.909
-48.693
-0.88523
51.703
76.448
78.722
89.825
107.38
110.74
101.56
70.962
37.172
-3.5516
-48.316
-33.226
41.179
77.23
77.294
89.964
74.145
15.191
-4.4092
7.4149
26.382
31.432
56.169
-37.609
-214.21
-180.32
-50.763
-8.4627
1.9579
36.487
66.534
74.867
79.395
78.438
87.972
97.978
91.594
150.06
156.07
111.43
38.545
-63.763
-126.55
-179.78
-215.72
-170.42
-156.67
-222.02
-152.78
54.209
147.98
147.89
148.65
87.731
65.514
53.632
12.52
-42.237
-52.378
-23.587
-48.548
2.637
46.761
8.8616
-24.17
-14.288
31.86
17.803
-54.575
-90.036
-80.979
-81.734
-106.97
-112.27
-57.327
10.616
66.431
70.873
63.788
68.739
42.695
2.9138
-22.592
-32.991
-55.888
-41.847
45.982
97.591
73.256
48.258
42.3
22.06
-15.423
-46.954
-42.519
-50.438
-54.511
-14.214
19.252
29.689
26.217
35.117
44.947
42.543
19.042
2.0922
-11.594
-25.254
18.307
68.936
66.206
35.291
15.246
2.2128
-9.6413
-24.013
-39.13
-38.464
-55.868
-51.958
10.884
56.792
78.963
85.921
49.192
18.782
10.178
-15.955
-46.112
-59.156
-75.581
-62.373
-9.2461
19.004
18.594
15.373
23.641
30.823
22.633
1.4649
-21.581
-56.244
-65.472
-23.58
14.417
32.253
31.931
34.182
63.333
79.958
66.244
50.842
12.283
-28.243
-6.5566
18.208
-16.968
-68.032
-89.933
-73.992
-16.805
12.368
-0.88002
1.924
-12.803
-4.5996
45.966
71.554
67.877
24.241
-3.1638
0.47264
-18.187
-32.766
-30.625
-31.473
-53.323
-39.573
-0.10468
19.924
3.7939
-4.6068
-1.9468
5.41
-5.5206
-26.8
-29.519
-32.431
20.597
92.282
83.822
64.931
57.59
63.024
86.766
16.887
-183.29
-283.06
-204.2
-58.173
20.057
28.076
3.2483
1.8031
12.517
13.092
4.8771
-11.072
-28.174
-50.207
-17.894
43.32
61.415
60.324
64.521
65.05
70.947
21.976
-55.606
-74.187
-115.8
-100.29
-9.6388
34.562
38.376
37.435
39.688
39.769
28.477
7.6472
-19.865
-45.376
-66.084
-34.254
26.125
41.848
21.899
17.426
25.644
14.78
-7.0056
-33.847
-65.203
-69.139
-16.032
28.257
39.885
28.079
26.874
26.773
20.978
9.9453
-3.744
-16.765
-42.01
-36.438
12.155
37.531
33.985
26.961
31.453
32.953
22.178
2.458
-12.175
-23.529
-43.58
-34.867
7.5236
24.435
18.626
12.979
17.632
17.573
5.6267
-6.584
-19.46
-27.915
-41.978
-38.703
7.0818
39.078
36.938
31.855
35.324
43.278
42.071
39.134
40.36
50.072
68.593
77.212
117.2
190.78
148.5
-29.377
-174.4
-181.56
-138.9
-116.83
-106.19
-78.697
-42.575
-5.1789
32.904
55.357
52.371
54.571
68.179
73.747
72.223
53.933
21.309
-8.2094
-9.7082
2.0062
-46.808
-83.831
-105.03
-107.49
-50.781
-21.752
23.691
88.204
133.27
105.54
7.2331
2.2867
67.194
63.293
-6.6084
-104.44
-228.98
-299.49
-272.99
-203.71
-154.08
-93.621
-75.599
-60.007
6.6263
60.173
59.432
59.911
71.261
69.904
50.14
36.632
15.576
-32.985
-32.206
20.895
44.78
33.652
29.145
39.908
45.752
29.05
7.3557
-10.771
-39.484
-17.653
39.751
53.571
32.136
21.755
32.774
37.542
20.27
-9.2091
-31.101
-57.921
-26.037
47.086
76.475
65.236
60.335
81.948
101.49
92.735
89.2
77.027
12.75
38.74
150.11
110.48
-116.84
-228.79
-116.14
-75.357
-113.77
-59.683
-2.6939
-56.362
-14.986
-24.353
12.763
59.807
23.132
-18.233
24.095
70.387
38.31
8.7213
43.695
59.657
11.447
-20.114
-100.71
-153.5
-87.408
-29.043
-4.0303
7.8602
14.151
10.116
-3.5666
-8.0394
23.219
86.312
132.51
88.525
65.807
138.44
196.96
126.74
-27.006
-190.12
-296.86
-281.66
-203.21
-108.13
20.333
32.721
-54.462
-15.511
27.519
16.061
-12.797
-25.227
-58.623
-48.627
-4.7429
16.459
43.615
54.765
93.266
98.447
36.758
-2.8837
-32.07
-59.375
-109.07
-140.41
-97.778
-3.8037
37.158
45.223
67.578
57.845
28.823
3.6253
-17.296
-57.288
-87.712
-24.667
64.004
102.02
111.06
110.37
103.69
83.329
62.308
54.357
42.738
5.4942
-67.208
-79.565
-45.657
-30.504
1.5757
82.821
205.42
252.33
213.57
119.12
71.422
23.526
-83.392
-117.26
-89.394
-101.96
-113.91
-97.85
-67.993
-44.452
-56.643
-67.69
-56.937
-20.203
-3.609
9.9002
47.862
58.2
43.201
42.056
33.24
15.689
-30.041
-111.69
-138.8
-167.53
-205.74
-184.11
-142.1
-105.9
-22.34
92.232
177.35
187.37
120.62
77.462
74.617
8.2375
-10.574
70.203
96.559
83.472
124.36
211.25
230.87
110.61
-57.259
-262.03
-372.92
-317.76
-191.02
-4.5623
53.969
51.098
47.289
54.672
141.6
202.31
118.08
38.818
-22.232
-81.779
-64.004
-29.122
-22.164
-23.453
-18.086
-2.4909
-6.4203
-24.929
-35.614
-46.248
-63.288
-47.646
-13.038
1.4944
11.513
36.621
59.479
51.759
31.827
10.378
-19.502
-55.742
-60.019
-13.642
25.913
31.844
44.425
75.305
80.632
52.761
35.311
39.049
46.379
54.898
20.375
-9.6882
40.41
52.81
28.896
-6.5122
-75.696
-76.249
-45.538
-40.44
-72.1
-93.776
-83.464
-40.425
-11.443
-4.6081
14.853
34.727
66.98
84.118
61.192
36.045
-17.499
-120.14
-160.25
-104.82
-0.27881
54.424
81.687
128.16
164.13
192.19
139.97
-38.575
-179.84
-191.2
-77.049
-24.283
-35.49
-21.694
-26.144
-82.327
-67.602
-13.98
-9.0017
-15.494
19.66
72.197
93.625
93.845
86.972
43.711
49.1
101
54.251
-2.3549
72.104
99.01
16.386
-114.07
-219.88
-207.03
-159.82
-163.81
-95.17
-10.94
-124.41
-186.58
-68.632
43.852
81.033
111.82
132.87
151
146.53
120.12
95.827
57.387
-8.7167
-145.42
-260.33
-201.27
-43.228
38.075
24.09
14.483
-4.3233
5.4327
2.7741
-5.9897
-10.549
-28.042
-42.396
9.3734
51.837
69.789
78.079
70.009
66.434
60.441
41.592
33.161
26.319
8.9473
-0.68887
-2.6462
50.589
99.764
81.067
58.088
26.399
-9.8934
25.829
48.639
3.1587
-23.581
-115.72
-182.17
-116.9
-17.38
12.867
-2.1714
-23.095
-34.417
-14.488
-12.472
-12.699
-11.767
-31.455
-14.189
6.6404
-14.52
-18.051
-26.704
-12.867
49.653
77.529
71.348
44.91
27.639
35.528
-10.71
-133.03
-142.42
-81.066
-26.758
3.9991
2.7597
-8.0385
-2.2309
18.049
36.928
36.738
16.019
-4.8649
-19.004
-30.637
-50.689
-22.545
35.531
52.837
39.358
26.977
34.22
39.587
29.354
3.0031
-19.68
-33.099
-58.174
-41.488
21.185
47.136
36.321
21.352
28.555
37.968
30.597
3.2776
-20.556
-44.726
-66.415
-27.7
30.894
48.504
34.121
26.167
33.424
35.331
19.37
-8.3782
-27.813
-57.414
-66.378
-8.2152
41.484
47.089
32.839
29.916
35.049
27.929
4.899
-24.787
-41.655
-66.319
-65.141
-4.5789
38.171
40.254
26.813
26.154
31.004
24.311
2.6481
-21.255
-32.052
-55.03
-43.166
18.15
47.573
40.968
27.894
31.663
35.547
24.833
0.50622
-19.583
-34.666
-58.909
-42.206
12.673
34.304
22.921
14.173
20.332
24.463
14.981
-8.3003
-23.144
-42.097
-44.157
1.9259
37.3
34.43
18.658
21.6
24.945
16.387
-5.4573
-25.204
-40.305
-63.03
-37.706
16.479
34.712
29.732
22.506
26.799
24.755
11.879
-8.8879
-28.018
-43.485
-65.715
-42.264
8.2307
21.633
16.808
4.6871
0.17028
-2.0445
-4.8612
-4.2714
-6.1711
-1.2983
-15.27
1.4021
76.96
94.64
90.444
80.972
63.892
53.085
29.796
2.5646
-32.714
-94.761
-133.76
-110.29
-40.09
13.615
41.408
41.433
31.945
23.859
16.448
-9.8827
-28.014
-39.335
-51.483
-23.716
20.024
41.548
51.409
40.627
23.837
46.711
65.129
57.838
0.24915
-79.628
-75.799
-64.415
-52.991
-35.377
-28.399
3.1537
18.956
46.887
68.714
46.922
36.86
41.845
41.698
29.107
-0.19383
-13.618
-36.466
-75.959
-116.57
-179.26
-194.33
-153.96
-63.945
15.295
29.565
5.3545
-14.613
-22.157
-65.176
-51.494
55.488
60.996
29.546
31.837
34.985
15.827
-22.808
-26.315
13.162
24.488
17.019
5.4615
-32.438
-20.482
30.989
51.778
40.387
22.363
18.96
26.896
-4.094
-69.745
-63.766
-42.231
-66.901
-65.019
-23.871
-7.0947
-3.2092
12.052
18.61
2.8389
-19.07
-34.812
-53.129
-13.783
66.116
84.922
44.82
29.228
36.078
29.484
8.5189
-12.5
-35.117
-62.427
-26.005
41.454
63.479
50.294
42.19
49.213
48.97
32.499
4.1635
-17.417
-44.298
-32.02
27.223
54.741
47.557
38.883
45.393
46.229
34.721
11.178
-2.6941
-20.758
-40.001
-5.4228
42.148
53.561
41.776
44.105
59.859
51.647
39.915
-5.1899
-27.141
14.96
55.144
53.256
54.233
40.074
15.626
30.989
0.26992
-52.257
-73.498
-95.89
-144.37
-161.72
-119.62
-80.672
-4.1333
60.036
49.917
17.182
6.3624
8.109
-16.738
-31.838
12.284
32.054
34.445
49.873
25.411
-29.547
-26.526
-13.804
-34.908
-1.902
28.825
-28.004
-64.283
-76.244
-54.561
8.0935
28.872
88.221
130.13
64.638
6.3621
-32.847
-88.987
-47.312
-32.541
-100.22
-69.258
45.494
71.286
48.96
43.603
9.9747
28.367
44.912
-19.306
-94.529
-158.25
-61.088
84.275
2.5815
-77.888
-40.408
-15.867
11.447
58.977
13.489
-38.237
-64.681
-99.089
-121.1
-63.62
-9.4446
0.17368
1.1178
10.417
26.198
34.482
21.715
-6.0765
-21.351
-45.58
-41.436
15.368
57.173
68.826
60.028
60.001
71.424
72.544
42.981
20.437
-5.9586
-57.734
-13.037
70.788
77.539
103.8
188.99
190.65
144.49
115.31
-16.245
-218.99
-175.23
12.269
29.878
-12.71
43.448
93.358
61.726
5.7448
-2.5241
4.1346
1.0799
-33.091
1.5347
30.493
25.294
14.905
-5.628
-26.023
-33.086
-43.826
-72.572
-82.551
-95.023
-78.318
-9.198
60.565
73.127
48.291
21.234
-18.724
-60.251
-95.554
-121.16
-134.18
-168.09
-159.75
-95.109
-52.039
15
77.917
72.84
26.018
-13.811
-44.765
-116.43
-168.42
-142.67
-44.233
82.314
120.81
94.117
83.923
84.356
96.626
84.359
-12.299
-73.261
-89.744
-56.553
28.797
34.137
-0.91008
-0.14216
25.778
30.36
17.993
-9.9179
-28.507
-37.976
-58.041
-63.844
-3.1589
68.399
86.592
75.755
62.291
67.957
107.07
108.08
59.773
14.663
-6.5217
-29.085
-11.412
28.947
12.498
-20.658
-21.678
23.81
58.982
41.225
-1.9744
-29.669
-45.156
-56.245
-71.802
-29.618
38.123
61.481
58.854
51.89
51.609
38.151
14.335
-14.476
-46.14
-50.541
-59.584
-64.157
-19.838
33.091
48.508
30.292
23.948
39.789
49.245
29.253
59.357
110.98
24.24
-37.543
27.981
64.547
43.999
1.5567
-33.361
-53.99
-32.871
-65.245
-74.199
8.9641
37.812
73.594
131.41
83.568
-41.197
-173.55
-307.61
-342.36
-165.57
40.286
86.884
35.14
-28.089
-21.988
16.699
34.052
29.561
22.441
25.729
33.192
20.562
-5.3877
-22.507
-46.224
-62.665
-27.658
21.595
30.523
18.873
34.322
56.812
96.348
110.72
89.277
-7.067
-189.73
-124.57
62.025
81.274
20.999
-8.324
-12.288
-4.7226
-11.739
-36.444
-41.333
-51.904
-68.022
-27.489
75.769
121.15
77.197
31.015
19.709
13.131
-28.514
-58.262
-32.358
-39.862
-23.62
49.923
37.327
-25.439
-1.2838
46.163
61.721
6.8188
-90.314
-38.609
52.895
21.879
4.1754
-7.982
-46.725
-14.105
62.169
65.098
65.417
50.338
2.5271
-52.574
-118.69
-146.19
-59.704
38.334
63.278
30.519
-7.4226
-16.792
-23.415
-38.41
-56.839
-76.193
-50.112
11.421
32.869
31.064
30.953
37.39
35.795
12.466
-14.01
-29.865
-49.864
-35.228
20.874
47.419
47.2
48.477
41.283
31.761
23.697
-8.3165
-28.866
-45.008
-46.622
1.897
39.301
49.99
49.528
49.466
51.325
43.496
23.642
-1.4576
-20.473
-46.32
-58.059
-17.709
17.972
21.115
13.255
16.408
22.224
19.313
3.3627
-14.287
-24.577
-40.397
-19.108
25.899
44.378
22.522
-4.5692
3.5014
8.2409
-6.0674
-22.537
-36.053
-59.131
-60.6
-11.463
29.047
42.471
58.354
29.919
11.881
29.599
22.016
10.117
3.273
-26.684
-24.332
35.333
65.197
80.404
65.641
63.465
50.423
0.42491
36.032
67.442
66.251
34.388
-12.186
-26.162
-37.342
-91.221
-156.44
-167.34
-215.87
-223.25
-120.51
-78.51
-65.453
-63.019
-60.907
10.62
70.786
45.88
60.458
98.526
96.006
87.078
40.063
-83.323
-118.56
-89.98
-28.882
4.7244
-13.264
55.99
87.557
29.847
2.54
-12.95
-44.043
-63.759
-97.19
-65.909
14.163
45.872
53.683
45.426
55.37
60.565
44.518
18.141
-4.9616
-35.464
-69.746
-36.188
31.745
59.147
23.931
-4.8492
9.7928
11.235
48.278
53.519
-6.9096
-59.394
-87.862
-47.534
15.83
47.005
35.793
40.224
46.899
35.819
4.3471
0.079281
15.301
5.5743
11.009
24.521
25.747
18.063
22.236
35.658
43.993
34.632
17.992
17.999
16.147
14.645
18.069
-6.3476
-47.149
-52.03
30.762
113.05
98.285
34.943
-27.361
-57.159
-65.811
-64.052
-27.797
42.169
61.24
18.931
34.189
54.35
11.224
-37.727
-45.762
-52.379
-62.304
-53.738
-9.7811
12.809
10.711
11.021
18.121
16.99
4.8442
-5.6953
-24.7
-21.327
7.9098
9.1559
31.666
77.19
48.102
-27.188
-45.938
-46.687
-54.013
-52.892
-24.228
10.934
3.7636
-26.662
-35.218
-24.378
-15.415
-2.9577
10.66
12.068
13.962
-0.83843
-44.991
-69.146
-37.901
-18.931
-12.496
9.7961
43.952
63.733
64.677
73.919
43.623
90.575
79.869
-52.888
-77.608
-109.34
-93.037
-117.23
-160.85
-99.246
2.7456
1.5384
-5.6802
-3.399
-23.148
-38.525
-51.157
-7.5481
38.635
50.932
37.639
37.48
46.721
44.398
29.009
0.15194
-17.986
-41.631
-58.061
-13.052
38.106
48.411
34.344
37.804
44.588
41.012
14.891
-13.229
-33.074
-56.79
-25.353
32.707
53.407
43.763
34.517
38.875
36.041
16.775
-12.301
-27.705
-55.238
-58.938
2.946
48.769
55.561
48.601
44.08
45.126
34.953
9.7881
-6.7275
-25.672
-35.363
17.372
70.387
63.251
21.834
-1.7838
1.1189
-1.6788
-23.194
-40.933
-61.112
-52.677
1.4418
34.733
38.718
31.455
29.617
28.327
17.484
-5.7376
-20.311
-36.097
-25.016
27.44
53.761
40.057
14.203
2.3627
2.6718
-0.097954
-17.12
-31.469
-55.385
-62.269
-21.404
-10.634
-20.642
6.1538
30.357
48.649
43.885
35.8
20.826
-82.383
-172.16
-158.55
-70.729
13.489
21.236
-7.2136
-32.328
-29.795
-28.585
-17.322
-21.977
22.824
111.79
142.79
126.18
65.949
39.234
55.679
-13.653
-89.859
-69.501
-19.059
9.49
117.76
206.01
162.41
70.555
47.579
53.2
-9.0579
-103.75
-171.41
-207
-221.03
-249.86
-289.31
-252.65
-155.12
1.669
139.65
218.22
218.13
164.7
80.352
-30.229
-122.01
-165.44
-153.73
-79.508
-39.213
9.1878
83.44
88.153
74.314
82.278
47.025
14.297
-10.437
-24.599
-2.546
43.649
85.917
63.731
52.218
40.822
32.431
125.37
167.27
140.42
106.99
7.0115
-73.506
-76.452
-65.984
-78.632
-50.396
14.197
-22.238
-120.26
-179.99
-150.41
-106.44
-43.717
-17.703
-34.046
35.473
88.35
85.572
100.23
100.39
50.652
6.164
-21.402
-60.661
-56.409
20.629
32.824
22.914
32.882
13.594
19.409
22.818
-12.986
-7.0303
-8.1095
-102.08
-94.213
-14.095
1.6651
0.56744
21.456
44.15
33.694
4.3494
-22.18
-49.054
-90.268
-61.374
8.5002
38.044
24.623
11.316
26.079
35.631
21.608
-11.123
-40.68
-83.683
-65.349
22.259
75.142
74.938
58.738
67.309
73.375
62.296
27.195
-5.3834
-49.097
-71.964
39.532
137.48
133.39
89.277
29.768
6.49
52.781
75.859
26.545
2.6087
-34.565
-67.975
-100.83
-103.9
-78.567
-110.43
-74.549
-7.0982
15.387
-10.657
-19.341
-48.425
-37.269
45.738
91.817
57.691
14.919
25.507
102.16
126.79
106.63
61.991
-56.156
-81.322
-77.39
-67.666
9.9717
9.5503
1.55
-23.338
-50.486
-78.374
-120.01
-135.37
-65.194
-3.7484
21.843
55.816
8.7559
-37.165
-8.8046
14.427
15.062
-46.876
-105.11
-128.12
-62.263
16.412
53.192
42.324
36.135
44.198
38.937
7.3435
-28.638
-52
-87.638
-63.254
13.092
59.098
61.118
44.272
48.09
52.938
25.185
-6.6357
-35.757
-67.529
-20.045
53.433
68.702
57.31
54.283
57.071
50.114
19.079
-18.061
-42.488
-78.845
-43.597
36.324
65.295
62.799
56.234
54.069
44.989
25.432
-8.2527
-31.751
-65.384
-80.137
-17.71
43.7
61.111
56.284
53.106
55.431
45.621
24.62
-10.331
-37.072
-57.605
-77.315
-41.702
19.793
42.043
43.11
37.497
37.758
37.811
23.345
1.2719
-17.033
-35.128
-60.795
-55.59
4.2011
36.44
29.367
16.127
19.418
25.245
14.331
-8.2668
-26.42
-37.297
-64.271
-49.126
5.4621
27.022
14.758
5.3254
10.104
8.3706
-5.2906
-29.626
-43.119
-64.489
-67.31
-16.335
22.963
29.367
25.582
27.14
37.213
41.171
24.802
7.8628
-4.6643
-33.199
-32.231
-6.2148
19.783
21.262
-12.438
7.5723
67.511
51.25
-14.14
-68.421
-93.8
-93.693
-75.27
-17.736
15.043
-11.694
27.673
110.13
60.756
-42.422
-73.167
-54.975
-14.745
11.015
63.578
126.22
146.28
83.033
9.243
-35.555
-107.04
-176.48
-206.93
-166.68
-67.877
-10.178
7.6852
29.394
31.962
37.56
44.097
25.735
-9.2958
-37.338
-92.32
-82.43
-5.3803
13.996
9.6967
-5.2605
-0.11741
24.894
36.62
43.065
25.876
-10.251
26.21
80.946
78.042
65.056
55.183
49.534
16.591
-57.772
-116.75
-168.66
-115.42
54.607
99.276
49.59
42.268
57.661
60.588
37.9
-16.718
-90.487
-106.9
-5.3376
84.264
63.937
15.299
-16.508
-50.023
-80.636
-90.803
-95.773
-43.488
43.207
83.872
79.589
69.985
78.287
70.984
35.283
-4.5816
-48.764
-48.263
4.7515
35.939
45.107
38.265
28.571
27.705
14.49
-7.0489
-32.54
-47.713
-5.0949
41.759
53.191
46.652
33.622
29.419
13.771
-10.559
-38.647
-61.969
-31.881
23.913
43.575
37.719
27.762
26.013
23.262
5.3708
-15.285
-35.657
-49.265
-17.56
15.832
18.375
8.8591
7.6082
11.859
5.3934
-13.169
-31.768
-51.921
-48.455
-6.2057
18.639
19.791
12.473
12.104
11.917
2.5168
-15.468
-33.977
-55.86
-39.298
5.2524
22.14
17.726
8.229
7.6953
8.767
-3.3458
-19.061
-36.09
-49.743
-20.458
16.002
22.102
11.74
6.0085
12.222
6.3382
-13.249
-32.666
-54.447
-50.165
-8.8421
8.4709
-1.9028
-18.237
-20.05
-15.089
-24.574
-38.624
-44.833
-37.482
11.741
57.739
68.411
63.209
71.538
89.77
86.214
62.39
41.437
27.746
55.369
94.67
94.217
64.695
36.756
34.5
22.282
-32.88
-102.33
-162.81
-152.61
-98.591
-69.08
-70.885
-66.294
-51.01
-64.061
-66.572
-49.532
-29.118
31.576
95.226
89.35
29.665
-91.492
-219.09
-171.92
-31.171
24.234
7.5634
-1.7133
22.887
2.3166
-41.544
11.082
106.8
158.27
124.91
57.304
92.219
170.99
144.88
69.126
-8.7043
-108.81
-166.53
-199.72
-156.37
-16.468
38.687
2.8272
-4.5995
18.313
32.515
35.963
24.324
2.6388
-9.9469
15.815
47.054
47.218
34.767
28.268
28.745
19.798
3.7279
-11.784
-21.683
-3.35
19.248
21.19
11.122
12.296
16.788
9.7153
4.6935
-7.6941
-16.983
-2.5668
1.9485
-6.7024
-18.948
-21.541
-19.074
-21.772
-26.222
-36.706
-45.299
-21.417
23.563
76.721
121.24
112.28
86.324
42.69
-27.112
-79.275
-120.91
-131.34
-137.1
-153.42
-95.818
4.358
55.393
69.525
57.006
27.2
3.1181
-18.273
-9.5767
14.063
25.04
24.447
21.134
23.163
20.25
7.3363
-6.0288
-22.759
-20.275
6.3484
23.178
24.967
19.392
18.305
19.624
8.9532
-6.4535
-16.439
-29.822
-20.556
8.4676
18.604
15.687
11.937
12.961
13.216
2.3887
-10.064
-20.033
-32.326
-16.457
11.64
18.95
13.045
9.9047
13.344
8.903
-3.5555
-15.214
-29.075
-28.315
1.2369
18.342
17.74
13.505
13.421
15.611
11.156
-2.9596
-15.991
-33.271
-33.486
-3.229
17.647
17.379
10.753
11.897
14.151
10.904
-2.7625
-13.22
-30.744
-33.579
-2.5478
18.831
19.842
18.212
18.38
18.905
15.245
0.0050019
-11.66
-25.812
-31.855
-1.61
19.973
21.144
15.423
13.38
13.238
12.31
1.1471
-10.503
-21.447
-31.861
-9.6376
17.44
21.657
13.767
9.8989
12.058
10.105
-2.5177
-13.006
-24.421
-28.443
-1.266
17.786
14.8
6.6055
4.4449
6.7467
1.3292
-10.484
-20.255
-33.631
-22.261
9.0875
17.906
11.248
5.0899
6.4437
5.895
-5.1005
-16.08
-30.252
-39.95
-13.099
13.195
15.543
9.5253
6.1731
6.1971
1.1373
-11.882
-25.924
-44.731
-41.812
-3.5684
19.468
20.924
15.09
13.241
13.762
5.4712
-11.119
-27.43
-46.991
-28.598
13.231
27.142
21.515
14.638
17.34
16.021
0.74579
-16.861
-38.758
-32.865
13.137
35.308
29.773
18.174
17.883
18.642
3.5274
-12.116
-32.061
-45.136
-4.8708
34.81
36.904
23.347
18.189
21.681
14.27
-2.0137
-17.306
-38.977
-30.851
15.869
35.034
24.338
11.934
15.617
14.91
1.7658
-13.324
-34.712
-31.437
12.625
33.427
25.582
12.949
12.986
14.902
-0.72098
-17.413
-35.248
-45.272
-7.0001
26.708
29.321
22.645
18.274
18.441
10.995
-8.1066
-21.493
-39.731
-37.926
2.2389
25.101
26.647
20.398
20.755
20.193
12.09
-5.2428
-17.36
-31.258
-45.786
-21.679
12.51
23.456
20.882
18.031
19.157
15.387
6.1897
-7.8122
-18.65
-31.033
-42.587
-19.833
12.697
20.27
18.174
15.437
18.993
17.736
7.4109
-4.8032
-16.427
-23.861
-37.974
-39.948
-4.8759
17.568
16.467
11.25
13.214
13.403
7.1772
-6.8024
-16.852
-30.833
-38.872
-10.445
15.492
19.334
12.052
9.1737
10.293
8.8529
-7.1028
-21.563
-32.743
-48.882
-23.383
12.04
20.972
19.213
16.885
17.882
13.91
3.9039
-11.416
-23.123
-41.347
-45.055
-9.2084
20.004
27.891
24.016
23.136
24.239
18.474
4.5166
-12.172
-23.998
-41.204
-42.842
-4.5118
23.802
29.328
26.515
26.524
26.864
20.403
8.7481
-7.1762
-19.498
-35.468
-36.321
0.4931
26.232
25.883
16.424
14.963
18.461
14.342
0.40257
-10.473
-24.446
-32.162
-4.3599
21.494
22.48
11.831
11.349
10.763
6.0499
-5.6747
-16.151
-30.367
-34.725
-5.0187
17.861
18.037
11.348
9.1361
8.4045
6.569
-5.784
-16.492
-23.847
-36.958
-18.073
8.8819
15.687
14.859
12.515
11.215
9.3547
3.084
-9.0713
-16.966
-28.935
-36.652
-10.772
12.465
13.793
12.16
11.548
13.363
12.16
4.7904
-6.6612
-17.977
-25.299
-37.102
-27.934
4.0738
16.771
15.631
12.712
11.825
13.499
9.3766
0.37968
-10.732
-18.768
-30.724
-40.342
-15.282
10.75
16.32
11.706
10.349
14.599
12.872
2.6806
-10.643
-17.668
-32.442
-37.268
-6.7173
17.314
21.047
16.143
14.643
17.017
13.214
0.28174
-13.79
-24.671
-43.757
-46.989
-7.0424
21.331
26.06
25.039
24.919
27.869
24.375
12.895
-5.9226
-20.362
-38.304
-52.561
-23.192
14.215
26.335
26.834
24.663
27.023
27.551
18.429
4.5346
-10.182
-27.096
-47.608
-53.83
-11.823
26.568
36.496
33.179
29.943
31.887
28.176
13.426
-3.542
-13.249
-27.457
-40.241
-13.499
18.173
24.173
17.723
14.644
17.433
16.958
4.7038
-11.464
-22.564
-40.985
-37.144
1.1118
22.233
22.489
17.887
17.783
18.74
15.057
2.1808
-12.737
-24.074
-41.554
-39.863
-2.5841
21.614
23.488
18.129
19.41
21.698
16.935
3.5896
-9.0746
-17.797
-31.633
-40.993
-13.553
16.55
22.038
19.93
17.38
21.218
19.73
7.7174
-4.1572
-15.597
-22.703
-32.54
-37.078
-6.9061
18.574
22.56
16.802
13.908
17.622
13.494
5.5774
-3.416
-10.024
-20.343
-31.485
-13.839
10.79
13.834
7.7766
7.174
9.8714
6.6696
-2.8947
-13.719
-21.335
-33.916
-26.481
1.3484
12.662
12.613
8.8279
7.4108
7.3182
3.6736
-10.111
-18.586
-30.33
-37.241
-8.8842
13.448
16.519
14.055
11.281
11.583
9.6471
-2.2699
-14.244
-23.311
-35.673
-17.76
11.156
18.824
15.245
12.945
11.904
8.8917
-0.64162
-14.627
-25.915
-37.567
-20.493
10.84
20.753
17.078
13.445
11.956
10.059
-0.37295
-11.254
-21.338
-33.875
-12.212
19.258
25.94
20.452
16.613
19.343
17.119
7.4954
-7.4712
-17.189
-34.381
-33.071
-0.0054224
20.588
19.473
11.208
14.88
18.227
12.947
-0.28791
-13.375
-26.612
-37.175
-14.961
15.139
20.294
11.403
9.2622
11.974
11.196
-3.3696
-16.817
-29.213
-40.779
-12.936
18.483
24.052
17.938
15.343
16.011
13.206
1.1777
-14.254
-27.058
-45.913
-24.963
12.95
25.036
23.773
20.126
22.697
21.256
12.32
-4.1143
-15.385
-30.36
-43.522
-15.628
17.806
27.878
25.755
22.04
25.051
22.563
13.138
-2.1495
-15.222
-23.424
-39.227
-29.951
8.2674
23.689
22.515
19.048
19.881
21.488
14.704
1.5639
-10.128
-17.865
-30.353
-36.326
-8.6594
16.983
19.141
12.997
11.306
14.372
12.685
-0.025603
-11.87
-21.868
-37.209
-24.674
6.521
18.452
16.769
11.978
14.506
15.177
8.6244
-2.6307
-15.653
-23.03
-36.247
-39.607
-6.4017
16.059
17.401
17.378
16.006
17.904
15.357
4.9657
-5.3995
-14.281
-20.833
-34.635
-33.221
-2.2387
15.019
17.487
15.889
15.057
18.594
17.208
7.5087
-1.1061
-13.022
-19.067
-27.728
-41.448
-18.889
10.41
16.082
16.136
13.883
17.576
16.535
7.9616
-3.3146
-11.659
-18.877
-31.567
-21.055
11.218
28.771
32.988
32.035
45.222
57.051
49.464
30.608
5.059
-18.046
-39.337
-52.396
-20.372
11.913
15.356
5.4242
-5.3332
1.2626
2.1931
-11.487
-22.653
-32.301
-45.094
-60.339
-42.688
-0.86513
15.522
15.565
9.0883
9.7794
17.442
18.451
14.071
5.0127
-6.0031
-19.322
-38.15
-26.441
4.3966
10.983
5.9511
1.9397
3.59
3.7407
-2.2841
-17.593
-26.776
-41.713
-50.789
-15.951
18.583
28.173
20.251
16.67
21.882
20.48
8.8037
-12.485
-26.319
-48.043
-49.026
-2.0262
26.357
28.924
24.455
24.48
27.295
22.359
7.4928
-10.538
-24.063
-45.731
-47.298
-2.8755
28.847
32.659
27.277
25.664
29.952
25.728
13.099
-3.805
-19.004
-33.039
-50.169
-26.003
16.141
26.756
22.306
16.989
17.634
18.647
10.974
-6.6074
-18.034
-30.322
-43.933
-18.68
17.543
25.592
15.565
11.665
17.416
17.706
7.3604
-8.5166
-19.581
-40.443
-26.923
10.358
26.172
24.135
17.607
19.871
19.455
10.496
-9.1261
-27.921
-44.762
-68.922
-52.723
-10.496
2.1938
2.7898
7.8533
16.857
25.101
24.83
10.988
-4.3527
-18.687
-43.62
-39.425
5.5179
31.056
34.411
29.982
33.849
35.83
30.036
19.22
3.9659
-2.2419
-16.6
-20.369
27.632
92.756
130.02
95.163
95.919
173.7
102
-78.462
-99.817
-41.496
-80.923
-146.56
-137.99
-124.37
-127.59
-113.11
-49.564
21.352
54.035
43.732
19.313
3.5889
-24.688
-5.5872
35.914
41.474
18.818
0.33586
-1.111
-2.7275
-6.1865
-29.25
-48.919
-72.235
-90.719
-40.271
25.592
42.084
36.157
30.744
30.382
30.38
5.9139
-16.908
-44.509
-71.818
-30.673
26.368
53.661
56.626
55.381
58.711
58.373
41.605
18.058
2.9329
-39.418
-73.472
-36.006
12.1
21.981
13.749
15.746
23.378
21.971
3.6933
-21.575
-37.513
-64.196
-76.615
-21.261
33.086
42.677
34.565
36.622
46.765
47.268
35.987
17.14
3.6008
0.24461
-11.511
29.598
118
175.6
183.51
153.37
187.28
150.98
-37.606
-203.18
-389.14
-436.11
-270.56
-165.53
-48.288
17.783
-32.215
6.2767
23.858
32.835
64.264
68.144
59.176
48.415
29.779
71.095
104.89
77.333
23.242
-95.641
-116.46
9.8739
126.25
146.6
108.75
52.318
32.982
107.24
199.41
83.529
-146.45
-314.55
-353.13
-315.31
-225.38
-113.24
-65.729
-54.387
-10.672
78.346
170.81
-5.7777
-173.13
8.1077
123.67
61.126
12.384
-17.395
-56.892
-96.228
-67.331
34.963
82.682
67.314
58.51
65.38
65.759
46.414
8.9246
-17.838
-57.146
-69.903
0.84285
64.539
72.469
53.842
53.327
65.534
54.248
14.529
-16.04
-54.42
-67.447
9.7476
74.552
81.4
66.773
67.313
69.557
59.396
28.556
-5.47
-33.07
-78.179
-55.667
22.82
52.532
57.453
51.655
52.744
55.861
39.915
7.2708
-19.536
-36.556
-67.369
-67.549
-0.11409
44.698
50.369
48.421
45.135
51.889
43.889
17.928
-2.5208
-18.727
-29.912
-49.777
-22.054
45.487
62.068
51.392
37.298
30.514
21.651
7.4083
-24.303
-38.24
-29.19
-45.931
-34.614
-5.0898
17.98
17.822
-0.46781
25.623
-9.3005
21.993
107.07
-52.52
-264.64
-253.41
-138.66
-47.216
35.466
45.662
53.511
96.277
-29.35
-67.981
6.6055
-68.179
-58.096
26.333
12.001
0.17871
11.473
9.2851
8.2305
4.4898
13.295
16.181
-0.44746
-13.631
-31.374
-49.056
-78.886
-47.488
31.486
57.98
51.548
39.522
35.712
33.469
25.271
4.3771
-7.7951
-8.1017
-14.859
34.711
130.47
173.9
183.6
186.87
94.423
-92.38
-228.71
-216.19
-124.7
-187.52
-253.03
-110.92
42.639
177.33
187.1
-16.274
-176.82
-163.11
-70.031
-70.963
-96.501
-112.04
-66.674
31.098
105.97
96.513
95.476
67.12
64.518
140.5
101.78
93.141
102.17
81.76
60.779
31.109
60.421
106.41
75.964
36.304
-3.044
-74.447
-120.81
-164.35
-187.46
-210.97
-202.23
-103.79
-7.4605
19.466
-3.479
58.09
156.52
139.52
32.888
-18.974
-37.08
-53.296
23.517
67.587
40.164
-15.31
-22.519
101.03
151.57
-74.532
-279.38
-227.82
-170.65
-71.791
70.478
74.735
94.402
161.54
141.41
150.9
103.88
-12.012
-15.733
-28.559
-42.212
-31.691
-61.423
-50.178
-21.106
-14.983
-4.2261
5.8435
-35.509
-44.24
-42.013
-65.718
-30.124
37.952
66.497
63.771
57.694
56.689
35.373
24.583
15.058
-5.4192
-54.993
-73.347
37.863
98.629
80.662
92.739
76.027
77.309
130.53
101.76
-9.5589
-81.553
-139.2
-116.38
-60.604
-53.923
-56.215
-14.494
18.49
31.958
24.392
13.026
-0.25102
-22.122
17.28
85.601
104.03
55.912
-3.1498
-59.697
-110.53
-93.603
-42.546
-12.497
-52.437
-35.334
47.178
50.982
3.8842
2.9269
40.78
62.219
54.828
-3.8964
-127.18
-226.81
-116.08
38.683
91.17
68.52
48.968
52.22
58.569
20.547
-48.944
-96.452
-197.9
-151.12
34.122
81.435
67.093
53.318
34.695
27.294
-1.2208
-77.397
-128.04
-68.086
-49.129
-63.517
33.738
117.91
112.36
84.253
69.6
37.101
-4.3419
-30.673
-41.038
-44.245
-71.997
-73.657
4.9834
67.778
75.348
54.969
63.692
56.799
35.358
60.151
45.522
-25.446
-73.728
-36.329
18.533
35.429
17.351
9.5555
24.05
30.093
9.926
-21.332
-50.046
-70.606
-4.2045
79.657
107.86
133.72
141.96
126.49
94.595
43.512
-45.037
-104.16
-128.75
-183.5
-141.02
-53.064
-18.045
-5.7022
-17.148
-60.976
-19.61
71.64
58.088
-7.1057
-26.634
-49.005
-18.397
77.028
99.101
12.561
-61.252
-30.677
49.819
27.605
-159.08
-242.74
-133.86
-75.676
-84.089
-47.284
-11.02
36.553
57.031
52.929
67.215
69.92
84.178
75.717
22.115
-50.686
-80.912
-30.821
12.743
4.7504
-4.8555
11.974
30.473
22.068
-8.8992
-25.762
-46.249
-44.751
32.429
86.388
84.453
60.318
49.191
52.112
36.265
1.5422
-35.036
-61.511
-92.488
-80.333
-5.4466
39.834
61.449
81.998
68.663
41.816
34.898
25.474
4.2743
-7.4246
-22.701
-40.284
-8.0935
34.867
54.192
51.629
38.514
37.33
35.08
16.534
-9.8394
-32.464
-50.678
-78.236
-86.345
-23.434
27.404
39.976
41.901
48.914
75.016
80.169
71.945
47.859
-57.27
-117.52
-93.025
-75.862
-31.588
14.443
22.718
26.009
34.823
44.001
32.993
17.499
22.59
30.593
4.0074
-11.332
20.893
24.303
-74.418
-136.59
-56.382
-6.39
-45.13
-83.074
-33.255
37.144
14.729
-36.344
-22.42
27.17
54.01
51.755
79.948
114.23
54.379
-94.724
-137.45
-17.532
15.748
-94.496
-150.34
-71.9
-22.702
1.4812
13.878
21.121
91.528
120.22
0.32938
6.0049
103.59
65.729
26.141
41.921
42.081
-12.768
-56.569
34.174
-9.1397
-165.7
-194.11
-157.39
-146.48
-138.64
-144.44
-96.537
-6.8502
112.84
167.8
182.06
152.72
122.95
84.134
48.73
5.8136
-32.546
24.285
52.882
16.01
-73.118
-120.71
-70.362
-23.478
5.0814
-2.6285
-3.6705
12.433
4.2909
23.418
56.784
39.145
-51.305
-153.73
-61.021
131.16
215.88
156.85
135.82
129.37
32.848
52.275
-39.954
-262.32
-291.44
-281.23
-260.82
-78.147
39.146
44.954
19.045
-23.806
-40.742
12.515
147.27
150.03
5.8732
-15.146
24.081
30.232
27.808
22.703
17.899
-4.0618
-21.904
42.583
88.044
107.66
193.86
210.5
121.49
73.423
110.92
83.343
4.4549
-49.168
-74.567
-88.078
-67.748
-55.272
-61.83
-68.903
-53.719
-62.558
-87.989
-96.773
-108.9
-112
-132.46
-135.79
-131
-127.1
-36.747
30.453
10.116
24.386
46.674
-83.464
-181.87
-128.89
-10.666
71.716
92.126
94.878
100.32
91.414
93.204
134.78
115.5
45.901
10.879
-38.303
-27.964
33.939
143.73
348.83
322.06
85.798
-92.397
-268.39
-197.96
77.127
109.36
35.384
22.992
4.1597
18.915
27.685
5.4766
-29.237
-73.837
-85.314
-61.014
-8.0335
19.58
5.6888
-26.746
-50.679
-68.619
-81.961
-94.48
-66.239
64.335
108.51
87.651
-40.73
-181.56
14.839
157.39
-10.843
-192.03
-316.58
-332.81
-186.7
26.597
149.02
178.25
126.51
29.628
-154.29
-189.8
31.863
176.15
156.89
130.98
102.74
97.031
162.73
121.12
-44.824
-122.36
-123.13
-112.33
-36.219
77.594
151.68
40.165
-70.05
-1.6575
-13.198
25.33
49.784
-36.23
-50.405
78.461
228.45
314.56
95.521
-88.191
32.592
-55.427
-290.74
-260.23
-152.28
-127.96
-39.794
44.997
58.724
28.677
-17.085
6.6317
52.275
34.356
-61.819
-33.252
22.558
-120.98
-119.28
91.801
157.49
180.13
123.54
26.357
-9.1115
-57.086
-48.32
-56.686
-138.27
-93.37
-5.3466
4.1487
45.727
14.907
88.55
184.39
87.686
-70.053
-63.555
-22.164
-2.9972
90.016
103
87.433
55.429
47.819
25.037
-33.287
-76.59
-105.54
-129.14
-187.33
-168.35
-19.961
105.85
143
86.705
47.913
40.339
35.26
-51.084
-183.51
-117.04
-29.014
6.5145
92.433
64.892
-31.403
1.404
70.046
20.532
-13.76
-36.575
-52.454
-38.177
-15.342
-0.22097
66.444
130.37
113.06
80.865
44.566
-110.72
-142.03
-20.46
1.7786
-63.892
-12.329
124.49
152.41
110.64
78.934
80.314
-4.6227
-80.252
-93.646
-148.67
-268.26
-273.65
-99.207
51.273
137.43
138.79
100.35
106.82
117.96
85.402
55.628
2.325
-120.1
-180.71
-51.655
131.62
146.35
105.72
34.496
-172.53
-204.59
-55.217
1.3236
-35.535
-62.15
-82.994
-52.345
44.304
94.507
107.76
100.5
96.841
90.997
15.752
-21.344
2.2384
-44.655
-45.864
9.5973
30.417
47.448
49.976
-22.446
-81.886
-34.957
-32.32
-57.798
-77.703
-91.91
-26.141
70.051
110.55
130.08
138.88
182.26
185.12
90.078
-23.524
11.245
104.18
-42.545
-248.43
-444.76
-458.75
-274.2
-70.641
29.812
57.464
50.861
24.779
9.3802
-27.43
-24.205
42.93
90.617
84.207
56.51
52.787
60.559
39.222
0.99731
-26.126
-66.022
-57.953
19.534
65.444
70.265
55.281
48.58
45.949
31.637
-8.4588
-36.971
-76.914
-88.394
-5.0979
57.324
59.563
44.915
44.103
48.59
41.75
12.001
-21.69
-44.728
-82.116
-59.692
25.254
66.92
69.212
59.103
55.134
58.723
48.071
15.499
-25.755
-56.236
-102.52
-114.46
-36.687
-9.1778
-44.771
3.9325
112.5
149.88
120.63
51.693
-9.4489
-39.148
-59.468
-22.961
73.535
101.5
62.829
15.351
-25.364
10.101
61.729
4.9944
-88.093
-116.8
-75.191
-15.095
-7.4375
-60.688
-55.369
-31.388
-25.637
-23.752
-66.496
-88.617
-86.621
0.79999
74.942
102.4
126.76
112.87
37.229
10.276
54.614
-8.2803
-113.42
-102.45
-14.294
50.729
68.546
53.573
5.9498
-49.678
-93.299
-101.89
-101.56
-68.993
19.48
73.089
62.959
41.916
28.712
14.851
3.1782
17.629
0.56994
-51.853
-54.102
22.169
90.065
81.293
61.845
30.995
-36.799
-47.831
14.852
80.086
59.815
33.058
3.4741
3.4793
55.107
49.848
2.5982
-63.1
-123.16
-147.09
-141.33
-117.07
-45.282
5.7644
-10.801
-16.749
9.3637
42.403
47.667
22.324
-15.539
-37.54
-4.8494
61.855
90.648
-7.8243
-132.03
-165.5
-142.7
-117.7
-84.657
-66.419
-7.0662
61.222
77.997
59.431
42.6
43.924
45.854
51.461
51.925
18.973
10.634
25.104
20.132
9.9892
9.3212
13.561
9.8002
-7.2594
-19.058
-30.342
-24.925
37.402
94.948
87.686
46.08
0.70149
-11.487
27.651
41.16
11.279
-33.598
-61.566
-18.958
32.27
45.111
49.175
67.748
50.211
15.087
3.3111
-12.446
-25.865
-52.44
-74.004
-53.568
-30.043
-13.967
-2.9137
14.55
24.972
15.038
-4.9593
-17.83
-40.026
-32.199
19.843
51.646
54.273
49.452
55.773
54.513
42.354
21.057
-16.758
-59.128
-73.59
-33.583
2.7878
10.275
5.7111
9.8242
15.476
12.825
0.43009
-14.915
-26.8
-56.998
-56.043
-11.097
13.397
10.067
0.28585
5.3675
12.697
7.3357
-14.723
-31.79
-41.305
-62.315
-50.494
1.3528
26.906
18.648
5.4882
11.182
19.747
13.139
-7.1332
-23.591
-49.147
-50.679
1.043
38.311
29.814
5.6135
6.028
12.583
6.266
-15.449
-34.144
-57.463
-70.695
-15.696
37.285
42.002
25.659
24.785
33.736
33.964
8.5051
-14.112
-32.748
-55.286
-15.696
57.122
90.6
83.603
100.81
122.18
138.14
126.27
0.71293
-3.57
60.444
16.257
-89.025
-146.67
-143.96
-77.433
-14.442
8.378
15.301
-20.59
-22.207
-26.314
-68.498
-72.438
-40.463
-40.82
-75.787
-119.3
-106.15
-30.413
20.09
-11.115
-10.982
-26.825
-61.652
-28.844
31.197
33.921
12.716
14.931
25.397
23.572
4.4704
-19.276
-55.705
-60.456
13.575
76.245
72.762
45.332
56.26
69.213
55.447
18.953
-15.644
-48.021
-77.454
-18.339
61.815
77.934
58.664
56.177
63.664
51.802
27.678
-8.3726
-35.048
-68.038
-60.576
14.388
60.337
58.451
43.516
49.092
55.259
41.034
12.464
-17.473
-36.934
-64.218
-56.587
17.178
63.796
59.651
43.762
44.171
50.067
38.118
5.4898
-30.911
-48.71
-62.034
-73.782
-19.576
38.948
43.895
31.906
34.633
48.473
46.87
21.925
-5.9349
-26.345
-55.587
-60.443
-9.7391
29.147
23.209
11.534
19.614
34.733
38.215
37.814
35.162
42.454
49.685
22.432
-11.18
-20.389
-57.55
-100.58
-43.859
63.549
5.9105
-163.68
-256.89
-203.1
-152.98
-94.801
-15.636
21.769
34.444
31.344
40.967
52.515
38.483
7.1204
-16.397
-28.952
-52.453
-50.935
16.113
61.265
52.345
29.376
31.811
39.522
29.896
-0.29323
-24.739
-44.509
-69.286
-39.617
18.755
39.54
21.653
13.081
23.099
27.025
7.8489
-25.263
-49.213
-81.15
-55.914
25.154
59.301
41.971
26.854
35.825
39.769
28.524
-8.2811
-31.957
-63.345
-73.862
1.6087
60.021
58.195
41.496
48.011
55.804
52.821
29.112
0.56381
-7.1359
-34.728
-8.7797
68.787
82.069
102.73
83.502
12.422
7.8564
44.727
37.316
-0.96618
-48.356
-104.81
-103.75
-34.392
-15.161
-36.773
-43.871
-29.367
44.464
93.435
9.5138
-75.677
-111.88
-152.5
-131.36
-42.421
8.4002
6.3846
2.1303
17.352
26.494
12.502
-15.675
-31.394
-56.658
-47.597
26.514
66.906
56.828
33.242
33.577
34.905
22.126
-11.99
-43.418
-73.341
-103.25
-55.779
15.194
38.558
41.891
45.516
59.757
66.882
46.919
14.342
-8.4342
-47.619
-89.404
-43.589
61.287
96.196
87.821
74.396
51.39
44.344
43.442
10.411
-15.378
-38.852
-42.394
49.945
133.52
184.31
172.53
86.556
28.319
9.0193
16.468
-72.602
-186.37
-217.03
-209.67
-186.04
-104.86
-14.566
10.841
39.014
95.579
132.23
138.62
98.722
-56.013
-248.52
-175.94
17.838
61.928
24.664
14.914
-1.4707
-49.85
0.30734
78.058
105.69
65.569
8.4064
37.516
83.316
7.1466
-71.058
-30.297
-15.937
-34.313
-54.94
-160.6
-143.25
-34.968
-38.725
8.3955
10.59
-13.258
34.912
58.239
28.893
-17.421
-80.601
-86.76
-95.405
-84.31
-8.9287
38.11
37.677
31.549
40.982
43.753
19.734
-29.544
-61.48
-47.985
-22.832
-7.9445
17.985
28.446
4.6403
-2.6517
21.485
35.793
24.614
7.5435
-2.8671
-47.074
-47.419
32.687
82.349
68.74
47.024
60.89
69.817
52.093
16.144
-12.376
-46.255
-11.791
75.746
113.85
109.1
96.611
105.3
109.89
49.558
-39.929
-101.44
-156.8
-133.32
-38.378
12.287
12.123
11.684
25.302
30.876
23.303
-4.1402
-28.59
-50.901
-73.88
-27.001
36.427
54.445
44.84
42.828
55.658
49.613
26.192
-4.2596
-24.893
-52.27
-57.668
-4.6919
36.993
32.029
14.138
13.027
17.387
9.1537
-15.306
-32.664
-52.444
-63.331
-21.088
18.337
16.94
-1.3353
0.21696
10.394
5.1344
-16.545
-32.018
-58.974
-65.789
-14.234
22.314
16.316
-4.6712
-0.34969
-14.469
-46.058
-51.654
-47.422
-28.2
7.8458
30.943
21.258
12.87
5.6989
0.59489
13.287
26.844
28.089
21.168
21.186
37.719
57.101
47.572
7.3852
-40.126
-55.365
-25.097
6.7534
18.871
0.10727
-74.515
-152.61
-133.78
-25.874
74.364
73.736
30.63
12.298
23.088
23.212
15.957
-5.6571
-15.965
-43.803
-33.603
45.004
92.909
86.766
34.458
-22.338
-31.757
-14.289
-4.505
-34.983
-82.276
-77.105
-16.156
17.744
10.047
-6.5485
-2.6468
4.5775
-5.5528
-28.066
-42.359
-64.138
-41.818
25.743
53.217
38.303
27.662
33.933
42.32
29.77
0.54797
-19.806
-47.258
-21.915
43.671
66.411
53.022
44.66
58.774
62.353
42.677
14.54
-14.249
-55.259
-53.024
3.1088
29.673
19.739
7.8727
11.081
9.0817
-18.551
-41.368
-44.005
-47.014
-23.486
30.075
52.929
-19.588
-78.554
-22.185
59.611
13.165
-167.48
-115.92
54.458
140.02
144.35
54.703
-32.798
-51.809
-42.411
-37.826
-27.25
-31.673
-25.593
-29.784
11.677
80.849
89.487
48.829
29.115
10.706
-21.818
-14.001
0.98227
0.20135
-29.553
-32.438
18.639
43.026
28.296
15.834
17.921
17.023
16.373
0.17787
-18.323
-41.197
-73.166
-45.968
2.9314
12.291
-0.56488
-0.41886
7.2218
3.0831
-12.932
-37.499
-50.855
-69.274
-50.966
4.7957
25.903
13.639
2.7462
6.4256
-0.88224
-18.86
-25.263
-10.312
-9.4705
36.039
78.882
30.451
-9.8303
6.0492
49.12
79.544
59.698
-12.037
-45.208
1.4924
19.684
