-13.552
-44.346
20.872
27.491
-8.0528
-28.75
13.903
-5.0295
-19.023
30.497
38.112
23.796
-23.886
0.32756
-6.2099
-32.41
-63.126
7.3632
3.3332
-15.942
24.085
25.001
-14.136
-26.95
36.229
25.023
-33.699
-32.958
45.722
-17.954
4.3025
0.4429
13.214
55.838
31.219
-68.436
17.539
25.941
-12.401
9.4666
-33.359
-1.1586
15.451
-28.117
17.929
8.8037
-28.357
21.839
-4.3408
-21.634
13.72
-22.644
2.3707
17.466
-18.858
6.6391
20.759
-19.898
-23.569
20.659
13.108
-19.7
-3.224
16.908
-1.5871
-21.397
20.97
12.108
-26.124
2.47
10.234
-23.426
16.573
4.2429
-21.354
25.392
20.471
-32.956
1.3118
35.072
11.023
-32.818
-7.5769
37.171
7.7402
-26.183
-9.5182
24.364
-16.241
-8.384
20.611
7.1937
-32.382
0.96113
24.599
-0.72278
-37.823
-1.8127
25.931
3.5535
-39.731
-18.575
37.898
12.501
-27.385
2.0312
28.041
6.4717
-27.38
3.1191
23.871
5.8005
-24.896
-11.523
26.926
-8.861
-8.5573
28.494
-2.5369
-29.695
15.727
29.87
-13.152
-18.31
20.447
-14.503
-12.637
38.278
-17.774
-35.059
27.926
8.4169
-30.199
14.316
23.572
-22.078
-8.6027
23.725
-32.828
4.1169
25.127
10.472
-22.916
-19.27
34.016
21.329
-15.962
-38.707
22.64
23.854
-12.14
-16.032
27.625
12.468
-38.949
-18.592
15.725
-27.071
1.2913
20.507
-1.5758
-10.057
17.399
-12.372
-8.779
31.368
5.2055
-26.736
11.933
5.4433
-21.405
19.026
9.3738
-17.01
0.83991
13.765
-7.5191
-12.436
17.748
-6.5406
-25.481
2.6381
35.29
3.8076
-27.953
15.755
1.4811
-14.288
24.818
7.9315
-29.602
-2.2533
28.827
-6.7129
-33.261
16.695
11.163
-33.151
4.5554
37.177
-4.98
-15.305
15.179
-14.687
16.152
47.064
-40.431
43.392
104.1
-80.858
-167.31
156.69
-137.9
84.177
108.7
-184.5
54.981
-143.49
-193.53
128.91
211.15
10.567
99.526
-31.121
-60.055
-25.861
15.528
-64.917
15.329
-1.0136
-10.072
31.418
2.7708
1.2379
15.579
-19.136
11.731
44.355
-30.542
9.4736
39.136
-97.2
26.009
57.248
-14.03
-10.231
-24.591
21.91
19.944
-20.325
25.999
-20.481
-39.351
36.948
9.4444
-25.941
5.8489
-16.505
-29.407
9.6886
18.494
45.328
-10.14
-27.3
-0.97059
37.549
-50.651
-50.026
114.16
3.9891
-79.044
62.577
30.085
-117.85
33.612
5.8077
-83.526
78.639
-5.7784
20.851
-7.0228
27.163
-3.4315
-19.666
-55.216
15.665
58.84
-6.6642
-0.044211
13.68
41.62
-8.8733
-64.662
-26.36
-11.311
-83.486
13.059
87.616
78.457
41.27
-44.046
5.3296
-13.655
-45.958
128.41
217.7
-250.77
-178.41
-0.36545
-88.305
91.131
59.413
14.294
2.3091
-3.7176
2.8871
-7.2841
-4.6076
41.739
21.265
-6.1283
-13.541
29.402
-18.21
-35.373
-5.5001
-17.673
44.227
25.9
-36.175
-28.457
10.886
10.117
32.286
10.382
-30.348
-5.5464
-16.762
-10.048
83.54
4.6402
-62.529
4.5276
-9.7189
-26.254
15.719
2.2062
-8.6025
51.892
34.18
-68.31
-62.055
8.3933
14.072
25.944
7.0778
-29.926
-22.338
32.449
-15.444
-21.314
43.209
29.834
71.433
182.85
180.74
-165.19
-366.06
-292.82
61.739
173.09
93.319
99.736
9.7836
15.673
-141.12
-60.896
-16.323
38.019
90.895
-0.80324
8.8947
4.7068
8.7661
183.03
195.14
-219.78
-199.84
-88.441
17.711
140.82
70.984
-71.286
-45.974
22.139
-20.125
-11.024
-43.268
32.31
49.713
133.14
-80.693
-100.85
-26.789
-40.231
-110.86
57.184
81.848
24.177
98.05
220.49
3.9087
-329.56
68.014
2.3157
-91.151
14.567
-5.469
8.7259
41.546
125.14
40.113
-202.34
-3.5272
43.062
26.099
-157.41
-44.349
138.17
3.4993
-11.174
17.889
13.799
20.683
34.023
-34.789
3.7285
50.597
-8.3698
-1.3175
32.102
204.76
6.4793
-276.85
-25.614
-61.617
73.294
40.508
-58.674
-21.343
37.917
14.916
-35.125
-0.5651
33.168
-4.8288
33.464
35.687
-19.008
-21.749
81.604
174.94
78.591
-353.55
-188.45
72.911
-5.1509
32.773
-25.868
19.847
52.433
11.039
-40.38
39.081
56.813
76.395
-15.476
-68.149
3.2459
-122.92
58.993
79.362
-37.138
22.153
7.672
-59.61
-6.2437
85.112
146.61
-155.64
-114.04
121.86
-129.02
25.607
-21.777
-62.424
-1.6596
139.71
69.41
-69.804
-27.235
-23.396
50.867
-33.865
7.5038
-4.7845
19.744
80.464
-15.45
-28.239
-9.8779
-58.803
-41.633
60.663
21.01
-108.4
64.554
39.631
-132.39
-55.377
82.811
93.091
2.0972
-14.61
57.267
20.31
37.722
17.561
4.0825
16.383
-24.635
-46.053
55.789
-182.26
-46.432
75.167
-16.805
49.709
44.947
-2.9843
-25.613
22.724
6.9985
22.504
188.35
-69.062
-166.2
-41.774
32.741
-14.579
-153.9
37.247
20.811
-54.843
69.995
59.305
-7.5503
9.0801
77.986
3.2094
-7.8765
46.944
39.039
-31.849
39.46
98.223
-116.14
-141.39
-51.914
83.497
-49.127
-76.405
77.237
43.096
-4.3092
28.099
-33.086
32.649
25.656
-62.558
2.7272
-60.666
53.844
109.8
16.787
-123.65
-48.945
-4.5079
-36.889
23.23
33.583
-29.782
17.628
55.694
38.797
-103.05
3.5756
106.95
-16.521
-27.698
14.357
-9.3905
-2.4318
-27.66
91.747
33.322
-37.064
15.931
-54.37
-71.546
-51.149
37.074
36.668
-12.604
18.193
27.199
8.4451
190.64
49.847
-209.89
-155.14
3.9514
99.217
4.2199
6.726
-20.345
-32.965
43.527
26.873
-11.916
-95.646
57.266
19.345
-71.265
71.66
-12.77
-36.271
63.53
55.833
-94.701
-22.53
80.365
8.8475
-137.09
97.108
36.383
77.79
26.768
-70.031
-119.94
-108.9
0.84416
-1.0095
14.331
63.425
105.32
53.501
-11.402
103.89
-1.4831
-12.557
-52.24
-75.18
60.003
19.388
-35.29
-86.225
47.002
1.6374
-50.468
-126.44
141.23
40.682
-38.652
35.733
-25.232
-23.416
-18.489
-17.825
44.855
12.656
-36.052
-103.69
74.284
63.253
-82.828
-60.399
20.046
19.798
31.675
114.18
101.68
-111.78
-127.58
74.67
182.61
-51.965
-71.957
45.249
26.511
47.482
-18.818
-171.58
-60.756
59.769
39.48
-16.935
-14.587
11.616
-56.03
44.969
79.756
31.275
-81.621
-83.751
-62.046
-93.784
80.517
40.776
54.375
40.549
91.147
-11.674
-74.592
101.03
52.561
-92.285
-150.19
125.55
18.68
-67.724
22.029
42.91
-64.054
126.79
5.747
-133.75
33.528
52.963
-26.417
14.149
-9.6059
38.354
2.8262
-78.429
9.6207
22.818
-21.221
6.7551
-13.983
-21.92
52.618
165.82
57.443
-181.71
-93.631
-11.79
-32.973
-6.7163
-17.161
-119.56
-172.4
83.239
14.171
104.44
93.87
182.27
38.415
-96.455
27.664
-9.9149
-180.18
45.512
4.3599
-65.561
-19.111
76.772
12.293
33.714
10.287
24.261
53.374
210.05
-41.184
-161.95
94.559
-86.218
-78.549
9.2936
-50.756
85.462
-15.365
-39.477
48.535
-26.154
-37.591
28.656
41.877
-64.166
46.784
43.362
-48.269
-122.26
152.08
-94.04
-19.105
75.062
-29.515
-19.3
28.436
-2.3792
103.32
46.336
-171.45
23.244
-11.332
64.201
-39.161
-117.89
-32.99
87.417
30.129
-10.074
22.181
32.027
-25.709
6.0618
-26.035
19.418
60.011
-40.072
31.859
19.128
-17.087
-1.7987
-18.954
-81.025
36.653
139.19
17.103
-7.2454
-51.551
-56.385
-5.0005
-34.019
16.689
17.54
-33.692
34.396
-5.372
18.596
-16.472
-3.1422
-32.002
-19.051
31.478
5.2412
20.49
0.53893
4.0403
-4.3899
-27.741
30.148
-29.958
-32.488
45.124
14.254
-14.748
-21.794
33.378
7.4482
-43.541
-15.344
35.694
19.111
-10.468
20.3
13.923
-20.259
-10.149
52.783
57.808
17.914
56.349
-1.4765
-174.51
-185.46
32.143
49.767
107.51
4.942
-145.82
85.676
-66.291
6.6553
96.358
77.751
-33.751
-20.016
28.903
117.42
-67.72
-288.77
200.96
-43.6
16.816
113.18
2.0779
-70.242
-274.16
64.958
176.56
38.131
-38.992
8.4749
-37.705
-24.788
-1.9254
-1.5711
41.858
14.305
-13.731
42.436
175.78
58.071
-128.62
-58.543
-252.44
59.123
133.75
203.4
-32.705
-294.87
-69.606
50.445
42.591
-44.13
79.077
100.37
12.125
-87.161
7.9105
20.852
49.484
40.118
-45.28
-76.915
136.63
-220.91
65.365
64.936
-85.711
79.529
2.5981
-58.912
33.32
31.863
32.885
4.3255
-22.397
-21.826
17.107
8.3067
65.887
14.611
-173.1
66.958
12.39
40.714
-59.369
-102.49
91.866
-26.14
-34.475
15.595
41.655
3.3898
-27.732
45.466
84.442
-17.496
-133.07
1.7446
50.388
14.993
-43.742
25.889
25.614
-31.042
-17.577
32.686
3.8294
-4.2367
29.265
10.827
-29.975
-14.371
30.68
13.168
-10.745
-36.584
22.022
36.279
-23.005
-23.027
10.18
21.241
-4.3621
-40.125
29.567
2.7522
-5.13
-34.469
4.0075
16.738
-4.8427
-16.461
13.714
4.8116
-20.073
12.594
18.791
-0.22567
-32.302
15.952
13.954
1.6772
-39.659
5.8269
45.409
21.272
10.755
2.5539
-12.426
7.9206
-2.0183
15.954
-71.343
-140.85
87.589
25.652
-24.052
28.067
19.048
-6.6472
-50.048
21.032
38.737
-3.886
-34.525
42.602
-1.4834
-40.859
26.27
23.088
-52.372
2.4043
55.163
-14.677
-22.436
35.927
-3.884
-12.579
17.813
15.334
-31.178
-21.075
47.829
14.051
-32.521
-11.516
39.861
-19.569
-6.384
21.695
3.5078
-35.948
-16.774
30.032
-0.48197
-35.595
13.143
30.379
-27.865
6.7011
25.636
-13.857
-38.045
27.961
27.175
-24.785
-21.161
24.056
-8.334
-5.4645
30.662
13.391
-21.143
-42.265
21.307
12.659
-23.102
-0.76207
21.26
-30.66
-1.3154
22.935
20.924
-22.506
10.106
17.061
-32.604
32.342
10.067
-33.07
7.0019
22.417
-8.774
-34.886
31.718
13.287
-13.655
13.56
8.516
-9.101
-44.195
24.49
13.368
-53.988
-29.242
18.48
48.999
-55.82
-2.4607
67.49
-10.008
-4.863
108.99
-54.127
-98.608
75.745
-80.385
-38.205
13.88
-27.865
51.111
33.753
7.5678
91.071
-27.85
37.845
-44.751
-88.097
67.78
-19.935
33.784
-27.51
3.485
25.377
-40.181
-90.114
17.805
55.811
22.935
-27.444
-11.366
52.272
18.186
36.849
115.07
-136.15
-168.62
86.907
-8.0053
-24.252
23.709
39.09
-13.262
-50.372
100.74
-35.383
-75.725
204.76
-88.485
-94.206
36.595
-53.438
1.9467
-23.42
58.075
36.132
31.448
-33.574
-61.902
51.823
-49.412
-3.0241
77.139
39.523
-44.882
-37.979
24.665
12.48
-9.2775
34.623
-9.0896
-27.761
26.896
0.53851
-46.532
15.838
28.955
27.26
61.478
17.671
-92.68
-50.07
-41.852
10.738
70.553
26.321
-24.869
-73.548
13.626
93.015
-42.495
-103.42
3.42
24.014
108.21
-37.498
-86.528
21.765
42.494
-30.759
-148.83
158.43
195.43
-64.793
-139.67
-143.54
-20.022
14.894
153.74
61.894
-26.344
24.656
-24.849
1.0332
53.329
-9.4426
-56.722
6.7781
17.023
-12.487
29.904
58.793
136.12
-169.24
-52.624
-10.527
-15.375
42.064
-13.636
23.228
3.2617
-11.752
-59.309
38.449
56.661
-110.87
-13.764
68.683
21.736
-60.17
-35.375
-18.504
153.19
-24.311
-94.643
0.89497
22.575
7.4234
62.755
38.27
-44.134
-150.84
108.73
26.663
-99.201
35.818
17.91
11.686
192.15
-66.961
-147.83
-26.443
56.676
164.04
-53.25
-71.77
-126.59
-22.248
105.09
94.133
-71.942
-48.652
140.51
-113.01
-134.59
33.652
93.498
125.46
14.702
-95.389
-79.189
-47.373
118.82
-24.848
66.136
-57.749
-18.414
16.903
78.292
-107.63
-57.805
180.69
-99.739
-49.543
-67.052
97.698
100.42
-78.848
-24.594
46.467
-106.91
1.9461
116.91
9.9195
-12.787
-32.995
1.8478
-26.012
17.11
53.524
-1.8415
-29.526
16.783
60.61
29.701
-33.435
-123.41
-133.71
120.67
133.35
-26.582
-90.035
-175.86
176.43
22.133
-47.205
42.371
85.399
30.724
0.49195
-35.216
-82.991
-42.233
35.202
42.833
-38.306
-10.791
29.099
-27.789
24.48
43.524
-14.692
-37.701
20.074
13.856
-26.698
18.731
14.066
-13.799
28.366
10.503
-38.865
-3.2719
28.382
-24.427
-8.7037
24.025
-37.404
1.283
16.351
-7.0363
-22.114
15.316
5.3306
-5.3152
-5.3624
10.094
13.975
-22.436
21.551
6.9379
-3.4308
-25.188
18.974
-6.2826
-28.315
36.799
6.1348
-35.521
-19.802
51.311
27.642
-4.6856
-27.818
9.1935
-57.391
0.31662
26.708
23.537
-44.308
2.5518
-17.986
33.313
21.56
-72.124
21.505
34.332
-17.344
89.884
68.068
-90.963
-39.041
12.365
32.017
-69.028
-59.488
78.835
-7.8431
7.3028
-1.9938
-13.768
5.4584
51.942
-23.329
42.92
-21.488
-67.794
20.693
13.216
14.116
18.008
75.327
-139.03
-9.6832
16.42
9.9244
82.822
-62.647
-70.35
80.593
-34.177
-18.21
100.03
-44.457
-58.225
47.029
3.339
9.5223
-55.45
35.642
-44.468
-0.19121
32.91
8.3077
-21.005
51.8
-2.6752
-49.912
-19.577
38.938
-16.527
18.487
39.248
69.892
-63.273
-65.015
51.054
-32.69
-37.392
64.426
-21.858
-19.945
105.64
-75.928
-30.543
9.2093
-11.962
-1.5208
-20.688
27.05
4.7117
103.49
-53.747
-38.69
-15.31
14.578
13.981
7.8227
-18.088
-10.44
3.4658
-16.128
29.232
34.445
-10.848
7.1848
29.237
-61.262
-29.363
40.83
8.163
13.122
173.53
25.302
-229.09
-98.344
-157.92
47.948
111.13
66.52
45.519
-73.478
89.408
-59.458
3.5071
14.853
-95.661
22.253
59.3
2.4955
140.16
-101.96
-222.4
142.85
26.356
-7.5359
24.304
39.622
-33.521
15.132
26.574
-29.067
5.5451
24.896
-26.725
1.7168
22.262
-24.476
6.1929
26.66
2.6466
-7.6721
-43.164
-6.0742
29
0.4505
-4.379
-41.659
26.024
85.499
-88.308
-29.542
-70.118
36.248
77.387
16.631
3.144
-85.267
-137.2
62.487
131.52
-100.71
131.72
111.34
-131.94
-25.708
18.949
-18.764
-4.1869
-0.16188
-12.258
41.387
5.7781
-34.874
21.484
33.696
-22.233
17.402
29.402
-0.56607
-45.46
42.604
40.118
-48.084
-152.57
40.274
136.54
-56.224
-87.692
3.8883
54.325
-46.524
10.422
25.801
23.237
-12.56
-10.202
57.224
-21.6
-35.755
28.495
-1.9117
-15.327
6.7251
-23.236
-37.72
46.529
50.536
-13.735
-6.5774
31.351
-11.467
15.499
26.543
6.7202
-33.932
-15.32
23.091
-22.964
-14.161
-35.806
13.464
8.3691
-36.719
11.801
-22.366
-8.0151
56.456
29.348
40.617
-53.84
-48.304
5.1673
25.903
247.6
-65.681
-68.96
-51.856
-116.73
-74.719
-18.461
-11.658
-136.66
103.76
166.46
-32.267
42.068
26.124
-41.668
39.255
39.988
4.4355
-23.814
-25.386
38.843
12.124
-37.44
-0.97171
35.064
-11.785
18.657
29.239
-72.646
2.6891
0.39443
-9.6711
-26.552
-56.783
71.985
1.0937
-17.011
-17.23
50.487
-46.304
29.779
-8.7483
-13.794
-37.812
50.482
9.603
-48.137
-14.15
42.309
24.807
-13.705
32.141
-25.363
7.2997
43.405
-68.184
18.662
37.407
-17.572
-17.396
9.5343
-15.074
29.243
0.34743
-13.407
33.934
-16.3
-12.524
33.545
-17.578
-19.905
-15.15
-35.231
21.517
27.136
-10.445
13.345
2.6451
9.5844
-6.8249
-39.041
36.623
84.123
-37.536
-28.323
-109.2
25.853
-9.0375
-15.075
8.3984
5.087
71.957
76.46
20.517
-145.55
-130.48
108.11
62.258
19.981
-24.366
-68.504
56.812
106.4
-76.041
-116.05
83.721
-96.855
-1.9811
130.49
39.433
3.886
80.455
42.132
-131.35
-100.03
18.601
-152.46
192.24
-14.437
-75.44
98.985
-43.752
96.552
57.006
-104.72
-119.65
22.052
57.043
-23.044
3.7706
143.98
-55.572
-77.442
9.3366
-1.5817
-53.497
44.026
47.191
64.372
-108.99
27.816
61.705
-72.174
-50.92
45.861
-24.361
29.013
37.948
-12.723
-21.228
-5.2125
14.215
-11.279
-13.92
24.327
-15.283
4.1757
51.895
-28.836
-18.832
-34.968
32.291
16.097
-35.328
22.98
32.2
-3.835
-22.552
-11.105
15.831
7.741
-14.412
-33.005
27.742
30.708
-32.195
1.9176
14.004
5.4567
-34.226
6.0739
24.954
0.54882
-37.519
-2.1997
26.923
5.0611
-29.717
1.4569
29.776
0.23111
-21.25
-39.338
22.847
22.601
-10.559
9.4605
34.097
8.4416
-42.652
-16.155
21.748
45.053
-13.856
-42.76
52.68
-36.066
-5.0672
16.668
-12.367
3.4054
-31.578
34.704
1.3705
-47.12
5.8408
15.596
-6.4028
-19.013
29.329
22.1
7.0296
-37.506
-15.594
31.126
33.335
-8.16
-0.66523
28.697
-30.098
-37.934
-0.62863
44.259
14.275
-21.46
-23.776
11.156
-0.70907
-32.469
19.432
11.496
2.5669
-26.778
17.255
20.339
-11.624
-38.138
9.8622
24.386
-0.9362
-24.313
14.394
25.724
4.3997
-37.331
-0.57246
65.387
-13.055
-25.847
-9.0758
-54.151
-4.8043
49.674
-2.824
32.77
-19.43
-31.202
34.913
9.8363
-34.716
6.7243
41.664
7.2654
-47.88
-37.907
53.692
33.135
-35.51
-24.345
38.89
-11.249
-16.68
31.719
-26.12
-44.933
43.115
35.429
-32.936
-0.38632
1.6503
-32.835
20.638
28.344
-3.9746
6.3422
14.998
-32.647
6.121
25.544
-17.185
2.7378
75.425
38.251
-22.447
-64.429
-67.388
-17.157
1.602
7.9595
29.851
-7.5167
-27.721
10.569
4.2999
-3.3219
26.609
14.926
-13.162
-23.211
9.2948
25.224
-1.6032
0.464
4.9089
-24.639
-1.0318
23.981
27.787
-58.508
9.1062
5.8765
60.949
-2.0941
-112.73
31.377
16.437
9.8084
13.982
-59.776
106.19
-83.588
-67.828
-18.392
126.92
18.41
-136.62
58.014
104.48
-46.025
-11.765
11.815
97.432
-140.66
-74.51
151.32
15.464
-17.368
40.799
15.521
-125.49
23.163
-92.716
60.726
-122.92
5.5729
127.95
-27.703
110.09
104.17
-145.49
-47.173
7.7884
37.683
-16.387
-21.708
-1.6051
82.367
36.092
-89.687
-59.101
-31.464
87.508
110.93
-119.55
-71.237
113.12
-21.26
-6.6394
-58.936
33.691
-5.134
40.153
4.6973
-64.09
-56.708
141.63
86.41
-78.291
-234.69
128.95
119.98
-4.9741
108.73
-148.62
-90.951
-211.07
204.89
56.051
-8.4134
30.716
-27.972
-99.615
-5.354
101.04
32.098
-22.787
33.092
6.7448
7.961
35.268
13.773
-21.07
-27.029
43.644
-97.639
35.217
-6.3457
55.632
132.83
-27.098
-49.688
-90.636
-127.97
-166.9
-4.6595
165.55
67.532
43.229
-58.655
126.05
36.374
-121.28
-1.1723
58.749
178.26
27.978
-236.38
-73.744
-55.973
93.969
9.0376
24.247
-28.912
-18.503
2.0495
5.9918
12.35
-7.2441
31.824
45.052
44.664
20.104
-88.447
-121.87
-35.845
90.425
39.26
-6.8975
-13.895
35.366
18.468
-43.304
-0.23503
19.31
1.1657
-10.461
-10.718
0.43229
-20.169
19.043
5.7983
3.7069
-11.142
-29.719
48.66
16.586
11.956
40.761
-51.798
-89.897
14.304
8.6028
3.4454
14.243
-8.5564
15.54
-8.6154
-3.8588
12.796
-20.671
7.5245
35.498
22.824
-10.564
-4.2131
7.1531
-22.769
7.4296
15.787
6.0978
-7.9059
8.4029
6.8319
-3.1813
-21.482
7.9244
16.646
1.7267
-12.435
-4.3124
6.6905
-2.4549
-17.128
-9.2728
13.15
0.1283
-13.076
-3.6377
-1.8625
3.1417
21.814
15.618
-3.9107
-11.301
-13.673
5.3658
5.9045
-10.162
-16.57
16.623
3.7785
25.294
26.162
-3.2549
-30.679
-60.718
10.765
7.8385
-0.61184
-15.394
7.0077
0.99147
-0.70599
14.799
16.387
-0.69882
-16.31
-0.28808
12.255
11.004
-18.931
-17.905
18.09
13.15
-3.4482
-10.766
-5.6281
-9.1041
10.788
24.064
11.094
-32.975
-9.2919
28.428
-2.1509
-16.916
-8.0741
20.193
21.399
5.2681
2.3404
-7.007
-10.078
37.953
33.877
-34.227
-36.677
6.61
-10.972
2.4905
-50.057
-14.057
64.59
-66.205
-3.8905
7.9311
10.509
5.4041
121.91
89.453
-174.25
-51.564
-7.2016
7.403
2.6901
16.941
-21.237
0.20396
6.5238
-7.7402
6.7178
14.808
-4.0161
11.691
20.305
-5.4482
-1.9262
12.456
-4.9612
-1.0513
12.322
-10.68
0.54677
11.911
30.751
-19.029
-79.464
29.027
112.92
84.677
7.6331
-25.428
-26.309
-28.423
-57.91
-37.173
-42.517
-16.899
-111.39
-59.303
4.9726
-28.252
101.12
44.061
21.097
13.131
26.788
4.6866
31.528
22.729
14.117
25.83
-10.534
-4.9225
8.476
4.6034
-37.159
-27.731
59.962
-66.482
-1.3
-4.9736
70.953
8.8442
-0.10197
117.42
80.339
-149.97
-176.71
-93.282
23.346
39.066
22.733
15.79
11.398
33.307
24.68
-51.831
-40.264
77.901
72.046
14.24
-84.795
-28.652
49.967
67.685
-65.472
-39.92
9.6014
45.966
54.135
-41.484
105.7
-15.828
-217.81
-33.29
76.989
-35.087
134.47
-21.909
-37.409
-46.202
-95.964
31.594
75.047
-5.3075
7.1475
2.5381
1.0842
8.2681
5.5875
27.04
-50.034
71.815
51.348
-55.198
-52.395
29.201
-78.059
145.93
-9.3502
-215.26
117.35
92.165
-99.852
46.002
5.7133
116.38
-39.508
-167.4
23.592
75.197
-1.8049
-4.1512
-39.372
6.817
21.614
-28.365
22.156
12.363
-10.285
11.812
36.73
-57.179
-58.465
-14.993
85.449
3.412
40.891
-91.23
38.586
-3.0814
-40.887
43.232
33.099
34.08
-38.76
-23.803
30.865
1.1714
-55.207
-33.88
39.151
-6.345
86.74
36.692
-76.329
-33.133
-6.4741
52.373
-17.473
-40.636
47.997
-17.349
20.747
1.4721
60.461
-39.224
-17.7
-170.92
36.517
128.33
-37.704
38.45
-63.408
3.6037
33.766
28.942
-38.103
-15.454
64.519
-38.266
57.002
-10.789
-59.188
4.6672
25
92.849
26.714
-107.62
-35.562
-46.47
-173.98
96.004
68.273
14.579
47.122
-0.095457
4.9209
-67.086
-2.0549
49.471
-6.6124
0.4583
-10.891
31.644
12.203
-5.3509
25.791
14.502
-27.684
-4.4553
21.386
6.5011
-18.744
4.7565
13.128
-7.2074
-18.103
8.7005
6.3015
-5.7537
-0.20452
6.6936
-8.8445
-13.738
13.787
-4.2115
-8.4414
12.432
15.084
-18.495
-14.872
7.6248
-0.89245
-12.543
4.7188
10.686
-5.3466
13.853
10.033
0.10358
-3.7674
-7.9977
-0.98873
-3.7159
5.3968
-15.163
-0.52634
15.916
0.33182
-3.3803
-25.336
2.5893
15.471
-2.6612
-8.6379
-13.729
12.437
1.0826
-11.019
12.129
10.748
-7.3754
-16.89
5.9234
9.8279
-9.551
-13.742
0.41562
21.519
-2.5815
-15.165
2.6623
13.098
-0.59614
-7.1809
24.729
25.782
26.373
25.339
-60.569
-36.006
-4.549
-24.269
-18.69
16.343
23.26
-2.9829
-5.4246
8.8351
6.7787
-8.2406
11.997
7.3176
5.4211
-17.344
-14.965
12.806
13.542
7.565
17.916
14.699
-24.051
49.726
-62.389
-60.819
-10.919
2.3768
38.944
16.126
-0.13775
-5.6351
-5.4911
-12.622
70.994
9.5765
-50.286
-35.919
-0.63327
1.2964
3.1803
-10.684
39.58
7.1598
-5.9967
27.808
24.125
2.4448
-54.153
-9.4881
-4.6662
-24.208
-10.361
31.785
47.973
5.8031
-44.059
17.619
14.373
-22.184
18.499
23.392
-22.425
-50.605
9.2095
51.117
26.21
25.727
-45.389
-78.877
-50.316
-33.633
44.61
2.5773
36.68
79.576
1.6383
41.659
-56.497
-74.529
-6.6669
4.8955
-9.8708
46.744
40.355
-56.246
3.9908
-28.123
-23.923
75.595
-43.728
67.438
28.453
-72.923
32.743
19.91
-47.036
2.5669
21.943
-45.084
11.6
27.514
91.24
-87.583
-34.187
54.24
-14.663
-51.151
-42.581
-17.077
31.951
2.2053
24.942
55.567
25.408
178.91
-47.123
-126.61
-56.352
16.132
-40.361
-35.39
19.079
58.445
103.84
15.85
-169.58
130.18
-39.617
-273.72
143.88
75.157
-6.3235
-18.794
11.59
20.92
8.0371
-15.363
-0.71802
2.589
87.635
-33.255
5.6077
16.415
-51.303
-56.179
4.5225
-3.5776
36.673
-1.623
-67.711
50.694
74.072
114.2
-102.69
-234.98
-182.29
96.545
160.09
93.701
8.7235
-30.353
12.116
-6.6447
-14.358
67.546
7.057
95.978
157.87
-252.23
13.65
-21.089
-110.66
41.2
49.417
-61.957
22.852
3.5446
-6.9894
23.984
-22.667
7.2309
28.473
9.5439
-25.817
23.597
14.261
-102.36
36.106
54.657
2.0819
-52.525
-17.641
-28.386
24.692
-10.289
0.89175
47.918
25.012
-23.955
66.795
50.377
-16.346
-49.519
-7.2535
-21.181
11.179
-8.4506
12.846
12.041
4.0106
-34.712
-16.92
11.356
-20.297
18.72
35.296
-34.844
45.464
-29.393
-68.735
-0.89443
6.3883
72.611
31.926
-67.406
-22.575
-57.001
20.943
69.613
-9.3277
29.961
55.321
-84.499
17.519
-3.9905
-88.784
47.696
20.126
-7.5664
-40.678
41.93
33.627
74.561
25.867
-49.94
-196.07
-26.125
181.58
-23.165
-15.207
-21.97
10.37
130.21
-157.73
23.615
48.84
26.716
-92.627
60.463
48.942
-51.367
-27.786
-0.7669
-33.177
-9.7107
12.565
39.635
7.5352
1.9588
-23.916
-7.2458
-13.459
12.727
-20.703
52.88
-12.232
-11.171
41.548
9.0131
99.992
25.384
-114.67
-36.114
-15.863
38.34
-54.666
0.45485
28.071
-29.187
14.268
-46.02
27.269
50.604
19.8
17.952
-75.738
-25.297
-3.564
75.947
-40.628
40.691
6.4041
-4.4769
75.504
9.0501
-161.02
-61.178
23.317
39.755
33.524
16.013
-2.4241
-1.73
39.811
-6.9639
-77.366
6.8576
27.888
-5.2027
-42.772
20.864
83.169
127.19
-94.317
-94.505
-57.771
-22.929
49.613
-6.4832
19.875
36.113
69.052
-27.62
-88.251
3.1342
28.154
4.2096
-24.164
39.242
91.149
-89.125
-53.026
65.868
-52.04
52.03
7.1683
-14.815
-23.383
-59.624
63.792
43.094
-96.218
28.975
22.877
33.373
11.468
-58.096
14.26
-1.4056
21.271
-82.507
18.768
22.39
-31.403
49.338
6.5151
-23.312
25.56
17.913
5.662
-52.478
23.161
47.749
95.185
-70.659
15.306
0.87887
-92.644
-34.343
71.187
-8.3553
-46.441
-60.514
37.671
-15.023
38.432
-30.12
7.7121
11.863
-36.478
35.43
8.9296
-16.51
-4.2735
26.211
-5.5482
9.4395
21.181
14.887
1.8679
-24.619
9.0924
17.665
11.93
-7.7493
-11.152
14.378
8.401
-10.992
-13.15
8.0092
16.855
-0.022499
-15.059
15.686
6.3254
-14.497
-21.566
8.8341
17.594
-11.156
-12.879
28.794
42.057
65.775
-6.5121
8.2637
-34.343
-109.57
44.013
-80.696
-39.36
26.649
-81.584
22.745
-8.0094
36.304
22.492
13.062
0.92561
38.836
22.3
43.101
-34.979
-133.57
43.772
29.532
149.3
-144.9
-18.713
-11.054
54.203
-21.729
-29.2
17.886
-36.314
44.085
22.486
23.341
8.1557
102.67
-13.623
-94.748
-48.002
-41.862
86.29
89.153
-26.668
-188.26
85.669
-68.177
-25.256
127.35
-13.701
-44.79
21.611
-27.563
3.2115
-29.788
47.73
17.162
21.546
37.028
-88.06
45.606
-28.861
5.324
-15.255
19.184
60.364
-7.9628
60.06
-17.767
-102.61
-6.8835
32.056
48.106
154.22
-83.427
-120.82
-49.495
-2.1034
39.961
9.4607
-23.863
39.193
-16.913
8.0329
-3.0382
6.0285
-26.475
-16.769
49.452
-4.1854
-20.299
92.166
-42.723
-89.076
-50.716
30.629
21.556
25.276
-4.8748
10.685
26.621
14.76
-23.924
20.457
28.047
-1.0224
-5.2891
1.4473
-5.72
9.7536
0.79685
-18.841
3.8693
14.474
-26.798
-15.701
6.5139
-8.0247
12.767
0.86767
-11.648
9.7304
-8.888
8.8413
7.4156
-4.2873
-11.328
35.082
65.725
-7.9162
-40.908
-107.96
18.967
-28.792
-17.531
27.457
63.44
1.1817
37.518
-28.754
-59.582
-13.903
33.482
11.55
16.829
-1.6749
-60.651
22.848
110.75
-60.046
-42.793
-2.0815
3.6581
-0.53799
28.296
27.209
-78.804
-25.903
22.793
6.2363
9.7351
70.406
-0.90687
9.189
-17.29
-33.285
-39.616
10.863
20.452
2.9134
8.0137
12.163
-32.874
-33.447
37.007
22.916
16.498
36.877
96.182
-52.681
-111.25
-156.11
94.591
56.019
93.226
10.854
-87.102
32.577
-63.76
-48.992
1.9242
35.826
-8.3721
38.447
30.444
99.796
-49.196
-88.324
78.479
-37.166
-22.431
168.45
-65.131
-306.05
94.553
145.63
9.1797
57.452
-197.02
-16.283
65.536
-31.934
37.209
-6.1077
92.463
20.488
-143.92
-59.179
171.01
-15.24
-52.463
51.533
-26.649
-109.35
82.596
-22.399
13.179
63.635
-25.048
-13.273
-6.5996
37.234
82.016
32.416
-22.589
0.20563
-130.52
-51.361
76.424
-11.252
-23.551
53.805
20.653
3.0527
10.769
-45.768
5.5795
23.972
8.1891
-65.597
-27.619
-28.569
18.017
104.87
56.972
-97.964
-144.83
55.474
33.428
-37.989
54.211
29.492
43.639
146.48
-129.88
-162.61
70.115
38.372
-28.162
-51.807
79.209
-6.8397
-65.778
29.437
64.251
5.6647
1.5878
118.84
-163.26
25.384
-33.01
7.9345
60.682
-50.258
-93.609
25.316
59.437
16.028
-58.769
77.853
74.268
32.44
-121.26
-137.9
83.201
-30.346
51.139
28.594
-27.207
-0.52228
69.327
69.04
-76.094
-48.47
41.959
-76.879
36.244
10.876
-18.337
-60.529
48.471
7.3541
-5.0643
20.461
-31.309
3.8172
31.678
10.82
-46.618
42.575
21.467
84.271
71.971
-150.08
-30.687
18.981
-17.506
-107.05
66.966
54.943
-22.88
-55.5
42.024
9.3873
1.4838
-27.881
29.196
-11.483
5.5256
80.371
27.062
-99.998
-35.818
20.113
19.347
9.817
55.129
-82.823
-12.215
2.9021
17.154
38.461
18.946
-95.416
12.294
50.269
9.6046
55.23
-16.314
26.082
-111.17
-63.155
-75.908
68.71
148.46
-80.877
-0.79789
-22.528
-12.704
20.09
21.335
38.224
-7.0732
-4.3156
33.178
-28.836
12.068
-15.175
98.208
17.751
-98.734
-6.7595
40.924
-28.16
-175.6
105.83
29.273
-36.155
17.281
10.586
-12.643
10.439
64.378
-100.41
-14.565
84.856
27.877
-120.52
-5.9124
69.169
-61.577
29.348
46.161
-6.9792
-8.3046
48.837
38.44
59.157
-39.583
-86.219
-10.369
10.203
38.6
-19.064
62.574
92.164
-161.31
-89.644
4.1468
8.0572
2.4278
-25.856
54.65
30.296
-30.758
12.03
22.659
3.0728
-12.013
17.942
22.009
-16.896
27.416
-4.5651
16.578
19.915
35.796
-83.336
-58.059
20.691
-7.3733
-31.772
14.933
42.784
61.214
-62.333
-31.871
15.658
-31.589
63.63
-12.848
-46.747
20.014
9.795
-11.354
-16.846
45.11
9.9935
-10.757
58.795
15.064
-118.69
9.7924
29.079
1.5154
-27.533
-15.174
30.587
1.3563
-6.0409
13.579
-14.353
-28.762
35.236
66.552
-86.429
-27.958
31.5
-55.199
18.891
46.195
10.907
-24.492
-29.096
15.762
52.982
-49.163
35.79
64.671
-74.164
-5.9046
-6.1044
10.906
-36.187
8.8887
65
26.435
-33.629
29.738
-10.3
4.4696
-41.645
45.112
-38.296
-63.211
33.19
15.963
-12.865
-31.927
9.1144
58.505
-5.4074
17.427
-24.803
-14.767
3.4023
23.71
-12.652
-93.328
7.3033
31.825
2.1955
53.195
128.16
-85.528
-142.85
7.0929
105.44
-9.5726
-84.869
65.728
6.6016
11.76
-29.329
6.5787
21.621
31.104
-17.98
-8.2487
14.625
-74.57
51.494
18.667
14.126
-66.584
-6.2736
42.502
5.5702
-16.257
-9.8014
51.092
-45.475
55.181
39.782
-74.36
-5.9061
-46.133
14.585
-44.875
18.74
65.827
40.351
-44.161
-69.685
9.0085
19.395
-5.6823
11.938
52.558
-6.5307
-55.901
51.267
40.783
-28.048
-49.814
50.401
-49.769
-7.8876
58.974
-23.546
-43.23
-8.2371
22.021
-21.768
-14.382
64.356
26.89
-50.807
14.945
12.625
38.305
24.408
55.997
-83.901
-61.393
-44.249
-12.016
0.1489
41.509
22.244
14.926
-133.46
85.225
26.765
14.272
-19.884
47.884
-16.191
-91.83
39.479
-1.9958
-4.4608
58.565
13.235
-6.2325
-4.3109
15.838
-55.421
1.0083
40.043
-1.7037
-49.823
73.14
112.96
-93.396
-14.492
-80.586
-57.645
97.343
-19.662
-37.216
-11.479
54.5
-21.868
-5.8393
39.714
10.871
20.736
18.926
-25.138
-50.413
60.386
29.604
-68.611
35.88
-43.642
2.6864
-26.115
29.344
-23.018
10.313
53.04
-20.519
-27.819
-12.076
27.05
26.542
-79.682
62.299
45.536
-80.979
24.458
-55.146
9.0393
61.979
44.772
-100.09
30.533
-98.655
53.637
4.7876
-4.9743
25.794
31.47
3.7334
34.115
11.089
64.643
-13.8
-112.73
-43.589
17.485
-18.155
-9.4393
58.582
-2.377
-15.318
32.278
-16.151
1.3486
3.4171
13.395
9.366
32.029
-10.75
-39.061
-1.9427
1.6368
28.029
5.46
56.551
-87.919
-23.453
-38.265
1.8576
40.727
-21.277
-9.7873
47.786
-40.713
-5.0692
67.135
-31.505
-43.637
84.225
-65.097
-30.307
25.297
16.019
-16.649
29.843
47.832
-62.89
3.3523
1.4583
37.299
-38.08
43.722
20.591
1.399
73.772
-15.077
-136.89
5.4359
25.201
-15.068
-15.191
33.286
12.771
102.36
37.531
-204.8
-13.41
-0.34554
-11.344
34.91
86.099
-38.68
-74.744
-10.177
-4.4495
20.684
29.792
43.477
70.314
-102.07
-54.343
53.415
-43.861
48.543
10.219
55.225
-47.742
-4.1613
65.48
-30.494
19.873
-98.361
-8.9951
34.205
-29.896
5.3159
55.229
1.5643
-21.937
18.399
19.579
-9.7254
-1.1529
45.671
-23.647
15.408
-0.87844
-62.595
16.714
19.407
4.5574
12.141
-16.158
8.7203
-32.751
-29.002
-25.663
13.85
-10.654
-27.228
54.06
27.691
-40.439
55.085
40.629
-11.054
-37.588
-38.255
2.2911
-16.456
86.261
-10.029
-100.76
17.68
6.3043
-27.037
91.986
-78.906
55.326
20.763
-52.51
-24.803
58.153
26.604
-9.0591
-66.478
-0.95644
25.387
-1.0027
29.089
7.0424
30.674
21.105
3.1186
-38.183
-68.709
15.92
13.43
-24.486
-11.988
54.334
25.009
-50.705
-3.6661
85.45
-14.908
-56.192
-93.288
27.917
35.564
24.833
6.3103
-31.486
70.773
47.31
-10.548
-179.94
-1.5949
140.5
-36.131
-164.49
120.3
22.955
37.434
-3.4196
-64.049
0.0064379
53.283
4.4244
-15.501
7.4723
25.748
0.88626
-21.416
9.7705
-7.3692
-7.0217
35.228
-11.302
-15.684
-16.718
27.914
-6.8707
-3.4209
3.2096
37.235
-12.159
3.6628
9.0074
-37.024
30.078
28.067
8.2548
-41.514
-34.929
43.217
-14.057
-20.135
-2.9938
-20.528
-4.1176
8.8925
38.07
-24.258
-0.27831
22.064
-26.991
-35.412
35.858
-15.835
12.759
22.616
0.10267
-37.988
21.229
33.225
65.379
-30.84
-78.494
-46.879
23.402
-11.735
2.3894
43.613
12.985
-22.726
14.349
-21.819
32.966
-97.343
-17.602
106.73
104.35
34.35
-133.14
-127.6
56.205
111.41
-44.692
-142.82
123.9
57.342
-96.039
46.077
25.568
58.538
-60.788
-23.633
13.611
-57.137
-87.342
92.104
33.325
-44.289
14.297
15.005
26.692
-42.706
-33.175
34.735
31.33
-8.6004
-54.234
13.322
16.359
21.053
20.037
-7.0224
3.0062
16.546
6.472
31.553
18.969
1.8461
56.888
-41.768
-15.821
-53.046
-47.848
13.704
21.554
30.935
13.181
-23.526
-21.788
5.8974
56.944
8.0967
-19.049
-32.016
-34.257
-12.259
-13.005
28.433
0.20183
28.809
104.63
-43.799
6.447
-29.751
112.97
-32.9
-94.266
-419.12
-160.39
428.83
49.14
79.294
-23.084
-120.26
39.042
105.75
143.01
-139.47
-20.063
-16.495
-27.399
2.3651
17.092
-0.1632
-16.403
-10.425
13.036
14.913
-13.256
20.517
74.654
-4.1721
-21.036
-40.923
23.378
-4.6182
32.248
36.37
-104.78
17.571
-54.806
4.9895
28.955
93.832
-17.084
-130.98
1.5869
22.98
-17.999
33.185
100.85
84.914
-59.541
-47.216
-11.266
-27.221
36.987
5.303
-125.8
-106.13
122.19
91.15
-2.2208
-61.926
1.1814
19.166
24.789
59.961
-5.9439
-67.115
-62.833
-17.266
121.01
17.339
-95.029
-66.899
67.056
-16.653
-32.535
89.232
113.77
-78.94
-60.387
-4.9647
-63.614
80.753
-15.189
24.867
19.517
-89.568
15.835
13.105
60.601
-0.12609
-33.841
34.493
7.2536
-62.722
6.4501
61.166
2.3193
18.485
203.38
-105.37
-59.892
-113.19
-114.22
123.94
-49.705
32.917
3.1379
13.125
2.5121
38.665
72.651
-126.81
-76.104
60.041
-1.4745
8.3113
18.795
30.702
-4.8151
47.114
-17.263
-43.994
18.398
-0.15688
-7.4368
-8.4236
19.501
-39.028
25.338
-5.7164
-5.8851
98.195
50.966
-141.9
37.093
-43
-31.876
6.2159
58.95
-9.6904
-42.681
35.285
22.002
-10.683
-52.865
42.505
12.731
23.824
-80.397
-24.536
82.218
-141.11
148.18
-20.171
-50.029
24.485
8.1545
-5.5795
-25.023
39.068
-20.817
69.494
-26.418
-51.174
66.555
24.449
-60.043
-53.208
74.696
-13.382
-33.422
4.4392
-67.638
58.117
-3.9879
13.236
10.463
22.184
-3.6457
21.582
60.754
17.686
-61.107
18.617
-17.137
-122.43
13.732
-0.55878
7.8042
39.032
-13.296
0.090622
5.663
41.887
-25.492
-41.487
35.84
29.512
18.897
-20.141
-3.6324
-41.445
17.156
-24.429
49.908
121.4
-150.86
-21.353
-26.121
-4.7657
69.612
3.6541
-63.715
38.422
15.142
18.569
50.24
-18.275
-25.294
38.533
71.678
-110.77
-42.792
-4.0185
15.712
-72.932
18.054
93.59
-47.37
-21.492
0.21386
17.442
-16.147
-13.864
44.549
7.0381
-21.099
33.848
9.3278
-11.446
-17.44
-21.515
8.9796
-23.161
23.831
1.4996
6.8297
41.334
-28.077
-12.75
41.598
8.8399
-39.332
-23.126
36.801
28.36
-48.433
-8.4249
59.346
29.288
-31.033
21.971
11.14
-59.104
-20.235
-17.761
-19.841
22.293
-13.77
-54.052
71.2
-10.513
-33.88
71.269
-15.495
-17.092
6.2968
31.147
-31.872
24.264
129.46
-7.9556
-27.368
-198.66
-123.51
127.72
15.413
52.973
6.7354
20.315
-13.562
-14.392
4.9051
5.348
56.588
84.785
-86.962
-112.22
-4.0064
-2.316
31.326
-4.1419
46.241
35.906
27.208
30.786
-0.17092
3.86
-56.808
-50.809
28.327
84.999
4.8893
3.1819
-61.5
-13.03
90.702
-113.76
-106.61
11.86
30.307
20.506
-33.553
25.03
19.51
36.989
-2.4547
27.454
-9.7648
-55.682
-66.3
20.436
-26.12
19.323
-1.1478
-7.4379
16.886
43.132
-38.941
1.4957
20.162
17.59
30.865
99.806
172.06
-258.57
-46.697
101.65
-110.52
-12.498
-15.787
0.42681
21.277
0.98447
17.485
17.924
-22.353
59.398
-5.2503
-3.5438
-1.8061
51.603
-47.041
-8.8731
-9.3658
0.39014
23.978
11.333
16.698
-52.863
-22.571
-7.313
-13.6
42.064
57.535
-44.31
-43.963
2.3862
18.964
-17.007
0.47867
33.25
42.687
41.799
-79.508
-48.495
-26.348
8.5093
8.9733
9.8106
24.986
7.7308
39.534
8.8188
-37.532
34.14
-20.746
-33.141
29.025
-48.43
20.402
-30.926
25.024
74.737
-63.449
1.1758
-7.6673
-39.689
42.625
-8.4823
-16.414
-4.8428
21.046
3.7935
-33.173
-1.9913
23.216
-0.6628
31.573
-1.3153
-4.7256
5.6904
70.229
-7.2579
-31.509
-22.121
-0.9053
30.831
54.55
-2.6646
-65.944
-22.372
-45.831
-11.808
-17.495
52.597
-46.309
43.143
53.368
-103.73
-71.729
98.998
85.267
-69.215
-8.3133
22.698
-23.583
-32.969
-5.635
62.599
-13.03
-28.054
47.009
8.4494
12.68
10.835
6.7729
-5.8155
-8.6017
0.70112
-44.866
22.143
21.841
-16.737
29.846
88.16
-52.699
-13.705
7.6327
20.629
89.548
-88.775
-144.57
-104.68
-160.87
232.76
36.68
-3.1424
4.2165
15.542
-9.1324
-9.2908
82.216
-26.632
-78.988
29.028
14.702
19.219
36.4
229.9
-84.939
-126.72
-51.733
42.913
-51.689
35.185
-41.86
-26.747
6.924
45.63
3.9217
-12.056
112.43
25.968
-100.29
-69.963
7.5685
36.043
-22.12
-22.913
26.263
1.2809
-10.596
26.977
3.8996
-21.836
70.978
-68.319
17.234
31.617
-44.578
-11.646
5.1137
21.159
12.439
-24.657
0.52065
-37.898
10.001
-11.638
-0.91029
26.579
42.571
25.973
-33.739
-11.462
-31.564
15.965
32.709
-41.943
1.2423
39.195
-12.863
-5.2746
11.895
24.368
41.202
-98.82
75.098
8.548
-27.822
68.712
-37.527
-321.64
92.026
122.02
14.027
-24.003
-0.62392
17.251
-13.824
60.836
-8.6393
6.7258
76.104
137.6
-87.961
-137.96
-43.807
30.46
-14.473
-14.704
-16.267
42.506
-6.0601
29.68
137.42
-80.185
-48.123
23.581
-66.581
2.916
26.062
-6.4593
-34.559
3.5907
-6.2112
-5.5593
40.953
17.893
17.493
-28.46
7.0212
12.25
11.25
-15.441
32.259
-17.304
-92.346
40.542
73.683
32.113
-26.76
34.787
-62.668
-222.36
77.36
111.63
-81.176
89.362
4.6105
-56.196
27.744
26.142
-23.759
102.03
25.327
-99.911
-7.4364
-6.4782
23.99
-72.114
18.059
-1.3533
13.707
36.729
4.303
5.8868
28.283
12.93
-34.332
-26.653
-39.352
4.4016
3.3502
21.195
10.973
-44.343
35.034
16.342
31.275
-26.561
-33.451
-3.1781
29.402
-56.526
53.836
88.205
-107.04
-36.804
59.705
-77.262
-27.702
-1.7935
-17.871
49.289
-16.186
10.979
65.675
74.095
-33.494
54.902
-12.791
32.928
-26.586
-21.38
-5.04
-1.7723
-69.242
5.1117
-3.9001
-27.752
55.44
-10.722
36.59
-37.968
-20.134
10.241
-19.677
-12.325
9.1887
112.99
-39.225
16.632
1.2452
-61.012
64.408
88.06
-91.956
-243.51
-43.231
48.725
127.44
32.274
-74.282
25.125
40.076
0.37153
-14.488
-9.9718
46.45
0.34562
-12.279
43.423
-46.208
7.7948
39.005
-10.089
28.316
36.655
-34.485
-10.337
-41.819
23.821
0.017228
18.836
-12.493
-12.634
36.102
103.34
75.918
-89.561
-120.6
-2.5892
11.275
-20.112
-64.97
-56.799
-129.28
90.227
158.47
-74.864
-25.249
121.6
-44.273
-51.58
29.222
36.26
23.933
59.32
-88.714
45.719
-38.181
36.766
80.222
-130.15
-18.133
30.588
36.75
87.087
-92.315
-141.92
-7.6463
80.642
-3.1267
16.413
-3.2401
-25.952
29.767
-3.7918
23.973
30.898
27.323
-5.0946
-69.177
121.17
37.05
-131.62
-62.216
-72.883
36.145
33.213
49.331
-21.326
20.006
22.627
-16.04
-11.607
23.885
-6.1948
-6.1267
15.459
20.256
-7.2463
-5.9384
16.604
-35.566
1.2968
19.434
21.601
-24.599
-3.4274
-35.292
-1.6113
39.828
-34.553
32.86
-22.024
17.806
-16.957
28.202
7.2895
-28.326
17.537
4.4921
1.8825
10.764
-36.968
-27.538
42.319
1.2953
-46.412
86.934
-66.734
-9.8277
-13.244
-1.6418
-22.881
45.759
72.761
-63.977
-0.26611
-34.057
38.401
17.302
-76.19
5.8883
61.974
-24.594
48.259
20.087
-113.89
20.472
125.5
-80.495
-61.347
-13.172
24.06
11.54
27.425
-2.2115
15.395
-22.278
15.131
3.5076
21.814
51.932
-40.935
-68.281
29.483
0.0039241
-3.5898
-31.359
100.85
17.558
13.451
-71.92
-108.81
-83.844
149.59
-12.147
20.723
-50.278
19.952
42.392
25.121
-43.882
0.87313
-43.619
84.666
-4.0639
-25.189
59.182
-28.561
-37.606
-25.302
12.18
-4.979
27.173
23.361
-26.308
-9.8681
29.101
-7.0404
-14.622
9.6993
-18.296
-9.277
4.3371
33.182
28.676
-6.5734
4.7772
8.9641
-19.323
5.8264
6.6326
0.35857
-8.2575
-3.0145
12.992
-29.284
-28.914
-0.0043048
1.1526
-0.20248
35.918
22.415
0.094805
-2.0127
-3.1834
-44.745
1.2457
35.333
-10.137
2.5681
5.1087
-23.196
52.388
-34.555
-37.369
0.25792
-29.447
55.501
16.237
-31.445
39.19
-29.837
-13.101
-16.42
-36.149
-15.379
20.078
14.342
98.698
9.1879
-54.18
-3.5447
0.3729
-66.941
45.384
88.602
-24.225
42.329
-17.533
14.375
-35.597
-82.439
-26.96
14.939
-47.481
-154.34
147.15
0.85723
99.589
26.331
-23.469
-29.84
30.957
-45.189
-53.945
37.351
53.256
-13.041
29.012
2.3838
7.3802
-63.74
4.3797
42.807
12.549
14.658
-47.617
-25.915
15.179
-2.793
-16.84
18.46
22.223
-12.112
10.093
25.163
-7.4717
8.3033
32.118
-0.27901
-16.352
20.989
-3.7195
-14.261
11.892
-3.0002
-14.167
6.982
6.2742
-17.133
-6.9728
8.1671
-9.7892
1.8228
7.9255
24.189
-10.379
-28.667
-11.693
-90.719
6.2227
123.03
-71.141
-20.727
49.466
-41.489
14.367
-25.388
67.724
88.09
-98.968
-35.569
60.212
22.822
-37.793
-28.836
22.078
-54.136
136.47
-18.09
-259.52
104.78
48.547
19.252
22.646
-9.7068
27.582
-13.917
-32.826
29.788
-5.5483
-8.0795
16.105
13.243
-41.702
-3.3268
64.449
-7.8176
-85.406
2.1762
6.2474
-6.9979
7.5247
19.34
-3.129
6.3858
6.5669
-1.4016
-52.976
53.835
53.627
-40.556
18.151
-22.615
-8.5205
103.37
-54.044
40.359
-64.136
-90.894
46.363
6.8087
-62.092
52.901
9.3884
55.713
-16.451
8.0238
-55.382
-3.459
18.273
21.696
30.284
-9.305
-30.484
-54.114
80.292
37.649
-40.193
-5.8634
-3.8967
-11.518
-3.4983
3.9446
47.057
8.5707
-95.384
-22.716
7.5065
19.301
-20.571
-11.123
75.173
-49.62
15.94
27.872
-17.947
34.374
77.701
-95.302
-36.246
-29.517
26.934
82.176
-78.648
-51.543
57.543
38.526
182.81
-125.99
-134.71
30.225
-4.0769
60.141
-12.493
-34.799
28.346
-25.317
-0.87833
35.339
5.5426
46.43
-53.807
-35.304
-0.34492
32.828
17.624
-6.3161
-21.482
-0.48997
21.646
26.486
33.939
-84.739
-45.398
54.691
32.702
54.61
13.534
-76.12
17.307
30.522
-143.77
-145.35
116.8
61.501
7.7516
-35.855
0.75571
33.803
51.035
-53.154
-18.554
37.173
32.183
-81.079
13.306
52.149
10.67
32.408
-38.602
-27.173
-15.271
16.043
9.6806
45.32
20.505
0.33094
-13.398
59.825
96.176
-153.53
-82.689
106.6
-88.976
5.3477
104.71
-28.035
-15.712
19.466
-29.956
-56.068
2.2966
46.419
-41.371
-9.901
19.406
12.444
-7.9223
45.712
14.728
-80.655
-19.108
-8.4317
-5.9372
49.849
34.041
-92.97
13.348
-1.4078
-17.847
72.384
-20.679
-21.118
12.461
42.018
89.751
-6.1032
-88.218
-49.544
10.208
-4.5246
-50.086
21.99
2.8224
76.882
-25.734
-67.942
50.373
68.293
55.278
-101.88
-48.154
37.998
-58.745
23.756
22.806
25.759
-3.9648
51.169
-27.419
-19.452
22.703
7.0886
32.45
41.144
-11.196
-59.187
-95.746
-17.595
26.617
79.133
-41.227
93.94
-8.0849
-122.83
-5.7354
32.61
2.3174
-18.232
108.73
-43.044
-51.807
55.052
-110.03
48.471
36.091
7.1074
-65.389
10.821
29.582
-17.41
-0.98546
-10.835
36.725
24.772
-13.757
4.5525
49.13
-31.434
13.456
129.12
-35.74
-190.43
-15.595
60.122
152.74
-116.67
-169.44
27.352
30.832
96.181
64.496
39.461
-128.15
-140.12
54.166
12.988
30.578
48.741
4.9008
29.436
23.616
213.05
-139.96
-147.05
-8.3652
-1.5641
49.968
52.18
67.055
-63.724
-122.1
-39.791
58.738
23.182
15.72
19.817
-15.971
-10.262
27.369
-78.132
-38.594
18.329
2.4776
16.755
18.039
7.6087
6.3016
-8.5542
42.901
3.784
46.621
-6.4273
-24.193
22.006
-62.067
1.6773
-3.6626
-0.42438
17.259
2.4287
66.614
-57.224
-57.063
100.98
-49.952
-59.515
71.789
-8.8331
43.353
-31.598
-7.9987
-92.264
-17.622
33.894
44.577
-3.8026
29.843
16.464
-25.454
32.161
-14.702
-85.974
27.283
115.06
-35.985
-51.94
11.715
-23.584
-0.20427
10.135
-128.54
27.862
61.314
18.06
40.238
-13.599
-41.798
51.581
20.551
13.223
-21.986
-38.484
17.419
64.854
-41.617
-28.676
51.467
-38.843
55.615
120.61
-79.164
-115.73
-104.07
22.009
73.381
97.987
30.782
-39.863
-67.693
-166.55
-67.52
202.43
-62.968
26.089
41.826
-26.955
12.208
-51.015
73.344
63.178
15.923
14.029
4.8561
-111.26
-59.648
67.825
31.304
-13.853
-15.043
65.864
-5.4008
-10.103
7.8698
1.6929
33.583
20.8
-29.757
56.833
-11.678
-17.869
24.72
40.707
-36.673
-231.35
-141.72
171.24
101.2
-37.625
-8.0123
-3.4549
-27.224
19.451
89.147
32.479
-132.21
-15.032
68.124
57.755
9.0763
-77.006
22.731
-46.042
-49.345
64.766
26.748
54.014
-30.397
-7.5987
12.656
-20.294
38.453
50.339
-23.194
-89.896
26.607
8.3351
57.141
-112.11
-59.321
18.639
-3.6845
-0.041086
30.688
25.955
12.31
14.906
-30.208
31.666
13.09
-78.191
40.674
-38.056
10.22
15.574
3.0052
-34.93
41.864
7.0725
-48.13
31.285
-32.963
26.963
-17.013
-2.9353
87.662
11.567
-21.377
19.442
38.37
-18.344
3.9839
-21.789
-41.362
47.272
45.511
41.707
-223.22
-50.411
11.874
80.774
69.663
-49.989
-38.114
112.57
64.441
8.4007
-54.774
-85.813
-69.063
-142.52
2.9365
116.52
55.346
-107.2
52.328
54.627
42.826
35.553
-14.73
-12.761
43.572
165.87
141.69
-291.08
-57.449
-123.38
94.012
71.75
57.739
-73.063
-21.051
-91.952
-130.51
132.36
80.55
-25.719
-13.797
19.612
39.614
31.738
146.58
-145.05
-150.78
125.74
-43.935
14.572
68.229
-126.74
-40.99
49.606
59.467
49.077
-60.786
-92.71
47.347
17.407
-7.4204
0.61294
41.366
-17.559
22.053
-32.843
13.714
13.94
32.088
-47.6
12.726
34.005
-31.269
61.439
55.314
-35.457
-41.484
-22.449
-9.0499
54.538
-31.043
-19.933
46.57
46.429
-49.928
-76.46
-26.212
-113.21
58.301
57.283
45.542
19.023
30.489
-51.373
-86.372
13.936
28.128
-6.3292
18.858
-37.539
-10.697
20.374
17.879
5.8661
6.1691
238.78
66.999
-234.8
-47.772
-46.563
62.632
8.9458
-56.551
-2.1887
32.002
54.844
26.449
-2.121
-42.177
-128.03
97.933
-47.979
-22.498
-40.869
41.737
16.627
-25.449
33.55
6.3002
-50.935
53.488
36.011
-12.652
48.758
-5.5615
-15.934
125.71
79.172
-108.96
-193.11
35.199
116.62
-20.42
-116.18
49.11
92.98
-69.327
-88.787
51.217
-49.856
68.659
-19.47
90.155
-17.832
-54.002
27.283
-43.469
-4.4879
19.31
-53.157
95.173
94.513
-87.735
-90.491
63.278
-54.253
-33.844
34.442
-1.0874
112.66
-33.216
61.875
23.233
-3.4267
-38.693
-95.919
-172.73
34.357
84.769
73.924
-19.956
-44.982
27.178
-16.112
12.359
12.656
-31.361
59.428
-1.4006
3.3864
-14.267
18.692
10.388
-7.6095
41.671
37.932
-36.747
-42.277
1.6394
-8.5453
-12.709
23.739
4.925
17.53
-29.828
53.162
20.581
-40.338
-10.668
-1.9127
35.439
-20.827
-55.884
-5.3836
46.916
-3.1866
-41.329
41.889
55.137
-85.721
-20.17
-13.056
40.266
24.475
-75.259
-24.161
-25.712
28.079
35.94
-28.105
22.516
42.436
4.0813
-23.342
-18.954
30.563
20.701
7.4013
51.427
84.086
-89.556
1.4887
-84.973
-62.112
59.878
12.074
-9.6128
34.803
75.395
-64.914
-91.39
117.38
-0.0089845
-102.66
-4.7566
77.767
60.691
71.902
-213.05
-103.84
122.36
13.385
7.4024
-17.556
-4.8475
80.827
-103.71
-8.8406
44.461
-26.699
12.591
20.641
0.97677
11.381
-13.585
169.29
-109.87
-16.072
46.207
4.0209
13.121
59.719
-28.518
-101.81
-7.6087
-132.75
-71.202
67.877
40.167
49.952
29.066
51.658
-31.084
-136.46
88.043
72.802
48.753
10.62
-29.527
-70.669
-39.427
13.738
1.9988
-12.224
13.82
2.5752
9.5927
12.991
-0.22788
7.5898
-4.2363
-6.5771
5.6645
-15.201
-3.8712
-8.0187
-4.1511
7.0236
-1.7355
8.7527
-5.2153
10.104
19.3
18.155
23.168
-3.447
-12.783
-50.797
-30.76
-1.9518
-6.1553
41.829
-0.038316
-21.421
8.9847
-31.639
-56.33
63.413
3.4965
15.318
187.58
-47.973
-171.2
43.29
86.271
53.47
-5.2486
-16.222
-74.573
-6.3536
21.665
-28.63
-45.584
50.347
55.598
4.8318
-51.458
-76.646
-41.039
15.872
48.753
-32.44
37.76
18.335
-63.431
-38.247
157.8
30.196
52.846
-37.808
-95.039
-26.734
-32.281
-0.071203
-8.3282
13.942
1.0752
-5.4572
16.939
4.7421
-8.6947
16.457
16.654
15.151
-11.473
-21.612
0.71468
-2.8486
12.503
20.232
9.3289
-19.382
-14.285
13.155
9.9773
-5.9113
-15.104
13.892
7.1907
-11.264
-3.3466
22.835
19.635
-34.202
-10.142
36.569
19.784
-23.703
-42.699
34.873
18.459
-34.115
13.736
18.3
2.9666
-25.355
6.9555
-1.7417
-39.777
0.45688
33.137
21.088
10.471
-25.752
-11.899
8.541
-4.9456
4.8413
12.199
0.022812
2.0891
-9.7154
1.2399
7.1247
20.007
7.5057
-40.58
-9.7608
-21.345
-5.8973
24.964
22.154
-10.373
23.006
-16.328
-40.171
5.4615
-18.275
10.477
17.111
-4.7474
-4.0971
30.35
4.8217
-6.5144
13.018
46.964
-19.546
-42.556
24.87
2.9972
-11.587
7.3482
-11.33
-21.226
-36.245
-3.9518
21.106
5.419
-33.709
32.568
79.613
-47.681
-31.53
16.423
-41.97
19.662
-14.524
-3.9558
1.8829
34.421
11.058
-14.19
-4.0827
-5.2844
-3.1399
0.30477
24.331
30.801
-24.55
-11.136
18.684
-5.2489
-12.798
13.564
38.353
-15.49
-43.114
49.557
41.883
-18.24
-33.355
-17.773
-8.6566
-18.814
-19.273
20.974
76.748
-21.207
-48.88
-28.026
-20.29
62.255
102.01
-197.09
-45.242
25.306
23.158
13.657
-5.1398
14.228
2.085
12.175
20.17
1.0048
-11.09
21.703
19.649
13.626
-12.812
-7.0512
15.603
-9.5718
-4.2775
30.267
35.114
-26.552
9.5363
-10.466
-42.453
-2.4701
2.8684
41.451
-27.411
-38.929
10.367
62.703
25.182
-63.74
-36.446
40.418
41.561
14.224
-105.14
-6.1632
33.155
-18.872
14.909
40.077
13.782
-9.0469
-23.134
-15.412
-17.528
-17.001
-9.3701
-7.2595
11.607
6.3264
5.9485
7.3394
26.772
8.2491
19.609
-7.9852
10.483
21.518
-60.505
-8.1181
-20.913
70.566
126.72
-51.534
-94.805
-35.656
36.24
-81.891
-49.788
89.356
32.949
-9.5755
-24.433
31.803
6.5436
-22.501
-1.5904
43.236
33.846
-8.4369
8.8152
9.8785
-43.841
-31.313
4.6624
22.505
-1.292
-15.22
2.3923
0.45523
-21.89
8.9927
14.12
1.0112
-22.373
-14.275
16.435
28.933
-13.89
14.742
27.241
73.39
-88.003
-45.164
26.572
-28.835
-146.64
50.343
112.49
109.43
72.822
-75.169
-6.4406
4.0907
-8.9644
-164.12
-202.63
33.657
250.38
-110.88
-31.882
79.211
62.643
54.062
-33.666
-40.699
-14.653
-57.149
47.409
15.937
-7.8839
-7.0682
14.533
23.151
55.45
-19.544
-56.47
2.3403
-6.4734
-17.301
11.948
-5.9246
-12.309
14.774
-1.1812
-9.4602
2.2222
-2.6232
8.5726
-0.16304
-27.095
4.8603
73.563
11.625
-18.973
6.377
23.98
-16.151
-5.5118
15.719
-1.1734
-22.503
-10.938
-12.276
0.37242
24.267
18.534
16.58
-17.554
-26.292
-2.8538
7.4347
-20.633
-2.0933
15.163
8.0218
-12.428
-16.969
12.683
11.725
-3.5591
-20.088
6.9319
14.053
-0.42001
-13.648
6.4387
6.9487
-10.97
-17.229
8.438
-0.82742
-8.9437
20.361
17.355
-18.373
1.4769
22.409
8.2451
-1.6123
-23.774
7.9087
13.656
-13.982
-4.2822
14.199
-1.2666
-17.471
-8.4749
-3.8477
-9.4711
-5.6307
-13.977
20.412
8.1172
3.7571
-4.3553
24.194
-14.726
19.028
19.848
-5.4652
1.0302
-12.978
0.28627
4.8439
-0.49215
-2.8897
-6.1671
2.5912
-6.5604
-3.927
2.8271
-4.9529
2.9667
1.0798
-7.9359
-2.3681
4.0032
-5.7831
-7.2105
5.7125
2.6795
-11.414
-12.012
10.819
12.357
18.238
-16.236
1.9235
-4.9862
-18.328
8.9493
-12.927
35.995
-35.514
5.161
33.39
-28.047
1.3709
38.215
-31.933
5.9866
2.111
0.28847
-1.6051
14.396
-10.362
2.0489
23.3
-7.4401
-7.106
2.4795
1.3126
6.8998
-5.3249
4.5358
-10.938
-15.039
2.0922
0.14554
-7.1093
7.6656
2.5595
18.034
-8.0639
-0.015121
-4.5085
-13.076
-8.6803
4.5711
8.6446
-13.795
23.196
1.6868
-18.706
-0.031432
-1.9707
-2.8643
17.607
-14.782
-20.801
4.5314
5.4817
19.193
6.4512
-8.9934
-6.8822
9.5058
-8.0083
-0.011568
11.458
-7.872
-3.2788
9.6444
-10.809
-2.3744
15.128
-7.0919
0.15498
15.225
-0.81592
-12.358
8.387
5.2436
-8.8062
5.5938
-6.0712
-17.814
27.848
12.447
-8.3945
-0.60512
-0.11155
-8.8503
-7.2035
3.2045
-10.883
-3.3523
12.856
-14.327
17.311
8.8157
-15.055
-10.366
-10.255
-1.5299
-1.593
6.425
9.6776
20.588
9.0239
-14.269
5.0314
-1.8944
-10.129
4.2106
-1.8362
-5.8813
4.8362
-6.247
0.19373
2.1266
-7.7565
-11.817
5.9911
4.8187
-8.1995
23.732
2.6458
2.8856
4.3549
-7.838
8.3618
1.6392
-8.3646
2.9763
-15.157
2.5798
25.978
2.4226
4.2494
-5.5319
-11.87
1.7429
0.5213
-28.365
2.3091
19.802
-10.712
-12.725
-20.378
42.662
31.433
-18.117
-9.7497
1.4818
-1.9251
-11.682
5.5679
-2.9659
-6.4633
3.7916
-7.6298
-5.148
9.8635
-1.1793
8.9247
1.3731
-16.598
9.2726
9.7357
-4.7587
7.8256
-3.3283
-1.9609
6.3197
-6.7917
4.5644
-4.3846
-9.453
-17.233
-0.060042
8.1775
11.936
-2.6212
7.2735
-11.864
8.0822
11.303
-6.9418
8.4448
-0.97435
12.479
-27.796
19.726
-9.2326
0.28308
5.9818
-14.278
19.07
-5.9746
-3.4267
-22.28
-22.947
-24.85
12.516
17.737
5.5426
-18.517
29.428
32.679
-15.886
16.65
-9.3399
3.6705
9.8206
-0.29987
-0.293
5.0124
-3.4492
-5.144
0.0051257
-0.34667
2.8452
-4.4854
-2.0712
-4.4219
-2.5933
-5.2103
0.63673
-2.3582
-1.9088
-1.7311
1.9109
9.7494
-17.908
-7.1296
3.2592
8.9485
-0.62509
-1.9544
-2.5777
3.7478
-9.9587
2.3337
2.2717
0.19947
16.237
-17.641
11.98
-10.204
-3.5955
-0.22136
-2.8917
16.758
-9.9311
8.0759
1.6093
-2.0457
15.857
-10.809
8.9608
12.416
-15.979
-6.3253
20.891
9.4404
-13.598
-4.9574
20.169
-10.585
-15.375
10.481
-6.264
-6.3663
7.7613
-8.0123
-2.8041
11.322
0.07105
-9.3928
0.54647
-8.8711
6.558
4.0273
-8.083
3.9722
-16.267
0.96485
5.0468
-6.2769
14.347
-12.482
6.2906
8.0545
-3.3812
15.545
10.365
-12.288
2.1884
2.1067
-3.3558
6.3866
-1.7043
-13.679
4.3142
-0.01402
-11.897
-0.15343
7.6994
-4.013
-1.8081
-0.29534
3.3738
39.45
-4.0959
-45.339
-9.834
40.211
7.6114
-22.496
-47.64
-3.1041
19.259
-30.094
-19.914
27.211
42.384
24.255
-10.636
-2.504
-9.9936
-26.125
2.3567
-6.0047
-11.447
151.05
-60.38
-21.561
10.767
-14.044
-20.56
-7.5054
-2.0147
-7.3985
4.3738
-13.297
1.6109
-11.495
-6.3759
23.535
11.498
3.0932
4.7682
-7.3885
2.6352
30.801
42.47
-11.032
-60.051
-49.749
43.234
39.066
0.30813
-13.902
-16.791
-54.77
4.319
29.696
-5.7079
3.078
17.887
3.7041
-0.91544
17.779
-1.9138
-4.3431
8.088
-2.653
-20.914
2.8795
-8.0609
2.5734
2.8806
1.6114
28.217
4.3867
-9.3937
29.668
-30.419
-29.356
-8.8175
-10.492
14.263
15.991
-1.5729
-14.971
7.8247
3.4537
-5.3459
11.193
1.6892
-16.011
10.529
17.175
6.2991
-4.1476
-22.31
4.4188
20.72
12.177
-10.651
-21.251
9.2715
9.6501
-14.238
-4.3028
16.776
1.1466
-8.1551
16.233
21.946
26.688
-29.89
-36.11
0.92489
4.1902
-8.6487
-8.7227
7.5279
8.2454
-3.6871
-23.632
-17.759
-16.121
-2.3389
18.232
4.7364
6.278
16.36
1.2355
19.199
19.105
-4.2751
-37.775
-0.80828
37.153
-19.264
-61.983
-10.733
-0.16369
-0.53736
41.918
14.324
5.5254
31.731
-2.3236
-6.5321
11.818
-4.539
-4.313
8.4006
-8.4926
-3.7325
10.656
2.0164
-23.505
-2.8374
18.682
0.36259
18.077
-4.927
-22.114
1.1972
-2.8064
-9.4062
3.2918
1.1394
-3.8035
1.0953
-6.3209
-5.5723
0.9572
-1.9574
-5.9851
5.3967
3.8143
-6.6231
-18.637
13.426
16.554
-10.196
9.0724
15.146
-9.8157
-6.7453
-6.7448
-11.889
8.406
3.6106
-4.6803
8.0261
0.61474
-7.9444
5.0734
6.5375
3.0787
-12.879
-4.5671
2.7212
-15.757
-2.5463
4.7698
12.024
10.527
18.154
5.0847
-11.082
-2.4402
6.2898
6.416
-12.533
-10.908
0.33176
2.6319
12.188
9.8147
0.87708
4.3074
2.5378
-24.415
-14.36
3.5755
7.7751
-11.848
-0.97132
9.881
1.0473
-24.048
10.272
21.916
-12.493
-7.0472
20.22
12.417
-14.101
0.68244
-22.229
-2.0133
27.474
-5.2355
-23.33
12.622
15.651
-10.899
0.14679
1.7888
4.6598
6.1022
12.287
-12.201
4.5974
1.5982
-13.208
6.3122
5.8023
-6.5661
8.27
-6.3082
-7.947
-16.612
7.529
18.737
8.5053
-31.167
-2.1616
15.9
-11.382
1.0644
-4.2487
-4.9385
8.4268
-7.2185
-0.25078
10.948
-3.0678
-1.0817
9.2081
5.147
2.7471
-0.94008
-15.024
3.7326
2.5729
12.069
-9.7584
4.382
-2.9461
-8.8701
11.08
-2.8049
2.6632
16.1
-7.2047
-0.39809
6.4861
-14.858
-6.1905
-4.5918
17.102
2.8917
-13.931
-20.205
13.279
15.453
-9.5043
-37.199
6.8594
54.073
28.311
-7.1434
-32.079
-6.8045
-9.6811
3.4363
4.5023
-10.988
-9.2855
-1.2954
2.0323
-10.819
-5.7317
11.483
9.889
-6.0105
7.4135
5.4251
-17.28
7.2328
14.787
7.8178
-12.877
21.43
12.734
-36.583
-2.8917
-8.8526
6.215
24.022
3.4584
-4.1539
-1.0646
7.2341
-5.3375
-11.132
6.7027
3.6156
-13.064
-10.716
8.5398
-5.6464
-20.592
19.281
6.7063
-6.8236
-4.5656
5.4211
9.4568
-8.2293
12.925
28.435
21.17
-28.128
-36.999
-23.528
31.277
15.488
8.7277
12.487
-35.155
7.9874
29.311
-23.22
-5.4907
6.4854
5.774
-0.66261
-10.111
2.1557
22.782
-12.514
-19.989
-14.539
-1.7895
14.653
-6.21
10.381
17.591
-8.722
-7.1546
-3.6751
-8.1207
-19.345
10.65
14.967
6.5753
-18.373
-17.181
18.071
-5.718
-16.292
11.84
7.9623
1.4411
11.497
-8.8433
-1.3738
16.199
-17.718
-1.4861
24.559
11.186
1.4646
-24.207
-7.7018
17.652
0.85758
-12.506
7.736
14.103
0.17269
-14.999
-6.2737
2.1337
0.040499
-14.976
-1.2131
18.539
-3.9546
-6.9219
9.0345
4.7745
-13.39
1.5431
13.685
7.4097
-2.8349
-21.899
3.8915
10.471
-0.36893
-18.232
9.9704
9.0693
0.10815
-20.255
-12.748
18.503
18.467
-6.8836
-19.791
16.92
15.252
-4.7764
7.5152
1.3296
-19.013
-8.6162
16.892
8.4784
-1.777
-20.618
-8.0191
14.872
-6.4013
-5.6948
9.7456
-5.3753
-9.4727
15.506
6.3343
4.867
-14.74
-8.3492
19.77
8.7922
-0.72422
-19.546
-2.4251
11.632
-10.207
-5.9848
13.818
9.0138
-5.5881
-24.85
9.0746
17.092
5.3513
-13.763
-12.03
15.071
1.6674
-15.825
8.4016
14.284
4.9766
-15.258
-14.521
16.844
8.3004
-7.4114
-16.388
10.598
-7.6556
-8.0107
20.325
9.1512
-0.34094
-25.279
-3.1186
20.769
10.324
-13.151
-12.994
17.461
-2.0913
-12.739
14.848
12.53
5.1355
-22.546
-7.7315
18.996
6.8388
-0.74585
-22.621
0.5559
13.36
1.364
-19.359
5.892
13.163
4.2948
-13.499
-16.496
13.721
9.6754
1.4825
-21.521
-1.5635
14.861
-4.8939
-13.942
16.374
10.114
0.36911
-22.795
-1.0498
18.804
10.339
-6.4444
-21.295
10.475
14.228
-13.908
-3.6256
19.749
1.5336
-18.185
7.5588
16.767
6.9273
-10.106
-19.677
7.9702
10.81
-11.451
-5.6087
9.1814
-2.118
-12.918
7.4678
7.2492
0.29597
-16.333
-9.4277
13.183
-0.38736
-12.508
3.6946
8.2813
-15.074
3.6097
19.017
14.368
-2.1371
-56.034
31.4
68.513
32.132
-48.711
-17.356
-20.76
-32.132
4.6686
28.017
66.911
11.737
-83.542
-49.325
6.9186
153.19
-13.759
77.914
-221.45
-471.58
379.51
127.65
10.902
-7.0227
-22.522
13.161
3.6679
-0.55727
-13.173
23.113
51.107
43.374
-6.6964
7.1529
-18.748
-59.598
31.866
-38.532
-34.493
25.377
-9.3949
-111.63
15.352
23.602
64.031
28.091
23.04
-31.047
-40.124
-9.8805
-4.2945
-8.4195
38.314
40.491
-14.716
-7.4396
-21.104
27.787
-6.8641
18.491
8.2803
-5.0437
9.1298
-8.8366
5.5762
50.484
-4.7201
-22.823
-20.093
19.979
17.934
-119.91
62.315
33.68
-67.932
17.588
-20.917
7.3851
6.3733
22.878
9.3833
-29.028
15.017
18.805
10.84
4.3712
-36.179
-10.129
21.396
10.482
-14.271
-2.6391
0.60522
-2.053
-3.427
25.966
1.9341
-54.099
2.0245
23.654
-2.8047
3.5978
-48.73
16.501
18.528
4.1139
42.577
1.3753
7.1221
-11.829
-4.7287
-33.423
12.657
-0.53045
-8.5207
14.737
1.8806
-7.4845
-19.11
12.505
5.892
-10.965
2.4315
15.006
-1.106
1.0965
58.159
-10.1
-94.615
63.585
21.161
28.042
10.364
-76.822
-82.626
21.95
10.751
8.8514
10.725
2.8559
-7.1603
29.532
17.164
-34.332
1.7784
12.823
-7.8735
-5.5009
18.542
2.6223
-9.4779
4.0744
8.5056
-12.474
-7.6575
-57.32
-6.6191
93.269
104.5
8.4542
-82.243
-71.537
5.9174
18.256
-64.8
57.542
94.873
12.652
-9.4886
-39.823
-28.752
-5.5697
-7.3752
-1.9559
1.7966
-9.039
0.42057
-8.2995
-11.569
5.2742
4.4121
16.547
42.095
-2.761
-31.374
-12.769
-7.4944
-1.0275
-4.409
-10.742
-6.1714
0.63476
-44.16
-38.149
79.665
17.497
12.825
2.2349
-27.412
0.58228
5.1331
-61.251
52.976
37.257
-6.4188
11.816
-21.852
-41.393
3.9122
26.152
10.926
-5.446
14.514
29.116
9.9868
-20.537
-23.921
24.164
14.86
10.48
13.264
-14.726
-44.78
13.477
14.816
-11.559
39.636
-4.8394
-47.489
-15.284
3.6419
5.2677
-4.5311
-18.173
-4.8871
-11.473
8.3251
15.056
0.92632
2.6577
22.999
-11.164
-10.918
20.342
-0.43686
4.4246
-15.464
-8.1646
10.187
24.298
5.1242
-18.571
-10.755
10.37
-2.7278
-7.4678
-14.524
28.944
-11.008
14.012
23.47
-21.317
-31.796
-5.8162
29.141
-7.4441
-36.584
19.75
26.407
6.1334
-2.3082
-12.478
2.2018
2.589
-14.071
1.2906
12.507
0.47921
-7.9118
-37.827
-3.1979
23.396
14.546
5.1573
-5.8367
18.261
-6.8996
-54.245
-3.8953
33.833
38.306
30.781
-5.2413
-24.295
-11.509
-25.862
-4.7419
26.504
8.6601
-5.2871
-13.115
12.319
7.854
4.9247
-13.443
-2.8335
9.0363
2.0255
-4.2012
-12.029
5.0549
2.1399
-7.2526
-9.0426
6.0741
6.0023
3.2362
-13.872
-1.6116
3.5648
-2.7921
-34.971
-9.0459
31.734
12.759
3.3002
-4.0695
17.748
20.57
-26.756
-10.868
9.84
4.352
-7.9651
-7.8097
10.353
5.1624
-15.729
7.0962
14.724
4.965
-8.0195
-18.937
11.102
13.933
6.2175
-13.89
-9.5362
5.3221
-9.024
-8.0882
14.306
6.85
-2.4913
-19.758
0.75206
13.009
3.2634
-16.465
-4.3232
10.894
-8.0057
-6.029
28.39
7.3237
68.698
-15.151
-59.832
-11.928
-45.27
7.4915
4.4901
26.052
-2.2353
-2.228
13.697
2.608
-18.283
9.1264
9.2258
-19.201
-6.9918
8.3984
-3.8239
12.334
19.76
5.9141
-10.3
-9.4812
12.535
-1.1269
6.9666
10.452
-7.3251
-9.8992
-23.365
-16.022
14.757
15.937
0.090895
-14.055
3.8199
8.9769
-7.8403
-4.8858
6.2261
5.8322
0.15985
-8.9492
17.649
7.5938
-9.3602
-12.612
7.5676
8.0192
-4.3179
-10.097
13.121
12.49
0.52576
-15.617
-3.5753
8.5159
0.19813
-11.265
2.7427
5.9104
-4.8307
-9.29
8.3703
5.4973
-1.2616
-16.237
-0.26927
9.6999
1.7551
-13.462
6.5608
11.39
-0.52274
-20.042
-0.49612
19.942
5.6255
-13.487
-9.6081
13.845
1.9829
-14.134
6.9745
13.981
-3.9345
-16.82
8.8829
12.163
4.7393
-16.234
-1.396
13.77
-3.5164
-9.3877
21.827
0.55821
-5.3333
-22.796
1.0161
16.626
26.378
-1.438
6.2851
-14.953
6.3685
-12.681
-32.699
8.4402
-18.453
-15.592
-7.6368
20.072
13.321
-21.537
26.306
16.457
-24.463
2.9782
12.566
1.4912
12.577
-11.295
-29.836
25.831
19.157
-17.558
-7.9431
9.8082
14.316
-6.8031
-25.175
8.446
13.029
1.9763
-27.098
3.3116
33.102
12.625
-21.161
-19.993
5.2975
-8.9706
-9.5002
17.863
13.814
3.1171
-17.1
-19.842
13.536
4.8736
-8.1233
20.494
0.093821
-9.2792
14.089
9.7121
3.4673
-15.962
-13.119
13.385
7.7744
-9.074
-12.729
13.019
10.266
-11.559
-22.749
17.769
25.654
-2.8753
-31.933
-9.1501
15.372
4.9364
-2.7074
-15.985
6.8417
12.155
4.9821
-15.256
-3.4055
11.647
1.1829
-17.095
1.763
15.811
6.2329
-4.4115
-20.119
8.9556
13.505
-2.3878
-12.923
9.0201
5.7467
-13.336
9.4021
11.747
3.9644
-13.438
-16.66
15.031
10.217
4.1749
-17.033
-1.8038
9.6965
5.959
-9.8147
-16.409
13.344
8.6755
2.8832
-16.156
-9.2838
11.326
5.2509
-7.2056
-16.063
12.734
10.427
1.5715
-21.514
-3.2388
20.019
9.3551
-15.82
-5.277
17.88
7.4319
-10.278
3.6799
5.742
2.1718
-13.856
-11.849
14.083
9.4734
-11.959
-3.0614
13.812
-8.6898
-9.1379
14.921
7.6501
0.28955
-17.114
-8.1164
12.548
7.5715
-6.6923
-14.711
8.0502
6.6382
1.8836
-16.929
-1.2718
12.332
6.2265
-1.5919
-7.1574
14.505
-32.843
3.5524
45.935
29.667
-27.943
-36.685
-5.7676
-6.5503
-9.6059
6.5141
4.5411
-4.4891
9.399
-0.81413
-17.54
27.311
24.76
3.8844
-8.1449
-29.886
-11.531
-2.5547
32.852
7.0448
-20.657
27.521
16.486
-22.098
-44.137
13.535
47.955
-5.1686
-20.368
-4.0564
0.34687
-7.8823
-3.7623
8.4841
32.327
-36.264
-46.962
23.551
27.69
-0.73698
-29.157
7.7177
4.7918
-12.04
16.15
4.8165
2.8986
16.943
4.1418
-0.98261
13.385
3.9726
-4.1
-17.775
1.5839
1.2859
-1.9776
5.8506
-26.906
21.685
17.85
-9.4719
-5.1991
-30.001
13.105
10.146
-15.953
-8.1553
-9.0804
9.9347
19.355
-13.328
-18.304
-1.4944
-16.084
-4.4895
13.844
-8.0574
19.935
38.353
73.204
-58.799
-43.606
43.508
-22.955
-36.334
46.138
18.223
-14.083
-82.185
15.4
60.202
14.573
6.4184
72.312
-32.449
-57.922
-32.093
-44.399
50.291
5.3723
-17.502
26.504
-16.803
-8.207
9.7667
6.5988
17.812
-19.748
-7.4482
13.586
-6.44
-6.6059
0.17522
10.568
10.547
-12.963
-12.043
27.367
2.8677
-1.9596
1.7444
11.261
7.2924
4.8139
-12.893
-38.728
-3.2197
9.665
8.3001
21.816
-0.86622
-30.382
-35.139
28.228
23.206
4.9369
-30.138
-27.188
21.317
23.711
6.4773
-14.638
7.615
-11.467
-12.719
18.471
16.324
10.392
-10.626
-18.832
7.0188
9.7463
4.113
-4.3435
-12.982
4.2111
5.5376
4.1181
-5.0955
-3.5119
11.582
-6.4613
2.5846
-28.166
-10.497
24.331
13.805
3.9346
-33.028
26.752
-8.7312
-24.736
-4.6091
21.073
13.095
2.6714
11.248
-21.873
9.0543
-5.6229
0.80694
-11.523
-11.851
4.919
43.27
47.868
-33.145
-32.995
-14.285
-8.132
4.0444
32.257
53.502
68.918
-39.803
-84.408
-60.889
-8.1297
18.108
8.4985
-57.089
3.9609
7.3953
-22.986
83.026
48.34
13.726
-55.767
55.107
22.652
17.019
-43.135
-20.995
-16.04
7.0261
-5.6221
12.662
-20.415
-27.811
27.376
-6.7762
13.548
-11.258
-13.254
1.3805
11.536
-6.987
-21.414
-10.96
3.6873
33.43
1.9532
2.2989
-2.1065
-18.877
5.0955
4.374
3.5929
0.17267
-12.266
-23.043
-8.2119
48.147
-61.615
42.872
68.529
-11.612
-40.366
13.044
49.625
177.79
-70.382
-99.522
-85.585
-114.96
-69.705
173.8
82.635
-70.443
-79.73
90.818
12.029
-95.911
103.27
8.9629
2.9333
45.483
-116.02
-64.408
77.386
26.983
32.224
42.4
-48.392
-32.589
24.752
-11.246
63.216
27.419
-43.497
-55.826
1.7924
32.705
-26.873
15.166
17.735
-76.228
-6.5755
36.988
143.67
-60.647
-16.624
-66.065
-39.614
-19.448
17.339
51.421
10.569
9.3654
-19.253
-10.723
-7.6553
-9.4813
-43.558
43.28
65.265
13.827
-19.31
25.092
51.452
-35.893
-12.486
-63.039
12.47
-27.595
-36.374
34.127
-12.137
45.784
-25.39
113.11
149.54
-166.91
-78.442
-26.427
-17.728
1.0438
-30.428
26.432
-45.791
34.034
12.44
32.144
57.315
-124.33
69.388
47.324
81.557
-49.958
-33.273
10.184
-21.273
-48.301
-143.19
39.69
65.727
85.607
41.537
-49.95
1.9517
-18.845
16.793
1.9691
-37.547
-20.533
77.55
-55.631
-20.983
33.166
-30.404
8.3235
7.9226
12.063
35.191
10.709
-23.455
-7.7378
18.354
2.3186
-7.9403
16.9
-2.1729
9.402
8.8155
14.193
-9.0248
-52.294
-29.56
65.204
-23.087
16.3
19.177
18.612
-34.617
-57.358
43.484
3.2516
-100.79
-91.134
135.75
-170.88
132.5
91.125
-71.559
11.97
47.938
23.366
-5.224
-23.988
40.926
50.098
-161.42
-49.571
80.859
61.307
23.102
-51.704
0.41141
63.971
-1.0023
-104.34
30.621
101.14
-86.006
-67.775
27.361
67.829
-1.2769
-13.051
-28.824
-4.1463
8.1628
31.31
4.9372
-20.352
-17.041
-127.33
-26.629
182.77
77.638
-73.713
-54.847
11.174
55.899
-31.278
4.6839
-14.205
6.8127
8.5353
-15.58
12.731
64.189
157.52
55.584
-227.11
-141.89
-84.17
-50.647
199.75
47.885
-29.03
-26.486
39.783
161.31
191.02
-97.243
-365.46
-275.49
104.42
174.02
33.505
27.039
-15.507
84.585
133.44
-85.593
-166.8
43.456
78.996
-82.931
28.662
5.137
-9.2916
11.406
92.855
34.798
-13.644
-181.14
-19.508
96.223
-37.395
25.877
