-5.7127
34.454
20.942
17.402
34.645
6.919
-3.3348
-11.729
21.485
-0.46838
-19.065
-1.4581
28.879
2.4121
2.7859
-12.17
-4.4024
5.3112
5.3422
-3.8572
-9.3386
2.1673
-0.23691
-12.765
6.7107
14.802
-1.9713
-16.468
-30.178
46.74
11.704
-42.122
15.544
3.1583
-4.9292
4.9014
-0.1073
-10.528
9.1668
11.216
0.61092
-16.257
-3.9928
10.433
6.9208
-6.0535
1.4175
4.0355
-11.28
10.812
19.013
10.335
-9.7724
-5.7179
-8.7481
-2.0276
7.116
3.0852
-4.6796
-13.805
10.245
10.091
-4.6441
-9.6428
-4.8901
0.080234
4.5705
-12.001
-2.6562
3.2347
-3.9075
4.1714
5.8881
-4.8926
-5.2538
16.624
23.485
49.625
-13.919
-35.738
23.402
-1.2529
53.63
-83.832
-95.567
16.72
23.638
-20.04
-10.162
15.904
48.888
66.669
60.637
-28.677
-120.45
-28.132
-56.432
3.6619
18.053
55.124
-15.89
23.612
29.998
-25.618
-31.711
-35.862
24.018
38.598
19.183
16.819
-14.621
-38.071
25.369
-32.154
-18.977
63.204
18.995
-67.172
20.875
2.5209
-1.5689
7.9434
25.633
46.513
-71.14
-30.423
36.536
-8.8898
-13.733
26.505
21.417
-29.923
5.8073
48.631
115.44
61.549
-40.37
-173.65
-169.91
48.058
49.068
29.697
-4.7087
-17.384
50.527
22.852
-66.807
25.769
27.997
-38.695
6.7908
39.76
80.801
30.958
-104.34
-67.244
-11.364
25.006
23.887
-0.3979
-0.61017
-14.06
40.308
-13.345
60.916
-12.615
-18.407
-55.635
-22.364
41.141
-24.458
36.174
4.1867
18.555
-24.767
-6.723
6.7374
10.9
17.462
32.554
44.075
2.5246
-61.068
-27.358
-40.706
55.843
-13.054
-55.147
6.4776
10.029
-5.6175
10.973
-1.1846
-4.979
-14.9
4.4866
26.767
-6.9163
1.8706
8.8234
15.8
-11.86
-19.1
-2.2056
6.5667
0.24815
-14.382
13.205
12.165
-3.7382
-2.6852
11.982
5.8502
-18.199
7.5753
18.093
60.492
57.516
46.283
-155.24
-108.28
100.11
50.023
34.982
-104.98
-32.026
-13.596
-88.991
-8.8491
46.543
4.125
22.889
44.78
20.031
-8.2289
-17.777
22.483
9.1149
-1.986
8.0369
25.701
13.164
-19.625
-24.908
13.763
6.6487
-5.3192
-14.897
-8.3753
6.7866
3.148
-31.633
31.779
8.0465
-19.444
5.6747
10.276
-9.4048
-16.021
0.0025859
11.006
-9.3271
4.4302
11.926
-0.1259
-17.81
4.4568
22.26
9.758
-15.744
-16.031
16.808
0.35199
-11.067
15.228
16.996
1.6762
26.547
-3.4666
-24.771
-5.4837
-19.3
20.49
37.255
10.64
-101.97
40.19
120.21
-115.92
-98.825
-4.5775
11.761
-12.097
28.922
18.865
-4.8503
31.22
52.5
70.126
31.582
-112.84
-63.367
-16.345
72.194
80.134
-31.453
-97.426
-80.156
19.172
43.219
76.783
29.908
-1.2804
-49.94
-33.983
47.485
135.72
-5.8733
-224.39
-45.705
26.352
4.252
13.213
-21.464
25.756
7.6937
5.7503
82.198
94.229
61.902
-42.296
-74.423
-56.37
127.61
-119.59
-138.04
13.203
-28.29
-33.135
61.413
81.285
1.174
-21.261
25.31
12.808
-20.447
-10.299
32.739
26.42
-26.148
-7.2892
25.199
11.11
-15.994
-4.1224
24.954
-0.20099
-14.061
20.336
72.951
78.883
15.79
-44.548
-101.88
-55.013
-59.199
-10.812
10.18
-7.1193
71.141
110.16
26.492
37.718
-101.73
-59.62
-2.5141
-92.853
-135.77
12.665
89.935
7.9465
28.45
-6.4584
26.376
34.561
-5.3454
-28.387
28.018
31.532
13.603
-18.197
0.853
30.712
-6.3351
-13.799
21.201
8.3734
-6.8791
-27.409
6.3077
20.25
14.007
-16.678
-5.8175
8.5745
-16.351
-9.4499
11.141
8.0571
0.93547
-9.5244
8.9327
-9.2337
-7.132
17.413
30.957
33.428
-16.681
-8.2759
-34.602
-44.957
0.92732
26.312
19.41
-15.277
11.474
3.8821
-27.68
-23.18
38.865
-7.3873
-130.64
17.961
38.159
32.825
-31.851
-18.791
54.985
-21.851
4.4075
51.123
82.103
-6.3554
-81.788
-52.215
-12.305
44.692
21.983
18.466
35.094
2.6708
-36.203
-21.378
34.279
-28.451
-77.689
24.467
6.8923
-11.259
30.193
65.374
-17.325
-29.708
-19.132
-23.379
23.75
19.708
0.70112
14.03
-37.547
5.3795
22.132
-4.2491
4.3628
77.019
-111.54
-6.6745
43.418
-13.373
78.493
-57.468
-45.205
25.688
-15.94
3.926
0.71505
5.0181
25.448
15.554
-10.219
31.823
22.148
-82.639
-21.061
-37.977
-3.0413
25.479
-5.5277
10.397
19.843
-1.5095
-3.2605
30.338
16.307
3.3051
-36.671
-1.8956
16.711
0.85283
7.4395
9.8838
-10.55
39.35
50.21
-22.141
0.76221
-24.986
-69.648
-34.207
-4.0496
18.277
2.1
4.4635
17.639
0.038231
0.74196
4.7938
-30.052
45.357
21.728
-7.8691
15.608
23.007
28.409
-34.634
-56.09
-45.736
-4.2551
40.514
9.2589
-3.0658
-8.0017
-0.70715
6.3911
-3.7852
-2.4567
9.2263
-1.2584
-1.312
0.62794
-9.9587
3.2551
3.1929
-11.076
1.3143
7.6496
-4.9365
-1.6494
14.261
-10.927
5.1386
11.745
-22.747
11.313
3.8316
-19.139
17.005
10.225
-15.454
3.8676
32.192
1.6137
-25.576
5.6873
0.1179
-10.473
15.836
24.759
-15.263
-14.541
8.5998
1.899
-13.575
2.9429
10.869
-5.6984
-10.447
7.4598
-0.48673
-8.0952
3.1251
-3.2214
1.9327
21.082
88.304
48.967
-73.585
-56.125
-87.941
-0.43628
-11.485
-15.799
37.382
164.82
16.417
-118.4
-44.651
-77.058
22.778
51.579
-7.3186
-18.426
-24.091
31.335
48.822
-10.574
-76.832
57.603
26.701
-11.505
44.689
35.259
-79.686
-4.0192
2.5453
12.895
49.163
21.547
-28.391
-22.947
-33.782
-18.314
45.236
5.0957
4.1021
28.533
-85.403
8.0266
34.269
85.578
-19.649
-118.51
7.7769
-64.478
-7.5201
78.374
94.647
-29.081
-54.714
-58.192
48.854
73.224
-67.845
15.171
215.64
41.475
-203.98
-217.7
8.1854
78.571
9.8033
19.099
6.4296
44.854
59.109
16.446
-27.488
-35.613
-38.081
35.668
123.21
57.049
-151.9
-107.33
37.145
-69.908
17.639
26.449
30.321
61.9
-3.2923
-15.167
3.881
-46.72
-8.5223
67.611
2.7683
-38.532
14.421
18.872
-28.066
12.114
1.5314
-8.7478
18.481
14.968
-2.4006
15.729
-19.318
-51.033
19.114
38.308
18.806
-27.976
-7.4898
31.672
59.445
-88.054
-80.533
20.104
15.799
19.286
9.0078
-23.107
-8.3133
18.959
-3.1301
-6.8158
37.941
-9.2944
-9.8728
59.482
-2.4144
-57.257
33.633
-27.748
-18.604
22.402
20.044
25.89
125.23
-91.923
-128.79
37.274
51.005
-58.033
-67.117
11.247
23.714
49.185
60.838
-34.225
-82.357
-18.812
22.345
49.082
-7.3794
-47.226
-58.684
6.4799
46.32
14.017
7.324
56.374
31.971
-10.323
-16.859
-11.002
-6.7747
22.173
-1.948
-10.457
-10.452
40.548
5.8859
-58.075
14.075
30.285
-7.2402
0.047288
21.875
-12.635
-56.634
2.3927
31.696
-35.03
-24.133
37.404
97.659
-23.855
-84.86
13.02
-31.08
-11.657
-39.131
24.224
41.625
38.807
0.23535
156.69
-129.38
-174.83
61.269
-15.883
34.188
52.315
-35.287
-12.24
28.501
-10.546
16.608
11.416
119.09
34.764
-120.66
-97.954
-42.293
83.494
-13.515
-38.657
22.245
37.587
96.834
46.647
-179.05
-21.971
15.404
17.117
18.379
13.91
21.172
32.697
-51.528
-18.194
-7.4065
-9.8928
5.831
37.548
16.184
-6.294
28.201
-39.038
37.107
-40.398
78.67
-75.768
15.681
-24.108
-8.9275
21.196
27.591
-25.266
-13.333
30.319
6.145
-5.3549
6.093
26.244
9.7912
-23.438
-10.995
19.913
-68.17
7.9927
34.788
14.265
-60.283
-81.252
32.174
39.759
-13.638
41.558
39.295
-85.683
1.7829
45.526
8.9334
30.479
17.977
-76.038
7.7957
-32.559
-23.644
18.142
16.113
-1.5817
2.2206
-20.75
7.3252
17.769
16.665
8.1065
4.6127
31.56
9.5199
-20.948
-23.579
-64.932
22.597
21.405
-2.0501
26.665
60.738
99.691
68.277
-116.25
-70.159
-170.08
-97.906
121.82
80.252
-5.8633
-83.884
53.898
-5.9472
18.765
65.705
-22.815
-15.142
-12.82
19.962
44.725
-2.3605
17.615
-1.0529
-36.078
-37.564
-15.734
54.26
-5.6917
-10.5
24.221
-14.781
2.2019
11.943
-45.005
0.5274
14.211
48.945
-8.1698
-51.328
17.092
19.388
66.529
-33.862
-79.791
12.578
3.0199
22.157
38.281
-70.276
-14.785
41.061
-10.473
-18.18
18.476
6.8646
108.94
60.615
-216.01
-29.245
37.867
-13.086
40.684
-0.42393
12.381
-63.579
18.608
71.81
-73.732
-13.552
51.731
6.5306
1.8826
38.796
-52.012
-24.001
51.251
-14.475
7.5301
-22.257
-1.6638
3.3525
-8.3118
21.359
18.7
24.809
-30.064
7.3669
10.087
-31.157
21.796
0.93179
-4.5193
18.377
8.9179
6.7933
-24.148
109.09
84.049
-37.587
-159.17
-158.42
25.274
32.164
18.843
-29.923
38.169
117.63
54.076
-139.24
-21.811
-55.098
5.9682
14.704
2.8622
13.45
35.569
44.347
-37.568
0.22993
-14.121
-11.947
37.895
13.984
-36.078
14.06
21.976
8.6621
-10.237
-0.79567
49.845
-19.905
-45.138
25.565
-8.5855
-24.842
14.533
33.938
-56.06
53.386
-10.666
-70.375
22.031
4.1105
1.3431
29.813
35.002
-11.262
137.94
-140.02
-99.223
34.7
-13.262
30.93
24.503
50.491
-43.395
-33.416
-26.364
-28.05
-1.1109
21.156
14.871
16.513
-11.102
3.2891
27.936
11.705
-10.668
-6.3677
14.259
-9.0119
3.9014
14.497
4.4565
-11.903
-5.1455
13.635
7.3315
-5.1197
-2.7454
9.904
2.1483
-6.9744
-18.504
25.495
-9.9002
22.005
-31.045
-18.467
19.294
-17.463
8.2718
-4.3838
2.7656
-4.3296
-1.9184
10.825
5.0637
-19.074
0.012924
0.48057
-15.039
-5.685
16.756
18.952
1.0704
-11.243
2.1901
10.039
-4.4667
-0.61454
3.2724
-4.8824
-1.7933
9.0886
6.9004
-16.481
-5.2551
8.5787
-4.3696
3.6492
3.3505
-1.482
1.2261
-0.092247
-15.434
-7.2504
11.905
-7.2392
-8.2585
-3.7179
5.785
18.348
17.429
27.079
63.647
-115.81
-27.125
11.748
-7.1044
3.7455
9.2659
-5.8928
14.166
26.88
57.191
90.382
-27.694
-81.444
-77.444
-59.717
46.458
58.091
-32.218
-49.009
-8.7022
112.85
-8.096
24.534
-38.012
-83.621
11.834
-15.949
0.41885
13.983
5.227
42.333
-10.63
-24.955
6.7868
14.804
18.491
-32.403
12.142
40.221
-44.717
81.089
3.5382
-83.554
36.09
-32.858
14.703
19.214
59.591
-84.823
-16.302
-10.89
-12.246
2.2165
-7.6779
19.18
20.34
-8.2936
50.593
-68.147
-16.551
15.835
-24.34
33.205
16.746
22.99
-36.815
91.02
-50.85
-39.597
66.27
-29.222
-46.978
14.674
44.581
-38.737
-24.68
24.331
29.725
27.572
-3.6699
-55.986
-10.197
-0.58615
52.701
-1.9512
24.185
-20.025
-39.829
33.34
-46.375
6.0453
6.5857
47.791
-1.6711
-12.513
15.402
20.131
36.948
-122.28
-25.848
50.082
36.097
-86.523
74.345
-32.77
-19.029
20.648
27.103
4.2312
-41.569
25.723
27.397
-63.405
7.9941
42.809
-11.692
-24.418
16.323
23.988
-16.579
15.636
9.4198
21.496
-13.134
13.311
-50.566
-25.752
10.575
-0.48632
9.7291
14.876
26.939
41.718
-2.4267
-69.463
-38.181
18.994
26.886
14.6
-51.756
-44.877
0.83883
31.011
19.632
29.17
24.781
8.3767
-70.583
-28.61
9.2068
19.753
47.995
28.043
-29.969
-65.893
12.807
17.473
21.095
11.324
-39.193
32.091
35.14
119.5
52.844
-66.123
-63.53
-113.12
-36.697
-99.433
49.685
72.61
59.312
110.41
-131.79
-116.48
47.872
30.302
45.984
-5.1804
-89.095
-2.4092
22.304
4.0114
38.685
67.736
14.563
-21.436
-73.598
-7.7212
13.313
24.58
-7.164
-32.923
52.902
66.819
-16.983
-35.721
-8.46
-56.188
10.759
21.23
30.724
37.18
82.124
-57.731
-141.17
-71.809
87.389
36.282
21.985
84.376
7.6983
-151.88
-75.328
70.653
34.917
118.42
-64.614
-102.78
46.509
-31.143
27.147
20.25
54.647
-57.709
-17.152
-20.12
59.203
12.356
-51.522
4.3087
56.327
-42.399
20.269
14.491
96.827
-120.01
-80.784
-21.43
40.086
25.665
-14.526
24.03
22.395
-11.601
11.859
-1.7422
-24.127
8.6252
-23.294
15.11
7.2865
1.9284
52.734
81.356
-28.216
11.071
-8.5412
-74.089
-45.15
20.007
15.412
-2.828
-26.153
17.838
78.826
146.33
-171.98
-39.464
-80.341
42.609
12.411
-86.832
61.952
57.522
3.681
-22.466
23.512
5.2506
-52.826
-76.341
-2.5985
69.695
34.306
13.759
-31.745
30.485
0.12566
-9.093
-6.4332
-6.2832
-1.0779
28.715
42.859
-41.818
-97.295
16.929
143.29
9.1962
-92.311
-17.066
-40.649
-4.4904
31.624
31.701
-1.7804
-10.402
-10.316
-14.728
0.35446
7.9748
-1.6263
0.98176
2.4334
16.772
-9.251
-142.88
66.262
62.629
80.009
-30.924
-10.281
2.839
-27.292
11.702
5.6242
28.907
39.589
5.1855
-37.418
-51.398
5.1477
31.798
-66.596
-31.37
-33.936
65.434
32.943
-117.19
19.34
137.42
170.83
-126.23
-109.69
154.05
115.98
-59.741
-127.61
55.481
-103.25
-98.522
46.893
-3.5502
16.421
-6.8963
26.306
-34.81
-31.926
77.911
7.9266
-5.9189
45.651
17.819
-107.85
-16.218
-20.769
18.032
42.569
19.537
18.006
-1.3124
17.875
-15.797
13.975
68.895
59.254
40.484
-4.5638
-88.618
-102.98
-33.684
-68.9
63.545
19.638
-8.8186
36.083
-77.836
-51.909
79.251
60.126
9.6331
-20.867
15.755
1.5567
-10.548
-7.3923
-9.4904
30.128
-21.111
49.561
2.4663
-23.231
26.951
-50.282
-26.602
146.07
-19.983
-143.57
-12.727
32.792
101.86
18.627
-76.893
-62.656
-83.7
13.442
36.952
9.8716
-13.936
-70.374
36.078
64.237
20.414
29.408
2.7497
-25.854
0.78769
59.228
-30.55
-15.695
5.5384
14.005
33.312
-28.669
-8.7153
-2.3793
9.8011
-35.852
22.588
36.157
-67.016
-1.5773
14.16
-5.7324
38.117
7.3764
-8.8247
-3.1098
-46.465
-19.574
23.883
23.065
15.741
-34.686
10.689
-8.2686
12.98
19.898
-24.93
38.589
4.6622
40.541
-10.235
-36.85
-54.11
-30.449
11.248
25.479
30.134
-2.6242
2.2404
-5.4449
2.4898
2.9132
-12.428
12.291
-10.401
-0.93998
7.6788
2.3376
18.048
5.408
1.2155
-18.174
5.0999
-1.4329
-16.453
14.277
15.628
23.023
148.79
-52.008
-191.76
41.58
-0.052552
-47.278
-32.23
20.132
19.471
18.364
10.344
-3.1248
50.893
18.38
-65.235
-21.324
45.584
-38.372
-26.101
25.772
107.77
9.0604
-146.04
25.71
-31.567
41.677
-11.817
-15.804
40.141
-11.864
27.531
32.642
-21.332
-4.4564
-0.46317
-44.069
-4.3247
141.8
121.9
-76.376
-52.101
-133.44
-57.109
-14.874
-10.566
62.191
28.227
-12.24
5.8458
-45.601
45.001
7.0521
3.5585
4.1504
-0.74825
11.543
-5.7488
2.3807
8.3547
-2.7073
6.6401
1.2152
-0.50586
5.6653
-1.9959
6.9975
-5.4544
-1.074
-1.6185
3.6931
12.207
0.069251
30.318
-8.4855
-35.273
25.5
-44.038
6.2686
25.71
-1.3781
-3.2091
-28.34
27.124
11.317
-32.581
-16.115
31.398
35.55
-49.05
-13.526
3.2143
-35.606
19.111
-7.9032
1.6637
13.351
-1.6198
7.3234
5.1375
-5.4475
12.954
4.826
5.7753
22.987
9.6931
-51.636
11.428
11.461
-21.064
20.798
41.37
7.5573
-38.336
15.869
-13.815
10.154
17.727
-22.253
-26.337
45.635
34.538
-121.83
0.62479
72.234
26.08
-92.133
-39.272
33.666
36.86
-9.2823
-89.388
48.579
133.15
-48.414
-66.503
-45.14
32.627
33.806
5.7842
-10.561
12.415
25.533
-63.912
26.304
54.711
1.2742
-36.057
-39.156
-8.2952
30.211
50.237
-6.739
-38.166
23.967
-1.803
-23.127
40.139
21.713
-66.866
0.24367
17.701
-10.591
14.597
-1.919
-18.897
-4.7487
13.699
6.9616
2.5277
24.95
34.103
-43.987
83.17
25.372
-116.8
5.0273
-65.887
36.852
-4.6882
116.99
-115.83
-33.505
117.65
65.628
-34.366
-197.92
-105.46
156.15
28.461
-79.171
-29.557
63.152
73.124
-14.234
-80.499
18.461
25.873
-1.3014
55.576
142.11
0.030937
-169.17
-151.49
88.616
-21.381
22.455
45.2
31.959
10.144
-31.009
29.676
57.333
-40.939
-47.381
26.905
10.605
35.437
-6.1029
-8.1231
-26.374
-19.228
-30.751
26.186
-1.1273
-4.4751
8.8449
-29.782
16.474
14.148
10.069
-10.877
8.5863
6.6278
-6.4145
8.0063
7.2024
-9.7115
8.8451
11.165
4.9219
-13.953
36.031
5.1793
-26.937
-0.52357
13.166
7.5469
-32.686
12.749
-16.565
19.778
40.622
-38.903
-91.204
-3.2373
32.048
-3.6404
24.056
14.523
4.6517
20.587
-2.3407
-34.383
-10.654
17.661
-21.484
40.938
10.959
-27.025
-50.619
-10.878
49.493
-12.37
10.59
-18.091
33.289
-9.5491
-21.507
-10.899
3.8992
13.479
-3.3338
54.982
-47.622
-10.633
58.523
13.155
-25.529
-76.295
-12.029
39.941
13.568
44.274
6.3805
-20.614
-66.585
53.435
23.317
-87.611
15.22
13.923
19.476
-2.5791
10.607
20.337
16.958
-11.741
-12.076
-32.254
10.194
11.844
0.29404
-16.501
-2.2677
17.395
10.164
3.1199
-1.9812
55.068
6.7472
-31.414
-33.567
-12.952
37.003
-33.251
-15.322
-14.446
-5.7316
3.3162
44.995
35.791
-47.411
5.8
3.3061
84.051
-13.521
-142.58
-12.287
17.74
41.861
44.796
-54.478
-24.224
30.478
28.767
71.712
-32.326
-82.112
12.28
34.669
48.167
35.655
-76.78
-29.227
54.954
-33.063
-44.535
-3.4817
4.4501
-1.1056
21.873
-13.033
-8.5531
-10.732
21.078
-24.205
17.949
-22.854
-23.212
34.651
43.976
24.605
-38.985
-23.338
36.607
55.721
-25.074
-5.0782
5.9474
-1.9771
-3.6362
-12.715
-9.7259
-22.613
-29.956
29.878
57.001
-16.845
-38.218
26.164
-1.499
-0.98657
-9.8426
8.6675
-11.52
-33.394
-1.1994
31.369
-49.364
67.285
108.19
-4.1091
-35.31
-88.027
-64.054
16.759
-9.7949
29.134
-27.074
-3.0132
52.136
10.254
26.724
42.45
6.6502
-112.51
17.195
36.695
-11.55
6.2236
-38.689
-17.485
42.734
1.09
-3.9084
33.63
-7.6871
-7.6056
-2.0384
-13.256
4.9351
-22.72
13.709
-43.44
18.541
30.974
18.329
13.085
-18.039
-35.037
12.014
-47.199
20.219
35.966
14.71
13.45
-88.981
55.199
47.516
15.48
18.531
-65.989
-24.029
-10.061
-50.809
33.009
24.931
9.0338
-16.998
15.691
-6.2377
29.34
63.138
-57.239
-69.167
33.206
-65.159
29.554
11.353
20.592
5.322
-4.8289
9.2935
1.199
0.94229
24.103
12.755
16.733
11.271
37.196
7.7101
-30.877
-62.86
19.041
-5.9403
-37.625
6.7059
-6.8507
34.703
22.44
26.752
-60.182
-33.183
5.8014
34.68
59.577
0.74672
-36.16
48.466
45.726
-40.986
-100.38
-121.34
95.363
4.3586
-35.563
-42.313
14.747
114.49
-106.54
39.469
96.583
-82.139
-44.41
26.509
31.096
29.401
13.946
-55.029
-9.7862
-27.947
32.842
69.316
-21.262
-59.666
14.716
35.009
-0.82338
3.6914
-23.175
18.529
3.7649
23.203
9.5706
-25.465
-12.167
6.329
21.166
-4.0713
-13.537
1.9103
17.471
-12.158
-14.298
13.724
-1.9289
-10.556
9.3785
46.292
24.892
-26.775
25.441
-77.769
-59.96
26.745
21.903
11.388
-20.302
-22.957
9.4329
73.456
9.3176
-5.5615
51.836
-26.655
-52.347
-38.622
33.641
127.16
1.1424
-66.244
-152.08
-50.613
-1.4089
39.724
63.403
-20.181
-24.526
16.604
26.916
21.855
20.463
9.6158
-41.473
-39.884
45.788
13.072
-20.168
-16.441
24.903
32.952
-37.722
-51.618
41.486
16.786
12.194
8.4637
13.871
2.764
8.797
12.395
-40.367
-24.083
-3.6077
6.0627
25.346
-32.402
68.371
-82.374
73.186
45.865
-35.212
13.169
-38.384
7.8424
-91.197
-72.962
104.37
-152.34
21.743
123.16
10.385
-25.17
-11.523
37.669
9.732
24.041
27.477
-21.587
-30.49
11.121
-18.364
34.807
-24.204
-31.149
35.732
-15.239
35.306
32.158
-46.163
2.5068
-27.338
17.965
33.485
-15.897
40.417
28.887
-26.498
-94.855
14.921
3.7618
-6.3996
-20.85
26.236
-3.9863
-24.577
50.098
17.721
5.7627
-45.423
15.741
-3.9101
3.7756
16.85
-12.287
-7.5452
6.9147
84.92
-4.5154
-112.16
9.5139
37.873
2.3416
14.117
12.504
-69.511
55.926
-57.034
-35.756
79.902
-22.866
-33.145
35.22
13.143
-34.272
-29.454
38.117
33.387
32.747
-65.424
13.489
-16.375
-1.0806
26.919
-0.7557
-29.173
33.437
20.368
-57.978
-3.8814
32.915
-10.666
4.4819
41.994
7.6542
24.428
35.236
14.874
-48.735
-135.98
-4.8741
34.557
82.939
62.764
-158.9
21.893
33.842
-0.48972
-20.67
9.2589
-17.979
-56.87
5.791
32.537
30.658
1.2603
22.321
4.6832
21.694
-67.138
-35.845
-29.306
104.18
79.384
-58.289
-39.278
-4.296
-64.791
49.783
41.246
-1.5872
13.735
-15.166
-23.341
30.206
-20.856
-38.211
-28.691
28.37
34.927
-21.504
-12.796
-41.668
60.788
13.84
-1.6688
-0.44814
13.821
10.876
-3.0259
26.379
34.963
-74.303
17.39
-9.4799
-42.276
25.082
36.62
42.194
-19.003
-18.178
-21.713
16.954
1.7678
-6.8798
-10.983
-21.701
22.944
-6.0277
19.143
24.379
-9.2673
-50.212
-14.996
17.237
31.422
-22.378
4.2057
-13.819
-3.4778
3.9883
18.869
46.092
7.3313
0.60285
-106.62
-21.813
30.346
24.452
25.852
-32.368
-29.083
23.191
13.988
97.924
-90.096
-54.442
43.591
88.117
-39.81
-93.968
4.0401
-10.801
14.623
20.75
109.31
-137.3
-40.052
52.299
13.059
35.23
-45.961
18.155
54.744
-28.496
-2.7779
-2.0549
-4.0888
-21.153
34.65
-13.476
69.478
3.0312
-137.37
18.917
-27.066
69.438
28.667
1.2758
2.3111
61.459
-35.902
-58.235
-4.9229
-12.386
4.0584
19.429
-17.059
-32.224
43.675
24.06
22.243
-9.9373
11.401
-48.105
-5.7478
10.943
-25.274
-23.579
25.934
47.72
-15.423
-8.2691
12.494
-23.422
22.398
7.499
-56.367
35.475
54.514
-4.0374
-53.003
34.261
-18.619
5.5169
4.7301
-25.572
-39.369
5.8354
33.272
-18.96
34.09
-7.8446
32.678
11.297
-37.98
-8.0235
-22.967
10.501
-17.556
21.814
32.54
-28.526
-10.96
17.534
35.187
-58.026
-7.1447
42.763
51.641
57.994
-12.11
-32.396
-96.429
-79.769
41.88
2.2621
18.948
10.563
113.01
13.384
-19.591
-12.162
-61.899
-156.31
32.853
60.723
-15.225
-48.495
40.204
30.339
-75.333
43.208
16.071
63.481
19.896
-24.166
-11.011
21.915
18.737
14.198
-20.013
-30.795
36.14
65.752
13.05
-155.65
-32.314
84.265
13.591
-41.254
6.2917
119.72
-0.8139
-10.031
-34.849
-78.244
-103.99
78.912
1.2397
49.226
-1.1418
-117.31
71.575
20.292
35.743
-11.869
-9.2621
-25.623
-61.842
42.246
41.341
39.423
-3.3254
-7.3196
14.922
-54.974
10.092
11.971
0.59958
-0.012324
13.964
46.191
-18.869
-39.654
-5.5338
-4.842
53.634
9.3242
-26.173
-13.445
-3.2607
-22.726
-21.005
32.843
-1.0778
42.173
77.104
-20.902
-46.144
-50.793
-2.0537
9.0237
-1.2832
-12.336
38.012
60.164
-3.3787
-82.847
20.392
-49.898
-33.686
55.62
12.119
-48.911
4.5543
4.1154
32.04
55.517
-98.618
-54.269
26.768
43.229
38.161
37.513
-25.315
-10.371
-36.758
16.215
47.713
57.334
-58.938
-118.89
-16.111
56.384
33.506
14.624
69.823
-74.81
-31.019
1.3064
37.818
8.0209
27.79
25.288
-63.17
-38.223
14.311
-6.9322
0.37907
6.6348
-1.9035
33.678
13.598
-26.961
66.912
0.72493
-75.833
-81.987
20.307
62.482
23.867
-38.67
-7.5841
40.722
-56.792
2.8549
59.209
-16.893
-44.626
22.986
-10.423
12.744
-42.59
-25.552
50.349
18.004
33.186
-1.0477
7.5305
37.234
13.372
11.691
-60.271
-41.995
-20.703
48.333
-29.393
-8.9893
32.817
25.356
-0.065385
11.552
-10.535
-26.365
43.944
10.199
-40.601
-4.9554
17.829
-23.309
-39.72
58.458
0.56677
-44.272
-5.3343
9.1842
-8.9766
41.632
-51.208
-1.4687
43.863
7.8538
-19.298
16.772
2.4782
-66.34
34.313
3.8724
14.86
-29.355
11.389
-11.895
38.303
-4.0197
-69.566
34.546
0.86537
27.363
24.944
-1.1578
9.3349
-26.992
17.288
15.347
-21.767
14.84
33.453
-110.26
-8.2127
102.64
-41.047
-13.245
3.8012
3.4576
-3.0161
-8.9272
2.8288
5.7486
-22.3
-19.163
-16.169
-21.761
39.13
58.62
35.628
-12.207
-23.95
-71.265
6.5752
24.64
17.571
6.0836
-5.695
-28.155
12.534
4.8121
-32.411
-9.1368
34.242
27.591
-7.6598
1.3564
11.574
-4.2724
26.857
-27.552
22.31
87.177
45.455
-128.71
-127.19
42.564
-11.374
-3.7204
52.478
13.494
-14.196
8.4763
50.377
58.857
-44.133
-69.162
-33.532
31.871
11.056
-31.356
-17.277
12.273
-25.379
19.81
27.167
16.898
39.875
78.156
-62.561
-130.14
-19.749
2.8052
20.647
63.887
41.011
-22.074
29.887
-69.227
-37.531
45.9
-0.61136
4.9794
-14.206
57.688
-16.355
14.051
-33.301
-0.69969
0.50125
-33.133
24.931
-17.667
-2.7826
2.9261
27.607
40.852
-22.529
10.409
41.655
-59.318
-6.0673
9.3174
-6.1732
21.26
-10.935
-47.872
6.0078
26.684
23.264
5.2218
1.9964
-33.227
1.4977
35.706
68.586
7.8496
-116.68
-5.746
93.256
-31.134
-70.658
-111.19
34.929
59.357
22.689
-33.806
-8.6065
8.6286
17.984
42.118
-18.517
-24.895
18.232
1.3496
4.5574
-2.1014
42.919
-31.975
-23.542
38.078
72.924
67.104
-22.249
-65.03
-213.72
-16.79
136.44
0.0096861
19.25
-4.4274
15.806
-41.818
-17.707
5.0679
13.062
20.85
89.49
24.668
-45.536
-41.262
-39.483
78.255
68.566
-92.793
-4.986
-56.343
-54.253
13.894
82.578
-3.8084
-25.832
5.5319
10.945
42.934
-26.782
-6.8769
1.6075
29.972
26.516
-53.897
-15.748
-15.229
12.085
60.015
15.637
-60.345
-38.616
-38.123
31.91
75.885
55.681
-34.501
-57.155
1.1172
-11.338
-20.219
23.741
31.045
10.888
-3.8344
-35.399
-48.922
-4.4721
15.124
51.498
-15.756
-13.367
-14.031
34.653
-22.412
23.417
-9.7748
-30.53
20.852
15.062
28.166
26.162
-39.802
-74.001
42.024
2.9161
2.0626
3.5134
3.4806
-3.4279
18.813
38.689
-19.028
-19.605
-3.6738
20.749
-19.065
-13.715
47.939
51.912
-43.912
-30.783
-37.672
-44.364
40.312
-7.625
73.022
21.08
-85.002
23.762
-59.417
80.666
70.811
45.368
-126.28
-86.468
24.106
-16.628
16.892
8.4757
-5.2798
-6.2871
24.134
11.767
5.7685
32.698
18.129
-19.967
-22.147
-35.551
79.661
28.17
-35.012
-24.583
-4.2627
-47.471
16.831
-35.863
-26.273
43.912
29.839
-7.5853
-19.811
23.729
18.452
-4.3112
5.5625
4.3815
2.6994
-3.9607
11.529
-14.607
9.4941
36.422
1.822
-41.697
4.9084
101.12
-15.923
-43.869
-9.1846
-43.91
-23.187
-50.663
38.564
57.683
-28.003
-26.935
30.205
36.933
60.155
-60.32
-26.387
-77.675
51.17
34.922
27.862
43.51
3.6324
21.988
-153.01
6.9687
11.018
12.049
4.6909
-27.973
-9.1126
-14.348
38.323
-15.191
55.96
18.088
-88.14
-0.50433
8.1738
49.789
3.7879
7.0487
-29.71
-66.827
81.927
53.425
-69.448
-13.844
-38.749
18.954
35.826
-5.239
9.9087
-32.929
-3.631
4.618
27.766
25.496
-2.7794
37.798
-66.284
-49.479
79.731
-6.5012
-25.341
15.544
-37.223
-14.891
4.0781
40.198
31.057
17.257
-3.6862
-56.371
-6.368
16.137
37.405
12.045
-14.985
-34.421
50.864
48.127
-50.019
-96.121
-8.6152
67.52
-7.6228
-25.304
17.804
-47.596
17.195
32.766
-13.235
-4.2349
22.672
-5.5661
32.611
34.044
45.008
-31.951
-76.814
0.68106
-15.021
64.353
16.834
-45.08
-26.995
-12.003
46.145
96.514
-23.077
-82.088
20.268
-83.396
6.5871
-6.1877
-9.1807
67.936
27.157
1.8449
-44.824
-38.532
-30.568
30.563
53.918
61.007
-48.483
-8.7705
2.6422
-21.156
0.37434
-9.4613
22.937
-24.618
-14.637
23.036
34.178
-64.928
16.214
3.2114
2.9799
24.263
16.345
-11.75
-31.211
34.659
-17.806
-24.571
-7.951
4.5477
2.7403
46.807
-16.58
-14.52
70.032
50.031
-20.765
-132.55
-56.498
75.56
-23.514
-0.42142
6.9517
5.2962
0.79098
-44.238
47.002
17.738
-7.2479
21.775
-8.0548
49.163
-20.328
9.5612
-9.8033
-52.516
34.012
4.6849
20.324
-28.004
33.787
13.336
60.195
-93.649
-38.598
15.495
-29.517
12.124
-71.739
10.921
49.807
4.23
13.019
7.9169
-3.4899
4.281
18.415
-1.1159
12.076
-18.136
3.3
18.424
6.6612
13.321
80.641
-16.719
-122.63
-3.3694
-27.714
65.718
-39.021
17.428
-10.189
-8.4971
58.206
6.5043
-28.489
5.4438
5.7334
39.683
36.1
-73.204
-32.223
2.4255
1.2442
35.212
0.075879
-42.58
16.76
-24.771
-54.18
41.004
52.845
-0.49758
-34.525
17.835
-3.0664
71.322
-58.912
-74.253
60.911
36.608
-7.6826
-40.376
-42.194
60.681
90.61
-102.61
-87.326
30.051
34.989
28.921
-50.641
-36.923
13.784
26.815
49.14
-0.30744
-26.226
-10.356
42.349
-37.116
101.26
33.731
-83.746
-30.735
-41.809
85.721
16.679
-33.4
14.501
-64.888
-13.912
42.316
22.441
-46.078
16.315
84.133
-79.985
-38.944
12.634
12.558
30.248
-30.441
-28.337
49.73
54.102
-90.457
-32.518
66.437
-7.6132
-0.63614
20.892
31.818
-5.0513
2.5511
51.093
58.365
-115.56
-96.328
30.54
24.494
36.572
16.582
-78.711
-0.76137
-4.5396
-29.872
73.627
-23.416
12.091
81.78
-69.582
-26.303
3.3007
78.574
17.461
-98.87
61.54
-66.941
-23.742
51.731
15.581
16.817
1.9242
-5.1942
16.481
-74.377
-34.86
-13.931
67.769
-17.517
-9.8904
53.553
-41.793
-73.006
20.277
47.19
-7.6876
-4.5533
37.223
10.461
15.772
11.443
40.272
35.945
-77.499
-16.294
64.653
-46.998
-52.477
19.548
-3.0412
-24.46
-28.038
26.359
28.193
-22.246
29.033
-43.634
-24.858
35.827
-9.1433
-12.334
-11.614
27.414
12.478
-4.1817
-22.943
3.5722
-1.6213
25.71
-14.955
29.562
12.12
22.26
-21.406
12.353
18.141
35.797
3.4728
-30.23
-10.898
-5.3958
-5.1757
-51.751
35.902
12.206
-24.898
50.598
-47.308
-38.711
32.963
45.945
-1.4125
-40.891
4.3228
-17.018
-13.116
-2.2115
-54.445
-33.319
116.41
76.254
-148.98
-1.2141
21.667
14.066
-30.995
-11.53
79.09
9.7801
11.203
-14.908
-41.45
70.103
-25.408
-7.4588
15.295
-29.43
-20.54
27.959
-1.8585
47.556
2.4735
13.669
-4.1082
-40.792
-36.483
-0.75835
23.99
16.658
3.8549
-47.989
-3.6857
12.863
32.887
-22.607
3.6232
-3.9197
63.434
30.865
-36.786
-28.046
-26.157
-9.7704
-14.06
11.811
22.704
-23.382
-23.794
39.105
47.262
2.9788
-43.466
4.3941
-6.9756
-15.003
-34.15
-4.3686
75.436
10.58
-28.039
-13.871
-28.039
32.183
29.325
-1.8294
12.686
22.458
103.42
-159.4
-43.64
22.756
-1.0281
100.33
-66.215
-124.87
26.439
19.696
-11.233
24.057
7.1884
9.6248
-2.2644
34.891
42.651
-40.047
-12.499
28.973
100.19
-50.822
-68.472
-87.982
-20.335
52.675
26.091
51.51
18.822
-93.426
-37.341
51.41
17.56
32.803
22.384
19.287
34.356
-44.159
-20.968
-11.168
3.6202
53.852
15.048
-114.91
78.061
1.6354
-6.0532
-30.367
1.6639
-6.4601
-4.4235
21.868
-30.779
16.114
12.677
-0.84692
-36.066
-39.095
60.041
-22.46
6.5867
0.30094
4.1795
-7.892
-7.456
-9.7368
3.8893
10.935
10.931
17.54
-15.269
-4.0968
-9.6853
-7.7179
8.957
-3.5245
7.8465
16.766
-9.2582
-8.1595
-1.6584
55.193
-20.6
-17.604
-8.4494
1.8161
-20.722
34.454
43.215
-42.178
8.8142
-6.0035
-15.203
-8.4718
-10.875
5.2526
30.044
9.7309
-29.445
4.5998
-6.0463
-1.8149
-15.523
-1.8123
5.7442
8.2006
2.2612
-7.9404
4.1291
-12.204
10.821
40.07
-13.361
-28.072
-10.89
35.306
6.544
11.129
-18.767
-73.048
14.295
46.246
51.504
-16.469
-23.334
-4.7871
-41.536
15.097
15.027
13.248
10.677
-3.111
-2.6805
-17.668
-18.28
4.8737
39.905
-16
-16.569
-11.953
13.493
42.546
-26.951
9.3729
44.971
7.7003
20.219
-42.74
-67.2
8.807
69.421
70.774
0.061607
-59.8
-84.943
-39.936
90.045
-7.7644
-74.089
-22.46
44.98
11.068
-38.915
-46.914
71.896
9.7564
15.688
99.169
-69.588
13.117
-74.102
-25.682
-33.491
52.497
58.426
-28.938
4.2384
26.726
-42.178
-74.966
67.547
-34.627
29.966
48.143
30.873
-44.853
-25.86
32.397
-3.9122
-23.351
-21.921
45.991
1.1399
22.601
-11.648
-1.1274
33.942
-30.155
-17.039
45.707
-11.284
-46.824
2.1021
63.012
23.322
-64.198
-21.765
-24.081
12.928
25.021
5.6603
17.148
45.032
-1.1383
-52.121
14.44
16.106
-16.985
-22.829
6.1882
23.481
0.16846
-20.954
-54.935
14.103
-68.21
28.158
-34.166
-22.601
38.933
10.798
0.15084
21.574
21.532
10.373
3.7303
41.888
6.2281
-24.804
24.801
18.264
31.723
-43.824
-78.489
159.82
-30.128
-88.84
-42.321
48.642
-15.306
24.337
6.6113
-33.869
4.5631
9.9606
17.342
19.719
1.2534
-22.514
-15.838
-2.5854
3.5993
-54.572
45.08
53.491
-53.296
-31.788
100.56
14.872
45.504
58.574
-48.564
-230.36
8.5706
85.56
-72.168
-44.315
10.85
52.557
66.745
-18.489
-27.811
30.325
-9.7527
4.9756
-0.36376
-52.457
7.2124
54.253
-14.347
-15.14
45.329
-16.669
39.798
18.713
6.858
-47.642
-22.688
28.341
-2.5747
16.976
-7.9448
-50.484
52.444
15.51
-7.7542
7.3195
-41.326
9.5081
-51.155
26.122
39.328
-19.785
51.537
-83.501
-84.117
1.8429
49.947
53.183
28.382
26.655
-31.464
20.239
63.896
-20.093
-65.007
-98.026
49.593
61.093
-32.719
5.1425
-3.1104
3.9849
-12.912
14.537
-11.051
24.015
9.6464
-34.516
-23.618
-5.0093
135.32
-73.72
-69.8
-5.217
4.8765
23.265
-16.548
31.695
-3.2735
-28.053
21.808
23.721
-12.251
-10.982
34.447
6.0752
-63.122
45.609
26.01
-2.1926
-15.605
-34.832
-11.899
5.6426
60.853
-21.785
-51.205
33.111
-35.913
-7.7209
27.208
19.989
-11.858
15.265
104.97
-112.12
-25.27
10.058
19.945
-56.29
3.1191
21.035
10.264
34.351
97.241
-9.796
-132.21
39.31
-11.736
-25.367
26.584
-22.193
-14.611
73.222
23.274
-62.339
-22.658
63.961
-23.554
-54.737
16.782
11.706
12.783
-43.785
-13.766
-4.3515
53.426
21.134
-9.4628
1.6505
-3.5581
33.809
0.83148
1.3762
34.894
-45.352
-31.315
41.651
-34.996
-33.689
10.233
21.62
-1.9344
48.56
-9.3967
-45.231
11.137
-2.1749
-10.204
-7.1031
-1.6182
-13.575
-4.722
25.303
14.327
18.678
-8.3725
-56.652
27.377
2.46
-44.757
9.5421
12.293
21.234
25.255
34.714
-13.403
-12.808
-20.56
-15.108
-15.472
5.0594
44.251
1.4808
4.2409
17.959
-60.886
2.0236
-36.708
69.309
36.698
-61.951
37.53
-2.3909
-33.715
33.317
64.157
73.854
-116.34
-123.54
-2.9668
14.332
20.055
3.4554
-6.5934
9.4236
32.655
7.681
71.595
-24.822
-69.726
-28.782
-1.6846
29.916
19.472
55.585
81.873
-58.857
-100.72
-14.924
-25.418
-1.6689
53.524
35.237
1.7976
-7.1385
-33
-26.347
-19.901
57.24
115.83
58.447
-56.28
-60.562
-129.85
-30.973
15.492
7.3274
7.9908
45.692
36.428
-28.261
2.2578
-19.643
23.146
15.356
-20.373
-12.19
16.38
81.631
-23.366
-21.561
22.234
19.605
-61.385
-30.727
35.456
5.5668
-1.6956
-10.465
-19.891
-10.36
57.968
41.581
-53.716
-24.018
-0.75132
-8.4426
6.9517
3.2799
-4.8974
-23.498
15.631
8.1484
15.519
35.6
27.865
-44.248
-17.425
37.572
-36.997
17.552
-45.769
16.83
29.254
-30.391
-14.244
5.1081
-6.8524
49.209
3.3344
51.925
84.65
-161.47
-60.87
-22.692
13.156
42.711
-32.294
4.3185
17.543
24.544
-5.1033
4.8719
3.368
17.418
-22.574
-35.421
24.326
0.6765
16.209
9.5913
-6.0225
11.944
6.3669
1.2258
7.0763
10.592
2.4484
-0.080912
-10.341
3.2001
42.21
76.747
11.919
-94.455
-73.51
-61.39
10.237
54.196
-6.6219
10.03
-14.13
17.766
19.431
1.7481
1.8101
-27.32
-50.97
-10.931
10.121
22.391
17.255
21.264
-7.257
33.779
-31.34
-29.377
34.516
-18.242
105.92
-84.648
-80.328
47.802
4.197
30.256
16.129
54.533
-93.439
-53.986
6.555
93.718
14.926
-2.1663
-23.257
-31.814
23.477
-10.418
-3.62
-44.638
-10.351
12.715
47.892
24.06
-29.713
29.315
-25.183
-62.599
24.135
31.941
-1.1237
60.859
-68.157
-26.04
71.836
-59.071
-1.6002
5.2336
12.402
-36.636
32.689
7.3845
42.107
56.957
36.577
-80.38
-37.285
-22.579
-31.491
-51.117
22.012
37.587
-15.108
7.4179
135.15
-28.587
-162.1
69.997
-15.326
23.988
-8.8412
9.3721
19.734
-1.8148
-5.4839
6.9747
-19.363
2.8467
9.6115
17.436
29.078
-3.0285
20.272
-63.781
-51.477
20.123
21.771
42.401
-30.989
-11.817
50.81
52.724
37.876
-38.205
-51.367
27.836
-55.122
-77.661
76.924
-23.079
79.824
-22.52
41.864
-102.48
-36.072
28.828
-1.2424
-10.767
-2.9881
-2.3532
18.127
54.583
96.606
-87.265
-115.54
15.053
-44.802
13.187
18.757
24.073
0.70611
54.963
27.502
-56.554
-8.4455
-37.803
52.149
-55.931
12.692
73.849
-17.585
0.72807
8.386
26.506
-8.2363
-21.56
-16.156
55.242
17.582
6.2867
-12.468
50.661
35.194
-139.71
-4.4187
10.367
-79.212
-18.509
113.07
44.935
-131.2
-21.878
15.869
24.071
10.92
16.968
-3.3014
19.568
32.782
39.73
-72.095
-79.312
97.365
53.969
-79.842
-57.818
-36.882
55.318
-2.8031
13.541
16.737
8.741
37.953
-3.1124
-6.8822
-15.226
-31.045
28.549
-6.9131
-20.84
14.74
-0.58621
25.557
14.906
29.499
3.2264
-70.404
22.56
-20.051
17.419
29.09
-17.109
6.6068
43.685
-46.454
-51.851
71.015
29.164
-21.466
-2.6449
-117.2
57.935
-6.8888
29.722
-3.708
20.087
-8.6474
-108.8
11.175
106.04
-21.619
10.207
-16.836
-64.472
15.138
1.7182
-10.961
54.776
13.992
3.0545
3.0996
27.037
24.779
5.6464
15.111
-18.117
-29.139
30.454
38.229
-65.125
-74.576
-2.3352
30.224
82.384
21.957
-197.97
19.974
77.589
-52.919
-29.018
25.956
16.491
23.562
66.894
38.342
-101.87
20.507
49.038
-13.965
-59.42
8.6052
-26.271
-32.789
-0.97441
33.675
-17.285
61.993
-2.8738
-3.1852
-21.949
12.272
10.83
1.2266
-39.499
17.304
78.112
11.35
-38.576
-36.041
-24.053
44.17
109.54
-37.82
-163.52
-46.012
57.248
21.953
-27.566
182.61
-35.552
-116.36
-16.124
78.645
24.144
-200.35
49.587
-26.221
27.471
32.738
40.957
-9.1648
-24.55
14.145
8.5941
26.387
6.2708
69.54
-26.224
-73.412
32.47
68.322
-16.771
11.143
10.244
-79.625
-27.733
14.225
43.808
2.2999
47.119
9.6229
-39.916
12.231
-48.058
-24.415
-22.912
49.75
48.647
-2.7037
-49.813
-31.236
16.326
27.083
-31.658
-18.838
-5.53
12.093
57.876
-20.102
-23.884
10.534
14.093
-25.913
52.661
3.6296
-114.02
67.954
2.1408
7.9721
-10.515
17.375
31.872
-72.144
-25.13
37.427
82.589
-61.234
-54.694
14.709
9.8972
30.013
7.4533
37.793
2.1629
-53.128
55.347
-27.916
-41.586
-96.509
96.452
71.391
-63.873
14.006
-53.165
12.776
-9.8531
3.6536
5.5218
-11.756
-3.2073
14.511
-20.838
35.982
22.799
23.318
-51.335
57.563
-127.2
-22.059
70.787
34.043
135.31
-53.778
-73.798
-27.271
-19.026
34.96
-26.753
-20.496
45.167
86.163
10.922
32.484
-75.713
8.4228
-23.518
-42.58
-20.152
39.913
36.63
30.203
-33.795
-38.432
17.009
34.14
5.6376
-41.756
32.475
5.9665
-6.9132
-8.5656
4.4471
27.288
-198.77
4.6873
14.706
53.372
5.4154
-14.779
21.378
-22.909
44.394
56.14
-65.874
12.168
66.893
3.8779
-39.429
-17.615
73.324
18.283
-50.062
-47.939
-41.187
49.653
36.517
-29.846
-21.274
13.556
55.359
31.546
-67.783
-71.805
94.634
123.18
-44.819
19.863
-118.43
-56.051
-27.293
35.554
53.158
-77.066
-44.52
23.001
44.596
17.321
-5.5756
61.76
-21.336
-68.421
16.971
23.776
91.93
67.279
-119.92
13.466
22.544
-15.406
-0.75144
-108.37
-68.02
-5.2162
29.833
76.329
-32.074
25.351
10.673
24.975
-0.92666
2.916
-13.971
-1.8326
11.718
-3.6328
0.76359
3.4384
-37.136
-54.042
11.458
114.2
50.766
-45.796
-1.2311
-3.4539
-2.7937
7.5475
-1.6257
-29.293
4.7031
-0.80152
13.429
37.943
29.097
-43.973
-37.917
4.467
13.7
-26.81
-64.683
85.048
4.6097
-48.669
20.793
12.766
-1.6733
-2.0789
-24.746
-7.3435
18.007
5.8075
13.715
-32.297
-1.2619
25.146
22.36
28.181
-9.5629
-44.545
7.9458
-2.4424
4.0997
94.959
-48.808
-117.47
-39.093
84.587
95.194
-136.37
-20.652
13.896
79.693
92.287
-34.861
-53.504
-1.9369
-33.658
6.3205
-13.224
-20.354
-28.866
64.107
15.95
6.2299
-9.6787
8.4399
-17.809
3.038
-22.56
21.877
-4.0749
-6.0671
3.4758
1.5579
-3.2469
6.8553
6.5169
-0.80673
-7.1134
3.9092
3.4047
-5.0046
-8.866
14.13
16.825
1.7178
-0.53232
-5.9355
-8.3065
-8.8067
9.262
-3.0654
-10.882
9.3166
10.471
4.2101
9.5078
49.199
-109.87
-32.592
74.042
50.091
87.881
-26.773
-98.752
37.801
-34.483
-27.641
37.159
28.843
32.04
-190.44
-84.717
116.79
-6.3922
67.267
39.617
-115.05
32.46
12.629
-5.4934
13.301
1.8391
-4.551
-5.287
9.4117
20.693
22.274
15.589
-8.8933
-44.383
-3.7308
1.1966
25.694
31.552
-21.936
17.743
-25.931
14.23
-15.693
17.69
18.83
36.302
-69.096
-37.356
97.123
-17.857
-46.541
-78.433
8.0508
62.679
31.496
-0.32759
-25.869
-15.087
-12.865
45.194
49.602
-106.54
-69.851
18.186
44.185
33.616
12.874
9.7079
40.053
54.385
-59.229
-96.585
93.226
42.609
-30.655
-27.224
-18.131
-72.183
21.203
46.808
-2.5493
20.169
-34.209
-15.349
46.657
-12.2
-58.802
67.101
62.056
-27.391
-43.741
-5.952
-33.283
9.5872
-30.116
-9.9761
25.923
5.7257
14.996
53.829
-28.978
-50.938
29.397
42.29
-22.187
-22.286
1.8307
7.1503
9.9581
-1.5726
6.1994
-39.485
-6.6878
54.55
18.41
-20.716
-17.408
-10.289
1.7224
-2.2744
-5.3971
37.737
-35.9
1.1084
36.25
-61.514
21.457
41.457
5.589
12.307
47.15
-37.303
-34.365
0.31821
-20.588
-7.121
13.836
-6.6652
37.699
-1.4888
-57.15
-5.5897
48.462
7.0102
-13.871
-9.9056
-1.9761
-8.3312
7.8145
25.305
-59.375
33.06
35.372
-32.364
17.162
6.8244
-7.0058
-10.367
-14.99
-11.322
17.099
-14.953
13.088
20.843
6.4188
-22.76
-3.2386
-17.053
60.497
-16.049
-15.637
0.3605
23.695
35.866
-36.134
-57.327
41.101
27.044
-5.4886
-19.03
-30.769
-0.83579
14.378
-10.672
-33.025
13.595
25.722
20.174
-11.819
-26.452
28.577
-2.1228
-17.956
4.6287
-0.76256
26.077
9.4712
-40.632
5.9151
4.1051
-7.1848
0.86801
9.8413
52.417
-14.626
-58.981
-9.0664
-26.415
23.578
95.838
-17.732
-60.13
66.601
1.7499
-73.696
-11.167
-4.1212
14.809
48.914
23.255
-23.321
-22.196
-7.3776
19.722
20.646
-55.86
-34.762
39.234
46.244
-3.8336
-7.0852
-8.1319
-7.6133
2.0212
-3.6963
-5.6697
-1.5666
-41.135
19.081
65.304
-37.684
-21.396
-3.223
2.765
8.2357
-5.3217
9.0107
11.583
5.3818
-1.3654
1.2574
51.879
-30.448
-67.396
15.298
42.788
19.053
4.9389
-8.3383
-10.173
-21.65
-18.645
-0.37284
0.93864
19.842
10.447
7.1658
-26.364
-31.593
54.133
6.9451
-9.6084
2.5804
-13.046
4.9373
3.1052
4.9089
-46.101
-17.901
-4.5998
2.8195
37.209
-3.7442
12.987
68.266
16.091
-85.909
2.0241
4.7744
-67.956
9.4343
15.366
15.627
-0.50358
6.8694
10.234
38.655
70.968
-52.007
-49.362
-1.7866
7.5972
50.884
18.243
-25.816
-12.021
-26.325
-34.05
-47.174
45.47
47.331
52.225
-25.096
-48.035
5.0348
-26.192
-51.26
60.254
-34.351
3.3356
-6.353
16.733
8.3661
2.789
14.931
-45.977
-1.4666
39.584
-8.7926
-5.9398
2.8726
12.954
-2.021
-4.2043
4.6745
25.773
-21.744
-0.52039
21.002
55.937
-33.377
-43.204
32.192
8.6643
-13.345
2.7758
1.3833
-7.6579
-8.2803
-11.569
-8.2022
8.8922
12.71
-43.252
6.7107
35.662
-19.02
-21.211
-4.8332
6.6302
15.147
42.881
26.188
-66.179
19.699
-1.2955
-59.22
6.7624
22.691
6.7234
8.7972
3.9304
5.8746
2.8693
37.745
33.14
-47.607
-30.763
14.095
-58.157
-28.606
15.203
23.403
30.32
7.6586
6.9217
2.4875
5.9462
-3.3033
3.0173
6.2768
4.2135
37.184
-6.0481
-47.225
-7.6563
6.6383
6.1907
29.104
-14.892
-50.233
30.261
28.047
-5.0284
-17.818
-13.674
-11.234
2.2668
4.409
-20.026
-22.108
42.879
-44.708
-38.082
18.664
21.328
19.141
40.444
135.54
-116.42
-75.384
45.133
4.6952
-26.476
-4.1371
6.6054
-2.1262
53.531
-16.869
-36.874
-10.068
-11.98
49.078
40.822
17.797
27.249
0.36276
-11.015
-9.6108
-50.043
-34.994
25.488
-96.235
-49.094
-29.904
10.647
77.374
66.074
72.047
39.852
-81.726
-51.29
-0.62777
0.21096
-0.39457
0.077295
8.2129
1.2615
41.751
48.42
-96.504
1.5466
36.936
-37.011
-18.447
0.93724
40.466
38.216
-32.28
7.5552
3.8759
-1.1635
-0.99435
2.0077
-15.228
-4.6099
0.64837
7.0811
-1.0211
-2.3858
-6.9539
-2.6883
3.9982
5.5461
-2.1846
-9.1482
3.305
4.5337
-5.1604
-3.4806
6.1515
-6.4646
-0.018365
8.2963
1.0198
-11.599
-1.6834
-49.898
-27.914
64.851
16.691
2.6294
9.5594
33.883
-8.3331
-7.1399
3.2251
2.8004
1.9136
-3.7216
-20.288
-16.463
0.74792
63.844
57.015
50.563
-0.020757
-66.327
-85.307
-11.916
-41.718
-26.734
40.407
4.6426
-8.3587
-13.348
0.2008
32.999
2.5363
-1.1706
5.767
18.023
-16.795
-36.261
-18.947
68.967
-1.3187
2.1566
3.0201
-5.4184
0.80117
9.8744
22.467
-5.213
12.898
-36.689
-41.298
10.292
11.576
-8.5056
-6.1581
8.0039
-6.6681
25.725
11.403
-11.891
-14.183
-8.0579
12.066
-0.32474
-8.1997
3.259
42.749
-13.643
-28.766
24.218
-0.63647
-6.0766
2.9366
2.7537
-6.6605
-4.9694
5.693
-0.41799
-4.6029
0.61981
3.0569
-3.6938
2.1142
-1.3442
-6.2585
3.9016
4.1337
-4.3418
-5.3098
6.2412
4.4369
-4.3198
-4.1844
7.3479
-4.068
-4.6593
4.6737
4.6112
-5.8351
-8.4777
8.4
-1.9288
-6.0399
8.8025
18.652
4.9038
18.747
-13.611
-15.331
-7.7621
4.8398
7.5067
-0.70067
2.07
-2.5863
-33.971
11.694
25.974
-29.523
-8.5426
25.204
-29.828
24.613
34.238
29.216
12.338
-72.746
-0.91485
19.638
-18.488
15.589
6.7582
-3.7758
-35.778
15.932
16.231
2.1371
-18.656
-5.986
-0.02858
25.637
9.6149
-15.775
-7.3788
-46.049
23.817
27.454
6.9204
24.348
-14.814
-13.19
-9.3373
4.6131
-4.1473
-2.8165
13.356
-4.9522
-34.409
-3.2674
20.168
-7.6462
2.6149
-7.8343
-16.867
19.798
-36.008
-12.208
46.867
92.679
-19.467
-26.588
-13.259
-39.547
-34.476
1.066
2.8108
14.564
1.8759
-5.8576
-0.4139
62.691
76.795
-66.115
-16.658
14.834
-28.744
-35.191
-18.757
17.266
101.85
31.003
-59.883
-29.251
-1.6425
-0.85632
-10.347
-17.709
-25.185
-14.136
25.91
12.68
26.037
16.433
3.273
-14.845
-5.7265
-29.139
42.622
85.372
-64.284
-10.034
-28.173
-9.1978
-6.3522
-31.288
-0.11309
71.99
46.854
-33.865
-16.321
-7.2729
-29.246
-19.71
5.116
29.36
-24.316
8.8713
-3.7526
14.423
-4.8792
4.6862
5.1545
-6.8127
-4.3815
-1.8065
26.86
-2.7298
37.25
-16.314
-18.355
-14.394
19.589
19.629
-14.244
-5.5057
-9.8219
-11.539
4.6527
-4.4122
12.704
6.7381
0.68721
-10.914
-7.544
7.952
-2.4004
-3.2212
-10.518
-3.7574
13.56
16.581
46.779
-58.466
-74.721
22.543
17.303
41.489
10.167
-12.851
25.936
7.0086
-21.719
-34.714
0.96846
7.7542
2.0539
51.978
30.799
-32.091
-36.876
8.113
-82.352
-84.506
178.33
56.422
-35.357
-17.231
-5.7328
-8.0445
-0.15836
-3.6104
-5.9511
-0.74742
-18.93
-3.6674
36.881
9.4201
-23.409
7.4332
