31.282
33.95
-25.965
-24.231
-25.692
20.177
21.231
-1.1555
-3.0653
1.2154
-56.16
39.755
52.438
-5.8032
1.8958
4.7484
0.53371
-31.781
1.742
66.499
-27.995
-36.179
-11.647
-9.8799
10.278
15.656
13.224
-19.045
-2.7182
-5.0831
30.635
-42.139
-54.346
94.782
55.716
-55.947
-17.058
-77.743
33.148
40.775
-4.0418
-27.309
-4.8421
-6.7862
2.9708
14.613
52.382
-24.521
-62.829
112.64
-20.989
-13.295
-10.483
-22.342
7.5227
2.8943
-22.601
46.718
-5.2323
-5.4326
4.2141
-22.145
27.704
9.115
-49.234
-13.327
0.74536
16.128
8.5096
-18.44
21.446
15.504
-1.8511
3.8244
-6.0681
29.327
6.4175
-29.892
-13.149
28.158
-15.803
8.0504
-8.3403
-3.9463
2.8375
4.4769
-3.9945
-23.65
-5.5691
15.671
5.504
-10.71
-5.9534
-8.9091
12.011
10.929
-5.8777
-1.4455
3.6889
9.1387
14.98
-22.185
-3.1431
-0.35949
3.2613
5.2118
-11.619
19.43
-1.4767
-4.9783
-5.4167
-5.843
11.404
-8.9356
7.2673
10.351
-0.93547
-15.416
1.7884
-13.668
-11.588
23.778
18.015
9.8048
-5.8444
6.9348
-1.1594
19.008
-7.255
-27.696
0.87874
-25.097
42.45
-7.2738
-50.521
0.048945
5.9522
3.3981
13.125
5.4758
-6.7853
-2.6598
1.8938
5.3767
10.409
6.2913
79.845
3.7094
-43.529
8.5741
-72.158
10.747
-13.331
-0.60549
-8.0494
-12.815
14.404
32.761
-6.9777
8.7836
-26.786
0.15085
-7.2431
-5.1316
7.3343
18.413
7.4081
-5.5557
-15.818
-26.19
26.262
58.251
-40.5
-13.837
-7.1438
23.242
60.017
32.976
-59.445
-19.708
5.7508
-37.849
7.9652
12.602
-4.4514
-3.222
-0.99466
-20.187
-15.187
1.5081
-0.90446
13.073
16.631
-8.6082
-16.712
-0.090888
7.9473
17.938
6.9294
3.8714
-3.011
-20.12
-3.0694
22.019
12.463
-7.8206
-8.3513
-7.4473
61.438
-20.174
-23.091
40.85
-44.029
-18.883
-13.895
-3.6004
4.8967
26.278
36.083
7.9415
-63.884
-14.909
0.74715
-10.631
7.4625
19.165
1.4492
16.651
13.727
-11.205
-5.9347
-2.5495
11.763
-0.94819
9.3538
-49.242
-2.8056
30.863
21.76
-34.758
-12.733
19.729
13.605
-6.1056
-0.82607
44.553
-10.793
6.4565
-8.3066
-11.386
-9.1985
-34.8
-3.848
42.491
42.33
28.852
10.322
-27.115
-11.15
12.597
-2.6531
-30.989
-23.576
9.0957
1.8844
-9.9403
-23.294
16.264
-11.955
-21.501
-15.291
-7.3777
-2.0357
25.365
1.053
-1.3128
16.325
2.2862
12.635
6.1647
-36.197
-17.386
13.062
33.809
4.9635
-60.555
60.289
-2.0792
1.1897
44.924
-24.717
-3.8963
-3.5553
-12.13
-13.28
-62.563
-28.203
34.529
23.643
6.9619
40.803
59.285
39.6
-15.348
-16.261
-74.366
12.785
-8.472
-15.221
27.047
-48.955
15.114
3.9138
12.885
18.003
3.7034
-22.985
-8.3197
16.187
-14.237
-25.352
1.7409
-3.1614
1.3326
9.1313
-4.4386
25.328
19.588
-22.486
34.437
-6.2788
-4.9736
11.119
-26.106
-8.7397
11.186
40.92
0.74508
-11.594
7.3501
15.935
43.317
-18.38
-44.99
-158.08
48.828
46.374
0.18871
29.797
-18.882
-4.2778
27.098
-11.786
-16.537
8.0829
17.737
21.832
-26.775
0.14099
-14.958
-2.2733
0.19336
7.3941
-7.324
17.288
-6.7423
-3.6102
18.8
-23.179
-2.2604
35.179
-6.4128
0.42287
-19.23
-21.993
16.017
37.723
15.687
-6.0765
6.2216
-30.006
-3.3896
-23.118
-25.617
19.983
14.386
3.4273
20.141
33.295
5.8074
12.278
-20.083
-74.893
-29.756
14.712
72.023
-28.263
44.916
-41.793
-72.661
35.045
60.097
48.022
-65.133
33.73
45.837
17.798
-18.533
-30.344
-20.544
-57.995
-2.1642
10.734
11.851
18.375
-41.971
-25.853
1.2758
-9.291
-2.7714
18.41
-3.2784
-0.31952
12.402
-7.1392
16.073
9.1009
-10.257
22.574
-7.1305
-19.172
-11.417
-29.993
1.1273
-0.12434
-31.204
39.397
-26.761
35.764
-17.23
48.945
2.9703
38.299
11.997
19.637
25.066
-10.102
68.829
-21.368
-105.03
10.271
-9.5862
-90.395
85.146
72.572
-49.234
-6.9043
-49.672
-2.8706
0.90577
17.179
-23.01
36.908
14.841
-32.966
87.734
-55.94
-39.88
37.294
-17.634
-10.732
8.8359
3.7294
-6.2105
-4.183
42.08
-18.264
-33.52
-8.5293
31.419
7.2983
-26.145
-9.4147
20.894
24.101
-11.638
-48.021
18.702
36.206
-38.518
23.017
2.5394
-24.517
10.046
21.521
0.97226
0.38169
10.412
40.495
34.829
-27.236
-16.825
1.986
-22.754
-55.833
52.104
-25.293
-16.016
-10.404
-44.234
3.9168
42.29
27.452
7.3868
-6.809
-18.76
9.8431
52.016
-17.342
29.739
-11.36
-84.34
11.38
-9.2924
21.3
11.321
-13.066
-27.712
18.206
13.375
-2.7056
-18.975
-25.205
17.636
96.824
-46.326
-81.769
72.16
0.6652
7.0697
11.317
14.044
-21.634
-11.169
64.756
-13.391
-43.682
-15.891
86.669
65.336
-16.041
-40.905
-121.11
-48.421
-12.169
2.7921
92.376
-21.332
-1.0226
58.027
-55.416
-3.2776
-23.659
22.674
-6.6148
-2.5778
-18.543
32.839
-0.64025
-2.1321
-11.671
-14.703
-0.21925
29.803
3.2602
33.185
26.703
-37.78
13.004
-21.27
-26.218
16.635
21.659
-6.6588
-13.137
58.47
26.851
-8.9285
-50.716
-27.621
23.735
11.025
-0.067345
-5.2469
19.828
7.4582
-5.5328
-27.485
20.436
-13.515
-38.213
-11.994
-8.3274
47.357
-23.211
17.322
25.44
-23.845
31.301
-28.227
-29.712
-22.523
7.5395
59.955
-22.384
-3.7135
113.28
-36.706
-131.75
-24.172
8.6347
65.962
-28.268
20.528
42.761
57.892
10.435
-105.66
-44.793
10.837
12.078
-4.5134
25.324
-13.057
16.298
23.045
-18.519
-19.649
6.4458
25.998
13.515
-27.803
6.1428
29.441
-28.764
-2.183
34.859
24.843
-19.992
-77.21
13.375
38.842
-4.0906
24.757
-18.665
-40.49
2.776
23.543
43.59
45.119
-125.82
-12.233
33.638
-42.68
-25.43
8.6572
10.595
23.349
11.423
22.531
-8.3824
-18.666
15.431
45.263
-10.488
-8.4103
0.79904
5.2298
-13.398
5.6138
0.12313
-16.701
20.497
-16.144
-1.3311
5.1704
7.4913
8.6921
7.636
-7.9509
-16.063
-2.7828
9.8692
3.895
-7.8559
1.2108
32.286
-29.266
29.83
19.971
-47.731
3.7792
-9.3633
-0.20263
9.9612
6.5497
10.791
18.947
-44.913
-33.821
25.209
22.661
-0.70056
-23.948
6.2634
-19.601
-11.683
23.841
4.6924
-13.105
30.417
16.922
17.865
32.077
-27.429
26.938
-17.29
-44.602
-2.9056
-24.568
-47.585
-28.539
24.295
55.082
45.359
-0.28219
-61.787
-83.584
76.452
25.753
-6.5519
35.959
-27.944
17.706
44.158
-33.624
-90.49
12.383
27.675
-9.3813
11.748
21.204
2.9427
51.272
-13.286
-86.712
3.9355
14.167
11.578
-17.522
-51.541
81.977
57.33
-74.381
-17.272
-14.426
1.4651
23.86
-5.2074
33.234
-8.9928
-7.4525
8.3935
-24.391
22.416
40.184
-25.051
20.868
-20.393
3.9867
-14.529
-33.594
38.315
1.7413
16.578
25.605
-19.562
-38.027
20.883
71.053
51.239
-8.1203
-59.497
-81.975
-45.166
-1.2667
9.6087
27.725
6.9348
17.822
-70.737
6.31
105.1
-13.063
-46.245
33.285
12.482
-34.945
29.185
4.0404
31.012
91.897
-1.5232
-206.73
19.869
60.936
-58.641
9.1695
-12.388
3.8098
33.754
-13.179
10.582
25.294
-45.078
26.18
7.3621
-28.821
12.103
21.521
-62.845
-27.609
90.427
-25.062
11.639
-3.6048
14.477
8.2513
-22.203
-11.245
20.075
-36.819
21.934
-13.181
-3.1459
66.648
-22.05
-7.5949
9.2446
-27.443
56.724
30.46
-50.975
-3.2152
-16.963
-39.136
-3.8313
15.841
5.4355
3.6453
18.933
25.15
-15.232
-11.062
-10.408
8.4155
0.26112
3.1879
3.7465
4.4342
-12.546
-38.747
36.423
24.267
18.22
-29.314
-7.4445
27.837
-14.479
3.9643
-18.533
-114.09
91.218
64.729
22.484
32.04
4.3724
-108.69
-148.24
46.641
142.15
-36.974
-49.073
31.572
24.611
-36.868
-12.664
23.354
20.065
43.114
-55.615
-7.6871
-19.518
28.715
47.088
-27.211
8.2156
3.5858
4.7505
71.479
-18.241
-25.417
2.3519
-41.311
-15.521
-42.337
5.8866
17.779
18.4
-25.205
-44.413
42.15
-1.1579
-8.5837
8.1396
4.5215
11.374
20.609
15.595
-35.502
16.966
-32.473
33.143
59.833
49.53
-54.086
33.827
-129.16
40.784
141.9
-84.651
-8.302
-29.532
-79.903
-228.56
195.57
83.152
-93.505
112.42
-30.953
17.979
-10.187
-21.433
19.276
-18.603
2.4412
41.525
-28.776
-4.2598
3.1937
10.377
36.86
25.906
-53.021
22.098
-6.6571
-24.721
21.674
9.1328
-20.388
12.673
-1.6814
-20.624
33.246
-31.536
-3.672
21.825
13.647
32.283
-55.006
0.22296
41.198
-49.958
20.149
25.525
-43.368
7.6893
-3.3506
0.18754
-6.4092
-31.853
24.99
2.116
-15.412
32.728
-75.993
66.28
31.025
-41.925
-5.7961
19.216
-7.0988
25.668
6.444
-37.478
-11.384
34.942
-6.1151
25.44
-73.321
15.964
15.646
41.426
-4.3706
-44.685
16.704
-17.053
8.2028
30.106
0.54287
-28.049
-60.264
20.977
75.732
-58.478
-39.065
-40.349
5.9069
51.532
55.343
-15.357
8.7019
5.1157
6.4552
43.922
-24.694
-23.302
25.417
-15.606
1.0362
-15.998
-16.711
36.251
-0.51574
13.995
-10.723
-30.473
21.606
7.1754
22.955
-8.9228
-9.3569
0.79867
-4.3293
-23.482
11.602
-6.7321
14.434
-2.3334
10.079
-20.33
-7.6151
-10.315
-14.184
-21.885
25.792
44.66
-8.4685
-22.881
5.4801
26.863
-2.0395
65.915
-0.39029
-39.117
-34.024
-22.482
26.072
-16.655
-6.1387
-20.899
1.7095
-20.137
19.543
64.951
-38.837
-23.316
20.262
-6.801
-7.3936
-2.4948
4.7412
40.473
12.057
-59.512
33.67
-15.355
3.6926
17.848
-30.777
1.9141
10.993
-0.45576
1.2128
-1.4989
-15.89
14.62
-3.2799
-0.73271
6.098
-5.7221
-3.0096
11.159
-20.025
18.688
31.176
-32.658
10.922
13.946
34.041
-10.847
-60.935
13.244
-10.506
-20.411
2.0301
22.385
21.743
-20.902
-15.151
16.557
3.3974
56.733
39.396
-12.027
-49.172
-100.68
26.157
-4.9653
-33.543
13.427
1.935
31.317
-3.0755
-5.4125
7.7656
-12.08
7.102
41.412
-11.206
4.271
3.3865
-11.798
4.9415
11.831
20.986
-25.534
-17.33
11.903
2.6383
-20.052
12.113
15.302
6.829
0.386
-5.4618
-32.062
11.332
19.59
-1.2697
40.117
18.204
-7.9244
11.464
-59.06
-9.4457
41.922
15.83
-68.851
-31.782
4.2217
0.49714
59.819
42.374
-45.615
-25.302
39.53
-34.024
-48.744
35.794
2.0911
-2.8982
-14.125
25.044
-30.38
-6.2213
-13.901
-7.6001
9.8819
12.305
52.803
-19.209
-0.7572
2.7461
65.946
28.895
-49.336
-53.029
7.6782
48.825
-86.55
-29.3
28.572
2.6984
-13.498
40.992
9.6709
33.239
-18.34
-71.767
-24.875
102.46
52.897
-49.458
-35.191
10.565
10.425
21.763
15.336
-5.2501
-34.199
-15.427
13.348
6.6341
8.102
-20.452
-14.898
9.8792
29.034
9.5257
-15.743
0.29284
20.093
27.652
-37.011
16.305
-77.047
5.9788
-6.2548
-10.864
8.9835
11.722
-5.2243
14.305
-1.5654
2.0825
21.121
-3.9449
-24.585
-4.2698
1.626
25.481
43.661
91.778
-111.24
-47.626
-50.304
13.034
58.032
-11.162
49.724
-7.21
-36.276
5.0647
-19.947
22.648
-14.568
2.1612
12.827
100.68
-4.886
-52.708
-46.367
-12.732
11.66
-24.193
40.547
19.575
0.61295
1.3047
-26.226
-18.894
-10.182
15.882
19.453
-22.961
-7.8688
-21.072
7.054
5.3046
-0.045689
11.893
-12.573
20.661
13.521
-25.414
7.5059
24.942
-16.471
-17.844
-14.663
56.872
-32.499
21.305
43.722
-41.996
-16.717
-16.284
22.079
6.5597
21.926
10.964
-32.414
-20.11
18.182
1.4614
19.973
-88.147
0.093725
83.933
-8.5005
17.789
-12.546
-10.688
-15.518
-10.093
6.243
-12.238
7.5704
-7.6821
6.0692
3.4336
-1.5839
14.229
5.9583
-17.721
-58.446
65.441
48.746
-53.129
89.467
-6.4622
-0.71368
-17.016
-23.319
6.9184
-26.741
32.814
-27.547
-5.0864
-15.636
-5.4331
-17.956
22.006
4.4481
5.1557
-21.446
27.213
-16.752
-30.11
38.817
12.423
10.716
0.91093
-14.725
-19.356
33.142
-44.888
17.73
-32.637
8.8102
-16.636
-6.0147
-5.6912
27.917
14.794
10.109
3.1133
-27.247
-7.0126
42.555
17.373
-5.9486
-25.702
-2.0769
-25.669
-2.2786
5.6201
21.127
4.4983
-18.191
21.672
1.7945
3.6733
-4.9585
7.6022
15.824
30.357
40.505
-127.68
-24.404
20.562
19.893
57.927
9.2159
32.629
-32.962
-35.881
-152.99
33.129
65.4
6.5318
32.563
-53.642
32.768
-0.75944
-27.876
26.5
-52.739
-0.27851
65.897
45.544
61.406
-116.81
2.5669
-10.997
-11.708
52.048
-19.051
-15.63
-6.7308
-5.4525
-9.811
35.489
17.868
7.299
-16.88
-48.79
-12.683
80.452
12.4
23.974
30.984
-33.903
-45.452
3.3392
-56.627
-24.339
84.899
63.103
69.862
-105.22
-22.356
53.334
-27.422
-20.09
27.594
-33.72
-46.577
-47.269
18.401
72.354
-57.235
82.108
91.428
-32.323
24.219
63.497
-188.88
-32.681
-248.09
34.342
225.44
-17.154
54.509
-7.2062
37.094
-47.073
-35.661
-0.13486
11.528
-6.3215
7.4598
0.038559
-8.8335
45.737
55.604
-55.862
-5.8743
5.8086
-7.5345
-34.435
8.9063
34.451
-18.014
-17.898
-1.9682
18.405
19.527
-10.342
-14.704
-2.049
15.224
26.315
-21.81
3.3977
1.9945
3.2205
-13.005
-6.5971
9.6425
-4.0174
3.1332
2.8712
21.332
-6.3742
-9.3666
6.1222
16.264
18.253
-0.85181
-1.781
-11.148
-6.0272
16.807
-56.084
-56.98
38.1
-24.856
0.34348
4.7243
26.707
39.182
-14.633
-20.506
5.2187
-20.37
19.899
5.8696
-2.1675
8.8392
21.171
-10.946
1.7323
48.752
16.242
-13.143
-42.278
-0.2197
7.0787
-10.393
-24.666
-38.973
23.259
4.3522
-2.9173
55.882
-13.778
-4.0395
-66.148
-3.7522
-9.1275
78.181
54.443
36.612
28.551
-123.79
-41.713
-25.474
-11.232
-5.4407
29.138
27.834
-20.385
29.812
-56.723
-6.034
-7.6959
38.33
52.37
-40.296
56.096
0.87249
-6.7562
3.9752
-54.902
-15.601
5.5549
-18.65
-40.529
-47.058
154.5
37.066
-76.725
15.345
33.325
-10.231
-31.148
4.0011
6.952
43.57
93.627
-6.9436
-128.18
49.233
-58.648
-37.676
-27.921
83.973
51.048
-85.689
24.166
83.044
19.223
-95.175
-33.477
30.808
-14.81
-16.968
95.564
-17.24
-10.039
47.175
19.858
-134.9
-50.321
64.126
8.1309
-17.179
-41.953
41.616
4.4852
-15.004
16.632
-24.374
18.958
-9.2914
11.463
-10.818
-2.733
29.273
8.3608
19.572
-7.0117
4.4683
43.108
22.599
-94.259
23.159
25.107
45.473
-79.165
-116.65
95.627
36.233
-20.448
-11.553
19.707
-17.974
-19.607
1.8323
13.412
-11.027
-18.662
36.313
14.449
-16.209
-10.494
-7.4989
29.26
-12.095
0.44362
4.5491
-8.0921
-2.7412
-3.4126
-2.6952
13.281
24.604
13.294
11.812
-11.26
-18.992
13.8
0.68445
-19.123
1.4282
-14.539
-0.26782
24.635
-24.419
9.7049
-38.593
46.628
25.952
-25.268
-5.7285
19.692
8.5287
-35.609
-26.051
88.229
-21.858
-45.588
-16.965
6.2768
24.619
-37.12
-3.1866
24.198
29.069
17.378
-44.181
4.9841
-27.306
26.146
-1.806
13.376
15.581
-18.274
22.218
-4.9438
-12.948
-4.8388
3.2804
25.747
6.4116
11.329
-10.962
-18.479
9.3221
-6.7475
13.441
-25.048
23.648
18.976
-78.114
9.9848
8.3594
10.287
-7.0355
14.833
-35.331
21.913
5.3083
-38.759
-5.7319
28.817
21.261
-34.252
33.652
-0.26486
-29.811
22.502
-18.811
-4.2239
35.447
-4.6618
10.774
-66.241
42.458
54.569
-43.957
-3.9487
13.775
36.627
-12.217
1.3556
-42.401
20.141
-34.34
68.566
-47.313
-16.74
-9.6249
28.385
36.237
-14.593
-19.376
-11.195
5.7774
16.125
-68.694
11.654
6.4644
14.341
1.4071
-23.474
0.25279
20.322
18.195
-22.337
10.324
-5.9255
-10.95
19.146
-11.845
-2.3498
16.384
-15.995
-2.435
18.564
-2.655
28.954
-4.995
-7.1356
1.0513
0.34471
-2.6433
2.7626
-2.1868
-5.1838
22.331
-1.7471
33.889
3.8423
-61.3
8.1061
10.19
4.3638
-13.508
-4.0135
-9.5873
-1.8911
-14.365
-9.2418
43.169
4.3153
-26.807
6.3259
-2.5751
43.787
23.742
-61.819
1.1305
-2.38
-17.894
0.36209
13.596
-21.274
14.98
1.2583
15.052
-28.713
-5.6624
-7.6526
28.585
3.8717
3.6875
-1.8991
18.993
-18.494
-17.926
16.39
-0.39557
1.2182
-8.5483
44.401
63.316
-48.862
-62.27
7.0337
-24.604
2.4632
16.948
-3.312
7.6068
77.368
-39.749
-36.556
1.901
-8.8336
13.298
-17.961
-4.1359
65.953
-23.255
-26.211
-16.285
-7.818
23.088
2.0823
3.965
-19.649
-1.9047
30.438
-14.213
12.917
-31.054
35.435
3.1117
-15.898
-12.512
-13.874
55.645
27.788
-62.667
9.3848
-12.414
-16.61
0.55533
8.5576
21.999
15.622
-26.991
8.4847
-11.422
2.5485
-5.7095
7.5347
15.8
13.878
-7.4255
-16.051
-2.6567
9.6524
-11.257
0.53745
11.163
0.011907
4.4541
-0.64958
25.034
-13.163
-12.375
-11.045
14.057
-15.345
-12.646
-0.27686
11.849
10.663
-22.392
-15.3
31.174
28.134
-34.794
13.625
16.366
-28.909
6.4763
8.1066
-41.366
21.249
19.292
5.6707
-7.3862
-8.6252
21.54
-4.8995
-17.713
2.7024
-8.2125
-5.7019
34.039
-23.439
17.727
3.5807
-26.797
6.0632
-10.625
11.387
15.03
-11.796
8.4337
-19.57
32.114
-16.028
-1.7098
-2.8322
-14.335
4.8209
35.511
-29.369
11.561
13.692
-38.693
13.352
2.8954
3.8279
-5.911
-0.7235
2.1908
-9.318
2.9379
6.0854
15.049
0.08623
-12.128
-11.83
14.674
-2.1339
20.859
-1.3634
-12.082
29.94
3.2427
21.556
22.566
-153.21
-18.923
63.101
-21.59
-7.0455
3.45
5.8983
4.5337
10.98
4.9472
20.227
-23.557
8.3352
7.3983
-3.2399
-11.972
18.771
-2.7016
3.3098
-1.8172
53.485
105.93
-113.29
-11.867
9.4082
-9.6618
-15.662
-22.933
-33.734
-9.1717
57.022
29.036
16.843
-15.4
-79.368
78.925
-29.009
-19.464
-2.8996
-0.034137
40.203
-3.8126
-44.526
-11.491
31.522
-15.482
-16.587
26.757
-7.0205
-13.33
16.991
20.846
9.6092
10.783
-22.75
8.1446
13.798
-20.564
12.163
-37.258
7.2547
68.51
-23.406
-12.905
-6.2197
-9.0313
-33.925
2.1221
-18.384
50.101
-19.312
10.823
-1.9468
-16.599
3.9575
4.3222
4.2064
-11.673
7.1689
-16.717
3.3947
30.593
8.2728
-2.9192
28.666
1.9867
-27.606
-4.5172
-19.272
27.839
-7.1808
19.161
-20.748
-22.772
16.869
-32.999
17.453
-38.768
27.916
29.727
-23.105
30.07
12.364
-78.582
6.3012
45.261
-6.3991
3.66
34.575
90.534
-87.904
-33.939
1.5167
-41.244
29.32
-22.833
3.2856
-1.6735
8.7154
6.1422
11.284
5.6271
-8.0152
-3.7549
15.781
5.6327
15.961
-28.196
-0.81572
21.332
24.164
13.391
-63.07
-2.3233
26.932
78.046
-49.219
-78.323
10.934
12.498
-6.1441
-23.061
17.844
14.478
26.504
85.834
45.263
-102.76
-106.48
-13.558
41.687
40.052
12.64
-30.229
-24.321
7.6971
16.758
13.208
-7.0158
-10.062
-24.435
4.0831
26.209
21.553
7.4094
-12.491
-18.472
-1.7742
-12.591
10.207
23.846
10.483
0.89917
0.32333
-3.445
9.0167
-6.6591
-9.2115
-1.0385
-16.435
20.895
-9.4242
-8.2273
-7.9415
-4.2695
34.832
-6.7501
-2.8278
1.0188
-25.52
-13.579
-5.8874
24.866
4.4226
12.219
14.494
38.623
15.692
-71.365
-14.6
-23.097
-5.5511
0.27719
12.036
-17.453
20.482
26.969
-10.309
4.8335
12.836
-22.31
15.408
8.0525
51.449
-11.155
-72.84
-1.4215
-4.4503
2.6061
-1.6168
1.4216
30.906
8.2828
27.301
-21.322
-13.814
-6.463
-14.569
42.774
-14.734
-29.158
-6.072
6.8043
7.7131
1.9098
-7.2433
-3.964
14.85
-5.4608
-2.3033
4.1817
2.2287
7.5566
-6.4728
7.2764
-7.8519
-5.7
-12.246
37.848
-7.2337
-21.478
29.154
5.3036
-35.416
10.047
16.321
18.821
9.7163
-33.941
-30.605
2.2358
20.403
10.098
-4.0049
-11.066
1.7439
39.861
-27.426
-17.364
34.633
9.429
13.34
27.372
22.11
-29.913
-86.37
-45.204
60.203
0.018499
-26.08
-1.2192
-18.205
-6.9569
35.117
29.278
-56.951
-15.128
32.064
46.539
1.4451
-12.982
6.0954
-66.332
-16.547
28.217
-0.24438
20.061
-15.404
0.82328
42.762
14.627
-13.757
-19.477
-30.394
7.7749
35.346
17.254
-0.64728
-2.8012
-28.448
10.751
8.78
6.0341
31.738
-39.349
-25.548
-41.387
1.9042
17.289
27.664
57.341
64.25
17.557
-57.152
-50.84
-54.586
-8.9864
-2.0239
2.55
47.539
30.119
-0.0014437
-35.027
-14.798
-4.3573
-26.14
12.123
33.579
22.315
-13.255
2.1939
11.301
3.4968
8.8373
20.296
11.775
-23.973
-39.892
10.458
-21.513
-0.88681
16.143
77.25
-3.6445
-106.67
3.1742
-7.6539
-3.9265
3.4743
-40.473
10.289
-10.92
47.241
-14.15
17.802
32.466
-28.831
-11.45
-11.386
11.069
14.306
2.3153
25.277
-5.7263
-6.2469
16.564
20.067
-11.875
-4.0999
11.565
19.765
-29.164
-11.667
4.3872
27.32
-23.61
-19.094
9.6456
11.676
1.4969
-1.3347
-53.502
27.35
9.5918
-8.7797
-26.427
33.163
1.8906
-29.286
-8.409
43.629
-7.3802
-6.062
8.0884
101.11
-88.52
-71.334
65.456
-48.359
4.5282
-3.6001
41.769
-3.58
-10.067
-8.2947
4.1978
40.286
13.648
46.529
-27.758
-63.82
-2.8025
-23.188
-5.6045
23.727
30.257
-11.762
-15.437
12.892
-2.1244
7.2617
14.668
2.1049
-12.385
8.19
7.6008
-0.87388
39.264
35.22
-38.41
-59.567
-27.409
5.8283
19.377
-30.607
17.055
-33.19
25.196
21.36
-14.104
-18.393
38.72
47.958
-54.922
-46.989
45.663
-19.697
-40.312
35.229
2.4667
10.256
-2.2918
25.69
69.56
-27.68
-68.229
2.5013
82.719
-42.494
-40.917
-50.112
19.908
35.617
-15.009
40.859
-9.6811
-5.5582
-45.779
21.137
52.71
-21.252
16.071
7.7619
-33.062
19.739
5.8099
-17.496
26.184
-5.4858
9.0665
67.852
33.464
-112.59
-27.696
30.16
1.6481
-17.484
-19.262
-56.857
10.582
63.567
-27.799
-0.12934
35.928
-16.056
-24.223
-15.956
6.7115
50.218
-3.6272
-14.298
16.948
-8.1925
6.6808
-4.6066
-15.973
8.2439
-7.1787
-5.9915
-14.285
20.979
37.56
-23.682
-38.832
-10.956
-18.433
19.587
32.909
-36.036
3.2273
65.583
34.177
-61.476
7.7463
-14.031
-28.727
29.938
-7.797
-7.4606
-48.361
8.5251
22.688
-2.2748
22.509
-25.614
-4.5823
9.4372
3.5649
17.087
-0.12252
17.221
16.793
-8.9666
34.226
-14.024
-8.1031
-29.685
-18.93
33.229
-8.5874
25.004
-8.5139
8.8113
-6.5745
-16.609
29.863
4.4976
-19.547
-6.1939
-8.4883
-9.2256
38.902
-14.543
-27.047
-8.7994
19.153
22.764
24.428
-51.99
-13.31
1.4986
32.457
44.708
-22.595
-12.854
-29.558
11.074
-8.333
6.3564
62.725
-33.792
-39.816
39.702
71.518
-76.742
-150.55
93.655
37.5
84.634
-83.616
-127.58
69.375
16.972
-9.0327
2.3096
20.525
-91.687
48.813
84.62
-53.732
45.121
4.8487
-27.219
48.393
-29.368
-30.038
23.097
-0.65945
4.895
-10.304
-4.937
49.108
-103.94
45.872
64.496
-85.444
42.268
82.629
-96.531
-124.93
90.765
18.426
-21.709
25.061
34.405
55.102
62.636
-55.503
-56.056
75.148
-83.237
-3.6107
-21.345
-24.884
38.772
21.058
-90.158
18.008
128.99
116.65
-138.17
-204.4
128.13
57.35
-9.9649
-71.651
33.097
13.322
-44.405
41.252
-64.506
-17.444
106.09
-23.435
1.9945
15.515
-1.679
1.9038
-8.0062
-7.7084
29.763
25.77
-41.861
-20.806
-25.456
-25.834
-31.867
23.076
163.46
35.408
-104.34
-8.909
-17.265
9.9975
-35.617
-6.3442
9.209
-11.208
20.867
-9.4981
6.9634
14.237
-17.333
19.028
0.42105
-14.923
17.611
-4.8438
-11.527
21.433
-14.045
22.04
52.623
4.8727
-46.038
-65.428
29.502
32.763
17.219
-12.795
-4.9558
-29.633
-63.214
75.583
-47.106
45.598
20.409
-25.68
-3.2101
16.513
-48.119
-18.472
-11.415
102.73
36.868
-83.971
-10.336
-34.136
42.256
-5.76
46.47
33.228
-51.407
-45.607
1.625
-0.79293
0.65055
15.101
-10.048
16.228
-5.7428
1.3363
14.782
-16.414
10.939
4.6657
-12.37
14.138
6.5292
-12.317
9.5868
4.2471
-9.9192
8.6392
0.4391
-8.6501
9.3551
1.384
-8.9478
12.212
3.7748
-11.935
2.2511
0.15895
-5.5437
8.8545
9.7538
4.9817
1.5643
-19.561
-10.52
5.5765
3.4508
-8.4052
0.91922
-2.6641
-5.3681
7.643
-1.4385
-5.6548
7.2559
3.077
-6.9944
5.2417
10.056
-0.30596
6.6527
6.4212
4.494
15.861
-53.214
-48.761
6.0708
15.102
18.651
32.182
51.249
20.831
-24.773
-18.755
-4.2869
14.845
20.891
-7.1804
21.573
-48.799
-47.769
-21.669
26.829
33.623
-50.951
50.551
11.749
-16.121
-9.2072
-97.243
40.004
46.567
-54.128
-2.9116
-15.828
1.4201
-46.429
81.705
24.59
-25.011
-31.267
7.6904
14.972
28.244
0.45325
18.982
0.83325
-45.022
60.406
-28.59
-62.683
17.788
0.085084
6.4035
27.459
27.116
5.1711
-30.648
30.819
27.417
-42.089
12.502
-26.554
5.7227
-1.5396
8.6761
4.8196
-51.687
47.839
33.688
-35.38
7.1766
-2.1897
-9.0454
1.2536
21.566
-2.4497
22.34
7.9856
-40.293
0.67398
-5.8431
-7.7611
5.7144
5.4266
-0.9101
24.683
20.471
-62.913
15.468
-10.163
8.2809
32.15
10.64
38.683
-67.321
-37.24
-61.753
42.236
35.703
-41.393
-18.707
23.207
22.166
-37.714
2.5523
10.579
9.0484
28.009
-9.1634
6.6081
8.2444
22.121
2.5216
-3.4186
-14.839
6.2577
21.888
12.897
-2.3532
-19.835
-13.898
-6.2194
3.3431
7.3374
-9.5379
0.92361
6.3918
5.4546
3.5111
-2.2446
-6.7908
-34.75
26.02
10.039
-19.347
-21.815
9.0114
-2.7913
-13.538
-5.3377
-0.33845
-7.1472
8.7913
57.179
2.6929
-32.482
38.789
65.098
-6.3356
21.427
-22.004
-5.1097
-37.561
3.7297
-55.013
-115.79
28.402
86.111
5.9286
-22.706
-6.1802
15.889
9.6907
0.20158
-6.4384
-23.1
1.3859
17.164
32.282
-34.839
-1.4416
27.35
-32.073
-5.577
-15.643
31.734
8.9373
27.958
23.083
-66.905
-12.319
1.5562
27.666
17.338
-0.45879
64.174
-87.263
1.3418
105.27
12.297
21.079
-92.402
13.325
-68.942
-44.863
76.297
-33.445
-58.676
71.881
-45.104
27.84
11.85
-1.6696
47.228
-51.329
11.015
-10.88
8.101
4.1089
43.712
-30.296
-53.645
11.946
17.716
-23.308
8.7926
20.706
8.342
19.833
-26.09
9.0962
27.506
-0.09734
9.6875
-2.0459
-4.1855
14.129
3.9294
13.945
3.2399
16.308
-11.115
-43.166
-21.562
-9.3828
3.2722
4.6892
-42.933
16.344
16.316
-29.636
9.0278
21.301
6.4188
56.568
44.178
-124.48
-18.209
30.189
-4.6791
-14.157
23.64
59.715
-80.368
-23.377
10.983
-9.6367
-3.187
5.8377
40.365
58.277
-47.598
-67.054
33.486
25.044
21.353
-14.105
-27.034
-13.734
42.004
8.026
-49.723
75.752
49.636
-3.387
3.8436
-4.8152
-27.538
-28.303
-31.836
52.237
-14.879
-10.688
-68.718
-12.785
27.867
22.94
2.4435
-29.268
-35.038
63.974
22.086
-17.645
-1.7613
28.787
4.8183
-4.387
-29.619
3.505
8.6282
13.238
1.0168
-17.687
-13.707
8.9868
14.113
-8.8303
11.113
-93.728
59.245
35.943
19.102
-59.744
-5.5878
48.43
-13.414
54.883
-93.334
26.422
4.6559
-9.4883
20.851
-6.5852
81.757
-46.07
-83.402
-39.385
54.58
-14.709
-13.171
33.204
29.963
-1.7931
-25.249
-33.583
11.606
32.54
20.25
3.7293
-23.153
3.3656
12.943
-44.285
8.3323
-5.5766
41.173
17.492
7.2366
3.8233
-30.279
5.5774
30.915
-9.4006
-12.825
16.463
47.592
59.852
-19.868
-88.451
-42.437
-11.484
-18.151
-14.077
12.121
20.458
4.6908
19.962
20.951
-13.477
-3.569
5.7313
9.6957
-33.676
-18.33
9.7628
-5.9646
9.0153
-4.1893
7.9016
28.043
1.2548
-25.637
-28.789
15.071
-4.5751
15.846
13.37
-27.161
11.451
35.366
21.289
12.911
-69.096
-8.7152
-8.8976
-2.5426
21.258
40.715
29.935
-72.219
40.556
9.8255
36.238
-11.128
-52.688
-18.774
-9.7016
-18.091
-15.22
38.919
25.18
-3.3808
-0.099319
5.3745
-14.715
21.768
8.8258
-7.9991
-24.226
37.53
-5.9737
-19.611
-13.808
-3.2029
10.081
-27.873
35.974
25.144
-12.677
-48.44
9.0447
-18.117
-22.238
6.9549
-4.0369
3.3209
-14.418
20.355
23.698
37.722
17.162
0.3829
-20.049
-26.24
39.998
-12.796
-41.309
3.3766
30.73
12.761
-25.868
16.548
65.73
63.221
-30.74
-68.797
-95.846
-11.041
-5.5002
19.402
13.527
-0.3203
37.678
62.39
24.884
-65.327
-50.704
-26.354
37.544
7.5117
30.705
-38.499
-32.753
5.9472
3.0323
-17.173
22.994
16.741
-3.4812
40.754
-24.386
-13.426
-0.86068
40.389
7.0366
-35.996
33.419
-31.188
52.672
28.664
2.3646
-23.479
-80.752
4.9851
32.957
9.8627
-39.213
9.5314
-7.1355
-20.703
30.083
20.7
0.7438
0.44819
7.0479
6.4628
-53.099
14.644
12.736
-1.9704
49.037
-67.169
4.9535
19.049
21.204
16.32
-4.3622
11.899
0.62747
22.59
-37.887
-65.077
-48.49
21.868
18.858
9.4142
48.691
2.682
6.6696
-65.393
-41.508
18.324
-5.2649
38.853
15.856
16.947
-22.319
-25.06
15.268
-0.15486
46.084
-14.999
-34.192
21.795
0.41004
-12.327
13.138
-13.133
27.721
23.061
-15.7
-12.969
-14.209
26.713
8.0962
-37.727
11.343
-19.459
12.992
33.093
23.818
-15.242
-36.909
4.4192
-5.3874
0.45087
-30.288
7.4364
-2.7178
0.73125
17.378
3.022
8.338
-0.97323
34.4
12.437
-3.7249
-3.1866
-48.122
-40.496
18.607
61.683
-11.196
-14.794
7.9695
-4.6954
-24.113
14.899
-0.77725
-4.4146
20.451
-26.559
11.576
36.669
-24.012
-5.9413
11.373
-26.372
-15.469
5.5605
-13.723
27.78
-16.493
-8.7145
7.5086
-10.976
-15.104
4.5269
13.425
-13.097
42.345
55.824
41.631
-43.627
-73.809
-6.8581
22.873
-0.8073
-0.24808
1.0913
-30.867
64.808
43.544
37.942
-14.993
-62.412
-62.409
-29.765
17.36
48.404
-15.835
-20.989
-13.668
14.706
13.311
-36.564
-14.225
3.8683
32.048
-5.8364
9.084
-2.8053
5.0524
6.1973
13.457
49.792
-8.0467
27.173
-36.577
7.2562
-24.801
-10.497
-1.9494
-14.737
6.9924
4.0566
0.57192
12.35
-4.055
-0.30193
14.532
17.64
-5.5642
-58.585
5.9482
-13.985
28.986
19.299
-3.825
3.6696
-14.279
12.507
-27.607
5.096
6.9446
-5.3267
-22.7
14.033
-16.568
-3.0902
114.77
20.36
-25.408
-82.207
0.9849
-21.899
-62.31
-4.3698
57.141
11.152
14.948
-3.1086
7.3565
10.618
6.0654
31.927
-9.7248
6.91
14.911
12.568
-44.523
-36.188
24.171
26.823
19.737
-3.2812
-7.3109
-9.8813
-42.992
-18.703
32.031
-29.431
-16.328
17.623
0.056466
7.5246
-14.677
-2.6623
20.27
8.7187
19.257
-51.188
13.239
39.476
2.9253
3.1842
-7.8038
5.4449
16.77
20.142
-3.1873
-31.971
-7.376
8.9993
-3.3263
8.4088
-34.382
-3.872
13.295
-0.66718
5.9716
-27.412
-18.251
-29.558
64.158
35.385
-16.4
-56.676
-1.0938
-16.751
21.173
26.762
-18.357
28.329
-32.442
37.75
2.3083
14.724
0.73653
-1.9004
-12
-9.6474
9.2999
7.062
5.1726
-23.997
23.906
-3.1765
-8.2434
32.967
-71.304
-12.085
15.964
13.536
6.303
15.771
28.006
-40.747
11.291
24.872
8.2362
32.501
15.075
-30.704
-126.56
25.951
-2.5304
2.4912
17.106
-1.6536
45.08
56.237
9.9259
-37.251
-36.178
15.184
-48.854
-23.703
24.34
-53.369
26.052
4.2287
1.5139
26.573
-4.2241
14.984
13.776
7.1688
-5.0584
0.59018
-16.042
15.558
21.628
0.96853
-43.437
1.5914
2.0531
18.27
-2.552
8.0298
0.32702
-40.918
21.138
0.64766
6.3944
-6.0121
-18.042
30.493
-3.249
12.635
-5.1143
-18.553
2.6665
-10.602
-2.5037
14.863
-11.945
-1.282
38.018
0.63736
-2.5412
2.34
11.877
-35.811
-43.678
42.114
-29.704
19.194
29.357
-32.485
72.468
18.168
-58.052
-25.663
1.8244
-16.346
-26.398
33.246
-7.2586
38.683
-11.907
0.60672
-14.229
-36.72
57.81
-13.965
22.865
0.25466
-18.204
-4.0818
-29.902
21.834
53.372
-12.891
-23.215
-27.4
51.445
-0.87697
-24.872
22.576
-34.899
-14.783
4.6912
-8.409
27.992
19.656
3.3373
8.8516
-13.705
-4.2322
9.3421
-9.4657
-22.231
20.778
-40.999
-2.7665
34.697
-16.177
34.879
-2.8358
20.021
-21.938
-36.446
0.78093
-13.861
36.646
-21.319
-28.862
7.0087
5.5491
31.67
-13.126
15.526
-1.7312
5.0658
24.801
-46.716
24.586
-7.3364
-40.454
11.701
-21.482
27.62
17.308
0.9245
28.886
11.334
10.738
-18.189
-27.255
-7.2887
-1.5394
35.112
-7.0453
-0.17912
28.391
7.0829
47.431
-83.582
-116.34
-4.8583
4.4118
41.347
7.1436
10.64
17.947
-17.423
29.337
7.9884
3.017
3.7898
-35.008
17.668
35.188
116.86
29.716
-106.79
-11.109
-139.77
16.96
28.187
-4.6168
18.201
19.161
47.566
-62.787
-16.925
-9.7531
42.76
2.2811
24.78
69.387
-38.552
-28.906
-35.016
-16.142
13.164
-1.733
24.15
14.544
-8.8522
8.4484
-20.26
40.281
53.379
-22.053
-69.376
-39.369
8.8709
3.7803
43.822
-9.9273
2.0501
32.389
-14.957
24.763
-1.8798
-83.948
-14.018
-16.126
20.419
31.803
0.9081
7.1585
-31.049
-13.987
15.998
4.3706
1.6234
13.01
2.1323
20.716
-19.379
-15.347
23.175
-1.8836
-16.674
42.668
29.191
7.8349
-26.53
-50.798
26.114
58.953
-38.045
-38.332
-10.719
1.7048
-8.7205
-0.24949
15.307
15.204
1.8029
-2.9104
31.854
-42.251
-7.2905
51.606
-2.7093
7.4912
-34.895
18.053
-7.5491
-18.98
56.665
-17.476
-49.36
-17.997
-38.086
19.432
12.276
-26.432
49.477
-7.5924
15.233
1.3081
-24.543
29.864
-12.219
6.8127
-4.491
1.0883
34.081
-6.0583
-1.5341
-45.599
-19.571
16.241
48.127
53.506
-47.192
-21.656
-18.766
-5.8798
5.765
7.5181
19.089
-28.833
35.745
-13.528
-18.399
8.2209
-8.3982
51.236
-24.89
25.596
-2.5607
-44.452
13.864
-17.551
-0.061178
3.6278
-5.2512
25.272
-26.521
-8.2374
-9.5862
29.783
4.1726
-20.319
11.994
33.219
5.7733
-5.4187
24.782
2.4193
-15.317
-48.769
-47.421
-19.167
13.961
32.033
-6.6182
-7.2919
48.067
28.534
-48.187
6.4605
1.2429
-0.68351
55.287
-57.925
3.137
-12.188
-6.2644
52.2
35.006
-24.097
-15.703
61.28
-38.242
-30.369
0.59495
-16.257
36.052
-25.354
51.025
-79.149
-35.43
24.124
30.887
14.908
-26.321
15.221
-6.4067
-2.2985
-11.14
-7.9418
9.7353
5.1492
-11.312
4.5317
-22.148
-30.64
33.095
23.87
26.047
-18.725
-7.0551
40.43
-15.593
40.749
58.63
-47.888
-46.808
18.019
-30.242
-4.9648
6.6232
-0.14947
0.89656
-23.287
-5.9489
14.72
34.271
-6.545
-10.081
-17.714
-9.5684
4.8616
-8.2733
-5.4712
-20.258
-8.3952
9.5932
32.298
10.244
33.3
-4.1455
-12.201
-23.835
19.959
-29.686
-2.6089
0.69095
53.61
49.016
-75.531
37.096
-60.935
28.858
-28.203
28.965
-33.467
33.476
50.537
-64.446
-37.616
15.705
51.197
-42.524
-26.717
38.543
-7.9686
-34.465
3.4196
12.322
24.764
-29.003
26.537
10.039
-27.04
51.606
-23.504
13.847
-8.2022
18.813
-13.997
24.21
6.1226
-39.928
46.703
-16.701
-19.431
-1.22
-18.588
-45.473
81.245
-36.618
-5.6628
-1.9316
22.088
-20.427
42.581
-22.5
-47.155
31.314
17.775
-47.527
63.538
34.813
-61.985
-14.918
-73.555
64.261
73.966
28.511
-119.86
59.399
17.093
-2.7406
-3.8346
22.074
-24.09
0.032949
-41.702
-134.93
162.17
-43.867
-10.495
43.007
-54.006
51.218
38.673
31.704
-67.594
-12.444
-17.719
25.582
-0.42371
45.109
13.286
-49.369
-50.273
77.897
-26.31
-5.3883
7.2529
9.7108
-15.197
4.953
1.3834
-4.8859
1.9889
-4.6849
8.0448
-20.088
-3.1232
-11.779
-8.4351
22.267
-11.505
-5.4041
-29.774
64.914
-1.5801
-17.153
-0.073803
4.1903
19.3
-19.511
17.903
11.037
11.156
-8.5775
-7.2603
2.6258
-2.2334
10.119
-18.03
5.4537
13.086
-11.715
1.4657
10.64
-7.2868
-23.368
-7.5538
6.2257
-26.657
32.345
21.104
-25.802
8.6134
36.743
-26.39
-2.1017
-48.897
20.968
32.893
16.591
51.593
-41.41
14.984
-131.25
11.574
22.676
-53.541
87.226
-30.897
3.7226
70.78
-7.6767
-31.968
0.51868
-69.027
35.386
4.3895
-79.374
13.727
68.021
-18.548
20.158
-16.262
35.574
-5.6833
-12.795
-8.1234
27.522
11.453
-18.175
33.371
-51.888
22.162
-14.546
-17.562
70.821
37.178
119.76
-86.51
-41.834
-46.119
-33.021
24.614
-15.461
9.3176
-12.124
-14.814
2.7362
-5.462
62.946
-42.249
16.605
-12.984
-5.3479
23.302
-37.248
11.437
40.168
-21.327
49.147
-68.211
-0.40612
31.799
7.4534
-12.287
36.699
-16.048
-67.801
26.968
-14.294
15.588
11.253
37.004
-41.265
46.795
-33.713
-35.297
-24.466
59.083
29.252
-22.69
-52.822
19.257
-6.6655
27.214
24.084
-20.003
4.1563
-34.648
-6.3761
24.822
3.8326
-17.92
15.95
-14.413
6.0797
22.97
-15.884
-22.744
-23.362
3.476
2.9181
12.097
39.027
4.3101
55.557
15.284
-85.192
31.737
-41.4
-5.0939
-1.1356
10.636
6.6309
21.478
44.032
-42.197
-21.972
-11.234
-18.197
15.651
-0.22038
29.755
-13.336
-13.999
13.19
8.7834
-13.953
18.906
-13.745
-0.14196
14.722
-18.873
-26.5
16.604
-4.7954
-10.449
13.491
-0.40572
90.237
24.828
-48.953
13.79
9.5346
-57.242
-51.97
-135.38
70.518
65.511
-39.491
19.222
10.651
0.45056
43.35
-10.654
-16.663
11.765
39.427
19.975
11.407
44.437
-69.949
-14.034
-31.655
8.6087
20.303
-19.398
34.07
-10.583
-27.656
21.007
-5.5062
6.419
9.013
-16.501
-18.024
14.827
3.9311
-9.8223
-50.861
58.461
-3.0757
-23.149
14.854
-14.058
8.2559
-25.527
25.075
19.575
21.574
-12.876
-1.5234
8.9697
-5.4888
13.804
-4.7349
1.3776
-8.8574
-20.926
-7.3807
-9.4256
13.31
5.8563
12.183
-10.816
2.6914
14.652
-14.671
-13.612
10.712
23.424
-9.0796
-34.107
19.689
-35.243
60.888
-20.249
-35.505
35.515
9.1327
-1.006
-14.417
-18.367
35.838
37.261
-18.563
4.0384
-8.6686
8.1793
-48.812
8.1518
-11.581
-19.169
60.445
18.749
-25.252
-68.087
-19.633
-26.09
-25.321
70.098
75.749
-46.293
-24.296
28.646
40.505
-38.942
-4.6447
42.761
-22.582
-24.123
-15.219
79.915
-43.374
-36.117
30.005
17.837
48.78
-26.265
-45.439
-18.631
35.327
-16.922
-16.527
26.362
-18.593
3.9657
-24.162
-9.704
13.354
65.658
-30.614
-2.8243
1.9867
-12.648
-3.4529
-12.475
6.8683
-7.9421
29.591
52.808
54.123
-83.477
-24.948
-17.372
-5.2142
10.53
-12.479
-12.78
23.612
-6.7271
34.95
5.8703
-3.4044
16.767
-17.11
9.9718
-15.713
-1.0982
18.463
-0.40627
-16.486
-10.105
-0.26867
9.9029
46.951
-35.792
2.6487
-5.9962
-6.9205
36.818
-19.631
32.69
-71.241
-1.6675
8.2354
-13.19
-14.339
16.534
-1.5873
-13.151
29.758
22.363
-6.3862
-14.244
15.968
38.325
-71.799
25.12
30.328
-78.406
50.915
-16.935
22.686
-42.923
6.2564
36.953
-29.503
37.146
-5.6611
-1.9546
-22.817
-13.871
-5.742
46.23
28.27
-74.236
11.699
-4.6343
49.676
-44.951
-36.98
21.043
37.741
2.4775
-19.429
0.97153
-4.7789
1.4308
-13.143
-7.2204
36.897
-2.2346
-25.313
-9.2781
7.5922
28.605
12.761
-6.3347
24.551
-23.571
24.61
-3.9575
0.6738
-19.534
-20.909
1.7948
17.174
1.4635
23.725
-4.6268
-17.504
1.7948
-12.816
-14.46
0.8669
-8.038
29.425
-27.044
43.054
27.187
-70.569
-5.2711
-9.9543
-4.4647
20.871
35.48
-83.61
36.123
17.882
12.359
4.6114
-27.711
11.412
-2.3013
3.3656
-1.0377
3.1317
16.189
-4.9082
-4.4041
7.5329
3.41
7.6285
-1.9307
-14.826
2.4007
-3.9513
32.969
-6.5845
-25.975
-3.1975
-0.71435
19.406
-11.555
-3.6961
-19.962
11.971
56.016
-96.915
21.813
14.511
48.129
18.59
23.808
-67.874
-80.694
33.505
-0.98872
8.8323
-9.7947
18.596
19.727
3.4007
16.347
10.567
-14.669
-36.219
-25.348
22.067
31.629
16.46
-11.57
-4.5661
-7.3946
25.853
9.3829
-13.355
19.145
-28.09
-115.19
56.415
29.606
46.977
15.991
5.7967
-51.61
-40.312
26.347
10.832
-48.242
-4.0115
9.6472
-20.253
38.158
-17.7
18.678
1.3176
2.3983
24.308
15.907
-4.0771
-19.898
22.022
-0.87333
-0.4263
-1.645
-41.459
5.5304
6.3422
9.7083
4.1799
-4.5006
2.471
-2.6695
-7.0092
1.6325
57.751
-8.4589
-17.538
34.854
17.942
-58.634
-14.849
11.326
-27.068
13.499
-29.001
-4.2056
2.4377
-44.645
62.051
15.829
-2.6665
34.33
-19.168
-43.283
7.9883
39.088
-18.729
25.28
7.5835
-51.738
28.639
12.729
-3.8453
-4.8348
-4.4222
-5.9486
7.8212
47.235
-20.14
-43.898
4.93
53.932
-50.824
-9.4845
39.966
-33.538
-19.809
-6.7473
10.106
4.9792
1.1528
-3.981
22.032
44.269
0.43325
32.699
-14.166
8.0334
-48.379
-122.87
-14.617
10.847
49.841
-18.562
30.801
22.797
18.632
-13.031
-42.137
47.813
-47.715
23.417
69.174
16.203
-8.1932
-27.046
-32.675
13.786
-22.328
12.994
17.61
18.73
-8.9348
-16.129
-5.9701
-10.232
11.612
-21.541
-0.46302
11.798
-4.5121
46.049
4.9336
-45.379
14.843
4.6979
-0.24586
0.34477
5.2179
9.9492
-15.53
16.922
61.391
-39.925
-49.963
-46.116
3.4607
-5.268
1.3091
3.1907
22.278
5.5361
-24.044
0.33596
8.8427
-2.9202
20.651
10.011
-6.2082
16.59
-18.988
-18.176
29.977
14.415
-9.4999
85.629
-60.929
-13.663
32.341
-73.221
61.132
9.0747
-32.211
-11.881
-54.731
-19.233
38.408
18.265
17.184
39.718
-16.186
-4.2923
8.731
-17.415
-42.621
-45.16
23.212
32.21
62.134
5.3621
-11.792
23.559
-18.223
-19.319
-32.992
-6.4113
18.592
-9.332
36.32
-1.8259
-28.789
-7.192
9.7558
-9.8968
0.87665
15.008
-8.1085
25.424
-53.564
-22.415
35.234
16.001
-34.2
-14.028
10.704
-10.515
12.721
4.6015
34.012
-19.994
-0.26482
8.6026
16.734
-9.408
-9.6144
21.87
-1.8181
-2.6412
9.1972
-16.22
-9.984
9.8265
11.134
-1.5755
-14.292
8.5228
13.708
9.8611
-5.633
-2.2553
-9.5764
-11.32
37.832
-4.4886
46.904
39.988
-42.865
-18.597
-44.255
-21.41
-20.706
-50.12
45.341
23.831
-37.807
-1.3782
24.77
1.8161
-25.791
26.962
5.7302
-28.025
6.1805
-16.973
26.012
-15.063
1.6735
-15.946
-1.4541
-3.7804
1.8566
24.153
12.405
33.748
1.0895
-96.864
45.75
15.995
48.356
11.448
-25.488
10.05
19.255
7.8574
-2.0801
25.166
0.58605
-30.904
2.2487
7.1275
-15.793
-56.807
31.842
2.352
16.422
-10.89
-24.503
32.649
-22.658
-12.805
-2.3467
19.285
34.757
36.962
-7.6678
-66.368
-12.211
-14.857
-12.202
26.704
-4.9949
6.498
-7.5718
-20.767
15.878
23.588
18.093
-3.8929
-8.6075
-16.484
7.5502
0.99385
9.202
-7.4416
3.4299
7.9086
4.854
-22.666
-2.737
14.348
-1.5673
-13.49
30.376
-10.194
-24.332
6.1575
6.944
0.3084
22.728
23.643
27.231
-10.893
0.37962
-57.464
-61.907
3.5893
-22.735
41.473
23.401
-40.368
18.608
-15.219
12.797
24.828
-36.125
13.327
11.357
-4.9406
10.714
-7.2467
7.8238
6.2428
1.4097
14.982
-4.3967
5.536
9.6678
-10.584
7.4507
9.3095
-12.205
7.8866
8.3774
-8.4953
-2.5162
5.6589
-4.9169
-3.1515
2.3337
6.9964
19.413
-12.41
-14.564
7.4139
-20.081
-71.2
51.808
43.731
4.2964
-56.971
1.3355
-13.066
-2.5946
13.165
-17
14.541
-16.082
20.671
-8.1962
0.29007
46.01
3.1045
-8.9536
18.166
-0.063293
-10.176
15.218
5.4376
-36.741
-0.4526
13.283
17.31
-4.5106
-10.16
-0.76611
-3.0037
-18.596
-10.407
7.0193
16.633
-22.533
5.5524
6.9568
-10.751
-6.7027
11.28
1.7821
6.4226
-12.555
24.277
-2.1444
-23.153
-6.1457
13.284
7.3898
-9.3295
4.2528
21.353
-7.7532
-6.3709
8.2696
-9.2081
6.035
4.9789
0.32973
-4.6185
8.1676
-3.1989
7.2238
6.5578
-5.1233
13.198
4.4247
32.088
57.446
-54.386
-145.24
-13.673
47.854
0.80544
18.564
7.8303
13.776
56.764
-22.693
-23.001
-4.7393
9.8158
63.479
-127.02
-81.705
58.657
12.194
9.8239
16.354
-0.065023
22.842
43.856
5.1993
-18.691
-0.022501
8.8953
19.406
20.108
-24.714
-3.0236
-21.882
-45.15
-26.82
25.337
-122.5
-94.347
161.82
34.888
36.949
-7.5084
-5.4722
5.4948
-4.4093
-1.3391
3.8309
-2.1535
8.2882
-1.6442
-2.4756
3.9123
-6.9403
8.1482
-4.4726
-0.23716
19.498
-12.41
-0.42521
-6.3625
-15.166
8.5957
10.85
-0.81685
-4.6067
22.874
7.1793
-2.867
5.0771
-14.302
8.6205
0.36059
-11.378
2.7914
-2.354
-1.0142
6.8788
-2.9128
4.2169
5.285
-6.4648
-4.2313
-8.7519
7.5269
23.797
-8.7833
-5.0115
7.7634
8.3761
-7.7909
-4.5455
22.536
-12.503
-10.549
-6.0462
-4.6841
5.6717
-5.9056
6.1981
6.6187
-13.912
-20.381
18.571
2.9419
0.976
9.9553
-9.9596
-2.9352
-8.1986
-1.0925
-12.507
3.9534
11.223
9.6887
-8.3866
-0.92079
9.4391
-2.77
-17.614
-1.4121
10.405
-1.769
27.121
-11.838
5.2766
9.954
-9.968
-10.355
-26.025
-1.4899
14.748
10.741
-2.2908
5.9443
10.863
-7.4206
-11.372
9.682
5.4698
-12.586
-1.588
9.4782
-0.23407
-11.613
-7.2283
-5.5228
-7.1495
11.876
62.281
49.572
-12.456
-38.017
-36.751
-51.362
-11.66
11.749
-1.8073
-11.781
13.842
14.531
17.075
9.5649
18.33
-21.524
-17.951
-4.7276
-11.119
12.198
11.938
-14.512
-8.1279
5.7243
-3.5728
13.5
18.071
-12.951
4.5933
2.0433
1.7109
-2.4495
0.97818
37.387
-9.6185
-1.8809
9.3948
1.4323
-42.199
7.0483
20.493
-23.536
41.049
-16.541
-34.473
20.166
-1.5268
27.322
-3.8353
-52.598
-15.195
40.627
8.4268
-36.559
-9.8254
24.48
28.433
-23.989
-39.717
8.517
8.8574
-31.734
39.78
34.132
24.012
92.143
-57.159
-89.736
-62.462
23.945
126.97
-4.6837
-64.222
-3.9413
-23.958
-1.7052
5.7958
2.1348
13.169
11.545
-7.9601
4.319
15.102
-13.875
-3.259
-0.27949
-0.92388
8.0291
-9.5212
4.9651
15.911
9.8525
-7.0523
-0.43017
15.048
4.3573
-13.307
-6.1917
4.4962
-9.1428
-1.0901
-2.3977
-3.8476
3.4336
-6.4693
-3.067
3.4382
-3.131
-2.9404
5.8729
6.9805
30.144
-12.173
-66.746
23.275
30.69
-5.7499
-29.443
8.8674
11.969
51.201
50.821
-90.056
-79.389
5.2012
80.973
1.8447
-82.604
7.8253
-4.5156
-8.099
25.711
-10.834
-8.2726
56.451
24.444
17.244
-36.881
-7.2312
88.829
-10.468
-25.617
-37.441
-37.321
-34.254
4.2712
60.506
20.707
-23.068
-24.675
-19.558
5.3228
22.009
17.015
4.5074
-5.5336
-23.01
0.14631
-3.7611
-6.4186
-2.1952
15.88
18.095
13.287
-22.446
-11.837
5.341
1.7794
22.292
13.483
7.3971
-2.2731
13.189
4.2255
-13.077
43.981
-0.17159
-49.545
-12.186
-18.216
-26.227
2.919
45.294
19.962
-33.933
-24.529
41.551
-31.062
22.265
-16.038
-1.7076
-9.5435
-23.178
1.825
50.493
17.44
-39.791
-6.4573
0.49546
-9.292
4.9528
13.57
15.34
-26.438
-25.906
36.839
24.362
2.508
-32.585
-19.099
9.454
8.9006
-1.2795
3.3625
-18.962
14.515
8.3511
-18.002
31.482
44.577
-19.913
-60.52
31.034
34.621
-35.571
-22.451
12.301
21.707
5.4715
42.893
-37.615
3.9665
5.4343
-27.322
-15.884
25.412
16.673
6.709
-48.786
-9.8571
17.857
16.758
2.7932
-4.0146
3.9568
-8.5715
3.0993
-6.7247
-9.9004
11.551
-12.982
-12.978
13.834
10.835
-3.9083
4.6624
-1.8103
-15.477
-37.805
5.282
23.242
24.837
-11.319
20.111
-23.355
-1.9468
47.111
-37.482
-0.25672
23.14
-17.337
7.0529
-41.078
8.4856
7.8178
32.399
21.506
-46.1
20.19
32.918
-43.908
3.2516
15.644
-27.245
-48.548
-4.4114
28.865
21.132
3.787
16.102
42.027
-7.7877
-25.502
-25.706
-6.9681
16.161
19.93
-8.7895
-25.179
5.4963
13.691
6.9028
-6.5103
-15.42
-0.83189
-2.4709
-3.0252
10.172
-7.2152
-6.2333
0.44163
11.829
13.731
-9.5448
-6.9285
14.282
-7.0065
-26.918
-15.507
-5.6461
31.531
25.33
39.694
-31.104
-22.617
48.153
-41.049
-35.755
42.014
23.976
-50.997
-24.952
34.967
19.727
7.7652
10.488
5.4047
-26.107
-23.126
-12.764
53.452
-16.064
-0.49997
-11.658
0.12982
17.568
-0.81022
-13.936
3.785
12.047
-2.9271
2.0548
1.095
-22.236
3.5983
28.18
-6.3243
-17.628
-11.571
-39.646
7.0233
33.97
10.053
-2.6842
11.192
7.8412
-7.0063
0.61511
0.7354
-13.108
2.0096
3.6008
5.4822
1.7892
-7.9876
-4.3899
-3.1921
17.303
-7.799
-15.041
6.7619
5.7883
3.213
6.9281
5.2344
2.6865
1.4568
-16.453
-7.4254
1.4289
1.2547
10.514
9.501
21.824
-26.344
-23.79
-11.201
-8.667
-13.615
23.068
27.387
8.7718
-19.29
56.892
-13.496
19.468
30.789
-126.56
-22.435
2.0809
13.659
27.108
-34.153
-12.876
25.949
17.723
83.037
41.499
-87.818
-57.097
-23.348
-25.744
44.536
15.167
-14.184
34.112
66.417
19.693
12.509
-26.395
-152.82
33.21
109.88
-9.239
-89.281
15.141
-17.889
18.949
40.184
6.3811
-32.919
-9.7901
39.965
18.619
-2.2283
-29.379
-9.8258
-3.442
-4.0425
-5.5659
-6.8766
47.362
-40.51
-6.6538
15.783
13.998
18.35
-17.916
-14.828
9.7554
6.4825
16.537
4.9379
-13.609
-5.5865
-13.982
3.7534
17.722
-16.807
-18.096
-33.871
40.737
50.842
-30.224
-18.104
-48.032
-33.927
38.798
52.085
24.435
-36.953
31.59
13.447
-118.36
3.845
20.451
0.39934
34.544
14.476
16.085
30.092
-35.992
-15.202
44.234
6.4345
-19.058
-3.3616
-15.08
-27.004
-34.432
18.183
49.163
31.611
-14.959
-8.9036
9.2092
19.595
-16.968
-13.65
9.0393
33.531
21.722
-30.062
-10.082
-8.7131
-19.574
-6.7882
2.4355
-8.3763
4.1253
7.9423
1.4071
-2.9263
-1.3789
-3.158
2.8129
5.7481
-25.629
-10.406
44.261
16.59
46.695
-13.991
-53.577
-15.628
-7.8836
2.5452
-0.11551
32.11
22.089
-52.629
-4.1962
44.703
16.162
-21.082
-33.098
-28.275
19.152
7.4688
22.192
-21.669
-4.9826
-6.0805
9.5428
47.475
-12.091
-9.6166
-8.5141
-27.778
-17.323
45.181
4.6389
-25.879
37.703
32.096
0.1635
-39.092
-35.958
-15.525
-3.717
7.5851
-0.22158
23.881
22.4
-21.678
35.345
-2.6198
-49.669
9.2112
7.6307
-4.4622
2.7818
29.357
15.004
-4.5838
-16.58
-17.497
-1.5594
4.2453
9.1971
-4.3586
-3.6787
19.269
19.549
-18.893
-10.749
-1.9443
-4.0374
-36.092
8.6574
21.989
-27.955
-41.244
12.249
30.372
-6.6845
28.883
13.093
9.2811
5.0898
-45.193
4.0604
-0.6944
23.367
50.009
9.2815
-39.55
-28.419
-10.19
24.605
-11.308
-7.2792
5.4092
2.5996
-10.365
14.801
10.114
-7.6826
0.7068
-3.2953
-13.954
-0.75231
13.558
-4.0072
6.0719
11.393
-11.7
8.4481
1.4746
-6.2978
2.9295
2.3112
5.0168
8.9833
-14.331
-34.426
-8.7677
7.9079
-5.1052
10.36
8.4684
-1.3524
11.187
2.2091
-15.218
8.9461
0.26039
-10.326
21.332
-2.0535
2.0107
13.402
-16.692
-16.517
-10.195
9.5483
5.7615
13.656
-4.3898
-0.32336
7.6233
-2.8406
34.041
47.314
-37.463
-20.529
-15.478
-27.215
-12.841
31.778
-1.6842
-26.398
-30.327
-30.015
33.038
9.7697
-0.68477
13.67
42.542
21.576
-19.531
-34.31
-28.002
11.613
21.845
30.344
19.717
-20.938
-17.062
-6.3848
-7.6913
-12.472
9.6616
42.51
-13.271
6.6905
6.0454
-30.418
18.874
-4.3819
-15.092
2.1241
-28.088
-2.7008
2.8844
5.0068
27.523
30.503
-38.358
-9.0974
18.912
-15.915
10.797
-10.885
37.023
-5.6704
-52.303
17.638
-7.0877
21.793
25.863
-42.66
6.2255
9.5605
-0.85224
15.975
-0.56346
-2.5296
10.292
-3.9528
13.454
-15.974
-22.934
-1.3191
39.21
-12.043
-30.863
19.806
15.22
-15.616
-20.793
25.109
30.865
-50.551
-28.242
14.388
5.3042
-0.74978
-18.709
20.388
51.688
-5.6238
-41.176
48.878
10.609
-68.185
-23.399
23.316
40.66
-24.716
13.388
-17.491
-35.861
8.3747
-32.364
9.5637
33.019
11.619
22.95
-5.0476
4.746
16.098
47.79
-33.709
-30.078
-10.11
12.037
6.248
6.5947
4.1883
-15.403
-13.224
9.5076
2.9831
-20.387
-0.89571
36.334
-17.325
-29.203
19.566
8.4286
-14.359
-14.474
-3.1306
5.6232
4.3771
4.65
-10.062
16.204
32.825
-4.9472
-27.567
-18.386
2.318
-7.6552
0.20931
19.859
15.636
-3.4926
21.189
28.629
-20.96
-33.466
-27.413
11.643
4.0979
4.0355
-2.4353
12.012
2.9415
12.737
26.482
-38.665
-4.631
18.553
-24.665
-12.363
31.182
-11.984
-16.502
10.088
12.335
-1.2677
-8.2154
-17.756
-8.1552
-2.4775
39.282
8.0499
-34.082
5.8006
-8.6391
-2.9498
7.8901
-1.885
23.992
12.354
-14.486
-1.6264
-7.182
5.1798
-1.3165
-5.3548
3.9983
9.7364
-0.35621
3.3219
-3.806
-22.6
12.141
16.881
-14.732
5.362
-8.9696
18.665
5.2715
-30.749
14.095
12.465
-19.478
-8.1868
-3.2286
-10.257
-17.206
3.0992
12.146
12.319
-5.3618
33.677
26.137
-51.637
-7.0001
46.942
27.008
-71.519
3.5984
17.107
-1.3676
-3.562
-2.0348
28.721
21.865
-13.084
-31.541
-21.144
14.305
1.0893
0.40515
-24.425
4.0838
22.178
-0.19103
15.103
21.162
-19.446
-2.6482
16.385
-15.754
-20.545
-11.756
14.362
3.7454
6.1147
-9.7111
-14.663
-23.89
10.77
55.78
-15.905
-7.1435
-7.5968
-19.544
8.2124
5.9353
27.229
6.9443
-21.753
-7.032
-7.5471
-1.7441
-0.47336
17.95
11.744
-1.6505
4.7524
16.732
0.43258
-40.302
-26.096
3.5591
8.1048
37.452
-12.557
-21.5
37.613
34.787
-24.708
-19.923
-20.454
-8.745
20.39
34.868
11.326
-52.618
4.6347
-25.353
6.5402
27.196
10.438
-6.5064
-6.3173
-9.2914
-17.062
23.39
-9.4762
-10.797
20.828
1.5894
-27.483
5.5653
-0.27467
-6.2092
22.624
-24.429
-8.853
4.9459
3.3319
14.201
-0.90144
2.3731
7.3902
2.5002
16.995
21.566
-17.966
-19.351
19.897
-10.195
-1.831
0.045271
-36.965
14.979
43.696
-10.069
-18.035
-17.258
-10.547
16.142
37.967
39.96
-10.919
-43.243
-20.61
-3.9022
-17.528
8.4609
0.22474
-14.771
4.9635
0.40275
-2.2946
98.948
35.369
-79.062
-27.528
-31.591
26.361
14.401
-29.392
-0.46042
12.721
-9.8642
4.6675
0.93887
-9.6925
19.742
4.1547
1.2094
6.54
-13.171
23.514
35.168
-38.044
-26.441
13.114
-6.6104
-10.803
7.1112
-4.0991
-15.595
14.776
12.088
11.596
46.087
2.4039
-29.226
-7.3706
2.9672
-18.502
-23.92
-5.9457
-1.0123
8.0907
1.7325
-3.0317
2.6217
-16.267
47.904
30.048
-42.92
80.013
-8.0358
-105.05
-0.65228
-10.675
11.495
66.724
-20.675
-29.224
12.911
-0.11031
-1.0293
2.8209
-21.839
-0.0091812
-6.8202
19.699
1.6422
21.767
-20.828
-20.931
28.659
27.352
54.311
-56.305
-36.791
-0.74684
-11.684
8.1911
-8.436
-17.645
8.7396
10.727
-1.1093
-5.0555
31.452
16.598
-9.7227
-17.66
1.1963
-8.6628
27.653
28.61
-25.81
-14.294
-5.5812
-6.9623
-3.1141
-7.2107
19.989
28.462
-20.43
-11.667
23.389
2.4614
-10.817
8.2358
-3.3876
-4.4352
-6.1452
-27.563
16.877
7.2606
-18.116
19.715
-9.0066
-31.524
-0.63833
-0.4701
18.887
14.099
-15.617
15.25
-11.391
17.258
-2.3069
-7.9551
23.625
41.559
-0.92625
-32.225
-13.898
-21.205
12.632
23.458
-29.302
4.3137
4.5747
-14.585
18.616
-5.9202
-13.79
54.953
-5.0108
-8.0646
-28.191
20.312
-1.0498
-25.099
8.6771
-23.031
-5.2087
24.063
23.457
-41.121
16.669
10.206
-27.573
15.009
-10.285
24.599
-16.754
-3.2316
27.911
-10.318
-20.265
21.251
1.3383
-32.063
1.0153
24.915
-4.1017
19.286
25.263
-54.169
-21.31
31.001
6.0589
11.952
-2.2758
-1.9028
-2.468
-6.8271
-6.4205
11.929
-22.886
57.592
24.496
-19.672
-46.76
-30.275
1.7431
45.864
-18.084
-1.528
-9.0851
-41.658
0.14794
19.26
23.09
-35.261
-13.058
17.915
6.1238
8.5352
18.665
-3.0114
9.0366
2.9875
0.49316
26.599
0.43179
-14.544
4.1164
-14.194
10.771
17.362
-43.977
-12.061
41.623
-19.01
29.974
-7.5539
-37.78
-10.687
12.329
13.823
10.407
-6.3941
-42.926
-0.71438
9.2223
31.628
17.989
-46.873
-29.36
30.763
54.661
-5.7972
-51.999
-9.1975
-2.6281
10.644
37.266
12.089
24.988
-56.71
-21.674
35.432
43.437
-29.91
-54.823
16.629
31.427
-12.021
-2.1144
-8.9839
5.7965
-2.0154
-5.7346
2.8134
-0.84075
12.5
18.127
12.203
-6.6774
-18.711
-16.122
13.018
29.025
40.448
-1.3239
-82.42
-39.652
26.534
-11.847
52.754
62.132
64.333
-232.03
-98.603
247.71
-12.362
5.2159
-115.86
-18.754
37.24
9.689
41.551
-24.554
-26.951
11.847
30.657
-3.3923
37.145
-38.89
6.6298
28.899
-26.595
-34.252
52.376
-4.3141
-14.712
57.726
39.957
-73.781
-26.72
52.969
-34.527
26.142
-2.9395
0.57343
-7.3406
-17.206
12.463
17.463
3.8468
-0.53345
-33.909
53.872
-0.44515
-3.0688
-19.17
-116.82
-60.418
-90.831
80.348
4.5444
41.299
21.855
11.647
-12.506
-0.58733
14.97
-8.0997
32.522
59.674
-9.0986
14.677
2.0731
-28.931
25.885
7.3707
-13.931
14.202
13.882
-7.8576
-1.5999
2.0034
-13.445
-5.0778
66.106
-2.7131
-38.176
-30.765
-21.228
-7.3402
-17.151
18.054
-49.111
14.734
-10.264
-5.0739
54.493
41.921
-25.088
-19.666
-32.226
11.658
-3.5726
-15.452
-47.969
45.03
19.124
28.285
31.987
21.2
58.973
22.606
0.43863
-34.485
-77.165
-38.785
1.5438
23.896
48.34
-7.7086
-6.6786
0.017544
-69.154
-12.704
-20.896
26.666
23.939
-228
89.035
111.5
-22.969
19.83
-16.251
25.669
34.95
-76.263
18.762
36.184
6.3742
14.482
1.1145
-1.8296
29.428
25.897
13.41
40.219
-10.286
-38.938
1.6431
5.0804
7.3384
28.081
30.257
-62.719
-19.357
-20.521
-46.141
-18.613
-3.2346
-65.203
-100.75
92.417
12.095
110.64
-0.090404
31.927
-68.482
65.761
-88.379
-9.967
39.48
-33.671
-11.215
28.537
52.456
23.582
-12.637
-19.07
11.881
27.599
-35.032
1.8173
-3.5816
-1.7495
29.88
-26.535
4.3932
65.954
53.57
26.263
-131.33
18.698
47.669
-45.875
-522.67
228.82
210.98
45.171
-9.7424
19.775
3.0778
-7.5859
-52.392
-39.04
33.176
3.8976
30.864
22.345
-62.281
60.456
26.656
-21.705
-10.262
-41.077
15.709
-25.806
-6.5152
29.298
-19.596
71.555
37.91
-12.827
-123.39
-43.044
58.43
-8.8486
22.746
27.748
-32.019
-37.325
-15.852
36.613
29.686
265.94
120.01
-231.95
-62.88
-125.69
7.6822
7.868
40.75
22.895
-65.5
-20.875
20.493
20.355
12.01
10.738
9.4519
-24.206
44.422
33.618
-35.905
-10.637
3.0195
-35.494
15.128
-5.1277
39.713
28.843
-73.329
26.309
39.629
-115.91
34.965
27.917
-17.16
48.58
-83.891
2.0776
124.84
-84.348
-26.476
26.376
16.711
57.987
-42.557
101.42
-79.201
-125.79
64.967
-24.678
11.577
78.494
-0.51779
-11.778
-19.274
2.5204
-26.407
-13.21
-25.781
-52.663
45.721
30.016
40.946
-2.126
-12.556
-4.2754
-13.236
-32.925
5.6684
58.002
-12.587
-27.416
15.29
25.335
-7.0086
-15.844
26.162
5.3858
2.1123
-8.7417
-44.105
-20.658
6.1341
7.6434
9.4353
7.7512
15.959
3.6102
40.453
1.0377
13.607
10.406
-25.477
-28.724
-53.866
-2.6415
3.6146
5.233
14.88
-0.11459
10.075
5.3751
4.3573
-3.0279
-3.9429
3.8039
-20.564
6.5089
13.741
14.883
1.5307
-20.107
4.4711
21.084
-8.348
-29.833
4.7868
14.004
10.71
1.357
11.058
-1.0564
-16.504
2.9328
-14.639
-0.51959
-3.3529
-1.9421
15.09
48.673
-72.274
52.581
25.83
-52.856
-34.216
-22.195
-17.247
19.643
25.913
29.177
34.848
-47.496
14.791
24.423
70.072
-41.344
-71.874
-7.0594
-24.4
29.192
-7.5845
-9.2333
-1.9516
-34.437
-16.16
15.827
-33.102
14.2
51.039
9.4281
3.6457
11.02
5.2711
12.195
11.753
-9.5875
2.4705
8.5936
-5.0822
10.69
21.878
18.431
8.4705
-53.015
-32.323
0.3784
6.1661
-12.567
2.3242
43.441
-29.599
-37.652
-7.8239
9.8493
45.239
11.168
21.697
21.838
-23.137
-20.482
-9.1898
-18.3
-4.1193
1.148
-2.7419
11.842
89.066
18.134
-103.03
-26.488
-30.782
10.008
21.045
37.736
45.258
-61.238
-34.17
-14.143
2.766
91.238
-14.758
34.143
44.446
-65.02
-55.092
-54.88
15.123
-15.638
-22.98
-29.707
30.719
58.386
-20.487
-20.461
45.469
35.832
-7.4332
15.096
-12.671
5.3338
23.113
-5.2054
4.8657
-12.832
13.101
4.2359
-2.6478
7.5073
-75.454
-25.287
8.9629
54.849
7.2744
-41.711
-17.729
5.9699
-0.50394
17.879
23.667
-28.393
-19.391
8.8827
-10.605
17.283
0.76386
18.504
-16.082
25.292
32.305
-32.591
-12.608
17.701
8.8032
-12.712
-2.1356
2.4597
-10.218
-16.867
-3.4787
49.246
17.829
-5.5705
-4.3256
-10.063
-5.8376
-21.95
-47.775
-18.202
78.947
24.548
-4.1603
8.6986
15.176
0.48465
-27.58
-7.7604
-1.7487
-12.66
12.941
-3.6614
2.3066
1.0643
8.6293
-7.7489
2.1744
1.0709
-5.6638
4.6095
2.6456
2.584
14.87
4.6154
-12.703
-3.4037
-5.0563
12.094
-35.091
-84.071
65.439
83.471
56.695
56.519
-15.242
-64.621
-52.51
-59.767
-10.163
39.875
54.948
-176.53
-115.83
144.88
69.803
0.95015
-13.725
-15.239
-10.776
3.2288
-3.6046
7.4188
-0.80819
-3.924
18.548
28.439
3.986
3.9801
-26.505
-7.718
1.197
35.507
5.005
-4.3328
4.6753
14.884
5.0502
21.476
-7.2805
-21.625
2.6471
3.0664
-14.436
3.8298
4.8145
29.452
1.2251
-37.575
5.843
9.1488
16.434
-10.927
-26.761
-10.991
-19.393
18.138
43.619
-7.8517
-29.655
-25.816
3.8155
-7.603
9.3983
3.1607
-9.8329
4.2711
34.358
4.1524
-19.347
1.7873
-2.8678
9.6619
-11.229
-23.92
-2.0571
22.44
4.9667
-9.6032
13.164
6.0842
-1.2688
4.5845
-1.1857
-10.966
0.47478
27.72
21.828
-7.1721
22.015
1.9006
-55.709
-32.74
-18.149
6.8528
12.565
-3.1278
-2.9479
-4.4226
-13.894
6.8055
28.554
-2.9573
-12.3
0.037367
0.045831
12.773
4.1474
-7.8511
18.7
-0.78408
-2.9732
7.4107
0.71382
-7.1155
6.3702
-5.2588
-3.2863
13.943
1.2654
-7.6489
4.7548
3.3584
-6.077
0.06711
3.0163
-11.088
0.84625
6.309
-7.0173
-2.5023
-2.5634
-3.882
2.1603
7.4116
-8.565
-18.43
-6.6043
-2.5449
22.432
28.339
3.9394
17.81
-19.999
-34.085
-16.303
8.0356
3.2038
-2.9171
9.7975
-6.2368
-1.9014
9.8316
-3.4836
-12.586
36.231
7.2809
-14.759
3.689
0.46387
-2.367
4.5809
-4.7113
4.8456
18.431
-25.759
-3.4547
15.348
-2.8015
-10.818
6.9441
19.068
-11.52
-6.7139
-11.867
-5.0418
5.178
0.03792
1.317
-1.9546
-4.4504
-1.9804
-3.772
-19.485
-39.132
-0.78373
60.01
11.062
2.3787
8.3171
-3.205
-2.3459
-2.237
-2.0615
18.372
12.822
-22.581
0.60359
-3.8713
1.7458
9.0134
-0.61028
-5.1142
6.8382
-8.2275
-2.8585
5.3883
-7.7324
1.1128
9.628
-6.3874
5.8395
-5.2637
-5.7775
5.4906
-2.3089
3.1121
4.1894
-1.8906
-2.8458
4.9653
-1.3656
-12.295
20.038
15.235
4.5132
-0.28415
-46.808
-23.637
5.1763
3.1353
3.4048
9.4629
-4.6011
7.0712
1.0505
-5.6202
14.897
-1.139
-15.314
4.3545
-3.7566
-7.8744
12.721
5.0501
8.0782
8.1824
-9.0983
1.1632
7.6155
-11.535
-1.8994
8.2929
-4.2353
6.2285
2.9795
-11.103
3.6487
9.2963
-5.1748
-6.4363
6.3963
-4.4656
-7.7653
7.7784
3.2483
-7.5759
-2.7809
6.0803
-1.3217
-3.4115
11.95
2.7225
-9.9223
-5.443
-3.2336
-9.3566
2.9635
8.4538
7.4774
3.5977
-6.8509
-2.7661
-4.2282
7.8897
7.0269
-18.331
-1.3997
6.6994
-13.724
-5.004
26.099
3.7124
-8.3338
12.363
-10.569
-3.9398
4.5732
-6.924
-0.78972
15.604
0.82574
-6.2239
6.1039
-4.5256
-17.807
17.799
13.806
-8.0381
9.346
-2.2268
-12.375
-4.5723
4.911
-2.0257
1.7013
4.3947
-7.8386
-2.994
6.2869
-6.2793
-7.2436
10.788
-8.4138
3.8816
4.7049
-10.287
11.78
-2.9516
-10.429
9.202
0.40414
6.7658
11.371
-11.008
-1.5535
2.2284
-7.4468
7.7127
1.6745
-0.76254
6.2901
-5.8301
-2.6635
0.082537
-5.5524
-4.3566
6.4932
-4.054
0.91858
5.4875
-8.2738
6.7451
0.74931
-3.7902
3.7217
-5.6042
1.7782
2.593
-10.136
3.3758
-0.28504
-3.2814
5.5374
-5.4621
1.6526
3.676
-10.162
6.9636
2.3068
-9.8515
4.6473
-5.9611
1.1954
16.728
-6.4964
1.5218
12.093
-8.8471
-2.5706
8.4301
-6.2748
1.7888
7.7242
-6.9
1.5428
6.3997
-0.67781
-3.5915
5.0796
-8.9925
-2.5777
8.5106
2.8621
24.324
-16.963
25.052
-34.876
4.7396
-39.37
20.057
25.148
0.68484
-54.502
-9.3735
-20.882
-16.397
79.49
-1.2901
-40.068
0.88681
38.916
31.637
-31.707
-62.071
-17.531
35.493
29.533
24.03
0.077407
30.014
17.684
-12.136
-45.305
-102.69
54.093
98.825
-20.087
3.1645
-2.6091
-9.279
-12.886
18.098
1.2122
-19.974
-10.853
-3.6152
3.9005
10.688
4.1357
6.6786
4.0537
20.737
5.989
-38.207
3.2398
-14.94
1.8847
10.653
17.269
38.943
4.2615
-114.3
11.757
79.292
-90.355
-13.859
32.251
21.804
31.05
90.335
-21.502
-16.466
-0.86081
-21.012
-23.739
-21.371
-3.8111
-18.155
-23.985
-20.58
-12.193
-0.52382
-4.5724
0.43726
-10.876
2.9313
-0.008652
-12.764
15.712
4.5197
0.41212
23.085
4.6109
30.72
60.753
8.3236
-13.914
-10.898
-53.716
-4.9774
27.61
7.3948
-11.499
-63.743
-9.3774
115.22
11.157
-18.061
-19.882
5.3749
-11.005
-2.2387
-24.46
-6.9084
19.847
-10.04
5.3744
-2.5186
22.085
20.689
-19.293
-29.815
44.858
24.81
-54.469
-15.373
-38.193
-55.967
87.766
38.012
-18.783
18.223
23.092
-26.711
-6.2732
-4.7763
3.9791
10.364
-0.80955
1.0756
12.687
-17.143
-4.3204
107.99
-86.906
36.939
42.831
2.6017
-7.4803
-37.244
-4.4894
-37.718
-24.376
-35.349
52.843
-20.629
-23.541
-78.979
-65.27
194.06
-90.935
20.21
43.158
-1.7979
23.074
60.921
-10.471
-67.954
-25.966
-6.872
-19.103
-7.3078
21.65
59.875
-15.89
-32.287
-1.2003
-10.068
-9.0026
93.561
101.98
-37.86
-40.091
-24.58
-39.329
11.07
11.487
48.876
-39.019
-61.238
51.957
2.1086
-41.513
-10.756
24.577
-21.768
-53.389
54.122
3.0759
-29.14
24.747
2.1081
-25.881
-3.423
45.372
-6.5917
12.59
-6.7584
-5.1274
10.142
38.86
8.6737
-69.562
-15.532
22.644
15.194
-1.0321
10.667
-12.691
-12.369
16.546
17.908
26.582
-28.443
-17.925
4.4493
-2.5568
2.1046
20.219
7.4372
-17.341
-17.758
-5.155
11.792
11.582
1.6845
17.346
41.703
-49.877
-65.002
39.31
33.931
27.717
-45.32
-24.161
0.5959
-1.6174
-2.1345
1.4876
-6.6496
-3.5312
-5.7589
-5.0726
10.271
-1.5687
9.5777
20.358
-10.85
10.953
-47.951
16.821
104.77
5.0066
-9.3062
-74.015
-60.635
63.651
10.265
3.8085
9.4899
-11.362
-20.249
-18.965
17.294
-31.814
-5.2379
28.92
-5.9671
0.56699
17.873
40.433
-32.141
-16.055
2.1679
-15.222
5.8284
3.3292
32.821
-9.9835
-3.3464
-31.434
-27.995
-0.88965
29.471
62.384
55.862
42.19
-105.9
-62.507
-33.603
19.378
34.647
4.513
18.174
1.6621
-45.901
-18.035
-41.817
6.1183
79.567
13.262
5.1711
6.1958
-4.8157
27.284
-15.112
-18.604
-26.509
-2.2333
27.923
19.419
19.315
21.86
11.766
-18.656
-8.6632
-3.3636
-24.272
-44.109
8.627
5.2325
0.75219
5.7246
-15.334
-22.062
21.855
14.847
2.9127
21.392
-40.982
-17.078
18.229
4.9762
5.702
-11.595
2.047
7.5646
-1.7642
-2.0777
-2.3874
-4.7912
14.797
-9.7738
-9.0453
-12.464
26.201
21.728
-5.4419
-3.0064
-20.961
-0.51921
21.533
-0.10897
3.2336
3.6131
-2.313
11.988
11.252
-34.183
-6.8333
3.861
0.59529
7.4804
-1.1456
8.9851
11.947
17.598
-3.5912
-28.741
-9.415
23.746
-7.0775
6.4039
10.23
7.246
-41.446
-5.2044
41.782
13.131
-61.274
-2.4984
25.88
7.256
-4.4256
-8.2211
-6.6938
-3.1861
12.547
-16.654
8.5993
-7.8111
30.067
33.86
-3.8118
3.0403
-26.832
-22.308
-7.8313
-15.383
9.7551
3.4596
-16.133
-17.435
5.4462
12.213
-3.2519
15.917
15.78
0.18774
10.624
10.257
-24.109
-7.415
-16.84
3.8993
1.5393
6.9828
21.622
-9.4812
-10.773
4.0276
33.105
-39.083
-58.187
88.593
4.1894
1.894
-6.3904
-32.306
-11.516
14.524
-7.9961
-7.4354
12.749
24.833
-57.374
-3.7226
55.818
15.603
-6.1278
-14.456
-10.624
-11.162
6.1993
-1.3913
-19.457
-8.2477
5.6173
41.631
7.8819
-7.1728
10.579
2.3242
-10.406
-15.489
2.8272
4.2609
-15.014
13.725
10.531
-5.2775
26.811
-33.007
-20.082
2.0649
4.2252
9.6017
15.894
17.361
105.39
-51.155
-33.096
-21.718
-33.797
42.745
-77.584
-48.607
58.022
-26.576
-0.12899
6.0629
44.962
13.387
19.251
22.381
23.549
72.243
-30.755
-105.15
7.9748
-90.675
0.90563
28.751
27.649
67.124
32.739
-39.059
18.533
-41.675
-80.894
-3.2924
26.009
115.19
45.562
-152.85
-18.856
65.367
-4.179
-16.779
-15.102
-84.082
-23.614
10.882
152.63
27.601
-36.134
-18.382
0.96858
-17.756
34.825
-47.134
15.361
15.529
-80.915
12.537
-8.1654
21.208
32.93
6.8882
-0.10645
11.382
61.52
91.722
-130.18
-21.699
53.834
5.8865
-19.511
-22.851
-16.88
-19.71
-7.7357
-8.0843
44.638
-41.679
-53.257
9.8802
11.901
23.067
-33.728
10.218
14.61
35.941
69.635
134.84
-184.21
-57.564
129.12
-32.545
-30.008
-11.611
-22.128
-18.476
2.9076
-9.6941
10.629
27.83
-10.481
-18.276
38.08
-93.189
-32.376
42.8
30.455
17.645
36.885
22.419
3.4866
96.834
-3.8498
-49.948
-67.208
9.7133
16.047
-16.574
-43.04
1.2259
-9.2162
7.0246
7.7152
6.4278
8.1557
-74.104
-24.538
127.81
29.362
-26.291
-40.665
-31.08
34.472
-38.104
1.472
12.687
0.65418
7.1236
52.682
-8.1486
-39.225
-33.376
82.241
38.83
-45.649
-20.512
-27.491
-22.335
23.142
-5.4978
-1.2726
45.178
-35.821
-57.517
-7.1804
22.168
184.69
64.619
-156.85
-3.3409
4.0871
-13.254
-31.683
48.661
-28.621
4.5998
2.6419
-9.2943
3.3757
-3.4455
-9.0614
9.7354
-19.523
9.9164
-13.843
2.0275
11.178
-51.209
-19.71
-11.145
-4.4003
23.007
40.974
41.697
-5.9174
-56.874
23.904
27.489
-12.532
-8.5508
20.396
-2.3147
4.8505
22.35
15.957
-41.392
-5.9274
13.605
49.4
14.398
-26.907
-20.227
-24.516
-40.048
-68.357
37.086
34.746
11.926
10.79
29.344
20.791
31.056
48.659
-56.606
-62.698
-36.59
-19.703
15.289
4.5913
10.012
3.3826
9.1146
-7.9567
1.941
-0.285
-1.3642
10.407
-2.755
-0.71359
0.8385
1.6874
31.019
6.5905
32.882
28.701
-7.3102
-1.5649
-3.4516
-144.63
-62.108
137.74
44.257
-47.731
-20.543
1.0201
-41.905
-5.7358
-46.555
103.15
20.066
19.395
41.676
-148.16
-11.327
-24.137
40.463
63.193
42.201
3.0398
-1.575
32.073
18.391
12.11
-40.506
-20.94
-12.242
-24.438
23.246
10.501
-4.7041
23.928
-7.9598
-27.421
-24.898
64.037
-64.784
-7.8768
-9.7641
-10.181
-18.418
-13.201
31.646
14.445
5.1386
3.8348
-0.13566
-10.011
5.6782
10.12
-1.5961
-1.0375
6.3123
-7.0643
-3.532
8.6174
-4.2408
-0.667
0.0032701
-6.1757
-5.114
2.4864
-0.53241
-2.598
2.5171
51.043
30.635
3.9152
-35.302
-29.224
39.83
-52.124
-27.661
-15.145
-26.939
33.775
98.838
-18.067
-2.0273
-61.236
-80.882
39.458
33.656
7.5782
64.725
-4.9897
-10.326
29.107
27.535
-47.501
9.9232
-12.714
-24.619
-84.605
4.4084
31.386
-7.9536
9.9962
-23.172
49.167
26.868
13.419
-5.3867
19.115
-16.445
-8.9999
15.554
10.967
24.521
-29.666
-61.907
19.925
7.3817
-9.2804
32.984
19.97
-9.4942
25.022
26.552
-61.04
-18.588
8.7088
-111.1
