3.1507
-4.3357
13.527
12.406
129.53
86.352
-472.47
48.938
155.19
22.908
8.4874
-1.2413
9.1231
22.399
-10.045
6.5872
44.138
181.35
108.67
28.936
-327.6
-381.25
65.257
413.16
-2.8482
-36.287
68.128
-293.31
10.599
-10.419
-94.781
37.61
127.87
-23.078
-22.048
26.16
-65.202
41.07
65.589
-244.88
100.29
274.99
59.267
-59.522
-254.41
-163.24
-4.7572
-102.94
145.32
407.12
54.78
-77.777
-143.07
-54.147
-27.323
-17.889
299.9
175.78
-297.41
-610.38
-30.149
-26.899
89.878
143.93
1174.5
568.34
-924.65
-554.63
-352.84
138.86
-22.263
11.682
445.46
228.68
41.607
1.5079
-365.97
-95.327
-68.88
263.96
84.23
100.33
-240.68
-347.34
-39.235
-144.38
145.13
208.53
302.92
-20.471
-22.58
-114.64
-37.973
142.54
-136.41
-233.26
231.25
154.27
4.5138
-12.351
-31.409
-21.101
33.571
-27.423
-19.724
12.087
-7.7536
-12.973
1.3085
-6.1793
-13.131
1.9835
-0.30078
-16.222
-3.8237
2.8176
-14.036
-7.2519
5.7945
-3.2206
-9.6983
1.6413
4.803
-9.7926
-4.1391
16.121
1.7159
-7.3889
9.3417
-24.286
2.9015
54.943
-17.517
-34.204
-7.2091
6.4219
-4.5769
-3.9214
-3.075
4.5965
66.195
58.942
-104.96
-103.98
26.319
67.14
10.058
-43.037
26.621
59.717
34.275
-24.168
-74.897
-57.894
-10.982
8.9745
-3.0909
-3.9717
17.318
7.2077
-8.8487
6.8496
8.7337
-15.37
-12.088
5.6779
-37.161
-121.77
-86.889
28.344
-65.739
-93.153
20.469
162.5
322.71
70.351
-63.378
-43.161
68.955
122.18
-111.16
-89.288
144.06
5.463
-148.06
18.055
39.801
29.933
81.162
320.51
-67.877
-297.18
-143.38
-89.609
12.93
75.05
85.856
-66.779
-32.251
-2.607
32.793
-9.4483
-54.557
83.245
-63.327
17.702
-21.986
-17.894
127.01
28.541
-66.354
-3.255
-20.171
-50.068
123.4
-178.1
127.98
29.266
-123.26
-21.974
99.898
-48.702
-7.254
19.467
59.234
-27.708
187.95
-2.0151
-514.06
272.82
-128.19
137.12
308.4
-132.35
-325.09
6.2775
246.53
-113.96
-14.38
80.68
-112.62
61.632
60.206
-121.52
96.773
42.795
19.258
-5.1262
-62.705
-59.76
3.0523
-11.996
85.553
49.394
-14.654
-1.1769
-27.896
93.181
179
37.897
-247
-695.31
256.67
260.86
-15.543
-59.023
-73.445
215.69
296.83
-270.79
192.42
-84.696
-36.893
-145.27
37.24
42.125
-104.28
54.631
77.611
42.253
-41.097
-79.338
13.581
48.479
38.845
-85.941
-146.64
266.06
56.835
-187.02
6.3989
173.3
-9.8341
-203.06
-70.949
57.968
104.11
-41.298
23.259
-12.193
-15.705
6.6046
-60.126
-15.302
48.036
12.251
-74.973
-6.735
175.57
36.64
-44.001
-66.328
102.68
55.832
-303.51
175.99
228.68
-20.014
-49.105
-295.35
-31.222
211.87
-195.07
-202.09
338.96
219.43
-162.86
-80.263
-27.144
-29.159
27.718
0.57881
-158.03
106.41
243.19
240.28
-85.24
-376.42
-159.67
139.1
95.375
-36.375
40.405
50.329
-35.047
14.885
-84.43
-49.938
62.304
37.059
26.967
-22.04
7.4948
4.2314
-4.7871
-2.7681
44.938
-19.499
19.581
11.698
-12.826
1.6619
-88.164
-5.2526
-1.6064
18.728
32.342
36.854
-25.741
73.999
117.58
-247.72
249.41
-85.077
-259.02
-16.856
85.23
22.918
-54.597
-0.17599
-22.422
126.47
110.04
-102.62
-50.319
-32.638
-8.1314
45.23
2.9046
11.871
15.304
-7.9446
-14.997
-47.006
117.96
271.54
-150.66
-191.54
16.873
18.985
-58.4
-0.8353
-0.51707
0.7985
7.1282
0.39562
0.081951
4.3556
-6.4769
1.8472
8.0419
-3.921
3.9888
9.1308
-4.2252
2.088
7.0856
-3.721
2.0243
5.249
-3.8846
0.85676
7.2572
-4.5669
-2.4399
9.1022
-0.52869
-7.5125
3.9362
4.9311
-3.1522
-2.2719
4.3702
-2.8014
-2.3565
4.5381
-4.4556
-4.4703
6.0943
-3.6995
-7.3018
6.8692
-0.28261
-8.689
7.1401
3.1148
-6.1874
3.3607
4.5057
-6.6886
5.8734
4.4813
-7.4321
5.315
7.5105
-6.4496
3.5517
10.24
-4.3685
-2.8145
8.1652
-3.0988
-3.9507
2.9666
-3.4137
-2.9784
7.6544
1.3259
-4.908
6.343
0.94596
-4.4002
6.4999
1.5739
-7.3049
2.758
1.1964
-6.153
5.1496
1.434
-6.3261
5.7816
2.3655
-8.3336
5.6548
5.8808
-6.0449
2.0344
6.6048
-7.3382
0.67398
7.0984
-7.5049
1.6156
9.7022
-6.4795
-2.3556
7.913
-2.7152
-2.7804
6.5077
-4.2251
-2.8755
5.21
-4.915
-0.10788
5.3588
-10.813
-2.0568
6.4538
-5.7679
-0.63846
1.8204
-2.4225
-1.2017
-0.44741
15.095
-1.7092
-11.502
2.9732
-3.4202
-3.3103
0.64208
9.0453
-5.6238
-2.906
7.9639
-4.6282
-3.1926
6.4272
-5.5932
0.82619
2.0335
-9.8916
5.5466
-5.6857
-2.127
13.254
-8.5678
4.6545
5.7279
-8.5027
8.4556
6.7972
-13.846
-3.6071
13.616
-4.3568
-7.3694
13.159
2.7924
-9.7281
5.2586
7.4221
-7.4671
-1.8956
7.0996
-2.9313
-1.5674
2.7257
-4.7868
0.72163
2.8313
-6.8498
-1.2705
2.3716
-4.5868
2.9733
1.1386
-7.1461
2.6165
-5.7879
-1.4203
0.15956
-10.333
2.1176
-1.4993
0.73334
8.2235
-1.5181
-9.9556
9.7431
5.7772
-11.699
5.0378
6.1868
-10.693
6.1126
8.627
-13.657
5.3382
11.748
-13.176
-2.8567
19.002
-5.6567
-11.389
7.9756
18.578
-4.4348
15.813
-37.361
-50.24
-11.776
20.647
41.8
212.18
-78.038
-119.54
-1.1081
1.8928
28.253
-23.168
14.839
43.094
77.638
-43.803
-206.53
-3.1339
61.613
9.4776
-14.833
37.355
6.7527
-29.938
15.814
6.4569
-22.717
23.793
8.3368
-31.036
19.601
17.416
-28.478
4.6224
22.069
-16.507
6.7871
8.5927
-19.612
22.54
-10.261
-17.507
22.446
-20.869
-6.6641
35.909
-3.5783
-38.909
55.68
33.847
-33.312
-12.695
4.4343
-1.6476
9.5729
5.06
-23.479
12.466
-7.856
-13.769
-1.4321
6.1105
8.2544
49.832
-17.204
-13.506
-2.8707
-33.961
-17.985
-9.0372
22.367
50.335
8.6838
-122.88
-73.792
74.422
128.15
-1.3533
-8.3271
-114.06
-23.856
43.035
34.043
61.566
-84.766
105.73
174.17
-166.78
-180.06
100.01
-405.1
-24.703
72.826
224.43
61.856
257.29
572.3
-475.82
-69.906
-207.88
-155.39
-5.2618
170.77
139.47
-17.322
-88.903
-31.119
-51.927
-13.66
92.033
-73.283
28.667
227.15
-174.86
-84.892
-22.501
95.746
-3.3858
-19.533
18.211
-58.85
-27.842
87.07
-15.928
225.16
88.665
-87.633
-421.9
-515.77
330.13
354.29
258.87
-205.23
-88.894
-5.3923
53.07
-9.6482
2.4773
10.835
6.0579
3.4993
-7.6716
20.185
1.6163
-8.444
-6.4691
6.9103
-5.8609
-8.3734
6.6218
-3.6278
-7.3765
-1.3769
26.958
-18.234
35.667
-44.821
32.61
16.946
53.973
-142.13
-32.673
67.289
10.654
9.7991
18.069
-9.404
-12.771
22.091
27.961
-46.18
-35.524
32.441
-35.846
-97.947
94.721
154.18
-51.944
-19.389
-5.9853
6.9485
73.357
-121.55
-86.826
214.87
-121.48
-18.096
144.69
-7.6599
4.7028
-80.17
-28.116
-44.44
-268.91
141.11
-74.405
52.131
51.228
-6.5635
-67.543
193.7
174.01
-26.878
-32.013
-25.868
36.236
-8.5674
-82.112
-61.589
-4.6948
0.86724
123
-227.02
121
125.08
-66.112
-193.32
150.13
317.12
-67.795
-80.503
-141.99
-264.12
-30.642
357.81
-5.9492
-52.044
-138
93.777
75.709
-175.35
7.936
-19.449
-94.209
204.47
138.4
-198.68
30.097
-135.7
149.77
-7.0876
38.637
45.94
32.052
44.748
-243.34
-244.18
164.69
283.11
-121.57
-112.69
189.01
35.757
-100.99
76.035
-24.297
15.608
266.08
-33.01
-88.984
-158.29
-85.963
-98.188
159.89
-22.64
48.56
61.697
91.928
-13.528
-206.98
-25.74
11.381
-96.549
60.876
164.18
-191.36
122.72
15.58
-81.031
101.44
-27.279
2.8968
15.063
56.015
-63.873
-42.5
10.418
-14.386
-14.694
2.5576
-25.772
-19.268
126.67
-92.81
87.149
-14.3
-146.08
-1.5944
138.21
119.57
-77.384
-129.91
-18.362
-12.588
-17.666
90.15
227.79
-23.067
-155.56
-237.15
-20.303
436.56
-36.614
-318.23
37.935
228.67
73.78
-135.89
-107.18
-48.296
-75.603
164.39
288.18
-150.26
-139.5
-67.207
-148.28
73.743
-15.312
106.8
113.01
54.741
-123.07
-4.7916
111.25
-193.76
212.31
122.35
-265.56
-48.548
82.882
-137.45
172.84
50.777
27.5
80.825
-158.96
-27.022
-23.882
27.622
6.435
-142.46
63.763
209.17
-33.615
-147.87
-87.758
55.729
58.153
-11.877
189.75
-42.716
-256.99
45.509
66.437
48.426
142.81
-181.09
-6.1564
-10.728
-12.159
122.2
-181.87
-8.266
42.601
50.739
75.366
-70.565
-176.86
7.9113
226.9
64.017
-150.44
25.032
64.407
57.521
-39.117
-1.269
-106.9
17.724
-34.628
103.65
71.341
-81.15
167.88
-232.41
-329.42
102.17
264.95
368.35
-144.8
-332.66
28.255
269.88
11.414
-324.7
-247.51
231.41
226.38
65.234
-125.2
-98.049
156.33
-181.89
-18.402
-22.089
-242.12
83.272
186.6
202.97
-18.926
-48.066
16.413
66.269
-108.79
-155.84
133.2
2.2649
-13.879
87.436
40.027
10.841
-43.248
-101.93
-24.042
4.2109
3.6841
32.579
-5.6793
-26.31
77.551
72.884
65.984
-110.4
-19.762
-33.706
35.313
60.198
-31.964
-157.11
-62.297
79.186
212.13
-10.801
-104.91
-50.313
-149.52
6.8391
107.52
150.22
34.44
-171.46
160.66
42.721
-197.82
78.69
-98.148
-38.926
270.91
-71.018
-7.6104
-195.59
-59.555
162.68
147.9
-99.812
-228.68
-106.11
-2.642
73.429
274.31
237.45
-28.58
-214.64
-270.31
56.041
151.63
-10.767
114.86
-36.195
-56.001
74.635
-184.63
48.644
-126.77
-13.928
238.43
88.91
115.2
166.05
-260.09
-518.28
70.619
195.65
-160.14
13.931
396.22
274.84
-345.1
39.232
-159.32
-280.89
56.126
55.583
254.82
116.51
-117.89
-225.39
44.829
385.5
114.98
-160.88
-136.43
-176.28
128.15
-184.21
133.54
231.81
-129.45
-58.293
22.293
-109.93
48.426
155.5
-96.026
-189.77
-12.681
65.7
-45.715
244.73
68.451
5.4298
-131.72
24.232
12.364
0.3589
-96.303
-85.705
133.71
19.461
-125.68
-7.4295
144.75
57.554
-75.891
-227.44
266.42
-78.562
-218.98
321.69
222.78
-2.1828
-101.97
-612.25
-83.621
565.41
151.12
-229.56
-155.41
101.1
-161.88
198.92
63.979
-127.2
-136.9
-113.21
166.77
258.98
-121.63
68.829
14.679
15.561
-20.986
100.24
118
-281.89
-99.392
66.295
-48.627
64.12
221.71
102.1
-176.85
-239.31
32.965
28.827
-100.96
245.73
6.1077
-84.877
-51.724
-79.662
87.138
51.925
-47.24
15.839
-117.14
-11.271
93.308
149.02
84.761
32.005
-55.731
-116.74
18.783
-137.51
131.75
108.97
-164.7
-9.7842
-26.764
250.74
-125.26
-301.57
-122.95
7.9675
330.57
-114.97
76.809
200.69
-116.04
-136.34
-32.22
-35.524
208.52
-14.556
-139.33
154.88
6.892
37.423
-216.97
46.118
53.346
69.033
82.403
153.08
-239.31
-289.82
110.49
212.67
27.126
-67.042
-26.339
2.9561
-89.409
39.811
-85.584
195.88
27
-236.53
71.866
85.842
-36.398
-43.645
-106.62
-17.515
159.09
228.29
-128.45
-290.17
323.39
-68.705
-122.22
133.06
-71.648
-59.17
58.128
-65.115
50.52
0.99475
-160.59
239.17
66.309
-107.19
45.653
8.2997
69.595
-309.64
-123.18
47.956
219.97
249.48
-71.935
101.15
-299
-20.651
-122.77
30.278
461.33
-66.594
-250.94
-14.07
-167.64
-35.239
188.73
133.64
284.97
15.025
-126.04
-142.93
-373.78
81.65
312.67
-223.4
-313.5
97.482
325.7
-7.6414
-109.23
-53.301
-60.289
251.91
189.59
-28.633
-17.494
-110.07
-75.666
-34.424
13.265
-42.892
-11.52
-32.602
-25.838
164.09
-169.68
49.021
372.4
39.41
-284.35
-184.85
42.991
-75.836
-65.04
347.6
77.83
-199.66
-27.562
-22.647
-12.865
9.4624
37.085
45.68
152.8
51.986
-249.97
-45.226
62.483
51.079
48.303
-104.68
-32.383
88.65
-61.083
46.117
-50.708
42.562
13.142
-55.79
54.362
-47.401
71.617
-39.262
-9.5716
-6.5237
-11.949
17.247
35.418
51.816
104.75
-27.752
-82.461
-34.533
120.15
-186.11
105.77
77.996
-39.653
-232.1
-64.466
37.506
274.29
30.785
-100.86
-171.4
-264.14
-42.13
-95.341
252.62
245.5
78.148
-21.674
-47.787
-41.393
53.606
44.652
14.984
-98.722
-21.17
139.23
21.867
-15.157
53.395
41.739
-230.29
-255.86
264.66
140.11
34.035
-257.26
15.693
286.96
-165.85
-33.994
-136.77
-5.3422
-48.706
-72.01
186.15
-99.812
10.575
356.36
70.371
-119.96
-104.89
65.489
-75.902
-23.249
77.215
-204.2
-194.71
107.26
317.54
43.142
69.968
-103.95
-128.68
40.401
-97.846
58.304
-64.226
59.782
222.25
-201.99
84.874
-144.22
159.5
220.66
-166.5
-188.91
-95.238
23
-115.69
42.649
422.64
27.446
-199.26
-229.24
-23.839
161.52
-119.62
202.91
88.498
-103.52
-105.58
27.687
245.76
-43.357
-217.39
-170.21
198.28
-26.11
-145.74
219.13
130.72
-15.479
-103.76
95.39
-84.676
-56.79
-151.52
-144.17
158.55
254.96
42.196
-148.69
-13.805
-23.817
99.095
10.549
-94.892
-57.339
-17.467
-100.3
58.574
162.5
126.97
-229.11
-126.94
151.49
50.943
29.428
72.691
-30.234
1.5834
-6.7105
7.0455
19.374
-133.3
215.46
-246.54
174.6
-146.98
22.874
-21.974
-137.11
212.78
-37.936
-52.927
-56.142
240.56
-38.568
-160.15
-40.1
2.832
101.77
25.79
-41.526
-58.029
214.11
-181.78
170.31
5.1221
-332.26
0.69343
24.431
385.18
40.122
-110.41
-214.41
-85.551
137.5
-177.15
129.16
-62.216
300.93
35.963
-188.91
158.21
-182.01
-9.8142
-120.47
111.04
60.274
60.512
-12.391
-216.05
15.275
311.68
-17.839
-212.12
-15.98
124.13
9.9138
45.848
-17.993
-130.63
-24.04
-56.439
-111.67
276.74
-141.42
-46.049
131.51
-140.8
90.114
159.44
-169.15
59.562
43.655
-18.346
-65.218
120.06
-13.836
96.563
-94.273
-295.07
156.32
143.48
-8.2535
-174.14
-241.81
328.32
144.39
-177.44
100.52
94.858
-87.423
1.3952
53.567
-154.58
-29.206
121.34
52.83
-12.842
-167.57
-123.55
-23.511
141.24
189.47
-139.29
21.435
118.04
-117.79
25.451
-78.642
63.529
-1.2791
-36.944
68.277
-44.896
-35.003
245.54
-29.765
-187.33
-87.979
61.949
60.12
-86.566
16.735
119.48
-98.229
-46.842
136.7
-32.941
32.25
20.089
-80.722
-65.584
-0.070999
256.75
-62.671
-111.38
35.282
30.942
-68.204
-66.874
-6.2817
47.096
-49.381
82.887
30.285
11.441
-16.279
34.929
29.741
-39.543
-56.982
7.7445
-25.526
-13.222
18.325
10.037
-14.372
3.4817
6.6572
-32.366
-42.299
-72.047
60.009
13.822
166.85
185.78
-255.11
-107.39
53.978
22.108
-44.677
-76.787
-21.838
121.8
31.134
25.025
39.043
-27.436
-19.817
-2.6833
-66.327
0.036869
23.35
-0.89128
11.144
18.578
7.8181
5.5476
-17.827
-7.1211
-19.153
32.024
54.93
-21.914
-22.93
72.83
-94.404
-59.224
105.77
5.4082
25.595
41.707
-52.581
-44.349
-52.925
41.051
-40.261
-33.414
71.391
-3.1546
-11.126
53.694
11.635
-27.536
-10.111
-3.2996
-59.681
-8.8558
38.793
-3.263
-28.184
58.741
20.821
-67.958
37.282
44.907
10.513
7.5308
4.2001
-53.917
1.4907
-46.389
-31.418
6.1448
88.435
129.22
-3.0302
-162.16
-4.0801
130.65
-224.75
-23.243
398.18
104.37
-207.21
-140.07
-128.2
95.28
3.4758
-156.37
56.145
46.62
18.914
-78.42
99.626
-3.1563
-34.899
-201.72
201.25
2.1668
-71.837
216.44
191.64
-195.74
-307.14
25.022
237.22
45.741
-61.357
60.307
-88.293
-141.89
24.648
72.238
94.446
-50.575
27.005
-36.849
-18.988
17.781
23.728
11.654
-35.903
41.889
30.397
-17.906
-27.112
51.421
5.3136
-137.32
39.761
63.361
51.634
-16.903
2.7665
-0.71134
-75.87
-10.225
-46.178
-25.279
178.26
-119.43
102.32
13.078
-124.32
-136.83
192.11
143.34
-101.11
7.4112
28.034
-103.08
-92.798
-66.488
204.73
145.26
-317
94.355
100.63
-128.04
15.154
-11.33
129.91
-43.387
-186
70.555
150.67
-27.545
109.93
55.607
-150.22
-71.067
-2.3006
-47.517
-34.726
57.299
-110.05
279.79
-48.907
45.609
13.857
-279.06
-41.6
93.434
172.44
-3.9838
-21.782
124.31
-161.56
-71.949
-127.88
76.532
101.55
-226.3
120.85
377.5
-108.39
-63.022
-5.3337
-96.125
-123.34
-227.8
243.18
326.16
-173.57
-31.723
150.38
-121.11
-40.469
-42.761
-13.346
-0.44226
10.931
12.442
-6.9342
-65.329
73.078
139.49
-261.58
35.218
84.255
61.469
-23.531
-4.8968
-37.716
211.42
-45.369
-59.448
-178.58
-242.79
58.976
275.53
187.85
5.6841
-37.824
63.158
7.158
-119.86
-128.36
-55.604
58.017
45.563
-90.43
99.994
-34.052
159.91
-10.425
-46.196
-62.244
-62.675
-46.988
-32.333
99.531
232.03
63.883
-103.33
-219.64
-122.32
104.92
81.406
-7.7617
25.84
-45.479
-62.79
-34.838
-117.97
129.45
267.3
-97.945
-76.125
-26.922
16.491
-4.278
-102.01
80.594
-48.512
-63.001
296.22
-53.701
-125.35
-136.39
401.01
146.79
-103.07
-161.47
-339.8
-132.31
84.5
124.8
155.3
20.943
58.157
39.185
2.399
-252.09
445.27
82.617
-353.74
-110.9
-16.511
18.251
28.764
41.74
2.9278
-13.638
14.85
6.3018
-20.792
9.9556
9.9323
15.134
105.24
-31.43
-113.63
64.715
-188.75
-211.68
203.35
207.43
158.59
-383.55
122.43
62.813
-85.314
66.737
-226.98
333.44
64.179
-126.84
-75.761
-55.098
-98.509
319.97
-15.69
-82.797
-7.0671
66.44
-111.66
-40.398
187.22
33.395
-76.645
-72.495
-142.29
-62.538
261.81
-109.49
-13.493
49.576
-141.32
137.67
159.4
-339.07
94.464
319.95
-115.81
-53.871
-28.694
-10.17
-48.921
-10.384
-199.36
110.65
274.55
40.091
-39.348
-134.49
-162.33
-61.68
126.74
253.46
-1.4216
-229.61
-4.7101
-113.4
123.93
220.76
-28.737
-123.9
-70.02
127.91
-50.636
-16.914
8.4027
-45.433
-1.2967
-44.397
3.024
48.51
25.812
-2.0645
112.19
-39.3
-122.77
-86.514
-143.48
295.94
272.79
-99.651
-117.18
-128.18
-79.662
18.063
94.678
-24.425
140.72
-134.75
-116.63
-7.2497
227.94
74.115
4.5662
-60.755
-83.018
-20.185
-214.5
317
49.977
-109.6
-18.233
3.0817
-19.583
-20.313
-5.3887
-132.37
81.072
-6.625
-102.71
90.74
148.72
1.9381
51.481
-52.623
87.718
-84.033
-98.596
265.9
-81.118
-123.15
-63.128
130.89
31.33
-69.705
-159.41
222.68
-72.021
22.163
-69.637
-122.16
212.31
-24.417
-79.645
-128.73
-222.63
334.5
493.11
-158.55
-277.16
-143.63
48.358
109.2
-96.037
-11.621
168.91
-37.615
-83.526
-36.471
86.28
-183.22
33.929
204.15
54.335
-172.59
81.02
-72.652
-89.306
-129.34
65.715
204.49
-11.64
107.67
-21.142
-32.009
54.047
-55.31
-25.063
-4.7889
-0.47612
12.362
-0.898
22.542
-29.776
-6.489
21.368
-7.3826
-14.967
-1.585
16.111
-27.94
29.664
-9.8473
-15.126
-1.027
19.593
10.663
18.501
-51.203
-15.792
19.707
27.52
-14.96
15.256
0.25942
-56.196
12.539
47.969
5.6276
15.305
-85.164
-4.2373
-9.3928
-11.154
33.941
27.76
-12.995
32.332
36.307
-35.088
54.18
-61.386
-27.557
20.95
-55.53
7.8894
162
10.408
-106.6
-100.78
-37.025
16.756
-47.543
-5.6554
44.037
96.398
21.458
-14.461
-22.736
-11.552
11.783
-9.2459
5.0097
0.66565
-8.5232
18.017
-7.803
51.189
-50.815
20.403
7.7977
3.7371
2.8273
-7.9777
34.583
-5.4962
-25.221
-136.28
50.743
92.705
-80.842
80.781
59.689
-56.88
3.3818
-15.003
-60.732
56.479
70.849
133.66
-184.92
-110.22
175.6
91.797
-59.391
-46.191
-38.248
6.2247
6.1343
-11.831
45.737
-54.169
-61.489
6.4943
-14.451
29.404
13.853
-20.59
-1.5965
0.30368
-9.928
7.0276
5.218
-4.9509
11.021
-1.396
-7.76
13.007
-22.571
-2.4576
-6.2163
0.86069
68.164
-21.456
-26.782
9.8555
-9.3493
11.83
-2.2026
-18.586
-1.7325
-2.8756
-15.946
11.392
34.509
10.56
3.9666
80.738
-88.351
32.189
141.53
-205.29
-237.89
186.21
267.87
-366.72
-57.285
58.432
411.71
146.46
-146.93
8.977
52.349
-62.569
-144.03
-345.24
-44.624
120.26
28.273
141.99
-18.365
-235.3
-16.783
75.697
160.59
85.813
42.051
-88.79
-36.653
55.106
-56.129
-57.591
23.15
13.231
37.888
-2.6699
93.855
7.8721
-147.55
245.2
25.132
-223.68
-3.682
-100.75
-24.884
40.643
199.68
94.532
-11.509
-258.36
-50.162
23.91
26.639
15.696
-18.021
21.875
-90.785
88.872
50.536
109.77
6.3569
-17.669
-50.958
-10.616
21.304
-3.8133
-12.759
8.0813
15.993
-2.8566
-10.279
-13.342
0.92564
-8.9459
-10.364
12.617
38.539
-20.761
-19.847
-4.9941
-13.779
-14.844
14.568
5.6937
-5.5319
11.547
-8.3547
-13.539
6.98
3.4404
-19.234
-1.4203
13.024
0.3734
-17.442
-1.0265
13.18
-13.982
13.903
18.459
-1.555
-11.889
15.764
9.481
-9.1175
-5.6577
14.91
6.422
-18.708
4.5061
16.426
-7.2443
-11.291
24.424
-13.778
10.439
35.5
-13.727
-14.782
-18.99
25.613
4.1759
-21
-8.8294
17.533
5.3762
-24.509
17.586
-21.055
-50.478
89.755
42.487
-107.01
3.7264
24.6
24.092
-13.268
-35.428
10.241
8.4466
-6.4201
11.415
4.7731
-15.227
-1.7377
18.051
-1.1003
-12.421
10.607
7.9287
-15.556
-0.58826
11.941
-7.5993
-4.571
10.734
0.40897
-11.374
4.529
11.943
-7.7588
-8.1598
7.5651
8.1167
-11.809
13.256
16.893
57.834
-57.469
-45.152
-115.68
16.166
337.34
181.14
-291.91
-401.75
86.493
331.33
125.38
-141.21
-360.86
-31.532
366.7
76.943
-214.5
-78.03
152.54
-133.97
-164.58
333.85
146.1
28.423
-226.17
-155.17
-60.437
188.07
180.41
-2.2586
-139.57
-36.008
-105.05
-176.61
-37.227
50.943
166.63
344.57
-149.81
-142.59
-77.241
-14.592
90.395
47.209
67.367
-8.5833
-4.6016
-28.924
1.1596
-39.4
71.577
-45.68
-8.3853
78.35
-80.146
-11.034
102.45
26.96
-76.805
-0.99242
19.704
26.1
-14.905
-17.955
-42.389
-8.2533
-56.252
26.689
44.287
-35.755
60.109
-70.386
106.69
82.808
-175.77
-140.21
90.056
-69.152
186.1
20.088
-194.43
116.85
196.97
-64.781
-69.644
-84.843
65.176
27.841
-111.91
146.98
108.39
-266.47
-310.54
260.58
285.69
-215.27
11.099
71.799
-125.29
-143.45
218.04
217.23
19.726
-128.25
-180.12
48.956
-45.445
-19.212
-10.025
16.813
145.17
113.35
8.2036
49.798
-104.97
-308.34
91.492
198.63
-7.823
-170.32
-208.88
136.86
126.1
206.79
-194.91
-96.694
192.64
-119.73
91.046
81.587
-112.5
37.333
42.69
-133.94
-200.74
-48.467
23.832
79.619
200.73
32.213
5.8207
-125.82
259.39
-131.3
-59.796
40.215
-80.516
3.3262
196.92
-7.7453
-301.33
-54.08
44.184
74.886
51.7
38.659
-17.51
30.966
92.084
-41.026
-131.62
128.63
-52.638
-94.684
174.2
128.12
-105.43
-57.055
-65.313
34.171
-72.557
-142.21
270.79
-4.0642
-271.55
70.474
214.33
-200.55
-17.772
200.04
58.508
-92.504
29.129
53.993
-67.873
-162.19
-18.989
73.088
197.65
-2.3826
-175.93
-71.818
34.703
117.16
-33.059
6.8763
-24.779
25.577
43.904
-57.631
1.4749
-11.321
-49.274
62.288
14.374
-56.953
-11.809
-13.661
4.563
-14.689
79.921
90.493
-171.52
-30.686
24.885
121.13
23.439
-99.428
91.299
-30.586
-23.178
8.2957
-25.87
-130.92
-182.65
350.39
203.73
-204.94
-45.198
-246.53
66.141
151.66
-69.498
117.36
-100.28
236.49
-107.29
-145.36
336.92
-380.94
106.9
238.96
-57.793
-7.0953
-86.614
12.058
-71.312
39.954
-162.34
19.559
262.97
-255.04
-16.371
111.01
199.14
9.3837
-223.27
-68.461
38.708
83.594
2.7498
75.663
-25.644
-42.441
-39.72
-47.752
-12.599
52.25
85.865
104.34
-249.93
-34.795
171.03
4.0798
-18.969
-7.6872
-80.975
10.379
15.424
-65.624
-42.988
152.97
-60.984
-130.02
25.472
59.469
-6.8619
121.61
-35.495
78.205
10.495
-76.426
-100.63
57.158
154.57
-17.268
-68.011
89.629
-17.082
-144.22
17.604
103.89
58.701
-86.667
-89.933
104.78
-133.61
-33.751
53.056
-2.2782
188.63
-39.558
-31.496
97.838
-318.75
122.16
0.62505
113.82
-145.66
-137.09
195.37
-10.768
-19.584
88.006
18.504
-20.758
114.32
-234.76
-92.822
312.84
-82.337
-181.36
-17.638
48.642
137.23
-159.56
-102.09
343.53
44.143
-107.83
-72.5
-59.171
-77.366
106.9
239.2
-53.656
-172.24
-1.2324
-14.164
108.17
-212.22
134.14
58.801
-292.04
-126.52
224.81
200.62
-28.224
-26.838
-8.5787
-16.942
14.276
-4.3745
29.593
-65.209
42.558
19.185
77.882
38.211
-294.19
12.286
216.28
-224.1
-248.45
219.76
241.89
37.524
81.054
51.753
-45.209
-189.52
-281.34
305.35
122.26
-130.15
-31.008
1.4012
-105.73
69.884
150.14
53.06
-160.46
-54.454
178.68
-95.931
-111.05
-39.821
-64.37
13.415
186.8
78.408
121.05
-190.24
-219.28
-115.12
172.04
363.73
111.89
-277.71
-186.37
148.98
268.84
-40.168
-263.09
-70.303
-48.13
-211.44
157.91
220.35
38.702
-96.849
86.795
-58.899
42.885
99.462
-122.57
52.625
-58.523
-38.779
111.32
-53.557
-29.557
-33.942
6.3565
-2.4378
-36.64
-31.663
-61.148
197.79
15.03
-81.498
-50.908
-195.88
-35.407
233.01
180.49
36.988
-121.16
68.176
32.18
-73.606
-13.67
-170.36
8.8853
81.702
229.97
-78.431
-24.143
60.521
-153.83
-50.879
5.1664
18.821
-9.6042
14.735
14.241
-48.598
134.32
25.22
12.337
-299.18
-224.19
290.04
196.79
-18.951
10.123
-103.01
-7.5799
57.665
69.786
43.021
-25.064
-28.862
5.4962
19.989
-41.109
31.466
-145.99
208.93
-129.98
12.439
94.773
-184.39
-73.852
263.91
-32.711
-309.1
-149.83
369.3
97.458
86.511
84.543
-211.28
-154.35
-36.206
188.99
-87.256
-120.23
95.396
153.34
-133.19
-11.104
-18.419
36.719
-0.33042
-10.779
-203.09
18.952
250.25
-238.09
235.46
148.09
-46.845
5.7867
129.15
-97.173
-107.44
58.471
7.4181
-125.31
-228.09
23.552
243.04
211.15
-92.996
-166.5
11.892
139.69
-80.165
-43.295
-48.347
4.7519
-41.834
-172.38
28.186
310.28
144.65
-197.11
-7.1687
81.152
-100.2
-148.69
127.78
37.013
-226.67
80.143
299.19
-128.14
-63.273
-31.813
-117.3
29.388
133.31
-89.831
-101.84
107.06
230.61
-89.623
-104.11
-6.1366
21.362
-205.67
89.984
143.93
135
-314.14
208.65
279.47
-185.11
-200.49
238.91
-67.701
-217.47
66.962
12.781
12.007
-19.236
-6.8524
19.237
-39.472
-6.5971
-180.18
247.08
98.524
-115.54
105.72
139.52
36.121
-273.21
-350.74
105.59
433.95
-11.443
-66.667
-73.559
-4.3607
-52.65
-61.628
275.22
-163.33
-258.19
83.82
111.75
171.63
-231.57
87.526
-123.17
34.284
466.1
-60.522
-214.08
-222.96
55.186
292.07
-33.554
-107.73
-28.323
-187.31
6.9676
230.05
-118.09
-165.21
0.99136
237.13
-76.698
2.0009
56.75
134.02
-240.03
82.085
148.63
-280.31
-7.1266
-40.805
-25.977
344.01
-29.02
-46.616
54.422
41.043
-107.32
-10.278
-54.291
-179.96
118.05
94.034
-36.56
38.412
-61.633
10.272
54.785
97.617
-107.77
43.312
-77.9
-30.626
-25.213
54.24
53.984
5.6878
22.697
66.806
-118.64
-77.27
-110.68
-31.234
130.95
75.883
-35.427
55.227
-94.296
54.657
332.48
-36.27
-195.5
29.585
-257.52
-59.602
183.98
236.59
-68.285
-144.93
60.799
-36.334
144.72
-40.657
-161.3
-61.126
13.758
38.853
8.3585
3.0319
6.7495
-15.044
4.0931
15.494
-13.446
-9.7295
17.518
-0.72243
-17.918
15.405
13.168
-13.526
-5.1104
41.957
8.56
-4.7877
66.161
-132.27
-12.022
239.47
138.38
-288.44
-121.49
-28.833
388.44
-15.641
-131.85
-254.77
-23.886
331.07
11.368
-143.89
-293.6
114.31
5.4897
232.54
117.16
-167.1
-68.865
-8.4638
27.211
-9.9126
-0.48381
19.02
-8.1357
0.10293
15.622
12.774
-61.945
-17.762
-188.68
-5.1615
234.95
111.99
94.089
113.31
-48.719
19.422
-141.49
-188.8
17.989
78.96
-102.51
10.444
-17.963
-6.7783
203.56
-142.15
-116.6
81.488
47.882
6.5334
8.5605
13.818
-48.724
-19.402
8.7825
29.973
-19.218
3.6388
16.283
4.0198
0.80494
-2.7829
-39.383
-5.0636
16.047
51.203
-82.187
21.153
177.91
-271.31
-113.12
391.23
-47.297
-50.852
6.1095
-71.369
-171.8
120.9
261.54
38.041
-156.41
-168.87
29.6
145
-85.365
-132.8
133.59
252.76
-274.96
-224.66
117.91
177.1
64.889
-30.726
-65.359
167.66
77.373
-38.396
-89.14
-161.2
-58.741
26.526
59.313
-21.851
-0.44047
-13.439
-9.327
16.988
18.324
-22.888
-7.2655
19.013
-5.4345
-4.2383
5.2734
1.7899
-104.82
-125.03
240.36
83.496
113.8
70.618
-185.74
-259.68
195.64
204.64
-70.05
-193.65
-132.73
195.34
-38.389
-383.68
46.014
362.79
311.61
-15.477
-241.97
-127.49
0.44946
258.63
-59.104
-126.06
117.93
-303.82
134.47
243.03
-94.081
-53.274
-81.698
11.815
27.245
6.2672
-32.993
-2.9177
-2.7035
19.316
-101.13
-158.52
286.5
368.64
-199.01
-130.1
-29.041
-9.8046
0.10673
-101.12
-35.735
180.95
27.879
-165.25
56.216
19.457
-96.924
196.6
-65.572
-37.269
-16.823
-4.9112
-85.927
8.7511
-160.78
81.348
376.38
79.656
-190.51
29.126
4.4481
-286.49
35.069
150.04
106.07
29.055
-35.45
52.711
136.94
-87.694
-152.22
-46.411
-51.105
-17.852
-46.486
84.468
-6.7745
38.949
48.41
-106.06
11.418
13.343
-20.024
-0.61273
-130.3
124.98
18.222
29.015
-271.09
58.271
346.76
102.46
-52.071
-94.29
-36.905
-143.15
53.043
123.97
-235.63
-51.005
238.24
-100.59
76.087
-148.41
-55.807
428.71
15.004
-182.06
79.442
-46.673
-129.26
101.52
-136.55
83.77
-52.709
-17.851
-19.531
-145.63
-160.72
229.08
277.16
120.45
-74.131
-154.56
-158.8
123.04
7.7511
-1.5876
-37.491
50.984
35.011
46.852
-16.978
-48.248
29.507
-30.384
28.093
-89.353
77.818
-108.4
-1.6468
149.78
-34.339
23.068
-65.974
124.01
-20.32
-52.218
-47.083
-10.811
-15.683
19.723
-150.07
-16.614
194.1
-26.635
26.623
-46.732
67.081
-157.65
60.569
278.04
-23.345
-44.744
-103.79
-34.063
-123.46
-102.6
142.83
152.39
100.99
-65.45
-154.74
9.9581
-1.9606
97.448
29.848
-159.3
-225.04
98.288
23.145
188.86
189.95
80.321
-92.241
-151.13
-59.798
-128.64
-233.33
252.21
133.25
31.614
-14.963
-69.92
176.4
-276.26
34.207
-32.69
193.39
119.56
-72.496
-78.473
-28.637
-124.11
141.9
-19.71
9.1237
-215.85
108.18
311.77
-155.41
108.8
-250.39
191.55
44.453
-97.97
-73.524
-156.58
-127.28
266.38
26.639
49.43
-156.24
-45.132
160.03
48.105
28.079
-23.888
-63.556
-8.8017
2.7577
-10.465
53.674
-34.601
116.78
49.726
-36.257
-90.431
-139.04
10.135
141.1
-114.91
82.011
31.46
-32.503
-127.19
112.54
102.67
-88.232
40.138
-23.318
-34.771
-13.303
-37.035
-3.6506
37.926
-8.6609
-55.114
115.43
46.14
-103.77
6.8499
9.6548
7.5019
-35.691
-41.988
103.43
1.9694
39.737
9.4713
-136.24
63.32
9.2925
126.78
28.161
-116.03
-66.076
-46.782
-6.9514
99.844
-44.925
-43.756
118.44
56.148
-25.101
56.289
-215.34
-127.81
295.88
10.069
-301.42
127.99
270.28
-82.835
-80.385
-63.507
-34.317
14.938
41.023
-94.714
81.329
81.533
-266.64
-35.992
316.88
82.258
-230.59
-304.91
103.2
436.2
223.5
-58.986
-329.58
-416.51
-6.2675
432.24
195.14
-185.64
177.67
11.492
-251.62
174.44
132.37
-265.14
-285.18
95.716
-74.811
230.78
162.81
-3.8647
183.69
-279.17
-96.764
4.5231
-117.38
12.762
155.92
119.94
-53.773
-112.9
-56.318
77.7
186.46
-155.37
20.736
-38.066
-44.233
38.584
58.394
35.556
152.28
-135.46
-59.606
-54.251
0.46679
-6.672
-120.42
147.53
49.271
25.547
-221.87
102.87
105.81
-20.735
-1.9902
-40.125
17.715
-37.743
-26.052
-4.1181
125.39
147.75
-141.99
16.218
-17.863
-61.263
-28.227
-3.4987
7.0707
-59.09
-1.7083
113.15
-30.769
13.78
-100.63
19.405
116.43
101.56
-153.12
-29.677
136.5
-120.84
-248.88
130.06
184.59
177.96
101.79
-330.44
-318.15
88.304
87.186
393.01
-14.21
-205.81
23.116
-217.13
215.72
-66.212
-204.28
21.578
108.57
254.48
-178.66
-53.578
110.2
-39.012
-28.606
139.56
193.1
1.5941
-182.19
-332.77
41.294
261.8
-282.2
74.998
342.66
49.984
-211.19
-94.7
-67.746
52.99
17.152
-3.9497
-74.549
6.7904
84.654
-330.63
-20.657
269.85
38.554
154.9
-86.754
-160.14
138.68
186.94
26.582
-145.3
25.182
119.91
-54.357
-183.02
-72.416
168.2
-99.596
-32.299
-143.97
-170.94
156.23
138.12
320.33
152.32
-142.7
-157.46
-186.05
-201.17
237.54
279.04
-225.36
120.48
-199.74
-95.469
167.86
60.703
79.596
-95.566
-64.51
-132.89
86.934
186.07
123.36
-125.68
-77.848
-48.568
-68.959
-0.62912
-293.55
104.19
345.18
155.13
6.2412
-158.68
5.7103
-204.1
69.091
198.48
41.649
-88.439
-145.1
-24.328
-143.32
-57.277
239.22
-26.286
244.52
-99.12
-22.819
-6.5966
-134.64
223.73
-84.769
-73.973
-44.113
128.56
-88.737
-166.98
196.55
114.71
-175.78
4.8069
-100.01
-108.78
163.85
194.08
107.67
62.999
71.372
-220.54
-119.88
41.37
-57.76
11.438
-77.121
-106.56
320.2
215.52
-186.55
-129.59
-16.956
-310.68
42.15
265
-132.36
135.11
15.744
-23.422
-1.2929
3.3252
-28.126
-74.842
-58.503
-82.472
135.86
114.31
103.86
-38.055
-55.933
72.59
-43.349
-88.437
83.617
13.248
-82.15
-38.765
-11.235
-5.02
161.59
119.61
-67.538
-146.21
171.69
-91.623
-182.62
202.76
63.389
-262.44
-106.18
226.43
-31.745
106.85
-16.872
50.612
-154.29
-50.124
66.548
23.175
-78.062
-25.575
215.79
-73.402
-99.238
12.632
78.501
9.7626
-82.908
107.78
64.682
-38.552
-74.238
-124.24
-39.194
49.93
169.12
-11.333
-124.68
213.83
-48.522
-192.84
-178.39
74.098
370.03
55.589
-213.48
-136.51
-83.328
49.574
99.909
195.77
-85.363
-83.696
14.536
6.0314
120.84
-104.68
-7.3076
-5.442
-14.878
69.931
-72.793
6.4776
-31.81
84.833
-19.65
-33.782
-53.108
116.81
-106.08
29.571
-31.722
-183.12
316.15
108.12
-110.92
-105.26
14.616
-18.103
10.974
18.521
-167.61
218.66
-4.2082
-218.13
364.23
68.261
-270.12
-270.37
332.19
91.083
-188.04
-237.71
332.48
272.6
17.281
43.238
-320.65
-192.67
-180.33
-17.372
92.418
14.332
109.06
340.98
-195.24
90.798
19.229
108.24
-111.33
-139.98
-157.28
-143.12
161.75
276.91
152.46
-422.6
-322.09
193.27
229.39
135.87
15.166
-44.047
106.51
60.976
-202.79
-0.63175
33.178
-181.64
-146.81
-80.779
198.05
312.79
-176.78
-162.01
224.18
13.542
-30.905
68.348
-92.567
5.6678
8.9091
-50.211
-68.378
101.11
-17.767
-25.844
-66.98
-51.527
99.772
78.346
52.381
51.306
24.881
-5.9836
-90.057
-91.519
-40.095
-99.992
188.13
20.277
66.275
8.1436
-164.08
132.95
-18.728
-67.11
-74.194
46.43
13.05
-99.747
192.14
-153.75
-90.163
83.539
119.81
25.342
-105.45
67.114
248.46
75.799
-174.82
-183.93
-172.34
18.717
348.84
-152.18
-250.89
-133.49
59.165
401.87
124.61
-334.35
1.5727
289.24
-150.71
-42.79
-107.63
35.904
191.71
52.547
-202.75
-177.41
-148.82
174.93
80.951
101.6
141.54
-48.689
-0.16661
-83.273
-31.959
76.473
93.188
-147.09
-25.67
62.99
-28.477
12.624
-11.59
89.452
-131.63
-39.499
160.84
131.33
-85.815
-8.8615
-74.839
-62.293
-69.616
55.496
76.971
-18.94
-28.844
-24.68
-17.836
5.6023
64.149
-7.5379
-25.274
-102.41
32.545
-216.07
304.27
276.34
-83.681
-181.64
-50.242
-8.2708
16.879
-73.262
70.972
-15.822
-143.98
117.39
281.1
-78.382
-276.74
-93.575
250.5
33.267
-149.16
68.232
111.26
-87.249
-12.112
-82.538
-119.22
124.73
25.511
88.053
41.232
36.638
-86.159
-47.795
163.3
0.92712
-88.541
2.6748
-5.2111
-29.59
-3.928
7.3344
-24.185
1.5156
9.9321
-15.852
24.758
-10.195
-52.974
-61.687
26.553
164.6
27.68
-73.668
-157.12
132.54
73.41
-16.093
14.096
80.299
-156.92
-1.5926
-60.061
-127.34
63.58
100.56
67.297
-6.8337
-84.851
250.99
-10.57
-135.94
-0.44265
-87.913
-66.855
-15.214
210.97
-26.396
-37.263
-11.602
-12.675
-24.304
12.739
6.3939
-19.383
0.3039
39.868
-9.1732
-50.709
-14.407
-5.993
108.57
-6.6606
-18.331
-35.03
-243.63
104.57
386.14
-121.17
-37.716
59.901
-80.757
-166.64
71.129
121.57
-54.331
-218.73
294.82
141.08
-119.57
-132.53
-138.76
-53.269
296.51
-19.274
-135.68
75.004
-20.17
-36.955
32.467
-25.044
-14.708
-21.724
45.052
-89.961
199.95
20.595
-51.888
-34.365
64.581
-68.023
-236.92
193.34
203.45
-67.889
-315.82
68.693
90.119
58.507
159.78
-77.054
-62.774
-30.927
-37.622
-3.9889
49.197
-90.575
110.89
10.518
3.9847
-116.75
-108.64
254.88
94.464
-270.75
15.926
-138.16
50.728
208.48
97.202
-15.08
-85.379
6.5349
-57.325
42.538
-17.195
-21.306
148.27
-329.3
-17.099
245.59
165.46
-153.03
-154.05
122.05
-168.79
-51.194
297.58
70.002
-90.897
-120.85
97.767
147.3
-11.166
-85.129
-73.18
-15.418
-3.511
-26.259
-182.68
-120.98
323.36
-4.8081
27.412
13.574
-45.169
-14.655
24.636
-38.305
243.06
173.31
-277.11
-123.67
48.048
-21.53
-32.271
-45.246
-14.954
-0.53151
45.014
48.296
44.717
96.789
-88.977
-72.725
-8.4825
55.698
65.882
-119.88
130.18
163.87
-90.333
-243.22
-58.202
28.433
-27.029
28.371
27.738
2.8735
0.046286
1.765
7.6348
11.578
-7.8342
18.765
-6.9483
12.011
10.417
-10.086
18.883
-7.8223
6.8289
4.5596
-9.6107
14.804
-11.298
9.6932
1.8838
-4.2878
7.6207
2.0822
2.9244
-7.717
-7.8668
3.5473
0.35428
11.475
-78.621
-41.621
-2.4669
44.152
54.471
-15.608
4.4698
-34.813
29.248
52.331
30.535
-18.037
-20.363
-32.291
35.071
118.19
-124.6
16.166
329.38
-144.74
-133.64
14.562
62.633
213.52
-135.25
-121.08
-353.32
-370.1
439.5
195.6
4.6658
-103.79
-87.041
160.17
83.53
-180.5
353.95
-267.54
-305.33
14.287
519.81
-107.7
-507.25
418.27
221.13
-149.19
-72.206
-48.641
-25.162
24.05
-28.505
20.797
31.465
36.822
-37.054
-216.35
-10.105
253.89
37.141
-14.132
16.825
-38.504
-22.18
35.484
-47.745
63.13
43.699
-34.773
-2.3213
26.555
-10.342
10.299
-37.494
-27.539
23.843
-2.8243
11.888
-31.389
4.073
-19.394
37.258
-69.005
46.525
69.685
-30.725
17.736
0.10218
-30.123
4.3257
-4.3458
-18.068
17.424
3.0283
-28.765
36.967
26.474
172.57
111.23
-287.69
-57.067
12.576
10.321
55.401
48.025
1.6049
18.15
-116.91
-102.84
-22.751
-30.146
15.45
30.678
-15.375
-0.56499
-2.2695
16.725
23.77
21.276
-13.989
-2.8908
16.783
-14.807
0.40114
38.312
-18.605
-0.21864
68.172
21.111
-43.314
-6.214
-15.326
-33.902
37.795
-25.595
-0.96487
48.539
39.632
-6.4921
-58.29
-20.43
-28.252
17.321
-33.333
-7.4533
-0.35144
-45.553
0.94613
23.354
-19.532
40.545
-8.9026
-3.1156
36.718
-28.301
16.508
26.936
-30.448
26.226
28.426
-39.422
20.367
45.89
-37.398
-6.3108
53.667
10.695
-11.916
59.67
2.1133
-70.106
-134.06
-94.251
212.72
92.83
-135.11
-49.877
33.503
75.507
8.9427
-30.288
9.3605
144.46
16.597
-75.159
92.947
-158.94
-130.35
27.933
34.339
137.07
-75.944
-101.17
-36.765
117.19
33.838
-92.815
-5.788
-18.608
69.765
5.4805
-23.543
-59.231
-47.659
238.91
41.115
-128.74
-72.972
-32.419
4.8774
42.728
-54.379
18.549
20.668
-38.98
67.235
-6.3765
-14.02
67.666
-24.666
-8.2283
62.795
-1.891
-22.107
44.135
-1.5388
-43.525
19.506
20.529
-37.22
-0.85372
25.504
-15.024
-34.937
20.858
15.539
35.024
65.585
-116.9
-62.338
-29.931
3.3809
11.835
-15.336
-7.477
17.869
-15.854
42.785
-34.034
-65.766
-10.448
-93.101
281.86
-16.656
-64.801
-18.301
-15.674
184.22
314.94
38.924
-159.77
-204.65
-26.71
-235.85
-168.53
219.2
143.32
-211.12
92.586
32.757
14.218
100.16
-32.586
-25.873
-31.164
1.4561
-55.438
-46.567
20.628
66.255
48.485
-17.826
71.088
-15.93
-72.636
6.4841
-29.888
30.029
27.1
-32.333
1.112
23.888
-71.054
24.33
-11.062
-32.265
107.8
20.995
-79.522
-86.885
69.855
161.38
-74.146
-25.775
3.1174
-39.118
18.795
32.514
-2.9442
1.0604
-12.215
44.731
5.685
-60.887
32.308
-8.1493
-4.8372
6.4742
22.124
-19.53
-70.475
27.426
9.4802
-12.673
-0.15841
10.075
39.136
29.995
-91.693
4.4558
29
16.636
-23.639
6.4066
39.776
-31.837
1.3404
-18.821
-13.24
31.039
33.3
-37.128
16.616
24.418
-8.2421
0.16925
-36.542
-1.474
-17.813
-5.3402
22.1
-2.0634
-30.455
51.119
13.878
-50.2
57.557
-29.381
10.278
-53.564
-10.108
3.1833
34.232
-6.7074
61.223
53.201
-23.245
-123.91
6.811
21.316
33.027
23.163
-39.008
-48.658
9.361
69.099
-33.901
-47.707
21.031
20.797
14.092
14.737
33.604
-45.511
-8.2237
18.368
2.281
-3.8232
-12.837
64.091
59.988
-70.322
-53.173
162.66
167.01
-69.963
-190.09
6.7358
-130.29
78.213
-650.66
220.48
237.96
-16.519
311.62
-203.7
-13.898
93.298
14.856
-42.7
40.141
-22.594
-12.083
13.046
3.2861
-15.837
3.8806
13.746
-10.478
-6.9339
11.665
-2.5539
-9.4093
12.065
6.6874
-16.794
-6.0253
14.11
-0.071532
-16.294
7.2916
15.873
-6.9385
-10.319
15.38
-3.5867
1.7065
34.864
34.442
53.216
-76.256
-9.1441
23.46
-43.729
-14.263
23.865
1.4479
-43.135
-19.817
2.1108
0.25326
-11.407
30.532
22.16
-33.751
-65.596
24.026
31.001
-46.065
49.17
102.17
-41.095
-29.573
8.494
17.127
-30.589
-10.21
29.525
26.207
-14.706
-0.15297
10.304
-13.123
-7.8264
5.6678
20.911
-9.8395
9.3677
12.676
-10.721
-50.872
-27.637
41.713
38.852
-47.253
-5.2868
31.934
-42.274
68.287
-3.1224
-76.961
-60.191
55.344
31.037
-10.601
14.054
-29.098
-8.4722
135.72
-22.281
-79.115
-63.114
46.229
127.48
0.91826
-74.579
-24.695
15.004
-52.8
-43.489
-3.3934
130.76
111.85
-35.41
-38.399
-56.664
-64.302
58.235
2.0544
-20.538
-4.8987
4.393
-30.913
19.716
-32.58
23.722
58.473
-56.231
22.1
-21.867
-10.99
9.4301
-20.351
-4.4115
-47.985
63.329
22.876
-94.15
63.548
-65.933
5.5384
116.07
-18.055
-17.22
-72.081
-9.7064
26.157
-10.349
66.831
49.879
-42.552
-27.617
-4.0892
39.172
-78.205
6.8327
18.952
28.2
50.109
-64.24
53.896
-58.359
-31.919
133.92
4.4858
-72.938
82.485
-96.261
29.155
20.965
-63.293
39.598
-16.572
53.733
135.87
-39.514
34.408
60.023
-411.17
-17.57
499.52
-28.289
-397.59
-117.16
147.28
62.552
17.562
-60.327
15.228
-5.8788
-8.5551
-8.0818
50.536
60.271
-15.729
-73.595
-115.82
-33.126
89.546
18.621
16.709
49.069
2.6949
-25.224
-118.12
178.15
40.288
-102.8
83.14
-37.36
-32.885
44.534
75.977
-89.615
-10.08
146.19
-88.544
-17.681
54.296
-5.8589
-131.26
-3.529
144.87
-37.59
-76.381
72.526
108.6
-142.21
-48.678
106.29
-58.797
-152.61
205.03
47.817
-45.831
-35.148
51.272
-6.457
-76.495
33.845
-32.148
-49.945
67.226
81.867
-46.617
-124.03
8.8742
22.459
90.073
13.852
-70.178
-95.317
169.86
102.78
-182.93
-49.657
13.946
180.44
20.571
-112.21
29.322
-44.338
-13.826
9.0717
50.201
-181.62
70.588
80.106
-151.35
74.45
87.882
-52.458
-102.15
26.229
22.385
111.33
121.27
-72.398
-67.418
-17.198
-106.3
23.342
11.691
-48.121
-52.676
180.04
68.973
-104.83
-83.143
256.06
-15.498
-218.88
13.895
103.37
27.658
-27.65
-61.62
-71.076
22.698
50.93
33.704
-78.325
26.289
99.929
-77.171
12.843
82.162
-62.958
-13.424
-7.7144
-6.183
-41.252
22.902
34.398
22.262
-159.05
-7.5782
248.81
-47.922
-3.5601
-1.207
-83.682
-40.64
0.20832
26.782
-18.785
164.24
-113.85
-107.37
63.87
21.61
-0.39366
83.441
-35.922
-79.818
7.9771
-51.755
39.67
17.294
73.942
69.503
-65.196
-55.262
11.949
-6.1499
6.2317
142.11
-50.441
23.551
-105.6
-81.809
7.9804
45.417
98.021
-31.843
-78.841
-5.9828
39.913
5.6318
-51.781
35.621
-36.755
73.964
66.489
-122.46
-70.333
136.62
26.655
-64.843
1.7981
-31.701
51.855
17.551
-6.656
-4.1217
-6.1232
-21.66
-0.43609
8.7422
-11.493
-30.18
-76.851
67.841
-34.306
8.6829
67.701
1.1695
23.382
98.322
-83.952
-32.809
37.517
1.6049
-45.956
2.8187
67.727
-112.53
-49.523
60.24
-44.559
10.141
50.904
6.3392
71.003
-56.528
-119.54
116.23
7.5558
23.001
21.674
25.517
31.244
46.695
-102.93
-79.489
-18.418
48.154
-27.648
10.224
45.062
-6.5901
-10.956
34.555
-18.778
-30.385
7.0565
25.586
15.266
19.344
-11.414
-59.233
115.54
194.06
-344.13
-116.87
106.46
26.723
-12.6
-1.2647
-1.3259
6.8937
41.599
-2.0041
27.101
-118.14
-12.204
93.581
-97.77
49.47
-22.526
109.85
-36.299
-100.2
33.494
8.5122
49.771
128.2
-35.765
-15.802
-95.105
6.1353
50.375
-31.415
-71.546
42.536
96.132
18.407
-115.06
149.53
23.209
-146.84
99.396
-32.54
-60.262
-55.015
16.429
-56.634
129.25
112.51
-234.62
204.72
16.094
-122.16
-18.099
16.971
19.236
32.69
-9.4905
-49.102
-102.1
-13.316
123.37
18.458
60.284
-151.3
18.587
-4.5544
-93.393
86.292
66.267
12.204
-18.005
-25.147
-3.4542
26.669
4.4128
36.778
-23.103
-21.458
-5.3761
39.56
-22.586
1.0652
5.3968
-14.8
-17.497
-24.353
23.822
-5.8697
-31.475
103.13
-51.711
37.465
-22.151
-31.307
153.84
-105.96
-27.27
-6.8466
-14.587
-40.435
-2.5919
27.3
86.94
-22.8
10.168
-17.125
-42.059
44.894
2.5864
-138.14
-63.24
133.27
71.057
1.0926
-13.701
32.306
115.92
-133.95
-10.631
18.869
-63.844
-10.037
-65.64
-49.976
116.41
-12.189
71.234
-113.08
130.69
69.962
-123.8
-23.203
-31.937
20.132
4.6966
-22.583
71.415
59.149
0.016673
-106.1
-8.4771
131.53
86.883
-77.973
-18.634
-80.571
-11.067
40.016
-58.605
68.286
-148.62
137.25
-8.4569
-50.595
-13.971
-54.203
88.876
44.812
-24.853
-41.829
67.464
29.3
-2.7937
6.1223
-76.294
-114.47
155.69
26.006
-17.883
173.98
-84.668
-167.35
-11.559
-185.59
-14.352
213.16
56.713
-19.575
-4.0438
-81.284
34.761
-48.337
-6.9289
243.4
4.3406
-105.31
-24.353
6.5249
-37.3
21.333
-29.995
74.612
-42.697
-46.711
-8.0191
42.064
120.16
-123.06
15.264
-32.489
-15.457
108.85
-44.44
-24.282
32.674
-25.483
39.386
2.8774
-57.2
61.975
12.446
-57.132
-96.862
35.596
42.526
75.839
-103.13
-98.377
90.521
122.51
-28.684
-72.326
-40.394
-10.859
29.355
118.22
-20.999
6.8831
-59.356
-20.482
-48.843
-19.632
50.915
71.938
95.641
-157.96
130.95
-50.973
-12.181
-14.539
18.547
159.79
-156.31
-19.243
-30.153
34.606
-3.6023
-28.707
-14.191
-100.72
0.84981
193.75
-113.78
25.991
34.987
-10.113
-27.842
-52.818
-57.64
54.082
136.7
-26.894
-38.629
-44.867
23.246
-8.8816
-16.793
11.534
-26.234
46.328
169.11
-72.431
-13.176
-98.316
14.618
13.716
5.7196
119.42
-92.924
27.106
-31.216
37.814
85.419
-94.128
-117.17
85.037
-57.278
20.225
3.6293
-7.7726
-59.547
-0.022685
146.43
-89.517
-47.026
11.584
-157.26
172.51
102.81
125.4
-189.45
-35.555
267.28
-131.64
-182.16
-3.9024
89.199
65.688
-48.495
-82.479
0.11776
-20.89
83.152
122.19
-55.858
-56.804
32.664
-6.6241
-28.378
-7.5102
65.965
-104.89
-88.814
72.251
135.11
-2.6188
-64.303
-36.56
-14.112
-123.68
20.053
123.43
221.63
-109.19
-56.783
-6.7167
-233.38
210.08
149.01
-90.332
-25.512
-14.288
-28.602
-33.642
15.235
-1.5857
-12.412
39.004
-66.843
82.723
52.713
-83.242
-24.004
-34.743
86.671
-58.88
55.35
-28.838
82.401
-115.61
141.69
57.692
-90.635
-54.117
29.152
55.413
-82.373
-44.877
46.512
-155.15
24.559
194.66
-52.844
-26.352
36.513
-45.22
-6.7104
37.41
-73.926
98.752
79.059
-46.899
-55.637
-48.103
20.802
-20.48
-12.934
44.562
-5.9755
-2.0839
-100.82
103.27
162.03
-143.91
-38.671
46.844
109.49
-115.94
22.916
-165.16
16.236
210.46
-2.4974
-181.41
-25.202
181.02
-95.256
74.236
93.252
-110.96
-42.851
66.878
-23.507
-117.97
103.38
26.978
-102.98
34.727
-14.686
97.268
55.109
-85.918
-38.276
-72.463
113.95
22.814
-105.19
-76.362
-91.886
242.19
77.995
-1.1407
-95.204
3.5279
17.054
-53.894
-10.635
5.5523
76.018
-1.9702
-168.74
137.99
17.112
-28.974
-50.386
-27.673
33.578
-98.58
133.92
137.3
-81.773
8.7908
-52.735
4.2592
6.1457
-184.28
21.915
239.71
-19.136
-95.002
-67.496
192.39
-69.63
30.059
-59.22
-8.5809
120.98
-20.415
-93.239
-102.2
57.033
111.46
49.303
-50.922
-153.32
101.79
-31.342
-56.397
50.086
14.253
21.815
-82.256
-4.7187
162.59
-46.011
1.0967
-52.839
70.624
74.223
-26.195
-28.389
-108.94
3.7081
1.3223
45.872
92.54
-85.469
105.68
-101.12
-79.359
95.809
16.396
-48.004
-17.154
-34.541
-43.307
-10.195
98.632
-71.539
-74.666
69.791
51.378
83.148
10.865
-60.659
-44.872
7.897
-54.517
-91.782
178.35
43.883
-65.362
12.124
-71.928
-16.624
30.172
-77.102
8.1909
146.36
-148.39
-52.046
124.82
151.83
-59.288
34.611
-67.013
-19.005
69.164
-29.43
-17.754
-102.09
213.55
13.155
-40.876
30.956
-144.06
-9.7732
-8.8243
36.483
56.862
66.624
-116.74
-47.172
91.191
-31.884
-57.284
91.814
-72.023
15.64
75.845
48.927
-87.724
-172.21
166.79
-75.707
75.231
137.93
-116.66
-0.98853
-57.644
13.761
7.5214
-95.207
28.524
-74.867
150.84
55.02
-118.84
-48.204
25.329
336.28
-0.84855
-109.45
-187.25
-190.57
135.26
185.8
-198.39
-133.39
147.15
281.14
144.74
-182.56
-244.53
30.854
-16.97
-139.55
97.9
91.729
211.65
-47.122
-165.84
65.577
-19.023
-22.342
-26.37
-17.742
-27.907
33.16
76.945
12.418
-97.726
-37.107
91.966
-60.093
-119.25
225.23
121.66
-128.14
-80.166
-22.996
-5.1527
79.375
72.901
-34.402
-53.91
-78.915
36.468
-40.983
-94.473
154.36
-98.812
275.2
53.127
-112.06
-78.059
-60.115
-63.663
127.69
-153.2
85.78
96.133
-116.1
77.354
-34.469
198.85
-138.05
-33.954
-88.224
2.4503
186.72
-28.162
-81.017
-34.278
82.312
-89.91
-122.02
105.07
198.93
-142.66
14.817
-85.837
-107.77
170.79
37.631
-2.5871
24.451
42.72
-106.89
-18.651
-80.229
10.94
43.05
36.526
114.1
-46.941
-0.54956
-63.791
-59.579
74.401
95.447
15.904
-99.762
-12.431
81.7
-31.813
-27.552
10.056
-168.88
153.56
130.59
-107.67
-36.601
0.61613
-36.733
-45.891
19.198
19.579
0.8051
-1.964
-14.181
51.394
-12.755
117.4
88.222
-136.95
-119.82
-52.653
73.415
76.921
5.5969
-16.41
5.4875
15.064
-2.4236
9.6813
33.44
-23.708
-57.68
-68.21
106.87
34.059
-16.981
-25.424
-15.151
-66.502
-90.674
92.729
120.95
65.808
-64.116
-58.1
-84.465
-60.47
151.77
34.365
-99.833
-32.413
77.678
39.157
-35.184
3.4541
-19.767
105.05
20.644
-63.333
-94.501
-34.372
14.821
39.955
24.628
-36.054
-41.729
92.644
-3.6254
45.293
54.074
-7.9703
-171.17
102.18
81.859
-145.33
129.91
64.039
-117.53
-133.19
60.014
-10.173
86.658
9.2709
-145.56
63.391
1.2035
83.232
12.746
1.9208
-26.502
-145.18
102.82
-75.51
146.75
-31.57
-130.18
49.081
80.266
37.67
-193.36
-11.334
83.329
-11.948
16.419
157.57
-28.191
-59.793
-47.457
-37.322
163.82
13.656
-86.681
-40.593
-11.656
-24.609
4.9392
13.249
-4.8068
-83.047
18.691
178.04
-19.217
-30.499
-43.66
-23.835
16.555
-4.5159
-64.886
-100.89
92.187
226.72
77.347
-146.86
-60.542
16.85
-75.044
-36.425
72.484
-28.578
56.063
51.764
-6.1613
86.544
-68.618
-165.89
23.362
86.444
35.127
-51.325
-21.778
-48.072
20.716
-43.463
35.992
81.41
-101.88
48.295
123.23
86.275
-104.2
-143.76
37.328
59.787
12.28
-91.915
24.982
169.34
-120.46
-103.9
32.047
2.0187
-27.12
19.887
-31.605
78.184
146.44
-111.88
-9.766
-4.0833
-19.203
2.4056
11.787
-36.177
-3.1319
-100.86
125.33
97.952
-76.197
134.15
-112.25
-62.929
38.904
-41.078
83.522
93.472
-134.1
-115.95
26.536
95.451
-7.7522
-90.344
65.859
73.858
-126.28
33.58
-46.304
-32.659
134.85
65.616
-41.535
-66.093
29.891
-142.47
35.285
49.096
-64.527
112.78
98.565
-84.964
-45.35
116.8
-305.5
289.61
123.23
-79.338
-77.039
-30.454
13.311
-21.04
-54.723
48.972
-23.458
14.493
-77.128
-68.643
184.07
32.077
-99.819
46.857
61.993
-88.4
55.056
-72.121
108.27
100.32
-138.12
-22.086
6.9226
-30.738
-95.04
84.827
-13.584
-9.3639
43.446
-67.773
81.099
-82.872
22.714
50.81
21.697
53.2
-79.21
-41.277
96.806
-70.993
81.913
7.2451
-53.51
-14.429
-8.8877
-5.2631
10.495
-15.61
-26.777
28.813
-236.52
198.18
79.207
65.486
122.13
-122.6
-29.123
-55.701
-11.203
-3.6371
-8.1755
-12.343
19.289
12.703
18.176
-148.54
-29.04
163.32
124.26
-16.913
-26.409
-53.657
-103.24
-17.15
79.539
-71.269
36.033
78.246
20.999
28.024
-45.524
-48.859
-48.976
4.3295
41.825
104.28
-30.897
-49.388
-7.9522
-0.33212
-54.446
-8.8323
60.595
12.072
-75.025
90.954
-27.154
-4.4367
62.024
-56.276
-31.522
-4.4748
110.31
-66.832
-34.098
-2.0222
-15.871
-33.922
74.27
141.5
-94.004
-251.26
94.477
206.75
30.011
-81.913
-105.28
52.084
123.78
-184.21
-35.692
184.98
-88.235
33.307
-40.851
-57.696
40.572
-0.40054
95.435
8.7231
-1.7906
22.133
-78.488
20.318
-13.381
-199.82
214.49
239.16
-135.99
-90.843
-18.791
-35.923
34.613
-63.709
-200.34
245.97
112.79
-156.66
-71.504
119.22
20.917
-76.777
30.336
-42.081
-50.661
-61.85
34.792
80.066
121.45
-92.145
-135.13
68.798
187.55
-48.857
-121.4
24.727
122.42
-115.64
-31.011
-54.323
36.042
62.875
-22.288
32.219
17.41
31.637
102.18
-35.525
-124.26
-52.737
119.98
-28.505
109.54
-139.21
-174.25
198.37
94.954
1.4239
-87.087
84.208
9.3511
-80.623
53.477
-20.614
-108.75
8.3147
-17.409
76.504
-11.563
90.859
-17.362
-270.19
117.48
34.924
17.826
-3.5111
17.456
64.828
-32.692
-45.041
-4.0415
6.2676
-56.375
92.126
3.0752
6.0798
-58.525
-10.539
26.318
-12.498
151.71
61.195
-51.197
-90.784
-45.929
-13.153
-11.583
23.485
6.1927
51.496
23.627
-34.922
-104.94
30.846
32.378
-29.182
76.685
-70.645
-71.041
200.94
-43.947
-148.41
-13.152
47.923
-65.234
148.24
25.053
-86.716
95.808
-39.985
20.75
29.665
-103.33
8.5124
97.126
-130.74
33.994
-12.556
-62.361
12.248
-1.7388
71.023
-1.4915
66.092
13.517
-94.348
76.645
-17.385
-147.03
55.827
117.86
-1.4336
-40.478
-12.739
56.938
-63.231
-10.262
62.867
-84.041
-0.23562
-14.64
-23.678
-51.994
-79.472
6.7797
153.97
147.93
-164.07
-72.271
317.87
-34.254
-129.93
-13.342
-59.833
-55.477
9.5248
34.87
88.193
4.0783
-5.3513
-29.326
-54.693
22.858
40.28
-83.001
-25.213
146.8
111.68
19.819
-99.125
-84.657
-62.142
23.743
27.184
1.7352
-21.543
129.35
9.8056
-80.735
26.107
-143.9
11.47
112.37
25.852
-224.45
232.8
201.69
-169.51
-125.43
-12.569
78.384
-79.18
-5.4972
-34.877
0.030434
101.43
-72.852
-88.937
14.406
197.02
63.475
-66.455
-47.813
41.375
-88.925
-168.56
115.95
269.58
-36.383
-37.455
-54.272
-156.07
82.471
-10.187
-75.08
111.67
101.91
-121.41
-156.6
123.05
-4.5279
57.658
-135.54
120.98
28.22
69.329
-104.79
-38.155
72.89
60.869
-84.565
-56.782
9.9732
-2.1246
70.866
-61.113
-51.374
-117.14
256.71
234.24
-171.58
-113.89
-102.41
4.2299
37.22
121.57
-86.943
-73.614
181.52
-55.041
-20.979
-15.766
12.304
153.89
32.034
-122.06
-23.661
-71.418
40.04
-20.214
-15.479
33.683
-44.856
-4.8473
-60.875
44.559
40.118
15.931
52.678
-25.83
-100.24
63.794
99.981
-11.083
-61.373
-26.949
12.301
-77.381
84.918
30.996
20.353
55.429
-50.069
-109.27
24.399
232.79
107.03
-178.53
-150.06
-82.095
-0.01395
43.102
-7.9789
126.23
96.065
0.17357
-181.14
-105.34
86.035
-69.349
-28.951
84.182
42.579
12.615
20.572
-101.59
-129.65
56.893
147.88
-29.697
-6.8181
5.5278
41.163
47.58
-57.56
-10.059
-71.324
7.7809
18.185
88.202
-89.662
-155.19
401.88
112.81
-173.53
-181.58
-4.3037
147.88
-74.951
-218.28
127.52
143.46
-63.256
14.539
69.881
-13.83
11.284
-79.608
46.663
-114.98
-9.1769
213.63
-111.42
-4.3096
-206.13
51.918
205.12
-49.71
115.6
-134.92
-53.806
-76.577
59.544
32.719
-81.778
29.413
134.12
-34.805
-47.414
-98.07
72.102
184.44
-30.495
-82.822
-48.161
-31.29
-22.83
-112.24
214.13
98.154
-130.09
-53.037
76.812
36.065
-60.156
-20.236
5.8973
-38.732
113.96
-54.8
-70.596
106.94
-41.644
22.772
116.71
-155.06
-153.82
262.36
120.75
-80.431
-183.93
169.37
43.941
-81.131
-194.67
-12.223
174.26
90.686
10.061
-20.234
-49.44
-92.547
-76.044
92.09
31.812
-32.28
53.465
5.4544
-84.561
-47.614
33.12
8.0117
92.051
150.77
-198.36
-55.301
-20.173
36.019
21.325
5.0611
-34.811
39.529
-44.752
-33.585
62.292
-11.775
51.25
16.105
27.509
-1.1502
-37.051
-53.085
16.583
53.424
-17.999
3.287
-51.943
-75.798
72.061
82.143
-37.494
-54.375
118.83
-65.979
4.3542
32.146
-26.847
-27.057
36.555
-18.4
-48.671
34.824
-31.93
-5.5588
71.82
5.8797
-97.991
168.63
-61.081
-52.773
26.16
-13.521
-69.875
15.25
-15.337
-52.789
22.121
3.8104
53.574
5.4817
57.951
47.683
102.03
164.14
-142.76
-274.07
-11.859
0.2421
30.56
38.685
-112.55
67.406
330.36
127.1
-422.98
-227.25
89.403
22.287
29.751
60.126
-2.9156
-69.104
47.902
76.961
102.1
-71.753
-48.393
-47.68
-67.441
-110.21
-1.1585
158.55
89.264
19.687
-114.26
110.65
255.8
333.05
-138.97
-101.42
-274.54
-245.38
26.29
-3.5829
10.204
63.65
3.5127
-33.187
-23.708
33.619
66.173
15.188
-22.79
15.114
-48.09
2.7556
50.063
-4.0558
-4.0124
16.889
-15.972
-7.9534
31.444
22.727
-8.7337
-2.4808
-6.6052
-11.463
-14.784
-0.24283
27.772
18.219
-15.576
-15.158
-14.637
9.9891
9.1538
-3.8401
4.111
5.2661
-17.559
-29.201
16.762
21.011
-4.2897
-4.0634
36.671
2.7138
-7.5441
-0.57046
-0.33697
0.5764
-26.998
3.6358
15.118
-26.357
7.8336
40.866
21.646
-11.375
-11.831
1.6126
-20.923
-9.288
10.979
-3.9593
-20.967
-4.9402
10.064
0.92849
-4.459
37.788
-2.3825
-83.067
-19.739
8.4848
17.65
21.865
15.782
-0.77657
-26.468
-17.658
11.777
1.712
-10.549
15.218
23.182
-4.4536
4.4227
13.872
-3.1008
-13.076
19.771
43.952
1.0909
-20.056
-0.57569
-12.957
-21.243
9.2462
6.7238
-15.69
-0.050949
23.211
-1.9112
-7.9705
15.856
2.4697
-18.287
9.4059
5.2717
-14.489
8.0813
-8.0361
-12.59
12.135
1.8168
-20.441
0.0073563
10.792
-11.139
-21.262
9.2838
13.529
-6.838
-19.415
14.67
7.133
-2.0575
-16.018
53.891
-64.026
-107.35
61.024
101.25
79.7
-67.291
-5.0728
-36.324
-27.149
-44.963
-38.051
55.964
20.662
42.577
-48.848
35.806
51.304
-26.985
53.228
-37.125
-100.54
-46.351
17.669
290.13
-56.157
-176.26
-12.74
-89.909
193.65
62.765
-103.84
-11.014
22.182
-23.222
-32.768
1.9093
42.517
-19.174
-36.862
106.11
3.6746
-153.2
32.387
76.517
-97.668
53.458
239.72
8.9691
-304.64
-476.32
-3.913
81.411
379.48
226.87
-14.749
18.458
-5.7308
-45.153
-60.534
34.601
23.595
-34.968
-27.909
35.769
19.884
-23.935
-20.583
21.437
12.226
-22.704
5.2782
13.262
-11.178
-18.199
12.201
3.1866
-15.756
-1.0851
8.9214
-12.423
-14.727
7.2667
2.5889
-19.367
-3.4337
12.226
-8.0206
-24.281
5.3555
15.027
-19.152
-15.044
17.772
7.0234
-30.045
-3.1848
23.928
-13.611
-17.97
40.871
95.343
277.84
-41.376
-98.245
-312.5
-255.38
322.91
300.38
-193.43
-372.97
189.97
10.696
64.436
105.35
63.462
48.512
-59.965
57.619
41.542
-243.18
-52.032
-107.91
-155.95
73.616
111.66
60.34
56.461
50.492
-17.039
-30.703
43.662
-29.16
1.1446
29.328
-22.85
-4.983
44.454
-43.613
-19.729
-21.694
170.47
62.66
-41.26
-542.53
-18.674
404.05
-7.8665
22.723
-0.73276
124.53
-85.023
-37.698
-1.9822
79.784
124.97
-5.8429
-97.839
-112.32
-14.69
-6.0913
15.475
12.366
-116.17
5.3217
122.03
37.277
-118.99
-8.9452
-18.435
10.163
46.307
303.81
289.94
-250.57
-86.128
-310.75
1.9818
38.69
96.045
164.13
-34.623
-422.74
-197.6
167.55
322.94
-57.768
-116.03
157.61
174.38
47.251
-289.46
-163.95
106.05
84.561
320.24
29.748
-349.28
-53.131
-1.4224
25.173
95.003
42.713
125.78
-45.745
-237.94
22.923
-11.074
4.0248
22.612
-3.6804
-9.9553
28.395
-11.462
-9.9207
28.543
-14.964
-14.433
16.241
19.511
-21.275
0.84342
20.915
-0.31449
-25.27
4.8444
8.0093
-14.221
10.793
13.076
-13.377
-1.4048
18.223
-6.8021
-12.784
16.579
9.6551
-13.544
-6.4838
16.032
-1.1921
-11.969
8.6448
10.998
-16.367
-3.6767
27.032
-9.9242
48.167
61.03
-142.68
-160.45
96.561
188.95
23.03
-53.25
-46.734
5.4488
-16.936
-23.538
65.131
-60.991
-44.341
65.959
13.115
64.314
-109.81
20.307
29.775
-52.58
-15.144
115.25
-86.586
-33.17
24.355
113.33
-74.331
-29.484
-2.2583
-9.7461
-12.716
27.281
-9.8961
9.2152
5.7597
-17.002
8.8895
7.1735
-20.029
-33.013
-37.396
83.395
64.253
36.343
-59.19
-44.011
27.595
-12.124
-11.585
2.1881
6.3348
-9.9046
18.047
46.215
-34.032
-1.345
-10.515
-9.9705
1.3933
23.585
-5.5861
-23.821
0.53992
23.639
-6.5789
-11.672
4.8996
-1.2975
0.21507
4.6089
-1.7841
-4.3433
-5.417
1.802
-1.2828
-12.215
-4.0596
5.2215
0.63401
-0.88798
0.96588
4.5424
-1.5477
2.0934
7.159
-0.67245
0.016177
7.0433
2.3219
-9.5145
3.5847
-39.405
-20.881
7.596
-17.075
55.306
28.109
0.624
1.4498
-14.165
2.6553
4.3402
-3.428
0.48949
2.0189
-2.5656
-1.4797
4.5809
-5.1251
-0.2611
6.5009
2.3652
-5.7616
-2.2199
6.3798
1.6551
-9.3137
-4.2988
6.8961
1.9302
-3.9954
0.92628
4.6117
-2.1973
-6.7943
0.63719
4.9158
-2.4641
-5.1134
2.2556
3.2549
-4.6551
-4.0998
3.3816
0.12169
-4.6065
2.2209
6.1427
-3.5556
-2.9358
5.93
1.8447
-6.7135
-0.73159
6.0104
-1.0098
-6.0073
0.5912
4.8141
-3.5957
-3.5638
6.2333
1.4149
-5.1484
-0.1289
8.2854
-1.5261
-7.6556
3.896
4.2643
-4.9471
-4.7672
4.8107
2.1546
-7.0752
0.50708
8.8064
-3.6793
-4.6805
5.8951
4.9594
-8.2741
-3.4534
9.8951
0.97709
-10.198
0.69285
5.8615
-3.4028
-2.9526
6.1864
0.74493
-5.6426
4.4889
7.2107
-7.5063
-5.341
7.7165
3.7127
-8.8012
-0.38339
6.7675
-1.5593
-6.3732
3.4442
4.8354
-6.5856
0.29501
8.0029
-2.9953
-7.0101
4.3511
5.3049
-5.8544
-5.4015
5.6029
2.0071
-7.2993
-1.5455
6.7343
-5.0541
-5.5312
-8.439
25.157
33.006
-31.21
-81.444
21.921
165.84
-20.389
0.052116
-61.295
28.294
5.839
-29.742
-43.653
-25.022
34.575
28.007
-38.192
-37.335
-2.5738
-161.87
72.681
181.29
20.982
-7.3295
-0.36658
-6.9383
-63.253
-25.07
38.803
15.737
-43.255
-19.971
22.15
34.026
-7.607
-27.819
-18.356
-10.956
44.625
43.379
-37.975
-31.609
-9.4922
33.666
5.1633
-1.8447
-37.313
0.25779
-2.8009
2.6708
49.583
-104.24
116.85
33.37
-9.228
-36.009
-35.286
-0.80274
29.858
-20.979
-31.763
3.2384
50.522
11.933
-44.354
-9.2924
34.27
25.668
3.9404
-50.449
-22.303
6.7309
39.602
18.681
-11.21
-62.822
95.033
78.567
-6.536
-59.927
-22.01
-45.171
-14.269
30.302
13.717
-44.412
-8.5568
45.916
34.133
-61.136
-15.367
-22.053
14.608
113.8
-1.3836
-53.264
-6.9129
3.4663
-7.515
-0.84278
2.0655
-5.9221
2.6756
-6.8983
-2.2086
2.5709
-4.4638
-4.4226
-11.71
-53.871
-6.9031
110.32
20.023
-9.6459
-15.074
-4.9558
-43.602
8.8525
-11.52
45.099
8.9079
-63.157
19.788
18.964
-25.822
-54.66
24.165
63.133
-6.297
-34.45
-1.0316
16.132
9.629
-7.0513
-3.484
4.4733
29.22
-8.5206
-29.784
11.681
70.303
49.955
-196
-52.931
230.27
131.74
-126.72
-176.04
-7.2853
-34.87
162.54
36.946
-278.58
-19.976
76.464
153.67
50.354
-37.577
0.84101
-40.259
-23.814
89.131
134.54
-96.544
-61.111
-20.105
-16.119
27.793
-33.019
-12.344
86.264
237.43
31.089
-413.12
-44.433
73.422
1.9701
27.193
9.4893
-6.2463
10.604
4.4162
1.5574
6.5513
-28.03
61.468
87.121
-44.087
-199.82
53.743
118.2
5.1943
-1.8329
12.863
14.35
-43.663
7.0435
5.6778
38.102
8.6078
-96.607
-2.2123
21.916
-13.046
-15.872
43.234
-5.7027
-3.0335
-17.784
-8.0716
12.093
-16.087
-3.1002
8.993
-12.666
-2.2694
5.9717
-34.518
35.338
-9.8628
60.556
-65.097
-58.174
141.33
79.946
196.32
-401.19
-133.98
56.505
-76.631
186.12
25.08
32.611
-27.136
-11.256
-15.711
-34.47
54.942
40.523
1.0256
6.4334
27.938
-20.488
-3.667
-13.916
22.288
-1.4958
-27.604
8.802
18.502
-2.4952
-9.2464
-5.7791
3.4254
0.033008
-7.1291
9.8496
10.339
-15.921
-11.611
-0.57462
-3.872
-20.26
-12.95
5.2973
19.007
-5.0979
-14.528
3.925
-3.9405
-36.615
-8.8885
-7.4077
86.36
-83.238
160.66
-93.479
-14.87
164.46
-76.142
54.2
81.28
-84.266
-132.39
17.422
-53.301
-29.775
-5.2916
27.712
80.865
13.039
-62.283
93.841
15.634
-85.428
4.6905
100.22
116.33
-49.417
-142.5
-35.648
-22.865
-39.031
36.147
9.4686
-49.177
13.284
41.545
12.816
-40.575
-22.039
20.934
19.259
-25.326
-5.0149
8.3852
-4.1911
3.2701
15.724
-23.976
-3.9495
33.626
6.6624
-24.037
12.427
17.116
-28.006
25.008
19.712
-2.7729
-15.935
5.3037
13.9
-11.962
0.62318
26.562
-14.591
-2.4472
6.5771
-3.4237
-9.1962
8.6405
15.77
1.3792
-0.88571
-1.3278
2.0854
-3.343
-20.727
8.5887
5.4885
1.2782
16.845
-9.3414
-15.275
-2.7547
-5.2969
1.0321
-9.2761
5.2794
21.481
-1.5189
-6.1989
8.851
16.059
-1.0923
-20.614
0.78983
5.2384
-10.667
-15.377
16.299
22.295
-7.9823
-5.5399
2.1336
0.51489
-10.696
13.2
14.245
-10.325
-11.838
0.32322
-2.8372
-9.2146
-0.17394
-0.42428
0.35777
14.815
11.444
-3.9241
4.036
3.8646
-11.47
-12.633
-16.51
-32.65
47.475
11.203
2.902
5.3769
-1.131
-8.1498
0.54841
-3.7086
-7.9792
-4.6693
15.406
32.798
-4.7093
-20.912
-3.9134
-5.6808
-9.1595
0.24143
-1.9935
2.4209
10.423
3.7108
-0.13033
-12.472
-0.0075698
14.511
-20.165
-30.553
26.688
28.676
-25.441
-1.7811
29.158
-3.148
-11.595
10.108
3.7295
-18.674
-8.9707
4.5649
3.0707
-13.902
-1.9651
11.015
4.1709
0.32774
1.8551
-2.4326
-3.0718
2.0481
9.3681
-6.2823
-0.93051
-19.172
-19.248
106.14
181.82
-111.36
-107.6
-61.106
-60.705
-52.214
80.464
54.317
-31.716
81.136
96.209
-57.813
-51.984
-24.33
-13.204
-19.504
-4.1243
29.155
-4.2247
-28.305
0.64079
6.0814
3.1538
11.074
1.5702
-8.0492
10.245
10.662
-3.077
-12.206
5.0772
8.9545
-0.28252
-9.7126
-1.7724
14.39
-0.83415
-0.21669
-5.0795
-8.7588
-4.0618
11.183
8.8754
-7.152
-11.655
6.954
7.8174
-1.4408
-3.0335
-5.3928
-1.5023
-2.2968
17.152
3.5476
-8.6545
1.6697
4.5292
3.8755
-3.1274
3.1354
5.8352
-5.2311
-10.846
-1.3528
14.463
-4.7529
-10.166
5.1987
4.1609
0.41139
-2.9222
7.4062
3.9375
-12.074
-3.8578
-0.32146
-0.7522
3.2096
23.647
14.658
64.472
5.3623
-56.372
-30.82
76.396
-186.78
-148.67
195.99
24.519
82.001
11.579
-86.682
-99.773
34.791
-68.999
-47.792
-46.93
270.41
78.941
-41.774
-10.032
-26.638
-16.687
5.6357
-4.16
-21.016
2.8389
11.28
-0.16332
-14.386
9.9171
11.268
-10.54
-6.1449
15.189
-0.078416
-11.649
7.0704
10.162
-7.8147
-5.8337
10.931
3.2186
-11.999
3.2803
11.537
0.11854
-11.666
5.3883
4.8991
-6.6674
-0.0075062
11.746
-4.6708
-13.695
-13.675
