-0.072416
-31.409
-7.6546
5.8237
-21.307
6.0609
-1.2107
-19.896
-5.672
7.6826
4.0922
-42.029
85.023
31.368
-28.725
3.0383
-42.324
-23.132
11.741
-2.0447
36.525
-9.8776
-33.09
61.139
4.5802
-41.02
-16.665
16.065
7.3674
-0.32966
10.299
-38.161
44.249
70.77
-77.328
-42.848
-0.48716
14.302
-23.468
0.6793
29.672
41.509
10.99
2.9056
-54.047
-27.953
1.4542
-7.5911
0.9068
7.2636
3.7354
-5.3506
-3.0854
32.108
6.5526
-18.211
-2.8107
53.334
-51.241
-10.963
21.808
-33.783
-2.0789
-0.25898
15.462
25.301
-5.305
16.652
-0.068538
-34.261
-11.298
-22.67
34.886
60.615
-20.22
-52.757
-2.266
41.672
16.485
-45.265
60.53
36.072
-19.469
-26.945
-31.045
-20.156
-14.249
12.421
5.0649
47.062
44.713
-19.531
-24.798
-19.138
-9.0028
1.2668
-8.9129
-26.36
-3.4609
-35.583
28.789
41.995
8.8836
5.4335
10.495
56.534
-0.30445
-55.923
-23.071
16.409
1.1659
-11.936
-10.109
15.647
-12.486
-33.236
-3.6633
36.875
2.8498
-22.449
68.407
-1.5848
-62.897
-26.796
39.711
4.637
3.1722
-15.376
-7.0165
28.094
-15.161
0.82364
23.585
-23.296
-3.0643
-14.108
-2.2999
-8.667
-17.64
11.194
-23.065
30.331
59.856
17.959
44.669
-2.0768
-35.408
-75.111
7.3143
95.263
-30.108
-55.174
-51.567
15.939
35.45
-4.7883
-23.644
-16.448
32.745
-7.2821
-6.9631
29.843
8.7472
-30.154
19.937
9.9741
-22.286
-7.8499
9.5102
19.07
13.007
-18.77
-21.666
4.6345
3.0634
-2.8659
9.8943
-8.4572
-7.7306
6.3708
4.9297
25.913
17.931
-38.401
10.196
-4.869
3.2442
21.074
-42.866
-15.6
-2.4566
36.201
-7.328
-20.6
-17.137
29.136
23.851
-28.71
15.659
29.839
-1.5834
-6.3657
-1.0969
-9.6618
2.9814
5.6931
-10.526
-10.825
-15.261
11.337
6.9775
4.7609
57.184
14.119
13.082
-40.546
-3.67
44.697
-39.308
-28.764
19.337
-5.4316
-32.194
-49.859
-75.558
49.046
66.458
-100.2
19.571
29.282
-15.136
30.39
11.067
46.314
8.521
-70.186
-57.368
37.449
14.658
-1.4418
13.141
22.595
-0.26885
-17.235
2.0162
57.173
19.074
-96.152
-14.597
51.489
30.912
49.993
-49.74
-80.983
33.971
52.078
15.554
-14.454
-0.91002
1.7807
-9.9012
13.565
-4.1112
-10.127
-4.4037
-3.6682
6.7771
-3.6469
9.2446
51.839
6.7928
-9.7545
2.6468
-51.792
-11.703
-7.3194
-9.5476
-4.9489
32.906
25.064
8.5761
-17.443
-32.746
17.29
-14.214
2.2707
55.169
25.663
36.158
29.726
-57.775
-50.421
-12.058
1.2637
-26.939
-24.332
5.4673
-5.8721
-24.903
-1.8837
40.07
-49.87
-24.843
-15.691
-0.71917
41.458
88.401
-24.059
-31.386
-39.449
33.618
56.684
-41.162
-27.302
40.629
2.0834
-7.0868
-9.6321
21.255
21.412
23.708
11.81
-29.335
33.028
-27.178
-43.019
24.382
-13.747
-9.9977
15.344
-26.419
35.204
42.306
-67.411
39.368
57.379
-45.122
-36.649
-16.419
-4.6171
8.8481
-1.848
7.7195
6.0016
26.017
53.802
-72.845
-30.055
-7.5722
13.642
14.186
-26.207
8.1082
27.821
4.9076
-17.45
-2.7144
-11.206
5.4645
23.632
6.3928
0.77453
-0.34229
-3.4542
-6.6474
-2.242
7.5321
-18.559
-2.0345
-4.2277
47.998
30.863
-75.881
-35.237
52.011
44.323
-50.316
-34.259
15.588
-14.061
50.369
27.838
-65.396
33.865
-5.8982
-16.255
2.4234
17.931
22.137
-57.969
14.199
21.949
-48.771
8.4361
2.3119
-14.369
18.373
11.347
-18.96
30.978
15.352
-30.269
-6.6512
0.96301
-1.7808
13.271
4.9785
13.394
-7.3962
-5.1266
21.27
8.3056
-39.075
-11.992
4.6863
4.4965
0.28461
-6.3864
11.273
3.5108
8.488
8.5376
-24.815
20.922
-7.8788
-18.598
-3.9208
34.493
-7.3118
6.6612
-29.79
-32.151
38.539
-1.3486
2.5861
-20.818
24.058
12.944
-6.5887
-11.235
36.306
56.185
-76.269
-39.43
4.1046
30.254
-2.4325
-27.034
29.906
-3.582
-20.784
6.2564
49.521
-38.698
-5.2056
57.68
-21.922
-46.758
-24.526
17.93
27.983
9.716
7.7906
-12.627
-15.349
-9.1625
53.555
-15.141
-1.9839
-0.35035
13.486
-54.241
-33.747
89.897
-49.773
-2.7064
29.957
-28.657
12.708
-8.1817
-44.426
-5.6366
-13.93
50.307
81.031
9.3832
-29.02
8.2819
-19.924
12.065
-3.312
-7.4501
46.078
-89.993
-53.583
77.667
16.161
-13.003
-8.3883
9.6346
1.9978
-8.1575
-19.067
-3.9732
10.351
20.005
-4.7254
-24.678
-10.415
12.155
49.05
4.8137
21.304
12.442
-37.554
-49.737
-12.416
-3.5621
2.6092
32.401
25.823
-22.367
-44.049
-38.977
1.9515
64.691
40.344
-49.922
-41.801
20.979
65.043
-14.453
-48.065
-19.62
-2.4604
23.28
-2.6851
-11.136
59.165
10.305
-31.926
33.665
-1.1038
-47.807
-0.96943
21.24
-5.233
-35.119
42.586
37.413
-10.038
-30.236
-45.731
-9.3464
23.793
4.9686
12.443
27.715
15.64
11.01
-30.601
-26.976
12.446
-14.534
35.427
-2.7267
-29.05
18.483
13.191
-16.572
-4.132
-6.199
30.869
-23.325
-16.81
-4.3943
12.02
15.836
-19.196
9.7233
31.093
-6.4443
-21.736
4.9053
-12.739
10.704
16.54
-5.893
24.734
5.535
-35.916
-11.378
4.2041
6.3792
-1.7398
-7.8553
19.985
47.282
-15.943
-44.248
-14.069
-3.0887
4.2337
38.578
-6.884
-1.5391
43.203
18.735
-94.176
9.916
57.612
0.53722
-44.837
-5.0718
12.143
-21.301
-14.214
39.296
-18.384
-28.219
1.3733
36.338
5.1797
-29.181
-17.233
9.7265
-10.838
-37.975
28.454
79.761
38.091
30.034
-7.7939
-39.009
-32.439
37.74
44.708
43.576
-85.429
-56.473
-14.431
49.119
3.4698
-61.928
-13.368
-17.381
27.597
-37.053
23.103
12.003
10.486
3.8945
-19.068
17.548
-12.621
22.52
-26.401
-46.131
41.566
70.259
-33.137
-37.563
14.979
-1.9084
-14.681
30.742
-10.947
-13.026
-1.5468
8.4654
-0.45105
32.226
83.679
-56.162
-18.308
10.201
-41.529
-27.932
10.427
-1.2932
129.12
0.42872
-73.665
-30.787
-1.5019
-8.9924
-13.022
0.93658
1.2634
54.835
36.294
-47.675
-18.097
-28.111
-8.8883
9.9387
14.171
4.958
115.92
-31.995
-82.147
-2.0265
-15.118
29.899
46.065
-65.758
-24.117
19.595
-3.4192
10.668
16.051
-5.0759
-5.1465
8.4963
5.0191
-9.4698
0.73755
7.2266
5.1205
-5.6049
-2.7428
6.9417
5.2961
-7.6553
-2.6633
6.6776
0.24247
-9.3366
25.998
11.132
-28.701
-17.582
17.697
95.799
-50.878
-109.62
16.043
9.999
22.391
22.084
-2.6623
-16.619
-4.6865
35.765
27.208
-55.951
-17.319
38.536
-18.782
-13.404
-15.362
30.308
-5.1864
-9.1337
-19.293
17.332
33.048
19.173
-45.553
-28.812
-0.8232
3.6634
-0.98881
-4.021
12.539
22.33
33.342
-32.733
21.136
13.352
7.9881
1.0208
-58.148
53.666
-21.577
24.967
30.334
-54.618
-34.641
-18.804
10.479
-19.706
11.565
32.886
-21.091
10.347
23.177
-23.182
5.6893
76.615
7.7832
-34.154
-28.683
-23.301
19.664
-24.32
-40.031
-10.565
13.606
29.469
13.37
12.688
-36.395
6.4474
15.214
-14.783
10.153
-14.331
-39.698
87.398
-19.601
-22.608
0.4329
-20.136
1.8209
6.5811
2.5381
1.2006
23.615
-31.178
22.601
86.879
-44.522
-13.883
20.493
-7.0013
-47.035
-58.336
92.468
52.118
-60.109
-28.175
22.575
45.687
-51.978
12.923
-7.8867
-52.749
16.957
44.23
10.587
-2.0523
-9.6411
-22.955
15.721
24.633
-40.826
14.846
40.821
-20.046
-45.141
52.475
2.4189
7.1798
-29.936
-31.656
10.028
0.81496
-16.652
30.55
25.412
-32.889
-24.121
6.3643
-9.8844
13.946
5.5071
-8.9285
-2.7407
-15.774
82.897
21.515
-50.094
-22.189
3.5911
-20.392
81.512
34.062
-93.84
-18.902
-6.7389
-5.0963
38.46
1.6084
-39.288
18.517
68.907
-31.925
-5.5586
1.7933
-17.876
-20.995
-18.834
28.156
9.8739
18.486
33.963
-15.647
-21.717
-42.203
-5.999
80.371
54.873
-30.175
-64.683
-39.792
61.693
30.935
-55.558
-42.058
-14.829
67.038
-1.4253
29.26
32.611
-59.688
-0.46761
-20.264
-29.279
-18.826
25.105
51.691
22.149
-29.469
1.1834
-17.463
-40.489
9.9339
34.746
4.6835
-2.4548
-1.7687
-5.9176
-28.301
-47.938
87.958
45.572
7.1064
-5.0668
-16.75
33.949
32.867
-6.8536
-49.326
-35.601
-18.339
-1.9472
12.919
14.496
-35.21
-44.677
-1.2943
-4.0888
11.714
35.334
18.029
-31.456
3.4955
3.8906
4.5824
24.611
14.457
-38.125
-17.831
52.513
11.917
-25.442
-28.877
13.004
16.25
-8.1497
11.923
6.7002
1.7743
-6.467
-18.172
-3.4101
-14.742
-19.543
-27.469
1.4043
28.318
36.5
53.913
-5.4888
6.5382
-16.553
-28.703
-20.933
-27.05
119.67
-12.862
-39.582
-14.468
-26.051
-4.4582
13.554
12.657
13.965
34.938
-68.853
14.551
8.7725
-63.153
30.425
41.01
-10.916
-19.931
9.0103
23.125
29.484
-33.682
-33.421
18.042
0.73114
6.7744
-5.3707
-9.4801
8.6749
5.1158
-3.9673
-11.617
2.7256
12.006
4.9363
-20.059
-26.844
29.7
-2.3626
-25.381
42.614
52.034
-41.827
-50.54
47.556
2.1218
-35.814
0.14482
22.163
-0.15433
-11.815
-13.974
9.3911
-4.1987
-4.5362
14.008
9.5031
-5.1804
11.512
15.298
-15.659
-4.6816
0.23986
-15.198
8.6435
0.7989
2.4658
17.135
12.136
-16.697
-4.9517
16.38
14.356
-18.231
29.537
-0.74568
70.468
-0.96564
-62.628
56.181
-48.412
-61.431
-62.166
88.512
27.865
-47.727
-7.8801
-2.3864
2.6963
-3.8823
3.0894
-9.8031
-23.092
25.129
24.056
8.0786
-23.634
-6.9795
4.6461
39.599
30.295
-52.743
-28.453
13.58
3.2617
8.3607
4.0078
-26.126
-60.634
51.78
72.649
12.386
-40.798
-36.198
-14.471
-3.7399
-12.259
-8.9894
1.8259
8.6249
3.8526
-5.524
16.595
11.107
-3.0412
-16.876
7.6251
16.923
7.383
-16.516
4.6813
16.378
10.451
-18.799
-0.51773
19.775
13.692
-13.984
28.286
48.067
5.6221
-49.008
-34.859
16.268
43.781
-8.209
-44.793
-19.215
-8.1026
-15.23
53.979
49.133
-33.875
-31.24
-6.2678
13.521
-5.1057
16.09
-0.57286
-52.894
26.86
4.395
-30.91
28.205
-50.444
-32.647
32.14
39.435
-5.471
-11.033
6.2319
18.021
35.566
-12.662
42.038
-23.486
-2.1381
11.948
-41.858
-28.774
-19.389
7.9796
3.0661
-1.1889
1.2293
10.307
-20.16
-31.474
20.735
84.422
25.489
-60.526
-32.462
-6.9003
19.063
21.043
42.117
-12.898
-40.246
-4.0755
6.7517
-4.9839
-0.81366
15.165
-5.2254
-27.2
32.642
27.659
-35.994
-21.302
40.963
13.78
-28.158
0.63251
-10.093
-10.124
29.419
40.459
16.675
-43.238
-52.449
-9.9705
12.297
32.459
7.4779
-33.588
19.831
-1.5565
16.425
4.4962
-25.622
-43.689
21.185
1.8693
9.1264
61.677
-26.506
-86.55
16.995
52.991
26.338
-1.9514
15.148
9.1331
-36.616
-33.108
25.788
-3.6873
2.735
16.439
-3.5254
-10.088
65.858
-29.614
-48.833
-30.239
-4.9465
-3.2085
3.8929
68.393
38.777
-11.466
31.094
-51.074
-17.774
-41.195
-31.953
-46.278
51.331
78.679
57.445
0.050134
-65.237
-42.707
-10.007
15.412
-47.373
25.438
26.727
8.9471
18.853
30.707
48.49
-58.551
-1.6514
-36.354
8.4534
15.434
-26.936
-18.638
-19.859
6.0072
61.342
2.8423
-38.043
12.776
-27.708
27.577
47.632
-9.7965
-24.473
-61.844
6.1088
-19.039
-10.403
106.46
-18.163
-46.119
-1.351
22.407
-44.097
37.405
43.294
-36.519
-18.546
-12.447
34.989
-44.524
-1.3931
118.54
20.31
-82.564
-20.013
16.629
-15.351
-3.2269
28.319
9.0093
-16.993
-4.3089
-27.939
10.088
-11.283
103.38
21.512
-77.582
-29.165
-42.066
58.68
6.0098
-32.213
13.825
2.4028
3.348
-34.749
-1.5054
28.321
47.935
55.045
-24.438
-1.8928
-72.753
-36.211
24.752
30
21.248
-25.638
12.161
37.109
-56.264
-29.678
32.404
-5.7881
-24.967
-11.388
10.529
41.162
26.862
-10.105
-13.258
5.1164
-7.8654
-25.164
-9.4314
12.65
21.056
0.85024
-11.216
-12.337
-21.839
-23.973
38.95
13.913
-0.23388
17.419
-11.675
-51.265
-28.869
6.4286
22.938
23.965
30.969
-9.4582
-35.804
-7.482
17.449
23.984
9.4842
-20.018
-16.604
34.825
-25.414
-17.038
8.9226
33.663
11.902
-8.3749
-1.3876
16.869
9.1916
-87.119
-65.452
-15.381
35.972
47.205
39.959
36.192
16.707
4.4502
9.1855
0.96113
32.002
32.716
-34.018
-34.587
-6.3854
12.242
30.245
-1.723
-23.172
-25.642
-18.45
-33.399
5.5455
-75.295
-96.535
162.93
110.74
126.08
91.331
-279.01
-79.317
-43.495
-2.7591
20.176
29.119
113.3
6.0047
15.055
30.734
-51.809
14.411
-213.26
-225.7
153.94
102.41
-33.415
50.94
-31.734
66.951
51.512
-1.4665
7.5176
-2.5853
123.09
-14.743
-121.56
9.8914
-46.864
-20.769
47.345
16.716
-24.305
52.788
-75.186
-45.614
151.22
-79.932
-22.075
34.081
-15.081
-9.1158
44.878
-18.927
-155.14
74.09
12.495
-24.118
140.76
170.59
46.384
-167.22
-59.725
135.99
-77.217
-247.69
0.71679
4.8799
144.27
77.428
-99.028
-86.234
-74.911
30.831
61.69
65.4
58.229
4.6049
-55.832
46.878
73.509
-49.134
-121.52
19.593
147.33
-162.03
-14.759
-13.495
52.494
116.93
280.49
-51.152
-274.01
-4.697
20.785
-17.175
-38.435
-8.7178
21.216
-12.834
20.665
40.569
-2.7601
-12.185
-15.303
-1.5508
-14.165
-32.352
-5.9225
-0.12792
-1.1324
-12.146
-4.7606
9.3472
8.1437
2.2242
0.60221
18.397
31.806
13.606
-6.4274
-29.585
22.891
13.635
-35.403
-10.641
18.896
-7.5026
6.0325
-5.7354
-29.9
3.2914
14.739
31.495
-14.39
-16.9
1.6956
2.4285
6.9917
-2.3232
-10.091
-8.8608
-0.92205
-16.516
17.414
14.3
5.3748
24.277
-3.0945
13.866
23.306
-9.1769
11.16
2.2246
-42.461
-7.5686
-43.269
-11.996
61.536
36.312
-59.777
-69.306
18.821
-21.768
10.406
68.483
2.9143
-23.729
1.2018
15.077
56.798
-39.317
-53.082
68.189
39.763
16.974
-56.178
-53.496
47.84
-4.4189
-37.319
-26.403
-20.896
70.932
42.933
-51.978
-28.298
-3.7783
20.319
-27.509
45.041
18.565
-17.935
-28.41
29.577
22.152
-44.823
32.089
-12.85
110.82
22.91
-121.56
-14.486
-24.187
5.7106
50.799
20.477
-13.837
5.5041
2.8025
6.025
54.683
-7.5878
-47.686
-32.006
-26.169
2.913
9.3039
2.4764
-10.181
7.2032
9.2303
-4.6651
-12.46
0.56069
13.711
31.102
-15.563
-18.883
41.13
21.99
-42.162
-6.5543
17.465
-13.493
-16.314
-32.164
58.413
8.8269
33.556
17.02
-61.191
-64.137
2.8904
0.40951
31.564
5.7037
-39.435
2.2845
14.085
-15.143
8.0799
19.301
24.596
-4.8177
-24.495
-3.0691
26.812
14.622
-34.113
-0.25525
9.5492
-8.0501
-26.325
8.9179
2.3954
-17.566
16.339
43.173
49.679
-9.681
-72.864
-12.473
12.056
5.562
-27.916
81.39
9.4638
-60.296
-8.9915
-32.252
11.123
12.714
-7.2049
-11.404
14.406
22.056
54.05
-47.292
-14.51
20.071
-31.976
-18.371
23.439
76.441
-10.195
-68.762
28.488
10.458
-28.445
-40.4
24.703
54.121
-8.3196
-29.673
3.4197
1.4428
6.0581
-1.3336
-2.82
-9.0567
-5.7746
5.1076
8.7852
5.2368
3.2083
-0.06989
-14.725
-10.274
59.159
14.782
-34.764
-20.969
-11.669
8.8541
10.919
0.0011645
9.0131
-11.155
-14.304
-5.7632
-2.1765
8.1207
-0.89569
-12.372
-9.1639
39.802
27.956
-35.502
-17.784
31.055
28.724
-32.808
-22.953
55.053
17.768
-41.47
-15.695
-29.085
-8.0177
-23.371
41.452
17.979
-28.406
-8.5847
-12.346
25.973
47.657
6.2482
0.085702
-4.4711
-20.105
-13.697
7.6535
7.0829
42.968
-6.8003
-41.251
-12.104
8.3535
5.0915
16.658
-0.6864
-19.895
42.635
-4.92
-34.8
34.548
-29.739
-12.975
-3.2852
11.247
-17.494
-1.3509
-5.1657
5.0249
24.871
31.327
19.786
-64.53
-15.31
5.2083
-10.606
2.6229
3.9584
0.19513
-22.819
43.163
27.944
-37.372
-6.5655
-8.3003
3.5022
7.9771
-4.3106
9.1578
28.814
-10.745
-20.322
-7.302
0.85663
-7.1981
-1.0403
6.1136
6.8345
0.17942
61.766
0.29204
-68.698
42.271
-17.192
-33.736
-8.485
16.65
9.5092
18.971
31.824
-21.944
-39.753
3.534
-17.727
-0.82419
11.16
22.295
-6.0387
18.218
33.539
-37.896
-29.872
3.7419
19.302
-2.6577
51.425
-17.063
-23.884
31.446
-70.366
-42.858
75.68
2.6948
5.2881
40.167
-29.486
8.1474
-11.376
-29.716
-7.4759
-1.9245
13.19
-19.259
15.992
31.571
39.691
-15.884
-24.54
-28.328
-28.231
43.405
-16.493
10.086
20.756
-21.551
32.807
-7.7857
-16.51
-46.384
1.205
-3.3385
47.479
-1.7215
-52.052
-3.44
46.099
33.556
-36.531
-20.837
4.0682
3.2579
-15.338
40.664
55.381
-21.29
-54.318
-0.59104
34.442
-43.283
-19.142
9.2741
34.181
1.0635
-16.117
4.8811
-7.0859
1.4827
-2.8888
15.628
44.318
-19.547
-20.697
-24.149
3.2543
11.991
16.922
-2.716
-6.7847
7.4088
-12.206
-12.738
-12.779
13.118
43.821
23.821
-12.959
-33.408
6.4143
34.032
12.247
-29.392
-38.163
-13.459
12.772
20.139
-0.47907
-10.938
-2.0396
-1.0019
-15.06
25.153
35.081
-21.403
-22.659
-10.213
1.9088
10.176
13.106
41.211
-25.405
-36.651
13.889
-6.4558
-2.3493
0.14421
49.235
-30.981
-18.752
-8.0432
-9.8251
26.484
38.234
4.643
-52.769
-15.043
6.6673
-8.9168
36.905
-6.4272
-25.77
-23.069
2.5283
14.33
1.5393
9.893
14.207
-3.335
0.47787
19.186
-3.343
-8.8242
-2.1093
-1.3976
17.31
-2.841
-24.316
1.4524
4.2761
-4.3394
2.1432
16.468
11.038
-7.9972
-9.8865
33.305
0.50307
-31.069
-14.704
-0.69354
5.7266
30.194
-3.3282
-36.965
0.71064
2.5743
9.4815
36.152
4.849
-10.122
-6.3656
-16.274
-12.336
-6.5626
8.0097
2.6871
0.23675
-6.9581
3.3844
5.3118
0.35154
-7.7749
1.9518
4.7821
-2.8962
-21.683
-72.775
49.624
89.697
95.217
-6.3849
-109.04
-60.077
23.255
6.6759
-24.14
22.032
-38.198
0.05044
8.7401
26.645
41.831
16.349
2.3963
-34.252
-31.385
-14.402
6.5333
3.5521
-3.4291
19.322
10.581
-9.1942
5.1676
-0.8664
5.48
12.545
6.2055
-14.511
-1.4078
0.53532
-0.80938
-12.393
6.7598
-0.57159
5.0608
19.895
-7.4433
38.816
17.272
-17.601
-51.451
-12.307
27.737
-13.957
-65.799
0.25758
56.848
16.614
-2.9994
-31.085
-18.657
39.927
18.705
-52.981
-17.529
14.459
11.826
-39.841
21.48
43.59
48.53
-55.567
-51.158
-6.8429
13.165
17.549
-26.254
1.0347
28.469
40.031
-3.4446
-12.632
7.9846
-3.8819
-10.526
3.5274
8.9561
13.05
-3.5918
-7.1348
51.633
-22.793
2.9966
75.274
-53.171
-67.841
-15.314
19.082
49.62
14.172
-36.265
5.7065
-29.651
44.999
-44.312
-14.309
8.3157
-22.603
18.196
10.236
-34.226
-5.197
23.431
-2.94
-1.5182
26.447
9.1029
4.5567
-2.8021
-20.92
-14.173
70.719
33.418
-23.259
-46.49
-43.009
24.841
-22.452
-14.624
38.645
2.0643
-21.516
-1.6384
48.088
3.1222
-30.224
13.986
-17.668
4.3515
74.98
-55.387
-39.882
37.156
-5.7429
-4.6857
-2.7518
-15.893
32.375
-36.314
28.954
16.732
-29.274
5.8183
5.2159
9.482
-24.904
-20.138
-7.7209
-1.0758
-14.303
19.668
28.332
-2.9063
-5.1736
0.73871
23.562
-12.886
-9.6879
23.042
33.028
-16.867
-63.906
-9.5872
13.573
-1.2387
2.6383
8.635
33.192
-17.661
-24.955
8.2368
13.021
-10.31
22.925
0.46228
-7.2067
43.11
-50.417
-12.24
28.823
73.257
-43.445
-28.213
-23.924
12.518
-8.7051
4.0192
4.2656
-3.4961
-0.66627
8.958
4.2246
-12.619
1.0641
11.391
10.532
28.802
26.832
-52.904
54.88
-20.511
-84.769
-28.499
22.274
19.922
18.919
24.937
-13.072
-25.916
10.88
30.411
-23.484
-10.08
15.421
-20.25
3.2351
-6.2721
2.916
30.865
-0.61504
-7.9102
0.64377
-7.8328
-25.631
-29.653
44.8
34.855
6.6342
-3.0461
7.4218
8.0602
-3.9366
-6.8736
-28.594
-10.47
34.645
-7.4448
-6.1037
-32.21
-24.25
10.531
5.3095
1.6089
20.536
20.009
5.0006
-30.007
-25.93
5.5588
-32.828
-13.699
13.701
1.8398
-1.4748
13.09
17.476
-1.1067
-5.7825
12.729
-5.0832
36.512
78.267
-56.922
-14.6
-28.673
-14.373
-2.3029
-2.2622
10.115
49.312
5.8563
-11.972
-50.025
-12.685
3.8322
27.127
78.349
-22.59
-28.441
-4.0111
-38.456
-9.2472
79.6
-24.189
14.504
8.3197
-57.324
-52.542
-55.514
8.0539
74.701
96.099
2.6118
-57.256
-17.448
-0.49785
4.7217
-11.171
37.881
-25.377
9.5987
-3.7321
-9.7401
-3.3925
62.95
46.911
-39.539
-45.137
-28.475
26.451
44.093
-1.0962
-13.78
-60.138
11.862
-31.231
-18.559
38.829
-9.3544
-2.1769
-2.6726
38.247
7.8872
-3.3124
-6.5179
3.1508
-14.773
42.406
2.7559
6.7842
3.2938
-26.147
-13.725
-31.118
-36.467
15.631
25.519
16.393
32.395
18.695
-35.75
-21.45
-14.633
9.3809
9.5815
-27.104
18.845
33.931
-14.353
-7.5967
11.179
21.356
-9.5248
-10.946
41.92
1.711
-1.6978
9.0963
-67.647
-15.036
-32.035
13.412
18.772
-1.8809
-2.6157
42.519
61.858
-10.288
-33.452
-31.92
-33.988
-1.1614
27.576
3.8646
11.5
-3.0609
16.552
-6.6398
-9.9766
15.779
18.6
-65.701
6.8838
46.836
5.2559
-21.708
-52.65
-17.247
29.204
16.877
-36.204
7.1087
4.8938
-7.3326
18.726
8.7161
-16.407
-2.1141
8.0202
25.961
-7.3143
-11.18
9.4665
1.9495
2.7273
-3.835
30.544
-0.94956
-22.915
-14.75
8.9798
11.618
-7.4593
-13.569
8.1912
2.294
16.439
28.15
-19.983
11.432
17.767
-30.167
-32.963
-4.1871
4.3491
9.7045
8.0122
76.874
31.443
-70.122
-34.643
-15.781
1.2703
44.868
-24.029
-30.029
21.775
-2.2618
-20.794
-61.064
-2.948
53.503
68.545
64.074
-6.011
-27.766
-59.803
-28.576
6.0608
27.539
-7.4202
13.593
24.23
-74.084
-62.956
59.294
10.08
-3.6171
5.3144
31.281
46.442
-23.304
-57.823
-27.843
18.692
37.999
7.1123
-26.896
-25.243
14.258
-6.2818
14.418
-0.17825
6.8579
2.9709
-4.4966
10.053
11.952
-9.731
-9.6514
8.0481
0.57148
-0.22144
2.3278
44.061
-7.6279
-15.566
-21.697
-8.4797
35.415
9.6083
9.141
-18.943
-31.64
-5.0996
-11.168
-5.4337
17.085
0.48759
2.8685
40.392
-33.79
1.9419
8.2012
-45.77
-11.576
-1.5237
35.73
23.049
-5.1862
-19.706
34.314
35.977
14.526
-84.357
-16.95
-0.076178
-21.523
35.823
55.525
-17.048
-12.761
0.91121
-10.746
27.946
-6.4864
-29.76
-11.896
50.703
5.7655
-29.361
-30.214
30.454
29.623
-21.813
-13.899
-28.873
11.778
13.84
-27.273
-11.975
18.218
59.314
11.515
-9.2875
-16.49
-35.242
2.0236
-4.4266
5.5378
7.8963
-9.5765
-1.2932
15.503
-8.8677
1.3582
-0.95635
-17.741
-1.948
17.088
22.217
19.798
-19.956
-22.013
9.4722
13.678
-17.453
-5.977
30.448
12.959
-6.6138
8.6322
-27.027
-11.521
4.4186
6.3451
5.3986
23.192
-7.3467
-10.375
25.508
-20.188
-35.533
1.7904
13.651
-39.864
-6.0533
35.691
-0.72024
-4.7178
36.655
47.56
-35.541
-41.766
5.813
30.208
-22.967
-2.2707
-16.096
3.7545
-5.7716
-1.2082
12.559
-13.276
36.063
-19.866
-21.009
6.3779
-9.0529
16.315
32.361
3.092
-34.323
-20.321
33.587
-14.552
-4.0007
-25.48
11.902
35.587
-5.1045
-25.431
1.4019
-0.3194
20.987
32.527
-36.057
-46.522
34.337
11.468
33.986
7.0314
-51.038
-14.114
14.603
0.68749
-9.3495
34.77
0.38137
-3.908
33.952
-38.287
-23.307
-7.9505
2.0275
19.698
23.478
-26.065
-9.8384
-0.72617
19.451
-3.8989
5.2818
35.781
-26.646
-29.538
20.654
50.35
1.5792
-45.797
-18.522
17.71
53.916
-42.13
-33.925
-8.3562
-2.8293
2.4051
43.435
1.3012
-10.752
-23.908
11.095
-20.817
-23.18
-0.66601
25.852
5.6595
18.624
-0.95038
-11.326
-17.945
-7.9134
28.612
-3.5481
27.258
36.56
-42.882
-15.239
13.21
-15.44
2.8675
18.771
-18.171
27.72
-13.562
-26.912
10.094
4.3001
-10.772
-4.2321
14.633
11.505
15.094
-18.426
-26.092
-2.0479
20.493
21.877
35.391
-15.06
9.4034
-2.7588
-70.937
-16.125
3.7095
1.3118
19.599
66.3
-14.206
-30.891
-21.962
25.303
6.2316
-23.397
-3.3248
-4.2139
-3.4629
-23.779
66.836
-9.5987
-42.343
0.26942
-6.8576
8.577
10.476
-9.3936
39.511
4.8406
-50.529
-2.2572
-6.7216
13.977
-21.376
-2.9404
29.985
-3.5135
5.0581
5.4003
5.3324
1.268
1.0707
-5.5802
-84.478
20.061
74.79
-2.9522
12.8
9.8957
22.942
-8.5601
-10.022
1.4788
7.0053
-6.0029
-11.364
1.134
13.025
13.316
11.733
12.364
-14.94
-14.481
-15.706
-23.325
-12.136
-10.795
8.8185
12.68
-0.67348
0.89677
0.76518
-2.0149
-6.5207
-4.5066
-7.7987
-0.29128
8.9904
8.0493
9.934
2.457
-14.247
-8.0728
-11.243
13.117
-3.3721
1.9416
1.5114
-12.298
1.2655
16.093
24.364
-18.581
-20.95
10.288
10.786
-1.668
-6.7862
37.945
25.608
-88.441
-43.241
-1.0305
8.9046
-2.6804
42.473
-0.4232
-36.36
12.991
-14.909
38.362
37.533
10.863
-10.143
-50.231
11.68
16.802
17.214
0.64942
-15.748
9.9683
16.67
-0.13654
21.996
26.933
-67.689
-3.3307
6.7092
28.933
-10.005
-32.979
-10.6
-9.6353
32.104
15.092
-5.1142
1.0723
8.6921
-23.469
-9.1441
-9.0979
-9.0087
15.832
14.294
18.759
-24.922
-32.415
8.2379
25.126
33.026
22.413
-14.877
-53.395
4.6687
43.25
-24.074
-31.316
10.656
26.441
-3.2417
-23.194
31.106
27.469
-6.5377
-10.412
-13.297
-5.4072
-22.74
25.674
14.882
-15.339
-13.139
18.874
23.277
-10.522
-15.039
3.5874
16.332
22.108
-6.5475
-30.038
-12.467
-22.501
-11.6
5.9609
-2.2624
47.275
73.418
-54.849
-53.922
-30.39
-5.0194
-4.5665
39.418
8.5692
26.777
-5.9576
-22.486
-12.205
8.1084
-9.9415
15.45
35.596
-10.159
30
-43.629
-38.185
-24.201
47.06
-11.213
26.478
23.491
-25.687
-2.7268
2.241
-26.772
8.9776
-10.913
15.501
21.498
-7.7547
1.7004
47.976
-18.956
-36.106
-24.697
-4.0894
3.1031
-9.5569
-10.675
31.006
19.823
7.7293
1.8236
1.7814
-20.285
9.7074
52.495
-14.476
-59.57
71.322
9.3805
-32.046
-52.841
-12.482
24.879
16.007
-5.7932
-20.215
-17.743
6.6755
4.0076
17.956
-11.499
-4.9867
12.756
12.41
2.0135
-0.13535
-7.027
33.771
-13.364
-27.008
26.455
10.622
41.422
-25.278
-58.074
-7.2875
77.615
-48.331
13.521
25.707
-65.558
-14.869
-3.3792
21.566
10.194
14.377
-25.823
-0.6857
3.4259
24.668
-4.3733
-14.163
14.202
11.204
7.8012
-15.72
21.18
11.356
0.65583
-33.604
10.532
-17.755
0.91882
6.9313
-56.066
52.504
87.236
-65.18
-32.873
9.6613
-36.128
-8.8187
-20.063
19.687
52.942
-4.4874
-19.002
-19.121
-3.4009
31.203
35.245
-17.248
-4.9004
1.7653
-3.1932
29.567
-42.509
-0.99114
-19.091
1.5627
-12.818
8.7803
2.4873
26.784
39.334
-39.968
-14.076
37.015
-8.4386
-33.591
0.73735
-5.1348
-21.071
15.663
-11.37
10.209
44.359
-18.015
-14.995
-15.899
-22.513
22.231
43.589
7.8917
-28.928
-0.7495
5.7121
3.6868
2.3561
-6.0726
16.465
-9.6896
20.461
-5.1403
-4.7658
-5.8635
12.647
-2.7403
-33.41
-10.721
37.605
46.511
-19.815
-32.78
1.0012
-6.8283
3.467
-1.0547
36.596
-0.3537
-48.088
16.826
5.6678
-5.1195
30.434
-11.281
-42.171
27.931
20.76
-11.685
-11.798
39.694
-6.79
-43.709
2.3037
-14.931
11.141
-9.3271
-6.4211
-0.29345
-16.78
-3.7534
28.415
2.9809
-37.189
13.782
24.814
-2.0671
21.388
39.481
-29.478
-36.393
-25.012
12.499
18.148
9.9295
-5.72
30.253
-3.6798
-6.1183
-5.4375
1.2057
15.017
19.973
2.2035
-31.618
-14.111
-10.317
-7.6336
7.1747
8.4046
0.65682
10.925
-18.688
7.8996
25.672
-8.7853
-15.512
19.662
40.979
3.8539
-36.597
-33.934
18.902
-4.5652
-22.95
15.618
-7.8249
-31.054
20.789
24.762
-9.8896
-20.337
-15.996
1.047
38.17
8.9114
-32.826
0.41512
3.8058
-4.8255
-6.7924
-4.3135
17.666
-0.16109
25.013
71.301
-30.464
-71.317
-0.30455
-8.1148
16.991
-5.9902
13.775
32.761
-12.161
23.152
-36.75
-7.7436
-2.3946
-0.153
-11.975
-18.143
19.173
58.254
11.094
-30.239
-11.044
-0.11337
0.75432
-42.034
22.64
39.067
-18.229
-15.055
-23.529
9.7126
45.576
-15.57
-11.504
1.6278
-23.86
-3.7314
4.624
-0.44293
25.307
16.386
47.691
-46.473
-30.722
48.505
17.781
-40.346
-37.688
-7.3337
0.59444
37.239
7.5647
22.05
15.294
-18.041
-4.9
-23.1
-56.875
4.8014
13.776
37.784
9.7055
-42.052
-6.5539
34.711
11.542
-44.268
38.15
11.32
-30.278
-35.146
-1.9313
20.257
-1.488
20.988
60.988
-26.725
-33.823
-15.401
40.634
26.709
-28.387
-40.164
-21.331
-1.1062
9.3871
14.746
10.505
-7.248
-4.2634
0.24842
20.72
12.329
-1.3192
7.3152
-2.3013
49.458
-8.8429
-35.265
-6.9343
-19.4
-4.1379
-3.4405
21.929
13.435
-7.2442
-10.345
-13.64
-7.3883
4.372
-5.979
-2.2525
29.314
4.2875
-30.04
-4.1728
67.011
44.013
-39.636
-39.164
-22.291
0.51932
-17.305
1.481
20.913
8.4517
5.4868
-14.53
-2.6851
-11.658
16.353
9.206
-10.957
-17.885
4.8055
47.372
20.685
-34.21
-15.377
-10.621
16.66
8.9153
-20.904
5.7808
0.075179
4.5382
14.739
-24.579
-21.855
12.111
28.279
-0.35097
-12.138
1.028
-1.9753
-6.5928
-3.9753
2.4831
-0.64426
8.7792
-0.12289
6.1996
-10.709
-0.14511
-7.3044
11.332
24.515
19.668
-25.806
-15.796
14.941
20.686
7.8819
-30.732
-26.097
37.153
6.5267
-33.938
-12.775
46.112
21.354
-23.998
-34.312
3.0482
11.583
-4.2397
14.938
-24.044
-31.555
30.285
18.021
-4.6638
-16.526
5.3736
13.352
-7.1344
2.738
-27.749
46.168
-28.239
-32.273
4.7226
1.6974
26.588
0.54267
8.3556
9.218
-19.822
-17.942
7.7639
-1.521
37.489
3.2027
-54.321
10.831
11.595
3.2658
-19.95
-12.59
-0.46733
-24.886
30.165
44.832
22.669
-28.915
-51.684
0.92506
31.517
-7.8612
-11.543
22.566
-26.344
11.276
-13.635
45.493
21.415
-18.622
-4.6468
11.195
13.044
-22.534
-44.169
81.535
25.42
-34.804
11.907
-14.206
9.6346
13.978
-4.1287
11.74
10.893
-2.4976
-14.337
-27.19
-0.70085
-30.72
-42.074
-13.581
9.7733
14.765
21.226
17.772
16.834
-9.4694
-14.819
-9.0195
19.39
-32.434
-21.47
26.866
10.669
18.732
-4.5806
18.605
-22.785
13.643
-4.765
-7.0158
31.595
-42.846
-8.3126
34.426
28.058
12.922
-27.362
-62.199
-1.3261
-15.355
12.193
31.268
27.327
23.781
-41.838
-6.9689
-17.547
10.145
70.23
42.364
-45.396
-20.391
25.836
-33.967
21.658
-37.349
-69.403
36.423
26.764
9.4515
-6.0755
-8.8838
12.536
32.672
-46.462
3.5185
151.53
-102.52
-84.129
30.801
-54.263
-24.897
37.82
-73.551
-2.0008
49.652
-24.15
15.147
-16.399
109.09
36.712
-79.417
31.846
7.5623
0.35309
-14.645
-0.050786
8.6361
-7.8521
7.2148
-6.7366
-0.64931
3.0383
-8.4093
1.4315
-11.392
1.5463
-12.372
13.194
-9.1924
17.853
173.68
-101.55
-89.182
-54.798
3.5208
45.336
10.462
0.37039
-9.0675
-4.0772
-8.3258
4.0138
1.7639
-0.35358
10.437
7.115
-9.7866
-1.9719
4.0221
-13.048
-10.126
-38.724
-20.308
45.46
13.489
8.8933
42.19
34.509
60.483
5.8651
-52.499
-19.015
-32.911
-23.081
71.307
12.144
29.105
-22.514
-74.727
-65.898
43.625
60.599
-23.486
-8.5102
26.429
71.367
-61.068
-64.3
-44.708
43.485
24.151
21.49
36.262
0.71387
2.2697
-23.016
2.727
83.561
-94.189
-141.55
27.931
24.863
33.067
-2.6585
102.24
-123.3
-147.7
84.016
87.375
119.42
26.118
-215.24
-23.299
43.766
1.14
45.115
2.1024
24.378
31.804
60.037
37.291
37.037
-34.433
-9.8271
-45.815
-34.102
-83.563
41.26
86.119
-106.92
1.7115
-31.426
-0.010977
76.102
182.41
-182.71
-98.474
128.47
-3.3107
-32.374
-28.279
-23.072
0.57414
35.772
-6.5932
15.534
-56.59
5.4692
21.684
62.023
-0.52542
-53.527
15.989
46.381
-28.356
-12.499
21.474
6.5545
-41.907
-33.391
-41.051
67.354
37.051
-51.17
2.5967
15.445
7.6069
-19.845
9.3936
37.806
13.956
-3.1928
-66.845
0.061793
10.161
-13.45
9.7523
-8.8765
6.7136
-11.693
-4.2585
88.875
-18.457
-28.042
19.251
-10.404
-14.022
-29.205
-3.8984
36.23
-5.4474
-27.542
-19.204
19.088
13.395
11.857
19.679
1.6067
-1.5465
-17.617
44.576
2.6306
-23.911
-14.794
-1.0134
2.5964
-12.108
-1.1813
6.5234
29.081
-3.5911
-25.161
27.822
32.494
-35.628
13.603
44.773
-51.451
-59.438
2.8989
1.5093
-14.835
-8.4865
44.464
-3.268
-9.5692
15.576
23.044
-2.0974
-24.116
12.333
9.6725
2.2173
-7.5307
0.91659
17.358
-6.2389
1.2918
2.8257
9.1637
-23.313
16.988
16.161
-18.094
9.0363
52.292
-17.592
-70.102
19.046
-8.6937
51.636
8.0514
-59.796
-45.794
-1.1518
16.123
38.053
-8.0925
25.648
-18.477
-44.054
8.7948
-18.615
-22.8
51.86
25.021
-27.268
0.94652
-0.84095
3.7155
11.808
28.768
-23.278
-22.059
-7.0973
21.831
24.582
-23.63
-23.229
31.476
-15.766
-7.8811
19.647
5.3104
-0.32211
-21.099
-38.449
20.168
-5.6697
-21.114
42.272
9.4638
9.0876
12.472
0.97589
0.84692
18.522
15.807
-6.3073
-3.9259
14.862
10.445
-91.442
-36.753
18.3
21.144
67.354
10.884
-3.2368
-66.104
-57.517
-24.384
15.616
27.49
18.842
14.198
-6.6822
30.956
-3.4909
-10.551
-2.713
18.108
-24.058
6.0281
-2.2428
-1.8423
1.4136
-14.654
17.807
3.6513
6.3253
-9.7836
-7.4189
16.295
-7.6628
-18.826
-0.92149
8.194
-2.0843
8.7815
0.97417
0.099484
10.326
-12.768
6.3092
3.197
-5.49
9.0933
-8.6384
-12.204
-8.2859
3.8219
33.483
5.2323
-4.0806
-4.5336
-7.4414
10.812
5.1985
-18.301
22.797
-7.0223
-19.186
9.0317
9.0807
2.8152
-2.733
5.7025
-3.6965
-4.372
-14.093
-4.5027
29.362
30.396
-38.047
-3.4412
-16.399
8.1664
-4.4644
6.1119
13.649
-25.103
5.0149
14.36
1.6988
5.0842
-26.611
-8.1609
3.3792
-9.4489
-27.465
22.683
6.6704
39.664
46.923
-73.694
-35.417
-12.793
17.323
23.866
9.1317
-11.342
0.47687
-4.132
14.352
44.157
13.637
-49.544
-32.906
14.522
33.329
45.839
-31.284
-31.674
7.0403
-27.889
9.1664
5.7897
-15.348
8.9534
5.6958
-28.456
38.768
11.29
-14.551
20.658
22.476
10.619
-17.213
-0.23588
-17.179
-23.534
12.289
-10.465
8.1206
-5.4334
64.186
22.83
-80.165
-30.652
52.485
-0.86098
-42.874
-16.513
27.311
-4.2765
-2.2975
-1.8579
8.7966
-5.1104
7.2163
-4.6927
-6.9239
10.965
-8.0901
19.42
10.993
-15.925
-1.7881
-3.1658
-1.5105
-8.1152
-2.2306
20.916
15.376
-7.9916
-11.314
12.515
14.14
-25.551
-14.122
-1.5219
1.1819
-3.6896
-0.36187
8.4858
2.8696
-6.8071
-1.0798
4.5626
0.16371
-7.6127
0.66587
8.8415
2.3377
-15.988
-16.946
-20.397
35.924
17.4
-5.7675
4.7444
43.023
-0.65228
-38.92
11.428
19.994
-4.4329
6.7103
22.524
19.85
-22.046
-15.072
-6.0326
0.53955
-3.1377
0.39738
-23.863
-32.063
-9.9123
-3.1246
43.963
24.691
-35.948
-21.764
-10.9
7.4215
20.874
26.682
-2.2875
-33.908
11.98
15.727
-11.039
-30.047
19.858
6.9059
14.609
-20.392
-8.6055
-21.024
-30.91
44.836
52.034
-9.899
-19.386
38.745
-23.727
-34.728
21.004
4.8439
-6.8669
33.663
33.926
-2.3573
-5.8019
-11.377
-5.19
-8.2355
-7.7266
8.2412
-0.69636
49.871
-59.769
-96.324
60.272
-8.2432
18.96
12.681
3.8664
-10.661
-39.457
-14.27
-8.2265
24.36
27.903
21.284
-25.781
-16.359
-11.755
-13.673
10.763
29.788
-2.6519
-26.673
50.532
12.724
-61.723
2.3793
11.166
10.662
-1.7905
-12.298
13.611
1.5167
4.2526
-50.445
8.9289
82.844
12.007
16.776
-18.901
-39.846
43.97
8.3996
-18.583
-7.3566
8.1501
2.812
2.3375
-13.903
-4.3251
-39.207
-0.29709
-9.078
43.204
-5.1197
-21.498
22.508
-10.926
79.851
-113.02
-50.296
43.343
47.46
26.524
-26.283
-1.6885
-14.503
57.629
-37.117
-45.864
-3.7552
6.853
17.24
-8.5442
7.758
-34.125
57.788
-19.865
-17.752
44.705
-22.019
-23.262
-11.677
11.961
-7.5331
0.22462
7.5264
13.174
40.996
-5.7952
-24.619
12.622
-24.527
24.165
40.215
-11.178
12.248
-61.155
14.602
13.443
-25.903
-5.755
24.911
4.8653
-49.475
64.487
-38.335
-10.22
29.273
14.896
9.4305
-20.787
-20.917
21.603
-18.893
15.698
11.828
-65.545
-19.561
22.361
25.298
-1.9555
8.1615
5.1183
-11.238
20.534
19.389
6.2555
-31.681
-36.835
5.9186
5.2045
-0.95585
13.699
10.358
-6.4852
-0.17475
7.8364
18.477
5.7651
27.462
-19.443
-29.395
7.3637
-15.969
5.509
24.539
75.057
11.74
-67.862
-57.642
-10.181
44.289
37.248
-59.343
-10.927
25.715
-4.6475
29.85
-10.402
-30.041
-2.6651
3.4308
15.604
28.173
14.905
-83.659
-0.05587
59.352
-49.921
6.8505
52.337
11.812
-29.985
-19.822
-19.817
2.776
0.48805
-36.261
23.441
-4.378
-68.464
51.68
43.107
15.527
4.4668
1.9418
-3.2943
-21.311
4.6758
-1.6132
16.618
11.929
-13.475
38.384
-14.183
-2.9463
7.009
-47.067
-17.303
-1.8115
19.202
-5.9999
48.433
-17.595
-50.345
-26.879
-11.136
21.469
40.691
9.4901
0.35346
0.95967
3.2403
-7.754
-5.8942
-2.8159
13.36
26.098
15.752
-28.534
-12.907
16.844
-4.1757
0.60556
16.664
1.6416
-2.5768
4.3528
38.067
18.568
-26
-22.399
-19.698
32.365
-50.649
-7.3161
-9.8895
-0.17723
1.5323
19.761
-1.4673
-29.748
4.152
8.6641
-2.6829
-0.38459
-2.0521
60.466
-18.719
-41.128
-11.851
5.9762
14.667
-5.9164
9.8244
-14.141
-17.6
13.115
10.739
8.8746
28.965
-52.304
-15.05
10.558
-0.94572
48.273
3.432
-42.649
-22.529
20.79
35.811
5.6347
29.153
-25.339
31.839
-38.044
-6.8278
39.897
-73.901
-12.669
0.53977
-1.659
20.442
37.013
-3.4761
-16.648
-3.145
18.443
17.926
-34.845
1.5301
-9.3313
-2.2768
12.117
58.347
-42.632
-31.504
-14.22
38.603
17.959
-30.941
-20.318
7.1513
6.7979
2.9675
-16.003
8.8
16.753
-0.56782
-34.304
13.952
22.069
-21.44
0.92516
12.031
21.143
17.374
-31.532
3.1065
35.565
21.297
-16.795
-30.409
-8.7074
1.7195
-9.4262
-22.832
-0.63578
10.847
0.4166
-6.7331
17.033
-7.0281
4.0648
4.6869
9.8408
19.376
-24.051
49.281
21.871
-23.59
-40.921
-23.336
3.782
-8.0546
26.512
52.168
5.1462
-56.296
-31.207
20.308
19.169
-5.4838
-14.865
-5.9743
-3.362
52.759
19.292
-57.413
-5.9906
-11.309
-22.438
9.1271
13.55
-8.0395
9.4815
-2.4731
-11.661
24.131
62.5
-35.482
-33.546
23.104
5.2322
42.744
-55.54
-26.995
14.862
39.158
28.398
-49.662
-27.125
-12.527
24.675
22.843
-33.633
-41.887
-15.399
20.945
35.285
27.233
15.784
-21.803
-21.271
24.997
-7.6562
-25.08
10.534
6.3892
-6.6567
9.8818
2.8602
40.924
-66.836
-26.643
49.192
28.698
-1.9503
-34.994
-10.934
5.22
14.37
-7.6875
-18.602
-9.2005
10.247
8.5051
16.818
-5.0013
-9.3722
29.669
39.712
5.361
-46.756
-37.045
5.9276
9.7926
-32.886
10.748
4.9768
-15.373
27.181
86.999
-1.9708
-80.856
-15.053
5.773
-4.1427
0.36558
44.024
20.914
-5.0545
1.0337
7.3808
-19.921
-25.012
1.7862
-60.925
126.94
-60.654
-25.656
73.742
-28.492
-9.0704
-21.653
48.651
-48.345
-41.055
14.943
5.3253
-3.5522
-5.5209
1.0919
3.1832
-1.7546
10.01
-1.8526
10.245
42.606
11.252
-4.3053
-45.291
-3.2203
-2.9078
-7.5972
19.048
27.026
-21.045
-19.561
0.41965
22.587
74.382
-55.969
-46.125
-4.6136
14.104
7.3571
10.488
47.076
-36.065
-31.052
-23.869
-4.0011
2.9949
23.071
-3.0244
13.441
-1.6237
-30.261
-0.16113
7.9201
-4.3937
9.8076
2.9837
-3.7646
0.5196
68.79
18.895
-53.546
-22.497
0.73158
1.6427
-7.4639
23.212
10.318
25.125
26.547
-7.4515
-21.756
-32.184
-3.6816
7.5796
26.106
54.392
-19.256
-64.796
-5.7611
71.846
-20.263
-37.118
1.1358
-24.105
-12.073
26.082
24.608
-6.4134
-1.283
0.3119
-8.944
23.014
-44.809
-37.913
58.032
108.27
-32.604
-50.093
26.943
77.991
-69.215
-134.24
19.67
-12.849
-0.18651
10.993
19.601
21.934
24.913
-6.8668
-11.902
-14.02
-26.871
15.037
35.058
9.7311
0.86423
-45.252
38.277
-29.561
-94.072
19.604
12.648
14.955
8.902
26.683
35.078
-19.935
-21.808
-13.578
6.7102
5.6771
-3.106
-8.6317
5.7945
14.586
6.4654
4.9761
8.3688
-2.6503
-0.88203
5.9781
-18.429
24.512
-0.90092
45.808
-25.127
-45.478
27.263
-16.44
-25.045
6.2714
40.093
29.336
-29.228
-11.619
29.924
11.886
30.478
26.37
-110.3
-42.541
14.659
23.907
0.84971
-3.7101
10.416
16.685
-19.427
3.9568
1.8081
5.2756
51.217
-35.28
-18.639
2.916
-14.631
-28.58
12.068
8.126
2.0144
5.6096
-9.358
29.385
16.312
-49.028
6.968
0.8235
28.036
6.0168
-22.156
-7.0295
30.13
6.8115
-3.5951
8.6653
-11.591
8.2315
44.111
-3.3081
-31.451
-63.223
6.4088
39.46
37.862
-0.60794
-14.489
-30.898
28.572
-3.9637
-0.27461
44.253
-24.27
-21.554
21.221
-60.27
-14.321
16.484
-27.882
-0.9358
33.827
-5.3093
-6.8636
25.7
57.497
-5.0296
-26.198
-34.176
-38.739
-10.538
-11.457
19.894
23.649
8.3331
3.7178
0.62515
1.4717
-4.9905
-7.1037
2.7065
-2.4017
6.4174
11.122
-3.5856
10.953
24.568
44.16
0.34275
-38.504
-36.427
-13.639
-5.1846
4.8125
2.2415
35.131
18.937
-7.4068
-7.027
-20.948
22.324
-5.7218
4.0752
-5.2832
-11.401
8.248
-22.059
-45.621
5.2008
30.045
-14.357
6.5763
-6.6152
30.103
1.732
-23.078
12.436
9.9336
-26.911
-9.0479
-5.9698
-11.421
37.53
-3.985
-6.1651
46.77
9.3667
-39.976
-31.376
20.502
33.8
-52.553
-47.975
40.229
-57.392
10.408
47.057
17.869
-5.9817
26.628
-19.362
-14.684
-8.4427
-17.968
13.569
4.1998
10.795
39.372
20.78
-14.756
-34.486
41.671
14.171
16.656
-12.302
-12.771
-4.9955
9.4234
-7.8727
-5.2371
-22.145
-17.144
16.171
-5.496
4.9293
3.0922
12.126
5.477
53.568
-0.35196
-78.459
-25.686
56.452
56.121
-22.463
-58.297
-18.147
-3.2551
-35.714
26.942
29.514
-6.3699
31.746
-17.63
-40.903
6.1384
-8.7257
27.19
49.456
-29.018
-34.173
13.035
32.496
-35.651
-18.232
65.358
-24.788
-51.099
0.8089
26.703
-2.2781
50.509
69.266
-113.09
-36.895
1.2346
18.427
6.1356
20.549
16.017
9.5592
-6.9819
15.561
26.854
-54.482
21.705
-0.47858
-16.926
-18.991
31.754
83.435
-54.187
-35.973
33.734
-18.693
-71.041
10.395
11.497
20.93
-15.965
-52.481
31.353
12.935
57.275
-6.1815
-45.949
-4.8078
-1.7217
-0.042345
49.738
12.025
16.975
24.197
-43.141
-21.408
-3.914
-27.627
-4.021
14.079
-5.7028
6.3529
1.2532
-28.84
-11.177
6.854
22.977
12.016
-21.325
5.6181
55.698
-45.664
-6.8864
46.078
-7.1267
-8.9575
27.878
-28.385
-29.871
6.0421
5.2052
16.189
45.201
10.314
-63.22
-19.561
24.843
-12.206
-1.8806
-20.716
-0.10682
1.5699
17.169
18.324
-31.643
-4.7162
15.471
11.032
33.685
40.256
-72.28
-47.665
-1.4709
11.742
15.962
53.576
-35.376
-7.5424
21.301
-33.967
-0.55391
6.4578
5.7542
28.452
-1.0123
-53.196
-8.3019
35.636
-7.9449
-12.836
-5.8085
84.549
32.494
-103.55
-54.001
40.746
44.44
14.299
-37.464
-46.227
-12.758
3.2551
25.786
13.563
3.7513
4.0506
9.8386
10.308
-1.1362
5.0582
4.8222
1.577
2.8292
1.3848
4.5279
-1.2938
2.7659
3.6488
-4.7186
-4.0684
5.078
11.947
-1.9231
-11.454
0.85332
6.8015
7.8575
1.1526
-14.071
-11.682
-46.291
53.763
34.438
-29.629
-11.326
-6.834
36.297
-47.129
-3.0253
29.096
-3.709
51.212
27.935
-17.489
-58.715
-47.666
26.89
32.682
-60.942
-0.37009
26.514
54.711
-30.034
-44.739
-8.7805
-27.187
-14.239
21.347
56.23
26.078
53.225
1.9695
-61.603
-67.717
-49.926
50.624
33.387
21.084
48.581
17.009
-35.807
-63.28
18.602
42.778
-19.031
-30.613
-17.288
-32.724
-2.179
17.345
10.652
17.583
0.64225
2.2016
4.1648
-8.5098
13.188
33.871
-13.872
-18.352
29.891
52.007
-28.286
-39.596
-1.1601
-8.0194
-4.9061
-14.641
6.3346
-18.194
-0.81126
23.778
-18.764
5.6913
5.7015
16.467
0.70344
48.892
21.881
-61.741
-7.2503
-12.539
-1.3804
-7.5037
77.186
-16.375
-34.278
15.224
9.4619
-13.493
-70.182
7.8938
19.973
19.766
-49.071
23.55
31.094
7.8439
-1.0499
-7.2837
32.368
-31.053
27.101
-7.6151
-34.646
-20.095
13.205
26.552
1.5686
34.311
-0.50009
-23.738
-22.207
-28.991
-11.37
26.541
17.724
4.5529
-8.6845
-2.8754
-11.335
17.465
18.222
-8.8886
19.298
-33.941
20.837
3.7665
-36.996
-9.7838
-12.833
11.97
97.025
50.526
-77.207
-83.524
28.889
17.361
-46.298
5.9675
-25.624
-1.3863
21.934
14.087
35.242
6.5747
-21.619
49.927
-25.301
-24.961
6.9124
-32.78
-12.196
41.129
35.33
0.42749
-26.192
-51.858
5.3613
15.258
4.2365
47.246
-6.4203
-21.006
-11.478
0.70497
-1.046
25.025
24.898
6.3617
-10.419
-45.031
-37.953
6.6648
27.459
-15.252
15.218
33.812
51.027
-61.192
-20.411
44.789
-19.86
16.045
-17.858
-27.147
0.45066
4.9711
10.732
-11.881
6.9399
22.755
32.3
18.915
-31.789
-56.257
-16.239
29.352
16.036
-26.584
-14.335
-7.083
43.874
12.494
-34.543
-12.861
18.63
8.4719
-1.2582
11.164
-9.0015
-14.824
-9.8025
38.21
33.265
-31.445
38.986
-35.781
-20.185
32.034
19.33
-6.672
-51.255
-5.084
3.6004
18.981
-15.28
14.571
-16.468
21.373
57.454
-78.991
1.0795
15.126
-34.046
13.148
26.104
-9.6885
-13.537
20.786
57.999
-40.137
-44.647
10.909
29.805
-30.979
-14.124
7.4438
82.918
-22.959
-68.274
10.081
-10.347
1.7448
32.549
17.837
28.193
-0.28787
-53.355
-27.965
14.221
34.066
-35.699
-13.811
37.282
27.214
-30.806
-30.247
-10.253
-15.464
-16.317
3.768
38.228
4.6735
-1.1219
19.586
44.26
-7.1448
-19.655
-13.109
1.3838
32.002
-20.255
-34.175
4.3327
53.141
19.727
-56.749
-17.929
8.3075
6.4777
-3.5003
29.039
-9.3128
-17.33
1.1392
-32.919
-11.99
11.208
19.856
6.2781
22.958
-5.9512
-43.023
-16.962
8.831
18.564
6.9693
-0.62529
20.001
26.247
3.9147
10.321
10.449
37.699
-50.743
-20.35
-12.598
-19.526
32.368
-16.235
-8.2303
-4.4231
23.901
7.2562
-30.935
-0.38185
9.7264
-19.898
-12.707
29.756
38.772
6.4007
-10.94
-29.883
-0.94073
-29.371
17.578
17.923
-3.0205
-14.525
37.14
10.258
23.121
-21.932
-85.951
-41.927
13.127
26.608
24.979
36.187
12.877
-30.002
-2.5055
-3.0956
-0.11713
33.827
30.305
-32.356
-13.941
-7.6602
3.1964
-13.031
-15.703
28.691
32.548
8.2079
-60.083
-20.541
46.965
13.023
-11.272
-6.7369
-2.3153
5.277
-8.4876
-19.424
-1.0726
-5.4462
-0.29738
-7.5833
15.69
34.513
-12.644
-34.923
5.6418
14.484
-4.4088
23.357
5.2407
-0.22391
-0.85475
-16.303
-19.567
23.188
6.874
-1.0654
-4.9322
3.0022
-11.753
-0.74092
8.8402
1.5489
75.78
-38.177
-62.703
11.189
8.2748
-9.3418
13.759
-15.014
-61.986
-10.335
29.53
32.177
11.083
-6.954
-31.03
34.759
50.648
-5.7578
-5.4869
3.6171
-15.474
0.10937
6.8351
-15.36
3.5404
24.61
-2.6517
-10.682
0.92027
7.5039
7.1581
-7.6375
5.5915
3.001
-10.63
-7.9872
1.3267
-0.60001
-2.1337
2.8445
2.6833
-1.2284
-1.6085
-1.1117
-13.646
-2.5656
13.912
31.393
50.066
-5.6504
-63.909
-44.17
11.21
11.153
57.503
-14.522
-62.043
39.585
7.3081
-7.6529
0.65059
-31.39
-7.7844
-15.43
-1.0753
34.416
3.198
-30.411
-24.155
93.515
33.805
-50.219
-47.681
20.92
73.667
-27.056
-80.657
-9.5026
-25.898
0.13593
19.268
12.763
39.781
4.4846
-14.877
-30.084
25.552
-30.451
-23.77
63.204
27.081
-52.005
-21.305
0.26149
-1.7099
2.3318
4.3709
-0.64803
13.81
41.802
-12.01
-41.727
11.883
0.37768
-1.7967
0.28184
13.768
16.822
43.954
14.668
-34.215
9.3927
-19.707
12.505
50.313
-12.697
-21.495
-16.098
-63.976
-33.375
29.386
24.509
-4.2804
-5.558
32.189
26.18
-51.155
-20.745
52.547
-1.1696
-30.501
-14.073
27.989
-7.9444
-10.336
9.3433
9.4024
-8.5773
-17.567
30.687
20.776
-0.95292
8.4066
15.934
-0.28112
-16.902
-12.876
-8.6133
36.225
-17.925
-28.636
-8.3539
-40.242
59.029
54.115
-30.444
-9.2838
50.889
-3.9221
-3.2052
-42.338
-16.146
20.848
28.908
0.55754
-99.043
-28.513
34.858
27.569
17.874
2.4017
-7.4836
4.2759
1.8092
-28.293
-19.774
3.6882
-40.647
22.505
43.169
36.064
19.874
-22.396
-22.065
11.743
-6.4317
32.715
-0.8803
-62.168
19.268
39.356
22.568
-37.416
-29.306
22.191
3.7778
-20.275
0.44658
-3.3929
-3.0437
-20.572
7.7957
12.912
12.457
17.616
-9.8145
19.578
-23.965
-38.134
6.9897
15.011
-6.2912
1.2135
4.4347
1.2604
-3.9324
6.6927
7.4578
-14.606
14.126
45.084
-19.671
-2.3239
6.4255
-27.019
11.948
7.6236
-33.626
-22.841
-2.6815
6.9249
-4.2405
16.47
29.431
-37.774
-3.8323
12.086
4.1398
-8.3013
-2.18
12.456
3.7078
16.042
8.549
61.725
-8.0147
-49.662
-15.453
-24.39
0.071483
38.173
33.499
37.891
-56.886
-25.356
35.623
-4.7112
-49.46
-7.1856
12.185
45.716
-4.827
-50.637
-5.9417
-21.927
65.236
52.327
-75.29
-29.809
-4.5912
-5.6608
22.242
-5.3579
-9.64
9.6581
20.958
39.061
-28.414
-33.372
4.8539
53.005
25.467
-8.7595
11.346
-58.003
-17.66
-9.9974
27.068
25.185
-12.495
-12.508
39.487
-8.5707
-33.456
-8.1617
1.1717
26.12
25.385
23.737
-2.4842
37.758
-55.55
-77.815
-11.357
17.622
-10.089
-7.1034
8.6623
55.921
32.665
-76.114
-7.5469
-8.6677
20.092
-3.8955
7.1
15.478
44.446
20.934
-70.817
-24.49
-11.069
-5.9602
25.867
-3.682
6.0945
17.235
23.294
20.253
24.229
-43.302
-21.504
19.692
-3.9292
-6.1213
-6.5332
-14.16
9.7113
-4.4654
-3.2595
14.431
20.157
73.127
10.112
-61.514
-74.51
-21.493
4.9596
2.0036
-8.9675
-8.4907
-12.992
10.968
11
-18.152
-37.947
-31.992
50.732
92.06
75.5
25.726
6.6804
48.352
15.728
-26.765
-85.984
-156.6
-4.7986
25.792
43.051
13.029
-3.4458
21.83
8.775
11.15
-17.906
19.945
10.737
-46.298
-23.834
-7.8496
2.2312
15.648
7.5811
-7.1337
-9.5945
14.045
30.127
16.098
-27.281
-4.3693
-21.211
-13.788
12.382
-0.23635
4.7549
3.5642
3.8653
2.2526
4.0681
15.578
64.761
45.765
-51.112
-72.547
10.77
-85.086
-66.705
158.22
35.196
-36.712
6.9957
-55.75
-34.375
6.5948
20.271
43.276
4.4713
-6.2974
-3.7041
-2.7442
10.051
12.253
0.73136
-1.7537
-4.3764
-3.5293
-7.4527
6.6313
1.7314
-3.642
5.1176
0.76793
-3.4731
3.8761
2.5824
-6.1661
1.3495
1.4923
-0.66877
0.82771
11.466
4.8102
-2.7755
15.884
23.566
-7.8102
-18.817
-18.417
26.147
77.489
13.42
-96.975
64.472
-133.46
-107.53
162.43
35.667
-18.84
-81.285
-60.854
-6.3664
50.134
25.429
37.002
50.243
-29.477
-22.208
20.999
10.975
-6.3281
3.3738
-42.1
-10.109
59.745
-83.637
-88.875
-15.258
13.747
25.952
-4.2565
13.761
67.886
52.443
47.87
-7.1761
15.084
22.29
-114.49
17.677
9.8458
24.576
-43.716
-91.78
-57.568
-24.182
31.074
55.897
75.733
28.212
15.68
10.694
34.918
35.383
-41.582
-22.082
-15.891
-0.22822
-14.853
42.218
-15.878
-47.85
-39.239
11.954
146.14
9.9736
-148.81
73.749
-17.769
-17.411
20.291
9.6584
-2.8838
10.358
-21.795
-12.149
40.069
54.932
5.951
-105.47
-49.768
-26.631
59.757
64.213
-6.092
18.218
44.405
-172
-113.84
180.4
190.92
32.033
-50.127
-120.22
-114.18
68.094
57.147
-14.675
-38.075
-12.379
-80.505
-39.979
76.581
59.98
-34.423
-29.187
-4.1567
-8.5177
3.3842
-13.997
6.9991
44.033
48.825
1.01
-6.548
-9.4997
-1.1877
-28.553
-50.686
7.4919
60.66
43.251
-32.224
-32.256
0.42761
6.9376
-22.042
-49.491
35.051
62.581
-29.312
-41.153
-0.14377
0.44874
7.1483
6.426
10.116
-1.4788
-24.876
-3.8762
63.695
29.774
-49.123
-27.677
26.929
51.28
25.39
-17.66
-28.647
-22.11
-15.873
-6.1633
-43.273
8.9451
35.914
51.322
2.7383
-17.071
-11.368
-15.414
1.5607
-1.0561
-16.536
7.1077
-28.983
-8.6299
41.946
43.563
-23.64
-10.188
-4.4013
-5.8792
-6.8304
1.711
62.898
20.401
-58.469
-14.12
1.6616
-11.673
-19.597
32.812
21.338
-23.418
3.6237
-20.281
-18.063
-2.4049
42.693
23.602
8.1131
3.7743
7.1798
3.4848
-1.7219
-0.63859
17.368
-13.372
-61.743
46.644
43.957
-34.35
-3.7939
-8.9149
-5.9468
-0.60282
-9.3041
-37.841
40.406
59.333
3.6551
-15.395
-29.744
-17.978
-8.0036
-2.0188
-10.63
-37.648
28.966
29.783
-11.041
-37.159
7.6817
44.746
-6.8024
-4.0175
-4.4472
-1.721
5.4637
-17.519
-14.626
27.125
25.179
-7.5128
-14.504
1.1879
8.3714
-21.746
-25.598
1.3223
35.942
-9.2043
22.086
17.281
-46.082
-18.677
-4.669
-40.912
-18.58
15.889
-1.9471
60.144
86.106
43.031
-55.605
-72.692
48.753
150.38
-36.789
-41.887
-83.399
-5.9426
6.413
-23.84
23.653
95.792
-25.675
-101.09
-22.777
65.494
56.18
-66.095
-27.788
-2.2681
19.904
112.94
51.132
-102.9
-54.347
-18.444
8.9681
-1.4976
-17.351
-9.4819
3.1579
7.5975
8.4576
7.1532
-29.573
-5.3759
19.68
2.3693
-4.9018
-2.9424
4.1705
-7.2924
-2.3293
4.6611
-9.5176
-9.6631
12.284
-14.487
-0.56936
12.587
-7.9064
-6.4163
47.665
50.508
9.3169
5.5498
-11.036
-25.666
19.297
-28.424
-3.2502
32.014
5.6571
-19.038
-14.609
-40.367
-14.767
57.215
57.033
-11.334
-28.129
-11.608
-3.2339
-5.227
6.9225
6.0029
-7.0574
0.25315
3.9452
-4.2124
-1.3249
4.9187
-5.8431
-0.25587
8.6341
-4.635
-12.073
11.271
4.0295
-3.8872
4.5228
-7.3607
-4.0472
68.95
-23.577
-17.056
18.023
-17.662
-1.7305
-1.1834
2.301
3.2746
52.949
66.097
-43.351
-40.035
67.344
15.162
-77.67
-23.184
-10.356
-8.5848
-44.814
-25.139
8.1537
-24.69
13.201
-75.995
-127.13
37.755
123.12
79.562
63.496
32.642
42.066
-87.366
-90.128
132.53
176.54
-41.738
-355.16
-261.49
74.166
165.97
46.459
4.5907
7.5914
27.039
2.6619
4.1772
-3.891
8.0341
-46.885
128.13
69.974
-107.23
-41.668
-11.723
39.965
28.585
10.472
-10.025
-15.384
0.82275
-6.1052
8.3999
-7.0491
25.399
-18.954
-12.101
-5.1218
16.753
-19.289
-61.875
31.442
27.566
-32.149
9.3027
-20.317
136.09
8.2472
-133.26
-0.29273
72.507
-89.85
2.0437
59.267
-20.559
56.998
-22.095
11.929
56.071
51.846
-45.956
-65.423
-56.284
-5.1722
-20.456
-71.826
45.897
44.101
45.167
26.66
-25.51
34.169
21.456
-22.316
-1.0808
7.7299
-12.977
-20.758
-23.669
10.532
-0.5993
62.993
-68.473
-59.051
17.071
59.187
60.917
-98.684
-57.487
90.031
78.711
-91.632
81.508
72.982
-162.97
-85.329
44.131
74.228
34.313
19.347
-14.608
11.399
-48.283
-49.558
-44.504
25.651
13.689
19.233
38.279
-23.436
19.348
59.684
98.708
-37.731
-166.38
-31.654
-11.702
-54.882
-39.443
-16.237
24.965
140.46
33.716
-39.696
9.5444
-83.275
54.927
45.392
8.7701
-16.821
-2.5743
15.562
27.255
-4.0003
14.756
-22.307
-5.1846
2.2656
21.284
50.093
-22.278
1.9899
35.433
-28.912
-52.007
-77.14
-15.618
-18.703
33.016
90.311
39.996
-4.6345
-86.935
67.099
92.065
-138.33
-93.622
-24.225
125.87
104.11
18.942
-95.726
-80.174
20.776
55.784
-34.967
-72.398
-32.341
10.053
24.141
-3.4667
27.225
-0.29454
15.747
46.415
64.757
39.503
-178.18
-55.291
-23.703
61.853
110.57
40.682
1.4223
7.7013
-3.2427
-50.645
3.8133
41.376
-3.1677
-78.54
-45.612
8.6529
-0.42639
10.684
44.036
8.033
18.87
11.334
85.347
-12.303
-102.41
-28.687
6.7762
3.2466
-25.58
-3.949
27.499
35.692
-47.459
-115.89
60.709
99.74
67.004
-9.1341
-51.376
-6.5207
-11.358
-8.5327
-34.948
-16.89
-46.582
31.276
172.24
-15.922
-48.042
-126.87
-65.762
47.042
29.59
45.323
58.872
151.39
23.229
-124.17
-25.952
-37.417
-131.62
-37.638
63.235
61.159
49.838
-8.8004
43.827
-10.947
-68.476
33.022
-21.947
2.1803
-12.952
-7.5742
-9.4428
11.324
3.1791
-6.6203
-0.20378
36.168
-53.651
-12.452
-37.523
-43.057
34.994
18.29
98.808
10.681
-28.301
-38.992
0.93204
66.466
-60.354
-20.953
5.0739
19.741
-54.606
8.1323
37.037
28.125
138.68
-72.235
-158.32
23.457
1.3914
37.325
136.71
64.107
-133.9
-46.952
-17.715
19.004
-0.6688
39.379
6.2437
-48.504
23.974
-94.731
31.399
126.39
-18.394
14.463
-27.553
12.083
-54.223
-41.706
14.167
-17.711
206.14
20.953
-222.45
17.805
25.189
21.607
-8.3841
19.075
-137
-1.2636
132.99
-23.509
29.141
-23.467
11.255
-11.551
45.333
-16.935
-21.908
-68.865
-10.341
77.586
46.219
-10.004
-69.783
21.295
8.5794
7.2045
-4.9915
