3.1509
-4.3349
13.53
12.416
129.51
86.351
-472.4
48.888
155.44
22.403
9.167
-5.2449
6.1048
-1.0852
24.456
-2.771
-2.9735
5.6113
81.108
-74.949
-135.47
38.211
13.867
23.763
-3.3617
13.277
0.28961
0.47526
11.8
-19.982
0.2634
10.931
-6.2552
11.952
0.84659
-4.7418
5.2082
-5.4909
2.9101
7.7541
-7.7688
10.941
0.26387
-8.6733
12.814
-5.5682
-6.333
12.383
-3.1383
-3.8614
5.0537
-8.6856
1.6659
16.057
-5.2813
-1.9439
5.4716
-7.9455
5.2023
0.58816
-2.0965
5.603
-2.8575
-4.8029
9.4389
0.51729
-9.0434
5.9297
-0.63527
-4.1538
5.9448
-2.78
-4.5314
8.393
-1.5701
-5.4603
4.7684
-2.2521
-5.7852
8.8613
-2.4514
-5.2498
9.744
-3.6433
-6.1033
7.58
-2.6342
-6.9707
5.5748
1.1996
-2.9102
3.2645
-3.278
-5.9358
5.6432
-5.2185
-2.1079
7.864
0.91096
-8.7239
17.901
-12.759
91.134
109.98
-122.05
170.66
-161.05
-90.237
-37.177
-15.768
1.0432
-12.963
17.518
-7.4734
9.7247
8.4972
-9.2133
6.6143
2.9233
-2.5103
3.7588
-3.1069
8.8209
-5.0474
-5.2918
8.9212
-3.7428
1.3827
11.455
-4.9201
1.3793
8.5486
-10.39
7.4792
11.447
-7.9023
6.3124
8.091
-9.6981
2.6874
3.3745
-6.183
8.2859
2.2339
-7.2985
4.4452
7.0868
-8.3377
0.4004
2.1154
-5.104
4.8702
6.2035
-6.9322
0.58559
4.4677
-4.1727
-0.90708
3.5478
-10.623
8.3058
1.6653
-43.528
-74.089
243.14
29.42
-133.54
-22.259
12.774
-19.489
-6.6951
4.7467
-3.0857
8.2728
-2.0145
-7.944
13.093
-2.5929
-0.57179
-6.5925
4.7658
-8.5282
11.363
-0.60354
1.1367
3.8813
-9.7619
15.629
8.3857
28.096
23.998
43.141
14.273
-21.737
3.4364
-59.071
-39.891
12.038
-1.9535
-15.717
-9.2148
12.595
18.184
31.221
-25.269
-65.813
-80.856
-65.423
86.782
194.13
-44.247
-14.623
25.545
-169.24
40.467
-13.695
-30.909
16.057
37.475
42.116
67.671
-42.766
-77.757
17.239
39.21
-9.1584
35.837
51.784
-53.544
-62.315
-65.628
-3.8239
121.62
54.153
-46.564
-23.488
-44.46
-30.648
-91.81
37.487
60.66
13.255
22
-9.4381
-31.499
16.699
26.279
-42.755
-16.965
-97.597
-27.052
281.95
179.17
-130.85
-75.204
-41.049
-13.935
-18.521
-93.958
103.5
174.82
-130.44
-55.148
43.221
47.37
-373.29
-175.18
73.777
0.815
354.05
177.42
0.076961
-15.095
22.639
86.589
-11.683
-43.884
3.9807
-125.52
30.012
-26.271
-55.085
53.387
35.731
-31.899
-60.156
-2.9377
161.37
388.16
-192.09
-382.1
-9.3487
12.401
9.149
4.9518
27.363
-9.1339
-4.2871
14.287
-8.8533
-0.77018
13.683
-5.1451
-15.099
22.992
6.9238
-11.095
5.3919
16.724
-11.288
5.8018
15.808
-11.914
1.3268
11.971
-8.9065
-0.53111
10.817
-15.457
4.0815
8.2025
-13.311
8.9954
-2.114
-3.2152
6.0923
-9.3485
4.873
1.1953
-14.6
12.603
0.092479
-11.367
11.497
-8.7339
-5.9093
13.95
-4.2728
-6.2137
10.071
3.3891
-14.988
15.245
-16.365
17.261
40.487
-26.262
-6.6684
1.237
-22.449
-11.324
5.7748
12.839
-6.1259
-1.0628
11.897
-5.7725
-5.0791
10.642
-13.028
-11.65
15.316
-2.1647
-9.0127
15.131
1.1995
-15.459
33.652
49.461
-57.211
-71.867
-94.08
26.409
158.76
-33.742
36.12
57.88
-20.187
-18.286
-38.445
13.908
122.26
-96.872
-67.365
-44.187
-0.43648
43.905
-7.1091
44.326
-14.075
-53.257
32.59
0.49886
-41.513
-43.532
19.1
41.481
8.0168
10.414
14.89
-7.1329
19.654
-10.789
138.41
-3.71
-183.11
-155.38
9.5297
164.83
49.949
25.538
-11.2
20.614
-6.945
-31.343
-61.984
43.218
93.898
94.456
-86.419
-84.725
84.036
-118.86
-68.81
-1.4281
3.0626
44.961
26.669
-9.8733
7.5158
8.3636
4.7006
0.53515
31.758
39.029
-26.638
-29.508
-17.327
-10.394
-14.732
4.1852
7.1321
-5.8852
-11.845
-24.703
16.333
4.3204
16.689
-27.65
36.863
-60.756
76.442
-45.926
32.77
-4.1092
8.7671
16.907
-24.352
6.7587
-11.728
13.225
-18.938
0.60083
-1.2351
-11.412
11.733
26.324
-8.3317
-26.12
-4.3593
34.279
5.5842
-37.991
9.4312
2.5137
2.7913
-0.29573
-11.368
-2.0994
-3.2537
25.31
5.3613
-7.3634
-0.79885
-4.9044
-13.275
-6.0631
13.323
22.099
-13.786
-3.5598
19.492
9.9422
-22.002
-9.4777
2.5206
6.3015
-24.106
35.034
42.768
-39.562
-12.35
10.424
8.2734
-6.031
-11.53
2.5947
16.144
1.3139
7.9922
-40.215
-31.709
3.4956
18.517
0.49633
-13.876
32.171
13.596
-20.161
5.428
8.051
-5.6109
-3.1843
14.594
13.973
1.5263
-29.509
15.998
37.466
-8.1555
-45.509
-1.0823
6.8396
15.582
-30.165
19.44
36.766
-30.628
-10.897
-0.85949
28.927
27.246
-29.924
79.646
-48.471
-35.428
-19.029
13.318
38.594
-56.696
-63.611
79.46
-24.968
-5.8903
9.858
11.228
1.8589
-17.422
-8.6399
21.455
51.514
-11.53
-43.048
-105.3
-26.051
65.109
9.7144
13.329
-10.978
-3.7153
32.219
19.478
-11.019
16.858
10.829
-6.4774
24.895
16.575
-23.335
1.1363
23.943
3.1278
-16.751
2.5084
17.837
-4.5418
-19.363
1.7825
16.581
-5.2302
-14.556
10.859
1.6434
-11.366
-10.149
13.705
-5.2077
11.579
28.408
-16.573
-32.795
8.8108
-10.41
6.641
12.282
-40.763
18.536
-27.968
6.3934
15.574
-23.312
-6.7725
59.345
8.2987
-52.249
16.144
29.444
-6.3557
-29.041
-7.7115
13.308
-6.4649
-7.3439
7.5533
-13.468
-6.8873
12.299
-8.8671
-8.0513
14.34
-0.41147
0.89731
11.687
-7.9447
0.054975
16.4
14.653
-17.714
-8.7649
18.381
12.148
-16.616
-6.2143
12.158
9.7279
-11.33
-7.4985
12.795
0.16223
11.55
87.718
-8.8463
-56.846
-55.822
-16.984
35.61
20.142
-39.997
-31.552
11.709
30.038
-18.4
-49.604
-175.77
40.679
214.84
-8.8425
22.911
-0.27917
38.797
78.325
-87.621
-66.132
-7.3401
63.378
-11.232
-49.711
-13.306
-66.265
36.779
59.983
10.277
3.4976
-47.46
101.22
66.788
-108.13
-46.272
-25.734
10.657
65.257
-44.229
-26.364
-0.047299
94.277
-5.2017
-76.225
-36.321
16.12
17.616
1.0185
4.2992
110.8
-19.909
-77.945
-37.878
-5.0486
60.139
42.079
-59.137
30.082
-49.617
71.209
-54.047
-47.177
0.52909
48.244
7.0286
-57.269
-5.7058
0.28586
56.598
6.8255
-9.4452
7.531
17.094
-77.211
-47.42
50.26
23.471
19.169
-3.0787
3.7393
-15.649
-18.245
23.584
9.9033
-2.4594
27.623
71.701
29.49
-121.33
14.936
11.436
17.268
21.5
-55.007
-25.015
24.357
-18.728
18.054
19.34
-7.4416
-22.01
25.989
-11.723
-10.713
13.495
6.8574
7.0244
-12.412
-8.4628
17.817
-13.375
-17.485
28.275
108.96
-26.012
-100.6
-42.825
26.149
-5.3056
28.883
-21.312
-33.225
-11.679
30.688
33.58
20.39
-29.443
-4.5672
2.7957
-16.178
69.153
-1.2877
18.382
7.347
-10.742
18.709
-104.47
0.79503
18.908
-14.276
-8.7198
15.468
9.8109
40.918
15.207
-33.798
-55.986
51.621
14.814
-17.212
-46.202
30.392
31.759
-33.052
5.0766
-40.868
10.277
0.18045
-7.7926
9.9959
-2.3588
-1.029
42.527
-8.8641
-5.3833
-2.1653
-8.7551
-4.8219
-19.64
3.5968
38.286
-4.2173
-51.264
43.266
31.777
-16.205
-12.809
20.693
3.9099
-27.077
6.5982
-9.1469
3.9205
-3.5069
-11.619
33.26
56.074
34.785
-19.495
-7.5655
-10.093
-94.472
-33.879
81.958
22.114
-48.027
-0.056281
0.0571
-20.285
15.678
49.232
2.595
-1.1315
94.014
-73.46
-113.75
15.957
78.614
6.9387
-29.267
-45.988
-55.739
67.371
71.109
-9.8086
16.716
-90.661
5.7604
9.0367
94.311
-48.508
-13.559
37.489
-21.438
-63.594
-52.71
-2.8814
16.568
-23.233
63.06
75.696
-14.761
-76.621
3.2754
12.145
-14.083
-16.482
41.783
6.5793
35.741
11.838
73.447
-14.74
-82.147
18
-6.305
-9.1181
-26.572
-10.971
3.4499
72.112
15.169
-39.076
-13.129
-17.725
-21.107
-25.385
57.151
14.269
9.2197
15.13
-12.756
-36.636
-21.574
24.108
-10.471
31.178
24.945
-11.337
-44.025
50.103
58.717
-89.229
-89.04
37.055
112.8
-1.4918
-67.808
-17.322
-8.8581
40.46
-26.985
-49.897
107.72
-35.704
32.576
-42.05
-15.339
32.307
24.611
83.821
-53.946
-73.915
-95.606
3.2529
65.328
30.992
-47.144
57.291
112.16
-14.799
-54.998
-120.47
-56.981
-6.9325
104.64
54.979
-80.856
28.541
5.7874
-49.874
24.777
-17.301
23.723
-0.24888
-0.71245
33.262
18.444
3.6828
-47.248
-7.4119
25.127
83.27
41.681
-64.744
9.4477
-56.97
-54.311
-13.035
38.691
60.084
-47.155
10.581
64.431
1.6078
-116.19
-58.106
31.91
78.117
71.932
-14.665
-5.0267
-61.525
-15.927
-31.321
24.114
103.23
27.88
-73.354
-65.261
58.916
-23.505
-34.718
58.96
-22.418
-14.85
18.08
-32.428
100.69
-7.5863
-68.766
-8.4676
0.74104
8.8246
-37.864
-47.368
13.455
69.906
157.81
9.7534
-33.675
-44.832
-20.708
-114.67
-98.658
48.517
55.847
-2.4389
29.846
15.805
4.4556
26.191
-31.154
-46.426
-42.776
9.5247
32.082
-0.58984
-14.487
48.275
44.808
47.466
9.5257
-76.388
-18.422
-66.23
23.513
45.066
23.242
15.907
15.542
-7.4888
-39.383
-18.219
57.716
25.611
-0.0090138
60.381
-67.015
60.627
-24.405
-89.711
-62.788
41.697
107.65
-36.388
-90.708
-40.039
49.181
1.9725
-13.237
74.038
-18.732
-72.2
6.7234
48.317
-2.2288
-7.4665
8.0399
10.805
0.2063
29.982
27.735
-2.0433
-43.133
1.2773
9.7316
-75.621
10.692
73.295
0.55831
-25.665
-16.774
23.638
-23.608
27.998
-23.33
-0.62254
14.951
-25.035
21.638
-2.8819
24.017
48.267
110.08
-110.13
-30.882
56.319
-28.775
0.48588
-67.837
-45.351
-16.965
-60.4
36.635
61.929
1.8037
-49.926
87.858
68.874
-19.88
-50.482
-101.34
43.489
35.891
33.229
-23.522
-63.238
21.821
13.243
23.925
-34.835
-57.238
39.701
21.515
27.361
24.281
-16.016
31.33
-57.201
-67.627
121.83
16.415
-37.925
13.078
5.6652
-23.745
-69.02
18.626
2.2189
5.0034
38.169
-43.827
-19.972
26.228
8.9469
-17.678
85.472
45.204
-75.064
-86.376
-7.5327
26.521
4.3252
6.7476
25.197
58.631
95.129
-26.574
-53.545
-56.454
-24.778
-9.4928
44.6
-14.414
-70.53
13.248
2.9171
21.659
77.838
50.336
-44.88
-98.258
-38.206
26.67
57.895
54.362
25.22
-2.5325
-75.935
-64.499
15.391
125.07
61.294
-31.362
-44.587
9.3011
-41.03
-21.787
-68.524
6.4375
-11.102
-5.1171
18.623
-37.601
-34.878
45.927
77.342
8.4225
-67.866
-58.073
59.431
67.407
-2.5821
5.9385
12.271
44.336
-86.211
-90.409
-0.66427
59.168
24.704
100.19
-21.924
-28.762
35.776
-19.374
-49.222
8.8603
32.219
11.153
21.344
-28.167
3.3323
-88.601
21.798
-0.16234
21.769
43.886
-64.477
45.656
36.801
-70.737
-73.873
11.379
34.106
-5.3791
-8.9273
27.152
25.911
6.1631
4.0385
64.537
63.993
-14.851
-9.3833
6.6321
-16.465
-37.73
11.14
-13.261
-5.566
17.201
-3.2454
-25.894
8.5321
21.481
-31.158
-31.105
-4.4413
16.964
-2.7616
-13.331
1.1647
-35.029
-60.068
2.8693
27.874
5.4771
-21.616
53.334
26.616
-18.181
9.5398
-0.90455
-34.412
12.721
53.174
44.486
11.299
32.395
-4.7693
-131.03
-93.046
58.887
27.001
20.824
-30.992
-1.9588
19.509
106.86
17.142
-46.107
-15.396
-21.442
-68.256
-14.828
72.685
4.6633
43.668
-37.328
-23.132
83.287
-70.254
-62.922
-38.527
83.342
-19.602
-18.697
20.876
18.395
53.132
-53.621
-27.425
73.322
37.968
-28.024
-82.755
-33.053
26.601
27.969
-17.8
-28.13
43.579
31.094
21.578
-51.926
-13.205
-5.5558
-10.728
26.166
61.065
-6.1644
-43.494
-14.933
38.989
3.0964
-20.515
109.39
-8.1778
-135.21
22.91
-7.8116
-1.6265
-21.453
-16.824
17.151
30.472
-27.666
30.409
63.2
20.345
70.5
-34.078
-28.303
-40.173
-128.35
26.834
-17.384
8.5581
22.698
32.975
-0.42024
-64.106
123.95
57.75
-22.95
-46.023
-143.37
13.685
40.966
-16.798
31.263
-0.58132
60.861
-20.821
-62.343
64.93
-22.933
-43.931
16.507
32.523
91.439
-19.231
-87.221
-44.596
49.542
85.671
20.157
-39.801
-77.483
41.705
23.232
-69.466
16.318
19.938
-48.749
28.013
67.344
-25.261
43.172
27.783
-113.39
-62.074
93.866
-32.349
-31.828
16.2
50.74
-28.383
41.272
63.169
-83.984
-6.706
53.517
28.272
-161.86
0.70354
49.416
5.5688
108.63
-30.742
-12.279
11.331
10.682
-1.3368
6.7209
-65.313
-38.461
-30.319
89.961
-39.571
-81.321
29.83
60.989
-28.361
-41.916
17.081
36.892
8.4666
-3.8138
20.359
88.742
-77.471
-90.997
29.38
83.539
-20.106
-42.14
34.363
86.644
-32.955
-58.985
47.73
41.162
-21.293
-55.831
37.049
-12.744
-58.642
18.238
-5.4484
63.168
-21.306
-2.2907
-40.191
-47.455
90.719
-65.062
-15.257
31.338
-13.461
70.64
9.3289
-99.708
17.529
22.805
44.347
8.5372
29.511
-79.52
-76.166
-10.295
60.357
30.078
3.6676
35.315
-31.597
-32.791
33.493
32.594
-44.203
-14.468
61.814
52.415
-150.74
-48.489
48.498
32.929
25.268
-34.361
31.239
81.534
-34.832
-116.21
-55.288
68.126
41.212
61.462
-71.34
-18.171
15.428
6.1033
44.428
-10.782
-24.525
7.9787
1.9442
-8.2604
29.879
100.36
-20.95
-33.367
34.562
-22.774
22.555
-20.659
-35.139
-125.82
23.932
-9.3727
-4.5692
23.546
120.79
-13.938
-91.883
15.879
76.932
16.062
46.955
-64.545
-84.936
-5.8705
67.128
71.622
-77.619
-21.723
20.463
-29.974
7.0649
-10.455
-45.831
22.36
7.4861
1.5892
-46.065
32.586
50.889
-87.011
-22.296
24.563
64.334
12.846
-24.723
26.987
-17.699
12.649
-14.304
-15.35
-42.821
36.676
25.838
17.918
-31.958
-25.951
48.728
31.5
-33.402
16.107
-29.561
25.583
-49.593
-6.7318
-0.49617
-32.334
14.186
-33.941
11.621
75.12
0.24193
-0.7956
61.725
7.8613
-72.244
-17.34
59.983
29.585
-68.481
-15.967
13.285
6.7486
61.976
-13.117
0.63094
-51.823
-61.745
47.676
14.786
-25.199
39.951
32.207
-0.35337
43.186
-32.927
-55.603
-2.0776
3.4503
-7.1909
23.849
-16.185
41.175
120.92
-184.55
-103.52
75.921
-15.773
-30.546
23.222
69.361
47.551
-1.1354
28.833
-76.677
62.628
1.4225
-63.378
42.107
-2.642
47.878
-92.122
-86.08
23.899
140.86
-59.265
-62.476
85.897
-35.951
-79.738
0.68646
59.159
82.193
62.358
-68.658
-68.765
26.013
-8.7302
-6.5674
13.492
-43.007
43.894
-21.981
-0.90261
-8.6333
37.531
10.503
-47.235
-43.646
-9.5902
-10.808
34.241
88.86
14.715
-72.821
11.667
103.58
-46.568
-38.878
-77.994
0.34285
55.347
23.003
15.751
-0.18244
5.6842
24.915
-22.879
26.211
36.874
-12.828
-3.108
-87.316
-59.564
7.2885
11.81
31.623
20.106
-15.542
-19.295
3.7254
60.069
-4.4568
-24.426
46.906
-15.688
-27.877
12.67
18.678
5.4625
-32.624
-40.788
-18.471
1.9652
21.043
20.993
-40.059
58.111
-0.16068
-11.92
34.708
53.528
15.278
-76.325
46.849
85.939
-23.066
-135.77
-130.99
38.491
102.02
37.487
-22.961
-5.7244
-42.491
-13.433
-17.837
-0.34305
15.756
57.544
-21.831
28.725
-49.649
55.694
78.111
-126.49
-22.538
71.264
62.53
-103.57
1.2678
36.603
-49.683
-23.824
36.622
-35.675
-25.175
49.5
13.302
71.997
-59.413
-68.019
32.853
-29.122
35.322
41.293
-11.793
-27.366
-19.022
79.729
-34.008
-60.99
10.042
92.861
47.875
-60.203
-12.894
0.03214
-10.688
-17.911
24.713
2.8618
25.809
3.6677
50.348
-31.22
-111.15
-67.049
19.651
19.978
-38.576
41.05
61.984
-1.6761
-23.391
11.906
19.68
6.0717
-6.8642
21.577
-27.592
-36.427
13.497
-4.8907
-34.215
3.91
29.125
-2.9064
-11.888
55.972
64.181
24.424
11.183
11.072
-21.841
-53.276
-45
-4.7648
-18.511
45.792
6.2245
-3.3478
-34.61
-82.457
-26.206
34.236
14.513
-4.1882
25.734
26.216
-2.8136
-11.28
24.327
18.868
-23.788
-16.466
33.429
11.272
-19.699
6.7107
24.711
-0.83709
5.5651
60.153
-26.681
-98.866
-23.83
26.115
24.822
0.99085
68.761
67.622
2.5041
-29.54
-46.381
-33.23
-0.95559
12.43
5.3106
14.605
-1.8146
-48.814
-30.376
5.954
9.2265
-14.09
3.8649
14.011
4.4552
18.255
8.8812
41.836
-61.216
-44.506
8.8784
6.3188
29.55
20.629
30.434
-42.024
-45.826
1.351
7.034
2.5887
3.6819
37.435
14.968
-34.66
-22.71
-15.041
14.107
10.96
26.39
23.137
-46.108
-12.519
16.731
8.6329
-58.787
-20.67
30.836
-6.4678
-26.912
-14.789
26.392
6.1588
-9.6148
25.156
50.145
10.443
-9.2649
-8.0728
23.033
13.878
-22.905
-58.031
1.8741
50.422
80.739
-40.046
-66.426
10.118
43.837
46.671
-0.15824
-12.894
-49.489
-10.677
-7.8223
-39.949
63.581
76.626
2.2567
-63.642
11.821
85.658
-97.252
32.95
-65.764
-116.92
-3.7161
75.121
67.636
2.7168
-45.051
-0.37411
-52.952
2.8329
70.701
-18.924
-22.845
58.46
15.383
-60.373
23.525
42.962
-40.245
49.503
3.7799
-62.217
-17.517
56.764
23.031
-80.876
-7.8089
-8.2514
-18.818
-5.5427
12.428
49.014
30.671
-69.636
54.393
-13.191
6.4939
31.207
-85.307
14.049
97.009
-39.149
-67.894
43.01
70.895
-26.104
-35.974
-32.257
87.09
2.3428
-42.654
-22.515
13.141
29.06
-49.764
-72.756
113.57
-38.799
-32.384
77.665
-36.1
-24.109
8.2932
-38.293
-4.9498
61.7
76.405
-15.785
-5.4597
-62.913
-37.178
44.282
8.9341
-5.9883
-36.354
70.95
89.524
-16.715
-145.16
-48.766
31.99
-44.999
17.273
14.939
51.232
-7.3674
-80.209
50.479
-6.6087
-42.086
0.28512
43.652
9.9759
3.3638
27.08
20.266
-52.603
-67.874
23.238
43.999
1.2526
-4.2842
21.397
28.058
-1.2392
5.8072
17.455
-11.287
-24.878
23.893
30.062
-15.891
-18.813
28.892
4.2804
-17.631
17.598
3.1734
-6.4929
-1.5282
6.0353
10.613
-16.853
-6.8053
-3.7655
-14.815
-13.304
6.2385
19.531
3.1671
-3.789
0.90337
-6.2362
-2.877
-2.3503
4.7531
-3.2797
1.7236
7.9377
-7.6945
-5.2843
10.838
-3.9001
-2.9285
4.5502
-15.678
-6.9455
10.658
1.2984
9.4231
12.337
-15.481
-19.631
-1.2102
5.2893
-29.14
-17.486
19.124
-0.24262
12.802
42.86
-0.25603
5.4329
10.458
11.183
3.1945
-45.725
64.883
26.884
-37.235
-49.325
-23.078
-9.0826
24.219
43.877
1.1944
-54.751
-27.678
-34.34
-10.407
11.629
42.767
-12.312
-1.1264
37.954
64.676
-75.233
-57.414
11.414
-12.511
-4.3489
34.894
-66.734
-23.187
92.159
-3.2625
40.512
112.93
-34.411
-186.3
-27.019
108.42
19.197
21.263
13.386
27.007
6.0686
1.0325
-3.0835
1.6561
-4.3425
55.958
2.5056
-83.247
-12.101
-15.257
0.79484
1.0722
10.554
5.5157
-3.9132
11.98
2.9111
2.59
-14.97
-26.36
-7.4287
9.5781
-7.6162
-31.778
7.2423
19.497
-56.7
7.7441
17.323
11.393
4.4181
-30.094
-46.618
64.974
52.023
29.242
-6.6392
-46.631
-14.732
-25.597
14.419
-12.461
-2.7579
-39.141
-73.865
108.84
53.206
28.393
15.814
15.651
-37.073
-49.201
22.251
11.541
-0.9329
3.9354
-2.8938
2.7458
13.811
21.988
-11.614
-16.186
10.168
-18.284
-26.993
3.6301
5.1531
30.646
21.322
-3.3784
-14.206
-20.311
3.8604
5.1041
-0.026747
-1.9191
1.7819
-4.3663
-4.1998
7.4367
-5.9933
-30.493
28.571
44.012
14.55
-71.759
73.811
108.01
-33.852
0.71972
-38.365
-32.527
-26.278
24.724
-35.709
-84.387
-36.107
-20.525
-194.75
-20.672
58.706
211.37
172.21
-156.4
-54.391
-13.003
-75.181
100.02
48.288
105.28
65.66
-109.19
-39.07
20.909
5.785
-5.483
15.296
-5.1148
-17.785
3.0088
2.2812
-14.271
-0.34074
-1.2857
-6.5579
-22.531
-10.745
11.851
6.0998
67.683
39.065
76.459
-95.354
-80.93
-13.99
-0.73475
31.114
-16.822
21.246
20.545
-29.139
18.075
55.095
-60.378
3.3403
-8.5561
-61.368
31.896
-3.1411
2.9147
15.876
50.136
37.922
-20.023
-48.315
-42.76
-70.37
26.547
122.48
-81.117
50.12
-58.985
-16.258
24.926
71.02
-3.8137
-66.819
101.11
-50.11
-19.022
33.54
1.1466
7.8522
7.4749
12.882
-31.01
-11.867
17.984
-9.5717
7.344
-60.385
-32.468
36.857
11.435
-20.855
53.838
5.0564
-7.1548
75.647
-16.591
-34.152
-14.568
-19.509
4.9202
8.3223
-0.98641
-18.065
5.2181
24.657
33.944
-41.395
-54.106
55.199
15.267
9.1947
-52.873
-45.712
34.899
43.743
31.979
-57.721
-62.823
20.965
67.535
-4.348
-5.1008
-44.7
-29.722
25.763
-4.5526
-36.039
33.635
57.628
-9.2035
-27.219
-34.821
-6.6148
0.85407
-6.2394
15.36
65.756
-19.58
-49.443
8.1932
11.282
51.267
16.05
-47.922
-17.971
34.106
15.464
-22.151
-69.7
4.4177
86.559
32.094
-50.938
110
-34.184
-124.01
81.289
73.324
-126.39
23.334
81.257
-38.518
-59.696
-34.072
94.971
-81.652
-19.602
104.24
88.855
-1.9266
-107.32
-30.374
2.8632
-11.246
-70.582
-7.0314
-30.379
36.406
93.813
52.988
-40.765
-72.242
67.965
73.36
49.237
-27.96
-33.725
-72.583
-50.627
-12.905
-75.188
-13.217
3.9485
46.378
50.03
61.145
-39.447
-58.093
11.309
44.172
50.2
-72.372
-24.596
96.238
-37.925
-12.859
12.765
19.747
44.403
31.558
-44.64
-77.727
-24.214
31.741
62.63
16.822
9.0415
36.671
-83.999
34.999
3.9139
23.264
-23.398
-18.914
55.633
27.038
-5.9451
-106.61
-97.166
21.326
103.94
-44.095
-66.125
33.988
113.49
18.963
-43.894
-15.55
-98.861
-60.129
118.87
110.06
-95.62
-46.682
75.65
3.6943
-42.663
6.6691
-24.208
9.8181
29.625
19.149
-20.34
51.565
22.619
-121.55
0.84876
36.493
46.414
-32.456
-75.904
-3.4152
23.343
38.524
1.585
40.291
44.804
-64.028
22.326
16.113
-47.642
-47.785
-1.4869
60.848
36.729
-14.351
5.265
-27.043
-7.6033
78.281
-67.702
-63.174
22.827
-6.5919
-29.239
5.3769
-6.7751
17.234
56.313
-36.789
-55.919
32.437
16.957
-2.7029
-5.1688
38.618
-63.797
-6.1669
7.959
-11.917
23.331
67.069
14.909
-73.164
-29.237
47.213
28.603
-25.834
-3.5537
-11.92
10.27
40.575
10.182
-1.8369
-25.805
23.757
-0.95253
-29.254
23.6
45.91
-51.817
11.475
-41.707
-8.624
-3.9022
5.4456
8.7718
-5.6199
43.107
33.571
52.628
-53.937
-65.579
-41.142
18.058
22.557
-36.692
-10.35
76.175
-9.2441
-27.424
13.89
32.17
-8.9151
20.789
8.4562
-28.221
26.403
4.5586
-57.732
-25.156
42.289
-45.926
-26.927
50.234
16.337
-28.176
24.224
27.608
-50.221
-40.682
43.586
0.39515
41.676
111.08
-16.476
-143.52
-81.342
48.046
22.024
28.313
41.537
-51.52
-9.7911
7.2548
12.728
-9.2168
67.362
19.255
-10.478
-3.0125
-72.921
-45.527
-13.002
12.887
75.532
101.67
-21.787
-19.507
-0.47694
-5.2562
-66.756
-22.128
-30.022
-15.387
38.224
-25.27
0.83982
102.41
68.412
-9.8577
-57.027
-94.551
-48.388
25.339
39.634
4.1901
0.70644
40.736
-18.937
14.312
-15.44
3.4603
-10.887
40.633
69.291
-90.572
-33.487
12.063
26.419
81.361
-85.81
-50.121
66.87
4.901
74.111
-1.6368
-162.98
-26.304
89.624
35.199
-35.055
49.401
-34.416
-36.069
11.116
-25.062
75.337
-60.825
-56.336
80.768
36.519
-78.555
-26.139
26.71
54.384
-27.369
-28.177
16.3
36.321
-21.6
-33.731
25.258
3.2128
-7.7114
15.479
2.7955
-38.19
4.5396
-26.075
20.289
-8.9641
46.989
13.988
52.526
-39.645
-6.8175
7.8258
-26.021
47.693
-34.663
-42.237
33.884
21.689
-56.853
13.672
32.324
43.525
-60.425
-16.492
57.444
-45.871
-3.3938
31.519
25.506
-13.966
73.766
-71.467
-71.534
-31.683
32.447
36.746
-30.803
-26.26
88.291
43.622
-51.24
119.04
-48.722
-229.86
-20.04
143.78
-21.58
8.9455
-12.371
-47.376
-53.178
35.594
45.343
-19.937
-14.742
53.071
28.107
60.404
56.747
-86.967
-27.481
6.22
2.1617
86.165
-59.286
-13.741
-17.427
-12.742
-19.814
23.709
-20.152
-24.913
19.697
22.988
42.502
-29.413
13.235
-23.73
24.56
60.34
-60.628
-6.8785
18.905
-30.449
11.807
1.2558
64.242
38.389
-48.958
-57.641
-2.5599
26.152
15.603
-11.372
-77.157
12.663
-19.217
14.12
12.76
-37.002
36.574
3.8983
-34.844
7.3122
39.744
23.93
35.687
-13.247
-41.551
40.083
-44.951
-28.191
11.442
35.516
-8.4249
-14.973
-16.255
7.5708
29.006
7.7271
-11.475
-33.133
-19.279
39.647
-23.789
-10.985
25.083
-11.635
-21.379
24.76
0.15327
28.958
114.51
54.47
-58.113
-73.518
-69.05
-82.993
-78.292
91.54
42.863
-13.64
43.849
9.3987
109.51
33.645
-66.466
-44.403
9.9429
28.96
-121.45
-45.941
28.93
86.885
5.3584
-35.117
-32.861
19.26
1.9595
12.763
32.057
-8.5278
-0.90727
11.015
21.781
35.494
-35.556
-28.32
-53.601
50.143
-22.607
-44.442
9.2849
44.922
24.827
-4.0002
-9.1935
5.6702
-25.742
-21.723
-3.4375
99.521
-7.9382
9.3688
34.934
-18.215
-60.11
10.366
37.426
-36.582
-42.189
-53.714
-40.15
19.571
26.133
49.971
36.631
-4.436
-64.195
27.794
83.753
-30.966
-19.827
-0.88375
45.296
-1.4111
-33.534
-91.856
9.9255
93.937
99.948
-19.412
-28.834
15.625
-73.484
-13.075
-15.34
46.07
2.5612
-24.613
31.24
8.3142
-97.803
35.107
25.517
-52.436
59.468
-9.9314
-84.127
-32.166
11.176
39.233
-13.273
-24.454
0.78068
33.616
48.987
28.689
-47.307
-16.515
14.292
28.253
7.4844
8.9318
10.06
-12.524
12.269
5.1642
-12.844
-22.871
-1.3455
-8.7645
-17.819
34.809
12.194
1.1056
-6.3033
15.97
6.4962
-33.294
-12.186
7.8985
-0.063468
-4.4593
14.246
8.947
-10.407
-3.3669
6.0732
-8.1398
-9.5952
-17.392
33.014
-19.228
-69.65
5.7317
57.132
34.995
36.1
52.217
-53.819
-68.646
9.0814
2.7598
-18.738
35.471
36.631
-74.899
-24.743
99.282
37.005
-64.577
-1.0107
-30.777
-15.804
-53.783
28.702
103.49
-13.585
-19.763
-75.158
42.444
45.763
-6.6733
-15.486
67.118
107.58
-74.101
-118.15
-47.032
-54.402
11.293
55.205
56.724
21.568
-19.755
74.847
66.67
-105.3
-88.886
-11.009
-29.036
13.494
41.916
-82.694
-13.335
47.181
79.217
-36.332
-21.164
108.32
46.095
-60.065
-69.919
-26.152
11.956
78.514
-6.0254
-9.849
20.928
-16.235
31.529
-26.477
-47.476
-95.678
12.574
24.126
10.368
-3.9291
38.987
25.668
-6.1672
-25.44
-4.795
34.935
22.467
47.517
-44.021
-41.829
39.725
-12.169
-11.898
60.749
-30.226
-62.732
85.464
56.942
-126.96
-66.185
-16.777
38.51
46.244
2.4658
1.3324
-14.839
-14.513
39.682
3.11
-23.653
53.512
4.7027
-20.562
-15.908
12.399
-3.1137
33.56
81.199
-73.758
34.957
10.267
-90.256
-123.88
69.189
96.215
-5.9851
-62.068
-30.08
-13.358
29.016
136.54
-64.458
22.293
-8.3795
-46.021
-26.857
2.98
-18.468
57.875
28.306
-107.58
9.4223
19.321
8.4697
-32.681
1.2549
36.277
18.659
-2.4304
-8.5373
1.0653
1.9113
-9.413
22.984
67.336
-70.068
42.354
-45.567
-59.193
6.0584
109.7
65.342
-115.56
15.952
32.843
-77.727
53.29
-23.032
-40.312
28.408
45.84
-10.894
-19.373
5.733
-74.72
-0.060598
38.251
56.025
-31.076
19.24
-44.823
-32.544
38.534
46.906
-42.527
-5.1507
-18.336
-33.671
90.539
3.1102
-87.411
18.132
98.952
-17.12
-66.577
15.815
-1.0049
-2.4189
20.909
-9.8518
31.2
-44.006
19.802
13.383
-34.02
27.376
92.05
-46.237
-15.399
-44.673
-61.858
9.7593
51.547
43.826
-59.109
-35.758
29.664
60.236
7.1058
-46.834
-60.473
36.281
105.66
-33.746
-76.32
-17.108
25.465
52.006
-12.95
-8.0557
-35.598
-20.305
23.744
31.743
27.074
-63.257
-2.5034
40.879
28.542
10.46
-1.9456
-54.615
8.8429
-33.236
57.248
17.389
-12.718
16.356
-25.483
-42.183
22.524
-38.62
8.3121
28.24
11.698
-42.83
-24.774
6.6033
35.353
81.273
22.34
-34.568
-83.306
2.9773
15.922
-8.9128
-18.779
54.692
-34.249
-20.659
17.877
7.7364
8.1738
3.0457
19.808
2.5785
13.261
-3.6722
-66.956
-28.896
17.481
46.932
19.423
21.21
-16.723
8.8032
46.394
5.4025
-37.987
-93.063
-4.1611
32.626
-1.6446
19.649
18.665
-22.268
-26.738
20.504
10.223
16.457
50.591
-17.923
-19.654
-36.888
-5.3805
92.315
-9.3879
-78.212
-8.2806
2.9642
-8.3005
4.7364
-10.226
-34.305
13.737
38.317
-4.5805
-39.077
-13.781
45.87
78.926
-50.69
-67.75
22.717
54.964
4.0974
-20.422
9.1825
-4.4081
-2.5435
69.129
-2.8684
-34.575
-40.094
7.6791
33.825
-7.7237
-30.669
-10.997
14.785
54.637
-51.638
-5.8969
39.038
9.7666
-75.694
-35.762
62.297
16.126
-21.445
0.96184
-49.981
-23.901
19.16
11.824
8.6823
-6.6871
45.933
33.669
51.847
-0.36489
-27.322
-80.175
-50.335
75.109
17.902
44.176
55.687
-73.832
-62.21
15.74
103.03
-55.03
-100.68
-36.187
18.262
67.432
-7.0228
51.709
34.56
-22.851
-14.734
-24.82
20.575
7.9508
-24.727
-6.571
1.8829
100
23.131
-44.274
-54.24
-44.71
2.9923
-55.183
18.344
14.603
23.429
-12.722
4.7101
11.496
15.035
24.2
-22.783
-15.951
-34.422
17.642
5.9544
-19.905
-16.831
23.734
87.58
6.2346
-73.523
-60.697
-40.079
12.895
26.05
42.121
12.637
39.716
-37.253
-14.734
19.02
10.759
8.0119
-6.1833
-6.5614
36.671
-16.121
-50.756
-7.5166
-25.987
17.026
72.312
63.242
-97.231
-76.231
-44.525
114.38
73.319
-40.748
-12.138
0.68197
-5.3695
-31.718
9.8104
-13.861
17.358
38.922
-2.539
5.3207
-29.05
9.0192
2.5173
2.0962
-15.023
9.1215
29.772
42.772
-75.365
-54.401
101.58
35.198
-71.17
-87.896
-16.503
-0.60215
35.387
14.301
7.0631
40.97
-12.665
-75.73
-19.474
131.15
86.443
-2.245
-40.391
-20.206
43.38
68.193
-25.608
-20.252
-9.1613
-1.6955
1.3146
20.274
-7.2436
-57.946
-24.393
-4.614
-7.846
-8.3645
4.5513
-23.103
-31.97
-4.9321
50.455
11.739
-5.9093
-1.366
-11.585
-12.322
-5.1727
2.2807
7.6871
28.574
-17.59
79.123
-23.106
-61.686
5.2938
-19.547
-59.609
-0.57851
50.487
-20.442
-17.762
-0.67876
-6.299
37.725
30.071
3.1234
4.4808
10.116
0.56128
-15.753
88.856
23.786
-133.1
-109.09
-12.988
93.682
33.344
-18.997
8.4992
-7.9102
2.4214
63.149
-32.243
3.0584
41.942
-24.585
-61.547
-3.1093
61.14
39.9
-15.577
1.0721
-48.311
11.322
15.9
-12.814
2.0122
-19.989
-39.415
17.944
47.911
-24.083
11.587
8.8839
19.426
-130.59
7.1201
32.383
59.946
98.554
11.075
-156.47
18.685
31.326
-35.37
15.814
17.132
-15.77
-68.372
23.389
29.692
43.337
82.769
-31.868
-117.93
-17.565
66.776
30.083
-29.208
-55.889
-17.686
-1.2971
31.193
-24.007
44.457
-2.9225
-5.801
-32.338
29.219
42.2
79.436
35.441
-151
37.636
-58.361
49.379
134.6
29.571
-36.392
-89.631
-96.488
-15.962
53.532
3.3224
-5.5478
-22.391
7.018
-42.058
12.88
45.808
33.44
-3.7243
-13.049
40.457
12.316
5.4526
57.262
-54.184
-30.193
-28.151
-43.396
36.451
42.808
-51.547
-1.4946
6.3645
-0.78173
13.135
-13.215
-41.141
-1.2774
9.8726
33.668
39.219
74.703
-38.768
-57.394
-31.9
19.024
-20.527
17.431
54.06
45.309
-3.354
-96.134
-3.6187
0.39725
26.406
-30.719
19.653
37.821
-38.995
-16.54
-10.231
69.804
-14.099
-49.275
12.824
46.754
19.598
-43.111
-71.35
12.734
73.628
-30.403
40.028
-13.577
-73.524
-31.349
55.018
31.583
-4.0284
6.7577
-30.412
44.245
31.039
-39.908
-63.12
-53.55
86.398
42.822
-68.33
12.077
-21.412
-14.071
4.1363
0.10366
0.36236
56.857
24.014
24.279
66.318
-4.1236
-37.062
-50.197
-19.751
16.216
-57.345
-47.274
42.891
46.794
35.83
-22.025
10.758
-14.01
-12.693
5.7606
-10.322
-37.227
81.018
11.986
-80.938
-48.188
21.554
29.893
27.106
-14.436
-77.72
-11.379
48.367
30.633
-4.8321
9.9191
10.705
-15.342
36.301
26.715
-34.468
-2.5398
76.479
81.544
-89.553
4.4789
51.493
-104.51
-19.469
16.981
-24.025
28.298
-38.178
0.4189
-33.576
-2.1384
0.50256
8.7277
23.227
11.113
59.62
-2.5182
-5.3375
-7.2762
2.0701
-34.054
13.958
3.1667
-2.8594
-43.01
-17.248
-0.28526
51.87
37.424
-51.901
44.836
11.109
-7.6744
-69.893
15.84
-1.1744
1.7395
0.78987
-14.368
39.109
2.3882
-39.851
32.792
1.4286
-47.579
61.841
73.295
-76.123
-22.966
-6.68
-1.6132
0.74156
-67.062
11.108
23.092
-20.967
28.02
-14.906
21.321
35.418
19.987
3.5932
-25.049
-18.732
-22.037
-26.246
5.02
13.166
17.586
7.7892
-5.7274
1.7169
22.64
4.4683
6.2302
-26.537
-8.6042
59.957
3.8212
-107.31
44.654
-6.5179
-14.589
9.2072
31.379
4.7313
-2.312
-4.2032
-22.279
-36.049
-14.346
9.7069
1.8054
16.393
15.794
7.8817
19.36
3.4434
-7.0616
29.542
-20.618
46.356
22.306
34.152
24.286
-53.87
6.9294
167.07
-19.366
-103.88
-173.36
-72.619
90.938
83.786
-71.461
-28.989
40.441
34.724
-22.203
69.778
-83.572
-5.0644
57.689
-30.45
-47.673
-26.63
48.099
75.303
-50.396
8.2297
-12.243
-58.125
-11.552
-48.414
16.935
21.424
53.366
28.575
-19.623
-16.85
27.603
45.325
-2.8975
100.74
-97.972
-108.34
28.587
-30.419
-53.639
-7.6099
37.924
4.2883
8.0477
47.976
68.153
-33.74
-21.551
68.647
-39.458
23.591
-29.563
-41.615
15.196
12.137
34.879
9.6886
-48.341
-17.303
30.809
26.725
32.864
-48.512
-33.602
20.839
-16.729
7.6254
-32.476
4.4612
24.192
122.17
-66.549
-7.9667
13.783
-103.87
-31.791
-8.6254
21.491
19.457
14.748
-1.7442
5.3649
81.404
36.027
-56.014
-47.696
35.242
10.488
-23.547
29.796
-18.544
16.277
34.917
-18.634
29.788
-13.014
-20.339
-28.066
-6.5789
-58.414
9.4757
16.742
15.615
54.927
-72.566
7.8534
39.66
-44.469
-50.514
59.327
-3.01
41.333
-9.9893
-59.684
-39.302
39.48
-11.353
28.732
5.2041
9.3541
-41.571
1.1215
10.013
61.995
21.064
-94.865
19.438
88.151
8.4496
-99.102
-15.479
76.107
24.741
-83.832
33.727
-1.0461
-2.3939
-6.3033
-23.237
36.241
-58.387
0.84104
1.3271
69.576
-0.49784
-7.1423
46.671
-47.65
-61.824
-32.9
8.2852
11.254
-1.5186
77.161
14.15
-69.86
-6.5123
29.211
23.676
-77.713
101.47
94.096
-118.04
-61.597
15.745
-2.0434
29.435
45.123
-27.806
33.415
40.875
-58.442
25.882
34.443
21.96
-12.488
-86.567
-28.12
-11.238
74.708
46.683
-12.193
-29.622
-35.202
-4.3093
-30.252
27.171
9.7853
52.366
-45.403
-56.212
60.218
-16.33
17.189
-77.587
-4.5983
17.931
-19.586
78.984
49.241
-4.8894
-1.2426
28.037
16.069
-66.828
-74.616
-4.7726
3.6162
48.989
19.516
-30.798
-18.201
11.221
33.574
-1.5984
158.08
-128.76
-80.873
95.301
-61.739
-58.013
56.58
10.104
-12.484
-13.75
-19.171
57.339
16.96
53.425
-85.449
-39.1
42.516
11.547
-27.326
-67.992
21.086
150.39
43.774
-165.83
-31.961
-19.669
-34.816
34.592
85.5
70.927
-108.19
-66.827
84.022
10.464
42.986
-57.816
-10.863
45.347
-56.653
-50.058
41.562
17.297
-4.2476
38.928
-21.667
-2.4926
-56.68
64.391
19.422
-27.096
48.361
1.7867
-83.841
8.1326
58.884
-11.177
-22.688
32.62
40.215
-23.81
-52.752
-1.2708
-11.801
30.386
90.286
-1.9388
-89.38
66.514
-10.728
-65.606
20.675
3.9618
6.4864
16.688
-7.3982
-21.419
-4.1164
6.3362
25.6
-38.413
-31.277
7.7934
77.063
46.503
-90.924
-55.439
25.668
6.6611
-14.027
41.874
49.099
-13.791
-22.817
35.542
45.599
-103.89
-34.302
13.087
-33.748
-2.9478
35.333
37.406
-1.7004
-30.184
-10.885
94.601
75.518
-105.41
-80.347
37.844
-23.012
1.0372
30.45
21.454
21.185
-20.879
-16.002
-29.839
-15.036
16.008
55.972
36.144
-88.169
-23.118
91.907
34.1
-76.1
-12.434
82.849
-72.176
-51.094
15.199
-22.278
-25.372
39.143
-0.041628
-7.2552
3.0957
40.673
-40.27
-16.404
25.125
47.555
64.867
-85.278
-48.285
29.665
64.841
-67.787
-36.752
69.159
15.716
-57.395
-7.0803
78.235
-19.007
-29.716
37.669
10.405
-57.63
33.897
-1.7586
-61.288
-23.608
48.572
35.487
91.517
-20.424
-75.534
16.734
-0.2643
18.607
-20.804
75.569
-56.525
-65.809
33.382
11.326
20.234
59.964
-60.689
-37.995
37.543
-62.147
-78.583
-5.6292
94.213
76.732
5.3679
-57.902
-17.201
28.752
-26.228
-22.708
77.225
43.76
5.0031
-85.777
-74.406
13.031
12.651
54.983
12.023
-24.297
19.177
-53.169
4.4869
-18.865
-0.14189
2.466
106.55
-31.999
-62.476
35.125
-40.145
67.123
10.01
-27.777
-51.416
43.184
5.2593
-15.602
32.792
-49.649
-47.861
43.487
-29.268
-25.395
62.539
48.893
41.106
-58.996
-2.732
-59.95
-21.091
86.117
48.367
-70.199
-1.651
24.364
-30.947
-32.577
-20.731
8.7918
23.219
75.993
82.551
-92.603
-59.927
90.024
-30.717
-77.877
43.242
15.954
-29.519
-28.334
-37.297
15.165
85.073
6.9279
-100.58
-12.552
54.241
106.84
165.24
-113.63
-148.07
-50.647
55.334
1.2752
2.981
3.585
20.697
19.179
-1.3846
21.965
21.537
0.10136
-9.0107
-24.106
-0.41544
-5.4305
-1.794
4.5475
-9.3295
-0.65827
49.191
60.587
-71.985
-126.2
-10.355
-42.208
13.756
96.276
-18.185
-10.651
-0.36042
-5.7302
4.6574
4.9092
-13.299
3.3245
26.442
21.331
15.744
20.215
-9.3831
-1.1917
15.672
49.481
73.322
-28.904
54.958
20.405
-90.903
-99.44
33.064
77.206
-73.703
-92.56
14.297
6.8598
51.435
-61.253
-252.61
52.667
145.53
79.77
73.269
1.5163
-3.5423
-35.006
-25.429
31.478
45.585
1.9583
-38.887
-25.919
-22.218
-20.835
-7.7353
-4.4071
-4.4901
0.47304
-9.1247
-1.4552
1.5179
-22.743
-11.701
-54.189
-41.002
28.375
33.792
-3.108
116.94
10.386
-0.2117
48.323
-76.658
-50.516
-21.74
8.1208
4.7372
45.351
29.253
-0.10607
9.0553
-1.8681
25.702
-32.343
26.806
-8.2988
-60.74
12.398
10.992
22.21
17.136
-7.4816
11.361
-37.011
-46.184
34.315
6.747
-16.717
17.97
42.22
1.4254
-19.084
-9.8209
24.978
49.441
-28.413
-38.538
7.7021
-28.628
12.524
46.989
18.717
-24.666
-47.789
26.23
11.455
49.045
-36.924
-46.282
4.5255
-8.3271
-3.578
5.0092
11.048
-0.26585
3.61
51.028
13.386
-73.434
-63.389
-11.623
-14.902
-59.54
83.459
52.358
27.646
-140.86
-71.667
51.776
49.927
-6.81
30.964
68.068
54.778
43.615
-44.507
-6.7584
4.59
3.3968
-6.8753
-21.83
51.567
46.783
-32.731
-40.53
-27.577
22.786
6.8099
-4.8326
44.839
-15.264
-43.157
-38.176
17.643
30.83
37.577
-12.729
-55.84
-17.977
34.132
8.2597
-48.947
-35.088
3.8607
-12.439
3.6197
8.9808
5.2774
13.306
-16.922
6.5866
13.434
-10.496
-3.7625
72.492
61.764
-39.785
-62.232
-5.3743
-2.0031
-8.2339
27.926
81.766
-20.33
-108.98
18.851
-13.031
-26.275
-35.013
122.26
8.008
-24.403
9.8963
11.799
-63.111
5.0944
44.866
20.417
-25.808
15.835
-29.378
-77.478
-15.541
101.14
19.705
-77.118
-10.74
85.227
76.868
-15.291
151.7
-136.91
-226.8
57.63
6.7999
-24.022
-8.9441
72.38
-9.2146
-19.565
-41.064
-2.608
37.317
2.0958
51.599
39.896
53.663
-1.2145
-117.77
-39.074
28.471
30.341
51.364
-9.0232
-21.677
2.1836
19.216
39.635
-24.836
125.38
61.201
-74.649
-158.08
-130.08
54.3
10.078
-18.176
21.937
37.649
119.28
75.317
-35.608
-161.54
6.2617
-7.1403
-4.241
-31.245
-35.449
12.619
65.499
46.564
-42.863
27.224
51.185
-4.3432
-82.422
1.482
-2.0431
74.003
117.26
-76.057
-115.29
-3.0384
73.072
-9.0517
-60.977
-12.946
-2.8347
-6.6985
49.396
139.49
-111.61
-34.571
23.652
-12.141
-34.819
11.275
-5.6699
59.865
72.257
-101.76
-69.842
29.478
85.423
-45.022
-58.404
70.352
-14.272
-9.5881
-4.3523
-38.526
10.555
-23.975
94.859
9.9697
-64.491
13.209
43.06
-77.81
18.892
84.117
18.635
11.493
-104.57
22.608
-4.8075
-8.6011
-50.236
2.2049
35.399
-14.968
46.631
10.467
-14.031
-22.299
20.983
-55.746
30.783
6.4178
31.936
23.599
-1.3241
-48.164
-62.242
14.593
9.758
31.936
-30.542
57.273
-5.8515
-11.063
44.523
-11.998
-64.783
27.559
44.6
1.2762
-68.768
-4.2289
57.127
-13.31
-37.011
-46.46
-13.719
37.755
95.441
9.2812
-88.63
-48.796
19.778
5.2668
22.743
-50.388
27.917
18.514
0.5472
10.766
9.7649
-21.214
27.825
71.873
-10.117
-38.512
90.91
-36.578
-39.097
-60.376
-6.9716
48.517
-46.762
-13.263
-3.2596
57.728
-11.69
-27.812
-20.774
90.032
34.492
-57.646
-60.867
5.3493
6.5753
113.97
59.254
-30.675
-140.32
-40.923
110.64
-23.815
-117.39
98.092
59.201
-25.422
-68.005
20.752
65.723
-24.691
-28.533
-7.4327
3.8444
27.964
22.399
-106.89
-7.8348
127.18
100.19
-66.583
-126.58
-54.636
-11.795
42.695
-2.6158
37.169
37.575
-0.76656
-29.752
7.9646
29.311
-4.6235
-18.56
14.727
60.863
36.145
-54.546
-100.03
-24.628
86.984
-27.296
-42.67
44.508
-9.9965
77.938
61.744
-42.75
-47.206
-35.831
-21.592
11.128
-4.5813
35.391
-14.271
24.905
-6.3508
-64.811
31.371
13.98
19.411
-4.2528
-27.038
-4.3373
-38.834
45.072
34.452
12.783
25.723
-29.064
-12.514
6.8284
-40.083
35.014
23.969
-45.61
19.767
-16.22
2.6402
-9.3088
23.536
-16.853
-25.931
77.379
44.406
-21.85
14.393
-96.509
47.008
-8.5434
-32.982
-30.779
-42.753
40.79
12.19
-15.121
5.1595
55.257
-39.59
-39.65
27.035
-43.238
30.394
4.4979
12.317
45.281
56.356
-103.86
-19.211
71.549
-6.8781
-70.114
-10.043
22.257
25.889
-8.2792
3.4771
11.92
6.2908
29.837
-31.272
13.513
-3.5269
4.9535
49.145
-13.385
-79.483
21.297
-2.3701
1.3154
22.302
-16.624
56.241
44.658
-28.182
-14.899
-18.395
-60.773
21.181
28.141
-18.711
-28.67
-27.519
42.098
32.659
50.399
-84.279
-28.858
85.509
-5.9375
-42.665
-10.768
11.954
78.814
29.542
-22.128
-82.851
-134.94
77.317
-57.456
-20.24
95.583
16.1
-12.161
49.883
48.539
-15.789
-33.555
-15.821
13.294
3.6867
-40.044
-47.623
15.784
112.73
13.072
-36.065
-28.361
42.518
-30.268
-13.765
42.591
59.368
-45.96
-31.377
43.661
-29.713
-43.161
-18.821
-12.189
-43.87
6.9415
54.779
26.574
-19.515
-12.39
71.917
-2.4506
-57.027
78.059
-27.591
-90.471
-2.983
74.841
-49.612
31.159
13.392
-39.528
4.74
-59.627
17.345
66.072
-18.287
-41.223
-12.655
28.652
-35.166
14.143
25.928
25.192
0.85897
-26.539
15.815
2.5601
49.061
99.84
-88.236
12.885
-21.422
-64.203
-17.039
63.728
122.13
-124.46
-178.2
89.318
59.949
-53.193
49.968
11.716
-4.3412
5.2434
-38.124
15.921
-67.427
12.892
22.381
16.669
-29.836
6.8594
20.05
-3.278
-6.2739
62.658
40.564
33.104
62.658
-59.324
-27.097
-53.957
-109.68
83.618
161.13
-37.897
-78.534
37.041
-80.731
-37.75
30.953
-63.881
17.987
-34.876
39.079
11.798
12.796
141.53
-12.231
-82.347
-58.662
-42.049
86.146
-45.251
15.354
37.467
50.786
39.106
-79.154
-38.032
18.036
60.052
-43.005
31.768
91.205
-72.93
-73.856
20.176
-51.481
72.224
35.822
33.256
-49.756
-24.274
62.836
-102.55
-13.496
34.568
-31.48
2.649
27.841
-50.021
45.954
69.513
-15.356
-42.944
-59.403
18.86
-16.021
-2.8351
64.282
27.352
-49.474
-18.924
34.573
-12.212
31.009
90.127
7.7198
-133.9
-19.85
2.1288
-1.929
92.174
135.62
-200.86
-117.9
140.88
58.875
-40.182
-6.5705
-36.89
-25.002
-1.8052
35.854
-82.426
-29.382
87.181
66.857
-65.908
-62.238
53.588
25.824
-52.3
14.875
42.011
52.939
-79.606
59.335
13.784
-69.736
-21.607
0.4835
14.444
30.205
15.365
39.321
-81.986
-35.597
-1.4855
20.628
-0.68104
8.4457
13.762
-10.792
18.803
-2.0357
32.737
35.124
53.727
-48.22
-55.667
15.971
122.69
-19.13
-144.99
-8.2882
-6.7742
-14.464
15.917
21.946
-27.319
5.9703
48.7
-18.737
2.318
42.356
52.362
-150.52
12.441
46.759
-55.619
-74.534
133.91
33.217
21.965
50.345
-43.808
-113.8
30.11
18.322
-2.7241
-14.668
-13.866
23.552
-3.8129
54.113
37.977
-72.371
-26.002
-3.5821
31.004
-4.4434
5.246
-30.776
21.703
25.864
22.041
-25.234
-34.751
2.3605
20.626
-49.186
29.278
27.284
30.608
9.364
3.055
-33.474
-55.839
23.03
-34.342
20.135
79.459
-17.67
-66.225
-8.7893
-16.662
20.941
21.185
12.306
-19.218
-9.9482
-14.258
34.189
1.6031
0.50365
-0.32663
27.51
86.519
-79.13
-54.789
3.2175
43.681
56.637
-27.335
-116.04
-15.941
20.024
11.163
1.0283
99.007
3.8848
-52.073
29.403
-56.995
-64.401
119.71
-7.8853
-4.1685
-2.8613
-99.593
43.335
-9.212
-14.615
41.623
-15.207
1.2878
45.725
47.156
-89.04
-41.56
24.395
-12.055
5.3185
6.1671
44.684
13.803
-8.2066
-20.687
68.256
2.8719
-8.375
-40.773
12.723
58.112
-65.237
-24.786
38.838
52.834
-57.955
-29.161
-43.004
-8.9899
27.218
98.526
-99.882
-85.992
110.44
-8.8543
24.523
43.842
4.919
-13.707
-7.014
-11.153
24.691
-48.356
45.232
-63.603
-89.312
25.165
76.333
119.06
-13.911
-48.734
-31.337
-65.065
20.01
78.036
-89.74
-62.54
58.096
17.028
70.519
16.787
-68.556
-40.475
-26.712
13.134
41.641
16.224
68.91
-14.913
-38.23
60.293
-21.551
-42.238
-40.601
46.666
95.901
25.734
-139.83
-101.31
77.48
-2.0609
-14.512
-9.9754
-19.649
6.5311
-6.9655
15.044
38.806
17.577
73.225
59.292
-94.947
15.372
-45.268
-17.595
10.518
48.927
-50.852
-1.749
17.958
-18.477
64.292
-97.311
-15.461
30.729
-4.4009
29.808
54.25
-60.543
-1.6044
-35.475
-18.383
23.673
-2.3987
11.611
24.247
-5.6352
-20.294
18.942
24.443
19.914
5.8903
-4.0151
-3.5002
-4.9472
4.0645
6.077
-11.461
-17.031
4.2729
6.7497
-12.309
-5.7769
13.303
7.6163
-11.073
3.6322
8.0818
-2.828
-6.2371
1.7422
-0.82843
-0.31197
7.6212
-10.014
29.501
13.548
-33.577
-59.332
-7.4041
9.8018
17.365
42.689
0.99158
4.2456
-35.585
-1.3994
5.29
54.33
54.162
-94.468
-55.726
-0.60742
93.336
48.213
12.367
-38.168
73.339
14.181
-79.105
-151.9
-38.718
91.627
19.277
-67.218
-9.5016
15.472
-5.3951
-19.685
-15.995
6.5048
117.98
98.019
-72.032
-81.189
-46.869
16.2
25.128
28.665
23.929
8.547
31.821
-6.2293
-56.079
-50.532
33.313
51.3
-35.053
38.111
42.698
-34.082
-70.573
66.326
-80.292
-37.804
25.25
-8.4505
20.667
113.09
-98.297
-102.99
19.347
11.811
92.72
95.299
137.88
-169.13
-126.24
9.9878
24.019
-1.2159
26.001
80.666
-93.445
-27.297
-14.045
105.75
-1.258
-97.115
0.27311
23.374
-5.0092
12.08
2.8417
16.169
54.407
18.254
-39.033
-7.9913
113.81
99.915
-85.512
-220.3
9.1693
18.069
76.43
-54.844
6.7997
108.6
-130.25
-64.804
15.486
-2.9261
-7.9661
23.638
58.164
-1.3174
15.853
139.39
59.876
-217.92
-4.7708
120.62
-95.417
-58.171
49.201
12.192
21.288
91.269
-34.902
-199.69
5.3368
52.499
15.012
48.151
33.028
37.227
10.072
62.834
73.271
-37.81
-154.41
-92.267
20.295
-6.5027
9.9926
30.383
-0.28767
12.563
15.444
15.333
-22.7
0.95057
28.019
11.285
-20.229
-47.904
-15.969
39.765
10.379
22.111
9.8727
-13.491
-15.496
2.1163
12.379
-4.0793
-47.158
66.557
137.01
40.669
-38.423
-155.98
-77.145
13.967
-0.89915
22.561
97.171
-18.701
-41.087
77.347
-118.43
-100.13
-4.4257
38.849
35.27
-14.493
69.826
10.302
-21.162
50.662
-35.005
38.82
-49.19
-48.467
-31.778
91.343
-80.702
-43.549
75.304
-3.6689
-7.6724
40.153
124.54
115.23
-146.56
-180.87
-6.7373
10.031
28.678
34.028
24.525
-32.067
22.437
4.5164
-5.8669
36.919
46.874
7.4073
-82.748
-39.209
40.981
0.56387
15.913
60.309
-20.264
-14.621
10.982
11.435
-36.228
10.633
-14.353
-18.891
-13.943
43.608
15.177
47.012
124.57
-147.54
-198.69
-41.092
106.07
63.401
16.901
30.928
-61.468
-44.979
88.024
-64.802
-32.945
20.525
-34.666
27.491
53.492
100.79
-118.07
-70.882
84.382
59.934
-15.776
-41.67
-35.747
-13.359
45.079
3.5939
-65.94
29.081
-15.254
35.435
1.4621
26.502
113.4
-50.699
-63.154
40.597
-43.704
37.172
-58.555
2.2808
20.839
79.749
-175.23
-40.396
93.754
9.5328
14.537
9.1642
14.773
-4.9174
3.8251
20.095
27.041
49.741
21.93
-63.236
15.446
-17.165
-59.253
-4.2809
-52.824
33.181
-20.627
-3.5789
5.2925
-19.899
1.9766
54.817
24.502
-9.2432
-25.426
-4.8076
11.524
-40.406
-3.4652
-7.1587
9.0237
6.8929
25.264
89.668
25.205
-145.89
-27.106
13.496
38.642
-2.2263
122.73
43.654
-158.72
-67.487
5.2784
54.62
11.948
11.123
45.045
-3.8944
-14.413
-5.4128
-22.417
41.413
-10.711
15.867
19.584
-37.801
-28.952
-20.552
28.166
-2.4237
3.3941
-4.0951
12.128
2.0977
-6.9912
-6.3679
7.2766
4.3726
-7.4159
1.8659
4.0385
4.5545
-9.1335
-8.4727
5.0262
5.1843
-6.0064
-8.5534
6.4368
5.1145
-2.2139
-7.1815
6.5107
8.3864
-10.419
-5.8875
10.384
8.8719
-8.6395
-10.681
6.9893
8.3519
-2.7122
-12.321
14.218
18.285
-41.163
-12.602
34.79
7.3451
-12.766
-31.92
-10.357
10.347
51.414
63.718
-0.99512
-65.266
-18.749
9.4128
-25.142
-4.9289
17.562
-7.2505
41.66
52.15
-21.422
4.9576
-35.606
-35.615
-16.37
26.191
149.47
92.617
-86.293
-104.21
-57.173
-98.624
17.451
102.82
-6.3499
6.9861
42.667
-76.046
-74.797
8.8839
32.086
-22.653
4.7227
58.795
18.217
54.668
-53.533
-38.244
72.625
23.969
-53.68
64.284
-59.913
-69.824
27.861
15.516
26.538
-6.6523
-45.8
-30.234
16.035
42.158
-10.086
4.7397
-139.93
30.178
53.876
61.726
-66.079
22.953
70.053
136.51
-86.294
-113.89
-14.135
-4.1201
92.439
-24.54
-30.8
73.09
-65.644
-40.738
45.485
16.563
-98.34
-20.051
182
-86.662
-109.34
25.258
100.8
10.008
-34.098
12.825
28.348
-51.017
-45.271
21.284
59.887
60.029
-3.3713
-15.13
-76.609
-36.829
88.673
-3.7361
-34.099
-72.9
81.851
52.787
-49.326
-49.394
0.55094
70.799
14.135
-89.198
5.036
18.116
65.641
-47.03
-11.649
21.027
53.85
-42.508
-29.542
84.296
26.306
-128.4
-35.993
99.491
42.121
-98.186
26.422
-32.747
63.232
15.958
-73.33
-34.059
41.623
40.988
1.7914
-34.371
-2.4611
-7.408
-15.532
25.715
25.809
61.39
-33.987
35.027
-26.475
-88.391
-3.2451
97.466
47.825
-98.336
-68.391
-5.2151
57.339
-26.985
16.401
4.2842
-19.009
7.1852
-4.3715
-11.785
8.3823
24.354
34.146
32.111
-10.508
-51.447
-29.481
17.342
22.588
-7.7076
14.918
49.881
12.99
-2.2572
-30.748
4.3799
-1.9599
23.804
8.1814
-60.172
27.387
12.394
38.891
21.079
-107.86
-96.021
8.3957
0.28053
13.06
61.303
43.865
-24.404
-32.545
-30.225
109.32
59.944
-82.692
-123.63
-47.319
47.096
48.776
79.01
-34.045
-60.068
-18.777
59.292
88.746
56.155
-93.31
-80.964
-10.656
-9.2105
17.144
138.97
-18.014
-138.36
46.923
91.644
-21.898
-54.629
61.179
-5.4997
-53.468
-64.332
7.5725
1.7758
-24.844
3.164
30.576
1.6226
-38.326
-20.859
55.257
34.23
24.957
31.066
29.639
25.607
36.512
-6.8282
-86.828
-44.057
31.76
3.0238
-30.017
-27.394
23.379
14.987
-31.784
-17.02
40.221
29.645
-14.748
-17.232
15.728
17.269
-47.537
-43.093
71.402
-3.7195
-28.135
25.601
13.803
24.153
35.387
52.966
4.6409
-97.777
7.6998
-18.813
-45.117
16.421
63.548
-46.035
-114.68
38.997
-10.067
23.754
35.548
21.057
11.392
36.154
60.402
-7.852
-68.155
37.674
10.988
-78.601
35.91
-55.624
13.345
23.818
-48.984
-37.397
-3.2758
6.8411
5.9262
22.158
36.881
61.234
4.2725
-76.556
-73.405
-23.034
25.675
52.46
95.41
-49.441
-33.645
48.205
-25.233
11.997
-86.117
-41.432
89.645
83.807
-102.05
-45.348
17.512
13.564
60.865
153.13
13.138
-123.94
-125.26
-27.307
14.875
36.689
-34.103
-21.447
122.81
-1.8213
-108.11
15.438
9.704
55.283
95.947
-52.587
-45.808
1.8303
-10.72
-20.011
11.433
-20.275
-6.6983
22.103
32.52
56.417
-54.557
-10.682
6.7118
10.774
-20.082
-67.141
3.7157
36.365
16.391
47.982
29.79
-1.0424
1.9888
-6.2635
-52.78
-64.161
65.401
36.969
-44.581
-26.32
42.02
5.8066
-39.455
5.1824
62.401
82.618
-54.813
-101.1
5.3778
-16.525
-61.506
-44.014
29.274
79.145
45.262
-40.751
-30.716
15.231
3.8929
9.3291
36.983
23.391
-57.918
29.612
9.9393
2.9169
-13.686
-3.5805
-3.9887
6.0424
26.005
-15.537
4.377
-11.402
-1.111
11.888
-4.8579
25.899
17.927
-18.473
-76.358
-12.849
31.892
10.379
10.405
8.7337
8.3665
2.4979
21.692
18.679
-18.559
-10.491
-36.252
-9.7096
-2.4991
-11.501
48.85
32.728
-46.545
21.023
20.623
11.648
9.5853
-13.145
-24.792
-23.565
-33.657
15.358
-3.6847
20.283
38.752
-23.046
-46.913
-20.823
22.398
-4.6417
3.5243
18.951
6.8844
5.4665
19.145
12.858
-6.3334
-1.017
6.0289
-16.442
13.464
-55.959
29.549
37.808
-7.86
14.136
40.487
24.849
25.928
-112.63
-87.883
4.2666
60.417
-40.61
-55.182
7.8773
28.126
33.113
12.085
19.159
12.742
19.694
12.31
-10.706
-29.765
-10.295
-28.589
5.2137
-8.5539
-5.4114
20.701
11.334
43.391
39.587
-36.347
-43.736
62.946
-2.2994
-58.382
-17.244
-97.546
57.26
56.862
-32.088
-32.499
9.8288
-30.576
-4.081
20.526
-10.882
19.963
25.875
4.5279
65.197
94.833
-83.059
-15.803
-10.821
-3.3108
-47.563
-10.531
24.945
-17.11
2.0718
20.231
-4.3976
-2.0657
13.616
22.801
27.079
86.907
2.5123
-2.9361
-31.246
-28.609
-40.57
-33.437
-53.161
-47.589
22.919
81.301
83.672
-32.726
-85.949
7.9627
1.3058
68.251
3.4449
-4.4838
-39.109
52.451
34.232
-77.915
54.82
-46.158
-70.83
-1.6167
96.294
-24.825
-88.279
58.689
49.642
-72.786
19.585
68.934
-136.75
70.131
2.225
-54.61
19.606
-48.76
-0.2841
-12.668
40.214
14.223
-24.002
35.838
-3.1915
-1.3261
19.311
-11.38
73.897
21.453
-38.31
-27.833
11.78
11.787
-14.296
-23.036
23.181
19.538
37.859
39.561
-56.004
-106.07
-88.395
55.758
116.4
49.322
21.048
-7.6259
-109.45
-45.136
-3.3696
24.737
5.5296
-20.658
19.714
20.205
50.488
54.1
-18.688
26.296
-88.021
-84.439
0.0061737
3.737
62.528
48.113
-54.845
-20.573
-7.9628
18.347
6.688
23.093
75.154
-8.447
-60.908
3.1338
-21.785
-2.4735
18.266
-6.7738
-31.979
76.117
144.26
-138.52
-35.345
93.979
-56.424
-55.848
8.5967
86.084
2.2019
0.31555
-44.632
40.813
-44.489
-107.79
-3.3435
56.793
126.24
-147.95
-27.031
151.67
-131.17
3.6793
6.2726
-91.601
7.1211
161.78
44.893
-93.494
-69.709
-51.873
71.381
113.4
-77.49
44.758
-78.21
17.336
80.818
8.8765
-44.309
-25.587
58.254
-2.3997
-105.84
11.962
5.2295
33.623
74.123
-39.932
-86.779
-14.242
26.731
84.831
-0.54473
-16.761
9.2698
-12.143
-62.611
7.4958
11.027
-1.3728
16.197
18.275
2.2511
49.396
47.261
-3.0238
-87.678
-13.869
-2.9051
102.83
-22.494
-113.81
80.889
-28.854
-36.241
6.0287
-35.143
65.575
10.091
-37.797
45.488
0.9319
-67.952
13.688
43.17
50.973
37.518
-69.787
11.69
-92.109
-78.476
42.121
120.46
29.623
-113.22
12.456
-20.343
-1.0374
63.415
-29.113
12.548
49.309
-15.536
-26.382
-93.322
13.142
29.183
-18.013
39.37
1.5742
-18.012
-47.861
69.557
53.679
11.623
-10.511
-1.8891
23.803
-92.268
-15.49
6.142
16.112
22.371
20.804
-16.543
5.4695
29.777
9.6811
23.907
-3.6399
9.4526
-72.929
-28.623
21.012
28.19
83.357
-109.84
-46.742
56.385
55.221
-27.752
-5.1235
-59.473
57.622
54.076
-52.046
-24.189
-59.004
-12.547
-1.0603
22.888
26.814
41.273
80.278
-78.333
17.204
0.2038
-33.294
-55.422
25.629
15.582
-34.418
28.269
79.884
0.41478
-84.251
-24.91
10.806
48.439
-65.505
14.372
48.009
33.491
62.294
-62.584
85.792
49.481
-118.66
-175.43
22.658
24.012
-51.346
91.169
21.104
31.863
-1.0473
7.0575
10.814
-18.713
-26.052
-13.1
57.972
42.967
26.174
-1.3562
-117.56
-88.15
6.0871
113.62
9.5841
15.825
-81.626
-61.929
13.349
-13.393
96.5
69.541
-79.976
-70.776
-6.0137
-1.1483
-9.4901
20.598
80.736
0.48894
-13.305
102.68
-104.14
-57.53
18.561
-19.218
-11.468
23.233
40.036
7.806
48.929
7.6731
-8.6733
-19.904
-9.4838
92.804
16.92
-50.355
136.44
-75.029
-133.66
29.853
-48.019
54.083
50.411
29.423
-21.333
-56.198
-10.15
-78.655
-16.305
3.6953
7.8442
-0.73785
-1.7002
10.295
14.248
55.425
58.371
-38.664
-14.003
43.692
-26.63
-13.336
28.268
-7.4814
-108.24
-41.168
42.181
-13.623
23.62
71.115
3.2599
-45.278
3.2347
-15.268
85.666
-35.982
-43.641
31.81
-36.306
-25.318
-7.949
13.24
-15.114
44.926
90.814
-54.74
-63.634
82.127
-6.8062
-76.596
2.8743
47.492
-15.881
-19.583
48.549
11.434
-9.7724
67.323
49.51
-130.72
44.154
16.597
-56.62
-9.5193
4.6177
18.915
-6.9687
23.947
-45.791
90.545
-15.226
-93.859
82.695
13.024
-104.73
4.0744
33.086
10.031
-0.41095
-22.987
-4.8887
13.857
-20.417
-23.625
-24.627
20.162
94.491
4.8726
-28.819
-82.333
-0.28908
-62.702
-90.33
7.2134
74.99
203.27
45.588
-68.797
-61.615
-9.2184
30.91
-35.116
10.158
24.646
-6.3539
15.137
-2.2204
1.4127
37.017
20.406
1.3246
-30.977
-16.325
-39.36
-17.38
47.122
17.428
34.286
36.13
-52.867
-20.952
0.41641
3.3144
7.9549
-1.4719
-3.7823
4.6485
8.5853
5.7462
-9.7064
-11.829
2.5976
7.2219
-2.3729
-2.4881
6.3593
5.1092
-13.509
-9.5703
-12.286
-12.626
8.7381
11.832
1.6453
-6.3027
0.19169
-8.0224
-8.5744
7.2177
3.767
0.89353
5.3091
-4.9559
-12.713
1.5403
2.659
-9.7351
-3.1328
-11.617
-15.256
-0.73852
25.327
4.6438
-12.605
14.05
22.233
-9.2168
-1.3974
17.827
8.0653
-9.4942
-0.28685
-9.2542
8.6937
24.614
38.352
-21.282
-58.696
2.9656
-16.87
25.692
-9.6987
4.3699
37.456
28.809
-1.2532
-21.382
15.919
-11.458
-49.475
-9.8516
-30.869
-22.867
30.234
0.27738
-9.6954
26.225
4.6965
-14.161
0.31859
7.6784
-3.2696
4.6215
14.422
-5.1436
-11.877
1.1313
8.9242
12.895
20.243
-28.694
-3.3618
5.8708
-0.1554
-2.1647
0.65454
-17.896
-27.709
7.1544
16.575
13.173
13.594
11.14
-10.787
-13.447
-11.633
17.49
3.9317
-1.7545
5.4382
4.1749
4.2255
0.15715
30.936
-9.4579
-18.174
-27.605
-10.563
130.66
42.977
-64.186
10.04
-11.728
-56.478
-37.148
-11.562
-16.397
-4.1344
2.8002
-3.538
4.6335
5.0425
-6.6039
-3.5412
7.4731
3.8053
2.4411
23.951
37.295
-3.6624
-39.867
-25.421
2.1367
-4.0808
-0.91176
-4.0933
3.8129
-6.9183
-1.1723
9.1087
-14.16
-5.583
-0.13302
-26.564
-88.158
85.123
140.79
27.61
1.5589
-75.117
-5.8771
43.424
48.803
-4.8198
-193.19
59.212
122.77
36.266
-31.505
-15.871
-50.715
-13.832
-186.82
-43.341
260.47
-116.57
-0.92563
112.14
22.02
-29.758
-20.845
-12.858
-7.6819
-0.15219
-9.854
29.436
34.635
37.796
18.586
-69.601
-45.943
83.931
30.64
-49.797
-32.569
-28.575
-38.398
-60.482
5.5367
24.244
-41.168
58.982
85.149
55.328
-14.548
-88.939
-43.761
5.8852
5.7154
12.501
12.811
-7.6365
3.9069
8.3543
-6.1079
3.3442
-19.259
-58.596
-21.945
-3.3014
41.234
47.062
19.929
35.24
14.003
-41.187
46.046
11.063
-26.018
-24.019
-20.246
-3.1315
200.37
26.614
-91.309
-72.604
-64.364
-48.317
-10.804
113.71
116.1
127.14
-120.72
-160.46
-88.65
58.128
32.526
47.129
-61.365
-14.882
-49.307
-44.491
27.262
8.4771
-7.1878
58.342
9.6317
5.6431
34.12
147.05
-60.59
-58.558
-106.37
72.59
85.568
-64.754
-42.962
23.879
61.21
-73.351
93.089
88.797
-34.024
-10.303
-25.233
-11.671
80.705
-52.204
-119.82
-9.5248
-8.3237
-27.88
-38.483
-4.8314
159.86
-91.998
-7.8484
37.482
-140.99
36.475
212.2
12.383
-6.5381
-77.837
-18.168
7.4533
-119.72
32.316
-29.08
-80.406
126.56
70.233
-50.678
-37.562
-38.105
84.929
99.116
-9.3936
-53.911
-64.545
1.5955
10.4
35.014
109.27
58.406
-87.452
-48.865
16.831
-78.615
38.612
-8.8289
-0.80086
29.126
36.305
-248.41
-53.116
118.03
-15.86
64.36
116.01
-16.03
-6.0479
97.576
-94.863
30.276
-6.5818
-73.558
-20.607
3.4717
-42.325
9.2639
8.2109
19.266
-6.6988
-23.256
38.982
39.426
112.02
44.457
-46.656
-91.453
-78.432
1.0828
20.155
-29.842
2.0659
27.319
70.904
18.937
-37.834
76.257
57.181
-41.912
4.6124
-26.756
5.4149
-18.386
-80.084
-57.316
47.427
-41.176
82.19
-29.574
-58.715
11.691
-68.929
49.259
87.085
-44.169
20.025
12.125
31.724
36.709
-5.4117
-36.471
-82.637
-42.574
33.04
22.199
2.3136
14.956
4.5813
7.8554
17.954
4.9052
-9.3578
6.9105
11.362
-2.4909
-1.2765
13.493
-4.0094
4.8873
30.315
196.11
82.694
-95.495
-55.19
-39.004
-154.97
-305.41
81.851
153.22
26.469
-32.958
37.317
53.244
43.204
45.158
-14.949
-33.22
-29.762
18.98
15.805
-34.133
-3.5278
-6.6935
3.9037
70.462
-15.305
29.692
3.1057
-51.704
-24.999
-165.05
321.12
35.458
-135.32
-158.24
-89.199
178.01
65.552
-53.646
-7.6787
-17.265
0.44912
8.5771
-40.318
-31.044
54.121
190.98
0.75587
-123.08
-87.118
-76.546
70.488
96.286
29.455
-99.882
-79.053
-26.86
3.8014
-4.353
27.344
87.692
135.76
-22.272
-124.16
-32.79
-48.177
-87.4
-20.923
2.3671
28.545
45.113
38.296
14.154
13.07
37.242
9.8517
20.137
21.175
-4.8308
-10.777
10.675
-4.6354
9.2941
32.524
-71.277
7.0772
18.902
-18.066
30.216
44.359
8.0037
-0.6188
-24.949
-18.974
16.781
49.664
62.502
-78.029
-91.578
-13.039
29.191
3.2162
-32.939
-53.225
50.633
55.6
-6.7353
-14.307
-6.5281
0.36662
-0.25248
-0.61566
-2.2888
-4.8742
1.8606
10.321
3.4856
-6.5905
-1.1576
2.2727
0.94701
0.27429
-11.68
9.9818
-25.305
-2.7563
43.022
6.6735
-11.497
-19.971
9.678
-6.179
-5.86
11.68
-8.8708
-2.7532
11.777
13.277
-1.2573
-14.408
-14.698
-19.322
17.66
18.027
-2.8397
5.478
-7.5144
-8.3271
54.667
56.736
-3.7012
-58.073
92.591
25.301
-39.163
-50.77
-7.513
14.61
21.607
-45.775
25.125
47.168
6.081
-50.533
-54.789
-103.15
-29.604
18.978
8.902
5.299
15.041
1.4543
-1.3459
5.432
21.137
-8.9883
43.143
30.828
-78.816
-1.5876
13.281
-8.5906
-48.69
-65.769
82.258
174.69
4.9837
-42.711
9.9763
-39.379
-68.017
-2.5136
-32.897
-55.735
51.023
56.663
-0.4405
14.057
30.044
23.754
-0.56896
-31.029
-20.298
-15.602
12.606
1.9699
-16.724
-8.8828
-11.44
-34.387
63.361
179.73
-61.644
-95.833
-18.542
-20.922
-1.479
-9.6335
3.8842
7.0027
0.77138
-1.9243
3.0873
7.9623
-0.22269
-0.95355
2.897
4.468
-2.2048
-4.6329
8.3171
2.2131
-6.5466
0.25318
7.3619
2.7384
-11.02
1.3525
6.2025
1.5426
-11.063
5.0308
13.164
-3.5456
-14.904
4.458
7.4984
-6.9363
-4.8292
10.27
-1.8436
-6.4666
10.905
12.749
-11.128
-3.5752
13.667
28.993
3.8213
-24.74
-0.5318
-9.6352
-2.0859
14.711
4.3798
-8.7481
6.7923
12.739
-12.381
-5.599
13.16
-5.4348
-9.095
8.3037
3.1984
-13.456
3.9974
9.4388
-12.002
-0.72114
9.6869
-10.578
-15.354
7.2457
7.8685
-9.6796
6.8038
0.76623
-3.5032
5.2394
13.656
-0.1402
-8.4822
8.6648
7.7815
-8.7331
-4.8589
-1.5731
-11.482
7.227
12.962
28.371
52.235
-53.26
-51.178
-14.411
5.4061
-16.214
-10.443
8.3256
22.263
6.7436
-4.4028
9.5654
4.1987
-6.182
6.7225
2.4133
-8.9332
0.51663
-0.99875
-8.3153
5.2463
-1.0193
-9.3266
5.147
10.816
-4.9534
0.96749
8.3055
-3.9433
-1.8658
7.4897
0.34209
-9.1706
2.0952
2.2451
-0.49046
-9.8667
-7.278
3.1161
-0.692
4.8757
2.8248
0.26233
4.4408
2.1387
-5.6653
-2.9102
3.6204
-1.1196
-4.8105
0.20845
-0.52643
-3.8879
6.3763
5.3752
-4.874
2.6234
0.039
-0.56705
7.3849
2.005
-9.1735
-2.1474
-2.88
-7.3856
6.8229
-3.1839
0.021145
9.1486
-4.7576
2.4343
-8.6077
-3.5785
14.183
37.997
-90.413
42.519
96.412
8.9743
-43.013
-24.749
2.6579
37.32
30.233
-56.892
-46.441
-14.653
-24.531
12.482
41.449
0.32696
2.5256
6.4707
-47.002
-38.97
40.193
-6.5512
3.4814
-8.5246
23.762
59.405
29.335
-17.455
-0.16226
5.71
0.90053
-1.2168
-107.96
-27.494
31.886
12.418
6.394
-9.6843
-7.8793
-86.789
-46.356
135.92
80.264
4.0607
-51.385
-41.933
56.66
4.9323
-69.333
-56.074
151.72
68.432
5.4808
-91.669
79.305
-272.55
-44.209
203.4
-26.593
-55.041
-54.066
101.62
125.43
56.966
-101.27
22.792
93.542
-38.773
-40.788
-163.87
-27.437
1.2071
48.418
-37.071
-89.408
108.23
43.821
-17.171
53.204
141.31
-83.766
-5.5721
-107.43
-69.583
30.618
40.845
20.322
14.615
3.7736
10.194
10.371
11.912
10.209
-10.04
-3.3802
9.2605
-7.7735
-3.3833
-5.6542
1.3203
-2.06
-4.1847
3.2412
-3.9439
8.0756
-6.0847
-3.2949
2.4591
3.3887
1.4141
-20.795
-42.837
-27.519
82.545
78.301
114.55
-26.938
-150.54
-8.3892
61.351
45.659
-29.262
66.123
-326.1
20.339
102.06
8.2485
66.646
213.04
-35.01
-131.18
-80.982
-207.77
-52.089
175.4
139.77
-16.974
-13.767
-94.664
-101.04
108.54
69.558
24.821
3.6398
3.8474
4.7997
11.935
0.17041
20.944
-1.5305
-4.7333
-4.6446
-10.531
-9.8066
-6.0895
-1.004
-4.0963
-10.62
8.0787
-2.6171
-7.7799
-2.0159
-12.175
4.7659
6.2964
-12.905
-12.315
-13.802
-8.3135
6.6327
15.235
8.7142
-7.0389
6.0825
9.8579
-3.8495
0.46768
4.5657
-3.8505
3.2037
3.3838
-9.9647
2.0876
-0.075906
-5.7012
5.099
-1.7268
-4.186
11.472
-0.14688
-18.935
-12.771
-54.001
12.517
53.982
12.983
-21.463
116.38
3.6318
-85.185
-46.89
-15.41
57.389
138.11
-8.9748
-83.197
-12.255
42.772
16.977
-84.481
-73.339
-46.733
61.327
61.102
4.9466
24.139
22.976
45.379
-82.22
-33.667
40.357
19.441
-50.139
-26.72
-62.505
98.01
16.908
-57.054
12.95
-4.3611
7.2622
-32.147
-9.7661
-1.9376
-0.4674
35.24
36.077
-16.074
25.631
61.672
28.613
-45.726
13.433
-40.256
-63.324
3.8899
-22.712
-11.206
76.73
34.186
117.78
45.286
-186.01
-205.41
126.81
30.846
-23.936
20.675
39.003
12.013
20.633
3.5823
-34.742
-11.368
7.617
18.065
6.5081
19.445
25.852
1.0124
-0.9414
-57.38
-17.87
46.084
-36.054
-55.84
7.6538
-51.274
-2.8788
158.95
20.87
-40.5
5.4646
-32.395
-35.77
13.233
24.812
23.777
-11.491
-89.977
14.91
23.292
-2.3088
34.191
-19.512
-27.36
-1.2484
7.2963
-19.64
-10.563
28.679
32.372
32.893
-5.6479
5.544
1.2242
-19.48
-13.214
-100.74
-140.68
63.727
126.54
35.053
34.223
-5.5353
-14.499
-42.996
-10.024
25.367
4.6534
-10.292
0.62674
1.0935
0.24729
10.574
6.875
-10.129
0.34579
1.6717
-12.81
-3.7032
10.18
-1.8757
-14.643
2.8394
16.559
2.1106
-5.6934
1.3422
-36.525
-91.351
160.41
143.15
-13.869
-85.498
-53.553
23.807
20.291
-5.3003
15.69
40.092
8.4403
-37.305
-71.351
-133.24
-46.687
231.05
-48.451
-32.447
-21.207
15.072
-4.8029
-83.225
1.0311
1.9936
71.339
49.061
-8.6764
-11.073
7.5344
5.8792
60.227
-188.81
-71.618
122.38
69.175
59.253
23.067
35.593
70.483
-21.036
-18.485
-20.369
-79.331
0.84016
101.92
69.195
-172.63
-110.59
-22.773
-4.7028
-5.6547
-12.759
21.727
103.59
49.729
15.312
-33.485
-39.608
23.798
25.31
-61.098
-9.8019
-11.133
-58.2
13.848
-7.0743
3.1893
81.589
-29.235
-64.128
52.344
9.5618
58.559
-5.2302
-42.501
-6.1826
18.982
8.1351
-9.5794
-5.538
2.7428
-2.5612
24.205
-10.287
63.908
-13.756
-110.32
14.773
0.84683
-13.294
-75.213
87.835
27.172
14.285
27.506
57.648
-43.454
-16.645
-14.25
10.052
-8.6514
-0.5115
17.614
6.8231
-10.494
-9.6327
14.539
1.646
-11.013
1.7794
8.0241
-1.9493
-3.3687
8.9244
-8.9821
-9.3742
7.4619
4.9254
-10.282
-1.2405
9.6752
-2.5681
-22.024
54.802
29.117
-47.769
7.6578
39.082
18.019
-35.055
-48.094
-16.453
2.9344
-5.4857
15.547
-5.8681
-30.019
10.503
38.769
-29.593
3.5678
-6.8436
-9.4911
-41.335
188.51
-58.598
-135.01
50.425
37.365
24.426
-12.439
-17.332
-58.358
16.837
29.257
-30.314
-110.94
-16.148
188.96
16.437
-33.195
-5.1443
-5.8078
-11.741
-12.559
10.815
6.1171
-5.8923
-1.3298
25.712
-10.306
-23.146
-1.6652
12.263
-3.2364
-3.7749
7.9248
15.7
13.526
6.6616
-14.846
-27.575
-12.833
-7.2569
-3.3813
9.8447
38.971
-2.4975
-38.399
12.215
27.023
147.47
-8.1333
-120.64
-87.071
-9.1664
80.041
-38.733
18.437
-20.324
4.4151
10.801
7.0661
-6.5533
8.2309
4.7038
-6.1537
6.6146
-1.1494
-7.9233
0.14485
3.1533
20.581
33.716
-25.113
-26.25
-16.298
-2.9827
1.0177
16.24
19.053
-44.881
-89.882
23.51
82.755
73.73
-13.382
-3.0274
-5.4724
-14.764
-19.587
-11.006
-33.292
19.267
4.2981
-9.8691
17.265
-8.766
2.431
7.3895
-3.5046
3.8603
3.372
0.42151
5.334
-3.8151
7.9147
7.0942
31.416
97.815
15.913
-67.869
-44.377
5.9959
-211.68
-66.242
217.88
6.2152
-32.164
33.406
31.595
-26.622
-16.413
3.389
-15.232
-53.622
74.134
81.103
-121.97
-45.404
36.911
21.961
-77.284
-8.0167
23.79
23.839
84.333
165.96
-8.6397
-104.12
-150.22
4.2775
228.96
-178.94
-115.52
104.35
-12.659
1.8287
147.93
9.6259
-22.933
30.914
21.155
-145.91
-132.13
65.134
5.27
66.107
6.8452
-26.015
16.264
43.017
35.455
-16.264
-22.964
-12.313
-9.6227
-5.5843
11.21
43.033
-24.12
-54.004
57.634
-28.864
-137.19
19.711
38.352
-5.9936
11.756
-4.3866
-22.428
89.432
74.868
-95.264
-58.69
25.68
9.0457
2.7596
19.045
1.0528
-10.377
7.7617
12.46
-6.5542
5.4802
7.106
-11.752
0.4736
14.986
-1.3397
-3.0486
13.769
-1.4747
-2.5584
7.4516
0.8382
-9.8175
0.76168
0.008829
-0.90681
19.18
23.675
-9.8483
-42.529
-14.203
9.4547
7.5183
15.307
-2.2426
12.721
-12.188
-11.973
7.6022
15.35
10.449
-9.9138
-8.5748
-8.7825
9.8249
-16.428
-19.121
-29.631
21.351
25.721
27.985
-3.1334
-36.14
-26.391
4.5388
5.0286
-5.604
15.438
3.4661
-9.5438
16.167
18.108
-2.7801
-16.958
24.82
4.6265
90.24
74.743
-87.925
-87.644
-42.814
3.1596
-12.936
-17.412
20.157
41.93
20.326
23.317
54.442
28.65
7.7147
-140.45
-98.431
96.94
21.839
153.34
-14.105
-276.77
-72.249
118.3
104.81
29.554
68.682
-7.5877
-68.327
-130.59
-40.548
53.531
38.421
21.495
8.2886
26.186
-12.908
-47.945
-22.811
5.2543
91.398
110.87
20.424
-26.19
-86.418
-48.252
-51.292
-20.411
23.827
24.792
-8.1919
12.971
-10.674
-6.5023
-52.745
38.64
52.333
-109.15
-17.386
36.369
13.685
0.60832
-31.822
-45.226
97.233
71
-4.693
-43.001
-31.699
-51.327
50.821
176.78
44.755
-109.46
-34.64
34.897
-69.04
10.235
21.71
-49.147
-83.24
-8.2595
19.305
49.887
8.8961
-11.764
7.6975
14.929
3.0583
9.9966
55.939
23.5
-88.611
-6.0928
34.597
-24.047
-10.628
12.871
21.282
32.074
31.383
-6.3111
-89.353
-31.103
24.513
-20.731
-34.367
15.681
25.09
9.4084
15.653
9.4916
5.8249
1.8762
-12.463
0.73274
12.233
-7.1859
2.1404
11.435
-9.1874
-13.93
11.824
14.048
-2.1392
-1.6653
21.087
5.1767
-11.691
-45.324
-19.415
32.715
11.544
11.359
-29.677
-57.837
-42.981
53.114
59.159
24.231
-10.661
5.6629
18.399
-11.392
4.013
16.944
-2.949
-3.235
10.967
-12.33
-1.7001
18.031
-11.694
-1.0468
5.4189
-23.873
13.865
1.8717
78.84
117.41
105.8
-112.3
-142.47
-82.428
35.376
3.7326
-38.779
7.9274
22.373
7.66
1.2373
0.081698
-9.0569
21.557
16.44
29.05
-23.123
-27.788
8.3862
-33.002
-22.344
21.835
-42.375
-57.318
194.02
-5.8987
-190.94
62.813
-16.841
-41.455
22.889
39.599
8.8042
14.147
-52.547
-44.532
77.774
3.1287
-41.393
12.389
29.568
17.17
