3.1512
-4.3342
13.535
12.427
129.46
86.474
-472.66
49.342
154.72
23.529
6.5788
-4.3347
-10.944
-7.7447
39.044
-3.7922
1.0042
4.5168
30.993
-15.325
-53.428
4.2192
-210.18
-41.459
140.78
230.06
64.055
-34.717
165.67
63.883
-12.82
-106.4
-412.96
-107.13
-0.72409
27.737
73.74
85.522
26.345
-21.686
21.235
24.594
-9.3114
3.4648
29.078
0.53794
-4.8703
22.02
12.521
-21.669
11.543
27.382
24.831
-23.448
-271.95
139.22
205.68
-142.89
11.631
22.274
19.257
25.282
-0.49142
-10.778
15.03
6.6965
-17.466
-3.9815
14.401
16.118
76.35
263.36
-12.989
-241.95
-40.167
39.352
-175.12
-79.64
-96.696
113.59
-26.939
36.235
30.19
-3.55
15.093
-21.615
-107.34
150.55
142.83
41.317
136.55
-35.548
-99.182
183.07
-140.09
-371.25
142.85
65.66
-309.58
88.198
97.797
45.22
68.212
-38.987
118.99
-28.659
-195.11
92.728
-6.4834
67.354
-179.81
-6.7748
54.687
216.48
-58.651
-212.8
-103.07
170.21
341.24
-105.87
-177.26
-255.35
65.302
30.864
134.75
44.591
-155.74
81.233
-26.73
-250.6
267.35
417.24
-50.523
-387.89
-331.39
67.408
289.66
176.53
-45.509
-25.385
34.721
39.132
-76.527
25.794
-62.237
-63.925
27.331
-12.339
35.605
38.637
34.99
11.006
4.0349
14.591
28.492
-22.644
11.151
53.635
13.78
-24.217
-64.402
24.098
-56.066
-50.454
-21.204
-58.971
-99.299
128.73
146.86
-46.851
-22.09
-40.442
-79.806
2.0367
-179.34
50.297
434.79
-8.9146
-142.46
-47.091
2.1078
17.664
-54.991
3.3017
-90.092
5.1493
135.77
-32.774
23.347
-14.31
6.9822
-32.118
-44.267
19.95
-7.6944
-51.618
-19.117
82.755
49.67
33.484
12.541
-72.291
-81.659
-23.493
15.292
80.105
15.306
-13.365
39.031
113.85
9.857
-106.74
21.491
-40.668
-8.7596
5.0827
-32.146
6.8978
64.433
-9.7243
-27.477
8.3157
-12.289
-24.357
-3.6716
10.592
-7.8608
5.7475
-5.3567
-4.4473
-78.454
20.538
138.13
-25.294
-0.33774
-5.197
-14.132
-6.4098
7.9046
0.84742
4.4099
17.331
-21.228
-14.784
1.7715
1.2431
-8.5945
13.571
27.833
-13.973
-14.978
-2.7911
-45.049
-113.96
116.87
49.043
-94.418
19.807
24.97
-9.8559
4.3633
24.695
-1.9679
4.2892
2.8473
-19.4
-26.888
-52.473
-41.047
133.65
-13.311
68.887
2.4398
-4.2633
74.708
13.018
-22.401
19.67
-19.538
-22.535
39.029
7.8143
-37.059
6.7992
-25.302
-31.057
-10.492
-37.939
-83.312
100.21
26.521
-35.308
14.797
2.0801
-46.371
-5.0007
22.832
-7.1672
-0.35644
27.172
-15.836
-18.806
37.291
1.8178
-33.128
29.403
35.191
26.263
2.4584
-23.714
-47.385
-11.889
12.988
-109.73
-4.23
9.2537
7.6753
24.945
10.695
1.944
80.931
-141.98
8.0075
370.22
-59.266
-229.36
-2.4986
60.337
47.475
18.972
36.373
12.988
-41.863
-42.521
-3.9556
-4.8568
12.297
3.8283
-18.35
1.1123
-22.947
-43.283
-145.92
98.562
79.085
-60.994
-10.989
14.417
43.119
58.976
-15.407
-37.004
-133.15
33.816
76.013
-47.253
25.221
-11.814
-26.704
-152.04
58.298
283.9
41.803
-240.05
6.8184
91.81
-40.545
21.138
-31.433
-39.335
42.828
35.545
-27.43
-30.96
28.228
48.01
-7.935
12.56
7.6636
-11.302
-8.5483
-24.097
-2.2909
-48.541
9.9873
89.659
-35.492
35.825
-4.9253
-34.056
-51.306
-58.668
30.295
66.47
26.341
-16.406
0.21176
32.821
-34.325
-24.715
-147.15
-196.88
251.75
101.57
160.34
-103.76
-118.29
-13.189
-17.275
42.929
-5.4058
-2.0605
26.239
35.997
-52.448
120.06
-52.24
423.75
259.33
-607.55
161.73
-89.686
-46.482
40.056
-134.46
-95.13
-116.22
-108.89
175.38
67.939
43.328
20.398
10.901
-2.5536
18.71
2.5639
-10.089
8.4624
2.1059
-10.51
5.8423
5.6459
-5.0407
9.0933
-0.45286
-12.498
4.3176
2.3668
-7.3942
8.8058
4.3321
-6.2093
6.2174
-3.4816
-12.607
5.0123
4.6943
-7.9566
8.4696
13.159
-17.93
-5.5307
5.0918
-3.9678
15.168
20.148
-19.017
-14.572
14.807
-3.9071
-4.2744
2.5668
-4.9138
-18.542
-4.2678
7.9349
-1.2955
4.6769
3.4155
-3.6595
7.4543
2.782
71.706
190.86
213.57
-230.33
-579.52
102.37
93.656
9.2303
54.256
-10.382
18.505
18.561
7.1129
6.2395
78.404
115.43
-55.868
-84.146
-18.379
337.79
151.4
-330.24
-393.61
164.58
-49.16
-193.87
-354.64
182.64
371.53
156.61
152.74
185.43
-13.729
-81.388
-19.655
-161.59
-502.36
-301.04
77.46
224.43
360.63
124.36
54.303
137.97
-3.4551
-258.4
116.48
-22.544
-319.74
-62.674
216.38
42.153
38.044
-138.22
52.719
3.6499
-106.9
154.08
-6.1613
187.96
41.969
-123.12
-148.5
-201.32
118.27
65.622
74.901
-146.32
23.423
-42.414
-18.54
-19.625
135.4
255.92
8.4827
-278.49
85.731
38.016
-178.34
43.968
115.85
90.528
-66.418
63.261
-84.134
-68.859
-262
10.742
125.01
78.258
61.392
9.9534
65.143
15.013
-158.01
-129.67
206.39
-32.13
32.762
113.17
-215.04
229.28
68.953
-213.26
-130.37
43.28
-41.46
174.84
260.13
2.6065
-269.9
-101.32
-67.894
-11.308
131.56
-57.362
-59.809
327.91
202.15
-232.18
-141.37
-152.18
40.935
111.32
-129.44
51.509
10.36
16.962
-9.5241
20.53
3.2595
19.408
-1.2351
-135.64
148.73
59.555
-65.308
4.1474
48.65
-32.631
104.01
-59.874
-167.04
53.778
-24.206
-25.202
45.365
75.531
9.9018
31.353
-23.979
-8.6089
-47.565
26.454
-26.683
41.404
2.7262
4.0972
113.19
-116.03
-292.79
148.29
-2.4525
15.472
92.616
111.15
-119.09
-79.023
98.999
129.27
-219.02
14.5
124.68
30.257
23.534
-148.44
5.0144
11.784
25.816
-84.075
229.64
-60.467
-138.52
64.905
-32.998
59.122
-18.807
-74.185
70.395
48.876
-48.721
-2.4118
-4.1705
105.43
-8.1884
-183.72
38.56
110.16
-38.019
-205.61
161
-12.262
-50.701
-71.824
84.211
118.22
-40.336
121.59
-83.738
-221.48
90.243
104.72
52.305
36.37
67.728
-267.01
46.507
-115.72
-18.3
335.63
-143.62
-151.71
199.44
-27.722
-28.721
116.09
-60.8
-21.854
-197.37
138.78
-90.863
46.258
44.002
-8.1294
65.678
-64.336
-8.8522
-174.28
199.34
-29.278
10.724
-19.056
135.23
240.1
-326.73
-41.079
59.157
-80.99
6.2429
192.28
20.504
-203.73
-56.563
-156.43
149.49
269.86
-80.933
-328.75
135.45
147.7
-32.511
118.61
18.006
8.3525
-220.25
-34.57
221.68
-81.188
-87.328
-77.766
103.85
96.424
-5.3086
-135.99
-10.185
127.46
-159.04
63.389
157.72
-217.85
22.891
183.35
-29.163
134.22
-81.615
-176.06
62.009
-51.063
84.309
19.974
104.17
-65.874
-194.39
43.374
195.97
-162.75
-136.31
-3.699
-28.754
272.19
-20.108
-253.46
37.51
-76.44
5.0081
221.92
-41.603
96.385
130.53
-144.2
57.679
81.488
-56.395
-105.13
62.819
-54.02
35.478
-56.931
-63.216
79.851
-11.515
154.5
-64.945
-134.16
24.193
122.79
-224.95
83.869
-61.682
79.795
114.3
172.64
-52.981
-283.22
-16.975
81.16
0.51926
-9.4102
-106.68
-63.478
120.33
22.805
67.907
-168.85
-75.446
162.18
60.38
275.54
0.25123
-360.7
21.035
174.47
-113.62
-79.017
17.186
88.894
-120.06
52.242
56.578
-17.75
109.17
-128.93
-74.837
-54.151
216.14
24.563
2.6536
-63.851
-184.7
159.61
36.705
43.936
-290.53
82.677
232.64
-61.366
-75.783
56.068
99.585
-344.05
152.96
70.932
-80.685
39.685
28.863
-39.75
-60.436
4.8993
2.853
133.08
1.9242
-98.476
147.01
-68.528
0.066907
55.91
-89.931
-26.415
-9.5453
1.7621
-124.95
72.192
194.32
116.57
-122.69
-75.776
107.06
-126.21
-181.67
176.24
-19.757
112.07
-23.49
-84.433
-21.026
-218.78
44.801
79.292
25.068
166.39
68.02
181.97
-317.04
-56.279
15.61
9.879
-41.45
-64.91
86.499
39.893
3.0507
43.45
-30.842
116.38
-1.1363
38.468
-197.9
31.453
102.56
-246.74
228.13
36.621
-268.47
169.25
-89.286
116.24
109.05
-279.95
175.47
154.83
-222.79
131.96
21.034
-272.5
-30.421
267.25
82.57
-156.84
69.841
-61.027
-131.33
-158.22
136.07
274.25
187.64
133.37
-308.07
-350.53
226.67
94.602
-316.29
-29.623
221.01
33.244
7.5689
-32.621
-35.214
4.1013
17.154
-3.4487
77.329
-172.35
91.634
12.2
142.6
-35.596
-229.84
71.814
3.931
18.348
-57.146
-97.919
145.65
48.677
98.37
-56.338
-24.135
297.05
-103.74
-346.38
-113.23
138.96
203.94
-100.93
-52.888
8.2315
96.441
284.35
-59.976
-468.1
35.564
189.36
-270.22
178.07
16.551
98.206
-26.208
70.993
-146.76
125.52
-206.38
-21.676
92.351
143.11
48.203
-154.05
-26.35
14.053
-83.833
56.887
235.35
-10.053
-240.94
2.2543
93.286
-14.173
-101.44
-61.643
204.79
-51.078
159.21
-156.29
-80.652
178.06
-99.266
-2.5922
11.368
-42.144
44.352
6.4628
-50.004
-9.421
44.168
-34.066
117.91
-226.41
109.4
-54.754
45.695
142.67
-82.246
180.04
-259.93
97.419
65.812
-190.04
229.95
-145.52
-137.1
191.11
-102.67
-66.909
17.231
160.75
-130.87
36.517
29.854
-90.253
-83.609
108.1
124.28
47.692
-70.397
76.667
-81.642
-105.87
3.6627
186.52
15.634
-173.93
95.816
-16.658
-89.134
20.421
30.431
31.578
-33.602
-109.01
141.5
-61.501
33.25
-11.427
87.076
12.305
-43.056
-54.199
-30.176
-92.286
-88.068
264.77
25.779
-180.04
62.911
104.09
35.335
-139.48
114.51
-35.557
19.958
-2.2512
-35.659
35.981
-94.427
51.663
362.51
-245.36
-56.706
-126.42
-93.175
225.98
-110.76
235.15
-324.9
50.984
65.768
52.76
-43.238
-26.403
-65.075
-168.96
277.72
86.051
-231.96
271.22
226.34
-229.18
-481.93
60.66
225.8
40.168
207.47
-52.99
-320.78
-17.643
126.98
-44.302
202.93
200.09
-140.7
-158.17
-151.33
175.56
38.83
103.94
-143.59
-148.24
77.208
113.55
-174.64
100.25
109.73
74.771
-24.51
-239.19
19.521
45.035
88.507
15.628
-213.23
-8.5007
239.77
90.455
-31.35
-121.5
-44.046
107.7
219.59
47.521
-418.11
105.29
-62.968
42.604
-49.77
72.612
-17.939
-362.71
56.754
273.83
41.342
2.0452
-21.688
-93.783
256.34
-207.27
-193.76
150.7
183.77
-70.094
-160.19
61.093
-100.99
74.335
259.49
39.899
-140.29
-131.15
-49.002
56.965
112.4
-85.902
101.76
-113.35
42.91
-10.196
218.04
-147.98
-120.55
-126.3
135.76
-17.723
-33.373
45.913
57.125
-77.898
50.047
349.31
-51.705
-235.08
-172.62
87.391
268.06
-90.213
-218.21
-1.0949
46.692
-13.633
-174.74
-8.8831
283.57
6.1621
9.7577
29.894
-336.99
91.436
132.81
-7.8986
109.54
129.62
95.182
-238.03
-124.35
110.67
-153.49
117.44
-12.782
-203.64
386.06
-20.481
-62.314
-236.2
-20.692
209.89
-180.27
1.7004
124.15
-115.08
63.833
-58.755
-90.335
292.88
154.6
-405.79
161.76
50.462
-386.13
65.532
318.14
135.19
-279.66
243.03
43.878
-189.95
-105.88
23.374
77.125
-30.992
40.114
-11.442
17.245
-47.9
-37.852
67.769
101.42
99.816
-61.381
-53.191
-39.874
-22.747
-2.2956
-16.446
-12.313
15.466
-4.9244
-10.083
16.059
-10.347
-7.9065
-1.988
-70.098
-207.74
260.9
204.11
-46.844
-47.245
-33.108
-27.891
-71.308
-15.135
107.44
-83.978
2.5717
-64.499
-48.313
72.641
130.98
60.419
13.532
-52.572
-144.84
294.68
-276.09
-132.32
78.085
-51.554
18.828
95.684
15.71
2.7431
59.827
-19.421
91.389
95.148
-128.17
-105.43
-27.737
27.108
97.388
-22.949
-3.212
-82.151
49.768
-84.339
87.961
220.17
-43.927
46.368
-303.35
-73.724
180.33
-156.67
61.345
-20.63
25.524
217.59
-126.7
-63.198
-7.8663
-138.12
234.43
-67.146
140.75
-161.27
33.967
-111.11
-4.9348
18.554
53.381
144.33
-123.28
7.5517
69.511
-152.26
-0.3558
107.93
-25.99
20.805
-47.848
-126.58
130.51
21.979
40.16
-115.5
35.381
132.16
-15.174
22.455
-184.05
-46.985
71.493
54.897
-29.397
-68.984
55.003
322.98
-183.47
-24.604
-87.706
8.4067
66.401
-76.611
96.372
33.964
13.764
-92.83
-64.016
118.7
-85.304
-13.211
-34.011
198.64
-147.39
-280.81
368.98
210.97
-223.37
-91.067
7.3893
40.041
36.563
29.469
-28.04
28.993
-276.51
-49.461
285.49
21.538
-90.487
64.171
-283.58
41.7
381.25
66.31
6.9187
-377.33
-154.62
288.42
79.308
-99.767
-46.722
-34.849
258.25
-103.69
-309.2
133.62
121.74
57.745
169.41
-50.562
-211.01
182.43
-54.864
-104.46
-396.99
7.056
391.56
-267.74
158.48
290.28
-104.7
90.72
-95.459
-105.68
55.075
-137.85
-64.763
204.07
-117.19
35.663
-26.546
78.058
56.56
91.546
-142.39
-6.0658
-99.002
76.594
-90.489
287.03
104.09
-347.79
94.476
-58.772
-88.168
112.93
149.4
-289.89
39.314
188.82
-33.045
105.95
-54.779
-5.5922
8.2609
-217.01
161.17
-128.25
37.282
164.29
-7.7011
-191.96
-8.4395
67.723
-64.931
-51.916
191.86
70.186
23.596
-80.999
57.998
195.63
-297.38
-352.63
149.23
73.034
63.325
-56.455
54.76
62.922
-110.55
157.82
-14.479
-105.8
83.142
115.31
48.649
-177.94
-25.735
45.427
80.518
-62.165
-34.541
2.3802
23.399
-6.719
-76.939
58.549
11.562
17.043
7.8414
-10.098
-76.327
64.645
-5.8778
-41.844
6.9545
-69.853
50.013
154.15
-214.13
12.054
52.879
49.814
12.191
-94.943
-158.05
57.113
366.9
30.345
-415.09
89.416
34.132
-2.7776
37.61
24.031
-17.22
42.459
-5.9919
-143.05
23.475
143.55
45.251
-14.16
-38.815
-40.286
3.6792
20.719
-23.213
-35.855
32.649
15.417
-10.391
-64.219
-26.288
118.2
98.255
-48.113
-233.9
94.174
-19.902
9.3702
110.22
-112.94
56.849
179.39
-243.29
-55.135
221.34
36.802
-116.36
-0.43865
-37.776
-68.282
86.644
27.583
-182.63
166.22
69.492
-114.27
138.61
-8.8948
-207.25
103.41
247.49
184.54
-362.32
-108.03
77.06
58.161
121.62
-229.37
-35.841
85.04
14.201
9.7917
-30.515
77.62
113.84
-231.88
-67.482
-81.921
286.6
53.824
-106.93
108.37
-360.62
44.543
137.76
9.3811
150.94
-258.42
-85.236
136.91
23.582
50.822
-23.779
6.4392
29.606
-18.475
-8.1916
30.51
-75.205
5.9491
21.162
-65.118
41.362
92.403
-82.416
67.783
84.297
-25.745
-27.474
30.501
-30.79
67.754
-138.26
-103.98
80.169
176.91
40.369
-213.72
-19.723
-231.97
23.337
236.07
281.75
82.183
-365.11
-151.93
31.317
201.19
144.9
-165.04
-101.27
-124.51
178.73
117.54
-156.21
-6.8305
28.606
-4.0269
-2.9279
-38.833
-6.7622
119.65
-96.015
-85.153
212.99
-105.63
64.631
-2.5167
-84.448
142.64
-52.931
-166.17
21.809
-0.72207
124.03
19.976
59.919
6.9809
-61.635
104.13
-20.205
-88.272
154.58
-78.154
22.116
-69.08
-219.36
97.835
-14.386
-16.469
283.21
165.59
-355.38
-213.89
89.532
143.61
269.41
-379.25
-241.42
200.34
46.467
253.25
-160.01
-271.65
44.515
76.396
-46.259
148.25
151.06
-0.9358
55.077
-257.84
255.38
-184.73
-130.99
71.767
55.465
132.48
168.37
-171.11
-148.7
186.68
-164.16
-229.45
-99.982
317.31
113.44
-77.779
-227.56
180.54
116.18
-175.07
70.214
201.96
53.731
-53.012
-290.85
30.487
170.93
-66.431
-229.54
341.68
87.399
-450.09
14.25
146.47
-3.4467
99.228
91.01
-66.843
-187.13
-44.777
255.82
-89.944
-102.79
62.199
81.425
25.56
-26.136
-37.058
91.312
-161.79
-17.623
179.83
-33.021
-42.86
33.468
27.476
251.03
-182.25
-264.62
53.516
-67.221
172.2
65.133
89.159
-86.515
-272.26
121.49
169.5
14.609
-175.35
-21.958
87.036
-51.861
70.804
-38.888
7.4208
95.75
-63.805
-135.3
73.445
-18.275
18.539
58.33
33.536
-2.4306
-117.83
43.376
51.348
-203.49
138.41
-0.71309
0.0066831
178.23
-133.54
-67.847
41.403
159.69
-113.85
-114.49
47.937
-24.652
151.97
114.33
-49.127
-264.11
-243.7
310.95
30.966
-91.651
59.451
20.092
28.986
57.349
-17.612
-52.703
29.647
-11.33
25.667
-41.923
-101.27
-27.953
109.07
145.5
-26.346
-28.037
-20.776
18.571
-180.48
266.9
2.5432
-182.49
-30.79
10.872
131.21
-31.423
-147.66
-140.17
99.147
143.34
123.82
46.129
-302.92
52.157
-148.97
92.852
279.48
93.706
-322.17
-87.17
126.02
-1.5853
135.17
50.62
-191.59
37.16
179.38
-257.63
-180
183.02
7.3709
64.646
-76.648
53.877
-34.081
25.408
67.909
-7.3612
-86.305
37.137
57.472
-116.58
138.36
-69.716
-131.08
111.17
242.56
172.1
-384.54
-84.075
73.36
20.582
15.788
-19.688
111.15
32.127
-268.53
83.448
-39.698
-13.162
194.22
73.554
-65.771
-65.459
-17.78
20.156
-40.577
134.24
134.18
-385.61
-138.64
243.06
75.239
-2.6051
-194.03
0.074208
100.85
38.783
4.0778
-58.022
79.931
102.06
-269.39
132.44
36.448
-168.91
185.47
1.2692
-44.603
-58.794
206.45
142.29
-424.03
4.8418
106.19
186.22
-30.308
-165.19
-301.31
250.83
116.1
170.75
-108.51
-144.51
12.871
33.078
-82.857
31.943
62.053
81.575
-192.79
-139.53
120.5
25.38
89.825
24.032
35.902
-42.034
41.455
56.94
-88.963
-71.287
36.667
45.16
100.54
-227.54
-63.866
123.9
-8.1071
0.35373
174.36
-170.44
-127.27
221.85
-163.06
157.59
-39.873
-97.769
91.595
129.4
146.51
-355.2
-76.077
82.232
52.821
53.996
90.341
141.74
-305.77
-355.73
261.69
199.67
237.55
-243.06
-252.72
140.67
-110.8
47.944
153.84
-62.568
35.655
-25.631
12.257
52.617
-73.419
-33.74
-28.723
92.757
21.837
-45.922
-49.799
160.69
-106.25
-62.622
93.228
-3.5694
-34.98
-104.16
-100.08
-129.97
297.41
623.01
-307.38
-271.76
-71.715
5.653
250.27
41.21
-579.61
122.68
157.36
-7.5686
-192.52
143.71
51.837
-83.567
-95.137
126.52
95.826
46.541
60.968
424.06
237.7
-625.79
-77.332
-43.556
10.421
-25.712
14.517
67.132
125.29
115.37
129.7
77.684
-193.63
-298.76
-224.29
-56.197
107.63
-68.764
125.2
82.743
101.29
33.066
-128.89
-12.405
-41.635
95.142
-29.031
-74.815
-4.7019
1.243
-55.438
-46.717
-112.98
224.08
-116.69
-91.931
400.21
-63.356
7.849
-32.71
-194.64
-154.6
-67.142
237.7
112.35
185.8
774.23
-459.55
-400.56
-12.498
62.752
-179.89
-77.655
70.834
-16.889
59.091
41.897
-31.664
-3.3829
58.321
5.6214
3.7458
30.693
-30.3
-22.671
31.212
-14.849
-32.902
-21.825
-24.852
13.144
34.232
4.2422
-22.085
3.319
27.218
9.1125
8.0068
14.373
-11.38
-7.7934
7.3866
-15.291
-5.7867
4.7966
-14.442
0.026682
2.0431
-12.044
6.6298
-1.4798
-7.2963
10.487
-6.9612
0.65493
9.5827
-10.24
8.11
-4.1336
-19.273
3.7006
-18.176
-89.066
-8.8301
270.16
-52.893
-16.665
40.767
-5.5578
-21.699
-12.467
-25.797
-35.797
3.4323
-16.382
-28.183
-15.072
-141.21
-90.452
199.96
15.707
41.038
-6.5568
-13.011
25.85
4.0211
5.8559
26.393
13.814
-12.978
3.3121
13.575
-9.4435
-22.321
6.6488
8.6649
-3.6735
5.4699
-7.125
-9.5007
5.445
-2.764
-7.1521
7.5312
-4.3547
-9.3105
3.5063
-8.1963
-4.4851
6.4746
-4.4568
4.1349
9.3865
-0.68895
40.868
21.646
-28.069
60.081
-71.511
-107.57
68.575
-1.0848
-13.885
22.629
-6.4714
13.61
17.258
-9.1303
-53.51
98.975
67.957
-62.686
-371
18.823
321.93
-223.47
52.876
255.6
76.612
-35.16
-56.215
-58.401
244.15
-224.83
-312.94
106.86
82.191
12.786
4.3305
-5.153
15.912
-6.0931
15.623
19.302
31.546
95.824
257.27
-74.828
-580.2
65.129
119.93
204.25
10.962
-169.67
273.94
126.82
-159.52
-21.864
-253.95
90.465
109.65
-103
-17.753
-6.3628
-46.496
-155.97
-176.43
-140.42
414.05
173.69
90.358
-3.011
-84.54
-45.419
-40.5
-33.143
58.208
22.713
-9.2836
-18.683
-16.303
-4.1386
1.3915
2.1331
25.193
11.665
-33.826
-12.392
30.125
-2.4595
-0.52983
-3.6413
-13.481
-8.5608
0.025832
6.1742
2.5712
3.6363
-6.4311
-11.56
11.319
5.9496
-7.445
-1.1913
-10.904
76.542
-116.67
83.563
-53.718
-51.63
93.045
9.0338
-2.2904
-78.745
55.751
-180.74
142.23
58.689
-91.652
178.71
-39.906
-19.169
17.541
-35.775
-103.24
26.659
106.58
26.072
-40.089
-19.695
-14.327
-0.49969
-0.39577
-81.764
-101.56
115.44
148.18
-4.5267
-58.856
-0.78145
-145.23
67.636
-15.951
-98.994
60.856
41.924
24.936
-9.7363
13.852
-50.659
-99.965
114.25
91.837
11.924
33.133
54.55
93.586
-87.787
-52.122
-17.007
9.6694
24.153
-20.595
-40.974
24.756
-3.3349
26.111
235.8
73.617
-230.47
-1.5528
290.9
-225.94
-189.97
-31.82
-98.68
-20.737
22.444
163.51
-26.395
-288.71
397.68
191.74
-275.11
34.895
18.435
-74.865
34.207
-56.108
-161.75
53.058
107.35
-12.115
23.065
49.494
122.99
11.062
-94.114
-67.877
-19.541
26.918
-27.328
15.5
165.12
22.456
-222.11
-39.017
19.861
-52.159
-74.026
-54.838
42.786
10.743
-12.186
-35.005
15.791
103.62
22.044
85.424
89.045
10.502
89.576
44.906
-241.13
-26.582
161.41
-92.507
135.97
75.837
-321.16
-25.034
33.272
48.612
2.6529
156.64
-331.29
3.7887
19.083
-98.36
-61.437
113.16
95.795
46.557
4.4866
62.444
-81.961
29.425
54.622
-33.61
-17.869
-36.278
-6.0872
17.337
5.9538
10.333
10.435
57.481
3.8626
121.88
45.313
-104.77
-107.17
-44.498
7.6652
-19.387
13.764
5.3057
-23.539
15.254
28.433
-36.265
-6.0184
11.931
-0.35702
-21.829
-62.855
239.83
-42.667
-125.92
-97.43
103.55
1.848
62.928
37.893
-42.887
147.2
-10.059
-53.927
-8.5381
7.1668
-121.47
43.276
164.57
16.076
4.5997
-44.539
-4.2008
-116.36
-19.681
-18.623
-6.904
-60.616
-103.34
-248.38
176.51
150.53
223.08
172.3
-151.65
-26.621
-116.03
-27.27
241.51
137.85
-142.76
-131.49
-62.307
-62.604
-151.84
36.769
-48.23
36.218
103.82
102.72
65.134
-31.378
1.1029
31.039
-30.351
-14.882
2.7129
14.31
-8.6913
-43.502
-4.0011
11.313
-4.1074
-19.627
-7.019
-27.057
-77.604
-201.27
-59.656
162
69.642
75.024
60.2
59.862
33.639
-24.211
-18.525
16.074
-34.145
-55.205
58.815
158.44
138.95
-229.35
-51.396
159.14
106.99
-166.73
-149.89
-37.564
13.011
-5.2015
-29.823
34.82
22.393
-27.744
13.29
27.213
-31.039
-8.6684
41.026
-9.9024
-28.235
29.145
10.671
-40.702
17.724
43.079
-15.003
-14.158
28.75
-5.9454
-23.559
19.448
7.5205
-33.718
6.8211
30.098
-31.687
-11.413
13.366
-35.568
-201
16.997
326.83
73.255
34.645
-28.036
-213.78
-184.07
86.985
39.536
81.816
126.42
-176.66
-324.1
108.86
84.45
146.11
252.37
417.26
-67.357
-386.92
-34.975
-210.3
-15.544
101.78
-44.439
144.95
-0.4941
-319.84
60.544
376.1
-4.6746
-192.74
1.8502
2.2421
120.21
-63.374
-266.96
-112.27
301.54
200.18
-74.235
-287.01
136.65
39.15
-172.16
-3.7667
53.856
67.251
300.31
-119.33
27.208
-133.68
-195.3
336.56
-69.115
-399.49
-74.728
223.63
36.45
174.7
-123.98
-51.398
164.87
-197.43
7.4773
104.52
33.576
-2.0409
-19.363
-53.132
32.063
-72.198
-32.89
156.89
132.85
114.39
-313.19
-116.9
99.112
-18.368
28.134
28.411
-108.87
79.73
61.598
-57.871
107.85
44.669
-21.086
-79.592
-3.9432
-59.92
46.565
43.145
-56.723
-47.826
73.922
87.14
-185.38
85.181
48.649
-22.179
31.311
80.405
-63.358
-223.71
-19.876
178.65
132.62
-56.206
-230.2
-35.629
77.88
-74.775
224.35
219.59
-214.05
89.318
-263.44
-104.87
280.45
77.333
-20.472
-81.689
-8.839
27.28
21.094
-9.3996
-68.419
52.549
-58.856
-146.15
171.04
28.358
-43.529
34.122
81.436
-30.034
81.352
-270.37
-128
196.99
-14.616
24.016
63.714
-5.9032
-140.55
22.552
38.675
155.04
-44.249
-112.55
77.767
-32.09
-4.4349
97.244
-123.57
-58.789
281.93
-113.74
-221.61
138.01
4.4444
-6.1041
-22.314
35.469
-43.375
88.994
36.734
-34.239
-88.339
4.0695
40.819
59.314
-100.8
37.399
-22.879
-112.54
135.31
-16.321
182.63
-37.436
-62.769
-119.51
161.34
222.43
-253.7
-146.65
82.894
7.6435
-3.4805
27.232
-35.773
-128.59
210.03
92.156
-296.57
24.472
39.52
15.134
11.526
5.9509
8.273
-2.1931
-10.419
-19.896
26.921
89.785
149.01
13.77
-343.7
42.654
5.4731
14.623
-5.1041
76.382
95.317
-165.07
45.416
22.652
-57.172
66.231
62.383
-86.679
-82.799
108.28
132.54
-117.38
-11.546
10.188
-206.13
16.108
104.45
27.166
16.124
-15.239
-39.941
69.479
-11.542
63.887
-82.165
108.9
46.688
-275.88
61.317
156.82
41.643
-102.42
2.7027
-251.59
101.67
417.66
-3.9532
-453.6
52.263
60.174
-5.1546
-27.186
7.3661
79.326
-70.62
118.76
153.57
-152.88
-208.25
112.55
8.0887
76.347
-41.817
-50.14
-55.652
114.53
247.01
-271.81
-49.607
24.424
20.851
-37.268
39.889
-40.219
-56.246
157.35
265.2
-141.15
-214.77
-14.023
-33.972
37.941
23.961
0.63053
6.4094
26.319
-20.624
3.3493
13.05
10.264
14.892
19.347
1.6529
-22.013
14.453
-40.061
35.66
-214.42
-28.027
227.42
131.79
122.73
-43.893
-100.33
-104.73
-198.44
-92.817
64.046
218.7
36.682
52.905
5.1075
-37.683
-4.1596
70.715
23.259
-48.956
-309.14
53.604
221.62
-61.145
-47.858
8.6884
-60.904
-43.337
149.4
18.144
26.943
-45.637
70.493
-6.9115
-72.744
23.236
-17.936
32.711
-13.503
56.746
35.567
-146.7
71.466
-5.7121
-59.667
132.72
-47.643
-57.687
4.4755
-65.399
110.41
-84.422
190.72
34.205
-94.862
-155.41
61.292
-119.08
-164.12
111.21
87.892
128.26
13.602
-135.24
167.62
-254.71
-130.18
246.43
39.444
-12.532
-68.399
82.542
362.34
-204.85
-386.27
71.273
83.484
39.197
14.551
-47.636
43.39
28.032
51.676
28.788
18.895
-113.38
189.46
-140.18
-203.13
1.3756
44.525
68.285
-22.141
12.842
128.6
40.905
-104.08
177.97
-65.001
-139.55
84.431
-77.189
49.309
58.68
-54.518
-47.085
-107.49
11.359
63.666
22.806
35.526
-12.518
11.207
-21.529
36.345
-24.822
-147.39
75.141
-4.8563
47.909
4.8751
9.9982
-17.636
-10.83
11.304
45.735
21.397
-82.456
31.894
20.752
63.079
36.12
-23.782
-48.24
0.052868
0.95661
-83.542
91.909
-64.697
12.32
-16.227
-15.705
13.374
3.5089
-0.031841
-1.5894
16.85
-8.3063
60.173
-77.093
-67.322
194.27
3.5813
-119.49
11.181
18.885
208.94
-224.16
-105.6
139.72
-0.11109
-76.985
-62.025
-4.1226
66.348
108.6
-233.44
17.894
138.48
-98.733
113.8
248.13
-106.79
-290
68.066
1.8205
115
-69.028
102.11
-41.734
-305.94
154.39
72.144
126.74
-63.31
26.025
2.7528
-192.39
88.017
13.531
-3.1266
15.875
10.845
-12.154
60.483
39.059
101.61
-149.78
-1.217
41.07
112.12
-25.421
-251.11
103.09
-8.4189
-24.532
2.7848
17.044
22.141
40.425
-11.642
-10.178
-2.1851
-43.537
-9.596
35.208
23.154
-13.416
28.414
17.161
-71.137
4.8156
78.067
156.34
-293.63
-161.52
48.357
104.79
5.8979
84.464
-41.635
67.287
-38.125
-122.81
48.996
180.59
-137.68
71.568
119.39
-268.28
102.97
86.304
185.36
30.968
-242.03
-92.676
-0.33587
-154.63
293.55
61.478
-185.12
63.692
-133.73
12.262
-61.721
341.73
-16.129
-275.85
127.08
-116.52
-114.29
181.04
62.557
178.14
-284.99
-30.118
96.78
-53.83
-151.84
240.64
-20.808
-120.92
1.2592
339.14
-5.2849
-293.43
-72.848
189.06
-46.2
-34.31
23.801
-147.61
83.394
34.429
64.395
-35.594
-65.135
45.443
-5.383
16.64
55.194
43.684
-281.12
14.367
94.384
87.625
157.43
10.924
51.218
-219.71
-62.86
-138.12
66.727
85.125
119.7
20.853
61.216
-252.41
-2.5624
56.247
12.911
105.9
-56.347
-152.59
62.018
71.243
-57.613
-70.819
169.73
66.513
-56.705
-122.56
17.327
-70.783
123.04
29.771
5.8797
4.892
-6.9606
-3.632
-35.185
52.223
-62.497
-45.868
45.681
27.301
35.855
112.04
40.822
-204.06
-299.34
201.63
144.97
-126.57
-3.7699
35.511
-12.606
152.71
85.145
-128.33
-55.996
201.87
-42.004
-355.25
106.64
30.018
84.316
-27.934
129.44
227.94
-198.98
-216.34
77.421
-198.7
205.88
-13.848
28.761
-88.794
-97.008
85.448
13.822
-17.767
42.335
112.86
-214.01
39.442
100.96
-33.845
91.637
-18.719
-77.27
-71.343
69.484
3.9333
75.631
1.9635
11.134
21.507
30.703
40.913
-212.19
95.492
-175.3
1.1751
105.05
91.262
72.117
-29.991
-69.555
37.343
216.05
-144.58
-136.91
-224.54
102.93
-14.435
32.285
105.54
-8.3971
-69.537
43.443
180.41
-148.84
-161.95
154.31
-97.752
-11.407
92.317
-58.796
210.92
100.41
-182.94
-166.83
80.626
-48.265
89.484
-0.27114
-199.1
197.62
205.43
-193.17
74.684
73.233
-323.31
44.315
13.6
150.81
-77.13
71.879
-61.995
-56.513
70.946
-13.184
12.732
22.504
28.202
33.35
-2.1404
125.9
0.27354
216.92
-74.89
-205.37
-307.93
-248.35
292.25
15.901
0.96871
-22.172
33.854
34.342
61.514
-17.232
8.4504
41.554
0.19372
-42.47
26.096
-31.968
82.231
118.13
-221
-76.334
25.842
54.018
25.381
-40.01
27.169
15.213
-17.921
-1.8348
61.138
-30.917
-30.127
31.48
16.876
-40.536
-90.14
28.417
53.267
-3.3691
11.076
70.706
45.657
-102.72
-89.899
145.04
186.83
-176.53
93.127
16.801
-141.75
-194.79
100.85
79.799
16.723
24.179
-276.18
127.29
109.04
-58.57
27.515
66.856
-200.52
137.33
34.121
-25.862
72.085
-34.614
21.95
-20.401
-133.47
176.96
261.99
-160.44
-304.21
36.274
34.283
46.293
96.199
-29.476
-88.878
-175.04
127.95
-2.0991
-2.4932
-3.9255
117.14
-40.197
114.4
-40.894
-200.7
205.75
178.78
-89.629
-66.442
-163.51
17.753
98.779
130.57
-265.85
60.774
-36.473
-41.782
-42.699
118.63
41.81
-9.8429
50.051
-134.43
55.397
102.34
-112.76
-144.89
105.77
2.8613
-73.584
161.89
-74.206
162.03
24.623
-182.74
-132.72
166.68
65.562
60.965
148.74
-84.072
-232.88
107.47
-193.57
34.923
62.68
120.05
39.719
-71.998
-85.596
111.76
38.522
-141.45
-129.94
145.58
181.56
-186.63
-171.49
171.42
136.59
-43.644
-66.016
-1.2441
-115.57
-9.1174
69.485
84.051
138.32
-156.45
-50.224
63.259
-32.021
-8.508
90.155
-152.34
-41.283
81.705
15.291
76.088
128.19
-250.66
-78.719
380.55
4.2986
-204.36
-95.472
-12.469
11.904
30.594
-1.6228
-2.135
24.633
-10.332
-10.537
27.143
0.66085
-7.6728
23.344
-2.4002
-16.768
18.79
5.3629
-9.1101
-12.009
167.61
39.034
-264.58
-28.876
-161.34
132.15
87.299
63.067
16.245
-64.756
44.412
50.932
-15.605
-40.367
7.1554
-98.719
35.973
98.983
-47.006
52.863
0.8967
-134.03
45.299
-64.542
48.557
43.059
78.093
-99.746
-102.59
174.31
-6.6435
-24.086
-51.373
16.23
60.686
161.58
-186.53
-217.44
186.78
-22.148
-103.57
336.41
-5.0581
-282.85
99.003
-19.876
-3.6337
-41.469
18.35
6.2282
-4.8401
19.237
0.47705
-5.9289
-17.064
-7.5472
35.179
-3.8127
2.9615
14.876
14.353
-2.2593
-9.3088
-20.072
17.334
-18.597
-3.3304
19.475
-12.034
-17.348
45.688
-2.8482
-21.781
-17.4
-154.31
-129.24
313.38
103.8
-22.095
-19.67
-74.466
-65.251
-82.062
-93.287
62.059
127.41
66.971
95.803
48.343
-27.865
1.8068
-28.072
-12.888
-42.548
-45.28
10.031
56.185
11.295
-31.979
-15.312
4.1689
-21.691
-8.8687
19.432
-9.143
-18.235
-4.4065
2.3257
-59.664
-151.91
-77.747
58.595
189.18
-15.133
-202.81
275.16
320.92
-5.8116
-241.24
-138.03
45.454
-100.45
-20.565
46.949
51.407
28.228
-29.311
-35.684
-16.799
39.404
-5.9863
-3.9333
24.459
-11.132
4.0718
41.183
-7.8475
-5.232
31.428
-9.4481
-5.322
43.16
17.62
5.4434
41.076
123.82
37.348
81.417
332.68
-343.51
-239.31
-30.284
97.564
-159.73
-106.76
-81.021
223.83
79.634
-533.93
247.07
14.59
143.39
-8.6892
-72.709
27.837
48.672
93.794
10.117
-68.423
-115.98
-90.794
76.09
15.768
21.131
52.256
-18.72
4.8913
40.81
-16.233
16.488
48.904
-23.242
-21.615
8.7023
-54.486
-61.487
71.56
46.665
25.491
48.396
-38.285
-18.796
17.45
-6.4964
-14.409
0.13446
-4.8429
-118.75
-13.482
170.03
33.785
-43.25
-49.801
-126.6
109.19
87.658
-58.958
-16.535
5.7451
14.415
-2.3161
5.4677
-10.865
-27.887
-6.7672
5.0051
-29.2
-5.5178
13.864
-22.491
4.8703
24.18
-10.054
-7.5306
29.031
-20.769
-19.595
-32.895
6.8338
153.88
-8.4548
-12.685
-89.974
46.691
25.592
-90.528
-21.552
51.334
-42.854
-3.3319
143
65.67
67.563
-13.811
-133.82
-15.581
-6.5178
4.7714
-33.241
70.041
-117.75
-51.214
18.908
-6.1964
38.048
43.117
2.0357
-30.372
-100.87
24.379
117.87
27.838
-14.389
-103.41
38.5
-9.8673
-3.8718
50.393
53.944
-41.342
-135.69
20.08
64.649
-22.261
-43.285
-60.788
13.85
-0.60235
60.23
154.9
1.2564
-40.068
54.695
137.37
-144.24
-212.4
166.31
123.58
-64.83
-57.671
43.451
61.634
-207.53
-162.36
404.23
-138.57
-270.81
176.41
21.613
-34.216
-83.797
129.01
-38.967
-37.503
-73.146
-29.724
68.531
-13.179
58.463
-10.526
-53.244
194.09
32.38
159
-144.65
-110.47
74.014
-25.681
-19.68
-22.81
111.72
-93.778
25.365
-92.054
36.951
137
5.6056
-179.61
20.422
5.7035
23.751
20.484
188.24
-162.57
-305.42
198.43
49.022
-9.7119
10.21
-8.5954
-111.23
-167.95
278.19
153.09
-117.82
-6.7641
88.591
73.545
-66.227
13.389
-18.14
69.065
54.943
-202.93
118.67
-91.89
-182.55
52.871
29.556
43.389
-6.9735
-6.0459
-25.925
82.544
77.508
-24.068
-19.428
81.54
-153.51
-180.4
66.309
45.768
-17.291
53.951
78.302
-95.974
119.59
-33.647
-182.04
119.05
37.053
10.872
20.632
33.77
-41.303
-50.258
-20.497
37.439
54.458
87.855
-117.42
-79.75
-7.3879
176.71
-58.971
-46.348
-1.7201
168.43
-83.25
-119.64
-97.635
109.2
50.84
22.754
-21.56
-18.175
50.378
-111.79
-32.945
152.06
32.214
-10.358
-82.14
27.611
-27.328
-19.266
5.9297
27.857
16.444
-71.772
32.112
37.413
-34.403
30.7
-25.195
33.056
-3.337
-11.778
-79.472
28.6
-11.426
-41.138
61.226
-79.54
6.6441
-61.385
59.001
71.611
-104.57
78.098
32.123
17.047
17.452
-218.77
17.19
116.62
36.537
81.393
91.272
2.4826
106.69
-92.276
-82.609
59.764
160.52
-192.35
-70.597
48.796
-6.7182
30.539
64.765
-221.29
47.933
84.052
-122.36
73.808
128.93
-3.2403
-127.65
-59.666
-46.77
173.61
-84.772
-60.368
13.609
23.866
30.388
26.92
92.452
-125
-87.863
15.915
6.9081
-29.848
-39.12
-36.006
-81.79
48.899
115.19
193.12
-2.799
-142.35
3.3338
-91.291
23.3
-24.196
-133.09
69.608
98.031
47.673
71.603
104.52
3.1635
-3.8317
81.114
30.759
-89.309
-22.63
-50.921
-76.981
-49.533
93.986
-12.452
-111.27
-27.637
118.22
54.766
1.3514
62.591
-24.862
0.34241
-28.201
-50.905
-7.7859
-24.307
68.407
-153.9
-47.189
118.25
42.421
-0.020652
20.864
-105.63
-34.854
10.276
-17.278
24.614
4.5569
16.282
-41.6
-219.55
-14.759
232.86
212.01
20.785
-72.25
-35.326
-107.67
-40.1
-75.165
0.28849
145.58
306.02
208.77
-205.12
-243.84
50.454
187.61
-8.5213
-122.12
-86.832
-19.715
-11.843
-36.042
4.8002
9.8591
-24.383
-3.2739
10.407
-40.783
-129.36
-72.129
-83.96
95.733
182.42
107.77
41.867
-5.8069
-120.48
-157
-35.91
172.2
96.311
103.77
99.001
-47.531
-75.346
-18.629
-33.766
55.959
175.3
-99.473
-283.02
138.52
115.62
-165.62
54.784
-26.312
-34.431
93.427
-105.15
-310.64
-28.036
233.65
624.74
-37.203
-214.81
-104.45
-154.22
-313.15
165.76
229.83
9.1046
-50.064
0.68316
58.89
-53.252
-27.746
-5.0367
-82.299
-68.345
93.101
21.358
-35.638
47.578
-50.659
-114.59
6.197
136.2
144.56
-46.802
4.705
-22.259
-3.0266
18.762
-8.7686
81.307
99.148
-21.578
-76.545
-56.273
37.646
-214.25
39.857
67.594
66.725
28.223
-15.611
1.9428
-144.72
-86.721
227.08
-227.52
107.1
56.79
10.05
51.323
-233.44
13.041
35.234
2.0268
75.948
120.24
244.7
-281.12
-89.025
4.326
32.429
12.258
-17.564
29.925
82.93
-91.765
64.899
-47.066
17.083
150.13
-13.197
-222.37
45.726
96.267
-21.445
-47.324
-48.138
-69.33
29.583
-77.181
1.5269
104.69
-9.5248
-1.6286
1.4448
14.549
19.198
-9.1148
7.4411
6.7386
-7.8886
12.772
-0.32321
-4.7919
-1.4927
-55.004
-29.946
121.6
45.394
-17.149
-29.887
-14.123
9.0521
133.72
76.587
-343.52
66.051
199.68
-47.434
-248.5
48.399
-5.6482
46.539
11.317
40.741
7.7384
-7.751
1.2444
-5.9684
-23.717
125.36
-135.62
-44.034
136.99
-33.567
-42.684
3.9159
16.328
-11.265
11.72
19.718
-4.216
23.932
109.12
42.069
-71.676
-61.147
-9.7149
-14.714
-6.0786
-2.4808
-22.584
-12.385
4.786
-7.6075
-6.459
-0.32773
-8.7524
-3.7578
-1.9551
-14.233
-24.753
-6.1333
-5.2966
-0.52124
-40.963
-57.489
179.72
-17.179
44.341
212.19
89.203
-373.87
-473.93
76.196
278.9
117.83
-19.671
3.235
12.433
3.8556
-10.25
10.79
10.017
-23.059
21.178
-8.0253
15.984
24.401
48.656
44.985
89.543
29.01
78.925
-144.44
-64.711
-174.11
263.37
285.9
-276.74
8.9641
-312.33
-37.699
110.85
27.222
-0.019056
28.945
10.812
-23.084
18.843
12.63
-22.307
1.8255
17.978
-23.684
149.41
100.62
-194.41
86.983
-28.652
-137.49
-140.4
-74.997
-75.465
189.05
86.775
-17.194
16.173
21.247
8.7956
-3.958
17.291
-1.5359
1.3653
29.345
-18.215
9.3544
48.951
231.22
87.184
-1.8642
-144.2
-530.22
-200.91
185.53
117.68
37.126
50.609
-2.1977
27.827
14.628
-4.7577
40.567
-8.0738
14.191
38.822
1.0871
194.51
48.244
-258.12
-48.526
9.5561
17.904
37.377
38
-22.873
3.9418
18.144
-7.9473
7.711
26.757
-20.359
5.0534
28.901
154.73
206.01
-65.816
-208.16
-248.6
4.2287
33.093
-15.535
-50.667
-24.643
-30.028
43.19
6.372
-6.9957
33.811
-10.47
1.2268
27.864
-21.018
13.134
27.91
-16.603
32.066
5.0722
-5.8504
34.864
17.092
70.781
290.05
-5.8523
-359.55
320.71
-141.79
-393.73
-17.19
35.182
-8.6777
39.707
32.404
7.9162
29.796
17.168
-10.122
59.361
28.287
180.41
-218.76
-265.86
242.13
51.207
0.14113
-1.7933
53.763
-46.586
-11.774
17.517
113.45
126.33
-53.731
113.41
-390.26
-71.101
72.18
23.147
-1.1938
15.519
7.1376
74.522
22.423
-192.44
-34.484
39.459
2.4414
13.007
29.527
-12.076
17.623
3.1612
13.554
52.554
-3.9315
-4.1356
6.0957
2.2327
6.214
18.665
0.32104
9.2542
5.7869
-6.8093
2.2499
-11.468
-9.7981
8.8947
43.347
13.765
-9.9619
-23.255
106.71
167.08
68.948
-66.403
-445.2
-226.82
47.973
45.059
57.096
21.05
87.279
168.4
228.7
-275.35
-186.43
9.9133
-1.3408
-22.385
-24.466
23.577
119.81
186.17
248.9
61.656
-252.48
-254.13
151.68
116.45
-202.31
-456.39
-0.14225
541.12
253.35
-29.915
-345.1
-456.04
453.09
127.87
17.068
-54.57
-52.328
-142.37
35.806
-11.996
162.48
-29.984
99.509
24.784
49.396
21.464
-243.8
-428.05
-47.696
416.22
-139.38
257.71
-63.083
165.99
-24.822
-159.24
-57.821
253.05
-203.4
46.899
106.14
-83.813
109.28
-149.77
-14.834
-47.732
-28.928
79.152
7.604
-93.872
63.089
202.5
159.92
20.941
-279.38
108.79
-212.64
1.1905
70.035
-57.438
-78.346
-106.25
80.928
188.96
96.776
-42.545
-79.236
-42.869
23.459
-8.4923
-25.033
-16.8
-62.632
-172.65
-25.928
232.94
214.93
-35.798
-78.151
3.8488
-23.495
-20.459
43.594
20.064
-35.159
-33.298
22.77
-0.89008
-6.9605
2.7886
2.9234
-6.0481
27.41
116.31
-39.967
24.499
-26.712
-46.893
-25.357
-25.401
-26.449
-27.82
25.236
-10.85
-38.479
30.882
99.769
-28.464
-15.41
-44.413
-17.224
32.093
14.09
52.001
-18.795
-33.655
-20.17
1.2202
-11.459
-23.033
10.74
0.6393
-15.121
-1.3054
0.89444
-16.771
-28.904
9.0442
13.873
16.925
1.89
-2.7473
21.814
52.87
-11.836
-35.053
35.984
52.734
-110.78
9.1753
-97.626
-6.9683
160.54
-100.03
114.68
213.07
-174.66
-296.04
434.86
124.27
32.017
-161.84
-149.56
-429.83
-102.67
438.61
102.45
68.69
-34.993
39.956
-68.497
-64.445
13.17
19.47
-24.266
10.545
-43.628
-70.574
48.914
137.71
-69.09
19.866
-48.222
-73.523
47.159
16.399
-1.2284
-112.48
-134.34
228.88
110.1
32.376
-106.31
1.9063
29.376
8.9532
11.361
-102.03
45.48
126.14
10.221
34.159
-2.3486
-78.088
-38.335
37.36
-1.6164
174.43
129.88
-259.45
-43.173
-79.477
-29.008
-105.36
-49.716
124.05
-38.203
-43.278
47.174
-18.033
80.935
110.5
-82.197
29.993
17.467
-0.66437
-27.342
78.631
-11.915
-31.042
57.906
-22.035
-38.355
14.018
40.449
-23.2
-14.262
44.518
88.475
-10.02
-67.519
-65.564
-31.616
-29.743
21.336
120.79
-83.465
-161.44
-79.578
-1.3226
148.48
235.4
-38.004
-24.411
-40.464
-37.65
-47.854
-31.939
-23.722
34.773
-18.966
49.185
-29.886
22.95
-169.75
-167.1
94.113
241.77
173.75
-97.675
-82.964
5.0898
-107.13
-87.827
217.97
62.298
-56.26
76.843
107.72
-33.797
-229.31
-90.544
119.23
53.598
-43.693
91.71
132.41
0.44327
65.43
-170.37
-130.37
131.82
-6.1018
-88.137
1.8438
-78.103
13.4
-16.682
57.145
32.934
-99.362
11.703
100.65
123.87
-282.51
-182.44
265.46
-61.6
26.624
317.78
-118.45
-274.32
42.761
-5.4062
-20.845
-68.47
88.885
110.49
-41.781
-7.463
0.13669
-3.0109
-68.402
185.25
169.42
-246.55
-30.981
45.944
-39.36
25.039
-50.235
-12.302
40.138
61.621
-98.807
136.6
-88.882
-85.422
99.676
6.9017
-6.0737
7.235
55.623
-57.893
-81.473
102.77
35.126
-133.39
24.478
115.99
-20.372
24.664
-26.395
1.0759
-45.299
-123.43
20.138
87.87
-23.42
-24.063
93.051
84.836
9.7402
-43.181
-22.226
11.797
-60.471
-5.853
123.14
61.238
-196.67
-57.209
13.32
6.9967
28.53
-45.515
77.792
6.6849
50.805
-167.51
24.345
98.844
-19.867
138.44
-108.65
-187.88
124.49
27.619
9.5519
-7.8852
-74.789
-81.404
265.42
109.25
-87.625
-144.6
-126.31
-16.909
85.378
40.124
103.46
99.434
-133.86
-34.516
90.506
-123.37
46.529
-36.432
-206.96
123.36
149.96
-167.89
167.34
10.453
-100.76
134.64
-171.39
33.048
107.28
-5.4633
-19.099
8.3508
15.252
-13.024
-11.274
-94.154
-58.424
199.46
23.356
-117.21
35.372
56.952
-203.28
-6.851
125.11
47.644
-10.749
-6.8246
-3.2608
6.6889
-0.71936
128.08
144
-272.17
-134.24
40.94
302.05
-97.767
-422.86
81.352
142.56
14.011
-84.455
201.02
104.44
-62.83
-24.942
-199.84
-60.643
86.754
30.615
5.9073
-84.263
42.716
112.13
39.138
-18.258
39.317
-71.552
-19.671
71.707
-13.422
82.948
-47.369
-272.07
143.43
83.304
3.0467
-56.847
96.782
-27.048
-16.252
17.991
-38.089
19.092
117.4
-64.168
-225.68
115.53
-21.815
10.649
99.76
-296.47
304.69
109.07
-300.22
-92.394
63.555
171
-53.095
-100.15
93.143
-6.9152
33.715
19.605
68.227
-1.8518
118.41
-204.35
-113.07
135.3
30.925
-84.803
25.73
28.535
41.395
10.632
-61.531
-44.227
-11.608
-69.375
167.98
7.4205
-4.2984
253.28
-135.34
-170.93
-289.09
-13.932
214.55
185.34
-53.348
-58.678
210.3
-176.92
-137.27
128.49
82.796
-54.022
9.4076
41.014
-31.074
-18.769
-52.654
-16.396
-21.204
-38.882
7.3582
148.31
-35.786
-49.809
71.767
-29.101
-67.025
-8.2089
-55.956
55.652
-120.97
111.7
234.35
32.5
-74.575
-56.716
21.239
-24.29
54.891
-16.396
-142.95
-76.05
-37.618
35.676
-51.836
112.04
82.522
204.54
-89.438
-129.71
45.154
-74.723
31.581
-6.2415
-15.26
75.674
-38.835
-67.086
24.176
21.449
-15.454
-49.127
-52.189
38.162
132.41
13.682
-19.317
-18.462
2.5982
-22.247
1.4373
6.8534
145.28
-122.32
-69.36
158.53
-230.74
40.455
-8.4033
19.545
-6.5856
68.579
-96.143
-35.762
249.82
-168.58
9.7591
8.5253
-10.429
-10.558
23.371
-20.456
1.6611
81.995
-43.224
1.8315
13.215
-35.735
-4.0479
-12.854
13.718
-53.684
89.05
77.582
-138.8
47.021
58.109
52.621
-109.81
-180.22
94.645
158
-123.33
-100.65
102.12
57.629
-67.496
46.288
-71.634
84.442
-19.657
96.13
-155.09
-115.17
215.12
-23.318
7.4168
15.409
-250.49
260.92
32.09
-85.243
197.61
-53.955
-244.1
-60.316
106.95
79.664
94.971
23.341
-60.347
-46.203
-37.605
124.32
141.06
-148.22
-131.64
-68.157
31.978
78.134
77.863
-74.689
-238.9
148.46
-67.523
153.65
-29.003
-7.0128
23.892
-14.461
-94.3
-8.1685
141.72
203.91
85.942
-331.94
54.362
141.86
-177.66
-108.49
48.574
49.963
44.338
-125.22
77.779
6.0174
139.06
-82.29
-136.79
-52.31
85.86
73.288
-183.59
219.46
64.176
-22.424
117.88
98.395
-240.64
-287.28
36.223
75.429
69.628
252.6
52.182
-242.06
-106.84
-88.835
-110.55
137.53
187.2
5.6958
31.086
52.747
-219.78
-135.82
279.74
-40.202
79.423
6.8938
-95.626
25.67
-32.04
44.147
-99.002
-35.793
15.556
30.357
10.924
12.943
9.9894
2.3733
-10.074
0.44036
-4.3265
29.11
36.204
-22.309
-49.605
-17.68
0.31624
11.114
-12.624
26.251
10.926
2.1293
-0.51868
-0.64246
57.697
26.078
-55.451
-40.079
11.897
2.2419
7.9231
8.8145
-47.346
-10.981
26.953
-8.1146
6.3379
25.446
2.0729
-5.621
48.502
-30.02
123
92.169
-148.38
-251.47
-34.15
115.45
23.719
-68.402
43.547
61.649
52.591
72.461
20.061
-163.26
-93.232
38.547
-29.89
-164.29
152.12
284.27
24.281
46.65
-29.324
-57.567
-34.813
74.46
-4.0871
-186.91
153.71
124.13
-171.55
33.443
67.531
18.958
-128.45
-26.984
-181.02
82.495
77.505
-81.269
-7.5893
110.7
-245.86
26.38
155.23
98.091
-202.84
108.7
2.4623
83.958
-229.94
-22.357
121.33
39.445
-33.713
-15.062
-119.67
118.82
140.18
143.6
-198.7
122.11
-2.3123
-346.54
29.246
148.41
-25.448
-49.991
32.858
120.67
187.85
-89.469
-223.65
-3.0852
5.4229
-7.8727
-51.773
61.755
114.51
215.82
-217.13
-186.1
23.418
-76.856
73.214
158.72
105.13
-52.782
-66.909
-110.25
75.85
-58.231
-22.371
139.41
-114.96
31.441
80.947
67.878
68.714
-201.95
0.09411
-44.161
36.05
-2.9911
85.325
138.29
30.956
-214.68
-45.654
152.42
-135.1
-47.881
133.46
-226.16
-39.305
147.85
-33.456
95.395
-71.029
0.31577
68.797
29.202
-90.974
-41.371
99.993
87.769
-246.62
1.8373
156.88
110.94
23.061
-86.443
-26.972
-26.519
0.19477
-136.78
44.789
133.03
-28.642
99.949
219.34
-226.47
-294.43
30.059
207.17
1.9555
149.29
-176.55
-98.537
116.08
137.33
-250.31
-149.04
172.31
56.866
-64.348
4.0791
37.557
13.172
-35.181
-9.1934
25.077
-12.777
7.3406
62.473
33.809
-109.8
14.94
61.189
-2.1821
62.685
-11.177
-138.45
-8.0601
172.93
-171.95
34.03
117.99
16.166
-106.54
28.021
-88.399
-124.06
31.188
105.74
23.404
181.87
-96.485
-204.09
204.72
-13.948
-34.403
-107.91
20.58
104
-24.238
-201.09
107.76
193.48
-22.916
-1.9288
-22.422
-7.161
-73.657
135.58
-131.69
154.51
-30.474
-116.15
13.979
-71.418
1.0508
23.442
1.3397
-31.703
16.191
6.6971
45.293
20.572
-42.06
-37.878
-156.66
-168.46
-14.741
296.05
111.93
-45.782
106.58
-44.03
-75.45
41.133
23.712
7.3214
116.81
41.879
120.48
160.5
-111.93
-171.66
-26.444
0.80613
-145.05
74.135
131.29
-60.01
-170.16
9.4957
98.841
-13.365
5.8015
-46.451
-82.731
98.632
51.089
-154.56
157.18
-49.978
-21.852
-120.75
55.314
76.021
-153.81
31.47
-6.7743
127.49
-65.865
-15.511
-20.5
-66.434
79.979
8.6891
54.45
-78.314
63.253
183.7
-32.829
-256.66
16.449
5.772
54.414
-49.122
55.769
254.04
-299.14
-83.062
46.934
-33.074
84.146
60.095
42.848
-62.313
78.461
-41.479
167.91
-69.974
-80.317
115.73
-192.08
-229.93
108.38
93.772
191.27
69.247
-428.47
-90.145
274.15
-10.574
27.546
-111.95
228.16
-125.64
-11.841
68.624
3.3144
119.49
102.17
-195.88
153.81
-276.46
-112.33
25.268
88.451
-2.7243
110.56
138.35
-257.68
159.78
-113.13
-156.94
83.86
73.686
37.286
-33.808
5.0394
258.84
-241.39
-119.22
84.773
9.3575
25.158
2.4072
117.56
-101.51
-97.438
100.13
-81.302
31.031
147.11
-35.036
-29.187
-4.4188
7.3862
-10.757
-38.623
55.026
-35.436
-21.849
46.493
3.4337
-41.106
-20.414
-50.397
119.46
-53.593
-174.55
86.706
113.94
79.805
5.8087
-126.49
-54.251
64.871
-13.669
-76.961
-56.192
236.69
-65.707
36.832
-33.972
79.476
-99.402
-105.01
155.51
-18.926
16.838
-10.785
-71.031
5.7848
32.264
-142.95
22.576
207.38
294.93
-243.57
-97.647
82.8
-271
73.23
-24.353
-56.299
30.228
32.409
-50.242
128.58
11.335
-123.65
219.19
3.5456
-86.327
-141.5
160.41
329.58
-218.27
-235.9
49.245
-64.566
34.272
24.231
-88.25
184.15
243.43
-24.238
-361.58
35.275
123.38
125.98
-41.621
-214.91
26.762
17.032
-36.847
29.175
5.0128
-6.4275
12.67
14.702
-8.5149
-28.196
46.649
26.975
-96.927
9.461
56.03
3.7872
0.57441
-21.304
2.5184
13.93
5.8953
15.038
-21.949
3.9665
-5.8231
9.0136
-30.885
-31.433
115.95
-5.5803
-59.188
-14.82
-2.1258
-39.922
11.969
-8.7014
189.48
-29.847
-201.14
118.05
-44.408
-11.077
9.3223
20.012
0.8086
-25.713
-84.119
23.086
24.728
73.152
12.475
65.745
-5.9346
-218.14
-0.8925
108.6
64.095
-34.949
18.506
-6.4767
-27.751
-34.406
95.984
-20.979
-44.298
-114.01
41.651
247.58
65.027
-143.84
-173.46
60.716
58.592
11.094
28.08
44.069
-151.96
-78.556
185.47
-58.365
-9.2533
43.091
-72.628
-44.854
-68.485
133.16
148.99
-56.887
-2.903
-83.43
4.6338
46.026
-95.901
179.2
-87.389
16.614
50.161
-41.617
-31.123
11.718
-9.7906
94.913
91.425
-168.38
23.885
-85.11
-246.91
30.579
139.44
60.503
43.492
121.22
-239.26
86.763
48.913
-13.823
12.536
65.504
43.663
-80.155
-163.5
76.474
66.883
49.383
112.98
-394.26
-73.328
272.06
5.3154
30.793
238.97
-90.228
-182.85
-90.65
-175.15
145.39
28.622
16.413
185.41
-46.426
-41.719
1.9119
-1.8288
-32.114
-1.3173
4.6355
-20.883
57.444
-79.966
-52.534
98.155
-46.965
79.408
85.695
-21.771
-177.88
301.28
-20.501
-297.15
-14.96
72.163
22.38
-40.525
-8.3814
-53.855
51.282
80.818
24.463
-9.7551
24.769
34.494
115.25
-203.29
-18.038
8.5487
19.663
-17.305
-20.983
-5.9309
11.36
11.962
30.559
-22.719
22.181
-174.06
-63.728
48.241
37.131
22.087
15.021
84.67
29.733
59.006
46.676
-97.291
81.997
102.52
-65.954
-5.4099
-28.818
0.29468
-1.5137
88.725
-16.813
-154.43
-44.99
4.8502
0.91192
143.76
92.899
-325.59
-123.57
164.09
37.991
-20.068
-24.626
69.485
-29.659
23.118
225.9
-186.12
-108.3
119.58
112.08
-101.2
-48.89
-229.98
94.913
2.3883
41.7
22.271
75.132
57.672
1.1788
8.1731
-90.5
-17.058
-69.99
20.284
199.93
-91.113
-296.35
177.18
149.22
-26.277
208.96
-171.17
-180.94
-44.792
-56.469
10.899
204.11
89.988
-82.017
-49.241
-103.64
31.198
132.66
147.18
4.8285
-111.55
-59.249
-31.422
-67.115
-18.846
-9.9777
124.48
270.23
65.307
-280.39
-200.38
58.828
246.55
-177.22
-229.85
256.92
166.03
-205.59
-249.98
288.62
-120.85
113.18
11.133
9.9775
-38.11
-204.33
255.47
9.8006
55.465
-55.802
-59.019
-145.89
114.25
116.99
66.768
-30.376
-44.116
-19.539
-23.934
-3.4777
-5.3087
3.7338
-25.914
27.067
-26.104
170.16
-109.84
-168.72
24.337
-63.553
186.39
-39.635
37.533
-11.405
-166.09
131.95
184.78
-182.21
-143.47
109.05
-15.579
242.76
-24.77
-138.78
95.989
79.816
-255.87
-169.87
129.52
-58.766
11.144
262.52
-104.88
-125.21
-0.64449
147.11
84.056
-40.328
-39.263
-133.76
-51.454
49.449
111.27
37.651
-55.08
16.748
-36.691
13.5
-12.406
-1.2206
-71.329
-44.668
53.989
14.705
40.679
-31.536
60.726
-2.9624
85.464
-143.76
-27.409
171.69
-56.466
-64.74
49.766
74.034
20.031
76.014
-92.424
-16.832
-2.3589
-31.477
62.055
-55.323
-76.651
-1.2012
-13.592
-31.958
-19.416
49.506
85.831
64.135
113.86
15.441
-83.237
-52.962
-144.91
27.556
69.053
-96.835
12.667
126.72
347.42
-227.75
-107.83
-80.465
-27.783
193.92
-105.41
-64.811
-118.49
-46.674
41.995
108.07
148.98
-18.646
-119.78
-82.096
10.713
63.674
-10.248
-7.989
-26.795
81.99
32.137
208.83
46.065
-260.94
20.777
-82.025
-67.61
-38.361
71.937
15.621
-64.608
87.399
-31.678
4.6134
31.881
-122.39
-22.543
7.2952
-19.895
57.864
-4.1133
7.3008
-19.54
15.988
58.252
-49.365
26.446
97.033
-13.102
-0.053088
148.63
-0.65189
-54.346
-36.446
-55.768
-59.472
102.06
84.903
-18.418
-71.763
-73.006
-14.634
153.97
-36.376
-178.06
-79.327
206.96
77.238
-209.11
-9.4813
25.421
34.461
-154.94
106.39
137.72
-33.175
25.779
-126.77
9.1302
3.9719
111.19
93.686
-196.79
-31.966
119.83
26.861
-36.059
-150.92
8.5957
154.85
1.7611
-132.24
-45.218
150.49
269.41
-248.08
-210.6
35.765
181.84
-15.021
-156.78
76.06
24.913
39.187
-22.437
1.79
-4.9774
18.818
-40.132
-53.794
-18.699
35.5
113.61
-86.927
45.437
106.8
112.77
-174.25
-123.92
10.148
102.06
-20.512
7.4824
1.0269
-41.938
-7.2638
7.6067
-137.57
32.351
213.92
164.84
-131.2
-116.02
0.33762
-12.604
-130.94
-43.891
112.24
99.901
-12.475
-116.18
97.901
10.664
25.779
-0.41497
48.808
41.776
127.47
-165.25
-214.98
153.51
204.88
-100.54
-124.6
-40.247
-105.63
96.296
-3.8777
-86.933
98.72
127.4
-138.67
29.708
-20.51
41.46
32.359
-32.755
-82.587
35.152
35.587
-6.5178
-9.2972
-3.0831
18.874
-45.058
-14.721
99.389
-7.6515
33.69
-52.549
-35.388
4.8383
42.2
86.714
6.3534
-177.67
55.231
30.642
36.552
113.67
-30.23
-50.941
-59.36
-69.842
-9.0464
2.4315
62.546
1.0429
47.026
-42.312
-110.79
-15.105
193.92
-65.965
-101.4
193.71
-170.81
70.207
69.527
-34.308
-20.809
-7.458
-44.246
-44.959
25.461
-45.167
108.56
76.161
-47.146
-133.03
-20.673
45.688
49.542
10.145
151.11
1.1156
-245.93
60.449
27.093
26.143
-113.47
69.741
313.71
-163.49
-222.44
64.548
-6.42
118.9
-145.93
64.22
38.129
-46.479
0.96333
-3.3493
31.438
-111.17
104.12
123.86
32.489
-109.75
-218.6
107.49
57.29
4.4124
55.341
148.74
-155.84
-123.35
70.445
44.291
-33.368
24.589
-30.034
-8.1459
-14.1
-17.473
4.9287
-53.521
285.26
-153.88
-129.4
87.797
0.010855
-49.935
-21.602
-27.724
-28.333
-6.2289
91.527
40.455
-121.41
81.989
68.459
-45.441
-32.082
-65.762
11.735
5.6654
20.992
135.67
-101.31
-0.19993
185.94
-145.56
-0.37126
147.14
122.59
-37.66
-268.77
-45.909
154.61
-18.429
-196.22
100.82
39.679
31.035
-21.014
-15.434
40.816
84.667
-223.49
50.76
57.062
-62.705
320.8
-257.92
-33.52
11.258
-75.201
-33.785
102.4
142.13
-72.503
113.05
-243.84
-22.795
73.674
-19.666
-39.358
34.523
46.812
87.535
-144.37
37.431
-23.808
54.777
161.85
-222.22
35.275
-7.3198
192.63
69.154
-217.22
-117.98
134.41
-48.442
-150.88
142.27
-53.753
18.199
80.393
35.385
-49.886
-9.5264
-49.721
39.379
-115.66
55.845
66.881
-25.758
16.288
42.832
76.924
38.592
-106.92
84.846
-44.354
-81.595
-66.05
47.293
66.788
-60.993
-43.171
-26.519
115.09
-14.882
81.966
21.835
-113.19
34.831
-108.06
79.137
-60.606
-15.678
62.529
-98.312
32.271
69.481
183.56
-21.692
-10.826
-74.077
-27.77
20.66
-86.54
89.48
62.943
-76.784
5.9867
-146.96
48.265
-45.971
-24.004
104.42
-12.505
-110.35
-61.846
114.2
280.02
-32.349
-139.81
-40.768
-36.12
-4.2944
3.0489
67.109
137.42
-174
-72.979
78.983
113.24
-20.532
5.9996
13.39
6.4929
-57.156
-122.65
143.85
-14.753
-70.644
-44.556
14.237
15.353
66.45
5.3283
-35.122
-11.048
-21.906
-6.0231
10.258
-28.109
-14.587
16.277
-3.6443
13.166
19.949
3.7106
8.0319
2.4102
-3.2041
9.3214
5.0952
-2.6125
2.8031
2.9745
-16.919
-11.853
-109.89
92.939
85.347
-74.047
-40.643
17.851
28.899
2.5564
16.281
14.858
-0.11653
1.9952
5.7352
-11.079
-12.727
3.5977
-22.434
-37.463
14.373
21.576
-1.4502
10.421
7.5351
-17.48
12.193
34.428
-8.8016
5.1188
40.176
-9.0528
-7.8892
11.246
28.359
87.59
-12.086
-84.462
-84.774
-36.859
3.0999
-19.932
-7.5091
20.628
-2.9682
-1.3253
17.068
-11.266
-1.0509
22.031
3.7493
-7.5967
15.339
9.5026
-16.903
-11.28
-27.242
15.264
35.56
62.872
-28.634
-103.92
-262.89
7.2845
126.22
113.04
-21.285
-8.0506
-52.195
-1.5644
53.025
172.84
155.14
730.82
-109.76
-719.18
-57.499
-62.462
30.521
-0.83579
24.547
31.419
335.41
153.57
-135.64
-305.17
-405.59
-177.83
155.35
127.96
43.864
33.331
49.868
-10.91
10.182
22.381
31.167
13.622
-36.665
-20.092
2.0842
13.24
-12.769
-7.7684
0.19489
24.203
68.922
120.33
-73.373
-94.573
-65.45
-36.118
23.508
-0.71404
-8.4045
0.65467
-37.27
19.291
15.585
-7.9826
47.92
78.076
90.398
40.532
-26.324
-35.797
19.689
4.7447
44.398
100.57
-90.034
-413.22
-141.52
115.73
92.474
309.55
104.98
-247.01
-214.89
-18.82
173.97
166.57
45.63
-96.072
-8.6073
-71.595
-43.005
-36.937
32.639
32.391
-22.285
40.866
16.502
3.3451
-109.09
155.85
312.38
-96.051
-38.944
-111.19
139.06
-71.016
-182.75
340.51
19.483
-201.39
-490.76
221.97
-32.529
-271.85
273.26
274.31
-237.61
-143.83
-52.401
243.83
215.38
-230.09
-22.593
-66.905
29.472
-17.622
26.55
46.761
-11.974
48.609
39.72
95.063
-21.105
659.91
8.1558
-376.02
-211.57
-447.19
70.306
-2.7163
74.518
43.928
23.504
28.879
28.952
5.2871
51.205
13.973
-18.855
14.544
-2.709
1.4527
32.582
-6.9081
-13.899
2.7697
16.622
1.0371
183.36
-176.31
-102.97
100.85
-9.1214
-64.354
-10.765
12.736
-20.539
54.951
68.769
62.22
-137.22
-168.85
-4.6443
71.569
12.46
7.1518
58.4
11.894
94.731
-66.885
-53.801
-18.127
-3.4578
-4.1218
32.427
33.194
212.55
253.88
1.6316
-272.18
-769.29
-90.867
455.4
225.84
89.352
-195.22
9.3888
-30.418
-102.31
225.77
16.471
45.686
41.524
-12.109
-22.849
-52.765
-170.82
-111.81
93.95
58.019
-23.286
174.17
194.47
-110.03
-223.23
-5.6925
-129.83
5.9355
61.438
-55.055
54.077
88.926
41.534
1.6794
221.08
293.03
-9.6483
-426.34
-466.81
-215.51
291.04
202.17
-4.2429
17.364
48.102
17.855
13.095
28.886
3.7546
-0.49478
8.0808
-16.352
10.146
16.542
-12.939
3.0022
10.48
-8
12.667
18.71
-15.957
37.059
52.004
-78.563
-19.368
-2.8405
-15.553
38.952
37.991
-26.442
87.472
45.194
-59.149
-42.704
-48.608
-58.907
2.3566
0.4334
-20.056
14.895
-22.329
-2.0362
42.142
-18.365
45.71
98.427
-262.29
-230.23
145.75
138.68
189.32
88.854
-158.14
-140.76
-184.32
119.13
157.7
2.5427
29.97
12.908
23.22
-18.416
7.4628
7.8567
6.7108
4.0189
0.1546
1.9501
-13.158
-10.275
-7.5693
1.3006
-19.752
-16.782
33.212
-22.798
-1.6643
22.128
-1.4156
3.0706
-10.792
-39.454
-45.987
-1.7077
35.449
9.7438
8.9997
-0.19449
-40.986
-54.458
7.7833
54.364
29.374
21.958
-13.983
13.834
18.733
-17.761
10.734
1.0688
-49.379
9.4821
10.651
-28.811
32.025
52.577
-43.221
45.372
21.248
-67.821
8.1453
0.53838
-23
17.862
15.811
-15.304
43.463
13.256
-41.913
17.464
25.44
-31.573
8.781
12.144
-16.889
-5.1936
-7.5274
-39.044
-4.9769
27.827
-13.443
-33.206
-27.141
7.0562
35.989
5.8751
-1.32
-15.862
26.177
-10.344
-1.5657
41.574
-50.455
24.904
40.595
-46.472
-3.53
-3.3065
-101.15
81.794
472.17
-125.82
-370.68
-116.59
-120.9
137.04
-14.809
383.93
-95.666
-268.9
35.682
291.89
-198.14
31.836
180.96
-235.31
106.19
179.47
-293.81
-142.48
174.48
3.6334
83.771
-161.59
-3.1952
91.79
59.464
-47.337
-87.458
-29.358
34.976
125.22
75.542
27.401
-172.46
-55.922
117.92
2.9216
-30.308
10.925
-40.092
-75.647
64.211
-12.625
33.596
62.136
-155.31
7.3862
142.86
-78.789
130.31
104.21
-289.42
29.057
27.121
39.359
-28.621
-13.018
-192.06
263.62
336.27
-313.32
-14.157
-45.14
-29.534
-8.6832
40.458
24.05
127.35
118.71
-431.56
-58.606
173.61
60.606
166.95
-84.153
-183.3
-66.763
8.6459
93.039
39.381
71.379
153.86
-24.302
-88.377
-51.563
-197.77
-1.4245
50.03
183.81
267.86
-143.71
-256.82
-83.924
-24.392
64.255
-104.18
-322.61
218.87
224.77
0.47644
0.7531
48.744
165.82
327.03
-375.1
-496.5
239.81
128.93
71.644
172.87
244.4
-42.562
-200.67
184.61
69.127
-78.52
-451.86
-299.01
317.81
0.98216
-36.463
-16.291
-140.67
-257.61
328.75
355.98
-148.83
-142.2
-11.543
7.835
-45.595
22.433
29.705
-15.405
-33.069
-139.22
-136.02
247.39
55.523
83.959
101.43
-49.622
-2.3092
-63.484
244.76
172.3
-233.86
-125.51
85.756
-186.85
95.329
53.361
-234.17
49.858
-39.526
-3.1472
176.42
100.21
-185.42
191.18
109.35
-256.16
-45.426
146.29
32.634
49.128
-224.67
156.84
84.318
-243.43
321.29
67.368
-310.99
-417.33
-239.62
547.58
190.36
-350.23
-15.575
516.05
185.22
-420.84
-180.23
-187.66
76.954
-12.384
17.777
223.05
647.52
398.58
-848.75
36.072
-150.58
119.14
-5.8982
-541.54
175.64
366.83
-81.598
19.678
114.64
-125.6
-137.7
144.9
-112.24
-120.01
87.782
-185.33
-33.784
268.28
139.67
398.66
4.8737
-441.55
-189.81
-35.815
54.576
-265.65
230.53
218.49
13.897
14.386
-213.32
27.375
258.5
-238.91
-180.42
148.7
83.251
274.05
-103.64
-184.87
-177.39
28.491
125.3
257.92
103.36
-9.0524
-167.52
-338.52
-48.174
177.17
-80.529
-96.139
93.218
195.74
21.026
24.904
-209.96
-124.69
341.41
198.68
24.239
-402.74
-359.1
214.07
145.41
81.2
209.98
-118.6
-79.224
184.44
-57.885
-59.034
-123.34
104.25
-91.525
-12.243
47.035
-87.963
-118.39
208.68
27.834
-86.682
72.955
44.751
36.188
-11.892
-164.57
-199.89
-2.2239
235.04
136.07
-0.9761
-27.793
-67.589
-21.3
32.243
-69.92
-21.031
39.818
70.216
-54.358
-27.647
14.164
-1.8442
27.736
21.155
-29.989
1.1041
-1.0496
-16.145
35.083
27.263
-11.747
12.222
9.105
-13.552
16.006
-5.5012
-13.407
13.3
-10.645
3.7512
6.3128
-3.6325
-4.0688
31.007
-5.5084
-45.876
-76.542
81.262
102.02
4.0743
4.7834
-42.622
14.213
-50.24
187.62
-34.791
157.93
-165.17
-369.04
362.01
59.03
-688.36
-298.94
493.89
513.58
-155.06
-456.43
141.18
163.42
112.67
-44.679
4.6309
11.22
-32.177
12.126
6.8471
-45.344
-43.518
24.676
-12.792
41.443
50.97
31.144
45.949
-22.025
-34.027
-32.935
16.92
14.493
-2.1434
150.88
261.91
-384.65
-76.777
1.3939
-12.406
3.6955
18.581
11.932
-17.974
3.7346
-3.4755
-16.794
-0.53648
-5.882
1.7296
19.277
65.06
-90.342
57.673
-82.681
-184.9
305.42
140.94
-195.23
-201.09
23.471
135.47
60.739
1.7151
-3.7726
-12.998
-4.4559
-13.137
-26.87
-54.763
-21.089
-26.626
76.438
-15.025
-19.761
76.192
27.165
-18.426
17.07
-15.221
8.4634
25.916
-12.783
8.7176
19.249
5.1197
-5.7198
27.61
26.565
213.66
-21.76
-316.62
-105.46
26.913
69.681
32.299
117.53
129.17
-179.47
56.28
242.86
-365.04
-268.93
-10.679
70.977
89.219
12.663
21.057
4.5632
0.67484
12.049
-5.8371
-5.9068
14.095
-1.9911
8.3312
14.258
-6.8155
7.49
2.6083
-4.4637
13.16
-1.5285
5.8983
4.2847
-17.277
-4.9279
6.1588
9.1691
16.647
1.8661
-0.10974
7.0507
-9.7142
6.1102
2.6875
-4.5503
9.8912
-4.3949
-2.5455
10.885
3.2525
16.969
12.4
-9.349
-1.2773
6.3875
-5.8953
0.56926
5.2477
-6.9356
0.34277
0.80349
-9.4706
-0.066586
31.978
15.691
-54.35
63.275
-55.951
-78.661
2.0491
47.072
95.249
146.38
-40.224
-213.36
-9.4309
-176.65
37.097
239.11
17.964
63.09
183.62
-200.68
-261.91
-417.34
296.38
-103.36
76.832
-29.698
384.74
158.14
-225.45
174.4
281.75
-126.03
-824.39
-53.654
257.04
376.71
202.15
-139.81
-80.468
-84.737
-55.889
-0.77748
62.328
46.91
60.049
60.506
-142.37
134.33
-205.67
-587.52
609.36
154.44
-173.6
41.371
-31.226
-11.889
-6.9942
-27.18
11.23
-63.277
350.63
28.763
-213.31
-19.504
59.412
107.91
-251.77
-220.76
318.62
-2.647
-118.46
84.73
17.048
-26.709
-25.059
-71.015
11.82
43.772
-73.863
-43.03
152.45
-17.185
-262.17
99.148
174.46
63.839
-21.093
82.498
-14.67
466.13
-255.9
-485.71
179.3
167.76
35.792
218.03
-258.63
-459.37
1.637
268.3
183.7
-9.1571
49.319
-139.42
23.472
190.57
-379.58
-34.106
180.51
-485.21
257.72
157.99
61.824
0.082621
-20.627
-36.845
-17.437
59.468
256.36
62.533
-120.63
-195.09
-103.6
-38.167
51.95
-10.61
-105.36
-104.92
138.19
195.85
-131.86
-14.545
-40.835
114.16
60.369
144.36
113.78
-174.48
-111.18
-28.307
56.954
308.72
157.16
-211.96
-437.82
-123.23
69.446
89.057
30.869
28.241
30.116
79.038
239.89
118.54
-349.21
-223.89
8.6995
139.65
-169
214.76
-137.38
17.622
135.95
-385.33
180.49
156.88
-17.679
-135.93
243.12
62.767
32.043
202.95
-244.78
-317.4
-54.481
149.82
359.48
-129.28
-598.23
347.76
284.2
-212.56
-91.936
121.74
113.89
-120.66
-77.187
-104.06
239.16
83.282
-176.83
-189.24
114.41
-32.144
15.264
263.08
65.225
43.194
-281.9
-243.63
176.55
-134.98
107.47
105.62
129.28
233.35
102
-367.02
13.454
-1.3167
-39.427
140.07
-155.31
-183.15
46.123
70.419
20.616
64.154
40.687
72.485
-0.41099
-178.51
-67.968
-19.389
243.36
-109.8
-193.52
112.18
-236.75
95.053
509.39
35.675
-359.18
-34.522
115.43
-29.848
-13.19
-76.14
32.481
227.68
-336.33
-61.354
115.03
38.92
-0.35291
36.607
23.297
19.933
28.528
-183.34
-12.32
351.18
133.23
-275.47
-234.91
-30.896
192.91
96.389
-198.18
227.29
234.43
-26.385
-198.99
-249.88
-62.216
-102.96
66.936
79.919
135.07
242.88
121.48
-464.79
4.0165
36.729
-112.96
-210.5
101.07
190.46
22.466
68.414
206.78
260.06
-1.0273
-397.2
-180.29
-40.105
168.56
23.039
-103.24
-60.357
105.03
28.349
-29.56
14.415
-15.705
-7.9453
-13.424
-5.9935
34.886
12.318
15.713
90.301
103.2
93.784
-343.64
-206.39
31.927
210.02
176.21
-51.63
-106.76
2.4034
4.3335
17.707
2.1661
-13.403
6.6381
-3.4804
-14.744
37.403
9.4687
-55.474
9.6483
-3.9715
7.9327
-28.284
-33.753
-22.699
-3.1662
-116.79
-12.302
158.29
105.43
-51.49
-51.506
97.862
-23.59
30.509
-45.084
-2.4942
-21.541
3.1529
-0.85352
-29.686
-98.248
-81.292
198.9
-2.3865
-66.752
92.667
11.918
-10.079
-8.7207
44.383
126.4
-335.99
15.075
224.51
194.86
-309.04
-115.23
61.055
-261.6
147.64
141.52
85.743
-74.536
-28.102
14.383
469.66
113.04
-375.82
-197.13
-82.659
-2.014
116.61
72.575
-89.344
-103.48
92.179
-47.15
69.545
220.5
-11.624
328.39
46.665
-144.13
-127.51
-59.284
-326.46
-304.12
-377.82
-191.88
160.98
133.54
253.7
473.35
180.57
-26.78
9.4442
-19.051
-18.34
-17.198
-34.642
-37.332
-49.296
-108.24
47.989
-9.6553
8.2792
10.552
11.852
40.057
35.875
41.546
-10.38
35.037
-61.727
242.14
-115.98
-174.69
138.16
-133.62
-12.645
-136.5
-12.016
-73.926
212.88
-14.601
-1.5639
18.697
67.092
-146.15
-88.608
-95.69
175.57
154.11
-24.309
-16.221
-5.4529
47.633
209.22
-16.078
-55.785
-225.32
-85.709
80.558
-144.86
-112.59
212.01
-9.055
6.3495
19.773
51.456
157.11
82.218
-367.02
42.342
94.77
10.921
-8.5587
-23.063
-82.809
79.097
11.876
29.009
-68.83
17.773
29.848
-18.991
-1.4382
12.858
-41.731
-23.018
353.34
-222.18
-167.72
-152.55
20.533
118.83
-29.402
123.87
22.612
19.031
3.6538
-5.5546
7.581
-8.9457
-8.8923
72.94
-33.426
-94.45
12.67
-1.6256
10.679
28.147
-8.4446
-5.5144
6.146
52.915
241.39
-113.38
-223.4
21.105
29.245
46.601
-37.795
-2.1568
9.1056
-4.26
-12.769
-15.989
7.6996
3.4486
-1.9587
-12.323
0.81165
-0.076015
-8.1559
1.1641
8.2713
-4.4547
1.9012
6.6235
-9.3152
-17.089
-6.5161
5.7335
-2.3147
0.7663
1.0958
-11.161
15.493
-1.6946
-4.5738
10.251
-8.2289
-2.3158
12.552
-4.8922
-2.7827
13.743
-2.5626
-3.1474
16.044
0.82566
-6.8828
10.878
-4.1336
-5.3029
6.5129
2.5122
-14.017
24.374
-14.118
57.986
-42.476
-124.55
112.46
174.21
-91.878
-292.33
85.955
54.826
46.159
-29.584
4.9755
3.5915
21.8
12.385
9.8134
-2.0925
-19.939
-56.93
43.771
17.911
42.8
13.699
-77.004
-17.846
27.339
35.47
10.517
4.4844
-33.767
24.142
22.359
43.048
18.077
-41.252
-16.286
41.493
-27.44
15.868
-11.416
5.5409
-6.5636
-24.417
-5.8168
-5.038
-4.5672
3.6634
-16.392
-6.2419
12.138
-2.6084
-18.693
13.509
-10.797
-18.038
-68.847
-61.305
373.82
71.877
-239.5
-257.49
83.192
103.34
171.62
105.51
-234.06
-476.58
285.23
258.01
-84.479
-155.23
71.52
-46.033
42.302
35.006
6.3543
94.198
38.149
3.8453
64.083
-13.824
-260.31
-94.193
101.56
106.26
139.56
61.445
-12.775
-64.039
-37.812
-50.737
-90.139
63.795
-3.0288
-35.248
-4.0644
19.002
-0.7169
55.197
63.434
-20.295
-44.684
-54.244
-34.219
96.594
-26.371
-67.831
-48.657
135.12
29.016
-54.968
-67.049
-92.298
101.32
63.756
-2.3006
4.664
2.193
-95.544
-32.906
179.86
-0.59093
-51.569
-25.717
-16.767
-8.827
-79.392
-72.521
124.58
115.25
-70.288
-61.609
-22.248
-7.2031
81.465
-27.015
-31.191
-2.6183
16.584
35.508
-3.7195
-9.1003
-40.248
-39.961
50.179
31.517
4.4122
-28.839
-62.907
45.185
45.273
48.875
14.868
-10.164
57.189
-49.456
-127.3
77.338
97.336
38.498
-17.127
-12.971
51.971
-52.31
-29.464
52.844
93.924
-59.226
-144.67
43.27
135.86
-135.14
-123.62
36.702
40.938
13.852
35.915
22.519
-10
3.7635
-16.932
-72.914
64.848
57.866
-40.453
-46.581
-4.7981
42.604
2.9764
8.2967
-27.658
24.178
34.368
-69.247
-4.4459
116.45
11.479
-69.044
-108.37
-11.884
