64
-0
-0
-0
-0
-0
-0
-0
-0
-0
-0
0
0.01
0.01
-0
-0.03
-0.05
-0.05
0
0.13
0.36
0.66
1.01
1.37
1.72
2.06
2.4
2.79
3.24
3.8
4.42
5.06
5.66
6.2
6.68
7.15
7.68
8.31
9.14
10.09
11.04
11.88
12.56
13.14
13.76
14.65
15.96
17.91
20.32
22.9
25.38
27.58
29.57
31.68
34.32
37.81
42.54
48.15
54.1
59.83
64.97
69.58
74.15
79.35
85.71
93.76
102.99
112.61
121.72
129.78
136.79
143.36
150.81
157.79
166.55
177.69
191.35
206.36
219.85
227.49
224.61
207.8
176.12
131.94
79.08
21.94
-36.22
-93.79
-150.5
-206.51
-261.62
-315.06
-365.42
-411.76
-453.26
-489.22
-518.64
-540.09
-551.94
-552.6
-541.23
-517.71
-483.2
-439.59
-389.19
-334.33
-277.2
-219.72
-163.57
-110.25
-60.92
-16.48
22.62
56.36
85.02
108.9
128.19
142.87
152.85
158.27
159.61
157.81
154.02
149.3
144.27
139.01
133.2
126.34
117.94
107.52
94.89
80.39
65.51
52.98
46.29
48.38
60.09
79.32
101.43
121.02
133.96
138.67
136.19
128.96
119.35
108.76
97.92
86.97
76.42
67.16
60.01
55.12
51.79
48.84
45.18
40.32
34.55
28.78
23.98
20.75
19.04
18.22
17.41
15.79
12.94
8.99
4.52
0.36
-2.74
-4.31
-4.33
-3.21
-1.59
-0.12
0.77
0.99
0.81
0.66
0.91
1.63
2.52
2.99
2.49
0.78
-1.86
-4.75
-7.12
-8.51
-8.97
-8.96
-9.01
-9.39
-9.95
-10.25
-9.86
-8.6
-6.66
-4.54
-2.79
-1.8
-1.75
-2.51
-3.76
-5.11
-6.18
-6.79
-6.99
-6.98
-7.01
-7.18
-7.4
-7.39
-6.93
-5.95
-4.62
-3.24
-2.07
-1.18
-0.44
0.38
1.45
2.76
4.1
5.18
5.79
5.95
5.9
6.02
6.58
7.65
9.02
10.37
11.46
12.22
12.75
13.09
13.05
12.2
10.09
6.44
1.54
-3.78
-8.51
-11.87
-13.63
-14.15
-14.06
-13.83
-13.51
-12.82
-11.51
-9.66
-7.79
-6.57
-6.37
-7.01
-7.82
-8.01
-7.14
-5.33
-3.17
-1.35
-0.31
-0.06
-0.28
-0.55
-0.55
-0.19
0.44
1.16
1.69
1.74
1.13
-0.16
-1.95
-3.93
-5.73
-7.1
-7.92
-8.17
-7.86
-7.03
-5.71
-4.07
-2.36
-0.85
0.29
1.05
1.58
2.11
2.76
3.53
4.26
4.83
5.29
5.88
6.83
8.17
9.63
10.67
10.7
9.43
6.81
3.38
0.01
-2.47
-3.63
-3.49
-2.44
-0.95
0.67
2.39
4.28
6.39
8.52
10.33
11.39
11.49
10.71
9.43
8.17
7.38
7.23
7.53
7.91
7.96
7.48
6.5
5.22
3.88
2.61
1.42
0.2
-1.07
-2.34
-3.47
-4.4
-5.18
-5.99
-6.97
-8.12
-9.23
-10.03
-10.33
-10.16
-9.76
-9.39
-9.2
-9.12
-9.01
-8.82
-8.73
-9.08
-10.11
-11.75
-13.53
-14.74
-14.78
-13.39
-10.82
-7.56
-4.16
-0.93
2.01
4.65
6.93
8.74
9.96
10.65
10.99
11.23
11.47
11.6
11.34
10.49
9.07
7.4
5.93
4.95
4.49
4.32
4.14
3.79
3.32
2.91
2.68
2.57
2.36
1.8
0.77
-0.66
-2.23
-3.65
-4.72
-5.41
-5.86
-6.3
-6.95
-7.93
-9.28
-10.88
-12.57
-14.18
-15.6
-16.87
-18.17
-19.7
-21.6
-23.84
-26.13
-28.03
-29.01
-28.74
-27.18
-24.63
-21.61
-18.76
-16.64
-15.53
-15.38
-15.67
-15.67
-14.61
-12.04
-8.03
-3.32
0.83
3.13
2.82
0.16
-3.65
-6.92
-8
-5.9
-0.67
6.59
14.25
20.97
26.39
31.2
36.64
43.98
53.89
65.91
78.36
88.84
95.21
96.36
92.26
83.84
72.77
61.26
51.39
44.34
39.79
36.07
30.61
20.52
3.31
-22.12
-53.22
-83.64
-105.78
-115.51
-114.12
-105.86
-94.72
-82.94
-71.19
-59.46
-48.1
-38.24
-31.26
-27.85
-27.35
-28.18
-28.61
-27.46
-24.33
-19.84
-15.41
-12.74
-12.83
-15.41
-18.94
-21.26
-20.39
-15.21
-6.12
5.03
15.63
23.48
27.67
28.67
27.74
26.26
25.15
24.67
24.63
24.71
24.83
25.16
25.95
27.18
28.53
29.56
29.82
29.1
27.47
25.21
22.65
20.03
17.43
14.74
11.95
9.18
6.64
4.48
2.7
1.15
-0.37
-1.88
-3.22
-4.05
-4.07
-3.2
-1.68
0.07
1.6
2.63
3.11
3.24
3.25
3.31
3.51
3.79
4.03
4.13
3.88
3.14
1.78
-0.18
-2.59
-5.02
-6.89
-7.58
-6.68
-4.3
-0.85
2.98
6.58
9.51
11.68
13.21
14.33
15.17
15.67
15.79
15.57
15.24
15.12
15.49
16.41
17.57
19.09
20.49
21.26
20.96
19.43
16.8
13.44
9.82
6.33
3.26
0.61
-1.63
-3.52
-5.06
-6.29
-7.25
-8.01
-8.65
-9.18
-9.61
-9.78
-9.5
-8.6
-7.03
-4.94
-2.56
-0.18
1.97
3.63
4.73
5.28
5.39
5.25
5.04
4.87
4.75
4.6
4.29
3.77
3.05
2.25
1.45
0.7
-0.02
-0.74
-1.48
-2.18
-2.77
-3.21
-3.46
-3.6
-3.73
-3.91
-4.18
-4.51
-4.86
-5.21
-5.54
-5.84
-6.1
-6.31
-6.44
-6.49
-6.48
-6.49
-6.61
-6.95
-7.56
-8.44
-9.51
-10.64
-11.68
-12.46
-12.8
-12.53
-11.55
-9.87
-7.63
-5.09
-2.49
-0.08
2.04
3.81
5.21
6.24
6.9
7.2
7.17
6.88
6.38
5.71
4.92
4.04
3.12
2.23
1.41
0.68
-0.01
-0.69
-1.36
-2
-2.54
-2.96
-3.28
-3.62
-4.12
-4.88
-5.91
-7.11
-8.3
-9.31
-10
-10.39
-10.59
-10.77
-11.06
-11.5
-12.02
-12.51
-12.85
-13.02
-13.05
-13.09
-13.25
-13.57
-13.99
-14.35
-14.36
-13.77
-12.39
-10.21
-7.37
-4.19
-1.06
1.67
3.8
5.31
6.29
6.88
7.18
7.17
6.74
5.78
4.25
2.25
0.03
-2.11
-3.93
-5.31
-6.29
-7.01
-7.64
-8.27
-8.89
-9.48
-10.03
-10.61
-11.31
-12.16
-13.06
-13.7
-13.7
-12.68
-10.5
-7.32
-3.62
-0.06
2.7
4.24
4.49
3.69
2.28
0.7
-0.78
-2.12
-3.41
-4.81
-6.42
-8.18
-9.95
-11.52
-12.65
-13.11
-12.77
-11.56
-9.57
-6.95
-3.94
-0.75
2.4
5.34
7.87
9.8
10.96
11.28
10.86
9.89
8.67
7.49
6.53
5.9
5.62
5.71
6.18
7.01
8.12
9.35
10.46
11.24
11.6
11.53
11.15
10.58
9.92
9.15
8.2
6.97
5.38
3.37
0.86
-2.15
-5.62
-9.35
-13.04
-16.27
-18.69
-20.12
-20.61
-20.43
-19.97
-19.62
-19.64
-20.18
-21.19
-22.42
-23.45
-23.64
-22.23
-18.49
-11.88
-2.29
9.87
23.7
38.05
51.82
64.31
75.22
84.63
92.71
99.4
104.42
107.4
108.09
106.6
103.37
98.92
93.72
88
81.85
75.27
68.28
60.82
52.76
43.85
33.89
22.9
11.29
-0.29
-11.14
-20.73
-28.91
-35.82
-41.82
-47.34
-52.77
-58.4
-64.36
-70.57
-76.83
-82.85
-88.31
-92.97
-96.58
-98.9
-99.76
-99.22
-97.63
-95.68
-94.15
-93.58
-94.01
-94.88
-95.32
-94.54
-92.29
-88.9
-85.19
-82.11
-80.34
-80.16
-81.44
-83.75
-86.38
-88.39
-88.6
-85.74
-79.02
-68.46
-55.15
-40.79
-27.01
-14.49
-2.79
9.29
22.85
38.11
54.27
69.99
84.19
96.53
107.33
117.04
125.81
133.37
139.36
143.74
146.9
149.31
150.99
151.09
148.09
140.39
127.28
109.45
88.99
68.67
50.84
36.65
25.71
16.54
7.49
-2.48
-13.36
-24.25
-33.95
-41.5
-46.51
-49.04
-49.31
-47.53
-43.85
-38.53
-32.02
-25.06
-18.5
-13.03
-8.96
-6.16
-4.09
-2.08
0.44
3.71
7.55
11.5
15.06
17.96
20.25
22.15
23.78
24.96
25.13
23.48
19.33
12.4
3.01
-7.94
-19.26
-29.72
-38.39
-44.67
-48.41
-49.76
-49.08
-46.85
-43.61
-39.95
-36.39
-33.41
-31.27
-30.07
-29.65
-29.72
-29.93
-29.89
-29.35
-28.14
-26.22
-23.65
-20.52
-16.92
-12.9
-8.44
-3.52
1.79
7.34
12.87
18.03
22.52
26.1
28.68
30.31
31.13
31.34
31.07
30.36
29.17
27.41
25.08
22.3
19.31
16.43
13.91
11.85
10.23
8.88
7.62
6.34
4.99
3.56
2.07
0.53
-1.05
-2.59
-3.98
-5.12
-5.98
-6.64
-7.26
-8.01
-9.04
-10.36
-11.86
-13.38
-14.74
-15.84
-16.65
-17.24
-17.76
-18.38
-19.24
-20.4
-21.8
-23.26
-24.56
-25.41
-25.59
-24.91
-23.28
-20.71
-17.31
-13.33
-9.09
-4.96
-1.26
1.82
4.21
6.02
7.4
8.53
9.52
10.42
11.24
12
12.72
13.39
13.94
14.25
14.22
13.87
13.39
13.02
12.98
13.31
13.84
14.25
14.22
13.55
12.24
10.46
8.45
6.47
4.7
3.21
1.95
0.78
-0.5
-2.1
-4.08
-6.39
-8.82
-11.09
-12.97
-14.37
-15.36
-16.14
-16.96
-17.97
-19.21
-20.58
-21.91
-22.98
-23.53
-23.31
-22.11
-19.86
-16.7
-12.98
-9.19
-5.77
-2.96
-0.74
1.08
2.72
4.34
5.96
7.52
8.98
10.35
11.66
12.89
13.94
14.63
14.81
14.43
13.56
12.39
11.12
9.9
8.82
7.87
7.01
6.22
5.5
4.91
4.49
4.25
4.12
3.95
3.6
2.93
1.9
0.58
-0.9
-2.41
-3.86
-5.26
-6.65
-8.05
-9.41
-10.58
-11.49
-12.1
-12.57
-13.1
-13.9
-15.03
-16.33
-17.45
-17.92
-17.3
-15.31
-11.9
-7.25
-1.81
3.84
9.06
13.36
16.43
18.26
19.12
19.39
19.4
19.31
19.08
18.61
17.82
16.79
15.72
14.82
14.21
13.84
13.55
13.17
12.57
11.77
10.84
9.82
8.71
7.37
5.66
3.48
0.9
-1.88
-4.53
-6.77
-8.45
-9.66
-10.66
-11.75
-13.13
-14.87
-16.84
-18.86
-20.78
-22.59
-24.37
-26.22
-28.21
-30.34
-32.55
-34.79
-37.02
-39.16
-41.02
-42.27
-42.47
-41.17
-38.07
-33.2
-26.88
-19.71
-12.38
-5.48
0.6
5.71
9.89
13.23
15.85
17.85
19.25
20.09
20.41
20.29
19.82
19.13
18.36
17.64
17.05
16.6
16.26
15.99
15.77
15.63
15.62
15.74
15.96
16.17
16.25
16.1
15.67
14.94
13.95
12.77
11.43
10
8.52
7.04
5.57
4.16
2.8
1.52
0.34
-0.77
-1.82
-2.84
-3.87
-4.93
-6.04
-7.24
-8.6
-10.16
-11.9
-13.59
-14.85
-15.18
-14.19
-11.68
-7.83
-3.07
1.98
6.76
10.89
14.18
16.57
18.12
18.86
18.88
18.33
17.43
16.42
15.52
14.81
14.3
13.91
13.52
13.06
12.48
11.76
10.9
9.95
8.94
7.97
7.12
6.43
5.92
5.52
5.12
4.65
4
3.13
1.99
0.57
-1.1
-2.96
-4.9
-6.76
-8.42
-9.8
-10.95
-12.08
-13.43
-15.27
-17.73
-20.73
-23.97
-27
-29.31
-30.46
-30.17
-28.36
-25.14
-20.78
-15.71
-10.42
-5.39
-0.97
2.67
5.6
7.95
9.85
11.4
12.57
13.35
13.74
13.88
13.97
14.21
14.68
15.27
15.77
15.99
15.83
15.4
14.89
14.51
14.36
14.34
14.22
13.79
13.01
12.02
11.09
10.5
10.41
10.87
11.59
12.08
11.96
11.03
9.39
7.34
5.36
3.94
3.55
4.1
5.04
5.78
5.96
5.53
4.68
3.8
3.38
4.17
6.51
10.59
16.77
25.42
36.45
48.79
60.45
68.99
72.54
69.62
59.78
44.01
24.32
2.78
-19.02
-39.93
-60.54
-77.01
-84.35
-80.51
-67.55
-49.85
-32.17
-18.18
-9.46
-5.39
-3.67
-2.49
-1.22
-0.26
-0.22
-1.45
-3.63
-5.8
-6.74
-5.44
-2.14
1.88
4.93
5.95
4.8
2.23
-0.35
-1.45
-0.03
3.68
8.42
12.28
14.12
13.73
11.99
10.43
10.53
13.32
19.09
28.26
39.96
53.04
65.16
72.62
71.25
58.12
33.49
0.52
-33.4
-61.84
-81.15
-91.2
-94.03
-91.78
-85.23
-74.02
-58.08
-38.81
-19.7
-4.66
3.74
5.28
1.73
-4.1
-9.35
-12.05
-11.19
-6.91
0.08
8.67
17.56
25.67
32.52
38.16
42.64
45.67
46.12
42.56
34.26
21.96
8.13
-3.89
-11.31
-13.31
-11.33
-8.43
-7.57
-10.2
-15.79
-22.37
-27.75
-30.59
-30.85
-29.3
-26.84
-23.9
-20.13
-15.11
-8.81
-1.96
4.15
8.23
9.72
8.99
7.24
5.77
5.37
6.01
6.96
7.32
6.58
4.88
2.84
1.22
0.45
0.43
0.73
0.87
0.54
-0.21
-1.07
-1.79
-2.32
-2.86
-3.78
-5.28
-7.23
-9.18
-10.55
-10.97
-10.53
-9.75
-9.39
-10.14
-12.26
-15.45
-18.89
-21.64
-22.98
-22.78
-21.48
-19.98
-19.25
-19.88
-21.71
-24.01
-25.79
-26.3
-25.41
-23.59
-21.76
-21.14
-22.92
-28.01
-36.61
-47.78
-59.14
-67.16
-68.03
-58.59
-38.3
-10.02
20.71
47.9
67.48
78.67
83.53
85.19
85.92
86.06
84.56
80.21
72.88
63.76
54.62
46.65
39.94
33.62
26.59
18.2
8.57
-1.44
-10.54
-17.84
-23.2
-27.16
-30.45
-33.53
-36.4
-38.61
-39.58
-38.32
-34.45
-28.48
-21.68
-15.37
-10.28
-6.3
-2.53
2.26
10.01
21.63
36.29
51.72
65.35
75.53
81.99
85.53
87.36
89.65
93.76
99.78
106.83
113.83
119.93
124.39
126.42
118.44
97.17
65.33
29.91
-3.4
-33.32
-61.43
-88.75
-113.88
-133.29
-142.15
-138.14
-122.83
-101.08
-78.47
-59.02
-44.39
-34.29
-27.56
-22.11
-16.68
-11.24
-6.76
-4.33
-4.25
-5.9
-8.07
-9.47
-8.62
-5.5
-1.07
3.11
5.83
6.89
6.94
6.85
7.01
7.93
9.36
10.58
10.68
8.94
5.07
-0.72
-7.92
-15.7
-23.02
-28.92
-32.57
-33.46
-31.56
-27.44
-22.12
-17.17
-13.63
-12.08
-12.39
-13.79
-15.28
-15.95
-15.11
-12.36
-7.83
-2.27
2.89
5.99
5.94
2.73
-2.39
-7.31
-9.92
-9.07
-4.89
1.37
8.1
14.12
18.85
22.18
24.37
25.82
26.82
27.28
26.65
24.24
19.73
13.49
6.49
0.36
-3.09
-2.81
1.12
7.25
13.52
18.07
19.62
17.37
11.32
2.33
-8.04
-17.85
-25.07
-27.91
-25.5
-17.23
-5.56
4.94
10.78
12.09
12.14
13.42
15.93
17.31
13.9
2.11
-19.44
-48.89
-81.5
-111.13
-132.11
-140.53
-135.32
-118.54
-94.89
-69.74
-47.48
-30.52
-19.43
-13.55
-11.68
-12.67
-15.63
-19.68
-23.36
-24.75
-22.17
-15.03
-4.18
8.64
21.66
33.7
44.29
53.39
60.93
66.48
69.14
68.1
63.29
55.82
47.75
41.52
39.21
41.98
49.79
61.41
74.82
87.58
97.34
102.24
101.2
94.17
82.01
66.27
48.81
31.45
15.72
2.74
-6.86
-12.91
-15.73
-16.12
-15.13
-13.71
-12.45
-11.57
-10.98
-10.56
-10.26
-10.15
-10.25
-10.48
-10.6
-10.34
-9.52
-8.23
-6.78
-5.65
-5.25
-5.83
-7.35
-9.59
-12.16
-14.73
-17.01
-18.8
-20.01
-20.63
-20.75
-20.55
-20.22
-19.93
-19.78
-19.75
-19.71
-19.52
-19.11
-18.48
-17.72
-16.9
-16.06
-15.11
-13.9
-12.34
-10.43
-8.31
-6.17
-4.19
-2.48
-1.04
0.15
1.12
1.81
2.16
2.17
1.88
1.44
1.01
0.74
0.65
0.74
0.93
1.14
1.28
1.32
1.26
1.13
1
0.9
0.81
0.71
0.51
0.2
-0.2
-0.64
-1.07
-1.52
-2.08
-2.82
-3.77
-4.81
-5.73
-6.36
-6.62
-6.56
-6.36
-6.13
-5.84
-5.26
-3.99
-1.63
2.06
7.1
13.31
20.3
27.54
34.37
40.16
44.38
46.76
47.32
46.36
44.33
41.71
38.92
36.28
34.1
32.71
32.36
33.01
34.32
35.73
36.68
36.8
36.1
34.99
34.08
33.97
34.63
35.58
36.02
35.21
32.65
28.47
23.62
19.66
18.2
19.65
23.45
28.31
32.53
33.94
29.86
17.45
-5.35
-38.5
-79.66
-123.2
-161.24
-186.2
-193.98
-185.55
-166.15
-142.66
-120.82
-104.51
-94.65
-89.94
-88.28
-88.24
-89.37
-91.37
-93.21
-87.21
-69.35
-42.62
-16.15
1.66
8.66
9.26
11.09
20.55
39.34
62.74
83.16
94.5
95.28
88.34
78.44
69.39
62.6
57.41
51.89
45.2
38.25
32.87
29.9
28.41
26.35
21.98
14.99
6.29
-2.18
-8.59
-11.38
-10.38
-6.64
-1.86
2.44
5.37
6.46
5.79
3.87
1.52
-0.57
-1.94
-2.41
-1.99
-0.79
0.94
3.01
5.28
7.7
10.14
12.41
14.29
15.55
16.07
15.86
15.07
13.91
12.66
11.5
10.5
9.73
9.15
8.66
8.12
7.43
6.55
5.49
4.32
3.13
2
1.01
0.25
-0.17
-0.14
0.34
1.18
2.16
3.01
3.44
3.24
2.35
0.95
-0.72
-2.39
-3.86
-5
-5.77
-6.2
-6.43
-6.54
-6.59
-6.63
-6.89
-7.49
-8.35
-9.37
-10.42
-11.41
-12.16
-12.38
-11.74
-10.34
-8.17
-5.13
-1.4
2.57
6.25
9.43
12.39
15.74
19.48
23.67
28.16
32.02
33.53
30.65
21.93
7.08
-12.79
-36.13
-59.89
-80.23
-93.97
-99.66
-97.86
-90.63
-80.76
-65.78
-47.25
-29.07
-14.43
-3.85
3.75
9.31
13.19
15.39
16.03
14.95
13.23
12.47
13.35
14.91
15.4
13.57
9.48
4.62
0.96
1.43
8.26
21.36
38.11
53.99
64.28
64.96
53.71
30.66
0.32
-29.24
-49.14
-52.57
-36.9
-4.72
36.6
76.55
101.44
103.26
85.19
57.77
30.95
9.6
-6.08
-18.47
-29.56
-38.98
-44.44
-44.01
-37.98
-29.02
-20.67
-15.13
-13.36
-14.68
-17.15
-18.24
-16.17
-11.04
-4.59
0.97
4.11
4.35
2.39
-0.38
-2.3
-2.33
-0.64
1.58
2.96
2.63
0.4
-3.22
-7.33
-10.96
-13.45
-14.68
-15.03
-14.9
-14.52
-13.93
-13
-11.56
-9.52
-6.96
-4.12
-1.37
1.03
2.93
4.31
5.25
5.83
6.13
6.2
6.14
6.03
5.94
5.87
5.77
5.56
5.22
4.83
4.52
4.4
4.48
4.64
4.67
4.39
3.74
2.82
1.82
0.95
0.31
-0.1
-0.38
-0.63
-0.95
-1.39
-1.97
-2.7
-3.54
-4.44
-5.33
-6.12
-6.75
-7.16
-7.3
-7.12
-6.59
-5.74
-4.65
-3.45
-2.28
-1.22
-0.24
0.77
1.85
2.91
3.76
4.16
3.99
3.31
2.38
1.58
1.24
1.51
2.25
3.16
3.87
4.11
3.77
2.89
1.63
0.4
-0.35
-0.17
1.36
4.41
8.78
13.89
18.89
22.92
25.53
26.57
26.13
24.61
22.63
20.84
19.83
19.82
20.71
22.31
23.92
24.45
23.05
19.54
14.49
9.1
4.55
1.76
1.52
3.48
6.22
8.29
8.93
8.4
8.02
9.46
14.51
24.8
39.89
56.76
70.95
77.93
74.48
60.05
36.46
4.2
-30.92
-60.2
-76.96
-79.78
-71.83
-58.93
-43.51
-26.68
-9.67
6.5
20.26
27.44
26.39
18.45
6.31
-7.93
-23.68
-40.11
-53.96
-61.42
-59.74
-48.18
-29.61
-9.77
5.31
11.85
10.05
2.76
-5.64
-11.59
-13.63
-12.8
-11.21
-10.09
-9.2
-7.19
-3.23
2.24
7.52
11.03
11.73
9.77
6.52
3.56
1.96
1.39
0.5
-2.4
-8.42
-17.64
-28.76
-39.22
-46.06
-45.01
-34.63
-17.86
-0.55
12.3
18.69
19.36
16.47
12.23
8.17
4.69
1.88
-0.01
-0.61
0.01
1.16
1.98
1.88
0.92
-0.7
-2.57
-4.15
-4.95
-4.74
-3.63
-1.8
0.46
2.76
4.32
4.48
3.01
0.42
-2.43
-4.69
-5.74
-5.54
-4.61
-4.03
-4.7
-6.8
-9.59
-11.91
-12.77
-11.56
-8.26
-3.38
2.17
7.62
12.28
15.74
17.61
16.91
13.23
7.82
2.99
0.45
0.62
2.71
6.48
12.2
20.29
30.04
40.09
48.58
53.54
53.72
46.62
31.28
8.88
-16.76
-40.12
-55.47
-59.07
-52.82
-39.82
-24.26
-9.87
1.18
8.85
14.6
20.31
27.48
35.75
43.51
47.81
46.69
40.54
33.06
26.1
20.03
13.83
5.83
-4.64
-16.91
-29.05
-38.8
-44.46
-45.56
-42.45
-36.18
-28.33
-20.39
-13.62
-8.48
-4.55
-0.74
4.01
10.35
17.97
25.54
31.51
34.72
34.97
32.71
28.9
24.38
19.77
15.2
10.32
4.66
-2.15
-10.18
-19.47
-29.58
-39.61
-48.4
-54.97
-58.86
-60.07
-58.94
-56.05
-52.61
-49.7
-47.91
-47.17
-46.92
-46.38
-44.56
-40.61
-30.94
-14.75
5.42
24.69
38.77
45.49
44.92
38.88
30.42
22.92
18.59
18.19
20.98
25.1
28.37
29.17
27.23
23.62
19.94
17.25
16.13
16.71
18.78
21.95
25.72
29.64
33.34
36.48
38.52
39.12
38.39
36.9
35.46
34.58
34.12
33.23
30.81
26.03
18.99
10.82
3.16
-2.63
-5.98
-7.15
-6.83
-5.73
-4.31
-2.78
-1.27
-0.06
0.41
-0.18
-1.77
-3.81
-5.56
-6.46
-6.34
-5.56
-4.64
-4.06
-3.86
-3.61
-2.77
-1.13
1.01
3.06
4.46
5.1
4.84
3.92
2.6
1.03
-0.96
-3.53
-6.5
-9.18
-10.66
-11.1
-11.14
-11.59
-13.24
-16.61
-21.61
-27.4
-32.58
-35.85
-37.83
-39.72
-42.57
-46.96
-53.03
-60.47
-68.38
-75.45
-80.35
-83.88
-86.94
-89.92
-92.56
-94.6
-96.19
-98.06
-101.64
-98.9
-86.98
-68.35
-47.57
-26.23
-2.9
23.1
49.27
70.64
82.59
82.11
70.78
54.03
38.05
26.84
21.02
19.09
19.23
20.33
20.66
18.9
14.46
7.83
0.75
-3.87
-2.46
8
28.39
55.51
83.07
103.5
110.45
100.94
76.79
44.38
12.6
-10.29
-19.78
-16.14
-3.77
10.91
21.7
25.15
20.51
9.83
-3.25
-14.26
-19.37
-16.38
-5.53
10.21
25.67
34.86
33.06
18.63
-5.57
-33.43
-57.39
-70.92
-70.56
-56.62
-32.66
-3.2
25.22
48.7
65.51
75.31
78.4
75.2
66.45
53.35
37.57
21.2
6.77
-3.87
-10.19
-13.03
-14.57
-17.37
-22.74
-30.6
-39.52
-47.08
-51.33
-51.83
-49.16
-46.27
-45.53
-47.4
-49.93
-49.36
-41.8
-25.6
-2.61
22.38
43.3
55.52
57.59
51.34
40.61
29.52
20.96
15.68
13.55
14.03
16.88
21.9
28.42
35.03
39.9
41.28
38.11
30.61
20.1
8.66
-1.58
-9.19
-13.64
-15.33
-15.15
-14.13
-12.95
-11.83
-10.69
-9.29
-7.5
-5.28
-2.73
-0.01
2.49
4.44
5.59
5.86
5.35
4.36
3.25
2.35
1.85
1.64
1.7
2.08
2.81
3.94
5.32
6.66
7.39
8.16
8.84
9.27
9.38
9.22
8.94
8.7
8.58
8.55
8.47
7.96
6.82
5.1
3.05
1.11
-0.31
-0.96
-0.83
-0.08
0.9
1.8
2.49
2.96
3.29
3.58
3.9
4.28
4.76
5.29
5.87
6.49
7.02
7.3
7.17
6.55
5.55
4.37
3.22
2.25
1.49
0.92
0.5
0.2
0.01
-0.16
-0.43
-0.96
-1.78
-2.79
-3.72
-4.28
-4.29
-3.76
-2.89
-2.02
-1.47
-1.46
-2
-2.94
-3.97
-4.82
-5.33
-5.52
-5.54
-5.6
-5.8
-6.1
-6.38
-6.51
-6.51
-6.5
-6.62
-6.92
-7.26
-7.41
-7.18
-6.58
-5.77
-5.06
-4.67
-4.65
-4.86
-5.08
-5.15
-5.05
-4.94
-4.96
-5.21
-5.62
-5.98
-6.13
-6.01
-5.69
-5.34
-5.1
-4.95
-4.79
-4.44
-3.8
-2.91
-1.97
-1.23
-0.88
-0.97
-1.42
-2.07
-2.75
-3.35
-3.86
-4.3
-4.69
-5.02
-5.22
-5.2
-4.9
-4.35
-3.65
-2.98
-2.5
-2.29
-2.32
-2.43
-2.46
-2.26
-1.81
-1.19
-0.53
0
0.28
0.22
-0.18
-0.9
-1.8
-2.74
-3.51
-4
-4.16
-3.99
-3.58
-2.99
-2.26
-1.41
-0.5
0.41
1.22
1.8
2.06
1.97
1.6
1.08
0.61
0.37
0.49
0.98
1.79
2.81
3.9
4.97
5.95
6.8
7.46
7.87
8.01
7.93
7.77
7.69
7.85
8.31
9.05
9.95
10.85
11.61
12.11
12.32
12.2
11.76
11.01
9.96
8.66
7.16
5.44
3.47
1.19
-1.41
-4.26
-7.21
-10.03
-12.54
-14.62
-16.25
-17.43
-18.23
-18.64
-18.63
-18.21
-17.41
-16.35
-15.17
-14.03
-12.98
-12.09
-11.34
-10.71
-10.18
-9.71
-9.24
-8.75
-8.2
-7.61
-7.06
-6.65
-6.44
-6.49
-6.75
-7.13
-7.51
-7.77
-7.85
-7.77
-7.57
-7.35
-7.17
-7.03
-6.86
-6.58
-6.09
-5.36
-4.38
-3.16
-1.73
-0.21
1.23
2.35
2.94
2.94
2.46
1.82
1.4
1.45
2
2.86
3.72
4.32
4.47
4.12
3.31
2.18
0.89
-0.33
-1.28
-1.82
-1.99
-1.91
-1.79
-1.76
-1.86
-1.99
-2.01
-1.81
-1.36
-0.71
0.08
0.91
1.74
2.45
2.97
3.19
3.09
2.72
2.18
1.62
1.17
0.89
0.81
0.92
1.13
1.33
1.42
1.28
0.89
0.3
-0.36
-0.94
-1.29
-1.39
-1.3
-1.16
-1.27
-1.78
-2.57
-3.35
-3.89
-4.07
-3.95
-3.67
-3.4
-3.36
-3.57
-3.88
-4.09
-4.17
-4.27
-4.57
-5.16
-5.99
-7.25
-8.86
-10.39
-11.37
-11.58
-11.12
-10.27
-9.39
-8.79
-9.56
-11.97
-15.09
-17.49
-18.33
-17.55
-15.66
-13.36
-11.3
-11.78
-15.52
-20.94
-25.57
-28.1
-28.56
-27.72
-26.39
-25.15
-27.34
-34.21
-43.52
-51.7
-56.63
-58.25
-57.71
-56.97
-58.36
-67.91
-88.32
-116.49
-146.34
-172.86
-193.24
-206.25
-211.64
-185.19
-122.61
-44.68
22.53
67.96
93.9
107.4
115.2
121.77
128.86
132.14
128.68
120.12
110.61
103.14
98.63
96.59
95.84
95.12
90.59
80.9
68.65
57.85
50.73
47.28
46.24
46.13
45.78
42.77
36.38
28.3
21.07
16.06
13.37
12.29
12.04
11.97
10.89
8.38
5.25
2.74
1.66
2.34
4.67
8.76
14.07
19.75
24.99
29.39
32.75
34.97
36.29
36.92
37.18
37.23
37.02
36.15
34.2
31.01
25.94
20.27
15.05
11.05
8.7
8.26
9.67
12.67
16.27
18.72
17.99
12.35
1.71
-11.99
-25.05
-34.38
-38.07
-36.35
-31.37
-25.79
-21.71
-19.72
-19.17
-18.99
-18.58
-17.92
-17.41
-17.33
-17.48
-17.48
-17
-15.82
-14.27
-12.93
-12.34
-12.79
-14.22
-16.17
-18.05
-19.36
-19.72
-19.23
-18.33
-17.56
-17.33
-17.72
-18.45
-19.08
-19.24
-18.66
-17.44
-15.92
-14.46
-13.24
-12.21
-11.09
-9.33
-7.34
-5.16
-2.86
-0.57
1.59
3.5
5.15
6.6
7.93
9.21
10.57
11.99
13.4
14.68
15.73
16.34
16.12
14.56
11.08
5.62
-1.3
-8.51
-14.54
-18.19
-19.01
-17.29
-13.73
-9.01
-3.5
2.44
8.15
12.52
14.3
12.8
8.48
3.05
-1.21
-2.39
0.19
5.92
13.33
20.8
27.11
31.61
34.11
34.62
33.3
30.51
27.09
24.02
21.93
20.79
19.95
18.6
16.23
13.07
9.98
8.55
9.93
14.13
19.88
25.19
28.41
28.82
26.8
23.48
20.88
20.53
22.69
26.38
30.07
32.8
34.5
35.82
37.55
41.03
46.95
54.91
63.76
72.49
80.71
88.3
94.55
92.18
75.79
45.55
8.24
-26.89
-53.51
-70.17
-79.12
-83.99
-87.46
-89.17
-87.12
-79.69
-67.34
-52.61
-38.65
-27.67
-20.34
-15.93
-12.57
-8.74
-4.23
-0.2
1.56
-0.4
-6.74
-17.03
-29.9
-43
-53.78
-60.78
-64.5
-67.39
-72.08
-79.29
-87.2
-90.44
-83.32
-62.83
-30.65
7.08
42.35
68.33
82.02
84.87
80.53
72.08
60.9
46.98
30.49
12.93
-2.81
-13.75
-18.4
-17.52
-13.64
-9.51
-7.12
-6.83
-7.84
-8.76
-8.61
-7.26
-5.48
-4.52
-5.32
-7.96
-11.56
-14.64
-15.79
-14.31
-10.46
-5.35
-0.52
2.64
3.29
1.29
-2.7
-7.4
-11.31
-13.08
-12.04
-8.45
-3.48
1.22
4.18
4.78
3.77
2.72
3.07
5.32
8.73
11.79
13.23
12.4
9.73
6.46
3.78
2.11
1.11
0.14
-1.02
-2.11
-2.64
-2.57
-2.45
-3.03
-4.4
-5.24
-3.21
3.7
15.5
29.54
40.46
43.49
37.21
24.32
9.94
-1.34
-7.6
-9.85
-10.49
-11.38
-12.43
-12.32
-9.98
-5.55
-0.47
3.35
4.62
3.19
0.04
-3.17
-4.97
-4.79
-3.02
-0.71
0.98
1.27
0.13
-1.73
-3.22
-3.44
-2.22
0.01
2.37
4.04
4.92
5.31
5.86
7.26
9.7
12.99
16.59
19.9
22.44
24.1
25.07
25.68
26.23
26.69
26.84
26.54
25.92
25.18
24.59
24.19
23.85
23.18
21.51
18.33
13.53
7.54
0.69
-6.8
-14.79
-22.97
-30.8
-37.88
-43.86
-48.6
-51.99
-54.59
-57.11
-60.1
-63.42
-66.43
-68.65
-69.6
-68.96
-66.3
-62.18
-57.63
-53.74
-51.02
-46.86
-39.6
-29.04
-19.2
-11.15
-4.89
0.89
6.98
13.88
21.54
28.76
34.11
36.54
36.36
34.34
31.59
29.09
27.57
27.2
27.46
27.71
27.46
26.9
26.16
25.32
24.41
23.45
22.46
21.18
19.46
17.34
15.29
13.63
12.43
11.6
10.93
10.22
9.28
8.06
6.64
5.32
4.27
3.6
3.3
3.37
3.73
4.18
4.49
4.44
4.03
3.36
2.69
2.32
2.41
2.92
3.55
3.89
3.59
2.52
0.97
-0.44
-0.89
0.41
3.95
9.73
17.14
24.96
31.62
35.64
36.15
33.29
28.2
22.54
17.85
15.04
14.11
14.37
14.93
15.25
15.36
15.73
16.79
18.67
21.14
23.62
25.45
26.14
25.62
24.25
22.74
21.57
21.28
22.46
25.61
30.79
37.28
43.56
47.51
47.02
40.06
26.19
6.92
-14.84
-35.95
-54.2
-68.65
-79.24
-86.18
-90.35
-91.67
-89.27
-82.51
-71.98
-60.13
-50.33
-45.7
-47.92
-57.91
-74.11
-92.84
-109.84
-121.87
-128.03
-129.42
-128.3
-118.76
-99.31
-73.31
-46.88
-24.66
-7.89
4.11
12.66
19.1
24.48
28.27
30.3
31.18
31.12
31.54
32.92
35.03
37.37
39.31
39.57
37.73
34.54
31.33
29.45
29.4
31.05
34.13
37.68
40.07
40.31
38.59
35.89
33.92
34.03
37.08
43.11
50.41
55.99
56.86
51.03
37.92
19.24
-1.19
-18.92
-29.11
-28.26
-15.47
7.14
35.71
63.31
81.84
84.12
69.1
43.32
16.8
-2.47
-11.44
-11.49
-7.36
-1.41
5.83
14.54
24.23
32.96
37.95
36.91
29.22
16.03
0.14
-15.26
-27.42
-34.73
-37.15
-35.91
-32.89
-30.04
-29.16
-31.23
-36.49
-44.32
-53.59
-63.24
-72.34
-79.9
-84.64
-85.15
-80.36
-70.36
-56.93
-43
-31.64
-24.72
-22.08
-21.73
-20.83
-17.08
-9.7
0.1
10.16
18.26
23.17
24.7
23.36
20.02
15.48
10.27
4.22
-2.18
-8.13
-12.52
-14.86
-15.99
-17.31
-20.76
-24.94
-26.71
-22.17
-8.49
14.68
44.31
73.24
93.33
98.88
89.17
68.01
42.03
17.89
0.13
-9.92
-13.44
-12.25
-7.89
-1.54
5.03
8.97
8.08
3.2
-2.15
-4.62
-2.98
1.27
6.18
10.21
12.95
14.37
15.36
16.35
16.69
15.38
11.95
6.94
1.5
-3.2
-5.93
-6.09
-4.39
-2.58
-2.23
-4.05
-7.56
-11.58
-14.6
-14.42
-9.13
1.71
16.81
33.76
50
63.59
73.39
75.4
67.22
50.19
29.06
8.96
-7.18
-18.57
-25.65
-29.25
-30
-27.42
-20.78
-10.18
2.88
15.54
24.62
27.85
24.64
16.24
5.74
-3.2
-8.05
-7.08
0.43
14.08
32.28
51.99
69.05
79.66
81.51
74.77
62.06
47.19
33.29
22.15
14.07
8.44
4.79
3.04
2.97
4.46
4.98
-0.29
-15.6
-42.29
-77.62
-115.62
-149.49
-174.16
-187.73
-191.36
-188.33
-180.65
-168.73
-152.48
-133.05
-113.2
-95.8
-81.87
-63.67
-36.72
-1.31
37.4
72.63
98.85
113.28
116.29
110.83
100.34
86.9
72.29
57.8
44.28
32.08
20.24
7.78
-5.85
-20.71
-35.85
-47.79
-51.7
-43.36
-21.22
12.9
54.31
97.27
132.23
148.26
140.55
112.76
74.34
35.59
4.69
-17.55
-32.04
-40.69
-45.29
-46.69
-45.48
-41.48
-35.93
-30.42
-26.33
-23.94
-22.94
-22.35
-20.66
-16.72
-10.52
-3.31
3.2
7.42
8.84
7.68
5.06
2.6
1.62
2.47
4.45
6.37
7.17
6.5
4.59
2.1
-0.14
-1.58
-2.24
-2.62
-3.26
-4.55
-6.42
-8.62
-10.79
-12.59
-13.87
-14.67
-15.21
-15.67
-16.13
-16.44
-16.38
-15.68
-14.16
-11.79
-8.73
-5.33
-2
0.88
3.05
4.43
5.11
5.29
5.17
4.93
4.66
4.41
4.2
4.06
3.99
4.01
4.12
4.3
4.5
4.71
4.91
5.09
5.24
5.33
5.3
5.11
4.73
4.21
3.63
3.05
2.5
1.92
1.23
0.37
-0.68
-1.88
-3.12
-4.26
-5.23
-6.06
-6.86
-7.74
-8.77
-9.94
-11.14
-12.18
-12.9
-13.17
-12.99
-12.45
-11.61
-10.55
-9.33
-8.03
-6.71
-5.44
-4.28
-3.28
-2.49
-1.74
-0.87
0.22
1.61
3.36
5.61
8.56
12.47
17.69
24.77
33.86
44.37
55.02
64.29
70.89
74.17
74.21
71.81
68.53
65.57
63.36
61.63
59.91
57.82
55.15
51.78
47.87
44.33
41.93
40.95
41.07
41.82
42.71
43.42
43.68
39.28
28.74
13.54
-2.71
-16.64
-26.19
-30.61
-30.01
-27.07
-25.34
-27.97
-37.24
-53.93
-76.98
-102.83
-126.08
-141.47
-145.79
-138.47
-121.07
-96.77
-69.42
-42.46
-18.09
2.72
19.74
32.8
41.96
46.17
44.99
39.18
30.3
19.92
9.31
-0.29
-7.11
-9.22
-5.22
5.18
20.35
37.01
51.55
61.44
66.05
64.87
59.06
50.47
40.97
31.68
22.88
14.36
5.78
-3.14
-12.5
-21.88
-30.6
-37.78
-42.75
-45.39
-46.12
-45.6
-44.42
-42.91
-40.84
-37.8
-33.53
-28.24
-22.83
-18.23
-14.79
-12.12
-9.45
-6.12
-2.22
1.3
3.05
1.56
-3.49
-11.1
-19.35
-26.44
-31.36
-34.18
-35.72
-36.92
-38.76
-41.37
-44.06
-45.84
-45.99
-44.37
-41.29
-37.2
-29.85
-18.81
-5.73
6.6
16.02
21.73
23.95
23.49
21.28
18
13.79
8.95
3.97
-0.55
-4.11
-6.56
-8.05
-8.84
-9.24
-9.77
-10.7
-11.93
-13.11
-13.82
-13.71
-12.53
-10.06
-6.21
-1.19
4.69
11.13
17.89
24.73
31.41
37.74
43.61
48.98
53.76
57.96
61.65
64.9
67.65
69.72
70.85
70.85
69.65
67.25
63.72
59.09
53.28
46.17
37.62
27.59
16.25
3.98
-8.61
-20.68
-31.28
-39.38
-44.13
-45.06
-42.18
-36.03
-27.51
-17.67
-7.48
2.41
11.71
20.41
28.72
36.86
44.94
52.97
60.81
68.3
75.27
81.58
87.14
91.86
95.65
98.41
100.03
100.24
98.49
93.98
85.87
73.67
57.54
38.38
17.61
-3.36
-23.58
-42.71
-60.69
-77.24
-91.47
-101.87
-106.89
-105.62
-98.41
-86.86
-73.34
-60.2
-49.09
-40.68
-34.84
-31.02
-28.66
-27.33
-26.66
-26.17
-25.24
-23.34
-20.18
-15.96
-11.32
-7.1
-4.08
-2.69
-3.02
-4.87
-7.88
-11.62
-15.63
-19.4
-22.56
-24.96
-26.75
-28.32
-30.07
-32.12
-34.2
-35.75
-36.11
-34.92
-32.27
-28.68
-24.83
-21.37
-18.7
-17.02
-16.39
-16.91
-18.69
-21.68
-25.57
-29.71
-33.19
-35.16
-35.13
-33.2
-29.93
-26.14
-22.47
-19.31
-16.73
-14.7
-13.2
-12.24
-11.74
-11.49
-11.19
-10.64
-9.86
-9.08
-8.61
-8.51
-8.5
-8.03
-6.63
-4.15
-0.91
2.38
5.07
6.79
7.64
8.14
8.91
10.37
12.56
15.15
17.63
19.65
21.09
22.11
22.97
23.81
24.57
25.04
25.03
24.42
23.33
21.93
20.46
19.08
17.92
17.1
16.7
16.75
17.14
17.6
17.81
17.54
16.79
15.79
14.86
14.21
13.8
13.34
12.4
10.6
7.82
4.37
0.93
-1.61
-2.49
-1.43
1.18
4.3
6.54
6.7
4.31
-0.2
-5.64
-10.5
-13.61
-14.64
-14.23
-13.79
-14.75
-17.97
-23.23
-29.31
-34.61
-37.9
-38.84
-37.94
-36.14
-34.09
-31.81
-28.9
-25.03
-20.52
-16.47
-14.36
-15.35
-19.69
-26.5
-34.05
-40.43
-44.2
-44.84
-42.9
-39.73
-36.87
-35.58
-36.33
-38.77
-41.92
-44.63
-45.97
-45.44
-42.97
-38.71
-32.97
-26.12
-18.64
-11.16
-4.39
1.06
4.85
7.04
8.13
8.89
10.16
12.66
16.73
22.25
28.6
34.84
39.94
43.14
44.15
43.27
41.25
39.02
37.45
37.04
37.88
39.62
41.62
43.21
43.84
43.27
41.6
39.22
36.67
34.48
33.03
32.4
32.33
32.31
31.74
30.19
27.64
24.48
21.41
19.08
17.79
17.28
16.85
15.71
13.36
9.93
6.09
2.75
0.56
-0.34
-0.43
-0.55
-1.47
-3.56
-6.62
-9.9
-12.38
-12.99
-10.99
-6.16
1.03
9.46
17.67
24.27
28.42
29.97
29.19
26.31
21.21
13.51
3.05
-9.57
-22.79
-34.41
-42.16
-44.45
-40.69
-31.34
-17.75
-1.86
13.96
27.21
35.5
36.99
30.77
17.26
-1.86
-24.01
-46.21
-65.71
-80.18
-87.98
-88.1
-80.27
-65.08
-44.23
-20.5
2.64
21.73
34.15
38.57
34.92
24.1
7.52
-13.12
-35.94
-58.85
-79.75
-96.44
-106.66
-108.18
-99.1
-78.64
-47.88
-10.28
28.8
63.15
87.37
98.18
94.99
79.69
55.76
27.23
-1.96
-28.23
-48.24
-58.78
-57.02
-41.17
-11.43
29.21
75
118.33
151.39
168.17
165.93
145.83
112.48
72.56
32.98
-0.62
-24.81
-38.54
-42.55
-38.38
-27.69
-11.97
7.1
27.14
44.86
56.47
58.75
50.28
32.04
7.29
-19.34
-43.08
-60
-67.49
-64.41
-50.92
-28.45
0.23
30.81
57.74
75.1
78.24
65.46
38.92
4.27
-31.01
-59.77
-77.16
-81.34
-73.3
-55.77
-32.15
-5.82
19.92
41.66
55.86
59.38
50.55
30.11
1.47
-30.02
-58.43
-78.88
-88.55
-87.01
-75.78
-57.6
-35.91
-14.55
2.3
10.55
7.22
-8.39
-33.97
-64.58
-94.08
-116.88
-129.52
-131.15
-122.97
-107.38
-87.22
-65.73
-46.69
-34.35
-32.45
-43.06
-65.63
-96.96
-132.22
-166.55
-196.47
-220.54
-238.96
-252.29
-260.94
-264.71
-262.84
-254.29
-238.22
-214.53
-184.13
-148.87
-110.14
-69.46
-28.47
11.44
49.48
85.61
120.35
154.52
189.28
227.86
272.49
322.71
374.59
421.99
458.63
480.06
484.82
474.65
456.71
437.78
421.4
407.12
392.56
375.95
357.34
338.25
320.6
309.86
309.06
317.18
329.54
340.66
347
347.66
343.52
310.58
237.27
129.07
7.16
-105.81
-197.06
-263.72
-308.1
-333.99
-345.36
-341.92
-324.49
-296.58
-264.39
-234.47
-211.39
-197
-190.83
-190.88
-191.31
-187.36
-177.85
-164.78
-151.44
-140.35
-132.52
-127.7
-125.06
-121.3
-114.65
-105.28
-95.07
-86.14
-79.46
-74.64
-70.59
-66.44
-61.16
-54.77
-47.95
-41.18
-33.96
-24.93
-13.1
1.1
15.57
27.83
35.96
39.82
40.18
38.38
35.49
31.85
27.43
22.33
17.22
13.15
11.18
11.9
15.32
20.77
26.76
31.41
32.9
30.12
23.17
13.35
2.51
-7.84
-16.62
-24.26
-31.82
-39.76
-47.27
-52.7
-54.59
-52.68
-48.1
-42.72
-38.34
-35.83
-35.04
-35.22
-35.52
-35.29
-34.28
-32.55
-30.42
-28.38
-26.86
-26.16
-26.49
-27.95
-30.4
-33.18
-34.94
-33.93
-28.69
-18.79
-5.34
9.27
22.2
31.34
36.06
37.3
36.89
36.58
37.34
39.14
41.18
42.41
41.86
38.94
33.58
26.28
18.06
10.32
4.31
0.92
0.29
1.86
4.64
7.65
10.18
11.96
13.05
13.64
13.87
13.79
13.39
12.66
11.64
10.39
8.94
7.24
5.24
3.03
1.03
-0.14
0.15
2.13
5.36
8.67
10.61
10
6.49
0.79
-5.65
-11.22
-14.82
-16.17
-15.8
-14.59
-13.26
-12.13
-11.13
-10.02
-8.69
-7.25
-5.96
-4.99
-4.26
-3.42
-2.07
0.01
2.67
5.38
7.5
8.54
8.42
7.53
6.55
6.16
6.68
7.99
9.44
10.23
9.72
7.73
4.62
1.23
-1.6
-3.32
-3.94
-3.91
-3.89
-4.29
-5.21
-6.36
-7.28
-7.66
-7.47
-6.86
-6.02
-4.98
-3.55
-1.5
1.29
4.69
8.28
11.44
13.67
14.61
14.22
13
11.32
9.55
7.98
6.74
5.87
5.32
4.98
4.78
4.69
4.72
5
5.63
6.65
7.96
9.39
10.68
11.69
12.39
12.9
13.48
14.38
15.76
17.53
19.43
21.05
22
22.08
21.23
19.61
17.47
15.07
12.62
10.3
8.28
6.74
5.81
5.54
5.87
6.61
7.54
8.44
9.18
9.68
9.92
9.92
9.67
9.22
8.6
7.83
6.92
5.78
4.22
2.01
-1.05
-4.98
-9.54
-14.23
-18.46
-21.73
-23.82
-24.87
-25.28
-25.49
-25.79
-26.19
-26.49
-26.41
-25.75
-24.54
-22.94
-21.15
-19.3
-17.44
-15.59
-13.8
-12.22
-11.01
-10.27
-9.94
-9.89
-9.95
-10.02
-10.1
-10.27
-10.58
-11.02
-11.5
-11.89
-12.04
-11.8
-11.09
-9.88
-8.26
-6.43
-4.63
-3.11
-2.02
-1.33
-0.97
-0.87
-1.01
-1.46
-2.29
-3.42
-4.67
-5.78
-6.54
-6.87
-6.9
-6.78
-6.64
-6.46
-6.13
-5.52
-4.62
-3.6
-2.72
-2.19
-2.06
-2.12
-2.09
-1.68
-0.82
0.39
1.68
2.86
3.92
5.07
6.62
8.83
11.71
15
18.29
21.16
23.36
24.94
26.17
27.39
28.89
30.73
32.83
34.94
36.81
38.27
39.4
40.51
42.18
45.07
49.68
56.05
63.58
71.12
77.2
80.4
79.67
74.46
64.69
50.76
33.32
13.22
-8.65
-31.48
-54.61
-77.45
-99.36
-119.56
-137.16
-151.46
-162.26
-170.06
-175.89
-180.87
-185.55
-189.58
-191.71
-190.15
-183.29
-170.3
-151.49
-128.28
-102.84
-77.47
-54.1
-33.9
-17.26
-4.01
6.26
14.01
19.58
23.34
25.76
27.45
28.99
30.78
32.92
35.21
37.29
38.85
39.75
40.11
40.2
40.32
40.66
41.26
42.07
42.99
44.04
45.38
47.23
49.79
53.03
56.64
60.03
62.52
63.55
62.83
60.45
56.79
52.41
47.86
43.56
39.74
36.49
33.81
31.63
29.86
28.36
27.01
25.64
24.19
22.6
20.85
18.91
16.7
14.17
11.29
8.16
4.97
1.91
-0.86
-3.32
-5.55
-7.64
-9.58
-11.19
-12.07
-11.89
-10.36
-7.32
-2.87
2.58
8.45
14.19
19.38
23.82
27.27
29.62
30.88
31.2
30.82
30.05
29.26
28.8
28.91
29.27
29.53
29.49
29.19
28.66
28
27.31
26.65
26.03
24.44
21.18
16.45
11.19
6.31
2.4
-0.29
-1.74
-2.18
-3.72
-7.84
-14.09
-20.7
-25.98
-28.86
-28.63
-24.78
-17.03
-8.45
-1.68
2.57
4.64
3.96
-0.94
-11.2
-26.73
-46.22
-71.36
-102.66
-137.74
-172.83
-205.53
-235.36
-262.58
-287.36
-286.41
-248.69
-184.17
-113.22
-48.93
4.86
47.87
80.36
103
117.31
122.09
117.78
107.84
96.98
88.11
81.95
78.31
76.94
77.67
77.39
73.87
67.48
60.44
54.51
50.3
47.84
46.91
47.19
46.59
43.79
39.24
34.69
31.42
29.77
29.4
29.76
30.35
30.03
28.35
25.88
23.79
22.99
23.9
26.61
30.92
35.89
39.48
39.64
34.25
22.99
7.62
-8.46
-21.53
-28.57
-29.2
-25.33
-19.83
-15.12
-12.14
-10.66
-10.03
-9.91
-10.45
-11.98
-14.32
-16.83
-18.56
-18.75
-17.2
-14.36
-11.08
-8.23
-6.51
-6.15
-6.94
-8.28
-9.37
-9.58
-8.73
-7.15
-5.49
-4.38
-4.14
-4.58
-5.23
-5.57
-5.36
-4.73
-4.04
-3.67
-3.83
-4.43
-5.15
-5.68
-5.81
-5.55
-5.02
-4.34
-3.57
-2.68
-1.61
-0.39
0.8
1.69
1.97
1.48
0.29
-1.29
-2.84
-3.99
-4.53
-4.52
-4.21
-3.87
-3.67
-3.58
-3.54
-3.49
-3.99
-5.46
-8.08
-11.59
-15.24
-18.15
-19.77
-20.13
-19.67
-18.82
-17.46
-14.99
-10.76
-4.7
2.37
9
13.93
16.76
18.14
19.3
21.15
23.69
26.09
27.29
26.76
24.91
22.78
21.29
20.69
20.38
19.42
17.16
13.71
9.96
7.28
6.74
8.57
11.97
15.35
16.94
15.3
9.69
0.27
-11.61
-24
-34.95
-43.07
-47.67
-48.62
-46.17
-40.8
-33.17
-23.57
-12.41
-0.53
10.78
20.25
27.28
31.97
34.78
36.16
36.95
38.1
40.57
45.23
52.76
63.23
75.69
87.99
93.94
88.93
72.94
50.77
27.87
6.21
-15.79
-40.43
-67.77
-94.45
-114.49
-122.47
-116.28
-97.98
-72.31
-44.35
-18.13
3.65
19.31
28.4
31.41
29.56
24.52
18.13
12.1
7.44
4.26
2.12
0.79
0.45
1.35
3.38
6.02
8.57
10.26
10.51
9.06
5.9
1.27
-4.48
-11
-17.89
-24.44
-29.62
-32.23
-31.14
-25.81
-16.66
-5.21
6.46
16.1
22.58
25.81
26.13
23.74
18.56
10.61
0.57
-10.02
-19.12
-25.05
-27.22
-26.41
-24.04
-21.45
-19.44
-17.79
-16.17
-14.35
-12.41
-10.61
-9.21
-8.27
-7.53
-6.55
-4.78
-1.93
1.91
6.19
9.95
12.15
12.09
9.73
5.68
1.06
-2.91
-5.28
-5.63
-4.08
-1.1
2.73
6.84
10.72
13.97
16.33
17.63
17.73
16.48
13.88
10.22
6
1.85
-1.51
-3.43
-3.72
-2.82
-1.64
-1.11
-1.63
-3.06
-5.07
-7.43
-9.93
-12.22
-13.49
-12.33
-6.99
3.64
18.91
35.41
47.35
49.85
42.45
29.21
15.58
5.31
-0.82
-4.35
-7.46
-11.31
-15.42
-18.43
-19.27
-17.99
-15.55
-13.2
-11.87
-11.98
-13.31
-15.07
-16.38
-16.83
-16.63
-16.24
-16.16
-16.67
-17.72
-18.85
-19.36
-18.5
-15.94
-11.87
-6.88
-1.73
2.92
6.72
9.71
12.21
14.66
17.28
19.98
22.46
24.35
25.44
25.8
25.72
25.63
25.86
26.46
27.18
27.62
27.4
26.39
24.73
22.8
20.98
19.51
18.32
17.06
15.25
12.46
8.55
3.67
-1.77
-7.29
-12.45
-16.88
-20.4
-22.98
-24.93
-26.81
-29.37
-33.24
-38.53
-44.58
-50.05
-53.34
-53.31
-49.76
-43.65
-36.7
-30.63
-26.49
-24.28
-23.19
-22.16
-20.42
-17.84
-14.84
-12.01
-9.65
-7.58
-5.26
-2.08
2.23
7.43
12.88
17.78
21.53
23.91
25.13
25.56
25.57
25.27
24.55
23.22
21.21
18.75
16.29
14.3
13.04
12.47
12.25
11.9
11.02
9.5
7.51
5.37
3.46
1.99
0.96
0.21
-0.5
-1.39
-2.55
-3.96
-5.46
-6.81
-7.76
-8.16
-8.03
-7.47
-6.68
-5.86
-5.12
-4.5
-3.92
-3.28
-2.5
-1.52
-0.3
1.25
3.19
5.57
8.34
11.41
14.6
17.62
20.17
21.99
22.97
23.04
22.24
20.82
19.3
18.32
18.4
19.73
22.12
25.03
27.53
28.76
28.36
26.85
25.28
24.69
25.64
27.91
30.69
32.38
31.39
26.9
19.53
11.15
4.03
0.02
-0.1
3.2
7.62
9.81
6.62
-3.52
-19.96
-40.16
-60.36
-76.58
-83.34
-77.08
-59.46
-37.98
-21.54
-15.33
-19.29
-29.4
-39.92
-45.11
-42.82
-32.74
-16.3
3.88
24.23
40.61
49.57
47.61
35.74
18.83
2.87
-8.16
-13.29
-13.85
-11.89
-8.81
-5.36
-0.94
3.97
7.95
9.41
7.88
4.63
2.06
2.52
7.18
15.89
26.76
36.81
42.76
41.93
33.49
19.02
2
-13.87
-25.82
-33.15
-37.07
-39.84
-43.42
-48.61
-55.01
-61.32
-66.19
-68.06
-65.37
-57.03
-43.05
-25.02
-5.93
10.18
21.38
26.71
27.03
24.85
23.08
23.61
26.8
31.79
37.31
42.42
46.39
48.69
49.44
48.68
46.39
42.56
37.9
34.17
33.63
38.12
47.7
61.33
76.64
90.78
101.18
106.15
104.96
97.19
82.26
59.34
29
-3.73
-31.02
-47.59
-53.37
-51.64
-46.07
-39.02
-35.52
-34.86
-36.59
-40.47
-46.58
-55.01
-65.93
-80.61
-96.28
-112.9
-129.36
-143.34
-151.5
-153.24
-152.34
-154.63
-164.29
-179.22
-192.52
-195.17
-182.57
-156.67
-127.04
-105.19
-96.46
-97.37
-96.76
-84.49
-56.15
-14
38.11
95.64
154.46
211.28
260.95
298.3
317.9
318.21
289.78
238.97
185.69
148.51
137.86
141.48
146.74
145.61
131.02
102.39
64.9
23.92
-18.67
-56.54
-84.1
-98.88
-103.96
-104.6
-104.32
-102.53
-97.45
-87.5
-71.33
-49.92
-25.22
-1.22
17.19
26.46
27.23
21.91
13.31
4.37
-3.69
-10.28
-15.74
-20.46
-24.43
-26.95
-27.85
-27.77
-27.58
-28.68
-32.13
-39.13
-49.27
-63.15
-81.85
-106.31
-136.02
-167.94
-197.12
-217.67
-224.42
-214.02
-185.91
-142.35
-87.87
-28.04
31.48
85.52
129.77
161.27
179.38
185.49
182.42
173.36
161.34
148.64
136.3
124.15
111.42
98.39
86.11
75.33
65.48
55.16
42.89
27.6
8.91
-12.63
-34.41
-52.38
-62.69
-63
-52.14
-30.06
1.87
40.79
76.25
96.12
96.17
82.89
65.37
48.92
34.92
22.88
12.14
2.56
-4.5
-7.28
-5.22
0.1
6.31
11.24
13.12
10.64
3.42
-6.7
-16.15
-21.54
-21.74
-18.1
-13.59
-11.47
-13.74
-20.29
-28.34
-34.8
-37.6
-36.87
-34.19
-31.25
-28.91
-27.13
-25.43
-23.26
-20.46
-17.36
-14.84
-13.62
-13.89
-15.18
-16.53
-17.11
-16.38
-14.36
-11.65
-9.18
-7.76
-7.64
-8.52
-9.77
-10.78
-11.15
-10.94
-10.26
-9.29
-8.19
-7.06
-5.97
-4.98
-4.2
-3.68
-3.42
-3.36
-3.42
-3.54
-3.66
-3.72
-3.65
-3.4
-2.95
-2.36
-1.72
-1.2
-0.94
-1.02
-1.38
-1.87
-2.3
-2.47
-2.25
-1.65
-0.77
0.2
1.06
1.65
1.92
1.91
1.71
1.38
0.99
0.56
0.08
-0.45
-1.03
-1.68
-2.41
-3.22
-4.09
-4.94
-5.76
-6.51
-7.25
-8
-8.81
-9.67
-10.57
-11.47
-12.29
-12.98
-13.39
-13.42
-12.98
-12.1
-10.86
-9.45
-8
-6.59
-5.24
-3.86
-2.37
-0.77
0.87
2.44
3.81
4.87
5.58
5.93
6.06
6.12
6.24
6.5
6.89
7.33
7.68
7.83
7.68
7.46
7.51
8.27
10.2
13.72
19.03
25.91
33.61
40.93
46.95
50.94
52.54
51.9
49.73
46.96
44.45
42.68
41.53
41.17
41.45
41.99
42.41
42.5
42.21
41.41
39.77
36.72
32.59
27.87
23.13
19
16.15
15.06
15.83
18.24
17.65
12.13
2.62
-8.1
-17.84
-25.71
-31.25
-33.71
-31.6
-25.54
-16.67
-7.64
-1.91
-2.27
-9.41
-21.64
-36.5
-50.2
-59.88
-63.71
-61.66
-54.86
-44.83
-33.14
-21.37
-11.22
-4.07
-0.77
-0.65
-2.23
-3.76
-4.14
-3.46
-2.87
-3.74
-6.65
-11.28
-16.25
-19.9
-20.9
-18.84
-14.48
-9.49
-5.45
-3.09
-2.22
-1.95
-1.31
0.4
3.22
6.42
8.9
9.75
8.29
3.35
-7.06
-24.95
-49.76
-75.63
-92.88
-94.33
-80.19
-57.13
-34.21
-18.41
-11.82
-11.61
-12.7
-11.98
-9.97
-9.43
-13.03
-21.54
-33.4
-45.58
-55.09
-60.57
-62.17
-61.51
-60.23
-58.72
-56.16
-51.41
-43.99
-34.82
-25.92
-19.47
-16.4
-15.4
-13.19
-6.05
8.18
29.16
54.01
78.42
98.64
112.96
122.29
129.1
135.77
143.23
150.83
156.63
158.21
153.92
143.28
126.86
105.69
81.12
55.16
31.38
14.1
6.53
9.5
20.44
33.94
43.46
44.11
34.76
19.22
3.76
-6.51
-9.37
-5.96
0.56
6.46
8.61
1.2
-17.8
-43.64
-66.88
-78.46
-74.05
-54.75
-26.51
1.82
21.68
28.64
25.03
13.48
-2.79
-20.98
-38.93
-55.15
-68.36
-77.19
-79.89
-75.7
-66.26
-53.12
-39.27
-27.26
-18.3
-12.19
-7.8
-3.45
2.15
8.95
16.14
22.19
25.31
24.22
18.78
10.51
2.09
-3.98
-6.94
-7.75
-8.71
-12.03
-18.66
-27.86
-37.52
-45.07
-48.6
-47.51
-42.36
-34.46
-25.15
-15.37
-5.6
3.87
12.62
19.95
25.06
27.39
26.94
24.34
20.79
17.55
15.49
14.72
15.01
15.8
16.63
17.25
17.55
17.68
17.83
18.16
18.73
19.44
20.11
20.49
20.5
20.13
19.68
19.61
20.33
22
24.43
27.19
29.91
32.53
35.07
37.75
40.58
43.21
44.93
44.95
42.61
37.46
30.84
23.69
16.82
10.58
4.81
-1.02
-7.4
-14.5
-21.91
-28.8
-34.42
-38.2
-39.94
-39.85
-38.26
-35.5
-31.68
-26.84
-21.01
-14.53
-7.87
-1.53
4.03
8.52
11.76
13.71
14.38
13.95
12.69
11.08
9.8
9.44
10.39
12.6
15.54
18.24
19.6
18.6
14.78
8.38
0.36
-7.98
-15.42
-21.16
-25.07
-27.52
-29.13
-30.38
-31.4
-31.95
-31.65
-30.25
-27.84
-24.85
-21.89
-19.5
-17.92
-17.1
-16.75
-16.58
-16.4
-16.2
-16.03
-15.98
-15.99
-15.95
-15.7
-15.16
-14.3
-13.14
-11.74
-10.18
-8.53
-6.94
-5.59
-4.61
-4.04
-3.81
-3.77
-3.71
-3.48
-3.01
-2.36
-1.75
-1.45
-1.73
-2.78
-4.57
-6.88
-9.38
-11.71
-13.55
-14.71
-15.07
-14.6
-13.36
-11.55
-9.5
-7.62
-6.28
-5.72
-5.98
-6.94
-8.41
-10.2
-12.1
-13.96
-15.63
-16.99
-18.02
-18.77
-19.33
-19.73
-19.86
-19.46
-18.26
-16.05
-12.8
-8.67
-3.96
1.02
6.03
10.88
15.43
19.49
22.83
25.21
26.5
26.72
26.06
24.83
23.33
21.78
20.27
18.83
17.43
16.06
14.74
13.48
12.28
11.12
9.95
8.75
7.55
6.36
5.22
4.13
3.06
1.95
0.72
-0.71
-2.36
-4.14
-5.88
-7.31
-8.14
-8.14
-7.21
-5.37
-2.77
0.32
3.64
6.89
9.81
12.18
13.81
14.66
14.79
14.3
13.33
11.98
10.3
8.32
6.14
3.89
1.77
-0.03
-1.39
-2.29
-2.84
-3.22
-3.64
-4.3
-5.31
-6.71
-8.42
-10.28
-12.09
-13.66
-14.88
-15.72
-16.27
-16.63
-16.91
-17.17
-17.41
-17.58
-17.58
-17.31
-16.64
-15.47
-13.7
-11.31
-8.38
-5.08
-1.67
1.52
4.23
6.25
7.51
7.99
7.8
7.08
6
4.74
3.45
2.24
1.22
0.42
-0.18
-0.63
-0.98
-1.28
-1.48
-1.56
-1.52
-1.43
-1.39
-1.49
-1.75
-2.12
-2.47
-2.75
-2.94
-3.07
-3.17
-3.18
-3.05
-2.75
-2.41
-2.2
-2.27
-2.61
-3.03
-3.23
-2.98
-2.2
-0.98
0.47
1.95
3.34
4.56
5.56
6.25
6.52
6.32
5.68
4.69
3.52
2.35
1.36
0.66
0.29
0.2
0.2
0.1
-0.22
-0.78
-1.43
-2
-2.35
-2.42
-2.26
-1.94
-1.55
-1.2
-0.99
-1.05
-1.49
-2.35
-3.52
-4.81
-5.99
-6.87
-7.42
-7.71
-7.9
-8.09
-8.28
-8.34
-8.06
-7.28
-5.99
-4.35
-2.69
-1.34
-0.56
-0.43
-0.86
-1.66
-2.66
-3.74
-4.82
-5.83
-6.67
-7.21
-7.38
-7.2
-6.81
-6.37
-6.07
-5.99
-6.12
-6.37
-6.57
-6.56
-6.19
-5.43
-4.36
-3.21
-2.2
-1.54
-1.26
-1.24
-1.3
-1.28
-1.13
-0.89
-0.7
-0.65
-0.75
-0.9
-0.97
-0.81
-0.34
0.48
1.62
2.96
4.38
5.7
6.78
7.51
7.84
7.77
7.37
6.73
5.98
5.22
4.52
3.9
3.36
2.87
2.42
2.05
1.77
1.61
1.54
1.52
1.49
1.37
1.16
0.88
0.59
0.35
0.19
0.1
0.06
-0.02
-0.22
-0.55
-0.95
-1.28
-1.37
-1.06
-0.39
0.55
1.59
2.65
3.69
4.72
5.69
6.44
6.69
6.19
4.89
2.95
0.76
-1.24
-2.74
-3.62
-3.99
-4.07
-4.07
-4.12
-4.25
-4.4
-4.48
-4.43
-4.23
-3.88
-3.44
-2.98
-2.56
-2.25
-2.04
-1.89
-1.67
-1.29
-0.7
0.04
0.72
1.15
1.22
0.99
0.63
0.36
0.35
0.65
1.27
2.16
3.26
4.45
5.57
6.38
6.72
6.52
5.9
5.07
4.25
3.57
3.08
2.76
2.63
2.71
3.04
3.52
3.97
4.11
3.75
2.85
1.58
0.24
-0.88
-1.61
-1.97
-2.07
-2.08
-2.1
-2.14
-2.11
-1.98
-1.73
-1.44
-1.21
-1.11
-1.15
-1.3
-1.46
-1.49
-1.29
-0.86
-0.3
0.32
0.94
1.55
2.01
2.14
1.76
0.79
-0.77
-2.7
-4.62
-6.12
-6.96
-7.37
-7.76
-8.47
-9.65
-11.18
-12.74
-13.89
-14.31
-14.02
-13.95
-14.94
-17.21
-20.37
-23.72
-26.49
-28.01
-27.98
-26.59
-25.65
-26.56
-29.49
-33.59
-37.68
-40.54
-40.97
-37.96
-31.05
-22.41
-14.18
-7.71
-4.02
-4.6
-10.88
-23.19
-40.07
-58.55
-77.36
-94.6
-107.84
-115.54
-118.4
-118.71
-118.76
-119.66
-106.64
-74.48
-30.29
13.83
50.72
78.7
98.44
111.23
118.62
122.19
120.99
114.95
105.72
95.78
86.87
79.8
74.88
72.1
71.1
69.4
65.39
59.33
52.78
47.09
43
40.63
39.68
39.49
38.25
35.05
30.52
26.16
23.24
22.16
22.58
23.59
24.26
23.49
21.09
18.04
15.73
15.15
16.57
19.86
24.61
30.49
35.81
38.46
36.24
27.7
13.15
-4.82
-21.8
-33.31
-36.72
-32.33
-23.3
-13.98
-7.57
-4.98
-5.26
-6.89
-9.16
-12.83
-18.83
-26.96
-35.22
-40.25
-38.78
-29.36
-13.4
5.11
20.83
29.48
29.58
22.76
12.63
3.18
-3.74
-7.92
-10.47
-12.86
-15.8
-18.99
-21.47
-22.45
-21.79
-20.14
-18.28
-16.82
-15.86
-15.03
-13.89
-12.27
-10.39
-8.72
-7.82
-7.92
-9.05
-10.99
-13.28
-15.43
-16.99
-17.77
-17.88
-17.71
-17.66
-18.05
-19
-20.33
-21.62
-22.45
-22.44
-21.34
-19.71
-17.87
-16.08
-14.58
-13.48
-12.88
-12.75
-12.95
-13.23
-13.27
-12.74
-11.53
-9.91
-8.39
-7.51
-7.62
-8.67
-10.23
-11.69
-12.39
-11.98
-10.56
-8.52
-6.41
-4.6
-3.18
-1.87
-0.27
1.94
4.69
7.43
9.34
9.71
8.23
5.08
0.87
-3.61
-7.52
-10.02
-10.4
-8.33
-4.28
0.25
3.04
2.12
-3.08
-11.02
-18.32
-21.16
-16.92
-5.3
11.75
31.02
49.29
64.37
75.17
81.45
83.3
81.07
75.51
68.01
60.47
54.68
51.77
51.71
53.46
55.34
55.64
53.35
48.5
42.07
35.42
29.73
25.5
22.55
20.16
17.39
13.4
7.97
1.12
-7.06
-16.24
-25.57
-33.57
-38.64
-39.74
-36.81
-29.99
-20.04
-8.25
3.98
15.53
25.84
34.62
41.63
46.74
51.44
57.14
64.31
72.11
79.06
84.01
86.53
87.08
86.9
89.42
97.5
111.93
130.86
150.93
168.72
181.41
186.96
173.12
133.61
71.56
-0.7
-69.19
-124.91
-164.94
-190.53
-204.99
-211.86
-211.95
-205.04
-191.23
-171.98
-149.87
-127.63
-107.32
-89.95
-75.48
-61.88
-47.59
-32.67
-18.93
-8.59
-2.89
-1.62
-3.59
-7.26
-10.45
-11.66
-10.48
-7.65
-4.4
-1.79
-0.36
-0.12
-0.57
-0.65
0.43
2.75
5.6
8.01
9.27
9.38
8.53
7.3
6.57
7.02
9.03
12.43
16.51
20.09
22.21
22.21
20.11
16.64
12.85
9.68
7.52
6.07
4.62
2.54
-0.51
-4.33
-8.39
-12.14
-15.21
-17.52
-19.15
-20.25
-20.89
-21.13
-21.07
-20.82
-20.7
-20.95
-21.8
-23
-23.92
-23.49
-20.73
-15.34
-8.28
-1.49
2.98
4.21
3.12
2.09
3.45
8
14.25
19.06
19.24
13.27
2.04
-11.65
-24.21
-32.67
-35.56
-32.74
-25.08
-14.05
-1.58
10.59
20.57
26.95
28.94
26.67
21.25
14.27
7.55
2.71
0.91
2.27
5.92
10.32
13.84
15.72
15.89
14.82
13.06
10.81
7.66
3.13
-2.78
-9.1
-13.64
-14.57
-11.66
-6.93
-4.17
-7.45
-18.98
-37.59
-58.53
-74.27
-77.84
-65.32
-37.17
1.91
44.5
82.84
110.88
121.54
113.67
91.89
63.97
37.39
16.67
2.45
-7.67
-17.7
-30.41
-45.5
-60.35
-70.87
-73.29
-66.23
-51.65
-33.96
-18.5
-9.6
-8.9
-15.28
-25.3
-34.16
-36.84
-29.57
-10.54
19.38
56.44
93.07
117.85
123.1
109.85
85.41
57.27
29.97
5.15
-16.75
-34.9
-47.52
-52.38
-49.66
-41.09
-30.48
-21.74
-17.14
-16.59
-18.24
-19.48
-17.98
-12.89
-5.22
2.65
8.52
10.99
10
6.57
2.4
-0.62
-1.28
0.5
3.65
6.82
8.94
9.61
9
7.63
6.15
4.99
4.19
3.42
2.36
0.91
-0.79
-2.5
-4.05
-5.35
-6.44
-7.42
-8.38
-9.28
-10.02
-10.48
-10.61
-10.45
-10.03
-9.37
-8.44
-7.25
-5.89
-4.54
-3.38
-2.52
-1.93
-1.51
-1.14
-0.74
-0.32
0.08
0.39
0.6
0.75
0.92
1.19
1.63
2.24
2.94
3.63
4.18
4.51
4.6
4.51
4.33
4.13
3.96
3.79
3.61
3.41
3.19
3.02
2.95
2.98
3.07
3.16
3.14
2.89
2.31
1.38
0.18
-1.12
-2.26
-3.01
-3.24
-3.05
-2.76
-2.75
-3.36
-4.7
-6.6
-8.6
-10.17
-10.76
-10.02
-7.99
-5.09
-2.17
-0.33
-0.63
-3.22
-7.62
-12.29
-15.3
-15.28
-12.1
-6.76
-0.8
4.48
8.43
10.95
12.75
14.33
15.82
16.95
17.39
16.98
16.02
15.17
15.1
16.19
18.19
20.4
21.8
21.87
20.8
19.87
20.6
23.79
29.26
36.21
43.61
49.84
53.37
51.35
41.06
21.05
-7.8
-42
-76.51
-104.4
-120
-120.8
-108.14
-86.29
-60.69
-36.12
-15.52
0.18
11.08
17.27
18.69
15.3
7.58
-3.44
-16.18
-28.81
-38.19
-41.66
-38.48
-30.16
-19.47
-8.99
-0.25
6.29
10.89
14.2
16.86
19.41
22.36
26.14
30.66
35.25
38.92
40.76
40.31
37.55
32.82
25.97
18.2
10.39
2.89
-4.1
-10.24
-14.94
-17.75
-18.39
-16.87
-13.27
-8.08
-1.94
4.33
9.95
14.7
18.47
21.3
23.25
24.32
24.2
22.62
19.71
16.18
13.13
11.51
11.62
12.93
14.37
14.8
13.6
10.99
7.77
4.88
2.9
2.27
2.84
4.15
5.61
6.82
7.66
8.2
8.55
8.82
9.06
9.26
9.43
9.59
9.76
9.89
9.86
9.46
8.57
7.15
5.31
3.2
1.05
-0.95
-2.72
-4.49
-6.55
-9.09
-12.04
-15.16
-18.07
-20.42
-21.89
-22.37
-22.3
-22.19
-22.38
-22.86
-23.46
-23.99
-24.29
-24.29
-23.98
-24.03
-25.05
-27.26
-30.32
-33.69
-36.87
-39.53
-41.39
-42.23
-42.68
-43.36
-44.67
-46.59
-49.11
-52.39
-56.58
-61.47
-61.8
-54.09
-38.46
-18.67
0.91
17.36
29.5
37.31
41.54
43.48
43.72
42.7
40.81
38.74
36.76
34.9
33.14
31.67
31.13
31.57
32.65
33.84
34.71
35.29
35.79
36.18
36.29
36.06
34.82
31.98
25.76
14.86
-1.46
-22.76
-47.23
-71.54
-90.71
-99.96
-96.18
-78.79
-46.45
-2.18
48.24
96.18
129.47
139.73
127.11
99.04
65
32.78
6.29
-13.31
-27.07
-36.26
-40.49
-39.3
-33.39
-24.81
-16
-9.34
-6.08
-5.79
-7.37
-8.87
-8.72
-6.61
-3.36
-0.22
1.67
1.91
0.77
-1
-2.25
-2.23
-0.99
0.77
2.18
2.5
1.47
-0.76
-3.72
-6.69
-9.12
-10.88
-12.17
-13.32
-14.52
-15.7
-16.62
-16.97
-16.49
-15.11
-13
-10.46
-7.78
-5.19
-2.83
-0.81
0.77
1.87
2.52
2.8
2.85
2.76
2.58
2.28
1.85
1.34
0.85
0.52
0.46
0.7
1.16
1.75
2.34
2.89
3.4
3.92
4.47
5.04
5.55
5.9
5.97
5.72
5.18
4.47
3.75
3.14
2.67
2.29
1.88
1.35
0.67
-0.07
-0.78
-1.35
-1.77
-2.12
-2.51
-3.05
-3.79
-4.66
-5.52
-6.19
-6.52
-6.45
-6
-5.25
-4.31
-3.28
-2.21
-1.13
-0.04
1.04
2.03
2.85
3.43
3.74
3.8
3.72
3.58
3.49
3.46
3.47
3.44
3.34
3.19
3.09
3.13
3.37
3.75
4.09
4.17
3.82
3
1.92
0.88
0.13
-0.21
-0.23
-0.17
-0.31
-0.79
-1.58
-2.48
-3.24
-3.72
-3.89
-3.85
-3.77
-3.78
-3.96
-4.29
-4.68
-5.08
-5.6
-6.2
-6.58
-6.37
-5.09
-2.42
1.59
6.63
12.01
16.66
19.86
21.27
20.94
19.38
17.61
16.75
18.05
22.03
27.94
34.45
39.81
42.34
41.46
38.02
33.91
31.48
32.14
35.35
39.49
42.17
41.13
35.77
27.83
18.21
9.37
6.96
12.07
21.68
31.26
35.84
31.82
17.75
-6.18
-38.24
-75.55
-112.55
-138.13
-141.99
-122.61
-88.79
-53.98
-28.93
-16.82
-13.22
-9.93
0.16
18.24
39.74
57.81
67.24
66.45
57.43
43.88
25.9
6.67
-10.49
-24.07
-34.26
-41.29
-44.45
-42.28
-33.96
-20.56
-4.94
8.15
14.21
11.62
2.72
-7.54
-14.22
-14.83
-10.11
-2.95
2.85
4.57
1.92
-3.1
-7.77
-10.22
-10.45
-8.93
-6.46
-3.94
-1.93
-0.44
0.86
2.3
3.73
4.81
5.43
5.64
5.4
4.66
3.5
2.21
1.24
0.58
0.3
0.78
2.21
4.36
6.61
8.2
8.49
6.87
2.92
-3.33
-10.65
-17.44
-22.6
-26.13
-29.09
-32.99
-39.19
-48.97
-61.81
-75.33
-86.83
-94.65
-98.19
-97.11
-90.43
-71.25
-38.62
1.5
40.52
71.76
91.96
101
101.01
95.54
87.89
79.16
69.74
60.16
50.65
41
31.56
21.63
11.48
2.03
-5.93
-10.86
-10.79
-5.16
4.29
13.97
19.78
18.83
10.27
-4.96
-24.53
-42.28
-52.22
-51.76
-42.47
-28.33
-13.32
-0.13
9.87
16.56
20.58
22.15
21.12
17.42
11.41
4.02
-3.47
-9.86
-14.04
-15.22
-13.53
-9.97
-5.9
-2.59
-0.7
-0.27
-0.86
-1.81
-2.41
-2.45
-2.23
-2.21
-2.64
-3.41
-4.12
-4.24
-3.43
-1.69
0.48
2.26
2.89
2.07
-0.04
-2.88
-5.75
-8.07
-9.54
-10.26
-10.52
-10.93
-11.68
-12.69
-13.7
-14.49
-14.99
-15.34
-15.82
-16.66
-17.91
-19.36
-20.68
-21.56
-21.81
-21.43
-20.56
-19.37
-18
-16.47
-14.69
-12.52
-9.89
-6.8
-3.35
0.28
3.86
7.18
10.12
12.61
14.66
16.29
17.49
18.26
18.58
18.46
17.99
17.27
16.4
15.48
14.51
13.48
12.4
11.33
10.36
9.59
9.07
8.78
8.58
8.33
7.87
7.14
6.17
5.09
4.04
3.13
2.39
1.76
1.15
0.51
-0.2
-0.94
-1.67
-2.32
-2.83
-3.06
-2.84
-1.98
-0.4
1.83
4.44
7.08
9.37
11.06
12.01
12.23
11.77
10.69
9
6.7
3.79
0.29
-3.66
-7.82
-11.83
-15.27
-17.76
-19.09
-19.2
-18.22
-16.39
-13.94
-11.11
-8.14
-5.23
-2.61
-0.48
1.1
2.17
2.87
3.31
3.55
3.51
3.1
2.27
1.08
-0.31
-1.7
-2.97
-4.1
-5.11
-6.01
-6.72
-7.06
-6.8
-5.83
-4.19
-2.1
0.15
2.35
4.41
6.36
8.28
10.21
12.06
13.72
15.07
16.08
16.8
17.33
17.71
17.96
18
17.76
17.24
16.43
15.38
14.13
12.72
11.2
9.63
8.1
6.69
5.48
4.46
3.57
2.7
1.73
0.56
-0.79
-2.23
-3.6
-4.72
-5.53
-6.08
-6.54
-7.1
-7.85
-8.73
-9.52
-9.94
-9.72
-8.73
-7.01
-4.74
-2.21
0.26
2.42
4.12
5.37
6.32
7.11
7.87
8.57
9.14
9.49
9.59
9.56
9.52
9.58
9.79
10.09
10.39
10.61
10.71
10.66
10.48
10.23
9.96
9.78
9.74
9.86
10.08
10.34
10.6
10.83
10.99
10.93
10.46
9.36
7.48
4.91
1.9
-1.13
-3.85
-6.1
-7.95
-9.63
-11.4
-13.44
-15.79
-18.34
-20.89
-23.21
-25.04
-26.14
-26.34
-25.57
-23.94
-21.65
-18.96
-16.12
-13.32
-10.66
-8.21
-5.99
-4.02
-2.23
-0.5
1.35
3.4
5.64
7.92
9.99
11.61
12.62
13.04
13.01
12.8
12.68
12.77
13.05
13.3
13.26
12.75
11.77
10.49
9.15
7.9
6.74
5.53
4.09
2.37
0.47
-1.34
-2.77
-3.57
-3.64
-3.01
-1.85
-0.4
1.1
2.46
3.52
4.24
4.56
4.5
4.01
3.09
1.82
0.33
-1.16
-2.44
-3.35
-3.89
-4.15
-4.33
-4.61
-5.17
-6.08
-7.34
-8.85
-10.41
-11.77
-12.67
-12.92
-12.46
-11.32
-9.71
-7.86
-6
-4.29
-2.82
-1.62
-0.69
0.01
0.49
0.75
0.83
0.74
0.49
0.11
-0.39
-1.02
-1.8
-2.73
-3.76
-4.73
-5.4
-5.49
-4.83
-3.38
-1.34
0.97
3.17
4.95
6.2
6.91
7.2
7.16
6.85
6.28
5.45
4.35
3.04
1.58
0.08
-1.38
-2.68
-3.78
-4.66
-5.37
-5.96
-6.44
-6.78
-6.9
-6.7
-6.1
-5.08
-3.64
-1.88
0.06
2
3.72
5.03
5.8
6.01
5.74
5.13
4.35
3.58
2.98
2.7
2.82
3.31
4.04
4.85
5.55
6.06
6.35
6.47
6.48
6.43
6.35
6.27
6.19
6.06
5.85
5.52
5.1
4.65
4.27
4.03
3.94
4.01
4.23
4.63
5.24
6.04
6.94
7.76
8.34
8.54
8.33
7.75
6.85
5.67
4.28
2.77
1.24
-0.22
-1.56
-2.76
-3.83
-4.76
-5.53
-6.09
-6.41
-6.48
-6.27
-5.77
-4.97
-3.9
-2.65
-1.35
-0.13
0.96
1.9
2.74
3.48
4.07
4.44
4.55
4.46
4.3
4.24
4.38
4.71
5.08
5.34
5.38
5.15
4.74
4.21
3.65
3.11
2.6
2.17
1.84
1.66
1.66
1.81
2.06
2.34
2.52
2.53
2.33
1.92
1.39
0.84
0.36
-0.03
-0.37
-0.76
-1.27
-1.89
-2.55
-3.15
-3.58
-3.75
-3.67
-3.34
-2.84
-2.25
-1.7
-1.29
-1.1
-1.12
-1.27
-1.42
-1.4
-1.15
-0.65
0.01
0.65
1.1
1.2
0.94
0.4
-0.2
-0.67
-0.87
-0.83
-0.69
-0.62
-0.67
-0.8
-0.86
-0.69
-0.28
0.27
0.77
1.02
0.96
0.63
0.16
-0.28
-0.59
-0.73
-0.74
-0.76
-0.92
-1.36
-2.14
-3.23
-4.5
-5.76
-6.79
-7.45
-7.67
-7.49
-7.07
-6.58
-6.19
-6.01
-6.06
-6.23
-6.38
-6.34
-6.02
-5.45
-4.71
-3.91
-3.11
-2.28
-1.37
-0.32
0.81
1.89
2.79
3.43
3.85
4.13
4.36
4.53
4.61
4.47
4.1
3.53
2.9
2.33
1.91
1.63
1.42
1.23
1.06
0.92
0.84
0.79
0.69
0.47
0.1
-0.38
-0.84
-1.14
-1.17
-0.91
-0.42
0.2
0.88
1.57
2.23
2.83
3.33
3.68
3.86
3.89
3.81
3.7
3.65
3.72
3.96
4.38
4.91
5.45
5.83
5.86
5.47
4.66
3.59
2.49
1.59
0.99
0.64
0.37
-0.06
-0.81
-1.86
-3.06
-4.18
-5.06
-5.65
-6.07
-6.43
-6.83
-7.27
-7.66
-7.91
-7.99
-7.96
-7.89
-7.81
-7.68
-7.39
-6.86
-6.04
-5
-3.84
-2.65
-1.46
-0.25
1.02
2.3
3.49
4.48
5.14
5.5
5.61
5.61
5.61
5.65
5.73
5.81
5.88
5.92
5.95
5.99
6.07
6.22
6.46
6.79
7.11
7.29
7.17
6.64
5.73
4.55
3.29
2.12
1.14
0.35
-0.27
-0.79
-1.22
-1.6
-1.93
-2.24
-2.56
-2.95
-3.42
-3.96
-4.51
-4.99
-5.36
-5.65
-5.9
-6.18
-6.52
-6.92
-7.32
-7.7
-8.05
-8.37
-8.58
-8.6
-8.28
-7.57
-6.55
-5.38
-4.29
-3.41
-2.77
-2.3
-1.9
-1.53
-1.22
-0.99
-0.85
-0.78
-0.74
-0.71
-0.76
-0.91
-1.18
-1.52
-1.8
-1.92
-1.82
-1.5
-1.03
-0.51
-0.03
0.33
0.54
0.59
0.51
0.37
0.24
0.21
0.34
0.61
0.96
1.3
1.51
1.53
1.38
1.12
0.86
0.67
0.56
0.47
0.31
0
-0.42
-0.85
-1.14
-1.2
-1.03
-0.76
-0.55
-0.51
-0.62
-0.77
-0.82
-0.69
-0.38
0.04
0.51
0.99
1.48
2.01
2.58
3.15
3.68
4.15
4.56
4.88
5.12
5.25
5.24
5.12
4.93
4.74
4.58
4.46
4.36
4.26
4.18
4.15
4.19
4.28
4.37
4.34
4.12
3.66
2.99
2.23
1.52
0.99
0.73
0.77
1.08
1.67
2.53
3.7
5.19
6.94
8.8
10.52
11.8
12.32
11.75
9.84
6.43
1.59
-4.32
-10.64
-16.54
-21.21
-24.13
-25.11
-24.27
-21.91
-18.34
-13.86
-8.77
-3.47
1.51
5.55
8.11
8.8
7.58
4.74
0.87
-3.29
-6.97
-9.58
-10.78
-10.53
-9
-6.43
-3.1
0.7
4.57
7.99
10.37
11.27
10.53
8.37
5.36
2.15
-0.73
-3
-4.66
-5.86
-6.75
-7.39
-7.72
-7.66
-7.18
-6.28
-5.08
-3.72
-2.37
-1.21
-0.38
0.01
-0.04
-0.45
-1.06
-1.7
-2.26
-2.68
-2.97
-3.16
-3.29
-3.39
-3.5
-3.66
-3.87
-4.13
-4.38
-4.54
-4.56
-4.47
-4.38
-4.41
-4.6
-4.89
-5.15
-5.19
-4.91
-4.29
-3.42
-2.35
-1.17
0.12
1.46
2.74
3.82
4.55
4.84
4.74
4.41
4.05
3.82
3.81
4.02
4.39
4.81
5.21
5.56
5.82
5.94
5.85
5.46
4.72
3.67
2.45
1.24
0.21
-0.59
-1.21
-1.74
-2.25
-2.69
-2.98
-3
-2.75
-2.34
-1.9
-1.59
-1.51
-1.67
-2.08
-2.68
-3.42
-4.2
-4.86
-5.29
-5.4
-5.24
-4.97
-4.73
-4.63
-4.66
-4.75
-4.8
-4.79
-4.71
-4.54
-4.21
-3.57
-2.55
-1.17
0.35
1.75
2.83
3.6
4.28
5.18
6.5
8.23
10.14
11.87
13.13
13.78
13.83
13.37
12.47
11.12
9.32
7.11
4.68
2.32
0.34
-1.03
-1.79
-2.12
-2.28
-2.48
-2.79
-3.1
-3.21
-2.95
-2.31
-1.38
-0.34
0.72
1.78
2.9
4.11
5.38
6.57
7.53
8.18
8.55
8.82
9.17
9.7
10.37
11
11.37
11.34
10.92
10.21
9.41
8.64
7.92
7.21
6.45
5.56
4.47
3.03
1.04
-1.69
-5.14
-8.99
-12.67
-15.53
-17.11
-17.29
-16.25
-14.39
-12.07
-9.57
-7.05
-4.67
-2.58
-0.94
0.25
1.11
1.89
2.81
3.88
4.91
5.58
5.6
4.82
3.34
1.46
-0.45
-2
-2.99
-3.37
-3.26
-2.83
-2.25
-1.59
-0.79
0.26
1.61
3.22
4.87
6.18
6.71
6.09
4.18
1.18
-2.4
-5.88
-8.6
-10.11
-10.31
-9.36
-7.55
-5.14
-2.29
0.88
4.22
7.46
10.22
12.12
12.88
12.27
10.19
6.7
2.05
-3.23
-8.39
-12.57
-15.1
-15.68
-14.46
-11.9
-8.59
-5.02
-1.56
1.52
3.96
5.44
5.7
4.64
2.5
-0.2
-2.78
-4.63
-5.41
-5.08
-3.89
-2.2
-0.29
1.71
3.73
5.72
7.52
8.84
9.39
8.97
7.64
5.65
3.39
1.22
-0.61
-2.03
-3.06
-3.76
-4.15
-4.21
-3.91
-3.22
-2.21
-1.04
0.06
0.85
1.16
0.89
0.11
-1.06
-2.43
-3.83
-5.16
-6.35
-7.34
-8.12
-8.63
-8.79
-8.58
-8
-7.12
-6.07
-4.98
-3.93
-2.98
-2.11
-1.3
-0.53
0.2
0.85
1.39
1.74
1.83
1.6
1.08
0.32
-0.5
-1.2
-1.64
-1.74
-1.52
-1.03
-0.32
0.56
1.56
2.65
3.79
4.91
5.93
6.69
7.05
6.9
6.18
4.96
3.38
1.64
-0.09
-1.7
-3.15
-4.41
-5.39
-5.98
-6.03
-5.47
-4.34
-2.75
-0.82
1.29
3.49
5.6
7.4
8.56
8.7
7.59
5.24
2.01
-1.47
-4.51
-6.54
-7.24
-6.6
-4.85
-2.31
0.67
3.76
6.65
9.03
10.61
11.08
10.19
7.82
4.15
-0.34
-4.91
-8.72
-11.08
-11.66
-10.55
-8.14
-4.91
-1.3
2.39
5.92
9.01
11.27
12.23
11.46
8.81
4.58
-0.52
-5.5
-9.39
-11.54
-11.78
-10.39
-7.9
-4.84
-1.64
1.41
4.02
5.82
6.39
5.4
2.82
-0.98
-5.28
-9.25
-12.17
-13.66
-13.69
-12.48
-10.31
-7.44
-4.04
-0.3
3.48
6.85
9.21
10.02
8.99
6.24
2.36
-1.77
-5.24
-7.39
-8.01
-7.3
-5.64
-3.4
-0.74
2.34
5.86
9.65
13.31
16.22
17.69
17.18
14.5
9.92
4.17
-1.75
-6.8
-10.24
-11.8
-11.62
-10.12
-7.71
-4.68
-1.21
2.47
6.04
8.99
10.8
11.09
9.75
6.97
3.25
-0.8
-4.54
-7.52
-9.52
-10.59
-10.95
-10.83
-10.31
-9.36
-7.88
-5.82
-3.32
-0.73
1.54
3.09
3.67
3.27
2.05
0.35
-1.48
-3.13
-4.4
-5.21
-5.57
-5.49
-4.98
-4.06
-2.73
-1.11
0.63
2.26
3.57
4.42
4.78
4.64
3.92
2.51
0.26
-2.82
-6.46
-10.14
-13.13
-14.7
-14.32
-11.79
-7.27
-1.28
5.44
11.97
17.41
20.94
22
20.4
16.4
10.7
4.31
-1.7
-6.43
-9.4
-10.51
-10.06
-8.49
-6.25
-3.72
-1.2
1.04
2.7
3.55
3.5
2.66
1.35
-0.06
-1.28
-2.18
-2.78
-3.18
-3.51
-3.8
-4.05
-4.22
-4.23
-4.07
-3.72
-3.23
-2.71
-2.27
-2.09
-2.28
-2.85
-3.7
-4.59
-5.25
-5.52
-5.44
-5.3
-5.54
-6.52
-8.36
-10.75
-13.13
-14.87
-15.6
-15.33
-14.54
-13.83
-13.73
-14.4
-15.61
-16.79
-17.1
-15.62
-11.47
-4.1
6.44
19.28
32.81
45
54.11
59.21
60.5
59.09
56.37
53.45
50.75
48.07
45.01
41.38
37.45
33.81
31.1
29.54
28.85
28.32
27.2
25.08
22.03
18.59
15.34
12.63
10.31
7.88
4.78
0.72
-4.16
-9.35
-14.22
-18.34
-21.57
-24.04
-25.99
-27.64
-29.08
-30.3
-31.29
-32.03
-32.54
-32.87
-33.05
-33.08
-32.93
-32.55
-31.87
-30.86
-29.53
-27.98
-26.32
-24.61
-22.8
-20.73
-18.19
-15.02
-11.21
-6.93
-2.48
1.77
5.47
8.35
10.26
11.15
11.1
10.31
9.04
7.6
6.21
4.98
3.91
2.98
2.2
1.67
1.51
1.79
2.5
3.49
4.52
5.33
5.74
5.68
5.17
4.26
3.05
1.63
0.12
-1.4
-2.82
-4.05
-5.06
-5.83
-6.42
-6.91
-7.42
-8.02
-8.72
-9.47
-10.13
-10.58
-10.74
-10.63
-10.37
-10.12
-10.07
-10.3
-10.85
-11.68
-12.7
-13.83
-14.94
-15.84
-16.3
-16.09
-15.06
-13.23
-10.78
-8.06
-5.41
-3.12
-1.3
0.06
1.08
1.87
2.51
3.05
3.49
3.84
4.16
4.49
4.83
5.14
5.37
5.49
5.53
5.66
6.06
6.86
8.06
9.47
10.83
11.94
12.69
13.18
13.58
14.07
14.73
15.53
16.39
17.23
18.02
18.71
19.25
19.59
19.69
19.59
19.34
19.08
18.94
19
19.19
19.42
19.6
19.71
19.82
20.02
20.37
20.86
21.4
21.82
21.94
21.74
21.3
20.79
20.35
20.01
19.78
19.6
19.18
18.28
16.87
15.18
13.49
12.07
11.07
10.59
10.74
11.06
11.14
10.9
10.63
10.72
11.3
12.21
12.98
13.18
11.51
7.1
-0.11
-9.29
-19.37
-29.56
-39.61
-49.59
-59.44
-70.22
-82.49
-95.9
-109.17
-120.81
-129.87
-136.16
-140.15
-135.9
-120.43
-95.01
-65.11
-36.75
-13.36
4.49
17.88
27.12
34.54
40.64
45.46
49.04
51.71
53.74
55.02
55.5
54.99
53.89
51.73
48.25
43.52
38.08
32.59
27.58
23.3
19.81
17.18
14.65
11.57
7.8
3.82
0.42
-1.73
-2.32
-1.46
0.54
2.88
4.84
6.05
6.48
6.34
5.85
5.14
4.29
3.39
2.42
1.36
0.26
-0.84
-1.94
-3.06
-4.27
-5.6
-7.03
-8.47
-9.75
-10.68
-11.24
-11.48
-11.49
-11.37
-11.13
-10.77
-10.2
-9.33
-8.07
-6.74
-5.74
-5.32
-5.42
-5.72
-5.84
-5.44
-4.39
-2.79
-1.4
-1
-1.97
-4.15
-6.98
-9.91
-12.6
-14.99
-17.28
-20.4
-25.13
-31.69
-39.55
-47.8
-55.66
-62.69
-68.92
-70.61
-65.12
-51.9
-33.13
-12.34
7.28
23.37
34.72
41.11
43.41
42.71
40.05
35.77
29.46
20.42
8.38
-5.64
-19.99
-33.06
-44.08
-52.62
-57.7
-57.17
-48.25
-29.06
-0.42
34.95
71.68
103.56
125.79
136.18
135.13
124.73
105.75
82.51
58.59
36.65
18.5
5
-3.99
-9.41
-12.55
-14.61
-16.09
-17.5
-19.23
-21.37
-23.96
-26.86
-29.81
-32.48
-34.59
-35.67
-35.78
-35.45
-34.63
-33.18
-30.87
-27.35
-22.45
-16.36
-9.63
-3.27
1.84
5.49
8.12
10.46
12.97
15.42
17.05
17.16
15.56
12.83
10.13
8.65
8.88
10.4
12.27
13.53
13.68
12.84
11.48
9.78
8.2
6.88
5.83
4.64
2.56
-1.4
-8.09
-17.66
-29.11
-39.93
-47.16
-47.47
-38.42
-19.69
6.44
35.41
61.54
78.71
83.74
77.2
62.43
43.87
25.33
9.27
-3.05
-10.98
-14.07
-12.02
-5.53
3.33
12.18
18.78
21.97
22.05
20.47
18.97
18.97
20.8
23.57
25.84
26.25
24.08
19.34
12.44
3.81
-6.3
-17.07
-28.02
-38.3
-46.66
-51.82
-53.17
-51.19
-47.31
-43.15
-39.75
-37.27
-35.04
-32.24
-28.54
-24.45
-20.97
-19.06
-19.07
-20.47
-22.11
-22.64
-21.18
-17.79
-13.54
-10.08
-8.88
-10.46
-14.07
-17.99
-20.24
-19.7
-16.39
-11.78
-7.93
-6.54
-8.19
-12.51
-18.58
-25.31
-31.33
-34.57
-32.87
-23.8
-6.68
16.76
42.36
65.2
81.68
90.77
95.11
98.13
101.2
102.07
96.44
79.82
51.78
16.92
-16.77
-41.58
-53.36
-53.54
-47.62
-41.73
-39.4
-40.5
-42.55
-42.88
-40.1
-34.28
-26.03
-15.72
-3.5
9.81
22.32
31.74
36.68
37.91
38.07
39.87
44.14
48.91
50.54
46.1
35.45
21.5
8.61
-0.01
-4.08
-5.79
-8.04
-12.48
-18.48
-23.92
-26.96
-27.49
-27
-27.74
-30.99
-36.35
-41.87
-45.41
-45.82
-43.81
-41.42
-40.77
-42.89
-46.81
-49.55
-47.37
-37.26
-18.17
8.22
37.97
65.72
86.01
94.75
90.29
74.02
50.03
23.96
1.12
-15
-23.5
-25.84
-24.64
-22.27
-20.07
-18.15
-16.09
-13.88
-11.9
-10.69
-10.52
-11.09
-11.54
-10.84
-8.14
-3.23
2.85
8.7
12.87
14.34
12.75
8.53
2.78
-3.11
-7.97
-11.79
-15.23
-19.56
-26.12
-35.44
-46.35
-55.86
-60.15
-53.36
-34.79
-8.5
18.38
38.94
49.44
50.52
46.27
41.5
39.5
40.41
42.61
43.87
42.82
39.39
34.64
30.23
27.22
26.2
27.14
30.58
36.84
44.96
52.05
53.35
45.09
24.33
-7.7
-45.23
-79.34
-102.18
-110.18
-104.83
-91.03
-73.52
-55.03
-35.78
-14.29
10.73
38.26
65.12
87.46
99.92
100.69
88.81
65.55
30.55
-13.33
-59.77
-99.76
-124.04
-126.59
-106.41
-64.89
-15.11
29.17
60.01
76.22
81.08
79.13
73.61
66.57
59.2
52.37
48.56
50.65
59.19
71.09
80.08
79.72
64.82
35.03
-5.26
-47.35
-81.9
-102.81
-109.01
-101.8
-87.98
-73.94
-63.19
-56.7
-53.18
-50.88
-48.68
-46.16
-43.32
-40.64
-38.22
-36.02
-34.31
-33.33
-33.64
-36.07
-40.8
-46.54
-50.4
-47.79
-34.77
-10.51
21.55
54.99
82.2
97.95
101.5
96.23
87.75
80.17
73.26
65.22
52.78
34.36
11.76
-10.69
-29.27
-41.62
-47.76
-49.17
-47.14
-41.72
-31.87
-16.53
3.76
25.71
45.16
58.3
63.3
60.99
54.15
46.29
40.49
38.38
40.41
46.18
54.26
62.24
66.78
64.25
52.14
31.01
3.46
-25.44
-50.12
-66.68
-74.07
-73.91
-68.44
-61.12
-53.77
-46.89
-40.27
-33.86
-28.13
-23.8
-21.31
-20.55
-21
-21.64
-21.65
-20.64
-18.71
-16.41
-14.46
-13.43
-13.51
-14.52
-15.81
-16.8
-17.22
-17.23
-17.16
-17.21
-16.98
-15.72
-12.76
-8.11
-2.75
1.46
2.62
-0.18
-6.32
-13.79
-20.18
-23.7
-23.63
-20.21
-14.04
-5.59
4.75
16.01
26.32
33.23
34.53
29.33
18.77
5.61
-6.51
-14.22
-15.55
-10.48
-0.76
10.75
20.95
27.56
29.8
28.37
24.87
20.98
17.7
15.15
12.97
10.75
8.67
7.27
7.08
8.11
9.86
11.46
12.11
11.46
9.81
7.91
6.65
6.64
8.02
10.37
12.89
14.72
15.32
14.66
13.3
12.12
11.99
13.4
16.26
19.86
23.2
25.33
25.76
24.67
22.87
21.48
21.74
24.57
30.14
37.41
44.11
47.34
44.46
34.2
17.28
-3.52
-24.65
-42.58
-54.91
-60.81
-60.85
-56.57
-49.62
-42.22
-35.89
-31.52
-29.26
-28.81
-29.63
-31.3
-33.51
-36.2
-39.2
-41.71
-42.21
-38.75
-29.91
-15.81
1.29
17.48
28.74
32.69
29.87
23.22
16.46
12.16
10.62
10.25
9.04
6.16
2.48
0.02
0.43
3.98
9.26
13.97
16.01
14.34
9.41
2.84
-3.34
-7.53
-9.11
-8.65
-7.58
-7.42
-9.09
-12.63
-17.29
-22.04
-26.18
-29.53
-32.4
-35.13
-37.77
-40
-41.26
-41
-38.74
-34.14
-27.01
-17.35
-5.93
6.06
17.05
25.56
30.69
32.49
31.81
29.92
27.9
26.29
25.1
23.98
22.66
21.12
19.62
18.53
18.2
18.55
19.35
20.23
20.78
20.76
20.17
19.24
18.34
17.81
17.82
18.39
19.52
21.18
23.3
25.46
26.72
25.77
21.38
13.18
2.08
-9.84
-20.11
-26.83
-29.45
-28.7
-25.92
-22.31
-18.37
-14.01
-8.97
-3.48
1.68
5.43
6.96
6.17
3.76
0.92
-1.12
-1.64
-0.62
1.27
3.08
3.94
3.56
2.28
0.84
0.1
0.53
1.98
3.77
4.93
4.68
2.79
-0.45
-4.42
-8.36
-11.52
-13.23
-13.02
-10.96
-7.93
-5.67
-6.59
-12.9
-25.34
-42.35
-60.23
-74.31
-80.88
-78.75
-69.53
-57.19
-46.25
-39.9
-38.89
-41.61
-45.01
-46.01
-42.47
-33.42
-19.57
-3.04
13.23
26.31
34.14
36.17
33.55
26.43
16.96
7.58
0.06
-5.02
-8
-9.69
-10.54
-10.58
-9.48
-6.61
-2.24
1.75
1.5
-8.25
-32.16
-71.61
-122.59
-175.66
-218.38
-240.01
-235.38
-206.1
-158.91
-102.12
-42.59
15.32
68.68
114.49
148.97
168.7
172.72
163.71
147.4
130.15
116.47
107.49
101.59
95.75
87.62
76.58
63.71
50.88
39.69
30.79
23.88
18.12
12.71
7.37
2.22
-2.38
-6.2
-9.22
-11.59
-13.44
-14.72
-15.22
-14.65
-12.86
-9.89
-5.96
-1.33
3.81
9.35
15.18
21.03
26.43
30.78
33.56
34.5
33.75
31.75
29.14
26.53
24.38
22.95
22.25
22.1
22.18
22.11
21.54
20.3
18.39
15.95
13.24
10.49
7.88
5.5
3.37
1.46
-0.33
-2.14
-4.1
-6.24
-8.43
-10.4
-11.74
-12.11
-11.31
-9.37
-6.53
-3.12
0.54
4.21
7.75
11.06
14.04
16.55
18.5
19.79
20.44
20.56
20.29
19.73
18.94
17.88
16.5
14.79
12.82
10.7
8.57
6.49
4.47
2.43
0.35
-1.78
-3.86
-5.73
-7.15
-7.95
-8.01
-7.39
-6.28
-5.01
-3.93
-3.27
-3.15
-3.47
-4.06
-4.69
-5.21
-5.51
-5.48
-5.03
-4.06
-2.58
-0.7
1.32
3.16
4.54
5.34
5.61
5.48
5.14
4.66
4.07
3.38
2.61
1.88
1.4
1.39
2.03
3.35
5.2
7.33
9.37
11.06
12.21
12.81
12.95
12.71
12.19
11.42
10.4
9.15
7.72
6.16
4.55
2.95
1.37
-0.2
-1.79
-3.41
-5.08
-6.75
-8.38
-9.96
-11.5
-13.06
-14.73
-16.53
-18.42
-20.25
-21.82
-22.87
-23.17
-22.47
-20.6
-17.49
-13.28
-8.28
-2.96
2.15
6.64
10.22
12.84
14.54
15.43
15.63
15.29
14.59
13.73
12.88
12.14
11.48
10.83
10.11
9.34
8.56
7.88
7.34
6.89
6.42
5.81
5.01
4.07
3.09
2.13
1.2
0.22
-0.92
-2.28
-3.86
-5.59
-7.35
-9.08
-10.71
-12.19
-13.43
-14.29
-14.64
-14.32
-13.33
-11.74
-9.78
-7.71
-5.79
-4.23
-3.13
-2.52
-2.33
-2.44
-2.67
-2.81
-2.66
-2.09
-1.08
0.31
1.89
3.44
4.77
5.73
6.3
6.46
6.3
5.91
5.41
4.87
4.36
3.9
3.51
3.14
2.77
2.34
1.76
0.96
-0.15
-1.55
-3.15
-4.75
-6.13
-7.1
-7.53
-7.43
-6.85
-5.89
-4.61
-3.07
-1.28
0.7
2.75
4.69
6.31
7.42
7.89
7.7
6.95
5.82
4.53
3.23
2.05
0.99
0.01
-0.92
-1.85
-2.8
-3.82
-4.91
-6.09
-7.34
-8.62
-9.83
-10.82
-11.44
-11.6
-11.32
-10.72
-9.98
-9.27
-8.64
-7.98
-7.1
-5.79
-3.93
-1.56
1.08
3.73
6.11
8.08
9.62
10.79
11.64
12.24
12.54
12.52
12.17
11.56
10.79
9.95
9.06
8.13
7.11
6.01
4.92
3.91
3.08
2.4
1.79
1.12
0.36
-0.44
-1.13
-1.61
-1.89
-2.09
-2.39
-2.95
-3.86
-5.1
-6.59
-8.26
-10.01
-11.78
-13.48
-14.99
-16.21
-17.06
-17.53
-17.63
-17.37
-16.7
-15.48
-13.58
-10.95
-7.68
-4.05
-0.37
3.04
5.97
8.36
10.19
11.51
12.31
12.6
12.42
11.89
11.15
10.37
9.67
9.06
8.55
8.07
7.59
7.08
6.55
6
5.43
4.81
4.12
3.33
2.49
1.67
0.99
0.5
0.21
0.06
-0.04
-0.22
-0.56
-1.07
-1.71
-2.44
-3.23
-4.07
-4.93
-5.77
-6.44
-6.8
-6.7
-6.02
-4.69
-2.77
-0.37
2.37
5.34
8.39
11.32
13.83
15.79
17.12
17.89
18.3
18.52
18.71
18.8
18.55
17.71
16.38
14.89
13.58
12.62
11.92
11.27
10.52
9.69
9.21
10.12
13.28
18.94
26.32
34.02
40.44
44.48
45.75
44.61
42.32
39.82
37.43
34.81
31.52
27.44
22.62
16.65
5.55
-13.31
-40.09
-70.97
-99.61
-119.38
-125.49
-116.4
-94.55
-65.72
-36.45
-13.08
0.28
1.99
-7.24
-24.75
-46.34
-66.5
-79.14
-78.2
-61.74
-30.89
8.7
48.43
79.55
96.14
96.73
81.71
58.09
32.88
10.85
-6.42
-19.34
-28.86
-35.61
-39.72
-41.33
-40.44
-38.18
-35.99
-35.2
-36.35
-39.06
-42.6
-45.61
-47.16
-46.38
-43.12
-37.37
-29.21
-18.99
-7.57
3.5
12.4
17.57
18.73
16.47
12.26
7.71
4.02
1.65
0.51
0.35
0.93
2.4
4.66
7.4
10.01
11.92
12.85
13.01
13.14
13.33
14.03
15.36
17.11
18.83
20.07
20.58
20.42
19.87
19.29
19.02
19.12
19.34
19.33
18.76
17.56
15.87
14.05
12.5
11.56
11.42
12.07
13.52
15.84
19.18
23.64
29.17
35.48
42.11
48.58
54.54
59.88
64.63
68.91
72.61
75.45
76.99
76.86
74.89
71.2
66.06
59.68
52.07
43.02
32.4
20.3
6.94
-7.38
-22.53
-38.38
-54.63
-70.52
-84.91
-96.54
-104.5
-108.57
-109.27
-107.44
-103.88
-99.21
-93.96
-88.77
-84.17
-80.24
-76.33
-71.2
-63.3
-51.54
-36.06
-18.29
-0.68
14.39
25.51
32.56
36.2
37.74
38.35
38.37
37.24
33.63
26.45
15.52
1.74
-13.56
-28.31
-40.46
-48.79
-53.12
-54.82
-55.81
-57.84
-62.08
-69.12
-77.77
-85.46
-89.35
-87.12
-78.55
-65.27
-50.58
-34.28
-19.27
-8.91
-3.57
-1.65
4.36
20.19
47.44
84.97
126.66
163.65
188.37
196.68
188.56
167.67
138.87
107.09
76.09
47.68
22.09
-0.24
-18.22
-30.18
-34.68
-32.14
-24.79
-15.96
-8.78
-4.9
-3.54
-2.81
-1.01
2.29
5.73
7.29
5.49
0.2
-7.33
-15.03
-21.81
-27.36
-32.09
-36.82
-42.27
-48.89
-56.71
-65.16
-73.31
-80.87
-87.56
-92.93
-96.55
-98.22
-98.17
-96.82
-94.47
-85.74
-67.9
-42.01
-12.63
14.96
37.24
52.92
62.44
67.29
69.3
69.37
67.9
65.01
60.99
56.2
51.06
46.11
41.75
37.92
33.45
26.87
17.45
6
-5.42
-14.4
-19.23
-19.59
-17.31
-14.22
-12.32
-12.74
-15.15
-18.48
-21.67
-23.99
-25.12
-24.6
-21.51
-13.93
-1.37
15.23
32.59
45.65
49.73
42.71
26.53
6.62
-10.54
-20.25
-21.26
-16.1
-9.54
-4.7
-2.52
-1.56
0.39
4.2
8.43
10.14
6.39
-3.84
-18.39
-32.87
-42.25
-43.3
-35.96
-22.97
-8.17
5.21
15.76
24.23
31.14
37.54
43.51
47.51
47.06
40.12
27.46
10.43
-7.63
-22.89
-32.32
-35.11
-32.65
-27.66
-22.83
-19.8
-18.96
-19.39
-19.93
-19.73
-18.66
-17.62
-17.1
-17.04
-16.89
-16.05
-13.92
-10.39
-5.76
-0.64
4.43
9.36
14.36
19.83
25.86
32.27
38.38
43.32
46.26
46.7
44.77
41.03
36.29
31.28
26.59
22.48
19.02
16.16
13.77
11.73
9.91
8.13
6.24
4.24
2.24
0.5
-0.7
-1.14
-0.76
0.29
1.67
2.97
3.78
3.79
2.85
0.97
-1.71
-4.9
-8.3
-11.56
-14.38
-16.48
-17.7
-17.96
-17.28
-15.8
-13.7
-11.32
-8.98
-7.04
-5.69
-4.89
-4.36
-3.61
-2.08
0.66
4.79
10.21
16.55
23.32
30.05
36.41
42.31
47.79
52.92
57.62
61.54
64.05
64.5
62.45
57.87
51.17
43.13
34.61
26.34
18.84
12.37
6.94
2.35
-1.79
-5.95
-10.57
-15.92
-21.95
-28.33
-34.55
-40.14
-44.86
-48.69
-51.71
-53.9
-55.11
-55.15
-54.08
-52.32
-50.65
-49.85
-50.42
-52.28
-54.9
-57.55
-59.66
-60.96
-61.4
-60.86
-59.01
-55.29
-49.13
-40.22
-28.71
-15.32
-1.13
12.57
24.6
34.12
40.73
44.52
45.88
45.38
43.54
40.72
37.08
32.71
27.65
22.02
16.02
9.92
3.98
-1.52
-6.27
-9.93
-12.05
-12.22
-10.21
-6.16
-0.64
5.49
11.32
16.29
20.3
23.72
27
30.39
33.68
36.31
37.68
37.44
35.7
32.85
29.3
25.25
20.59
15.04
8.51
1.2
-6.35
-13.57
-20.12
-25.99
-31.42
-36.54
-41.15
-44.6
-46.1
-45.05
-41.32
-35.28
-27.64
-19.17
-10.59
-2.51
4.48
9.86
13.31
14.9
15.13
14.84
14.86
15.66
17.19
18.9
20
19.73
17.69
13.96
8.99
3.53
-1.68
-6.02
-9.17
-11.12
-12.07
-12.35
-12.26
-12.06
-11.98
-12.25
-13.02
-14.29
-15.73
-16.74
-16.58
-14.74
-11.12
-6.19
-0.8
4.09
7.75
9.86
10.6
10.57
10.58
11.5
13.94
18.05
23.36
28.94
33.65
36.6
37.44
36.44
34.25
31.53
28.68
25.72
22.46
18.8
14.83
10.9
7.39
4.57
2.39
0.54
-1.39
-3.66
-6.21
-8.64
-10.37
-10.91
-10.04
-8
-5.32
-2.68
-0.6
0.73
1.42
1.86
2.4
3.22
4.36
5.78
7.52
9.65
12.03
14.11
14.96
13.54
9.22
2.19
-6.53
-15.45
-23.27
-29.35
-33.77
-36.95
-39.14
-39.99
-38.68
-34.46
-27.25
-17.95
-8.18
0.44
7.12
12.24
17.12
23.23
31.37
41.16
51.2
59.67
65.01
66.46
64.08
58.57
50.94
42.26
33.39
24.96
17.27
10.35
4.06
-1.82
-7.52
-13.25
-19.22
-25.47
-31.87
-38.02
-43.33
-47.26
-49.41
-49.68
-48.21
-45.3
-41.27
-36.46
-31.16
-25.71
-20.48
-15.79
-11.84
-8.67
-6.13
-3.93
-1.79
0.39
2.45
3.96
4.4
3.36
0.73
-3.2
-7.79
-12.3
-16.09
-18.83
-20.51
-21.39
-21.8
-22.01
-22.18
-22.38
-22.7
-23.22
-23.91
-24.49
-24.42
-23.01
-19.78
-14.76
-8.57
-2.28
3.08
6.9
9.28
10.91
12.69
15.31
19
23.39
27.77
31.4
33.68
34.36
33.53
31.51
28.74
25.7
22.78
20.21
18.04
16.15
14.36
12.54
10.64
8.72
6.74
4.58
1.99
-1.24
-5.18
-9.66
-14.32
-18.73
-22.47
-25.23
-26.74
-26.82
-25.43
-22.82
-19.58
-16.52
-14.37
-13.41
-13.27
-13.1
-11.98
-9.39
-5.41
-0.7
3.89
7.66
10.24
11.56
11.59
10.38
8.03
4.88
1.55
-1.22
-2.92
-3.46
-3.3
-3.11
-3.34
-4
-4.58
-4.36
-2.62
1.09
6.92
14.82
24.59
35.92
48.31
61.07
73.31
84.05
92.48
98.03
100.44
99.67
95.83
89.13
80.05
69.36
58.15
47.65
38.97
32.63
28.56
26.22
24.79
23.55
21.84
19
14.23
6.86
-3.38
-16.05
-29.91
-43.2
-54.14
-61.29
-63.89
-62.03
-56.55
-49.03
-41.46
-35.89
-33.75
-35.19
-38.8
-42.14
-42.73
-39.23
-31.98
-23.02
-15.15
-10.91
-11.82
-18.06
-28.66
-41.55
-54.01
-63.16
-66.85
-64.38
-56.97
-47.35
-38.62
-33.05
-31.11
-31.56
-32.4
-31.92
-29.34
-24.9
-19.33
-13.39
-7.7
-2.77
0.84
2.51
1.83
-1.14
-5.96
-11.89
-18.03
-23.51
-27.45
-29.07
-27.93
-24.09
-18.28
-11.77
-5.9
-1.63
0.77
1.63
1.51
0.81
-0.46
-2.53
-5.53
-9.19
-12.7
-14.94
-14.89
-11.98
-6.25
1.66
10.7
19.66
27.5
33.55
37.62
39.86
40.58
40.11
38.66
36.41
33.6
30.65
28.14
26.67
26.59
27.8
29.76
31.69
32.86
32.85
31.66
29.6
27.05
24.26
21.28
17.99
14.26
10.04
5.35
0.28
-5.02
-10.36
-15.51
-20.2
-24.16
-27.18
-29.12
-29.95
-29.63
-28.14
-25.51
-21.84
-17.35
-12.3
-6.97
-1.71
3.03
6.71
8.78
8.95
7.47
5.16
3.16
2.45
3.51
5.97
8.96
11.41
12.49
11.77
9.19
4.92
-0.81
-7.56
-14.75
-21.63
-27.45
-31.7
-34.27
-35.41
-35.6
-35.28
-34.74
-34.04
-33.06
-31.51
-29.15
-26.02
-22.46
-18.99
-15.98
-13.39
-10.69
-7.1
-1.79
5.47
14.03
22.48
29.32
33.59
35.19
34.79
33.43
32.37
32.41
33.62
35.5
37.4
38.95
40.18
41.34
42.63
44.59
47.41
50.77
54.13
57.07
59.6
61.84
63.4
60.66
50.25
30.51
2.85
-28.72
-59.39
-84.81
-102.1
-110.28
-110.48
-104.47
-94.87
-84.6
-76.33
-72.15
-73.03
-77.95
-83.22
-83.17
-72.25
-46.38
-6.42
41.83
89.55
127.91
150.86
156.41
142.67
115.82
83.46
51.71
24.59
4.06
-9.58
-17.17
-20.22
-20.32
-18.01
-14
-9.43
-5.65
-3.64
-3.89
-6.06
-9.1
-11.84
-13.05
-12.92
-12.7
-13.83
-17.07
-22.13
-27.73
-32.23
-34.33
-33.33
-29.85
-25.26
-20.93
-17.66
-15.58
-14.21
-12.9
-11.11
-8.55
-5.49
-2.4
0.35
2.62
4.43
5.87
7.02
7.82
8.2
8.04
7.21
5.72
3.69
1.32
-1.2
-3.71
-6.14
-8.47
-10.72
-12.96
-15.28
-17.73
-20.28
-22.76
-24.9
-26.47
-27.3
-27.45
-27.16
-26.69
-26.1
-25.06
-22.93
-18.99
-12.84
-4.51
5.46
16.02
26
34.49
41.17
46.34
50.69
55
60.07
66.24
73.04
79.29
83.62
85.12
83.63
79.65
74.2
68.74
64.45
61.57
59.19
55.61
48.99
37.97
22.22
3.09
-15.82
-29.79
-34.79
-29.11
-13.83
7.68
30.95
51.58
63.64
63.1
50.55
30.9
9.76
-9.53
-25.79
-38.77
-48.97
-56.51
-60.79
-61.54
-59.61
-56.84
-55.26
-56.17
-58.69
-61.82
-64.38
-65.11
-63.38
-59.52
-54.69
-50.12
-46.36
-43.21
-40.17
-36.45
-31.28
-24.28
-15.73
-6.41
2.8
11.29
18.62
24.48
28.9
32.31
35.22
37.96
40.68
43.39
46.22
48.96
51.3
53.01
54.05
54.42
54.16
53.44
52.67
52.45
52.5
52.02
50.01
45.64
38.36
28.03
14.99
0.09
-15.42
-31.17
-47.02
-62.88
-78.53
-94.01
-109.81
-126.7
-145.21
-159.17
-162.83
-153.05
-131.46
-103
-73.41
-47.26
-27.41
-14.89
-8.84
-7.89
-9.84
-12.3
-13.05
-11.18
-6.94
-1.3
4.93
11.69
18.77
26.49
35.27
45.77
58.1
71.76
85.56
97.87
107.03
111.06
109.13
100.01
86.61
71.91
57.75
44.1
29.88
14.5
-2.55
-19.83
-35
-45.76
-51.62
-53.69
-54.57
-56.94
-61.03
-67.32
-73.98
-77.72
-75.02
-65.16
-47.68
-24.63
0.12
22.11
37.12
43.07
40.25
31.13
19.57
10.29
7.24
12.57
27.02
47.79
69.65
86.64
93.61
88
70.96
46.79
21.74
1.94
-9.15
-11.5
-8.11
-3.98
-3.5
-8.07
-16.59
-26.46
-35.14
-41.95
-48.23
-55.96
-67.27
-82.95
-102.04
-120.64
-134.73
-140.82
-136.94
-125.1
-105.45
-78.96
-47.14
-11.97
23.79
56.92
83.77
101.28
108.25
106.37
99.03
90.49
84.54
79.9
75.51
69.91
62.18
52.6
42.47
32.34
21.97
10.72
-1.63
-13.83
-24.03
-30.59
-33.14
-32.6
-30.99
-30.09
-30.46
-31.43
-31.41
-29.35
-24.96
-18.78
-11.7
-4.61
2.12
8.57
15.05
21.68
27.8
32.58
35.28
35.54
33.57
30.25
26.82
24.62
24.24
25.14
26.83
28.9
30.98
32.78
34.03
34.38
34.05
33.23
31.79
30.5
30.5
32.58
37.27
44.43
53
61.66
67.59
61.91
38.12
-3.1
-52.63
-96.72
-124.2
-132.02
-121.24
-95.12
-58.63
-16.56
27.29
68.08
101.64
124.97
132.04
121.45
96.72
64.93
34.29
13.02
0.31
-7.08
-13.1
-20.76
-30.1
-39.18
-45.73
-47.86
-44.8
-37.54
-27.59
-17.56
-10.77
-9.8
-16.22
-29.74
-47.38
-64.4
-76.6
-81.79
-81.33
-79.17
-78.79
-81.33
-85.07
-86.35
-81.88
-70.84
-54.91
-37.49
-21.94
-9.94
-1.44
4.38
7.82
8.13
3.7
-6.68
-22.58
-41.07
-56.76
-63.34
-55.95
-33.42
1.05
40.91
78.29
106.59
122.33
125.67
119.68
108.32
94.59
80.12
65.67
51.66
38.69
27.65
19.49
15.08
14.42
16.49
18.64
19.12
17.31
13.41
7.6
-0.32
-10.3
-22.54
-37.35
-54.1
-70.61
-83.83
-90.5
-88.12
-75.58
-53.68
-23.19
13.11
51.22
86.88
115.88
134.56
140.44
128.32
100.88
64.36
25.85
-8.05
-32.51
-45.83
-49.5
-47.36
-43.86
-42.13
-42.68
-44.93
-47.38
-48.47
-47.44
-44.52
-40.55
-36.22
-31.12
-24.81
-17.45
-9.73
-2.85
1.82
3.29
1.45
-2.71
-7.24
-10.41
-11.53
-10.97
-9.9
-9.61
-10.8
-13.14
-15.52
-16.45
-15.13
-11.98
-8.21
-5.27
-4.07
-4.58
-5.9
-6.8
-6.29
-4.15
-1.03
2.08
4.31
5.38
5.59
5.57
5.82
6.51
7.38
8.01
8.16
7.96
7.85
8.23
9.23
10.49
11.41
11.38
10.2
8.13
5.82
4.01
3.14
3.25
3.98
4.75
5.06
4.58
3.28
1.35
-0.92
-3.17
-5.08
-6.42
-7.07
-7.03
-6.37
-5.23
-3.73
-1.96
0.01
2.08
4.03
5.59
6.5
6.64
6.12
5.2
4.27
3.61
3.36
3.46
3.73
3.99
4.11
4.12
4.1
4.14
4.27
4.45
4.57
4.51
4.22
3.69
3.04
2.36
1.77
1.26
0.79
0.24
-0.48
-1.4
-2.45
-3.51
-4.44
-5.07
-5.31
-5.14
-4.6
-3.77
-2.77
-1.72
-0.69
0.3
1.26
2.21
3.2
4.21
5.24
6.2
7.04
7.68
8.05
8.16
8.01
7.67
7.2
6.66
6.12
5.61
5.19
4.9
4.74
4.7
4.71
4.69
4.55
4.28
3.93
3.54
3.2
2.88
2.54
2.11
1.61
1.16
0.97
1.23
1.96
2.99
3.93
4.39
4.12
3.1
1.59
-0.02
-1.33
-2.06
-2.09
-1.47
-0.33
1.08
2.55
3.92
5.15
6.31
7.53
8.87
10.22
11.38
12.11
12.31
12.14
11.88
11.88
12.32
13.17
14.15
14.98
15.42
15.36
14.75
13.56
11.7
9.08
5.66
1.51
-3.14
-7.91
-12.43
-16.29
-19.22
-21.02
-21.61
-21.02
-19.37
-16.92
-14.02
-11.12
-8.62
-6.84
-5.91
-5.74
-6.06
-6.44
-6.5
-6
-4.9
-3.31
-1.51
0.22
1.7
2.81
3.54
3.96
4.12
4.14
4.09
4.04
4.02
4.02
3.93
3.72
3.37
2.97
2.64
2.51
2.6
2.83
3.08
3.21
3.08
2.62
1.78
0.59
-0.86
-2.41
-3.83
-4.92
-5.61
-5.96
-6.19
-6.52
-7.04
-7.7
-8.33
-8.74
-8.83
-8.64
-8.27
-7.82
-7.4
-7.06
-6.85
-6.8
-6.89
-6.98
-6.93
-6.55
-5.82
-4.85
-3.84
-2.94
-2.14
-1.3
-0.28
0.95
2.22
3.24
3.71
3.47
2.61
1.34
0.01
-1.08
-1.72
-1.82
-1.45
-0.75
0.12
1.04
1.98
2.98
4.05
5.08
5.8
5.83
4.87
2.86
0.03
-3.15
-6.04
-8.06
-8.81
-8.16
-6.32
-3.73
-1.02
1.18
2.38
2.34
1.15
-0.85
-3.16
-5.35
-7.1
-8.34
-9.15
-9.7
-10.09
-10.31
-10.17
-9.51
-8.2
-6.33
-4.17
-2.13
-0.55
0.44
0.95
1.3
1.82
2.71
3.89
5.11
6.01
6.33
6.03
5.32
4.53
3.95
3.72
3.79
3.94
4.03
4
3.97
4.07
4.39
4.79
4.99
4.67
3.74
2.37
0.96
-0.06
-0.43
-0.16
0.47
1.11
1.46
1.41
1
0.39
-0.27
-0.82
-1.19
-1.32
-1.25
-1.06
-0.94
-1.04
-1.46
-2.21
-3.11
-3.93
-4.43
-4.47
-4.03
-3.21
-2.18
-1.13
-0.19
0.59
1.23
1.76
2.22
2.63
2.99
3.27
3.45
3.51
3.49
3.4
3.25
3.06
2.84
2.57
2.28
1.98
1.68
1.36
1.04
0.72
0.41
0.13
-0.16
-0.46
-0.8
-1.16
-1.46
-1.62
-1.62
-1.48
-1.32
-1.27
-1.39
-1.63
-1.86
-1.96
-1.89
-1.75
-1.67
-1.79
-2.14
-2.64
-3.17
-3.64
-4
-4.27
-4.4
-4.36
-4.05
-3.42
-2.45
-1.24
0.06
1.27
2.22
2.77
2.82
2.42
1.78
1.25
1.12
1.51
2.3
3.12
3.61
3.51
2.9
2.2
2.05
2.74
4.21
5.93
7.15
7.26
6.08
3.99
1.9
0.92
1.49
3.36
5.52
6.65
5.85
3.01
-1.02
-4.72
-6.49
-5.81
-3.27
-0.44
0.83
-1.11
-7.48
-19.33
-37.65
-59.65
-81.17
-96.68
-101.11
-91.69
-68.85
-36.6
-1.98
26.9
43.91
46.82
38.05
23.08
7.72
-4.17
-11.57
-15.44
-17.34
-18.11
-18.06
-17.39
-16.67
-16.69
-17.82
-19.53
-20.36
-18.85
-14.31
-7.52
-0.46
4.56
6.26
5.3
4.32
6.89
15.75
31.21
50.4
67.98
77.95
75.82
60.35
33.4
1.61
-27.37
-46.99
-53.67
-47.49
-31.67
-11.18
9.16
25.99
38.05
45.58
49.69
51.55
51.81
50.44
47.07
41.31
33.43
24.69
17.05
12.55
12.25
15.41
19.63
21.97
20.56
15.77
9.46
3.91
0.4
-1.45
-3.18
-6.17
-10.47
-14.7
-16.93
-15.92
-11.88
-6.36
-1.4
1.5
1.87
0.3
-1.9
-3.45
-3.51
-1.98
0.43
2.13
1.2
-3.98
-13.87
-27.22
-41.33
-52.95
-59.47
-59.94
-55.17
-47.08
-37.61
-27.92
-18.25
-8.51
1.06
9.63
16.04
19.43
19.75
17.82
14.83
11.78
9.09
6.6
3.91
0.76
-2.7
-5.94
-8.37
-9.57
-9.59
-8.77
-7.66
-6.74
-6.26
-6.21
-6.41
-6.72
-7.08
-7.47
-7.86
-8.13
-8.13
-7.8
-7.19
-6.55
-6.19
-6.34
-7.04
-8.05
-8.95
-9.34
-8.91
-7.61
-5.6
-3.15
-0.56
1.93
4.16
6.02
7.44
8.35
8.7
8.44
7.65
6.47
5.19
4.12
3.54
3.54
4.03
4.8
5.55
6.06
6.18
5.93
5.37
4.61
3.79
3.03
2.43
2.03
1.8
1.67
1.52
1.26
0.8
0.13
-0.73
-1.69
-2.67
-3.56
-4.3
-4.84
-5.19
-5.37
-5.38
-5.19
-4.73
-3.95
-2.83
-1.42
0.18
1.89
3.56
5.06
6.24
6.99
7.27
7.12
6.71
6.26
6.01
6.13
6.66
7.49
8.4
9.12
9.43
9.26
8.65
7.81
6.97
6.33
5.99
5.93
6.02
6.07
5.92
5.43
4.59
3.47
2.22
1.03
0.05
-0.66
-1.13
-1.45
-1.74
-2.11
-2.61
-3.22
-3.89
-4.53
-5
-5.19
-4.94
-4.15
-2.79
-0.97
1.07
2.99
4.42
5.16
5.16
4.58
3.66
2.69
1.84
1.25
1.01
1.2
1.88
2.98
4.37
5.8
7.01
7.8
8.08
7.89
7.34
6.62
5.85
5.14
4.52
3.99
3.51
3.01
2.46
1.86
1.22
0.58
-0.08
-0.78
-1.58
-2.45
-3.3
-3.93
-4.12
-3.67
-2.57
-0.95
0.93
2.75
4.29
5.45
6.24
6.7
6.86
6.68
6.13
5.29
4.31
3.45
2.92
2.84
3.16
3.72
4.3
4.72
4.87
4.7
4.27
3.64
2.94
2.3
1.79
1.5
1.39
1.4
1.41
1.27
0.86
0.08
-1.13
-2.72
-4.54
-6.3
-7.68
-8.33
-8.04
-6.79
-4.74
-2.26
0.26
2.45
4.11
5.21
5.85
6.18
6.32
6.31
6.17
5.97
5.79
5.76
5.97
6.44
7.06
7.7
8.23
8.58
8.74
8.74
8.57
8.22
7.72
7.12
6.55
6.12
5.88
5.84
5.95
6.12
6.29
6.41
6.46
6.38
6.09
5.52
4.7
3.77
3.03
2.79
3.29
4.55
6.35
8.28
9.94
11.06
11.63
11.85
11.99
12.23
12.48
12.4
11.51
9.39
5.89
1.22
-4.06
-9.21
-13.46
-16.18
-16.92
-15.54
-12.22
-7.58
-2.63
1.45
3.61
3.42
1.31
-1.59
-3.88
-4.55
-3.41
-1.16
1.05
2.15
1.68
-0.12
-2.57
-4.98
-7
-8.67
-10.25
-11.87
-13.36
-14.32
-14.33
-13.15
-10.95
-8.21
-5.57
-3.62
-2.74
-2.96
-4.02
-5.49
-6.86
-7.69
-7.7
-6.86
-5.41
-3.9
-3.06
-3.56
-5.77
-9.65
-14.71
-20.12
-24.88
-28.11
-29.35
-28.52
-25.93
-22.18
-18
-13.97
-10.42
-7.27
-4.28
-1.32
1.83
5.42
9.75
14.99
21.09
27.48
33.57
38.45
40.98
40.85
38.58
35.1
31.1
26.82
21.95
17.02
12.83
9.89
9.24
11.61
16.78
23.09
28.18
29.32
26.12
19.31
9.71
-0.64
-9.09
-12.98
-10.13
1.51
22.8
55.06
97.25
138.29
163.95
163.16
135.43
90.8
49.45
18.21
-0.65
-7.88
-6.5
0.66
12.53
28.11
42.66
50.41
46.26
30.3
8.43
-16.94
-43.15
-67.51
-87.69
-102.94
-114.04
-122.92
-129.69
-133.53
-133.92
-129.85
-120.93
-108.02
-93.06
-77.95
-64.42
-52.88
-43.67
-37.87
-35.73
-36.48
-38.25
-38.75
-35.9
-29.09
-19.04
-7.79
1.94
8.57
12.01
13.31
13.86
14.75
16.25
18.09
19.59
20.04
19.2
17.29
14.82
12.32
10.24
8.85
8.26
8.41
9.05
9.79
10.12
9.56
7.75
4.77
1.12
-2.42
-5.13
-6.6
-6.88
-6.35
-5.52
-4.81
-4.4
-4.26
-4.23
-4.13
-3.86
-3.36
-2.65
-1.78
-0.82
0.17
1.16
2.16
3.14
4.05
4.78
5.19
5.22
4.98
4.69
4.66
5.06
5.87
6.86
7.72
8.21
8.22
7.77
6.95
5.88
4.64
3.33
2.08
1.05
0.33
-0.08
-0.28
-0.38
-0.46
-0.53
-0.53
-0.43
-0.27
-0.17
-0.29
-0.8
-1.75
-3.03
-4.33
-5.2
-5.23
-4.17
-2.13
0.49
3.15
5.38
6.89
7.57
7.45
6.61
5.22
3.55
2.04
1.2
1.33
2.34
3.66
4.48
4.18
2.66
0.47
-1.5
-2.43
-2.02
-0.53
1.37
3.02
4.08
4.55
4.63
4.51
4.24
3.75
2.95
1.88
0.67
-0.49
-1.46
-2.15
-2.56
-2.73
-2.73
-2.75
-2.97
-3.53
-4.46
-5.56
-6.48
-6.8
-6.26
-4.85
-2.88
-0.91
0.46
0.81
0.05
-1.56
-3.49
-5.15
-6.08
-6.07
-5.12
-3.42
-1.26
1.04
3.2
4.96
6.12
6.58
6.34
5.56
4.52
3.53
2.93
2.86
3.31
4.07
4.85
5.45
5.78
5.93
6.03
6.19
6.39
6.49
6.37
5.93
5.18
4.19
3.1
2.05
1.23
0.77
0.72
1.01
1.46
1.81
1.87
1.59
1.04
0.36
-0.3
-0.89
-1.36
-1.71
-1.87
-1.78
-1.32
-0.41
0.92
2.57
4.25
5.63
6.35
6.23
5.35
4.09
2.97
2.49
2.84
3.87
5.1
5.97
6.04
5.13
3.3
0.81
-2.01
-4.77
-7.02
-8.36
-8.48
-7.35
-5.3
-3.04
-1.38
-0.96
-1.92
-3.81
-5.84
-7.19
-7.43
-6.66
-5.39
-4.26
-3.68
-3.77
-4.39
-5.41
-6.72
-8.25
-9.84
-11.2
-12.04
-12.2
-11.82
-11.18
-10.47
-9.68
-8.65
-7.34
-6.04
-5.31
-5.62
-7.03
-9.03
-10.83
-11.83
-11.94
-11.55
-11.1
-10.66
-9.85
-8.08
-5.11
-1.28
2.63
5.82
7.97
9.33
10.51
11.99
13.8
15.57
16.81
17.23
16.96
16.48
16.39
17.22
19.27
22.49
26.44
30.24
32.76
32.89
30.04
24.47
17.28
10.04
4.15
0.35
-1.44
-1.84
-1.53
-0.92
-0.05
1.08
2.26
2.94
2.41
0.19
-3.62
-8.21
-12.37
-14.87
-15.03
-12.95
-9.43
-5.59
-2.46
-0.6
-0.07
-0.51
-1.48
-2.58
-3.59
-4.36
-4.77
-4.72
-4.21
-3.33
-2.24
-1.05
0.25
1.73
3.42
5.12
6.39
6.71
5.74
3.57
0.75
-1.83
-3.38
-3.47
-2.22
-0.2
1.9
3.59
4.68
5.28
5.55
5.5
5.02
3.94
2.29
0.41
-1.17
-1.94
-1.68
-0.61
0.68
1.56
1.62
0.82
-0.45
-1.58
-2.05
-1.59
-0.36
1.11
2.14
2.21
1.09
-1.04
-3.71
-6.38
-8.65
-10.26
-11.15
-11.39
-11.26
-11.15
-11.48
-12.42
-13.7
-14.64
-14.5
-12.8
-9.7
-5.88
-2.26
0.41
1.84
2.17
1.67
0.61
-0.87
-2.56
-4.14
-5.15
-5.17
-4.06
-2.07
0.28
2.35
3.6
3.79
3.02
1.72
0.47
-0.16
0.13
1.34
3.2
5.23
6.95
8.03
8.32
7.89
6.97
5.83
4.71
3.79
3.1
2.59
2.19
1.82
1.46
1.13
0.81
0.42
-0.13
-0.93
-1.99
-3.28
-4.74
-6.29
-7.88
-9.47
-11.02
-12.57
-14.17
-15.92
-17.85
-19.85
-21.62
-22.8
-23.14
-22.72
-21.92
-21.31
-21.32
-22.04
-23.1
-23.86
-23.6
-21.91
-18.73
-14.43
-9.63
-5.05
-1.25
1.5
3.28
4.52
5.81
7.64
10.16
13.1
15.86
17.85
18.85
19.18
19.66
21.15
24.04
27.93
31.55
33.22
31.43
25.55
16.01
4.22
-7.94
-18.62
-26.45
-31.06
-33.22
-34.7
-37.61
-43.44
-52.18
-62.04
-70.17
-73.9
-72.2
-66.28
-59.01
-53.6
-52.07
-54.52
-59.11
-62.95
-62.91
-56.83
-44.17
-26.2
-5.65
14.02
29.63
39.28
42.91
42.64
41.28
41.13
43.16
47.05
51.76
56.14
59.38
61.16
62.22
63.37
65.08
67.49
70.8
75.48
82.06
90.69
100.99
112.69
124.79
135.45
142.43
143.93
139.13
128.08
111.24
84.89
48.8
7.08
-33.19
-66.15
-89.75
-105.16
-114.77
-120.4
-122.24
-118.33
-106.85
-88.05
-65.04
-43.04
-27.24
-20.85
-24.16
-34.71
-48.05
-59.74
-66.36
-65.6
-56.2
-38.14
-13.57
13.02
35.9
50.54
55.17
51.09
41.42
29.43
16.99
4.33
-8.91
-22.39
-34.48
-43.2
-47.26
-46.58
-41.81
-33.57
-22.4
-9.17
4.51
16.54
25.24
30.37
33.3
35.98
39.35
42.31
42.42
37.68
28.31
17.2
8.39
4.65
5.83
9.1
10.84
8.93
3.87
-1.82
-5.37
-5.46
-2.87
0.3
2.04
1.56
-0.44
-2.5
-3.46
-3.12
-2.09
-1.29
-1.29
-1.95
-2.67
-2.78
-2.02
-0.67
0.63
1.14
0.45
-1.35
-3.65
-5.61
-6.55
-6.35
-5.52
-4.88
-5.12
-6.21
-7.45
-7.79
-6.61
-4.09
-1.26
0.64
0.89
-0.35
-2.14
-3.4
-3.48
-2.54
-1.34
-0.74
-1.18
-2.54
-4.22
-5.66
-6.45
-6.48
-5.94
-5.21
-4.83
-5.17
-6.31
-7.91
-9.54
-10.7
-10.92
-10.05
-8.25
-5.9
-3.38
-0.91
1.6
3.53
4.08
2.67
-0.85
-6.15
-12.67
-19.95
-27.8
-35.02
-40.7
-44.56
-46.42
-45.56
-40.94
-32.01
-19.31
-4.32
10.95
24.4
34.64
41.3
44.91
46.35
46.5
45.9
44.9
43.68
42.24
40.68
39.32
38.53
38.47
39.08
40.19
41.66
43.24
44.37
44.28
42.25
37.92
31.55
23.99
16.35
9.65
4.31
0.18
-3.19
-6.14
-8.87
-11.64
-14.99
-19.76
-26.52
-35.16
-44.49
-52.81
-58
-58.77
-55.2
-48.68
-41.32
-34.86
-30.17
-27.19
-25.12
-23.58
-22.47
-21.88
-21.93
-22.72
-24.1
-26.07
-28.96
-33.47
-39.87
-47.08
-52.16
-50.77
-39.61
-17.41
13.18
46.28
74.98
94.16
102.37
100.96
94.1
84.72
73.54
59.61
42.35
23.13
5.22
-7.77
-14.14
-15.01
-14.01
-14.82
-19.46
-26.91
-34.14
-37.86
-36.24
-29.69
-20.26
-10.56
-2.44
3.5
7.65
10.63
12.7
13.66
13.17
11.22
8.28
5.23
2.9
1.87
2.19
3.6
5.69
8.09
10.39
12.16
12.86
12.01
9.43
5.4
0.77
-3.22
-5.46
-5.45
-3.5
-0.76
1.27
1.37
-0.77
-4.41
-8.26
-11.39
-13.99
-17.1
-22.25
-30.45
-41.55
-54.43
-67.46
-78.93
-86.83
-88.55
-80.6
-60
-26.55
15.63
58.32
91.92
109.25
109.75
96.78
77.21
57.92
42.95
32.68
25.09
18.01
10.72
4.11
-0.49
-2.26
-1.71
-0.49
-0.34
-1.98
-4.7
-6.83
-6.69
-3.73
1.36
6.83
10.62
11.39
9.19
5.47
2.08
0.55
1.31
3.69
6.34
7.77
6.97
3.58
-2.08
-9.27
-17.01
-24.16
-29.55
-32.2
-31.71
-28.46
-23.45
-17.95
-12.92
-8.63
-4.77
-0.95
2.98
6.61
9.14
9.97
9.13
7.36
5.77
5.22
5.75
6.71
7.05
5.87
3.01
-0.78
-4.16
-5.82
-5.11
-2.6
0.56
3.07
3.99
3.24
1.38
-0.75
-2.55
-3.88
-5.24
-6.93
-8.84
-10.5
-11.25
-10.68
-8.82
-6.22
-2.37
1.37
4.07
5.85
7.66
10.84
16.23
23.54
31.16
37.31
39.94
38
32.02
23.86
16.02
10.49
8.04
8.24
9.94
11.65
11.96
11.19
9.8
8.36
6.96
5.13
2.11
-2.75
-10.05
-20.62
-34.41
-50.27
-66.31
-80.72
-92.08
-99.29
-101.69
-99.38
-94.2
-88.18
-82.83
-79.03
-77.36
-77.67
-78.55
-77.32
-64.93
-38.24
-2.2
34.27
64.41
85.15
96.24
99.37
97.4
93.23
88.02
82.46
77.46
74.04
72.53
72.24
71.55
68.39
61.04
48.26
30.96
12.18
-4.35
-16.19
-23.01
-26.19
-27.79
-29.55
-32.59
-36.73
-40.62
-42.7
-42.07
-38.59
-32.62
-24.64
-15.02
-4.24
7.22
18.74
29.29
37.35
41.37
40.42
34.63
25.23
14.12
3.32
-5.63
-12.02
-15.97
-18.09
-18.92
-18.66
-17.28
-14.71
-11.09
-6.95
-3.04
-0.12
1.42
1.65
1.09
0.37
0.02
0.23
0.78
1.35
1.58
1.32
0.68
-0.06
-0.66
-0.97
-1.03
-1.05
-1.22
-1.69
-2.49
-3.51
-4.57
-5.48
-6.13
-6.5
-6.67
-6.73
-6.85
-7.14
-7.64
-8.32
-9.08
-9.84
-10.58
-11.29
-11.91
-12.31
-12.32
-11.79
-10.64
-8.96
-6.92
-4.68
-2.68
-1.12
-0.07
0.55
0.83
0.85
0.66
0.35
0.02
-0.23
-0.3
-0.19
-0.04
-0.02
-0.3
-0.94
-1.87
-2.97
-4.09
-5.12
-5.99
-6.76
-7.46
-8.15
-8.81
-9.41
-9.88
-10.18
-10.22
-9.95
-9.32
-8.34
-7.07
-5.66
-4.32
-3.3
-2.78
-2.78
-3.1
-3.43
-3.41
-2.81
-1.58
0.16
2.16
4.2
6.09
7.71
8.95
9.78
10.21
10.31
10.19
9.9
9.4
8.63
7.55
6.27
5.06
4.18
3.84
4.03
4.57
5.21
5.74
6.09
6.29
6.39
6.43
6.37
6.18
5.86
5.44
4.97
4.45
3.87
3.2
2.45
1.66
0.86
0.08
-0.74
-1.65
-2.71
-3.87
-4.97
-5.81
-6.2
-6.06
-5.44
-4.51
-3.44
-2.39
-1.43
-0.56
0.21
0.86
1.3
1.42
1.13
0.45
-0.44
-1.29
-1.85
-1.97
-1.67
-1.14
-0.61
-0.28
-0.21
-0.34
-0.57
-0.79
-0.93
-0.98
-0.91
-0.69
-0.33
0.13
0.59
0.94
1.08
1.01
0.79
0.5
0.2
-0.08
-0.34
-0.62
-0.94
-1.3
-1.66
-1.93
-2
-1.72
-0.98
0.3
2.08
4.24
6.6
8.96
11.16
13.08
14.67
15.94
16.94
17.67
18.11
18.25
18.08
17.73
17.34
17.11
17.14
17.4
17.68
17.73
17.29
16.25
14.67
12.71
10.56
8.36
6.2
4.11
2.18
0.49
-0.9
-1.99
-2.97
-4.1
-5.69
-7.9
-10.63
-13.52
-16.02
-17.63
-17.96
-16.93
-14.66
-11.43
-7.56
-3.33
1.05
5.43
9.73
13.89
17.85
21.51
24.64
26.96
28.22
28.3
27.27
25.37
22.87
19.89
16.42
12.35
7.65
2.47
-2.88
-7.99
-12.4
-15.71
-17.61
-17.85
-16.38
-13.33
-8.97
-3.66
2.25
8.35
14.17
19.11
22.58
24.13
23.69
21.45
17.78
12.86
6.65
-0.99
-10.07
-20.19
-30.48
-39.81
-47.07
-51.45
-52.57
-50.54
-45.84
-39.37
-32.27
-25.72
-20.65
-17.58
-16.54
-17.19
-18.95
-21.24
-23.52
-25.31
-26.17
-25.75
-23.92
-20.85
-16.99
-12.93
-9.19
-6.01
-3.38
-1.11
0.89
2.52
3.5
3.54
2.52
0.64
-1.66
-3.91
-5.78
-7.2
-8.28
-9.15
-9.89
-10.44
-10.67
-10.49
-9.92
-9.07
-8.1
-7.13
-6.18
-5.24
-4.26
-3.22
-2.16
-1.1
-0.04
1.04
2.21
3.46
4.72
5.79
6.49
6.65
6.23
5.34
4.2
3.07
2.19
1.69
1.62
2.01
2.84
4.08
5.7
7.61
9.69
11.76
13.63
15.1
16.04
16.4
16.22
15.62
14.74
13.79
13.03
12.7
13.03
14.15
16.03
18.5
21.24
23.79
25.69
26.58
26.28
24.85
22.61
19.97
17.42
15.36
14.03
13.47
13.61
14.24
15.09
15.85
16.2
15.93
15.04
13.75
12.43
11.41
10.92
11.02
11.58
12.45
13.47
14.55
15.61
16.59
17.38
17.93
18.25
18.36
18.31
18.06
17.55
16.7
15.55
14.18
12.72
11.27
9.83
8.32
6.56
4.37
1.65
-1.58
-5.17
-8.82
-12.13
-14.7
-16.2
-16.48
-15.6
-13.85
-11.57
-9.14
-6.81
-4.78
-3.14
-1.91
-1.17
-0.98
-1.4
-2.44
-4
-5.89
-7.92
-9.93
-11.86
-13.69
-15.41
-16.91
-17.96
-18.27
-17.54
-15.7
-12.95
-9.78
-6.83
-4.67
-3.64
-3.73
-4.62
-5.86
-7.05
-8.05
-8.9
-9.84
-11.08
-12.74
-14.77
-16.96
-18.97
-20.38
-20.81
-19.97
-17.86
-14.74
-11.14
-7.61
-4.54
-2.04
0.07
2.04
4.02
5.95
7.65
8.96
9.85
10.42
10.77
10.92
10.81
10.42
9.91
9.67
10.15
11.69
14.29
17.69
21.48
25.34
29.14
32.85
36.39
39.52
41.94
43.49
44.36
45.05
46.16
48.08
50.61
53.03
54.29
53.35
49.63
43.1
34.29
24.1
13.54
3.48
-5.53
-13.51
-20.97
-28.73
-37.47
-47.22
-57.17
-65.75
-71.26
-72.5
-69.24
-62.28
-53.01
-42.81
-32.58
-22.62
-12.82
-3.04
6.64
15.85
24.03
30.65
35.37
38.14
39.1
38.53
36.7
33.89
30.33
26.25
21.92
17.62
13.63
10.21
7.47
5.35
3.63
1.97
0.09
-2.15
-4.64
-7.12
-9.27
-10.9
-11.98
-12.63
-13.06
-13.37
-13.53
-13.45
-13.05
-12.39
-11.63
-11.02
-10.75
-10.88
-11.33
-11.88
-12.24
-12.07
-11.13
-9.27
-6.5
-3.03
0.83
4.74
8.44
11.86
15.12
18.36
21.64
24.75
27.29
28.77
28.88
27.56
25.09
21.91
18.49
15.12
11.97
9.01
6.15
3.31
0.42
-2.57
-5.68
-8.9
-12.15
-15.29
-18.17
-20.69
-22.87
-24.81
-26.64
-28.37
-29.98
-31.43
-32.73
-33.97
-35.18
-36.37
-37.43
-38.32
-39.17
-40.39
-42.5
-45.82
-50.17
-54.74
-58.31
-59.65
-57.87
-52.56
-43.74
-31.7
-16.97
-0.35
16.98
33.57
47.99
59.22
66.91
71.3
73.05
72.75
70.64
66.66
60.52
52.02
41.24
28.67
15.16
1.9
-9.85
-19.01
-24.99
-27.81
-28.2
-27.39
-26.68
-27.04
-28.87
-31.87
-35.25
-37.98
-39.13
-38.13
-34.88
-29.73
-23.3
-16.23
-9.1
-2.32
3.83
9.13
13.39
16.48
18.44
19.54
20.32
21.41
23.28
26.08
29.49
32.84
35.34
36.34
35.52
32.94
28.99
24.24
19.21
14.27
9.61
5.28
1.3
-2.3
-5.47
-8.13
-10.22
-11.82
-13.11
-14.33
-15.67
-17.16
-18.74
-20.26
-21.46
-21.86
-20.99
-18.54
-14.5
-9.18
-3.16
2.84
8.12
12.35
15.82
19
22.32
25.81
29.32
32.57
35.21
36.96
37.73
37.78
37.25
36
33.53
29.48
23.59
15.59
4.97
-10.28
-30.41
-53.66
-76.63
-95.67
-107.34
-109.18
-100.36
-82.29
-58.35
-32.71
-9.66
9.39
23.7
33.44
39.21
41.57
40.91
37.61
32.48
26.55
20.97
15.61
10.89
7.14
4.4
2.53
1.31
0.76
0.87
1.54
2.26
2.63
2.26
0.89
-1.48
-4.53
-7.68
-10.34
-12.17
-13.2
-13.61
-13.68
-13.66
-13.65
-13.58
-13.29
-12.68
-11.77
-10.79
-9.89
-9.23
-8.84
-8.71
-8.72
-8.72
-8.53
-7.98
-6.96
-5.45
-3.58
-1.65
-0.03
0.99
1.24
0.77
-0.26
-1.64
-3.15
-4.67
-6.1
-7.35
-8.3
-8.86
-8.91
-8.43
-7.44
-6.07
-4.52
-2.97
-1.59
-0.48
0.31
0.81
1.05
1.09
1.01
0.91
0.86
0.93
1.11
1.37
1.61
1.75
1.71
1.52
1.26
1.06
1.01
1.16
1.47
1.82
2.1
2.21
2.14
1.91
1.57
1.17
0.71
0.22
-0.31
-0.85
-1.35
-1.79
-2.16
-2.46
-2.74
-2.99
-3.18
-3.21
-3
-2.47
-1.66
-0.69
0.3
1.19
1.91
2.44
2.83
3.12
3.33
3.49
3.63
3.82
4.13
4.56
5.05
5.5
5.78
5.8
5.55
5.11
4.61
4.2
3.99
4
4.16
4.32
4.32
4.09
3.64
3.04
2.44
1.96
1.65
1.51
1.46
1.43
1.35
1.15
0.79
0.21
-0.59
-1.56
-2.56
-3.41
-3.91
-3.93
-3.45
-2.6
-1.6
-0.66
0.07
0.57
0.93
1.22
1.47
1.65
1.69
1.62
1.53
1.53
1.67
1.91
2.11
2.17
2.08
1.93
1.85
1.91
2.03
2.1
2.02
1.79
1.48
1.18
0.9
0.58
0.16
-0.37
-0.91
-1.38
-1.75
-2.07
-2.43
-2.87
-3.31
-3.61
-3.63
-3.4
-3.06
-2.86
-3.04
-3.63
-4.49
-5.31
-5.73
-5.53
-4.66
-3.27
-1.66
-0.11
1.19
2.15
2.78
3.12
3.15
2.84
2.18
1.27
0.29
-0.55
-1.09
-1.32
-1.39
-1.5
-1.83
-2.47
-3.39
-4.46
-5.56
-6.57
-7.45
-8.24
-9.03
-9.95
-11.05
-12.3
-13.53
-14.56
-15.17
-15.26
-14.77
-13.7
-12.13
-10.18
-8.05
-6.04
-4.43
-3.42
-3
-2.95
-2.94
-2.68
-2.01
-0.93
0.4
1.82
3.17
4.33
5.23
5.81
6.05
5.96
5.62
5.09
4.43
3.71
3.01
2.43
2.13
2.21
2.66
3.38
4.13
4.7
4.92
4.78
4.38
3.9
3.55
3.47
3.68
4.07
4.38
4.29
3.52
1.98
-0.22
-2.78
-5.36
-7.66
-9.51
-10.88
-11.78
-12.22
-12.16
-11.48
-10.07
-7.88
-4.95
-1.46
2.26
5.88
9.09
11.73
13.78
15.25
16.12
16.34
15.85
14.73
13.21
11.65
10.39
9.63
9.34
9.34
9.37
9.22
8.81
8.16
7.37
6.49
5.58
4.6
3.46
2.07
0.39
-1.54
-3.54
-5.37
-6.79
-7.63
-7.86
-7.53
-6.76
-5.76
-4.79
-4.23
-4.44
-5.61
-7.56
-9.84
-11.78
-12.77
-12.54
-11.25
-9.35
-7.32
-5.5
-3.93
-2.5
-1.07
0.38
1.78
3.04
4.13
5.1
5.97
6.68
7.07
6.93
6.1
4.6
2.62
0.48
-1.5
-3.09
-4.1
-4.52
-4.38
-3.77
-2.86
-1.74
-0.5
0.81
2.1
3.29
4.24
4.8
4.91
4.62
4.05
3.39
2.82
2.45
2.34
2.48
2.83
3.33
3.89
4.41
4.83
5.11
5.25
5.32
5.35
5.36
5.33
5.19
4.84
4.27
3.52
2.69
1.95
1.43
1.19
1.19
1.35
1.58
1.81
1.99
2.06
2
1.74
1.29
0.7
0.1
-0.39
-0.7
-0.89
-1.1
-1.49
-2.19
-3.16
-4.27
-5.29
-6
-6.24
-5.98
-5.31
-4.39
-3.39
-2.43
-1.61
-0.94
-0.43
-0.08
0.13
0.26
0.37
0.55
0.83
1.2
1.52
1.69
1.6
1.29
0.87
0.51
0.31
0.32
0.47
0.64
0.75
0.77
0.71
0.61
0.49
0.38
0.29
0.22
0.15
0.05
-0.11
-0.32
-0.57
-0.83
-1.05
-1.2
-1.31
-1.41
-1.55
-1.73
-1.95
-2.16
-2.38
-2.62
-2.9
-3.21
-3.48
-3.62
-3.55
-3.28
-2.86
-2.39
-1.94
-1.52
-1.1
-0.64
-0.11
0.47
1.06
1.62
2.16
2.67
3.12
3.46
3.62
3.56
3.33
3.04
2.81
2.72
2.77
2.89
2.99
3
2.89
2.71
2.5
2.34
2.24
2.24
2.29
2.34
2.29
2.06
1.6
0.96
0.2
-0.53
-1.15
-1.58
-1.85
-2.04
-2.25
-2.56
-3.02
-3.71
-4.66
-5.91
-7.39
-8.93
-10.26
-11.07
-11.18
-10.56
-9.35
-7.74
-5.94
-4.05
-2.14
-0.29
1.36
2.58
3.24
3.3
2.94
2.43
2.05
1.97
2.17
2.56
3
3.42
3.8
4.2
4.61
5
5.31
5.45
5.39
5.16
4.83
4.54
4.39
4.48
4.77
5.21
5.61
5.8
5.66
5.19
4.51
3.82
3.31
3.07
3.07
3.21
3.38
3.51
3.62
3.73
3.84
3.9
3.8
3.48
2.89
2.13
1.33
0.66
0.22
0.06
0.12
0.29
0.48
0.61
0.65
0.6
0.46
0.21
-0.19
-0.7
-1.24
-1.64
-1.81
-1.72
-1.47
-1.27
-1.35
-1.78
-2.48
-3.25
-3.84
-4.09
-3.98
-3.62
-3.14
-2.61
-2.07
-1.52
-0.96
-0.42
0.01
0.32
0.5
0.6
0.67
0.74
0.82
0.93
1.06
1.22
1.45
1.77
2.15
2.58
2.98
3.23
3.25
2.98
2.46
1.84
1.33
1.09
1.17
1.51
1.94
2.29
2.5
2.61
2.7
2.82
2.94
2.95
2.76
2.33
1.75
1.17
0.73
0.48
0.4
0.4
0.43
0.47
0.54
0.64
0.7
0.65
0.38
-0.09
-0.67
-1.21
-1.57
-1.74
-1.8
-1.92
-2.23
-2.74
-3.36
-3.97
-4.42
-4.69
-4.78
-4.75
-4.58
-4.22
-3.63
-2.78
-1.76
-0.72
0.16
0.78
1.1
1.15
1.01
0.73
0.41
0.12
-0.05
-0.08
0.03
0.17
0.28
0.3
0.3
0.38
0.62
1.02
1.47
1.82
1.95
1.87
1.64
1.35
1.07
0.75
0.34
-0.26
-1.08
-2.05
-3.05
-3.93
-4.54
-4.78
-4.66
-4.2
-3.48
-2.57
-1.5
-0.3
1.01
2.37
3.68
4.81
5.62
6.02
5.97
5.57
4.92
4.21
3.54
2.98
2.47
1.91
1.19
0.26
-0.78
-1.76
-2.48
-2.8
-2.74
-2.44
-2.06
-1.74
-1.52
-1.33
-1.09
-0.78
-0.42
-0.05
0.31
0.67
1.05
1.43
1.69
1.74
1.52
1.06
0.56
0.2
0.13
0.36
0.79
1.28
1.73
2.11
2.44
2.74
3.01
3.22
3.31
3.26
3.07
2.78
2.43
2.08
1.8
1.64
1.61
1.68
1.71
1.52
0.95
-0.06
-1.48
-3.15
-4.9
-6.6
-8.11
-9.38
-10.3
-10.79
-10.81
-10.39
-9.61
-8.63
-7.6
-6.6
-5.71
-5.02
-4.69
-4.9
-5.8
-7.36
-9.34
-11.33
-12.87
-13.68
-13.78
-13.52
-13.42
-13.87
-14.96
-16.36
-17.39
-17.24
-15.32
-11.45
-5.93
0.59
7.35
13.7
19.33
24.34
29.12
34.07
39.2
43.97
47.32
47.99
44.92
37.59
26.2
11.75
-4.17
-19.44
-31.68
-38.62
-38.68
-31.59
-18.57
-2.15
14.73
29.41
40.23
46.66
49.05
48.15
44.78
39.68
33.68
27.81
23.06
20.05
18.81
18.79
19.11
18.98
18.08
16.68
15.8
16.44
19.13
23.57
28.87
33.92
37.82
40.23
41.41
42.18
43
43.56
42.94
40.3
35.34
28.45
20.24
9.03
-5.76
-23.49
-42.02
-58.23
-68.99
-72.33
-68.46
-60.15
-51.8
-47.28
-48.56
-55
-63.84
-71.77
-76.43
-77.23
-75.23
-72.19
-69.25
-66.79
-64.59
-62.39
-60.22
-58.45
-57.27
-56.28
-54.18
-49.13
-39.89
-26.8
-11.87
1.96
12.05
17.32
18.59
18.4
19.72
24.43
32.41
41.98
51
58.16
63.99
68.99
73.49
76.65
76.41
70.63
58.83
43.1
27.12
15.73
11.1
12.13
15.25
16.49
13.6
7.04
-0.97
-7.95
-12.5
-15.1
-17.11
-19.72
-23.18
-26.92
-29.78
-31.1
-30.84
-29.43
-27.57
-25.54
-23.21
-20.24
-16.43
-11.89
-7.14
-2.87
0.26
1.8
1.84
0.86
-0.41
-1.24
-1.03
0.38
2.85
5.95
9.25
12.43
15.24
17.48
18.93
19.43
18.77
16.8
13.28
8.16
1.7
-5.59
-12.78
-18.63
-21.74
-21.12
-16.53
-9.02
-0.44
7.09
11.61
12.12
8.8
3.02
-3.4
-8.98
-13.76
-18.01
-21.14
-22.71
-22.54
-20.9
-17.65
-13.29
-6.8
1.5
10.11
17.06
20.85
20.64
16.58
10.01
2.92
-2.87
-6.46
-7.32
-5.19
-0.52
6.08
10.88
8.98
-1.1
-15.63
-28.22
-33.08
-27.65
-13.87
2.91
16.52
23.2
23.12
19.53
16.3
16.02
19.08
23.76
27.52
29.02
28.91
29.53
33.26
40.41
48.63
53.81
51.88
40.8
21.95
0.01
-18.91
-29.01
-28.33
-20.49
-12.38
-10.11
-15.81
-26.99
-38.42
-45.13
-45.07
-39.96
-33.67
-29.61
-29.04
-30.78
-32.39
-31.8
-28.36
-23.05
-17.91
-14.78
-14.42
-16.4
-19.6
-23.08
-26.75
-29.96
-32.14
-32.42
-29.82
-23.79
-14.84
-4.68
4.4
10.49
12.97
12.5
10.53
8.45
7.06
6.39
6.12
6.06
6.3
7.01
8.06
8.97
9.15
8.21
6.21
3.69
1.5
0.32
0.37
1.32
2.24
2.21
0.66
-2.35
-6.13
-9.46
-11.41
-11.87
-11.44
-11.09
-11.51
-12.9
-14.89
-16.87
-17.74
-17.03
-15.08
-12.68
-10.46
-8.54
-6.69
-4.65
-2.38
0.76
4.9
9.51
13.98
18.22
22.82
28.65
36.27
45.48
56.47
68.37
79.33
87.5
92.16
93.88
94.27
94.89
89.2
74.65
53.83
32.32
14.39
1.85
-5.29
-7.89
-7.56
-6.3
-4.67
-3.16
-2.52
-3.63
-6.26
-10.96
-17.59
-25.44
-33.48
-39.68
-42.64
-42.25
-39.37
-35.25
-31.18
-28.07
-26.68
-27.48
-29.99
-33.46
-37.11
-40.23
-42.28
-43.09
-42.81
-41.84
-40.51
-38.61
-35.65
-31.27
-25.46
-18.73
-11.99
-6.27
-2.34
-0.45
-0.09
-0.27
-0.03
1.15
3.12
5.15
6.3
5.81
3.35
-1
-6.85
-13.65
-20.85
-27.89
-34.21
-39.34
-42.99
-45.23
-46.37
-46.83
-46.93
-46.73
-46.17
-45.23
-44.25
-43.94
-45.07
-48.15
-52.97
-58.55
-63.49
-66.52
-67.02
-65.28
-62.23
-58.84
-55.67
-52.76
-49.82
-46.69
-43.67
-41.28
-39.85
-39.06
-37.84
-34.89
-29.15
-20.24
-8.31
6.27
23.16
41.78
60.76
77.78
90.05
95.43
93.65
86.72
78.04
70.85
66.64
64.79
63.49
61.39
58.66
57.15
59.18
66.02
76.86
88.53
96.12
94.04
77.55
44.55
-2.75
-57.3
-108.4
-144.91
-159.15
-149.8
-122.14
-85.46
-48.95
-18.32
4.98
22.21
34.8
42.67
44.44
39.17
27.98
14.3
2.56
-3.95
-4.49
-0.96
3.25
5.19
3.71
-0.26
-4.35
-6.16
-4.32
0.9
7.94
14.7
19.5
21.66
21.61
20.47
19.47
19.42
20.54
22.49
24.69
26.63
28.08
29.13
30.05
31.1
32.37
33.69
34.72
35.07
34.46
32.9
30.59
27.92
25.23
22.92
21.2
20.09
19.44
19.1
18.98
19.04
19.25
19.58
20.14
21.06
22.35
23.84
25.29
26.49
27.36
27.98
28.58
29.87
32.39
36.12
40.42
44.28
46.76
47.29
45.8
42.72
39.96
39.3
41.49
45.93
51.21
55.9
58.93
59.73
58.34
57.61
60.23
67.21
77.26
87.94
96.98
102.83
104.7
102.72
101.55
105.95
118.29
137.4
159.83
181.28
197.2
203.29
196.68
181.94
166.16
155.93
155.3
166.54
191.06
228.8
277.26
302.13
278.81
204
97.62
-14.31
-113.47
-190.65
-243.11
-272.9
-285.68
-284.35
-272.64
-255.84
-239.86
-229.7
-227.29
-231.43
-239.01
-246.39
-246.98
-236.59
-215.46
-187.87
-159.23
-133.02
-110.44
-91.2
-75.27
-60.93
-47.6
-36.33
-28.98
-26.61
-28.31
-32.07
-36.16
-40.03
-42.99
-44.98
-46.28
-46.9
-46.24
-42.94
-35.76
-24.59
-10.74
3.99
17.5
28.05
34.99
38.58
39.95
40.31
40.51
40.82
41.38
42.08
41.68
39.15
33.82
26.08
17.09
8.13
-1.06
-10.72
-20.8
-31.04
-39.67
-45.48
-47.96
-47.57
-45.5
-43.08
-41.13
-39.73
-38.32
-35.84
-31.5
-25
-16.8
-8.02
-0.1
5.77
8.84
8.89
6.34
1.92
-3.38
-8.53
-12.63
-15.03
-15.35
-13.62
-10.32
-6.14
-1.94
1.56
3.91
4.99
4.9
3.94
2.43
0.69
-1
-2.46
-3.55
-4.19
-4.4
-4.28
-4.01
-3.84
-3.99
-4.52
-5.36
-6.34
-7.28
-8.15
-8.98
-9.82
-10.56
-10.89
-10.42
-8.82
-6.1
-2.58
1.19
4.67
7.53
9.73
11.42
12.82
14.02
15.04
15.85
16.44
16.84
17.05
17.02
16.62
15.71
14.27
12.45
10.51
8.65
6.89
4.94
2.27
-1.67
-7.13
-13.86
-21.04
-27.52
-32.1
-33.98
-33.02
-29.82
-25.47
-21.21
-17.97
-16.15
-15.5
-15.34
-14.89
-13.53
-11.04
-7.56
-3.49
0.73
4.77
8.48
11.8
14.69
17.13
19.07
20.47
21.38
21.96
22.43
23.02
23.82
24.74
25.52
25.85
25.6
24.87
24.09
23.82
24.41
25.83
27.59
28.84
28.75
26.87
23.29
18.57
13.53
8.86
4.97
1.91
-0.53
-2.57
-4.33
-5.78
-6.82
-7.31
-7.21
-6.55
-5.37
-3.76
-1.8
0.36
2.5
4.35
5.67
6.27
6.1
5.23
3.89
2.35
0.9
-0.21
-0.84
-1.01
-0.84
-0.54
-0.32
-0.35
-0.67
-1.26
-1.98
-2.71
-3.32
-3.75
-3.98
-4.11
-4.29
-4.67
-5.35
-6.33
-7.5
-8.68
-9.68
-10.37
-10.73
-10.8
-10.71
-10.57
-10.5
-10.57
-10.82
-11.21
-11.65
-11.95
-11.9
-11.3
-10.05
-8.28
-6.25
-4.37
-3.02
-2.45
-2.71
-3.59
-4.74
-5.76
-6.44
-6.76
-6.85
-6.86
-6.84
-6.67
-6.18
-5.17
-3.58
-1.56
0.67
2.97
5.33
7.86
10.64
13.63
16.64
19.37
21.28
22
21.53
20.29
18.82
17.58
16.81
16.58
16.8
16.94
16.55
15.56
14.24
12.91
11.66
10.48
9.33
8.29
6.72
4.08
0.36
-3.9
-8.13
-12.08
-15.85
-19.77
-24.25
-30.6
-39.76
-51.65
-65.05
-78.41
-90.47
-100.57
-108.53
-108.5
-97.19
-76.11
-50.91
-27.09
-7.25
8.26
19.94
28.36
34.08
36.85
36.84
34.97
32.65
30.96
30.11
29.7
29.31
28.82
27.67
25.56
22.65
19.53
16.76
14.63
13.24
12.69
13.04
13.72
13.97
13.21
11.32
8.61
5.67
3.24
1.99
2.3
3.81
5.89
8.19
10.93
14.75
20.2
27.14
34.17
39.44
40.97
37.63
29.82
19.25
8.22
-1.26
-8.12
-12.34
-14.49
-15.39
-15.66
-15.61
-15.4
-15.2
-15.22
-15.69
-16.75
-18.25
-19.79
-20.97
-21.14
-19.96
-17.47
-14.06
-10.32
-6.85
-4.03
-1.98
-0.53
0.59
1.58
2.51
3.28
3.73
3.76
3.45
2.99
2.6
2.41
2.38
2.35
2.24
2.08
2.09
2.56
3.64
5.23
6.98
8.39
9.08
8.88
7.84
6.2
4.21
2.04
-0.15
-2.27
-4.17
-5.74
-6.94
-7.83
-8.63
-9.59
-10.93
-12.58
-14.36
-15.95
-17.03
-17.36
-16.88
-15.65
-13.89
-11.82
-9.63
-7.52
-5.61
-3.99
-2.72
-1.77
-1.09
-0.58
-0.17
0.22
0.54
0.73
0.75
0.6
0.38
0.17
0.04
-0.06
-0.21
-0.55
-1.1
-1.81
-2.58
-3.3
-3.88
-4.33
-4.71
-5.04
-5.26
-5.24
-4.83
-3.87
-2.38
-0.51
1.46
3.21
4.51
5.29
5.64
5.75
5.78
5.75
5.62
5.29
4.72
3.96
3.12
2.34
1.72
1.31
1.12
1.14
1.4
1.89
2.62
3.57
4.67
5.81
6.83
7.53
7.77
7.53
6.9
6.15
5.53
5.22
5.21
5.38
5.51
5.44
5.12
4.67
4.27
4.08
4.19
4.58
5.1
5.62
5.99
6.15
6.1
5.85
5.37
4.62
3.55
2.14
0.49
-1.26
-2.98
-4.62
-6.17
-7.61
-8.86
-9.69
-9.89
-9.32
-8.04
-6.26
-4.33
-2.52
-1.04
0.04
0.76
1.22
1.55
1.91
2.42
3.13
3.98
4.8
5.4
5.69
5.66
5.42
5.1
4.78
4.47
4.12
3.7
3.19
2.63
2.09
1.61
1.2
0.78
0.2
-0.68
-1.93
-3.52
-5.28
-7
-8.45
-9.59
-10.47
-11.25
-12.04
-12.88
-13.69
-14.34
-14.78
-15.04
-15.17
-15.18
-14.99
-14.41
-13.23
-11.36
-8.86
-5.93
-2.88
-0.01
2.49
4.49
6.01
7.08
7.8
8.25
8.51
8.63
8.67
8.68
8.7
8.74
8.79
8.86
8.91
8.91
8.84
8.66
8.43
8.17
7.96
7.82
7.76
7.75
7.75
7.78
7.9
8.18
8.62
9.2
9.8
10.29
10.53
10.43
9.93
9.06
7.96
6.87
6.02
5.59
5.62
5.94
6.31
6.47
6.26
5.66
4.71
3.46
2.01
0.44
-1.07
-2.36
-3.27
-3.73
-3.8
-3.61
-3.35
-3.17
-3.18
-3.43
-3.86
-4.34
-4.68
-4.7
-4.29
-3.49
-2.48
-1.49
-0.69
-0.14
0.23
0.55
0.91
1.32
1.74
2.14
2.5
2.8
3.01
3.08
2.95
2.62
2.09
1.43
0.66
-0.18
-1.05
-1.87
-2.52
-2.9
-2.96
-2.82
-2.65
-2.64
-2.88
-3.35
-4
-4.77
-5.67
-6.65
-7.58
-8.21
-8.24
-7.5
-5.98
-3.93
-1.69
0.39
2.1
3.37
4.14
4.44
4.28
3.78
3.12
2.52
2.2
2.34
2.95
3.91
5.01
5.97
6.59
6.78
6.59
6.23
6.1
6.52
7.61
9.21
10.98
12.58
13.8
14.63
15.3
16.31
17.99
20.32
22.92
25.33
27.23
28.49
29.13
29.26
29.43
29.95
30.71
31.23
31.13
30.35
29.14
27.88
26.97
27.37
29.53
33.03
36.79
39.83
41.65
42.28
42.05
41.43
41.78
43.9
47.51
51.4
54.27
55.12
53.25
48.05
33.59
8.17
-24.22
-55.92
-80.63
-95.88
-102.31
-102.1
-97.88
-92.07
-85.44
-78.37
-71.37
-65.23
-60.47
-57.21
-55.18
-53.94
-52.85
-50.44
-45.54
-37.93
-28.51
-18.81
-10.4
-4.6
-2.03
-2.49
-4.57
-6.69
-7.7
-7.27
-5.58
-3.05
-0.19
2.63
5.29
8.08
11.33
15.22
19.33
23.14
26.15
27.94
28.36
27.48
25.55
22.88
19.62
15.78
11.37
6.49
1.33
-3.67
-7.9
-10.64
-11.26
-9.54
-5.82
-1
3.75
7.28
8.97
8.91
7.71
6.27
5.26
4.94
5.18
5.61
5.75
5.39
4.57
3.55
2.62
1.96
1.56
1.19
1.24
1.65
2.19
2.54
2.33
1.19
-1.14
-4.76
-9.5
-15.01
-20.85
-26.56
-31.81
-36.43
-40.43
-43.89
-46.76
-48.84
-49.72
-49.08
-46.73
-42.75
-37.49
-31.47
-25.29
-19.5
-14.5
-10.52
-7.73
-6.08
-5.44
-5.48
-5.84
-6.15
-6.11
-5.51
-4.11
-1.71
1.87
6.76
13.01
20.49
28.7
36.77
43.74
48.81
51.46
51.5
49.07
44.75
39.36
33.56
27.72
21.9
15.95
9.55
2.32
-5.98
-14.88
-23.31
-30.25
-35.01
-37.29
-37.05
-34.5
-30.08
-24.37
-17.56
-9.47
-0.19
9.95
20.69
32.07
44.19
56.88
66.83
70.09
65.09
53.47
38.31
22.24
7.12
-5.92
-16.37
-24.24
-30.19
-33.91
-35.37
-34.93
-33.28
-31.11
-29.03
-27.52
-26.79
-26.57
-25.12
-21.78
-16.72
-10.63
-4.44
1
5.12
7.73
9.27
10.61
12.19
14.03
15.77
16.88
16.9
15.57
12.99
9.65
6.28
3.29
0.78
-1.46
-3.8
-6.58
-10.03
-14.08
-18.43
-22.55
-26.04
-28.66
-30.31
-31.09
-31.17
-30.82
-30.37
-30.14
-30.38
-31.16
-32.21
-32.89
-32.35
-29.77
-24.69
-17.15
-7.79
2.43
12.44
21.35
28.56
33.8
36.97
38.13
37.45
35.18
31.67
27.35
22.75
18.32
14.44
11.16
8.39
6.11
4.44
3.7
4.36
6.81
11.05
16.69
22.9
28.89
34.25
38.93
43.03
46.69
49.67
51.25
50.57
46.65
39.11
28.39
15.51
2.03
-10.05
-18.99
-24.58
-26.54
-26.31
-26.92
-30.84
-37.94
-45.06
-47.87
-43.31
-30.91
-12.8
7.2
25.75
41.43
52.99
57.69
54.81
45.86
33.54
20.16
6.86
-5.53
-16.22
-24.71
-30.88
-34.87
-37.24
-38.75
-40.09
-42.22
-45.01
-48.05
-50.94
-53.22
-54.22
-53.44
-50.67
-45.99
-39.72
-32.2
-23.94
-15.57
-7.57
-0.28
5.84
10.58
14.09
16.86
19.54
22.5
25.71
28.81
31.36
33
33.57
33.11
31.8
29.84
27.4
24.57
21.46
18.15
14.7
11.18
7.7
4.46
1.8
0.24
0.46
3.12
8.63
17
27.72
39.81
51.87
62.11
68.89
71.12
68.38
60.95
49.64
35.7
20.66
6.17
-6.78
-17.56
-25.97
-32.3
-37.25
-41.6
-45.81
-49.57
-52.04
-53.04
-52.64
-51.18
-49.12
-46.87
-44.76
-43.35
-43.11
-43.28
-44.73
-48.21
-52.92
-56.57
-56.72
-52.16
-43.48
-32.94
-20.37
-5.99
9.86
26.58
43.17
58.35
71.22
77.17
74.07
63.32
48.58
34.25
23.38
16.79
13.55
11.6
8.83
4.47
-0.97
-6.69
-11.68
-15.16
-17.25
-18.47
-19.53
-20.99
-22.39
-22.83
-21.81
-19.44
-16.33
-13.32
-11.04
-9.72
-9.12
-8.74
-7.97
-6.72
-5.37
-4.44
-4.34
-5
-6
-6.73
-6.51
-4.87
-1.91
1.8
5.52
8.54
10.52
11.44
11.55
11.18
10.61
9.91
8.94
7.48
5.42
2.8
-0.17
-3.2
-5.97
-8.25
-9.91
-10.94
-11.47
-11.66
-11.71
-11.76
-11.9
-12.14
-12.42
-12.58
-12.5
-12.06
-11.25
-10.18
-9
-7.86
-6.83
-5.89
-4.94
-3.92
-2.8
-1.63
-0.43
0.84
2.31
4.05
6.08
8.26
10.37
12.22
13.69
14.77
15.54
16.07
16.38
16.49
16.4
16.11
15.66
15.05
14.28
13.33
12.18
10.89
9.55
8.29
7.24
6.5
6.1
6.03
6.21
6.5
6.73
6.71
6.32
5.5
4.38
3.16
2.13
1.53
1.47
1.86
2.45
2.89
2.88
2.25
1
-0.66
-2.43
-4.03
-5.2
-5.83
-5.89
-5.48
-4.79
-4.1
-3.7
-3.84
-4.68
-6.17
-8.15
-10.3
-12.31
-13.86
-14.72
-14.8
-14.15
-12.96
-11.48
-9.96
-8.55
-7.26
-6.02
-4.71
-3.35
-2.07
-1.08
-0.56
-0.54
-0.8
-1.04
-0.97
-0.45
0.46
1.57
2.68
3.66
4.52
5.34
6.22
7.2
8.3
9.5
10.78
12.13
13.48
14.66
15.37
15.24
13.98
11.55
8.23
4.58
1.24
-1.27
-2.77
-3.35
-3.22
-2.59
-1.46
0.25
2.62
5.5
8.56
11.27
13.16
13.8
12.84
10.02
5.3
-0.98
-7.92
-14.21
-18.47
-19.68
-17.69
-13.18
-7.42
-1.75
2.86
5.96
7.55
7.83
7
5.24
2.81
0.03
-2.63
-4.76
-6.13
-6.84
-7.24
-7.78
-8.85
-10.53
-12.57
-14.53
-15.9
-16.37
-15.91
-14.75
-13.27
-11.81
-10.61
-9.72
-9.03
-8.4
-7.63
-6.56
-5.12
-3.3
-1.18
1.09
3.38
5.54
7.51
9.26
10.83
12.25
13.56
14.72
15.69
16.38
16.76
16.87
16.78
16.6
16.42
16.23
15.98
15.66
15.29
15
14.91
15.06
15.37
15.66
15.68
15.26
14.36
13.12
11.74
10.42
9.28
8.29
7.36
6.39
5.31
4.14
2.92
1.73
0.62
-0.39
-1.28
-2.04
-2.65
-3.1
-3.37
-3.44
-3.23
-2.67
-1.64
-0.08
2.01
4.55
7.37
10.25
12.9
15.06
16.47
17.01
16.68
15.64
14.11
12.33
10.45
8.51
6.53
4.47
2.31
0.05
-2.27
-4.61
-6.89
-8.98
-10.76
-12.11
-13
-13.46
-13.57
-13.46
-13.24
-13.02
-12.88
-12.85
-12.91
-12.94
-12.83
-12.47
-11.9
-11.25
-10.74
-10.54
-10.7
-11.18
-11.81
-12.41
-12.85
-13.04
-12.91
-12.46
-11.71
-10.7
-9.5
-8.18
-6.8
-5.41
-4.05
-2.75
-1.62
-0.73
-0.17
0.09
0.1
0.01
-0.04
0.06
0.34
0.78
1.3
1.81
2.26
2.7
3.22
3.91
4.81
5.86
6.87
7.64
7.97
7.79
7.14
6.21
5.21
4.33
3.69
3.29
3.08
2.97
2.93
2.95
3
3.03
2.9
2.45
1.6
0.37
-1.04
-2.35
-3.33
-3.81
-3.85
-3.59
-3.24
-2.93
-2.7
-2.52
-2.31
-2.02
-1.62
-1.1
-0.45
0.31
1.17
2.04
2.82
3.4
3.72
3.84
3.9
4.05
4.41
5
5.77
6.59
7.34
7.91
8.2
8.14
7.76
7.14
6.44
5.88
5.61
5.67
5.95
6.26
6.41
6.33
6.06
5.75
5.52
5.46
5.54
5.66
5.7
5.58
5.18
4.47
3.39
1.97
0.29
-1.51
-3.22
-4.69
-5.84
-6.68
-7.25
-7.56
-7.59
-7.34
-6.79
-6.02
-5.13
-4.21
-3.3
-2.37
-1.36
-0.26
0.85
1.79
2.38
2.49
2.07
1.2
0.01
-1.29
-2.48
-3.35
-3.75
-3.6
-2.93
-1.87
-0.61
0.67
1.88
2.97
3.92
4.71
5.27
5.53
5.46
5.08
4.5
3.88
3.37
3.1
3.18
3.65
4.45
5.47
6.51
7.4
8.03
8.39
8.58
8.68
8.66
8.4
7.75
6.63
5.11
3.39
1.74
0.34
-0.75
-1.57
-2.18
-2.63
-2.88
-2.87
-2.59
-2.11
-1.57
-1.12
-0.87
-0.82
-0.87
-0.9
-0.86
-0.75
-0.68
-0.76
-1.01
-1.34
-1.6
-1.62
-1.36
-0.93
-0.5
-0.23
-0.22
-0.42
-0.72
-1.02
-1.28
-1.52
-1.79
-2.11
-2.42
-2.65
-2.73
-2.66
-2.5
-2.35
-2.31
-2.4
-2.6
-2.85
-3.06
-3.18
-3.23
-3.28
-3.4
-3.61
-3.91
-4.23
-4.51
-4.67
-4.7
-4.55
-4.23
-3.74
-3.11
-2.4
-1.7
-1.11
-0.67
-0.39
-0.2
-0.05
0.08
0.17
0.18
0.12
-0.02
-0.17
-0.32
-0.43
-0.53
-0.6
-0.64
-0.62
-0.53
-0.35
-0.14
0.06
0.21
0.28
0.3
0.3
0.33
0.4
0.52
0.68
0.83
0.95
1.03
1.08
1.09
1.01
0.77
0.35
-0.27
-1.02
-1.77
-2.4
-2.79
-2.91
-2.74
-2.34
-1.72
-0.93
-0.02
0.9
1.68
2.13
2.16
1.71
0.92
-0.05
-1
-1.79
-2.32
-2.55
-2.47
-2.06
-1.31
-0.29
0.84
1.89
2.68
3.12
3.25
3.18
3.04
2.88
2.65
2.24
1.58
0.7
-0.28
-1.21
-2.01
-2.64
-3.16
-3.57
-3.84
-3.86
-3.6
-3.09
-2.5
-1.99
-1.67
-1.51
-1.42
-1.27
-1.04
-0.84
-0.81
-1.02
-1.45
-1.91
-2.2
-2.2
-1.94
-1.54
-1.17
-0.92
-0.73
-0.47
-0
0.69
1.53
2.31
2.85
3.07
3.01
2.77
2.49
2.23
2.03
1.85
1.69
1.55
1.45
1.42
1.47
1.53
1.54
1.49
1.37
1.27
1.23
1.26
1.32
1.3
1.1
0.7
0.15
-0.47
-1.07
-1.6
-2.04
-2.35
-2.5
-2.49
-2.38
-2.24
-2.18
-2.28
-2.49
-2.71
-2.85
-2.84
-2.69
-2.45
-2.15
-1.8
-1.4
-0.98
-0.55
-0.16
0.18
0.44
0.63
0.73
0.7
0.54
0.29
0.07
-0.01
0.09
0.33
0.55
0.64
0.53
0.28
-0.01
-0.25
-0.36
-0.33
-0.17
0.08
0.34
0.52
0.54
0.33
-0.06
-0.52
-0.91
-1.17
-1.32
-1.47
-1.71
-2.05
-2.42
-2.65
-2.66
-2.45
-2.15
-1.96
-2.02
-2.39
-2.92
-3.42
-3.67
-3.6
-3.3
-2.94
-2.67
-2.5
-2.3
-1.89
-1.14
-0.12
0.97
1.82
2.24
2.2
1.87
1.47
1.21
1.17
1.32
1.55
1.72
1.78
1.69
1.52
1.33
1.25
1.34
1.61
2.01
2.4
2.66
2.7
2.53
2.24
1.96
1.76
1.68
1.68
1.69
1.66
1.52
1.25
0.84
0.29
-0.35
-1.06
-1.75
-2.35
-2.79
-3.04
-3.09
-2.98
-2.77
-2.52
-2.29
-2.08
-1.85
-1.53
-1.06
-0.46
0.17
0.69
1
1.08
1.01
0.89
0.83
0.89
1.06
1.32
1.63
1.89
1.99
1.85
1.41
0.72
-0.06
-0.71
-1.08
-1.1
-0.85
-0.48
-0.11
0.17
0.35
0.46
0.53
0.56
0.54
0.46
0.32
0.14
-0.08
-0.34
-0.64
-0.98
-1.35
-1.72
-2.07
-2.34
-2.53
-2.6
-2.57
-2.48
-2.41
-2.43
-2.56
-2.76
-2.93
-2.91
-2.6
-1.98
-1.11
-0.16
0.7
1.36
1.79
2.04
2.14
2.12
1.97
1.71
1.36
1.04
0.86
0.9
1.16
1.57
2
2.37
2.61
2.73
2.76
2.7
2.55
2.3
1.94
1.53
1.18
0.96
0.96
1.19
1.6
2.11
2.64
3.11
3.45
3.57
3.35
2.73
1.68
0.28
-1.3
-2.84
-4.2
-5.31
-6.17
-6.78
-7.12
-7.11
-6.73
-6.02
-5.1
-4.16
-3.33
-2.64
-2.06
-1.45
-0.75
0.04
0.83
1.53
2.16
2.85
3.83
5.29
7.28
9.66
12.15
14.51
16.64
18.58
20.36
21.84
22.59
22.1
20
16.27
11.41
6.15
1.27
-2.75
-5.65
-7.37
-7.81
-6.8
-4.27
-0.4
4.24
8.78
12.29
14.07
13.89
11.99
8.91
5.26
1.55
-1.88
-4.8
-7.04
-8.51
-9.09
-8.73
-7.41
-5.22
-2.24
1.48
5.89
10.89
16.2
21.3
25.49
28.02
28.08
25.24
19.71
12.39
4.61
-2.3
-7.3
-9.9
-10.23
-9.35
-8.43
-8.22
-8.73
-9.42
-9.61
-8.79
-6.78
-3.82
-1.16
-0.09
-1.28
-4.55
-9.2
-14.47
-19.84
-25.01
-29.92
-35.54
-42.77
-51.77
-61.83
-72.01
-81.65
-90.62
-99.07
-101.6
-94.53
-77.93
-55.97
-33.71
-14.38
0.84
12
19.81
25.31
28.79
30.46
30.82
30.6
30.18
29.48
28.31
26.95
26.32
27.03
29.41
33.76
39.91
46.76
52.56
55.52
54.57
49.77
41.67
31.46
20.77
11.42
4.55
0.54
-1.06
-1.32
-1.56
-3.39
-8.2
-16.88
-27.43
-37.19
-43.39
-44.78
-42.01
-36.92
-31.39
-26.63
-22.88
-19.72
-16.93
-14.61
-13.09
-12.55
-12.65
-12.59
-11.45
-8.6
-3.98
1.62
7
11.06
13.22
13.67
12.99
11.82
10.62
9.68
9.03
8.67
8.82
9.83
12.06
15.58
20.02
24.22
27.23
28.28
27.17
24.19
20.06
15.59
11.45
8.02
5.35
3.37
1.94
0.93
0.28
0.02
0.17
0.76
1.8
3.25
5.03
6.95
8.65
9.74
9.93
9.15
7.65
5.81
3.99
2.35
0.79
-0.93
-2.96
-5.24
-7.54
-9.59
-11.25
-12.64
-14.04
-15.64
-17.42
-19.03
-19.98
-19.85
-18.71
-16.71
-14.37
-12.17
-10.33
-8.72
-6.9
-4.48
-1.41
1.89
4.7
6.28
6.29
4.96
2.96
1
-0.48
-1.54
-2.55
-3.81
-5.33
-6.64
-7.12
-6.25
-4
-0.83
2.59
5.62
7.91
9.44
10.36
10.84
10.99
10.84
10.43
9.85
9.29
8.93
8.91
9.24
9.83
10.45
10.84
10.73
10.02
8.74
7.04
5.11
3.09
1.06
-1
-3.08
-5.15
-7.15
-8.8
-9.93
-10.47
-10.53
-10.35
-10.25
-10.54
-11.39
-12.8
-14.55
-16.28
-17.66
-18.4
-18.39
-17.62
-16.18
-14.14
-11.6
-8.7
-5.63
-2.67
-0.04
2.08
3.64
4.69
5.32
5.61
5.58
5.24
4.61
3.72
2.63
1.43
0.18
-1.06
-2.23
-3.25
-4.04
-4.48
-4.49
-4.01
-3.06
-1.82
-0.56
0.42
0.86
0.65
-0.13
-1.25
-2.4
-3.29
-3.74
-3.71
-3.25
-2.53
-1.71
-0.91
-0.2
0.44
1.04
1.64
2.22
2.73
3.05
3.07
2.72
1.98
0.92
-0.3
-1.5
-2.48
-3.11
-3.28
-3.02
-2.39
-1.56
-0.73
-0.14
-0.04
-0.55
-1.66
-3.22
-4.93
-6.46
-7.55
-8.07
-8.01
-7.51
-6.73
-5.9
-5.21
-4.85
-4.89
-5.28
-5.85
-6.35
-6.55
-6.37
-5.85
-5.13
-4.34
-3.55
-2.75
-1.91
-1.03
-0.17
0.61
1.3
1.93
2.56
3.23
3.87
4.38
4.66
4.66
4.45
4.14
3.85
3.62
3.45
3.27
3.02
2.65
2.17
1.58
0.88
0.06
-0.91
-1.96
-2.98
-3.8
-4.2
-4.06
-3.4
-2.35
-1.16
-0.07
0.78
1.32
1.58
1.65
1.61
1.5
1.36
1.19
0.98
0.77
0.61
0.65
1.01
1.78
2.93
4.26
5.49
6.32
6.61
6.41
5.94
5.47
5.17
5.07
5.07
5.03
4.89
4.74
4.73
5.02
5.64
6.51
7.42
8.2
8.74
9
9.02
8.85
8.55
8.24
8.06
8.24
8.99
10.42
12.38
14.42
15.94
16.32
15.19
12.55
8.8
4.57
0.6
-2.48
-4.23
-4.37
-2.88
0.13
4.31
9.06
13.6
17.06
18.68
18.03
15.1
10.32
4.43
-1.79
-7.62
-12.54
-16.25
-18.66
-19.84
-20.05
-19.7
-19.3
-19.32
-20.06
-21.58
-23.66
-25.91
-27.9
-29.2
-29.48
-28.59
-26.49
-23.35
-19.41
-14.96
-10.3
-5.7
-1.35
2.58
6.06
9.1
11.83
14.39
16.83
19.06
20.87
21.99
22.23
21.6
20.3
18.63
16.9
15.39
14.24
13.47
13.02
12.74
12.46
12.08
11.54
10.88
10.15
9.38
8.55
7.64
6.64
5.65
4.82
4.31
4.23
4.57
5.2
5.87
6.32
6.31
5.7
4.48
2.84
1.09
-0.39
-1.3
-1.47
-0.91
0.24
1.74
3.33
4.75
5.75
6.21
6.15
5.74
5.3
5.16
5.51
6.38
7.57
8.77
9.69
10.11
9.95
9.27
8.22
6.93
5.52
4.07
2.61
1.24
0.05
-0.82
-1.27
-1.32
-1.05
-0.64
-0.26
-0.05
-0.14
-0.64
-1.63
-3.18
-5.22
-7.53
-9.75
-11.49
-12.47
-12.62
-12.05
-10.98
-9.65
-8.31
-7.12
-6.25
-5.77
-5.61
-5.56
-5.23
-4.29
-2.54
-0.09
2.73
5.47
7.77
9.46
10.62
11.41
12.01
12.5
12.86
12.98
12.82
12.36
11.66
10.83
9.94
9
7.98
6.83
5.53
4.18
2.9
1.84
1.08
0.61
0.32
0.1
-0.16
-0.46
-0.78
-1.08
-1.37
-1.68
-2.08
-2.59
-3.22
-3.94
-4.67
-5.33
-5.85
-6.19
-6.4
-6.55
-6.78
-7.14
-7.67
-8.31
-8.97
-9.52
-9.91
-10.07
-9.97
-9.58
-8.86
-7.81
-6.5
-5.03
-3.54
-2.15
-0.92
0.15
1.09
1.92
2.66
3.25
3.67
3.88
3.94
3.95
4.02
4.22
4.55
4.92
5.23
5.37
5.32
5.11
4.83
4.51
4.19
3.81
3.31
2.64
1.79
0.86
-0.03
-0.77
-1.28
-1.59
-1.77
-1.91
-2.05
-2.21
-2.38
-2.56
-2.78
-3.08
-3.49
-4.03
-4.66
-5.33
-5.92
-6.32
-6.4
-6.09
-5.38
-4.35
-3.13
-1.88
-0.69
0.37
1.28
2.06
2.72
3.24
3.62
3.84
3.92
3.88
3.77
3.67
3.66
3.82
4.17
4.64
5.1
5.4
5.43
5.17
4.67
4.04
3.39
2.77
2.19
1.66
1.21
0.88
0.65
0.48
0.28
-0.06
-0.57
-1.24
-2
-2.78
-3.5
-4.13
-4.68
-5.18
-5.72
-6.37
-7.18
-8.09
-8.96
-9.57
-9.71
-9.3
-8.39
-7.17
-5.85
-4.54
-3.28
-2.05
-0.81
0.46
1.68
2.77
3.64
4.25
4.58
4.64
4.48
4.16
3.78
3.45
3.22
3.1
3.07
3.08
3.1
3.15
3.22
3.28
3.29
3.17
2.92
2.55
2.13
1.7
1.22
0.64
-0.1
-0.95
-1.77
-2.38
-2.69
-2.75
-2.8
-3.15
-4.03
-5.51
-7.45
-9.54
-11.44
-12.88
-13.73
-13.98
-13.69
-13.01
-12.06
-11.07
-10.24
-9.76
-9.63
-9.6
-9.14
-7.61
-4.5
0.31
6.43
13.06
19.16
23.85
26.54
27.16
26.02
23.75
21.05
18.54
16.64
15.54
15.16
15.26
15.51
15.61
15.39
14.79
13.91
12.89
11.9
11.04
10.32
9.66
8.94
8.03
6.87
5.53
4.12
2.86
1.95
1.51
1.55
1.94
2.43
2.75
2.65
1.96
0.6
-1.35
-3.7
-6.12
-8.21
-9.64
-10.26
-10.26
-10.09
-10.33
-11.43
-13.52
-16.32
-19.3
-21.95
-24
-25.64
-27.46
-30.28
-34.82
-41.4
-49.83
-59.3
-68.55
-75.94
-79.78
-78.64
-71.7
-59.12
-42.05
-22.43
-2.53
15.69
30.93
42.67
51.05
56.55
59.75
61.28
61.78
61.92
62.25
63.06
64.3
65.63
66.6
66.94
66.66
66.06
65.54
65.46
65.94
66.83
67.82
68.63
69.15
69.6
70.44
72.27
75.54
80.31
86
91.41
94.8
94.37
88.65
77.08
60.24
39.8
18.15
-2.12
-18.91
-31.14
-38.8
-42.76
-44.34
-44.84
-45.31
-46.39
-48.36
-51.23
-54.86
-58.93
-63.05
-66.79
-69.78
-72.01
-73.59
-74.73
-75.62
-76.44
-77.36
-78.46
-79.79
-81.21
-82.8
-84.38
-85.39
-85.2
-83.47
-80.38
-76.46
-72.43
-68.78
-66.42
-65.6
-65.77
-65.84
-64.89
-62.6
-58.98
-54.36
-49
-44.23
-41
-39.33
-38.49
-37.76
-36.87
-35.83
-35.13
-35.51
-39.32
-48.07
-61.26
-76.22
-89.47
-98.02
-99.96
-95.11
-75.5
-40.06
4
44.91
74.38
91.19
98.19
101.48
105.04
110.68
116.91
121.75
123.82
122.64
118.1
109.87
97.84
82.11
63.84
44.03
24.65
8.3
-2.7
-7.6
-7.55
-4.62
-0.83
2.92
6.22
9.59
14.03
20.28
28.11
36.25
43.14
47.62
49.52
49.11
47.11
44.17
40.59
36.23
30.7
23.8
15.66
6.74
-2.47
-11.38
-19.2
-24.89
-27.38
-25.99
-20.77
-12.76
-3.71
4.42
10.09
12.57
12
9.13
4.86
-0.05
-5.13
-10.08
-14.63
-18.48
-21.34
-23.12
-23.96
-24.21
-24.29
-24.43
-24.71
-24.98
-25.06
-24.82
-24.27
-23.53
-22.75
-22.05
-21.51
-21.25
-21.38
-22.02
-23.22
-24.97
-27.18
-29.64
-32.19
-34.72
-37.28
-40
-42.89
-45.78
-48.17
-49.35
-48.5
-44.93
-38.19
-28.3
-15.58
-0.58
16
33.24
50.02
65.1
77.29
85.68
89.73
89.66
86.43
81.32
75.51
69.65
63.92
58.22
52.53
46.83
41.34
36.41
32.07
27.81
22.73
16.04
7.56
-2.19
-12.52
-22.42
-30.81
-36.91
-40.5
-41.99
-42.37
-43.12
-43.71
-44.9
-48.45
-55.56
-65.27
-74.59
-79.93
-78.76
-70.38
-55.86
-37.65
-18.29
0.34
16.82
31.09
42.72
51.01
55.56
56.6
54.89
51.84
49.26
48.95
50.44
53.82
58.27
61.7
61.45
55.33
42.88
25.68
6.76
-10.66
-24.85
-34.87
-40.58
-42.35
-40.79
-36.5
-30.19
-22.77
-15.38
-8.97
-4.3
-1.2
0.47
1.08
1.17
1.16
1.27
1.47
1.69
1.82
1.7
1.15
0.11
-1.4
-3.32
-5.51
-7.8
-9.97
-11.83
-13.33
-14.53
-15.4
-15.83
-15.72
-15.05
-13.99
-12.89
-12.16
-12.08
-12.67
-13.73
-14.9
-15.99
-17.01
-18.16
-19.62
-21.33
-23.01
-24.26
-24.81
-24.65
-24.13
-23.73
-23.87
-24.6
-25.62
-26.4
-26.42
-25.39
-23.35
-20.56
-17.3
-13.76
-9.95
-5.83
-1.5
2.77
6.55
9.4
11.05
11.52
11.08
10.16
9.2
8.44
7.99
7.76
7.58
7.28
6.77
6.05
5.21
4.37
3.58
2.82
2.02
1.14
0.21
-0.56
-0.93
-0.72
0.05
1.29
2.8
4.39
5.84
7.06
8.16
9.34
10.75
12.37
14.11
15.77
17.14
17.98
18.21
18.03
17.68
17.32
16.78
15.98
14.91
13.63
12.23
10.87
10.16
10.49
11.81
13.28
14.48
15.19
15.34
14.8
13.41
12.01
11.27
11.28
10.92
10.26
9.84
10.38
12.06
14.64
19.01
25.6
34.02
42.03
49.53
57.16
65.77
75.3
85.04
95.93
108.49
122.3
134.55
144.87
153.72
161.92
169.52
164.38
140.36
100.34
64.35
35.17
11.2
-12.61
-37.29
-62.41
-86.84
-107.65
-123.15
-133.44
-141.65
-148.36
-152.72
-152.89
-147.49
-136.14
-118.31
-95.16
-69.17
-44.77
-24.21
-8.39
1.01
2.72
-2.57
-11.18
-20.53
-29.22
-37.76
-45.33
-51.23
-55.13
-57.05
-57.18
-55.36
-51.75
-46.7
-41.27
-36.09
-31.68
-28.29
-25.8
-23.82
-21.82
-19.56
-17.01
-14.54
-12.53
-11.38
-11.33
-12.17
-13.3
-14.07
-14.01
-12.83
-10.45
-6.94
-2.52
2.57
8.12
13.86
19.38
24.27
28.31
31.58
34.31
36.67
38.68
40.15
40.8
40.36
38.65
35.68
31.65
26.87
21.77
16.81
12.36
8.61
5.49
2.73
0.04
-2.71
-5.45
-7.96
-10.01
-11.49
-12.48
-13.16
-13.74
-14.34
-15
-15.68
-16.34
-16.89
-17.25
-17.3
-16.99
-16.33
-15.54
-14.92
-14.73
-15.09
-15.82
-16.55
-16.85
-16.4
-15.08
-12.96
-10.23
-7.05
-3.52
0.28
4.21
8.01
11.37
13.94
15.52
16.02
15.58
14.39
12.75
10.89
9.01
7.26
5.71
4.43
3.4
2.55
1.78
0.98
0.08
-0.92
-1.91
-2.71
-3.09
-2.87
-1.97
-0.48
1.32
3.13
4.68
5.94
7.08
8.42
10.24
12.58
15.2
17.69
19.63
20.69
20.76
19.82
17.88
14.97
11.14
6.56
1.55
-3.61
-8.8
-14.11
-19.68
-25.32
-30.25
-33.11
-32.38
-26.94
-16.68
-2.62
13.4
29.32
43.47
54.93
63.48
69.37
73.07
75.06
75.73
75.43
74.4
72.81
70.57
67.25
62.03
53.9
42.12
26.75
9.07
-8.63
-23.66
-33.83
-38.27
-37.59
-33.45
-27.76
-21.97
-16.77
-12.21
-8.04
-3.99
0.08
4.23
8.55
13.23
18.47
24.38
30.84
37.45
43.6
48.55
51.68
52.74
51.9
49.73
46.9
43.86
40.72
37.28
33.18
28.23
22.55
16.6
11.03
6.47
3.35
1.76
1.5
2.17
3.35
4.65
5.74
6.33
6.14
4.92
2.58
-0.76
-4.66
-8.55
-11.9
-14.45
-16.31
-17.87
-19.62
-21.9
-24.79
-28.15
-31.74
-35.43
-39.2
-43.1
-47.11
-51.02
-54.44
-56.94
-58.2
-58.27
-57.53
-56.59
-55.95
-55.68
-55.31
-53.96
-50.71
-45.01
-36.94
-27.18
-16.83
-7.07
1.1
7.01
10.32
11.06
9.5
6.12
1.58
-3.41
-8.14
-12.06
-14.86
-16.53
-17.38
-17.88
-18.35
-18.82
-18.86
-17.78
-14.97
-10.23
-4.01
2.73
8.86
13.46
16.07
16.69
15.66
13.37
10.13
6.19
1.75
-2.96
-7.69
-12.2
-16.43
-20.4
-24.23
-27.95
-31.43
-34.35
-36.31
-37.05
-36.48
-34.8
-32.32
-29.31
-25.97
-22.32
-18.36
-14.12
-9.81
-5.75
-2.36
0.01
1.15
1.06
-0.05
-1.82
-3.82
-5.68
-7.14
-8.05
-8.37
-8.01
-6.78
-4.32
-0.14
6.29
15.31
26.98
40.88
56.11
71.26
84.63
94.55
99.77
99.82
95.09
86.64
75.81
63.85
51.68
39.88
28.82
18.85
10.27
3.24
-2.32
-6.77
-10.55
-13.97
-17.05
-19.55
-21.18
-21.79
-21.54
-20.78
-19.9
-19.14
-18.55
-18.06
-17.63
-17.31
-17.22
-17.48
-18.15
-19.24
-20.83
-23.09
-26.13
-29.83
-33.71
-36.95
-38.7
-38.34
-35.85
-31.65
-26.48
-20.99
-15.57
-10.27
-4.96
0.51
6.11
11.6
16.55
20.46
22.92
23.67
22.73
20.36
16.89
12.67
7.96
2.98
-2.03
-6.73
-10.78
-13.93
-16.14
-17.63
-18.7
-19.53
-20.09
-20.16
-19.51
-18.07
-15.98
-13.51
-11
-8.67
-6.64
-4.9
-3.45
-2.28
-1.36
-0.63
0.03
0.73
1.57
2.58
3.71
4.94
6.2
7.51
8.91
10.43
12.05
13.64
14.95
15.73
15.78
15.04
13.62
11.72
9.56
7.35
5.25
3.36
1.75
0.38
-0.86
-2.09
-3.43
-4.89
-6.35
-7.6
-8.44
-8.79
-8.64
-8.12
-7.36
-6.56
-5.9
-5.53
-5.51
-5.8
-6.17
-6.35
-6.09
-5.26
-3.92
-2.26
-0.48
1.26
2.87
4.32
5.51
6.31
6.59
6.25
5.33
3.93
2.15
0.05
-2.35
-5.04
-7.91
-10.73
-13.19
-14.98
-15.92
-15.99
-15.35
-14.29
-13.18
-12.39
-12.27
-12.99
-14.36
-15.68
-15.8
-13.32
-7.06
3.53
18.08
35.22
52.94
68.93
81.17
88.31
89.9
86.37
78.85
68.82
57.74
46.83
36.85
28.21
20.94
14.81
9.45
4.41
-0.62
-5.77
-10.83
-15.4
-18.99
-21.22
-22
-21.54
-20.27
-18.69
-17.18
-15.89
-14.76
-13.61
-12.26
-10.65
-8.88
-7.18
-5.76
-4.78
-4.23
-4
-3.98
-4.11
-4.46
-5.16
-6.38
-8.2
-10.64
-13.65
-17.18
-21.24
-25.78
-30.72
-35.88
-40.94
-45.56
-49.45
-52.41
-54.19
-54.35
-52.26
-47.23
-38.8
-27.12
-13.06
1.87
16.03
28
37.01
42.91
46.08
47.03
46.22
43.98
40.56
36.28
31.51
26.64
21.92
17.43
13.04
8.59
4
-0.6
-4.9
-8.6
-11.54
-13.81
-15.67
-17.44
-19.29
-21.19
-22.92
-24.15
-24.57
-23.97
-22.32
-19.8
-16.8
-13.82
-11.23
-9.09
-7.04
-4.52
-1
3.54
8.49
12.78
15.27
15.31
12.95
8.92
4.21
-0.32
-4.22
-7.42
-10
-11.96
-13.12
-13.23
-12.11
-9.85
-6.82
-3.6
-0.77
1.22
2.14
1.96
0.78
-1.19
-3.65
-6.23
-8.44
-9.78
-9.87
-8.56
-6.02
-2.7
0.74
3.66
5.5
5.91
4.74
2.07
-1.82
-6.44
-11.21
-15.52
-18.87
-20.98
-21.82
-21.57
-20.48
-18.79
-16.64
-14.12
-11.27
-8.13
-4.8
-1.41
1.96
5.25
8.42
11.45
14.28
16.88
19.19
21.18
22.82
24.12
25.1
25.73
25.99
25.9
25.48
24.85
24.13
23.37
22.41
20.84
18.06
13.66
7.74
1.13
-4.71
-8.17
-8.05
-4.15
2.69
10.85
18.44
23.87
26.21
25.17
21.01
14.33
5.92
-3.32
-12.42
-20.56
-27.07
-31.59
-34.08
-34.73
-33.87
-31.84
-28.91
-25.23
-20.91
-16.07
-10.87
-5.55
-0.38
4.34
8.33
11.36
13.29
14.18
14.26
13.89
13.54
