13.89
11.57
8.7
5.66
2.86
0.73
-0.47
-0.55
0.55
2.77
5.91
9.59
13.37
16.69
19.11
20.17
19.75
17.91
14.86
10.88
6.28
1.28
-4.02
-9.52
-15.22
-20.93
-26.38
-31.29
-35.33
-38.26
-39.99
-40.61
-40.36
-39.55
-38.37
-36.98
-35.4
-33.62
-31.68
-29.61
-27.5
-25.3
-22.8
-19.94
-16.92
-14.29
-12.94
-13.85
-17.34
-22.93
-29.34
-34.93
-38.28
-38.68
-36.1
-30.86
-23.46
-14.3
-3.81
7.13
17.29
25.25
30.04
31.24
29.23
24.7
18.41
10.92
2.68
-5.81
-13.84
-20.5
-25
-26.94
-26.33
-23.57
-19.36
-14.39
-9.1
-3.92
0.95
5.46
9.49
12.78
15.1
16.29
16.36
15.61
14.5
13.45
12.8
12.68
13.05
13.66
14.37
14.97
15.3
15.36
15.15
14.72
14.23
13.83
13.64
13.79
14.33
15.25
16.54
17.97
19.37
20.41
20.92
20.83
20.23
19.35
18.47
17.8
17.37
17.21
17.17
17.11
16.96
16.59
15.99
15.1
13.96
12.51
10.79
8.85
6.62
4.18
1.52
-1.21
-3.92
-6.56
-9.2
-11.84
-14.5
-17.11
-19.51
-21.66
-23.41
-24.78
-25.75
-26.3
-26.31
-25.67
-24.31
-22.24
-19.74
-17.16
-14.82
-12.97
-11.65
-10.84
-10.29
-9.83
-9.23
-8.45
-7.52
-6.44
-5.29
-4.13
-3.08
-2.26
-1.83
-1.88
-2.46
-3.52
-4.91
-6.4
-7.8
-9.01
-9.99
-10.72
-11.24
-11.64
-11.96
-12.21
-12.43
-12.65
-12.84
-13.04
-13.24
-13.42
-13.55
-13.68
-13.92
-14.33
-14.94
-15.73
-16.54
-17.26
-17.71
-17.83
-17.55
-16.79
-15.48
-13.57
-11.17
-8.53
-6.06
-4.02
-2.6
-1.78
-1.39
-1.27
-1.4
-1.83
-2.58
-3.65
-4.82
-5.88
-6.62
-6.99
-7.05
-6.99
-6.95
-6.95
-7.02
-7.1
-7.13
-7.16
-7.16
-7.1
-6.96
-6.65
-6.18
-5.6
-5.05
-4.58
-4.31
-4.13
-4.13
-4.27
-4.43
-4.65
-4.97
-5.36
-5.81
-6.38
-7.01
-7.66
-8.2
-8.48
-8.3
-7.54
-6.16
-4.17
-1.81
0.72
3.2
5.45
7.41
9.05
10.44
11.62
12.69
13.62
14.36
14.85
15.03
14.87
14.28
13.42
12.31
11.09
9.84
8.64
7.53
6.53
5.69
5
4.46
4.07
3.79
3.56
3.31
2.96
2.37
1.61
0.74
-0.07
-0.76
-1.3
-1.81
-2.35
-2.97
-3.73
-4.55
-5.33
-6.01
-6.67
-7.37
-8.16
-9.05
-9.89
-10.47
-10.53
-9.81
-8.2
-5.82
-2.89
0.24
3.3
5.94
8.05
9.55
10.42
10.7
10.61
10.26
9.85
9.52
9.3
9.13
8.89
8.41
7.69
6.84
6
5.23
4.57
3.92
3.26
2.58
1.96
1.46
1.09
0.76
0.34
-0.2
-0.79
-1.32
-1.76
-2.21
-2.79
-3.67
-4.87
-6.18
-7.28
-7.96
-8.08
-7.77
-7.3
-6.95
-6.89
-7.23
-7.83
-8.43
-8.74
-8.48
-7.38
-5.31
-2.32
1.28
4.96
8.2
10.65
12.18
12.99
13.37
13.64
14
14.41
14.76
14.92
14.91
14.82
14.87
15.19
15.76
16.4
16.88
16.87
16.18
14.8
12.85
10.63
8.36
6.31
4.49
2.93
1.59
0.46
-0.52
-1.39
-2.09
-2.73
-3.29
-3.75
-4.16
-4.48
-4.77
-5.18
-5.78
-6.54
-7.35
-8.05
-8.38
-8.26
-7.62
-6.39
-4.57
-2.29
0.33
3.02
5.5
7.53
9.06
10.21
11.12
12.03
13
13.93
14.58
14.84
14.6
13.82
12.75
11.5
10.2
8.97
7.85
6.72
5.59
4.46
3.29
2.15
1.11
0.22
-0.42
-0.74
-0.75
-0.45
0.1
0.71
1.31
1.88
2.41
2.89
3.4
3.8
3.92
3.61
2.67
1.16
-0.74
-2.63
-4.04
-4.65
-4.21
-2.73
-0.45
2.18
4.73
6.77
8
8.36
7.99
7.2
6.32
5.6
5.12
4.78
4.39
3.79
3.01
2.11
1.34
0.83
0.67
0.73
0.9
0.93
0.74
0.33
-0.26
-0.88
-1.49
-2.05
-2.47
-2.66
-2.55
-2.1
-1.36
-0.53
0.21
0.75
1.08
1.37
1.8
2.47
3.39
4.46
5.49
6.42
7.18
7.78
8.3
8.84
9.55
10.49
11.82
13.55
15.69
18.02
20.28
22.2
23.53
24.09
23.89
22.94
21.31
19.14
16.5
13.52
10.41
7.38
4.59
2.19
0.2
-1.38
-2.52
-3.27
-3.58
-3.51
-3.12
-2.5
-1.84
-1.21
-0.66
-0.18
0.27
0.62
0.79
0.75
0.57
0.31
0.05
-0.25
-0.66
-1.26
-2.09
-3.1
-4.21
-5.28
-6.23
-7.1
-7.9
-8.69
-9.45
-10.19
-10.93
-11.68
-12.33
-12.86
-13.21
-13.36
-13.51
-13.69
-14.13
-14.96
-16.18
-17.72
-19.37
-20.97
-22.44
-23.95
-25.64
-27.84
-30.72
-34.17
-37.97
-41.68
-44.92
-47.54
-49.86
-52.34
-55.6
-60.13
-65.92
-72.6
-79.4
-85.51
-90.32
-93.9
-96.71
-99.67
-103.61
-108.69
-114.41
-119.47
-122.25
-121.21
-115.53
-105.15
-90.9
-74.38
-57.5
-42.13
-29.47
-19.49
-10.84
-1.15
11.67
28.35
47.5
65.96
79.92
86.64
85.56
78.32
67.93
57.51
49.22
44.05
42.17
43.39
47.37
53.62
61.19
68.65
74.47
77.37
76.88
73.41
68.1
62.42
57.6
54.3
52.35
51.11
49.67
47.35
43.87
39.66
35.43
31.98
29.95
29.41
30.16
31.57
32.94
33.7
33.51
32.34
30.3
27.86
25.32
23.05
21.27
20.03
19.28
18.86
18.71
18.66
18.84
19.38
20.47
22.35
25.14
28.88
33.33
38.17
42.81
46.76
49.62
51.13
51.26
50.08
47.82
44.69
41.08
37.24
33.41
29.67
25.99
22.38
18.77
15.1
11.26
7.23
2.94
-1.62
-6.4
-11.37
-16.32
-21.09
-25.5
-29.39
-32.76
-35.61
-38.12
-40.45
-42.89
-45.59
-48.55
-51.69
-54.77
-57.59
-60.16
-62.42
-64.53
-66.75
-69.23
-72.16
-75.46
-78.91
-82.06
-84.48
-85.6
-85.07
-82.9
-79.42
-75.19
-70.86
-66.9
-63.42
-60.14
-56.61
-52.24
-46.45
-39.14
-30.37
-20.6
-10.36
-0.22
9.45
18.32
26.18
32.82
38.03
41.48
42.99
42.65
40.86
38.25
35.29
32.32
29.35
26.18
22.51
18.24
13.37
7.86
1.57
-5.86
-14.72
-24.91
-36.07
-47.49
-58.45
-68.61
-77.95
-86.68
-95.09
-103.08
-110.1
-115.41
-118.09
-117.49
-113.45
-106.15
-96.38
-85.45
-74.77
-65.12
-56.4
-47.71
-38.01
-26.82
-14.1
-0.64
12.23
23.19
31.78
38.51
44.82
52.5
63.1
78.09
97.53
119.64
140.95
157.53
166.08
165.3
156.2
142.08
129.31
123.11
125.2
133.16
142.32
147.86
146.24
135.84
117.08
95.45
75.95
60.32
47.16
35.19
25.04
18.74
18.26
24.21
41.32
70.84
108.23
144.83
173.46
191.61
200.34
202.42
200.89
206.35
226.81
263.36
310.83
363.5
418.58
475.08
532.03
538.62
466.71
328.84
168.71
24.24
-89.26
-172.79
-233.66
-279.83
-317.53
-342.68
-351.24
-344.43
-328.63
-311.79
-298.22
-289.29
-284.8
-283.82
-279.26
-265.89
-244.14
-219.51
-197.82
-181.8
-171.48
-166.21
-164.47
-160.89
-151.66
-136.71
-119.37
-103.39
-90.57
-81.17
-74.48
-69.39
-62.95
-53.26
-40.5
-26.73
-14.33
-4.6
2.14
6.25
8.48
10.15
12.22
14.86
17.65
20.14
22.27
24.11
25.91
27.81
29.9
32.31
35.17
38.64
42.73
47.45
52.44
57.3
61.62
64.89
66.74
67.08
66.06
64.07
61.56
58.89
56.3
53.84
51.48
49.07
46.43
43.37
39.7
35.01
28.79
20.61
10.26
-2.12
-15.92
-30.24
-44.01
-56.22
-66.2
-73.53
-77.98
-79.4
-77.99
-74.28
-69.06
-63.23
-57.33
-51.42
-45.14
-38.14
-30.51
-23.09
-17.34
-14.72
-16.12
-21.46
-29.75
-39.4
-48.73
-56.16
-60.43
-60.5
-55.56
-45.12
-29.03
-7.55
18.7
48.94
82.3
117.71
153.58
187.64
217.01
238.87
251.05
252.56
244.09
227.92
207.01
184.37
162.35
142.53
125.89
112.56
101.92
92.89
84.33
75.06
64.09
50.78
35.07
17.72
-0.48
-19.05
-37.75
-56.36
-75.03
-94.33
-115.18
-139.44
-164.88
-186.62
-200.33
-204.6
-200.36
-189.84
-175.62
-160.19
-145.44
-132.16
-120.2
-109
-97.68
-85.07
-70.53
-54.51
-37.85
-22.11
-8.68
1.84
9.13
13.61
16.57
19.91
25.81
36.38
53.1
73.11
94.14
112.78
125.11
128.08
120.44
103.01
78.4
50.22
22.15
-2.52
-22.05
-36.42
-46.55
-53.86
-59.63
-64.56
-68.85
-72.83
-75.62
-76.78
-76.07
-73.41
-68.68
-62.09
-54.06
-45.4
-37.06
-29.67
-23.8
-19.67
-17.16
-15.79
-15.02
-14.31
-13.44
-12.41
-11.25
-9.98
-8.61
-7.53
-6.74
-6.2
-5.81
-5.4
-4.83
-3.93
-2.75
-1.47
-0.3
0.61
1.41
2.18
3.17
4.5
6.24
8.25
10.43
12.66
14.91
17.35
19.92
22.54
24.95
26.76
27.52
26.96
24.98
21.82
17.76
13.1
8.14
3.06
-2.03
-6.98
-11.65
-15.87
-19.52
-22.33
-24.25
-25.21
-25.23
-24.46
-23.02
-21.07
-18.82
-16.49
-14.13
-11.88
-9.74
-7.58
-5.36
-2.96
-0.34
2.5
5.5
8.67
11.99
15.37
18.83
22.25
25.49
28.37
30.67
32.18
32.74
32.17
30.4
27.53
23.68
19.15
14.18
9.04
3.98
-0.8
-5.12
-8.71
-11.35
-12.86
-13.17
-12.35
-10.63
-8.3
-5.64
-2.93
-0.36
1.98
4.05
5.87
7.43
8.7
9.64
10.15
10.19
9.68
8.66
7.17
5.45
3.68
2.11
0.95
0.24
-0.07
-0.17
-0.26
-0.43
-0.58
-0.52
0.05
1.19
2.88
4.91
7
8.91
10.43
11.46
11.97
12.02
11.72
11.17
10.54
9.85
9.01
8.05
6.9
5.72
4.65
3.87
3.35
3.03
2.77
2.51
2.28
2.19
2.33
2.61
2.88
2.92
2.65
2.05
1.28
0.49
-0.25
-0.89
-1.48
-2.01
-2.46
-2.77
-2.88
-2.76
-2.33
-1.61
-0.65
0.56
1.84
3.13
4.33
5.35
6.04
6.36
6.18
5.47
4.37
3
1.61
0.43
-0.38
-0.82
-1.03
-1.24
-1.68
-2.4
-3.34
-4.32
-5.06
-5.28
-4.71
-3.14
-0.44
3.3
7.92
13.02
18.14
22.84
26.76
29.73
31.63
32.37
31.81
29.93
26.62
21.89
15.81
8.58
0.66
-7.36
-14.85
-21.31
-26.22
-29.16
-29.82
-28.16
-24.29
-18.64
-11.76
-4.4
2.67
8.83
13.47
16.18
16.59
14.36
9.18
0.93
-10.21
-23.69
-38.49
-53.29
-66.73
-77.59
-84.93
-88.2
-87.11
-81.53
-71.48
-57.19
-39.07
-17.77
5.76
30.19
53.91
75.29
93.04
106.28
114.82
118.99
119.46
116.98
112.19
105.66
97.86
89.34
80.54
71.92
63.61
55.51
47.29
38.37
28.24
16.3
2.18
-14.38
-33.39
-54.6
-77.3
-100.25
-121.63
-139.25
-151.08
-155.84
-153.43
-144.83
-131.49
-114.73
-94.94
-71.71
-44.26
-12.56
21.88
56.18
87.12
112.21
130.42
142.28
149.43
153.88
156.88
158.55
158.24
155.52
150.33
142.8
132.9
120.53
105.49
87.34
65.31
38.9
8.69
-24.55
-60.26
-98.54
-140.18
-183.77
-223.89
-253.52
-267.81
-265.09
-246.88
-215.96
-176.02
-131.24
-85.54
-42.25
-3.9
28.66
56.73
80.5
99.81
114.57
125.13
132.41
137.06
139.08
131.72
114.62
89.8
60.82
31.46
5.03
-16.07
-30.79
-40.11
-45.44
-46.99
-45.4
-41.28
-35.32
-28.26
-20.89
-14.34
-9.89
-8.69
-10.17
-14.05
-19.53
-25.58
-31.12
-35.31
-37.82
-38.64
-37.83
-35.1
-30.66
-24.99
-18.98
-13.52
-9.33
-6.9
-6.2
-6.98
-8.78
-11.46
-14.92
-19.15
-23.84
-28.47
-32.42
-35.2
-36.5
-36.39
-35.42
-34.21
-33.38
-33.29
-34.13
-35.75
-37.71
-38.98
-38.33
-34.55
-26.92
-15.65
-1.81
12.93
27.06
39.53
50.12
59.02
66.52
72.46
76.3
77.45
75.64
71.25
65.19
58.52
52.06
46.08
40.56
35.21
29.94
25.04
20.98
18.07
16.31
15.3
14.31
12.76
10.3
7.09
3.6
0.4
-2.21
-4.14
-5.61
-6.9
-8.13
-9.32
-10.33
-11.08
-11.59
-12
-12.36
-12.73
-13.11
-13.45
-13.7
-13.84
-13.83
-13.66
-13.34
-12.76
-11.94
-10.82
-9.34
-7.45
-5.18
-2.56
0.22
2.91
5.26
6.93
7.76
7.74
6.92
5.48
3.64
1.58
-0.56
-2.65
-4.65
-6.46
-7.93
-8.92
-9.31
-9.08
-8.37
-7.5
-6.76
-6.53
-6.94
-8.04
-9.67
-11.66
-13.73
-15.66
-17.34
-18.58
-19.31
-19.3
-18.41
-16.53
-13.6
-9.74
-5.22
-0.45
4.31
8.71
12.55
15.69
17.97
19.25
19.42
18.44
16.35
13.44
10
6.35
2.8
-0.52
-3.43
-5.87
-7.75
-9.09
-9.79
-9.9
-9.5
-8.65
-7.53
-6.25
-4.88
-3.39
-1.86
-0.3
1.21
2.56
3.68
4.44
4.79
4.68
4.11
3.13
1.78
0.15
-1.6
-3.33
-4.94
-6.24
-7.17
-7.66
-7.68
-7.39
-6.87
-6.2
-5.36
-4.28
-2.9
-1.31
0.34
1.81
2.9
3.54
3.71
3.49
3.02
2.38
1.61
0.76
-0.14
-1.04
-1.88
-2.63
-3.26
-3.72
-4.04
-4.2
-4.16
-3.92
-3.56
-3.07
-2.5
-1.9
-1.27
-0.75
-0.44
-0.39
-0.67
-1.18
-1.78
-2.37
-2.8
-3.04
-3.18
-3.23
-3.22
-3.13
-2.91
-2.4
-1.74
-0.97
-0.27
0.25
0.6
0.86
1.12
1.46
1.9
2.31
2.67
2.89
2.99
3.04
3.04
2.94
2.69
2.3
1.81
1.37
1.04
0.84
0.74
0.58
0.31
-0.09
-0.53
-0.86
-0.93
-0.8
-0.61
-0.43
-0.41
-0.49
-0.65
-0.79
-0.94
-1.09
-1.31
-1.6
-1.9
-2.18
-2.27
-2.17
-1.93
-1.62
-1.38
-1.36
-1.51
-1.79
-2.11
-2.32
-2.34
-2.22
-2.04
-1.95
-2.04
-2.28
-2.62
-2.96
-3.21
-3.28
-3.09
-2.65
-1.97
-1.14
-0.33
0.32
0.73
0.98
1.12
1.31
1.65
2.06
2.49
2.83
2.99
2.94
2.81
2.52
2.14
1.73
1.26
0.79
0.37
-0.01
-0.4
-0.82
-1.37
-1.99
-2.61
-3.09
-3.28
-3.15
-2.75
-2.17
-1.49
-0.83
-0.23
0.18
0.42
0.48
0.43
0.34
0.31
0.45
0.82
1.44
2.25
3.13
3.94
4.53
4.72
4.42
3.62
2.39
0.99
-0.34
-1.38
-2.05
-2.44
-2.69
-2.93
-3.24
-3.58
-3.78
-3.73
-3.36
-2.66
-1.72
-0.62
0.45
1.38
1.99
2.25
2.31
2.27
2.3
2.5
2.79
3.02
3.02
2.61
1.8
0.73
-0.42
-1.42
-2.1
-2.41
-2.41
-2.17
-1.72
-1.09
-0.32
0.5
1.23
1.69
1.78
1.48
0.87
0.09
-0.68
-1.35
-1.88
-2.27
-2.48
-2.54
-2.42
-2.14
-1.7
-1.12
-0.43
0.32
1.04
1.67
2.08
2.28
2.26
2.04
1.67
1.23
0.82
0.49
0.34
0.36
0.55
0.91
1.37
1.89
2.38
2.76
2.99
3.09
3.06
2.96
2.91
2.89
3.01
3.28
3.65
4.04
4.34
4.46
4.38
4.22
4
3.82
3.63
3.39
3
2.48
1.81
1.07
0.36
-0.31
-0.79
-1.11
-1.28
-1.42
-1.61
-1.91
-2.25
-2.52
-2.66
-2.6
-2.34
-2
-1.59
-1.22
-0.94
-0.76
-0.64
-0.5
-0.27
0.08
0.38
0.48
0.18
-0.46
-1.24
-1.89
-2.27
-2.28
-2.03
-1.7
-1.32
-0.98
-0.67
-0.36
-0.14
-0.12
-0.39
-0.97
-1.75
-2.55
-3.15
-3.4
-3.3
-2.97
-2.6
-2.33
-2.21
-2.22
-2.22
-2.11
-1.84
-1.48
-1.11
-0.81
-0.66
-0.68
-0.74
-0.75
-0.7
-0.6
-0.51
-0.48
-0.33
0
0.57
1.32
2.14
2.85
3.28
3.43
3.44
3.4
3.35
3.19
2.83
2.22
1.32
0.23
-0.85
-1.87
-2.83
-3.86
-5.06
-6.46
-7.98
-9.42
-10.51
-11.04
-10.89
-9.98
-8.33
-6
-3.1
0.04
3.12
5.8
7.82
9.13
9.82
10.05
9.92
9.42
8.48
7.05
5.16
2.94
0.6
-1.62
-3.58
-5.23
-6.48
-7.19
-7.23
-6.52
-5.08
-3.16
-1.06
0.83
2.25
3.09
3.41
3.42
3.28
3.11
2.96
2.78
2.57
2.32
2.01
1.64
1.18
0.67
0.17
-0.28
-0.64
-0.92
-1.14
-1.45
-1.89
-2.55
-3.4
-4.33
-5.24
-6.02
-6.55
-6.79
-6.72
-6.31
-5.61
-4.71
-3.7
-2.64
-1.61
-0.55
0.45
1.38
2.2
2.88
3.44
3.97
4.51
5.05
5.48
5.64
5.55
5.32
5.14
5.16
5.42
5.88
6.37
6.8
7.07
7.14
7.01
6.66
6.07
5.32
4.51
3.79
3.3
3.03
2.93
2.86
2.7
2.44
2.07
1.59
0.98
0.3
-0.41
-1.03
-1.51
-1.81
-1.89
-1.79
-1.55
-1.18
-0.73
-0.27
0.09
0.26
0.26
0.14
0.06
0.2
0.63
1.32
2.16
3.05
3.87
4.53
5.04
5.37
5.6
5.82
6.05
6.29
6.57
6.88
7.22
7.68
8.18
8.68
9.16
9.53
9.76
9.86
9.78
9.42
8.65
7.31
5.34
2.81
-0
-2.8
-5.36
-7.51
-9.25
-10.57
-11.54
-12.17
-12.49
-12.53
-12.41
-12.21
-11.9
-11.31
-10.22
-8.45
-6.03
-3.32
-0.87
0.78
1.35
0.82
-0.5
-2.14
-3.67
-4.76
-5.28
-5.29
-4.99
-4.6
-4.28
-4.1
-4.05
-4.01
-3.94
-3.79
-3.63
-3.49
-3.43
-3.35
-3.13
-2.67
-1.93
-1.03
-0.13
0.6
1.14
1.51
1.84
2.18
2.52
2.78
2.9
2.88
2.83
2.81
2.93
3.17
3.5
3.93
4.49
5.27
6.36
7.87
9.78
12.12
14.73
17.49
20.17
22.67
24.86
26.63
27.97
28.71
28.72
27.92
26.27
23.84
20.81
17.43
13.88
10.34
6.88
3.53
0.31
-2.7
-5.4
-7.65
-9.26
-10.13
-10.19
-9.57
-8.55
-7.47
-6.59
-5.96
-5.39
-4.46
-2.76
-0.06
3.46
7.38
11.13
14.17
16.19
17.12
16.99
15.98
14.27
12.07
9.52
6.8
3.97
1
-2.12
-5.44
-8.89
-12.2
-15.02
-16.95
-17.67
-17.06
-15.27
-12.58
-9.42
-6.23
-3.32
-0.9
0.97
2.32
3.26
4.04
4.98
6.38
8.41
11.03
13.99
16.93
19.43
21.18
21.92
21.54
19.91
17.08
13.2
8.5
3.27
-2.19
-7.64
-12.96
-18.01
-22.67
-26.72
-29.83
-31.7
-32.22
-31.43
-29.65
-27.28
-24.69
-22.08
-19.42
-16.48
-13.17
-9.57
-6.06
-3.22
-1.57
-1.36
-2.51
-4.71
-7.44
-10.28
-12.94
-15.26
-17.07
-18.24
-18.55
-17.86
-16.19
-13.67
-10.63
-7.41
-4.43
-2
-0.29
0.74
1.29
1.61
1.79
1.88
1.86
1.55
0.91
-0.01
-1.15
-2.4
-3.8
-5.41
-7.34
-9.58
-11.91
-13.97
-15.5
-16.17
-15.87
-14.72
-12.9
-10.73
-8.49
-6.36
-4.41
-2.66
-1.12
0.22
1.31
2.08
2.5
2.52
2.25
1.81
1.26
0.7
0.23
-0.09
-0.13
0.19
0.82
1.72
2.78
3.85
4.89
5.87
6.76
7.64
8.45
9.11
9.65
10.05
10.36
10.7
11.09
11.55
12.05
12.46
12.71
12.69
12.45
12
11.44
10.85
10.29
9.82
9.34
8.86
8.42
8.03
7.72
7.57
7.62
7.81
8.18
8.73
9.36
9.9
10.09
9.76
8.89
7.65
6.26
5.03
4.05
3.29
2.59
1.74
0.68
-0.57
-1.84
-3
-3.89
-4.48
-4.87
-5.18
-5.55
-5.97
-6.42
-6.87
-7.22
-7.43
-7.51
-7.61
-7.78
-8.12
-8.61
-9.15
-9.56
-9.6
-9.17
-8.25
-7.08
-5.89
-5.01
-4.63
-4.77
-5.32
-6.08
-6.86
-7.53
-8
-8.28
-8.41
-8.42
-8.28
-7.97
-7.43
-6.63
-5.59
-4.34
-3.11
-2.02
-1.25
-0.85
-0.75
-0.79
-0.83
-0.72
-0.51
-0.31
-0.19
-0.25
-0.49
-0.84
-1.13
-1.29
-1.29
-1.12
-0.9
-0.69
-0.54
-0.45
-0.39
-0.3
-0.21
-0.09
0.06
0.27
0.54
0.87
1.23
1.64
2.09
2.52
2.86
3
2.83
2.32
1.5
0.56
-0.32
-0.91
-1.02
-0.6
0.27
1.33
2.37
3.1
3.36
3.08
2.31
1.28
0.22
-0.63
-1.21
-1.48
-1.7
-2.1
-2.91
-4.08
-5.42
-6.61
-7.39
-7.68
-7.48
-6.84
-5.78
-4.27
-2.28
0.18
2.95
5.91
8.92
11.93
14.99
18.16
21.54
25.16
29.13
33.5
38.36
43.69
49.33
54.98
60.32
65.04
68.86
71.63
73.17
73.45
72.45
70.34
67.42
64.02
60.44
56.81
53.03
48.84
43.93
37.98
30.72
21.93
11.38
-1
-15.08
-30.36
-45.98
-60.9
-74.08
-84.8
-92.61
-97.39
-99.06
-97.53
-92.58
-84.22
-72.78
-59.15
-44.72
-30.92
-19.09
-9.9
-3.42
0.95
4.1
7
10.34
14.37
18.99
23.77
28.3
32.34
35.9
39.22
42.7
46.58
50.85
55.13
58.74
60.87
60.77
57.73
51.21
41.16
27.94
12.37
-4.28
-20.77
-35.98
-49.29
-60.58
-70.1
-78.16
-84.83
-89.83
-92.55
-92.34
-88.72
-81.61
-71.41
-59.06
-45.73
-32.78
-21.47
-12.85
-7.69
-6.34
-8.7
-14.09
-21.46
-29.62
-37.47
-44.24
-49.62
-53.85
-57.31
-60.31
-62.91
-64.71
-65.14
-63.59
-59.66
-53.31
-44.85
-34.68
-23.32
-11.18
1.38
14.05
26.67
39.26
52.08
65.24
78.67
91.6
102.71
110.42
113.4
111.08
103.79
92.92
80.41
68.21
57.62
49.11
42.35
36.53
30.57
23.55
14.84
4.24
-7.99
-21.62
-36.12
-50.66
-64.08
-75.21
-83.14
-87.34
-87.72
-84.6
-79.38
-73.43
-67.29
-60.62
-52.7
-43.12
-31.96
-19.66
-6.87
3.99
10.84
13.4
13.18
12.52
13.21
16.19
21.53
28.67
33.71
33.05
25.68
13.35
-1.16
-15.9
-30.1
-44.1
-58.54
-77.89
-105.84
-142.38
-184.2
-227.1
-268.69
-308.39
-346.72
-360.83
-335.34
-271.34
-186.47
-101.54
-28.49
29.62
75.38
112.9
146.3
174.55
195.75
210.63
223.02
236.78
252.47
269.36
285.77
301.09
312.31
310.36
294.03
265.25
226.58
178.31
124.48
65.68
5.08
-55
-112.54
-165.23
-211.71
-238.53
-241.29
-221.14
-183.52
-134.59
-81.53
-30.74
14
51.01
80.54
101.77
116.24
125.16
129.71
130.19
126.6
119.76
110.75
101.11
90.77
80.08
69.15
58.32
47.65
37.42
28.36
21.03
15.82
11.89
8.69
5.61
2.43
-0.88
-4.3
-7.59
-10.49
-12.65
-14.29
-15.53
-16.54
-17.48
-18.29
-19
-19.53
-19.72
-19.44
-18.74
-17.73
-16.63
-15.65
-14.94
-14.52
-14.34
-14.21
-13.94
-13.38
-12.47
-11.21
-9.68
-7.91
-6.03
-4.01
-1.87
0.41
2.77
5.13
7.37
9.44
11.45
13.6
16.2
19.5
23.48
27.99
32.67
37.02
40.59
43.07
44.3
44.28
43.12
41.02
38.28
35.33
32.46
29.87
27.49
25
22.04
18.36
13.92
8.92
3.66
-1.6
-6.71
-11.58
-16.16
-20.38
-24.08
-27.3
-30.11
-32.75
-35.48
-38.35
-41.31
-44.31
-47.24
-50.07
-52.8
-55.24
-57.1
-58.06
-57.95
-56.76
-54.73
-52.15
-49.32
-46.33
-43.19
-39.79
-36.21
-32.59
-29.16
-26.08
-23.38
-20.94
-18.59
-16.14
-13.51
-10.81
-8.09
-5.48
-2.92
-0.31
2.41
5.21
8.02
10.67
13.02
15.03
16.66
17.83
18.51
18.71
18.44
17.87
17.22
16.66
16.28
15.97
15.38
14.23
12.24
9.32
5.53
1.19
-3.35
-7.65
-11.26
-13.78
-14.99
-14.98
-14.25
-13.51
-13.57
-14.95
-17.7
-21.41
-25.35
-28.62
-30.57
-30.86
-29.42
-26.4
-22.15
-17.11
-11.75
-6.57
-1.94
1.92
4.88
7.02
8.36
8.94
8.72
7.76
6.15
3.94
1.11
-2.4
-6.49
-10.86
-14.99
-18.24
-20.08
-20.37
-19.5
-18.3
-17.51
-17.49
-18.27
-19.6
-21.43
-23.79
-26.95
-31.17
-36.57
-42.44
-47.51
-50.72
-51.77
-51.19
-49.97
-49.25
-50.03
-53.28
-58.65
-64.72
-70.08
-74.15
-77.11
-79.6
-82.41
-86.31
-92.45
-100.29
-107.97
-113.92
-117.85
-120.3
-121.82
-122.55
-122.15
-120.72
-116.61
-107.02
-89.88
-64.69
-31.73
8.9
57.05
118.1
184.37
240.46
275.07
287.28
282.91
268.97
251.2
233.02
215.06
195.98
175.92
156.75
140.27
126.38
113.09
97.53
77.13
50.38
17.19
-18.82
-52.22
-78.62
-96.78
-108.16
-115.23
-116.27
-113.18
-107.38
-98.97
-87.84
-74.42
-59.62
-43.86
-26.76
-8.2
10.52
27.64
41.5
51.24
57.31
60.98
63.81
67.29
71
73.42
73.34
70.29
64.63
57.22
49.11
41.12
33.76
27.19
21.28
16.06
11.61
7.97
5.19
3.35
2.4
2.26
2.79
3.83
5.37
7.33
9.46
11.58
13.37
14.46
14.63
13.75
11.99
9.87
7.92
6.39
5.36
4.69
4.14
3.45
2.52
1.36
0.17
-0.86
-1.62
-2.14
-2.58
-3.16
-4.14
-5.66
-7.87
-10.72
-14.09
-17.83
-21.75
-25.69
-29.43
-32.75
-35.51
-37.73
-39.45
-40.83
-42.05
-43.12
-44.15
-45.14
-46.01
-46.67
-46.95
-46.61
-45.3
-42.7
-38.65
-33.31
-27.04
-20.42
-13.99
-8.14
-3.16
0.89
4.05
6.36
7.86
8.59
8.6
8.12
7.42
6.8
6.51
6.65
7.19
7.89
8.48
8.75
8.56
7.92
6.94
5.7
4.22
2.55
0.63
-1.52
-3.85
-6.19
-8.43
-10.5
-12.38
-14.17
-16
-17.96
-20.07
-22.31
-24.66
-27.1
-29.54
-31.78
-33.58
-34.44
-34
-31.96
-28.32
-23.32
-17.46
-11.3
-5.34
0.02
4.66
8.61
11.88
14.57
16.61
17.95
18.59
18.69
18.42
18.1
18.01
18.23
18.7
19.17
19.34
18.98
18.17
17.1
16.08
15.34
14.94
14.83
14.79
14.74
14.72
14.81
15.2
15.94
16.9
17.81
18.45
18.67
18.52
18.29
18.19
18.39
18.94
19.73
20.58
21.47
22.55
24.03
26.12
28.7
31.42
33.87
35.67
36.52
36.41
35.52
34.04
32.18
30.02
27.66
25.07
22.37
19.66
17.05
14.65
12.56
10.86
9.43
8.19
7.03
5.83
4.68
3.67
2.85
2.23
1.76
1.32
0.8
0.15
-0.71
-1.72
-2.7
-3.71
-4.7
-5.77
-7.08
-8.7
-10.65
-12.9
-15.31
-17.67
-19.67
-21
-21.31
-20.32
-17.88
-14.18
-9.67
-4.87
-0.41
3.31
6.24
8.44
10.16
11.57
12.73
13.51
13.81
13.58
12.83
11.75
10.51
9.17
7.84
6.5
5.11
3.66
2.17
0.7
-0.58
-1.53
-2.18
-2.55
-2.81
-3.02
-3.32
-3.73
-4.26
-4.94
-5.86
-7.04
-8.56
-10.42
-12.49
-14.63
-16.7
-18.62
-20.31
-21.79
-23.03
-24.02
-24.66
-24.74
-23.98
-22.18
-19.21
-15.13
-10.16
-4.68
0.83
5.96
10.36
13.86
16.45
18.21
19.27
19.74
19.73
19.36
18.65
17.71
16.62
15.53
14.53
13.73
13.21
12.97
12.94
12.96
12.9
12.6
12.07
11.25
10.14
8.76
7.08
5.09
2.89
0.74
-1.02
-2
-1.94
-0.89
0.96
3.17
5.26
6.8
7.48
7.11
5.61
3.1
-0.15
-3.63
-6.73
-8.87
-9.68
-9.17
-7.69
-5.68
-3.64
-1.93
-0.61
0.39
1.19
1.95
2.68
3.35
3.85
4.09
4.03
3.68
3.14
2.45
1.74
1.04
0.41
-0.15
-0.64
-1.08
-1.47
-1.84
-2.17
-2.48
-2.8
-3.17
-3.65
-4.23
-4.84
-5.34
-5.68
-5.77
-5.58
-5.21
-4.7
-4.03
-3.34
-2.77
-2.46
-2.5
-2.86
-3.35
-3.5
-2.97
-1.47
1.02
4.17
7.52
10.56
12.9
14.29
14.8
14.72
14.27
13.71
13.11
12.41
11.64
10.69
9.51
8.14
6.71
5.31
4.03
2.95
2.03
1.16
0.16
-1.18
-2.94
-5.1
-7.46
-9.78
-11.8
-13.31
-14.26
-14.79
-15.02
-15.06
-14.94
-14.72
-14.33
-13.85
-13.35
-12.88
-12.53
-12.3
-12.19
-12.24
-12.42
-12.55
-12.29
-11.34
-9.43
-6.49
-2.87
0.98
4.44
7.04
8.61
9.22
9.06
8.41
7.54
6.6
5.7
4.91
4.36
4.17
4.34
4.7
5.1
5.34
5.3
4.96
4.38
3.7
2.97
2.17
1.12
-0.22
-1.95
-3.98
-6.21
-8.45
-10.59
-12.53
-14.21
-15.69
-16.94
-17.98
-18.9
-19.7
-20.39
-20.86
-21.02
-20.81
-20.31
-19.57
-18.69
-17.61
-16.16
-14.11
-11.41
-8.22
-4.75
-1.43
1.48
3.77
5.36
6.32
6.71
6.63
6.1
5.35
4.52
3.88
3.7
4.01
4.76
5.78
6.83
7.72
8.46
9.1
9.69
10.32
10.91
11.28
11.24
10.7
9.68
8.4
7.06
5.91
5.17
4.84
4.8
4.86
4.77
4.31
3.45
2.19
0.77
-0.51
-1.38
-1.58
-1.02
0.18
1.75
3.23
4.08
3.96
2.82
0.86
-1.42
-3.58
-5.42
-6.95
-8.27
-9.55
-10.81
-11.9
-12.71
-13.07
-12.98
-12.6
-12.04
-11.41
-10.89
-10.5
-10.14
-9.61
-8.7
-7.37
-5.67
-3.73
-1.85
-0.48
0.2
0.44
0.56
0.72
0.75
0.23
-1.36
-4.43
-9.57
-16.61
-24.69
-33.03
-41.34
-49.91
-59.62
-70.92
-83.94
-98.8
-114.27
-128.01
-137.78
-142.2
-141
-135.03
-125.34
-113.29
-100.8
-88.38
-74.96
-58.94
-39.2
-15.28
12.25
42.93
80.22
119.88
152.97
172.15
175.32
164.57
146.95
125.41
102.51
80.4
59.29
38.86
19.02
-0.34
-19.28
-36.97
-51.92
-62.2
-67.44
-70.54
-75.39
-84.75
-98.89
-115.24
-129.35
-137.04
-135.89
-126.22
-111.06
-93.54
-75.25
-56.2
-35.71
-13.37
9.96
32.67
52.77
68.62
79.84
87.25
92.04
95.09
96.71
96.61
94.49
90.11
83.49
75.03
65.59
56.07
47.25
39.56
32.91
26.97
21.34
15.81
10.44
5.68
2.05
-0.05
-0.54
0.41
2.66
6.19
11.29
18.44
28.05
40.32
54.92
71.09
87.65
103.31
116.91
127.33
133.93
136.56
135.68
132.02
126.42
119.6
112.23
104.39
95.61
85.44
73.86
61.33
48.64
36.88
26.95
19.78
15.45
13.01
11.12
8.85
5.99
2.88
0.3
-1.22
-1.37
-0.82
-1.63
-6.27
-16.5
-33.06
-55.54
-82.46
-115.01
-148.36
-172.93
-181.53
-173.66
-153.97
-128.92
-104.41
-83.73
-67.6
-55.57
-46.15
-38.7
-33.46
-30.92
-30.55
-32.84
-36.2
-38.62
-37.89
-30.77
-15.52
7.47
36.17
68.18
101.38
134.62
167.16
187.79
189.81
174.41
148.99
120.46
92.03
64.16
36.39
7.68
-23.35
-55.5
-87.82
-119.67
-151.88
-182.8
-209.04
-227.11
-235.23
-233.7
-221.35
-198.64
-168.22
-134.18
-99.72
-65.69
-33.61
-4.21
23.11
52.96
88.79
130.45
174.14
214.65
247.92
272.36
289.51
288.41
266.6
228.79
182.36
131.79
78.69
25.04
-25.29
-67.41
-98.15
-115.61
-122.93
-125.01
-126.53
-129.66
-133.68
-136.13
-134.56
-128.18
-116.37
-99.54
-80.28
-61.78
-45.88
-32.81
-21.81
-12.34
-4.6
1.78
6.88
10.69
13.48
16.05
19.31
23.7
28.85
33.63
37.35
39.66
40.55
40.56
40.61
41.7
44.48
49.05
54.97
61.83
69.15
76.38
82.84
87.79
90.49
89.91
85.26
76.08
62.83
46.74
29.51
12.8
-2.06
-14.43
-24.39
-32.52
-39.44
-45.27
-49.6
-51.95
-52.25
-50.85
-48.73
-47.18
-47.26
-49.13
-51.82
-53.51
-51.91
-45.73
-34.75
-20.08
-3.65
12.62
26.94
37.89
44.79
49.08
50.86
50.56
48.8
45.91
41.15
32.8
18.86
-1.76
-30.26
-64.97
-100.58
-129.59
-144.84
-142.06
-121.17
-85.2
-38.25
14.23
67.18
116.72
159.19
190.16
204.85
199.96
176.3
139.33
94.89
48.21
2.63
-41.14
-84.84
-130.99
-181.08
-233.63
-274.47
-290.15
-275.63
-237.59
-187.53
-134.06
-81.05
-30.28
15.41
57.87
94.58
122.01
138.23
144.29
143.4
139.58
133.37
126.75
121.73
117.59
113.02
107.16
100.33
93.47
87.3
81.86
77.42
74.29
71.3
67.32
61.82
55.24
48.23
41.19
33.96
26.25
17.93
8.15
-3.76
-18.01
-33.98
-50.52
-66.56
-81.5
-95.26
-107.74
-119.18
-129.82
-139.83
-149.05
-157.03
-163.32
-167.75
-170.73
-172.03
-171.28
-168.4
-163.78
-157.84
-150.74
-142.11
-131.32
-118.27
-101.81
-80.61
-53.93
-22.28
13
50.61
89.75
130.71
167.33
193.04
205.6
206.16
196.32
176.6
147.81
112.2
74.19
34.16
-6.49
-45.43
-80.85
-111.55
-137.18
-157.25
-171.84
-176.94
-167.16
-143.46
-111.6
-79.48
-52.45
-31.98
-17.21
-2.17
17.86
44.59
78.66
121.71
172.66
229.52
280.24
311.28
314.17
289.23
243.09
184.6
122.69
64.29
14.29
-25.32
-53.78
-71.24
-79.44
-81.19
-80.29
-77.54
-73.1
-66.79
-59.04
-49.76
-38.49
-25.28
-11.14
2.21
12.98
19.33
20.06
14.65
3.65
-10.59
-25.19
-37.86
-47.28
-53.12
-56.3
-58
-59.12
-59.78
-59.41
-57.38
-53.51
-48.17
-41.93
-35.68
-30.13
-25.64
-22.27
-19.82
-18.02
-16.67
-15.6
-14.64
-13.73
-12.85
-12.05
-11.41
-10.93
-10.57
-10.31
-10.03
-9.62
-9.06
-8.23
-7.02
-5.43
-3.41
-1.08
1.21
3.09
4.27
4.6
4.21
3.49
2.8
2.39
2.39
2.58
2.82
2.98
3.08
3.22
3.59
4.25
5.16
6.28
7.47
8.71
10
11.32
12.6
13.72
14.57
15.1
15.33
15.22
14.92
14.39
13.64
12.67
11.56
10.39
9.27
8.26
7.28
6.28
5.21
4.09
3.05
2.19
1.55
1.09
0.71
0.3
-0.13
-0.6
-1.08
-1.65
-2.38
-3.35
-4.47
-5.51
-6.06
-5.68
-4.13
-1.3
2.62
7.23
12.11
16.89
21.26
25.14
28.57
31.64
34.47
36.92
38.71
39.38
38.49
35.91
31.84
26.88
21.77
17.26
13.58
10.61
7.91
4.96
1.55
-2.14
-5.7
-8.7
-10.7
-11.71
-11.99
-11.89
-11.83
-11.97
-12.23
-12.36
-12.12
-11.24
-9.67
-7.44
-4.61
-1.24
2.66
7.02
11.66
16.22
20.35
23.85
26.92
29.94
33.18
36.55
39.36
40.61
39.4
35.33
28.7
20.35
11.16
1.77
-7.61
-16.97
-26.19
-34.72
-41.8
-46.66
-48.81
-48.3
-45.56
-41.13
-35.61
-29.4
-22.84
-16.18
-9.87
-4.31
0.12
3.29
5.34
6.61
7.46
8.16
8.82
9.33
9.58
9.44
8.91
7.98
6.74
5.24
3.55
1.75
-0.08
-1.8
-3.3
-4.54
-5.47
-6.03
-6.19
-5.88
-5.08
-3.78
-2.09
-0.17
1.77
3.66
5.45
7.2
9
10.91
12.83
14.58
15.97
16.81
17.13
16.97
16.45
15.63
14.56
13.24
11.73
10.05
8.29
6.58
5.09
3.91
3.13
2.68
2.45
2.35
2.31
2.26
2.2
2.15
2.05
1.87
1.54
0.98
0.26
-0.58
-1.49
-2.33
-2.98
-3.35
-3.33
-2.9
-2.1
-1.07
0
0.9
1.49
1.78
1.77
1.6
1.34
0.98
0.56
0.07
-0.38
-0.73
-0.89
-0.85
-0.55
-0.02
0.71
1.66
2.75
3.9
5
5.9
6.45
6.67
6.46
5.87
4.95
3.83
2.62
1.46
0.44
-0.37
-0.85
-0.98
-0.8
-0.38
0.19
0.92
1.79
2.8
3.92
5.04
6.03
6.76
7.13
7.08
6.66
5.84
4.57
2.92
1.05
-0.86
-2.49
-3.63
-4.22
-4.28
-3.96
-3.37
-2.61
-1.74
-0.79
0.13
0.88
1.3
1.37
1.13
0.7
0.23
-0.21
-0.62
-0.99
-1.4
-1.86
-2.27
-2.57
-2.67
-2.49
-2
-1.24
-0.22
0.95
2.13
3.25
4.22
4.91
5.34
5.5
5.37
4.97
4.34
3.56
2.7
1.85
1.05
0.33
-0.37
-1.06
-1.7
-2.28
-2.74
-2.98
-2.87
-2.31
-1.29
0.07
1.57
3
4.02
4.34
3.86
2.61
0.77
-1.33
-3.37
-4.93
-5.62
-5.27
-3.94
-1.86
0.67
3.33
5.9
8.27
10.27
11.62
11.98
11
8.46
4.53
-0.43
-5.82
-10.95
-15.3
-18.48
-20.15
-20.27
-18.97
-16.56
-13.47
-10.12
-7.04
-4.74
-3.55
-3.67
-5.07
-7.55
-10.74
-14.23
-17.53
-20.24
-22.08
-22.8
-22.34
-20.68
-17.96
-14.25
-9.78
-4.83
0.3
5.15
9.4
12.77
15.12
16.48
17.07
17.12
16.84
16.39
15.74
14.93
13.89
12.67
11.31
9.9
8.6
7.62
7.19
7.39
8.27
9.65
11.21
12.61
13.49
13.65
13
11.6
9.62
7.29
4.86
2.52
0.46
-1.27
-2.63
-3.6
-4.25
-4.64
-4.85
-4.96
-5.07
-5.24
-5.53
-5.93
-6.47
-7.11
-7.84
-8.69
-9.68
-10.78
-11.83
-12.62
-12.91
-12.52
-11.51
-9.96
-8.07
-6
-3.84
-1.69
0.4
2.31
3.92
5.02
5.58
5.57
5.09
4.3
3.33
2.33
1.38
0.59
0.02
-0.29
-0.41
-0.43
-0.46
-0.53
-0.54
-0.42
-0.08
0.48
1.12
1.65
1.85
1.62
0.89
-0.2
-1.51
-2.77
-3.73
-4.2
-4.1
-3.45
-2.38
-1.09
0.21
1.33
2.12
2.57
2.71
2.55
2.18
1.64
1.04
0.48
0.07
-0.18
-0.26
-0.26
-0.26
-0.32
-0.42
-0.51
-0.49
-0.3
0.06
0.47
0.81
0.99
0.96
0.69
0.29
-0.27
-0.97
-1.8
-2.74
-3.75
-4.7
-5.47
-6.04
-6.45
-6.69
-6.74
-6.56
-6.04
-5.09
-3.71
-1.95
0.03
2.07
4.01
5.81
7.39
8.68
9.62
10.13
10.19
9.84
9.15
8.2
7.07
5.71
4.06
2.2
0.22
-1.7
-3.47
-4.99
-6.3
-7.48
-8.59
-9.61
-10.48
-11.17
-11.57
-11.69
-11.58
-11.27
-10.86
-10.36
-9.87
-9.36
-8.83
-8.28
-7.69
-7.17
-6.76
-6.5
-6.37
-6.28
-6.12
-5.88
-5.56
-5.18
-4.85
-4.56
-4.22
-3.68
-2.78
-1.38
0.51
2.85
5.6
8.61
11.85
15.23
18.61
21.89
24.92
27.5
29.35
30.22
29.77
27.78
24.22
19.28
13.5
7.52
2.03
-2.49
-5.72
-7.68
-8.57
-8.61
-8.06
-7.15
-5.98
-4.64
-3.2
-1.74
-0.32
0.96
1.96
2.53
2.56
1.99
0.86
-0.75
-2.71
-4.88
-7.09
-9.19
-11.03
-12.47
-13.46
-14.02
-14.24
-14.22
-14.03
-13.74
-13.32
-12.82
-12.26
-11.71
-11.2
-10.72
-10.09
-9.15
-7.74
-5.82
-3.41
-0.73
2.04
4.71
7.06
8.99
10.38
11.15
11.32
11.01
10.39
9.67
9.03
8.46
7.97
7.55
7.25
7.11
7.25
7.7
8.37
9.05
9.46
9.45
8.91
7.95
6.67
5.26
3.88
2.61
1.47
0.42
-0.51
-1.39
-2.21
-3.04
-3.88
-4.71
-5.47
-6.1
-6.6
-6.93
-7.18
-7.38
-7.45
-7.34
-6.99
-6.35
-5.46
-4.48
-3.5
-2.58
-1.66
-0.64
0.48
1.64
2.65
3.4
3.81
3.93
3.88
3.88
4.05
4.31
4.56
4.65
4.52
4.23
3.89
3.62
3.47
3.41
3.39
3.31
3.21
3.16
3.24
3.48
3.84
4.17
4.4
4.46
4.41
4.27
4.05
3.7
3.16
2.43
1.62
0.91
0.43
0.27
0.4
0.73
1.13
1.52
1.76
1.75
1.45
0.83
-0.08
-1.13
-2.16
-3.1
-3.82
-4.34
-4.64
-4.81
-4.88
-4.9
-4.89
-4.75
-4.54
-4.21
-3.76
-3.23
-2.72
-2.27
-1.81
-1.32
-0.74
-0.16
0.38
0.68
0.66
0.34
-0.2
-0.71
-1.09
-1.24
-1.26
-1.2
-1.14
-1.14
-1.19
-1.36
-1.63
-2.03
-2.49
-2.95
-3.31
-3.54
-3.66
-3.63
-3.55
-3.45
-3.42
-3.43
-3.49
-3.61
-3.76
-3.98
-4.29
-4.7
-5.15
-5.65
-6.12
-6.47
-6.67
-6.6
-6.35
-5.93
-5.51
-5.11
-4.78
-4.57
-4.37
-4.15
-3.82
-3.39
-2.89
-2.44
-2.09
-1.76
-1.27
-0.31
1.33
3.8
7.1
11.19
15.97
21.23
26.85
32.6
38.33
43.79
48.77
53.14
56.73
59.37
60.86
61.26
60.72
59.57
58.1
56.47
54.78
52.96
50.81
48.11
44.94
41.61
38.56
36.1
34.41
33.6
33.46
33.51
33.28
32.65
31.77
30.81
29.69
28
25.37
20.92
13.52
2.12
-13.78
-34.07
-58.22
-85.57
-115.27
-143.54
-164.6
-173.66
-169.87
-156.39
-137.87
-118
-99.01
-82.09
-67.82
-56.81
-49.57
-46.32
-46.18
-47.44
-47.87
-45.7
-40.08
-31.09
-19.91
-8.19
2.55
11.64
19.18
25.74
31.6
36.88
41.15
43.78
44.24
42.23
37.99
32.1
25.51
19.25
14.23
11.09
10.08
10.83
12.56
14.22
15.09
14.66
12.66
8.65
2.46
-5.78
-15.59
-26.34
-37.45
-47.9
-57.09
-64.24
-69.35
-72.11
-71.93
-67.96
-60.1
-49.29
-36.35
-22.64
-9.69
1.04
9.22
15.58
21.47
27.9
35.54
46.12
61.08
80.81
104.3
129.98
156.24
181.64
204.78
215.35
206.53
178.48
138.64
95.91
56.16
21.79
-6.89
-30.48
-49.79
-63.85
-72.45
-75.53
-74.05
-69.7
-64.25
-59.11
-55.31
-53.52
-52.8
-52.14
-51.14
-49.68
-48.66
-48.94
-50.91
-54.35
-58.69
-62.49
-64.51
-64.27
-62.26
-59.55
-56.84
-54.3
-51.67
-48.57
-44.38
-38.98
-32.64
-26
-19.83
-14.57
-10.21
-6.51
-3.36
-0.4
2.37
4.91
7.13
8.88
10.06
10.69
10.88
10.81
10.73
10.81
10.98
10.95
10.28
8.68
6.14
3.01
-0.09
-2.34
-3.2
-2.21
0.75
5.7
12.53
20.88
30.11
39.33
47.64
54.23
58.62
60.53
59.78
56.4
50.46
42.21
32.25
21.63
11.44
2.8
-3.71
-8.04
-10.56
-11.75
-11.99
-11.53
-10.4
-8.77
-6.7
-4.27
-1.57
1.38
4.57
7.95
11.31
14.5
17.19
19.3
20.81
21.77
22.23
22.15
21.47
20.18
18.33
16.01
13.34
10.39
7.07
3.44
-0.46
-4.56
-8.74
-12.97
-17.32
-21.81
-26.38
-30.85
-34.76
-37.64
-39.15
-39.28
-38.08
-35.95
-33.22
-30.27
-27.41
-24.83
-22.67
-20.93
-19.55
-18.39
-17.28
-15.97
-14.34
-12.21
-9.5
-6.32
-2.88
0.58
3.8
6.54
8.75
10.45
11.8
12.97
14
14.9
15.61
16.13
16.45
16.74
17.13
17.73
18.45
18.97
19
18.21
16.63
14.4
12.01
9.78
7.92
6.4
4.92
3.34
1.55
-0.36
-2.19
-3.78
-5.12
-6.27
-7.31
-8.16
-8.71
-8.82
-8.4
-7.49
-6.19
-4.7
-3.2
-1.91
-0.98
-0.42
-0.22
-0.22
-0.33
-0.46
-0.56
-0.61
-0.56
-0.38
-0.02
0.54
1.41
2.56
3.87
5.13
6.1
6.68
6.79
6.57
6.11
5.59
5
4.31
3.49
2.5
1.46
0.5
-0.26
-0.77
-1.07
-1.29
-1.57
-2.08
-2.81
-3.68
-4.6
-5.41
-6.09
-6.66
-7.14
-7.33
-7.17
-6.55
-5.5
-4.24
-2.97
-1.86
-0.95
-0.14
0.69
1.58
2.43
3.07
3.4
3.37
3.11
2.81
2.66
2.86
3.42
4.31
5.34
6.31
7.11
7.64
7.98
8.24
8.51
8.74
8.83
8.58
7.88
6.8
5.53
4.32
3.42
2.81
2.39
1.97
1.25
-0.05
-2.11
-5.01
-8.82
-13.34
-18.19
-22.85
-26.46
-28.25
-27.75
-25.03
-20.58
-15.18
-9.54
-3.99
1.49
7.16
13.19
19.41
25.34
30.33
33.96
36.15
37.31
37.91
38.34
38.67
38.65
37.92
36.1
33.14
29.25
24.69
19.72
14.48
8.84
2.74
-3.71
-10.35
-16.83
-22.86
-28.12
-32.42
-35.69
-37.9
-39.08
-39.28
-38.53
-36.94
-34.69
-32
-29.07
-26.19
-23.58
-21.33
-19.45
-17.87
-16.4
-14.79
-13.01
-11.03
-8.94
-6.81
-4.67
-2.49
-0.21
2.23
4.85
7.56
10.19
12.65
14.86
16.85
18.58
20.02
21.11
21.83
22.16
22.11
21.87
21.5
21.06
20.63
20.17
19.57
18.75
17.59
15.93
13.59
10.29
6.02
0.87
-4.9
-11.01
-17.01
-22.54
-27.17
-30.47
-32.24
-32.23
-30.4
-26.83
-21.74
-15.48
-8.6
-1.68
4.62
9.67
13.07
14.63
14.25
12.11
8.44
3.3
-3.1
-10.56
-19.03
-28.51
-38.74
-49.35
-59.54
-68.43
-75.09
-78.51
-77.86
-72.82
-63.37
-49.97
-33.51
-15.01
4.41
23.64
41.75
57.84
70.98
80.46
85.6
86.05
82.05
74.33
64.05
52.72
41.66
31.78
23.75
17.68
13.36
10.59
9.02
8.21
7.79
7.38
6.7
5.73
4.33
2.48
0.25
-2.21
-4.72
-7.05
-8.85
-10.03
-10.44
-10.12
-9.08
-7.31
-4.91
-1.89
1.65
5.58
9.67
13.65
17.21
20.01
21.97
22.88
22.78
21.71
19.69
16.87
13.49
9.77
5.92
2.19
-1.24
-4.18
-6.45
-8.05
-9.01
-9.45
-9.62
-9.76
-9.91
-10.07
-10.18
-10.19
-10.1
-10.03
-10.13
-10.44
-10.93
-11.39
-11.64
-11.52
-11.06
-10.35
-9.53
-8.7
-7.86
-6.87
-5.61
-4.09
-2.38
-0.51
1.43
3.36
5.29
7
8.48
9.47
9.88
9.73
9.07
8.06
6.81
5.42
3.84
2.12
0.29
-1.6
-3.41
-5.05
-6.55
-7.97
-9.39
-10.87
-12.4
-13.87
-15.05
-15.67
-15.51
-14.54
-12.92
-10.8
-8.48
-6.05
-3.46
-0.69
2.39
5.65
8.96
12.04
14.68
16.54
17.27
16.55
14.27
10.71
6.33
1.76
-2.33
-5.62
-8.03
-9.64
-10.63
-11.05
-10.91
-10.21
-9.08
-7.59
-5.9
-4.16
-2.52
-0.93
0.49
1.75
2.71
3.25
3.21
2.41
0.86
-1.25
-3.66
-6.1
-8.24
-9.82
-10.58
-10.27
-8.65
-5.62
-1.12
4.58
11.06
17.76
24.13
29.56
33.36
35.04
34.28
31.15
25.99
19.32
11.71
3.74
-4.09
-11.34
-17.62
-22.48
-25.54
-26.52
-25.33
-22.16
-17.45
-11.67
-5.42
0.63
5.76
9.54
11.59
11.95
10.94
9.01
6.66
4.22
1.8
-0.69
-3.2
-5.57
-7.58
-8.99
-9.83
-10.21
-10.34
-10.4
-10.53
-10.64
-10.7
-10.6
-10.38
-10.13
-9.97
-9.97
-10.05
-9.99
-9.51
-8.44
-6.7
-4.26
-1.39
1.62
4.42
6.81
8.71
10.15
11.23
12.08
12.92
13.57
13.93
13.92
13.5
12.82
11.84
10.48
8.59
6.07
2.8
-1.09
-5.33
-9.58
-13.45
-16.63
-18.85
-19.85
-19.5
-17.88
-15.15
-11.67
-7.94
-4.37
-1.27
1.19
3.02
4.31
5.18
5.79
6.29
6.72
7.24
8.03
9.11
10.43
11.79
12.97
13.66
13.61
12.72
11.13
9.15
7.22
5.66
4.57
3.85
3.47
3.28
3.28
3.58
4.12
4.85
5.56
6.05
6.26
6.23
5.99
5.56
4.98
4.15
3.09
1.74
0.19
-1.46
-3.01
-4.28
-5.15
-5.61
-5.65
-5.35
-4.75
-3.85
-2.68
-1.35
0.05
1.35
2.43
3.14
3.49
3.54
3.44
3.28
3.02
2.63
2.05
1.25
0.32
-0.68
-1.55
-2.25
-2.74
-3.05
-3.18
-3.13
-2.97
-2.75
-2.57
-2.48
-2.49
-2.64
-2.8
-2.93
-3.01
-3.07
-3.2
-3.49
-4
-4.67
-5.32
-5.73
-5.76
-5.35
-4.62
-3.72
-2.82
-2.06
-1.47
-1.09
-0.83
-0.67
-0.54
-0.39
-0.22
0.02
0.24
0.47
0.71
1.09
1.65
2.46
3.41
4.28
4.84
4.91
4.57
3.9
3.12
2.46
2.02
1.78
1.75
1.81
1.86
1.85
1.69
1.44
1.22
1.15
1.38
1.96
2.8
3.73
4.64
5.52
6.4
7.43
8.65
10.05
11.63
13.36
15.06
16.53
17.67
18.68
19.86
21.37
23.41
25.99
28.88
31.45
32.98
33
31.8
30.03
28.53
27.88
28.28
29.42
30.31
29.74
27.06
22.58
17.14
11.76
6.84
2.22
-3.21
-11.47
-24.67
-44.11
-69.29
-98.53
-129.24
-158.99
-185.77
-202.95
-203.97
-186.13
-152.88
-111.44
-68.7
-28.45
7.18
40.26
72.24
102.82
130.65
154.21
172.81
182.76
182.23
170.71
149.13
119.51
84.13
45.6
6.61
-30.04
-61.8
-86.28
-102.02
-108.63
-106.85
-98.41
-85.4
-69.76
-53.07
-36.52
-20.63
-6
6.82
17.15
24.22
27.6
27.26
23.69
17.63
10.17
2.23
-5.49
-12.6
-18.85
-24.15
-28.38
-31.39
-32.84
-32.25
-29.35
-24.07
-16.83
-8.3
0.6
9.04
16.15
21.47
24.92
26.44
26.21
24.35
20.98
16.29
10.55
4.09
-2.54
-8.74
-13.95
-17.73
-19.75
-19.81
-17.84
-14.01
-8.81
-2.98
2.57
7.04
9.96
11.42
11.69
11.26
10.43
9.32
7.9
6.12
4.01
1.8
-0.18
-1.81
-3.01
-3.86
-4.42
-4.71
-4.68
-4.3
-3.64
-2.78
-1.97
-1.27
-0.74
-0.24
0.4
1.21
2.22
3.27
4.19
4.86
5.3
5.59
5.64
5.4
4.75
3.58
1.92
-0.08
-2.12
-3.87
-5.1
-5.78
-5.97
-5.76
-5.16
-4.29
-3.12
-1.7
-0.16
1.4
2.79
3.87
4.46
4.57
4.14
3.3
2.24
1.02
-0.23
-1.54
-2.9
-4.31
-5.59
-6.57
-6.96
-6.75
-6.01
-4.93
-3.67
-2.25
-0.69
1.08
2.96
4.83
6.4
7.44
7.84
7.6
6.81
5.63
4.16
2.51
0.8
-0.88
-2.47
-3.83
-4.86
-5.46
-5.55
-5.14
-4.28
-3.04
-1.51
0.17
1.9
3.47
4.78
5.76
6.41
6.75
6.73
6.46
5.97
5.38
4.86
4.5
4.34
4.37
4.4
4.28
3.91
3.28
2.41
1.37
0.16
-1.19
-2.62
-4.05
-5.32
-6.34
-7.1
-7.56
-7.77
-7.7
-7.34
-6.65
-5.64
-4.34
-2.81
-1.12
0.62
2.38
3.98
5.25
6.19
6.78
7.21
7.5
7.69
7.68
7.39
6.73
5.64
4.21
2.54
0.83
-0.8
-2.2
-3.28
-4.01
-4.31
-4.19
-3.64
-2.72
-1.56
-0.28
1.02
2.23
3.29
4.19
4.78
5.05
4.92
4.47
3.89
3.33
2.87
2.53
2.2
1.77
1.24
0.7
0.28
0.16
0.41
0.85
1.29
1.53
1.52
1.33
1.06
0.78
0.5
0.19
-0.23
-0.7
-1.12
-1.4
-1.45
-1.36
-1.25
-1.12
-0.96
-0.71
-0.3
0.34
1.1
1.94
2.66
3.13
3.23
2.91
2.18
1.11
-0.08
-1.26
-2.13
-2.5
-2.22
-1.28
0.23
2.13
4.16
6.12
7.83
9.14
9.92
10
9.41
8.16
6.57
4.99
3.9
3.62
4.33
5.98
8.35
11.15
13.99
16.63
18.82
20.48
21.56
22.15
22.36
22.36
22.42
22.66
23.13
23.79
24.34
24.43
23.71
21.91
18.85
14.6
9.33
3.25
-3.26
-9.98
-16.64
-23.07
-29.18
-34.81
-39.8
-44.01
-47.29
-49.57
-50.89
-51.31
-51
-50.11
-48.66
-46.5
-43.4
-39.02
-33.15
-25.87
-17.41
-8.22
1.15
10.23
18.64
26.01
31.99
36.18
38.3
38.19
36.16
32.59
28.11
23.33
18.57
14.09
10.04
6.65
4.13
2.63
2.15
2.59
3.68
5.1
6.52
7.56
7.83
7.13
5.37
2.79
-0.06
-2.58
-4.38
-5.28
-5.46
-5.07
-4.22
-2.95
-1.26
0.92
3.51
6.03
8.09
9.51
10.56
11.74
13.43
15.74
18.81
22.41
25.78
28.16
29.28
29.45
29.01
28.23
27.18
26.43
26.29
26.13
24.9
21.79
16.6
9.26
-0.18
-11.63
-24.16
-37.19
-51.47
-68.36
-88.79
-112.72
-139.5
-168.16
-197.8
-226.45
-243.32
-239.57
-213.06
-170.35
-121.28
-73.63
-31.21
2.62
31.62
58.92
85.31
110.82
135.99
163
191.33
220.34
242.13
249.4
237.88
208.08
165.31
117
70.39
30.31
-0.76
-22.93
-37.14
-44.46
-46.27
-44.29
-40.45
-36.31
-33.24
-31.92
-32.68
-34.5
-35
-33.21
-29.13
-23.65
-17.92
-13.21
-10.31
-9.66
-10.74
-12.53
-14.41
-16.23
-18.11
-20.15
-22.56
-25.19
-27.88
-30.09
-31.21
-30.76
-28.55
-24.6
-19.1
-12.52
-5.4
1.61
7.86
12.91
16.39
18.07
17.85
15.86
12.36
7.6
1.91
-4.42
-11.06
-17.67
-23.74
-28.53
-31.23
-31.08
-27.83
-21.81
-13.99
-5.7
1.74
7.51
11.39
13.58
14.52
14.7
14.6
14.68
15.37
16.9
19.23
21.9
24.18
25.63
26.39
27.37
29.64
34.07
40.68
48.6
56.33
62.29
65.29
64.77
60.72
53.35
42.77
29.23
13.17
-4.45
-21.99
-37.37
-48.69
-54.55
-54.5
-49.25
-40.18
-28.94
-16.86
-4.54
7.96
20.6
33.06
44.51
53.78
59.8
62.06
60.74
56.6
50.48
43.05
34.63
25.45
15.78
6.03
-3.23
-11.52
-18.37
-23.46
-26.54
-27.35
-25.68
-21.48
-15.11
-7.37
0.56
7.53
12.54
15.12
15.29
13.19
8.96
2.43
-6.69
-18.5
-32.95
-49.72
-68.15
-87.49
-107.04
-126.09
-144.04
-160.16
-173.73
-184.08
-190.73
-193.26
-191.02
-183.1
-168.37
-145.89
-115.61
-78.81
-38.1
3.26
42.05
75.91
103.5
124.24
137.93
144.47
144.03
137.38
126.12
112.47
98.41
85.45
74.18
64.34
55.34
46.78
38.7
31.58
25.86
21.64
18.56
16.09
13.66
10.97
8.05
5.25
3.07
1.64
0.85
0.41
0.08
-0.22
-0.34
-0
1.21
3.63
6.92
10.37
13.3
15.39
16.76
17.82
19.11
21.09
24.2
27.93
31.28
33.33
33.55
31.77
27.81
21.41
12.19
0.01
-15.63
-34.92
-57.04
-80.35
-102.95
-123.83
-143.08
-161.63
-174.27
-175.82
-163.77
-139.85
-108.85
-75.54
-43.62
-15.07
9.4
30.14
48.57
64.85
78.46
88.63
95.05
97.77
97.44
95.18
89.75
80.64
67.69
51.7
34.73
19.55
8.59
3.16
3.38
8.31
16.6
26.9
38.28
50.41
62.82
74.73
85.19
93.75
100.44
105.82
109.82
111.54
109.46
102.03
88.33
68.7
44.96
19.65
-4.53
-25.57
-42.68
-55.77
-65.2
-71.54
-75.19
-76.53
-75.95
-73.86
-70.8
-67.35
-63.9
-60.59
-57.46
-54.15
-50.47
-46.33
-41.78
-36.95
-32.14
-27.51
-23.22
-19.35
-15.89
-12.91
-10.53
-8.88
-7.86
-7.4
-7.26
-7.21
-7.09
-6.66
-5.81
-4.53
-2.95
-1.26
0.23
1.3
1.79
1.8
1.58
1.42
1.43
1.62
1.78
1.78
1.63
1.49
1.54
1.86
2.38
2.88
3.07
2.86
2.22
1.32
0.3
-0.75
-1.85
-2.98
-4.03
-4.84
-5.16
-4.93
-4.15
-2.95
-1.56
-0.12
1.19
2.4
3.44
4.3
4.96
5.4
5.6
5.59
5.41
5.04
4.45
3.73
2.82
1.73
0.41
-1.17
-3.02
-5.09
-7.24
-9.34
-11.32
-13.17
-14.75
-16.02
-16.73
-16.73
-15.96
-14.5
-12.58
-10.53
-8.54
-6.64
-4.79
-2.82
-0.7
1.37
3.25
4.77
5.87
6.68
7.42
8.33
9.39
10.63
11.83
12.84
13.52
13.85
13.89
13.69
13.33
12.73
11.95
10.89
9.65
8.22
6.72
5.33
4.14
3.26
2.67
2.3
2.01
1.73
1.39
1.01
0.68
0.37
0.06
-0.33
-0.77
-1.24
-1.65
-1.93
-2
-1.92
-1.74
-1.52
-1.32
-1.09
-0.8
-0.47
-0.12
0.18
0.32
0.23
-0.06
-0.55
-1.16
-1.77
-2.31
-2.66
-2.76
-2.6
-2.28
-1.88
-1.5
-1.12
-0.72
-0.22
0.44
1.16
1.85
2.52
3.17
3.79
4.48
5.2
5.89
6.53
7.06
7.54
7.97
8.38
8.68
8.8
8.65
8.22
7.61
6.87
6.12
5.35
4.49
3.49
2.43
1.4
0.51
-0.17
-0.67
-1.04
-1.39
-1.83
-2.34
-2.88
-3.47
-4.08
-4.72
-5.39
-6.01
-6.45
-6.61
-6.45
-5.99
-5.35
-4.69
-4.13
-3.73
-3.49
-3.35
-3.31
-3.22
-3.03
-2.78
-2.41
-2.04
-1.77
-1.69
-1.78
-1.98
-2.17
-2.27
-2.27
-2.21
-2.14
-2.03
-1.96
-1.98
-2.06
-2.17
-2.17
-1.92
-1.36
-0.5
0.5
1.54
2.46
3.24
3.84
4.22
4.32
4.1
3.5
2.63
1.75
1.04
0.68
0.66
0.88
1.18
1.42
1.56
1.62
1.71
1.94
2.32
2.71
3.07
3.3
3.36
3.3
3.13
2.93
2.77
2.69
2.65
2.64
2.6
2.42
2.11
1.62
1.06
0.44
-0.05
-0.37
-0.46
-0.27
0.2
0.88
1.72
2.64
3.44
4.04
4.4
4.46
4.27
3.9
3.39
2.77
2.1
1.37
0.58
-0.24
-1.01
-1.59
-1.87
-1.77
-1.29
-0.55
0.31
1.04
1.55
1.76
1.82
1.84
1.89
2.06
2.25
2.32
2.25
1.98
1.49
0.91
0.38
-0.14
-0.52
-0.73
-0.8
-0.75
-0.68
-0.68
-0.83
-1.1
-1.49
-2
-2.44
-2.78
-2.92
-2.79
-2.36
-1.58
-0.55
0.57
1.53
2.26
2.68
2.97
3.2
3.43
3.64
3.69
3.5
3.11
2.66
2.24
2.06
2.13
2.26
2.35
2.31
2.17
1.91
1.7
1.42
1.08
0.69
0.18
-0.3
-0.63
-0.6
-0.23
0.44
1.19
1.88
2.41
2.65
2.67
2.48
2.2
1.86
1.54
1.26
0.98
0.68
0.31
-0.07
-0.52
-1.01
-1.53
-2.05
-2.5
-2.81
-2.75
-2.39
-1.74
-1.07
-0.57
-0.47
-0.71
-1.12
-1.53
-1.66
-1.49
-1.01
-0.44
0.14
0.69
1.21
1.79
2.41
3.06
3.66
4.08
4.22
4.12
3.85
3.51
3.24
3.02
2.92
2.94
3.06
3.25
3.5
3.74
3.94
4.16
4.42
4.91
5.62
6.56
7.63
8.83
10.12
11.48
12.97
14.47
16.04
17.54
18.96
20.15
21.17
22.05
22.89
23.96
25.38
27.37
29.81
32.46
35.01
37.37
39.57
41.82
44.3
46.99
49.85
52.32
53.85
53.83
51.87
47.84
41.71
33.37
22.67
9.77
-5.35
-22.17
-40.15
-58.64
-77.06
-95.29
-113.48
-131.79
-147.04
-155.13
-152.67
-140.06
-120.49
-97.65
-74.17
-51.52
-30.4
-11.1
5.86
21.35
36.12
51.05
67.03
84.44
102.68
120.06
134.32
138.13
128.91
107.39
77.42
44.09
11.98
-15.77
-37.72
-54.5
-66.86
-74.48
-77.81
-77.54
-74.6
-70.11
-65.15
-60.68
-57.32
-55.3
-52.78
-49.25
-44.72
-39.64
-34.71
-30.54
-27.63
-26.01
-25.4
-24.88
-24
-22.52
-20.39
-17.77
-14.9
-12.01
-9.18
-6.33
-3.24
-0.02
3.16
5.98
8.18
9.59
10.3
10.53
10.51
10.56
10.7
10.94
11.24
11.57
11.87
12.13
12.34
12.6
12.95
13.48
14.32
15.61
17.34
19.46
21.73
23.92
25.9
27.89
29.89
32.1
34.64
37.4
40.29
42.82
44.6
45.31
44.96
43.34
40.36
35.92
29.93
22.65
14.51
6.15
-1.78
-8.7
-14.35
-18.57
-21.43
-23.14
-24.04
-24.66
-25.53
-27.03
-29.4
-32.53
-35.94
-38.98
-41.21
-42.08
-41.54
-39.87
-37.55
-35.34
-33.54
-32.27
-31.3
-30.41
-29.28
-27.78
-25.95
-23.83
-21.49
-18.81
-15.55
-11.38
-6.05
0.5
8.01
15.97
23.73
30.7
36.42
40.67
43.43
44.79
44.91
43.88
41.71
38.51
34.46
30.01
25.68
21.93
19.03
17.01
15.7
14.89
14.53
14.66
15.33
16.44
17.69
18.59
18.72
17.84
15.95
13.29
10.18
6.92
3.73
0.75
-1.99
-4.46
-6.67
-8.6
-10.21
-11.34
-11.92
-11.91
-11.4
-10.55
-9.49
-8.39
-7.28
-6.21
-5.27
-4.61
-4.37
-4.65
-5.39
-6.32
-7.15
-7.63
-7.66
-7.3
-6.73
-6.06
-5.37
-4.61
-3.7
-2.65
-1.5
-0.31
0.84
1.87
2.72
3.36
3.69
3.71
3.42
2.94
2.4
1.92
1.54
1.27
1.08
0.93
0.83
0.72
0.57
0.38
0.14
-0.11
-0.33
-0.57
-0.88
-1.3
-1.87
-2.52
-3.1
-3.52
-3.72
-3.7
-3.53
-3.27
-2.93
-2.49
-2.01
-1.49
-1.07
-0.77
-0.61
-0.5
-0.35
-0.08
0.33
0.81
1.26
1.6
1.83
1.98
2.12
2.28
2.5
2.72
2.94
3.1
3.18
3.17
3.08
2.92
2.71
2.53
2.37
2.19
1.95
1.63
1.19
0.64
0
-0.69
-1.39
-2.03
-2.57
-2.97
-3.2
-3.31
-3.38
-3.49
-3.72
-4.09
-4.61
-5.22
-5.94
-6.72
-7.52
-8.28
-8.92
-9.4
-9.71
-9.89
-10.02
-10.17
-10.38
-10.61
-10.76
-10.71
-10.38
-9.71
-8.74
-7.55
-6.21
-4.75
-3.05
-0.96
1.77
5.2
9.26
13.63
17.9
21.63
24.49
26.38
27.29
27.34
26.7
25.43
23.55
21.09
18.22
15.19
12.37
10.06
8.46
7.57
7.24
7.17
7.04
6.51
5.27
3.11
-0.18
-4.59
-9.99
-16.02
-22.05
-27.37
-31.19
-32.99
-32.54
-30.01
-25.8
-20.48
-14.62
-8.67
-3.1
1.68
5.29
7.58
8.58
8.49
7.69
6.51
5.19
3.85
2.54
1.24
0.06
-0.95
-1.73
-2.23
-2.47
-2.47
-2.38
-2.27
-2.31
-2.56
-3
-3.54
-4.05
-4.44
-4.62
-4.66
-4.61
-4.52
-4.42
-4.3
-4.17
-4.01
-3.79
-3.49
-3.05
-2.43
-1.69
-0.89
-0.21
0.19
0.23
-0.06
-0.52
-0.99
-1.32
-1.49
-1.49
-1.33
-1.05
-0.64
-0.13
0.46
1.05
1.56
1.9
2.06
2.07
1.98
1.87
1.82
1.84
1.9
1.94
1.87
1.67
1.42
1.18
1.05
1.04
1.07
1.09
1.08
1.03
1.01
1.05
1.1
1.12
1.09
1
0.94
0.97
1.13
1.35
1.55
1.6
1.46
1.12
0.62
0.06
-0.44
-0.77
-0.9
-0.82
-0.65
-0.49
-0.45
-0.57
-0.78
-1.02
-1.22
-1.33
-1.35
-1.31
-1.2
-1.05
-0.9
-0.77
-0.73
-0.76
-0.81
-0.76
-0.51
-0.04
0.6
1.25
1.77
2.06
2.1
1.94
1.66
1.33
1.02
0.73
0.42
0.14
-0.1
-0.24
-0.21
-0.04
0.2
0.41
0.51
0.49
0.45
0.46
0.56
0.75
0.88
0.91
0.79
0.58
0.37
0.22
0.15
0.1
0.05
-0.07
-0.25
-0.45
-0.67
-0.93
-1.23
-1.58
-1.91
-2.16
-2.28
-2.18
-1.88
-1.43
-0.85
-0.18
0.52
1.21
1.83
2.34
2.74
3.07
3.3
3.44
3.44
3.28
3
2.58
2.08
1.58
1.22
1.02
1.03
1.19
1.48
1.83
2.24
2.61
2.98
3.41
3.86
4.31
4.72
5.14
5.65
6.21
6.75
7.32
8.03
8.85
9.71
10.52
11.24
12.09
13
13.88
14.9
16.31
17.92
19.34
20.33
20.88
21.6
22.6
23.86
25.63
28.21
31.05
33.39
34.48
33.8
31.63
27.19
19.36
7.45
-8.67
-29.55
-55.15
-84.32
-114.64
-142.42
-165.99
-185.24
-200.96
-207.07
-198.39
-173.16
-134.39
-93.03
-50.53
-7.35
35.27
75.66
110.97
138.16
155.69
163.75
164.05
159.59
151.72
140.98
127.89
113.24
97.41
81.12
65.11
50.15
37.34
26.3
16.24
6.79
-1.77
-9.17
-15.06
-19.41
-22.36
-23.7
-23.85
-23.05
-21.31
-18.43
-14.56
-10.16
-6.02
-2.89
-1.14
-1.11
-2.81
-5.9
-9.76
-13.85
-17.87
-21.82
-25.86
-29.94
-33.87
-37.22
-39.32
-39.53
-37.51
-33.28
-27.31
-20.16
-12.37
-4.4
3.47
10.88
17.36
22.41
25.54
26.53
25.4
22.47
18.19
13.09
7.68
2.41
-2.29
-6.01
-8.39
-9.21
-8.52
-6.7
-4.31
-2.04
-0.48
-0.04
-0.88
-2.88
-5.73
-9.04
-12.43
-15.63
-18.5
-21.05
-23.27
-25.08
-26.25
-26.44
-25.38
-23.02
-19.64
-15.68
-11.7
-8.05
-4.8
-1.86
0.91
3.64
6.6
10.25
15.33
22.66
32.93
46.31
62.27
79.68
96.95
112.46
124.62
132.09
133.72
128.55
115.95
95.8
68.83
36.58
1.47
-33.69
-66.2
-93.96
-115.82
-131.57
-141.72
-146.97
-148.02
-145.35
-139.34
-130.36
-118.98
-106.03
-92.49
-79.21
-66.9
-55.99
-46.71
-39.16
-33.27
-28.81
-25.34
-22.28
-19.1
-15.51
-11.46
-7.09
-2.61
1.88
6.41
11.07
15.91
20.93
25.91
30.54
34.43
37.24
38.66
38.55
36.95
34.05
30.23
25.95
21.74
18.12
15.5
14.18
14.22
15.44
17.47
19.8
21.98
23.67
24.66
24.83
24.18
22.72
20.48
17.51
13.89
9.81
5.52
1.34
-2.44
-5.54
-7.77
-9.11
-9.72
-9.81
-9.64
-9.38
-9.08
-8.76
-8.29
-7.52
-6.33
-4.76
-3.04
-1.6
-0.87
-1.24
-2.84
-5.53
-8.99
-12.79
-16.52
-19.82
-22.42
-24.09
-24.66
-24.09
-22.4
-19.69
-16.08
-11.7
-6.75
-1.47
3.78
8.57
12.49
15.24
16.78
17.34
17.39
17.45
17.95
19.04
20.63
22.42
24.11
25.51
26.59
27.42
28.11
28.73
29.35
30.08
31.07
32.49
34.35
36.49
38.53
40.04
40.7
40.4
39.2
37.21
34.47
30.83
26.17
20.45
13.9
7.04
0.63
-4.57
-7.99
-9.43
-9.13
-7.59
-5.57
-3.99
-3.77
-5.68
-10.28
-17.74
-27.82
-39.85
-52.84
-65.63
-77.11
-86.25
-92.19
-94.24
-91.96
-85.21
-74.35
-60.16
-43.74
-26.47
-9.64
5.64
18.61
28.89
36.37
41.15
43.42
43.46
41.65
38.56
34.71
30.64
26.77
23.3
20.2
17.43
14.97
12.98
11.75
11.46
12.12
13.44
14.96
16.11
16.39
15.51
13.35
10.06
5.96
1.4
-3.27
-7.74
-11.85
-15.46
-18.4
-20.57
-21.84
-22.21
-21.79
-20.69
-19.01
-16.72
-13.78
-10.14
-5.89
-1.31
3.28
7.56
11.29
14.38
16.74
18.24
18.67
17.87
15.79
12.56
8.52
4.07
-0.34
-4.28
-7.49
-9.71
-10.83
-10.82
-9.75
-7.81
-5.22
-2.24
0.91
4
6.93
9.61
11.96
13.88
15.27
15.96
15.92
15.15
13.77
11.98
9.95
7.84
5.79
3.83
2.02
0.45
-0.86
-1.86
-2.55
-3.06
-3.58
-4.33
-5.48
-7.1
-9.08
-11.21
-13.27
-15.06
-16.5
-17.57
-18.27
-18.56
-18.39
-17.71
-16.43
-14.54
-12.1
-9.24
-6.15
-3.01
-0.02
2.66
4.85
6.42
7.31
7.55
7.29
6.76
6.2
5.79
5.6
5.57
5.65
5.71
5.76
5.76
5.71
5.6
5.38
5.06
4.67
4.23
3.78
3.29
2.69
1.92
0.95
-0.15
-1.26
-2.24
-3
-3.49
-3.7
-3.69
-3.51
-3.26
-3.04
-2.92
-2.99
-3.21
-3.52
-3.81
-3.97
-4.01
-3.94
-3.85
-3.82
-3.85
-3.92
-3.94
-3.88
-3.73
-3.5
-3.19
-2.83
-2.4
-1.95
-1.61
-1.5
-1.72
-2.18
-2.7
-2.94
-2.68
-1.87
-0.67
0.6
1.7
2.54
3.27
4.08
5.08
6.21
7.27
8.02
8.32
8.17
7.63
6.79
5.7
4.41
3.03
1.69
0.55
-0.25
-0.64
-0.66
-0.44
-0.12
0.16
0.36
0.42
0.33
0.1
-0.25
-0.66
-1.02
-1.18
-1.04
-0.54
0.19
0.99
1.75
2.4
2.95
3.41
3.66
3.55
2.97
1.93
0.69
-0.3
-0.67
-0.35
0.45
1.21
1.47
1.03
0.09
-0.82
-1.12
-0.39
1.37
3.9
6.7
9.26
11.31
12.73
13.54
13.82
13.59
12.87
11.74
10.42
9.22
8.53
8.58
9.3
10.37
11.25
11.43
10.77
9.54
8.33
7.75
8.08
9.13
10.36
11.07
10.78
9.37
7.07
4.35
1.8
-0.09
-0.99
-0.86
-0.05
0.67
0.36
-1.79
-6.01
-11.7
-17.63
-22.33
-24.63
-24.08
-21.04
-16.33
-10.99
-5.87
-1.52
1.84
4.12
5.4
5.82
5.53
4.84
3.95
3.13
2.57
2.34
2.37
2.45
2.25
1.53
0.3
-1.2
-2.53
-3.33
-3.5
-3.3
-3.16
-3.51
-4.51
-5.95
-7.47
-8.64
-9.27
-9.39
-9.26
-9.16
-9.31
-9.74
-10.34
-10.98
-11.46
-11.68
-11.6
-11.27
-10.79
-10.36
-10.09
-10.01
-10.06
-10.13
-10.09
-9.97
-9.91
-10.1
-10.65
-11.49
-12.38
-13.07
-13.35
-13.22
-12.82
-12.34
-11.93
-11.56
-11.1
-10.34
-9.19
-7.61
-5.68
-3.59
-1.48
0.48
2.15
3.44
4.33
4.85
5.13
5.26
5.27
5.19
4.98
4.63
4.21
3.85
3.64
3.62
3.8
4.08
4.44
4.81
5.13
5.37
5.47
5.42
5.26
5.11
5.06
5.14
5.31
5.41
5.3
4.98
4.59
4.36
4.5
5.05
5.81
6.5
6.79
6.54
5.79
4.74
3.72
2.99
2.69
2.86
3.38
4.03
4.65
5.07
5.16
4.96
4.59
4.16
3.85
3.74
3.87
4.18
4.59
4.94
5.13
5.13
4.96
4.74
4.54
4.41
4.32
4.17
3.76
2.97
1.64
-0.21
-2.48
-4.9
-7.12
-8.77
-9.58
-9.49
-8.59
-7.2
-5.67
-4.21
-2.99
-2.07
-1.4
-0.92
-0.61
-0.4
-0.27
-0.18
-0.1
0.02
0.19
0.45
0.84
1.36
2.03
2.79
3.56
4.31
5.02
5.78
6.7
7.88
9.43
11.31
13.41
15.5
17.33
18.64
19.37
19.71
20.05
20.85
22.35
24.4
26.47
27.88
28.17
27.27
25.71
24.41
24.23
25.54
28
30.68
32.28
31.65
28.14
21.56
12.13
0.38
-12.83
-26.43
-39.28
-50.6
-60.39
-69.54
-79.45
-91.24
-104.6
-117.35
-125.86
-126.39
-116.68
-97
-70
-39.78
-10.37
15.26
35.6
50.24
59.2
62.59
60.72
54.25
44.33
32.67
20.93
10.43
1.99
-4.16
-8.14
-10.27
-10.78
-9.82
-7.43
-3.78
0.81
5.73
10.2
13.44
14.77
13.86
10.77
6.05
0.54
-4.87
-9.5
-13.04
-15.51
-17.15
-18.23
-18.88
-19.02
-18.5
-17.15
-15
-12.22
-9.06
-5.82
-2.73
0.11
2.65
4.91
6.89
8.55
9.81
10.61
10.93
10.83
10.51
10.14
9.91
9.9
10
10.07
9.93
9.49
8.78
7.9
6.92
5.89
4.85
3.83
2.96
2.43
2.38
2.86
3.76
4.88
6.04
7.2
8.37
9.56
10.69
11.53
11.87
11.55
10.58
9.11
7.41
5.62
3.92
2.41
1.19
0.39
0.08
0.25
0.8
1.62
2.57
3.67
4.95
6.4
8.09
10.02
12.23
14.75
17.59
20.71
24.12
27.71
31.38
35.06
38.67
42.1
45.25
48.04
50.36
52.11
53.06
52.8
50.93
47.07
41.06
33.04
23.43
12.84
1.87
-9.01
-19.59
-29.75
-39.38
-48.23
-56.02
-62.5
-67.62
-71.59
-74.7
-77.02
-78.25
-77.88
-75.46
-71
-65.17
-58.88
-52.83
-47.19
-41.74
-36.12
-30.51
-25.6
-22.15
-20.43
-19.79
-18.91
-16.4
-11.58
-4.55
4.11
14.03
25.49
39.02
54.83
72.14
89.18
103.59
113.38
117.42
115.73
109.2
99.14
86.89
73.52
59.83
46.32
33.27
20.8
8.69
-3.13
-14.71
-25.9
-36.29
-45.58
-53.63
-60.3
-65.4
-68.64
-69.6
-67.96
-63.57
-56.58
-47.29
-35.89
-22.46
-7.31
8.48
22.8
32.78
35.9
31.16
19.72
4.67
-10.18
-21.79
-28.72
-31.21
-30.35
-27.14
-21.82
-14.32
-4.98
5.08
13.93
19.76
21.47
19.04
13.38
5.88
-2.14
-9.76
-16.49
-22.13
-26.6
-29.69
-31.16
-30.79
-28.43
-24.25
-18.67
-12.38
-6.16
-0.72
3.43
6.08
7.32
7.47
6.92
6.01
4.92
3.65
2.18
0.51
-1.2
-2.71
-3.68
-3.88
-3.2
-1.74
0.28
2.6
5.01
7.32
9.38
11.14
12.49
13.44
14.02
14.28
14.28
14.07
13.67
13.07
12.28
11.31
10.19
8.96
7.65
6.22
4.63
2.82
0.8
-1.32
-3.46
-5.52
-7.49
-9.46
-11.61
-14.08
-16.87
-19.84
-22.72
-25.22
-27.07
-28.13
-28.35
-27.68
-26.07
-23.49
-19.91
-15.37
-10.11
-4.47
1.19
6.54
11.35
15.54
19.05
21.86
23.89
25.04
25.21
24.44
22.88
20.86
18.67
16.57
14.6
12.75
10.85
8.88
6.89
5.03
3.49
2.34
1.54
0.96
0.41
-0.23
-1.02
-1.93
-2.93
-3.97
-5
-5.98
-6.88
-7.6
-8.12
-8.41
-8.48
-8.29
-7.86
-7.18
-6.28
-5.25
-4.22
-3.25
-2.35
-1.46
-0.5
0.57
1.68
2.66
3.35
3.65
3.62
3.4
3.17
3.06
3.12
3.32
3.61
3.91
4.23
4.52
4.72
4.74
4.55
4.13
3.59
3.08
2.7
2.54
2.51
2.53
2.57
2.65
2.92
3.5
4.39
5.45
6.45
7.22
7.68
7.91
8.05
8.31
8.83
9.64
10.55
11.36
11.88
12.1
12.11
12.12
12.43
13.23
14.41
15.6
16.38
16.49
15.99
15.2
14.51
14.61
15.97
18.39
20.97
22.63
22.6
20.94
18.09
14.72
12.13
11.04
10.75
9.17
3.53
-8.04
-25.63
-48.32
-74.51
-100.74
-123.46
-140.03
-149.21
-150.76
-144.92
-131.52
-111.09
-84.35
-49.9
-6.1
47.08
106.86
168.01
224.05
269.75
300.78
303.98
272.03
209.87
134.06
62.16
6.42
-35.78
-68.21
-93.93
-115
-129
-134.21
-130.68
-120.71
-107.49
-93.93
-80.75
-68.07
-55.58
-41.57
-24.96
-6.37
11.59
25.71
33.49
35.01
31.66
25.59
19.78
16.31
15.71
16.79
17.75
17.12
14.87
11.66
8.32
5.96
5.14
5.73
7.01
8.09
8.43
8.24
7.95
8.01
8.81
10.35
12.23
13.83
14.51
13.87
12.1
9.67
7.18
5.1
3.57
2.44
1.36
0
-1.78
-3.91
-6.13
-8.19
-9.98
-11.55
-12.99
-14.34
-15.51
-16.33
-16.68
-16.59
-16.17
-15.61
-14.94
-14.06
-12.8
-11
-8.68
-6.04
-3.46
-1.26
0.31
1.2
1.5
1.39
1.04
0.57
0.04
-0.57
-1.28
-2.07
-2.81
-3.25
-3.05
-1.94
0.15
2.92
5.79
8.11
9.41
9.61
8.98
7.92
6.8
5.71
4.56
3.13
1.4
-0.5
-2.27
-3.61
-4.42
-4.78
-5.01
-5.48
-6.36
-7.58
-8.81
-9.61
-9.71
-9.13
-8.19
-7.32
-6.82
-6.77
-7.05
-7.51
-8.15
-9.1
-10.5
-12.29
-14.17
-15.6
-16.08
-15.37
-13.58
-11.09
-8.4
-5.93
-3.9
-2.27
-0.87
0.46
1.67
2.47
2.53
1.72
0.33
-1.03
-1.63
-1.03
0.65
2.7
4.24
4.77
4.42
3.92
4.22
5.92
8.89
12.42
15.49
17.34
17.79
17.06
15.55
13.48
10.8
7.34
3.19
-1.12
-4.7
-6.7
-6.79
-5.36
-3.37
-1.94
-1.82
-3
-4.77
-6.12
-6.31
-5.17
-3.09
-0.76
1.24
2.77
4.13
5.77
7.97
10.56
12.95
14.36
14.33
12.84
10.55
8.38
7.19
7.36
8.81
11.14
13.9
16.76
19.37
21.11
20.97
17.69
10.46
-0.57
-13.97
-27.67
-39.92
-50.13
-59.07
-68.14
-78.04
-87.86
-95.27
-97.64
-93.56
-83.65
-70.08
-55.24
-40.35
-25.15
-8.62
9.68
28.91
47.09
62.27
73.61
81.71
87.96
93.42
98.12
101.03
100.86
96.9
89.49
79.71
68.75
57.47
46.15
34.78
23.37
12.19
1.6
-8
-16.41
-23.62
-29.61
-34.37
-37.84
-40.1
-41.38
-42.17
-43.01
-44.36
-46.33
-48.7
-50.91
-52.26
-52.1
-50.12
-46.4
-41.51
-36.23
-31.31
-27.01
-23.06
-18.86
-13.77
-7.72
-1.39
3.96
6.95
6.58
2.72
-3.85
-11.74
-19.34
-25.32
-28.73
-29.01
-26.16
-20.88
-14.58
-8.99
-5.57
-4.82
-6.07
-7.77
-8.41
-7.36
-5.6
-5.17
-8
-14.85
-24.84
-35.95
-45.91
-53.09
-56.74
-57.06
-54.21
-47.98
-38.11
-24.94
-9.73
5.35
18.38
28.43
35.04
38.79
41.16
43.8
47.7
53.07
58.84
63.81
67.1
66.95
62.42
53.83
42.42
29.29
15.06
-1.05
-19.61
-40.44
-64.47
-91.66
-120.57
-148.55
-172.99
-191.75
-204.7
-212
-202.64
-171.15
-120.9
-63.3
-9.89
30.18
60.5
84.85
105.86
125.43
141.8
153.17
159.32
161.93
163.37
165.9
169.35
172.52
174.14
171.64
163.26
148.96
130.54
110.63
91.84
74.9
59.87
47.22
36.52
27.17
18.36
9.21
-1.16
-13.02
-27.1
-43.62
-61.04
-78.1
-94.21
-109.68
-124.86
-139.02
-149.23
-151.87
-143.39
-120.17
-81.3
-29.18
30.84
92.41
149.84
199.34
237.59
254.92
243.81
205.55
151.41
94.98
46.26
5.22
-29.24
-58.87
-86.12
-108.12
-123.27
-131.2
-133.04
-130.33
-124.33
-114.91
-102.06
-86.24
-67.44
-46.88
-26.92
-10.82
-1.26
0.75
-3.24
-10.47
-18.04
-22.95
-23.67
-20.17
-13.64
-5.44
3.6
13.78
25.51
38.86
53.77
69.48
84.93
98.88
110.33
118.65
123.67
125.39
123.65
118.59
110.22
98.72
84.49
68.03
50.08
31.44
12.9
-5
-21.78
-36.97
-50
-60.17
-67.14
-71.13
-73.01
-73.89
-74.78
-76.3
-78.56
-81.38
-84.45
-87.58
-90.45
-92.61
-93.41
-92.19
-88.55
-82.54
-74.62
-65.41
-55.49
-45.24
-34.96
-24.89
-15.3
-6.43
1.41
7.99
13.13
16.74
18.88
19.7
19.52
18.74
17.89
17.26
16.8
15.93
13.6
8.63
0.23
-11.55
-25.68
-40.48
-54.2
-65.55
-73.79
-78.61
-79.9
-77.75
-72.46
-64.64
-55.08
-44.3
-32.06
-17.21
1.78
25.65
53.47
82.33
107.91
126.01
133.94
131.2
119.34
100.79
77.87
52.11
24.5
-4
-31.84
-56.88
-76.86
-90.31
-97.02
-97.81
-94.03
-86.79
-76.66
-63.57
-47.3
-28
-6.52
15.71
37.12
56.43
72.98
86.74
98.1
107.44
114.76
119.55
120.96
118.05
110.21
97.38
80.17
59.79
37.81
15.9
-4.42
-21.96
-36.01
-46.41
-53.44
-57.68
-59.83
-60.47
-60.16
-59.34
-58.48
-58.11
-58.71
-60.44
-62.95
-65.55
-67.34
-67.59
-65.85
-62.13
-56.74
-50.21
-42.95
-35.21
-27.16
-18.98
-10.88
-3.12
4.09
10.35
15.39
19.14
21.7
23.37
24.44
25.29
26.28
27.8
29.69
31.59
33.24
34.64
35.87
36.99
38.07
39.33
41.2
43.15
44.52
44.88
44.58
44.23
44.36
45.4
47.72
51.7
56.14
59.46
60.72
60.1
58.17
55
50.1
42.7
31.99
15.62
-8.72
-41.59
-81.08
-123.83
-166.52
-206.31
-241.1
-258.26
-247.86
-210.14
-156.52
-101.06
-52.86
-15.43
11.31
29.04
40.29
46.45
48.35
47.65
47.16
49.56
55.86
66.18
79.01
92.71
105.17
114.14
118.74
119.88
119.31
118.47
118.38
119.44
117.66
112.51
103.27
89.35
71.14
50.01
27.83
6.6
-12.06
-27.2
-38.4
-46.51
-52.34
-57.03
-59.9
-60.37
-58.34
-54.24
-48.92
-42.86
-36.93
-31.66
-27.12
-23.06
-19.46
-16.63
-15.12
-15.48
-17.95
-23.06
-31.38
-42.67
-56.56
-72.52
-89.71
-107.01
-123.06
-136.32
-145.47
-149.32
-146.94
-137.88
-122.36
-101.28
-76.07
-48.52
-20.24
7.44
33.64
57.88
79.65
98.3
113.06
123.21
128.1
127.46
121.49
110.91
96.92
80.91
64.24
48.01
32.98
19.37
6.89
-5.13
-17.39
-30.2
-43.09
-54.62
-62.58
-64.61
-59.13
-45.89
-26.26
-3.04
20.41
40.93
56.28
65.47
68.8
67.46
63.08
57.34
51.46
46.17
41.72
38.15
35.34
33.21
31.57
30.21
28.93
27.57
26.22
25.16
24.71
25
25.84
26.67
26.72
25.28
21.89
16.54
9.55
1.51
-6.98
-15.36
-23.25
-30.39
-36.57
-41.66
-45.41
-47.61
-48.12
-46.96
-44.4
-40.85
-36.87
-32.91
-29.31
-26.22
-23.62
-21.37
-19.29
-17.2
-15
-12.56
-9.82
-6.81
-3.47
0.21
4.14
8.14
11.93
15.15
17.4
18.41
18.03
16.31
13.5
9.98
6.2
2.55
-0.58
-3
-4.55
-5.15
-4.79
-3.42
-1.13
1.86
5.24
8.67
11.94
14.95
17.78
20.53
23.3
26.05
28.65
30.92
32.75
34.12
35.11
35.78
36.03
35.68
34.48
32.34
29.4
25.92
22.19
18.24
13.88
8.64
2.15
-5.71
-14.69
-24.29
-34.03
-43.61
-52.97
-62.1
-70.94
-79.12
-86.02
-90.83
-92.8
-91.44
-86.69
-79.04
-69.43
-59.05
-49.12
-40.53
-33.74
-28.64
-24.81
-21.65
-18.64
-15.5
-12.09
-8.42
-4.45
-0.17
4.45
9.3
14.19
18.92
23.23
27.03
30.3
33.09
35.51
37.64
39.57
41.37
43.19
45.14
47.33
49.81
52.51
55.23
57.64
59.41
60.21
59.79
58.01
54.87
50.46
45
38.84
32.49
26.47
21.32
17.4
14.82
13.49
13.17
13.61
14.62
16.01
17.56
18.94
19.71
19.43
17.91
15.18
11.57
7.55
3.49
-0.38
-3.95
-7.19
-10.04
-12.37
-14.16
-15.41
-16.23
-16.82
-17.32
-17.78
-18.14
-18.38
-18.55
-18.8
-19.27
-19.95
-20.67
-21.09
-20.87
-19.82
-18.02
-15.68
-13.05
-10.21
-7.11
-3.68
0.13
4.21
8.34
12.29
15.88
19.05
21.8
24.19
26.24
27.99
29.43
30.54
31.22
31.38
30.89
29.72
27.89
25.51
22.7
19.55
16.13
12.41
8.34
3.88
-1.01
-6.26
-11.7
-17.01
-21.78
-25.68
-28.43
-30.03
-30.69
-30.7
-30.35
-29.8
-29.09
-28.16
-26.93
-25.38
-23.57
-21.67
-19.89
-18.46
-17.49
-16.97
-16.79
-16.66
-16.35
-15.7
-14.66
-13.3
-11.71
-10
-8.29
-6.65
-5.12
-3.73
-2.52
-1.55
-0.78
-0.23
0.22
0.62
1.02
1.4
1.73
2
2.23
2.46
2.74
3.06
3.35
3.55
3.69
3.83
4.05
4.4
4.82
5.19
5.42
5.46
5.39
5.32
5.33
5.42
5.57
5.67
5.71
5.7
5.74
5.97
6.46
7.21
8.19
9.27
10.27
11
11.26
10.92
9.93
8.38
6.37
4.11
1.76
-0.55
-2.69
-4.59
-6.21
-7.52
-8.47
-9.07
-9.25
-8.97
-8.28
-7.27
-6.12
-5.04
-4.15
-3.47
-2.92
-2.34
-1.68
-0.93
-0.13
0.65
1.4
2.19
3.11
4.15
5.33
6.52
7.62
8.54
9.2
9.58
9.64
9.4
8.84
8.06
7.16
6.26
5.44
4.72
4.06
3.38
2.68
2
1.47
1.2
1.23
1.51
1.9
2.26
2.53
2.71
2.83
2.83
2.6
1.96
0.84
-0.75
-2.71
-4.93
-7.34
-9.95
-12.78
-15.76
-18.69
-21.22
-23.03
-23.82
-23.41
-21.76
-18.95
-15.15
-10.61
-5.77
-1.13
2.88
5.92
7.85
8.77
8.91
8.56
8
7.38
6.78
6.2
5.61
4.99
4.33
3.64
2.97
2.33
1.79
1.39
1.14
1.02
1.01
1.09
1.3
1.66
2.15
2.67
3.11
3.32
3.19
2.78
2.18
1.52
0.91
0.36
-0.16
-0.65
-1.12
-1.54
-1.85
-2.01
-2.02
-1.93
-1.76
-1.57
-1.33
-1.03
-0.63
-0.13
0.37
0.74
0.82
0.6
0.12
-0.4
-0.75
-0.78
-0.45
0.09
0.59
0.8
0.66
0.24
-0.19
-0.36
0.05
1.19
3.12
5.8
9.07
12.71
16.37
19.59
21.85
22.8
22.25
20.35
17.42
13.86
10.04
6.27
2.79
-0.25
-2.68
-4.38
-5.38
-5.84
-6
-6.12
-6.37
-6.78
-7.3
-7.83
-8.3
-8.69
-9.06
-9.54
-10.21
-11.11
-12.15
-13.24
-14.23
-15.09
-15.9
-16.79
-17.96
-19.48
-21.34
-23.37
-25.37
-27.12
-28.49
-29.45
-29.99
-30.13
-29.85
-28.99
-27.35
-24.81
-21.33
-17.07
-12.33
-7.47
-2.84
1.36
5.09
8.43
11.42
14.04
16.15
17.63
18.43
18.57
18.27
17.71
17.04
16.25
15.27
13.99
12.36
10.48
8.52
6.67
5.13
3.95
3.13
2.63
2.36
2.25
2.27
2.36
2.46
2.56
2.69
2.81
2.94
3.04
3.09
3.15
3.27
3.49
3.73
3.87
3.78
3.39
2.82
2.24
1.92
1.96
2.31
2.77
3.09
3.06
2.57
1.68
0.56
-0.58
-1.53
-2.16
-2.38
-2.2
-1.59
-0.54
0.96
2.88
5.12
7.57
10.14
12.82
15.6
18.47
21.23
23.59
25.17
25.67
24.94
23.1
20.44
17.27
13.86
10.35
6.81
3.32
0
-2.97
-5.48
-7.43
-8.9
-10.02
-11.02
-12.06
-13.22
-14.45
-15.64
-16.73
-17.73
-18.76
-19.95
-21.36
-22.91
-24.36
-25.38
-25.62
-24.84
-22.85
-19.65
-15.31
-10.05
-4.16
1.97
7.92
13.34
17.97
21.7
24.55
26.64
28.13
29.18
29.92
30.46
30.89
31.3
31.84
32.56
33.47
34.44
35.27
35.74
35.77
35.36
34.7
34
33.34
32.77
32.23
31.63
30.89
30.07
29.15
28.1
26.81
25.18
23.09
20.44
17.13
13.08
8.26
2.66
-3.64
-10.5
-17.73
-25.12
-32.54
-39.92
-47.21
-54.3
-60.97
-66.71
-70.94
-73.07
-72.66
-69.62
-64.21
-56.97
-48.54
-39.61
-30.63
-21.86
-13.52
-5.89
0.66
5.62
8.53
9.12
7.44
3.97
-0.61
-5.51
-10.07
-13.85
-16.68
-18.57
-19.77
-20.63
-21.5
-22.63
-24.01
-25.39
-26.32
-26.34
-25.07
-22.45
-18.6
-13.87
-8.65
-3.33
1.89
6.85
11.49
15.8
19.8
23.51
26.89
29.81
32.02
33.21
33.04
31.24
27.72
22.68
16.63
10.24
4.29
-0.58
-3.99
-5.87
-6.39
-5.85
-4.55
-2.62
-0.21
2.68
5.88
9.18
12.2
14.57
15.88
15.91
14.59
12.06
8.61
4.63
0.52
-3.37
-6.78
-9.56
-11.63
-13.04
-13.9
-14.39
-14.7
-14.98
-15.26
-15.45
-15.45
-15.13
-14.51
-13.75
-13.06
-12.6
-12.45
-12.51
-12.63
-12.67
-12.52
-12.19
-11.74
-11.24
-10.79
-10.47
-10.28
-10.17
-10.02
-9.65
-8.9
-7.75
-6.22
-4.46
-2.64
-0.93
0.51
1.52
1.98
1.76
0.76
-0.99
-3.32
-5.96
-8.55
-10.76
-12.36
-13.23
-13.34
-12.67
-11.18
-8.84
-5.59
-1.45
3.48
8.99
14.86
20.8
26.48
31.56
35.73
38.7
40.28
40.44
39.27
36.99
33.84
30.09
25.94
21.49
16.81
11.98
7.11
2.41
-1.87
-5.46
-8.23
-10.28
-11.88
-13.46
-15.39
-17.95
-21.21
-25.07
-29.29
-33.54
-37.48
-40.8
-43.23
-44.59
-44.83
-43.97
-42.05
-39.05
-34.89
-29.5
-22.99
-15.56
-7.63
0.36
8.09
15.23
21.57
26.88
30.97
33.68
34.91
34.69
33.21
30.74
27.55
23.9
20.02
16.17
12.57
9.42
6.8
4.76
3.29
2.31
1.79
1.68
1.89
2.3
2.72
3.02
3.06
2.82
2.31
1.6
0.83
0.04
-0.66
-1.2
-1.47
-1.41
-0.97
-0.15
0.97
2.3
3.68
4.95
5.98
6.63
6.87
6.69
6.17
5.42
4.55
3.67
2.84
2.13
1.52
0.97
0.4
-0.24
-0.95
-1.65
-2.21
-2.5
-2.5
-2.23
-1.74
-1.02
-0.08
1.17
2.73
4.54
6.54
8.59
10.6
12.53
14.35
15.98
17.35
18.41
19.23
19.91
20.56
21.16
21.59
21.68
21.27
20.3
18.84
17.08
15.27
13.56
12.06
10.84
9.99
9.59
9.65
10.04
10.51
10.85
10.98
11.06
11.33
11.96
12.72
12.98
11.83
8.49
2.72
-5.16
-14.3
-23.71
-32.5
-40.07
-46.01
-50.13
-52.35
-52.79
-51.77
-49.71
-47
-43.99
-40.76
-37.33
-33.73
-30.03
-26.32
-22.64
-18.95
-15.23
-11.55
-8.07
-5
-2.48
-0.52
0.99
2.23
3.34
4.38
5.29
6.02
6.52
6.79
6.87
6.82
6.72
6.6
6.55
6.63
6.91
7.39
7.97
8.56
9.03
9.35
9.51
9.55
9.42
9.09
8.56
7.9
7.24
6.69
6.29
5.97
5.58
5.01
4.26
3.48
2.85
2.57
2.67
3.1
3.75
4.57
5.5
6.52
7.64
8.8
9.97
11.12
12.28
13.46
14.7
16.04
17.49
19.04
20.75
22.68
24.89
27.44
30.26
33.28
36.4
39.52
42.64
45.81
49.13
52.6
56.14
59.58
62.65
65.22
67.21
68.65
69.48
69.39
67.74
63.69
56.57
46.01
32.1
15.18
-4.33
-26.03
-49.32
-73.11
-95.74
-115.33
-130.24
-139.51
-143.09
-141.43
-135.1
-124.5
-109.92
-92.08
-72.48
-53.36
-37.12
-25.55
-19.24
-17.42
-18.4
-20.32
-21.75
-22.02
-21.09
-19.24
-16.81
-13.96
-10.85
-7.63
-4.49
-1.72
0.52
2.24
3.62
4.97
6.56
8.52
10.75
13.02
15.05
16.62
17.69
18.25
18.44
18.37
18.15
17.81
17.3
16.53
15.38
13.83
11.97
10
8.15
6.56
5.19
3.89
2.46
0.74
-1.35
-3.76
-6.35
-9.04
-11.66
-14.09
-16.16
-17.68
-18.56
-18.75
-18.29
-17.25
-15.69
-13.65
-11.14
-8.2
-4.92
-1.49
1.9
5.1
8.01
10.61
12.88
14.81
16.36
17.53
18.28
18.63
18.59
18.16
17.36
16.24
14.86
13.37
11.95
10.69
9.68
8.86
8.14
7.45
6.74
6.03
5.39
4.92
4.66
4.63
4.77
4.89
4.85
4.51
3.85
2.97
2.05
1.26
0.7
0.35
-0.01
-0.53
-1.37
-2.5
-3.82
-5.17
-6.4
-7.46
-8.36
-9.1
-9.56
-9.59
-9.02
-7.81
-6.04
-3.93
-1.69
0.54
2.79
5.15
7.67
10.3
12.84
15.01
16.53
17.2
16.97
15.87
14.08
11.75
9.06
6.16
3.25
0.5
-1.91
-3.83
-5.05
-5.45
-4.9
-3.36
-0.85
2.45
6.25
10.14
13.57
16.09
17.36
17.25
15.86
13.43
10.2
6.37
2.03
-2.75
-7.79
-12.75
-17.17
-20.61
-22.8
-23.79
-23.81
-23.13
-21.86
-19.89
-16.97
-12.82
-7.36
-0.8
6.4
13.65
20.47
26.45
31.32
34.82
36.72
36.97
35.54
32.71
28.78
23.96
18.32
11.8
4.48
-3.35
-10.93
-17.45
-22.27
-25.2
-26.59
-27.1
-27.46
-28.1
-29.18
-30.67
-32.39
-34.29
-36.28
-38.2
-39.72
-40.41
-39.82
-37.65
-33.92
-28.93
-23.15
-17.12
-11.29
-5.89
-1.03
3.36
7.37
10.99
14.13
16.65
18.42
19.35
19.57
19.31
18.83
18.29
17.68
16.95
15.95
14.71
13.29
11.86
10.59
9.55
8.7
7.94
7.19
6.39
5.55
4.76
4.12
3.74
3.7
4
4.57
5.3
6.09
6.82
7.42
7.88
8.24
8.56
8.9
9.24
9.53
9.7
9.7
9.48
9.02
8.27
7.19
5.81
4.21
2.56
1.05
-0.14
-0.96
-1.48
-1.81
-2.08
-2.39
-2.73
-3.09
-3.42
-3.68
-3.82
-3.85
-3.77
-3.61
-3.45
-3.37
-3.51
-3.83
-4.3
-4.78
-5.12
-5.25
-5.16
-4.94
-4.61
-4.27
-3.82
-3.23
-2.43
-1.4
-0.2
1.05
2.27
3.38
4.35
5.19
5.88
6.41
6.78
6.98
7.05
7.05
7.07
7.12
7.18
7.18
7.02
6.67
6.13
5.51
4.96
4.62
4.57
4.83
5.3
5.81
6.17
6.2
5.75
4.77
3.33
1.55
-0.39
-2.31
-4.07
-5.59
-6.95
-8.29
-9.82
-11.73
-14.11
-16.92
-20
-23.1
-26
-28.4
-30.02
-30.58
-29.83
-27.69
-24.35
-20.2
-15.76
-11.56
-7.98
-5.17
-3.07
-1.52
-0.33
0.65
1.5
2.19
2.61
2.6
2.02
0.84
-0.85
-2.9
-5.04
-7.08
-8.8
-10.08
-10.79
-10.9
-10.39
-9.37
-8.02
-6.57
-5.2
-4.06
-3.17
-2.43
-1.73
-0.9
0.24
1.8
3.86
6.38
9.19
12.03
14.59
16.65
18.08
18.99
19.6
20.16
20.83
21.54
22.07
22.1
21.46
20.07
18.14
15.9
13.55
11.19
8.83
6.47
4.23
2.31
0.93
0.27
0.35
1.06
2.17
3.46
4.75
5.91
6.88
7.58
7.95
7.94
7.51
6.7
5.63
4.5
3.51
2.87
2.6
2.63
2.81
3.03
3.26
3.6
4.21
5.18
6.49
7.93
9.3
10.43
11.34
12.2
13.17
14.3
15.59
16.88
18
18.79
19.15
19.05
18.44
17.31
15.6
13.31
10.41
6.91
2.77
-2.06
-7.72
-14.18
-21.26
-28.49
-35.21
-40.73
-44.57
-46.52
-46.7
-45.44
-43.12
-40.05
-36.47
-32.54
-28.39
-24.14
-19.81
-15.46
-11.1
-6.83
-2.74
1.03
4.4
7.36
9.95
12.28
14.39
16.22
17.53
18.05
17.58
16.09
13.76
10.84
7.62
4.31
1.04
-2
-4.66
-6.75
-8.13
-8.68
-8.41
-7.37
-5.68
-3.52
-1.05
1.49
3.82
5.63
6.66
6.75
5.93
4.41
2.47
0.5
-1.22
-2.5
-3.27
-3.56
-3.45
-3.07
-2.51
-1.93
-1.47
-1.18
-1.01
-0.86
-0.55
0
0.77
1.6
2.26
2.6
2.56
2.24
1.79
1.43
1.27
1.39
1.85
2.56
3.44
4.31
4.97
5.27
5.22
4.93
4.57
4.33
4.28
4.43
4.71
5.08
5.51
5.97
6.4
6.68
6.76
6.56
6.16
5.65
5.12
4.63
4.17
3.71
3.21
2.71
2.21
1.74
1.28
0.79
0.27
-0.26
-0.76
-1.11
-1.31
-1.37
-1.35
-1.34
-1.41
-1.56
-1.72
-1.8
-1.69
-1.4
-1.05
-0.8
-0.82
-1.18
-1.81
-2.49
-3
-3.22
-3.22
-3.22
-3.42
-3.95
-4.76
-5.62
-6.27
-6.51
-6.32
-5.79
-5.13
-4.46
-3.89
-3.41
-3
-2.64
-2.35
-2.15
-2.01
-1.91
-1.76
-1.55
-1.25
-0.97
-0.77
-0.8
-1.12
-1.72
-2.52
-3.36
-4.06
-4.49
-4.63
-4.59
-4.51
-4.47
-4.43
-4.2
-3.61
-2.56
-1.09
0.61
2.34
3.94
5.33
6.42
7.12
7.21
6.59
5.21
3.27
1.16
-0.72
-2.13
-3.02
-3.55
-3.92
-4.19
-4.31
-4.11
-3.48
-2.36
-0.83
0.98
2.93
4.9
6.8
8.48
9.72
10.24
9.86
8.56
6.56
4.24
2.01
0.15
-1.2
-2.08
-2.63
-3.07
-3.54
-4.17
-4.97
-5.82
-6.54
-6.89
-6.78
-6.23
-5.48
-4.71
-4.07
-3.49
-2.86
-2.07
-1.12
-0.18
0.58
1.08
1.33
1.44
1.56
1.73
1.9
2
1.94
1.72
1.45
1.3
1.41
1.94
2.82
3.96
5.17
6.23
6.97
7.32
7.32
7.04
6.63
6.17
5.71
5.29
4.89
4.47
4.07
3.7
3.35
3.09
2.89
2.74
2.59
2.34
1.91
1.32
0.61
-0.12
-0.72
-1.14
-1.36
-1.43
-1.45
-1.42
-1.4
-1.42
-1.52
-1.7
-2.05
-2.48
-2.95
-3.37
-3.67
-3.87
-4.03
-4.24
-4.58
-5.09
-5.74
-6.43
-7.04
-7.43
-7.51
-7.23
-6.54
-5.47
-4.07
-2.41
-0.6
1.16
2.71
3.87
4.61
4.97
5.06
4.97
4.8
4.52
4.06
3.45
2.68
1.9
1.21
0.7
0.38
0.24
0.24
0.33
0.51
0.72
0.9
1
0.96
0.79
0.5
0.1
-0.4
-0.94
-1.44
-1.81
-1.92
-1.73
-1.29
-0.72
-0.17
0.26
0.62
0.92
1.17
1.35
1.39
1.23
0.87
0.4
-0.14
-0.62
-1
-1.32
-1.63
-1.98
-2.42
-2.93
-3.39
-3.65
-3.57
-3.08
-2.27
-1.29
-0.36
0.37
0.85
1.11
1.31
1.51
1.78
2.06
2.32
2.51
2.6
2.64
2.65
2.67
2.73
2.85
3.03
3.32
3.71
4.15
4.6
4.97
5.16
5.13
4.88
4.44
3.85
3.13
2.29
1.28
0.08
-1.27
-2.56
-3.6
-4.19
-4.31
-4.08
-3.69
-3.36
-3.18
-3.15
-3.16
-3.13
-3.02
-2.87
-2.72
-2.55
-2.32
-1.94
-1.38
-0.67
0.04
0.65
1.03
1.18
1.21
1.22
1.31
1.5
1.75
2.03
2.35
2.75
3.25
3.88
4.56
5.18
5.57
5.69
5.56
5.34
5.19
5.2
5.33
5.46
5.43
5.13
4.55
3.83
3.07
2.36
1.68
1.04
0.39
-0.24
-0.82
-1.31
-1.67
-1.9
-2.09
-2.32
-2.63
-3.06
-3.55
-4.01
-4.38
-4.6
-4.75
-4.89
-5.13
-5.52
-6.04
-6.67
-7.37
-8.12
-8.97
-9.97
-11.2
-12.67
-14.3
-15.94
-17.29
-18.12
-18.28
-17.68
-16.32
-14.2
-11.31
-7.69
-3.43
1.24
5.99
10.46
14.39
17.68
20.36
22.53
24.27
25.55
26.21
26.1
25.07
23.1
20.36
17.15
13.83
10.73
8.04
5.79
3.9
2.24
0.72
-0.71
-2.01
-3.12
-4.04
-4.8
-5.53
-6.25
-6.93
-7.45
-7.73
-7.69
-7.41
-7.04
-6.78
-6.74
-6.87
-7.1
-7.23
-7.12
-6.75
-6.15
-5.35
-4.45
-3.49
-2.52
-1.63
-0.91
-0.43
-0.25
-0.36
-0.65
-0.99
-1.22
-1.23
-0.98
-0.49
0.15
0.89
1.69
2.54
3.51
4.57
5.72
6.88
8.01
8.97
9.65
9.88
9.55
8.59
7.09
5.23
3.28
1.48
0
-1.11
-1.93
-2.53
-2.95
-3.23
-3.36
-3.37
-3.34
-3.34
-3.45
-3.73
-4.18
-4.76
-5.4
-6.07
-6.75
-7.44
-8.16
-8.86
-9.48
-9.89
-9.94
-9.55
-8.68
-7.41
-5.86
-4.12
-2.24
-0.27
1.79
3.85
5.82
7.63
9.2
10.54
11.69
12.72
13.71
14.78
16
17.36
18.84
20.37
21.86
23.21
24.32
25.15
25.67
25.89
25.83
25.58
25.2
24.79
24.34
23.76
22.88
21.47
19.27
16.15
12.07
7.17
1.66
-4.13
-9.92
-15.42
-20.38
-24.57
-27.8
-29.99
-31.14
-31.34
-30.74
-29.5
-27.8
-25.83
-23.81
-21.94
-20.44
-19.46
-19.04
-19.13
-19.61
-20.27
-20.86
-21.14
-20.8
-19.63
-17.52
-14.5
-10.83
-6.85
-2.92
0.65
3.7
6.15
8.01
9.31
10.04
10.16
9.65
8.46
6.66
4.43
2.03
-0.26
-2.12
-3.34
-3.8
-3.44
-2.33
-0.63
1.36
3.26
4.72
5.53
5.73
5.59
5.51
5.8
6.6
7.83
9.25
10.61
11.79
12.73
13.49
14.03
14.31
14.2
13.57
12.29
10.35
7.79
4.73
1.37
-2.08
-5.47
-8.66
-11.54
-14.08
-16.19
-17.81
-18.88
-19.33
-19.12
-18.28
-16.9
-15.15
-13.3
-11.6
-10.3
-9.62
-9.68
-10.47
-11.96
-14
-16.43
-18.97
-21.26
-22.97
-23.77
-23.59
-22.53
-20.83
-18.83
-16.79
-14.88
-13.14
-11.6
-10.3
-9.25
-8.43
-7.74
-7.04
-6.23
-5.32
-4.36
-3.47
-2.69
-1.95
-1.15
-0.17
1.04
2.49
4.07
5.71
7.29
8.71
9.83
10.55
10.86
10.79
10.51
10.17
9.93
9.76
9.66
9.52
9.3
9.04
8.79
8.56
8.33
8.05
7.7
7.34
7.02
6.82
6.72
6.63
6.42
5.96
5.21
4.26
3.25
2.33
1.66
1.25
1.02
0.85
0.64
0.37
0.15
0.08
0.18
0.4
0.64
0.72
0.55
0.13
-0.5
-1.27
-2.15
-3.08
-3.95
-4.57
-4.75
-4.41
-3.55
-2.29
-0.75
0.96
2.76
4.58
6.31
7.77
8.82
9.34
9.32
8.81
8.01
7.13
6.41
6.02
6.01
6.25
6.45
6.31
5.6
4.33
2.76
1.23
0.12
-0.36
-0.17
0.43
1.11
1.54
1.5
0.99
0.24
-0.4
-0.62
-0.16
0.95
2.57
4.41
6.21
7.71
8.73
9.13
8.77
7.57
5.51
2.72
-0.68
-4.52
-8.69
-13.07
-17.46
-21.64
-25.29
-28.14
-29.98
-30.74
-30.45
-29.14
-26.83
-23.51
-19.26
-14.31
-9.01
-3.8
1.02
5.31
9.11
12.5
15.52
18.12
20.18
21.63
22.45
22.73
22.59
22.16
21.45
20.45
19.15
17.57
15.81
13.99
12.19
10.43
8.68
6.9
5.05
3.14
1.28
-0.43
-1.85
-2.94
-3.67
-4.05
-4.14
-4.01
-3.72
-3.34
-2.87
-2.26
-1.49
-0.56
0.51
1.52
2.31
2.79
2.92
2.81
2.61
2.44
2.32
2.24
2.11
1.92
1.74
1.7
1.89
2.35
3.04
3.81
4.54
5.14
5.59
5.87
6.04
6.07
5.95
5.65
5.16
4.54
3.87
3.25
2.74
2.35
2.02
1.62
1.07
0.3
-0.68
-1.79
-2.98
-4.21
-5.48
-6.77
-8.01
-9.07
-9.8
-10.14
-10.12
-9.91
-9.7
-9.58
-9.56
-9.5
-9.25
-8.68
-7.67
-6.23
-4.34
-2.04
0.6
3.42
6.22
8.83
11.05
12.83
14.1
14.81
14.93
14.34
13.06
11.16
8.87
6.51
4.39
2.76
1.7
1.13
0.84
0.59
0.2
-0.43
-1.24
-2.16
-3.11
-4.11
-5.19
-6.4
-7.7
-9.04
-10.33
-11.5
-12.56
-13.57
-14.63
-15.77
-17.01
-18.18
-19.09
-19.49
-19.19
-18.22
-16.77
-15.13
-13.57
-12.21
-11.02
-9.83
-8.52
-7.05
-5.47
-3.91
-2.43
-1.06
0.19
1.33
2.27
2.93
3.29
3.37
3.31
3.26
3.37
3.65
4.06
4.47
4.78
4.96
5.06
5.19
5.42
5.74
6.05
6.22
6.13
5.72
5.06
4.25
3.44
2.72
2.14
1.69
1.32
0.95
0.54
0.07
-0.45
-0.98
-1.47
-1.87
-2.13
-2.24
-2.23
-2.22
-2.33
-2.62
-3.06
-3.55
-3.9
-3.98
-3.74
-3.21
-2.48
-1.65
-0.8
0.08
0.96
1.83
2.67
3.45
4.13
4.7
5.15
5.5
5.78
6.01
6.21
6.37
6.51
6.62
6.73
6.82
6.88
6.87
6.7
6.32
5.68
4.84
3.92
3.03
2.28
1.68
1.19
0.75
0.32
-0.08
-0.41
-0.62
-0.69
-0.59
-0.34
0.02
0.43
0.8
1.13
1.37
1.51
1.54
1.43
1.14
0.66
0.06
-0.5
-0.84
-0.81
-0.41
0.27
1.07
1.8
2.41
2.88
3.29
3.7
4.16
4.64
5.09
5.46
5.68
5.73
5.65
5.5
5.31
5.12
4.94
4.76
4.52
4.14
3.59
2.93
2.22
1.59
1.17
1.02
1.05
1.16
1.24
1.22
1.12
0.95
0.78
0.56
0.23
-0.24
-0.81
-1.35
-1.72
-1.84
-1.76
-1.63
-1.6
-1.76
-2.15
-2.62
-3.04
-3.31
-3.39
-3.33
-3.16
-2.87
-2.36
-1.58
-0.45
1.06
2.92
5.08
7.41
9.75
11.91
13.64
14.72
14.99
14.5
13.35
11.75
9.9
7.92
5.89
3.89
1.99
0.26
-1.24
-2.55
-3.73
-4.88
-6.01
-7.06
-7.96
-8.65
-9.19
-9.65
-10.13
-10.65
-11.15
-11.49
-11.59
-11.47
-11.19
-10.89
-10.67
-10.56
-10.51
-10.43
-10.21
-9.71
-8.86
-7.65
-6.18
-4.69
-3.44
-2.68
-2.53
-2.96
-3.8
-4.83
-5.83
-6.7
-7.41
-7.96
-8.37
-8.58
-8.58
-8.33
-7.77
-6.9
-5.8
-4.61
-3.44
-2.44
-1.62
-0.97
-0.45
0.01
0.44
0.88
1.36
1.94
2.7
3.71
4.99
6.51
8.19
9.86
11.41
12.77
13.94
15.03
16.12
17.27
18.4
19.3
19.75
19.59
18.82
17.52
15.82
13.83
11.6
9.2
6.79
4.66
3.11
2.31
2.23
2.65
3.23
3.74
4.14
4.49
4.95
5.52
6.12
6.5
6.46
5.86
4.76
3.32
1.82
0.48
-0.55
-1.21
-1.56
-1.64
-1.51
-1.2
-0.72
-0.12
0.49
0.98
1.3
1.47
1.65
2.03
2.64
3.44
4.19
4.75
5.06
5.29
5.67
6.39
7.51
8.84
10.13
11.15
11.8
12.1
12.16
12.1
11.94
11.64
11.09
10.23
9.07
7.71
6.26
4.85
3.52
2.22
0.83
-0.8
-2.82
-5.37
-8.52
-12.29
-16.59
-21.22
-25.81
-29.94
-33.07
-34.69
-34.4
-31.86
-27.03
-20.12
-11.66
-2.3
7.15
15.94
23.45
29.27
33.36
35.86
37.04
37.12
36.24
34.5
31.94
28.66
24.73
20.22
15.17
9.6
3.62
-2.62
-8.84
-14.81
-20.33
-25.34
-29.83
-33.78
-37.14
-39.75
-41.51
-42.29
-42.05
-40.75
-38.5
-35.48
-31.93
-28.09
-24.16
-20.28
-16.46
-12.62
-8.54
-4.08
0.81
5.95
10.94
15.27
18.51
20.4
20.99
20.55
19.4
17.82
15.94
13.78
11.34
8.68
6.01
3.56
1.53
-0.03
-1.14
-1.96
-2.64
-3.27
-3.81
-4.22
-4.44
-4.49
-4.45
-4.4
-4.38
-4.39
-4.37
-4.22
-3.91
-3.49
-3.02
-2.6
-2.3
-2.06
-1.82
-1.53
-1.12
-0.66
-0.25
0.02
0.08
-0.04
-0.27
-0.53
-0.78
-1.04
-1.34
-1.71
-2.08
-2.4
-2.54
-2.48
-2.19
-1.72
-1.14
-0.56
-0.08
0.26
0.43
0.47
0.35
0.08
-0.33
-0.85
-1.46
-2.11
-2.67
-3.06
-3.18
-3
-2.6
-2.09
-1.64
-1.4
-1.44
-1.71
-2.1
-2.39
-2.5
-2.4
-2.13
-1.75
-1.23
-0.5
0.48
1.66
2.88
3.88
4.38
4.18
3.26
1.72
-0.22
-2.41
-4.73
-7.01
-9.14
-10.98
-12.4
-13.34
-13.74
-13.47
-12.52
-10.82
-8.34
-5.14
-1.27
3.03
7.47
11.71
15.42
18.2
19.71
19.78
18.27
15.41
11.57
7.24
2.92
-0.96
-4.12
-6.4
-7.72
-8.17
-7.91
-7.18
-6.29
-5.46
-4.78
-4.29
-3.98
-3.83
-3.93
-4.32
-4.98
-5.87
-6.87
-7.88
-8.83
-9.68
-10.41
-10.96
-11.31
-11.4
-11.21
-10.74
-9.97
-8.84
-7.29
-5.28
-2.84
-0.15
2.52
4.9
6.75
7.96
8.53
8.51
8
7.12
5.97
4.71
3.46
2.37
1.58
1.09
0.83
0.64
0.36
-0.11
-0.78
-1.55
-2.27
-2.76
-2.9
-2.69
-2.18
-1.48
-0.74
-0.08
0.46
0.89
1.27
1.67
2.13
2.68
3.32
4.01
4.63
5.06
5.2
5.01
4.63
4.22
4.02
4.09
4.35
4.63
4.73
4.54
4.03
3.25
2.27
1.13
-0.1
-1.39
-2.62
-3.72
-4.61
-5.25
-5.66
-5.95
-6.27
-6.77
-7.48
-8.38
-9.3
-10.08
-10.57
-10.77
-10.83
-10.91
-11.15
-11.53
-11.86
-11.87
-11.34
-10.12
-8.28
-6.04
-3.64
-1.4
0.48
1.83
2.6
2.8
2.56
2.02
1.31
0.57
-0.1
-0.65
-1.07
-1.43
-1.83
-2.36
-3.05
-3.87
-4.73
-5.53
-6.16
-6.5
-6.5
-6.16
-5.5
-4.62
-3.63
-2.65
-1.76
-0.97
-0.29
0.26
0.64
0.82
0.74
0.46
0
-0.59
-1.23
-1.88
-2.46
-2.95
-3.36
-3.71
-4
-4.25
-4.42
-4.4
-4.11
-3.45
-2.38
-0.95
0.68
2.34
3.84
5.08
5.99
6.57
6.86
6.93
6.86
6.73
6.63
6.59
6.58
6.54
6.38
6.11
5.78
5.51
5.4
5.5
5.72
5.97
6.21
6.39
6.52
6.59
6.56
6.37
6.03
5.55
5.03
4.61
4.35
4.26
4.38
4.68
5.15
5.78
6.48
7.08
7.43
7.35
6.76
5.65
4.09
2.14
0.01
-2.1
-3.9
-5.13
-5.6
-5.28
-4.35
-3.05
-1.61
-0.18
1.2
2.53
3.74
4.69
5.22
5.17
4.45
3.13
1.31
-0.87
-3.27
-5.66
-7.71
-9.04
-9.34
-8.42
-6.32
-3.24
0.46
4.47
8.48
12.26
15.56
18.04
19.38
19.18
17.21
13.43
8.04
1.46
-5.68
-12.69
-18.92
-23.81
-27.05
-28.51
-28.26
-26.55
-23.78
-20.38
-16.8
-13.4
-10.4
-7.91
-5.85
-4.04
-2.3
-0.54
1.3
3.17
4.98
6.63
8.02
9.13
10.01
10.74
11.38
11.96
12.41
12.59
12.37
11.67
10.53
9.08
7.51
5.98
4.64
3.53
2.65
1.96
1.43
1.07
0.84
0.72
0.69
0.8
1.05
1.45
1.99
2.58
3.13
3.5
3.57
3.38
3.01
2.62
2.34
2.19
2.1
1.94
1.64
1.19
0.7
0.28
0.03
-0.05
0.05
0.27
0.62
1.06
1.6
2.18
2.75
3.27
3.74
4.1
4.3
4.26
3.93
3.35
2.61
1.9
1.37
1.14
1.13
1.25
1.39
1.51
1.64
1.82
2.07
2.3
2.46
2.47
2.35
2.19
2.07
2.04
2.09
2.16
2.19
2.15
2.04
1.83
1.56
1.24
0.94
0.71
0.61
0.62
0.65
0.63
0.44
0.05
-0.54
-1.26
-2.02
-2.74
-3.35
-3.8
-4.02
-3.97
-3.64
-3.03
-2.18
-1.18
-0.14
0.83
1.64
2.29
2.83
3.38
4.08
5.02
6.24
7.69
9.29
10.92
12.52
14.05
15.47
16.68
17.53
17.89
17.65
16.79
15.39
13.57
11.46
9.16
6.78
4.44
2.29
0.41
-1.17
-2.58
-3.99
-5.55
-7.25
-8.97
-10.54
-11.85
-12.95
-14.1
-15.58
-17.63
-20.27
-23.31
-26.46
-29.46
-32.07
-34.11
-35.36
-35.67
-34.86
-32.91
-29.81
-25.62
-20.52
-14.69
-8.48
-2.28
3.42
8.21
11.84
14.16
15.3
15.47
15
14.22
13.42
12.82
12.52
12.55
12.85
13.34
13.96
14.6
15.13
15.4
15.31
14.79
13.89
12.7
11.37
10.03
8.78
7.63
6.5
5.35
4.12
2.79
1.41
0.05
-1.19
-2.3
-3.23
-3.98
-4.58
-5.03
-5.28
-5.31
-5.1
-4.72
-4.33
-4.06
-3.96
-3.96
-3.85
-3.46
-2.64
-1.42
0.07
1.73
3.51
5.5
7.78
10.33
13.04
15.71
18.15
20.22
21.91
23.24
24.17
24.68
24.65
24.01
22.73
20.85
18.48
15.85
13.14
10.56
8.23
6.15
4.27
2.45
0.65
-1.12
-2.76
-4.2
-5.37
-6.25
-6.83
-7.12
-7.14
-6.98
-6.71
-6.56
-6.75
-7.5
-8.94
-11.16
-14.07
-17.52
-21.23
-24.86
-28.06
-30.46
-31.83
-32.04
-31.14
-29.23
-26.45
-22.94
-18.77
-14.05
-8.88
-3.5
1.79
6.54
10.36
12.96
14.26
14.4
13.71
12.57
11.23
9.83
8.4
7
5.74
4.76
4.15
3.82
3.58
3.15
2.35
1.19
-0.19
-1.51
-2.59
-3.26
-3.52
-3.43
-3.14
-2.78
-2.49
-2.37
-2.44
-2.74
-3.22
-3.85
-4.53
-5.18
-5.72
-6.18
-6.64
-7.06
-7.47
-7.73
-7.67
-7.14
-6.15
-4.84
-3.43
-2.14
-1.08
-0.26
0.36
0.85
1.24
1.49
1.6
1.56
1.43
1.31
1.28
1.48
2.04
3
4.36
6.07
7.96
9.89
11.76
13.51
15.18
16.82
18.35
19.65
20.54
20.77
20.18
18.72
16.44
13.58
10.44
7.28
4.33
1.63
-0.78
-2.99
-5.05
-6.99
-8.77
-10.35
-11.71
-12.84
-13.78
-14.55
-15.16
-15.66
-16.13
-16.67
-17.38
-18.27
-19.21
-20.03
-20.45
-20.29
-19.5
-18.14
-16.36
-14.29
-11.97
-9.33
-6.36
-3.1
0.26
3.36
5.96
7.79
8.77
8.99
8.65
7.97
7.17
6.36
5.64
5.06
4.67
4.51
4.63
4.97
5.4
5.79
6.01
5.98
5.7
5.17
4.45
3.56
2.51
1.37
0.25
-0.68
-1.28
-1.48
-1.33
-0.89
-0.27
0.41
1.09
1.71
2.2
2.55
2.71
2.74
2.75
2.84
3.03
3.27
3.43
3.37
3.02
2.43
1.73
1.02
0.38
-0.19
-0.73
-1.26
-1.8
-2.29
-2.72
-3.08
-3.49
-4
-4.68
-5.42
-6.11
-6.65
-7.02
-7.29
-7.59
-8.01
-8.57
-9.2
-9.78
-10.24
-10.57
-10.69
-10.54
-10.01
-9.03
-7.6
-5.85
-4.04
-2.42
-1.19
-0.36
0.15
0.52
0.87
1.26
1.59
1.73
1.62
1.3
0.96
0.79
0.91
1.27
1.77
2.22
2.52
2.67
2.81
3.08
3.54
4.13
4.7
5.07
5.14
4.94
4.56
4.12
3.71
3.34
2.95
2.52
2.01
1.49
0.99
0.6
0.33
0.2
0.16
0.16
0.23
0.39
0.72
1.26
2.03
2.91
3.81
4.61
5.26
5.78
6.21
6.62
7.03
7.42
7.8
8.16
8.54
8.98
9.48
10.01
10.5
10.91
11.27
11.65
12.15
12.86
13.79
14.94
16.21
17.55
18.83
19.97
20.9
21.55
21.89
21.91
21.64
21.08
20.31
19.38
18.37
17.38
16.48
15.73
15.17
14.76
14.46
14.2
13.85
13.25
12.23
10.63
8.33
5.33
1.7
-2.38
-6.75
-11.21
-15.66
-19.98
-24.06
-27.74
-30.84
-33.26
-34.94
-35.95
-36.38
-36.39
-36.07
-35.46
-34.47
-32.99
-30.89
-28.07
-24.55
-20.44
-15.85
-10.94
-5.87
-0.82
3.95
8.07
11.13
12.78
12.9
11.72
9.64
7.16
4.57
2.02
-0.63
-3.54
-6.73
-10.02
-13.06
-15.53
-17.15
-17.89
-17.79
-16.92
-15.41
-13.34
-10.86
-8.11
-5.32
-2.64
-0.18
2.03
3.99
5.68
7.08
8.11
8.69
8.74
8.21
7.15
5.7
4.05
2.42
1.05
-0.02
-0.76
-1.24
-1.59
-1.92
-2.28
-2.62
-2.93
-3.14
-3.26
-3.36
-3.43
-3.5
-3.5
-3.42
-3.26
-3.07
-2.98
-3.09
-3.44
-4.04
-4.78
-5.54
-6.22
-6.74
-7.03
-7.08
-6.85
-6.33
-5.57
-4.61
-3.46
-2.17
-0.81
0.54
1.81
2.93
3.89
4.69
5.37
5.92
6.32
6.5
6.43
6.12
5.67
5.16
4.67
4.19
3.72
3.23
2.76
2.37
2.11
2.01
2.05
2.16
2.28
2.36
2.41
2.45
2.47
2.44
2.28
1.95
1.44
0.84
0.27
-0.19
-0.5
-0.74
-0.98
-1.3
-1.67
-2.05
-2.31
-2.37
-2.14
-1.64
-0.94
-0.15
0.59
1.18
1.55
1.72
1.71
1.58
1.43
1.35
1.47
1.84
2.45
3.21
3.97
4.61
5.09
5.44
5.75
6.09
6.47
6.84
7.16
7.4
7.6
7.77
7.91
7.95
7.82
7.59
7.39
7.52
8.16
9.48
11.4
13.63
15.83
17.68
18.97
19.66
19.77
19.3
18.23
16.6
14.49
12.12
9.77
7.73
6.14
4.9
3.7
2.15
-0.11
-3.18
-7
-11.42
-16.25
-21.3
-26.38
-31.23
-35.5
-38.79
-40.7
-40.94
-39.49
-36.54
-32.41
-27.48
-22.12
-16.56
-11
-5.63
-0.6
3.87
7.56
10.27
11.87
12.36
11.85
10.59
8.93
7.19
5.58
4.16
2.79
1.32
-0.34
-2.15
-3.99
-5.74
-7.36
-8.92
-10.47
-11.99
-13.3
-14.14
-14.24
-13.53
-12.13
-10.26
-8.19
-6.07
-3.98
-1.93
0.05
1.92
3.58
5
6.18
7.13
7.86
8.33
8.54
8.44
8.05
7.4
6.54
5.56
4.54
3.61
2.85
2.28
1.85
1.5
1.27
1.2
1.38
1.79
2.27
2.62
2.62
2.17
1.37
0.48
-0.32
-0.9
-1.28
-1.61
-1.97
-2.41
-2.83
-3.14
-3.22
-3.09
-2.72
-2.2
-1.6
-0.9
-0.12
0.74
1.56
2.28
2.74
2.97
2.95
2.73
2.4
2.04
1.69
1.4
1.22
1.24
1.51
2.03
2.7
3.43
4.12
4.72
5.23
5.66
6.06
6.42
6.7
6.85
6.89
6.74
6.41
5.93
5.31
4.61
3.86
3.04
2.07
0.93
-0.5
-2.21
-4.09
-5.98
-7.71
-9.13
-10.09
-10.59
-10.65
-10.37
-9.87
-9.24
-8.56
-7.85
-7.04
-6.06
-4.8
-3.32
-1.68
-0.08
1.32
2.38
3.08
3.53
3.82
4.06
4.27
4.48
4.77
5.24
6
7.1
8.46
9.78
10.78
11.27
11.22
10.78
10.18
9.61
9.16
8.85
8.65
8.57
8.56
8.48
8.09
7.17
5.66
3.63
1.3
-1.06
-3.3
-5.39
-7.41
-9.43
-11.48
-13.53
-15.44
-17.05
-18.22
-18.9
-19.07
-18.86
-18.4
-17.88
-17.42
-17.03
-16.68
-16.4
-16.31
-16.55
-17.27
-18.45
-19.91
-21.31
-22.35
-22.84
-22.81
-22.41
-21.78
-20.94
-19.72
-17.88
-15.25
-11.75
-7.53
-2.94
1.69
6
9.76
12.86
15.29
17.1
18.37
19.14
19.45
19.36
18.96
18.42
17.97
17.77
17.92
18.36
18.86
19.18
19.02
18.14
16.43
13.92
10.77
7.26
3.74
0.45
-2.36
-4.6
-6.3
-7.5
-8.26
-8.64
-8.68
-8.41
-7.89
-7.16
-6.31
-5.39
-4.44
-3.49
-2.56
-1.71
-1.02
-0.55
-0.3
-0.22
-0.18
-0.04
0.31
0.9
1.67
2.5
3.23
3.81
4.14
4.25
4.14
3.94
3.8
3.92
4.49
5.54
7.04
8.8
10.59
12.18
13.47
14.43
15.12
15.54
15.62
15.25
14.21
12.33
9.61
6.22
2.49
-1.17
-4.45
-7.17
-9.28
-10.84
-11.83
-12.24
-12.08
-11.43
-10.48
-9.48
-8.6
-7.98
-7.63
-7.5
-7.45
-7.36
-7.09
-6.49
-5.46
-4.01
-2.24
-0.35
1.44
3.03
4.29
5.27
6.02
6.52
6.76
6.68
6.26
5.53
4.59
3.54
2.5
1.59
0.89
0.45
0.3
0.41
0.75
1.19
1.6
1.88
2.02
2.06
2.11
2.17
2.18
2.04
1.62
0.9
0.08
-0.61
-0.9
-0.59
0.24
1.37
2.5
3.4
3.96
4.26
4.39
4.46
4.61
4.85
5.14
5.46
5.77
6.07
6.4
6.76
7.21
7.76
8.45
9.31
10.36
11.56
12.83
14.08
15.18
16.03
16.5
16.54
16.1
15.21
13.84
12.05
9.96
7.74
5.59
3.69
2.12
0.9
-0.05
-0.9
-1.78
-2.79
-4.01
-5.38
-6.83
-8.26
-9.62
-10.91
-12.15
-13.35
-14.47
-15.36
-15.82
-15.63
-14.59
-12.69
-9.95
-6.55
-2.75
1.17
4.83
7.93
10.18
11.37
11.39
10.28
8.22
5.47
2.46
-0.36
-2.52
-3.62
-3.42
-1.78
1.19
5.24
9.87
14.51
18.56
21.57
23.28
23.69
22.97
21.36
19.12
16.56
13.96
11.61
9.79
8.72
8.53
9.29
11.01
13.66
17.16
21.3
25.83
30.44
34.92
39.17
43.2
46.99
50.52
53.68
56.36
58.49
60.05
61.05
61.45
61.02
59.44
56.34
51.46
44.74
36.41
26.81
16.37
5.41
-5.84
-17.22
-28.59
-39.76
-50.45
-60.25
-68.76
-75.53
-80.29
-82.8
-82.89
-80.46
-75.45
-67.99
-58.33
-46.92
-34.23
-20.79
-7.02
6.81
20.48
33.76
46.33
57.81
67.83
76.15
82.64
87.36
90.43
91.87
91.64
89.53
85.2
78.46
69.27
57.83
44.57
30.06
14.92
-0.2
-14.67
-27.94
-39.54
-49.2
-56.84
-62.64
-66.92
-70.11
-72.44
-73.87
-74.15
-72.94
-69.99
-65.36
-59.4
-52.7
-46.05
-39.99
-34.76
-30.26
-26.21
-22.25
-18.34
-14.64
-11.53
-9.57
-9.12
-10.2
-12.69
-16.47
-21.33
-27.12
-33.48
-40.09
-46.97
-53.92
-60.51
-66.49
-71.98
-77.33
-82.96
-89.09
-95.87
-104.23
-114.23
-125.09
-135.87
-145.97
-155.06
-162.86
-169.09
-173.53
-177.6
-181.53
-184.33
-184.78
-182.37
-177.11
-169.14
-158.4
-144.69
-129.49
-112.75
-93.05
-69.15
-41.27
-10.53
21.63
54.17
97.22
148.34
195.91
228.7
243.18
242
230.23
212.87
193.88
175.53
156.71
136.74
116.36
96.92
78.99
63.35
50.62
41.16
34.86
29.88
25.27
21.45
19.25
18.82
19.77
21.3
22.57
22.84
21.29
17.94
13.97
10.92
9.65
10.29
12.31
14.93
17.41
18.9
19.19
18.88
18.65
18.81
19.31
19.8
19.93
19.55
18.61
17.22
15.73
14.41
13.3
12.3
11.3
10.25
9.23
8.26
7.32
6.35
5.3
4.15
2.98
1.93
1.06
0.48
0.17
0.09
0.13
0.2
0.23
0.1
-0.23
-0.81
-1.62
-2.63
-3.85
-5.32
-7.05
-9.01
-11
-12.76
-14.01
-14.54
-14.3
-13.45
-12.29
-11.2
-10.49
-10.37
-10.89
-12.01
-13.59
-15.46
-17.41
-19.16
-20.42
-20.84
-20.09
-17.95
-14.42
-9.64
-3.9
2.47
9.19
16.05
22.71
28.85
34.06
37.91
40.15
40.7
39.68
37.42
34.38
31
27.72
24.96
23.05
22.21
22.5
23.78
25.7
27.77
29.43
30.18
29.71
28
25.33
22.19
19.1
16.53
14.71
13.7
13.37
13.46
13.58
13.29
12.24
10.25
7.36
3.79
-0.11
-3.98
-7.5
-10.38
-12.28
-12.89
-12.03
-9.69
-6.01
-1.31
3.98
9.37
14.17
17.55
18.63
16.74
11.64
3.59
-6.7
-18.36
-30.65
-43.03
-55.05
-66.09
-75.3
-81.51
-83.68
-81.28
-74.53
-64.35
-52.03
-38.78
-25.45
-12.43
0.08
11.83
22.3
30.86
37.03
40.69
42.18
42.19
41.51
40.67
39.83
38.71
36.92
34.21
30.69
26.8
23.13
20.16
18.03
16.52
15.19
13.62
11.61
9.18
6.56
4.01
1.68
-0.38
-2.18
-3.69
-4.81
-5.41
-5.48
-5.13
-4.69
-4.55
-5.08
-6.48
-8.72
-11.62
-14.92
-18.28
-21.33
-23.82
-25.6
-26.73
-27.48
-28.15
-28.98
-30.02
-31.08
-31.81
-31.85
-30.93
-28.86
-25.62
-21.36
-16.41
-11.18
-6.21
-1.98
1.1
2.87
3.57
3.62
3.44
3.26
3.06
2.63
1.78
0.38
-1.54
-3.64
-5.63
-7.46
-9.31
-11.41
-13.82
-16.39
-18.95
-21.41
-23.27
-24.29
-24.83
-25.45
-26.33
-27.27
-27.53
-26.6
-24.39
-19.91
-12.9
-4.12
5.11
13.87
21.7
29.05
36.16
42.97
51.24
61.93
74.33
86.53
97.02
104.77
110.56
115.24
119.65
127.12
139.77
157.13
176.7
196.05
212.97
227.33
239.2
232.57
200.8
150.76
97.37
51.34
19.92
-3.45
-23.12
-41.17
-58.47
-72.64
-82.34
-88.6
-93.87
-99.79
-107.22
-114.84
-121.37
-126.06
-126.82
-124.05
-119.95
-116.86
-115.59
-116.24
-117.65
-119.18
-120.88
-121.79
-123.02
-126.18
-132.03
-139.83
-148.54
-156.84
-164.07
-169.91
-163.16
-138.35
-99.29
-56.13
-17.51
12.96
35.76
52.64
65.28
75.07
81.68
84.36
83.55
81
78.54
77.36
77.79
79.63
81.58
81.62
78.4
72.16
64.33
56.53
49.74
44.36
40.34
37.42
34.62
31.17
27.11
23.23
20.35
18.83
18.63
19.32
20.31
20.71
19.82
17.48
14.01
9.82
5.2
0.35
-4.55
-9.3
-13.71
-17.58
-20.68
-22.85
-24.15
-24.76
-24.93
-24.77
-24.24
-23.08
-21.03
-17.94
-13.9
-9.23
-4.41
0.13
4.02
7.13
9.53
11.29
12.62
13.59
14.37
15.03
15.65
16.19
16.58
16.72
16.45
15.71
14.44
12.72
10.65
8.4
6.03
3.48
0.7
-2.36
-5.73
-9.44
-13.53
-17.94
-22.55
-27.23
-31.86
-36.35
-40.66
-44.65
-48.25
-51.41
-54
-56.11
-57.9
-59.77
-61.95
-64.52
-67.25
-69.9
-72.31
-73.99
-74.62
-74.12
-72.71
-70.42
-67.22
-62.82
-57.19
-50.7
-43.11
-34.57
-25.99
-18.81
-14.08
-12.32
-12.92
-15.15
-18.16
-19.69
-17.86
-12.2
-3.6
6.73
17.52
28.54
39.67
50.97
64.72
82.91
105.69
131.31
157.45
181.69
202.82
219.72
220.19
197.52
156.25
108.99
66.27
35.33
12.63
-4.39
-17.39
-27.72
-34.08
-35.59
-32.94
-28.06
-22.45
-16.88
-10.49
-2.74
6.27
17.24
30.09
43.5
55.39
64.25
69.46
71.84
72.32
71.49
70.56
70.28
70.46
70.22
68.69
65.31
60.37
54.31
47.55
40.87
34.71
28.87
22.5
14.69
4.75
-7.53
-22.09
-38.8
-57.18
-76.6
-96.37
-115.71
-133.85
-150.14
-164.29
-176.29
-186.47
-195.12
-202.27
-207.7
-211.01
-211.77
-209.64
-204.42
-195.92
-184.26
-169.78
-153.19
-135.56
-118.06
-101.6
-86.65
-73.05
-60.02
-46.48
-31.33
-13.81
6.27
28.38
51.29
73.38
92.82
108.11
118.29
123.13
123.2
119.6
113.75
106.82
99.53
91.92
83.64
74.25
63.66
52.06
39.84
27.31
14.5
1.36
-12.07
-25.38
-37.69
-47.96
-55.28
-59.2
-59.65
-56.83
-51.03
-42.58
-31.93
-19.82
-7.26
4.65
15.07
23.62
30.5
36.22
41.28
45.79
49.56
52.16
53.29
52.93
51.26
48.58
45.31
41.81
38.39
35.25
32.46
29.89
27.33
24.51
21.21
17.43
13.39
9.35
5.64
2.47
-0.03
-1.83
-2.96
-3.48
-3.43
-2.85
-1.77
-0.27
1.49
3.31
5.02
6.64
8.38
10.51
13.18
16.21
19
20.67
20.47
18.05
13.71
8.24
2.53
-2.77
-7.4
-11.24
-14.26
-16.21
-16.68
-15.3
-11.98
-6.99
-0.86
5.86
12.83
19.82
26.74
33.43
39.55
44.52
47.68
48.67
47.5
44.64
40.9
37.26
34.67
33.87
35.14
38.28
42.76
47.95
53.14
57.65
60.97
62.95
63.61
63.08
61.37
58.57
54.74
49.9
43.94
36.74
28.98
21.39
14.31
7.41
0.32
-7.25
-15.34
-23.96
-33.08
-41.2
-46.89
-49.98
-51.75
-53.72
-56.98
-62.11
-69.3
-78.21
-85.96
-89.53
-87.96
-82.59
-75.19
-66.54
-56.43
-43.91
-27.95
-5.11
27.13
68.01
113.53
159.52
203.8
246.08
286.83
307.07
293.29
247.64
185.96
123.75
68.43
21.09
-19.89
-56.42
-89.2
-116.83
-135.26
-141.83
-137.07
-123.52
-104.55
-83.78
-64.69
-48.64
-35.59
-24.52
-15.5
-10.08
-10.09
-16.39
-28.79
-45.86
-65.38
-83.67
-97.1
-104.25
-106.14
-105.24
-103.53
-101.73
-99.21
-94.75
-86.8
-74.25
-57.4
-37.73
-17.8
0.36
16.05
29.72
42.13
53.79
64.89
75.12
83.75
88.58
87.6
80.15
67.29
51.07
33.68
17.12
2.71
-9.38
-21.84
-38.01
-59.62
-85.9
-114.5
-142.8
-168.77
-191.39
-199.67
-186.52
-153.58
-110.61
-68.45
-34.05
-10.47
2.22
6.62
7.59
8.96
13.15
21.09
32.03
43.94
54.62
62.9
68.77
72.6
73.69
69.89
60.72
47.93
34.77
24.59
19.57
20.25
25.38
31.81
36.33
37.55
35.89
32.95
30.42
29.34
30.04
32.18
34.77
35.81
34.58
31.27
26.44
20.64
14.12
6.95
-0.8
-8.98
-17.32
-25.04
-31.34
-35.75
-38.1
-38.61
-37.58
-35.36
-32.24
-28.41
-23.93
-18.92
-13.66
-8.53
-4.03
-0.63
1.4
1.96
1.21
-0.54
-2.97
-5.85
-9.04
-12.41
-15.87
-19.4
-23.04
-26.84
-30.8
-34.74
-38.37
-41.34
-43.44
-44.58
-44.94
-44.74
-44.13
-43.07
-41.36
-38.76
-35.1
-30.33
-24.44
-17.36
-9.04
0.61
11.59
23.72
36.65
49.94
63.05
75.45
86.55
95.77
102.56
106.56
107.65
106.01
102.07
96.4
89.64
82.41
75.29
68.71
62.85
57.63
52.7
47.62
42.01
35.64
28.55
20.94
13.06
5.13
-2.69
-10.21
-17.17
-23.27
-28.16
-31.63
-33.7
-34.62
-34.76
-34.43
-33.76
-32.73
-31.26
-29.4
-27.4
-25.7
-24.72
-24.72
-25.65
-27.17
-28.88
-30.44
-31.76
-32.97
-34.27
-35.67
-37
-37.81
-37.63
-36.07
-33.03
-28.62
-23.16
-17.14
-11.1
-5.69
-1.55
0.75
0.82
-1.46
-5.74
-11.35
-17.33
-22.73
-26.86
-29.44
-30.64
-30.95
-30.92
-31.08
-31.82
-33.3
-35.61
-38.84
-43.16
-48.6
-55.07
-61.99
-68.44
-73.19
-74.85
-72.06
-63.99
-50.51
-32.47
-11.55
10.32
31.48
50.8
67.84
82.68
95.38
105.69
113.06
116.85
116.81
113.15
106.25
96.29
83.22
67.09
48.8
30.36
14.72
4.77
1.99
5.75
13.59
22.3
29.3
33.54
35.18
34.79
32.56
28.07
20.66
10.24
-2.46
-15.96
-28.38
-38.17
-44.57
-47.6
-47.78
-45.6
-41.25
-34.54
-25.3
-13.72
-0.6
12.82
25.27
35.87
44.34
50.69
54.9
56.65
55.39
50.65
42.46
31.48
18.96
6.22
-5.74
-16.34
-25.33
-32.63
-38.24
-42.07
-44.02
-43.95
-41.78
-37.6
-31.67
-24.4
-16.39
-8.45
-1.27
4.88
10.2
15.04
19.64
24.02
27.99
31.23
32.86
32.23
29.66
26.36
23.61
22.33
22.85
24.91
27.8
29.57
28.55
24.97
20.9
18.73
20.19
26.06
36.17
49.72
63.95
76.18
85.65
93.09
98.62
101
98.2
88.45
70.5
41.06
-2.91
-61.25
-129.94
-202.63
-271.65
-329.51
-370.53
-377.28
-341.12
-272.25
-193.34
-122.39
-65.13
-19.33
18.13
49.59
74.43
89.25
92.35
87.81
82.87
80.21
81.19
84.85
89.14
92.94
94.32
92.47
90.58
92.83
101.51
116.36
135
154.25
171.98
185.34
183.89
163.02
126
81.63
38.19
1.6
-31.04
-62.24
-94.26
-128.84
-162.11
-190.07
-210.09
-221.31
-224.31
-220.39
-209.99
-193.91
-173.06
-147.53
-118.59
-88.82
-61.45
-39.18
-23.25
-12.49
-4.85
1.63
9.01
17.86
27.51
36.78
44.73
51.06
56.52
61.98
67.98
74.93
82.47
89.69
95.38
98.36
97.81
93.65
86.13
75.73
63.23
49.4
35.08
21.15
8.42
-2.51
-11.39
-18.5
-24.45
-29.88
-35.27
-40.58
-45.33
-48.91
-50.71
-50.46
-48.15
-43.94
-38.06
-30.74
-22.3
-13.08
-3.52
5.8
14.42
21.97
28.33
33.54
37.77
41.15
43.83
45.84
47.17
47.79
47.77
47.34
46.83
46.64
47.11
48.43
50.65
53.76
57.71
62.37
67.5
72.7
77.4
80.94
82.75
82.63
80.77
77.68
73.89
69.67
65.03
59.71
53.37
45.74
36.75
26.47
15.18
3.28
-8.77
-20.41
-31.05
-40.16
-47.41
-52.73
-56.35
-58.53
-59.41
-58.93
-56.92
-53.41
-48.84
-44.08
-40.22
-38.03
-37.62
-38.4
-39.65
-40.95
-42.56
-45.32
-50.15
-57.5
-67.1
-77.9
-88.53
-97.77
-104.85
-109.54
-112
-112.43
-110.92
-107.51
-102.24
-95.51
-88.03
-80.68
-74.23
-68.98
-64.75
-61.06
-57.45
-53.81
-50.36
-47.38
-44.84
-42.11
-38.05
-31.42
-21.31
-7.61
8.9
26.9
44.97
61.94
77.03
89.86
100.2
107.96
113.14
115.97
116.91
116.56
115.65
114.79
114.5
115.18
117.25
120.99
126.34
132.57
138.1
140.55
137.35
126.47
107.04
79.62
45.81
7.51
-33.57
-76.02
-118.31
-158.31
-193.2
-220.03
-236.48
-241.52
-235.57
-220.04
-196.71
-167.41
-133.96
-98.36
-62.87
-29.89
-1.42
21.37
38.2
49.54
56.31
59.6
60.61
60.5
60.25
60.45
61.39
62.99
65.13
67.64
70.39
73.16
75.54
77.12
77.57
76.66
74.41
71
66.64
61.46
55.48
48.54
40.58
31.45
21.06
9.31
-3.93
-18.61
-34.52
-51.16
-67.85
-83.85
-98.29
-110.26
-118.88
-123.33
-123.11
-118.1
-108.75
-95.93
-80.69
-63.99
-46.41
-28.22
-9.59
9.12
27.25
43.91
58.23
69.67
78.09
83.68
86.63
86.93
84.39
78.84
70.32
59.41
47.11
34.69
23.41
14.24
7.72
3.82
2.06
1.64
1.7
1.43
0.31
-1.87
-5.05
-8.96
-13.19
-17.29
-20.83
-23.51
-25.15
-25.66
-24.95
-22.92
-19.58
-15.08
-9.8
-4.26
1.01
5.6
9.31
12.13
14.05
15
14.77
13.26
10.4
6.36
1.49
-3.78
-9.04
-13.96
-18.34
-22.06
-25.02
-27.14
-28.31
-28.53
-27.82
-26.28
-24.07
-21.35
-18.36
-15.3
-12.31
-9.5
-7.05
-5.05
-3.41
-1.8
0.34
3.64
8.48
14.87
22.31
30.06
37.15
42.82
46.54
48.18
47.99
46.51
44.43
42.45
41.03
40.25
39.83
39.2
37.81
35.18
31.15
25.8
19.47
12.71
6.11
0.19
-4.78
-8.72
-11.77
-14.19
-16.2
-17.91
-19.3
-20.33
-21.03
-21.48
-21.82
-22.08
-22.15
-21.8
-20.84
-19.16
-16.87
-14.24
-11.57
-9.09
-6.96
-5.22
-3.83
-2.73
-1.85
-1.17
-0.69
-0.47
-0.55
-0.93
-1.5
-2.06
-2.38
-2.35
-2
-1.56
-1.37
-1.68
-2.55
-3.79
-5.03
-5.89
-6.14
-5.77
-4.93
-3.88
-2.85
-2.02
-1.48
-1.3
-1.47
-1.94
-2.59
-3.26
-3.79
-4.09
-4.16
-4.07
-3.94
-3.8
-3.62
-3.41
-3.19
-3.03
-3.02
-3.2
-3.57
-4.08
-4.67
-5.25
-5.74
-5.98
-5.84
-5.15
-3.89
-2.21
-0.37
1.35
2.74
3.75
4.46
4.97
5.38
5.72
5.98
6.11
6.06
5.81
5.34
4.7
3.96
3.17
2.4
1.67
1.03
0.57
0.41
0.67
1.42
2.72
4.45
6.51
8.73
10.92
12.94
14.68
16.1
17.11
17.68
17.67
16.98
15.51
13.22
10.18
6.57
2.61
-1.52
-5.65
-9.65
-13.34
-16.55
-19.08
-20.74
-21.56
-21.63
-21.14
-20.34
-19.39
-18.33
-17.11
-15.69
-14.05
-12.26
-10.37
-8.43
-6.5
-4.54
-2.58
-0.54
1.56
3.75
6.01
8.3
10.48
12.31
13.48
13.74
13
11.3
8.79
5.5
1.34
-3.93
-10.54
-18.46
-27.31
-36.34
-44.58
-51.13
-55.32
-56.79
-55.41
-51.22
-44.26
-34.71
-22.82
-9.05
5.91
21.21
35.84
48.95
59.77
67.75
72.62
74.32
73
69.01
62.81
54.92
45.92
36.47
27.22
18.75
11.51
5.67
1.17
-2.26
-5.02
-7.48
-9.88
-12.29
-14.6
-16.6
-18.03
-18.72
-18.63
-17.82
-16.49
-14.79
-12.9
-10.94
-8.97
-7.07
-5.35
-3.92
-2.88
-2.3
-2.14
-2.27
-2.53
-2.72
-2.73
-2.56
-2.24
-1.85
-1.41
-0.85
-0.17
0.64
1.46
2.08
2.24
1.72
0.37
-1.77
-4.65
-8.12
-12.01
-16.05
-19.88
-23.1
-25.29
-26.17
-25.55
-23.45
-20.06
-15.78
-11.12
-6.67
-3.03
-0.62
0.32
-0.09
-1.59
-3.81
-6.42
-9.17
-11.83
-14.22
-16.07
-17.13
-17.17
-15.94
-13.32
-9.29
-3.97
2.38
9.31
16.26
22.73
28.34
32.94
36.59
39.45
41.67
43.35
44.52
45.12
45.14
44.62
43.73
42.7
41.7
40.82
39.98
38.98
37.53
35.43
32.62
29.3
25.62
21.82
18.11
14.58
11.16
7.6
3.68
-0.71
-5.38
-10.25
-15.23
-20.33
-25.57
-30.96
-36.52
-42.28
-48.15
-53.96
-59.78
-65.47
-70.29
-72.95
-72.17
-67.3
-58.66
-47.27
-34.41
-21.91
-11
-1.65
7.2
16.54
26.33
35.58
43.5
50.11
54.45
56.05
56.03
57.02
61.75
71.65
86.82
106.92
131.38
156.56
178.59
196.06
210.81
225.5
240.85
254.22
260.2
251.86
218.79
153.2
55
-66.82
-198.59
-327.5
-444.84
-546.41
-605.82
-601.91
-535.42
-432
-322.13
-224.16
-143.41
-78.67
-26.73
14.9
43.99
58.23
58.7
51.33
43.85
42.2
48.8
63.59
83.72
102.77
115.15
118.85
115.9
109.53
102.42
96.3
93.34
95.17
101.86
111.19
118.48
117.91
104.25
75.42
34.61
-10.03
-50.75
-82.62
-105.07
-120.83
-133.46
-144.44
-153.8
-161.14
-155.73
-138.77
-116.03
-93.53
-74.47
-57.97
-40.74
-19.64
6.11
34.76
60.69
79.37
86.9
81.45
63.9
37.55
7.71
-19.14
-35.4
-35.85
-20.57
4.24
29.2
46.58
52.81
49.2
39.9
29.65
19.3
7.63
-7.1
-25.15
-44.01
-60.02
-70.23
-73.81
-71.17
-65.05
-57.94
-50.59
-42.3
-30.76
-14
8.65
33.42
57.32
76.88
90.65
102.02
112.33
124.05
139.15
157.88
177.22
193.08
200.42
196.77
182.03
158.86
132.24
107.65
90.38
76.71
65.26
53.35
38.77
17.19
-14.69
-57.47
-109.86
-160.98
-196.63
-208.41
-199.42
-177.19
-151.86
-128.79
-108.76
-89.32
-66.01
-36.65
-1.27
36.97
76.75
113.39
143.73
165.5
178.26
184.34
186.51
186.12
168.74
144.18
107.34
57.21
-4.83
-74.32
-141.49
-189.21
-205.87
-194.49
-166.3
-136.13
-111.14
-91.84
-74.99
-57.2
-37.93
-20.43
-8.76
-2.46
-0.34
1.79
7.85
19.73
36.93
56.48
73.42
83.32
85.25
79.48
68.54
54.92
40.2
24.91
9.43
-6.64
-23.59
-39.94
-54.15
-64.38
-70.01
-71.72
-71.07
-69.79
-69.52
-70.93
-73.12
-74.91
-75.14
-73.61
-71.02
-68.43
-66.85
-67.32
-70.59
-76.68
-84.18
-89.98
-89.79
-79.65
-58.02
-27.15
7.13
37.71
59.03
69.26
70.4
66.55
61.54
57.25
53.54
49.45
44.58
39.65
36
34.49
34.91
36.01
36.28
34.59
30.83
25.92
21.24
17.99
16.65
16.82
17.55
17.64
16.46
13.96
10.67
7.47
5.03
3.55
2.56
1.22
-1.39
-5.78
-11.94
-19.31
-27.01
-34.09
-39.74
-43.49
-45.08
-44.46
-41.61
-36.56
-29.38
-20.38
-10.07
0.76
11.14
20.15
27.08
31.7
34.25
35.3
35.59
35.55
35.51
35.46
35.17
34.39
33.11
31.62
30.49
30.3
31.31
33.4
36.03
38.47
40.14
40.88
40.93
40.84
41.22
42.54
45.24
49.44
54.79
60.14
63.53
62.61
55.58
42.27
24.14
4.36
-13.41
-26.56
-34.3
-37.62
-38.43
-38.46
-38.41
-38.43
-38.1
-37.12
-35.51
-33.47
-31.08
-28.11
-24.07
-18.57
-11.63
-3.74
4.22
11.45
17.65
22.92
27.88
33.29
39.63
46.77
54.03
60.31
64.27
65.13
62.63
57.11
49.49
40.98
32.65
25.16
18.44
11.63
3.86
-5.62
-17.14
-30.44
-45
-60.5
-76.99
-94.74
-113.87
-133.88
-153.64
-171.58
-186.13
-196.14
-201.19
-201.38
-197.13
-188.98
-177.46
-163.1
-146.48
-128.2
-108.73
-88.58
-68.24
-48.46
-30.16
-14.14
-0.75
10.39
20.29
30.03
40.34
51.26
62.2
72.43
81.66
90.21
98.78
108.06
118.21
128.75
138.75
147.22
153.38
156.86
157.53
155.42
150.67
143.48
134.23
123.45
111.88
100.2
88.91
78.15
67.82
57.52
46.78
35.08
22.03
7.43
-8.54
-25.39
-42.27
-58.12
-71.86
-82.59
-89.69
-92.97
-92.69
-89.45
-84.09
-77.43
-70.2
-62.82
-55.59
-48.69
-42.29
-36.61
-31.83
-28.05
-25.25
-23.33
-22.13
-21.53
-21.41
-21.71
-22.32
-23.11
-23.89
-24.39
-24.51
-24.26
-23.92
-23.77
-24.03
-24.72
-25.62
-26.26
-26.16
-25.05
-23.01
-20.48
-18.17
-16.72
-16.33
-16.45
-15.82
-12.96
-6.74
3.19
16.13
30.69
45.42
59.25
71.71
82.68
92.18
100.24
107.1
113.1
118.63
123.73
127.64
128.91
125.76
117.04
102.73
84.13
63.2
41.78
21.12
1.71
-16.41
-33.09
-47.79
-59.51
-67.24
-70.28
-68.46
-62.38
-53.28
-42.53
-31.28
-20.21
-9.58
0.31
8.82
14.82
17.06
14.64
7.69
-2.72
-14.7
-26.18
-35.44
-41.45
-44.06
-43.69
-41.08
-36.99
-31.96
-26.41
-20.57
-14.71
-9.11
-4.2
-0.44
1.8
2.42
1.61
-0.19
-2.53
-5.01
-7.29
-9.06
-10.02
-9.77
-7.97
-4.57
-0.04
4.65
8.29
9.97
9.4
6.99
3.73
0.69
-1.41
-2.39
-2.63
-2.67
-2.76
-2.73
-2.19
-0.96
0.51
1.24
0.01
-4.04
-11.04
-20.38
-31.1
-42.41
-54.06
-66.22
-78.76
-90.67
-99.89
-103.91
-100.71
-89.9
-72.97
-52.98
-33.4
-16.9
-4.76
3.09
7.54
9.87
10.97
11.75
13.25
15.99
20.01
24.66
28.86
31.62
32.69
32.53
32.16
32.48
33.66
35.26
36.56
37.25
37.71
38.76
40.94
44.15
47.63
50.29
51.48
51.18
50.04
48.79
47.71
46.49
44.35
40.47
34.19
25.82
16.29
6.75
-1.37
-7.15
-10.48
-11.95
-12.58
-13.3
-14.48
-15.9
-17.08
-17.61
-17.41
-16.86
-16.31
-16.03
-15.97
-15.85
-15.33
-14.23
-12.54
-10.49
-8.45
-6.79
-5.9
-5.99
-7.03
-8.7
-10.47
-11.82
-12.47
-12.64
-12.67
-13.18
-14.12
-15.2
-15.73
-14.94
-12.3
-7.71
-1.68
4.86
10.56
14.01
13.87
9.42
1.17
-8.83
-17.33
-21.16
-18.51
-9.92
1.96
13.6
22.25
27.08
29.1
30.25
31.97
34.49
36.9
37.94
36.95
34.21
30.86
27.73
25.32
23.37
21.19
18.02
13.69
8.78
4.48
2.19
2.67
5.92
10.99
16.48
21.13
24.34
26.24
27.53
28.89
30.57
32.3
33.34
32.88
30.54
26.36
20.92
14.99
9.19
3.83
-1.19
-6.16
-11.42
-17.13
-23.28
-29.69
-36.16
-42.47
-48.39
-53.7
-58.1
-61.35
-63.23
-63.79
-63.19
-61.71
-59.57
-56.82
-53.38
-49.22
-44.42
-39.24
-34.12
-29.35
-24.91
-20.6
-16.21
-11.96
-8.7
-7.6
-9.51
-14.37
-21.09
-27.85
-32.67
-34.12
-31.65
-25.44
-16.01
-3.95
10.03
25.09
40.51
56.22
73.29
93.63
118.71
148.05
178.2
203.26
216.88
214.77
196.5
165.55
127.69
88.63
52.32
20.49
-6.6
-28.99
-46.39
-58.38
-64.97
-66.88
-65.66
-63.1
-60.71
-59.16
-58.34
-57.75
-56.94
-55.87
-54.97
-54.93
-56.27
-59.07
-62.84
-66.6
-69.14
-69.39
-66.66
-60.83
-52.48
-42.78
-33.22
-25.26
-19.81
-17.02
-16.13
-15.96
-15.25
-13.18
-9.53
-4.43
1.83
9.15
17.54
27.03
37.29
47.69
57.3
65.21
70.71
73.4
73.25
70.51
65.6
59.08
51.5
43.25
34.59
25.71
16.73
7.86
-0.51
-8.02
-14.4
-19.54
-23.53
-26.54
-28.65
-29.88
-30.27
-29.89
-28.92
-27.59
-26.06
-24.38
-22.53
-20.48
-18.27
-15.98
-13.66
-11.26
-8.59
-5.44
-1.76
2.31
6.36
9.91
12.54
13.98
14.22
13.38
11.68
9.3
6.43
3.29
0.14
-2.74
-5.04
-6.61
-7.46
-7.74
-7.72
-7.62
-7.55
-7.48
-7.26
-6.71
-5.65
-4.01
-1.79
0.91
3.89
6.81
9.24
10.73
11.01
10.03
8.02
5.48
2.88
0.57
-1.41
-3.25
-5.32
-7.89
-11.06
-14.68
-18.3
-21.46
-23.71
-24.78
-24.74
-23.93
-22.82
-21.97
-21.67
-21.83
-22.15
-22.19
-21.63
-20.35
-18.42
-15.93
-12.88
-9.14
-4.63
0.55
6.06
11.34
15.81
19.16
21.32
22.48
23
23.3
23.58
23.88
23.93
23.29
21.53
18.44
14.15
9.1
3.86
-1.25
-6.04
-10.56
-14.95
-19.17
-23.09
-26.51
-29.44
-31.91
-34.04
-35.76
-36.8
-36.85
-35.69
-33.53
-30.89
-28.4
-26.59
-25.74
-25.76
-26.38
-27.37
-28.4
-29.16
-29.35
-28.85
-27.9
-27.08
-27.08
-28.25
-30.26
-32
-32.23
-30.16
-25.81
-20
-13.98
-8.74
-4.71
-1.82
0.37
2.19
3.81
5.27
6.65
8.11
9.8
11.75
13.82
15.86
17.79
19.77
22.18
25.36
29.36
33.8
37.94
40.83
41.78
40.62
37.69
33.69
29.31
25.09
21.32
18.21
15.9
14.59
14.33
14.9
15.83
16.44
16.33
15.55
14.67
14.47
15.61
18.3
22.25
26.8
31.21
34.91
37.51
38.86
38.9
37.77
35.66
32.9
29.84
26.76
23.74
20.65
17.28
13.47
9.28
5.01
1.05
-2.23
-4.68
-6.34
-7.49
-8.41
-9.28
-10.17
-11.02
-11.7
-12.12
-12.25
-12.11
-11.77
-11.24
-10.47
-9.35
-7.89
-6.26
-4.79
-3.97
-4.21
-5.76
-8.49
-12.1
-16.05
-19.82
-22.98
-25.17
-26.21
-26.01
-24.61
-22.12
-18.74
-14.73
-10.38
-6.07
-2.11
1.24
3.92
6.04
7.85
9.61
11.44
13.33
15.13
16.55
17.39
17.64
17.41
16.9
16.3
15.66
14.92
13.96
12.67
11.03
9.19
7.5
6.35
6.06
6.73
8.18
9.98
11.61
12.64
12.93
12.64
12.02
11.38
10.88
10.54
10.38
10.49
11.03
12.08
13.53
15.1
16.32
16.8
16.4
15.29
13.74
12.07
10.39
8.52
6.26
3.48
0.36
-2.67
-5.13
-6.73
-7.62
-8.22
-9.06
-10.44
-12.32
-14.41
-16.3
-17.73
-18.65
-19.13
-19.23
-18.89
-17.96
-16.26
-13.79
-10.7
-7.27
-3.77
-0.35
3.09
6.72
10.72
15.04
19.14
22.05
22.45
19.22
11.79
0.47
-13.68
-29.04
-43.97
-57.22
-68.07
-76.29
-81.83
-84.69
-84.82
-82.16
-76.79
-68.95
-59.02
-47.37
-34.27
-19.84
-4.34
11.64
27.04
40.45
50.49
56.27
57.81
55.9
51.81
46.78
41.67
36.95
32.8
29.36
26.84
25.41
25.01
25.31
25.77
25.81
25.08
23.58
21.55
19.35
17.17
15.02
12.68
9.89
6.5
2.51
-1.89
-6.41
-10.72
-14.64
-18.08
-21.03
-23.48
-25.35
-26.47
-26.68
-25.82
-23.77
-20.57
-16.47
-11.92
-7.49
-3.66
-0.67
1.51
3.02
3.94
4.24
3.69
2.14
-0.32
-3.2
-5.78
-7.34
-7.46
-6.13
-3.64
-0.43
3.08
6.47
9.33
11.23
11.75
10.65
7.93
4
-0.45
-4.63
-7.91
-10.04
-11.04
-11.16
-10.65
-9.66
-8.25
-6.38
-4.05
-1.34
1.52
4.1
5.97
6.87
6.85
6.32
5.87
6.01
6.77
7.69
7.88
6.44
3.01
-2.09
-7.96
-13.48
-17.83
-20.73
-22.37
-23.15
-23.38
-23.12
-22.3
-20.95
-19.34
-17.88
-16.94
-16.58
-16.5
-16.15
-15.03
-12.9
-9.92
-6.6
-3.49
-0.97
0.91
2.44
3.99
5.93
8.49
11.65
15.24
18.9
22.27
24.97
26.72
27.34
26.83
25.32
23.04
20.26
17.21
14.09
11.04
8.18
5.61
3.37
1.56
0.25
-0.49
-0.69
-0.48
-0.07
0.55
1.31
2.29
3.76
6.09
9.68
14.74
21.02
27.86
34.12
38.38
39.37
36.4
29.76
20.81
11.49
3.59
-1.94
-5.11
-6.83
-8.07
-9.4
-10.78
-11.68
-11.65
-10.62
-9
-7.44
-6.49
-6.31
-6.59
-7.04
-7.16
-6.7
-5.74
-4.65
-3.93
-3.94
-4.72
-5.87
-6.81
-6.91
-5.77
-3.4
-0.06
3.83
7.83
11.63
14.96
17.45
18.74
18.41
16.16
11.98
6.14
-0.86
-8.34
-15.69
-22.46
-28.39
-33.49
-37.91
-41.7
-44.69
-46.43
-46.26
-43.67
-38.5
-31.25
-22.95
-14.95
-8.36
-3.77
-1.1
0.17
0.67
0.85
0.88
0.76
0.51
0.4
0.82
2.11
4.4
7.5
10.99
14.48
17.75
20.68
23.09
24.56
24.38
21.89
16.8
9.43
0.73
-7.97
-15.39
-20.63
-23.31
-23.42
-21.26
-17.32
-12.3
-7
-2.03
2.22
5.92
9.59
13.81
18.85
24.55
30.34
35.51
39.46
41.83
42.58
41.71
39.31
35.41
30.27
24.46
18.89
14.51
11.89
10.94
10.92
10.78
9.65
7.21
3.77
-0.01
-3.46
-6.35
-8.78
-11.03
-13.24
-15.21
-16.56
-16.95
-16.28
-14.61
-12.33
-9.95
-7.88
-6.34
-5.39
-4.94
-4.84
-5.12
-5.76
-6.79
-8.1
-9.51
-10.76
-11.59
-11.86
-11.41
-10.18
-8.21
-5.64
-2.7
0.26
2.83
4.71
5.71
5.91
5.59
5.1
4.74
4.54
4.41
4.01
3.02
1.3
-1.06
-3.76
-6.38
-8.58
-10.26
-11.59
-12.91
-14.52
-16.52
-18.56
-20.06
-20.37
-19.1
-16.38
-12.76
-8.97
-5.54
-2.67
-0.16
2.42
5.36
8.68
12.09
15.2
17.65
19.31
20.35
21.09
21.88
22.96
24.54
26.79
29.89
33.89
38.5
42.99
46.23
46.88
43.81
36.58
25.53
11.67
-3.61
-19.01
-33.53
-46.51
-57.54
-66.33
-72.53
-75.8
-75.89
-72.87
-67.15
-59.52
-51
-42.57
-34.87
-27.98
-21.68
-15.72
-10.16
-5.62
-2.83
-2.17
-3.29
-5.17
-6.56
-6.55
-5.03
-2.63
-0.37
1.05
1.52
1.47
1.8
3.56
7.67
14.71
24.78
37.2
50.31
61.76
69.12
70.68
66.04
56.19
43.05
28.76
15.02
2.97
-6.79
-14.02
-18.61
-20.87
-21.48
-21.44
-21.54
-22.2
-23.29
-24.2
-24.18
-22.69
-19.66
-15.45
-10.69
-6.18
-2.52
-0.06
1.29
1.9
2.22
2.68
3.39
4.19
4.71
4.55
3.53
1.88
0.07
-1.39
-2.23
-2.5
-2.61
-3.05
-4.09
-5.76
-7.76
-9.63
-10.88
-11.13
-10.18
-8.03
-4.83
-0.94
3.17
7.16
11.14
15.8
22.2
31.14
42.5
54.87
65.68
72.11
72.1
65.18
52.5
36.26
18.79
1.85
-13.35
-26.06
-35.72
-41.89
-44.64
-44.65
-43.12
-41.21
-39.75
-38.86
-38.15
-37
-34.98
-31.99
-28.15
-23.61
-18.43
-12.66
-6.57
-0.62
4.63
8.8
11.77
13.76
15.11
15.92
16.05
15.19
13.12
9.92
6.07
2.23
-0.96
-3.08
-3.93
-3.4
-1.39
2.17
7.33
14.07
22.07
30.7
38.95
45.49
48.97
48.31
43.23
34.32
22.97
10.93
-0.28
-9.72
-17.11
-22.58
-26.41
-28.74
-29.68
-29.53
-28.73
-27.83
-27.18
-26.68
-25.83
-24.02
-20.85
-16.48
-11.59
-7.1
-3.78
-1.95
-1.39
-1.52
-1.77
-1.79
-1.62
-1.49
-1.7
-2.4
-3.41
-4.34
-4.76
-4.49
-3.61
-2.48
-1.5
-0.97
-0.93
-1.16
-1.39
-1.51
-1.76
-2.53
-4.4
-7.66
-12.14
-17.12
-21.72
-25.12
-26.78
-26.89
-25.92
-24.5
-23.11
-21.99
-21.25
-20.86
-20.61
-19.86
-17.67
-12.92
-4.88
6.3
19.37
32.22
42.83
50.1
54.46
57.5
61.23
66.93
74.52
82.45
88.39
90.19
86.65
77.81
64.65
48.7
31.25
12.96
-5.49
-23.23
-38.86
-50.62
-56.95
-57.22
-52.05
-43.15
-32.37
-20.7
-7.95
6.72
23.65
41.71
57.96
68.72
71.03
64.12
50
32.52
16.04
3.78
-2.83
-4.24
-2
2.15
6.8
11.07
14.27
15.84
15.12
11.65
5.4
-2.98
-12.09
-20.37
-26.6
-30.59
-33.15
-35.9
-40.3
-47.13
-56.06
-65.84
-74.85
-81.5
-84.72
-84.06
-79.44
-71.1
-59.47
-45.34
-29.9
-14.85
-1.92
7.48
12.72
14.14
12.77
9.89
6.6
3.55
0.83
-1.63
-3.85
-5.72
-6.96
-7.29
-6.57
-4.77
-1.92
1.83
6.3
11.31
16.68
22.24
28.01
34.16
41.09
49.08
58.03
67.28
75.79
82.49
86.55
87.6
85.51
80.24
71.55
59.25
43.35
24.49
3.89
-16.8
-35.93
-52.12
-64.44
-72.37
-75.55
-73.91
-67.7
-57.66
-44.97
-31.13
-17.69
-5.8
3.9
11.25
16.5
19.93
21.72
21.98
20.74
18.1
14.33
9.89
5.29
0.96
-2.99
-6.73
-10.76
-15.48
-21.1
-27.22
-32.89
-36.94
-38.35
-36.86
-32.96
-27.8
-22.67
-18.44
-15.24
-12.58
-9.62
-5.59
-0.19
6.39
13.48
20.21
25.56
28.6
28.65
25.44
19.28
11.01
1.89
-6.81
-14
-19.15
-22.21
-23.47
-23.39
-22.34
-20.7
-18.79
-17.09
-16.07
-16.14
-17.36
-19.4
-21.49
-22.7
-22.38
-20.3
-16.78
-12.46
-8.02
-3.78
0.26
4.31
8.54
12.83
16.73
19.64
21.12
21.12
20.15
18.97
18.35
18.73
20.05
21.91
23.63
24.68
24.69
23.72
22.25
21.13
21.43
23.98
29
35.68
42.34
46.7
46.84
41.93
32.59
20.55
7.92
-3.62
-13.29
-21.18
-27.85
-33.77
-38.99
-43.19
-45.76
-46.24
-44.47
-40.8
-35.98
-30.97
-26.62
-23.28
-20.88
-18.97
-17.06
-14.89
-12.51
-10.14
-7.96
-5.9
-3.72
-1.23
1.66
4.79
7.79
10.09
11.14
10.58
8.45
5.19
1.51
-1.8
-4.25
-5.71
-6.35
-6.37
-5.72
-4.11
-1.2
2.98
7.91
12.59
15.99
17.43
16.91
15.05
12.68
10.42
8.58
7.19
6.25
5.87
6.23
7.51
9.52
11.78
13.76
15.14
15.99
16.66
17.44
18.28
18.79
18.42
16.91
14.5
11.89
9.73
8.33
7.41
6.37
4.77
2.61
0.42
-1.07
-1.48
-1.03
-0.53
-1
-3.27
-7.51
-13.26
-19.68
-25.78
-30.79
-34.18
-35.79
-35.7
-34.41
-32.6
-31.02
-30.17
-30.06
-30.26
-29.89
-28.12
-24.37
-18.95
-12.72
-6.74
-1.69
2.48
6.14
9.78
13.67
17.66
21.23
23.87
25.41
26.01
25.96
25.25
23.65
21.17
18.59
17.56
19.93
26.59
36.61
47.35
55.44
58.42
55.81
49.19
41.07
33.47
27.01
20.89
14.16
6.45
-1.66
-9.04
-15.01
-19.58
-23.51
-28
-33.94
-41.3
-49.16
-56.16
-61.12
-63.67
-64.34
-64.14
-64.06
-64.54
-65.15
-64.84
-62.27
-56.32
-46.58
-33.46
-18.28
-2.8
11.08
22.06
29.63
33.96
35.63
35.13
32.73
28.57
23.1
17.12
11.79
8.33
7.52
9.44
13.41
18.4
23.4
27.8
31.49
34.91
38.92
44.59
52.8
63.68
76.16
88.02
96.4
98.74
93.81
82.09
65.57
46.82
28.04
10.55
-5.14
-18.93
-30.5
-39.2
-44.38
-45.9
-44.31
-40.79
-36.85
-33.61
-31.64
-30.77
-30.47
-30.1
-29.38
-28.31
-27.2
-26.34
-25.63
-24.55
-22.18
-17.65
-10.38
-0.58
10.82
22.53
33.27
42.28
49.37
54.74
58.4
60.02
58.89
54.2
45.61
33.44
18.74
3.04
-12.06
-25.26
-35.95
-43.98
-49.71
-53.59
-56.06
-57.34
-57.58
-56.88
-55.42
-53.49
-51.44
-49.5
-47.67
-45.92
-44.08
-42.16
-40.29
-38.57
-36.98
-35.22
-32.84
-29.49
-25.17
-20.27
-15.4
-11.14
-7.69
-4.83
-2.04
1.16
4.87
8.86
12.57
15.47
17.22
17.85
17.56
16.66
15.46
14.25
13.18
12.36
11.77
11.33
10.86
10.21
9.31
8.15
6.7
4.93
2.8
0.37
-2.14
-4.3
-5.68
-5.93
-5.03
-3.14
-0.57
2.46
5.88
9.78
14.16
18.89
23.68
28.18
32.13
35.46
38.27
40.69
42.76
44.35
45.3
45.49
45.03
44.3
43.76
43.59
43.52
42.76
40.31
35.41
27.95
18.55
8.29
-1.67
-10.58
-18.1
-24.25
-29.08
-32.6
-34.66
-35.31
-34.85
-33.88
-33.08
-32.93
-33.45
-34.21
-34.6
-34.12
-32.58
-30.18
-27.33
-24.5
-21.89
-19.47
-17.06
-14.5
-11.78
-9.05
-6.56
-4.48
-2.9
-1.8
-1.13
-0.83
-0.89
-1.24
-1.8
-2.47
-3.06
-3.48
-3.73
-3.88
-4.02
-4.17
-4.19
-3.88
-3.06
-1.62
0.32
2.42
4.26
5.47
5.93
5.84
5.51
5.38
5.66
6.35
7.26
8.11
8.63
8.74
8.57
8.29
8.1
8.14
8.36
8.63
8.75
8.5
7.74
6.41
4.48
2.03
-0.89
-4.27
-8.06
-12.2
-16.65
-21.22
-25.65
-29.66
-32.98
-35.4
-36.78
-36.93
-35.72
-33
-28.79
-23.38
-17.33
-11.27
-5.7
-0.89
3.26
7
10.57
14.02
17.19
19.87
21.83
23.02
23.53
23.61
23.46
23.22
22.8
21.91
20.39
18.29
15.97
14.07
13.25
13.84
15.68
18.19
20.61
22.38
23.3
23.48
23.2
22.71
22.04
21.03
19.52
17.43
14.81
11.83
8.73
5.78
3.17
1.01
-0.68
-1.92
-2.82
-3.41
-3.74
-3.68
-3.16
-2.11
-0.62
1.1
2.69
3.84
4.43
4.53
4.41
4.52
5.33
7.22
10.36
14.67
19.84
25.46
31.03
36.05
40.09
42.76
43.76
42.85
39.71
34.12
25.99
15.55
3.49
-9.13
-21.12
-31.41
-39.4
-44.98
-48.46
-50.31
-51.01
-50.78
-49.69
-47.74
-44.98
-41.53
-37.61
-33.51
-29.54
-25.92
-22.73
-19.86
-17.17
-14.58
-12.18
-10.21
-8.88
-8.31
-8.32
-8.51
-8.49
-8.02
-7.09
-5.93
-4.9
-4.19
-3.78
-3.52
-3.2
-2.73
-2.17
-1.65
-1.29
-1.18
-1.3
-1.64
-2.14
-2.73
-3.26
-3.59
-3.58
-3.21
-2.7
-2.3
-2.23
-2.49
-2.92
-3.17
-2.95
-2.14
-0.83
0.71
2.24
3.55
4.42
4.77
4.38
3.13
0.96
-1.96
-5.37
-8.94
-12.6
-16.59
-21.33
-27
-33.35
-39.47
-44.13
-46.17
-44.98
-40.62
-33.77
-25.2
-15.67
-5.76
4.13
13.58
22.1
29.34
35.24
40.1
44.39
48.47
52.18
55
56.13
55.07
51.8
46.94
41.52
36.47
32.4
29.33
27.01
25.04
23.13
21.27
19.56
18.27
17.66
18.03
19.39
21.62
24.21
26.58
28.12
28.39
27.29
25.15
22.62
20.45
19.17
18.78
18.77
18.35
16.73
13.55
9.06
4.16
0.11
-1.95
-1.27
2.17
7.65
13.68
18.3
19.56
16.28
8.68
-1.89
-12.98
-21.68
-25.4
-22.89
-14.74
-3.24
8.72
18.67
24.4
24.96
20.94
14.42
8.3
5.09
6.26
12.23
22.46
34.21
44.08
49.23
48.48
42.31
31.95
18.85
4.75
-8.45
-21.01
-34.45
-50.92
-72.35
-100.24
-135.96
-180.27
-232.54
-278.34
-302.01
-293.87
-257.1
-204.2
-148.11
-96.99
-54.03
-19.06
9.65
32.15
47.64
55.48
56.58
53.5
49.2
46.07
45.55
48.23
52.37
55.49
55.6
52.4
47.18
41.77
37.68
35.76
36.25
37.96
39.19
38.67
36.16
32.46
28.71
25.78
24.18
24.02
24.69
25.07
24.64
23.36
21.7
20.33
19.88
20.88
23.72
28.43
34.68
42.1
50.14
58.26
65.76
71.81
75.64
76.53
74
67.88
58.49
46.46
32.73
18.58
5.02
-7.06
-17.06
-24.74
-30.15
-33.49
-35.13
-35.46
-34.59
-33.03
-31.16
-29.25
-27.52
-26.09
-24.92
-23.91
-22.92
-21.7
-20.25
-18.91
-17.69
-16.89
-16.73
-17.19
-18
-18.69
-18.84
-18.3
-17.28
-16.31
-16.07
-17.03
-19.18
-21.99
-24.59
-26.17
-26.4
-25.64
-24.83
-25.12
-27.32
-31.41
-36.55
-41.32
-44.62
-45.89
-45.55
-44.66
-44.43
-45.83
-49.48
-55.74
-64.36
-73.99
-81.73
-83.53
-75.65
-56.62
-28.59
2.93
31.06
50.46
59.25
59.22
54.36
48.26
42.54
36.98
30.64
23.15
15.25
8.18
2.48
-2.41
-8.01
-15.83
-26.52
-39.02
-50.84
-58.88
-60.46
-54.43
-41.45
-23.71
-3.9
15.68
33.93
50.56
66.28
81.68
96.46
109.41
118.81
123.48
123.11
119.03
112.84
106.75
102.45
100.93
102.52
106.77
112.07
115.25
112.14
98.91
74.36
40.97
4.63
-27.52
-49.98
-60.96
-62.59
-59.12
-54.44
-50.39
-46.81
-42.73
-37.76
-32.64
-28.72
-26.91
-27.02
-27.79
-27.67
-25.46
-21.06
-15.39
-10.04
-6.13
-4.04
-3.3
-2.76
-1.06
2.81
9.22
17.78
27.61
37.74
47.38
56
63.34
69.09
72.8
73.77
71.3
64.92
54.64
41.03
25.2
8.54
-7.32
-21.2
-32.45
-40.81
-46.44
-49.73
-51.18
-51.28
-50.25
-48.84
-47.17
-45.45
-43.83
-42.34
-41.03
-39.88
-38.85
-37.81
-36.89
-36.13
-35.57
-35.34
-35.58
-36.59
-38.51
-41.25
-44.73
-48.78
-52.96
-56.83
-60.04
-61.53
-60.57
-56.75
-49.73
-39.59
-26.77
-12
3.66
18.91
32.55
43.47
50.85
54.35
54.02
50.32
44.05
36.08
27.2
18.63
11.39
6.35
4.17
5.18
9.19
15.68
23.65
31.82
39.33
45.66
50.81
55.05
58.76
62.05
64.83
66.38
65.62
61.92
55
45.23
33.46
20.62
7.31
-6.4
-19.24
-32.41
-46.56
-61.47
-75.98
-88.39
-97.33
-102.2
-103.48
-102.6
-101.44
-101.2
-102.93
-107.39
-114.63
-123.52
-131.08
-132.86
-124.52
-104.15
-73.52
-38.36
-6.24
16.59
27.42
27.77
21.97
14.06
6.19
-1.5
-10.02
-19.97
-30.86
-41.55
-51.2
-59.7
-67.9
-76.65
-86.17
-95.44
-102.79
-105.11
-100.04
-86.51
-65.03
-37.62
-6.99
24.08
53.4
79.05
100.41
117.33
129.84
138
141.74
141.33
137.26
130.2
121.37
112.14
103.48
95.81
89.67
84.3
79.22
74.06
68.66
63.17
57.94
53.26
49.27
45.97
43.1
40.42
37.67
34.73
31.72
28.83
26.43
24.83
24.13
24.12
24.47
24.85
25.2
25.86
27.24
29.75
33.51
38.12
42.47
45.48
45.37
41.2
33.03
21.9
9.5
-2.4
-12.45
-20.12
-25.51
-28.91
-30.3
-29.28
-25.2
-17.59
-6.99
6.5
22.41
39.81
56.91
70.91
77.97
74.38
58.5
32.16
0.65
-28.93
-50.5
-61.42
-62.85
-58.5
-52.26
-46.33
-40.95
-35.26
-29.01
-22.57
-17.15
-13.63
-11.84
-10.54
-7.96
-2.47
6.49
18.17
30.95
42.95
52.69
59.5
63.36
64.62
63.57
60.15
53.86
44.14
30.69
13.98
-4.45
-22.71
-38.79
-51.15
-59.15
-63.27
-64.74
-65.09
-65.8
-66.84
-68.05
-68.69
-68.02
-65.78
-62.47
-59.19
-57.17
-57.3
-59.44
-62.74
-65.81
-67.52
-67.31
-65.6
-63.41
-61.9
-61.97
-64.22
-69.1
-76.42
-84.92
-91.72
-92.8
-84.4
-65.05
-36.9
-5.47
22.37
41.24
49.32
48.48
42.7
35.71
29.35
23.74
17.81
11.02
3.93
-2.34
-7.16
-10.96
-15.21
-21.56
-31.09
-43.6
-57.58
-70.8
-80.91
-86.39
-86.35
-80.87
-70.59
-56.4
-39.03
-19.1
2.71
25.52
47.63
67.5
83.72
95.33
101.99
104.16
102.87
99.24
94.34
89.58
85.16
81.19
77.69
74.63
72.17
70.42
69.39
68.95
68.82
68.42
67.11
64.68
60.39
54.02
45.66
35.69
24.72
13.52
2.81
-6.71
-14.61
-20.77
-25.32
-28.67
-31.35
-33.89
-36.66
-39.96
-43.59
-47.55
-51.23
-54
-55.21
-54.28
-50.66
-44.07
-34.45
-21.86
-6.92
9.71
26.8
42.87
56.28
65.46
69.32
67.19
59.13
46.04
29.94
12.86
-3.03
-15.73
-23.78
-26.35
-23.4
-15.69
-4.68
8.3
21.17
32.07
39.87
43.58
42.88
38.01
29.85
16.61
1.33
-13.35
-25.86
-35.52
-43.09
-50.02
-57.88
-67.41
-78.26
-88.41
-96.53
-101.21
-101.13
-96.29
-87.17
-74.56
-58.68
-39.02
-14.59
15.33
50.05
87.6
123.56
153.04
172.16
179.44
176.09
165.7
154.24
141.95
131.99
127.11
128.88
136.85
147.72
155.45
146.47
113.18
58.53
-3.94
-58.81
-96.32
-115.02
-119.74
-117.44
-113.69
-109.39
-103.23
-93.72
-81.86
-70.51
-62.45
-58.89
-59.01
-60.84
-61.08
-57.68
-50.28
-40.7
-31.62
-25.2
-22.34
-22.23
-23.28
-23.16
-20.29
-14.23
-5.78
3.73
13.31
22.42
31.21
39.89
48.87
57.96
66.41
72.86
75.87
74.41
68.06
57.13
42.43
25.3
7.59
-9.16
-23.72
-35.28
-43.53
-48.79
-51.85
-53.74
-55.29
-56.7
-57.97
-58.59
-58.01
-56.08
-53.28
-50.66
-49.38
-50.21
-52.92
-56.52
-59.52
-60.78
-59.89
-57.5
-54.93
-53.51
-54.09
-57.03
-62.34
-69.47
-76.9
-81.88
-80.77
-70.48
-49.91
-21.37
9.83
37.26
56.01
64.37
63.85
57.64
48.73
38.18
26.03
12.15
-2.47
-15.07
-21.56
-18.22
-3.63
20.33
48.26
72.65
86.87
87.47
75.46
55.26
32.69
12.69
-1.72
-9.24
-9.63
-3.32
8.07
21.73
33.67
40.05
38.9
30.51
17.48
3.31
-9.33
-19.54
-27.33
-33.69
-39.53
-45.35
-51.61
-58.74
-66.87
-75.53
-83.67
-89.3
-90.52
-85.97
-75.31
-59.32
-39.62
-18.24
2.87
21.88
37.97
50.88
60.69
67.46
71.4
72.81
72.19
70.04
67.62
65.71
65.04
65.94
68.18
71.14
73.89
75.64
76.15
74.8
71.3
65.45
56.98
45.8
32.28
17.42
2.96
-8.87
-16.11
-17.5
-13.06
-4.12
6.72
17.58
26.87
34.03
39.49
43.99
48.22
52.92
58.62
65.45
72.42
76.79
74.71
62.76
40.19
9.41
-23.73
-52.42
-71.54
-79.73
-79.29
-74.32
-68.42
-63.26
-58.61
-53.57
-47.87
-42.25
-38.02
-35.95
-35.65
-35.87
-35.13
-32.39
-27.69
-22.23
-17.18
-13.56
-11.67
-10.88
-9.98
-7.59
-2.75
4.83
14.51
25.33
36.14
46
54.39
60.89
65.28
67.22
66.28
62.05
54.46
43.78
30.8
16.85
3.21
-8.97
-18.88
-26.13
-30.88
-33.46
-34.43
-34.53
-33.69
-32.41
-30.93
-29.44
-27.96
-26.61
-25.35
-24.16
-23.07
-21.97
-20.93
-19.99
-19.16
-18.38
-17.74
-17.21
-16.75
-16.36
-15.94
-15.58
-15.3
-15.12
-14.78
-14.5
-14.38
-14.53
-15.09
-16.14
-18
-20.97
-25.55
-31.58
-38.83
-46.7
-54.24
-60.61
-63.98
-62.87
-56.1
-43.19
-24.37
-0.84
25.51
52.37
77.16
97.75
112.38
120
120.29
113.64
100.89
83.38
63.12
41.7
21.22
3.39
-10.64
-20.49
-26.64
-30.27
-32.75
-34.89
-37.49
-40.36
-42.86
-44.2
-43.99
-42.63
-41.23
-41.53
-44.13
-49.08
-55.3
-61.14
-65.22
-66.8
-66.44
-65.51
-65.64
-68.04
-73.46
-81.66
-92.01
-102.78
-110.97
-112.93
-105.56
-88.2
-63.59
-37.43
-15.93
-3.44
-0.59
-4.49
-10.63
-15.18
-16.01
-12.84
-5.96
5.05
21.35
43.96
72.71
105.48
139.09
169.69
193.02
205.15
203.36
187.19
159.27
125.14
90.94
62.45
42.73
31.68
27.15
26.8
29.59
35.6
44.76
55.71
65.81
71.84
71.76
65.69
55.29
43.19
31.12
19
5.07
-12.98
-36.81
-66.65
-100.47
-134.34
-162.43
-178.9
-179.89
-165.29
-139.54
-110.85
-86.53
-71.31
-65.93
-66.34
-66.8
-62.93
-52.92
-37.48
-18.89
1.11
21.32
40.68
58.38
73.8
87.24
100.1
113.52
126.36
134.74
133.51
118.46
91.67
60.36
33.67
18.43
16.08
22.74
31.88
38.44
40.91
40.87
40.42
39.81
38.1
33.02
23.04
8.69
-7.68
-22.79
-33.31
-37.94
-37.14
-32.49
-26.03
-19.58
-13.82
-8.41
-2.63
4.19
11.46
17.58
20.76
18.93
10.7
-4.16
-24.17
-46.69
-68.73
-87.36
-100.62
-107.64
-108.56
-104.1
-95.35
-83.23
-67.94
-49.7
-28.98
-6.22
17.65
40.46
59.82
72.85
76.44
67.9
45.62
10.38
-33.48
-77.17
-111.36
-129
-127.66
-112.89
-88.97
-61.15
-34.31
-12.01
3.32
9.98
7.71
-0.83
-10.56
-14.73
-8.43
9.28
35.34
64.22
89.87
108.21
117.04
116.84
106.98
87.19
58.62
25.07
-7
-31.19
-43.03
-41.78
-32.73
-24.48
-24.9
-37.51
-60.08
-85.59
-106.66
-118.88
-120.56
-112.35
-95.1
-69.86
-37.95
-1.2
38.09
75.98
108.84
132.6
144.65
144.77
134.17
114.75
82.67
41.75
-2.45
-43.15
-76.7
-101.77
-117.97
-127.36
-132.89
-137.29
-141.92
-147.06
-149.29
-145.93
-133.7
-107.2
-61.62
4.44
88.05
177.25
252.44
310.39
350.53
365.83
357.48
332.38
300.67
271.95
252.43
233.83
210.2
175.36
127.57
71.84
15.34
-35.83
-78.47
-112.28
-138.56
-156.76
-168.09
-174.25
-175.97
-174.88
-173.31
-173.49
-176.85
-182.73
-187.93
-187.24
-175.85
-150.55
-112.69
-68.49
-27.21
1.65
12.33
7.68
-4.11
-13.81
-15.6
-9.21
1.76
13.6
25.58
38.47
54.11
71.92
88.76
100.6
105.47
104.94
103.12
103
104.03
102.3
89.93
65.52
34.33
5.97
-9.78
-8.33
7.58
29.51
47.44
54.29
46.72
25.47
-5.3
-39.29
-68.92
-86.96
-88.6
-74.18
-49.75
-24.77
-8.04
-3.71
-10.09
-21.37
-31.11
-34.69
-31.1
-21.75
-9.75
1.28
7.87
7.11
-2.83
-22.39
-46.49
-66.01
-72.37
-63.09
-41.41
-13.75
14.14
38.54
57.68
71.41
80.13
84.23
83.96
80.55
75.6
70.84
67.37
63.49
57.47
48.35
35.85
20.58
4.09
-11.8
-25.44
-37.01
-48.73
-62.73
-80.38
-101.66
-124.92
-147.17
-165.52
-173.26
-162.31
-132.87
-92.54
-53.26
-25.17
-12.29
-12.55
-20.81
-31.57
-42.17
-53.31
-65.96
-80.25
-94.56
-106.58
-114.28
-118.14
-116.5
-108.75
-95.24
-75.97
-50.5
-18.4
20.01
63.13
106.04
144.29
175.42
199.47
218.38
233.61
243.69
243.95
229.02
197.06
152.57
104.35
61.7
30.85
13.8
9.5
16.56
33.58
57.86
83.95
103.14
106.73
90.8
59.14
21.75
-9.85
-28.59
-34.65
-33.31
-30.79
-30.31
-31.34
-31.55
-29.74
-26.54
-24.14
-24.8
-29.13
-35.77
-41.86
-44.34
-41.73
-34.73
-25.92
-19.03
-17.39
-22.75
-35.3
-54.06
-77.26
-101.65
-123.89
-139.48
-144.08
-135.44
-114.63
-86.85
-59.26
-37.96
-25.96
-22.89
-26.03
-32.72
-41.15
-51.21
-63.06
-76.08
-87.7
-95.35
-97.73
-94.04
-84.96
-71.68
-55.65
-37.38
-16.86
6.56
32.45
58.16
80.32
96.13
103.21
100.29
88.43
69.99
49.05
28.82
9.8
-7.85
-23.06
-34.98
-43.31
-46.73
-44.24
-34.51
-17.85
1.02
18.7
33.72
45.62
53.99
60.26
65.78
73.55
85.63
100.15
118.06
142.49
175.72
209.66
237.86
241.49
211.92
173.73
138.53
104.77
74.01
46
19.17
-5.33
-24.25
-30.83
-20.01
-0.41
17.8
24.84
14.75
-11.35
-46.04
-80.85
-108.47
-126.37
-139.61
-152.1
-165.37
-178.55
-190.43
-199.9
-207.31
-212.85
-217.09
-222.93
-228.81
-231.42
-226.38
-210.86
-184.5
-149.93
-110.91
-71.53
-36.08
-5.57
20.21
43.92
67.5
91.12
113.39
133.3
151.89
164.52
172.57
178.72
188.33
204.9
228.72
257.39
287.86
318.45
349.18
382.36
400.68
393.55
360.97
313.85
264.92
220.45
178.47
132.36
77.16
12.1
-54.99
-113.29
-154.04
-174.69
-178.78
-173.3
-165.46
-159.1
-155.29
-151.03
-143.58
-132.42
-119.33
-106.44
-94.77
-84.14
-73.65
-62.86
-51.07
-38.64
-26.81
-17.73
-13.25
-14.16
-20.33
-31.01
-45.33
-61.95
-79.5
-97.78
-116.95
-136.07
-152.06
-160.06
-155.28
-135.52
-102.89
-63.49
-25.99
2.31
18.23
23.25
21.81
18.43
15.57
13.27
10.62
6.81
2.15
-2.23
-5.45
-7.42
-9.31
-12.24
-16.99
-23.05
-29.04
-33.25
-34.37
-32.04
-26.77
-20.06
-13.43
-8.43
-5.43
-3.93
-2.85
-1.08
2.03
6.47
11.65
16.85
21.44
25.12
27.76
29.53
30.58
30.9
30.17
28.02
24.29
19.45
14.2
9.71
6.66
5.24
5.12
5.43
5.25
3.96
2.04
0.48
0.54
2.73
7.14
13.02
18.94
23.17
24.39
23.07
20.86
19.88
21.54
25.91
32.05
38.03
42.02
42.8
41.71
41.61
46.1
58.48
77.75
103.86
136.73
175.65
211.36
233.35
231.72
202.06
147.95
79.72
11.03
-46.24
-85.68
-107.55
-115.81
-115.94
-111.91
-105.38
-96.85
-86.58
-76.05
-67.61
-63.26
-62.66
-63.86
-64.19
-61.42
-55.13
-46.32
-37.08
-29.68
-25.77
-24.89
-25.47
-25.39
-22.98
-17.68
-9.83
-0.4
9.51
19.04
28.18
37.29
46.74
56.5
65.82
73.42
77.81
77.74
72.65
62.83
49.26
33.4
17.05
1.59
-12.04
-23.29
-31.98
-38.14
-42.01
-43.93
-44.29
-43.25
-41.37
-39.1
-36.77
-34.54
-32.46
-30.56
-28.76
-27.04
-25.25
-23.44
-21.61
-19.83
-18.17
-16.62
-15.25
-14.01
-12.8
-11.54
-10.27
-9
-7.85
-7.23
-6.79
-6.78
-7.03
-7.33
-7.53
-7.59
-7.66
-8
-8.91
-10.39
-12.37
-14.38
-15.78
-15.97
-14.63
-12.03
-8.91
-6.24
-4.81
-5.04
-6.67
-8.96
-11.1
-12.63
-13.8
-15.48
-18.71
-24.11
-31.57
-39.96
-47.66
-53.5
-56.59
-57.45
-57.49
-58.25
-60.99
-66.51
-75.03
-86.02
