0.75673
2.0974
0.33184
-1.0271
2.0847
0.90992
6.5405
-2.1093
-8.6716
-4.6658
-0.51042
1.5265
1.5535
2.6274
-1.7164
6.0495
12.454
-1.9125
-4.3233
-4.2327
-13.012
2.7848
18.869
2.7927
-20.303
-12.044
-6.06
7.91
7.3306
10.138
-2.345
-11.439
4.9683
8.0131
9.2811
-0.92901
-3.3219
-3.7318
-2.8781
4.3914
2.014
1.5303
-6.6835
15.497
-10.021
-17.395
-2.5021
-0.63388
1.3846
-3.4682
-0.069106
0.94016
8.1927
2.6734
-5.2762
-0.75395
6.8577
9.6676
-4.5516
-3.9648
6.1725
-3.8931
-1.329
1.0244
-3.385
9.8103
-8.4201
-3.7685
16.602
1.6139
-9.6125
-3.6181
-2.6363
3.0558
1.7779
1.2576
-5.7988
0.043384
7.969
6.0257
-3.3261
0.0008287
3.8502
-2.156
0.38714
-1.9629
-2.4203
-2.7997
-2.7381
0.53353
0.3532
-4.5625
-9.8985
-1.1426
0.60489
5.0345
8.0418
6.9693
-4.1995
-6.6252
8.5961
-4.482
0.14729
12.73
3.2953
2.2996
-14.388
-10.908
4.3278
0.063079
-7.2076
6.5252
3.6602
0.18399
-3.0561
6.8541
-2.2451
-8.6997
2.3665
0.68607
3.3605
0.23615
0.95417
-0.93141
-1.4889
1.9318
3.2104
-4.0935
-3.6438
2.8264
0.20979
-0.33124
0.85232
0.44101
0.3348
0.45209
0.81457
-0.95908
0.19242
-0.61344
0.27816
1.8539
0.24947
1.8708
-1.818
2.3177
-3.7928
-2.0889
-0.25458
0.32712
2.7547
3.5017
-1.5768
-6.214
4.3819
1.3993
-1.3393
-2.2313
-1.7553
1.6068
7.4463
-2.0988
-1.177
0.54009
-1.6027
-3.2504
3.2588
-2.4096
-2.7344
7.616
-3.7684
0.9654
-2.7669
0.99323
7.5178
-7.0881
5.1544
-4.2437
0.70326
0.52511
-2.731
1.1951
5.0371
-11.053
-8.2458
3.8625
3.3807
0.0052984
2.1841
2.9373
2.8763
1.3751
-3.8435
0.18912
-0.058882
1.1807
-2.5723
0.096421
1.0199
-2.0078
1.2927
3.112
0.18559
0.63165
-0.89368
0.57032
4.2015
-5.4997
-2.7923
-0.066055
-0.15358
0.015316
0.45609
-1.5614
-0.25454
-0.38716
0.39546
1.6271
0.90757
0.031822
0.70962
0.69823
-0.42951
0.7017
0.48256
1.8455
5.3367
3.9319
-5.4687
-3.6338
-1.4353
-0.77206
4.2981
-0.92355
2.1822
4.676
-6.9679
-4.1401
-4.1281
2.4013
-1.4047
-15.997
-13.037
17.47
17.139
15.357
-10.049
-10.577
-2.0109
0.47066
-2.9223
-2.332
5.5615
2.8312
-1.8219
-7.0409
3.5403
8.4599
-0.72263
2.621
-2.5736
-1.0751
-1.3869
1.0151
2.5977
-1.6444
-0.99401
-1.3527
-0.13453
3.308
3.0544
-1.5287
-1.6599
-1.6027
-1.4492
-0.72447
0.50386
0.64712
2.5492
-0.50959
-0.3595
-0.33118
-1.5804
-1.216
0.035589
-0.13012
-0.7683
0.78204
0.1276
-0.55284
0.053494
0.4646
2.6003
-1.9394
-1.081
-2.465
3.2049
3.4391
-2.8803
-1.6972
0.47312
-0.19866
-0.11455
1.0211
-0.14017
-1.0006
0.61788
1.2905
-1.0712
-0.51347
2.1212
3.1964
-3.3802
-1.2804
0.31964
-1.2688
1.2411
2.913
-0.76682
-0.038987
0.78722
-1.2905
-0.20192
0.52805
-0.66498
-1.7019
1.5612
0.94016
0.21775
2.2033
-1.4447
-1.8951
-1.2326
1.177
0.10507
-1.3056
0.77836
0.44003
-1.4833
0.767
1.3075
-0.74502
-0.21176
1.5469
-0.8178
-0.22729
1.0442
-0.5276
-0.4769
0.95917
-0.9462
-0.36341
0.9621
-1.2049
0.36157
0.72343
0.98117
2.0596
0.11496
-0.70118
-1.7747
1.0694
-0.85609
-1.3875
-0.05076
0.86405
-0.64295
-0.012292
-0.28079
-0.76173
0.50866
1.4888
-0.84185
2.5447
1.1733
-3.0915
-1.1471
0.72567
-0.48242
-0.49881
0.86857
-0.30913
-0.86844
1.0647
0.18777
-1.0029
1.0684
0.165
-0.96427
0.35101
0.071881
-0.80691
0.91276
-0.86197
-1.0086
2.7138
1.0634
-1.2579
0.43836
-0.39577
-1.1077
0.5305
0.70376
-0.85631
-0.15065
0.5314
-0.83013
0.13906
0.50209
-1.0441
-0.52935
0.34912
-1.1608
0.17617
3.8628
-1.2818
-1.8946
-0.38602
-0.83019
3.5121
-0.16236
-2.3141
-0.33841
0.64508
-1.4746
1.7268
1.8611
-2.9228
-0.63102
0.62799
-0.48906
-0.63044
2.3993
4.1094
-1.3344
-1.8982
-1.2566
-0.92602
0.71417
1.143
-1.399
0.10271
0.2475
7.173
-3.2266
-1.6489
2.9385
-1.7702
-3.3088
1.6913
7.3005
-1.026
-5.858
-1.3007
-0.061076
-0.41935
-1.4048
0.67831
0.18904
-0.22171
0.44977
-0.38636
-0.85648
0.48541
-0.91345
-0.13619
0.99941
-0.91359
0.64058
3.1323
3.3118
-1.8079
-0.035834
0.70769
1.5663
-0.72693
-0.3094
-0.61331
-5.2206
-2.7961
0.77635
-0.16669
-0.35753
1.7844
0.13902
-0.42856
1.3129
0.089754
-1.2309
0.59289
-0.23913
1.7415
4.8164
-0.32627
-4.9111
2.356
-0.86065
-0.861
5.472
-0.98177
-1.5763
5.7403
2.2558
-7.1895
-5.5955
-0.8699
3.6467
8.1049
1.0395
-10.588
-7.1005
4.4232
0.65219
-2.2615
-0.25824
-0.11365
7.2834
-2.276
-4.2251
-0.20322
-1.5522
1.8123
-0.29437
-2.598
5.158
1.6499
-1.1539
-0.046539
1.5575
-0.66623
3.3534
2.5723
-5.3374
-0.69069
0.21867
-2.1822
-1.8496
2.988
-1.5726
5.5823
1.9503
-5.7432
2.98
0.49128
-1.5308
-0.30301
-0.42569
-1.0271
2.3322
9.5367
-7.5685
-2.9323
2.0752
-2.7291
-0.87509
0.082635
2.2532
7.2843
-0.42362
-5.1732
6.1545
-3.9968
-5.1611
-2.0032
-0.40961
1.6061
-1.0502
-0.080903
1.6101
-0.026323
0.82959
2.2015
-2.5302
3.5655
0.47081
-0.62267
-2.7884
-1.7074
-0.10807
1.0323
1.188
-1.2099
0.087071
2.1654
-0.66333
0.30816
3.4289
1.1126
-7.0756
-0.52069
10.087
-2.8536
-5.3135
-4.1497
1.3109
3.2785
-1.5271
-0.31311
1.0396
-2.1164
1.3145
3.8425
-3.5471
-4.3941
1.1489
2.4062
3.7781
1.4036
-1.2984
-0.75539
0.024408
-2.6124
-0.52192
1.6881
7.0743
-2.3469
-4.4213
-1.5435
1.763
0.5916
-2.4241
0.56754
-2.0058
0.35038
4.9308
4.7472
-1.8401
-3.5133
-1.5804
-1.47
0.76334
1.5934
-2.9071
0.87941
1.4148
2.8101
-1.6363
-1.5533
0.82639
1.08
-0.16849
-0.36448
-0.78964
0.32613
2.3275
1.5329
-1.9659
-5.874
2.1003
0.91226
-0.69562
0.91509
-1.8699
-0.25241
0.13728
-2.2212
1.0069
3.9959
-0.93138
0.19255
-0.077963
-0.48436
-3.4699
5.749
4.2829
-6.0535
-0.49233
2.1346
-0.65052
-2.6778
5.9713
0.69726
-7.9111
1.4146
1.3494
1.3294
-3.3663
1.0453
7.4368
-2.0706
-6.3469
-0.60582
0.57046
-1.9351
0.32352
0.5164
-0.56526
0.91016
0.33438
-0.81749
1.0446
1.4551
-0.76574
0.0113
1.3107
-0.70396
-0.20382
0.55207
-0.029178
-0.73336
1.9408
-1.515
1.1754
-6.6471
-6.8074
12.229
7.0143
-0.00012749
-1.3244
-3.0755
3.1261
1.7988
-5.5099
-2.3201
2.2905
5.184
1.2702
-0.39825
-1.93
1.4068
-6.7072
0.65242
-0.28228
-2.4481
-0.96301
1.0432
0.84404
-0.20744
-1.1664
0.55137
-0.12529
-0.79738
1.9163
4.9297
5.7294
-3.2607
-3.933
-1.2975
-2.3493
-1.0704
0.98776
-0.57194
0.19043
1.4113
-0.47334
-2.3278
2.9245
3.6369
-0.71307
0.19171
-0.048534
0.63868
-0.92567
-2.9859
4.6235
0.14959
-5.4306
-2.5186
-0.44078
-1.7184
0.9532
-1.9573
0.27588
0.83116
1.7546
7.4009
-4.5757
-3.1927
-0.31917
2.8097
3.064
-0.1149
-0.029379
0.040983
1.9334
0.70341
1.427
0.33145
-3.2061
-1.5095
0.4546
0.36823
4.0085
-3.5874
-2.1666
4.3726
-1.3466
-0.71314
-3.1123
-1.9436
1.1105
1.9151
2.146
2.9722
-3.0769
-2.279
-2.4805
-1.3272
-1.6981
3.2738
5.0064
-0.64518
-1.0307
-0.15337
-1.3013
-0.0035024
0.165
2.0417
1.7707
2.0525
-0.086924
-0.24982
-6.9174
-5.6971
0.48927
1.3968
-0.39176
-2.5339
-0.97916
-2.7638
4.4934
11.993
-0.25548
-5.1586
-2.1904
0.56404
3.325
-0.096324
-0.79222
0.72047
0.17398
0.28274
-1.8603
-3.4952
1.9762
1.4969
1.7292
5.1346
-1.826
-0.49652
-1.1828
-2.4301
-0.024391
1.6421
3.6
-5.0015
0.37772
0.21521
-0.30796
-1.2207
2.9652
-1.3737
3.5745
-1.6151
-7.6716
-0.22869
-0.52873
-0.32093
6.1782
0.044597
-2.3405
-0.52353
0.97376
6.7533
0.036696
-2.0005
-4.8588
1.42
5.9058
-6.1615
-2.6966
0.21087
2.291
3.3185
1.6255
-2.4642
-2.4494
-0.060175
0.44
-0.10694
3.7132
-2.2287
-1.3664
-1.6972
1.7542
1.4785
-0.68134
-0.51111
-1.2403
-1.6806
-0.2524
2.556
5.8906
0.84122
-4.981
-2.1458
-0.89939
0.39703
1.4666
1.5926
-2.8886
-2.6067
4.6088
1.5955
-1.7007
-0.82512
4.5444
2.3283
-5.1748
-1.9357
-0.22631
-2.9374
3.7172
4.504
-2.9613
-6.7699
-0.94386
-1.5142
0.80935
5.9304
1.0183
-4.3098
0.61438
1.4605
5.9264
1.3452
-0.41639
-2.7362
-0.8585
1.0821
-6.9666
6.2904
4.5007
-7.3283
-3.0933
2.0735
-0.54925
1.747
6.8869
-0.63355
-3.1044
-3.0185
1.3381
-1.1096
-0.95843
-0.48195
1.24
3.3379
-2.9497
-0.26226
4.6265
-2.5289
-1.8126
0.21454
8.4156
7.1324
-11.333
-7.9635
0.28811
1.8592
-3.6101
-0.18707
2.1916
0.35753
-0.39787
-1.234
3.2478
-2.7209
-0.0050503
2.1387
-2.4883
1.3946
2.9121
-2.5771
-0.39638
0.41847
2.3609
3.3525
0.49391
-4.0615
-0.96544
0.85475
-1.0112
0.29672
1.9204
-0.86587
1.2468
0.94844
-2.165
8.3572
0.94268
-6.0488
-1.7019
1.5818
2.6608
-0.25814
-2.362
2.981
-4.3464
-2.2148
1.3305
-3.809
0.0096538
2.422
1.4258
-1.5886
-1.3108
-1.7938
6.5878
3.933
-4.6206
-1.866
0.41397
-1.0888
1.6545
2.2015
0.84784
0.42262
-1.6584
-2.7393
-0.96434
-0.99296
-1.3998
4.1471
3.4599
-2.7472
-2.7359
6.0906
2.8448
-3.5732
-6.1544
-3.8087
1.3787
1.354
3.3175
0.87711
0.17708
-0.076478
-3.3199
1.2457
-0.74295
3.3407
4.0904
-3.3209
-2.4811
-2.1127
1.4876
-1.5734
0.53587
-0.89623
0.99398
2.5827
-0.75725
-3.8653
-0.94994
0.37157
-1.0951
4.7193
4.5092
-1.1083
-0.49668
-2.9357
-2.645
0.077513
0.27014
2.024
3.996
-0.42569
-2.0338
-0.85397
-0.12945
-1.5894
1.0994
3.2207
-2.2733
-2.7775
-0.40368
-0.49274
3.4761
3.8664
-3.3335
1.8817
1.3942
-3.4251
-2.2806
5.7682
3.5748
-3.6156
-2.2166
0.78225
-0.13097
-2.0187
-1.3944
0.17523
-0.08722
0.46251
-0.76111
2.4964
1.059
-1.818
-3.396
0.21082
2.0635
-0.16742
-0.96432
0.27987
2.0469
4.2814
-1.3222
-1.8349
-0.88895
-0.49702
1.1114
-4.1697
-1.5883
0.20945
-0.38859
-0.37735
1.601
0.21419
-0.19419
1.9781
-0.43871
-0.40434
1.4469
0.86644
-1.0132
0.81248
1.5054
0.17913
-1.706
0.43255
1.0166
-1.0601
-1.4885
-0.40726
-0.020124
5.5643
10.9
-12.234
1.9716
6.5289
-2.6769
-2.81
1.2357
-0.83381
-3.8916
-3.6659
0.56186
0.93211
1.9432
2.3447
-1.5544
-2.2347
-0.94521
-2.5298
-3.385
3.2581
5.0128
2.8259
-4.3035
0.73784
-2.97
5.6467
9.6333
-12.472
-8.7755
2.0386
1.5603
0.90153
1.8008
2.4299
-0.47183
-2.6526
-0.71452
5.7322
0.73796
-4.9003
-1.7983
-0.0038237
-0.778
-1.0976
4.5417
4.4986
-4.8978
4.0387
5.9382
-3.4429
-5.5785
1.4179
2.8525
0.058482
0.72162
-4.9843
-3.8576
0.14874
4.8216
-0.099643
-1.0332
-2.3023
-2.4506
0.015376
-2.5652
5.0222
1.42
-3.7036
-0.14453
3.5236
-1.112
1.7083
-0.39264
2.9078
1.3844
-4.3404
-2.6719
-1.7879
2.1449
0.69824
-0.51707
1.0957
1.6562
-0.46567
1.7716
3.4871
0.099099
-1.2466
-0.72644
0.37587
-1.1721
2.7611
-0.29966
-2.364
-2.1096
7.3944
3.5013
-9.1547
-3.1326
0.95581
-2.2487
-0.27876
0.064301
0.032913
0.92828
-0.15184
3.9574
6.376
-5.3315
0.80875
-4.0015
-1.8465
0.10326
-0.86867
-0.2023
0.59602
-0.42025
-0.8062
6.591
-3.812
-0.10185
6.1783
-2.2996
-6.0808
1.9763
1.5486
-2.2541
0.46879
-0.083128
0.19727
-1.5488
2.7826
4.5224
-3.1143
-0.99109
-0.55718
0.071888
1.2703
-0.11202
-0.43367
1.8203
3.8244
-0.83875
-4.2222
-1.4029
2.1252
2.8918
-3.3019
-1.5582
-1.0703
-1.0161
0.95068
0.51364
0.055857
1.1125
0.4015
2.9354
1.9378
-2.1642
-3.9778
2.3946
-1.3874
-0.70813
-0.93808
-1.3425
3.5668
-2.1528
-2.9849
-3.4254
-6.0008
-7.4034
4.4065
15.547
13.606
0.33049
-1.0659
5.21
-11.576
-10.477
3.7541
2.7336
17.401
0.17302
-17.239
-11.016
0.24903
3.2084
3.4169
1.6017
2.2864
0.42314
-4.3662
2.2422
14.622
3.5126
-18.252
-7.4353
4.3167
1.9084
-5.2905
-1.8133
1.1314
5.1452
10.327
-3.7342
-14.454
5.2736
-0.68208
7.3608
3.7882
-2.2777
-4.5711
-3.2479
-5.4811
3.9358
4.6719
-0.17842
1.2083
-0.20804
-0.20458
1.4154
-0.13972
2.6724
-2.0053
-2.5417
2.3744
-0.074456
-0.10253
0.16126
0.32516
-0.54639
1.5004
-0.35396
-0.82396
0.67558
0.21078
-0.58502
0.027477
0.65154
-0.61224
-0.10455
-0.67175
-1.2049
-0.70145
0.9163
-0.75899
-0.081472
2.8935
1.3695
-3.3691
-0.65624
0.7685
-0.45544
-0.68842
0.38792
-0.20058
-0.501
0.95054
0.48123
-1.3535
-0.14278
2.761
3.2491
-1.3751
-1.6326
0.71174
0.29086
0.24669
-2.0494
-4.0147
0.37993
2.8773
1.6561
4.3296
4.4357
-1.3221
-4.5545
-5.7762
4.0626
3.629
-5.7494
-6.6288
0.033807
3.0296
-1.082
1.1709
1.8865
-1.1813
1.1031
0.89932
2.9079
-0.30752
-1.6765
3.421
-3.9178
2.0495
-1.001
-1.0833
-1.2654
-0.77048
-4.1979
2.8254
6.9715
-2.5881
2.0275
0.854
-3.0275
-0.56234
0.67896
-0.76447
-0.74683
0.3162
-0.71126
-0.95774
0.90514
0.038879
-0.12895
1.5328
0.96357
-0.33619
0.51223
1.3192
-4.5099
1.3405
-1.0294
-2.1281
4.6969
-2.7554
-3.8393
3.7688
-0.5665
-1.3746
4.6185
1.8993
-3.6675
-2.0701
-1.0329
2.6532
2.264
-0.44232
2.9751
1.2544
-3.4233
-1.5166
-0.036349
4.5759
0.086838
1.6672
-3.2415
-4.7724
-0.51375
0.41735
4.882
-2.0592
-2.0158
-3.0946
2.693
5.9858
-2.1841
-4.8413
0.15839
-0.17916
-0.87624
3.4102
-3.0289
-2.4014
2.6572
3.682
4.4973
4.3238
-10.081
-3.8676
0.90823
0.58142
-2.2428
6.2486
6.205
-2.1262
-1.7408
-5.0203
-0.496
4.2719
-0.17885
-2.7371
3.545
0.4916
0.1996
-1.3146
-1.1817
-1.4938
-2.4143
0.37049
2.732
0.13132
0.59182
1.0751
0.4037
-1.0654
-4.1514
2.8356
2.4851
-3.5026
-0.24991
0.45517
1.0371
-2.8073
8.1196
-0.35538
-10.175
-0.013882
2.5696
0.048903
-1.6768
3.2426
-0.14413
-1.7873
-1.2633
0.58586
8.746
0.13127
-5.8282
0.17746
5.283
-3.7443
-7.1784
-1.54
1.3116
0.16549
1.4681
2.8238
0.58761
0.44412
3.0718
-5.0338
6.8397
18.694
-4.1118
-21.447
-9.3604
0.61391
4.806
2.8858
3.3148
2.7281
6.2146
8.732
-9.7578
-6.0817
-1.3769
0.86219
0.94527
-1.5258
-0.041506
-2.6836
-4.902
2.924
4.1319
6.399
-1.3878
-0.65509
3.959
-0.13869
-1.8189
-1.7836
-1.7695
-1.6423
-0.99118
0.55382
-0.9192
-0.3584
1.0462
-0.53814
0.086042
1.2427
-0.23522
0.58417
-0.27358
-2.196
2.1324
-1.907
-3.3009
0.011617
-0.085334
0.46292
1.0921
0.069004
-0.83624
0.49023
-0.15675
-0.94411
3.8129
3.3389
-1.7998
-1.2527
0.7984
-1.9499
-3.2153
2.0488
-1.1975
-5.3758
1.319
5.9153
-2.1401
-1.1892
2.8522
1.6757
-1.8218
-0.67464
1.3724
-1.0451
0.13341
2.2535
1.2519
-0.76586
0.95257
1.1046
-1.0899
-0.10894
1.5004
-0.5895
-0.49903
1.114
0.4476
-1.0886
0.077191
0.80622
-0.49236
-0.49224
0.36005
-0.72084
0.68311
-0.043107
-0.74229
-0.37174
0.96846
-0.043483
-0.15667
1.5252
2.181
-1.2742
-0.28176
-1.274
-1.0423
0.93621
-0.51465
-0.5236
0.92957
0.46875
-0.38509
-0.67914
0.26832
-0.7849
0.096406
-0.66453
-2.1027
1.0001
0.86479
-1.8789
-0.33984
0.96992
-1.0736
0.36457
2.3867
2.0372
-0.21157
2.8784
-5.9327
-7.0851
5.3976
5.8893
-4.7217
-3.5768
0.61419
0.33545
1.0645
0.32426
-1.0009
-0.39661
-0.50429
1.705
3.2867
-4.9572
7.4051
6.0439
-0.68047
-0.18117
-0.68425
5.7607
-5.3773
-12.256
-6.5876
4.2242
5.8506
-4.1585
-1.0943
3.0832
1.5356
8.846
2.0868
-5.7836
-2.7256
-0.32056
0.77598
3.4283
6.7355
-3.9962
-3.944
-4.0055
-4.6105
-5.1378
-2.1945
0.83049
0.46631
0.78867
-0.45914
3.2219
7.6317
-1.1291
-7.2608
1.5149
2.5064
4.1237
-1.467
-1.933
0.75402
2.91
-2.0202
-1.7753
1.0439
2.2477
1.9216
-3.7532
0.76252
4.4305
-0.41035
-6.1103
3.6747
3.2748
-4.7862
-3.4995
-2.6422
1.2732
8.8078
0.51307
-4.6997
-2.0327
-1.3517
3.19
-2.1414
-3.2774
5.1024
-0.31679
-2.3378
-0.44691
4.1677
-1.516
-2.1382
-1.6367
1.3962
2.8692
-4.3934
-1.2186
2.0283
3.4349
-0.81236
1.8156
5.0727
-1.7109
-0.19464
-2.1795
0.93445
-2.5182
-1.8824
1.7104
-1.6505
1.733
1.8968
-1.0736
0.66593
1.674
-1.3059
-0.55482
-1.655
-2.868
5.3293
1.7598
-4.5238
0.5328
0.95783
0.67087
-0.57333
-2.092
1.1469
0.74287
-2.7489
4.6818
1.606
-12.982
-5.6677
2.3341
-2.4015
7.101
6.2277
-1.1627
8.5315
-4.1409
-1.4612
5.8322
1.4562
-2.2494
1.9095
6.1366
1.2887
-1.2356
-4.3791
-3.022
-2.4478
1.4298
-1.4454
-0.35
-1.6182
-1.3254
-1.5646
-0.45929
0.16915
1.5056
1.4156
0.072113
-2.5168
-2.5942
4.4082
1.9256
-2.9973
5.2978
2.6123
-5.5628
-1.4201
0.5225
-2.7476
0.34461
-1.665
-2.1979
1.8729
2.5454
2.4531
-1.9448
2.5444
-0.7314
0.078761
3.0232
-4.6956
-0.064814
-0.42951
-1.3899
0.099993
0.74798
-1.1478
0.21593
-1.6443
1.9938
10.857
3.6233
-10.323
-0.40265
1.6598
-1.3675
6.0345
-4.5608
-8.1511
0.51712
-0.16204
1.741
-0.76119
0.26764
2.7278
-0.95376
-0.45147
0.50389
0.87638
0.29095
-0.093031
-1.4524
-0.96006
0.23434
-4.5511
-4.882
4.1198
2.629
1.2746
-0.81753
3.3575
1.2264
-2.9319
-0.0029317
1.3376
-0.59115
1.4961
2.4248
-0.064247
-0.20545
1.0048
0.15698
0.17647
1.082
-0.035446
-0.97706
0.98606
0.9347
-0.1265
-0.45074
0.69769
0.61497
-0.79713
-0.55434
0.3709
0.24205
-0.54792
-0.62037
0.5099
0.34468
-0.74768
-0.52101
-0.15662
0.48203
-2.6512
2.7152
15.187
-3.6781
-7.9081
2.645
0.81415
-3.6564
-1.2257
1.4309
3.3979
-4.8266
-2.1303
-0.52006
-0.016901
-5.5091
3.8554
-3.5796
-0.21774
2.9284
-0.77518
1.6138
-1.6023
-1.4609
-2.1832
0.55403
-0.4474
2.0826
-0.15358
-0.69676
0.23878
1.0177
-0.422
-2.5846
-0.12483
3.2751
2.6842
0.49807
-6.9343
3.4665
-1.0739
-1.5009
-1.9241
-0.78442
2.958
3.4485
-3.5335
-1.3951
1.1931
0.88837
0.4197
0.49487
2.0053
7.6802
-1.9769
-5.9677
-5.1707
1.1537
2.4125
-3.1863
0.76694
2.7455
-2.5143
0.76251
0.75245
0.15259
1.5448
4.2228
-0.074083
-0.8128
3.0791
-7.0994
-0.44567
2.3529
-1.8921
1.1085
1.6092
0.68444
-4.0987
1.7416
3.3025
0.32036
2.0629
-1.4912
0.53371
-3.5685
-1.1641
-0.395
-1.041
3.7522
1.8688
-4.7988
2.6834
-1.3974
1.9358
-1.5758
-2.2788
-1.7397
-1.9412
1.2383
5.4256
2.4559
0.81167
11.755
7.3229
-23.703
-10.22
5.0758
0.43447
1.7001
-3.0114
-0.075932
2.1026
-0.58146
3.241
-0.52477
0.6886
0.75288
-7.0101
3.6015
7.0916
1.4944
0.38323
1.2528
4.0688
-2.4434
-12.656
-1.954
5.8392
6.7245
-2.9395
-4.8462
0.63921
1.764
-0.32277
-0.76399
-0.023395
0.17042
2.8161
-5.5553
-0.69557
3.9941
0.28656
-2.4434
-0.16741
-1.2708
-3.0572
4.8546
2.6791
0.47229
-1.0385
1.3542
1.4945
-0.84127
1.2223
3.6784
-1.1514
-5.2097
6.4297
0.057195
-0.3923
-1.0093
-2.6049
-0.91403
-4.027
-0.17322
0.089303
1.5126
-0.38607
0.51121
1.9258
-0.12586
-1.973
-6.6062
4.1029
8.0318
-6.1928
-3.395
-0.026385
0.45967
-1.779
1.0364
1.0712
3.1536
-3.6189
1.2542
3.6325
1.4596
2.7992
-0.026422
-3.8741
-0.71066
-0.67385
1.6528
-0.6702
-1.8756
5.3321
-1.3046
-1.4985
-0.89575
-1.1715
-0.79344
-0.98098
2.0096
3.0391
0.45504
-1.8471
-4.3169
0.72323
4.6616
-3.2549
5.4414
2.4438
-12.89
0.37498
7.2784
-2.5098
0.85057
5.7239
-7.1461
-3.9128
-0.67645
-2.161
2.3898
-2.8405
0.26686
8.0727
-0.068255
1.3471
4.7742
-0.44941
-7.9893
0.62497
4.2793
-1.7179
1.4016
-5.459
0.055774
6.2693
2.0816
0.93717
-1.3371
-2.666
-4.4694
-3.3972
9.3341
1.994
-0.85815
6.6031
-4.054
-8.742
-2.6686
5.1988
3.1776
-4.1953
-2.061
4.5189
-2.2326
-0.7713
1.7019
4.2748
-1.3094
-4.2639
1.9039
-0.6652
-0.13454
0.5577
1.5446
-1.4537
-2.3315
2.966
-1.6322
-6.1583
-2.6098
-0.83515
8.9046
0.86565
-2.8594
-1.01
1.704
-0.043195
-0.079732
0.036159
1.0309
8.4732
11.414
-10.385
-7.6995
-0.18338
-4.5254
-1.7504
1.7886
2.2128
-0.91585
-0.7453
-1.7911
-2.4929
5.1814
-0.65377
-7.2126
7.562
3.5989
2.4885
13.166
-12.071
-5.7669
9.2579
-11.045
-7.5144
8.1345
1.1675
-0.33357
0.85768
3.2295
-1.607
-0.66247
-1.9216
5.6602
6.0029
1.1776
-9.6917
-2.5062
1.8614
-5.9299
6.6862
0.69637
0.094391
-0.21719
0.94976
-3.6066
-0.49186
-0.079983
2.1921
-1.9147
0.31039
4.0299
-2.9271
-2.1436
4.8176
-3.2286
-2.1014
-6.9435
-1.9607
13.633
-0.22951
-2.6271
2.2541
-2.4423
-4.3812
-1.2459
1.6723
5.7417
5.6762
-3.9485
0.57344
-2.2234
-1.2382
3.8181
-0.30888
-3.0159
-1.8875
-2.0223
1.0273
1.8718
-0.69605
4.5487
0.55984
-2.5863
-3.5187
5.706
1.5358
-5.741
-0.56797
0.93844
2.8782
-2.9618
-1.6537
-0.47169
2.7825
-0.3652
6.4575
2.4083
-9.1363
-10.386
4.7546
5.5145
-2.1976
-0.53258
1.4993
1.4056
-1.6171
-2.196
-7.3639
-3.8344
7.8898
3.8687
5.6182
-1.912
16.129
10.308
-18.07
-6.6631
2.1192
-0.7719
-1.4509
1.3304
0.34945
-0.14887
-3.4669
-2.4299
1.9576
1.181
-2.0731
-8.2015
-3.1064
9.1865
4.8091
7.904
-2.8561
-11.28
2.936
5.7442
-4.5604
-4.3521
5.117
5.961
-2.0685
-9.1169
2.7889
4.966
-0.19269
-1.2819
-1.6985
-2.9127
-1.0053
-2.1444
1.8131
1.3484
-0.67332
0.79158
0.77084
0.35893
1.6526
1.5857
-0.95121
1.1135
1.3668
-0.46782
0.67428
2.2971
0.7579
-1.3521
-0.33442
0.72242
-0.84869
-0.24634
0.23475
-0.49988
0.45213
-0.41197
-0.30425
-1.4427
-0.35231
1.1645
-0.40843
-1.3325
2.8523
3.2649
1.9532
0.37987
-5.2352
-3.6497
-1.0511
0.69041
-0.48725
-0.082391
0.6379
-0.18726
-0.83067
1.1774
-0.38653
-0.93564
0.80455
0.98879
-0.89681
-0.1767
1.3193
-0.02322
-0.79844
0.50089
0.62605
-0.6472
-0.18851
0.31013
-1.2727
0.19841
0.39994
2.415
0.7393
-6.2196
-1.7459
-1.0176
0.78713
4.1139
-1.5327
4.2891
-0.63963
-0.87375
1.1883
-1.1917
1.8061
-1.4061
-1.7588
0.90613
-3.4333
-5.6714
2.2661
-0.65247
2.1182
3.085
1.8838
0.066567
0.75747
-0.4648
1.9342
-0.54401
-0.26668
1.4161
-4.1166
0.1051
5.5152
3.9054
-2.6357
-3.0506
-2.6483
-1.4031
-2.3454
-0.33413
2.1615
6.3623
3.1712
-2.9316
-2.6784
-3.2375
0.95292
-0.96585
2.4922
0.72302
1.5311
-0.33036
-4.6597
-1.7861
2.0271
3.1546
-5.5316
-1.5576
1.5185
1.4176
1.3147
5.1172
0.045976
-1.9495
2.1834
-0.71498
-1.7923
-1.3144
4.0608
-1.5372
-3.7988
-0.73378
1.7223
-0.81259
-0.68337
2.3074
2.6339
-0.29724
-1.5477
-3.4427
-1.8272
3.778
-0.080626
0.0050523
2.8954
-2.5432
-2.7494
-0.084662
1.286
0.089726
-2.6079
-1.8918
-1.1417
1.5187
2.9965
6.5485
0.036267
-1.4671
-1.5616
1.9115
-4.9686
-6.2166
2.5645
-2.3435
3.7178
3.13
2.2418
-2.7681
-0.6898
3.775
-0.98013
-1.618
2.0325
-0.55127
-4.1395
0.96601
-0.16046
-0.31338
3.3376
-2.3457
3.5559
5.7896
-6.3683
1.2539
0.43153
-1.756
-2.0154
1.6332
2.122
3.2008
-0.5521
-0.021326
-4.3299
0.11279
5.3176
1.8208
-2.1048
-5.6227
-2.4975
-0.19207
2.2495
-0.05098
-1.3394
-2.068
0.59385
-0.68603
-0.7978
1.5878
0.47823
-0.11139
0.5034
-0.30518
-0.39783
1.361
-0.040466
0.0088237
4.484
2.834
-4.7675
0.70223
3.0278
-0.30485
-3.6131
-1.1987
-2.2303
0.67015
5.0167
6.7771
1.4846
-3.739
-2.6676
0.72271
-3.2134
-5.2333
1.3653
5.1604
-2.8383
-1.2185
1.5526
3.9598
-4.3095
-2.6043
0.94973
8.8153
-4.6135
-10.025
0.56576
-0.85402
0.95229
-1.9861
0.17261
1.154
6.5638
0.0018591
3.4493
-0.11426
-8.1555
0.94714
4.078
1.303
-4.6098
-4.6485
1.138
10.207
2.6848
-5.7613
-0.47325
6.2047
-5.1789
-2.4593
-0.12951
-2.1609
-2.175
-9.9256
-5.7623
12.645
14.258
7.3924
-0.68228
-5.7738
-9.2204
1.389
3.914
0.49208
-0.1533
-0.44129
-1.0692
-0.16157
0.11905
-0.77719
0.20799
1.0065
-0.83727
0.61258
0.825
-0.4029
-0.4892
-0.19129
-0.55284
0.41412
-0.43356
-0.48451
0.73331
-0.90744
-0.24933
0.78858
-1.0964
-2.054
-0.30622
-0.36119
2.5153
3.6713
2.7992
-4.4532
-1.3934
0.23122
-2.2286
-0.66314
0.40181
-3.2011
2.0691
13.247
0.95841
-8.0255
-2.2503
-2.5003
-7.1504
4.481
3.1218
-4.7107
1.5172
3.1481
-1.0103
-0.60935
2.4455
0.5982
-1.59
1.2116
-3.5936
2.5166
6.5073
-3.7076
-1.8703
2.627
-1.4133
0.50314
1.6866
1.2112
1.7829
-2.6007
-2.9549
-0.79081
0.15713
-1.2361
1.046
1.0994
-2.0485
0.13237
0.40696
0.51722
1.8771
1.0623
-2.4904
-0.2751
-0.21771
-3.3666
-1.0991
5.1955
3.1425
0.042723
1.0244
-3.6044
-4.069
5.6
6.1163
-4.0062
-0.34902
1.7101
-6.221
1.9342
4.6985
-5.9188
2.0739
-0.078604
-1.743
-0.05155
1.5002
-0.16948
-2.8989
-1.6116
-2.1925
0.5978
1.5479
-0.34945
1.9314
2.3854
-1.1605
-2.6152
2.9552
1.6622
-1.4809
2.3867
-0.57371
-2.1372
-0.51215
-1.4331
3.9983
-1.011
0.22254
-0.62197
-0.73839
-0.58979
-1.962
0.16715
1.9458
3.0808
2.6399
0.048305
-3.7658
-1.0395
0.92136
-1.5994
3.4689
-0.89908
3.702
0.41481
-8.5445
0.56022
4.3121
-4.3137
-4.0283
-1.3645
1.2327
2.8392
0.61153
-1.0042
-0.27674
3.0589
5.8563
-3.7894
-3.5314
0.87838
-2.6163
2.8075
1.098
1.3571
1.8102
1.3452
-0.62314
-2.4254
0.63062
-1.53
1.0297
0.5434
2.5992
-1.2893
-0.67523
3.0331
0.5242
-5.6381
-6.5045
1.3709
2.2691
-1.9596
-1.4311
1.0307
6.13
0.7225
-0.12954
2.8969
-5.0779
-1.089
-0.61842
2.1143
2.7506
-1.9953
-0.53548
-2.8447
-1.8814
9.4393
-1.5134
-5.6692
2.9037
1.9206
-2.9732
-3.1113
-1.5159
-0.00075052
-1.406
5.6784
5.7007
-5.8912
-2.3895
4.9706
4.0353
-5.5618
-4.3257
0.51882
1.0111
-0.94517
7.9126
-2.5889
-4.6149
0.77151
4.0278
-1.4529
-2.5048
3.3711
0.1144
-5.514
6.1795
-1.6863
-4.7651
1.6291
-0.71439
-0.35258
-1.2098
-0.065106
1.3258
-0.12317
-1.1502
2.9029
3.7182
-1.269
-3.8124
-1.9543
2.5507
0.53868
0.59056
4.8513
-2.6243
0.17799
-2.4816
-2.1308
3.6577
0.77254
3.1227
-3.2215
-0.51587
-2.3783
-2.3772
0.8174
-1.476
0.71106
1.7754
-0.19077
1.7698
6.1515
-2.1218
-0.16074
2.4482
-4.4543
-3.7181
0.9327
0.27359
1.0631
11.601
0.55669
-9.6464
-0.60964
-2.8382
0.53848
1.0224
-4.3251
3.4924
0.4104
-3.4504
0.05018
1.6816
0.58765
0.35023
0.41452
-3.4755
8.543
8.7378
-10.702
-4.1793
-1.5362
-1.1116
5.4525
1.3015
0.9375
0.86988
-6.5238
-1.829
1.4394
2.0408
4.7869
-1.7846
-2.8128
0.090038
0.20769
-1.8712
4.0882
5.0029
-1.603
-0.78937
-1.7452
-0.44156
0.34119
1.8846
0.78844
2.1974
-1.0715
-4.9209
-2.414
0.68271
-0.099221
-1.1685
0.9066
-0.40654
-1.1647
0.71703
0.63776
-0.5379
-0.01626
0.89344
-0.38654
-0.68213
0.81014
-0.04219
-0.80338
0.90711
-0.39887
-0.57867
0.84123
0.64102
-0.79936
-0.093671
0.82195
-0.58458
-0.22676
0.84791
-0.51978
-0.83881
1.303
-0.36781
-0.93494
0.62472
1.1012
-1.3164
0.13408
1.5015
1.5958
0.98355
3.0697
-2.408
-5.9166
-0.74641
0.38294
-0.95417
-0.073762
1.6462
0.91406
-1.0151
0.55473
1.2129
-1.3469
0.08596
1.6848
-0.74395
-0.12016
2.257
1.1772
1.8517
0.58699
-0.044824
-1.5852
-0.81063
0.94425
-0.35955
-0.91822
-0.40597
0.0005541
-0.15338
-1.3475
0.92826
0.65466
-0.83541
1.3197
0.53116
-2.3899
-0.054908
2.2005
-1.3448
-1.2568
0.66238
-0.0086168
-1.4827
0.28363
0.68544
-1.0919
-0.12213
0.75576
-1.3578
-0.18442
0.95019
0.12256
-1.1494
0.34763
1.0288
-0.42105
-1.0318
0.73509
0.70522
-0.88272
-0.3613
-0.80771
-1.423
0.44764
1.662
1.8806
-2.5273
-0.37907
1.4415
5.791
0.25078
-2.8915
9.2879
-0.049063
-9.8739
-12.23
-0.39142
6.1476
0.49172
-4.1226
1.6504
4.5146
-1.663
-2.5855
1.0561
3.6591
-0.15936
3.6612
5.9899
-10.229
0.23358
4.4012
-2.6066
-2.9449
-1.3991
4.8285
1.0461
-1.1525
0.11721
-2.396
4.8815
3.9931
-2.4394
0.79025
-4.8796
-1.2799
0.637
2.9551
-2.6572
-2.0138
6.9719
0.35341
-5.8492
-1.8246
-0.61747
3.9084
4.0191
-2.8806
1.513
-4.1052
-1.0329
0.7623
-1.2302
2.7613
10.413
-1.3416
-5.7371
-5.1562
-1.8305
2.8536
2.7939
-6.7036
-6.4394
-0.78928
5.2885
7.2409
0.2249
-2.4028
1.5091
-0.39248
-1.7644
2.546
-1.8646
-3.8419
3.0328
0.4786
-3.8126
1.9377
2.4522
-1.8628
0.37646
2.551
-1.6358
-0.019854
4.3654
3.1625
-2.0024
0.09442
-2.2735
-1.5707
-0.71898
2.5126
4.9987
1.8818
-0.40459
-5.5725
0.8466
-4.271
-2.5073
3.1898
0.66514
-3.2364
2.4102
1.3901
-0.33653
0.18832
0.76989
0.42634
-0.022881
-5.4369
0.016887
0.13138
-0.63433
1.3818
0.82012
-1.3531
1.5705
2.0337
-0.95103
0.014728
0.9371
-1.8163
2.4471
1.7934
1.0262
-3.2875
-1.2158
-0.8015
1.4538
2.3678
-2.6793
-1.8383
1.7567
1.9769
0.81227
3.4902
-1.2679
-0.20817
-4.8673
-2.6384
1.2069
-0.71221
2.5807
-2.9002
0.83826
3.8924
-0.16122
-0.57186
-0.31076
-0.8563
0.19208
3.6904
-0.8866
-4.8683
1.1223
0.72227
-0.67953
2.2884
-2.8182
0.18175
2.8138
-0.25265
-5.2343
-2.4736
2.6839
1.5212
1.2817
2.1815
-0.7032
-2.8694
-1.7652
1.667
1.408
0.0020586
5.8035
2.3637
-8.2864
-1.8747
2.4994
-0.40185
-2.5127
3.8674
3.9863
0.045278
-2.4262
-2.0069
-3.387
-0.41196
6.3112
1.0152
1.9903
2.3217
-4.0315
-4.0075
0.073653
-0.89392
-1.1289
2.8854
2.4693
-3.6332
4.4522
-0.34529
-10.818
4.0093
2.8521
-2.0644
-0.64558
0.63551
-0.54329
1.4324
3.4012
0.63223
-2.3061
-1.078
1.3671
-1.8783
-1.5634
1.1306
4.4235
-0.87221
0.5634
6.726
-6.8508
-3.7249
-0.043466
-1.319
-0.10793
0.14737
-1.3559
6.5655
1.4795
-0.81172
1.4543
-4.0557
-3.4836
-0.93019
1.267
-0.38074
3.0934
1.4138
-0.25306
7.219
1.5957
-12.132
1.3993
-1.8243
-4.3364
-0.054292
10.657
3.8659
-4.301
-6.6564
3.874
-1.6493
-4.4437
0.97445
-0.61187
-1.269
-0.028416
-0.16127
1.5173
-1.3047
-1.019
6.441
0.052092
-0.29504
-0.83084
-0.15203
1.5038
-0.3613
-1.8669
0.28677
3.5431
2.6959
-3.4199
-1.1469
1.1914
0.67496
5.6607
-1.562
-2.1056
-6.2286
5.8056
3.6205
-7.8687
-0.92394
0.054615
-0.99144
0.72621
1.6525
0.51659
-0.32438
2.1609
3.0961
-4.1179
-1.5629
-3.6591
3.5524
3.1315
-0.35114
-2.9871
0.51098
5.2189
-6.2556
1.0869
-1.068
-2.6243
0.70642
2.186
0.44671
-0.32182
3.1375
2.7797
1.2577
-4.45
7.9773
2.2628
-9.5662
-2.4002
-2.7843
0.90705
4.036
-0.36206
0.72833
3.7626
-5.1004
-5.852
-0.81661
3.1833
5.5724
-0.39316
0.11113
-1.0202
-1.7236
0.097181
0.15373
0.3047
-2.3099
-3.2293
-1.3448
2.7253
-0.23201
-2.0439
1.6255
4.4812
6.8469
-5.0347
-0.62427
5.0537
-1.6183
-2.6072
-2.5848
-1.8696
0.24912
0.076646
-0.43428
-0.2526
2.9795
2.1186
-2.6051
-2.0084
0.86083
-2.8094
-2.4444
11.578
4.0868
-5.4741
-3.2142
-3.7681
-0.56029
1.0582
-0.086383
3.6303
-0.38433
-0.064156
1.5425
-2.4477
-1.1877
3.2516
1.8122
-3.7674
-2.4108
4.2436
1.2447
-4.268
1.0575
-0.4579
2.1608
0.93474
0.066323
-1.8754
0.050745
1.372
-2.8213
0.12936
0.22035
-0.91712
0.52069
3.9478
0.32813
-0.20909
0.25196
-1.6437
0.94257
-0.18054
0.14681
-0.99649
-2.0693
0.29413
2.0452
-3.2654
3.0132
1.8569
-1.218
-2.2412
1.1222
-3.1088
-1.7318
1.2447
-0.50903
4.2582
1.7505
-5.0294
-1.6754
7.2417
-1.8939
-2.478
1.9794
4.2312
-5.9653
-2.5561
-0.43923
6.5104
1.3893
-6.5444
-3.4594
0.90525
2.6119
-0.99968
3.6088
4.7121
-3.0896
-3.7804
0.526
-0.22397
1.529
4.4688
5.3506
-3.7858
-3.0553
3.7633
-0.18342
-3.9649
-3.5929
-3.1245
0.46654
1.6513
-1.7271
8.97
-0.34115
-3.8149
-0.6053
-3.3826
-3.659
0.7248
1.4682
-0.8116
2.4105
0.30081
-2.1451
0.95295
3.1357
3.0099
3.4178
1.8193
-2.7241
-0.64149
-3.17
3.4791
1.2151
-2.2959
-1.7516
9.8825
-2.2944
-10.742
1.9684
-1.1481
0.57371
-0.45526
0.6091
-1.7192
5.8195
2.2078
-5.8175
-2.9988
0.33993
-0.48417
0.10988
3.8516
0.086396
1.4028
-0.6854
-2.0368
0.16101
1.763
-2.4305
-5.4392
0.19396
0.61713
7.4671
0.60236
-2.4082
-3.0134
2.1536
-0.42073
-2.6759
0.7035
1.1071
-4.7222
0.951
3.0287
5.6109
-5.1834
-3.283
-0.79969
-1.5334
4.3347
4.7964
-3.0518
1.3627
5.3676
-1.7578
-1.9554
2.331
3.2894
-1.6336
-2.2955
-5.6898
-3.2803
5.5051
-4.3371
-2.2399
6.8697
6.6519
-1.9407
-2.892
0.10823
-8.1902
-2.4451
1.6394
7.5612
-1.7238
-3.1678
2.4201
-0.51593
-2.8438
1.7707
2.9286
-1.1669
-0.19005
-0.4242
-0.18615
3.21
6.3002
-3.5353
-3.3692
0.54627
-0.15152
-2.9766
0.65797
5.1466
-1.9436
1.4102
0.04407
-2.5608
0.065158
4.4316
7.4123
-4.3871
-3.1616
-2.5137
-3.2222
4.4118
2.582
-3.9524
0.87341
-3.4738
-1.3947
1.5519
-1.2982
-0.12741
3.3502
-2.0904
-1.1607
1.1197
-0.91722
-1.0642
-1.8246
-3.9102
-5.4014
7.1128
7.3168
-0.18377
6.9311
7.0153
-7.067
-2.1479
-0.07453
-0.82252
-0.12805
1.9475
-1.8328
-1.5313
-2.5161
-4.3454
3.2184
0.50254
2.5683
-1.8581
-7.2181
3.3133
10.53
3.2999
-1.8524
-6.3739
-4.1764
-0.74047
3.9163
-0.88146
-2.3146
2.4005
-0.78938
-1.148
0.73015
3.768
0.039165
-0.83365
-0.89598
-0.062441
1.2317
0.54605
0.71203
-1.9027
-5.1009
-0.8846
2.6323
1.2763
0.9523
-0.1461
-1.2894
-0.15688
0.53448
-0.0075185
1.1864
-0.55366
-1.3223
0.44886
0.84643
-0.26401
0.44909
0.95992
-0.30368
-0.002189
1.1603
0.056888
0.046529
0.80771
2.1186
0.83885
-1.2337
-0.044571
-1.147
-1.217
1.1877
2.3968
-4.4095
-1.9509
-0.18975
0.40693
-0.085655
0.73495
0.6461
-0.36129
-0.052662
0.85901
0.30403
2.1886
0.91816
-4.5809
-1.1533
-0.31001
1.3291
0.15516
0.16312
0.32085
-0.2594
-0.59878
-0.14238
0.91638
1.3522
-0.44898
-1.2011
2.6146
-2.2258
-2.9368
0.96475
1.0273
0.89104
-0.11374
1.1968
7.1255
-0.24707
-1.163
5.2753
21.777
0.039803
-13.398
-16.419
0.054688
-2.9988
-2.5395
-0.35789
-6.0384
-5.9444
-11.967
2.7608
5.652
0.22543
3.5482
4.2087
-0.77583
3.6751
6.2568
1.8964
-1.2611
0.55
-0.80477
-2.4893
-1.9778
-0.94043
0.02204
3.0816
7.4816
0.22453
1.081
-0.56923
-6.3023
-4.9965
1.3049
11.598
2.0939
-13.706
-5.9077
2.6536
3.5021
-0.26909
3.4979
-0.37228
-2.1008
-1.659
2.7056
-2.1764
-3.4384
4.3513
2.6113
-3.0656
-5.987
-2.1399
-0.21412
5.8443
4.2925
-1.3331
1.3792
-3.7065
5.2033
3.7843
-1.2773
1.2177
-3.1798
-2.3774
7.0681
0.0059534
0.21733
5.2737
-7.3413
-6.152
-0.26464
1.8975
6.1084
5.7792
-9.9403
-4.9663
6.6388
1.3043
-5.3874
-1.8974
-1.5426
-0.10979
5.7608
0.0098502
-7.1997
2.2301
6.0539
-3.6653
-5.1008
2.3662
2.4603
0.96456
2.2227
-2.7569
0.48203
2.2838
-3.8196
1.6748
-3.2746
-3.6016
4.9121
3.1124
0.33518
-0.15796
-2.5993
-3.1245
4.2457
-1.8007
-2.3335
2.4268
0.19832
4.1123
-0.74624
-2.5564
-1.7784
2.7704
8.962
1.0286
-4.8182
-3.9275
2.6338
3.9013
-4.355
-3.3159
-1.9609
0.88
0.0070797
2.5995
-4.1149
0.57167
2.7928
-1.0404
-0.33801
2.9401
-3.382
-2.4885
5.0446
-0.14478
-2.5608
-2.0118
-1.4411
0.67542
3.202
0.76944
1.3125
-0.92031
-3.9948
1.1229
2.7211
2.2443
-4.5076
2.444
-0.95754
0.74004
1.1309
-2.2976
2.9094
-0.13431
-2.8475
-0.59698
1.4857
-0.43285
-1.9701
-0.62996
4.6645
4.8074
-2.9163
1.2347
-3.1249
-1.8991
0.25134
-3.462
0.39697
8.4701
2.9805
-6.1602
-2.904
-0.21389
0.080327
2.9145
3.7444
-5.1184
-1.7826
1.2012
-1.1666
0.50082
2.3284
3.1382
-0.2225
-2.9893
-2.036
-0.47121
1.8113
-4.3009
10.083
5.1108
-9.0706
-3.8532
0.2789
1.097
1.1765
3.6307
-0.3362
-3.6668
0.75871
1.1249
-5.1354
3.618
4.3529
-2.3555
-4.5582
1.9965
3.3231
-1.8021
-2.1917
0.88301
-2.4924
2.709
0.86204
-3.2605
0.061531
0.39907
-1.2846
2.8033
-0.97088
1.4908
6.1477
-2.7932
-4.1892
-2.4949
0.98323
-1.2966
-1.8875
-2.074
-0.59213
2.2314
-0.14588
2.3748
6.6251
3.9628
2.1529
8.6276
-4.9409
-8.764
-2.8442
-6.5059
-1.4041
-1.2492
3.887
6.5152
-0.28484
-3.4928
-6.7822
1.7072
6.2324
-0.42403
-4.3666
4.3224
1.7822
0.20062
-1.0387
-4.0898
0.4559
-0.38264
-0.5507
4.2673
-2.1371
1.6689
-1.4572
1.4982
4.6614
-1.1719
0.17231
-1.6406
-1.306
-3.1325
-0.088234
-0.33512
0.31002
-0.23565
-1.9747
6.8571
-0.082877
-3.8336
1.1745
0.42138
0.038618
5.7106
-0.48088
-6.4968
0.40605
0.66046
-1.2151
-0.48268
-1.3099
5.7346
2.4365
-5.4749
-2.8189
0.2501
0.70711
-1.2983
5.4892
-0.44667
-3.6685
2.6585
4.7061
2.9288
-4.6322
-1.9883
-4.0659
-2.4082
0.17084
1.4255
3.4051
-1.4984
0.30672
3.2886
-2.2144
5.4418
-0.58745
-4.3776
-0.89442
-1.4328
1.4272
2.2083
-0.37122
-0.62578
1.0892
-1.5294
-3.2086
-1.8234
0.88217
2.3881
4.0063
-0.22736
-1.0872
1.9862
-1.6533
0.50541
-2.7055
0.33612
5.5361
-1.3737
-2.4412
-5.7536
2.207
4.4202
-1.2381
1.9829
-5.9974
-5.8003
3.0549
2.034
-0.75667
1.7013
1.0479
-1.1339
0.56181
0.70372
-1.2317
2.6829
10.572
4.6444
-14.315
-1.6825
6.315
20.577
-7.2554
-25.506
-0.37565
0.78079
-2.1424
-0.75152
8.3208
-0.35056
-1.9868
6.6182
-1.9995
-6.4593
6.7921
6.2097
-1.4078
-6.8136
-4.1643
3.6125
-1.2865
-2.7916
1.0182
-1.149
1.1477
7.0648
1.4947
-1.2984
1.6174
1.6107
-6.9011
-1.5757
0.91594
-1.4406
2.3255
-3.1246
2.2861
1.3915
-0.061815
3.8919
-1.8819
-3.4453
-2.6712
3.3884
1.5816
1.4185
2.8277
-6.5777
-2.4956
-0.50048
1.6668
0.48756
-1.5324
6.6707
-0.98925
0.92793
-4.4618
-0.77741
3.8134
-0.74036
1.8852
-4.6052
-4.3641
-2.141
4.3089
0.30112
8.5374
4.9033
-7.1107
-5.5074
1.9695
-1.895
-2.8297
4.0618
1.6791
-0.11626
-5.844
-1.5345
5.2756
3.7793
-0.89523
-0.15148
-2.7138
6.1867
7.5868
-5.8742
-7.2919
-1.6996
-0.86016
0.64401
3.5416
1.7907
1.5682
0.47227
-1.5007
0.70896
0.39061
-0.55545
-0.88562
-0.2363
0.086297
1.7318
1.7377
-4.0772
0.70735
-0.69208
-0.46285
-0.27029
-0.33344
-0.56407
-0.57486
-0.82381
0.52174
0.18733
-1.2298
0.32643
-0.089861
-1.0981
0.61758
-0.45634
-0.80338
1.2248
-0.38891
-0.57611
1.1144
1.3499
-1.7302
1.2304
1.1323
-1.3153
0.85594
1.5049
-1.0033
0.23778
0.98187
-0.93197
0.53992
0.64023
-0.76211
0.39507
0.60698
-1.1831
-0.037786
0.43328
-1.0767
0.53808
-0.14876
-0.82123
0.86729
-0.34659
-0.42381
1.6393
-0.76702
-0.28757
0.67456
-0.82714
-0.55652
1.4455
-0.52019
-0.94943
1.3181
-1.0433
-0.69618
1.2211
-1.1801
0.55362
1.0329
-1.3608
0.68678
1.2903
-1.0059
1.918
-2.3183
-2.4645
-3.3135
2.1037
7.9864
0.57728
0.46874
1.6031
-0.51515
-3.2249
-4.9151
-0.085781
0.67151
1.4586
0.88717
0.20923
-0.55222
-2.0137
3.1254
1.1408
0.15325
0.009227
-1.0798
-0.58727
0.063979
-0.81795
0.21807
0.43774
-1.0139
0.77209
-1.2397
-0.095206
1.8107
-0.52317
-0.59089
0.35627
-0.013431
-1.8875
1.8249
2.388
0.18832
-3.1936
1.7147
0.23378
-5.0013
4.0895
4.3021
-0.21291
11.986
-15.688
-10.331
0.72217
-9.4199
3.1486
3.7778
10.064
-5.0857
3.0524
-3.0282
1.2861
10.933
-2.9762
-4.4312
-3.8947
1.1813
-3.3039
5.4376
3.4594
0.64849
0.80576
-2.6214
-1.505
-1.8647
1.35
1.7238
4.1647
0.097656
-2.0876
-0.62772
-3.755
0.73491
5.4883
1.4229
-4.3746
-3.9878
-0.7137
0.72531
-0.22912
2.2513
-0.36917
4.5044
4.9606
-5.7123
-5.1741
-0.15881
0.1467
-0.3473
2.2486
1.8591
-1.0492
-1.0221
3.2616
3.3432
-3.5488
-2.8628
-2.4036
0.82765
0.1194
-0.22706
3.9677
2.6962
1.6655
-2.4469
-4.9338
2.122
-0.18193
-4.8811
1.9543
4.4129
-3.5076
-1.6584
0.70654
-0.75895
0.49567
0.14487
-1.1062
2.7718
-0.44429
0.60123
5.6056
-0.41777
-3.1582
-2.756
-0.49496
5.8658
2.3082
-3.8978
-2.8815
0.52513
4.6994
1.354
0.98344
2.2938
-3.9508
-2.8204
-2.3391
-2.4611
-0.24755
5.3287
1.2752
-4.3666
-2.8941
7.171
-1.3089
-1.0469
2.7128
2.0195
-5.6545
-3.4998
0.78069
0.17622
1.1434
-0.23088
-4.1653
6.9355
-1.5027
-4.2996
-0.5532
3.1577
-0.14791
0.27774
-1.063
-2.4981
2.9244
2.4473
-2.9319
0.28108
-0.15615
-1.311
1.6527
-0.49839
-0.59539
1.4978
2.4925
0.88241
3.5205
-0.047803
-2.6352
-0.56448
0.039265
0.20657
-7.6459
2.2484
0.85804
-1.3878
4.083
-0.75412
3.1187
4.0331
-5.0611
-3.42
-0.42346
-0.39974
-1.4883
0.68337
0.91896
-0.16954
0.97673
-0.52598
-4.9735
-1.7476
1.1034
1.1098
-1.0463
10.273
18.341
-3.8892
-4.4374
-4.8687
-14.309
-0.73623
1.8421
3.1457
0.42005
1.1589
4.4616
-3.5092
0.22345
5.248
1.9608
-6.3543
1.0725
-4.1686
0.43286
0.45021
0.35718
-0.95202
1.5754
7.873
-5.147
-2.7723
-1.3145
0.21468
-2.7082
4.1126
6.658
-3.5713
-4.0195
-1.5383
1.9206
-3.5288
-1.9628
2.8273
0.22033
-2.0321
-0.32713
-1.5236
0.2656
0.17971
-0.30843
-0.041686
2.2229
8.0579
-0.17805
-3.4964
-2.0123
-3.5918
0.053497
2.2067
2.649
5.8777
-2.2103
-2.6603
1.1144
-3.8898
-2.5438
0.17987
2.2797
4.9479
9.1395
-5.427
-10.991
-0.54633
4.5898
-4.3449
-3.089
6.5784
-0.34831
-3.0622
0.10567
2.498
-0.25431
7.6683
8.6793
-9.5914
-5.0208
-2.7612
-2.8113
5.3517
2.2138
-2.975
-1.1443
1.8523
-3.4921
-1.9884
-0.23975
0.20218
2.3697
2.0204
-1.0412
2.2591
2.1369
-2.831
4.0204
-1.203
-4.655
3.8181
1.7954
1.1622
3.9263
-4.0025
-4.753
-1.8731
1.7665
0.51959
-0.23993
1.6613
-0.75831
0.68292
0.91502
0.85684
2.1415
2.2025
-3.0018
-1.8244
9.141
-0.037444
-5.9533
-3.1464
1.2415
3.5729
-2.6455
-0.8264
-3.1326
-2.575
0.028823
-1.4552
3.5149
1.1118
0.93788
1.6987
-3.6885
-2.9801
0.4008
3.8548
0.18261
1.7816
1.0332
-1.1579
0.9942
-2.8682
-2.4295
0.29978
1.9503
-1.9014
-0.92444
2.664
3.5602
2.5775
-2.697
-1.3102
-1.7062
-2.7333
-1.9205
0.75202
-0.57646
-3.3534
-3.9924
14.144
10.018
-1.1997
-2.0304
2.7292
2.677
-10.862
-5.1458
-0.51962
-2.7403
-2.2214
-5.0616
-6.3143
-2.3756
8.2278
5.7045
2.76
7.2164
5.4516
-5.3731
-4.1821
-2.3233
-7.6019
-0.11703
3.5448
0.16968
-1.7786
7.461
0.095675
3.3799
4.871
-2.9754
-2.7523
5.1626
-0.28687
-3.1279
-2.4716
-2.1698
0.18044
1.3787
-0.48685
-1.2551
0.5046
0.44604
0.2677
0.20289
0.29151
0.90503
2.8555
7.2584
-7.5746
-7.2681
-0.34943
1.1603
8.125
3.4732
-3.207
-1.558
-0.14965
-1.9773
-0.6372
-0.49215
-1.7721
2.3707
2.0318
-1.0983
-0.72992
-1.1898
-1.3508
0.37476
-0.18605
-0.32276
0.35785
-1.4121
-1.5246
1.2973
1.794
4.6157
-0.023142
-8.7636
-2.9923
4.5845
0.25386
-1.1429
4.1207
-3.5204
-5.9911
0.18877
11.463
6.9597
-2.6878
-2.8066
-5.8707
-0.13114
1.8875
2.7116
-0.95031
1.318
7.4594
-3.4386
-9.4844
7.7731
0.34738
-4.3456
-5.5559
6.246
-2.3414
1.1601
2.9367
-3.6146
0.16222
-11.141
-1.5315
6.1857
8.6637
3.1844
-8.4753
3.3327
10.196
-2.6661
-8.4368
-6.1415
7.3269
1.7679
-2.9294
3.3933
-2.5082
-5.0334
-3.2195
3.279
5.9561
3.0417
3.1837
0.37375
-13.307
-2.1194
3.4817
-8.7548
0.13934
3.7419
-2.9992
8.7196
9.9346
2.0358
6.6508
-1.3284
-6.9551
-3.9098
-3.6722
-1.5279
0.23493
0.57075
-0.4226
1.1454
0.57069
-0.99736
0.27441
1.6626
-1.97
-0.63166
1.6537
2.7271
5.129
0.055595
-4.1045
-4.9122
0.2658
-0.11478
-0.055014
-0.55262
-1.8693
-2.1329
0.93981
-0.14377
-0.37744
-0.71871
-2.6076
0.96043
2.8229
-0.053614
-0.13713
1.9312
0.94636
0.63917
0.74083
0.7227
-1.0785
-0.88977
1.8779
-0.46387
-0.12656
1.37
0.11895
-0.34723
0.82845
0.52328
-0.020614
0.058168
0.58769
-0.091644
-0.58899
0.12523
0.044078
-0.12018
0.24187
-0.46616
-0.25605
0.55623
-0.64694
-0.60071
0.65486
-0.16375
-0.5383
0.19313
-0.41699
-0.22363
0.7727
-0.1814
-0.32471
0.71018
0.053814
-0.58083
0.78809
0.59602
-0.50205
-0.36425
0.86089
0.00051581
0.27215
0.11453
-0.2495
-0.51511
0.10021
-0.05599
-0.30972
0.012006
0.1295
-0.75888
-0.048003
0.11408
-0.6858
-0.23518
-0.20125
0.13136
-0.3494
-0.11307
-0.70886
0.1756
0.63471
-0.20746
-0.16557
-0.15512
-0.39897
0.044879
0.047349
-0.30123
0.15041
0.71694
-0.67096
-0.13362
0.7583
0.12533
-0.60435
0.25138
0.61452
-0.42131
0.27079
0.55494
-0.71792
0.078263
0.64989
-0.429
-0.31139
0.26695
0.39215
-0.24099
0.1618
0.76957
-0.67312
-0.082747
0.73189
-0.8257
0.28563
0.48229
-1.0351
0.18425
0.82684
0.78035
-1.4098
-0.14405
0.58421
-0.50961
-0.22807
0.71076
-0.12516
-0.41873
0.2797
-0.24741
-0.017926
0.50828
0.036766
-0.90063
0.70225
0.90187
-0.60678
-0.91977
0.32016
0.36854
-0.70021
0.71183
-0.12883
-0.69132
0.4964
-0.21296
-0.19408
0.40101
0.10507
-1.0853
0.51892
0.44806
-0.96884
0.32234
0.38636
-0.55685
0.052867
0.52009
-0.77341
0.13827
0.62291
-0.50349
0.33347
0.7641
0.034853
-0.66276
0.53824
0.28346
-0.66581
0.29336
0.16384
-0.49828
0.48164
0.32566
-0.60882
0.32079
0.5675
-0.87307
-0.0096235
0.30596
0.12856
0.32724
0.26573
-0.3167
-0.011731
0.15131
-1.053
0.32634
0.13475
-0.86096
0.49502
-0.084765
0.034923
0.96016
0.27114
-0.59133
0.031735
-1.7461
-0.51017
0.87973
-0.63649
-0.055984
0.91841
-0.80113
-0.012083
-0.013958
-0.89133
1.4416
0.52905
-0.83896
0.55285
0.56855
-0.64197
-0.12664
1.0624
-0.75231
-0.29995
0.7713
-0.66313
-1.3822
0.87426
0.43124
-0.32336
0.70187
0.41103
-0.48693
0.18862
0.50617
-0.74413
0.16396
0.010997
-0.90078
1.7256
0.52617
-1.2273
0.25779
0.37781
-0.85485
0.21981
-0.62345
-0.35433
0.36031
-0.47255
-1.5464e-06
0.47122
-0.37803
-0.14391
0.65898
-0.18049
1.037
1.5864
-0.66896
-0.97913
0.08829
-0.84657
-0.35856
1.0577
-0.18991
-0.61093
0.95021
0.017627
-0.90126
0.13151
0.76246
-0.7885
-0.17541
1.2692
-0.77333
0.41788
1.1747
-1.222
-0.51782
0.7019
-0.54747
-0.53431
0.72989
-0.35863
-0.55476
0.58476
0.049144
-0.67334
0.67542
-0.070039
-0.14442
1.1093
-2.0187
-0.87145
1.4692
-0.47513
0.62876
0.59473
-0.14407
-0.1302
0.015388
-0.033427
0.19626
0.22251
-0.31188
0.81855
0.70773
-1.0475
-0.11169
0.8383
0.038826
-1.1279
-0.26551
0.39777
0.27728
1.6676
-0.52033
-1.6285
-0.2038
1.0277
0.64502
-0.64712
-0.39052
0.45512
-0.34202
-0.62653
0.72055
-0.18529
-0.77599
0.64213
-0.04503
-0.45773
0.018655
-0.083734
0.70685
0.55671
-1.2667
-0.52383
0.41826
-0.61743
0.62727
-0.06726
-0.41122
0.65629
-0.34947
-0.7117
0.4778
0.4212
0.57722
1.1924
-0.67596
-1.9429
0.21171
0.73144
-0.86786
0.25323
0.82017
-0.44371
0.057408
1.2669
0.055856
-0.45294
0.52468
0.7467
-0.46218
-1.1493
0.44403
0.45192
0.17606
1.8941
1.1725
0.18293
0.16741
-1.737
-1.0774
-0.49246
-1.5894
-3.1451
-1.7957
1.5684
2.2737
0.67684
-3.308
4.3629
16.645
-3.1869
-6.814
-3.2761
-11.237
2.9849
-1.5153
-3.0654
2.3891
24.417
-12.108
-11.744
0.23439
-4.1359
6.6979
10.315
0.52447
-9.5006
-3.408
0.22048
0.91503
4.0442
0.16026
-8.6102
8.7103
8.5945
-2.0461
-5.6853
-4.0255
11.153
9.3009
-9.0358
-10.326
-5.813
3.7226
-0.26275
-2.4273
-1.8826
-0.10898
0.99435
3.3012
4.3959
-1.5401
-0.14137
0.75542
-5.1336
-0.65407
0.15227
0.36335
1.6888
0.73012
5.2295
0.99332
-0.18402
-2.5852
2.6632
-9.2281
-4.3835
10.889
-2.0084
-4.2356
11.238
4.2449
2.9636
-8.512
40.998
28.651
-71.88
5.4634
-78.684
69.951
-8.7765
18.11
39.847
-80.566
-23.294
59.28
-4.0992
-7.2661
9.3655
