0.9
-62.16
-129.3
-192.87
-244.05
-276.12
-287.3
-281.74
-267.87
-254.5
-246.94
-245.09
-244.73
-240.83
-230.7
-215.09
-196.81
-178.15
-159
-137.23
-110.75
-79.62
-46.85
-17.23
5.18
18.89
25.27
27.16
27.07
25.92
23.13
17.52
8.5
-3.36
-16.43
-28.5
-37.54
-42.47
-43.42
-41.56
-38.73
-36.67
-36.63
-39.15
-44.17
-51.29
-59.88
-69.09
-77.84
-84.88
-88.97
-89.28
-85.75
-79.12
-70.78
-62.31
-54.75
-48.33
-42.43
-36.04
-28.46
-19.76
-10.82
-2.85
3.38
7.86
11.24
14.33
17.41
20.12
21.82
22.38
22.51
23.57
26.8
32.4
39.25
45.37
48.87
48.9
45.88
40.96
35.27
29.17
22.21
13.56
2.83
-9.61
-22.72
-35.15
-45.97
-54.92
-62.39
-69.04
-75.37
-81.58
-87.51
-92.77
-97
-99.95
-101.45
-101.41
-99.9
-97.12
-93.45
-89.35
-85.21
-81.14
-76.93
-72.16
-66.49
-59.94
-52.95
-46.21
-40.31
-35.47
-31.26
-26.93
-21.59
-14.71
-6.45
2.27
9.98
15
15.91
12.03
3.91
-6.47
-15.91
-20.83
-18.37
-7.6
10.09
31.38
52.26
69.43
81.26
87.88
90.53
90.63
89.09
86.11
81.42
74.8
66.35
56.69
46.79
37.75
30.51
25.56
22.84
21.98
22.5
24.05
26.54
29.82
33.47
36.66
38.32
37.58
34.16
28.61
22.08
15.92
11.2
8.4
7.39
7.49
7.85
7.66
6.51
4.37
1.61
-1.11
-3.25
-4.5
-5.06
-5.59
-7.12
-10.73
-17.29
-27.07
-39.59
-53.58
-67.3
-78.99
-87.33
-91.81
-92.68
-90.63
-86.39
-80.43
-73.02
-64.37
-54.95
-45.54
-37.03
-30.04
-24.66
-20.39
-16.4
-12
-6.92
-1.46
3.71
7.9
10.69
12
11.96
10.65
8.09
4.18
-1.01
-7.19
-13.93
-20.7
-27.16
-33.22
-39.1
-45.17
-51.8
-59.16
-67.11
-75.09
-82.27
-87.79
-91
-91.66
-89.94
-86.26
-81.02
-74.45
-66.64
-57.65
-47.56
-36.33
-23.74
-9.44
6.61
23.7
40.05
53.31
61.53
64.34
63.21
60.67
58.78
57.47
54.15
44.65
24.95
-6.79
-49.36
-98.4
-147.38
-188.97
-216.3
-223.96
-208.88
-171.07
-114.28
-46.14
22.9
81.84
122.26
140.89
140.53
128.52
113.52
102.1
96.56
95.43
95.46
94.16
91.12
87.49
84.42
81.89
78.67
73.54
66.48
59.07
53.58
51.68
53.37
56.94
59.95
60.37
57.49
51.95
45.19
38.65
33.04
28.2
23.39
17.61
10.27
1.32
-8.57
-18.26
-26.49
-32.22
-34.94
-34.75
-32.19
-28
-22.79
-16.94
-10.62
-3.98
2.65
8.72
13.65
16.98
18.77
19.53
20.12
21.45
24.23
28.83
35.28
43.19
51.8
59.95
66.37
69.85
69.79
66.28
60.08
52.32
44.09
36.14
28.83
22.28
16.56
11.85
8.5
6.89
7.2
9.26
12.45
15.83
18.56
20.36
21.73
23.77
27.7
34.1
42.61
52.03
60.87
68.06
73.33
77.17
80.4
83.67
87.24
91.01
94.78
98.3
101.11
102.35
100.8
95.09
84.4
68.89
49.95
29.68
10.23
-6.93
-21.27
-32.99
-42.39
-49.35
-53.3
-53.48
-49.48
-41.74
-31.51
-20.56
-10.61
-2.87
2.21
4.85
5.59
5
3.46
1.15
-1.8
-5.19
-8.66
-11.64
-13.63
-14.33
-13.94
-13.07
-12.56
-13.14
-15.07
-18.06
-21.45
-24.67
-27.65
-30.87
-35.22
-41.5
-49.85
-59.61
-69.36
-77.34
-81.97
-82.26
-78.04
-69.86
-58.9
-46.67
-34.81
-24.75
-17.47
-13.25
-11.65
-11.67
-12.12
-11.96
-10.62
-8.09
-4.8
-1.51
0.92
1.76
0.48
-3.06
-8.52
-15.09
-21.66
-27.05
-30.31
-30.88
-28.7
-24.22
-18.34
-12.24
-7.13
-3.89
-2.8
-3.35
-4.61
-5.58
-5.79
-5.43
-5.27
-6.05
-7.95
-10.32
-11.97
-11.68
-8.96
-4.26
1.17
5.83
8.7
9.51
8.73
7.16
5.47
3.9
2.2
-0.09
-3.36
-7.76
-13.16
-19.22
-25.61
-32
-38.17
-43.83
-48.78
-52.88
-56.17
-58.85
-61.18
-63.26
-64.83
-65.32
-64.04
-60.55
-54.92
-47.74
-39.87
-32.1
-24.86
-18.3
-12.41
-7.34
-3.4
-0.96
-0.16
-0.71
-1.86
-2.72
-2.63
-1.36
0.72
2.86
4.31
4.56
3.61
1.79
-0.3
-2.15
-3.55
-4.56
-5.52
-6.77
-8.57
-10.98
-13.88
-17.02
-20.04
-22.52
-23.99
-24.05
-22.53
-19.74
-16.32
-13.16
-10.98
-10.13
-10.46
-11.53
-12.87
-14.26
-15.79
-17.65
-19.99
-22.78
-25.81
-28.74
-31.05
-32
-30.55
-25.57
-16.3
-2.73
14.18
32.74
51.12
67.81
81.85
92.74
100.09
103.61
103.22
99.5
93.87
88.45
85.24
85.45
89.06
94.93
101.61
108.22
114.94
122.91
133.4
146.77
161.77
175.53
184.54
186.02
179.12
165.49
148.61
132.65
121.16
116.26
118.45
126.83
139.08
151.4
158.63
155.37
137.89
106.47
66.48
27.31
-1.01
-12.04
-5.81
11.24
29.46
40.37
39.96
29.32
12.49
-6.49
-25.67
-44.89
-64.24
-82.27
-95.6
-100.46
-95.2
-82.35
-68.22
-60.12
-62.36
-73.54
-86.77
-93.06
-85.94
-64.96
-36.06
-8.5
9.53
14.58
8.7
-2.38
-12.61
-18.26
-18.93
-16.59
-13.88
-12.42
-12.24
-12.1
-10.6
-7.44
-4.11
-3.5
-8.58
-20.72
-38.79
-59.68
-79.72
-96.43
-109.22
-118.97
-126.79
-133.06
-137.33
-139.22
-139.35
-139.43
-141.28
-145.25
-149.19
-148.86
-139.97
-120.52
-92.36
-60.78
-32.42
-12.62
-3.4
-2.74
-5.59
-5.85
1.3
17.46
40.67
66.29
89.13
105.56
114.9
119
120.61
121.72
122.81
123.69
124.85
127.9
134.24
143.25
151.2
152.44
142.48
120.77
91.58
62.05
38.66
24.37
17.79
14.72
10.47
1.78
-12.89
-33.79
-60.65
-92.6
-127.68
-162.75
-194
-217.99
-232.78
-238.39
-236.46
-229.49
-220.06
-210.24
-201.37
-194.04
-188.12
-182.91
-177.44
-170.73
-162.09
-151.33
-138.8
-125.33
-112.04
-100.07
-90.5
-84.05
-80.87
-80.32
-81.02
-81.14
-78.99
-73.46
-64.12
-50.93
-33.81
-12.43
13.24
42.4
73.07
102.31
127.3
146.49
160.22
170.51
179.96
190.46
202.58
215.64
228.56
240.43
250.33
256.56
255.89
244.17
218.55
180.34
136.22
97
73.48
71.68
89.8
118.91
146.91
163.63
164.47
150.83
127.7
100.42
72.42
45.14
19.28
-4
-22.96
-36.32
-44.66
-50.92
-59.63
-75.15
-99.59
-131.51
-165.89
-195.55
-213.33
-214.56
-198.58
-169.08
-132.96
-98.03
-70.82
-54.7
-49.47
-51.94
-57.68
-62.76
-65
-64.11
-60.98
-56.48
-50.77
-43.13
-32.58
-18.78
-2.65
13.55
26.91
34.96
36.6
32.58
25.07
16.81
10.19
6.42
5.56
6.92
9.71
13.36
17.49
21.53
24.47
24.98
21.86
14.69
4.09
-8.43
-20.9
-31.64
-39.66
-44.74
-47.32
-48.07
-47.55
-46
-43.31
-39.17
-33.38
-26.26
-18.71
-12
-7.24
-4.99
-4.95
-6.14
-7.27
-7.24
-5.49
-2.08
2.5
7.59
12.75
17.9
23.31
29.42
36.43
44.21
52.17
59.53
65.72
70.58
74.44
77.74
80.62
82.56
82.51
79.28
72.13
61.09
47.01
31.14
14.67
-1.62
-17.27
-32.05
-45.54
-57.18
-66.37
-72.92
-77.34
-80.83
-85.01
-91.42
-100.9
-113.04
-126.09
-136.83
-141.08
-134.77
-115.41
-83.46
-42.85
0.02
38.45
67.9
87.49
99.67
108.3
116.19
123.6
128.56
128.49
122.25
110.96
97.41
84.4
73.24
63.24
52.31
38.31
20.21
-1.28
-23.96
-44.84
-61.11
-70.92
-73.64
-69.76
-60.57
-47.79
-33.41
-19.72
-9.16
-3.92
-5
-11.5
-20.43
-27.69
-29.61
-24.53
-13.47
0.43
13.43
22.6
26.71
26.12
22.03
15.8
8.57
1.37
-4.72
-8.62
-9.59
-7.52
-3.07
2.52
7.94
12.16
14.73
15.66
15.34
14.18
12.59
10.99
9.93
9.97
11.69
15.47
21.36
29.1
38.06
47.3
55.56
61.29
62.95
59.5
51.02
39.22
27.17
18.43
15.57
19.05
26.81
35.09
39.91
38.7
31.04
18.43
3.25
-12.35
-27.03
-40.24
-51.71
-61.11
-67.95
-71.81
-72.57
-70.56
-66.3
-60.43
-53.52
-46.14
-38.85
-32.19
-26.59
-22.2
-18.92
-16.43
-14.36
-12.27
-9.63
-5.88
-0.37
7.22
16.7
27.17
37.23
45.31
50.21
51.37
48.86
43.07
34.45
23.34
10.04
-4.94
-20.8
-36.44
-50.66
-62.46
-71.16
-76.65
-79.18
-79.34
-77.79
-75.11
-71.7
-67.72
-63.22
-58.25
-53.05
-48.15
-44.26
-42.04
-41.8
-43.3
-45.74
-48.02
-49.11
-48.33
-45.5
-40.78
-34.6
-27.53
-20.36
-14.03
-9.47
-7.1
-6.51
-6.33
-4.78
-0.45
6.87
15.97
24.69
30.83
33.13
31.64
27.58
22.75
18.81
17
17.98
21.96
28.79
38.01
48.75
59.9
70.31
78.97
85.39
89.59
92.05
93.5
94.54
95.42
95.89
95.34
93.08
88.82
82.85
75.94
68.87
61.95
54.83
46.71
36.95
25.5
13.11
0.87
-10.37
-20.44
-29.83
-39.29
-49.4
-60.31
-71.74
-83.12
-93.72
-102.51
-108.06
-108.76
-103.24
-91.13
-73.42
-52.56
-31.69
-13.69
-0.18
8.88
14.92
20.04
26.09
34.09
44.08
55.33
66.81
77.51
86.67
93.74
98.32
100.04
98.55
93.56
85.03
73.17
58.41
41.28
22.36
2.39
-17.55
-35.89
-50.72
-60.1
-62.69
-58.18
-47.49
-32.46
-15.37
1.54
16.26
27.15
32.79
32.39
26.2
15.71
3.51
-7.51
-15.16
-18.59
-18.41
-16.06
-13.1
-10.5
-8.71
-7.81
-7.74
-8.37
-9.4
-10.24
-10.21
-8.98
-7.02
-5.51
-5.74
-8.43
-13.1
-18.27
-22.13
-23.53
-22.56
-20.41
-18.7
-18.52
-20.09
-22.89
-26.3
-30.01
-34.16
-39.12
-45.1
-51.87
-58.93
-65.45
-70.47
-72.83
-71.38
-65.35
-54.68
-40.31
-23.9
-7.26
8.28
22.14
34.23
44.52
52.61
57.79
59.3
56.8
50.51
41.15
29.77
17.62
5.95
-4.04
-11.45
-16.01
-18.2
-19.05
-19.62
-20.55
-21.73
-22.5
-22.12
-20.27
-17.14
-13.28
-9.1
-4.72
0.09
5.49
11.23
16.53
20.32
21.74
20.55
17.47
13.98
11.79
12.05
14.9
19.18
23
24.45
22.51
17.35
10.12
2.16
-5.73
-13.6
-22.08
-31.78
-42.62
-53.81
-64.06
-72.2
-77.53
-79.96
-79.85
-77.57
-73.45
-67.61
-60.14
-51.12
-40.85
-29.65
-17.86
-5.72
6.55
18.73
30.44
41.1
49.96
56.42
60.25
61.81
62.02
62.14
63.44
66.86
72.83
81.13
90.74
99.83
106.13
107.45
102.63
92.15
78.31
64.74
55.27
52.67
57.7
68.73
82.3
94.28
101.16
101.02
93.87
81.28
65.52
48.68
32.19
16.79
2.85
-9.3
-19.32
-27.23
-33.83
-40.61
-49.15
-60.3
-73.39
-86.24
-95.73
-99.04
-94.67
-83.05
-66.4
-47.89
-30.78
-17.5
-9.15
-5.36
-4.57
-4.52
-2.9
2.01
10.8
22.61
35.16
45.33
50.07
47.34
36.89
20.36
0.75
-18.6
-35.07
-47.27
-54.91
-58.22
-57.39
-52.45
-43.7
-32.37
-20.82
-12.08
-8.86
-12.31
-21.45
-33.28
-43.92
-49.96
-49.69
-43.43
-33.13
-21.36
-10.31
-1.24
5.58
10.52
13.93
15.84
15.95
13.77
8.94
1.34
-8.79
-20.84
-33.79
-46.33
-56.87
-63.93
-66.53
-64.52
-58.74
-50.78
-42.46
-35.12
-29.01
-23.05
-15.22
-3.48
13.3
34.6
58.2
80.77
98.89
110.05
113.42
109.96
101.97
92.27
83.21
75.87
70.02
64.52
58.12
50.26
41.37
32.7
25.73
21.37
19.61
19.41
18.92
15.93
8.27
-5.49
-25.53
-50.11
-75.31
-95.27
-103.53
-95.09
-68.45
-26.91
21.8
67.73
101.7
118.13
116.29
99.68
73.95
44.45
14.75
-13.41
-39.23
-61.8
-79.91
-92.58
-99.92
-103.35
-104.9
-106.11
-107.28
-107.49
-105.62
-101.51
-96.6
-93.44
-94.48
-100.6
-110.46
-120.74
-127.25
-126.36
-116.02
-96.13
-68.39
-35.61
-1.11
31.98
61.08
84.23
100.12
107.87
106.95
97.24
79.28
54.46
25.15
-5.45
-33.73
-56.34
-70.83
-76.14
-72.76
-62.59
-48.51
-33.64
-20.73
-11.45
-6.19
-4.14
-3.87
-4.19
-4.67
-5.77
-8.24
-12.42
-17.67
-22.52
-25.46
-25.69
-23.53
-20.02
-16.19
-12.34
-8.04
-2.58
4.12
11.23
17.21
20.64
21.07
19.25
16.63
14.49
13.25
12.4
10.96
8.32
4.62
0.81
-1.98
-2.98
-2.15
-0.09
2.29
4.17
5.04
4.7
3.16
0.59
-2.67
-6.02
-8.57
-9.2
-6.86
-0.85
8.86
21.39
35.06
47.77
57.59
63.3
64.79
62.89
58.93
54.06
48.88
43.39
37.31
30.57
23.49
16.82
11.27
7.11
3.9
0.58
-4
-10.58
-19.08
-28.55
-37.68
-45.19
-50.35
-53.15
-54.01
-53.64
-52.63
-51.32
-49.76
-47.68
-44.66
-40.25
-34.06
-26.03
-16.45
-5.99
4.54
14.34
22.85
29.8
35.16
39.06
41.61
42.94
43.14
42.31
40.6
38.28
35.69
33.15
30.86
28.81
26.85
24.85
22.84
20.95
19.39
18.25
17.36
16.38
14.87
12.59
9.48
5.7
1.59
-2.48
-5.98
-8.38
-9.05
-7.54
-3.76
1.87
8.5
15.14
20.97
25.66
29.29
32.2
34.58
36.43
37.51
37.57
36.64
35.06
33.4
32.22
31.86
32.31
33.31
34.52
35.65
36.5
36.94
36.82
35.88
33.84
30.48
25.68
19.54
12.27
4.23
-4.06
-11.86
-18.31
-22.46
-23.58
-21.4
-16.26
-9.11
-1.21
6.21
12.23
16.42
18.86
19.83
19.71
18.77
17.23
15.34
13.41
11.88
11.1
11.27
12.33
13.91
15.5
16.65
17.12
16.89
16.14
15.15
14.12
13.14
12.17
11
9.32
6.83
3.32
-1.2
-6.36
-11.45
-15.59
-17.9
-17.79
-15.14
-10.32
-4.06
2.77
9.36
15.07
19.52
22.52
24.07
24.25
23.23
21.21
18.51
15.54
12.73
10.6
9.46
9.51
10.65
12.62
15.09
17.72
20.27
22.55
24.42
25.74
26.46
26.62
26.34
25.66
24.53
22.74
20.09
16.55
12.54
8.85
6.48
6.18
8.23
12.26
17.38
22.53
26.81
29.67
30.93
30.66
28.95
25.89
21.54
16.02
9.63
2.84
-3.78
-9.78
-14.97
-19.4
-23.25
-26.58
-29.19
-30.56
-30
-26.93
-20.96
-11.99
-0.09
14.51
31.53
50.66
71.5
93.46
115.65
136.93
156.09
172.09
184.39
193.1
198.92
202.95
206.1
208.67
210.03
208.53
201.91
187.68
163.7
128.44
81.21
22.51
-45.56
-119.23
-193.25
-261.96
-320.8
-367.76
-403.9
-432.6
-457.76
-481.83
-504.75
-524.1
-536.48
-539.1
-530.76
-511.88
-483.8
-447.94
-405.32
-356.58
-302.13
-242.1
-176.56
-106.21
-33
39.26
105.46
160.53
201.25
227.38
241.4
247.09
247.73
245.01
239.18
230.22
218.78
206.4
194.61
183.97
173.53
161.52
146.48
128.16
107.76
87.24
68.48
52.52
39.15
27.25
15.46
2.99
-9.96
-22.12
-31.64
-36.83
-36.91
-32.29
-24.34
-14.51
-3.69
8.15
21.67
37.32
54.69
72.28
87.87
99.38
105.71
107.09
104.75
100.3
94.92
89.11
82.88
76.19
69.34
63.02
57.93
54.45
52.38
51.12
50.13
49.3
49.12
50.33
53.49
58.58
64.76
70.75
75.25
77.58
77.92
77.32
77.19
78.74
82.52
88.17
94.71
100.93
105.88
109.16
110.98
111.95
112.82
114.23
116.58
119.99
124.3
129.18
134.07
138.4
141.38
142.21
140.12
134.6
125.69
114.14
101.39
89.36
79.93
74.31
72.56
73.29
73.9
71.04
61.4
42.72
14.51
-21.33
-60.83
-98.62
-129.4
-149.22
-156.38
-151.5
-137.08
-116.59
-93.73
-71.79
-53.33
-39.98
-32.17
-29.17
-29.26
-30.27
-30.36
-28.58
-25.29
-21.93
-20.43
-22.48
-28.83
-38.93
-51.16
-63.48
-74.2
-82.64
-89.15
-94.66
-99.91
-105
-109.3
-111.92
-112.24
-110.3
-106.71
-102.34
-97.84
-93.45
-89.11
-84.66
-80.08
-75.47
-70.98
-66.66
-62.42
-58.09
-53.6
-49
-44.58
-40.62
-37.39
-34.88
-32.85
-30.91
-28.67
-25.99
-23.08
-20.43
-18.64
-18.17
-19.15
-21.26
-23.91
-26.44
-28.3
-29.29
-29.5
-29.19
-28.69
-28.07
-27.23
-25.9
-23.81
-20.82
-16.95
-12.41
-7.48
-2.49
2.16
6.06
8.81
10.22
10.4
9.86
9.37
9.65
11.11
13.66
16.66
19.22
20.55
20.25
18.53
16.11
14.01
13.12
13.99
16.55
20.2
24.08
27.29
29.27
29.84
29.32
28.28
27.43
27.46
28.8
31.57
35.5
40.03
44.41
47.91
50
50.49
49.57
47.68
45.38
43.09
40.92
38.69
36.08
32.83
28.86
24.29
19.29
14.02
8.55
2.92
-2.81
-8.53
-14.21
-19.98
-26.16
-33.12
-40.91
-49.15
-57.05
-63.71
-68.45
-71.01
-71.58
-70.39
-67.65
-63.58
-58.52
-53.1
-48.17
-44.49
-42.25
-41.15
-40.63
-40.47
-41.14
-43.75
-49.37
-58.27
-69.33
-80.43
-89.25
-94.36
-95.79
-94.89
-93.51
-93.08
-94.05
-95.93
-97.88
-99.29
-100.23
-101.24
-102.9
-105.36
-108.28
-111.11
-113.77
-117.02
-122.39
-131.49
-145.24
-163.26
-183.76
-204.27
-222.43
-236.76
-246.63
-251.81
-251.92
-246.19
-233.9
-214.94
-190.29
-161.97
-132.31
-103
-74.63
-46.64
-17.76
13.25
47.06
83.3
120.42
155.77
186.17
208.87
222.54
228
227.86
225.53
223.67
223.21
223.39
222.68
220.03
215.57
210.38
205.66
201.89
198.51
194.43
188.92
182.13
175.17
169.58
166.44
165.77
166.44
166.65
164.65
159.52
151.55
142.32
134.13
129.22
128.84
132.77
139.25
145.79
150.03
150.75
147.94
142.5
135.45
127.22
117.7
106.59
93.86
80.01
66
53.17
43.04
37.1
36.22
39.97
45.94
49.86
46.54
31.76
3.97
-34.75
-79.25
-122.97
-160.1
-187.06
-203.03
-209.41
-208.77
-203.72
-196.31
-187.73
-178.56
-169.12
-160.02
-152.14
-146.37
-143.13
-141.95
-141.35
-139.26
-133.84
-124.37
-111.59
-97.38
-83.79
-71.89
-61.35
-50.9
-39.37
-26.84
-14.93
-6.12
-2.35
-3.67
-8.06
-12.28
-13.5
-10.67
-4.98
0.9
4.26
3.78
0.06
-4.62
-7.26
-5.3
2.52
15.69
32.01
48.09
60.29
65.71
63.06
52.94
37.6
20.28
4.29
-7.65
-14.02
-14.94
-12.37
-9.89
-11.71
-21.32
-40.13
-66.91
-98.47
-131.01
-161.44
-188.18
-210.81
-229.24
-243.08
-251.17
-251.84
-243.37
-224.88
-197.21
-163.52
-129.01
-99.38
-78.84
-68.42
-65.9
-67.14
-68
-65.65
-58.5
-45.31
-24.55
5
42.94
86
128.29
163.08
185.51
194.54
193.32
187.62
183.43
184.87
193.04
206.22
221.03
233.83
241.84
243.58
238.62
226.98
208.73
184
153.2
117.16
77.06
34.17
-10.27
-54.85
-97.76
-136.55
-168.6
-191.81
-205.27
-209.51
-205.99
-196.19
-180.86
-159.72
-131.88
-96.97
-56.16
-12.8
28.03
60.64
80.51
85.8
78.03
61.46
41.53
23.09
9.2
1.05
-1.23
2.5
13.07
31.56
58.2
91.12
125.89
156.53
177.46
185.69
182.03
170.58
156.67
144.39
134.95
126.71
116.65
102.48
83.91
62.6
40.93
20.57
1.74
-16.5
-35.21
-54.58
-73.47
-89.74
-101.13
-106.21
-104.98
-98.89
-90.32
-81.62
-74.21
-68.07
-62.07
-54.75
-45.37
-34.4
-23.22
-13.13
-4.57
3.06
10.75
18.89
26.71
32.64
35.19
33.89
29.59
23.8
17.77
11.85
5.6
-1.48
-9.04
-15.71
-19.59
-19.4
-15.36
-9.4
-4.39
-2.81
-5.65
-12.05
-19.86
-26.9
-31.98
-35.35
-38.06
-41.05
-44.31
-46.92
-47.74
-46.37
-43.52
-40.65
-38.93
-38.42
-37.91
-35.78
-31.15
-24.77
-18.74
-15.48
-16.32
-20.85
-27.16
-32.99
-36.78
-38.2
-37.81
-36.31
-33.93
-30.46
-25.69
-19.84
-13.79
-8.66
-5.23
-3.54
-2.94
-2.47
-1.51
-0.02
1.48
2.28
1.93
0.46
-1.56
-3.36
-4.19
-3.63
-1.62
1.52
5.25
8.84
11.57
12.83
12.31
10.12
6.86
3.43
0.74
-0.56
-0.23
1.6
4.59
8.39
12.68
17.16
21.56
25.68
29.38
32.59
35.2
36.96
37.46
36.37
33.67
29.78
25.48
21.57
18.54
16.38
14.73
13.16
11.45
9.63
7.91
6.49
5.43
4.66
4.08
3.61
3.39
3.63
4.58
6.51
9.61
14.05
20.04
27.72
37.04
47.59
58.52
68.52
76.24
80.71
81.9
80.78
78.95
77.96
78.54
80.29
81.92
82
79.66
75
68.85
62.23
55.79
49.59
43.42
37.16
31
25.42
20.79
17
13.62
10.01
5.88
1.43
-2.62
-5.35
-6.12
-4.81
-1.86
1.87
5.39
7.93
9.12
9.04
8.18
7.12
6.37
6.21
6.64
7.58
8.92
10.62
12.7
15.18
18.03
21.21
24.75
28.77
33.3
38.15
42.88
46.78
49.25
50.11
49.87
49.6
50.54
53.68
59.3
66.96
75.69
84.32
91.9
97.93
102.66
107.08
112.63
120.6
131.51
144.57
157.89
169.13
176.34
178.6
176.29
170.76
164.1
158.76
157.34
162
173.51
190.42
208.71
222.64
226.4
216.12
191.01
153.36
107.29
57.15
6.18
-43.76
-91.67
-136.6
-177.38
-212.95
-242.99
-268.34
-290.66
-311.4
-330.74
-347.19
-358.18
-361.77
-358.39
-351.71
-347.96
-353.62
-372.37
-402.84
-438.36
-468.96
-484.66
-478.91
-450.39
-403.12
-344.41
-282.34
-223.55
-172.13
-129.72
-96.12
-70.06
-49.75
-33.26
-18.53
-3.83
12.16
30.1
49.82
70.23
89.47
105.26
115.88
120.9
121.6
120.61
120.85
124.23
130.79
138.69
145.26
148.32
147.22
143.03
137.86
133.71
131.4
130.36
129.07
125.92
119.95
111.14
100.16
88.02
75.64
63.77
52.96
43.58
35.62
28.67
22.05
15.14
7.76
0.28
-6.44
-11.64
-15.03
-16.95
-18.02
-18.83
-19.54
-19.98
-19.89
-19.28
-18.52
-18.07
-18.19
-18.6
-18.57
-17.27
-14.24
-9.83
-5.12
-1.71
-1.13
-4.22
-10.75
-19.36
-27.83
-33.57
-34.32
-28.72
-16.64
0.78
21.47
42.93
62.76
79.13
91.01
98.22
101.42
101.67
100
96.9
92.23
85.5
76.53
66.14
56.3
49.54
47.87
52.02
61.29
74.02
88.41
102.95
116.43
127.59
134.96
137.17
133.52
124.35
110.9
94.62
76.52
56.83
35.59
13.38
-8.09
-26
-37.22
-39.47
-32.12
-16.54
4.14
25.71
43.78
54.9
57.34
51.54
39.7
24.85
9.71
-4.18
-16.49
-27.61
-37.8
-46.75
-53.77
-58.29
-60.39
-60.84
-60.67
-60.63
-60.93
-61.34
-61.57
-61.62
-61.79
-62.51
-64.07
-66.49
-69.42
-72.21
-74.01
-73.98
-71.59
-66.8
-60.24
-53.04
-46.49
-41.58
-38.82
-38.19
-39.33
-41.78
-45.2
-49.25
-53.57
-57.68
-61.08
-63.25
-63.92
-63.04
-60.83
-57.74
-54.35
-51.27
-49
-47.71
-47.26
-47.25
-47.15
-46.53
-45.19
-43.13
-40.57
-37.76
-34.96
-32.31
-29.85
-27.6
-25.57
-23.84
-22.52
-21.74
-21.49
-21.56
-21.57
-21.1
-19.86
-17.87
-15.47
-13.21
-11.59
-10.96
-11.38
-12.63
-14.27
-15.85
-17.02
-17.65
-17.8
-17.68
-17.52
-17.47
-17.49
-17.39
-16.78
-15.21
-12.35
-8.08
-2.62
3.54
9.88
16.03
21.99
27.96
34.13
40.28
45.81
49.79
51.45
50.52
47.39
42.83
37.66
32.42
27.32
22.41
17.86
14.02
11.25
9.73
9.11
8.65
7.29
4.1
-1.45
-9.28
-18.75
-28.9
-38.66
-47.08
-53.44
-57.29
-58.45
-57.06
-53.56
-48.71
-43.34
-38.15
-33.33
-28.57
-23.16
-16.51
-8.62
-0.37
6.66
10.74
10.69
6.48
-0.58
-8.25
-14.03
-16.02
-13.5
-7.08
1.5
10.04
16.56
19.9
20.04
17.83
14.47
10.9
7.35
3.39
-1.68
-8.21
-15.72
-22.85
-27.47
-27.02
-18.99
-1.66
25.11
58.88
94.38
124.27
141.17
140.22
121
87.77
47.95
9.41
-21.88
-43.02
-54
-56.63
-53.36
-46.7
-39.07
-32.77
-29.59
-30.36
-34.62
-40.85
-47.06
-51.63
-53.79
-53.58
-51.4
-47.61
-42.24
-35.04
-25.69
-14.09
-0.55
14.21
29.17
43.31
55.88
66.62
75.71
83.61
90.67
96.8
101.55
104.45
105.59
105.72
105.93
106.99
108.71
109.94
109.1
105.06
97.75
88.1
77.44
66.87
56.78
46.86
36.46
24.88
11.63
-3.4
-19.95
-37.26
-54.13
-69.19
-81.27
-89.78
-94.75
-96.56
-95.64
-92.14
-86.05
-77.46
-66.84
-55.12
-43.47
-32.97
-24.38
-18
-13.81
-11.54
-10.89
-11.59
-13.37
-15.92
-18.78
-21.38
-23.08
-23.37
-22.06
-19.4
-16.03
-12.75
-10.33
-9.27
-9.72
-11.55
-14.5
-18.26
-22.6
-27.25
-31.94
-36.43
-40.58
-44.5
-48.54
-53.19
-58.75
-64.73
-69.67
-71.28
-67.51
-57.65
-43.03
-26.74
-12.55
-3.47
-0.86
-4.36
-12.54
-23.5
-35.06
-44.6
-48.92
-44.87
-30.62
-7.09
21.73
49.72
71.01
82.09
82.87
76.1
65.54
54.1
42.84
31.18
17.95
2.49
-14.7
-32.07
-47.51
-59.02
-65.23
-65.73
-61.27
-53.43
-44.1
-34.83
-26.33
-18.38
-10.31
-1.6
7.65
16.76
24.83
31.24
35.88
39
40.87
41.51
40.7
38.23
34.19
29.21
24.35
20.89
19.93
21.93
26.55
32.69
38.79
43.3
45.04
43.54
39.06
32.5
25
17.54
10.64
4.24
-2.19
-9.08
-16.33
-22.86
-26.9
-26.53
-20.62
-9.42
5.47
21.72
37.3
51.2
63.63
75.53
87.72
100.11
111.43
119.7
123.13
121.08
114.39
105.05
95.19
86.25
78.63
71.93
65.73
60.08
55.5
52.34
50.1
47.25
41.72
32
17.98
1.17
-15.91
-30.87
-42.28
-49.92
-54.36
-56.31
-56.16
-54.05
-50.17
-45.18
-40.25
-36.69
-35.43
-36.67
-39.67
-43.14
-45.67
-46.27
-44.65
-41.2
-36.87
-32.76
-29.75
-28.27
-28.23
-29.17
-30.59
-32.14
-33.79
-35.67
-37.79
-40.02
-41.97
-43.23
-43.51
-42.71
-40.91
-38.28
-34.97
-31.18
-27.11
-22.99
-19.14
-15.84
-13.37
-11.9
-11.49
-11.98
-13.05
-14.24
-15.11
-15.3
-14.67
-13.24
-11.18
-8.7
-6.11
-3.67
-1.69
-0.4
-0
-0.67
-2.53
-5.65
-10
-15.37
-21.45
-27.98
-34.95
-42.72
-51.88
-62.95
-75.9
-89.76
-102.55
-111.66
-114.65
-110.21
-98.79
-82.6
-64.77
-48.34
-35.18
-25.62
-18.6
-12.29
-4.72
5.84
20.53
39.69
62.47
86.76
109.19
125.98
133.97
131.6
119.37
99.52
75.2
49.5
24.84
2.77
-15.65
-29.41
-37.39
-38.64
-33.08
-21.96
-7.93
5.73
16.29
22.65
25.74
27.83
31.38
37.84
47.11
57.85
68.33
77.25
84.2
89.49
93.6
96.84
99.16
100.33
100.27
99.25
97.74
96.04
93.96
90.72
85.33
77.09
66.11
53.35
40.36
28.56
18.82
11.26
5.38
0.43
-4.3
-9.29
-14.87
-21.14
-28.05
-35.22
-41.99
-47.46
-50.8
-51.64
-50.32
-47.94
-46
-45.9
-48.33
-53.02
-58.81
-64.19
-67.92
-69.45
-69.01
-67.23
-64.72
-61.65
-57.82
-52.88
-46.72
-39.66
-32.41
-25.85
-20.6
-16.86
-14.46
-12.97
-11.99
-11.28
-10.79
-10.54
-10.52
-10.62
-10.73
-10.65
-10.26
-9.48
-8.24
-6.49
-4.2
-1.42
1.76
5.14
8.45
11.42
13.84
15.53
16.41
16.49
15.81
14.45
12.54
10.19
7.62
5.07
2.82
1.11
0.07
-0.34
-0.38
-0.39
-0.77
-1.8
-3.56
-5.9
-8.57
-11.33
-14.09
-16.92
-19.89
-23
-25.97
-28.31
-29.49
-29.14
-27.27
-24.28
-20.79
-17.5
-14.93
-13.41
-13.04
-13.85
-15.81
-18.89
-23
-27.93
-33.33
-38.76
-43.75
-47.95
-51.13
-53.15
-54.01
-53.64
-51.86
-48.53
-43.67
-37.72
-31.62
-26.7
-24.13
-24.52
-27.4
-31.21
-33.52
-31.77
-23.98
-9.43
11.07
35.35
60.46
83.48
102.34
116.09
124.83
129.17
129.58
126.07
118.21
105.69
88.67
68.09
45.55
22.83
1.51
-17.25
-32.4
-42.82
-47.27
-44.85
-35.6
-21.03
-3.93
12.6
26.2
36.15
43.33
49.45
55.95
63.18
70.39
76.44
80.63
83.11
84.69
86.26
88.06
89.67
90.28
89.29
86.72
83.19
79.55
76.34
73.43
70.1
65.45
58.86
50.3
40.35
29.73
19.04
8.57
-1.57
-11.28
-20.15
-27.56
-32.98
-36.2
-37.65
-38.21
-38.95
-40.69
-43.69
-47.6
-51.79
-55.54
-58.3
-59.78
-59.85
-58.46
-55.62
-51.46
-46.38
-41.02
-36.1
-32.21
-29.5
-27.77
-26.58
-25.51
-24.39
-23.32
-22.54
-22.3
-22.59
-23.26
-23.96
-24.3
-24.05
-23.05
-21.33
-18.97
-16.06
-12.78
-9.37
-6.22
-3.84
-2.69
-3.08
-5.08
-8.54
-13.2
-18.78
-24.99
-31.37
-37.24
-41.79
-44.29
-44.32
-41.94
-37.68
-32.33
-26.64
-21.22
-16.47
-12.74
-10.29
-9.39
-10.14
-12.4
-15.81
-19.82
-23.91
-27.74
-31.17
-34.38
-37.63
-41.14
-44.92
-48.68
-52.02
-54.64
-56.78
-59.25
-63.2
-69.51
-78.05
-87.35
-94.9
-98.14
-95.46
-87.18
-75.43
-63.44
-54.3
-49.79
-49.73
-52.01
-53.14
-49.11
-36.41
-13.04
20.62
61.46
104.12
142.31
170.77
186.91
191.3
186.77
176.76
163.58
147.75
128.51
105.13
78.06
49.44
22.71
1.75
-10.28
-11.88
-3.78
11.03
28.06
42.49
50.75
51.64
46.47
38.3
30.58
25.89
25.33
28.88
35.93
45.98
58.69
73.61
89.88
106.09
120.54
131.62
138.19
139.71
136.16
127.86
115.33
99.32
80.88
61.36
42.1
24.16
7.97
-6.66
-20.22
-33.07
-45.12
-56.04
-65.59
-73.71
-80.61
-86.41
-90.95
-93.86
-94.86
-94.02
-91.83
-88.77
-85
-80.08
-73.27
-64.09
-52.84
-40.75
-29.54
-20.82
-15.49
-13.62
-14.62
-17.59
-21.64
-25.94
-29.85
-32.92
-34.95
-36
-36.34
-36.35
-36.37
-36.68
-37.56
-39.26
-41.96
-45.56
-49.57
-53.18
-55.59
-56.47
-56.2
-55.88
-56.85
-60.03
-65.47
-72.25
-78.84
-83.76
-86.28
-86.61
-85.72
-84.66
-83.97
-83.35
-81.75
-77.84
-70.6
-59.86
-46.5
-32.31
-19.43
-9.56
-3.12
1.14
5.92
14.25
28.24
47.95
71.34
95.2
116.52
133.49
145.78
153.78
157.75
157.36
151.95
141.13
125.14
104.72
80.69
53.64
24.27
-5.67
-32.81
-52.49
-60.33
-54.29
-36.03
-10.67
15.12
35.72
48.52
54.29
56.02
56.79
58.29
60.37
61.81
61.46
59.21
56.05
53.5
52.68
53.8
56.17
58.61
60.02
59.93
58.45
56.1
53.26
49.9
45.5
39.14
29.93
17.28
1.28
-17.15
-36.3
-54.03
-68.22
-77.29
-80.67
-78.79
-72.94
-64.71
-55.62
-46.74
-38.68
-31.7
-25.92
-21.5
-18.66
-17.59
-18.18
-19.98
-22.15
-23.69
-23.76
-21.99
-18.65
-14.48
-10.46
-7.46
-5.96
-6
-7.25
-9.11
-10.91
-12.11
-12.43
-11.92
-10.93
-10.04
-9.78
-10.57
-12.47
-15.3
-18.59
-21.6
-23.53
-23.57
-21.21
-16.46
-9.97
-2.98
3.08
6.96
8.13
6.8
3.9
0.55
-2.33
-4.36
-5.71
-6.85
-8.21
-9.97
-12.02
-13.88
-14.88
-14.29
-11.67
-7.14
-1.66
3.26
6.22
6.8
6.11
6.58
11.01
21.31
37.69
58.7
81.76
103.95
122.36
134.24
137.11
129.29
110.66
83.15
50.55
17.33
-12.72
-37.52
-56.74
-71
-80.91
-86.55
-87.82
-84.98
-79.08
-71.8
-64.74
-58.74
-53.48
-47.7
-39.71
-28.12
-12.28
7.3
29.17
51.24
71.28
87.67
99.82
108.33
114.72
120.72
127.55
135.44
143.62
150.69
155.16
155.92
152.42
144.56
132.59
117
98.66
78.84
59.28
41.8
27.83
17.91
11.43
6.93
2.7
-2.6
-9.6
-18.42
-29.02
-41.43
-55.8
-71.89
-88.71
-104.55
-117.35
-125.41
-128.01
-125.57
-119.36
-110.9
-101.52
-92.19
-83.58
-76.3
-70.85
-67.41
-65.64
-64.64
-63.22
-60.32
-55.45
-48.86
-41.35
-33.89
-27.26
-21.78
-17.37
-13.72
-10.6
-7.96
-5.91
-4.46
-3.49
-2.68
-1.71
-0.46
0.89
2.04
2.77
3.13
3.48
4.17
5.32
6.61
7.45
7.28
5.84
3.44
0.7
-1.71
-3.39
-4.41
-5.13
-5.99
-7.24
-8.71
-9.92
-10.23
-9.14
-6.45
-2.35
2.73
8.28
13.86
19.03
23.36
26.34
27.49
26.66
24.13
20.69
17.33
14.86
13.6
13.3
13.33
13.11
12.39
11.31
10.24
9.5
9.21
9.19
9.12
8.59
7.3
5.04
1.77
-2.44
-7.47
-13.13
-19.17
-25.25
-30.98
-35.81
-39.2
-40.75
-40.3
-38.04
-34.42
-30.14
-25.84
-22.16
-19.55
-18.3
-18.45
-19.74
-21.7
-23.8
-25.61
-27.06
-28.35
-29.83
-31.67
-33.65
-35.13
-35.26
-33.35
-29.17
-23.28
-16.89
-11.51
-8.36
-7.79
-9.08
-10.68
-10.75
-7.83
-1.32
8.38
20.24
32.89
44.95
55.18
62.5
66.22
66.18
62.73
56.41
47.27
34.55
17.05
-5.71
-32.33
-59.22
-81.37
-94.32
-96.03
-87.53
-72.33
-54.46
-36.86
-20.65
-5.68
8.31
20.86
30.86
37.26
39.93
39.96
39.12
39.02
40.32
42.53
44.43
44.88
43.43
40.7
38.09
37.2
39.1
43.93
50.96
58.85
66.16
71.84
75.21
76.04
74.3
70.16
63.97
56.26
47.81
39.5
32.08
25.97
21.18
17.29
13.68
9.67
4.84
-0.87
-7.18
-13.59
-19.6
-24.82
-29.16
-32.66
-35.46
-37.7
-39.53
-41.14
-42.78
-44.69
-46.99
-49.49
-51.72
-53.02
-52.71
-50.33
-45.73
-39.22
-31.4
-23.09
-15.17
-8.36
-3.15
0.25
1.88
1.93
0.74
-1.35
-3.97
-6.8
-9.53
-11.93
-13.84
-15.24
-16.17
-16.77
-17.22
-17.75
-18.52
-19.68
-21.23
-23.08
-25.16
-27.47
-30.17
-33.52
-37.7
-42.58
-47.69
-52.21
-55.19
-55.88
-54
-49.87
-44.32
-38.4
-33
-28.67
-25.56
-23.59
-22.67
-22.68
-23.27
-23.66
-22.45
-17.92
-8.59
6.17
25.76
48.54
72.39
95.27
115.68
132.58
145.25
153.11
155.82
153.56
147.21
138.23
128.16
117.87
107.16
94.6
78.36
57.26
31.93
5.11
-19.09
-36.76
-45.82
-46.82
-42.46
-36.18
-30.53
-26.39
-23.16
-19.91
-16.37
-13.23
-11.57
-12.11
-14.56
-17.87
-20.89
-23.01
-24.37
-25.5
-26.75
-27.89
-28.29
-27.29
-24.63
-20.69
-16.28
-12.23
-9.16
-7.31
-6.71
-7.16
-8.36
-9.83
-10.9
-10.83
-9.07
-5.49
-0.56
4.83
9.6
12.95
14.53
14.47
13.17
11.08
8.44
5.32
1.67
-2.45
-6.82
-11.02
-14.59
-17.16
-18.61
-19.03
-18.7
-17.91
-16.95
-16.01
-15.22
-14.59
-14.15
-13.9
-13.84
-14.02
-14.54
-15.52
-17.03
-19.03
-21.27
-23.3
-24.55
-24.58
-23.19
-20.49
-16.88
-12.81
-8.67
-4.7
-0.99
2.4
5.3
7.51
8.78
8.92
7.95
6.09
3.7
1.22
-1
-2.78
-4.15
-5.33
-6.62
-8.26
-10.33
-12.79
-15.54
-18.57
-22.05
-26.19
-31.18
-36.98
-43.22
-49.35
-54.71
-58.79
-61.29
-62.15
-61.43
-59.27
-55.89
-51.52
-46.52
-41.33
-36.29
-31.67
-27.56
-23.99
-20.94
-18.56
-17.06
-16.48
-16.42
-15.71
-12.51
-4.81
8.8
28.37
52.22
77.28
99.91
116.99
126.78
129.2
125.58
117.99
108.62
99.26
90.92
83.85
77.54
70.92
62.46
50.58
34.1
12.95
-11.2
-34.86
-53.45
-62.76
-60.58
-47.76
-27.89
-5.98
13.47
27.97
37.29
42.86
46.43
49.13
51.35
53.14
54.79
56.97
60.47
65.72
72.41
79.47
85.39
88.63
88
83.04
73.98
61.74
47.6
32.9
18.77
6.11
-4.43
-12.33
-17.23
-19.13
-18.61
-16.94
-15.69
-16.35
-19.73
-25.8
-33.89
-43.12
-52.72
-62.2
-71.18
-79.24
-85.89
-90.74
-93.65
-94.79
-94.4
-92.62
-89.33
-84.32
-77.61
-69.68
-61.4
-53.71
-47.32
-42.41
-38.82
-36.15
-34.1
-32.54
-31.45
-30.78
-30.28
-29.58
-28.17
-25.66
-21.79
-16.59
-10.32
-3.47
3.3
9.37
14.18
17.49
19.31
19.89
19.53
18.48
16.91
15.02
13.07
11.43
10.45
10.35
11.08
12.31
13.55
14.34
14.39
13.61
12.07
9.89
7.17
3.97
0.29
-3.79
-8.14
-12.48
-16.49
-19.84
-22.25
-23.58
-23.86
-23.22
-21.84
-19.93
-17.58
-14.88
-11.91
-8.85
-5.97
-3.61
-2.02
-1.4
-1.81
-3.27
-5.67
-8.78
-12.23
-15.55
-18.27
-20.15
-21.18
-21.69
-21.91
-21.77
-20.71
-17.88
-12.62
-4.91
4.3
13.43
20.9
25.87
28.61
30.39
32.8
37.04
43.46
51.64
60.7
69.63
77.5
83.41
86.46
85.88
81.24
72.58
60.39
45.3
27.79
8.15
-12.94
-33.89
-51.79
-63.08
-64.9
-56.54
-40.19
-20.25
-1.71
11.82
19.16
21.3
20.3
17.82
14.53
10.24
4.7
-1.76
-8.14
-13.25
-16.3
-17.19
-16.44
-14.63
-12.11
-8.86
-4.6
0.92
7.69
15.33
23.22
30.58
36.72
41.2
43.98
45.35
45.88
46.25
47.02
48.55
50.95
54.2
58.22
62.97
68.38
74.27
80.3
85.91
90.48
93.38
94.16
92.56
88.59
82.6
75.2
67.09
58.98
51.27
44.17
37.74
32.16
27.71
24.75
23.38
23.28
23.69
23.65
22.43
19.79
15.96
11.41
6.49
1.22
-4.69
-11.76
-20.47
-31.08
-43.49
-57.07
-70.7
-82.95
-92.42
-98.18
-100.03
-98.56
-94.78
-89.79
-84.4
-79.07
-74.1
-69.72
-66.28
-64.06
-63.05
-62.83
-62.56
-61.37
-58.56
-53.96
-47.92
-41.12
-34.24
-27.83
-22.13
-17.22
-13.13
-9.89
-7.64
-6.41
-6.19
-6.75
-7.78
-8.83
-9.44
-9.21
-7.98
-5.81
-3.06
-0.23
2.21
3.97
5.08
5.77
6.32
6.95
7.59
7.98
7.67
6.24
3.42
-0.74
-5.86
-11.24
-16.01
-19.44
-21.13
-21.14
-19.85
-17.79
-15.38
-12.9
-10.46
-8.24
-6.55
-5.76
-6.16
-7.82
-10.52
-13.94
-17.84
-22.23
-27.17
-32.69
-38.65
-44.69
-50.38
-55.3
-59.04
-61.29
-61.81
-60.57
-57.87
-54.27
-50.47
-46.93
-43.71
-40.45
-36.65
-31.94
-26.23
-19.68
-12.47
-4.72
3.56
12.21
20.84
28.85
35.59
40.49
43.31
44.04
42.92
40.39
36.92
33.07
29.38
26.29
24.15
23.23
23.66
25.47
28.5
32.32
36.36
40
42.58
43.6
42.61
39.31
33.6
25.69
16.21
6.26
-2.83
-9.7
-13.42
-13.68
-10.82
-5.89
-0.26
4.64
7.75
8.7
7.87
6.27
5.15
5.42
7.34
10.43
13.7
16.08
16.8
15.71
13.28
10.31
7.51
5.18
3.05
0.43
-3.29
-8.19
-13.51
-17.89
-19.79
-18.22
-13.03
-4.9
5.02
15.55
25.72
34.75
42.02
46.98
49.32
49.02
46.26
41.14
33.37
22.26
7
-12.64
-35.71
-59.82
-81.42
-96.82
-103.22
-99.45
-86.3
-66.14
-42.11
-17.35
5.66
25.35
40.99
52.55
60.39
65.15
67.77
69.38
71.13
73.85
77.8
82.42
86.62
89.1
88.85
85.39
78.79
69.43
57.85
44.69
30.76
17.09
4.69
-5.85
-14.72
-22.79
-31.19
-40.5
-50.34
-59.43
-66.27
-69.88
-70.26
-68.26
-65.03
-61.33
-57.38
-52.96
-47.82
-42.08
-36.22
-30.83
-26.28
-22.51
-19.19
-15.88
-12.41
-8.95
-5.89
-3.61
-2.29
-1.86
-2.04
-2.61
-3.41
-4.42
-5.54
-6.57
-7.16
-6.89
-5.37
-2.5
1.6
6.62
12.13
17.68
22.85
27.34
30.84
33.12
34.11
33.89
32.78
31.29
29.98
29.32
29.52
30.39
31.45
32.14
31.96
30.71
28.53
25.86
23.17
20.84
19.06
17.84
17.03
16.43
15.85
15.28
14.94
15.26
16.79
19.9
24.44
29.56
33.96
36.22
35.52
31.87
26.08
19.19
11.95
4.49
-3.48
-12.23
-21.54
-30.57
-38.18
-43.41
-45.89
-45.97
-44.48
-42.4
-40.47
-39.09
-38.38
-38.26
-38.56
-39.13
-39.84
-40.58
-41.27
-41.88
-42.39
-42.82
-43.22
-43.63
-44
-44.2
-43.98
-43.12
-41.49
-39.17
-36.42
-33.6
-31.1
-29.19
-28.06
-27.79
-28.45
-30.02
-32.54
-35.94
-40.15
-45.03
-50.31
-55.61
-60.37
-63.9
-65.4
-63.99
-58.72
-48.68
-33.23
-12.37
12.98
40.91
68.75
93.6
112.91
124.94
129.11
125.82
116.36
102.53
86.28
69.37
53.11
38.09
24.28
11.15
-1.91
-15.05
-27.84
-39.26
-48.02
-53.2
-54.51
-52.43
-47.93
-42.02
-35.34
-28.08
-20.16
-11.56
-2.58
6.12
13.72
19.56
23.34
25.23
25.73
25.52
25.3
25.53
26.39
27.79
29.62
31.79
34.47
37.9
42.39
47.99
54.45
61.22
67.59
72.91
76.81
79.28
80.57
81.05
80.94
80.22
78.62
75.79
71.37
65.17
57.17
47.58
36.81
25.53
14.53
4.56
-3.92
-10.84
-16.55
-21.64
-26.75
-32.35
-38.61
-45.45
-52.51
-59.27
-65.23
-69.96
-73.21
-74.85
-74.8
-72.92
-69.07
-63.26
-55.9
-47.8
-40.03
-33.51
-28.66
-25.25
-22.67
-20.29
-17.85
-15.58
-13.93
-13.23
-13.35
-13.69
-13.5
-12.25
-9.87
-6.81
-3.77
-1.45
-0.3
-0.44
-1.77
-3.93
-6.44
-8.75
-10.4
-11.16
-11.09
-10.56
-10.1
-10.16
-10.98
-12.49
-14.3
-15.9
-16.83
-16.74
-15.61
-13.67
-11.38
-9.23
-7.61
-6.65
-6.34
-6.61
-7.52
-9.27
-12.04
-15.8
-20.15
-24.41
-27.87
-30.23
-31.65
-32.58
-33.42
-34.13
-34.31
-33.54
-31.78
-29.48
-27.33
-25.69
-24.31
-22.31
-18.8
-13.33
-6.2
1.71
9.52
16.85
23.85
30.93
38.28
45.55
51.95
56.53
58.83
58.96
57.67
55.88
54.28
53.02
51.76
49.94
47.25
43.69
39.41
34.38
28.15
19.94
9.22
-3.75
-17.74
-30.78
-40.9
-46.8
-48.14
-45.39
-39.42
-31.05
-21.01
-9.98
1.32
12.14
22.04
31.01
39.47
47.97
56.89
66.21
75.56
84.46
92.62
99.91
106.35
111.95
116.67
120.36
122.78
123.6
122.47
119.06
113.26
105.33
95.9
85.8
75.74
66
56.22
45.56
33.03
17.97
0.45
-18.56
-37.4
-54.22
-67.48
-76.39
-81.05
-82.21
-80.88
-77.89
-73.72
-68.63
-62.84
-56.74
-50.83
-45.6
-41.21
-37.56
-34.43
-31.68
-29.37
-27.67
-26.66
-26.13
-25.65
-24.71
-23.02
-20.57
-17.59
-14.31
-10.88
-7.25
-3.45
0.31
3.61
5.96
6.98
6.57
4.77
1.65
-2.79
-8.52
-15.33
-22.59
-29.35
-34.5
-37.26
-37.37
-35.2
-31.56
-27.41
-23.56
-20.59
-18.88
-18.56
-19.58
-21.7
-24.47
-27.4
-30.03
-32.2
-33.94
-35.6
-37.44
-39.64
-42.1
-44.53
-46.59
-48.14
-49.35
-50.57
-52.31
-55.03
-59.06
-64.58
-71.54
-79.72
-88.62
-97.59
-105.86
-112.76
-117.78
-120.72
-121.49
-120.02
-116.06
-109.09
-98.44
-83.57
-64.38
-41.49
-16.17
9.86
34.87
57.56
77.29
94.03
108.13
119.88
129.29
135.97
139.33
138.77
133.99
125.08
112.56
97.08
79.38
60.23
40.67
22.1
6.35
-4.83
-10.35
-10.41
-6.52
-0.87
4.52
8.62
11.59
14.37
17.98
22.88
28.94
35.57
42.21
48.53
54.36
59.57
64.02
67.61
70.4
72.59
74.42
75.94
76.93
77.08
76.16
74.21
71.55
68.55
65.49
62.3
58.63
53.92
47.56
38.86
27.22
12.17
-6.29
-27.34
-49.19
-69.28
-84.96
-94.32
-96.78
-93.23
-85.52
-75.76
-65.59
-55.98
-47.3
-39.72
-33.41
-28.57
-25.24
-23.06
-21.45
-19.68
-17.3
-14.23
-10.77
-7.42
-4.69
-2.89
-2.15
-2.43
-3.62
-5.64
-8.44
-11.97
-16.13
-20.76
-25.71
-30.81
-35.93
-40.89
-45.49
-49.42
-52.34
-53.96
-54.2
-53.14
-51.13
-48.66
-46.35
-44.86
-44.76
-46.37
-49.59
-53.85
-58.22
-61.75
-63.93
-64.9
-65.36
-66.23
-68.05
-70.65
-73.1
-73.93
-71.55
-64.56
-52.02
-33.6
-9.85
17.73
46.69
74.11
97.23
114.07
123.78
126.54
123.16
114.53
101.39
84.32
64.16
42.54
22.12
6.33
-1.67
-0.16
10.2
26.3
43.63
57.85
66.41
69.12
67.77
64.85
62.25
60.64
59.49
57.91
55.21
51.36
46.87
42.39
38.3
34.54
30.72
26.37
21.37
16.06
11.18
7.41
4.96
3.35
1.63
-1.06
-4.93
-9.37
-13.23
-15.57
-16.11
-15.43
-14.74
-15.2
-17.48
-21.6
-27.01
-32.92
-38.54
-43.19
-46.42
-47.96
-47.75
-45.89
-42.6
-38.09
-32.63
-26.51
-20.22
-14.39
-9.69
-6.59
-5.21
-5.28
-6.38
-8.1
-10.21
-12.67
-15.41
-18.19
-20.52
-21.79
-21.56
-19.66
-16.35
-12.11
-7.54
-3.12
0.77
3.89
6.1
7.27
7.43
6.72
5.45
4.02
2.83
2.16
2.1
2.54
3.2
3.77
3.95
3.66
2.97
2.14
1.46
1.09
1.06
1.25
1.43
1.31
0.61
-0.88
-3.22
-6.26
-9.54
-12.37
-14.07
-14.09
-12.25
-8.77
-4.13
1.11
6.38
11.23
15.17
17.73
18.48
17.26
14.24
10
5.35
1.1
-2.26
-4.58
-6.01
-6.8
-7.1
-6.94
-6.25
-5.03
-3.47
-1.94
-0.95
-0.88
-1.96
-4.15
-7.15
-10.53
-13.88
-16.88
-19.35
-21.21
-22.44
-22.97
-22.76
-21.71
-19.81
-17.03
-13.3
-8.42
-2.15
5.67
14.81
24.49
33.48
40.64
45.37
48.13
50.32
53.64
59.23
66.98
75.53
82.88
87.28
87.95
85.33
80.53
74.72
68.39
61.19
51.99
39.38
22.1
-0.45
-27.57
-56.96
-84.79
-106.41
-117.61
-115.97
-101.7
-77.65
-48.36
-18.66
7.76
28.89
44.6
55.83
63.96
70.12
75.05
79.11
82.46
85.17
87.18
88.29
88.15
86.24
82.24
76.08
68.14
59
49.19
38.82
27.61
15.05
0.85
-14.72
-30.76
-45.92
-58.79
-68.17
-73.36
-74.26
-71.42
-65.92
-59.25
-52.91
-48.01
-45.04
-43.71
-43.24
-42.76
-41.78
-40.27
-38.62
-37.3
-36.64
-36.66
-37.11
-37.71
-38.25
-38.65
-38.97
-39.26
-39.56
-39.83
-40.07
-40.3
-40.67
-41.35
-42.52
-44.36
-46.94
-50.17
-53.82
-57.56
-60.99
-63.82
-65.97
-67.51
-68.52
-69.07
-68.93
-67.65
-64.57
-59.1
-51.01
-40.68
-29.15
-17.87
-8.28
-1.25
3.25
6.09
8.62
12.1
17.28
24.24
32.68
42.16
52.56
63.86
76.07
88.67
100.5
109.77
114.44
112.79
103.81
87.43
64.43
36.52
6.5
-21.8
-43.82
-55.29
-53.62
-39.07
-14.85
13.74
41.29
63.95
80.35
91.26
98.4
103.19
106.14
107
105.36
101.2
95.05
87.7
80.01
72.52
65.37
58.31
50.81
42.19
31.77
18.99
3.63
-14.04
-33.15
-52.33
-69.8
-83.8
-92.98
-96.72
-95.25
-89.5
-80.85
-70.73
-60.38
-50.61
-41.96
-34.69
-28.89
-24.55
-21.57
-19.78
-18.98
-18.94
-19.6
-20.91
-22.91
-25.54
-28.54
-31.41
-33.46
-34.08
-32.91
-30.12
-26.36
-22.62
-19.93
-19.01
-20.14
-23.14
-27.57
-32.99
-39.11
-45.9
-53.34
-61.31
-69.42
-77.05
-83.51
-88.29
-91.21
-92.28
-91.44
-88.08
-80.98
-68.6
-49.79
-24.45
6.07
39.29
72.25
102.34
127.76
147.49
160.86
167.24
165.97
156.74
139.99
117.02
89.75
60.41
31.42
5.52
-14.33
-25.33
-25.95
-16.81
-0.9
17.3
33.5
45.2
52.37
56.8
60.54
64.72
68.98
72.15
73.21
72.08
69.54
66.63
63.88
61.05
57.28
51.57
43.47
33.2
21.5
9.27
-2.92
-14.78
-26.26
-37.12
-46.75
-54.21
-58.62
-59.61
-57.56
-53.5
-48.72
-44.31
-40.92
-38.74
-37.63
-37.28
-37.24
-37.05
-36.18
-34.23
-31.05
-26.8
-21.89
-16.82
-12.08
-7.96
-4.6
-2.14
-0.73
-0.64
-2.11
-5.26
-9.99
-15.87
-22.25
-28.46
-33.9
-38.32
-41.81
-44.77
-47.73
-51.03
-54.71
-58.47
-61.84
-64.37
-65.99
-66.95
-67.84
-69.24
-71.43
-74.08
-76.15
-76.14
-72.45
-63.91
-50.12
-31.52
-9.06
16.16
43.05
70.26
95.81
117.01
130.96
135.32
129.2
113.33
89.67
60.8
29.68
-0.3
-25.27
-41.31
-45.64
-37.9
-20.68
1.11
22.15
38.65
49.46
55.66
59.19
61.3
62.01
60.47
56.03
48.98
40.61
32.44
25.4
19.39
13.53
6.88
-0.8
-8.79
-15.74
-20.33
-21.97
-20.79
-17.23
-11.5
-3.31
7.8
21.79
37.71
53.77
68.04
79.32
87.49
93.25
97.17
99.24
98.72
95.09
88.83
81.76
76.44
74.91
77.49
82.5
86.92
87.77
83.3
73.5
59.72
43.75
26.88
9.44
-9
-28.98
-50.45
-72.31
-92.49
-108.63
-118.86
-122.55
-120.43
-114.14
-105.54
-95.97
-86.03
-75.81
-65.4
-55.16
-45.85
-38.18
-32.48
-28.4
-25.14
-21.78
-17.64
-12.57
-6.81
-0.84
4.91
10
14.1
16.84
17.96
17.39
15.4
12.6
9.78
7.64
6.6
6.62
7.25
7.91
8.07
7.44
6
3.84
1.11
-2.12
-5.8
-9.92
-14.3
-18.61
-22.46
-25.42
-27.24
-27.96
-27.89
-27.58
-27.62
-28.48
-30.25
-32.64
-35.09
-37
-37.95
-37.96
-37.36
-36.76
-36.74
-37.71
-39.78
-42.7
-46
-49
-51.03
-51.56
-50.41
-47.74
-44.12
-40.35
-37.33
-35.88
-36.57
-39.48
-44.13
-49.33
-53.58
-55.4
-53.84
-48.78
-40.97
-31.62
-21.96
-12.77
-4.21
4.21
13.32
23.95
36.55
50.86
65.74
79.06
87.99
89.59
81.48
62.68
34.07
-1.25
-38.22
-70.62
-92.6
-100.26
-92.83
-72.95
-45.54
-16.09
11.16
34.19
52.94
68.23
80.58
89.78
95.22
96.83
95.69
93.97
93.83
96.49
101.56
107.2
111.03
111.23
107.14
99.3
88.86
76.81
63.63
49.34
34.01
18.26
3.38
-8.94
-17.32
-21.29
-21.49
-19.48
-17.09
-15.74
-16.1
-17.95
-20.48
-22.69
-23.79
-23.32
-21.37
-18.47
-15.62
-13.96
-14.44
-17.46
-22.66
-29.01
-35.17
-39.96
-42.71
-43.33
-42.21
-39.91
-36.93
-33.62
-30.28
-27.19
-24.7
-23.11
-22.56
-22.85
-23.58
-24.21
-24.32
-23.69
-22.34
-20.44
-18.13
-15.46
-12.42
-8.98
-5.22
-1.29
2.48
5.72
8.05
9.2
9.1
7.86
5.86
3.58
1.47
-0.14
-1.17
-1.71
-1.9
-1.81
-1.37
-0.46
1.02
2.96
5.03
6.81
7.93
8.23
7.76
6.66
4.98
2.67
-0.32
-3.8
-7.29
-9.98
-11.09
-10.23
-7.6
-3.91
-0.02
3.29
5.68
7.1
7.63
7.32
6.1
3.88
0.79
-2.78
-6.21
-8.89
-10.39
-10.7
-10.13
-9.17
-8.26
-7.71
-7.63
-8.04
-8.99
-10.54
-12.75
-15.6
-18.98
-22.74
-26.71
-30.84
-35.01
-39.07
-42.65
-45.31
-46.68
-46.68
-45.61
-44.06
-42.7
-41.99
-42.05
-42.74
-43.78
-44.96
-46.31
-48.12
-50.78
-54.54
-59.28
-64.55
-69.52
-73.4
-75.58
-75.61
-73.1
-67.57
-58.48
-45.62
-29.44
-11.3
6.94
23.5
37.28
48.03
56.01
61.73
65.75
68.91
72.54
78.39
88.02
101.88
118.64
135.22
147.58
151.89
145.49
127.27
97.88
59.64
16.64
-25.62
-61.12
-84.86
-94.35
-90.31
-76.1
-56.13
-34.17
-12.34
8.72
29.01
48.18
65.23
78.85
88
92.28
92.01
88.12
81.96
75.19
69.62
66.63
66.76
69.45
73.26
76.58
78.4
78.64
78
77.26
76.56
75.04
71.18
63.47
51.25
35.24
17.47
0.49
-13.58
-23.86
-30.89
-36.16
-41.09
-46.36
-51.68
-56.15
-58.98
-60.08
-60.09
-60.01
-60.7
-62.52
-65.32
-68.74
-72.43
-76.18
-79.76
-82.76
-84.53
-84.39
-81.86
-77.06
-70.67
-63.81
-57.68
-53.26
-51.1
-51.24
-53.23
-56.36
-59.82
-63.04
-65.85
-68.51
-71.44
-74.62
-77.25
-77.63
-73.63
-63.43
-46.49
-23.79
2.39
29.22
54.14
75.33
91.73
102.72
107.76
106.42
98.39
83.75
63.06
37.44
8.59
-21.04
-48.25
-69.47
-81.51
-82.49
-72.52
-53.64
-29.07
-2.03
25.14
51.3
76.06
99.1
119.66
136.55
148.73
155.9
158.91
159.43
159.09
158.71
157.71
154.38
146.82
133.69
114.79
90.99
63.8
34.93
6.12
-20.8
-43.96
-61.64
-72.76
-77.23
-76.05
-70.91
-63.62
-55.65
-48.01
-41.35
-36.13
-32.65
-30.9
-30.52
-30.87
-31.27
-31.26
-30.68
-29.69
-28.61
-27.82
-27.53
-27.84
-28.64
-29.64
-30.48
-30.8
-30.43
-29.4
-27.97
-26.51
-25.4
-24.93
-25.29
-26.52
-28.49
-30.89
-33.21
-34.86
-35.37
-34.55
-32.56
-29.86
-27.14
-25.13
-24.49
-25.73
-29.06
-34.42
-41.34
-49.09
-56.8
-63.67
-69.19
-73.3
-76.43
-79.43
-83.31
-88.76
-95.69
-102.86
-108.08
-108.91
-103.49
-91.4
-74.07
-54.38
-35.71
-21.01
-11.87
-8.08
-7.65
-7.3
-3.43
6.76
24.19
47.5
73.6
98.85
120.44
137.04
148.65
155.8
158.66
156.84
149.62
136.5
117.62
93.97
67.42
40.66
16.99
-0.19
-8.42
-7.17
1.8
14.98
28.59
40.15
49.26
57.16
65.41
74.58
83.83
91.44
95.95
97.08
95.89
94.25
94
96.22
100.97
107.4
114.13
119.51
121.88
119.67
111.62
97.09
76.39
51.01
23.4
-3.39
-26.49
-43.77
-54.22
-58.05
-56.51
-51.61
-45.84
-41.59
-40.72
-43.96
-50.74
-59.36
-67.54
-73.28
-75.46
-74.09
-70.16
-65.08
-60.13
-56.16
-53.43
-51.7
-50.39
-48.75
-46.16
-42.19
-36.83
-30.5
-23.94
-18
-13.4
-10.6
-9.68
-10.29
-11.86
-13.7
-15.15
-15.81
-15.6
-14.82
-14.01
-13.69
-14.11
-15.1
-16.16
-16.72
-16.55
-15.89
-15.45
-16.09
-18.4
-22.38
-27.48
-32.73
-37.22
-40.34
-42.04
-42.76
-43.21
-44.08
-45.76
-48.15
-50.68
-52.38
-52.11
-48.69
-41.25
-29.52
-14
4.14
23.28
41.96
59.23
74.86
88.95
101.52
112.02
119.37
122.36
120.12
112.62
100.64
85.5
68.65
51.44
34.91
19.81
6.56
-4.66
-13.88
-21.24
-26.87
-30.9
-33.6
-35.37
-36.77
-38.29
-40.25
-42.65
-45.24
-47.9
-50.76
-54.26
-58.88
-64.72
-71.22
-77.27
-81.55
-83.15
-82.07
-79.19
-76.05
-74.23
-74.71
-77.49
-81.55
-85.19
-86.58
-84.34
-78.12
-68.67
-57.65
-47.14
-38.91
-33.84
-31.53
-30.47
-28.55
-23.76
-14.92
-1.99
14.09
31.9
50.29
68.84
87.92
108.11
129.33
149.9
166.3
173.62
167.03
143.59
103.99
53.38
0.72
-43.4
-69.96
-74.51
-58.5
-28.49
6.6
38.81
63.54
80
89.89
95.33
97.47
96.22
91.11
82.25
70.62
57.59
44.17
30.6
16.59
2.03
-12.46
-25.52
-35.57
-41.49
-43.1
-41.23
-37.39
-33.32
-30.51
-29.96
-31.9
-35.89
-40.87
-45.56
-48.82
-50.02
-49.28
-47.33
-45.16
-43.74
-43.7
-45.22
-48.11
-51.87
-55.81
-59.01
-60.45
-59.03
-53.9
-44.61
-31.38
-15.22
2.31
19.36
34.14
45.33
52.37
55.5
55.5
53.32
49.56
44.24
37
27.71
17.07
6.76
-0.92
-3.87
-1.47
4.82
11.79
15.18
11.3
-1.8
-23.35
-49.66
-74.49
-90.09
-89.06
-66.67
-23.17
35.11
96.83
148.7
179.54
183.75
162.29
121.56
70.64
18.59
-26.98
-60.26
-77.18
-75.76
-56.84
-24.55
14.28
51.97
82.36
102.61
113.45
117.81
119.03
119.13
118.34
115.34
108.24
95.48
76.53
52.08
24.1
-4.58
-30.68
-51.33
-64.67
-70.29
-69.29
-63.71
-56.01
-48.39
-42.38
-38.68
-37.21
-37.26
-37.7
-37.26
-34.96
-30.42
-24.02
-16.71
-9.62
-3.66
0.81
3.91
6.03
7.55
8.7
9.56
10.15
10.54
10.88
11.34
12
12.82
13.6
13.97
13.66
12.59
10.97
9.31
8.18
7.93
8.37
8.92
8.71
6.97
3.34
-2.07
-8.67
-15.54
-21.63
-25.85
-27.33
-25.66
-21.14
-14.73
-7.68
-1.1
4.43
8.96
12.88
16.52
19.89
22.71
24.63
25.5
25.4
24.55
23.09
21.03
18.25
14.78
10.73
6.4
2.05
-2.27
-6.74
-11.68
-17.33
-23.69
-30.42
-36.89
-42.38
-46.29
-48.34
-48.65
-47.6
-45.66
-43.23
-40.47
-37.38
-33.84
-29.81
-25.37
-20.73
-16.14
-11.77
-7.78
-4.34
-1.73
-0.27
-0.21
-1.55
-3.91
-6.54
-8.53
-9.08
-7.75
-4.63
-0.27
4.46
8.73
11.98
14.04
15.01
15.06
14.31
12.68
9.99
6.1
1.07
-4.82
-11.1
-17.13
-22.19
-25.52
-26.44
-24.63
-20.38
-14.73
-9.26
-5.52
-4.44
-5.98
-9.21
-12.88
-16.07
-18.63
-21.05
-23.99
-27.75
-31.99
-35.94
-38.92
-40.71
-41.71
-42.7
-44.43
-47.38
-51.57
-56.86
-63.07
-70.1
-77.86
-86.02
-94.01
-101.06
-106.53
-109.92
-110.85
-108.74
-102.74
-91.77
-75.08
-52.83
-26.48
1.33
27.42
48.97
64.35
73.4
77.25
77.82
76.98
75.91
74.55
71.65
65.17
53.03
34.18
9.35
-18.69
-45.66
-66.82
-78.33
-78.34
-67.36
-47.9
-23.37
2.77
27.87
50.25
68.99
83.51
93.4
98.46
98.97
95.93
91.11
86.47
83.43
82.28
82.01
80.76
76.71
69.01
58.29
46.49
36.07
29.05
26.3
27.32
30.64
34.29
36.34
35.24
29.95
20.2
6.48
-9.91
-27.14
-43.25
-56.54
-65.85
-70.64
-70.97
-67.44
-61.08
-53.28
-45.55
-39.1
-34.45
-31.22
-28.31
-24.41
-18.6
-10.68
-1.28
8.38
16.95
23.3
26.87
27.81
26.79
24.88
23.08
22.05
22.02
22.75
23.78
24.63
24.93
24.41
22.9
20.3
16.69
12.37
7.85
3.74
0.49
-1.77
-3.21
-4.28
-5.45
-7.05
-9.13
-11.48
-13.74
-15.58
-16.74
-17.17
-16.97
-16.35
-15.57
-14.97
-14.81
-15.29
-16.44
-18.18
-20.33
-22.75
-25.36
-28.19
-31.33
-34.77
-38.35
-41.77
-44.6
-46.43
-47.01
-46.38
-44.91
-43.25
-42.09
-41.88
-42.6
-43.67
-44.2
-43.24
-40.06
-34.29
-25.9
-15.02
-1.93
13
29.35
46.6
64.25
81.86
98.98
114.63
126.98
133.05
129.17
112.09
80.43
36
-15.87
-67.2
-109.44
-135.9
-143.57
-133.63
-110.52
-80.04
-47.49
-16.55
10.83
33.77
51.68
63.89
69.98
70.33
66.54
61.36
57.82
58.14
62.9
70.78
79.24
85.57
88.08
86.58
82.28
77.02
72.25
68.47
65.11
60.95
54.78
45.95
34.46
20.79
5.56
-10.56
-26.91
-42.59
-56.41
-66.94
-72.95
-73.89
-70.14
-63.08
-54.68
-46.88
-41.1
-37.96
-37.27
-38.33
-40.32
-42.56
-44.6
-46.16
-46.98
-46.67
-44.86
-41.43
-36.65
-31.32
-26.48
-23.04
-21.53
-21.88
-23.58
-25.92
-28.29
-30.23
-31.58
-32.19
-32
-30.84
-28.55
-24.97
-20.1
-14.06
-7.23
-0.07
7.01
13.78
20.22
26.23
31.39
34.95
36.03
34.34
30.4
25.61
21.47
18.74
16.95
14.6
9.97
2.1
-8.62
-20.71
-32.17
-41.12
-46.14
-46.28
-40.85
-29.48
-12.35
9.59
34.51
59.88
82.87
100.97
112.52
117.19
116.17
111.84
107.06
104.08
103.67
104.74
104.97
101.9
93.99
81.19
64.76
46.62
28.71
12.58
-0.63
-10.11
-15.47
-16.85
-15.04
-11.45
-7.71
-5.17
-4.58
-5.99
-8.87
-12.48
-16.1
-19.19
-21.42
-22.67
-23
-22.68
-22.05
-21.48
-21.3
-21.64
-22.41
-23.37
-24.2
-24.63
-24.62
-24.29
-23.9
-23.66
-23.66
-23.88
-24.17
-24.32
-24.1
-23.26
-21.54
-18.77
-14.98
-10.51
-5.88
-1.76
1.31
3.13
3.8
3.73
3.32
2.86
2.39
1.73
0.64
-1.05
-3.35
-6.13
-9.11
-11.94
-14.33
-16.05
-17.09
-17.69
-18.34
-19.7
-22.3
-26.38
-31.73
-37.8
-43.91
-49.51
-54.33
-58.3
-61.4
-63.51
-64.45
-63.98
-62.09
-59.07
-55.47
-51.97
-49.01
-46.56
-43.92
-40
-33.77
-24.76
-13.41
-0.9
11.42
22.57
32.38
41.32
50.12
59.23
68.59
77.64
85.47
90.92
92.59
88.88
78.43
60.75
36.86
9.51
-17.36
-39.79
-55.02
-62.13
-61.87
-55.89
-45.8
-32.54
-16.36
2.52
23.17
43.69
61.38
73.79
79.78
80.06
76.94
73.19
70.79
70.11
70.06
68.92
65.38
59.19
50.99
41.69
31.88
21.64
10.76
-0.69
-12.15
-22.7
-31.42
-37.7
-41.48
-43.13
-43.28
-42.51
-41.25
-39.66
-37.6
-34.8
-31.01
-26.18
-20.54
-14.64
-9.18
-4.75
-1.69
0.04
0.74
0.85
0.73
0.59
0.5
0.41
0.31
0.21
0.21
0.41
0.83
1.37
1.77
1.69
0.87
-0.73
-2.89
-5.14
-7.02
-8.28
-9.03
-9.66
-10.68
-12.37
-14.67
-17.13
-19.1
-19.91
-19.23
-17.12
-13.97
-10.34
-6.73
-3.41
-0.45
2.16
4.32
5.78
6.12
4.88
1.91
-2.58
-7.96
-13.4
-18.2
-22.14
-25.58
-29.33
-34.13
-40.26
-47.21
-53.88
-59.05
-61.93
-62.62
-62.13
-61.85
-63.08
-66.25
-70.68
-74.71
-76.14
-72.91
-63.81
-48.89
-29.38
-7.31
15.18
36.43
55.54
72.26
86.47
97.73
105.11
107.34
103.22
92.11
74.31
51.06
24.45
-2.8
-27.68
-47.17
-58.66
-60.4
-51.83
-33.83
-8.54
20.87
50.84
77.95
99.41
113.46
119.6
118.59
112.09
102.35
91.73
82.28
75.46
71.9
71.37
72.82
74.6
74.88
72.15
65.57
55.19
41.79
26.6
11.02
-3.75
-16.68
-27.08
-34.54
-39.02
-40.89
-40.86
-39.85
-38.83
-38.58
-39.53
-41.67
-44.55
-47.45
-49.68
-50.7
-50.37
-48.83
-46.41
-43.33
-39.67
-35.38
-30.5
-25.2
-19.9
-15.12
-11.21
-8.38
-6.55
-5.54
-5.17
-5.39
-6.32
-8.18
-11.17
-15.33
-20.33
-25.57
-30.3
-33.87
-36.06
-37.12
-37.65
-38.36
-39.65
-41.49
-43.27
-44.04
-42.86
-39.28
-33.74
-27.6
-22.76
-20.91
-22.73
-27.36
-32.6
-35.61
-33.96
-26.39
-13.1
4.54
24.61
45.2
64.71
81.93
95.98
106.23
112.15
113.27
109.01
98.67
81.72
58.12
28.88
-3.8
-36.61
-65.81
-88.1
-101.33
-104.94
-99.86
-87.93
-71.25
-51.68
-30.61
-9.11
11.87
31.17
47.42
59.34
66.16
68.1
66.65
64.21
63.39
66.01
72.29
80.74
88.58
92.87
91.55
84.22
72.14
57.52
42.58
28.79
16.46
5.03
-6.29
-17.93
-29.65
-40.64
-49.93
-56.89
-61.45
-63.96
-64.87
-64.33
-62.22
-58.27
-52.57
-45.77
-39.03
-33.61
-30.25
-28.8
-28.16
-26.86
-23.63
-18.02
-10.62
-2.72
4.18
8.98
11.34
11.62
10.56
8.97
7.43
6.31
5.91
6.46
8.19
11.08
14.71
18.29
20.82
21.43
19.69
15.75
10.18
3.81
-2.64
-8.72
-14.24
-19.15
-23.42
-26.99
-29.81
-32.03
-33.91
-35.86
-38.2
-41
-43.98
-46.6
-48.25
-48.53
-47.42
-45.27
-42.71
-40.43
-39.09
-39.12
-40.78
-44.1
-48.73
-53.86
-58.01
-59.24
-55.58
-45.79
-30.08
-10.22
10.87
30.13
45.32
55.49
60.77
61.51
57.73
48.87
34.41
14.63
-8.87
-33.33
-55.55
-72.66
-82.79
-85.2
-80.04
-68.2
-51.04
-30.29
-8
13.69
32.75
47.66
57.62
62.71
63.79
62.09
58.85
54.77
49.9
43.94
36.8
29.07
22.12
17.62
16.77
19.74
25.6
32.83
40.01
46.29
51.33
54.93
56.62
55.83
52.34
46.83
41.01
36.99
36.25
38.83
43.1
46.32
45.76
39.67
27.82
11.56
-6.76
-24.39
-38.88
-48.62
-53.25
-53.74
-51.99
-50.26
-50.3
-52.89
-57.67
-63.59
-69.5
-74.69
-79.14
-83.43
-88.32
-94.48
-102.15
-111.01
-120.43
-129.58
-137.81
-144.97
-151.57
-158.72
-167.81
-179.98
-195.5
-213.2
-230.29
-242.61
-245.68
-236.14
-213.31
-179.87
-141.3
-104.08
-73.27
-50.86
-35.64
-24.4
-13.93
-2.37
10.66
24.73
39.5
54.97
71.18
87.54
102.79
115.47
124.59
130.11
132.72
133.29
132.48
130.6
127.75
124.09
119.72
114.66
108.91
102.74
97.05
93.22
92.66
95.92
102.15
109.23
114.57
116.17
113.47
107.26
99.03
89.99
80.62
71.07
61.9
54.7
51.9
55.48
65.63
80.09
94.96
106.52
113.01
115.24
115.55
116
116.93
116.97
114.3
108.34
100.44
93.33
89.55
90.05
93.82
98.67
102.51
104.35
104.43
103.5
102.13
100.33
97.79
94.49
91.06
88.7
88.39
90.23
93.01
94.51
92.46
85.58
74.28
60.54
47.14
36.54
29.95
26.91
25.72
24.19
20.52
13.81
4.06
-8.12
-22.05
-36.97
-52.09
-66.37
-78.43
-86.91
-90.95
-90.64
-87.19
-82.56
-78.84
-77.62
-79.54
-84.26
-90.66
-97.3
-102.78
-106
-106.29
-103.56
-98.16
-90.89
-82.81
-75.04
-68.49
-63.66
-60.51
-58.56
-57.03
-55.18
-52.39
-48.19
-42.3
-34.49
-24.88
-14.09
-3.39
5.5
10.99
12.38
10.26
6.32
2.63
0.55
-0
-0.46
-2.85
-8.72
-18.46
-31.2
-45.43
-59.69
-73.04
-85.12
-95.97
-105.9
-115.55
-125.75
-137.24
-149.97
-162.58
-172.38
-176.13
-171.31
-157.43
-136.22
-110.96
-85
-60.4
-37.59
-15.77
6.02
27.98
49.32
68.62
84.59
96.76
105.67
112.59
118.96
125.74
133.09
140.35
146.49
150.71
152.88
153.74
154.53
156.43
159.85
164.29
168.67
171.87
173.22
172.67
170.64
167.84
165.07
163.24
163.13
165.16
169.03
173.71
177.66
179.28
177.39
171.54
161.98
149.53
135.39
120.99
107.76
96.74
88.17
81.26
74.46
66.12
55.29
42.15
27.7
13.09
-0.95
-14.16
-26.11
-35.56
-40.38
-38.29
-27.97
-10.24
11.78
33.52
50.48
59.83
61.03
55.53
45.78
34.04
21.66
9.13
-3.52
-16.07
-27.75
-37.37
-43.86
-46.86
-47.01
-45.91
-45.43
-46.93
-50.63
-55.57
-60.27
-63.55
-65.31
-66.61
-68.95
-73.26
-79.1
-84.72
-87.8
-86.64
-80.98
-71.93
-61.28
-50.33
-39.15
-26.65
-11.31
7.78
30.15
53.96
76.68
95.99
110.61
120.5
126.45
129.48
130.28
129.13
126.17
121.77
116.62
111.46
106.53
101.33
94.69
85.22
71.92
54.46
33.23
8.95
-17.73
-46.3
-76.4
-107.49
-138.75
-169.21
-198.02
-224.63
-248.96
-271.23
-291.56
-309.85
-325.63
-338.37
-347.87
-354.38
-358.48
-360.58
-360.56
-357.63
-350.7
-339.12
-323.09
-303.73
-282.79
-261.78
-241.4
-221.3
-200.39
-177.66
-152.92
-127.29
-102.87
-81.9
-65.7
-53.99
-45.09
-36.77
-27.36
-16.34
-4.25
8.1
20.27
32.4
44.83
57.42
69.26
78.82
84.7
86.32
84.23
80.14
76.35
75.12
77.99
85.41
96.68
110.22
123.86
135.11
141.38
140.5
131.54
115.71
96.83
80.52
72.26
75.03
87.68
105.25
121.16
130.39
131.48
126.61
119.52
112.96
107.21
100.22
89.35
73.22
52.41
28.97
4.93
-18.93
-43.29
-69.4
-97.91
-128.23
-158.95
-188.76
-217.08
-243.91
-268.83
-290.29
-305.8
-313.09
-311.73
-303.7
-292.7
-282.2
-273.61
-265.66
-255.26
-239.19
-215.33
-183.1
-143.48
-99.02
-53.99
-14.03
15.29
30.78
33.25
27.34
19.12
12.97
9.67
7.01
2.48
-4.06
-9.83
-10.8
-4.54
7.95
22.86
36.08
45.69
52.84
60.26
69.9
81.04
90.41
93.88
89.11
77.26
62.92
52.38
50.87
60.37
79.02
102.27
125.1
143.83
156.94
164.58
167.59
166.77
162.85
156.81
150.14
144.53
141.06
139.72
139.38
138.64
136.6
133.26
129.19
124.9
120.48
115.73
110.5
105.01
99.82
95.32
91.41
87.41
82.54
76.56
70.18
64.98
62.59
63.92
68.7
75.57
82.69
88.38
91.53
91.72
89.06
83.93
76.92
68.78
60.45
52.98
47.35
44.16
43.53
44.98
47.56
50.16
51.73
51.61
49.61
46
41.4
36.42
31.48
26.74
22.24
18.08
14.52
11.93
10.47
9.94
9.73
9.12
7.6
5.17
2.19
-0.88
-3.86
-6.94
-10.42
-14.29
-17.92
-20.25
-20.38
-18.24
-14.9
-12.24
-12.16
-15.61
-22.26
-30.61
-38.77
-45.24
-49.41
-51.53
-52.38
-52.91
-53.8
-55.53
-58.21
-61.62
-65.11
-67.72
-68.37
-66.25
-61.07
-53.26
-43.82
-34.01
-24.96
-17.53
-12.21
-9.37
-9.34
-12.54
-19.33
-29.97
-44.29
-61.59
-80.45
-98.81
-114.28
-124.5
-127.76
-123.5
-112.51
-96.9
-79.6
-63.81
-52.25
-46.62
-47.19
-52.63
-60.21
-66.42
-67.91
-62.58
-50.33
-33.18
-14.48
2.33
14.94
22.82
26.92
28.75
29.54
29.72
29.21
27.94
26.27
24.78
23.8
23.05
21.64
18.66
13.96
8.52
4.13
2.45
4.11
8.33
13.27
16.88
17.75
15.46
10.47
3.73
-3.69
-10.77
-16.6
-20.5
-22.08
-21.37
-18.83
-15.23
-11.42
-8.09
-5.62
-4.02
-2.86
-2.05
-1.34
-0.8
-0.72
-1.48
-3.23
-5.63
-7.76
-8.24
-6.15
-1.14
6.18
14.38
21.77
27.06
29.98
31.29
32.81
35.41
39.58
44.64
49.09
51.31
50.4
46.69
41.5
37.64
35.22
34.8
36.16
38.72
42
45.87
50.51
56.2
65.46
76.1
88.4
102.52
118.19
134.52
150.23
164.33
176.82
192.71
210.38
232.11
258.75
288.85
318.89
344.37
361.26
367.4
367.96
360.88
350.85
342.47
338.57
338.95
340.32
337.33
294.82
246.03
183.45
109.08
28.62
-49.93
-118.55
-171.91
-209.41
-235.29
-252.01
-271.17
-295.04
-320.52
-340.64
-348.28
-339.95
-317.81
-288.9
-258.5
-237.58
-228.7
-229.58
-234.74
-238.25
-236.11
-227.36
-213.63
-195.27
-176.96
-159.99
-145.25
-134.11
-128.7
-130.85
-140.47
-154.3
-165.19
-167.67
-157.15
-133.3
-99.91
-63.18
-29.19
-1.78
18.19
32.68
43.94
54.45
65.55
76.87
86.61
92.1
90.9
81.93
66.14
46.26
25.7
7.14
-8.42
-21.69
-34.27
-47.71
-62.79
-79.35
-96.5
-112.76
-126.26
-134.93
-136.84
-130.75
-116.58
-95.82
-71.44
-47.49
-28.21
-16.78
-14.34
-19.36
-28.27
-36.7
-41.22
-40.59
-35.95
-29.92
-25.16
-23.38
-24.9
-28.98
-34.26
-39.08
-41.78
-40.95
-35.97
-27.44
-17.16
-7.31
0.44
5.69
9.12
11.8
14.33
16.76
18.96
21.24
24.59
30.08
38.08
47.77
57.37
65.18
70.51
73.99
76.89
80.05
83.21
85.23
84.99
82.18
77.51
72.11
66.86
61.96
57.18
52.39
47.82
43.75
39.96
35.42
28.62
18.33
4.41
-12.07
-29.24
-45.07
-57.93
-66.58
-70.1
-68.1
-61.03
-50.35
-38.37
-27.57
-19.75
-15.56
-14.58
-15.86
-18.45
-21.73
-25.09
-27.84
-29.12
-28.17
-24.62
-18.72
-11.22
-2.99
5.22
13.04
20.42
27.38
33.78
39.08
42.38
42.71
39.42
32.74
23.99
15.23
8.7
6.06
7.79
13.24
21.01
29.61
37.98
45.69
52.76
59.4
65.73
71.68
77.12
82.01
86.41
90.43
94.07
97.02
98.67
98.33
95.73
91.29
86.12
81.65
78.88
77.91
77.81
77.04
73.94
67.24
56.29
41.12
22.48
1.88
-18.39
-35.51
-46.48
-49.14
-42.95
-29.43
-11.86
5.77
20.09
29.36
33.77
35
35.28
36.49
39.62
44.66
51.06
58.02
64.98
71.72
78.3
84.83
91.17
96.74
100.52
101.41
98.79
92.92
84.95
76.41
68.67
62.38
57.49
53.49
49.77
45.86
41.45
36.32
30.34
23.61
16.45
9.39
2.91
-2.66
-7.3
-11.2
-14.74
-18.33
-22.31
-26.86
-31.84
-36.7
-40.55
-42.37
-41.61
-38.7
-35.52
-35.21
-41.46
-57.3
-83.77
-119.18
-159.22
-197.96
-229.69
-250.37
-258.48
-255.06
-243.05
-226.21
-208.02
-190.52
-173.89
-156.61
-136.6
-112.74
-86.1
-59.9
-38.24
-24.16
-18.13
-18.11
-21.07
-24.95
-30
-38.43
-52.48
-72.55
-96.51
-120.6
-141.23
-156.4
-166.02
-171.11
-172.7
-171.09
-165.92
-156.7
-143.23
-125.68
-104.49
-80.26
-54
-27.24
-2.03
19.59
36.22
47.58
54.24
57.07
56.62
52.94
46.02
36.32
25.04
13.83
4.24
-2.99
-7.98
-11.47
-14.31
-17.1
-20
-22.97
-25.97
-29.17
-32.81
-36.93
-41.12
-44.47
-45.84
-44.25
-39.34
-31.53
-21.84
-11.45
-1.31
8.18
17.21
26.4
36.54
48.43
62.68
79.58
98.89
119.74
140.63
159.78
175.69
187.68
196.15
202.33
207.8
213.89
221.12
228.98
236.17
241.09
242.74
241.35
238.61
237.06
238.72
243.94
250.68
255.06
252.74
240.67
218.16
187.15
151.52
116.18
85.78
63.53
50.03
42.64
36.03
24.1
2.59
-28.86
-66.23
-102.76
-131.67
-148.69
-153.18
-147.41
-134.89
-118.8
-101.54
-85.12
-71.82
-64.02
-63.44
-70.05
-81.72
-94.63
-104.4
-107.4
-101.45
-86.01
-61.97
-31.4
2.57
36.02
64.78
85.43
96.29
98.12
93.76
87.12
81.66
79.23
79.7
81.34
81.84
79.21
72.4
61.27
46.17
27.57
6.01
-17.59
-41.69
-64.16
-82.75
-95.88
-103.38
-106.49
-107.33
-108.04
-109.99
-113.49
-117.85
-121.76
-123.8
-122.91
-118.7
-111.64
-102.89
-93.86
-85.66
-78.71
-72.72
-67.06
-61.16
-54.86
-48.4
-42.25
-36.86
-32.46
-29.1
-26.62
-24.78
-23.38
-22.28
-21.42
-20.82
-20.48
-20.31
-20.02
-19.3
-17.89
-15.8
-13.28
-10.69
-8.19
-5.63
-2.59
1.38
6.48
12.56
19.12
25.5
31.12
35.55
38.54
40.1
40.51
40.33
40.24
40.88
42.57
45.06
47.41
48.29
46.21
40.19
30.21
17.58
4.63
-6
-12.31
-13.97
-12.74
-12.28
-17.02
-30.59
-54.19
-85.71
-119.97
-150.22
-170.28
-176.4
-168.35
-149.22
-124.33
-99.75
-80.94
-71.52
-72.41
-81.5
-94.1
-104.54
-108.41
-104.53
-95.44
-85.84
-79.84
-78.41
-79.02
-77.3
-70.21
-58.35
-46.16
-39.88
-44.76
-62.89
-92.68
-129.67
-167.9
-201.08
-223.35
-230.17
-219.3
-191.74
-152
-107.16
-64.59
-29.48
-3.06
17.34
36.33
57.49
81.05
103.42
118.67
121.48
109.55
84.81
52.61
19.76
-7.7
-25.77
-32.67
-28.16
-13.16
10.31
38.87
67.97
93.11
111.37
122.62
129.26
134.62
140.78
147.33
151.59
150.42
142.37
128.89
113.78
101.12
93.16
89.32
86.89
82.67
74.54
61.91
45.35
25.71
3.65
-20.11
-44.25
-66.6
-84.35
-95.04
-97.56
-92.73
-82.97
-71.59
-61.61
-55.02
-52.5
-53.62
-57.28
-62.17
-67.1
-71.13
-73.6
-74.21
-72.88
-69.86
-65.67
-60.93
-56.23
-51.93
-47.9
-43.59
-38.08
-30.37
-19.66
-5.67
11.1
29.41
47.48
63.43
75.69
83.37
86.51
85.98
83.13
79.41
75.87
72.92
70.28
67.23
63.01
57.09
49.49
40.77
31.91
24.17
18.83
16.97
19.1
24.94
33.3
42.28
49.79
54.25
55.14
53.04
49.26
45.14
41.42
37.99
34.19
29.44
23.79
18.13
13.94
12.63
14.86
20.35
27.87
35.77
42.49
47
48.91
48.43
46.21
43.02
39.61
36.52
34.12
32.69
32.77
35.18
40.96
50.84
64.67
80.99
97.25
110.55
118.72
121.21
119.11
114.83
111.13
110.36
113.9
121.57
131.17
138.19
136.57
120.66
88.17
42.39
-7.65
-49.89
-73.86
-75.13
-57.22
-30.07
-5.69
6.5
2.56
-16.18
-45.31
-79.82
-115.28
-147.35
-171.03
-180.64
-171.47
-142.31
-97.08
-44.4
4.92
41.83
62.24
68.17
66.24
64.67
69.93
84.65
107.23
132.84
154.94
167.04
164.06
143.57
106.95
60.17
13.53
-20.46
-30.99
-13.12
29.39
84.78
137.2
172.55
183.07
168.85
135.49
89.93
37.21
-20.04
-79.56
-137.01
-185.29
-217.01
-228.26
-221.43
-204.92
-189.29
-182.31
-185.24
-192.86
-196.49
-188.97
-168.26
-138.08
-105.57
-77.67
-58.01
-46.15
-38.9
-32.79
-26.04
-19.35
-14.82
-14.23
-17.54
-22.6
-26.1
-25.3
-19.36
-9.73
0.82
9.67
15.57
19.03
21.61
24.78
29.05
33.69
37.33
38.73
37.48
34.19
30.16
26.82
25.14
25.42
27.24
29.72
31.86
32.94
32.67
31.22
29.05
26.59
24.1
21.55
18.8
15.85
13.05
11.02
10.54
12.12
15.78
20.96
26.74
32.17
36.53
39.48
40.99
41.21
40.29
38.42
35.86
33
30.31
28.15
26.57
25.22
23.55
21.12
17.91
14.49
11.71
10.26
10.26
11.1
11.72
11.06
8.56
4.32
-1
-6.54
-11.59
-15.7
-18.6
-20.09
-19.85
-17.51
-12.88
-6.23
1.57
9.11
14.78
17.38
16.55
12.94
8.06
3.67
1.23
1.46
4.37
9.51
16.28
24.14
32.63
41.15
48.84
54.67
57.78
57.92
55.67
52.38
49.67
48.85
50.51
54.65
61.12
70.01
81.61
95.7
110.72
123.43
129.72
126.43
113.13
92.69
70.04
49.77
33.91
21.42
9.41
-4.69
-21.41
-39.06
-54.99
-67.33
-75.88
-81.99
-87.28
-92.52
-97.17
-99.85
-99.45
-95.9
-90.46
-85.19
-81.93
-81.45
-82.97
-84.48
-83.6
-78.71
-69.64
-57.68
-44.97
-33.57
-24.71
-18.56
-14.53
-11.84
-10.04
-9.22
-9.87
-12.38
-16.7
-22.11
-27.47
-31.57
-33.46
-32.4
-27.72
-18.75
-5.2
12.07
30.64
46.77
56.46
57.11
48.54
33.27
15.42
-0.83
-12.56
-18.65
-19.55
-16.61
-11.43
-5.52
-0.13
3.84
5.95
6.2
4.97
2.77
0.12
-2.59
-5.05
-7.03
-8.4
-9.22
-9.72
-10.28
-11.2
-12.52
-13.96
-15.07
-15.48
-15.14
-14.41
-13.95
-14.48
-16.47
-20.03
-24.81
-30.19
-35.31
-39.34
-41.56
-41.51
-39.12
-34.71
-28.95
-22.73
-16.92
-12.1
-8.55
-6.36
-5.61
-6.51
-9.24
-13.66
-19.08
-24.14
-27.15
-26.66
-22.11
-14.18
-4.64
4.1
9.86
11.39
8.74
3.16
-3.39
-9.04
-12.7
-14.39
-15.05
-15.94
-18
-21.34
-25.42
-29.32
-31.9
-31.61
-26.21
-12.98
10.33
43.92
84.88
127.41
164.78
191.91
207.17
212.31
210.43
203.63
191.67
172.86
146.16
113.24
78.69
48.24
26.17
13.45
7.86
5.73
4.08
1.82
-0.5
-1.93
-2.44
-3.28
-6.28
-12.68
-22.25
-33.14
-42.57
-48
-48.08
-43.09
-34.69
-25.22
-16.85
-10.92
-7.7
-6.67
-6.97
-7.99
-9.57
-11.92
-15.3
-19.68
-24.56
-29.09
-32.37
-33.7
-32.77
-29.72
-24.97
-19.16
-13.05
-7.37
-2.83
0.04
0.94
-0.16
-3.01
-7.15
-11.93
-16.62
-20.48
-22.87
-23.4
-22.06
-19.08
-14.91
-9.98
-4.67
0.84
6.41
11.94
17.33
22.49
27.37
31.99
36.4
40.66
44.89
49.34
54.35
60.11
66.26
71.71
74.71
73.52
67.09
55.64
40.45
23.15
4.85
-14.06
-33.49
-52.71
-69.76
-81.62
-85.41
-79.77
-65.61
-45.73
-23.5
-1.42
19.4
38.59
55.17
66.71
69.53
60.16
37.14
2.11
-40.5
-84.98
-126.24
-161.08
-188.01
-206.16
-214.19
-210.08
-192.35
-161.73
-122.37
-81.26
-46.02
-21.9
-9.74
-5.86
-4.21
0.34
9.33
20.14
27.83
28.01
19.31
3.73
-14.68
-32.05
-46.05
-55.85
-61.13
-61.09
-54.37
-39.91
-18.03
9.06
37.84
64.36
85.04
97.02
98.11
87
63.99
31.84
-3.93
-35.74
-55.72
-57.78
-39.61
-3.74
42.75
89.88
127.65
148.99
151.96
139.95
119.77
98.39
80.14
65.44
51.98
37.02
19.47
0.33
-18.46
-35.66
-51.69
-68.05
-85.64
-103.51
-118.77
-127.92
-128.65
-121.03
-107.27
-90.37
-72.64
-54.99
-37.31
-19.28
-1.03
16.95
34.26
51.1
68.15
86.19
105.44
125.31
144.71
162.36
177.28
188.73
196.12
198.79
196.02
187.19
171.96
150.43
123.27
91.77
57.86
24.03
-7.11
-33.33
-53.37
-67.16
-75.61
-80.22
-82.62
-84.28
-86.32
-89.52
-94.16
-99.9
-105.8
-110.67
-113.63
-114.59
-114.5
-114.79
-116.77
-120.88
-126.45
-132
-135.91
-136.93
-134.58
-129.14
-121.47
-112.63
-103.66
-95.19
-87.23
-79.05
-69.29
-56.43
-39.41
-18.39
4.58
25.46
38.85
39.63
25.03
-3.6
-40.53
-77.12
-104.56
-116.85
-112.37
-93.76
-66.07
-34.57
-3.04
26.65
53.85
78.22
99.11
115.58
126.9
133.03
134.83
133.81
131.51
128.89
125.75
120.64
111.22
95.08
70.59
37.8
-1.1
-41.84
-78.78
-106.15
-119.41
-116.39
-97.68
-66.33
-27.07
14.41
52.45
82.19
100.45
106.44
101.84
90.06
74.94
59.34
44.68
31.27
19.33
9.78
4.31
4.5
10.67
21.18
32.61
40.82
42.22
34.98
19.44
-1.95
-25.37
-46.51
-61.58
-67.95
-64.43
-51.22
-29.8
-2.83
25.9
51.73
69.91
76.81
70.99
53.8
29
1.62
-23.62
-43.6
-57.43
-66.26
-72.4
-78.2
-84.92
-92.35
-98.91
-102.42
-101.14
-94.51
-83.4
-69.49
-54.62
-40.1
-26.51
-14.05
-2.89
6.58
13.93
18.95
21.84
23.19
23.72
23.97
24.08
23.85
22.92
21.05
18.4
15.58
13.55
13.35
15.75
20.95
28.42
36.9
44.83
50.71
53.65
53.62
51.51
48.81
47.05
47.13
48.82
50.63
50.24
45.33
34.55
18.36
-0.93
-19.77
-34.48
-42.51
-43.27
-38.08
-29.47
-20.07
-11.65
-4.78
0.91
6.25
11.94
18.35
25.27
31.77
35.96
35.23
27.06
10.33
-13.45
-39.82
-62.47
-75.35
-74.97
-61.7
-39.66
-15.22
5.07
16.57
17.7
10.09
-2.36
-15.27
-25.49
-32.16
-36.54
-40.62
-45.42
-50.28
-53.27
-52.79
-48.9
-43.75
-40.31
-40.66
-44.64
-49.96
-53.41
-52.43
-45.99
-34.57
-19.59
-2.97
13.19
26.83
36.32
41.22
42.77
43.72
47.18
55.15
67.5
81.92
95.16
104.54
109.06
109.56
107.96
106.12
105.28
105.84
107.75
110.91
115.36
121.14
127.95
134.85
140.11
141.36
136.13
122.45
99.48
67.66
28.35
-16.81
-66.52
-119.77
-175.12
-229.79
-279.11
-317.05
-337.68
-337.08
-314.74
-273.94
-220.82
-162.59
-105.73
-54.58
-10.98
25.33
55.61
81.03
101.83
117.23
125.94
126.99
120.39
107.19
88.97
67.09
42.37
15.62
-11.56
-36.18
-54.33
-62.38
-58.66
-44.37
-23.17
0.32
22.32
41
56.34
69.23
80.2
88.77
93.62
93.41
87.7
77.38
64.63
52.25
42.82
37.95
37.89
41.64
47.52
53.81
59.37
63.85
67.38
70.18
72.16
72.89
71.87
68.76
63.49
56.08
46.34
33.74
17.58
-2.64
-26.58
-52.89
-79.22
-102.75
-121.02
-132.59
-137.43
-136.58
-131.62
-123.91
-114.38
-103.58
-92.18
-81.19
-71.75
-64.39
-58.5
-52.25
-43.57
-31.38
-16.59
-1.85
9.6
15.74
16.74
14.89
13.29
14.37
18.85
25.84
33.6
40.6
46.15
50.37
53.69
56.31
58.05
58.42
57.11
54.28
50.64
47.27
45.08
44.41
44.83
45.35
44.79
42.39
38.16
32.86
27.7
23.69
21.26
20.04
19.18
17.86
15.86
13.81
12.97
14.73
19.92
28.4
39.05
50.06
59.64
66.45
70.1
71.15
70.98
71.28
73.53
78.33
84.94
91.11
93.51
88.73
74.42
50.38
18.95
-15.45
-47.37
-71.77
-85.36
-87.22
-78.96
-64.11
-47.06
-32.05
-22.18
-18.84
-21.74
-29.29
-39.19
-49.17
-57.4
-62.64
-64.24
-62.18
-57.06
-50.06
-42.83
-36.99
-33.7
-33.24
-34.9
-37.36
-39.36
-40.38
-41.01
-42.87
-48.08
-58.49
-74.93
-96.75
-121.72
-146.34
-166.51
-178.55
-180.23
-171.55
-154.89
-134.25
-113.9
-96.74
-83.49
-72.78
-62.39
-50.81
-38.04
-25.5
-14.86
-6.79
-0.35
6.41
15.3
26.81
39.8
52.2
62.21
69.19
73.85
77.5
81.14
84.82
87.67
88.52
86.67
82.24
76.22
69.9
64.33
59.93
56.53
53.66
50.9
48.02
45.04
41.96
38.75
35.34
31.81
28.48
25.84
24.19
23.28
22.16
19.42
13.69
4.29
-8.35
-22.78
-36.82
-48.13
-54.79
-55.7
-50.81
-41.09
-28.41
-15.11
-3.38
5.29
10.58
13.25
14.68
16.1
18.16
20.73
23.17
24.89
25.61
25.44
24.64
23.38
21.65
19.39
16.66
13.72
10.94
8.51
6.31
3.97
1.09
-2.47
-6.52
-10.53
-13.96
-16.37
-17.53
-17.36
-15.94
-13.4
-10.02
-6.23
-2.54
0.61
2.94
4.39
5.06
5.15
4.76
4.03
3.08
2.08
1.28
0.87
0.91
1.35
1.96
2.48
2.68
2.44
1.73
0.59
-0.9
-2.66
-4.6
-6.57
-8.42
-10.12
-11.76
-13.58
-15.88
-18.86
-22.38
-25.95
-28.73
-29.89
-28.81
-25.37
-20.03
-13.65
-7.28
-1.84
2.15
4.53
5.58
5.74
5.48
5.11
4.74
4.29
3.64
2.82
2.01
1.47
1.41
1.83
2.46
2.88
2.73
1.81
0.22
-1.81
-3.95
-5.99
-7.8
-9.39
-10.78
-12.12
-13.51
-15.04
-16.66
-18.14
-19.03
-18.83
-17.02
-13.34
-7.76
-0.62
7.48
15.78
23.43
29.65
33.82
35.55
34.82
31.93
27.51
22.39
17.39
13.13
9.96
7.88
6.65
5.91
5.34
4.73
4.03
3.23
2.38
1.38
0.08
-1.77
-4.27
-7.36
-10.74
-13.87
-16.16
-17.14
-16.59
-14.58
-11.46
-7.71
-3.84
-0.34
2.38
4.01
4.33
3.32
1.14
-1.8
-5
-7.96
-10.29
-11.78
-12.33
-11.91
-10.58
-8.49
-5.92
-3.23
-0.83
1.05
2.35
3.21
3.81
4.24
4.39
3.95
2.6
0.18
-3.16
-6.98
-10.52
-13.04
-13.91
-12.86
-10.06
-5.99
-1.36
3.18
7.05
9.87
11.41
11.53
10.2
7.61
4.13
0.37
-3.04
-5.67
-7.44
-8.63
-9.75
-11.2
-13.05
-15.05
-16.74
-17.74
-17.89
-17.38
-16.58
-15.89
-15.59
-15.81
-16.51
-17.6
-18.88
-20.1
-20.88
-20.84
-19.72
-17.52
-14.56
-11.34
-8.34
-5.86
-3.94
-2.4
-1.03
0.28
1.54
2.6
3.32
3.6
3.5
3.24
3.16
3.61
4.79
6.6
8.62
10.21
10.8
10.06
8.11
5.39
2.55
0.16
-1.34
-1.89
-1.69
-1.17
-0.9
-1.45
-3.11
-5.86
-9.22
-12.38
-14.42
-14.61
-12.56
-8.4
-2.75
3.45
9.14
13.39
15.63
15.73
14.02
11.09
7.7
4.53
2.08
0.63
0.28
0.87
2.11
3.6
4.93
5.8
6.07
5.82
5.28
4.69
4.25
4.01
3.88
3.66
3.12
2.06
0.37
-1.96
-4.83
-7.98
-11.01
-13.39
-14.55
-14.05
-11.74
-7.81
-2.84
2.39
7.11
10.74
13.04
14.04
13.99
13.22
12.08
10.88
9.88
9.28
9.21
9.68
10.55
11.5
12.17
12.24
11.6
10.37
8.84
7.33
6.08
5.12
4.26
3.22
1.65
-0.75
-4.1
-8.33
-13.07
-17.64
-21.23
-23.03
-22.55
-19.8
-15.23
-9.66
-3.93
1.3
5.63
8.95
11.3
12.8
13.54
13.7
13.5
13.23
13.15
13.37
13.76
14
13.76
12.86
11.42
9.85
8.61
8.04
8.15
8.56
8.7
8.03
6.28
3.47
-0.01
-3.74
-7.3
-10.49
-13.25
-15.56
-17.35
-18.42
-18.47
-17.28
-14.8
-11.26
-7.18
-3.25
-0.13
1.68
2.01
1.03
-0.88
-3.22
-5.66
-7.99
-10.18
-12.25
-14.13
-15.73
-16.94
-17.74
-18.2
-18.46
-18.6
-18.58
-18.25
-17.44
-16.08
-14.27
-12.34
-10.71
-9.78
-9.75
-10.44
-11.32
-11.66
-10.77
-8.27
-4.24
0.88
6.5
12.08
17.35
22.18
26.47
30
32.49
33.73
33.75
32.92
31.81
30.91
30.47
30.46
30.62
30.69
30.55
30.24
29.85
29.41
28.79
27.69
25.78
22.81
18.67
13.49
7.64
1.68
-3.75
-7.98
-10.54
-11.24
-10.22
-7.9
-4.8
-1.34
2.29
6.01
9.76
13.4
16.57
18.86
19.99
19.96
18.96
17.33
15.31
13.02
10.52
7.86
5.17
2.68
0.61
-0.95
-2.06
-2.85
-3.59
-4.51
-5.86
-7.77
-10.32
-13.36
-16.49
-19.1
-20.48
-20.08
-17.69
-13.52
-8.14
-2.32
3.17
7.73
11.04
12.96
13.57
13.02
11.57
9.54
7.26
5.1
3.33
2.15
1.59
1.53
1.73
1.9
1.8
1.38
0.71
-0.01
-0.6
-1.05
-1.51
-2.27
-3.61
-5.75
-8.67
-12.18
-15.88
-19.3
-21.88
-23.11
-22.62
-20.26
-16.18
-10.82
-4.83
1.06
6.24
10.32
13.16
14.8
15.39
15.1
14.07
12.45
10.43
8.24
6.11
4.22
2.64
1.34
0.16
-1.03
-2.35
-3.83
-5.42
-7.03
-8.58
-10.04
-11.46
-13.01
-14.92
-17.42
-20.65
-24.55
-28.75
-32.57
-35.19
-35.89
-34.38
-30.82
-25.93
-20.63
-15.78
-11.94
-9.22
-7.48
-6.46
-6.06
-6.32
-7.38
-9.36
-12.22
-15.8
-19.86
-24.04
-27.89
-30.79
-32.15
-31.5
-28.77
-24.38
-19.16
-14.07
-9.84
-6.87
-5.19
-4.59
-4.83
-5.65
-6.84
-8.16
-9.31
-9.98
-9.88
-8.7
-6.24
-2.43
2.63
8.63
15.12
21.53
27.4
32.3
35.88
37.83
37.85
35.76
31.7
26.22
20.27
14.97
11.35
9.95
10.68
12.89
15.54
17.67
18.61
18.18
16.58
14.27
11.72
9.31
7.23
5.5
4.03
2.7
1.37
-0.09
-1.77
-3.8
-6.2
-8.9
-11.51
-13.45
-14.05
-12.8
-9.67
-5.15
-0.12
4.5
8.06
10.34
11.53
11.98
11.94
11.47
10.52
9.07
7.31
5.61
4.42
4.02
4.4
5.22
6
6.31
6.02
5.33
4.56
4.07
3.9
3.85
3.55
2.67
1.05
-1.19
-3.79
-6.4
-8.72
-10.5
-11.51
-11.51
-10.28
-7.73
-3.93
0.72
5.67
10.27
13.94
16.33
17.3
16.95
15.5
13.3
10.74
8.25
6.21
4.85
4.21
4.17
4.47
4.89
5.32
5.77
6.27
6.81
7.26
7.39
6.98
5.83
3.9
1.26
-1.87
-5.15
-8.11
-10.25
-11.12
-10.45
-8.21
-4.59
0.11
5.54
11.33
17.12
22.44
26.8
29.81
31.29
31.49
30.98
30.49
30.6
31.48
32.9
34.34
35.32
35.66
35.54
35.43
35.92
37.57
40.62
44.87
49.31
52.13
50.92
43.35
28.1
5.53
-22.12
-51.17
-77.5
-97.55
-109
-110.98
-103.95
-89.38
-69.43
-46.7
-23.92
-3.59
12.52
23.59
29.92
32.63
33.29
33.37
33.82
34.92
36.36
37.51
37.76
36.79
34.56
31.34
27.47
23.31
19.07
14.74
10.1
4.64
-2.19
-10.78
-21.03
-32.16
-42.87
-51.72
-57.65
-60.35
-60.3
-58.51
-55.9
-52.99
-49.72
-45.63
-40.28
-33.53
-25.67
-17.3
-9.1
-1.54
5.19
11.05
16.09
20.26
23.49
25.69
26.94
27.46
27.63
27.81
28.2
28.67
28.71
27.53
24.37
18.79
10.97
1.72
-7.77
-16.3
-23.08
-27.91
-31.07
-32.99
-33.97
-34.08
-33.29
-31.7
-29.68
-27.72
-26.24
-25.17
-24.04
-22.13
-18.87
-14.21
-8.63
-3.02
1.76
5.22
7.32
8.4
8.9
9.18
9.35
9.35
9.1
8.55
7.87
7.32
7.16
7.52
8.3
9.2
9.82
9.82
8.97
7.18
4.5
1.07
-2.8
-6.65
-9.79
-11.5
-11.29
-9.13
-5.64
-1.9
0.99
2.25
1.69
-0.31
-3.18
-6.49
-10.06
-13.89
-17.88
-21.54
-24
-24.27
-21.6
-15.84
-7.53
2.24
12.15
20.98
27.84
32.32
34.54
35.08
34.78
34.48
34.89
36.35
38.91
42.33
46.26
50.33
54.23
57.72
60.7
63.14
65.03
66.26
66.67
66.13
64.83
63.41
62.82
63.98
67.26
72.1
77.04
80.07
79.26
73.42
62.68
48.66
34.12
22.21
15.35
14.38
18.26
24.67
31
35.58
38.05
39.05
39.38
39.12
37.43
32.96
24.48
11.48
-5.69
-25.9
-47.37
-67.92
-85.28
-97.77
-104.71
-106.75
-105.29
-101.83
-97.23
-91.77
-85.86
-80.9
-79.67
-85.66
-101.46
-127.3
-160.1
-193.93
-221.51
-236.23
-233.98
-214.18
-179.76
-136.18
-89.82
-46.41
-10.06
17.01
33.85
40.09
35.59
20.74
-2.82
-31.7
-60.94
-84.97
-99.03
-100.28
-88.39
-65.23
-34.21
0.72
35.82
68.02
95.16
115.89
129.69
136.74
137.88
134.46
128.11
120.4
112.45
104.72
96.99
88.52
78.47
66.35
52.4
37.67
23.75
12.1
3.17
-4.11
-12.25
-24.22
-41.99
-65.4
-91.66
-116.27
-134.4
-142.48
-139.15
-125.22
-103.18
-76.24
-47.67
-20.29
3.9
23.86
39.37
50.62
57.68
60.1
56.92
47.2
30.62
7.98
-18.66
-46.28
-71.35
-90.46
-100.92
-101.35
-92.09
-75.19
-53.98
-32.11
-12.55
3.03
14.39
22.25
27.68
31.58
34.5
36.71
38.35
39.5
40.24
40.61
40.66
40.44
40.09
39.85
39.95
40.57
41.69
43.06
44.29
44.95
44.75
43.66
41.82
39.4
36.46
32.91
28.68
23.9
18.94
14.38
10.63
7.75
5.29
2.39
-1.83
-7.93
-15.84
-24.78
-33.43
-40.29
-44.17
-44.55
-41.79
-36.94
-31.32
-26.02
-21.49
-17.5
-13.28
-7.94
-0.73
8.55
19.4
30.52
40.04
46.11
47.57
44.61
38.89
32.96
29.32
29.41
33.28
39.77
47.39
55.09
62.49
69.79
77.17
84.43
90.94
95.75
97.93
96.65
91.27
81.53
67.83
51.51
34.95
21.05
12.33
9.97
13.25
19.84
26.82
31.77
33.68
32.96
30.95
29.03
28.06
28.13
28.65
28.36
25.44
17.52
2.09
-22.72
-56.98
-98.05
-140.5
-177.13
-201.07
-208.03
-197.85
-174.51
-144.65
-115.14
-90.93
-73.99
-63.65
-57.88
-54.67
-52.79
-51.77
-51.3
-50.71
-49.01
-45.28
-39.26
-31.55
-23.35
-15.96
-10.13
-5.78
-2.2
1.49
5.82
10.61
15.05
18.05
18.82
17.24
14.01
10.28
7.21
5.52
5.29
6.05
7.1
7.86
8.09
7.78
7.09
6.2
5.22
4.25
3.38
2.7
2.17
1.6
0.72
-0.79
-3.1
-6.14
-9.66
-13.23
-16.36
-18.59
-19.57
-19.13
-17.34
-14.55
-11.31
-8.37
-6.44
-6.04
-7.31
-9.97
-13.4
-16.91
-19.94
-22.2
-23.55
-23.74
-22.26
-18.37
-11.48
-1.5
10.92
24.6
38.18
50.56
61.04
69.17
74.52
76.66
75.41
71.17
65.06
58.57
52.99
48.72
45.02
40.37
33.17
22.59
8.98
-6.06
-20.19
-31.09
-37.1
-37.71
-33.64
-26.48
-18.14
-10.14
-3.21
2.73
8.25
13.91
19.83
25.63
30.61
34.12
35.81
35.68
33.88
30.6
25.9
19.92
12.98
5.69
-1.17
-6.92
-11.24
-14.27
-16.48
-18.39
-20.39
-22.65
-25.17
-27.87
-30.51
-32.67
-33.68
-32.8
-29.56
-24.04
-17.02
-9.7
-3.2
1.91
5.7
8.76
11.6
14.37
16.71
18.08
18.11
17.02
15.44
14.18
13.84
14.5
15.78
17.05
17.73
17.49
16.33
14.46
12.22
9.98
8.04
6.62
5.83
5.6
5.78
6.06
6.13
5.68
4.48
2.53
0.11
-2.21
-3.73
-3.77
-2
1.36
5.63
9.86
13.21
15.27
16.07
15.98
15.38
14.47
13.24
11.61
9.56
7.26
5.01
3.07
1.61
0.58
-0.17
-0.85
-1.55
-2.36
-3.21
-4.08
-4.91
-5.69
-6.43
-7.14
-7.79
-8.3
-8.61
-8.71
-8.7
-8.81
-9.26
-10.17
-11.4
-12.59
-13.17
-12.6
-10.54
-6.97
-2.23
3.03
8.05
12.18
15.01
16.45
16.65
15.9
14.46
12.46
10.01
7.21
4.24
1.35
-1.14
-3.02
-4.18
-4.68
-4.61
-4.11
-3.32
-2.33
-1.24
-0.18
0.66
1.1
1.02
0.31
-1.02
-2.91
-5.28
-8.01
-10.94
-13.82
-16.33
-18.05
-18.59
-17.66
-15.24
-11.59
-7.22
-2.8
1.08
4
5.85
6.74
6.92
6.68
6.15
5.39
4.44
3.36
2.34
1.53
1.07
0.99
1.19
1.49
1.68
1.58
1.09
0.26
-0.79
-1.92
-3.04
-4.25
-5.73
-7.7
-10.19
-13
-15.69
-17.74
-18.7
-18.36
-16.75
-14.13
-10.83
-7.16
-3.52
-0.22
2.42
4.21
5.09
5.19
4.73
3.98
3.14
2.32
1.56
0.88
0.34
0.06
0.16
0.71
1.69
2.92
4.17
5.2
5.84
6.07
5.94
5.57
5
4.18
2.97
1.24
-1.01
-3.68
-6.53
-9.26
-11.57
-13.14
-13.72
-13.08
-11.16
-8.1
-4.29
-0.28
3.44
6.5
8.81
10.42
11.45
11.97
11.95
11.37
10.26
8.78
7.19
5.78
4.74
4.16
3.93
3.83
3.63
3.17
2.41
1.49
0.59
-0.14
-0.64
-1.01
-1.43
-2.06
-2.99
-4.19
-5.6
-7.22
-9.12
-11.38
-13.97
-16.63
-18.83
-19.92
-19.41
-17.19
-13.56
-9.18
-4.8
-1.02
1.82
3.67
4.66
5.06
5.09
4.98
4.86
4.82
4.84
4.89
4.97
5.05
5.15
5.3
5.48
5.67
5.79
5.78
5.63
5.33
4.88
4.28
3.47
2.39
0.99
-0.75
-2.76
-4.93
-7.18
-9.4
-11.52
-13.39
-14.76
-15.28
-14.64
-12.71
-9.65
-5.9
-2.13
1.06
3.26
4.39
4.64
4.31
3.74
3.18
2.71
2.38
2.21
2.2
2.34
2.67
3.16
3.8
4.5
5.19
5.79
6.24
6.51
6.63
6.6
6.45
6.16
5.74
5.16
4.39
3.41
2.13
0.52
-1.48
-3.83
-6.38
-8.85
-10.86
-12.06
-12.19
-11.19
-9.22
-6.64
-3.87
-1.3
0.81
2.37
3.41
3.99
4.22
4.18
3.98
3.73
3.55
3.5
3.6
3.79
4.04
4.28
4.52
4.73
4.84
4.8
4.5
3.93
3.13
2.19
1.21
0.23
-0.81
-2
-3.46
-5.24
-7.35
-9.75
-12.37
-15.05
-17.52
-19.39
-20.16
-19.38
-16.87
-12.83
-7.82
-2.61
2.04
5.68
8.2
9.74
10.56
10.8
10.52
9.67
8.28
6.51
4.65
3.04
1.92
1.35
1.21
1.28
1.38
1.41
1.38
1.36
1.39
1.48
1.56
1.51
1.2
0.53
-0.58
-2.17
-4.21
-6.59
-9.13
-11.54
-13.44
-14.45
-14.29
-12.89
-10.43
-7.25
-3.76
-0.37
2.62
5.01
6.66
7.53
7.68
7.25
6.46
5.48
4.42
3.37
2.43
1.74
1.39
1.4
1.63
1.81
1.68
1.13
0.28
-0.62
-1.31
-1.67
-1.82
-2.03
-2.62
-3.77
-5.49
-7.6
-9.79
-11.6
-12.59
-12.37
-10.71
-7.62
-3.37
1.57
6.62
11.27
15.17
18.16
20.27
21.59
22.26
22.37
21.94
20.99
19.56
17.85
16.2
15.08
14.95
15.97
18.01
20.54
22.97
24.84
26.06
26.93
27.98
29.66
32.2
35.48
39.06
42.42
45.09
46.87
47.93
48.77
50.16
52.89
57.46
63.92
71.85
80.38
88.51
95.29
100
102.28
102.1
99.82
95.82
90.3
83.02
73.33
60.59
44.77
26.83
8.73
-7.24
-19.25
-26.73
-30.5
-32.27
-33.75
-35.94
-38.87
-41.8
-43.88
-44.57
-43.86
-42.14
-39.84
-37.19
-34.13
-30.42
-25.88
-20.57
-14.85
-9.31
-4.47
-0.59
2.42
4.93
7.3
9.68
11.9
13.52
14.09
13.37
11.42
8.56
5.23
1.79
-1.54
-4.61
-7.32
-9.6
-11.51
-13.33
-15.5
-18.5
-22.54
-27.43
-32.62
-37.4
-41.2
-43.83
-45.44
-46.3
-46.58
-46.32
-45.45
-44.1
-42.59
-41.42
-40.9
-40.89
-40.75
-39.64
-36.94
-32.54
-26.96
-21.03
-15.46
-10.6
-6.46
-2.82
0.37
3.01
4.81
5.61
5.48
4.72
3.68
2.59
1.47
0.3
-0.95
-2.06
-2.68
-2.51
-1.44
0.36
2.46
4.38
5.82
6.72
7.2
7.53
7.92
8.53
9.38
10.48
11.79
13.27
14.9
16.75
19.05
22.14
26.5
32.49
40.27
49.73
60.49
72.07
84.16
96.58
109.28
122
134.15
144.72
152.7
157.42
158.95
158.02
155.41
151.39
145.3
135.67
121.11
101.06
76.3
48.8
20.95
-5.27
-28.76
-49.27
-66.97
-82.05
-94.5
-104.37
-111.93
-117.74
-122.53
-126.8
-130.57
-133.41
-134.63
-133.64
-130.25
-124.72
-117.67
-109.88
-101.97
-94.37
-87.23
-80.5
-74.05
-67.85
-61.93
-56.49
-51.67
-47.57
-44.06
-40.93
-37.98
-35.22
-32.95
-31.7
-31.97
-34.11
-37.89
-42.61
-47.24
-50.72
-52.39
-52.19
-50.66
-48.61
-46.73
-45.37
-44.4
-43.42
-41.94
-39.61
-36.22
-31.65
-25.95
-19.39
-12.55
-6.33
-1.71
0.54
0.26
-2.08
-5.56
-9.2
-12.38
-14.94
-17.11
-19.19
-21.32
-23.35
-25.05
-26.3
-27.27
-28.38
-30.09
-32.71
-36.22
-40.42
-45.07
-50.14
-55.86
-62.5
-70.21
-78.78
-87.64
-95.95
-102.78
-107.27
-108.82
-107.03
-101.82
-93.46
-82.57
-70.09
-57.19
-44.92
-34.05
-24.87
-17.36
-11.47
-7.35
-5.26
-5.28
-7.01
-9.35
-10.91
-10.44
-7.37
-2
4.8
12.11
19.31
26.12
32.4
37.87
42.14
44.78
45.61
44.82
42.92
40.62
38.57
37.27
36.93
37.36
38.01
38.06
36.78
33.79
29.32
24.22
19.66
16.67
15.76
16.81
19.1
21.71
23.84
25.02
25.17
24.46
23.18
21.54
19.61
17.38
14.82
11.99
9.09
6.42
4.26
2.72
1.76
1.11
0.5
-0.29
-1.3
-2.46
-3.57
-4.54
-5.34
-6.13
-7.16
-8.76
-11.18
-14.56
-18.8
-23.61
-28.5
-32.99
-36.65
-39.26
-40.71
-41.03
-40.25
-38.49
-35.94
-32.86
-29.55
-26.26
-23.12
-20.13
-17.29
-14.72
-12.77
-11.97
-12.81
-15.45
-19.53
-24.19
-28.24
-30.64
-30.74
-28.51
-24.48
-19.39
-13.94
-8.48
-3.01
2.71
8.95
15.8
23.15
30.66
37.83
43.99
48.46
50.59
50.02
46.88
41.83
36.02
30.82
27.38
26.36
27.78
31.05
35.25
39.45
42.93
45.36
46.75
47.34
47.33
46.69
45.13
42.16
37.44
31
23.35
15.36
7.91
1.55
-3.61
-7.85
-11.57
-15.02
-18.16
-20.72
-22.33
-22.82
-22.16
-20.53
-18.18
-15.35
-12.28
-9.23
-6.56
-4.66
-3.89
-4.34
-5.74
-7.48
-8.74
-8.69
-6.79
-2.92
2.66
9.4
16.62
23.62
29.82
34.87
38.57
40.98
42.33
42.98
43.38
43.99
45.19
47.09
49.43
51.58
52.72
52.23
49.93
46.17
41.65
37.01
32.55
28.15
23.55
18.57
13.27
7.99
3.05
-1.31
-4.93
-7.55
-8.62
-7.5
-3.64
2.91
11.25
19.84
26.95
31.31
32.62
31.52
29.34
27.39
26.58
27.19
29.09
31.9
35.35
39.21
43.2
46.98
50.14
52.46
54.01
55.15
56.27
57.5
58.55
58.82
57.61
54.48
49.43
42.8
35.14
26.98
18.68
10.56
3
-3.4
-7.98
-10.15
-9.8
-7.42
-4.09
-1.28
-0.38
-2.49
-8.05
-16.99
-28.65
-41.99
-55.77
-68.72
-79.76
-88.23
-93.89
-96.85
-97.31
-95.39
-91.08
-84.31
-75.33
-64.84
-54.02
-44.34
-37.07
-33.03
-32.39
-34.8
-39.53
-45.63
-51.88
-56.78
-58.68
-56.12
-48.28
-35.31
-18.28
1.24
21.71
42.01
61.48
79.7
96.15
110.09
120.51
126.41
126.97
121.96
111.87
98.12
82.77
68.26
56.76
49.79
48.14
52.21
62.3
78.55
100.22
124.76
147.44
162.19
163.75
149.92
122.83
88.24
53.19
23.28
1.02
-14.16
-24.3
-31.1
-34.98
-35.36
-31.74
-24.65
-15.81
-7.32
-0.91
2.69
3.59
2.26
-1
-6.19
-13.3
-21.95
-31.19
-39.64
-45.95
-49.23
-49.4
-47.05
-43.04
-38.22
-33.16
-28.27
-24.1
-21.55
-21.89
-26.37
-35.67
-49.38
-65.81
-82.27
-95.9
-104.53
-107.29
-104.68
-98.03
-88.81
-78.05
-66.14
-53.01
-38.23
-21.17
-1.13
22.21
48.2
74.8
98.81
116.89
126.92
129.1
125.81
120.52
116.12
113.74
112.69
111.29
108
102.17
94.01
84.09
72.9
60.73
47.99
35.39
23.88
14.4
7.41
2.84
0.15
-1.33
-2.16
-2.76
-3.56
-5.04
-7.74
-12.05
-17.97
-25.11
-32.74
-40.12
-46.79
-52.62
-57.69
-62.06
-65.55
-67.73
-68.15
-66.63
-63.66
-60.44
-58.54
-59.07
-61.84
-64.93
-65.17
-59.47
-46.48
-27.57
-6.71
11.01
21.49
23.15
17.39
7.68
-2.11
-9.13
-12.17
-11.46
-7.94
-2.65
3.55
10.02
16.2
21.63
26.06
29.47
32.08
34.13
35.82
37.23
38.37
38.88
37.88
33.8
24.6
8.5
-15.13
-45.29
-79.53
-114.78
-148.3
-178.07
-202.38
-219.12
-225.67
-219.61
-200.24
-169.66
-132.33
-93.37
-56.66
-23.89
4.57
27.98
44.05
49.24
40.67
18.22
-14.42
-50.67
-83.22
-106.39
-117.35
-116.12
-104.84
-86.99
-67.08
-50.36
-42.17
-46.75
-65.77
-97.47
-136.74
-176.36
-208.8
-228.08
-230.96
-217.12
-188.49
-148.49
-101.11
-50.53
-0.82
44.35
82.08
110.8
130.58
142.89
150.07
154.61
158.42
162.43
166.66
170.5
173.08
173.72
172.17
168.72
163.99
158.65
153.22
147.92
142.88
138.21
133.78
128.95
122.17
111.33
94.57
71.36
43.28
13.75
-13.12
-34.08
-47.74
-54.57
-56.05
-53.55
-47.71
-38.45
-25.55
-9.19
9.66
29.19
46.84
59.85
65.93
64.09
55.13
41.64
27.28
15.94
10.79
13.35
22.97
36.55
48.45
51.31
37.89
3.6
-51.03
-119.29
-189.56
-248.47
-284.83
-292.44
-271.24
-226.53
-167.24
-103.68
-45.46
0.33
30.45
45.85
50.95
51.8
53.8
60.07
70.77
83.89
96.65
106.89
113.5
116.46
116.42
114.25
110.75
106.31
100.59
92.26
79.27
59.42
31.36
-4.48
-45.47
-87.13
-124.12
-151.67
-166.81
-169.11
-160.47
-144.2
-123.75
-101.81
-79.93
-58.89
-39.28
-21.93
-7.8
2.48
9.09
13.03
15.72
18.28
21.12
23.96
26.21
27.61
28.4
29.19
30.6
32.83
35.59
38.28
40.32
41.4
41.68
41.56
41.53
41.85
42.51
43.25
43.75
43.87
43.67
43.39
43.36
43.79
44.71
45.93
47.18
48.21
48.82
49
48.89
48.68
48.51
48.3
47.76
46.45
43.99
40.28
35.6
30.53
25.55
20.86
16.13
10.54
3.08
-7.2
-20.82
-37.59
-56.32
-74.68
-89.49
-97.39
-95.95
-84.68
-65.46
-41.97
-18.51
1.47
16.32
26.25
32.5
36.37
38.43
38.5
36.07
30.86
23.21
14.03
4.46
-4.46
-11.97
-17.55
-20.82
-21.38
-18.96
-13.49
-5.3
4.81
15.74
26.27
35.36
42.35
47
49.49
50.22
49.61
47.93
45.23
41.39
36.35
30.23
23.58
17.17
11.75
7.73
4.97
2.87
0.62
-2.41
-6.48
-11.38
-16.65
-21.74
-26.2
-29.62
-31.77
-32.47
-31.77
-29.91
-27.4
-24.83
-22.74
-21.41
-20.74
-20.34
-19.51
-17.64
-14.23
-9.17
-2.81
4.13
10.73
16.18
19.9
21.79
22.11
21.44
20.43
19.72
19.81
20.96
23.21
26.33
29.87
33.35
36.33
38.68
40.56
42.34
44.42
47.01
50.05
53.31
56.5
59.51
62.51
65.8
69.83
74.93
81.32
89.03
97.95
107.87
118.48
129.49
140.79
152.59
165.32
179.32
194.32
209.14
221.75
229.81
231.56
226.44
215.25
199.68
181.64
162.49
142.92
123.06
102.96
82.85
63.04
43.64
24.27
3.9
-18.94
-45.77
-77.65
-114.62
-155.3
-197.05
-236.4
-269.98
-295.39
-311.76
-319.75
-320.96
-317.14
-309.59
-298.84
-284.86
-267.39
-246.42
-222.4
-196.41
-170.04
-145.07
-122.93
-104.33
-89.05
-76.19
-64.71
-53.8
-43.12
-32.64
-22.37
-12.18
-1.98
8.1
17.6
25.84
32.4
37.34
41.23
44.88
48.84
53.14
57.35
60.9
63.4
64.91
65.84
66.8
68.37
70.95
74.56
78.88
83.17
86.49
87.86
86.47
81.83
73.86
62.93
49.91
36.05
22.76
11.29
2.37
-3.94
-8.31
-11.76
-15.37
-19.82
-25.33
-31.62
-38.14
-44.2
-49.15
-52.55
-54.33
-54.97
-55.36
-56.51
-59.13
-63.29
-68.34
-73.2
-76.85
-78.84
-79.5
-79.67
-80.18
-81.26
-82.3
-82.1
-79.51
-74.02
-65.93
-56.11
-45.56
-35.09
-25.38
-17.28
-11.9
-10.32
-13.04
-19.52
-28.12
-36.62
-42.99
-46.02
-45.49
-41.92
-36.23
-29.42
-22.41
-16.02
-10.77
-6.8
-3.77
-1.07
1.82
5.05
8.25
10.85
12.35
12.68
12.28
11.89
12.29
14.03
17.33
22.1
28
34.6
41.36
47.71
53.16
57.34
60.21
61.98
63.03
63.69
64.04
63.92
63.13
61.72
60.18
59.39
60.12
62.61
66.34
70.17
73
74.33
74.51
74.59
75.73
78.65
83.47
89.74
96.63
102.85
106.65
105.82
98.41
83.68
62.87
39.3
17.34
0.81
-8.43
-10.84
-8.44
-3.49
2.5
8.81
14.75
18.86
18.85
12.5
-1.01
-20.14
-41.24
-59.94
-72.75
-78.37
-77.76
-73.27
-67.42
-62.04
-57.99
-55.25
-53.14
-50.52
-46
-38.27
-26.74
-11.97
4.15
18.84
29.35
34.1
33.44
29.59
25.84
25.13
28.71
35.48
42.32
45.48
42.34
32.69
18.72
3.88
-9
-19.13
-27.88
-37.74
-50.69
-67.12
-85.65
-103.9
-119.64
-131.68
-140.1
-146
-150.87
-156.11
-162.76
-171.47
-182.4
-194.89
-207
-215.37
-215.71
-204.29
-179.8
-144.62
-104.61
-67.13
-38.19
-20.06
-10.51
-4.16
4.91
20.58
43.4
70.65
97.58
118.88
129.98
127.84
111.42
81.75
41.76
-4.05
-50.18
-90.67
-119.96
-133.87
-130.76
-112.27
-83.16
-49.98
-19.15
5.09
21.5
31.49
37.61
42.05
45.68
48.33
49.5
49.19
48.13
47.31
47.38
48.13
48.57
47.47
43.93
37.76
29.42
19.5
8.16
-4.95
-20.25
-37.37
-54.48
-68.37
-75.36
-72.73
-59.95
-39.09
-14.2
9.95
29.18
40.87
44.33
40.72
32.58
23.36
16.49
14.6
18.78
28.24
40.74
53.47
63.98
70.92
74.13
74.38
73.03
71.67
71.87
74.85
80.69
87.61
91.74
87.83
71.05
39.14
-6.22
-59.35
-112.33
-157.37
-188.88
-204.35
-203.93
-189.51
-164.01
-131.11
-95.17
-60.74
-31.6
-9.75
5.01
14.46
20.72
25.26
28.68
31.18
33.46
36.82
42.69
51.69
63.06
74.79
84.41
89.83
89.71
83.38
70.62
51.74
27.86
1.3
-24.64
-46.34
-60.93
-67.03
-64.89
-56.03
-42.57
-26.69
-10.34
5.05
18.62
30.21
40.44
50.41
61.29
73.77
87.9
103.02
118.11
131.96
143.37
151.38
155.81
157.66
159.08
162.45
168.83
176.67
181.66
178.07
161.33
130.19
87.64
39.85
-6.24
-45.31
-75.14
-96.44
-111.63
-123.33
-133.05
-140.81
-145.34
-144.65
-136.65
-119.54
-92.19
-54.44
-7.33
46.38
102.07
153.54
194.14
218.56
224.45
213.3
189.7
159.41
127.13
95.07
63.3
31.18
-0.85
-30.47
-54.28
-69.17
-73.69
-68.27
-54.39
-33.7
-7.97
20.04
45.7
62.83
65.63
51.26
21.57
-17.55
-58.63
-96.02
-127.67
-154.68
-179.12
-201.87
-221.9
-237
-245.69
-248.24
-246.73
-243.83
-241.36
-239.5
-236.75
-230.54
-218.14
-197.28
-166.72
-126.64
-78.81
-26.62
25.46
72.72
111.16
138.33
153.65
158.27
154.54
145.44
133.9
122.45
113
106.72
103.99
104.56
107.7
112.36
117.15
120.41
120.01
113.69
99.37
75.89
43.32
3.15
-42.17
-89.69
-136.28
-178.78
-213.83
-237.97
-248.2
-242.91
-222.8
-191.24
-153.57
-115.65
-81.98
-54.42
-32.06
-12.1
8.49
31.64
57.29
83.66
108.06
128.03
142.21
150.71
154.9
156.77
158.23
160.56
164.18
168.83
173.53
176.45
174.98
165.88
146.5
116.19
77.74
37.35
3.08
-17.78
-21.46
-9.11
13.71
38.74
57.23
61.91
48.37
16.18
-30.5
-83.19
-130.72
-162.22
-170.44
-154.22
-118.81
-73.97
-30.92
0.79
15.22
10.58
-11.07
-44.63
-82.95
-118.11
-142.89
-152.38
-144.97
-122.5
-89.43
-51.65
-15.39
13.62
30.63
32.71
19.47
-6.54
-40.25
-75.4
-106.2
-128.64
-140.5
-140.74
-128.74
-104.26
-68.29
-24
22.94
65.49
97.25
114.29
115.87
103.78
81.13
51.19
17.17
-17.54
-49.01
-73.09
-86.2
-86.51
-74.72
-54.01
-29.22
-5.32
13.91
26.8
33.8
36.87
38.35
39.97
42.3
44.83
46.62
46.94
45.75
43.67
41.68
40.58
40.77
42.18
44.5
47.43
50.85
54.63
58.61
62.4
65.4
67.03
66.96
65.3
62.61
59.8
57.76
57.04
57.67
59.15
60.69
61.52
61.27
60.12
58.64
57.53
57.25
57.73
58.41
58.53
57.5
55.19
51.99
48.6
45.76
43.99
43.49
44.09
45.26
46.05
44.95
40.02
29.22
11.17
-14.06
-44.45
-76.19
-104.63
-125.64
-136.68
-137.38
-129.21
-114.54
-95.87
-75.26
-54.27
-34.19
-16.24
-1.36
9.91
17.68
22.59
25.45
26.91
27.23
26.43
24.56
21.89
19.04
16.71
15.39
15.16
15.62
16.04
15.75
14.28
11.58
8.03
4.38
1.52
0.35
1.5
5.12
10.85
17.88
25.25
32.07
37.78
42.26
45.72
48.57
51.14
53.68
56.31
59.1
62.09
65.37
69.06
73.35
78.43
84.46
91.56
99.76
109.06
119.57
131.49
145.1
160.54
177.59
195.66
213.91
231.36
247.08
260.18
269.78
275.13
275.81
271.98
264.49
254.62
243.6
232.18
220.3
207.41
192.78
175.9
156.55
134.61
109.87
81.96
50.71
16.4
-20.18
-57.92
-95.83
-133.36
-170.37
-206.7
-241.83
-274.5
-302.96
-325.24
-339.67
-345.16
-341.41
-329.03
-309.65
-285.97
-261.58
-240.36
-225.47
-218.39
-218.17
-221.67
-224.6
-223.02
-214.8
-200.35
-182.26
-164.07
-148.72
-137.5
-129.86
-124.21
-119.18
-114.6
-111.7
-112.51
-118.69
-130.62
-147.16
-166.12
-185.26
-203.04
-218.86
-232.48
-243.3
-249.73
-249.51
-240.56
-222.04
-194.83
-161.35
-124.68
-87.67
-52.42
-20.38
7.37
29.88
46.47
57.08
62.34
63.55
62.18
59.59
56.94
55.41
56.27
60.63
68.89
80.31
93
104.57
113.07
117.79
119.5
119.94
120.95
123.57
127.77
132.63
136.81
139.26
139.5
137.71
134.58
131.06
128.1
126.39
126.17
127.17
128.59
129.33
128.36
125.14
120.01
114.17
109.15
105.98
104.37
102.41
96.93
84.59
63.1
32.15
-6.36
-48.68
-90.07
-125.77
-151.99
-166.69
-170
-164.17
-152.78
-139.42
-126.34
-113.74
-100
-82.81
-60.7
-33.97
-4.78
23.62
48.07
66.44
78.01
83.37
83.91
81.31
77.16
72.61
68.02
62.72
55.03
42.65
23.56
-2.92
-35.41
-70.43
-103.06
-128.23
-142.13
-143.19
-132.2
-111.89
-86.07
-59.05
-35.1
-18.23
-11.58
-16.67
-32.59
-55.81
-80.87
-101.93
-114.33
-115.69
-106.02
-86.95
-60.8
-30
3.09
35.98
66.08
91.06
109.4
120.68
125.56
125.53
122.36
117.68
112.46
106.63
98.89
87.16
69.3
44.3
13.12
-21.34
-54.96
-83.69
-104.65
-116.66
-120.05
-116.19
-106.71
-93.24
-77.16
-59.68
-41.84
-24.5
-8.33
6.13
18.46
28.39
35.72
40.34
42.17
41.26
37.9
32.82
27.22
22.56
20.11
20.52
23.54
28.12
32.77
36.01
36.81
34.84
30.38
24.18
17.26
10.65
5.18
1.35
-0.77
-1.61
-1.96
-2.84
-5.15
-9.36
-15.29
-22.06
-28.28
-32.53
-33.8
-31.83
-27.26
-21.21
-14.98
-9.54
-5.28
-2.09
0.41
2.47
4.07
4.85
4.4
2.5
-0.55
-3.94
-6.53
-7.21
-5.38
-1.08
4.99
11.82
18.52
24.6
30.04
35.13
40.06
44.85
49.29
53.12
56.03
57.54
56.85
52.83
44.62
32.42
18.05
4.73
-3.95
-5.6
-0.12
10.23
21.84
31.44
37.38
39.91
40.53
40.83
41.53
42.45
42.93
42.58
41.71
41.23
42.09
44.77
48.92
53.6
57.7
60.47
61.77
62.01
61.82
61.75
61.9
62.05
61.71
60.23
56.91
50.91
41.27
27.13
8.06
-15.44
-41.57
-67.36
-89.25
-104.13
-110.28
-107.94
-99.1
-86.73
-73.71
-61.98
-52.28
-44.42
-37.79
-31.8
-26.14
-20.67
-15.27
-9.75
-3.84
2.48
9.01
15.2
20.33
23.78
25.22
24.78
22.95
20.41
17.81
15.54
13.72
12.25
11
9.92
9.03
8.38
7.99
7.74
7.42
6.84
5.94
4.93
4.26
4.5
6.16
9.48
14.25
19.92
25.65
30.61
34.15
35.97
36.11
34.83
32.49
29.39
25.83
22.12
18.69
15.95
14.22
13.51
13.5
13.7
13.72
13.44
13.03
12.76
12.7
12.48
11.47
9.07
5.13
0.12
-4.92
-8.85
-10.82
-10.65
-8.82
-6.22
-3.57
-0.86
2.93
9.57
20.8
37.25
57.55
78.36
94.98
102.76
98.27
80.02
48.64
6.74
-41.27
-89.46
-131.18
-160.67
-175
-175.23
-166.04
-153.65
-142.98
-135.56
-129.28
-120.26
-105.5
-84.85
-61.17
-38.83
-21.62
-11.28
-7.24
-7.34
-8.89
-9.44
-7.15
-0.98
9.18
22.47
37.07
50.44
59.84
62.89
58.01
44.77
24.1
-1.68
-28.96
-53.51
-71.46
-80.6
-81.07
-75.34
-67.1
-59.88
-55.75
-55.06
-57
-60.63
-65.6
-72.07
-79.95
-88.09
-94.06
-94.85
-88.11
-73.18
-51.37
-25.45
1.24
25.71
45.85
60.5
69.51
73.78
75.19
76.2
79.16
85.38
94.71
105.65
116.19
124.64
130.21
132.88
132.93
130.59
125.91
119.08
110.63
101.61
93.17
86.16
80.76
76.5
72.55
68.19
63.15
57.65
52.21
47.37
43.32
39.84
36.38
32.28
27.09
20.84
14.05
7.5
1.83
-2.82
-6.81
-10.84
-15.41
-20.43
-25.14
-28.35
-28.92
-26.16
-20.06
-11.32
-1.12
9.17
18.22
25.1
29.51
31.9
33.33
35.07
38.16
43.04
49.37
56.34
62.94
68.37
72.18
74.36
75.24
75.58
76.5
79.28
84.91
93.45
103.77
113.58
120.18
121.29
115.81
104.1
87.83
69.36
51.29
35.93
25.08
19.82
20.47
26.65
37.47
51.78
68.22
85.22
100.94
113.48
121.27
123.59
120.77
113.89
104.08
91.97
77.7
61.48
44.27
27.94
14.71
5.9
0.91
-2.78
-8.35
-17.99
-31.55
-46.68
-60.29
-70.55
-78.02
-85.34
-95.53
-110.23
-128.99
-149.94
-171.3
-192.5
-214.24
-237.33
-261.33
-283.9
-301.29
-309.67
-306.53
-291.48
-266.34
-234.66
-200.83
-169.08
-142.55
-122.5
-108.01
-96.65
-85.86
-74.47
-63.36
-55.19
-52.92
-58.12
-70.01
-85.55
-100.53
-110.98
-114.24
-109.35
-96.82
-77.99
-54.67
-28.89
-2.97
20.59
39.33
51.46
56.43
55.26
50.39
45
42
43.05
47.88
54.17
58.18
55.77
43.69
20.62
-12.33
-51.57
-91.74
-126.74
-151.09
-161.07
-155.61
-136.49
-107.86
-75.16
-43.63
-17.06
3.09
17.6
28.71
38.81
49.47
61
72.57
83.01
91.37
97.32
101.07
103.01
103.3
101.82
98.37
93.05
86.48
79.73
73.95
69.86
67.57
66.58
66.12
65.57
64.61
63.3
61.84
60.32
58.66
56.62
53.98
50.68
46.9
42.95
39.23
36.04
33.63
32.15
31.62
31.91
32.65
33.29
33.19
31.96
29.53
26.32
23
20.33
18.85
18.83
20.24
22.76
25.74
28.07
28.23
24.59
16.02
2.36
-15.26
-34.6
-52.9
-67.59
-76.77
-79.5
-75.76
-66.35
-52.73
-36.92
-21.18
-7.62
2.31
8.1
10.22
9.77
8.03
6.02
4.2
2.5
0.54
-2.03
-5.21
-8.45
-10.88
-11.63
-10.33
-7.31
-3.65
-0.77
-0.04
-2.4
-8.15
-16.92
-27.64
-38.73
-48.41
-55.16
-58.33
-58.36
-56.57
-54.47
-52.97
-51.69
-49.2
-43.7
-33.91
-19.83
-2.86
14.72
30.51
42.6
50.01
52.62
51
46.2
39.52
32.41
26.23
22
19.97
19.57
19.58
18.75
16.39
12.74
8.78
5.64
3.89
3.25
2.65
0.93
-2.56
-7.59
-13.17
-18.05
-21.17
-21.89
-19.97
-15.39
-8.42
0.22
9.18
16.6
20.58
19.93
14.79
6.64
-2.25
-9.85
-15.16
-18.44
-20.65
-22.54
-23.94
-23.77
-20.68
-13.93
-3.95
7.68
18.87
27.79
33.4
35.61
35.06
32.73
29.71
26.87
24.82
23.81
23.7
24.08
24.44
24.37
23.73
22.82
22.24
22.85
25.42
30.2
36.55
42.75
46.25
44.28
34.86
17.44
-6.58
-34.15
-61.24
-83.85
-98.84
-104.45
-100.53
-88.47
-70.86
-51.01
-32.34
-17.59
-8.13
-3.78
-2.93
-3.25
-2.53
0.52
5.92
12.46
18.13
20.77
18.7
11.32
-0.56
-14.75
-28.19
-37.87
-41.86
-39.96
-33.69
-25.44
-17.45
-10.88
-5.67
-1.04
3.73
8.77
13.69
17.96
21.49
24.76
28.57
33.56
39.81
46.88
54
60.49
65.85
69.9
72.49
73.49
72.82
70.63
67.27
63.21
58.73
53.65
47.28
38.56
26.38
10.05
-10.42
-33.99
-58.63
-81.51
-99.56
-110.15
-111.99
-105.55
-93.16
-78.35
-64.67
-54.56
-48.55
-45.34
-42.49
-37.51
-28.85
-16.27
-0.82
15.66
31.04
43.39
51.23
53.75
51.05
44.28
35.47
27.16
21.68
20.38
23.3
29.32
36.79
44.16
50.57
55.86
60.34
64.35
68.04
71.37
74.2
76.46
78.16
79.33
80.02
80.21
79.78
78.37
75.27
69.3
59.13
43.64
22.48
-3.62
-32.81
-62.57
-90.18
-113.27
-130.18
-140.1
-143.01
-139.46
-130.31
-116.59
-99.41
-79.99
-59.89
-40.93
-24.98
-13.44
-6.86
-4.7
-5.6
-7.97
-10.54
-12.69
-14.32
-15.59
-16.67
-17.61
-18.44
-19.21
-20.08
-21.16
-22.3
-23.16
-23.14
-21.79
-18.92
-14.76
-9.88
-4.9
-0.41
3.17
5.54
6.48
5.94
4.1
1.47
-1.18
-3.06
-3.59
-2.7
-0.89
1.01
2.2
2.19
1.07
-0.69
-2.45
-3.71
-4.37
-4.65
-4.98
-5.74
-7.03
-8.67
-10.37
-11.86
-12.97
-13.65
-13.79
-13.16
-11.41
-8.27
-3.77
1.62
7.06
11.66
14.76
16.13
16.12
15.32
14.41
13.88
13.99
14.77
16.08
17.71
19.32
20.6
21.33
21.47
21.31
21.5
22.76
25.53
29.55
33.65
35.82
33.89
26.18
12.32
-6.64
-28.41
-50.3
-69.85
-85.44
-96.27
-102.15
-103.17
-99.54
-91.68
-80.32
-66.64
-52.03
-37.92
-25.39
-15.11
-7.35
-2.1
0.7
1.19
-0.47
-3.95
-8.74
-14.14
-19.49
-24.3
-28.42
-31.91
-35.02
-37.93
-40.72
-43.26
-45.37
-46.95
-48.08
-48.96
-49.94
-51.19
-52.74
-54.41
-55.94
-57.1
-57.74
-57.81
-57.22
-55.78
-53.07
-48.4
-40.79
-29.16
-12.54
9.55
36.74
67.6
99.69
129.97
155.42
173.66
183.38
184.5
177.91
165.2
148.26
128.96
109
89.78
72.37
57.49
45.47
36.26
29.35
23.89
18.78
13.05
6.18
-1.63
-9.48
-16.24
-21.05
-24.07
-26.57
-30.54
-37.71
-48.59
-61.84
-74.59
-83.45
-85.85
-81.08
-70.33
-56.06
-40.68
-25.61
-11.07
3.47
18.39
33.24
46.88
57.94
65.69
70.31
72.73
73.98
74.52
74.14
72.15
68.04
61.97
54.82
47.99
42.84
40.36
40.94
44.37
49.95
56.63
63.31
69.06
73.38
76.37
78.54
80.57
83.01
86.07
89.67
93.44
96.79
98.97
99.23
97.1
92.75
87.04
81.27
76.43
72.57
68.66
63.14
54.88
43.89
31.39
18.99
7.76
-2.5
-13.09
-25.58
-40.89
-58.72
-77.65
-95.7
-111.12
-122.87
-130.8
-135.4
-137.52
-137.89
-137.05
-135.17
-132.23
-128.17
-122.99
-116.78
-109.64
-101.59
-92.57
-82.57
-71.76
-60.48
-49.21
-38.5
-28.8
-20.43
-13.49
-7.84
-3.15
0.99
4.85
8.42
11.37
13.18
13.19
10.78
5.46
-2.92
-13.94
-26.48
-38.7
-48.57
-54.51
-56.05
-53.98
-49.94
-45.65
-42.21
-39.84
-38.15
-36.59
-34.78
-32.5
-29.57
-25.65
-20.45
-13.93
-6.54
0.89
7.49
12.82
17.05
20.75
24.41
28.11
31.33
33.4
33.86
32.77
30.61
28.01
25.35
22.7
20.01
17.33
14.87
12.84
11.11
9.09
5.9
0.93
-5.78
-13.32
-20.37
-25.7
-28.68
-29.49
-28.84
-27.47
-25.88
-24.17
-22.25
-19.95
-17.28
-14.34
-11.28
-8.2
-5.21
-2.47
-0.13
1.59
2.53
2.63
1.98
0.92
-0.15
-0.77
-0.62
0.4
2.06
3.93
5.45
6.27
6.38
6.18
6.32
7.37
9.51
12.43
15.38
17.43
17.92
16.66
14.08
11.07
8.62
7.49
8.03
10.09
13.25
16.9
20.5
23.65
26.08
27.69
28.43
28.31
27.44
25.97
24.18
22.36
20.86
19.95
19.72
20.08
20.73
21.27
21.33
20.77
19.67
18.34
17.11
16.19
15.55
14.92
13.94
12.41
10.4
8.24
6.54
5.88
6.7
9.15
13.12
18.31
24.32
30.84
37.69
44.77
52.03
59.37
66.52
73.13
78.94
83.97
88.78
94.48
102.6
114.7
131.87
154.22
180.5
207.95
232.71
250.64
258.39
254.53
239.9
217.29
190.47
162.78
136.29
111.42
87.26
62.18
34.59
3.55
-30.75
-66.78
-101.7
-131.97
-154.28
-166.57
-168.62
-162.01
-149.45
-133.96
-118.18
-104.13
-93.15
-85.9
-82.37
-81.88
-83.31
-85.54
-87.78
-89.63
-90.75
-90.62
-88.5
-83.74
-76.29
-66.78
-56.24
-45.58
-35.13
-24.74
-14.33
-4.45
3.55
7.99
7.64
2.43
-6.59
-17.61
-28.76
-38.59
-45.94
-49.72
-48.8
-42.31
-30.25
-14.04
3.39
18.31
27.32
28.62
22.59
11.66
-0.51
-10.34
-15.32
-14.64
-9.2
-1.13
6.75
11.72
11.73
5.87
-5.28
-19.66
-34.19
-45.61
-51.42
-50.64
-44.14
-34.21
-23.89
-15.99
-12.41
-13.78
-19.43
-27.7
-36.36
-43.13
-46.17
-44.65
-38.95
-30.6
-21.86
-15.09
-12.05
-13.38
-18.38
-25.25
-31.51
-34.71
-33.21
-26.69
-16.4
-4.82
5.01
10.42
9.83
3.05
-8.65
-23.08
-37.53
-49.44
-56.84
-58.77
-55.54
-48.61
-40.11
-32.13
-26.05
-22.22
-20.08
-18.64
-17.18
-15.55
-14.14
-13.57
-14.3
-16.27
-18.94
-21.46
-22.91
-22.6
-20.15
-15.7
-10.01
-4.58
-1.39
-2.47
-9.16
-21.43
-37.53
-54.41
-68.57
-77.21
-79.07
-74.71
-66.04
-55.51
-45.3
-36.72
-30.17
-25.37
-21.82
-19.01
-16.67
-14.65
-12.86
-11.2
-9.67
-8.38
-7.66
-7.91
-9.41
-12.13
-15.66
-19.33
-22.48
-24.65
-25.71
-25.75
-24.99
-23.6
-21.73
-19.48
-17.05
-14.71
-12.81
-11.74
-11.82
-13.25
-16.1
-20.12
-24.83
-29.54
-33.49
-36.12
-37.36
-37.66
-37.9
-39.02
-41.53
-45.28
-49.6
-53.68
-57.11
-60.04
-63.09
-66.85
-71.66
-77.43
-83.92
-90.81
-97.52
-103.02
-105.72
-103.95
-96.89
-85.23
-70.95
-56.18
-41.55
-25.44
-4.69
23.28
58.33
96.63
131.75
157.32
169.72
169.42
160.28
147.34
134.69
124.12
115.43
107.49
99.3
90.61
81.58
72.43
63.13
53.45
43.38
33.43
24.72
18.63
16.32
18.22
23.83
31.8
40.4
48.08
53.97
58.04
60.98
63.73
67.02
71.11
75.76
80.37
84.16
86.32
86.16
83.3
77.9
70.89
63.81
58.43
56.07
57.23
61.41
67.35
73.41
77.64
78.06
72.94
61.53
44.69
24.91
5.48
-11.06
-24.08
-35.11
-46.84
-61.37
-79.06
-98.47
-117.52
-135
-151.35
-168.29
-187.32
-208.24
-228.34
-242.92
-246.87
-236.52
-211.27
-173.98
-130.23
-86.54
-48.45
-19.09
1.23
14.33
22.97
29.8
36.61
44.35
53.34
63.44
74.29
85.36
96.06
105.85
114.35
121.4
127.02
131.36
134.5
136.28
136.13
133.35
127.55
119.34
110.7
104.71
104.67
112.8
129.27
151.81
176.14
197.06
209.81
211.12
199.94
177.48
146.73
111.59
76.07
43.63
16.85
-2.69
-14.49
-19.35
-19.37
-17.58
-16.98
-19.34
-24.44
-30.16
-33.76
-33.35
-29.07
-23.17
-18.97
-19.3
-25.18
-35.31
-46.6
-55.38
-58.87
-56.24
-48.96
-40.19
-33.55
-31.56
-34.76
-41.6
-49.34
-55.4
-58.45
-58.7
-57.39
-55.93
-55
-54.4
-53.31
-51.04
-47.53
-43.44
-39.85
-37.57
-36.79
-36.95
-37.1
-36.47
-34.84
-32.64
-30.56
-29.16
-28.43
-27.81
-26.51
-24.01
-20.31
-15.99
-11.92
-8.91
-7.33
-7.02
-7.46
-8.07
-8.49
-8.82
-9.47
-10.98
-13.61
-17.15
-20.88
-23.87
-25.24
-24.63
-22.22
-18.59
-14.45
-10.32
-6.47
-2.97
0.17
2.84
4.97
6.5
7.5
8.15
8.71
9.37
10.26
11.36
12.58
13.81
14.89
15.7
16.15
16.17
15.74
14.83
13.39
11.31
8.54
5.17
1.46
-2.16
-5.18
-7.22
-8.11
-7.92
-6.88
-5.24
-3.17
-0.72
2.11
5.25
8.47
11.4
13.63
14.87
15.02
14.24
12.8
11.01
9.11
7.27
5.57
4.03
2.63
1.28
-0.13
-1.76
-3.68
-5.82
-8.02
-9.97
-11.35
-11.89
-11.47
-10.2
-8.45
-6.75
-5.71
-5.72
-6.91
-8.99
-11.43
-13.53
-14.75
-14.8
-13.76
-11.83
-9.28
-6.27
-2.98
0.33
3.19
5
5.27
3.81
0.9
-2.89
-6.89
-10.55
-13.51
-15.47
-16.12
-15.13
-12.34
-7.88
-2.36
3.39
8.52
12.46
14.99
16.19
16.23
15.28
13.49
11.07
8.43
6.08
4.65
4.57
6.08
8.98
12.81
16.86
20.44
23.12
24.72
25.41
25.5
25.32
25.04
24.61
23.92
22.83
21.4
19.81
18.32
17.11
16.24
15.57
14.92
14.06
12.9
11.38
9.6
7.68
5.73
3.82
1.88
-0.3
-2.95
-6.31
-10.39
-14.91
-19.27
-22.68
-24.43
-24.1
-21.68
-17.6
-12.49
-7.06
-1.88
2.64
6.27
8.82
10.18
10.32
9.35
7.48
5
2.19
-0.77
-3.78
-6.76
-9.67
-12.49
-15.21
-17.9
-20.71
-23.74
-27.02
-30.41
-33.64
-36.42
-38.57
-40.21
-41.71
-43.6
-46.32
-49.93
-53.93
-57.4
-59.18
-58.33
-54.39
-47.59
-38.73
-28.9
-19.05
-9.6
-0.36
9.05
18.56
26.96
31.97
31.18
23.41
9.84
-5.86
-18.69
-23.98
-19.03
-3.77
19.35
46.1
71.13
88.73
93.71
82.91
57
21.35
-14.74
-40.74
-48.41
-34.64
-2.14
41.93
88.51
129.11
157.52
170.4
167.46
151.06
125.6
96.3
67.48
41.06
16.02
-10.62
-41.7
-77.94
-117
-154.33
-184.99
-205.59
-215.1
-214.52
-205.75
-190.4
-169.4
-143.29
-112.94
-80.09
-47.31
-17.38
7.59
26.72
40.53
50.54
58.59
66.07
73.55
80.66
86.51
90.16
91.18
89.96
87.49
85.08
83.73
83.86
85.25
87.28
89.29
90.71
91.31
91.07
90.05
88.36
86.16
83.68
81.11
78.46
75.33
70.76
63.25
51.25
33.73
10.89
-15.56
-42.63
-66.84
-85.1
-95.43
-97.13
-90.56
-76.67
-56.86
-33.05
-7.7
16.25
35.91
49.33
56.06
57.18
54.83
51.19
47.69
44.64
41.52
37.54
32.29
26.11
19.99
15.17
12.61
12.61
14.68
17.64
20.08
20.71
18.74
14.01
6.97
-1.39
-9.74
-16.43
-19.77
-18.26
-11.09
1.39
17.41
34.11
48.4
57.98
62.16
61.72
58.28
53.23
47.03
39.21
29.05
16.23
1.29
-14.57
-29.88
-43.33
-53.87
-60.58
-62.64
-59.61
-51.81
-40.57
-27.98
-16.33
-7.26
-1.4
1.5
2.02
0.38
-4.01
-12.34
-25.85
-44.92
-68.41
-93.59
-116.8
-134.84
-146.13
-151.36
-152.89
-153.33
-154.06
-154.33
-151.74
-143.45
-127.74
-104.95
-77.6
-49.96
-27.2
-14.5
-15.67
-31.71
-59.57
-92.19
-120.31
-135.52
-133.43
-115.26
-86.94
-56.16
-28.96
-7.67
8.91
23.59
38.41
53.29
66.47
76
81.26
83.48
85.09
88.33
94.1
101.63
109.12
114.83
117.83
118.08
115.62
109.8
99.08
81.52
56.13
23.86
-11.97
-46.23
-73.51
-89.6
-92.67
-83.64
-65.63
-43.04
-20.35
-1.16
12.49
20.2
23
22.72
21.29
20.1
19.68
19.75
19.51
18.15
15.25
10.92
5.72
0.36
-4.48
-8.31
-10.73
-11.38
-9.97
-6.5
-1.35
4.69
10.55
15.35
18.79
21.22
23.48
26.44
30.61
35.96
41.92
47.66
52.29
54.93
54.83
51.44
44.6
34.75
23.1
11.42
1.65
-4.77
-7.33
-6.57
-3.6
0.55
5.5
11.74
20.05
30.77
43.12
55.02
63.72
66.81
63.22
53.58
39.91
24.78
10.38
-2.16
-12.73
-21.78
-29.69
-36.35
-41.21
-43.71
-43.75
-41.89
-39.15
-36.74
-35.79
-37.44
-42.94
-53.53
-69.67
-90.2
-111.88
-129.91
-139.56
-138
-125.39
-104.57
-79.68
-54.43
-31.04
-10.29
7.62
22.39
33.5
40.6
44.15
45.49
46.37
48.09
50.82
53.44
53.95
50.16
40.56
24.96
4.66
-17.83
-39.5
-57.77
-71.04
-78.82
-81.39
-79.3
-73.1
-63.36
-50.96
-37.24
-23.69
-11.52
-1.19
7.58
15.51
23.14
30.49
37.13
42.64
46.96
50.58
54.22
58.4
63.02
67.22
69.61
68.71
63.35
53.07
38.21
19.98
0.29
-18.39
-33.46
-42.64
-44.43
-38.59
-26.21
-9.5
8.67
25.44
38.55
46.62
49.31
47.2
41.57
34.17
26.77
20.81
16.95
14.89
13.43
10.83
5.46
-3.53
-15.91
-30.12
-43.67
-53.68
-57.65
-54.15
-43.33
-26.91
-7.76
10.98
26.94
39.14
48.14
55.41
62.41
69.76
76.86
82.33
84.79
83.66
79.66
74.46
70.04
67.88
68.35
70.55
72.52
71.67
65.49
52.14
31.12
3.73
-26.82
-55.81
-78
-88.97
-86.5
-71.44
-47.6
-20.61
3.86
21.78
31.65
34.16
30.93
23.33
11.94
-2.95
-20.42
-38.29
-53.47
-63.27
-66.64
-64.66
-59.75
-54.28
-49.26
-44.12
-37.49
-28.59
-18.1
-8.15
-1.5
-0.42
-6.06
-18.25
-35.61
-55.83
-75.79
-91.97
-101.14
-101.22
-92.04
-75.43
-54.63
-33.19
-13.93
1.67
13.51
22.44
29.75
36.68
44.21
52.85
62.47
72.24
80.79
86.44
87.7
83.8
75.07
63.04
50.05
38.59
30.35
25.86
24.35
24.46
25.01
25.52
26.31
28.07
31.29
36.06
42.09
49.04
56.7
65.01
73.83
82.75
91.01
97.75
102.29
104.52
104.91
104.26
103.28
102.06
100.02
96.08
89.22
78.94
65.55
49.93
33.1
15.83
-1.56
-18.97
-36.19
-52.77
-68.03
-81.3
-92.18
-100.5
-106.14
-108.89
-108.42
-104.53
-97.51
-88.36
-78.7
-70.33
-64.59
-61.79
-61.11
-60.96
-59.7
-56.39
-51.08
-44.7
-38.38
-32.87
-28.25
-24.08
-19.84
-15.29
-10.57
-5.99
-1.81
1.87
5.05
7.67
9.46
10.04
9.15
6.84
3.57
0.12
-2.59
-3.77
-3
-0.3
3.79
8.33
12.19
14.32
14.02
11.08
5.75
-1.33
-9.23
-16.92
-23.25
-27.22
-28.12
-25.87
-21.02
-14.75
-8.52
-3.54
-0.42
0.92
1.13
1
1.15
1.85
2.99
4.33
5.66
6.86
7.93
8.91
9.77
10.36
10.5
9.98
8.76
7
5.03
3.24
1.88
1
0.4
-0.21
-1.07
-2.28
-3.78
-5.52
-7.47
-9.64
-11.91
-13.94
-15.25
-15.28
-13.74
-10.67
-6.5
-1.85
2.75
6.84
10.13
12.3
13
11.89
8.84
4.16
-1.36
-6.7
-10.9
-13.39
-14.19
-13.83
-12.98
-12.18
-11.59
-11.14
-10.63
-10
-9.39
-9.01
-8.96
-9.04
-8.92
-8.33
-7.38
-6.52
-6.39
-7.44
-9.54
-12.05
-13.97
-14.43
-13.05
-10.04
-6.04
-1.74
2.35
6.02
9.25
12.04
14.28
15.82
16.55
16.56
16.07
15.4
14.82
14.43
14.24
14.17
14.2
14.35
14.63
15.01
15.32
15.37
14.99
14.1
12.79
11.19
9.43
7.5
5.25
2.49
-0.92
-4.92
-9.29
-13.72
-17.83
-21.31
-23.95
-25.67
-26.63
-27.16
-27.72
-28.72
-30.42
-32.75
-35.48
-38.27
-40.95
-43.6
-46.59
-50.44
-55.55
-61.99
-69.25
-76.28
-81.57
-83.66
-81.54
-75.13
-65.41
-54.06
-42.97
-33.51
-26.21
-20.83
-16.75
-13.54
-11.28
-10.5
-11.77
-15.08
-19.53
-23.41
-24.67
-21.73
-14.03
-2.28
11.78
25.99
38.44
47.88
53.87
56.7
57.03
55.83
54.35
53.96
55.79
60.02
65.13
67.86
64.18
51.32
29.75
4.04
-18.4
-30.19
-27.15
-9.98
16.49
45.7
72.03
92.16
104.62
108.47
102.86
87.95
66.68
45.57
33.23
36.88
58.66
94.08
133.82
167.79
189.22
196.54
192.19
179.71
161.09
136.15
104.01
65.12
22.4
-19.37
-55.52
-83.35
-102.97
-116.78
-128.1
-139.95
-154.13
-170.73
-188.03
-202.62
-210.02
-206
-188.27
-157.69
-118.54
-77.24
-40.26
-12.09
5.94
15.37
19.52
22.05
25.94
33.06
43.86
57.17
70.18
78.75
78.58
66.78
43.22
10.91
-24.69
-57.39
-82.08
-95.9
-98.61
-91.94
-78.84
-62.56
-45.98
-31.18
-19.19
-9.98
-2.72
3.74
10.29
17.41
25.2
33.38
41.38
48.27
52.84
53.96
51.22
45.46
38.87
34.15
33.32
36.65
42.32
47.32
48.99
46.4
40.91
35.45
32.99
35.17
41.53
50.04
58.14
63.94
66.66
66.41
63.31
56.86
45.82
28.96
5.86
-22.47
-53.69
-84.8
-112.83
-135.2
-149.53
-153.49
-145.17
-124.09
-92.19
-54.2
-16.63
14.45
35.54
46.86
51.67
54.15
56.85
59.14
57.43
47.17
25.44
-7.06
-45.65
-83.03
-111.84
-127.23
-128.21
-117.43
-99.63
-79.49
-60.16
-42.86
-27.56
-14.07
-2.75
5.34
9.1
8.24
3.73
-2.29
-7.32
-9.44
-8.22
-4.81
-1.33
0.06
-1.74
-6.4
-12.39
-17.76
-21.13
-22.25
-22.01
-21.93
-23.53
-27.67
-34.18
-41.97
-49.31
-54.41
-56.05
-54.03
-49.24
-43.34
-38.07
-34.62
-33.21
-33.16
-33.18
-31.67
-26.82
-16.77
-0.08
23.53
52.35
82.39
108.23
124.77
129.32
122.73
108.96
93.12
79.04
67.91
58.54
49.04
38.73
28.78
21.44
18.2
18.48
19.56
17.9
10.96
-1.41
-17.18
-33.13
-46.59
-56.31
-62.66
-66.79
-69.68
-71.49
-71.57
-68.97
-63.24
-54.91
-45.6
-37.45
-32.37
-31.2
-33.31
-36.78
-39.01
-37.71
-31.53
-20.38
-5.32
11.91
29.48
45.82
59.96
71.54
80.74
88.12
94.35
99.91
104.62
107.26
105.45
96.08
76.39
45.48
5.34
-38.91
-80.26
-111.83
-129.08
-131.07
-120.24
-101.13
-78.52
-56.12
-36.01
-18.99
-5.14
5.72
13.84
19.6
23.63
26.79
29.98
34.01
39.45
46.44
54.71
63.46
71.6
77.82
80.84
79.45
72.59
59.44
39.7
14.08
-15.36
-45.12
-70.94
-88.9
-96.65
-94.25
-84.13
-70.1
-56.12
-44.92
-37.36
-32.62
-28.9
-24.35
-17.83
-9.26
0.64
10.73
19.93
27.54
33.35
37.46
40.16
41.73
42.45
42.55
42.33
42.11
42.13
42.49
43.12
43.9
44.75
45.72
46.96
48.64
50.7
52.91
54.9
56.44
57.59
58.69
60.23
62.52
65.37
68.18
70.09
70.57
69.72
68.5
68.4
70.85
76.65
85.69
96.95
108.82
119.42
126.59
127.94
121.16
104.91
79.8
48.98
17.72
-8.19
-24.58
-30.28
-27.05
-18.32
-7.43
3.47
13.25
20.62
23.23
17.95
2.39
-23.24
-55.14
-86.84
-111.39
-124.23
-124.68
-116.02
-103.69
-93.12
-87.64
-87.63
-90.87
-93.74
-92.65
-85.21
-70.82
-50.45
-26.1
-0.08
25.66
49.85
72.01
92.1
110.27
126.45
140.12
150.09
154.6
151.66
139.79
118.86
90.82
59.86
31.58
11.32
2.1
3.09
9.43
13.69
8.64
-10.11
-42.55
-84.61
-130.13
-173.36
-210.72
-241.22
-265.4
-283.89
-296.25
-300.93
-295.94
-280
-253.24
-217.51
-175.96
-132.35
-90.08
-51.62
-18.47
8.45
28.01
38.64
38.61
27.08
5.53
-21.63
-47.45
-64.29
-66.24
-51.16
-21.36
17.34
57.65
93.1
119.65
136.14
143.81
145.26
143.33
140.29
137.49
135.22
132.7
128.15
118.89
102.01
75.4
38.97
-4.58
-49.87
-90.12
-119.1
-133.04
-131.56
-117.4
-95.25
-70.06
-45.87
-25.2
-9.18
2.15
9.46
13.78
16.35
18.3
20.38
22.83
25.45
27.77
29.37
30.14
30.22
30.06
30.12
30.75
31.95
33.39
34.43
34.34
32.58
29.02
24.06
18.51
13.3
9.2
6.62
5.61
6.05
7.74
10.55
14.3
18.75
23.5
28.08
32.03
35.01
36.87
37.66
37.63
37.1
36.49
36.24
36.79
38.43
41.19
44.74
48.49
51.78
54.2
55.78
56.97
58.52
61.09
64.96
69.97
75.49
80.72
84.88
87.48
88.59
88.89
89.59
92.07
97.22
104.79
113.08
118.92
118.46
108.25
86.55
54.25
14.92
-26.05
-62.83
-90.66
-106.61
-109.72
-100.6
-81.18
-54.61
-25.35
1.24
19.96
27.47
23.71
12.18
-1.16
-10.22
-10.96
-2.48
13.23
32.71
52.35
69.31
81.62
87.94
87.27
79.23
64.27
44.06
21.07
-2.02
-23.06
-40.96
-55.7
-68.05
-79.28
-90.98
-105.08
-123.63
-148.33
-179.69
-216.38
-254.92
-290.11
-316.24
-328.43
-323.91
-302.64
-267.39
-223.09
-175.75
-131.19
-93.81
-65.9
-47.53
-37.02
-31.77
-29.15
-26.96
-23.62
-18.12
-10.04
0.35
12.05
23.46
32.82
38.94
41.58
41.66
40.87
40.99
43.36
48.53
56.37
66.37
77.87
90.22
102.78
114.75
125.2
133.19
138.12
139.98
139.38
137.17
133.78
128.91
121.62
110.93
96.62
79.57
61.27
42.9
24.62
5.71
-14.31
-34.42
-51.44
-60.86
-58.84
-44.16
-19.17
11
40.28
63.67
78.12
82.39
75.94
58.17
28.6
-12.14
-61.18
-113.01
-160.08
-194.53
-210.2
-204.22
-177.71
-135.37
-84.3
-32.22
14.08
50.07
74.03
86.89
91.44
91.1
88.76
86.2
84.04
82.37
81.4
81.71
84.05
88.65
94.7
100.31
103.18
101.66
95.51
85.92
74.66
63
51.12
38.31
23.85
8.05
-7.29
-19.27
-25.13
-23.43
-14.81
-1.87
11.94
23.52
31.33
35.48
37.14
37.58
37.32
35.9
32.21
25.16
14.24
-0.28
-17.49
-36.12
-55.07
-73.76
-92.58
-112.94
-136.91
-166.37
-202
-242.54
-284.67
-323.69
-354.68
-373.71
-378.59
-369.15
-346.96
-314.84
-276.15
-233.98
-190.48
-146.58
-102.14
-56.65
-10.3
35.28
76.74
109.64
129.89
135.28
126.7
108.26
86.12
66.68
54.45
51.09
55.37
64.33
74.78
84.41
92.03
97.2
99.62
98.98
95.2
89.02
82.02
76.21
73.01
72.41
72.9
72.25
68.87
62.86
56.13
51.56
51.64
57.37
68.14
82.33
98.3
115.26
133.25
152.54
172.5
190.88
203.51
205.23
191.57
160.84
115.57
62.56
11.22
-29.37
-53.09
-58.22
-46.95
-23.85
5.91
37.49
66.33
87.95
98.24
94.6
77.28
50
19.26
-7.65
-25.11
-30.7
-25.8
-14.69
-3.4
2.02
-3.01
-20.35
-48.33
-81.91
-114.14
-138.31
-150.27
-149.56
-139.15
-123.75
-107.74
-93.89
-83.07
-75
-69.13
-65.03
-62.26
-59.89
-56.36
-49.82
-38.76
-22.76
-2.63
19.9
42.86
64.81
85.15
103.88
120.75
134.38
141.86
139.31
123.55
93.88
53.22
7.72
-35.1
-68.86
-90.23
-99.47
-99.61
-94.93
-89.4
-85.77
-85.24
-87.65
-91.93
-96.82
-101.52
-106.03
-111
-117.17
-124.55
-132.11
-137.86
-139.36
-134.34
-121.15
-99.07
-68.81
-32.89
4.3
37.16
60.34
70.61
68.01
55.9
39.69
25
15.99
14.66
21.18
34.57
53.46
76.4
101.82
127.82
151.85
170.66
180.42
177.33
158.8
124.62
77.85
24.68
-26.61
-67.76
-92.5
-98.04
-85.49
-59.22
-25.51
8.84
37.77
56.74
63.3
57.48
41.93
21.56
2.47
-9.55
-10.8
-0.78
17.77
40.02
60.77
75.93
83.11
81.21
69.68
48.11
16.55
-23.72
-69.56
-116.14
-157.88
-189.81
-208.7
-213.42
-204.76
-184.75
-156.1
-121.89
-85.32
-49.67
-17.95
7.42
25.1
35.05
38.57
38.05
36.23
35.57
37.59
42.48
49.35
56.7
63.09
67.69
70.5
72.21
73.86
76.41
80.45
86.08
92.91
100.27
107.38
113.5
117.99
120.44
120.68
118.85
115.53
111.7
108.53
106.81
106.5
106.33
103.9
96.2
80.56
55.6
21.86
-18.06
-60.07
-99.41
-131.7
-153.65
-163.43
-160.73
-146.42
-122.36
-91.12
-55.78
-19.69
13.84
42.01
62.99
76.17
82.11
82.07
77.52
69.73
59.7
48.46
37.28
27.79
21.45
18.87
19.19
20.1
18.63
12.41
0.88
-14.4
-30.34
-43.62
-51.97
-54.91
-53.64
-50.31
-47.12
-45.67
-46.66
-49.81
-54.1
-57.91
-59.42
-57.01
-49.7
-37.37
-20.63
-0.48
22.06
46.06
70.41
93.66
113.8
128.46
135.29
132.49
119.29
96.32
65.74
31.06
-3.37
-33.31
-55.75
-69.68
-76.29
-78.31
-78.92
-80.75
-85.43
-93.78
-106.2
-122.79
-143.05
-165.44
-187.16
-204.62
-214.41
-214.29
-203.89
-184.75
-159.68
-131.97
-104.61
-79.81
-58.71
-41.37
-26.92
-14.03
-1.42
11.52
24.34
35.47
42.68
43.71
36.92
21.78
-0.92
-29.12
-59.73
-88.99
-112.93
-127.79
-130.59
-119.8
-95.89
-61.6
-21.64
18.33
53.06
79.01
95.1
102.4
103.33
100.46
95.68
89.96
83.59
76.74
69.75
63.14
57.43
52.92
49.61
47.36
46.11
45.98
47.33
50.35
54.91
60.18
64.75
66.82
64.83
57.99
46.78
32.78
18.19
5
-5.77
-14.39
-22.15
-30.57
-40.52
-51.73
-62.84
-72.08
-78.09
-80.54
-80.05
-77.83
-74.92
-71.87
-68.64
-65
-60.83
-56.43
-52.35
-49.13
-46.96
-45.54
-44.26
-42.54
-40.12
-37.19
-34.18
-31.6
-29.61
-28.04
-26.48
-24.44
-21.67
-18.19
-14.22
-10.01
-5.69
-1.3
3
6.85
9.7
11
10.69
9.38
8.28
8.73
11.5
16.41
22.27
27.5
30.94
32.43
32.83
33.54
35.55
38.9
42.68
45.47
46.16
44.53
41.29
37.65
34.74
33.17
32.91
33.51
34.45
35.35
36.03
36.44
36.48
36.02
34.84
32.84
30.1
26.93
23.77
21.06
18.94
17.14
14.98
11.75
7.05
1.24
-4.61
-9.15
-11.32
-10.89
-8.51
-5.31
-2.26
0.35
2.97
6.5
11.71
18.83
27.32
35.96
43.11
47.12
46.84
42
33.49
23.26
13.72
7.06
4.48
6.06
10.86
17.53
24.65
31
35.39
36.73
34.21
27.69
18.01
6.84
-3.85
-12.44
-18.25
-21.47
-22.83
-23.02
-22.36
-20.84
-18.39
-15.06
-11.13
-6.93
-2.77
1.16
4.66
7.46
9.21
9.65
8.8
7.06
5.1
3.62
3.04
3.38
4.24
5.02
5.28
4.85
3.9
2.8
1.89
1.26
0.74
-0.02
-1.38
-3.42
-5.91
-8.34
-10.14
-10.79
-10.14
-8.37
-5.95
-3.44
-1.34
0.04
0.68
0.7
0.29
-0.43
-1.45
-2.76
-4.25
-5.63
-6.59
-6.87
-6.49
-5.77
-5.19
-5.16
-5.73
-6.53
-6.8
-5.78
-2.97
1.47
6.75
11.5
14.17
13.55
9.2
1.71
-7.27
-15.64
-21.33
-23.03
-20.37
-13.99
-5.22
4.35
13.09
19.62
22.97
22.83
19.62
14.5
9.1
5
3.28
4.14
7.03
10.85
14.45
16.99
18.01
17.49
15.64
12.77
9.24
5.35
1.39
-2.41
-5.88
-8.92
-11.55
-13.95
-16.37
-19.16
-22.53
-26.47
-30.58
-34.17
-36.41
-36.51
-33.98
-28.73
-21.16
-12.08
-2.59
6.24
13.6
19.07
22.7
24.68
25.29
24.67
22.87
20.12
16.86
13.81
11.68
10.86
11.16
11.9
12.21
11.56
9.98
7.96
6.27
5.37
5.24
5.28
4.75
3.17
0.52
-2.75
-5.97
-8.64
-10.54
-11.64
-11.94
-11.23
-9.18
-5.51
-0.31
5.83
11.92
16.93
20.16
21.47
21.22
20.09
18.67
17.38
16.39
15.8
15.72
16.27
17.46
19.06
20.56
21.4
21.07
19.39
16.45
12.68
8.52
4.34
0.4
-3.11
-6.06
-8.3
-9.76
-10.43
-10.5
-10.27
-10.03
-9.95
-9.92
-9.6
-8.56
-6.46
-3.26
0.72
4.94
8.82
11.94
14.08
15.26
15.65
15.44
14.78
13.8
12.62
11.32
10.08
9.03
8.24
7.67
7.12
6.33
5.12
3.49
1.7
0.13
-0.86
-1.1
-0.67
0.06
0.58
0.35
-1.05
-3.8
-7.77
-12.5
-17.27
-21.24
-23.6
-23.8
-21.74
-17.8
-12.79
-7.72
-3.46
-0.45
1.37
2.42
3.17
3.94
4.78
5.62
6.42
7.31
8.49
10.12
12.17
14.42
16.58
18.4
19.76
20.66
21.13
21.2
20.94
20.35
19.49
18.36
16.93
15.12
12.82
9.91
6.34
2.13
-2.53
-7.24
-11.46
-14.56
-16.01
-15.45
-12.94
-8.76
-3.44
2.46
8.45
14.23
19.54
24.18
27.93
30.56
31.89
31.94
30.9
29.15
27.17
25.42
24.19
23.62
23.69
24.3
25.34
26.67
28.15
29.53
30.61
31.26
31.54
31.66
31.84
32.1
32.09
31.08
28.29
23.16
15.69
6.46
-3.55
-13.23
-21.62
-28.11
-32.48
-34.83
-35.46
-34.85
-33.37
-31.32
-28.88
-26.15
-23.34
-20.77
-18.82
-17.82
-17.86
-18.74
-20.09
-21.54
-22.79
-23.71
-24.22
-24.3
-23.93
-23.18
-22.24
-21.38
-20.85
-20.81
-21.22
-21.91
-22.68
-23.48
-24.38
-25.63
-27.48
-30.07
-33.24
-36.56
-39.37
-40.95
-40.72
-38.5
-34.47
-29.08
-22.97
-16.69
-10.71
-5.36
-0.86
2.66
5.22
7.03
8.49
9.99
11.81
13.99
16.35
18.58
20.48
21.98
23.22
24.38
25.57
26.72
27.57
27.81
27.2
25.68
23.44
20.79
18.03
15.31
12.63
9.77
6.54
2.84
-1.19
-5.2
-8.68
-11.09
-12.06
-11.44
-9.38
-6.26
-2.56
1.27
4.9
8.1
10.73
12.75
14.12
14.87
15.04
14.71
13.93
12.83
11.56
10.34
9.4
8.83
8.43
7.77
6.25
3.35
-1.16
-7.09
-13.92
-21
-27.75
-33.83
-39.12
-43.75
-47.91
-51.74
-55.25
-58.28
-60.53
-61.74
-61.75
-60.77
-59.32
-58.18
-58.14
-59.64
-62.56
-66.02
-68.49
-68.07
-63.02
-52.27
-35.85
-15
8.04
30.6
50.18
64.89
73.73
76.54
73.9
67.01
57.53
47.39
38.55
32.54
30.08
30.84
33.58
36.47
37.71
36.12
31.47
24.46
16.39
8.79
2.87
-0.73
-1.95
-1.11
1.27
4.73
8.87
13.42
18.05
22.43
26.18
28.97
30.5
30.66
29.52
27.44
24.9
22.39
20.21
18.29
16.23
13.55
9.98
5.64
1.04
-3.25
-6.82
-9.73
-12.31
-15.06
-18.31
-22.15
-26.49
-31.18
-36.04
-40.75
-44.8
-47.53
-48.27
-46.58
-42.46
-36.3
-28.71
-20.2
-11.1
-1.36
9.25
21.1
34.45
49.26
64.91
80.18
93.48
103.52
110.08
114.47
119.39
127.95
142.13
161.53
182.98
201.46
212.07
211.82
200.62
180.87
156.03
129.1
101.81
74.74
48.1
22.52
-0.74
-20.27
-35.16
-45.44
-52.05
-56.25
-58.92
-60.36
-60.23
-57.99
-53.41
-46.74
-38.91
-31.2
-24.9
-20.78
-18.76
-18.06
-17.59
-16.68
-15.53
-15.2
-16.96
-21.45
-28.3
-36.27
-44.05
-51.14
-58.39
-67.49
-80.14
-96.84
-116.42
-136.22
-153.05
-164.35
-168.96
-167.38
-161.28
-152.79
-143.68
-134.99
-126.98
-119.47
-112.14
-104.8
-97.33
-89.36
-80.26
-69.24
-55.72
-39.71
-22.04
-4.05
12.81
27.38
38.92
46.95
51.11
51.21
47.34
40.19
31.02
21.41
12.84
6.28
2.14
0.29
0.36
1.89
4.32
6.92
8.87
9.37
8
4.74
0.07
-5.29
-10.6
-15.24
-18.71
-20.7
-21.09
-19.98
-17.78
-15.13
-12.67
-10.79
-9.43
-8.07
-6.05
-2.94
1.16
5.56
9.29
11.64
12.37
11.89
10.96
10.32
10.38
11.17
12.51
14.12
15.77
17.29
18.47
19.07
18.86
17.68
15.5
12.44
8.72
4.57
0.21
-4.11
-7.98
-10.72
-11.25
-8.03
0.48
15.14
35.46
59.34
83.4
104.1
118.87
126.79
128.51
125.46
118.94
109.59
97.66
83.58
68.42
53.66
40.62
29.78
20.59
11.97
2.98
-6.56
-16.05
-24.57
-31.38
-36.27
-39.48
-41.38
-42.13
-41.65
-39.85
-36.84
-33.13
-29.47
-26.66
-25.14
-24.92
-25.5
-26.13
-26.05
-24.71
-21.92
-17.79
-12.66
-6.97
-1.18
4.34
9.28
13.35
16.45
18.6
20
20.97
21.81
22.75
23.97
25.65
27.98
31.15
35.24
40.13
45.44
50.76
55.75
60.42
64.99
69.8
74.94
80.11
84.66
87.73
88.4
85.83
79.32
68.46
53.25
34.27
12.85
-9.05
-29.24
-45.84
-57.8
-65.25
-69.29
-71.59
-73.72
-76.73
-80.9
-85.96
-91.46
-97.1
-102.99
-109.62
-117.56
-126.97
-137.47
-148.01
-156.94
-162.12
-160.94
-150.45
-127.76
-91.12
-41.16
18.41
81.25
139.79
187.47
220.42
237.84
241.24
232.93
214.88
188.6
155.76
118.99
81.9
48.32
20.98
0.73
-13.46
-23.76
-32.25
-40.06
-47.25
-53.17
-56.98
-58.31
-57.41
-54.92
-51.45
-47.44
-43
-38.15
-33
-27.95
-23.64
-20.7
-19.61
-20.58
-23.46
-27.94
-33.61
-40.02
-46.75
-53.41
-59.7
-65.41
-70.48
-74.89
-78.6
-81.62
-83.92
-85.44
-86.12
-85.74
-83.91
-80.18
-74.21
-66.03
-56.24
-45.82
-35.81
-26.87
-19.06
-12.05
-5.41
0.99
6.84
11.56
14.65
15.99
15.95
15.29
14.97
15.91
18.82
23.89
30.74
38.47
45.79
51.52
54.92
55.9
54.9
52.62
49.74
46.8
44.24
42.59
42.31
43.68
46.51
50.15
53.66
56.27
57.65
58.08
58.11
58.23
58.6
59.01
58.9
57.64
54.66
49.65
42.63
34.05
24.88
16.39
9.9
6.35
5.9
7.73
10.19
11.31
9.41
3.68
-5.55
-16.99
-28.86
-39.52
-47.98
-54.05
-58.17
-61.09
-63.48
-65.8
-68.31
-71.04
-73.81
-76.24
-77.69
-77.42
-74.77
-69.4
-61.41
-51.34
-40.09
-28.64
-17.97
-8.88
-1.85
3
5.97
7.6
8.46
8.92
9.01
8.52
7.23
5.08
2.23
-0.98
-4.29
-7.52
-10.64
-13.66
-16.48
-18.88
-20.67
-21.79
-22.48
-23.17
-24.25
-25.83
-27.58
-28.81
-28.73
-26.9
-23.39
-18.96
-14.72
-11.84
-11.17
-13.16
-17.78
-24.55
-32.54
-40.35
-46.22
-48.44
-45.84
-38.33
-26.99
-13.8
-0.99
9.66
17.27
21.9
24.23
25.13
25.35
25.39
25.55
25.92
26.46
26.91
26.79
25.5
22.5
17.6
11.12
3.91
-2.84
-8.04
-11
-11.7
-10.62
-8.55
-6.23
-4.09
-2.22
-0.52
1.12
2.77
4.33
5.61
6.46
6.72
6.3
5.2
3.48
1.3
-1.07
-3.35
-5.33
-6.92
-8.21
-9.3
-10.31
-11.26
-12.14
-12.91
-13.66
-14.58
-16.03
-18.31
-21.59
-25.85
-30.78
-35.81
-40.18
-43.1
-43.93
-42.39
-38.78
-33.92
-28.89
-24.73
-22.1
-21.09
-21.37
-22.55
-24.37
-26.87
-30.3
-34.78
-40.25
-46.28
-52.34
-57.89
-62.6
-66.46
-69.76
-73.07
-77.08
-82.4
-89.37
-98
-107.94
-118.77
-130.23
-142.35
-155.4
-169.69
-185.45
-202.71
-221.47
-241.74
-263.11
-284.35
-303.01
-315.62
-318.56
-309.31
-287.46
-255.02
-215.8
-174.34
-134.46
-98.6
-67.46
-40.32
-15.43
9.37
36.18
66.68
101.59
140.29
180.76
219.6
252.5
275.09
284.11
278.54
260.25
233.58
204.16
177
154.98
138.16
124.6
112.04
99.68
88.69
81.08
77.56
75.94
71.37
58.69
35.7
5.58
-23.72
-42.54
-44.08
-27.58
1.32
33.43
60.53
78.93
90.42
100.41
114.38
134.91
160.57
186.99
209.29
224.51
232.78
236.87
240.37
245.91
253.64
261.14
264.22
258.37
240.01
207.32
160.58
102.34
37.44
-27.09
-82.96
-122.26
-139.87
-135.41
-113.99
-84.68
-57.59
-40.38
-36.14
-43.21
-56.81
-71.39
-82.52
-87.74
-86.37
-78.86
-66.3
-50.14
-32.08
-14.09
1.68
13.25
19.16
18.78
12.49
1.49
-12.55
-28.09
-44.27
-60.99
-78.99
-99.38
-123.03
-149.87
-178.14
-203.99
-221.74
-225.36
-210.86
-178.69
-134.93
-90.2
-56.46
-42.84
-52.27
-80.32
-116.91
-149.85
-168.91
-168.81
-149.98
-117.43
-78.23
-39.08
-4.64
22.88
43.25
57.3
66.28
71.67
75.07
78.28
82.98
90.08
99.43
109.72
119.1
125.81
128.81
128.02
124.16
118.37
111.89
105.78
100.87
97.61
96.18
96.32
97.39
98.31
97.79
94.79
89.07
81.67
74.8
71.04
72.22
78.52
88.23
98.5
106.55
110.72
110.78
107.35
101.08
92.04
79.71
63.24
41.78
14.57
-18.95
-58.74
-103.32
-149.01
-189.93
-219.35
-232.09
-226.81
-206.92
-179.57
-153
-133.63
-124.21
-123.8
-129.37
-137.57
-146.26
-154.87
-163.76
-173.3
-183
-191.31
-195.89
-194.37
-185.05
-167.48
-142.37
-110.95
-74.07
-31.76
16.37
69.84
125.86
179.12
222.87
251.46
262.81
259.45
247.58
234.34
224.89
220.7
219.79
218.68
214.82
207.95
199.95
193.4
189.79
188.8
188.55
186.82
182.18
174.53
164.74
153.84
142.38
130.41
117.84
105.04
92.93
82.6
74.73
69.26
65.28
61.27
55.52
46.4
32.84
14.7
-6.78
-28.95
-48.31
-61.45
-66.26
-62.51
-51.71
-36.26
-18.45
0.17
18.75
36.84
54.02
69.71
83.13
93.37
99.49
100.86
97.52
90.47
81.41
72.19
64.11
57.51
52.06
47.35
43.28
40.13
37.92
35.97
32.86
27.17
18.4
7.6
-2.81
-9.93
-11.65
-7.69
-0.08
7.3
9.96
4.73
-8.45
-25.84
-40.88
-46.71
-39.09
-18.45
10.25
39.5
62.3
74.5
75.52
67.68
54.62
40.09
27.43
19.58
18.88
26.53
41.76
61.44
80.54
93.71
97.34
91.01
77.46
61.05
45.49
32.05
19.4
5.11
-12.33
-32.24
-52.14
-69.09
-81.5
-89.59
-94.92
-99.28
-103.89
-109.45
-116.45
-125.19
-135.18
-144.45
-149.43
-146.11
-131.73
-106.09
-72.01
-34.59
-0.02
25.61
37.18
31.54
8.47
-28.46
-71.83
-111.72
-138.37
-144.98
-129.82
-96.4
-52.08
-5.64
34.81
63.3
76.35
72.81
53.43
20.55
-22.06
-69.33
-115.31
-153.9
-179.93
-190.17
-184.03
-163.46
-132.38
-95.6
-57.91
-23.34
5.19
25.99
38.64
44.01
44.1
41.48
38.65
37.35
38.2
40.82
44.36
48.11
51.76
55.38
59.08
62.8
66.25
69.21
71.78
74.51
78.14
83.22
89.72
96.98
104
110.02
114.77
118.51
121.54
123.6
123.44
118.94
107.7
87.95
59.42
23.72
-15.66
-54.07
-86.59
-109.19
-119.66
-118.26
-107.71
-92.36
-76.99
-65.27
-58.92
-57.51
-59.15
-61.61
-63.13
-62.71
-59.89
-54.49
-46.57
-36.81
-26.86
-19.26
-16.93
-22.37
-36.93
-60.68
-92.58
-130.59
-171.39
-210.03
-240.12
-255.39
-252.14
-231.54
-199.9
-166.36
-138.96
-121.02
-110.21
-100.68
-86.92
-66.86
-42.44
-17.65
4.31
22.53
37.69
50.07
58.24
59.52
52.09
37.05
18.85
3.48
-4.38
-3.48
3.82
13.35
21.34
26.06
27.77
27.72
26.93
25.61
23.42
20.04
15.55
10.44
5.32
0.61
-3.56
-7.2
-10.36
-12.95
-14.84
-15.8
-15.55
-13.79
-10.45
-5.85
-0.82
3.54
6.23
6.75
5.29
2.59
-0.64
-3.98
-7.49
-11.36
-15.57
-19.58
-22.39
-22.94
-20.55
-15.26
-7.88
0.25
7.52
12.53
14.46
13.16
9.3
4.06
-1.32
-5.86
-9.13
-11.14
-12.1
-12.09
-11.02
-8.76
-5.53
-1.96
1.02
2.74
3.26
3.52
4.9
8.45
14.18
20.99
27.19
31.37
33.03
32.71
31.45
30.06
28.78
27.42
25.72
23.8
22.2
21.56
22.15
23.72
25.62
27.19
28.05
28.2
27.83
27.19
26.38
25.41
24.24
22.92
21.54
20.27
19.2
18.34
17.6
16.85
16.07
15.37
14.94
15.03
15.74
16.96
18.4
19.7
20.56
20.94
21.07
21.37
22.22
23.64
25.29
26.51
26.73
25.78
24.15
22.86
23.19
26.42
33.53
45.12
61.18
80.82
102.16
122.35
138.21
147.08
147.74
140.76
128.23
112.97
97.58
83.85
72.53
63.41
55.65
47.88
38.46
25.56
