-10.789
73.411
78.851
-91.743
-101.5
25.922
-11.523
-89.045
-7.804
2.2433
124.33
347.36
-72.24
-234.9
-100.45
2.5617
64.429
-36.967
-208.6
-30.879
228.32
206.94
66.689
51.445
72.984
-106.35
-44.45
50.714
-92.045
0.72441
111.86
26.696
-116.87
-2.1707
78.542
21.253
-87.721
-143.82
66.019
108.95
25.593
-109.56
22.095
56.08
14.675
-90.364
6.0056
64.026
23.315
-110.47
-58.128
80.971
50.197
-60.056
-113.67
71.889
91.209
-27.505
-93.921
70.093
74.8
-19.486
-129.38
82.776
132.47
13.113
-106.6
-1.8912
25.91
-136.31
-85.909
109.04
83.842
-80.731
16.788
125.13
37.38
-86.9
155.73
88.961
-165.45
-238.36
-123.76
90.976
-6.647
7.1671
165.2
78.919
-130.1
156.6
198.94
-95.08
67.318
-387.03
201.76
211.68
-253.78
-138.66
-153.55
-21.569
47.568
153.45
121.63
-56.547
174.29
287.52
-229.21
-426.38
-109.66
183.41
40.313
-131.33
-40.894
47.049
177.41
132.72
6.7539
50.147
-65.529
-66.498
50.756
18.169
-80.546
18.129
92.691
-48.8
-146.47
-0.15553
66.95
7.4682
-100.31
27.038
92.637
-22.918
-240.06
-42.338
263.34
209.21
-259.89
67.537
220.47
-190.48
-109.55
22.224
87.563
85.55
-89.701
-28.211
51.87
-14.474
-74.735
-2.0157
49.463
-57.719
-161.62
-44.741
73.547
-24.182
-27.862
131.8
69.923
-48.314
64.844
111.99
-1.3754
-100.07
72.654
227.83
258.7
77.837
-167.09
-104.54
-331.39
-208.68
-64.573
91.494
201.74
-107.4
-80.044
-51.89
-184.57
5.4005
143.62
11.352
-38.709
99.334
97.179
-65.839
-50.606
172.75
122.68
-74.373
-54.793
90.831
-3.0175
-86.726
19.272
59.669
-19.869
-73.536
54.495
106.14
126.43
-145.13
-115.33
-13.32
128.98
88.4
42.601
-30.96
-197.58
-92.714
-21.863
-42.493
-168.16
2.7025
15.986
156.54
-55.756
454.86
360.52
-246.74
-189.22
-194.02
12.337
-249.52
-92.61
107.27
92.043
-18.146
88.202
85.559
-23.987
-1.6578
41.322
32.27
-88.075
-191.09
-60.984
119.07
-8.4267
65.079
128.62
45.777
151.34
112.73
6.642
-106.2
-188.07
46.238
128.45
-110.83
-244.65
-29.483
-14.832
-68.169
26.769
50.773
-58.825
-31.98
109.23
73.435
-34.131
2.8099
73.939
-16.773
-29.386
68.17
45.761
-72.018
-10.505
80.583
27.062
-75.309
-11.229
68.853
-16.977
-54.108
32.093
37.896
-58.104
-19.439
62.808
11.505
-73.875
4.653
61.664
-19.576
-70.778
22.934
45.26
-37.461
-15.809
55.265
8.3477
-70.303
19.275
69.776
18.546
2.9091
120.35
13.386
-131.95
-40.201
-71.373
79.165
19.753
-38.24
30.807
25.855
64.91
5.5032
-91.509
-131.79
-9.0354
65.179
-103.08
-120.78
-90.096
169.38
84.098
74.595
-13.462
-28.551
-81.414
-20.55
106.01
144.76
-101.66
-187.79
-71.498
-4.8919
-50.384
145.36
122.83
-168.66
-39.462
215.87
121.31
-21.967
57.798
-6.3684
-139.55
-2.1381
90.811
-25.894
-67.233
47.722
45.151
-35.549
20.672
56.55
32.908
-107.04
-83.883
42.781
-4.0237
-52.352
115.08
78.003
-72.043
-83.212
25.386
46.967
-79.42
-82.549
45.565
28.149
-58.848
4.2099
15.345
-39.172
-38.83
75.424
59.727
-43.864
39.695
111.66
-8.2298
-80.708
-25.678
-31.343
54.448
97.422
104.33
141.07
103.72
-277.24
-140.89
-39.887
96.465
44.469
-31.641
-144.27
-70.304
-81.051
236.39
71.788
-342.95
80.183
-81.128
-76.736
151.87
156.12
-17.423
1.2192
96.934
129.62
63.581
-98.436
10.5
-23.283
178.03
-116.56
-354.77
-166.24
162.31
225.1
-365.16
4.3047
258.79
157.24
-115.88
-153.26
8.3189
394.07
-27.092
-439.26
23.469
156.62
-10.624
208.19
258.87
-163.19
-261.9
-103.65
0.31188
-20.198
83.261
132.08
-51.828
-78.994
-92.754
-229.28
-108.4
108.5
12.232
15.776
238.44
284.28
221.8
-146.47
-243.15
-108
57.072
1.8026
-73.413
37.736
173.11
-101.72
-136.48
87.048
146.24
-34.348
-254.6
66.165
251.56
-21.133
-222.85
54.959
102.91
-119.86
-112.79
44.514
14.866
25.36
59.924
40.349
8.3232
71.042
132.99
63.89
192.12
13.815
-50.118
-212.68
-384.4
-10.317
217.13
-178.97
-64.707
46.717
-98.784
-166.45
86.757
287.18
82.222
-105.41
-35.602
259.86
-111.68
-187.5
2.1463
120.16
45.899
-53.725
58.246
48.097
-40.454
43.132
-7.3963
-8.4338
195.24
-116.62
-267.26
-15.229
-8.1529
-244.82
-18.737
311.59
42.98
-70.249
-58.327
264.96
0.38888
-241.58
29.791
389.28
-151.44
-341.94
369.53
262.69
-195.49
-194.03
-26.069
-85.28
-188.56
21.11
161.08
-26.097
-14.894
99.745
-13.706
-109.06
57.307
119.17
-25.574
-34.432
118.39
65.306
60.607
267.05
103.25
-265.7
-505.46
18.536
237.34
-130.85
-59.646
57.325
13.455
-64.258
159.81
-43.529
-146.56
127.42
30.023
6.0893
105.52
53.855
-55.253
-133.15
-9.9205
55.454
-37.932
-52.522
163.52
154.82
-77.203
-287.5
-87.656
114.25
5.388
23.761
-31.299
-213.57
-15.055
94.148
31.288
-119.19
49.174
275.88
127.29
-2.2465
-19.26
41.031
-280.71
-148.6
294.08
100.51
-153.67
-89.5
44.826
-74.808
-14.505
160.13
79.727
-60.054
47.569
104.45
-42.08
-36.447
121.21
230.17
172.72
-19.106
-144.52
-337.6
-217.18
-37.458
-66.824
37.287
45.896
-80.846
13.308
206.39
-64.087
-149.58
125.02
-149.54
-263.49
93.881
224.8
-19.317
61.926
251.99
-4.295
-115.65
60.453
16.792
-121.38
114.2
133.58
-340.73
-46.323
122.81
45.967
-79.497
38.713
140.65
79.419
-25.503
-5.4025
-102.22
-119.45
13.928
93.903
73.414
40.478
-60.328
-50.1
-37.232
23.12
49.475
12.552
-58.75
7.4408
32.193
-29.254
-64.799
28.357
29.119
-49.291
-30.687
50.382
-30.383
-67.497
44.389
59.352
-30.297
-3.3657
206.84
174.43
-222.8
-359.84
193.7
144.71
-79.143
-1.5531
78.879
-73.743
-83.5
48.719
-58.257
-110.31
-22.599
175.63
32.403
-59.097
72.567
45.903
-72.095
-45.083
80.32
-15.906
-94.005
48.097
65.117
-64.519
-32.976
83.42
32.342
-97.089
-39.29
1.4524
0.80471
11.152
39.708
54.125
-67.939
9.3324
74.659
-68.29
-34.397
99.222
-9.1642
-74.978
73.419
63.001
92.58
323.42
81.09
-67.379
-286.91
-360.39
-84.006
-67.276
102.39
88.857
81.255
-22.459
-58.456
-143.71
-80.54
142.72
-68.22
-197.09
-105.2
248.33
533.92
2.2166
-72.062
-105.52
-97.101
69.34
11.747
-99.771
22.25
89.591
-39.631
-31.095
51.731
-38.667
-52.622
61.757
-11.563
-76.226
56.922
28.871
-92.084
24.301
85.731
-50.969
-37.089
88.899
21.464
-90.513
7.4222
74.61
-24.61
-60.286
48.442
35.036
-72.099
-5.7027
80.535
-20.719
-68.022
73.734
146.45
-28.181
-219.95
-57.231
-5.7736
-43.167
70.942
127.39
113.95
33.944
-40.739
-45.242
-66.441
-28.808
38.92
-49.063
-83.414
48.62
-22.779
-76.992
67.906
86.112
-56.879
-59.953
77.081
47.304
41.889
287.95
-24.821
-156.89
-51.177
8.9131
-15.014
-41.689
-63.466
-49.215
-3.7567
55.835
-17.982
-96.258
-77.798
22.628
29.995
-55.344
-24.49
181.7
122.6
-74.615
-103.7
57.049
61.158
6.4337
192.13
-26.006
-148.39
-24.251
36.55
-33.695
38.514
24.173
-219.64
-136.63
-5.4469
38.855
98.1
114.18
103.07
-13.537
40.698
8.669
-99.386
-53.626
146.14
115.99
12.752
-32.105
-115.5
-110.17
25.732
6.6504
-72.365
5.216
57.101
-50.136
-37.368
68.265
35.091
-79.384
4.5996
73.044
14.404
-76.728
5.3948
139.49
39.784
-136.9
-24.339
166.41
-49.981
-120.72
209.4
-2.2912
-137.58
-97.54
19.708
14.088
-39.559
-88.782
111.78
-30.273
225.25
62.823
-416.59
-168.51
96.824
319.9
28.698
-251.9
-137.06
23.538
194.33
424.33
202.25
-245.57
-145.31
-87.415
-110.09
32.528
18.071
-121.39
13.368
85.99
-49.853
-2.793
92.627
-69.462
-75.353
18.714
48.49
65.885
95.525
55.153
-190.15
-47.105
27.167
163.42
-4.6019
-21.001
12.837
-157.2
-13.983
270.79
1.7557
-297.62
-96.455
65.479
63.323
-42.222
73.177
12.009
51.968
93.223
-168.25
-112.97
67.74
65.583
-66.482
-113.2
-38.786
159.06
40.696
16.414
130.7
29.736
-110.98
70.237
207.79
10.806
-83.096
101.52
-36.299
-78.304
-73.45
-230.72
-30.827
-42.92
67.362
-11.375
-106.34
9.5199
79.845
-76.852
-36.925
137.46
-0.80552
-46.718
121.38
40.577
-94.257
153.69
153.85
-359.99
-93.783
126.82
-159.1
-5.1276
229.8
211.8
-161.02
-48.732
113.81
35.382
46.62
130.62
-23.598
-137.3
-46.328
-54.099
-14.414
52.776
4.8496
-33.606
21.155
-21.783
-41.461
6.6921
6.2633
10.437
33.928
13.515
-27.527
-6.0301
0.5056
-15.926
8.9461
1.3898
-6.1834
-2.755
1.6435
-7.2776
95.668
149.17
62.498
54.971
-40.122
-46.295
-213.93
-350.79
73.714
58.929
-105.01
89.549
144.45
-76.34
-81.612
69.402
-17.442
-68.608
100.71
92.714
-87.324
-15.167
15.211
-118.8
-161.13
58.405
211.1
-227.54
-118.1
182.96
346.4
17.747
-19.766
49.26
-1.8273
-43.085
12.518
41.556
-16.495
-77.925
-34.151
16.516
33.409
24.23
30.109
101.02
13.817
-156.99
-50.792
2.9819
20.527
23.228
67.832
-118.93
-48.963
120.21
356.84
196.89
-272.02
-454.59
-149.79
67.596
32.155
22.399
25.287
31.238
-10.274
-3.7861
34.936
41.324
107.88
230.1
-11.248
-220.39
49.615
167.07
-204.15
-301.74
48.117
96.093
32.544
32.487
2.5859
19.931
-173.35
-40.236
25.098
-121.12
-79.701
-21.247
108.94
49.814
8.2295
84.476
86.509
-49.887
-43.571
107.28
192.04
-140.61
-144.59
25.877
10.008
-4.684
53.826
69.212
121.85
249.35
-92.912
-542.38
-145.1
75.311
124.17
6.2133
15.96
71.606
-12.347
18.438
70.804
39.598
-8.4077
9.2365
16.035
-46.525
-16.201
48.053
0.27727
-28.934
21.237
55.756
3.6858
-73.211
1.5126
2.0588
37.601
-9.4858
-40.325
-4.6106
1.0148
16.825
-15.159
-4.5869
7.2614
-1.1654
-10.22
24.088
36.695
-22.652
-29.729
-7.5851
-7.2265
-14.475
5.6714
5.7164
4.1612
0.73853
32.801
4.9976
-64.855
37.893
-2.8982
-31.964
15.171
9.8469
-3.1428
7.6234
6.6908
-32.582
-8.0711
14.276
-5.5202
-7.1364
0.70559
30.813
-10.287
-6.0385
38.511
126.17
-16.243
112.96
22.3
-204.11
-10.1
69.052
-286.6
-150.23
102.87
159.72
215.94
-49.906
-161
-190.98
114.75
285.51
-243.86
-140.53
188.65
-51.123
-21.289
-126.69
19.745
30.276
31.951
5.5953
-27.937
-10.56
55.494
34.93
5.0608
24.277
8.3425
-130.59
-13.951
98.638
17.103
10.588
5.5483
-0.66281
-12.122
115.31
63.53
-53.384
83.072
88.811
100.73
-13.176
-206.5
-179.45
-5.4425
76.417
99.001
-70.936
-93.968
0.47773
-8.5532
12.217
27.712
0.75929
-7.4959
24.218
17.655
-18.915
5.9633
25.314
-15.832
-10.926
39.269
72.531
91.727
185.78
140.61
17.499
-109.65
-303.22
-173.17
-126.39
-29.759
39.386
-99.679
-163.53
9.8621
-69.816
1.4114
154.21
117.95
8.9144
48.025
96.247
44.105
114.03
411.15
-24.668
-446.94
-353.19
111.12
-16.634
75.043
75.718
-4.5996
-18.234
41.974
48.422
-33.946
-23.029
28.353
1.4232
-23.19
40.522
53.767
-46.992
-12.547
21.531
-4.6087
3.7032
9.2713
8.6464
1.7041
-2.4072
23.709
-5.3551
-21.016
61.91
95.077
328.29
111.18
-235.16
-48.705
-227.65
-60.856
151.25
-106.35
-259.19
-48.265
31.796
48.158
101.35
20.108
-188.62
-17.842
34.291
2.3434
124.38
95.021
-124.54
-12.161
-1.963
-11.529
-29.23
17.582
-27.171
-30.325
47.495
46.153
7.2155
-24.083
46.138
47.162
-10.46
59.308
46.972
70.205
-87.696
-76.523
-17.047
-18.631
22.321
-11.069
-36.836
-93.986
127.95
119.78
32.176
14.858
-23.741
16.796
-9.3482
-33.085
8.8995
4.0413
-30.516
-13.24
-1.2624
-32.714
13.296
19.288
-12.392
-8.6546
-5.8385
-4.7211
9.4174
-0.98768
-27.331
10.803
26.26
11.487
18.205
-50.284
19.57
140.7
158.72
107.61
-217.28
-87.976
192.36
71.385
-28.364
-105.67
-332.56
-162.97
57.289
-54.387
2.8248
26.661
129.45
177.62
-75.181
-21.258
-103.41
-222.04
-113.01
103.04
-25.607
-32.256
149.92
85.046
155.04
129.03
-196.72
-121.81
83.956
-26.231
-30.862
105.31
22.253
-73.931
102.65
138.25
131.53
-28.587
-46.383
-297.1
-176.01
257.35
-53.088
-101.93
56.206
44.474
-81.078
40.67
119.13
-21.276
-35.085
42.554
13.282
-0.777
80.033
-8.6156
-69.681
74.378
54.271
-55.198
-23.335
68.759
-2.1621
-51.971
-58.05
76.988
49.219
242.43
165.65
-279.66
-270.31
-186.67
1.2546
66.157
21.395
-19.166
90.279
57.881
-53.884
-5.7253
15.521
-46.864
-31.414
62.154
-55.731
3.8652
210.46
75.982
-133.1
-76.716
60.535
88.286
209.76
-63.896
-194.48
-217.49
-70.437
81.964
29.958
-9.8051
11.038
-10.805
-67.72
-4.4188
91.74
28.591
-58.01
-30.907
50.162
-10.463
-6.9356
61.902
69.165
28.999
105.08
21.979
-118.46
3.1448
148.69
26.075
-182.08
-124.93
7.614
2.1404
-44.136
19.525
39.049
20.396
88.706
89.578
-52.158
-173.64
-37.104
113.84
-17.512
29.993
74.633
94.981
41.607
-164.67
-125.81
-51.437
-98.043
-46.619
54.568
38.343
-43.431
17.24
90.531
-6.6799
31.143
138.44
475.14
-135.67
-349.45
-73.954
-127.05
60.308
191.02
31.33
-204.57
-73.194
13.107
5.8402
26.328
68.69
106.76
126.21
-117.7
-82.705
80.9
-141.98
-137.94
41.683
14.577
106.31
273.26
42.37
9.2878
-292.23
-125.95
-94.187
-154
114.63
83.18
204.88
76.397
-108.74
-89.705
17.144
106.54
-25.822
-67.807
15.419
109.83
-8.8751
-15.465
208.81
136.07
-309.47
-176.22
-40.303
-86.406
27.402
42.775
19.728
-39.585
26.477
75.75
11.947
-10.502
50.97
65.361
5.9329
-15.862
28.065
-12.891
-80.908
88.007
166.03
-20.364
8.3267
36.187
81.555
-100.5
-236.78
-83.415
90.612
77.595
-33.758
95.331
9.2508
-120.23
-82.92
-14.499
-132.13
7.709
160.2
13.194
-126.21
79.056
206.33
25.636
-379.97
-72.961
-61.05
-88.061
244.65
145.9
53.19
92.712
115.5
19.897
-93.593
-151.03
-31.635
-58.474
-14.849
141.75
-23.068
-126.57
23.221
83.075
-57.044
-29.227
91.028
-14.62
-38.758
93.484
46.853
-93.563
-1.1061
94.657
20.791
29.414
0.73945
-26.522
-169.29
-20.608
58.368
-44.875
74.042
100.91
59.429
-27.976
7.663
-18.193
-129.28
-15.382
87.21
98.494
-64.636
-39.17
0.53252
-34.803
-58.345
-48.305
103.38
191.18
185.9
-135.08
-321.51
-165.38
-177.19
20.988
168.16
39.817
-53.371
81.159
67.856
-23.326
-22.388
83.033
116.85
-13.215
89.321
65.597
162.88
-130.77
-232.95
0.50489
-62.869
-59.848
4.9801
-66.89
55.325
73.614
15.782
66.614
-6.6536
-81.816
-21.736
122.75
-35.255
-14.757
42.659
-50.999
-104.1
28.671
46.21
120.49
204.26
-198.28
-176.56
-107.17
-63.93
110.22
45.153
-31.983
56.913
174.59
238.95
-140.63
-178.19
101.7
168.11
-132.01
-308.95
93.044
115.91
-78.363
-70.482
-69.511
-191.4
-3.9675
129.61
18.839
157.67
350.36
-142.45
-252.56
-68.356
66.571
11.027
-35.64
13.05
70.984
2.7001
-40.49
46.571
73.542
62.041
53.101
14.243
104.57
110.59
-141.71
-192.25
-51.648
171.05
-68.322
-46.29
-75.455
-73.322
-42.189
59.184
16.441
-38.889
-98.054
-41.281
11.982
-53.879
67.091
100.83
37.704
-20.906
158.19
147.51
9.9113
130.41
-128.44
-171.31
-196.83
-45.181
74.426
8.0457
-37.029
46.025
69.712
13.196
-16.922
54.31
56.814
-69.209
-10.409
43.19
3.9312
-71.633
-3.7122
54.343
23.788
-19.831
63.395
4.2518
-24.783
-13.601
-38.325
36.332
66.93
1.1246
-51.32
-25.822
-88.735
-58.387
54.699
269.84
-86.467
-347.29
-63.402
21.334
-28.755
26.626
130.34
27.076
-37.376
80.858
127.47
35.503
-15.647
70.592
116.65
-164.53
-101.16
30.447
-69.112
-80.928
52.632
73.757
-94.183
-138.86
72.087
13.982
-42.167
46.338
29.906
-51.076
47.039
157.07
63.777
2.8146
-0.034124
-130.94
-142.64
8.8273
70.857
14.942
157.3
121.57
84.07
-48.474
-81.229
-116.62
31.221
156.79
-121
-70.373
1.2875
-67.223
-127.49
-21.51
-28.336
-8.2101
49.153
14.665
-117.39
12.413
66.585
67.732
88.726
69.204
28.877
-52.71
-5.0446
-112.68
-67.64
70.593
-37.629
-90.675
46.332
4.7241
-91.284
134.1
236.85
-145.47
-117.83
68.493
-53.263
57.314
220.76
144.78
24.07
-28.952
-201.21
-248.35
-59.417
164.39
68.674
-92.732
30.649
99.357
90.531
-185.41
-39.846
98.126
61.465
255.3
10.267
-474.69
-332
-1.4985
228.6
58.082
-5.5914
58.498
43.351
36.46
172.71
-6.6842
-93.782
-106.7
247.83
148.77
-195.68
-138.2
42.74
33.914
-21.341
-14.035
2.9551
-93.901
-73.308
83.704
51.415
-40.817
-68.366
87.778
110.09
79.829
-82.023
-109.32
83.084
-35.769
-120.41
-44.712
-27.677
-121.95
19.118
130.93
199.93
60.041
-94.695
-71.148
-167.15
-43.232
134.52
69.804
-9.3196
69.653
176.52
138.71
-295.72
-98.848
20.112
84.242
127.42
-65.247
-131.4
-20.564
139.59
-6.2952
-109.52
-33.795
86.059
8.1509
-67.219
9.5518
45.712
-39.116
-62.554
49.446
-57.409
-55.492
12.714
83.127
49.87
0.18796
115.46
-44.606
-34.967
33.761
273.78
-70.911
-445
-141.19
132.27
183.26
-37.997
16.443
26.862
-112.46
25.124
128.06
-94.695
-91.435
92.449
105.37
-40.56
3.2835
118.42
4.2355
-132.11
-13.621
-67.875
18.45
115.98
174.24
-30.535
35.668
-87.944
-221.89
-69.712
122.93
216.47
-141.08
-206.2
27.006
-11.435
-35.635
69.851
52.011
-67.58
-9.6458
134.84
-6.4826
-221.59
39.5
271.68
-123.32
-153.82
61.726
0.17462
-35.635
198.31
60.537
-82.879
-52.616
48.432
16.601
-68.336
4.7418
70.09
-13.535
-76.604
47.071
74.073
-44.838
-88.379
37.135
48.673
-46.149
-33.26
71.626
43.348
-82.169
-41.221
134.36
68.395
-134.52
-73.806
56.399
11.691
-95.721
-9.1699
34.748
-92.099
-10.647
416.77
-42.18
-315.11
-15.893
152.08
129.76
202.91
-99.56
-180.75
-145.29
-184.33
219.68
-77.686
-368.55
119.64
375.47
-158.26
-22.716
358.18
-101.62
-305.19
54.14
-31.215
-57.354
109.76
140.5
-41.131
-46.182
144.81
41.624
-115.96
37.38
80.061
-44.557
-10.203
153.31
32.969
-175.63
1.1937
44.997
-81.149
-49.669
62.99
32.387
-81.293
6.6921
32.295
-11.757
-61.443
1.1129
31.629
-23.523
39.831
63.866
-49.567
-108.75
6.6272
78.51
13.247
-49.554
115.74
226.28
-64.105
-267.39
50.918
-13.688
-51.748
-15.452
-15.435
-94.155
-80.21
-5.5383
-2.8519
-6.2802
49.079
139.95
-20.675
36.483
151.72
-31.453
-80.777
71.531
114.28
-148.65
-99.402
-6.341
0.51943
118.51
558.52
-199.23
-472.97
-112.69
53.681
128.38
175.86
65.087
-58.165
-98.49
-72.505
2.6208
-29.9
-35.875
34.152
-4.1104
-44.155
33.567
37.252
-24.988
-55.771
43.363
50.527
2.1186
-59.59
32.171
42.126
-25.478
-61.968
27.622
45.992
-20.492
-27.537
45.491
26.726
-57.87
-36.252
56.347
32.743
-57
-35.309
55.327
21.018
-51.983
-17.22
62.125
7.5336
-65.766
20.561
126.31
81.041
-46.541
53.153
-55.033
-153.54
-139.32
130.94
175.12
-162.62
-163.32
14.999
38.749
-43.931
43.861
56.326
-16.649
52.851
43.856
-60.263
-19.235
83.813
19.361
-48.032
41.244
91.573
115.99
-44.252
-70.9
-30.165
-104
-23.69
49.965
15.065
-98.217
-62.662
29.402
34.609
-30.25
25.921
-24.747
-31.222
29.034
99.735
47.498
-74.387
-50.787
67.634
33.025
-51.077
-7.2227
77.039
4.1079
-30.276
78.977
58.511
-116.29
-39.978
21.884
-46.932
-38.535
43.325
72.662
92.394
-22.287
89.978
-67.709
-230.68
-77.196
36.758
70.986
-51.244
-11.604
108.32
59.241
109.01
-8.8219
-100.05
-108.53
-22.059
72.718
-25.069
-66.653
47.605
38.353
-46.767
-25.746
77.484
16.584
-44.807
44.39
52.722
-56.428
-20.319
71.253
19.437
-55.621
-18.955
-3.4355
8.8231
1.0986
35.463
16.572
-42.378
18.294
85.568
96.792
-119.76
-124.93
44.486
-1.0221
-63.96
-22.127
79.172
71.551
-66.229
-46.014
-27.244
-45.295
-29.364
70.234
7.6808
-25.582
52.804
14.661
35.545
26.386
3.0091
-87.721
0.34298
114.74
29.575
132.95
195.65
16.712
-762.88
-425.19
492.54
182.37
81.539
-81.315
138.53
82.936
-87.956
-107.39
119.31
-45.793
-119.14
19.434
-40.234
4.1172
136.82
183.89
134.93
-253.6
-91.964
-37.538
-61.389
46.301
-52.467
-51.214
127.71
76.038
-170.51
34.446
273.11
-121.18
-130.65
70.313
-42.509
-114.81
-0.46455
35.862
-48.524
58.737
51.832
-43.002
38.296
108.93
44.02
-19.652
-2.5599
2.5513
-55.641
23.233
48.035
56.975
34.239
114.74
172.93
-274.06
-257.71
-15.174
63.759
101.87
-102.31
-19.775
-6.909
-88.896
-18.184
71.075
187.84
-154.52
-59.749
215.78
-195.16
78.52
252.99
-336.38
-214.14
-183.65
87.318
139.9
-15.725
79.986
153.5
-17.336
-15.283
77.706
2.2161
-53.17
62.208
147.13
-87.774
-31.014
60.148
37.12
60.129
122.34
176.46
72.391
-111.5
-340.97
-314.98
-64.454
72.072
26.104
-40.063
38.164
61.208
43.243
17.993
4.533
-44.321
-74.3
13.398
58.623
-17.738
27.13
87.831
33.495
-52.065
-45.617
82.73
31.712
-76.628
3.7612
137.55
-45.347
-135.22
13.462
-72.71
-40.525
66.656
94.005
-37.691
295.23
166.11
-388.42
-189.47
51.201
99.017
-117.84
132.21
323.28
113.26
-325.59
-239.96
-125.62
-128.44
92.924
66.485
54.681
84.79
20.44
-126.76
131.94
259.74
-3.1845
-193.42
-31.564
-4.8419
-121.1
134.04
169.52
-89.986
31.116
253.38
119.63
-438.13
-232.63
78.133
-113.36
-7.3901
112.59
56.109
24.246
23.762
-51.092
118.12
306.69
-52.634
-420.93
-113.15
150.61
-155.92
-58.607
50.402
39.925
-56.136
92.345
95.621
-51.832
19.972
135.31
54.478
77.212
249.64
178.3
-322.11
-371.26
-42.228
-128.08
88.836
81.578
50.721
-105.82
108.65
161.14
-49.484
-100.28
12.841
35.519
-36.883
27.58
233.57
6.4273
-154.24
-89.86
-79.964
-95.674
-36.492
92.988
0.57868
-49.436
69.656
90.904
-36.06
-63.955
64.008
105.94
6.6418
-49.002
-4.9234
-22.681
75.476
349.08
-219.48
-390.04
50.499
208.06
34.472
-79.023
7.2498
-75.912
-54.556
41.426
41.848
-36.623
9.4766
58.938
-16.022
-9.1526
54.953
38.624
-143.43
-107.77
82.573
130.45
33.281
-102.78
-33.616
-45.187
-22.891
61.341
67.496
-45.936
-63.372
57.28
54.682
-20.675
-22.057
78.247
101.44
122.81
-34.342
-132.16
-127.81
-100.72
19.1
88.319
26.873
-61.547
-11.814
67.558
18.687
-103.41
-45.731
57.173
13.867
-19.793
54.619
63.307
-24.363
-31.197
48.608
27.531
-42.197
-28.96
44.482
16.209
-37.838
-2.1814
36.48
5.9802
-44.918
3.9481
32.337
-2.1151
-43.296
-4.8126
33.829
9.6629
-30.089
-22.981
30.544
12.916
-34.246
-5.6414
48.514
14.444
-48.519
-19.181
58.522
-53.634
-77.336
-2.1163
61.888
59.444
3.0616
23.826
100.89
-2.7383
-110.08
-35.301
53.917
3.9127
-93.156
-31.216
39.117
2.4333
-33.808
12.831
11.781
-23.048
-1.2289
33.05
-11.772
-29.769
38.631
35.092
-46.693
-11.375
56.012
19.594
-32.716
-10.859
34.42
2.063
-28.896
-18.394
16.273
7.9923
-12.69
-14.985
12.179
9.2404
-12.311
-10.707
10.083
5.3241
-23.517
-17.824
19.608
17.665
-29.776
-25.9
33.232
29.537
-23.168
-30.681
40.752
27.302
-21.533
-28.205
51.606
60.198
135.99
74.858
68.258
-97.44
-529.8
-125.84
132.17
83.209
116.62
135.22
218.93
-229.83
-189.68
303.71
-128.94
-260.1
29.448
17.579
-38.221
86.452
152.12
-59.685
-72.282
279.97
268.55
-60.1
-191.93
-118.42
-30.295
9.3806
33.607
-19.695
-106.55
-62.611
-5.5656
-38.169
10.979
-13.596
4.9916
81.98
-9.4942
-52.431
163
-1.438
-119.69
-44.651
16.775
150.33
-8.9329
68.439
49.113
-206.44
15.435
180.79
4.4623
-132.18
-52.204
53.328
-41.337
35.066
5
-98.165
-12.89
109.41
148.75
-36.175
-48.955
-35.269
-117.68
-28.402
35.923
3.1532
-42.003
46.065
72.231
-64.371
-40.337
75.41
49.336
-81.237
-20.583
77.422
30.595
-67.842
-5.2016
88.173
-4.6838
-68.577
40.717
63.544
-55.105
-80.867
58.603
63.877
4.1773
95.45
-49.089
-169.18
-71.115
60.86
-3.8074
-52.386
82.816
49.198
-50.462
68.607
111.99
-132.63
-53.225
39.715
63.638
102.59
-32.847
-26.399
-137.63
-38.567
120.24
52.906
-82.169
13.199
28.156
59.285
-89.132
-25.013
38.146
-140.88
-72.655
-28.576
-50.003
28.269
85.449
5.8085
-23.902
66.313
62.984
-8.1824
17.502
64.948
10.339
-14.314
32.065
17.618
-36.51
12.74
32.976
-37.662
-22.578
31.688
5.282
-27.939
18.241
138.69
79.659
-98.801
-127.62
39.467
52.815
-54.982
-72.636
50.854
27.464
-77.993
8.8146
58.299
-59.911
-86.889
157.06
-5.5212
-258.98
-96.79
73.227
-72.049
-39.652
30.596
-44.295
84.573
109.07
-7.78
22.588
80.751
-4.7881
-2.0429
77.373
25.236
6.3802
162.79
38.657
-126.31
-54.255
-3.7738
-105.91
-159.64
7.9476
60.305
6.8043
4.9422
143.14
224.17
190.84
-129.39
-416.53
-187.84
-24.574
143.76
-23.664
164.39
171.48
-189.84
-42.88
-72.304
66.285
-32.624
106.75
140.66
-101.05
-89.743
-7.5292
11.012
-66.826
26.388
98.719
0.08947
-54.005
-7.9709
-14.422
-82.317
10.98
64.838
-37.424
-5.2383
99.411
35.943
59.851
132.24
-70.655
-16.822
-107.09
-66.148
-86.024
-49.828
61.259
218.26
17.926
-160.54
118.33
144.87
-52.147
33.515
-250.98
-21.163
186.53
228.58
-167.65
-70.536
-208.88
-157.56
-36.293
-84.123
106.39
65.205
-16.333
48.614
88.975
-36.987
3.7295
102.53
9.1945
-36.64
78.402
67.173
-49.92
-46.546
79.329
43.264
-13.8
-8.0886
99.931
79.207
-111.28
-50.679
-86.178
-66.21
-70.818
-9.8283
17.041
15.262
125.74
-1.4259
-92.335
65.301
305.7
182.7
-252.12
-389.33
-115.01
-21.584
82.174
52.899
15.84
87.975
-6.7175
-71.578
-44.59
85.112
42.549
-49.823
-43.374
138.83
81.525
-43.926
207.13
108.91
-305.38
-62.24
41.391
-68.81
-120.45
17.555
100.09
0.93512
-75.113
37.409
60.312
-78.181
56.499
199.42
-4.1203
7.3874
122.57
-219.13
-282.23
-75.273
84.175
56.163
-92.408
39.857
128.47
123.51
87.989
186.85
175.99
-115.45
-478.08
-153.53
-108.77
8.6454
154.77
16.725
-18.041
63.147
12.444
-41.996
45.134
92.855
5.6206
0.41778
67.246
29.396
-39.302
8.8697
44.691
3.1504
-37.498
60.954
264.8
3.8133
-313.41
-252.95
43.115
28.572
175.65
193.53
-41.021
-280.12
-156.61
-49.04
-1.2638
-11.174
63.184
54.879
-8.3654
71.106
101.68
-11.066
-7.5572
55.007
57.239
43.115
29.61
-26.851
-203.18
-62.275
106.54
38.943
102.29
293.43
-151.61
-459.01
-78.242
22.462
-47.398
25.488
79.884
-20.237
53.681
85.673
-16.395
22.157
60.606
3.0333
42.899
162.08
85.941
36.626
-112.93
-224.54
-52.118
46.269
-0.90376
0.42486
27.526
-39.967
18.881
176.26
34.384
-154.06
-91.367
20.79
-55.151
-87.958
0.89196
36.622
79.18
7.6949
-16.608
34.996
18.119
75.008
-8.7401
-92.993
-42.715
-37.571
117.93
-8.2201
-128.01
259.17
104.68
-266.33
-124.53
28.09
-31.473
-112.4
47.745
77.451
-64.123
7.3576
100.11
31.639
-60.614
51.089
109.05
-7.4523
-50.504
85.171
217.3
212.62
102.28
-281.53
-292.45
11.481
12.55
153.53
-63.965
-406.02
-135.4
82.569
41.037
-65.929
28.059
132.25
-14.783
-68.725
88.943
87.843
-51.215
6.7196
91.9
34.593
-29.599
41.284
75.807
-30.058
113.24
147.06
345.91
-35.594
-397.09
-154.82
-66.371
-49.278
161.84
-105.55
-64.001
-53.807
-76.917
-14.614
-47.407
43.23
86.389
4.7283
16.906
68.704
43.511
82.886
13.016
-112.67
-79.539
-62.799
10.634
71.454
-8.1204
-28.507
44.849
49.629
-1.2707
108.28
252.3
65.215
-304.78
-256.45
-54.253
58.018
88.358
95.102
288.77
83.605
-288.98
8.4
-109.54
-100.76
-89.816
17.407
104.14
-60.592
-2.6278
109.97
32.031
-18.455
26.807
-11.434
-92.83
5.838
29.033
-41.44
-22.74
42.98
-8.1312
-50.368
49.825
39.017
5.6027
-7.8674
53.578
78.51
-119.65
10.351
1.9927
-132.48
-0.538
110.83
-5.1588
-124.44
16.7
117
40.089
-9.856
63.944
7.169
-26.82
-12.53
-96.157
-30.899
208.64
69.324
-299.41
-9.8451
153.02
180.25
-209.95
-99.65
-26.778
-37.948
140.1
-7.5228
-15.916
105.29
-3.4961
-96.768
37.832
93.824
-76.034
-76.975
17.015
208.99
83.994
-363.51
-88.909
23.909
-95.121
-26.557
180.31
148.32
25.433
158.02
-278.63
-164.25
126.66
45.957
9.533
-11.554
85.579
5.0071
-89.953
62.446
-7.9213
-9.4095
34.973
-36.279
13.136
42.729
-6.8737
-40.345
29.165
-33.268
19.359
38.139
128.53
56.261
21.167
81.711
23.168
-23.009
-56.485
-162.24
-195.3
-96.49
-174.85
55.801
-17.708
-89.217
56.802
-22.945
-84.834
36.422
89.648
52.757
85.274
19.541
-16.583
74.493
2.4488
22.097
104.65
152.91
237.32
-68.589
-164.37
-59.87
48.773
35.923
-168.44
34.044
-19.14
-185.61
-95.667
-37.46
68.825
70.952
-9.9176
-13.337
62.109
19.83
5.7809
61.559
50.452
-6.461
2.8617
20.833
13.277
9.6196
6.724
6.1859
-6.606
-11.16
1.9919
1.8515
-7.1057
-12.101
2.9664
3.4955
-6.741
-6.9567
6.2815
42.459
58.934
35.716
-71.822
-83.655
22.712
77.632
-50.151
-35.388
-51.477
-67.837
30.318
82.661
-28.401
-35.509
-25.568
-19.942
-198.57
-86.075
248.99
84.691
-3.2246
-13.188
19.891
-6.2615
5.5962
-11.18
25.514
-2.3003
-3.9207
16.745
-20.635
-0.36425
22.114
-15.509
-8.6102
8.5005
-12.572
-4.3248
13.278
59.082
50.665
97.695
4.8921
94.68
-137.84
-204.27
-48.03
-48.089
-31.579
95.074
25.46
118.89
219.06
-67.133
76.794
-15.867
-114.93
-313.07
-122.33
-57.712
19.988
94.485
124.33
163.07
-12.245
-182.65
-102.05
-42.711
86.077
91.496
-53.656
-53.046
26.594
-16.44
-2.3041
72.463
22.441
-92.388
-35.094
-15.605
-54.258
185.41
60.618
-51.095
81.309
26.904
58.044
64.559
-122.3
-123.9
254.94
-14.389
-426.86
-66.186
184.79
113.95
140.98
162.14
-71.172
-152.98
-80.961
-163.23
-90.171
132.56
50.606
-61.873
71.933
74.449
-55.894
37.817
72.57
-44.66
20.135
94.767
-3.4734
-56.182
58.583
82.143
18.523
55.474
268.52
65.26
-164.72
-44.601
-229.87
-311.27
-99.654
61.002
58.428
-50.641
153.83
238
-113.19
-229.95
-13.618
-76.047
4.5508
111.42
36.229
-40.38
95.88
-26.26
-61.655
2.3045
165.37
102.02
-137.15
-56.813
6.9775
31.059
203.8
166.12
-92.825
-110.92
-59.144
54.755
-149.97
113.58
68.138
-108.48
-120.46
-52.599
12.614
-170.74
-164.07
58.326
-0.3575
-71.422
122.79
132.1
75.413
179.53
137.23
-83.74
-260.46
157.93
289.29
-59.29
-175.6
-58.428
1.6252
-166.6
-6.6436
104.15
25.196
-170.5
143.26
185.37
22.468
-118.96
-108.04
-21.848
-41.165
65.774
75.366
-4.7511
48.14
41.291
-84.46
-75.449
-10.212
54.026
20.528
-17.021
116.54
57.338
-89.955
-54.984
45.879
-67.298
-85.199
200.5
257.19
-215.67
-161.72
15.369
1.6965
100.88
-203.85
-91.613
-48.118
108.93
157.62
89.026
-151.7
-171.9
22.335
40.501
-67.601
2.4904
107.99
-26.676
-46.692
80.202
7.9838
-76.23
65.33
83.954
-33.141
37.396
294.78
90.413
-170.88
-145.74
31.296
-30.743
6.0299
134.02
-101.84
-142.99
-177.46
-34.188
32.106
-27.946
-41.784
59.793
62.138
-37.471
19.877
99.046
-1.0966
-20.422
72.099
46.489
-32.08
4.88
56.308
23.952
-21.894
4
42.447
3.5604
-25.106
8.7082
14.822
-10.06
-30.54
13.067
13.894
-8.8189
-32.372
2.0746
11.97
-10.187
-24.913
1.5777
13.186
-11.068
-23.369
19.398
37.026
21.498
85.904
29.208
-36.636
-94.856
-144.57
34.834
197.59
179.16
-28.246
-65.363
-217.32
-148.75
-80.362
-38.713
54.399
-37.547
-25.603
52.736
108.19
71.928
-33.263
84.729
-41.426
85.346
116.55
-273.36
-86.462
223.29
41.261
-162.36
-125.63
13.282
46.55
71.262
106.05
62.518
-11.271
-48.599
-103.76
29.633
5.9653
-50.1
-8.1725
40.916
-24.357
-58.402
113.92
164.57
-26.746
-34.271
3.6013
-38.265
-68.273
4.9445
92.717
58.439
-101.04
-51.58
-20.154
-42.731
-10.037
13.01
-10.61
-7.5574
22.59
41.779
-21.992
-16.671
49.634
5.4579
-23.42
27.447
43.909
8.9135
232.74
120.47
-73.135
-220.52
-250.73
-19.813
-12.999
15.474
47.263
36.156
-18.019
-1.9162
45.919
20.613
90.693
21.283
-53.049
-29.594
163.34
92.229
-114
-176.38
-120.43
-93.998
-5.5412
18.898
-12.634
140.64
83.901
134.46
32.593
-91.974
-56.39
-138.74
-59.11
48.666
75.333
11.663
82.304
267.72
17.686
-286.13
59.189
-72.799
-50.258
-85.751
19.177
-16.469
34.573
164.03
399.65
-5.5098
-177.68
-22.637
-178.73
-244.93
-101.43
124.27
-97.769
-5.8205
83.801
-55.681
80.018
134.29
40.618
-101.44
-96.547
95.403
-15.766
12.68
16.853
195.98
64.606
-140.13
14.498
-34.188
-52.708
24.373
-24.275
-38.113
-94.204
54.003
98.464
-40.555
-29.482
101.55
68.338
-22.566
-69.479
-60.632
-18.945
67.685
137.64
-140.9
-104.17
28.326
61.104
-31.067
4.0684
55.72
-19.871
26.542
-34.942
-122.05
-43.036
64.807
74.519
-18.754
9.2546
106.73
348.95
201.54
-468.82
-239.05
-91.174
-48.303
75.72
32.753
75.773
35.164
-60.772
-45.639
49.693
46.607
-15.145
10.585
69.122
27.474
-25.132
52.596
151.55
31.9
-41.078
100.39
-89.814
-391.83
-136.18
89.158
41.077
-30.908
27.332
56.581
45.731
59.021
117.02
119.27
231.52
-92.214
-518.25
-217.05
-38.966
102.17
68.307
-28.655
37.005
198.61
34.683
-84.217
257.34
287.23
-187.8
-376.24
65.691
-62.407
-130.13
99.868
240.4
-26.423
-132.45
-31.976
-54.356
-43.234
86.588
68.855
172.18
89.234
-415.16
-104.51
113.36
-58.783
-85.468
255.97
255.2
-288.03
-79.53
-3.5531
79.022
303.97
184.32
-155
-129.08
-86.262
55.294
178.46
-249.58
-176.3
192.59
-159.32
-33.187
-77.265
-108.64
114.44
204.59
146.41
-233.98
220.54
137.42
-285.46
5.2109
-57.482
-107.58
16.37
9.9883
-53.625
94.089
172.44
23.499
-108.93
190.04
-151.44
-226.99
65.297
95.23
-74.383
16.402
91.585
49.795
100.39
50.481
-128.94
13.777
-131.95
-58.045
-54.976
-24.197
58.903
84.989
-0.92065
0.091916
45.802
31.947
-7.0662
66.738
276.35
546.3
-249.8
-262.99
-68.562
-187.87
-142.36
-1.1439
-40.457
-158.23
-85.096
-21.02
-45.598
53.117
7.7781
166.83
244.37
270.63
58.407
-85.244
-383.67
-398.91
4.3671
49.221
-33.051
27.516
173.62
70.285
-3.6468
132.78
336.84
772.98
-342.44
-365.92
-109.62
-313.86
-156.38
89.644
88.168
77.935
21.712
-66.056
-155.75
26.699
4.767
9.9111
-13.444
66.958
174.89
-115.67
-93.388
1.0796
10.619
-5.1544
-19.017
-126.07
-190.34
47.377
200.62
-61.696
6.1573
158.64
98.171
-21.679
48.324
200.48
-59.265
-98.864
36.097
-47.02
-99.591
-38.115
-8.9318
48.801
144.69
172.25
-330.87
-262.15
-5.9442
126.21
-5.4293
58.145
107.73
144.2
-26.066
-8.5699
-19.344
-162.8
-51.198
223.81
-91.989
-270.99
61.32
199.79
-75.87
-113.68
86.876
74.736
-16.666
205.82
191.94
-222.77
-173.6
-12.001
-20.131
84.763
233.17
206.42
-238.85
-122.37
-83.724
-181.59
19.213
97.867
17.264
-160.17
-132.67
238.3
125.52
-68.381
154.36
-195.03
-122.82
-76.337
138.35
76.945
219.39
269.96
-248.38
-248.86
-68.628
106.6
114.98
-9.3454
-78.713
-111.52
-154.22
106.69
168.49
-128.09
-111.82
96.825
6.0527
-21.706
74.264
52.144
44.659
62.84
30.946
-122.04
-62.452
44.106
-2.8878
97.319
88.404
-101.82
-91.662
33.321
9.2335
37.956
99.953
69.064
-46.767
-58.079
-17.017
99.274
214.72
37.657
-244.73
-348.32
-121.41
-16.576
-55.426
165.07
296.75
83.919
73.664
-218.73
-448.64
-114.42
152.2
22.003
96.42
245.45
232.79
-28.653
-175.64
-62.032
-76.671
25.947
32.051
-16.718
27.2
-47.29
-87.789
15.599
58.438
25.705
20.452
141.08
42.095
-83.666
-29.981
50.419
168.98
136.37
-60.972
-225.28
-138.66
-151.94
-202.95
35.797
70.605
214.97
63.736
-78.238
-32.707
24.725
157.37
99.206
172.64
-91.442
-206.75
-105.18
6.8529
71.128
-77.822
17.693
138.46
-119.49
-8.9029
118.78
-113.29
-56.388
100.52
-3.4707
143.2
274.32
-101.05
-299.18
-65.257
-112.37
-128.23
24.537
125.99
18.337
101.47
238.02
-128.45
-207.53
36.416
-72.843
-74.403
87.227
94.653
36.57
57.319
72.815
-37.961
-88.509
18.427
13.997
-70.819
-23.347
37.728
-34.65
21.207
199.48
229.41
-119.33
-223.85
-63.711
-90.927
-22.999
151.47
18.464
-148.27
-92.857
111.97
49.916
-45.839
28.186
123.2
40.521
-83.582
-139.36
-67.753
-73.651
-29.746
194.84
176.15
-91.191
-96.708
8.0933
43.772
38.908
14.367
-10.006
-55.411
75.367
72.005
-79.933
15.34
188.58
-5.5896
-132.98
75.293
-8.0729
-179.02
82.322
45.065
-153.87
104.68
94.706
-108.41
-59.329
65.88
-85.883
-114.43
89.797
207
169.51
-160.14
-69.919
-110.11
-71.865
65.327
16.331
222.37
88.073
-232.3
-26.433
-8.5912
-154.91
-147.46
67.859
114.75
13.284
-106.96
51.978
79.201
-4.3342
-26.265
92.13
84.232
-14.457
-11.82
84.599
210.91
68.902
-113.08
-99.509
-52.726
-44.018
-85.658
-36.404
-47.732
88.607
-40.273
-17.374
116.78
-64.028
9.0718
-101.75
-61.774
-0.30559
113.92
-37.076
-113.91
-112.15
31.869
-110.89
-101.88
96.82
47.464
5.9753
137.65
163.21
127.09
-40.987
-20.723
596.27
65.143
-610.54
-209.31
-43.272
54.231
80.195
-77.36
-53.952
7.8427
0.46446
84.364
25.912
-3.4033
51.498
13.924
-8.3065
43.319
14.33
-21.011
13.722
7.6293
-25.012
-3.3811
16.228
-14.686
-20.192
12.599
11.124
-15.114
-7.5421
17.591
2.75
-20.993
0.26685
14.589
-13.011
-23.229
9.6484
11.037
-16.931
-11.483
17.304
3.7118
-21.74
-2.0738
19.695
-16.259
3.7973
26.587
-0.79089
-21.025
24.043
43.643
23.089
-12.026
11.444
-65.247
-86.449
49.724
104.04
-0.073339
-58.824
-27.356
-62.531
-46.505
41.327
7.6495
-41.377
39.757
26.28
-45.271
10.232
51.952
-31.344
-23.057
25.115
8.6826
-35.336
-39.534
31.298
46.11
-5.8069
-7.4341
39.557
11.594
-19.963
-33.557
36.882
21.002
-4.2997
-31.288
10.387
24.124
4.256
-18.77
3.9294
14.727
-14.969
-39.708
17.7
25.678
8.2218
-29.397
-8.0722
42.942
4.0169
-16.222
-38.059
9.7085
33.19
12.648
-21.057
24.512
-14.861
-26.736
48.409
36.401
107.03
-4.1812
56.323
-625.58
-219.52
454.09
65.623
-14.75
114.29
144.57
-16.742
-7.9757
0.18512
-23.735
-48.267
-96.6
-109.41
-11.684
36.759
-22.894
-21.503
53.474
50.043
-12.301
47.503
116.76
-12.103
-95.6
15.322
-26.768
4.1034
28.737
5.1698
-16.915
13.02
12.143
-13.464
1.2971
16.994
-15.201
-7.7999
11.01
-9.7171
-35.259
33.516
-28.453
145.49
152.36
-128.59
167.94
92.123
-135.03
-117.03
-129.16
-39.298
65.073
13.509
-48.15
-106.4
-79.938
15.015
42.801
-11.33
1.1733
25.711
-33.228
3.4292
116.91
-45.531
-71.605
13.233
46.263
-15.413
45.446
182.48
-133.75
-62.317
35.906
53.829
-43.401
-35.703
-13.905
-49.083
87.607
98.458
40.007
133.12
-73.681
-134.83
-49.968
-6.5965
-11.801
10.099
-13.698
-31.57
7.0818
40.493
-13.898
-8.9473
33.175
2.8493
-28.314
10.068
15.151
22.348
-15.587
-9.2937
17.729
21.373
2.3302
-2.162
12.902
-4.5346
-20.616
0.67411
-0.89817
18.393
-22.078
-4.7046
25.667
-11.262
-24.717
-7.6383
14.131
8.2093
-11.162
-0.9304
9.8604
-12.931
-6.8415
24.824
23.458
-0.62334
-36.384
-23.509
26.811
10.012
-12.275
-18.891
9.3898
16.978
-10.49
-19.908
18.692
9.8402
3.0548
-17.623
1.4012
3.9782
-11.909
-21.939
16.848
16.869
-16.344
-15.967
26.944
15.214
-1.6123
-30.583
28.357
-1.3663
77.548
-71.392
-64.099
43.195
-24.513
2.7593
18.148
23.078
-28.239
-12.668
18.62
19.952
-9.8671
-1.8682
21.824
-1.0358
-26.29
5.8223
16.798
-10.11
-30.704
4.1398
16.672
0.30991
-11.174
2.4919
13.628
-10.05
-16.206
15.472
14.523
-3.4222
-10.642
11.481
5.0398
-24.385
-2.0955
16.609
3.622
3.0109
-5.4295
15.857
1.4051
-30.388
20.82
7.9715
-3.6836
-18.829
5.4094
25.371
-12.07
1.9468
33.251
66.987
-18.735
79.733
19.111
-115.21
-28.786
-49.441
-22.169
-71.112
15.372
114.49
-67.89
-90.137
27.135
61.748
-7.0348
-24.975
8.8004
26.905
-12.151
35.594
145.71
-187.97
33.878
111.52
-26.59
-147.57
-37.659
10.748
-38.482
104.11
31.77
10.958
-39.461
1.2245
13.258
-50.964
47.703
77.485
-49.591
-4.4082
8.9843
-13.046
-10.295
4.5285
44.193
-30.675
-20.599
62.281
20.017
107.23
-184.21
30.462
-35.046
-79.607
71.776
27.582
10.407
-38.278
23.359
14.224
-16.217
-53.138
-9.7697
-2.964
58.483
-21.355
-13.331
36.275
13.429
-36.521
-29.45
30.612
7.8454
35.863
14.718
-32.847
16.185
-9.8167
-45.846
35.718
9.6735
-69.761
-4.7436
62.054
18.905
-53.448
12.853
46.935
-6.4193
-62.756
-55.527
70.914
63.403
-73.015
30.407
44.441
-2.185
-53.162
18.749
47.125
11.449
-52.012
-23.919
49.5
24.053
-30.107
-45.378
45.514
38.21
-5.4115
-64.532
8.38
36.48
-17.458
-36.352
29.047
28.556
-39.364
-38.305
40.113
30.802
-35.948
-36.961
47.942
31.258
-29.639
-34.382
45.008
18.669
-39.713
-10.772
42.377
-8.6123
-39.379
28.135
35.576
-35.768
-21.49
42.77
20.182
-35.735
-26.978
41.293
8.5907
-45.345
3.9357
35.131
1.008
-53.07
8.0974
38.828
2.0719
-55.29
3.0172
48.115
20.794
-46.468
-17.801
34.785
17.279
-38.767
-34.349
36.681
22.35
-29.328
-40.005
31.126
25.714
-21.803
-30.158
46.101
33.754
-33.351
-26.364
38.965
16.833
-37.347
-5.023
41.966
1.7225
-39.889
21.082
35.128
-20.051
-37.337
20.54
1.868
-25.043
16.323
8.0974
-43.787
2.8222
43.019
-12.371
-33.407
32.56
29.132
-36.44
-38.298
48.225
27.412
-15.505
-46.623
62.695
37.939
-78.941
-33.38
46.649
64.841
-54.074
-73.176
77.101
2.2087
-79.393
-93.078
87.556
238.84
71.27
-260.22
-38.927
-88.292
-221.82
20.841
271.96
137.66
73.827
-94.567
-6.3011
270.36
130
-97.234
-337.28
-66.016
-53.408
-149.06
-144.14
118.83
272.78
57.039
201.27
-133.15
-137.01
18.86
17.018
38.903
-33.32
-28.212
35.013
27.296
-21.397
-50.003
29.606
37.893
-21.282
-39.249
17.757
2.0364
-36.614
0.16008
-2.4874
15.733
37.763
-28.709
48.898
28.134
-9.9503
-26.771
12.731
-12.144
-1.4319
2.1578
35.406
-22.545
-21.098
-19.422
23.541
4.3577
-15.184
-10.976
28.768
19.565
-42.375
-30.075
16.671
31.421
-26.731
-18.343
52.095
-12.82
-18.758
-34.851
20.281
76.919
-33.454
-66.015
31.809
43.109
-23.697
-59.215
41.693
29.506
-29.303
-11.126
41.241
23.816
-18.627
-13.101
11.697
-13.791
-48.572
-19.193
15.781
17.916
-27.33
0.04762
48.144
1.6948
-26.704
6.7768
28.295
-12.36
-7.7483
29.108
10.2
-26.509
-7.9785
30.156
18.562
-17.63
-27.095
-2.0473
-19.946
-13.22
-0.052411
18.274
-5.9743
-22.546
23.048
31.6
-9.167
-24.386
24.78
21.433
-11.505
-37.539
13.552
22.475
0.39532
-10.711
28.315
13.788
-24.82
-30.19
6.053
0.95555
-10.363
-25.605
30.291
1.0641
-8.3752
27.296
26.61
2.8494
-17.871
-11.942
9.5004
8.3883
-25.361
-3.3491
20.267
2.4344
-10.774
-6.7574
10.796
-12.634
-15.16
29.805
15.377
-12.988
-36.663
13.047
18.845
-2.4672
-24.123
7.3839
14.19
2.3852
-5.5075
3.2405
9.4795
-2.7286
-20.83
4.0268
9.0157
-11.606
-18.32
13.994
11.721
-14.736
-34.039
25.798
43.072
-20.192
-43.179
4.5927
18.078
2.5243
-8.1831
29.477
31.606
-55.379
-36.223
20.742
34.809
-11.608
-8.8527
22.665
8.5485
-36.186
-11.098
24.868
14.125
-24.228
46.044
76.703
49.384
11.781
18.275
-7.1356
-137.07
-124.97
13.035
40.11
-4.5359
8.1512
35.472
-4.0116
-50.28
10.121
71.869
9.3486
-35.104
16.308
-27.703
-42.741
-18.923
24.941
18.456
-71.669
-57.057
33.662
-22.064
15.821
5.0971
22.783
8.0947
-65.161
12.524
72.73
-4.8218
-4.5103
60.469
33.042
-42.332
-9.9484
36.313
4.5384
-24.701
29.258
28.988
-12.062
-1.8762
17.298
15.693
-15.971
12.655
17.882
-20.918
-23.98
8.7012
18.452
-24.453
-20.775
21.11
37.512
3.0247
-34.048
1.6238
-5.7561
-14.966
13.82
8.3
-17.992
-6.0871
18.515
-7.3767
-20.905
11.672
14.865
-13.895
-9.3252
3.1652
-44.382
7.7142
60.341
47.041
238.27
-183.44
-233.88
-107.92
135.25
180.38
7.3319
-61.236
-67.384
-20.449
19.772
38.32
-26.524
-21.46
-0.17491
41.487
-28.739
-45.226
5.2927
-39.224
-10.937
49.108
24.978
15.493
26.756
-23.965
187.16
153.1
27.54
-15.86
-45.449
-179.53
-158.02
-54.889
-70.688
-88.372
-55.14
-118.39
-31.385
82.97
58.495
268.88
36.753
-113.22
12.503
-41.694
-75.718
-14.191
-40.095
50.731
122.64
109.68
114.02
-149.61
-59.504
-25.121
119.96
-65.617
64.859
-63.6
121.49
68.103
5.9489
-85.848
96.595
36.655
20.931
274.98
142.72
-344.01
-159.13
-63.457
11.614
-61.326
189.57
-196.57
-60.609
48.934
-184.55
319.47
-289.55
157.36
219.08
-342.78
256.34
-30.889
-168.36
73.769
-174.15
272.43
-22.794
-244.45
304.62
-155.01
57.317
-2.9852
-213.5
170.71
-54.001
217.41
-67.951
-143.27
54.445
-98.807
206.64
-122.06
49.49
-20.726
-100
245.64
-325.76
42.18
165.32
110.67
-263.5
95.695
1.2138
3.9052
65.655
147.63
-25.598
-94.892
-33.626
-95.995
-30.194
45.161
-38.248
89.595
-56.326
12.131
-178.96
-204.02
349.95
63.181
-32.131
49.539
24.786
26.693
-1.3577
-63.926
19.185
27.666
21.351
-44.891
10.17
35.481
-12.503
-25.257
-39.162
-1.0533
22.846
22.113
12.446
151.61
14.256
-211.93
-98.222
-59.272
24.195
39.056
89.102
18.441
-32.932
43.605
210.83
174.87
65.355
-189.29
-299.28
-15.499
40.368
36.588
191.99
200.79
8.024
-62.727
-284
-281.56
-138.13
-54.259
-3.6
44.979
30.359
-2.243
68.823
-0.72465
-7.7229
58.83
-25.638
20.022
58.096
-45.892
24.047
50.753
-52.331
34.171
58.169
-16.328
10.152
25.305
-79.796
38.563
57.073
-46.001
31.256
-4.1628
47.921
91.084
3.2897
-70.49
-41.613
49.472
5.8162
-38.141
-11.364
-26.694
-40.565
4.6369
68.233
-2.5168
-65.796
88.812
46.86
2.4105
17.837
8.6957
-26.506
-36.966
-3.9627
-64.398
9.1024
45.45
50.804
3.3183
-65.964
55.035
57.558
-36.073
-108.03
-153.73
50.307
67.22
-22.043
31.457
46.394
-14.85
-6.5856
44.159
18.46
-25.612
-16.788
26.431
-11.915
-8.5007
-2.5599
20.158
-90.642
207.35
186.27
-96.384
69.087
-186.26
-90.368
-25.562
29.249
61.321
5.8195
-84.197
-27.805
-22.585
-42.242
36.86
44.26
-4.1824
-36.477
-23.522
-11.51
-2.0754
195.11
218.96
-97.011
-308.76
-125.52
132.98
-57.018
-128.59
54.265
-4.2321
-69.448
64.322
80.364
-41.114
2.8892
81.549
145.02
17.037
-168.75
0.47944
-62.306
-9.5274
90.86
18.658
-19.486
69.457
81.582
-17.493
81.662
87.578
-149.96
-27.556
-20.601
0.060158
-23.997
3.9895
49.264
18.378
-25.168
-17.406
35.534
98.051
32.493
-168.97
19.692
-93.94
-44.607
29.936
44.914
-68.037
-22.153
76.934
27.19
21.956
198.12
-125.12
-152.44
-63.175
-3.2784
53.883
-69.642
31.82
100.09
91.113
-66.906
-1.6817
160.77
-75.132
-151.75
-19.2
21.067
-15.827
-2.4822
82.729
51.208
-48.264
-20.942
226.24
149.04
-316.19
-199.85
21.143
-14.945
-29.466
77.413
77.328
-22.913
-23.576
62.399
45.226
-5.5365
199.99
60.262
-252.82
-229.11
3.3143
90.062
29.318
-28.069
59.784
78.945
0.53341
-57.638
3.9667
23.294
-25.44
-12.754
83.186
218.08
-96.251
-258.48
23.911
-65.271
-63.549
2.4056
99.169
201.95
-87.975
-72.892
60.085
-150.39
-5.839
83.398
18.104
-72.243
27.401
98.766
118.15
65.958
-261.97
-15.801
-21.567
-49.85
65.232
87.237
19.369
-31.111
68.989
189.48
-36.058
-274.14
8.4232
-37.447
-21.429
17.13
98.177
-22.432
-76.163
12.101
55.867
14.34
-49.675
26.889
65.53
159.66
139.76
-256.83
-154.76
15.03
-78.656
-43.499
28.19
5.4187
47.955
179.76
156.5
-61.429
-24.883
-14.232
-59.277
-260.09
-94.389
87.928
-23.998
-14.478
104.18
73.937
-7.4848
-12.306
23.864
37.339
-41.853
4.637
100.12
38.648
-76.751
0.26278
54.327
101.38
121.36
-198.29
-205.68
10.643
-57.149
110.23
10.19
-28.353
69.902
63.744
-47.828
-66.528
40.529
27.717
-21.45
-24.686
72.425
38.531
143.05
-138.21
-109.34
-1.1848
-37.675
-19.115
-7.6638
-25.054
-13.915
82.877
143.7
127.75
-269.09
-92.824
-12.28
-62.367
47.612
80.519
-5.3029
-39.272
51.758
99.909
43.751
187.43
12.235
-225.24
-154.46
8.2783
42.685
-39.778
-31.185
99.231
87.972
-49.558
-13.782
43.758
-49.733
-37.028
63.441
199.74
-100.01
-236.28
26.195
-39.565
-5.6842
43.438
55.915
-13.014
-18.86
52.923
24.239
-70.983
6.5325
70.624
17.98
-41.97
38.548
232.43
-63.179
-231.36
-7.6235
-7.4345
-12.738
-39.986
29.915
79.1
-46.481
-71.358
61.392
72.25
-4.7562
-26.895
34.636
-2.1816
-58.15
4.125
43.331
2.2499
-26.691
17.557
23.061
-12.33
-67.619
8.126
56.678
8.3731
93.498
194.77
-137.9
-271.78
-174.85
83.121
89.399
4.4418
-26.86
90.982
37.886
-26.516
-12.294
68.34
45.204
136.58
-55.373
-236.65
-41.351
-75.647
76.62
89.027
14.768
-19.297
46.674
2.7262
-50.479
73.304
247.42
-171.85
-302.67
51.618
60.43
0.45753
55.491
59.726
-39.695
-74.23
52.357
62.23
-44.642
15.833
58.591
-38.395
-69.645
61.989
64.904
-30.289
-68.633
145.57
8.8241
-246.33
-13.576
57.418
66.785
2.0927
-43.631
-27.742
-47.485
-10.577
95.306
169.05
-226.9
-75.13
62.547
-89.319
-22.058
61.948
84.529
-16.354
123.03
200.32
-224.84
-134.05
29.604
-42.48
7.9458
118.93
37.085
25.965
242.2
-93.271
-331.98
-56.031
75.158
10.751
32.498
93.376
165.51
-79.367
-138.98
75.036
-84.115
-45.101
21.115
20.996
-51.414
-8.6497
57.917
1.3361
-33.604
21.235
49.019
-26.586
144.75
-48.436
-151.04
-46.012
4.0485
79.426
56.083
82.61
-135.94
-74.428
-55.376
96.217
92.593
-148.34
9.5121
132.9
2.292
-46.509
21.197
-4.8696
-12.526
55.607
221.15
-43.617
-289.73
70.937
-32.156
-92.692
7.1802
96.541
30.442
-34.808
22.074
46.036
109
103.59
-267.47
-159.39
-65.794
53.217
117.19
22.411
-25.522
106.69
148.06
-162.86
-40.433
-45.763
-50.593
-16.252
113.41
81.84
120.09
-143.54
-96.168
-11.21
-71.636
64.261
38.414
-34.483
27.755
56.049
-44.79
-22.164
60.642
10.139
-38.459
43.249
43.953
-41.839
-13.124
58.703
-35.929
-62.875
54.573
35.604
-25.268
72.201
98.108
-141.46
-181.7
4.2228
60.974
16.74
-16.313
52.444
94.241
174.2
-175.71
-245.88
20.512
-64.191
-18.5
108.26
71.524
-37.011
16.32
59.05
-36.829
-28.342
53.745
19.648
-51.276
111.71
266.6
-199.69
-355.99
6.9476
109.38
29.992
16.949
79.097
-6.2585
-25.023
147.98
117.25
-262.21
-47.913
15.789
-38.349
-7.4006
76.707
22.331
-24.703
19.839
145.23
-17.778
-192.4
58.213
-98.132
-39.184
57.319
58.748
-25.692
77.768
145.56
-208.36
-118.87
48.002
3.5682
-37.26
68.776
80.503
-26.114
-25.402
47.543
-14.457
-24.574
57.786
28.601
-34.973
24.57
16.15
-85.883
-30.402
58.008
6.4323
-61.46
23.967
58.703
113.12
145.27
-281.59
-232
-22.334
107.4
120.9
-58.525
-112.37
18.553
48.492
24.094
67.74
86.383
-45.982
-51.489
49.168
-2.9741
-86.321
40.388
79.472
-17.524
104.08
246.39
-55.495
-424.93
-55.469
46.581
-68.966
39.437
118.92
-20.377
-27.577
82.575
97.046
120.79
-58.849
-271.27
-90.661
7.0741
97.445
25.705
-9.0224
56.624
28.766
-41.605
53.486
203.82
102.67
-314.02
-136.67
18.513
-64.893
6.7989
78.285
-3.9735
-15.945
77.806
16.406
-58.736
27.507
94.646
-6.3918
-83.347
28.912
0.72291
-50.707
39.549
29.764
-54.166
13.487
58.099
-44.023
-34.804
62.672
19.448
-68.716
5.6037
61.602
-18.768
-45.613
44.687
-20.343
-84.082
57.56
42.5
-27.259
-40.076
63.425
41.233
-61.879
-16.187
62.533
-9.3152
-43.011
36.35
53.776
41.166
191.48
-101
-266.25
-64.505
-52.027
65.69
-14.515
73.652
46.94
-78.455
-12.821
94.708
53.294
16.58
-112.09
-64.538
-14.063
113.62
129.27
-72.07
-40.322
48.8
25.648
-86.94
13.421
54.98
-68.36
-112.99
55.63
-7.1687
-19.082
65.999
-5.3057
-19.703
54.277
-0.00035348
-36.901
25.506
1.8916
-33.39
14.375
26.63
-31.701
-13.061
42.654
20.968
-15.411
-72.491
-66.461
-93.65
28.205
76.846
-1.8792
-4.2406
43.778
3.7163
-10.847
67.369
41.668
19.422
38.099
-3.8708
-30.299
-0.34793
-9.5771
-19.73
12.465
25.881
-16.113
-4.5105
15.862
-6.0625
-15.641
19.814
28.594
-12.953
-18.137
-0.19882
7.1724
-10.364
-2.9192
17.8
10.065
-18.306
-27.405
9.7393
30.009
15.296
-53.804
-45.881
44.898
126.27
2.5605
-44.627
-87.668
-13.799
-275.73
150.82
204.49
-302.21
106.7
54.925
37.216
42.521
-37.157
-81.858
18.935
40.896
13.461
34.583
52.66
-22.402
-96.727
-5.5225
28.079
-17.656
15.125
61.681
-30.977
-67.308
43.454
36.846
-80.06
-15.234
97.293
104.42
193.67
63.724
-410.11
-256.69
24.729
110.66
85.594
-48.397
72.797
91.947
-60.902
-43.53
81.261
38.596
-76.895
2.6558
77.234
8.5597
-65.088
22.412
42.41
21.826
-16.486
2.3809
-0.77411
-56.037
8.9474
34.19
-49.989
-85.962
30.007
55.274
-33.037
-20.238
46.701
-14.091
-56.518
28.272
44.989
-29.312
-47.383
39.565
24.846
-35.408
-13.678
59.378
2.1759
-11.867
51.131
-8.0538
-77.732
-5.4947
33.559
-61.542
0.79229
52.44
-8.9662
-8.8174
100.31
100.9
88.072
94.666
-150.01
-189.25
-12.154
-36.521
-76.133
74.252
12.812
-22.375
-133.43
38.934
48.59
-74.636
21.797
88.698
29.421
-28.588
37.336
33.57
-57.612
-22.123
88.113
15.154
-75.376
10.747
86.484
7.5717
-95.797
-38.281
-9.2209
-16.272
109.91
136.85
221.71
-173.69
-287.97
-59.2
-65.29
49.125
61.465
-4.3721
-4.0095
57.429
-5.3516
-6.3366
54.738
9.6202
-26.258
44.908
21.292
5.3369
74.915
34.115
92.67
-9.3918
-114.89
-100.97
-44.757
71.891
23.466
-65.198
13.892
111.87
37.697
-52.009
-20.281
8.4033
-32.473
-88.879
-54.684
-11.853
-41.962
-44.207
-21.51
-46.285
-26.085
118.89
114.51
-30.204
-12.295
14.394
-7.6463
35.523
45.99
-33.417
-2.9425
31.432
-20.167
38.377
151.03
222.45
-74.164
-20.083
31.602
-82.429
-118.14
-126.06
-128.78
-188.26
-45.614
-9.9475
-81.553
-11.236
127.6
103.27
-119.34
85.392
181.12
57.344
-50.062
64.655
191.12
76.098
-90.66
-19.381
-60.441
-68.483
-0.12205
94.843
-18.741
-174.7
-54.354
20.066
45.039
-58.529
-11.623
23.731
-2.0682
152.44
254.72
-3.7113
-131.45
-61.669
-97.488
-88.976
45.536
-41.6
-90.194
60.165
61.548
9.2509
-87.796
67.844
81.926
40.337
-96.946
-50.158
71.719
37.984
-38.697
-68.917
73.657
55.712
7.3566
-70.65
17.411
32.542
-69.023
-152
27.963
108.47
94.923
-43.773
27.023
106.35
31.09
-108.56
-92.431
27.641
24.597
-47.67
-44.836
45.8
29.216
-87.387
-54.714
74.14
51.051
-43.747
-76.237
91.533
62.902
-121.76
-208.8
69.276
132.2
24.651
-78.225
82.217
143.87
83.216
67.58
258.26
40.109
-158.31
-197.04
-106.72
17.539
-11.732
-83.362
-11.621
66.499
14.302
-84.686
13.124
40.579
-84.731
-123.23
26.873
31.562
-70.329
-188.66
-71.968
265.95
224.3
100.77
411.04
-418.75
-123.25
-55.681
-2.1317
67.734
-96.258
-1.6141
94.471
28.765
84.934
19.604
-151.11
-19.278
-5.0341
90.493
56.493
8.9427
-6.2128
34.1
-154.94
-234.05
282.89
223.4
-51.703
-160.36
-57.587
-5.7405
56.672
127.58
180.8
54.039
-122.39
-232.66
-219.06
-8.0982
63.357
187.19
145.72
-132.24
-274.29
-167.71
39.71
-47.506
-0.91651
133.9
128.89
75.716
-42.294
-19.632
-54.119
15.103
92.682
-44.046
-3.7162
93.396
-1.5381
-37.034
64.435
65.815
-57.459
-55.554
55.917
33.163
-38.269
-16.604
56.267
102.26
6.6717
-137.07
-12.037
-88.81
15.024
-91.209
143.63
158.31
-155.41
-75.866
-82.23
-59.115
41.549
144.93
-33.726
60.314
5.6855
-63.468
4.9139
45.705
9.1149
-39.808
0.71689
36.249
-2.3654
-40.239
38.561
42.161
-9.8798
-39.843
11.271
14.636
-11.394
-9.1104
2.4711
18.191
-1.3995
2.4748
-3.2818
4.4279
27.356
-0.90476
70.298
-50.379
-71.896
-12.062
-33.901
-5.2364
25.069
10.985
16.757
-10.645
-22.056
6.3075
-17.394
32.013
42.721
-22.028
-19.591
20.857
15.026
-22.622
-18.214
14.437
33.356
-0.14696
-25.382
35.562
20.178
83.316
-38.951
-47.179
-41.52
-105.39
13.98
22.923
56.768
-41.019
8.1042
72.09
39.19
-170.52
-6.7805
99.095
18.939
36.147
-61.484
-1.16
24.966
-41.974
-23.814
57.323
-10.814
-56.643
25.772
-48.733
-0.24304
37.803
-2.1653
-99.552
177.12
19.82
-207.74
34.72
43.824
112.27
95.967
-27.07
-110.79
-49.29
91.101
106.3
-40.382
-47.266
10.349
30.48
100.08
182.14
-284.13
-364.65
-14.576
86.148
74.382
-53.219
17.98
-2.8401
104.57
0.58807
0.70049
32.231
-15.707
-18.762
11.759
1.5834
-13.504
61.142
49.028
-25.591
-114.86
-75.07
31.014
34.435
31.779
22.68
37.986
18.965
23.39
32.568
-32.144
-48.14
14.979
-37.368
-52.619
16.206
-51.808
-62.171
38.022
341.8
-57.969
-106.21
26.18
-86.564
-78.722
-28.87
-59.065
216.34
-5.8993
-341.25
-41.57
-6.5754
125.11
308.34
96.482
-11.114
-6.8434
31.59
86.431
113.23
117.1
-62.748
-342.54
-175.82
-44.993
-15.028
11.337
21.416
-35.311
-0.78775
36.773
-17.416
9.4991
57.709
-16.362
0.55938
63.764
2.8045
-35.652
36.869
79.721
-14.215
-42.196
41.048
66.994
-51.551
-24.284
52.72
4.1071
-67.489
14.52
16.667
-53.019
-40.01
78.782
50.17
-36.193
10.766
47.552
-58.912
-64.375
143.38
203.15
-186.87
-152.08
2.0346
-50.029
-69.649
-23.017
48.777
25.91
-43.577
28.271
57.248
-4.8209
-45.965
12.595
54.441
-3.5809
-33.056
29.255
26.822
-39.135
-24.54
43.932
16.883
-56.014
-3.6872
48.777
22.02
-46.6
-5.7495
94.711
5.2156
-115.74
-70.247
41.75
-58.119
172.17
212.92
-71.595
-178.01
-118.33
155.27
-16.685
-79.391
-12.867
2.6515
27.609
-4.2961
-0.60255
47.402
-9.3941
-45.057
20.018
31.085
-18.311
-38.534
39.084
38.357
-56.822
-5.1671
103.87
-115.27
8.0073
151.93
-63.266
-129.59
-34.167
57.501
-46.397
-90.067
106.59
36.047
3.8846
-8.3739
26.788
21.102
20.862
-38.164
-18.735
47.907
-21.475
-31.672
37.866
1.8279
15.295
49.98
-26.881
-9.9303
22.355
-4.2954
9.7705
115.49
269.36
-75.976
-208.31
-50.892
-112.24
-40.637
-37.566
-55.823
-5.2846
33.118
-21.485
62.228
91.685
-13.947
28.713
165.57
104.33
-153.45
-109.11
-46.288
-65.638
-64.392
-63.677
-33.577
-33.741
72.207
25.981
-31.136
100.38
-7.585
-41.855
70.902
60.802
-30.144
-18.144
66.913
12.106
-44.511
42.824
62.664
-9.9957
-53.877
40.244
42.231
-1.3204
-63.962
4.7483
31.033
-7.1764
-35.61
22.483
35.158
-25.316
-56.839
25.585
31.622
-12.497
-59.658
23.64
36.587
-5.0066
-51.693
7.7743
40.563
-4.3873
-43.488
25.518
36.196
-19.128
-55.147
33.168
60.26
1.152
-63.201
51.837
62.624
-38.6
-75.441
10.173
17.444
-51.277
-26.226
49.063
29.587
-37.763
-17.707
52.234
25.64
-57.498
-33.746
34.062
20.265
-40.038
47.39
124.98
200.23
2.7009
-238.72
-59.06
-44.071
-26.92
-4.8433
11.541
-17.548
-18.654
2.5085
-16.157
-80.075
23.864
109.33
-27.64
-110.89
48.667
14.811
-72.401
38.717
69.321
-32.492
-4.6731
62.242
-21.769
-15.932
56.043
-8.5557
-24.108
48.357
-8.8269
-41.01
39.744
31.623
-43.664
16.578
91.412
33.385
-102.33
-54.377
40.774
37.75
-61.845
4.128
20.019
-34.393
-89.814
39.694
79.252
-18.904
156.31
65.686
-112.41
-98.505
-30.076
30.7
-27.072
-40.079
45.508
39.229
-54.027
-6.1628
53.704
-17.207
-88.287
13.258
56.842
-18.965
-54.755
59.965
62.211
-58.291
-20.638
167.14
280.22
-89.327
-331.01
-105.05
-12.323
-54.212
48.276
89.969
169.51
-0.57712
-107.7
-6.4825
-86.905
-56.275
58.814
57.691
-25.51
-25.344
60.104
40.981
-24.844
-26.031
45.163
65.476
23.256
-6.4634
43.009
-37.322
-131.17
21.43
200.08
30.1
-116.85
-88.247
-18.531
-10.855
95.342
7.8298
54.226
13.536
-197.66
-69.551
11.005
157.79
-17.659
-251.66
-17.283
0.78886
80.038
-53.172
53.124
102.97
33.037
214.57
40.307
-117.85
-56.953
-14.523
-105.72
-50.15
89.991
89.203
-21.699
-111.06
19.104
22.492
198.23
-34.989
-356.25
14.595
281.36
-31.016
-138.48
179.14
-217.69
-151.91
280.17
165.64
-319.3
-293.62
131.75
53.805
17.628
124.33
48.128
-7.2001
60.418
52.372
-18.587
15.245
51.511
-7.7188
14.043
119.24
58.984
-131.26
-75.876
-25.493
90.529
272.03
-20.766
-229.8
-122.61
-89.857
-71.466
-69.506
31.051
32.375
-7.9358
7.4782
104.45
28.883
18.583
34.494
-43.768
-82.384
7.2998
35.553
