58.424
-64.528
-219.19
158.73
206.9
-137
-72.813
-68.102
-119.58
-109.12
97.17
61.916
-68.996
-167.82
188.99
202.89
211.18
176.76
17.262
-408.13
-463.99
-56.849
115.43
138.79
-18.953
-63.182
147.7
309.35
203.37
-200.88
-165.32
-51.17
-124.92
-295.18
-108.96
205.18
-15.578
113.37
227.72
210.78
6.0805
-250.42
241.21
-45.632
42.642
32.646
-277.24
70.612
196.65
-42.615
-288.6
-94.052
-151.65
11.459
193.3
16.706
2.3009
78.447
-44.165
100.45
-42.577
-57.298
-58.363
-73.567
153.87
-1.4591
5.7934
291.85
68.18
-348.55
-88.345
177.83
68.852
129
214.9
-121.1
-243.48
-203.99
0.83906
-24.752
-102.24
-19.224
27.88
93.881
-18.576
75.126
168.01
-54.478
-233.93
-20.747
-57.023
425.93
-0.24611
-388.76
49.452
128.87
-72.406
-81.877
226.58
184.83
-59.565
194.93
93.445
-456.19
-222.89
96.527
-40.124
-26.423
157.39
86.344
149.26
16.86
40.946
-118.91
21.623
-9.3155
10.226
-117.92
-295.57
-50.815
-152.63
7.636
146.67
185.26
32.451
175.49
172.69
-176.12
-4.3044
127.06
114.98
-84.81
-338.57
-25.094
-62.733
48.944
210.19
206.57
-169.42
-46.344
175.22
-70.505
120.24
-127.5
-316.99
-227.25
112.01
235.15
172.46
-47.859
-96.905
-4.8892
231.19
-139.43
-301.37
-155.6
227.65
355.17
-426.21
-242.83
153.79
219
13.766
295.57
-53.779
-198.78
-15.339
89.372
-22.211
153.36
56.473
-92.036
4.4228
121.86
174.96
-308.8
-369.16
-8.854
64.076
13.591
192.74
166.01
-133.58
-85.154
20.241
-131.55
-52.625
92.727
273.53
-55.857
-112.72
25.181
-110.47
-205.9
47.4
154.89
0.53692
112.38
320.75
45.55
-475.23
-35.73
166.25
258.38
119.97
-421.26
-168.22
-26.548
53.328
8.6147
-15.107
40.808
-72.887
-9.6498
134.88
25.587
-24.732
175.02
130.13
-36.932
-141.91
12.119
56.276
-88.602
23.602
202.01
1.2763
-64.282
129.9
-276.98
-256.41
2.6455
77.349
32.301
32.751
39.074
-20.091
-142.4
-7.69
97.79
-16.787
-97.423
72.102
98.359
-33.493
-53.616
92.039
41.739
-69.463
25.377
82.036
-36.648
-89.795
61.638
68.226
-55.761
-87.63
64.417
64.062
-57.66
-58.887
12.917
18.986
-38.606
49.531
-29.881
-59.139
-30.304
1.9141
98.394
-18.366
-71.126
150.59
80.226
-99.079
-84.496
231.37
149.32
-274.41
-35.241
195.31
37.267
-399.76
17.254
98.036
-148.54
51.102
144.57
-96.195
-29.958
219.71
354.85
-58.649
-159.73
-52.158
-52.653
18.003
106.6
-265.82
-154.37
192.79
48.707
-100.52
-40.385
126.99
157.56
-13.659
-343.72
15.433
-98.842
8.1053
253.18
136.96
-154.15
-42.522
-63.972
-55.297
-46.143
169.05
-69.385
-161.06
59.979
120.55
9.3406
66.874
253.4
243.03
-287.25
-334.67
34.772
114.13
44.519
-44.488
-2.1737
-155.18
-2.4898
294.91
238.11
-135.55
-219.97
-130.6
-155.44
42.928
6.5325
-59.46
-36.095
387.56
92.035
-160.07
202.54
-229.27
-345.19
-0.6478
326.26
17.761
-61.254
244.66
117.31
211.15
-49.238
-144.01
-244.81
-169.12
50.39
-130.14
-148.02
133.25
78.84
57.949
91.181
-35.506
-52.385
-136.49
46.278
175.13
98.637
311.63
-190.66
-310.61
-127.79
156.59
57.341
-93.217
70.428
64.669
-69.265
46.617
277.32
57.191
-176.16
100.4
30.219
-54.098
-128.57
-222.97
-45.856
-115.26
11.638
113.99
-5.2774
-0.51461
308.67
-17.401
-316.13
-234.98
102.46
329.56
123.43
-102.34
-183.35
-75.309
-18.529
64.358
249.75
-10.261
-281.79
217.46
195.14
114.73
75.849
-108.24
-1011.6
-306.49
664.37
228.66
-102.13
69.947
254.93
-53.378
275.83
-195.38
-147.29
-125.04
66.553
276.81
77.495
-256.51
-114.41
-34.296
33.377
186.91
111.17
112.33
-345.18
-11.07
217.55
72.251
15.962
-84.504
-78.936
124.9
-162.12
-197.5
-30.367
-112.81
8.5505
229.59
-6.6297
-146.12
105.2
57.859
-87.621
168.02
359.47
-374.11
-421.49
-15.456
314.86
135.67
-220.3
7.9387
88.077
49.915
207.77
48.284
-58.461
-190.64
-138.99
49.374
47.273
-39.472
238.88
105.08
-92.79
110.23
15.326
-208.5
61.085
-141.98
-141.46
-35.793
269.66
136.3
-374.71
-87.03
101.42
-111.73
-71.555
52.25
147.76
99.3
267.68
134.88
-517.09
-73.886
255.1
-9.3003
-159.05
5.4404
108.71
47.596
-87.643
2.2958
97.654
12.007
-120.73
30.389
100.17
25.764
-90.963
88
152.51
-20.419
-159.37
-108.66
14.239
11.119
-143.16
-125.92
89.16
67.889
-57.228
-69.298
204.44
143.81
158.36
-282.31
-96.577
44.128
24.679
159.04
-14.191
-23.83
-88.329
77.818
-9.8397
-9.2689
-102.79
37.883
101.73
-25.538
-108.74
-49.898
56.232
59.515
86.855
-27.366
32.609
-43.282
-80.688
-0.16956
27.371
-23.32
-53.901
68.255
55.866
-17.99
-74.368
162.65
116.9
-109.48
-135.98
-2.6118
56.441
-35.013
47.767
37.445
-48.129
23.028
219.19
88.968
-363.68
-204.18
-96.394
-82.074
149.29
107.77
-7.9831
93.569
73.726
-22.705
155.48
36.346
-196.5
-135.56
50.902
160.22
265.93
-24.456
-222.59
65.144
-229.89
16.727
-24.643
-95.344
-75.724
35.02
141.44
34.488
234.03
77.867
-138.51
-161.95
-147.55
-22.455
47.31
-71.354
137.69
247.99
-320.97
-377.16
-14.635
175.12
3.0208
234.08
142.17
5.2961
-135.81
124.32
114.47
-192.6
18.712
193.1
37.925
-92.129
240.72
-40.414
-478.07
30.241
130.19
8.0364
-20.655
77.166
91.023
-57.333
-13.376
94.925
-132.01
-68.439
69.183
183.87
190.37
-313.16
36.359
150.89
-97.965
-291.26
-129.38
107.08
21.203
-3.9288
-19.221
-88.307
-90.326
155.49
222.26
-73.725
-195.58
175.36
316.43
-209.53
-328.39
129.99
21.441
57.099
219.54
-133.09
-78.449
162.61
-117.61
-55.022
-43.742
-104.48
-64.234
-5.423
148.92
79.467
0.61185
-56.498
96.406
28.073
-53.836
138.54
-33.706
-130.96
-31.486
169.79
32.909
80.71
273.73
46.633
-439.32
-354.44
-61.878
60.993
235.91
183.86
-183.25
-57.501
-16.357
-93.812
13.603
125.19
-7.2443
-51.714
65.361
71.835
-26.424
128.12
124.76
-127.69
-8.2491
-31.662
24.213
64.998
-34.789
2.7545
145.92
102.73
-349.29
-129.44
-14.933
73.637
37.076
-110.06
5.9401
11.437
78.387
-2.2507
14.039
-74.003
39.995
359.07
38.584
-437.16
-138.45
172.69
331.44
-131.61
-390.04
-16.177
414.23
66.635
-441.33
-241.98
9.5376
316.49
32.848
-106.23
32.802
100.87
-96.47
9.562
280.83
339.15
-110.22
-388.84
-77.575
-103.82
-0.19139
105.35
51.556
-39.162
110.46
39.813
-135.33
36.872
303.1
214.13
97.527
-5.7082
-309.6
-564.77
-98.807
173.09
-19.614
-24.117
159.2
83.206
49.543
89.211
114.32
197.17
-197.59
-326.07
90.211
89.709
-158.55
-109.53
94.563
123.8
105.53
68.977
36.953
-104.36
-107.21
-21.265
-53.181
-43.675
119.42
67.633
-78.298
-65.155
-207.83
-150.71
-66.127
204.19
-74.034
-126.39
172.97
66.077
-63.223
154.3
70.368
-48.666
157.49
161.5
-35.289
135.25
230.05
-97.644
-354
-188.83
109.25
84.79
247.46
208.38
-258.6
-310.63
-203.44
-28.001
97.261
384.87
13.227
-536.99
-47.267
214.71
-48.404
-233
52.636
237.18
25.665
76.585
288.76
197.9
-220.92
-252.96
26.976
-111.28
119.95
412.77
18.973
-233.41
-54.586
-226.83
-376.48
-67.069
231.63
490.76
-92.643
-410.04
120.61
333.06
0.89216
-29.726
-53.261
50.681
-54.129
-128.25
-5.6423
82.901
-98.41
10.046
81.627
-46.237
18.278
79.227
-30.842
-25.922
30.872
-1.4437
46.592
38.319
112.3
102.2
2.5158
-11.613
-0.08185
-34.875
-29.064
-310.22
-419.89
-141.68
-89.095
132.54
27.441
28.674
407.81
59.897
-200.72
13.242
-63.16
57.156
103.94
-19.88
38.443
73.922
-25.533
24.529
60.017
5.1489
-0.28294
66.545
-18.122
69.74
69.373
572.72
551.59
-776.27
-163.77
-54.198
17.44
-34.534
-33.783
-108.26
-334.53
-118.83
68.078
36.987
-25.242
16.951
-110.64
-88.582
317.17
26.892
-340.44
-49.405
-4.1509
26.026
66.197
117.1
26.188
-20.589
58.442
63.892
-7.7782
-17.749
37.196
26.748
-48.887
41.298
22.14
71.407
15.812
696.14
338.58
-621.64
-59.323
-88.221
-65.996
-330.16
-64.237
118.72
-135.03
-1.2841
103.26
-185.2
-244.5
-140.53
-9.7217
228.91
305.3
43.782
-50.146
-5.985
76.498
29.613
-29.562
48.809
42.891
-30.773
1.1408
74.762
12.378
86.916
267.55
128.86
4.8046
-38.243
-61.668
-138.81
-342.79
-178.03
22.476
25.73
44.629
-37.11
-51.691
2.8812
-174.9
-87.367
235.52
197.24
-174.28
-202.35
7.4451
-60.921
-44.713
124.66
58.644
2.7164
113.63
63.625
-61.202
65.015
143.17
196.64
233.3
71.751
-289.21
-254.65
110.92
238.43
-108.91
-213.65
-50.01
-76.986
-76.281
2.0408
32.65
-42.118
-140.5
-109.59
-37.482
30.665
70.628
162.2
45.924
-10.532
70.932
79.479
52.229
22.385
65.344
-40.584
-68.597
21.772
29.969
-0.2263
13.909
-19.105
-28.897
-2.1894
28.965
24.684
51.473
-8.38
-46.633
27.641
-0.73435
-19.773
25.944
4.5546
-129.34
55.4
19.467
-51.23
53.12
10.73
-38.903
-25.431
28.343
37.726
50.581
54.768
-52
-70.303
-31.899
3.8951
-0.72798
-21.549
9.8264
-39.662
-21.025
20.281
28.079
-22.622
-45.427
36.935
-24.358
16.154
145.46
92.581
60.071
36.359
-236.95
-184.56
-12.513
-37.603
69.465
99.433
30.251
137.84
27.714
-194.27
-125.86
-5.2872
-18.711
20.991
46.508
-9.3452
19.241
26.261
-26.751
16.795
15.087
-47.184
65.177
223.09
234.37
-135.46
-175.38
-176.95
-214.16
-70.419
1.9414
82.654
148.42
64.06
-65.781
-28.856
23.558
-117.63
30.652
191.16
40.494
-16.344
48.693
124.86
-7.1889
-114.32
-19.514
-17.15
-51.849
-0.98098
105.24
86.986
196.77
106.91
-76.858
-357.21
-226.82
-64.338
59.069
60.801
99.221
-35.041
-89.439
-0.76292
210.79
-64.581
-309.56
-44.461
135.48
46.733
-70.245
38.714
97.55
-23.462
-59.531
89.655
70.866
-57.873
-68.369
218.7
10.273
-170.1
-65.31
24.381
189.16
164.34
38.088
-159
-153.09
-86.886
-26.295
58.482
45.739
-40.335
-28.18
82.625
53.311
-62.961
-22.546
129.4
104.34
80.173
136.62
-229.3
-329.25
-221.34
-56.708
434.62
200.11
-175.31
-73.871
52.694
13.661
-85.295
14.583
94.061
132.45
86.787
-62.406
-49.57
-144.41
-222.42
35.273
66.681
-47.447
-90.069
110.15
82.744
-88.813
-5.7119
219.66
255.27
-185.84
71.999
69.26
-136.34
-89.692
234.36
-12.782
3.5727
121.4
39.549
-20.387
-362.12
-137.98
-76.545
68.19
-222.85
-98.567
111.43
29.2
123.71
225.7
-2.6389
-104.24
-160.17
91.515
49.983
11.662
-4.2881
32.007
-41.844
-27.449
109.13
111.81
127.17
234.49
-57.493
-65.15
-291.93
22.914
209.42
-293.04
-374.7
165.19
194.97
118.25
-14.77
-94.972
-47.143
34.556
61.26
7.1859
105.45
26.626
-130.48
-104.34
-66.918
-21.574
-180.19
-190.25
-5.8903
243.1
133.16
-36.105
161.15
195.51
-82.588
-154.58
33.683
-8.7941
-44.279
97.088
63.876
-35.34
82.926
149.63
258.16
-65.224
-225.37
-209.17
-245.83
3.1899
67.242
15.687
215.66
271.36
-135.51
-156.83
-50.798
-113.52
-40.645
85.131
-17.407
-230.1
-181.58
182.84
100.88
-22.896
145.77
148.44
-71.835
-2.5156
117.7
249.3
2.3326
-160.85
-199.77
-182.94
74.452
276.05
-44.728
-195.79
95.496
51.021
-51.116
-93.906
20.193
-132.2
-29.026
34.134
-82.277
95.257
159.03
-18.413
12.301
73.689
-72.383
-35.1
47.522
-22.842
-75.845
111.07
170.98
9.6889
-82.992
6.415
24.277
-122.61
71.033
237.56
-207.45
-0.06736
-56.151
-138.18
-173.31
152.33
379.9
-135.13
-266.96
42.282
30.011
-86.758
-95.746
-110.6
-17.633
-23.275
158.7
110.25
-46.942
45.95
187.87
273.85
-74.013
-290.3
5.8551
-78.869
107.8
40.388
-106.3
4.1116
113.19
-139.46
-117.29
7.2314
123.49
47.978
105.76
131.1
-218.95
-226.42
300.21
31.966
-343.46
-39.713
111.15
32.696
163.45
370.87
-176.04
-354.12
278.06
247.75
-140.76
-253.36
-320.05
-196.32
3.4155
205.81
84.243
221.16
447.21
-87.611
-83.199
-63.577
-498.21
-183.54
200.24
408.23
-186.8
23.224
199.74
-233.59
-113.72
-38.496
-96.852
96.01
427.14
193.59
-322.71
-244.86
33.93
221.1
-43.622
-54.162
-90.777
-117.35
84.352
22.868
-2.0102
-10.754
-76.198
63.448
66.348
42.246
54.769
-57.458
-168.83
260.44
335.67
-401.62
-168.37
149.45
252.76
-243.79
-251.77
3.1254
21.482
255.91
240.24
18.505
-60.767
-266.5
-288.14
2.1589
309.08
191.14
93.451
-50.224
-240.05
-145.45
-8.7691
29.718
-121.34
164.49
177.86
85.581
-80.785
1.4969
17.689
-100.65
99.883
-2.4345
-217.67
-3.0852
137.31
-28.495
-37.113
53.287
-49.464
-16.211
2.059
-215.38
-141.32
303.11
229.73
-167.74
-63.38
72.594
-42.868
-14.642
192.41
31.073
122.36
-30.268
-242.04
105.17
164.8
-214.01
-193.9
-62.203
121.49
255.65
118.76
-153.57
-259.69
36.03
-24.906
-30.679
48.065
110.77
-109.21
178.71
141.63
-171.2
29.85
-91.261
-93.825
48.805
-139.16
-271.25
40.842
425.3
323.05
-110.8
-341.24
-146.27
-94.587
375.36
252.56
-313.73
-38.949
153.2
26.452
-107.67
-14.449
-22.845
-79.065
-16.156
152.24
80.465
67.641
154.8
-85.416
-165.08
-86.834
57.607
7.363
-65.51
69.837
273.19
124.39
-287.01
-151.2
-15.075
-100.51
-33.051
5.4798
18.643
-17.025
103.82
100.92
113.2
111.05
221.12
-3.6463
-326.55
-186.81
10.222
-174.76
-224.27
-39.693
91.814
78.784
194.92
394.53
-119.82
-290.01
122.39
-54.586
-371.64
-13.381
401.35
51.549
-197.8
41.119
55.94
31.82
65.412
-87.441
-61.23
98.061
46.051
-37.314
39.112
83.543
-39.089
84.419
288.21
-84.114
-444.22
-174.45
157.95
98.853
57.283
14.217
-95.903
17.84
149.44
100.04
-320.41
-127.68
-339.65
41.089
418.65
178.6
-155.07
-85.069
101.32
-100.52
36.733
211.04
-30.33
-118.69
122.92
14.46
-88.989
52.31
89.679
-45.834
-60.324
64.767
156.84
94.275
-80.277
-71.545
-151.06
-147.98
21.736
67.16
-1.5796
-264.33
70.917
193.69
-7.1229
20.574
-8.415
-106.65
-72.567
93.858
65.443
-57.835
59.823
-18.875
-175.99
65.026
148.6
-55.516
-60.526
119.06
6.8894
-69.143
0.6462
260.39
11.279
-32.471
4.8917
-13.861
-2.1566
-102.1
-162.69
-212.77
5.4871
127.91
12.212
93.68
108.02
121.38
-0.31327
-82.188
33.62
-188.98
8.1526
3.3967
-55.188
98.207
-38.881
-63.593
-38.665
147.9
23.258
-94.977
84.665
34.817
155.87
263.84
22.914
-422.18
-288.56
46.928
79.555
-21.699
80.295
184.23
-106.96
-225.78
26.204
210.31
-226.78
-52.34
165.75
27.222
-0.48421
20.684
31.764
-40.135
25.162
214.83
136.17
-146.99
0.99426
157.08
-58.069
-356.58
-255.3
34.476
25.676
301.2
230.93
-88.764
-288.21
-68.047
-12.211
-68.357
106.79
79.171
-46.632
14.232
105.14
-37.071
-99.426
51.145
85.671
16.846
104.56
135.71
171.51
-138.15
-240.69
-146.39
-83.031
37.418
110.65
100.45
215.48
10.302
-390.94
-321.62
-58.092
242
276.67
190.45
-105.2
-70.891
-119.17
-150.98
250.65
24.839
-197.62
-99.296
105.67
65.253
-29.09
198.44
95.981
37.52
-22.413
-143.24
185.99
-266.26
-151.14
66.756
16.263
-104.55
-44.717
92.94
78.143
-4.3813
106.53
-93.408
-137.58
-2.9849
114.31
133.67
89.47
131.14
-123.69
-22.397
-52.667
-15.395
-163.8
-228.65
-86.044
176.48
203.58
179.78
-103.39
-97.923
128.55
-113.1
-202.59
84.995
73.479
130.1
209.91
-101.14
-132.47
-212.49
8.8719
267.88
143.79
-375.14
-2.0493
187.85
-79.738
159.71
262.08
-70.582
-335.11
-218.71
109.47
-90.182
10.035
115.02
101.26
-42.732
-99.325
202.38
3.7267
-245.78
43.64
216.47
155.7
75.03
-97.19
-252.71
-21.893
132.96
-53.725
-223.47
6.679
329.21
-73.413
-307.57
-47.263
62.35
109.7
252.97
38.294
-189.21
-106.68
71.295
182.15
-43.094
-46.734
41.386
-159.92
-141.29
61.476
105.89
37.796
-91.561
54.754
94.381
6.9626
14.427
274.13
-35.279
-238.28
-170.74
-90.279
162.7
-47.577
-34.467
-5.1821
-161.09
11.869
191.62
63.996
17.014
188.63
102.71
-37.77
80.402
-37.559
-89.104
-82.542
-95.121
19.435
-36.819
-42.835
-79.766
-78.04
-82.511
-41.86
141.34
151.21
-187.02
-291.29
119.51
126.27
151.7
88.931
-43.299
380.72
387.9
-546.77
-61.528
202.57
-186.03
-272.16
132.46
-29.064
-110.94
108.23
-36.374
-60.214
109.13
171.92
-30.409
-55.048
-35.299
-57.913
14.257
1.287
-48.739
9.7855
54.302
-143.69
-69.254
67.775
-67.626
4.345
65.091
33.147
54.668
216.76
-51.005
-131.49
153.72
-130.21
-5.3499
53.477
-52.433
-11.096
174.25
-11.597
-167.88
-65.276
152.8
-112.72
27.44
-73.982
-18.072
88.641
73.446
-44.532
99.005
21.96
-355.63
-264.72
188.6
289.17
331.17
87.686
-366.66
-321.68
150.11
220
25.327
-7.3307
18.66
137.1
-123.96
-61.931
59.17
-243.68
-170.87
175.88
367.25
197.75
-284.88
-566.72
-102.61
-48.395
155.2
172.21
43.096
150.18
501.88
70.023
-182.65
-243.34
-152.82
-9.0665
-114.93
7.9027
-32.883
-41.535
63.273
251.85
28.861
-269.48
73.21
279.33
43.76
-159.86
-106.92
-226.07
17.282
341.95
-120.47
-221.86
153.33
410.41
-174.3
-290.34
67.485
36.293
65.606
-43.261
49.295
-50.687
-131.73
26.845
88.518
-86.892
82.729
228.76
-122.39
-148.2
93.74
297.57
-347.78
-219.66
121.56
27.747
11.64
63.235
226.86
272.4
-82.99
-263.58
-104.46
-285.5
68.746
158.29
134.81
-306.66
135.73
-14.234
-155.1
-52.541
-9.3195
-63.821
73.2
281.62
139.9
20.983
69.25
-0.77497
-7.4072
-5.4288
-27.372
-326.16
-105.41
104.46
17.842
2.3141
123.85
-47.537
138.93
368.34
-46.213
-345.56
-122.34
-155.63
-70.113
-62.801
138.29
426.19
170.23
-352.95
-154.95
97.3
22.283
-81.712
-76.851
-234.15
57.818
215.99
27.81
92.24
22.017
-26.911
-50.294
177.1
127.04
-73.943
-48.15
-188.57
7.3653
-44.637
68.092
-26.342
-46.026
82.505
84.159
-125.67
-26.384
158.81
300.82
-94.414
-302.67
6.6158
34.207
265.19
171.39
-273.94
-208.12
-107.11
14.247
93.375
-37.329
-64.804
-46.884
-33.008
-123.06
90.144
106.1
-95.937
-44.429
133.86
185.27
2.812
142.58
-32.833
-197.1
-65.017
143.52
65.394
-227.85
-34.013
89.042
43.015
-56.374
60.484
105.41
3.4561
-6.2863
103.29
59.66
168.36
-53.046
-330.66
-40.022
-36.269
-68.343
241.51
-211.12
-142.84
361.36
255.98
-272.86
-240.92
320.72
-106.17
-219.96
-95.508
-219.64
-105.7
-38.321
261.05
190.85
-29.807
45.882
145.01
31.695
-100.52
85.498
65.328
-51.079
-72.6
80.198
103.77
-39.852
-86.181
-44.638
65.949
-16.417
227.52
270.24
-345.12
-344.82
34.968
349.09
-28.147
-163.19
-150.35
-160.7
-119.33
15.317
203.94
311.4
342.04
-45.848
-475.41
-371.22
-94.688
195.69
126.51
-31.658
102.79
131.92
-20.125
-15.462
101.09
61.666
-34.487
-31.569
45.515
27.072
12.567
-9.0577
2.0649
187.32
46.691
-232.79
-117.84
-150.53
-27.351
71.421
-63.859
15.115
208.66
313.4
-13.748
-382.43
-415.6
-108.56
46.944
334.13
150.07
-264.09
-2.7738
71.381
464.59
175.93
-401.17
-511.1
94.258
248.52
-10.002
-38.964
66.159
235.25
55.242
-421.06
-15.912
31.906
75.054
66.994
169.72
-55.819
-46.487
27.645
204.69
-118.1
-214.91
170.53
-157.49
-79.32
80.597
136.99
105.71
16.301
-104.64
-138.29
1.9411
80.153
-30.688
-22.321
87.924
-92.317
4.8065
-77.492
2.2066
360.17
130.86
-441.19
34.291
201.23
-183.69
-255.77
2.8346
11.68
-98.742
84.932
148.03
241.7
-10.01
-167.62
4.9081
172.86
367.15
-129.64
-524.92
178.95
-66.098
-252.58
-11.706
131.28
88.869
37.275
187.16
120.53
-142.03
-86.057
174.62
86.808
-186.43
-64.323
65.691
-348.97
-75.899
147.09
90.402
-117.33
35.59
151
97.482
-75.123
-18.583
-6.2023
-25.804
155.84
160.72
-124.06
-88.932
-282.59
-47.272
-66.053
24.177
470.83
303.84
-234.51
-593.76
-122.86
113.92
209.67
291.56
-160.4
-150.45
100.27
94.984
-141.58
26.019
278.57
367.09
-288.52
-236.36
73.035
4.2583
81.401
-41.834
-113.29
-21.378
84.902
89.531
-223.07
-148.49
165.76
-98.927
-123.24
204.18
32.502
-61.491
358.11
-116.7
-450.15
-27.659
261.45
77.246
-73.771
55.079
-1.0755
-33.089
268.54
101.42
-324.78
23.228
-195.55
-18.089
178.93
36.163
152.8
197.93
-218.99
-212.04
54.719
118.61
-68.559
-267.97
-139.13
89.603
124.73
-84.581
-23.121
125.82
75.096
-163.66
221.33
95.645
-242.46
-66.426
88.252
64.853
-66.451
-15.589
56.19
-19.092
-74.925
44.189
40.247
-79.197
-15.728
82.824
-11.67
-51.075
91.151
95.006
3.5249
71.78
218.19
187.01
92.02
-234.99
-213.4
-82.436
-363.29
-5.5253
31.723
-33.569
35.47
299.78
382.53
-187
-346.54
42.97
-112.78
-24.736
70.639
26.571
-29.857
63.125
205.06
38.714
-160.41
24.527
99.452
-46.876
-194.85
-1.3473
104.26
61.2
-139.46
-2.9967
36.6
278.21
222.28
-442.68
-236.39
222.44
299.41
-105.7
-135.54
-95.904
-167.32
-59.745
100.79
35.75
-48.256
37.625
72.458
30.918
98.35
106.89
-89.557
39.144
263.81
-250.51
-399.11
-46.434
125.03
27.547
-64.287
23.484
70.035
23.601
66.326
82.365
-31.606
-41.543
239.06
258.59
110.68
-133.24
-278.46
-85.196
-132.74
-17.016
-5.2353
4.5662
-31.056
-54.099
206.47
-222.66
-140.21
172.69
11.639
-161.4
23.021
21.105
34.939
154.21
143.75
0.84175
170.78
254.62
-45.843
-251.79
-173.19
-222.75
-126.07
289.97
278.47
-335.04
-93.974
198.12
306.6
-150.67
-302.62
-65.419
-114.43
21.589
-26.135
-29.364
146.23
81.824
54.07
150.65
62.602
-49.881
-45.782
18.497
-150.64
-116.65
81.671
2.3189
46.15
298.61
-136.88
-186.65
230.77
122.99
-112.94
-258.24
-82.228
12.813
401.65
236.56
-429.06
-455.4
84.028
133.81
182.83
177.17
131.41
-361.56
-149.35
-4.0654
-122.45
80.544
132.3
58.742
13.845
73.073
-2.626
-0.36513
210.41
-101.68
-186.2
208.28
0.23589
8.7493
148.28
77.49
-94.106
-306.36
110
-36.773
-115.93
195.04
-259.33
-375.64
52.453
157.97
2.9436
14.622
106.85
-43.237
29.629
117.06
-67.6
25.235
197.35
256.65
109.58
-233.9
-7.1535
-37.933
-43.038
-85.31
-119.41
168.53
-13.518
-173.48
-45.003
74.555
21.411
-48.979
18.262
69.416
-0.82367
-51.666
5.3026
35.08
-56.609
32.529
184.57
-215.65
180.39
-164.39
-246.28
56.406
26.757
-93.415
9.0172
267.26
-65.046
-87.684
307.95
-63.228
-396.09
91.922
67.78
-83.297
81.63
169.22
-5.6903
-56.058
77.314
60.235
98.546
107.18
-97.18
-196.12
-88.221
124.31
173.57
215.03
-4.9902
-377.52
-77.84
-171.39
-5.2949
157.71
158.86
54.567
-100.09
-46.52
-61.039
79.076
-11.334
-150.54
-116.13
-33.964
151.49
119.07
15.788
-34.502
200.55
77.713
-179.51
16.576
224.24
148.48
-254.77
-258.42
-17.043
-67.764
-36.371
122.12
23.347
-97.116
-7.6427
49.862
-1.9022
1.7439
74.115
-14.08
114.75
140.3
-112.87
-71.569
-61.238
-10.442
51.489
284.47
-161.76
-316.74
-30.532
39.132
165.86
237.32
258.26
-214.18
-421.37
-143.25
69.045
104.42
47.043
12.088
294.02
81.406
-323.46
-55.79
210.77
163.26
-353.4
-170.62
234.86
-21.008
-288.36
-61.066
132.65
366.33
-117.67
-252.84
361.04
314.9
-98.338
-367.21
-172.05
67.659
-10.084
-27.571
76.5
127.84
53.999
-449.24
-92.205
18.71
96.638
250.87
193.94
37.498
-190.48
-48.211
30.787
36.776
-14.216
-45.859
71.039
-2.307
87.017
185.93
-127.15
-101.9
41.745
57.596
-67.28
-121.53
16.446
-58.73
243.75
105.67
-411.27
-68.149
185.96
15.037
-18.921
-6.8719
-137.5
42.546
28.984
61.23
350.01
0.14974
-587.3
-62.889
197.07
-77.285
87.034
196.8
125.63
61.973
-73.781
-265.78
-123.83
44.382
38.2
-5.8504
137.33
288.52
100.2
-266.26
-42.268
46.753
-286.58
-43.553
-20.754
20.796
278.94
156.65
141.83
-240.51
-269.15
-92.261
31.817
294.44
85.227
-179.84
237.37
-6.1129
-262.43
-8.5767
137.63
-34.06
-205.92
-76.019
1.7867
-98.672
132.97
374.69
-168.96
-231.06
45.767
180.8
-94.266
-123.73
51.767
-9.3514
-45.659
110.94
71.192
4.89
179.85
38.868
-187.67
-115.88
159.53
329.97
-169.79
-310.74
282.05
163.73
-230.79
20.259
107.96
-341.16
150.94
47.212
-237.21
-120.62
58.001
102.76
-35.484
-30.278
96.203
22.4
-204.73
-190.31
124.73
429.92
145.98
-323.3
-125.42
143.6
-152.63
-7.9341
85.301
-106.86
66.863
102.16
100.26
22.902
116.31
-29.205
-160.79
82.396
211.11
-171.44
-157.92
123.3
-58.62
-204.83
69.129
177.83
-57.219
-199.94
17.814
174.45
26.71
-80.863
138.74
154.21
-35.567
-147.59
-4.3521
70.225
237.71
-203.64
-288.95
-5.4998
25.498
-143.36
-65.103
116.92
-22.36
66.75
208.23
-20.075
-61.466
63.424
143.03
-94.046
-172.57
71.897
3.4996
-172.54
-5.9742
73.753
5.8197
34.627
282.21
10.164
-229.67
160.39
314.25
71.472
-241.32
-341.25
-157.2
21.187
59.047
-37.147
-45.166
-101.32
109.16
44.838
223.96
42.173
-146
122.05
146.2
69.082
-347.57
-262.97
25.883
203.68
125.38
7.4727
-119.17
-161.42
124.67
377.81
78.794
-341.49
-90.342
52.277
22.816
106
-72.869
-236.24
74.284
341.97
-7.8893
-231.76
-109.06
60.789
-114.23
-62.979
329.98
-246.36
-269.73
-10.442
299.02
13.563
98.007
228.13
-140.9
136.82
-45.333
-137.99
-114.08
9.4268
117.99
1.2162
11.8
22.92
58.109
156.28
-52.733
-64.962
-205.71
-162.21
112.88
223.35
-125.66
-1.6475
170.77
-68.815
-182.48
-52.504
16.24
79.063
114.43
258.14
-275.06
-237.44
-19.294
332.85
134.51
-252.62
-14.455
-20.382
-45.703
131.4
-69.952
22.722
131.18
-92.354
80.452
-338.31
-221.02
86.186
37.034
7.198
274.96
192.36
-175.77
-192.79
272.2
179.14
-200.61
-137.25
84.897
246.82
-86.025
141.99
-90.048
-323.81
-124.08
47.177
190.08
78.554
17.033
-94.043
-43.14
9.3529
-36.931
48.004
9.5925
-1.4364
-88.271
50.274
186.18
177.07
-357.95
-221.61
150.25
69.032
-97.466
-28.928
133.77
71.862
-91.692
120.56
204.91
-368.07
-126.41
247.41
76.662
-145.59
-32.566
50.666
149.8
105.67
6.7533
48.832
-122.37
22.66
-37.883
-142.29
-141.31
-65.261
-0.68581
-64.466
109.63
221.04
68.639
-172.51
-271.58
152.84
197.94
23.266
47.897
-114.47
-140.08
-80.377
334.45
143.16
-310.99
-127.7
28.505
32.789
73.933
31.978
190.85
97.693
-130.91
-43.331
76.737
-15.754
-183.03
71.054
114.33
-18.811
-172.8
49.006
-36.543
-202.34
44.218
29.354
-64.188
-110.4
166.47
199.17
-29.087
-58.166
252.99
34.119
-311.24
-199.52
77.318
-37.899
180.83
433.56
8.8418
-191.73
-81.325
-44.506
-139.08
-58.398
154.05
-35.475
-292.08
-12.691
112.28
-18.074
136.66
187.81
-190.38
15.798
55.084
76.228
163.63
179.7
-224.11
-466.65
-5.9604
181.25
10.162
-38.549
131.34
31.432
28.61
39.637
43.136
-65.905
-68.655
64.098
87.682
-35.48
-111.95
-38.55
-4.2214
58.32
177.39
104.96
-101.84
-176.4
-57.96
-186.74
-73.244
253.89
23.623
-159.14
42.487
255.69
15.105
-4.3756
-127.58
-146.82
-72.964
84.469
89.449
43.93
112.31
-155.3
-101.88
24.225
116.26
50.453
-68.551
63.77
95.931
-46.466
77.846
108.48
-30.684
-206.67
-87.155
-11.035
-114.01
125.64
200.06
-61.647
-276.5
7.3942
73.166
-69.926
86.204
387.67
-141.58
-407.95
15.763
92.22
237.18
-165.9
-5.035
165.89
-104.85
28.587
73.374
-127.76
-34.863
39.099
-48.759
90.061
225.25
-23.437
-173.05
-24.171
50.095
-60.385
-139.79
-29.079
12.449
-29.245
-131.74
10.78
16.015
105.96
71.868
24.741
-37.698
-51.616
60.073
111.97
19.202
-15.587
95.135
57.907
-23.286
27.543
-72.105
-57.651
32.192
231.77
49.484
-327.48
-116.87
60.395
94.618
-42.528
167.09
-109.78
72.154
-57.98
-155.57
-98.13
-20.242
104.35
65.029
-77.97
136.11
-7.2083
-163.21
88.354
82.907
213.88
-88.068
-188.14
-75.518
-176.09
29.532
155.98
44.595
208.79
66.006
-183.08
-161.07
-42.541
105.62
44.665
26.669
-17.488
34.526
-36.838
22.748
4.0109
-7.7471
-39.369
-1.6756
96.528
7.1416
-42.903
286.54
109.36
-279.63
-423.65
-46.873
29.364
-40.068
231.01
347.49
4.0555
-352.07
-31.584
343.84
125
-513.74
-131.43
79.454
-10.126
112.6
134.36
75.915
-109.45
-8.535
-22.98
-152.65
68.169
134.87
-1.9977
-37.184
91.06
64.633
25.019
-107.04
-100.53
-59.39
6.1881
184.2
201.16
212.1
95.991
-15.773
-131.32
-431.51
-310.61
1.8086
-156.25
124.75
295.31
-172.65
-97.894
-14.06
97.986
-61.43
87.143
178.19
35.287
-45.52
134.91
-35.06
124.96
156.57
-332.38
-52.097
38.699
94.205
45.749
-25.366
2.7707
-67.23
-82.844
-50.387
198.03
22.456
-215.3
-49.886
83.678
61.584
28.526
68.492
-36.725
21.004
-103.16
174.74
19.915
-311.79
-19.922
14.974
-13.278
-129.17
19.832
274.21
99.19
34.508
120.31
45.977
-309.23
-87.261
203.54
-86.41
-285.43
-79.469
160.67
185.56
115.31
-96.264
-86.196
-83.95
347.2
214.31
-322.12
-354.94
-50.564
141.36
45.708
21.844
16.168
-51.855
-53.825
217.33
-111.64
-218.02
71.759
166.83
-3.8091
123.2
162.6
130.49
-109.17
-193.34
-8.5162
-127.91
-61.139
138.01
143.68
-61.723
128.04
-73.408
-213.28
-126.29
53.477
178.96
249.92
-338.35
-215.4
-14.017
120.31
94.505
-85.67
-32.227
109.51
64.642
49.515
198.21
273.53
-227.45
41.771
140.05
-450.59
-233.62
42.544
307.63
81.807
-227.8
42.377
15.451
-25.76
-5.7408
-154.13
74.85
34.743
-207.06
-65.693
160.13
88.088
-23.308
9.4558
100.25
33.711
-112.26
69.979
134.86
267.58
-172.57
-105.23
-141.42
-260.05
95.385
171.21
-52.004
-79.427
33.353
-98.399
-65.023
-7.5596
18.636
-207.97
79.88
284.43
45.056
-31.474
85.615
-234.58
4.0099
153.65
21.274
-22.806
93.514
-19.093
33.033
144.92
256.87
-56.909
-323.13
147.24
-135.33
-74.463
229.7
21.394
-206.31
72.996
219.43
20.387
-390.03
-149.23
16.298
3.0976
-96.367
74.88
324.64
-136.81
-303.16
155.55
200.01
-42.202
105.84
236.77
-348.72
-323.25
-11.43
304.37
418.63
-241.71
-454.32
0.72544
-30.277
313.37
234.32
144.27
10.141
-316.52
-74.696
-26.812
-41.508
14.338
-75.304
-77.586
107.79
336.22
-30.309
-177.49
35.029
-30.935
262.57
272.43
-95.101
-342.8
-147.86
28.338
-100.38
-209.89
6.3391
42.78
42.308
25.054
-62.819
84.511
-16.657
91.965
127.22
16.242
-153.75
50.434
124.88
-21.122
-58.279
78.674
74.56
-76.539
-98.306
48.994
76.022
31.524
273.68
53.201
-301.96
-76.718
296.14
139.69
-141.81
-490.81
-92.009
112.04
-112.27
-64.514
14.323
-89.135
13.453
236.83
180.66
179.44
-134.46
10.792
-122.18
-144.25
103.39
252.76
-195.06
-405.52
155.93
-46.963
244.94
394.38
-150.86
-245.34
-86.47
4.0346
-102.99
114.45
384.03
-30.276
-132.17
-52.9
-2.8344
148.96
-416.18
-229.84
134.08
-29.889
24.215
178.07
65.535
-64.845
53.042
93.882
-38.971
8.7271
112.86
17.677
-71.092
33.203
48.549
-88.631
-42.283
58.03
38.868
136.78
20.568
122.32
52.73
114.54
21.548
-74.34
-449.57
-437.99
-129.87
-450.93
436.75
135.22
282.07
65.117
84.48
192.14
-113.14
-85.232
148.6
25.882
-146.66
-18.051
-2.6603
-55.072
8.9905
57.213
-26.286
-58.279
58.919
40.299
202.69
220.51
-106.09
4.8348
-15.491
9.1291
-10.134
-125.8
-418.17
-225.82
64.775
203.36
133.44
-34.559
-116.82
-203.76
-53.015
31.881
-110.88
-72.238
137.57
67.79
43.204
159.84
22.312
56.312
83.293
12.582
55.097
69.278
-11.489
44.69
55.589
-21.055
-1.1305
-18.793
-53.709
-10.082
9.5245
-8.5574
-24.429
21.299
1.332
-8.3711
-23.286
-4.7931
23.568
-14.725
-13.062
-22.094
20.847
-1.3775
-17.101
-22.138
10.652
26.372
-19.141
-8.6247
-21.65
20.68
23.618
-41.365
-59.746
-30.106
49.472
63.737
-7.7003
-43.418
14.269
17.619
-1.3088
-13.007
20.603
10.817
-11.433
-15.74
5.4634
14.148
-8.0499
-15.173
5.9366
24.138
4.4029
35.715
61.209
-45.833
-117.75
-41.945
-20.875
24.797
27.746
12.191
6.3348
37.539
30.036
-8.9546
-55.243
-7.2911
41.555
-56.603
-43.116
31.295
26.98
9.8941
58.45
38.492
-77.426
-25.669
31.18
-1.4855
-27.828
16.934
-16.996
-29.295
19.829
-9.7681
-16.508
28.181
117.66
-90.443
120.91
-13.134
-200.71
4.0591
-54.779
-2.2288
21.078
13.892
-80.566
136.78
175.86
90.832
164.67
-180.4
-112.11
99.28
-438.17
-53.878
133.97
54.121
4.8366
31.841
47.316
-10.341
-12.515
25.29
20.163
-5.73
141.87
187.19
43.97
-120.15
-365.12
-84.221
24.137
88.909
146.91
-90.594
-10.404
-5.9323
-45.773
63.134
43.134
-70.521
36.435
38.69
-50.877
25.568
47.82
-36.39
197.02
119.84
-401.93
-271.53
82.567
190.16
110.28
-55.047
5.7654
192.76
191.15
-244.32
-234.43
-159.02
10.667
100.39
11.796
-137.98
24.011
135.95
57.856
-26.164
280.34
268.11
-80.21
-132.27
-105.88
-284.96
-202.25
42.939
147.25
116.71
164.41
71.586
7.0183
-105.36
-28.727
302.75
50.103
-326.65
-323.21
-41.601
32.782
29.879
338.42
18.278
-147.28
7.5213
10.873
-104.4
-76.533
223.31
284.01
-79.346
-188.92
-35.545
4.4193
-85.782
-81.452
41.549
-144.61
-51.803
182.63
61.807
42.284
-66.843
-109.91
11.579
-11.903
45.363
158.25
67.575
-212.1
94.44
146.12
10.331
-127.67
21.478
113.51
-41.452
-97.514
-69.767
-51.808
61.46
328.27
250.71
-53.334
-347.32
-240.61
-77.703
5.4364
-35.98
-90.357
-60.967
453.95
-54.495
-315.73
-2.922
257.11
167.39
-191.13
24.332
64.992
-32.142
2.0934
132.06
24.632
-107.04
-12.505
-11.393
-141.32
84.811
233.13
227.79
-107.01
-194.35
9.3103
-118.56
-105.38
152.02
94.32
-342.14
-102.08
66.22
-50.242
-85.367
112.88
144.17
30.808
-14.555
91.341
65.178
85.572
132.82
-49.213
0.45076
122.78
176.56
-3.9596
-320.41
-329.08
38.001
-18.598
-273.82
-134.46
195.86
66.265
63.414
125.75
-38.384
-24.766
-84.582
84.977
99.833
-25.156
-30.098
68.574
14.16
-90.117
66.587
192.79
136.52
166.44
14.067
-172.89
-229.83
-207.57
-35.63
84.616
91.021
203.58
-160.32
-103.71
22.747
-144.89
42.008
165.01
-0.46848
-15.272
-24.619
-117.65
81.723
181.49
-90.631
-316.01
8.8911
180.9
-35.625
-203.59
18.252
-1.8857
133.19
93.558
-17.737
11.524
84.13
-3.7432
-61.559
-115.34
-44.477
87.573
-64.191
46.425
210.75
23.171
-118.27
-21.396
79.153
67.639
16.598
-6.8229
-15.377
-18.21
-59.265
34.494
47.162
-23.858
-156.98
-15.3
52.972
-0.95868
-77.402
34.38
122.98
161.35
-134.51
54.707
345.78
76.808
-45.765
-263.94
-165.09
-84.428
-343.1
-63.579
106.03
39.767
-182.69
101.72
205.27
33.964
-60.991
137.26
28.309
-51.486
-99.456
233.4
370.3
96.908
-198
98.718
-13.923
-193.89
-157.58
-317.23
-90.421
7.0295
-123.11
51.986
369.46
288.89
-545.81
-167.02
143.56
133.31
6.0261
94.702
117.44
9.6735
66.652
36.092
-44.368
-69.916
22.873
72.331
78.353
-2.0556
52.011
-154.07
-213.43
-60.81
101.79
235.65
-29.969
-67.73
50.996
109.92
-98.927
-221.56
-83.884
-88.031
-19.868
93.527
85.193
-16.722
24.516
107.29
-8.2056
-76.823
19.254
-5.4412
-0.41254
-34.382
65.586
93.109
22.593
-52.157
6.3232
4.4296
-82.196
-17.067
73.469
17.154
-64.086
56.243
244.24
245.36
-144.78
-256.65
-86.312
-372.77
-49.605
211.27
400.52
0.86515
-528.8
6.2156
139.18
5.4507
71.829
94.901
192.97
-81.895
-196.98
-146.43
16.742
146.07
-4.2801
112.56
194.74
-269.76
-250.66
46.458
257.49
131.15
-152.77
-16.949
-23.39
-102.22
89.736
115.36
-89.321
-7.0137
54.495
-34.497
-6.3806
258.86
86.097
-209.89
-78.592
-23.25
-44.616
-136.83
-109.35
91.313
153.5
104.68
-150.95
-48.12
45.534
62.252
-52.544
-94.044
-156.52
-11.111
138.51
-7.1179
44.068
131.35
204.39
174.56
-108.45
-112.69
-181.03
-34.916
53.965
188.12
137.4
-218.11
-93.716
-79.352
13.633
324.99
-32.331
-234
110.95
-121.58
-211.51
-127.97
80.27
30.857
-50.454
233.98
310.87
136.27
-332.08
-131.52
-8.0017
-73.389
44.575
75.074
-77.843
-15.562
75.594
141.09
104.05
-97.034
-112.63
-21.459
57.29
78
-63.59
-71.243
16.276
47.773
77.447
227.27
14.685
-489.91
-51.826
225.56
370.29
-0.99702
-136.55
28.694
-332.58
-283.3
32.576
32.464
-97.064
42.095
146.81
68.057
20.29
139.2
-29.078
-35.555
-2.2251
116.17
24.61
-103.46
-77.099
-22.33
33.332
6.4339
26.93
191.03
61.767
-58.29
226.73
8.1083
-426.43
-276.89
65.721
200.77
370.83
-113.41
-262.86
-163.49
-167.55
186.96
466.88
-97.772
-343.76
160.59
52.291
-378.78
-127.66
143.15
57.507
86.601
139.56
189.58
277.36
36.961
-240.81
91.08
-184.93
-211.55
-123.36
-181.98
-85.937
130.69
187.11
-32.467
-48.431
266.7
56.646
-162.13
-67.11
95.748
27.21
-87.902
22.396
17.025
-81.615
75.47
138.16
178.32
147.74
-193.58
-62.652
-166.96
-224.84
116.61
34.797
-96.704
80.959
65.948
-76.1
-51.544
90.177
34.996
-50.497
52.847
83.957
-17.657
-72.858
31.784
68.972
-37.075
7.82
55.163
1.1204
-67.959
13.682
71.573
-0.70195
-74.301
26.929
19.805
-27.621
-48.098
42.991
-2.776
-35.158
-0.16464
42.76
14.426
-52.228
-10.848
12.472
30.752
14.685
7.307
-40.664
-38.694
-80.665
30.246
47.799
-89.564
9.0393
77.791
32.746
-13.314
26.979
30.823
12.912
33.585
63.342
21.104
-93.397
18.718
158.57
-60.999
-317.14
-109.43
222.81
241.17
-356.91
-254.08
72.901
57.395
172.83
-2.533
127.84
271.71
96.51
-248.44
-201.57
-89.636
-128.86
-32.2
-37.028
33.562
86.194
-1.4509
76.687
-53.585
-88.459
16.875
159.35
29.583
-158.01
46.818
182.48
117.66
-7.4272
-90.339
231.92
132.93
-300.02
-191.92
29.046
124.3
56.894
-76.785
232.33
-68.72
-172.08
-122.71
-65.634
133.53
74.85
32.318
-3.8695
-176.42
-147.83
104.57
-103.57
-21.58
172.88
-112.34
-74.379
33.793
-132.33
99.985
117.84
28.601
-34.354
293.61
198.11
-303.24
-68.57
91.993
-27.689
-120.06
33.27
96.596
28.175
66.755
43.845
-9.5342
-80.394
-101.57
-26.702
-72.066
60.978
308.18
-184.36
-110.51
174.73
100.01
-297.94
-200.23
124.54
223.07
-66.687
-145.95
121.83
56.676
-21.615
-84.948
90.553
249.77
-213.64
-232.4
71.196
-102.81
-24.243
114.48
267.87
-86.493
-102
5.1355
-168.85
-147.04
59.872
23.528
155.04
241.17
139.32
-313.11
-134.08
27.614
-61.079
121.22
178.34
-36.959
-60.808
18.11
-34.797
-47.249
57.294
74.644
85.231
275.27
36.689
-221.97
75.824
102.56
-251.07
-446.54
-205.35
59.156
29.821
-29.297
96.577
255.84
279.93
-88.638
-59.505
-205.56
7.6371
221.05
-30.819
-100.88
12.917
-37.834
-100.05
42.221
239.83
130.67
-156.04
226.73
-107.31
-422.53
68.38
142.28
-185
-37.828
143.27
99.149
41.523
39.679
-142.61
-143.88
168.66
35.9
-96.716
-40.292
12.629
-136.65
-115.09
86.448
251.28
88.555
309.75
228.54
-18.29
-55.238
-237.48
-496.03
-252.42
49.733
105.25
265.17
98.073
-165.17
-189.95
48.869
398.35
7.2581
-9.0014
34.682
-155.27
-535.83
137.95
-86.805
-55.126
101.98
12.485
252
312.99
141.32
-25.683
-123.66
-67.269
109.57
275.28
-344.7
-394.01
406.13
-23.461
-84.597
14.226
-73.956
29.758
-6.6776
-43.276
16.457
-51.553
-124.64
155.28
164.49
-256.48
3.9586
149.81
-38.618
6.424
33.65
-22.694
-22.115
46.185
7.6985
-33.651
7.4734
26.394
-14.947
2.1913
28.247
-11.351
-38.914
18.484
28.595
-19.716
-9.4786
31.119
13.072
-29.835
-6.9365
17.567
-3.8516
-22.325
8.3118
7.6375
-20.417
3.094
24.649
-3.3002
-28.137
10.28
16.701
-5.8387
-29.826
8.4124
16.037
-8.9114
-20.456
13.798
17.736
-13.41
-17.148
19.885
10.074
-14.095
-24.296
20.741
12.579
-5.9188
-29.095
3.1791
14.504
-2.8803
-13.154
10.636
14.704
-15.121
-15.719
18.154
10.11
-16.201
-17.264
20.461
6.1705
-19.578
-5.4236
14.132
7.9331
-16.488
25.862
11.223
-43.589
-6.3155
35.29
11.548
-33.563
-12.015
23.694
17.272
0.99778
92.904
81.728
-127.94
-15.322
35.688
22.258
-91.767
-38.759
42.996
-47.984
-35.094
67.827
10.595
-86.972
17.173
62.394
-64.854
-65.464
38.762
3.4675
-51.311
32.63
55.012
-9.9942
-31.095
65.823
48.706
-20.946
-24.056
-3.4928
1.7382
-32.625
-2.6605
24.797
-8.6208
-26.852
28.653
43.311
-24.023
-34.483
15.9
-9.2262
-18.706
-3.0731
15.731
9.3053
-33.146
-44.398
17.171
49.365
-15.508
-71.946
8.0021
37.585
-31.741
8.1629
74.358
36.34
-17.694
-4.7724
37.615
-3.9889
-25.314
15.555
17.223
-35.522
-13.951
48.854
19.076
-20.189
2.2057
19.556
-4.868
-31.107
-8.6111
12.234
-11.148
-14.706
14.32
7.3857
7.7739
12.764
5.7314
-0.14389
-17.472
-13.583
17.024
48.629
6.4751
-14.942
-15.349
-17.746
-26.773
4.2615
12.051
4
-13.85
-12.679
20.686
9.3473
-10.02
-11.055
20.592
15.57
-14.045
-20.189
18.184
11.629
-9.5905
-30.024
4.3374
14.797
30.727
-26.681
-17.971
33.865
45.305
-27.971
-33.236
-30.807
-3.4464
-14.196
4.9634
34.602
30.306
-19.222
-45.509
18.825
20.924
-14.19
-1.6499
19.392
1.4506
-29.117
4.3764
23.488
3.942
-26.869
4.1472
22.593
1.5325
-24.774
-4.1538
24.001
-0.59342
-23.212
4.4359
19.856
-9.4441
-32.375
19.717
25.533
-5.0205
-33.539
-9.2061
5.3069
6.7238
23.081
50.82
-9.969
-36.397
12.183
7.8017
-23.84
-22.143
10.638
16.611
-10.289
-0.0036312
31.544
-10.665
-27.797
12.495
16.774
-9.1492
-25.145
8.261
18.598
-20.471
-16.125
18.519
1.0384
-16.854
3.3951
14.938
-20.115
-4.0147
30.365
12.617
-25.929
-12.94
25.886
4.8244
-28.575
3.1035
18.612
-10.651
-6.2305
25.748
-1.6865
-20.841
12.808
4.1852
-24.177
6.5418
28.501
-6.4978
-19.746
23.119
-0.93962
-13.923
38.135
-3.9639
-46.638
0.10526
18.736
-15.957
-24.561
17.533
7.8638
-11.589
21.574
-0.54928
-17.138
19.249
10.205
-25.249
3.9516
22.837
-7.5985
-17.198
16.523
12.242
-17.567
-31.537
31.763
25.04
-17.462
-4.804
13.645
-0.77903
-23.386
5.0713
12.198
-12.98
-26.423
7.7266
13.9
-12.154
-12.501
16.007
9.2452
-19.132
3.918
29.011
-7.8382
-29.351
19.243
30.49
-18.104
-27.518
21.032
17.553
-18.593
-16.826
22.002
7.6316
-16.296
5.9726
20.139
-3.7757
-23.919
8.9021
16.601
-7.6976
-30.69
12.147
23.856
-4.38
-23.112
11.818
17.589
-14.676
-6.7898
13.783
-4.8186
-38.282
14.991
34.293
2.0952
-30.373
0.45796
21.309
-1.126
-13.411
14.461
17.598
-18.826
-11.517
19.753
8.4399
-23.449
-4.3597
23.424
0.51345
-15.138
-19.428
3.2168
15.24
-1.2307
3.4562
15.125
-2.2637
-31.218
6.7882
21.323
-3.7881
-31.154
6.1581
20.996
-2.248
-27.126
8.1474
26.255
-10.913
-25.473
20.045
19.925
-14.045
-28.26
22.314
16.339
-22.304
-38.401
0.68041
40.873
4.7503
-3.714
25.737
2.4394
-31.307
5.5281
30.356
-20.921
-13.945
20.199
10.489
-15.597
-8.1093
15.786
-5.2246
-30.102
-10.389
28.672
3.281
-3.7159
17.429
29.77
-20.418
-20.005
24.691
-3.5768
-25.805
8.3208
16.37
-13.625
-27.419
4.2032
0.53781
0.6235
17.208
8.7625
-5.3818
-23.619
-4.3554
37.698
-19.035
-15.616
-1.5518
12.933
11.959
-37.586
28.609
37.38
-44.36
-14.103
22.713
31.53
-31.571
-28.455
29.477
13.043
-26.937
-9.6462
28.067
2.7307
-27.656
15.52
28.699
-16.088
-32.001
19.361
28.45
-22.581
-18.45
18.108
7.3724
-15.611
2.3015
25.082
-3.4034
-23.465
12.974
13.744
-21.427
-6.2626
21.805
1.2415
-26.559
0.22074
18.169
-6.7689
-14.768
17.286
9.8159
-24.142
6.414
19.659
-9.5906
-26.929
17.039
19.834
-15.645
-21.51
21.589
10.361
-21.238
-10.685
27.459
0.11114
-18.529
10.749
15.664
-26.991
-10.35
31.278
2.274
-36.645
15.869
25.387
-30.706
1.4423
16.198
-27.698
-16.472
79.091
1.9589
-48.696
-27.226
52.498
41.29
-46.5
-14.217
14.67
-4.3373
-11.975
16.399
13.338
-25.692
-10.462
12.67
-36.687
-4.7741
69.966
0.39446
-34.809
-13.631
20.314
9.49
-19.803
4.6937
24.717
-14.555
-11.206
30.323
-8.0523
-35.514
34.326
29.842
-35.448
-48.21
13.504
3.2788
0.61304
20.92
16.645
-9.5791
-32.061
12.12
17.833
-6.415
-22.568
20.629
22.384
-12.307
-29.712
10.922
7.8355
-14.005
5.7701
32.996
-8.5468
-10.902
14.624
-6.1644
-25.585
18.6
22.049
-26.049
-13.157
19.711
7.1182
-22.946
-2.3292
25.941
-12.986
-10.547
8.7117
-13.1
-19.279
-28.403
70.869
64.155
-19.287
-20.975
-29.626
-19.173
-9.4622
28.688
6.0114
-19.143
12.909
9.4559
-10.43
-21.823
19.729
-22.628
-3.3508
52.474
-2.2962
-12.349
-26.148
40.128
32.487
-31.13
-56.202
-20.299
40.482
15.56
-9.5831
14.803
5.2431
-4.3174
-14.777
-9.0437
-17.802
-12.874
28.495
29.928
-16.75
-3.9455
25.586
-0.62919
-27.123
23.035
11.481
-20.428
-16.974
11.704
15.715
-12.756
-2.1967
20.655
-7.1012
-12.006
13.628
-4.4619
-39.208
11.449
25.818
-9.4752
-37.1
15.954
24.464
-13.903
-58.527
24.678
23.913
-0.096172
0.65268
11.772
10.993
-33.062
-28.168
49.273
21.498
-6.7818
-25.978
32.097
36.047
-12.847
-77.256
10.056
8.0634
-14.131
29.79
-24.612
-1.5956
26.688
28.9
-4.8749
-18.939
15.147
15.474
-26.19
6.2471
13.953
-25.312
5.9111
28.318
17.532
8.0747
-25.804
-11.542
30.201
-25.95
-11.256
-6.1168
-20.141
-11.211
12.735
-9.8163
-26.837
7.5349
45.782
-15.955
-32.229
17.217
0.49041
-15.727
13.608
28.674
-17.627
1.1534
19.342
3.4364
1.7877
4.174
-10.624
-14.046
16.459
10.474
5.1585
17.92
-17.613
-26.327
-10.187
17.712
-15.368
-11.504
18.334
3.4128
-13.536
-1.7598
15.452
-16.966
3.8908
18.717
-14.189
-6.1632
21.489
-5.4727
-11.909
9.5216
15.267
-8.8699
-8.0782
7.1275
-12.688
0.10195
21.126
11.676
-16.037
-12.192
22.709
-3.9921
-21.892
14.235
11.759
-6.8528
-5.373
0.1233
-18.457
0.12262
13.154
11.84
-5.6147
-18.999
5.3375
4.2906
-13.141
-2.9695
33.443
1.5431
-19.891
-15.374
13.103
-20.336
30.175
19.016
-33.311
0.72903
-20.792
8.3922
-7.4571
7.6723
24.827
10.891
-13.957
2.2601
-8.1774
-14.496
36.738
7.7663
-24.199
-13.98
27.013
14.251
-16.777
-8.1587
28.195
13.569
-21.956
-20.363
6.1698
-3.8385
-8.5516
26.314
8.4588
-32.012
-15.323
10.097
4.1137
-12.193
19.603
18.828
-24.643
-10.265
29.702
-20.898
-21.427
11.614
-5.1889
-22.552
37.386
29.796
-27.444
8.9884
23.217
-19.124
-26.419
18.315
-3.8446
84.442
224.03
184.73
34.443
-356.21
-297.32
-47.823
-100.92
-7.1949
10.166
1.8134
61.493
128.69
22.524
-11.192
31.97
-0.082035
-55.895
25.701
32.492
-21.741
18.19
42.787
-5.2974
-20.743
24.771
13.091
-17.268
9.2164
23.924
-8.1966
-17.176
23.02
15.573
-23.843
-12.118
18.362
4.4421
-22.135
3.5883
18.639
-20.003
-5.5381
21.273
1.2565
-25.355
-2.593
23.027
-18.031
-18.092
12.613
17.994
-15.865
-17.943
21.923
-3.1249
-8.1411
18.929
-14.853
-10.4
31.836
-12.293
-25.258
22.699
2.7187
-28.259
17.373
36.189
-0.38685
-26.687
12.861
9.8717
-20.144
8.5787
19.527
-8.2465
-28.966
-8.1281
5.0088
0.82207
-14.698
3.3944
26.125
-5.3209
-33.627
6.1232
18.288
-8.0256
-24.523
21.133
12.211
-11.585
-15.956
21.021
20.801
-27.317
-5.5648
22.855
-9.3703
-15.013
21.171
0.51581
-10.911
9.1766
11.421
-12.307
-23.447
21.787
8.0791
-13.681
12.772
2.5318
-13.367
12.774
7.4575
-17.525
7.571
16.264
-8.7352
-17.794
13.976
7.1328
-20.12
-5.4945
33.419
-8.831
-12.769
6.7874
8.8035
-17.615
-10.063
9.8204
5.5757
-7.234
-6.8804
10.389
-2.084
-18.4
4.9415
17.258
-10.982
-19.203
20.535
15.548
-13.801
-21.187
22.369
14.364
-8.096
-21.446
13.132
17.064
-6.0798
-12.689
13.837
8.6872
-10.809
-16.957
16.12
10.591
-7.9354
-22.305
9.2823
10.677
-7.0519
-7.0481
1.2593
6.8284
-22.767
-29.19
24.885
28.559
-0.35051
1.3357
27.74
14.666
-18.623
-25.462
16.843
-9.918
-11.548
16.238
1.491
-20.862
3.0348
12.428
-9.1468
-8.97
17.58
9.776
-10.22
-14.454
20.459
4.4175
-20.702
11.538
8.9262
14.069
-13.326
-32.693
1.1056
5.2245
-4.4187
8.0145
12.616
-7.9768
-3.1281
11.722
-17.271
-13.367
20.094
-0.7162
-23.606
17.351
22.668
-11.422
-21.932
21.331
13.589
-15.085
-11.409
21.382
7.2974
-23.794
5.4663
20.197
-0.63191
-28.919
-1.934
29.284
7.2295
-30.567
-5.6199
19.659
-4.2439
-21.31
16.428
24.869
-15.703
-19.064
12.172
6.194
-19.586
11.942
16.396
-9.6078
-16.635
7.1173
9.3585
-10.088
4.2714
14.728
-17.021
-1.5886
23.463
-3.5735
-21.37
12.938
17.907
-13.599
-20.969
19.862
4.3922
-14.631
-15.725
20.051
9.011
-18.442
3.0308
20.222
-7.1239
-32.651
15.617
23.781
-10.587
-24.733
14.086
20.964
-13.541
-11.322
22.922
4.3749
-25.301
12.623
8.033
-18.133
-0.81547
18.68
-4.6998
-22.043
4.0023
14.695
-11.93
-2.4401
18.606
-5.4368
-25.529
14.482
18.663
-11.137
-7.9971
15.361
4.9614
-18.043
-15.124
17.674
4.6935
-12.604
13.359
12.5
-14.702
-20.701
17.231
17.316
-15.958
-21.807
20.53
9.8474
-8.4237
-14.478
13.04
14.46
-12.857
-5.9426
16.374
2.992
-26.912
5.0493
15.657
6.259
-22.097
-2.6354
16.146
4.917
-14.273
-8.344
19.444
-3.4302
-6.1188
11.424
8.9558
-20.983
-4.6338
18.725
3.4379
-24.765
-4.0271
17.321
-5.9426
-21.09
10.996
17.628
-16.062
5.9698
20.757
-12.329
-12.772
20.302
16.626
-3.3938
-28.228
14.85
8.7455
-4.4958
-17.732
8.0685
10.533
-7.0701
-6.0303
3.1352
-0.10251
5.7314
-20.373
-0.31522
11.414
-0.82041
-18.307
-6.985
18.592
5.4573
-21.1
8.2009
14.368
3.4447
-5.3091
-18.426
15.28
8.2555
0.96144
-24.987
5.5894
12.95
-5.0386
-19.137
19.094
14.952
-11.547
-6.65
19.662
3.5274
-9.6806
-24.299
16.919
14.837
-3.4925
-22.532
8.7316
13.81
-5.2413
-13.163
16.277
12.08
-13.509
-18.667
19.995
11.77
-8.0814
-26.919
20.508
12.377
-8.6839
-9.2399
13.389
5.2022
-18.412
-0.022668
17.589
-4.2626
-17.423
6.8876
9.269
-1.7223
-21.229
-4.9963
15.656
7.8084
-5.5416
2.4573
9.776
-14.335
-12.127
24.317
9.2336
-18.725
-18.128
23.439
8.9938
-13.419
-18.867
14.888
15.655
-12.779
-9.1913
18.522
5.5821
-21.231
-18.075
21.671
17.47
-8.9234
-10.855
14.649
11.397
-6.0465
-8.917
16.048
-7.6
-26.723
17.854
17.394
-8.4478
-33.461
7.1001
13.668
-10.655
-18.739
11.44
25.337
-14.848
6.0762
15.578
-16.342
-15.513
21.752
13.365
-23.053
-7.1664
18.887
4.0017
-19.542
-2.5546
20.259
1.6616
-19.384
9.1289
12.722
-5.7554
-30.395
14.691
26.274
0.072662
-32.735
-0.26915
19.011
-1.2654
-18.18
8.6499
15.648
-20.67
-7.3199
18.671
-2.5966
-22.707
22.639
17.48
-14.312
-25.508
12.126
18.746
-10.695
2.386
19.092
-5.286
-25.806
14.794
17.211
-5.7842
-21.08
18.316
8.5748
-9.5946
-21.829
5.7791
22.876
-5.5904
-26.364
-2.3719
28.865
35.628
25.806
48.755
17.411
7.4957
-129.63
-53.272
21.219
-41.936
-34.417
61.257
-14.48
-22.934
27.932
10.159
21.619
6.0583
-41.34
13.561
40.324
-34.72
-2.4085
28.612
12.787
72.574
223.19
215.56
37.426
-94.818
-285.72
-149.93
-140.25
-75.96
37.795
-1.1242
0.92592
102.71
79.246
-163.71
-39.532
-27.832
-145.99
-109.03
-24.719
-30.723
112.25
75.663
25.831
90.046
45.058
45.896
28.516
5.4175
0.81461
101.42
47.998
-18.996
24.696
18.659
6.026
11.41
-62.378
-3.9973
100.11
-50.569
-50.131
19.567
54.293
-62.053
-9.5146
1.7776
-15.603
65.007
11.934
-54.829
-27.431
0.52324
7.2898
11.789
5.4163
-31.331
-1.9645
7.2522
33.433
-42.697
-23.328
-20.586
40.294
69.018
-66.63
-25.016
55.663
0.58963
-64.147
47.757
-13.221
-41.394
54.535
-36.235
51.981
-38.996
41.659
0.10129
-60.728
70.714
-94.45
44.411
-19.242
58.387
-52.843
30.653
2.1516
-21.076
24.36
-57.481
-7.9883
67.586
-1.7796
-66.463
61.28
30.841
-86.629
21.408
75.553
-72.541
-43.201
28.914
-5.0171
31.456
50.001
-56.787
-32.225
-2.0804
46.698
29.755
-9.0018
-52.291
-7.4715
-17.486
33.961
34.987
-28.8
-21.441
1.6949
-41.6
-19.983
28.043
24.074
39.636
143.35
-39.462
-82.948
-0.39484
-26.997
45.557
46.494
13.523
-47.979
-72.239
-34.611
12.334
28.519
-15.539
-3.3792
19.418
43.584
10.921
50.501
-208.72
-18.872
354.28
92.186
-185.41
-313.28
-53.751
-87.856
-96.19
196.8
267.84
91.198
169.55
82.922
105.41
6.7984
-69.32
-124.25
-313.2
-13.294
-17.801
-91.481
-16.18
-94.031
25.274
-10.437
-107.92
19.227
-7.8276
5.465
40.311
-34.367
-11.784
87.796
220.32
307.94
95.07
5.0398
-418.92
-603.51
323.45
164.05
41.018
-40.145
-161.4
136.83
421.79
-47.531
-184.95
-0.38223
102.52
-185.6
-236.42
-229.11
180.1
279.74
-118.41
-47.212
5.4533
221.02
91.803
-25.34
51.778
39.422
-61.818
-3.5982
62.878
-46.344
-212.92
5.8177
150.07
19.424
-63.877
46.246
75.315
31.571
18.956
-34.581
-78.591
12.502
23.437
-5.6168
5.2076
32.977
4.1025
-9.1882
109.12
136.24
-120.23
-91.08
-68.463
-26.938
20.525
116.16
-1.5099
-159.47
-34.784
17.966
62.68
55.445
43.344
8.1636
-71.524
-134.02
-143.52
-89.28
75.699
34.357
43.306
19.16
-16.823
36.62
86.761
56.976
35.461
49.992
-3.8229
-35.57
-64.794
2.3095
-11.754
-107
-74.373
64.513
62.53
-56.762
-26.04
53.878
19.46
-28.046
17.375
33.31
-41.22
-23.52
42.192
12.648
-51.14
7.426
24.049
-5.2645
-44.765
-15.16
43.237
-10.397
-26.578
40.824
31.449
-71.369
-20.287
28.748
-45.544
-10.088
-12.564
107.3
46.071
-104.25
56.024
62.537
-62.331
-31.562
56.591
-13.649
-22.651
42.243
-4.0345
-53.608
54.722
72.022
52.781
-63.545
-62.466
26.437
-86.822
1.4567
18.649
3.3801
-38.744
22.396
37.458
-6.6485
-23.884
79.642
165.39
67.851
-172.3
-10.572
-11.704
-16.487
-59.726
-54.875
-11.963
13.509
-8.9243
2.7339
-2.2019
-24.252
-6.886
20.23
-12.35
-13.32
17.222
3.2759
-39.101
-11.06
32.107
2.1714
-44.338
18.082
42.181
-13.406
-21.495
40.087
1.0672
-34.421
34.861
36.421
-35.311
-7.4596
50.563
20.951
-31.516
9.4739
46.82
13.083
-16.421
18.709
27.306
-13.244
-5.5699
26.998
8.0876
-27.632
1.4469
24.24
5.1995
-13.36
-1.072
11.639
-12.463
-23.96
9.5155
10.301
-10.818
-24.772
12.501
20.372
-14.927
-25.147
19.635
28.071
3.1842
-16.753
4.1036
1.6698
-16.189
-14.301
6.5292
7.0198
-8.3323
12.909
17.219
-19.427
-12.763
26.799
-13.218
-33.167
-30.554
-3.4875
14.203
-15.77
-23.34
19.012
16.815
-29.448
-6.9469
32.662
6.6895
-30.013
3.3923
32.382
-5.5283
-21.712
27.722
28.796
105.56
152.27
47.129
21.87
-17.874
-110.63
-452.38
56.657
273.12
-68.237
-65.475
-66.361
-55.459
-7.8997
-121
-172.47
-50.197
357.03
222.2
-179.89
-177.4
-138.71
18.261
-5.4695
100.41
188.58
38.725
-31.733
110.8
102.6
-15.635
-28.123
75.753
39.261
-58.659
-3.0306
61.934
-1.7751
-59.805
14.34
27.481
-25.823
-38.851
21.924
-13.464
-68.995
-7.8022
19.433
-40.145
-24.421
39.387
17.143
-55.058
-12.939
43.581
9.6985
-49.357
7.6762
43.266
-11.761
-54.908
28.695
60.294
43.386
100.92
138.22
102.37
-273.08
-261.18
191.16
-504.38
-161.15
330.91
99.775
25.332
55.061
64.336
-39.527
0.53733
96.683
63.364
204.33
230.4
-31.575
-327.4
-273.95
-43.254
-15.232
0.58858
284.26
-122.52
-124.86
391.16
-150.57
-279.89
-33.867
9.2573
-42.949
61.754
7.4384
-38.846
55.414
49.728
-33.575
9.8987
49.372
0.91958
-32.698
48.264
28.877
-56.626
-9.3705
-17.658
-25.367
105.67
39.418
52.221
42.899
49.037
-34.726
-51.013
-50.225
-2.6147
7.2559
12.364
-67.841
220.45
413.25
43.716
-28.577
-82.273
-263.42
-497.8
-141.89
27.832
217.58
52.97
-63.51
7.2496
-22.489
29.132
8.1701
26.656
-20.343
-96.281
-25.786
55.435
16.378
-27.732
47.776
57.4
-13.505
-22.226
53.766
31.166
-35.648
-16.375
219.28
354.49
48.723
-16.312
-360.03
-437.49
-72.513
30.83
123.26
30.375
-23.216
49.438
6.1268
-38.227
44.855
32.475
-39.403
48.082
88.446
5.5738
-2.8302
12.587
9.2857
-48.814
15.613
77.287
45.118
-51.024
-71.367
-19.723
15.081
-37.863
13.191
63.54
156.98
220.61
104.71
25.938
-112.43
-303.93
-404.77
-111.03
-91.66
-160.14
58.274
303.31
-36.6
152.63
71.42
-81.181
13.106
88.141
73.584
-49.783
-27.413
95.488
27.874
-29.264
-17.266
39.285
26.219
-43.789
-20.775
27.893
-8.231
3.0682
51.606
20.081
-16.401
-45.875
1.7611
18.136
-8.6814
-28.795
13.817
16.559
-16.331
-21.504
-7.1939
8.1384
-22.273
-13.723
18.999
15.622
-43.894
16.848
42.277
-41.705
-74.556
63.854
23.119
-37.134
133.47
46.513
-31.804
-52.781
-29.695
-12.088
-50.057
0.83013
43.021
-17.347
-40.034
18.577
-14.568
-21.448
5.3441
17.725
-17.067
-7.9287
6.8917
-42.334
-17.425
36.631
48.789
24.737
-1.4718
1.957
-11.241
-11.26
24.736
12.154
1.8275
-5.5203
-22.52
-4.8932
23.987
-8.0904
-13.732
11.121
-20.746
-13.814
13.07
-3.8491
3.5929
37.319
18.68
-3.7441
17.219
14.825
-48.923
-39.391
3.7793
-5.0251
-4.7449
34.302
16.659
-12.868
0.52184
11.164
-26.882
-36.41
17.453
12.704
-28.411
32.133
130.14
213.67
-230.54
-247.84
47.115
95.327
-5.3485
-41.115
-4.1476
-12.518
38.308
31.08
-41.362
6.9385
61.474
-32.877
0.39034
28.338
51.214
39.946
123.96
169.76
-45.204
-331.34
-176.24
-81.089
-79.364
50.12
55.949
10.958
-17.115
41.526
22.808
2.3373
43.266
33.918
-9.5167
-2.7775
68.178
5.2698
-62.692
16.443
53.107
-25.153
-19.743
44.831
19.339
-39.379
12.471
52.005
14.302
-45.295
129.71
-21.988
-170.61
-30.684
69.876
58.252
-44.696
-26.622
54.79
45.281
140.94
227.11
20.872
-327.53
-323.16
-63.147
-64.202
-13.29
44.798
83.984
14.594
20.026
68.474
53.505
44.786
-7.291
31.359
5.6297
9.8859
37.623
-46.083
-97.433
16.859
11.579
12.22
9.0021
41.448
51.488
27.11
-31.497
-76.599
17.502
27.04
-109.83
-22.37
46.621
55.806
165.9
260.95
99.795
-53.85
-256.05
-304.85
-101.15
-6.9342
-45.753
-43.237
47.326
-2.5547
-47.557
50.185
52.618
-53.105
0.42364
30.783
-21.722
4.476
98.282
44.313
-62.686
48.367
93.138
-31.189
-33.832
77.713
29.946
-63.023
10.754
75.404
-30.724
-75.019
45.396
43.766
-52.77
-17.214
95.34
100.19
69.736
-271.37
154.33
348.04
-103.76
-360.75
-193.24
-90.048
32.687
63.244
-106.51
2.5092
9.4829
170.5
-90.489
395.95
-107.95
-104.69
138.58
-247.43
-230.59
-157.72
214.02
172.76
-21.104
100.76
83.168
-45.821
-18.073
60.294
-4.0782
-26.453
32.452
21.794
-34.802
24.549
44.398
-36.477
-7.9993
34.834
-24.112
-44.649
14.121
31.552
-26.661
14.764
-20.978
-69.372
-33.041
20.507
52.805
-15.265
10.441
45.587
-21.627
-60.054
4.0087
-7.7643
-72.869
-29.848
79.656
31.493
-34.31
89.355
144.48
212.63
118.29
-204.16
-477.45
-173.99
43.051
62.175
18.796
58.497
70.74
-1.4629
-18.447
94.099
26.878
-55.484
52.125
60.941
24.754
-99.39
32.518
34.003
-30.65
-43.589
-16.514
-24.295
-19.144
-0.15638
57.335
6.2848
-8.8617
101.21
-15.621
-47.923
-0.41124
-20.121
-33.442
36.131
12.645
-24.038
-14.59
28.263
-11.304
-15.192
22.189
-10.209
-0.94777
11.95
-19.194
-37.786
22.612
12
-27.512
18.065
60.973
43.947
-15.473
-30.042
-58.385
-17.488
24.576
-7.065
-21.513
-8.4958
-22.514
-0.20646
48.651
78.958
96.247
-112.31
-117.29
-55.47
42.672
169.08
146.19
-68.75
-144.28
-81.403
-1.0596
-12.12
15.738
76.812
8.1303
-14.049
17.599
-13.21
-5.1274
-14.4
-54.636
11.305
11.212
-61.705
7.8147
52.737
10.57
31.728
6.036
-43.721
15.305
31.725
-27.506
24.388
54.421
-33.296
0.44165
22.634
-46.265
-5.7878
36.693
-8.8236
1.4698
15.888
-26
12.16
39.068
-38.213
-44.84
25.481
34.049
-11.796
14.99
10.045
-31.721
-5.4544
-13.718
-25.965
58.396
12.106
-48.365
-21.429
2.6205
-19.985
35.17
26.768
25.451
11.055
18.968
24.577
-28.65
-56.946
17.402
8.7788
-54.48
-27.355
33.19
11.593
-54.305
-37.283
38.561
31.692
-25.068
8.528
13.368
-56.868
-72.08
41.099
18.341
-22.04
47.09
51.469
9.242
-27.983
48.464
52.408
-24.391
-39.758
39.274
-4.4585
-43.171
39.131
25.585
-53.568
-6.5395
43.013
-33.222
-95.692
-70.418
-28.25
9.0546
108.82
168.18
189.5
-83.229
-43.693
138.11
-251.46
-157.53
-45.817
-142.41
48.324
292.16
315.4
181.65
21.864
-38.223
-258.19
-351.05
-5.2627
-66.681
-38.374
67.325
35.362
56.126
16.639
-55.754
-65.934
-25.037
