43.88
27.55
12.55
0.26
-8.5
-13.8
-16.53
-17.93
-19.07
-20.46
-22
-23.26
-23.85
-23.65
-22.92
-22.12
-21.8
-22.37
-23.94
-26.35
-29.16
-31.81
-33.76
-34.65
-34.44
-33.33
-31.73
-30.01
-28.38
-26.69
-24.48
-21.09
-16.03
-9.26
-1.46
6.02
11.63
14.1
13.12
9.4
4.54
0.43
-1.4
-0.16
3.98
10.16
17.02
23.05
26.78
27.1
23.42
15.99
5.96
-4.89
-14.65
-21.95
-26.36
-28.4
-29.1
-29.4
-29.71
-29.8
-29.16
-27.39
-24.49
-20.93
-17.3
-13.97
-10.95
-8
-4.8
-1.29
2.19
5.05
6.6
6.39
4.38
1.06
-2.74
-6.08
-8.24
-8.85
-7.94
-5.82
-2.9
0.46
3.96
7.3
10.19
12.35
13.55
13.68
12.85
11.3
9.3
7.12
4.86
2.51
-0.02
-2.76
-5.62
-8.38
-10.8
-12.81
-14.5
-16.07
-17.67
-19.22
-20.45
-21.08
-21
-20.45
-19.86
-19.6
-19.76
-20.07
-20.06
-19.3
-17.71
-15.55
-13.32
-11.53
-10.52
-10.28
-10.56
-10.94
-11.02
-10.58
-9.57
-8.14
-6.53
-4.93
-3.46
-2.14
-0.92
0.22
1.28
2.24
3.04
3.68
4.24
4.8
5.49
6.42
7.61
9
10.42
11.66
12.51
12.91
12.9
12.7
12.52
12.54
12.76
12.97
12.84
11.99
10.12
7.15
3.27
-1.09
-5.42
-9.21
-12.2
-14.37
-15.97
-17.39
-19.02
-21.12
-23.77
-26.83
-29.97
-32.87
-35.26
-37.03
-38.2
-38.87
-39.06
-38.57
-37.01
-33.81
-28.45
-20.68
-10.69
0.91
13.17
25.11
35.98
45.52
53.96
61.88
69.94
78.55
87.67
96.85
105.42
112.72
118.31
121.95
123.37
122.11
117.38
108.35
94.62
76.77
56.53
36.4
18.9
5.66
-3.04
-8.17
-11.34
-14.26
-18.31
-24.27
-32.15
-40.87
-48.26
-51.5
-48.28
-38.13
-23.18
-7.67
3.68
7.9
5.08
-1.81
-8.63
-12.24
-12
-9.66
-7.95
-8.69
-11.74
-15.09
-16.12
-13.13
-6.3
2.36
10.03
14.36
14.31
10.29
3.68
-3.85
-10.92
-16.71
-20.94
-23.88
-26.11
-28.39
-31.31
-35.07
-39.37
-43.6
-47.14
-49.62
-50.95
-51.17
-50.25
-48.03
-44.51
-40.02
-35.37
-31.52
-29.2
-28.49
-28.8
-29.1
-28.4
-26.19
-22.61
-18.28
-14.03
-10.56
-8.2
-6.91
-6.42
-6.37
-6.52
-6.78
-7.11
-7.5
-7.84
-7.88
-7.36
-6.04
-3.88
-0.93
2.68
6.78
11.13
15.44
19.22
22.03
23.56
23.78
22.96
21.44
19.48
17.06
13.95
9.95
5.18
0.12
-4.42
-7.66
-9.16
-8.93
-7.39
-5.17
-2.78
-0.47
1.87
4.53
7.83
11.96
16.87
22.26
27.69
32.63
36.62
39.4
40.97
41.69
42.14
43.05
44.92
47.82
51.16
53.7
53.85
50.08
41.4
27.81
10.38
-8.96
-27.94
-44.45
-57.07
-65.32
-69.46
-70.32
-68.95
-66.35
-63.33
-60.43
-57.76
-55.08
-51.76
-46.97
-39.94
-30.24
-17.98
-3.97
10.3
22.92
32.07
36.65
36.81
34.08
30.85
29.53
31.45
36.53
43.43
50.28
55.65
58.9
60.2
60.08
58.97
57.01
54.13
50.29
45.58
40.26
34.73
29.38
24.61
20.68
17.57
14.9
11.99
8.14
3.06
-2.88
-8.69
-13.29
-16.11
-17.42
-18.32
-20.11
-23.57
-28.42
-33.42
-36.98
-38.03
-36.68
-34.21
-32.41
-32.75
-35.58
-40.04
-44.48
-47.25
-47.44
-45.26
-41.86
-38.73
-37.07
-37.18
-38.37
-39.24
-38.25
-34.35
-27.36
-18.06
-7.9
1.5
8.82
13.44
15.48
15.71
15.25
15.21
16.2
18.22
20.57
22.27
22.48
20.88
17.89
14.32
11.01
8.46
6.67
5.35
4.27
3.44
3.08
3.4
4.32
5.47
6.39
6.86
7.05
7.4
8.29
9.69
11.16
12.03
11.88
10.71
9.02
7.43
6.34
5.77
5.37
4.79
3.85
2.65
1.45
0.5
-0.06
-0.28
-0.33
-0.37
-0.52
-0.77
-1
-0.98
-0.48
0.59
2.14
3.92
5.67
7.27
8.78
10.34
11.85
12.87
12.69
10.6
6.42
0.69
-5.45
-10.69
-14.08
-15.48
-15.47
-15.08
-15.25
-16.49
-18.85
-22.09
-26.02
-30.56
-35.62
-40.85
-45.42
-48.15
-47.88
-43.91
-36.38
-26.26
-14.97
-3.97
5.79
14.04
21.12
27.74
34.75
42.87
52.55
63.79
76.15
88.8
100.71
110.81
118.18
122.14
122.25
118.34
110.6
99.7
86.84
73.48
61.07
50.49
41.79
34.14
26.18
16.63
4.77
-9.23
-24.42
-39.32
-52.37
-62.38
-68.8
-71.84
-72.29
-71.29
-69.94
-69.02
-68.83
-69.27
-69.96
-70.46
-70.44
-69.71
-68.25
-66.17
-63.61
-60.76
-57.8
-54.93
-52.36
-50.26
-48.7
-47.56
-46.44
-44.78
-42.06
-37.97
-32.61
-26.45
-20.19
-14.47
-9.68
-5.89
-2.87
-0.26
2.28
4.91
7.57
9.98
11.75
12.54
12.21
10.95
9.3
7.98
7.6
8.43
10.26
12.49
14.4
15.4
15.27
14.15
12.42
10.46
8.55
6.78
5.14
3.53
1.85
-0.04
-2.23
-4.74
-7.51
-10.36
-13.09
-15.55
-17.67
-19.47
-21.01
-22.33
-23.46
-24.43
-25.25
-25.89
-26.26
-26.16
-25.36
-23.71
-21.18
-17.94
-14.23
-10.33
-6.43
-2.63
1.06
4.62
8.04
11.35
14.54
17.59
20.47
23.05
25.15
26.66
27.51
27.82
27.84
27.86
28.1
28.59
29.11
29.36
29.05
28.1
26.68
25.23
24.26
24.29
25.66
28.49
32.6
37.55
42.64
47.13
50.37
52.03
52.14
51.16
49.67
48.23
47.15
46.33
45.34
43.54
40.28
35.16
28.19
19.84
11.06
3
-3.29
-7.15
-8.54
-7.92
-6.05
-3.83
-1.97
-0.88
-0.53
-0.45
0.21
2.39
6.71
13.14
20.75
27.88
32.71
33.87
30.9
24.43
15.75
6.35
-2.69
-10.91
-18.42
-25.65
-32.96
-40.44
-47.86
-54.74
-60.58
-64.96
-67.65
-68.57
-67.79
-65.52
-62.1
-58
-53.74
-49.83
-46.59
-44.13
-42.28
-40.75
-39.14
-37.14
-34.6
-31.57
-28.26
-25
-22.18
-20.02
-18.6
-17.74
-17.09
-16.27
-15.06
-13.48
-11.76
-10.3
-9.39
-9.14
-9.33
-9.5
-9.03
-7.38
-4.19
0.45
5.99
11.38
15.34
16.72
14.9
10.04
3.16
-4.2
-10.46
-14.48
-15.86
-14.9
-12.42
-9.39
-6.61
-4.55
-3.31
-2.74
-2.61
-2.79
-3.25
-4.08
-5.35
-6.96
-8.62
-9.9
-10.36
-9.75
-8.06
-5.52
-2.55
0.37
2.8
4.45
5.33
5.77
6.38
7.74
10.13
13.26
16.34
18.34
18.48
16.51
12.87
8.46
4.3
1.17
-0.57
-0.96
-0.35
0.7
1.64
2
1.67
0.88
0.2
0.25
1.42
3.59
6.23
8.61
10.07
10.36
9.57
8.06
6.19
4.21
2.23
0.4
-1.07
-1.95
-2.08
-1.61
-0.93
-0.59
-1.03
-2.38
-4.43
-6.69
-8.69
-10.11
-10.88
-11.13
-11.09
-10.96
-10.87
-10.86
-10.96
-11.12
-11.27
-11.18
-10.59
-9.22
-6.85
-3.39
1.08
6.38
12.12
17.8
22.82
26.6
28.67
28.86
27.41
24.9
22.15
19.92
18.72
18.7
19.65
21.2
22.95
24.65
26.24
27.73
29.14
30.37
31.22
31.5
31.12
30.16
28.78
27.13
25.12
22.39
18.4
12.73
5.35
-3.21
-11.89
-19.45
-24.87
-27.65
-28.03
-26.76
-24.82
-22.96
-21.48
-20.13
-18.34
-15.55
-11.56
-6.65
-1.61
2.49
4.64
4.11
0.7
-5.28
-13.07
-21.55
-29.47
-35.57
-38.79
-38.46
-34.37
-26.91
-16.92
-5.5
6.25
17.46
27.55
36.13
42.84
47.3
49.26
48.79
46.53
43.61
41.33
40.76
42.3
45.57
49.57
52.94
54.33
52.61
47.12
37.78
25.37
11.4
-2.11
-13.16
-20.38
-23.38
-22.84
-20.32
-17.78
-17.17
-19.92
-26.6
-36.7
-48.82
-61.03
-71.49
-79.01
-83.27
-84.57
-83.47
-80.34
-75.16
-67.72
-57.76
-45.28
-30.6
-14.34
2.57
18.97
33.57
45.16
52.85
56.37
56.02
52.61
47.14
40.61
33.86
27.56
22.2
18.06
15.18
13.33
12.04
10.68
8.56
5.09
-0.15
-7.26
-15.97
-25.57
-35
-43.04
-48.62
-51.08
-50.24
-46.49
-40.55
-33.36
-25.87
-18.93
-13.15
-8.85
-6.01
-4.35
-3.53
-3.28
-3.46
-4.04
-5.04
-6.37
-7.86
-9.28
-10.47
-11.33
-11.85
-12.01
-11.76
-11.03
-9.79
-8.15
-6.32
-4.57
-3.18
-2.25
-1.73
-1.41
-0.98
-0.18
1.08
2.67
4.33
5.79
6.92
7.73
8.44
9.24
10.27
11.52
12.85
14.07
15.05
15.67
15.9
15.75
15.28
14.56
13.71
12.91
12.39
12.35
12.96
14.16
15.72
17.22
18.26
18.65
18.63
18.8
19.85
22.2
25.6
29.16
31.69
32.33
30.94
28.21
25.28
23.13
22.12
21.88
21.61
20.46
17.8
13.4
7.24
-0.51
-9.42
-18.57
-26.47
-31.34
-31.74
-27.3
-19.11
-9.47
-1.12
3.83
4.72
2.53
-0.66
-2.47
-1.21
3.69
11.69
21.47
31.42
40.08
46.31
49.4
49.07
45.43
39.01
30.57
21.08
11.59
3.01
-4.04
-9.33
-13.02
-15.59
-17.55
-19.2
-20.49
-21.12
-20.84
-19.65
-18.03
-16.77
-16.65
-18.1
-20.96
-24.53
-27.85
-30.09
-30.83
-30.19
-28.7
-27.04
-25.77
-25.22
-25.36
-25.96
-26.67
-27.14
-27.07
-26.31
-24.87
-22.92
-20.77
-18.72
-17.05
-15.88
-15.21
-14.87
-14.71
-14.58
-14.39
-14.15
-13.92
-13.79
-13.82
-13.98
-14.12
-13.99
-13.42
-12.38
-11.18
-10.38
-10.66
-12.47
-15.84
-20.26
-24.7
-27.9
-28.66
-26.26
-20.64
-12.53
-3.22
5.83
13.5
19.42
24.06
28.46
33.72
40.44
48.47
56.93
64.58
70.28
73.35
73.81
72.25
69.66
67.14
65.54
65.21
65.77
66.25
65.4
62.23
56.46
48.72
40.36
32.87
27.29
23.83
21.83
20.16
17.81
14.22
9.47
4.01
-1.57
-6.81
-11.46
-15.52
-19.17
-22.79
-26.84
-31.74
-37.59
-43.98
-49.97
-54.32
-56.01
-54.69
-50.97
-46.37
-42.82
-41.97
-44.52
-49.93
-56.56
-62.23
-65.14
-64.39
-60.25
-53.81
-46.34
-38.75
-31.29
-23.86
-16.34
-8.98
-2.32
3.02
6.78
9.21
10.91
12.6
14.61
16.88
18.97
20.41
21.05
21.17
21.39
22.38
24.53
27.71
31.34
34.56
36.65
37.3
36.77
35.81
35.42
36.4
39.07
43.11
47.61
51.4
53.5
53.35
51
46.84
41.39
34.91
27.49
19.15
10.04
0.6
-8.56
-16.89
-24.1
-30.23
-35.42
-39.76
-43.1
-45.12
-45.56
-44.42
-41.99
-38.75
-35.15
-31.46
-27.75
-23.99
-20.19
-16.42
-12.82
-9.52
-6.45
-3.43
-0.16
3.53
7.71
12.34
17.43
23.16
29.89
38.01
47.67
58.54
69.89
80.71
90.07
97.28
101.9
103.6
102.21
97.73
90.53
81.29
70.83
59.71
48.05
35.58
22.15
8.12
-5.39
-16.81
-24.76
-28.74
-29.22
-27.45
-24.78
-22.09
-19.54
-16.85
-13.65
-9.98
-6.34
-3.47
-1.95
-1.89
-2.83
-4.09
-5.13
-5.88
-6.76
-8.48
-11.56
-16.06
-21.47
-26.98
-31.82
-35.55
-38.19
-40.05
-41.47
-42.56
-43.15
-42.97
-41.86
-39.93
-37.59
-35.33
-33.5
-32.18
-31.24
-30.49
-29.81
-29.18
-28.56
-27.78
-26.49
-24.37
-21.41
-18
-14.92
-13
-12.8
-14.41
-17.37
-20.95
-24.39
-27.1
-28.75
-29.27
-28.82
-27.71
-26.33
-25.05
-24.06
-23.4
-22.95
-22.61
-22.32
-22.11
-21.95
-21.62
-20.72
-18.88
-16.09
-12.83
-9.9
-8.04
-7.51
-7.97
-8.7
-9.01
-8.51
-7.15
-4.94
-1.66
3.12
9.52
16.81
23.18
26.23
24.16
16.96
6.81
-2.54
-7.47
-6.11
0.73
9.98
17.89
21.64
20.4
15.25
8.27
1.41
-4.06
-7.62
-8.95
-7.76
-3.73
3.01
11.56
20.12
26.64
29.62
28.91
25.91
22.94
22.21
24.78
30.11
36.4
41.54
44.07
43.76
41.44
38.49
36.16
35.31
36.47
40.01
46.12
54.67
64.76
74.7
82.22
85.18
82.4
74.15
62.17
49.06
37.41
28.88
23.88
21.57
20.43
18.91
16
11.51
6.08
0.81
-3.16
-5.17
-5.37
-4.59
-4.09
-4.94
-7.67
-12.19
-17.95
-24.36
-30.91
-37.18
-42.67
-46.59
-48.02
-46.16
-40.77
-32.42
-22.52
-12.99
-5.74
-2.17
-2.72
-6.83
-13.11
-19.8
-25.31
-28.64
-29.57
-28.54
-26.44
-24.14
-22.39
-21.58
-21.78
-22.8
-24.3
-25.9
-27.25
-28.1
-28.24
-27.46
-25.6
-22.56
-18.41
-13.42
-7.99
-2.58
2.31
6.16
8.31
8.11
5.08
-0.65
-8.16
-15.78
-21.61
-24.18
-23.09
-19.05
-13.54
-8.07
-3.67
-0.64
1.21
2.21
2.49
2.06
0.92
-0.71
-2.33
-3.35
-3.33
-2.13
-0.01
2.52
4.83
6.37
6.81
6.12
4.51
2.4
0.24
-1.67
-3.26
-4.73
-6.38
-8.46
-11
-13.84
-16.71
-19.37
-21.72
-23.78
-25.66
-27.47
-29.27
-31.02
-32.59
-33.77
-34.33
-34.03
-32.7
-30.23
-26.65
-22.17
-17.19
-12.38
-8.56
-6.41
-6.23
-7.63
-9.59
-10.82
-10.24
-7.48
-3.08
1.76
5.61
7.3
6.35
3
-1.9
-7.28
-12.17
-16.11
-19.22
-22.14
-25.76
-30.84
-37.68
-45.9
-54.39
-61.36
-64.71
-62.55
-54.03
-40.01
-23.13
-7.15
4.43
9.82
9.67
6.58
3.82
3.73
6.95
12.53
18.93
24.9
29.99
34.31
38.06
41.14
43.22
43.99
43.48
42.2
40.94
40.52
41.38
43.44
46.03
48.12
48.8
47.67
45.09
41.94
39.15
37.14
35.63
33.92
31.44
28.13
24.53
21.42
19.28
18.04
17.07
15.57
13.04
9.53
5.63
2.17
-0.15
-1.04
-0.69
0.46
1.96
3.48
4.92
6.17
7.07
7.34
6.87
5.92
5.14
5.32
6.92
9.81
13.19
16.04
17.5
17.28
15.59
12.88
9.52
5.65
1.3
-3.37
-7.87
-11.44
-13.31
-13.03
-10.55
-6.15
-0.19
7.19
16.01
26.23
37.47
48.74
58.64
65.76
69.25
69.16
66.43
62.49
58.66
55.65
53.43
51.37
48.75
45.04
40.16
34.54
28.96
24.43
21.99
22.36
25.56
30.6
35.5
37.83
35.68
28.49
17.38
4.72
-7
-16.23
-22.9
-28.19
-33.49
-39.57
-46.12
-52.1
-56.5
-58.99
-60.15
-60.9
-61.94
-63.17
-63.71
-62.46
-58.73
-52.78
-45.85
-39.62
-35.48
-34.01
-34.7
-36.31
-37.46
-37.24
-35.49
-32.79
-30.01
-27.86
-26.52
-25.63
-24.43
-22.25
-18.71
-13.97
-8.54
-3.1
1.81
5.91
9.19
11.78
13.86
15.55
16.95
18.07
18.89
19.34
19.34
18.85
17.89
16.61
15.2
13.79
12.47
11.2
9.95
8.71
7.56
6.61
5.94
5.47
5.02
4.29
2.99
0.9
-2.06
-5.7
-9.68
-13.47
-16.54
-18.49
-19.19
-18.74
-17.34
-15.2
-12.39
-9.03
-5.47
-2.42
-0.85
-1.61
-4.97
-10.29
-16.17
-20.92
-23.18
-22.45
-19.12
-14.27
-9.1
-4.62
-1.4
0.29
0.47
-0.73
-3.01
-5.86
-8.64
-10.64
-11.34
-10.49
-8.18
-4.77
-0.72
3.53
7.65
11.43
14.71
17.34
19.18
20.13
20.26
19.76
18.93
18.04
17.2
16.27
14.95
12.97
10.17
6.58
2.44
-2.01
-6.54
-10.94
-15.07
-18.77
-21.98
-24.72
-27.09
-29.21
-31.06
-32.49
-33.29
-33.38
-32.95
-32.46
-32.46
-33.27
-34.77
-36.41
-37.43
-37.23
-35.63
-33.03
-30.13
-27.59
-25.74
-24.35
-22.78
-20.34
-16.57
-11.57
-5.89
-0.37
4.21
7.35
9
9.39
9.02
8.34
7.72
7.28
7.03
6.91
6.91
7.17
7.98
9.69
12.67
17.19
23.31
30.69
38.43
45.14
49.34
50.03
47.3
42.41
37.33
33.85
32.83
33.86
35.65
36.63
35.7
32.44
27.08
20.15
12.27
3.91
-4.66
-13.33
-22.09
-30.84
-39.21
-46.46
-51.62
-53.85
-52.86
-48.99
-43.08
-36.09
-28.69
-21.25
-13.9
-6.81
-0.18
5.82
11.26
16.52
22.1
28.34
35.2
42.22
48.7
54.02
57.86
60.25
61.48
61.89
61.8
61.45
60.96
60.3
59.27
57.53
54.67
50.5
45.21
39.39
33.83
29.21
25.72
23
20.25
16.6
11.44
4.69
-3.23
-11.55
-19.48
-26.48
-32.39
-37.47
-42.24
-47.24
-52.81
-58.96
-65.3
-71.23
-76.05
-79.22
-80.48
-79.9
-77.76
-74.47
-70.43
-65.87
-60.82
-55.17
-48.79
-41.67
-34.11
-26.73
-20.31
-15.58
-12.91
-12.22
-12.91
-14.1
-14.86
-14.54
-12.9
-10.15
-6.89
-3.83
-1.6
-0.41
0.08
0.78
2.91
7.59
15.38
25.9
37.86
49.38
58.58
64.17
65.78
63.85
59.36
53.35
46.69
39.95
33.46
27.42
21.94
16.93
12.18
7.31
1.99
-3.9
-10.05
-15.87
-20.63
-23.78
-25.14
-24.88
-23.24
-20.38
-16.27
-10.82
-4.22
2.92
9.61
14.84
17.97
19.04
18.67
17.73
16.86
16.25
15.59
14.42
12.35
9.26
5.27
0.56
-4.72
-10.44
-16.42
-22.31
-27.6
-31.68
-34.16
-35
-34.57
-33.42
-32.07
-30.75
-29.35
-27.53
-24.95
-21.49
-17.26
-12.58
-7.81
-3.21
1.1
5.11
8.84
12.34
15.61
18.68
21.55
24.16
26.35
27.86
28.45
28.02
26.68
24.75
22.61
20.56
18.78
17.28
16.03
14.97
14.03
13.11
12.03
10.58
8.59
6.08
3.22
0.28
-2.45
-4.86
-6.95
-8.9
-10.89
-13.03
-15.3
-17.5
-19.29
-20.28
-20.13
-18.75
-16.35
-13.41
-10.49
-8.04
-6.22
-4.92
-3.85
-2.76
-1.58
-0.35
0.91
2.28
4.06
6.57
9.97
14.1
18.5
22.61
25.95
28.31
29.71
30.31
30.31
29.82
28.95
27.75
26.25
24.33
21.65
17.76
12.3
5.33
-2.53
-10.14
-16.24
-19.93
-21.11
-20.47
-19.24
-18.68
-19.56
-21.96
-25.28
-28.61
-31.07
-32.06
-31.34
-29.01
-25.36
-20.75
-15.63
-10.43
-5.58
-1.48
1.58
3.42
4.06
3.69
2.65
1.37
0.19
-0.68
-1.26
-1.73
-2.27
-3
-3.96
-5.13
-6.56
-8.42
-10.84
-13.82
-17.14
-20.33
-22.88
-24.42
-24.8
-24.1
-22.44
-19.94
-16.65
-12.7
-8.34
-4.01
-0.29
2.31
3.47
3.18
1.81
-0.04
-1.73
-2.76
-2.95
-2.39
-1.36
-0.19
0.91
1.85
2.6
3.07
3.09
2.42
0.84
-1.73
-5.16
-9.12
-13.16
-16.86
-19.92
-22.29
-24.1
-25.57
-26.84
-27.94
-28.71
-28.91
-28.27
-26.63
-23.89
-20.13
-15.54
-10.45
-5.29
-0.54
3.31
5.87
6.94
6.59
5.19
3.32
1.7
0.95
1.46
3.2
5.77
8.45
10.46
11.12
10.08
7.41
3.56
-0.7
-4.55
-7.4
-9.04
-9.65
-9.74
-9.88
-10.52
-11.85
-13.75
-15.86
-17.69
-18.82
-19.07
-18.59
-17.85
-17.38
-17.56
-18.21
-18.61
-17.63
-14.16
-7.56
1.99
13.42
25
34.83
41.41
44.14
43.59
41.36
39.57
40.1
43.91
50.7
59.09
67.22
73.52
77.17
78.22
77.28
74.94
71.51
66.96
61.24
54.63
47.84
41.86
37.52
35.07
34.04
33.44
32.18
29.46
25.05
19.28
12.9
6.87
2.17
-0.34
-0.01
3.4
9.73
18.33
28.22
38.19
47
53.57
57.27
58.11
56.79
54.45
52.15
50.25
48.29
45.19
40.02
32.69
24.27
16.65
11.74
10.63
13.17
18.08
23.54
27.8
29.59
28.27
23.97
17.5
10.22
3.55
-1.51
-4.76
-6.87
-8.94
-11.91
-16.05
-20.89
-25.58
-29.5
-32.52
-35.08
-37.67
-40.4
-42.89
-44.43
-44.5
-43.08
-40.7
-38.11
-36.04
-34.89
-34.91
-36.34
-39.57
-44.97
-52.6
-61.85
-71.51
-80.07
-86.28
-89.5
-89.82
-87.78
-84.04
-79.15
-73.57
-67.74
-62.18
-57.36
-53.49
-50.25
-46.78
-41.95
-34.69
-24.45
-11.49
3.21
18.16
31.82
43.04
51.39
57.14
61.16
64.38
67.55
70.9
74.31
77.49
80.23
82.57
84.65
86.52
88
88.75
88.4
86.77
83.87
79.83
74.79
68.89
62.22
54.85
46.74
37.61
27.08
14.86
1.16
-13.05
-26.21
-36.74
-43.83
-47.93
-50.66
-54.05
-59.55
-67.32
-76.11
-83.82
-88.33
-88.21
-83.14
-73.85
-61.91
-49.31
-38.07
-29.78
-25.33
-24.58
-26.61
-30.1
-33.93
-37.65
-41.43
-45.74
-50.78
-56.24
-61.39
-65.44
-68.02
-69.22
-69.42
-68.9
-67.6
-65.16
-61.19
-55.56
-48.48
-40.48
-32.1
-23.82
-15.85
-8.29
-1.15
5.6
11.97
17.95
23.48
28.46
32.72
36.11
38.54
39.95
40.31
39.65
38.08
35.84
33.38
31.23
29.85
29.47
29.98
30.97
31.86
32.12
31.39
29.56
26.77
23.34
19.77
16.58
14.2
12.89
12.56
12.84
13.15
12.92
11.79
9.69
6.84
3.59
0.28
-2.96
-6.18
-9.57
-13.27
-17.3
-21.41
-25.22
-28.31
-30.36
-31.21
-30.96
-29.78
-27.96
-25.76
-23.44
-21.28
-19.52
-18.36
-17.87
-17.94
-18.31
-18.66
-18.78
-18.66
-18.55
-18.83
-19.74
-21.29
-23.12
-24.71
-25.53
-25.24
-23.68
-20.87
-16.86
-11.73
-5.61
1.22
8.3
15.12
21.25
26.5
30.96
34.9
38.61
42.19
45.43
47.85
48.76
47.54
43.82
37.69
29.78
21.13
12.91
6
0.78
-2.99
-5.85
-8.29
-10.53
-12.37
-13.51
-13.75
-13.22
-12.34
-11.55
-11.19
-11.37
-12.04
-13.16
-14.63
-16.32
-17.89
-18.84
-18.63
-16.86
-13.45
-8.69
-3.1
2.69
8.13
12.79
16.43
18.97
20.45
21.03
20.87
20.12
18.82
16.96
14.72
12.51
11.13
11.41
13.97
18.83
25.31
32.31
38.68
43.61
46.63
47.53
46.09
42.09
35.51
26.84
17.18
8.05
0.82
-3.81
-6.04
-6.76
-7.12
-8.02
-9.85
-12.49
-15.56
-18.66
-21.51
-23.94
-25.85
-27.16
-27.81
-27.81
-27.25
-26.31
-25.16
-23.92
-22.6
-21.15
-19.54
-17.79
-15.91
-13.93
-11.78
-9.4
-6.69
-3.53
0.28
4.99
10.84
17.87
25.73
33.58
40.26
44.55
45.67
43.47
38.56
32.05
25.18
19.07
14.39
11.36
9.8
9.25
9.08
8.66
7.5
5.33
2.12
-1.89
-6.26
-10.46
-13.97
-16.45
-17.84
-18.34
-18.38
-18.4
-18.73
-19.43
-20.33
-21.11
-21.44
-21.12
-20.1
-18.55
-16.74
-15.01
-13.68
-12.99
-12.97
-13.48
-14.19
-14.75
-14.9
-14.53
-13.76
-12.78
-11.81
-10.92
-9.94
-8.61
-6.59
-3.75
-0.17
3.76
7.48
10.47
12.38
13.17
13.03
12.27
11.24
10.2
9.34
8.82
8.78
9.28
10.3
11.73
13.35
14.92
16.25
17.22
17.84
18.19
18.37
18.52
18.67
18.81
18.87
18.83
18.72
18.64
18.68
18.9
19.22
19.5
19.58
19.33
18.72
17.77
16.57
15.23
13.83
12.45
11.13
9.85
8.63
7.44
6.22
4.88
3.31
1.41
-0.87
-3.52
-6.49
-9.7
-13.09
-16.61
-20.11
-23.37
-26.09
-28.04
-29.1
-29.41
-29.21
-28.74
-28.06
-27.08
-25.62
-23.63
-21.32
-19.13
-17.53
-16.85
-17.07
-17.8
-18.51
-18.7
-18.13
-16.9
-15.27
-13.54
-11.9
-10.37
-8.86
-7.29
-5.64
-3.95
-2.29
-0.65
1.03
2.8
4.69
6.63
8.46
9.98
10.99
11.42
11.27
10.66
9.82
8.97
8.26
7.71
7.2
6.53
5.48
3.98
2.08
0.03
-1.84
-3.18
-3.76
-3.59
-2.92
-2.24
-2.07
-2.79
-4.44
-6.65
-8.72
-9.91
-9.63
-7.69
-4.39
-0.37
3.49
6.43
7.95
7.98
6.85
5.24
3.96
3.68
4.79
7.22
10.44
13.58
15.69
16.07
14.53
11.47
7.72
4.26
1.81
0.6
0.38
0.61
0.74
0.43
-0.46
-1.84
-3.58
-5.5
-7.48
-9.33
-10.88
-11.94
-12.43
-12.41
-12.06
-11.66
-11.46
-11.55
-11.86
-12.18
-12.21
-11.72
-10.66
-9.18
-7.54
-6.04
-4.91
-4.21
-3.86
-3.66
-3.34
-2.67
-1.51
0.13
2.05
3.97
5.53
6.44
6.59
6.02
5
3.88
3.04
2.76
3.19
4.2
5.49
6.65
7.37
7.51
7.2
6.73
6.4
6.4
6.69
7.13
7.5
7.73
7.82
7.86
7.88
7.85
7.69
7.4
7.16
7.26
8.05
9.75
12.34
15.59
19.12
22.59
25.77
28.58
31.02
33
34.35
34.83
34.35
33
31.2
29.53
28.47
28.27
28.71
29.24
29.15
27.95
25.48
21.94
17.7
13.06
8.16
3
-2.44
-8.03
-13.52
-18.59
-23.08
-27.02
-30.62
-34.08
-37.43
-40.44
-42.66
-43.58
-42.92
-40.68
-37.26
-33.21
-29.05
-25.06
-21.19
-17.21
-12.9
-8.32
-3.78
0.24
3.3
5.26
6.33
6.96
7.62
8.61
9.92
11.36
12.66
13.7
14.48
15.13
15.71
16.11
15.95
14.72
11.97
7.62
2.07
-3.84
-9.09
-12.95
-15.13
-15.94
-16.05
-16.14
-16.54
-17.1
-17.31
-16.61
-14.66
-11.48
-7.39
-2.85
1.73
6.04
9.79
12.81
15.09
16.83
18.49
20.53
23.1
25.8
27.73
27.93
25.85
21.79
16.93
12.92
11.4
13.4
19
27.2
36.02
42.75
44.47
38.74
24.54
2.9
-23.07
-48.9
-70.1
-83.47
-88
-84.75
-76.2
-65.08
-53.59
-43.05
-34.08
-26.94
-21.77
-18.59
-17.14
-16.83
-16.84
-16.43
-15.29
-13.58
-11.86
-10.84
-11.01
-12.48
-14.93
-17.68
-20
-21.3
-21.32
-20.24
-18.53
-16.85
-15.72
-15.32
-15.41
-15.43
-14.72
-12.78
-9.44
-4.88
0.56
6.52
12.69
18.71
24.15
28.45
31.16
32.05
31.34
29.6
27.62
26.07
25.33
25.37
25.92
26.71
27.56
28.57
29.9
31.6
33.33
34.31
33.64
30.63
25.22
18.08
10.39
3.36
-2.24
-6.28
-9.1
-11.14
-12.67
-13.69
-14.07
-13.88
-13.47
-13.41
-14.29
-16.38
-19.5
-23.09
-26.37
-28.64
-29.48
-28.85
-27.03
-24.44
-21.54
-18.75
-16.44
-14.96
-14.54
-15.24
-16.85
-18.91
-20.83
-22.07
-22.34
-21.57
-19.94
-17.72
-15.18
-12.58
-10.09
-7.89
-6.14
-4.87
-4.11
-3.73
-3.51
-3.2
-2.53
-1.32
0.53
3.06
6.31
10.41
15.59
22.04
29.69
38.04
46.04
52.37
55.83
55.94
53.11
48.56
43.81
40.1
37.89
36.95
36.55
35.84
34.14
30.95
25.95
19.03
10.31
0.36
-9.86
-19.13
-26.35
-30.83
-32.41
-31.42
-28.5
-24.49
-20.26
-16.64
-14.27
-13.46
-14.06
-15.55
-17.19
-18.28
-18.39
-17.43
-15.62
-13.28
-10.74
-8.19
-5.74
-3.37
-1.03
1.43
4.18
7.42
11.3
15.81
20.8
25.88
30.58
34.41
37.01
38.24
38.17
37.1
35.44
33.64
32.12
31.15
30.75
30.7
30.63
30.12
28.91
26.9
24.2
21.01
17.47
13.72
9.83
5.99
2.51
-0.27
-2.05
-2.82
-2.86
-2.66
-2.76
-3.45
-4.71
-6.22
-7.55
-8.33
-8.48
-8.1
-7.41
-6.56
-5.64
-4.68
-3.75
-3.05
-2.82
-3.15
-3.99
-5.05
-5.95
-6.35
-6.16
-5.44
-4.47
-3.53
-2.91
-2.72
-2.96
-3.48
-4.01
-4.25
-3.98
-3.09
-1.67
-0.01
1.46
2.31
2.23
1.19
-0.59
-2.68
-4.65
-6.18
-7.22
-7.94
-8.64
-9.57
-10.81
-12.22
-13.52
-14.36
-14.5
-13.83
-12.43
-10.48
-8.29
-6.09
-4.07
-2.31
-0.82
0.43
1.49
2.44
3.37
4.39
5.56
6.88
8.24
9.44
10.27
10.56
10.31
9.62
8.68
7.68
6.75
5.91
5.15
4.41
3.69
2.98
2.31
1.69
1.09
0.45
-0.31
-1.26
-2.41
-3.66
-4.83
-5.74
-6.26
-6.41
-6.38
-6.43
-6.75
-7.39
-8.18
-8.89
-9.33
-9.47
-9.5
-9.66
-10.15
-10.99
-12.06
-13.1
-13.93
-14.44
-14.71
-14.84
-14.89
-14.82
-14.61
-14.26
-13.94
-13.86
-14.05
-14.32
-14.25
-13.4
-11.67
-9.44
-7.52
-6.72
-7.48
-9.58
-12.22
-14.41
-15.36
-14.85
-13.25
-11.27
-9.62
-8.76
-8.76
-9.25
-9.69
-9.47
-8.06
-5.11
-0.54
5.32
11.65
17.21
20.74
21.41
19.25
15.22
10.98
8.24
8.13
10.77
15.34
20.39
24.41
26.3
25.66
22.75
18.31
13.23
8.29
3.97
0.42
-2.43
-4.73
-6.56
-7.95
-8.91
-9.46
-9.66
-9.55
-9.03
-7.96
-6.14
-3.49
-0.12
3.74
7.77
11.79
15.83
20.08
24.84
30.25
36.25
42.5
48.54
53.98
58.63
62.52
65.82
68.68
71.01
72.48
72.52
70.57
66.26
59.63
51.17
41.69
32.13
23.37
15.98
10.15
5.68
2.18
-0.72
-3.07
-4.61
-4.78
-3.03
0.86
6.62
13.54
20.64
27.01
32.04
35.47
37.29
37.63
36.6
34.29
30.72
25.98
20.18
13.56
6.4
-0.94
-8.14
-14.9
-20.99
-26.22
-30.44
-33.52
-35.42
-36.22
-36.12
-35.45
-34.57
-33.79
-33.31
-33.2
-33.42
-33.83
-34.3
-34.65
-34.7
-34.29
-33.24
-31.4
-28.69
-25.17
-21.07
-16.81
-12.84
-9.53
-6.95
-4.8
-2.45
0.82
5.48
11.57
18.61
25.8
32.39
37.92
42.36
45.98
49.07
51.74
53.78
54.74
54.18
51.85
47.75
42.16
35.49
28.2
20.74
13.43
6.47
-0.1
-6.35
-12.47
-18.61
-24.81
-31.01
-37
-42.53
-47.38
-51.35
-54.27
-56.05
-56.68
-56.24
-54.93
-53.1
-51.05
-48.99
-46.94
-44.67
-41.9
-38.34
-33.86
-28.53
-22.59
-16.41
-10.42
-5.06
-0.65
2.69
5.04
6.69
8.01
9.33
10.83
12.48
14.15
15.69
17
18.02
18.67
18.84
18.39
17.26
15.56
13.53
11.48
9.63
8.03
6.55
4.95
3.05
0.86
-1.45
-3.59
-5.38
-6.83
-8.14
-9.56
-11.26
-13.26
-15.34
-17.31
-19.03
-20.55
-22.13
-24.03
-26.4
-29.17
-32.06
-34.67
-36.68
-37.9
-38.34
-38.24
-37.89
-37.6
-37.6
-37.96
-38.54
-39.1
-39.43
-39.44
-39.35
-39.58
-40.63
-42.82
-46.16
-50.29
-54.62
-58.58
-61.82
-64.34
-66.39
-68.36
-70.68
-73.6
-77.14
-81.02
-84.66
-87.2
-87.81
-85.84
-81.1
-73.93
-65.09
-55.64
-46.5
-38.25
-31
-24.41
-17.9
-11.06
-3.86
3.24
9.54
14.48
18.07
21.05
24.63
29.98
37.73
47.67
59.03
70.84
82.42
93.53
104.19
114.18
122.72
128.42
129.78
125.87
116.88
103.97
88.73
72.36
55.21
36.97
17.31
-3.45
-24.08
-42.88
-58.48
-70.46
-79.46
-86.67
-93.06
-98.89
-103.85
-107.49
-109.59
-110.11
-108.88
-105.35
-98.65
-88.15
-74.08
-57.79
-41.39
-26.94
-15.61
-7.32
-1
4.7
10.7
17.23
23.85
29.87
34.69
37.95
39.6
39.78
38.86
37.27
35.51
34.03
33.19
33.06
33.44
33.85
33.8
32.92
31.22
29.03
26.78
24.71
22.76
20.68
18.24
15.45
12.48
9.36
5.79
1.09
-5.31
-13.5
-22.81
-31.95
-39.43
-44.02
-44.96
-41.97
-35.14
-24.96
-12.38
1.12
13.82
24.18
31.44
35.81
38.29
40.08
41.95
43.87
45.14
44.87
42.57
38.53
33.73
29.43
26.58
25.35
25.15
24.93
23.74
21.12
17.13
12.14
6.39
-0.23
-7.84
-16.01
-23.28
-27.24
-25.33
-16.02
0.24
20.91
42.1
59.98
71.92
77.17
76.7
72.42
66.34
60
54.22
49.26
45.1
41.62
38.71
36.29
34.17
32.02
29.39
25.96
21.78
17.39
13.6
11.04
9.79
9.24
8.46
6.61
3.36
-1.07
-6.16
-11.47
-16.83
-22.28
-27.89
-33.55
-39.05
-44.21
-49.02
-53.63
-58.16
-62.59
-66.72
-70.39
-73.65
-76.9
-80.65
-85.16
-90.16
-94.76
-97.76
-98.09
-95.22
-89.35
-81.23
-71.9
-62.33
-53.31
-45.4
-38.92
-33.98
-30.43
-27.75
-25.16
-21.76
-16.83
-10.12
-1.89
7.09
15.93
23.8
30.24
35.13
38.63
40.95
42.28
42.72
42.34
41.22
39.55
37.58
35.53
33.6
31.81
30.1
28.32
26.35
24.2
21.89
19.53
17.12
14.62
11.98
9.25
6.56
4.16
2.19
0.66
-0.61
-1.87
-3.24
-4.7
-5.99
-6.85
-7.02
-6.4
-5.01
-2.98
-0.54
2.02
4.37
6.2
7.31
7.77
7.8
7.75
7.89
8.35
9.17
10.35
11.9
13.77
15.77
17.5
18.53
18.6
17.78
16.5
15.33
14.77
14.99
15.84
17.03
18.25
19.32
20.16
20.72
20.97
20.95
20.77
20.63
20.72
21.11
21.69
22.22
22.41
22.04
21.07
19.59
17.86
16.19
14.77
13.47
11.78
8.79
3.5
-4.68
-15.47
-27.45
-38.39
-46.01
-48.77
-46.38
-39.77
-30.44
-19.93
-9.48
0.01
7.9
13.74
17.43
19.22
19.53
18.67
16.38
11.99
4.65
-5.96
-19.24
-33.5
-46.42
-55.68
-59.55
-57.3
-49.26
-36.69
-21.4
-5.31
10.03
23.62
35.05
44.27
51.36
56.4
59.56
61.15
61.67
61.61
61.29
60.67
59.49
57.41
54.39
50.75
47.16
44.4
42.96
42.86
43.56
44.19
43.95
42.37
39.59
36.21
32.99
30.52
28.93
27.87
26.71
24.79
21.62
16.92
10.5
2.25
-7.75
-19.11
-31.16
-43.19
-54.89
-66.47
-78.56
-91.61
-105.31
-118.36
-128.87
-134.96
-135.59
-130.81
-121.62
-109.49
-95.81
-81.63
-67.54
-53.9
-40.99
-29.21
-19.1
-11.23
-6.01
-3.41
-2.86
-3.29
-3.53
-2.52
0.3
5
11.31
18.82
27.03
35.39
43.25
49.93
54.9
57.84
58.8
58.13
56.28
53.79
51.03
48.33
45.88
43.75
41.89
40.13
38.23
35.99
33.36
30.56
27.97
26.06
25.15
25.3
26.32
27.97
30.01
32.44
35.27
38.51
41.99
45.4
48.42
50.93
53.08
55.17
57.34
59.38
60.62
60.17
57.32
51.81
44.06
35.03
26.02
18.29
12.66
9.29
7.54
6.15
3.59
-1.4
-9.35
-19.81
-31.56
-43.01
-52.83
-60.4
-65.89
-70.12
-74.06
-78.49
-83.64
-89.18
-94.32
-98.06
-99.61
-98.55
-95.05
-89.72
-83.48
-77.25
-71.76
-67.41
-64.24
-61.91
-59.7
-56.63
-51.66
-44.13
-34.02
-22.12
-9.78
1.56
10.91
18.09
23.65
28.53
33.56
39.12
45.08
50.91
55.95
59.66
61.75
62.22
61.33
59.6
57.58
55.78
54.55
53.93
53.75
53.64
53.18
52.02
50.01
47.19
43.83
40.32
36.95
33.95
31.35
29.08
27.02
25.05
23.13
21.24
19.37
17.48
15.55
13.53
11.37
9.06
6.62
4.15
1.76
-0.33
-1.91
-2.83
-3.12
-2.99
-2.95
-3.53
-5.21
-8.14
-12.05
-16.29
-20.04
-22.59
-23.57
-23.02
-21.33
-18.94
-16.3
-13.65
-11.11
-8.76
-6.58
-4.59
-2.76
-1.04
0.61
2.2
3.67
4.9
5.77
6.26
6.37
6.25
6.08
6.05
6.32
6.97
7.9
8.87
9.45
9.19
7.74
5.02
1.3
-2.84
-6.68
-9.62
-11.46
-12.39
-12.84
-13.29
-13.99
-14.89
-15.74
-16.23
-16.15
-15.4
-13.94
-11.75
-8.81
-5.2
-1.14
2.96
6.7
9.78
12.07
13.61
14.5
14.82
14.63
13.99
12.95
11.56
9.92
8.2
6.57
5.24
4.36
3.93
3.86
3.97
4.09
4.17
4.25
4.42
4.67
4.85
4.69
3.99
2.72
1.03
-0.75
-2.41
-3.86
-5.21
-6.67
-8.39
-10.41
-12.58
-14.69
-16.45
-17.63
-18.06
-17.67
-16.58
-15.07
-13.5
-12.21
-11.39
-10.99
-10.74
-10.3
-9.39
-7.9
-5.85
-3.34
-0.55
2.28
4.82
6.64
7.32
6.7
4.91
2.4
-0.29
-2.76
-4.9
-6.92
-9.08
-11.52
-14.07
-16.34
-17.85
-18.27
-17.49
-15.63
-12.88
-9.51
-5.73
-1.79
2.1
5.69
8.8
11.28
13.03
13.96
14.01
13.17
11.57
9.51
7.36
5.5
4.16
3.32
2.85
2.52
2.2
1.89
1.63
1.48
1.43
1.33
1
0.29
-0.8
-2.12
-3.43
-4.44
-5
-5.11
-4.92
-4.62
-4.32
-4.01
-3.58
-2.98
-2.24
-1.48
-0.85
-0.34
0.23
1.16
2.72
5.02
7.98
11.44
15.17
19.03
22.84
26.43
29.53
31.85
33.21
33.63
33.42
33.06
33.1
33.91
35.64
38.16
41.14
44.22
47.09
49.51
51.37
52.6
53.12
52.86
51.73
49.69
46.76
43.03
38.64
33.78
28.59
23.19
17.62
11.96
6.24
0.51
-5.21
-10.88
-16.44
-21.73
-26.49
-30.4
-33.12
-34.36
-33.97
-31.83
-27.96
-22.43
-15.55
-7.84
-0.02
7.12
12.94
17.12
19.67
20.82
20.87
19.98
18.27
15.82
12.8
9.45
5.97
2.43
-1.33
-5.54
-10.29
-15.36
-20.16
-24
-26.38
-27.34
-27.46
-27.63
-28.71
-31.12
-34.71
-38.89
-42.95
-46.28
-48.61
-49.98
-50.61
-50.77
-50.58
-50.03
-48.92
-47.04
-44.25
-40.61
-36.38
-31.92
-27.56
-23.48
-19.69
-16.16
-12.9
-10.03
-7.73
-6.12
-5.16
-4.61
-4.15
-3.53
-2.69
-1.79
-1.14
-1.01
-1.55
-2.71
-4.3
-6.12
-7.97
-9.7
-11.14
-12.12
-12.49
-12.19
-11.34
-10.24
-9.21
-8.56
-8.35
-8.53
-8.9
-9.29
-9.54
-9.58
-9.36
-8.9
-8.26
-7.65
-7.3
-7.48
-8.3
-9.69
-11.36
-12.89
-13.84
-13.89
-12.94
-11.1
-8.68
-6.06
-3.57
-1.39
0.48
2.17
3.78
5.36
6.9
8.39
9.86
11.37
13.04
14.92
17.03
19.35
21.84
24.49
27.29
30.21
33.16
36
38.56
40.6
41.94
42.44
42.1
41.05
39.48
37.61
35.57
33.35
30.93
28.32
25.66
23.18
21.13
19.66
18.72
18.07
17.41
16.52
15.33
13.96
12.66
11.63
10.99
10.62
10.19
9.3
7.58
4.94
1.62
-1.79
-4.53
-5.84
-5.17
-2.38
2.06
7.16
11.49
13.6
12.51
8.11
1.26
-6.48
-13.41
-18.36
-21.03
-22
-22.39
-23.36
-25.65
-29.39
-34.2
-39.38
-44.21
-48.1
-50.73
-52
-51.98
-50.72
-48.25
-44.56
-39.68
-33.77
-27.13
-20.12
-13.04
-6.06
0.81
7.56
14.09
20.14
25.31
29.23
31.58
32.08
30.49
26.62
20.49
12.56
3.9
-4
-9.58
-11.86
-10.83
-7.51
-3.58
-0.67
0.22
-0.97
-3.52
-6.41
-8.86
-10.59
-11.8
-12.91
-14.19
-15.58
-16.67
-17
-16.36
-14.92
-13.13
-11.49
-10.24
-9.19
-7.8
-5.48
-1.95
2.67
7.79
12.64
16.55
19.17
20.62
21.41
22.3
24.06
27.25
32.05
38.21
45.11
51.93
57.87
62.3
64.87
65.48
64.25
61.43
57.39
52.51
47.24
42.04
37.38
33.67
31.27
30.38
31.02
32.96
35.71
38.58
40.87
41.98
41.55
39.54
36.17
31.84
27.09
22.38
18.04
14.17
10.66
7.3
4.02
1.11
-0.72
-0.45
2.93
9.96
20.53
33.77
48.29
62.53
74.99
84.54
90.38
92.1
89.69
83.45
74.01
62.14
48.69
34.44
20.11
6.29
-6.44
-17.55
-26.56
-33.19
-37.31
-39.09
-38.93
-37.39
-35.13
-32.85
-31.17
-30.62
-31.58
-34.15
-38.2
-43.31
-48.88
-54.3
-59.11
-63.1
-66.24
-68.62
-70.2
-70.81
-70.21
-68.19
-64.81
-60.35
-55.38
-50.49
-46.19
-42.82
-40.46
-38.96
-38.07
-37.47
-36.91
-36.21
-35.33
-34.32
-33.18
-31.86
-30.17
-27.84
-24.64
-20.53
-15.66
-10.41
-5.19
-0.38
3.83
7.31
10.04
11.96
13
13.08
12.18
10.35
7.7
4.43
0.77
-3.02
-6.59
-9.61
-11.87
-13.28
-14
-14.29
-14.46
-14.72
-15.17
-15.82
-16.59
-17.45
-18.36
-19.28
-20.19
-21.05
-21.85
-22.61
-23.37
-24.17
-25
-25.82
-26.58
-27.28
-28.02
-28.98
-30.38
-32.25
-34.46
-36.55
-37.9
-37.85
-35.96
-32.13
-26.72
-20.42
-14.15
-8.73
-4.74
-2.36
-1.4
-1.36
-1.66
-1.77
-1.38
-0.46
0.82
2.18
3.4
4.4
5.33
6.36
7.65
9.15
10.53
11.36
11.23
10
7.81
5.06
2.22
-0.44
-2.82
-5.07
-7.4
-9.96
-12.73
-15.55
-18.19
-20.44
-22.22
-23.52
-24.4
-24.94
-25.22
-25.34
-25.39
-25.43
-25.39
-24.93
-23.55
-20.72
-16.25
-10.63
-4.99
-0.89
0.36
-1.81
-6.9
-13.55
-20.06
-25.02
-27.7
-28.03
-26.44
-23.43
-19.44
-14.74
-9.63
-4.51
0.16
4.13
7.56
11.11
15.7
22.07
30.48
40.51
51.35
62.08
72
80.5
86.83
89.87
88.18
80.5
66.3
46.26
22.18
-3.48
-28.21
-50.05
-67.77
-80.83
-89.09
-92.64
-91.68
-86.64
-78.26
-67.6
-55.97
-44.71
-34.92
-27.35
-22.25
-19.49
-18.61
-19.03
-20.13
-21.41
-22.48
-23.12
-23.2
-22.67
-21.66
-20.44
-19.46
-19.2
-20.05
-22.05
-24.89
-28.08
-31.02
-33.3
-34.62
-34.73
-33.44
-30.61
-26.36
-21.15
-15.73
-10.9
-7.22
-4.88
-3.72
-3.39
-3.55
-3.92
-4.22
-4.23
-3.74
-2.72
-1.24
0.46
2.2
3.9
5.54
7.05
8.18
8.56
7.91
6.3
4.33
2.94
3.06
5.2
9.24
14.41
19.71
24.23
27.58
29.92
31.93
34.5
38.39
44.04
51.36
59.78
68.44
76.45
83.29
88.98
94.08
99.3
105.08
111.17
116.57
119.79
119.37
114.46
105.15
92.39
77.68
62.61
48.37
35.52
23.89
12.77
1.26
-11.33
-24.96
-38.72
-50.96
-59.85
-63.88
-62.49
-56.12
-46.1
-34.18
-22.08
-11.2
-2.39
4.02
8.08
9.97
9.68
6.84
0.84
-8.78
-21.79
-36.96
-52.18
-65.08
-73.78
-77.51
-76.67
-72.43
-66.15
-58.92
-51.4
-44.01
-37.05
-30.86
-25.73
-21.84
-19.24
-17.8
-17.33
-17.48
-17.83
-17.87
-17.17
-15.51
-13
-10.06
-7.27
-5.11
-3.72
-2.78
-1.61
0.64
4.77
11.41
20.95
33.37
48.07
63.53
77.36
86.75
89.53
85.21
75.63
64.4
55.54
51.74
53.19
57.73
62.03
63.3
60.46
54.28
46.5
38.67
31.24
23.48
14.26
3.09
-9.27
-20.83
-29.3
-33.14
-32.4
-28.74
-24.68
-22.42
-23.11
-26.65
-32.24
-38.99
-46.41
-54.29
-62.3
-69.57
-74.67
-76.07
-72.75
-64.69
-53.02
-39.7
-26.96
-16.6
-9.53
-5.56
-3.68
-2.43
-0.54
2.71
7.34
12.86
18.6
24.06
29.08
33.88
38.84
44.36
50.49
56.81
62.29
65.45
64.68
58.73
47.32
31.4
13.15
-4.47
-18.48
-26.61
-27.91
-22.79
-12.86
-0.39
12.33
23.41
31.65
36.4
37.39
34.51
27.86
17.9
5.65
-7.36
-19.47
-29.33
-36.3
-40.42
-41.97
-41.03
-37.27
-30.18
-19.7
-6.71
6.92
18.78
26.76
29.74
27.79
21.9
13.47
3.82
-6.03
-15.3
-23.38
-29.77
-34.15
-36.42
-36.69
-35.11
-31.71
-26.48
-19.39
-10.62
-0.68
9.73
19.82
28.83
36.15
41.21
43.62
43.17
39.99
34.64
28.05
21.36
15.66
11.83
10.31
11.12
13.88
17.9
22.34
26.37
29.24
30.39
29.48
26.48
21.7
15.91
10.14
5.52
2.96
2.87
5.14
9.21
14.37
19.92
25.36
30.4
34.91
38.74
41.74
43.65
44.26
43.47
41.36
38.18
34.22
29.68
24.66
19.24
13.53
7.82
2.51
-1.96
-5.17
-6.83
-6.73
-4.83
-1.28
3.45
8.63
13.3
16.6
17.93
17.15
14.51
10.5
5.72
0.66
-4.26
-8.74
-12.67
-16.16
-19.56
-23.38
-28.06
-33.72
-40.01
-46.07
-50.7
-52.65
-50.95
-45.13
-35.35
-22.31
-7.22
8.53
23.58
36.93
47.97
56.49
62.45
65.71
66.1
63.52
58.22
50.9
42.56
34.09
25.82
17.48
8.43
-1.87
-13.36
-25.35
-36.65
-46.11
-52.97
-56.96
-58.25
-57.28
-54.6
-50.92
-47.15
-44.24
-43.03
-43.87
-46.35
-49.44
-51.7
-51.98
-49.89
-46.03
-41.69
-38.16
-35.99
-34.7
-32.93
-29.13
-22.36
-12.63
-0.84
11.65
23.48
33.36
39.99
42.16
39.17
31.51
21.2
11.33
4.83
3.07
5.24
8.84
11.07
10.29
6.77
2.19
-1.54
-3.34
-3.46
-3.01
-3.11
-4.23
-6
-7.58
-8.17
-7.54
-6.24
-5.43
-6.55
-10.6
-17.67
-26.65
-35.46
-41.72
-43.65
-40.63
-33.42
-23.69
-13.42
-4.13
3.34
8.86
12.64
14.95
15.92
15.65
14.29
12.23
10.05
8.43
7.98
9.11
11.79
15.49
19.2
21.67
21.81
19.15
14.03
7.46
0.67
-5.45
-10.59
-14.91
-18.7
-21.95
-24.36
-25.55
-25.46
-24.49
-23.23
-22.14
-21.23
-20.15
-18.59
-16.59
-14.54
-12.92
-11.8
-10.62
-8.44
-4.45
1.53
8.84
16.44
23.34
29.25
34.66
40.53
47.82
56.83
67.06
77.22
85.56
90.45
90.77
86.16
77.17
65.1
51.75
39.01
28.48
21.1
16.9
15.04
13.97
11.84
7.04
-1.33
-13.13
-27.1
-41.25
-53.34
-61.58
-65.12
-64.28
-60.32
-54.95
-49.77
-45.79
-43.29
-42.05
-41.53
-41.22
-40.74
-39.74
-37.85
-34.68
-29.89
-23.39
-15.45
-6.6
2.52
11.47
20.12
28.62
37.26
46.28
55.84
66.07
76.94
88.16
99
108.29
114.7
117.11
115.16
109.24
100.26
89.13
76.28
61.63
44.87
25.98
5.65
-14.63
-32.88
-47.09
-55.71
-58.13
-54.72
-46.89
-36.66
-26.26
-17.59
-11.87
-9.57
-10.51
-14.15
-19.85
-26.94
-34.67
-42.19
-48.58
-53.02
-55.05
-54.81
-53.12
-51.18
-50.14
-50.56
-52.03
-53.34
-52.88
-49.45
-42.88
-34.2
-25.3
-18.13
-13.95
-12.89
-14.07
-16.16
-18.02
-19.09
-19.42
-19.35
-19.18
-18.89
-18.27
-17.09
-15.35
-13.34
-11.54
-10.29
-9.71
-9.51
-9.28
-8.63
-7.4
-5.78
-4.14
-2.84
-2.05
-1.68
-1.48
-1.17
-0.61
0.14
0.84
1.2
1.02
0.32
-0.68
-1.61
-2.04
-1.65
-0.31
1.86
4.44
6.93
8.82
9.87
10.18
10.12
10.17
10.64
11.46
12.23
12.39
11.51
9.59
7.05
4.51
2.46
0.98
-0.21
-1.53
-3.24
-5.2
-6.91
-7.73
-7.2
-5.2
-2.06
1.55
4.76
6.69
6.64
4.27
-0.16
-5.77
-11.16
-14.78
-15.4
-12.39
-5.93
3.17
13.67
24.25
33.61
40.63
44.43
44.56
41.07
34.62
26.38
17.75
9.94
3.61
-1.27
-5.32
-9.37
-13.98
-19.09
-23.88
-26.93
-26.69
-21.95
-12.3
1.64
18.17
34.71
48.35
56.66
58.42
54.13
45.95
37.09
30.76
29.31
33.56
42.93
55.76
69.91
83.26
93.93
100.26
100.86
94.69
81.34
61.41
36.89
11.06
-11.99
-28.52
-36.36
-35.85
-29.86
-22.85
-19.15
-21.39
-29.63
-41.69
-54.34
-64.82
-71.79
-75.51
-77.18
-78
-78.6
-78.81
-78.06
-75.9
-72.26
-67.49
-62.12
-56.53
-50.93
-45.32
-39.76
-34.41
-29.54
-25.43
-22.2
-19.75
-17.69
-15.54
-12.8
-9.26
-4.95
-0.36
3.68
6.19
6.26
3.44
-1.97
-8.87
-15.57
-20.39
-22.22
-20.96
-17.41
-12.84
-8.36
-4.51
-1.26
1.63
4.21
6.25
7.42
7.67
7.46
7.66
9.14
12.34
17.1
22.77
28.46
33.38
36.86
38.4
37.59
34.25
28.54
21.18
13.36
6.44
1.56
-0.73
-0.67
0.95
3.04
4.65
5.19
4.44
2.52
-0.32
-3.81
-7.68
-11.61
-15.27
-18.37
-20.75
-22.43
-23.64
-24.61
-25.46
-26.15
-26.51
-26.33
-25.56
-24.29
-22.71
-21.01
-19.25
-17.33
-14.99
-11.91
-7.78
-2.45
3.96
10.96
17.76
23.45
27.35
29.31
29.88
30.07
30.89
32.8
35.36
37.26
36.86
33.05
25.84
16.63
7.79
1.76
0.12
3.05
9.33
16.98
23.97
28.88
31.2
31.08
29.11
26.02
22.51
19.16
16.41
14.41
12.97
11.67
10.03
7.78
5
2.02
-0.81
-3.47
-6.36
-10.11
-15.19
-21.51
-28.27
-34.2
-38.03
-38.91
-36.72
-32
-25.7
-18.85
-12.28
-6.63
-2.29
0.5
1.69
1.49
0.39
-0.96
-1.87
-1.87
-0.87
0.82
2.57
3.71
3.73
2.47
0.11
-2.9
-6.14
-9.3
-12.25
-14.95
-17.32
-19.2
-20.43
-20.88
-20.6
-19.74
-18.45
-16.71
-14.29
-10.86
-6.23
-0.62
5.14
9.78
11.91
10.64
6.08
-0.53
-7.15
-11.67
-12.69
-10.03
-4.56
2.33
9.36
15.75
21.01
24.7
26.09
24.39
19.37
11.83
3.69
-2.49
-4.56
-1.63
5.63
15.24
24.84
32.41
36.86
38.03
36.5
33.25
29.36
25.84
23.39
22.28
22.22
22.48
22.11
20.32
16.73
11.54
5.4
-0.83
-6.3
-10.31
-12.43
-12.48
-10.62
-7.42
-3.74
-0.51
1.58
2.41
2.44
2.44
3.05
4.45
6.17
7.45
7.65
6.66
4.96
3.41
2.78
3.34
4.76
6.23
6.89
6.08
3.68
0.08
-3.93
-7.44
-9.77
-10.57
-9.92
-8.17
-5.8
-3.23
-0.81
1.2
2.6
3.21
2.96
1.92
0.31
-1.58
-3.46
-5.08
-6.28
-6.96
-7.06
-6.63
-5.79
-4.74
-3.68
-2.75
-2.03
-1.56
-1.38
-1.58
-2.23
-3.28
-4.51
-5.65
-6.43
-6.77
-6.78
-6.74
-6.88
-7.32
-7.98
-8.68
-9.21
-9.44
-9.33
-8.93
-8.33
-7.6
-6.82
-6
-5.1
-4.02
-2.68
-1.08
0.55
1.9
2.72
3.05
3.3
4.17
6.33
10.09
15.1
20.4
24.7
26.71
25.54
20.95
13.36
3.8
-6.29
-15.3
-21.83
-25.02
-24.78
-21.83
-17.46
-13.13
-9.96
-8.45
-8.38
-9.03
-9.57
-9.44
-8.66
-7.68
-7.22
-7.71
-9.18
-11.22
-13.28
-14.91
-15.98
-16.58
-16.85
-16.79
-16.27
-15.16
-13.41
-11.19
-8.7
-6.08
-3.36
-0.52
2.29
4.75
6.39
6.87
6.16
4.58
2.65
0.92
-0.26
-0.81
-0.88
-0.67
-0.27
0.36
1.36
2.87
4.86
7.08
9.12
10.55
11.2
11.31
11.48
12.55
15.3
20.29
27.79
37.72
49.61
62.4
74.37
83.37
87.48
85.88
79.39
70.38
61.87
56.27
54.34
55.01
55.9
54.49
49.02
38.93
24.82
8.11
-9.34
-25.53
-38.52
-46.93
-50.27
-49.24
-45.53
-41.25
-38.18
-37.24
-38.47
-41.38
-45.6
-51.12
-58.24
-67.06
-77.07
-87.04
-95.45
-100.99
-103.07
-101.76
-97.42
-90.28
-80.24
-67.2
-51.55
-34.57
-18.3
-4.94
3.95
8.1
8.44
6.66
4.35
2.54
1.57
1.37
1.97
3.71
7.2
12.95
20.98
30.6
40.64
49.77
56.93
61.67
64.18
65.08
65.19
65.27
65.84
67.1
68.99
71.25
73.55
75.47
76.46
75.8
72.64
66.14
55.67
41.1
23.11
3.39
-15.45
-30.41
-38.95
-39.95
-34.38
-25.17
-16.27
-11.25
-12.15
-18.91
-29.72
-42.05
-53.57
-62.8
-69.03
-72.09
-72
-68.93
-63.31
-56.02
-48.33
-41.6
-36.92
-34.73
-34.73
-35.99
-37.4
-37.88
-36.79
-33.99
-29.75
-24.54
-18.87
-13.05
-7.23
-1.45
4.16
9.29
13.37
15.82
16.28
14.91
12.41
9.78
7.94
7.32
7.76
8.73
9.67
10.22
10.29
9.82
8.6
6.32
2.74
-2
-7.24
-11.97
-15.19
-16.27
-15.19
-12.47
-8.94
-5.57
-3.16
-2.16
-2.56
-3.78
-4.76
-4.23
-1.02
5.66
16
29.52
45.1
60.98
75.01
85.05
89.52
87.93
81.31
71.92
62.65
55.95
53.11
53.91
56.88
59.98
61.35
59.72
54.52
45.73
33.65
18.77
1.77
-16.4
-34.47
-50.99
-64.5
-73.85
-78.47
-78.53
-74.81
-68.52
-60.88
-52.87
-45.02
-37.49
-30.43
-24.16
-19.45
-17.27
-18.39
-22.81
-29.41
-36.09
-40.34
-40.04
-34.26
-23.54
-9.67
5.06
18.68
30.04
38.93
45.73
50.81
54.29
55.94
55.57
53.25
49.49
45
40.27
35.32
29.67
22.72
14.1
3.99
-6.92
-17.81
-28
-37.13
-44.98
-51.21
-55.3
-56.57
-54.54
-49.25
-41.31
-31.76
-21.73
-12.16
-3.58
3.78
9.94
14.92
18.58
20.63
20.65
18.35
13.74
7.28
-0.16
-7.52
-13.79
-18.28
-20.68
-21.01
-19.59
-16.92
-13.67
-10.6
-8.42
-7.48
-7.61
-7.92
-7.1
-3.78
2.87
12.65
24.14
34.96
42.41
44.45
40.51
31.95
21.82
13.93
11.46
15.73
25.52
37.41
47.07
50.79
46.81
35.88
20.78
5.24
-7.25
-14.34
-15.16
-10.29
-1.36
9.34
19.35
26.47
29.21
27.08
20.52
10.74
-0.83
-12.79
-24.01
-33.66
-41.18
-46.4
-49.58
-51.39
-52.66
-54.13
-56.24
-59.03
-62.24
-65.4
-67.9
-68.92
-67.53
-62.82
-54.3
-42.12
-27.34
-11.66
3
15.13
24.09
30.26
34.93
39.66
45.75
53.61
62.51
70.83
76.59
78.12
74.54
65.84
52.75
36.45
18.42
0.45
-15.46
-27.28
-33.45
-33.45
-28.27
-20.32
-12.86
-8.95
-10.34
-16.87
-26.53
-36.31
-43.41
-46.29
-45.08
-41.28
-36.9
-33.61
-32.12
-32.24
-33.18
-34.04
-34.15
-33.1
-30.75
-27.12
-22.38
-16.87
-11.12
-5.78
-1.48
1.4
2.85
3.29
3.49
4.35
6.6
10.56
15.98
22.01
27.5
31.2
32.12
29.87
24.7
17.45
9.3
1.44
-5.2
-10.05
-12.95
-13.99
-13.5
-11.93
-9.88
-8
-6.96
-7.19
-8.78
-11.46
-14.64
-17.65
-19.93
-21.07
-20.95
-19.66
-17.43
-14.55
-11.35
-8.04
-4.74
-1.45
1.88
5.26
8.64
11.92
14.98
17.68
19.94
21.68
22.83
23.41
23.47
23.16
22.66
22.12
21.58
20.98
20.19
19.04
17.39
15.21
12.66
10.16
8.33
7.74
8.63
10.61
12.77
14
13.48
10.96
6.72
1.34
-4.67
-10.92
-17.06
-22.54
-26.67
-28.76
-28.53
-26.29
-22.8
-18.95
-15.38
-12.35
-9.83
-7.68
-5.78
-4.02
-2.17
0.11
3.14
7.09
11.82
17.04
22.49
28.1
33.94
40.03
46.07
51.41
55.15
56.38
54.56
49.71
42.44
33.79
24.92
16.92
10.59
6.44
4.67
5.11
7.21
9.97
12.17
12.63
10.63
6.13
-0.15
-7.05
-13.45
-18.6
-22.35
-24.97
-26.89
-28.44
-29.79
-30.97
-31.89
-32.4
-32.33
-31.48
-29.73
-27.11
-23.88
-20.46
-17.37
-15.06
-13.8
-13.57
-14.05
-14.69
-14.95
-14.42
-12.95
-10.72
-8.06
-5.27
-2.53
0.11
2.53
4.49
5.6
5.53
4.28
2.3
0.42
-0.53
-0.09
1.56
3.72
5.44
6.04
5.33
3.62
1.54
-0.36
-1.79
-2.86
-3.84
-4.99
-6.33
-7.6
-8.37
-8.26
-7.18
-5.41
-3.49
-2
-1.3
-1.37
-1.77
-1.84
-0.98
1.18
4.65
9.17
14.32
19.6
24.37
27.89
29.34
28.14
24.3
18.68
12.89
8.66
7.1
8.08
10.24
11.69
10.97
7.75
2.83
-2.41
-6.83
-9.94
-11.83
-12.62
-12.03
-9.39
-4.09
3.82
13.26
22.27
28.73
31.24
29.67
25.32
20.33
16.82
16
17.65
20.3
21.89
20.79
16.47
9.77
2.36
-4.01
-8.26
-10.24
-10.5
-9.86
-8.95
-8.01
-7.03
-5.92
-4.67
-3.31
-1.84
-0.18
1.74
3.78
5.46
5.98
4.62
0.99
-4.63
-11.3
-17.74
-22.71
-25.4
-25.52
-23.3
-19.27
-14.06
-8.32
-2.64
2.44
6.53
9.47
11.33
12.45
13.23
14.05
15.16
16.61
18.32
20.14
21.84
23.16
23.82
23.58
22.33
20.23
17.64
15.14
13.27
12.45
12.85
14.4
16.87
19.85
22.82
25.16
26.21
25.48
22.76
18.22
12.36
5.85
-0.74
-7
-12.86
-18.5
-24.21
-30.24
-36.59
-42.83
-48.15
-51.54
-52.21
-49.91
-45.1
-38.85
-32.5
-27.27
-24.01
-22.99
-23.95
-26.25
-28.91
-30.88
-31.28
-29.66
-26.18
-21.51
-16.62
-12.39
-9.34
-7.51
-6.56
-6.02
-5.48
-4.72
-3.7
-2.5
-1.22
0.01
1.17
2.19
3.05
3.69
4.06
4.19
4.15
4.13
4.36
5.06
6.28
7.93
9.74
11.33
12.33
12.43
11.37
9.03
5.49
1.14
-3.27
-6.75
-8.39
-7.72
-4.98
-1.09
2.7
5.33
6.33
6.02
5.18
4.69
5.05
6.2
7.64
8.77
9.13
8.59
7.32
5.62
3.72
1.74
-0.35
-2.59
-4.97
-7.36
-9.58
-11.48
-13.02
-14.29
-15.36
-16.25
-16.76
-16.6
-15.41
-12.98
-9.31
-4.66
0.52
5.66
10.16
13.5
15.35
15.73
15.04
13.9
12.9
12.35
12.1
11.72
10.75
9.08
7
5.09
3.82
3.34
3.36
3.43
3.14
2.43
1.56
0.97
1.03
2
3.88
6.58
9.9
13.51
16.83
19.06
19.33
17.08
12.4
6.27
0.29
-3.84
-5.03
-3.35
0.01
3.32
5.05
4.59
2.39
-0.37
-2.42
-2.94
-1.77
0.87
4.61
9.19
14.44
20
25.18
29.01
30.61
29.56
26.19
21.47
16.6
12.54
9.59
7.37
5.07
1.89
-2.63
-8.42
-14.96
-21.48
-27.26
-31.87
-35.27
-37.71
-39.59
-41.06
-41.92
-41.55
-39.13
-34.04
-26.23
-16.33
-5.54
4.77
13.46
19.91
24.03
26.11
26.64
26.15
25.14
24.08
23.28
22.88
22.73
22.45
21.56
19.64
16.56
12.51
7.98
3.55
-0.31
-3.38
-5.7
-7.42
-8.74
-9.75
-10.5
-10.99
-11.33
-11.75
-12.49
-13.72
-15.38
-17.18
-18.66
-19.41
-19.22
-18.16
-16.52
-14.71
-13.05
-11.8
-11.11
-11.16
-12.12
-14.08
-16.84
-19.83
-22.18
-23.01
-21.74
-18.48
-13.99
-9.52
-6.25
-4.89
-5.38
-6.96
-8.54
-9.19
-8.42
-6.28
-3.17
0.47
4.36
8.3
12.11
15.68
19.12
23.02
28.4
36.17
46.42
57.82
67.83
73.57
73.07
66.13
54.35
40.28
26.21
13.38
1.85
-8.89
-19.1
-28.24
-35.05
-38.11
-36.66
-31.11
-23.09
-14.74
-7.89
-3.2
-0.11
2.62
6.02
10.22
14.39
17.38
18.46
17.82
16.42
15.34
15.2
15.78
16.25
15.5
12.67
7.3
-0.52
-10.07
-20.11
-29.05
-35.35
-38.07
-37.12
-33.28
-27.82
-22.05
-16.97
-13.26
-11.37
-11.54
-13.8
-17.78
-22.74
-27.71
-31.9
-35.06
-37.54
-40.02
-43.02
-46.56
-50.04
-52.52
-53.14
-51.41
-47.41
-41.57
-34.53
-26.94
-19.56
-13.14
-8.4
-5.38
-3.2
0.14
6.91
18.47
34.26
51.52
66.25
74.87
75.76
69.73
59.44
47.87
37.15
27.97
20.01
12.82
6.37
1.19
-2.05
-3.01
-1.96
0.37
3.01
5.09
6.03
5.59
3.88
1.33
-1.44
-3.71
-4.91
-4.82
-3.62
-1.88
-0.42
-0.23
-2.3
-7.24
-14.61
-22.47
-27.45
-25.94
-15.84
1.88
22.87
40.8
50
47.79
35.54
17.6
-0.92
-16.45
-27.95
-36.36
-43.12
-48.91
-53.26
-55.17
-53.82
-49.01
-41.17
-30.99
-19.11
-6.18
6.92
18.89
28.23
33.75
35.23
33.74
31.28
29.9
30.66
33.14
35.71
36.37
33.82
28.04
20.32
12.79
7.54
5.98
8.41
14.1
21.51
28.74
33.92
35.6
33.03
26.37
16.57
5.29
-5.47
-13.85
-18.47
-18.94
-15.88
-10.77
-5.28
-0.76
2.22
3.74
4.11
3.51
1.8
-1.1
-4.89
-8.71
-11.46
-12.36
-11.41
-9.44
-7.6
-6.79
-7.27
-8.78
-10.85
-13.2
-15.67
-18.03
-19.67
-19.6
-16.89
-11.18
-3.08
5.78
13.29
17.63
17.96
14.77
9.71
5.03
2.79
4.25
9.59
17.95
27.85
37.64
45.99
52.14
55.99
58.02
59.12
60.35
62.63
66.46
71.75
77.8
83.4
87.17
87.83
84.65
77.63
67.42
55.11
41.73
27.88
13.61
-1.31
-17.03
-33.11
-48.51
-61.79
-71.58
-77.09
-78.29
-75.87
-71.01
-65.15
-59.79
-56.26
-55.59
-58.13
-63.38
-69.97
-76.01
-79.69
-79.89
-76.55
-70.57
-63.46
-56.68
-51.23
-47.46
-45.2
-43.94
-43.04
-41.81
-39.59
-35.75
-29.96
-22.3
-13.39
-4.3
3.86
10.38
15.22
19
22.44
25.94
29.14
31.1
30.82
27.78
22.3
15.36
8.06
1.26
-4.63
-9.42
-12.76
-14.07
-12.67
-8.21
-1.04
7.88
17.28
26.13
33.93
40.77
47.03
53.11
59.12
64.71
69.06
70.9
68.66
60.89
46.78
26.68
2.55
-22.38
-44.34
-60.03
-67.64
-67.13
-59.99
-48.63
-35.81
-24.17
-15.94
-12.71
-14.92
-21.44
-29.58
-35.76
-36.78
-31.23
-20.19
-6.86
4.74
11.48
12.25
8.15
1.74
-4.1
-7.26
-6.75
-2.71
4
12.16
20.4
27.4
32.02
33.58
32.1
28.28
23.32
18.65
15.43
14.27
15.13
17.37
20
21.94
22.39
21.04
18.14
14.33
10.37
6.79
3.63
0.49
-3.25
-8.08
-14.09
-20.9
-27.78
-33.83
-38.28
-40.54
-40.35
-37.77
-33.22
-27.43
-21.29
-15.67
-11.16
-7.98
-5.94
-4.64
-3.7
-2.89
-2.22
-1.87
-2.11
-3.17
-5.14
-7.85
-10.83
-13.34
-14.52
-13.6
-10.14
-4.19
3.71
12.75
22.13
31.22
39.64
47.19
53.69
58.9
62.52
64.3
64.11
61.99
58.16
52.9
46.52
39.34
31.74
24.22
17.34
11.58
7.19
4.12
1.99
0.22
-1.73
-4.3
-7.8
-12.42
-18.33
-25.57
-33.94
-42.85
-51.35
-58.3
-62.72
-64.15
-62.77
-59.31
-54.7
-49.63
-44.31
-38.44
-31.5
-23.06
-13.09
-1.99
9.47
20.36
29.75
36.89
41.42
43.52
43.91
43.83
44.55
47.01
51.42
57.17
63.1
67.92
70.53
70.28
66.87
60.27
50.67
38.67
25.41
12.61
2.23
-4.09
-5.63
-3
1.95
6.68
8.84
7.07
1.39
-6.92
-15.96
-23.98
-30.01
-34.06
-36.78
-39.01
-41.32
-43.79
-46.19
-48.22
-49.85
-51.26
-52.71
-54.29
-55.71
-56.42
-55.85
-53.69
-50.14
-45.78
-41.42
-37.74
-35.03
-33.16
-31.75
-30.38
-28.81
-27.12
-25.56
-24.43
-23.85
-23.65
-23.37
-22.48
-20.62
-17.72
-14.15
-10.45
-7.16
-4.54
-2.51
-0.71
1.3
3.89
7.3
11.55
16.49
21.72
26.61
30.33
32.18
31.8
29.44
25.95
22.42
19.85
18.83
19.44
21.42
24.39
28.06
32.17
36.38
40.09
42.48
42.73
40.29
35.16
28.03
20.06
12.58
6.65
2.81
0.97
0.65
1.27
2.44
4.1
6.37
9.29
12.61
15.69
17.79
18.36
17.39
15.45
13.38
11.93
11.31
11.2
10.92
9.93
8.14
5.97
4.15
3.2
3.2
3.62
3.67
2.63
0.29
-2.9
-6
-7.98
-8.12
-6.28
-2.99
0.81
3.97
5.44
4.45
0.61
-5.93
-14.33
-23.1
-30.39
-34.52
-34.6
-30.93
-24.89
-18.38
-13.05
-9.72
-8.27
-8.03
-8.28
-8.64
-9.2
-10.19
-11.74
-13.63
-15.45
-16.76
-17.36
-17.38
-17.23
-17.34
-17.96
-18.96
-19.86
-20
-18.81
-16.01
-11.81
-6.83
-1.81
2.61
6.13
8.84
11.07
13.3
16
19.73
25
32.17
41.13
51.14
60.84
68.67
73.34
74.32
71.91
66.95
60.32
52.51
43.63
33.63
22.73
11.72
1.8
-5.82
-10.39
-12.03
-11.69
-10.8
-10.75
-12.43
-16.02
-20.98
-26.22
-30.45
-32.43
-31.35
-27.15
-20.63
-13.36
-7.26
-3.85
-3.71
-6.22
-9.8
-12.59
-13.18
-11.02
-6.58
-0.88
4.93
10.1
14.41
18.04
21.19
23.77
25.27
24.93
22.16
16.9
9.66
1.41
-6.83
-14.22
-20.21
-24.33
-26.1
-25.03
-20.87
-13.98
-5.39
3.34
10.62
15.39
17.54
17.84
17.57
17.85
19.17
21.13
22.77
23
21.2
17.41
12.17
6.1
-0.51
-7.82
-16.3
-26.28
-37.68
-49.91
-62
-72.93
-81.79
-87.94
-91
-90.88
-87.79
-82.32
-75.43
-68.25
-61.92
-57.19
-54.29
-52.73
-51.45
-49.13
-44.62
-37.35
-27.52
-16
-3.98
7.47
17.8
27.07
35.7
44.22
53
62.13
71.46
80.69
89.42
97.13
103.26
107.12
108.06
105.5
98.99
88.4
73.95
56.41
37.01
17.35
-1.02
-16.88
-29.54
-38.91
-45.17
-48.73
-50.03
-49.65
-48.32
-46.96
-46.44
-47.34
-49.68
-52.87
-55.94
-57.78
-57.51
-54.68
-49.26
-41.58
-32.09
-21.41
-10.33
0.2
9.16
15.84
20.23
23.28
26.54
31.56
38.9
47.71
55.75
60.36
59.5
52.62
40.96
26.98
13.59
3.28
-2.42
-3.14
0.3
6.07
11.75
14.97
14.12
9
0.75
-8.5
-16.54
-21.86
-24.13
-24.05
-22.95
-22.19
-22.74
-24.9
-28.35
-32.22
-35.29
-36.31
-34.39
-29.22
-21.27
-11.61
-1.59
7.51
14.84
20.03
23.14
24.52
24.6
23.8
22.49
21.03
19.65
18.4
17.13
15.53
13.23
9.97
5.66
0.43
-5.47
-11.68
-17.71
-23.04
-27.08
-29.27
-29.22
-26.9
-22.78
-17.85
-13.45
-10.99
-11.47
-15.26
-21.93
-30.48
-39.68
-48.4
-55.83
-61.47
-65
-66.27
-65.16
-61.62
-55.64
-47.23
-36.56
-24.28
-11.72
-0.84
6.26
8.31
5.6
0.12
-5.19
-7.76
-6.63
-2.81
1.26
3.06
1.19
-3.93
-10.47
-16.13
-19.26
-19.45
-17.49
-14.76
-12.52
-11.4
-11.39
-12.04
-12.85
-13.42
-13.42
-12.45
-10
-5.65
0.57
8
15.53
22.01
26.79
30.04
32.54
35.28
39.01
44
50.18
57.29
65.08
73.23
81.16
87.97
92.63
94.41
93.29
90.11
86.27
83.15
81.47
80.96
80.59
79.15
75.84
70.7
64.46
58.27
53.09
49.46
47.34
46.23
45.41
44.05
41.48
37.31
31.62
24.94
18.1
11.92
6.89
2.98
-0.21
-3.27
-6.6
-10.37
-14.52
-18.82
-23.13
-27.34
-31.37
-35.05
-37.99
-39.72
-39.88
-38.4
-35.64
-32.22
-28.71
-25.39
-22.12
-18.47
-14.06
-8.76
-2.83
3.28
9.05
13.94
17.46
19.11
18.54
15.75
11.3
6.2
1.63
-1.58
-3.23
-3.76
-3.97
-4.49
-5.6
-7.14
-8.83
-10.46
-12.07
-13.85
-15.96
-18.32
-20.61
-22.37
-23.21
-23.01
-21.95
-20.36
-18.6
-16.81
-14.94
-12.77
-10.06
-6.64
-2.42
2.69
8.69
15.38
22.25
28.41
32.92
35.04
34.57
31.91
27.85
23.23
18.59
14.17
9.97
5.92
1.91
-2.16
-6.53
-11.52
-17.34
-23.87
-30.4
-35.73
-38.49
-37.63
-32.87
-24.89
-15.2
-5.66
2.04
6.92
8.8
8.31
6.5
4.48
3.1
2.77
3.53
5.13
7.28
9.81
12.76
16.47
21.37
27.78
35.58
43.94
51.45
56.46
57.69
54.73
48.18
39.34
29.62
20.07
11.24
3.38
-3.31
-8.68
-12.93
-16.9
-22.03
-29.82
-41.1
-55.52
-71.58
-87.36
-101.32
-112.75
-121.73
-128.62
-133.51
-135.99
-135.37
-131.1
-123.18
-112.29
-99.65
-86.61
-74.21
-62.95
-52.74
-43.12
-33.66
-24.17
-14.82
-5.85
2.74
11.38
20.77
31.43
43.23
55.22
65.91
73.87
78.33
79.47
78.25
75.89
73.41
71.29
69.52
67.8
65.79
63.26
60.11
56.26
51.67
46.37
40.52
34.37
28.28
22.57
17.47
13.1
9.48
6.59
4.37
2.74
1.58
0.75
0.03
-0.78
-1.83
-3.18
-4.81
-6.57
-8.33
-10.01
-11.62
-13.22
-14.86
-16.53
-18.12
-19.44
-20.31
-20.62
-20.31
-19.38
-17.91
-16.06
-14.04
-12.11
-10.45
-9.13
-8.02
-6.9
-5.51
-3.72
-1.55
0.83
3.25
5.58
7.71
9.55
10.91
11.51
11.14
9.72
7.46
4.71
1.95
-0.45
-2.27
-3.34
-3.52
-2.58
-0.32
3.24
7.69
12.26
16.01
18.16
18.42
17.01
14.51
11.55
8.58
5.73
3.03
0.44
-1.95
-3.94
-5.33
-6.1
-6.43
-6.6
-6.92
-7.54
-8.39
-9.28
-9.93
-10.19
-10.01
-9.53
-9.02
-8.69
-8.7
-9.07
-9.73
-10.59
-11.56
-12.59
-13.62
-14.59
-15.43
-16.11
-16.65
-17.08
-17.45
-17.73
-17.85
-17.74
-17.41
-16.98
-16.62
-16.51
-16.74
-17.19
-17.62
-17.66
-17.03
-15.61
-13.5
-10.98
-8.38
-5.97
-3.82
-1.84
0.16
2.32
4.7
7.24
9.84
12.31
14.43
15.87
16.34
15.69
14.02
11.75
9.43
7.54
6.29
5.62
5.29
5.14
5.18
5.55
6.47
8
10.1
12.57
15.26
18.04
20.85
23.55
25.99
27.95
29.24
29.69
29.17
27.55
24.79
21.01
16.52
11.89
7.72
4.44
2.11
0.4
-1.26
-3.37
-6.08
-9.14
-12.02
-14.18
-15.39
-15.79
-15.86
-16.13
-16.98
-18.4
-20.09
-21.57
-22.49
-22.73
-22.46
-22.01
-21.73
-21.83
-22.31
-23
-23.64
-24.02
-23.99
-23.48
-22.5
-21.1
-19.32
-17.24
-14.99
-12.74
-10.77
-9.34
-8.61
-8.49
-8.7
-8.8
-8.42
-7.43
-5.97
-4.37
-3
-2.02
-1.35
-0.74
0.22
1.78
4.02
6.76
9.66
12.37
14.66
16.57
18.38
20.51
23.27
26.71
30.53
34.22
37.24
39.37
40.79
42.02
43.72
46.36
50.16
55
60.41
65.5
68.88
68.99
64.44
54.82
41
25.19
10.28
-1.2
-7.87
-9.92
-8.73
-6.07
-3.32
-1.06
0.91
3.09
5.86
9.16
12.52
15.18
16.52
16.26
14.69
12.54
10.69
9.84
10.32
11.99
14.51
17.52
20.79
24.19
27.48
30.18
31.7
31.55
29.76
26.92
24.01
21.87
20.83
20.43
19.78
18.09
15.1
11.21
7.22
3.89
1.51
-0.14
-1.7
-3.84
-7.01
-11.29
-16.39
-21.8
-26.91
-31.25
-34.57
-36.88
-38.39
-39.36
-39.96
-40.23
-40.12
-39.63
-38.9
-38.3
-38.23
-39.11
-41.19
-44.55
-49.03
-54.27
-59.72
-64.67
-68.33
-70.01
-69.22
-65.81
-59.97
-52.2
-43.24
-34.04
-25.57
-18.72
-14.03
-11.58
-10.89
-11.17
-11.58
-11.55
-10.95
-10.03
-9.17
-8.62
-8.4
-8.33
-8.16
-7.8
-7.33
-6.95
-6.83
-7.03
-7.43
-7.79
-7.86
-7.48
-6.69
-5.66
-4.63
-3.84
-3.41
-3.36
-3.57
-3.86
-4
-3.8
-3.12
-1.98
-0.46
1.24
2.94
4.53
5.99
7.35
8.72
10.17
11.65
13.09
14.34
15.28
15.87
16.22
16.51
16.94
17.67
18.74
20.07
21.55
23.01
24.32
25.38
26.15
26.75
27.46
28.79
31.31
35.46
41.22
47.97
54.43
59.04
60.39
57.71
51.11
41.6
30.73
20.23
11.53
5.51
2.26
1.22
1.28
1.21
-0
-2.9
-7.38
-12.9
-18.71
-24.19
-29
-33.09
-36.46
-39.04
-40.61
-40.81
-39.33
-35.98
-30.81
-24.14
-16.66
-9.49
-4.09
-1.99
-4.37
-11.57
-22.82
-36.32
-49.73
-60.86
-68.34
-71.82
-71.91
-69.73
-66.41
-62.81
-59.4
-56.44
-54.01
-52.1
-50.45
-48.62
-45.95
-41.85
-35.96
-28.43
-19.93
-11.57
-4.65
-0.3
0.76
-1.53
-6.56
-13.15
-19.81
-25.13
-28.04
-28.07
-25.31
-20.31
-13.75
-6.33
1.39
8.95
15.93
22.09
27.39
32.04
36.46
41.06
45.95
50.91
55.41
59
61.6
63.65
65.89
68.89
72.65
76.45
79.11
79.53
77.24
72.66
66.91
61.35
57.03
54.39
53.14
52.6
51.92
50.33
47.23
42.27
35.28
26.42
16.25
5.68
-4.17
-12.28
-18.16
-21.97
-24.52
-26.94
-30.21
-34.84
-40.71
-47.14
-53.15
-57.83
-60.54
-61.16
-59.99
-57.67
-54.94
-52.43
-50.52
-49.29
-48.61
-48.24
-48
-47.73
-47.28
-46.47
-45.08
-42.92
-39.92
-36.23
-32.15
-28.01
-24.03
-20.2
-16.31
-12.05
-7.19
-1.69
4.19
10.01
15.36
19.99
23.95
27.54
31.1
34.87
38.83
42.75
46.28
49.15
51.29
52.85
54.12
55.49
57.36
60.11
63.99
68.96
74.47
79.35
81.99
80.85
75
64.54
50.69
35.43
20.91
8.9
0.36
-4.57
-6.43
-6.32
-5.57
-5.54
-7.31
-11.41
-17.67
-25.24
-32.91
-39.46
-44.01
-46.23
-46.4
-45.26
-43.79
-42.98
-43.53
-45.61
-48.75
-51.96
-53.99
-53.86
-51.16
-46.23
-40.07
-33.93
-28.95
-25.77
-24.51
-24.84
-26.21
-28.07
-29.91
-31.35
-32.07
-31.83
-30.5
-28.16
-25.03
-21.49
-17.95
-14.74
-12.06
-9.91
-8.18
-6.66
-5.18
-3.6
-1.89
-0.1
1.61
3.11
4.31
5.22
5.96
6.67
7.47
8.35
9.18
9.81
10.13
10.13
9.93
9.72
9.62
9.66
9.87
10.21
10.79
11.79
13.47
15.99
19.39
23.37
27.4
30.81
32.95
33.35
31.84
28.56
23.88
18.3
12.29
6.27
0.5
-4.83
-9.65
-13.98
-17.9
-21.52
-24.91
-28.02
-30.68
-32.64
-33.57
-33.23
-31.51
-28.47
-24.33
-19.42
-14.07
-8.6
-3.17
2.19
7.62
13.3
19.48
26.29
33.75
41.67
49.66
57.14
63.46
68.02
70.39
70.42
68.26
64.36
59.34
53.9
48.7
44.19
40.58
37.79
35.54
33.47
31.3
28.86
26.11
23.1
19.87
16.39
12.59
8.46
4.06
-0.46
-4.87
-8.96
-12.59
-15.79
-18.72
-21.56
-24.39
-27.14
-29.57
-31.33
-32.17
-31.91
-30.59
-28.45
-25.86
-23.24
-20.97
-19.29
-18.1
-17.02
-15.36
-12.4
-7.55
-0.66
7.89
17.18
26
33.22
38.18
40.95
42.27
43.21
44.66
46.88
49.4
51.2
51.15
48.49
43.04
35.22
25.85
15.87
6.18
-2.57
-10
-16.08
-21.09
-25.52
-29.87
-34.48
-39.36
-44.18
-48.38
-51.39
-52.83
-52.66
-51.2
-49
-46.67
-44.64
-43.06
-41.73
-40.21
-38.04
-34.89
-30.71
-25.77
-20.62
-15.93
-12.27
-9.94
-8.91
-8.76
-8.89
-8.69
-7.81
-6.22
-4.24
-2.38
-1.18
-0.99
-1.84
-3.35
-4.72
-4.84
-2.56
2.97
11.97
23.63
36.26
47.53
55.12
57.35
53.68
44.86
32.7
19.57
7.77
-1.01
-6.05
-7.6
-6.68
-4.56
-2.38
-0.82
-0.09
-0.13
-0.73
-1.7
-2.74
-3.47
-3.5
-2.85
-2.3
-3.41
-7.91
-16.69
-29
-42.3
-53.22
-58.95
-58.56
-53.38
-46.29
-40.3
-37.12
-36.65
-37.26
-36.77
-33.45
-26.48
-15.9
-2.31
13.31
29.61
44.77
56.74
63.72
64.88
60.87
53.75
46.3
40.98
39.06
40.19
42.76
44.75
44.53
41.55
36.45
30.75
26.32
24.8
27.1
33.13
41.83
51.36
59.58
64.56
65.03
60.6
51.73
39.52
25.48
11.19
-1.83
-12.5
-20.28
-25.39
-28.63
-30.88
-32.57
-33.3
-31.95
-27.45
-19.54
-9.31
0.95
8.61
11.63
9.28
2.27
-7.7
-18.64
-28.76
-36.83
-42.14
-44.48
-44.02
-41.33
-37.38
-33.39
-30.63
-30.03
-31.94
-35.95
-41.01
-45.81
-49.31
-51.06
-51.26
-50.52
-49.43
-48.28
-47.03
-45.47
-43.5
-41.16
-38.7
-36.31
-34.01
-31.68
-29.17
-26.41
-23.53
-20.78
-18.45
-16.69
-15.4
-14.34
-13.14
-11.52
-9.31
-6.52
-3.24
0.41
4.3
8.34
12.37
16.19
19.57
22.29
24.25
25.56
26.48
27.4
28.59
30.02
31.19
31.21
29.21
24.72
18.1
10.62
4.02
-0.06
-0.74
1.85
6.63
12.03
16.47
18.76
18.32
15.24
10.19
4.38
-0.83
-4.29
-5.45
-4.54
-2.41
-0.1
1.66
2.71
3.42
4.38
6.06
8.7
12.3
16.71
21.64
26.54
30.53
32.65
32.31
29.65
25.65
21.69
18.93
17.8
17.91
18.49
18.92
19.06
19.25
20.02
21.75
24.59
28.42
32.86
37.3
40.89
42.64
41.66
37.57
30.56
21.35
11
0.67
-8.35
-14.54
-16.33
-12.65
-3.71
8.55
20.9
30.05
34.27
34.15
32.19
31.09
31.99
33.57
32.78
26.82
15.05
-0.21
-14.62
-23.79
-25.36
-19.91
-10.37
-0.58
6.37
8.99
7.41
2.78
-3.6
-10.81
-18.4
-26.18
-33.89
-40.91
-46.35
-49.33
-49.29
-46.26
-40.88
-34.32
-27.93
-23.06
-20.83
-21.89
-26.27
-33.04
-40.4
-46.02
-47.76
-44.52
-36.82
-26.62
-16.59
-9.1
-5.3
-4.89
-6.36
-7.7
-7.05
-3.35
3.4
12.03
20.56
26.87
29.47
28.1
23.91
18.74
14.2
10.79
7.84
4.04
-1.46
-8.39
-15.35
-20.49
-22.51
-21.31
-18.03
-14.44
-12.12
-11.78
-13.02
-14.66
-15.29
-13.77
-9.65
-3.24
4.45
11.97
17.84
21.06
21.53
20.24
18.9
19.29
22.44
28.14
35.19
42.02
47.56
51.62
54.63
56.88
57.79
55.83
49.12
36.65
19.26
-0.21
-17.64
-29.23
-32.99
-29.56
-21.96
-14.27
-10
-10.81
-16.04
-23.32
-29.77
-33.22
-33.04
-30.02
-25.85
-22.29
-20.38
-20.27
-21.31
-22.53
-23.1
-22.62
-21.08
-18.7
-15.66
-12.03
-7.85
-3.28
1.22
4.85
6.74
6.31
3.59
-0.6
-4.78
-7.22
-6.44
-1.72
6.72
17.74
29.6
40.45
48.75
53.54
54.53
52.07
46.92
40.07
32.43
24.75
17.42
10.49
3.8
-2.88
-9.59
-16.17
-22.15
-26.94
-29.94
-30.72
-29.04
-24.94
-18.72
-11.01
-2.67
5.19
11.45
15.1
15.53
12.58
6.7
-1.14
-9.67
-17.58
-23.83
-27.86
-29.6
-29.38
-27.66
-24.82
-21.05
-16.49
-11.32
-5.92
-0.92
2.99
5.2
5.38
3.64
0.59
-2.84
-5.57
-6.68
-5.78
-3.11
0.4
3.44
4.78
3.67
0.21
-4.71
-9.65
-13.07
-13.79
-11.3
-5.9
1.43
9.21
15.88
20.23
21.74
20.73
18.39
16.41
16.53
19.96
26.95
36.53
46.68
54.77
58.33
55.86
47.27
33.93
18.16
2.46
-11.3
-22.23
-30.32
-36.07
-39.89
-41.96
-42.24
-40.86
-38.39
-35.84
-34.23
-34.14
-35.29
-36.63
-36.82
-34.84
-30.54
-24.67
-18.48
-13.13
-9.17
-6.45
-4.34
-2.2
0.18
2.51
4.1
4.24
2.54
-0.86
-5.32
-9.89
-13.66
-16.03
-16.76
-15.92
-13.79
-10.8
-7.5
-4.61
-2.83
-2.56
-3.69
-5.45
-6.66
-6.28
-3.78
0.49
5.52
10.1
13.33
14.94
15.28
15.08
15.08
15.79
17.33
19.48
21.8
23.8
25.12
25.62
25.34
24.48
23.22
21.65
19.79
17.64
15.27
12.75
10.16
7.55
4.87
2.09
-0.7
-3.29
-5.45
-7.07
-8.19
-9.15
-10.3
-11.84
-13.71
-15.59
-17.08
-17.9
-17.99
-17.49
-16.57
-15.34
-13.74
-11.65
-9.03
-6.1
-3.36
-1.47
-0.98
-2.11
-4.54
-7.35
-9.29
-9.11
-5.96
0.39
9.38
19.82
30.15
38.77
44.46
46.58
45.33
41.64
36.91
32.57
29.6
28.24
28.03
28.11
27.61
26.05
23.42
20.1
16.66
13.62
11.33
9.96
9.47
9.65
10.13
10.43
10.03
8.48
5.53
1.26
-3.95
-9.48
-14.65
-18.92
-22.02
-23.98
-25.04
-25.49
-25.54
-25.34
-24.93
-24.35
-23.69
-23.02
-22.36
-21.65
-20.71
-19.41
-17.65
-15.57
-13.39
-11.42
-9.84
-8.64
-7.55
-6.19
-4.19
-1.41
2
5.63
8.92
11.36
12.6
12.52
11.23
8.97
6.08
2.86
-0.35
-3.33
-5.91
-8.03
-9.76
-11.2
-12.5
-13.7
-14.74
-15.53
-16.01
-16.23
-16.29
-16.3
-16.16
-15.62
-14.25
-11.65
-7.6
-2.23
3.98
10.3
15.85
19.83
21.68
21.3
19.06
15.78
12.54
10.24
9.4
9.96
11.39
13.02
14.4
15.55
16.91
19.07
22.41
26.73
31.21
34.54
35.26
32.26
25.16
14.56
2.05
-10.24
-20.12
-25.9
-26.78
-22.96
-15.58
-6.42
2.5
9.37
13.05
13.34
10.97
7.3
3.77
1.4
0.48
0.71
1.55
2.62
3.88
5.55
7.82
10.63
13.63
16.3
18.19
19.21
19.71
20.37
21.9
24.79
29
33.93
38.47
41.33
41.38
37.97
31.15
21.83
11.56
2.26
-4.34
-7.3
-6.82
-4.28
-1.65
-0.79
-2.73
-7.36
-13.72
-20.55
-26.9
-32.29
-36.68
-40.1
-42.37
-43.15
-42.21
-39.74
-36.4
-33.14
-30.78
-29.64
-29.49
-29.62
-29.34
-28.22
-26.24
-23.69
-20.94
-18.2
-15.47
-12.66
-9.74
-6.86
-4.35
-2.6
-1.8
-1.89
-2.46
-2.98
-3.03
-2.46
-1.49
-0.62
-0.39
-1.09
-2.55
-4.24
-5.33
-5.06
-2.98
0.84
5.8
10.8
14.43
15.3
12.58
6.58
-1.13
-7.91
-10.95
-8.34
0.02
12.22
25.03
35.08
40.12
39.54
34.19
25.65
15.39
4.44
-6.52
-16.77
-25.27
-30.83
-32.51
-30.12
-24.43
-16.95
-9.4
-3.09
1.4
4.25
6.02
7.23
8.06
8.28
7.52
5.6
2.78
-0.2
-2.42
-3.15
-2.25
-0.28
1.66
2.38
1.11
-2.18
-6.71
-11.2
-14.35
-15.24
-13.69
-10.2
-5.77
-1.58
1.25
2.02
0.7
-1.77
-3.62
-2.76
2.39
12.2
25.42
39.64
52.22
61.33
66.54
68.72
69.33
69.56
69.81
69.5
67.46
62.57
54.44
43.74
32.21
22.11
15.42
12.95
14
16.61
18.39
17.55
13.5
7.03
-0.22
-6.51
-10.68
-12.48
-12.52
-11.9
-11.79
-12.93
-15.44
-18.91
-22.79
-26.73
-30.77
-35.14
-39.91
-44.66
-48.42
-50.09
-49.03
-45.57
-40.95
-36.88
-34.65
-34.64
-36.14
-37.78
-38.25
-36.99
-34.42
-31.7
-30.18
-30.81
-33.68
-38.03
-42.37
-44.99
-44.4
-39.74
-31.08
-19.45
-6.66
5.1
13.98
18.97
20.27
19.21
17.78
17.8
20.1
24
27.29
27
20.66
7.53
-10.64
-29.98
-45.87
-54.67
-55.03
-48.21
-37.22
-25.29
-14.67
-6.16
0.53
5.94
10.4
13.91
16.57
18.87
21.67
25.68
30.96
36.6
40.98
42.43
40.06
34.21
26.45
18.99
13.83
12.05
13.5
17.05
21.22
24.93
27.81
30.18
32.63
35.58
38.94
42.16
44.36
44.53
41.71
35.27
25.15
12.22
-1.77
-14.56
-24.11
-29.31
-30.38
-28.56
-25.48
-22.41
-19.92
-17.95
-16.3
-14.94
-13.86
-12.79
-10.84
-6.67
0.74
11.18
22.83
32.56
37.21
34.86
25.76
12.19
-2.42
-14.68
-22.15
-23.66
-19.18
-9.45
4.19
19.94
35.71
49.44
59.67
65.93
68.81
69.6
69.64
69.72
69.74
68.73
65.38
58.69
48.73
36.89
25.55
17.18
13.13
12.93
14.31
14.17
10.01
1.13
-11.06
-23.74
-34.02
-40.21
-42.38
-42.06
-41.29
-41.76
-44.35
-49.15
-55.82
-63.92
-73.06
-82.84
-92.69
-101.87
-109.49
-114.69
-116.67
-114.86
-108.86
-98.58
-84.3
-66.8
-47.3
-27.34
-8.57
7.64
20.43
29.75
36.39
41.8
47.59
54.92
63.96
73.74
82.39
87.84
88.53
83.86
74.3
61.15
46.28
31.88
20.28
13.53
12.66
17.08
24.36
31.03
34.03
32.17
26.8
21.15
18.61
20.99
27.61
35.87
42.61
45.68
44.58
40.17
33.61
25.59
16.04
4.57
-8.95
-24.01
-39.42
-53.73
-65.53
-73.8
-77.94
-77.88
-74.08
-67.53
-59.59
-51.68
-44.89
-39.64
-35.74
-32.58
-29.53
-26.25
-22.72
-19.08
-15.45
-11.85
-8.24
-4.73
-1.63
0.54
1.32
0.63
-1.1
-3.01
-4.11
-3.73
-1.74
1.33
4.63
7.27
8.72
8.91
8.19
7.06
5.99
5.26
4.97
5.11
5.61
6.43
7.46
8.49
9.25
9.47
8.95
7.65
5.72
3.38
0.83
-1.91
-4.93
-8.42
-12.5
-17.14
-22.11
-27.08
-31.64
-35.46
-38.29
-39.91
-40.2
-39.16
-37.02
-34.24
-31.4
-28.93
-26.93
-25.05
-22.66
-19.14
-14.27
-8.33
-1.95
4.28
10.08
15.7
21.58
28.02
34.76
40.95
45.54
47.82
47.8
46.31
44.41
42.77
41.19
38.64
33.92
26.47
16.92
6.94
-1.38
-6.42
-7.72
-5.93
-2.48
1.08
3.55
4.23
2.82
-0.65
-5.95
-12.53
-19.54
-25.97
-30.9
-33.87
-35.05
-35.17
-35.22
-36
-37.72
-39.92
-41.63
-41.86
-40.04
-36.27
-31.26
-26.07
-21.59
-18.32
-16.12
-14.54
-12.97
-11.01
-8.56
-5.79
-3
-0.51
1.42
2.64
3.07
2.81
2.11
1.46
1.41
2.42
4.67
8.06
12.25
16.81
21.36
25.65
29.5
32.74
35.19
36.75
37.48
37.61
37.58
37.83
38.66
40.07
41.74
43.06
43.34
42.03
38.8
33.66
26.9
19
10.55
2.12
-5.78
-12.66
-18.07
-21.6
-22.91
-21.87
-18.75
-14.33
-9.81
-6.51
-5.43
-6.93
-10.6
-15.5
-20.51
-24.79
-27.82
-29.49
-29.92
-29.31
-27.91
-26.06
-24.19
-22.84
-22.5
-23.42
-25.53
-28.33
-31.02
-32.77
-32.99
-31.53
-28.75
-25.39
-22.19
-19.66
-17.89
-16.49
-14.83
-12.2
-8.08
-2.3
4.78
12.36
19.28
24.38
26.82
26.36
23.55
19.49
15.45
12.37
10.51
9.42
8.22
6.13
2.81
-1.49
-6.11
-10.3
-13.6
-15.89
-17.28
-17.96
-18.1
-17.79
-17.14
-16.37
-15.82
-15.82
-16.51
-17.85
-19.51
-21.06
-22.2
-22.88
-23.42
-24.3
-25.98
-28.53
-31.6
-34.53
-36.76
-38.08
-38.72
-39.08
-39.32
-39.18
-37.97
-35.02
-30.02
-23.11
-14.74
-5.29
5.08
16.3
28
39.38
49.31
56.89
61.93
65.09
67.5
70.13
73.27
76.48
78.98
80.17
79.98
78.87
77.51
76.31
75.21
73.8
71.55
68.21
63.95
59.32
55.12
52.01
50.39
50.26
51.24
52.79
54.39
55.61
56.21
56.15
55.48
54.29
52.63
50.45
47.59
43.92
39.41
34.22
28.71
23.4
18.81
15.41
13.55
13.45
15.16
18.47
22.84
27.38
31.09
33.04
32.81
30.58
27.13
23.47
20.46
18.49
17.36
16.43
14.98
12.51
8.91
4.47
-0.29
-4.86
-8.92
-12.39
-15.44
-18.31
-21.33
-24.68
-28.46
-32.6
-36.88
-40.88
-44.11
-46.11
-46.61
-45.67
-43.67
-41.23
-38.93
-37.23
-36.32
-36.15
-36.56
-37.35
-38.32
-39.27
-39.9
-39.9
-39.06
-37.29
-34.75
-31.72
-28.55
-25.52
-22.78
-20.32
-18.01
-15.69
-13.23
-10.61
-7.86
-5.11
-2.43
0.16
2.81
5.73
9.15
13.26
18.21
24.02
30.7
38.13
46.02
53.91
61.11
66.95
70.85
72.61
72.34
70.45
67.44
63.74
59.57
55
50.04
44.78
39.53
34.78
31.09
28.95
28.51
29.53
31.36
33.15
34.1
33.83
32.59
31.12
30.43
31.26
33.82
37.66
41.94
45.8
48.57
49.87
49.41
46.78
41.51
33.19
21.64
7.02
-10.39
-30.25
-52.26
-75.91
-100.19
-123.43
-143.54
-158.48
-166.85
-168.27
-163.25
-152.85
-138.2
-120.19
-99.57
-77.21
-54.52
-33.56
-16.77
-6.24
-2.98
-6.39
-14.31
-23.73
-31.81
-36.77
-38.34
-37.5
-35.79
-34.51
-34.24
-34.84
-35.83
-36.8
-37.56
-38.04
-38
-36.84
-33.7
-27.83
-18.95
-7.65
4.82
16.91
27.3
35.28
40.8
44.18
45.88
46.25
45.52
43.91
41.74
39.42
37.43
36.18
35.94
36.75
38.48
40.77
43.19
45.27
46.72
47.4
47.37
46.69
45.39
43.28
39.89
34.51
26.33
14.73
-0.36
-18.15
-36.98
-54.67
-69.2
-79.42
-85.45
-88.44
-89.97
-91.2
-92.32
-92.43
-90.04
-83.74
-72.85
-57.76
-40.01
-22.01
-6.51
4.09
8.4
6.49
-0.17
-9.12
-17.61
-23.43
-25.5
-24.01
-20.34
-16.42
-14.16
-14.77
-18.42
-24.26
-30.79
-36.39
-39.86
-40.72
-39.22
-36.01
-31.86
-27.41
-23.02
-18.84
-14.86
-10.97
-7.03
-2.84
1.73
6.71
11.98
17.18
21.79
25.21
26.95
26.78
24.85
21.68
18.09
14.99
13.17
13.24
15.53
19.94
25.68
31.06
33.72
31.18
21.86
5.96
-14.18
-34.67
-51.27
-60.92
-62.7
-57.86
-48.99
-38.87
-29.46
-21.58
-15.35
-10.66
-7.64
-6.57
-7.52
-10
-12.88
-14.75
-14.37
-11.17
-5.37
2.25
10.71
19.16
26.92
33.49
38.47
41.49
42.29
40.79
37.17
31.86
25.55
19.18
13.89
10.69
10.24
12.53
16.84
21.85
26.06
28.16
27.38
23.61
17.38
9.65
1.54
-5.93
-12.04
-16.41
-18.92
-19.48
-17.91
-13.89
-7.2
1.82
11.92
20.98
26.74
27.86
24.85
20.09
16.92
18.03
23.99
32.84
40.95
44.57
41.49
31.82
17.66
2.03
-12.35
-23.71
-31.38
-35.43
-36.24
-34.31
-30.27
-24.95
-19.42
-14.92
-12.5
-12.65
-15.02
-18.44
-21.33
-22.21
-20.34
-15.94
-10
-3.87
1.34
5.06
7.3
8.42
8.77
8.61
8.16
7.77
8.02
9.6
12.93
17.85
23.52
28.53
31.38
30.97
26.97
19.84
10.69
0.85
-8.49
-16.48
-22.72
-27.07
-29.5
-29.93
-28.36
-24.91
-20.14
-14.91
-10.2
-6.59
-3.92
-1.3
2.56
8.6
16.84
26.16
34.64
40.25
41.68
38.73
32.29
23.95
15.47
8.26
3.21
0.57
0.07
1.07
2.78
4.43
5.4
5.28
3.84
0.93
-3.52
-9.49
-16.74
-24.76
-32.82
-40.09
-45.94
-50.02
-52.34
-53.2
-53
-52.15
-50.96
-49.65
-48.38
-47.25
-46.25
-45.28
-44.08
-42.3
-39.63
-35.92
-31.31
-26.1
-20.78
-15.81
-11.56
-8.24
-5.83
-4.07
-2.36
0.13
4.37
11.1
20.52
32.14
44.76
56.83
66.94
74.25
78.68
80.91
81.85
82.37
82.91
83.42
83.59
83.06
81.65
79.46
76.62
73.23
69.18
64.19
57.97
50.42
41.75
32.41
22.98
13.97
5.61
-2.06
-9.13
-15.68
-21.62
-26.74
-30.85
-33.93
-36.25
-38.29
-40.54
-43.29
-46.48
-49.7
-52.42
-54.06
-54.31
-53.07
-50.52
-46.98
-42.86
-38.52
-34.23
-30.19
-26.56
-23.5
-21.17
-19.73
-19.17
-19.3
-19.67
-19.62
-18.49
-15.67
-10.87
-4.18
3.86
12.29
19.95
25.74
28.92
29.36
27.49
24.14
20.27
16.65
13.77
11.79
10.69
10.27
10.23
10.19
9.69
8.41
6.14
2.91
-1.13
-5.75
-10.73
-15.79
-20.57
-24.64
-27.5
-28.83
-28.5
-26.7
-23.79
-20.25
-16.54
-13.03
-10.08
-7.94
-6.69
-6.07
-5.51
-4.2
-1.37
3.41
10.04
17.75
25.32
31.33
34.5
34.01
29.91
23.12
15.39
8.87
5.46
6.17
10.77
17.86
25.42
31.52
34.95
35.43
33.34
29.3
23.71
16.72
8.42
-0.89
-10.43
-19.1
-25.74
-29.52
-30.21
-28.25
-24.65
-20.72
-17.72
-16.57
-17.61
-20.44
-23.98
-26.89
-28
-26.71
-23.22
-18.32
-13
-8.09
-4
-0.77
1.69
3.45
4.42
4.52
3.79
2.53
1.14
0.06
-0.49
-0.56
-0.44
-0.51
-1.04
-2.09
-3.46
-4.81
-5.79
-6.15
-5.84
-4.93
-3.62
-2.12
-0.57
0.99
2.59
4.34
6.32
8.62
11.21
13.88
16.3
17.95
18.38
17.32
14.88
11.58
8.16
5.38
3.65
2.92
2.67
2.23
1.08
-0.89
-3.29
-5.41
-6.47
-5.91
-3.52
0.57
5.93
11.87
17.45
21.54
23.03
21.31
16.58
10.15
4.2
1.12
2.7
9.51
20.86
35.22
50.93
66.76
81.92
95.86
107.82
116.71
121.43
121.33
116.69
108.7
99.17
89.77
81.57
74.58
67.95
60.35
50.51
37.79
22.39
5.37
-11.74
-27.48
-40.78
-51.19
-58.67
-63.36
-65.38
-64.92
-62.42
-58.7
-54.93
-52.2
-51.12
-51.56
-52.73
-53.59
-53.3
-51.46
-48.04
-43.18
-36.91
-29.19
-20.17
-10.44
-1.12
6.35
10.8
11.77
9.77
5.93
1.65
-1.92
-4.13
-4.76
-3.79
-1.33
2.4
6.88
11.27
14.56
15.93
15.05
12.23
8.19
3.66
-0.89
-5.4
-10.02
-14.89
-19.93
-24.89
-29.44
-33.42
-36.84
-39.84
-42.54
-44.94
-46.96
-48.51
-49.58
-50.3
-50.8
-51.21
-51.47
-51.4
-50.72
-49.18
-46.6
-42.89
-38.04
-32.14
-25.45
-18.47
-11.96
-6.78
-3.55
-2.36
-2.62
-3.25
-3.07
-1.34
1.95
6.08
10
12.78
13.97
13.7
12.45
10.71
8.8
6.71
4.33
1.57
-1.41
-4.31
-6.7
-8.2
-8.63
-8.06
-6.73
-5.01
-3.24
-1.68
-0.38
0.79
2.2
4.39
8.07
14.01
22.86
34.89
49.72
66.41
83.59
99.96
114.71
127.58
138.69
148.06
155.17
159.1
158.79
153.67
144.04
131.06
116.27
101.07
86.33
72.25
58.75
45.71
33.25
21.69
11.45
2.69
-4.81
-11.66
-18.65
-26.49
-35.47
-45.38
-55.55
-65.02
-72.95
-78.76
-82.3
-83.73
-83.28
-81.13
-77.37
-72.17
-65.93
-59.37
-53.34
-48.59
-45.47
-43.89
-43.51
-43.93
-44.97
-46.65
-48.91
-51.44
-53.56
-54.42
-53.33
-50.07
-45.02
-38.95
-32.69
-26.84
-21.65
-17.1
-13.15
-9.9
-7.61
-6.46
-6.44
-7.13
-7.86
-7.93
-6.9
-4.78
-1.98
0.87
3.2
4.63
5.13
4.95
4.47
4.11
4.11
4.41
4.64
4.22
2.58
-0.55
-5.02
-10.24
-15.38
-19.7
-22.75
-24.49
-25.15
-25.07
-24.48
-23.53
-22.28
-20.8
-19.17
-17.42
-15.45
-12.99
-9.75
-5.62
-0.83
3.91
7.65
9.4
8.53
5.08
-0.16
-5.92
-10.83
-13.89
-14.73
-13.67
-11.46
-8.89
-6.53
-4.63
-3.2
-2.2
-1.56
-1.27
-1.26
-1.41
-1.55
-1.58
-1.49
-1.39
-1.39
-1.49
-1.48
-0.95
0.59
3.5
7.8
13.1
18.62
23.35
26.39
27.18
25.82
23.02
20.07
18.35
18.92
22.04
26.95
32.22
36.31
38.32
38.36
37.59
37.62
39.91
45.33
53.97
65.3
78.28
91.35
102.5
109.43
110.15
103.6
90.14
71.5
50.12
28.4
8.16
-9.51
-23.89
-34.34
-40.2
-41.1
-37.34
-30.23
-21.95
-15.04
-11.68
-12.9
-18.31
-26.22
-34.32
-40.53
-43.79
-44.31
-43.27
-42.14
-41.9
-42.64
-43.67
-43.91
-42.59
-39.55
-35.27
-30.58
-26.29
-22.89
-20.51
-18.92
-17.88
-17.24
-16.97
-17.14
-17.74
-18.59
-19.38
-19.76
-19.58
-18.94
-18.21
-17.86
-18.22
-19.36
-21.08
-22.98
-24.67
-25.9
-26.67
-27.15
-27.59
-28.18
-28.97
-29.78
-30.26
-30.04
-28.75
-26.27
-22.76
-18.6
-14.35
-10.46
-7.15
-4.33
-1.7
1.06
4.07
7.21
10.14
12.53
14.14
15.01
15.25
14.98
14.19
12.71
10.43
7.4
4.04
1.08
-0.66
-0.56
1.58
5.38
9.94
14.14
16.97
17.88
17
15.13
13.43
13
14.47
17.65
21.58
24.84
25.98
24.05
18.87
11.15
2.28
-5.98
-12
-14.69
-13.82
-10.1
-4.89
0.4
4.9
8.61
12.27
16.77
22.49
28.98
35.26
40.47
44.55
48.44
53.59
61.17
71.36
83.31
95.57
106.91
116.76
125.15
132.2
137.54
140.13
138.63
132.02
120.31
104.59
86.76
68.68
51.5
35.34
19.53
3.2
-14.12
-32.15
-49.98
-66.48
-80.71
-92.07
-100.35
-105.51
-107.68
-107.13
-104.37
-100.13
-95.24
-90.33
-85.66
-81.09
-76.31
-71.03
-65.29
-59.44
-54.04
-49.57
-46.17
-43.56
-41.09
-38
-33.7
-28.05
-21.5
-14.93
-9.51
-6.31
-6
-8.56
-13.2
-18.49
-22.76
-24.54
-23.07
-18.52
-11.92
-4.8
1.32
5.26
6.48
5.02
1.43
-3.4
-8.4
-12.52
-14.98
-15.44
-14.12
-11.71
-9.08
-6.91
-5.48
-4.57
-3.57
-1.74
1.53
6.45
12.8
19.78
26.21
30.89
32.93
32.3
29.94
27.54
26.98
29.58
35.62
44.2
53.72
62.45
69.07
72.96
74.09
72.63
68.82
62.72
54.47
44.42
33.33
22.24
12.32
4.37
-1.38
-5.47
-8.97
-13.12
-18.8
-26.26
-35.11
-44.47
-53.44
-61.39
-68.06
-73.49
-77.85
-81.22
-83.52
-84.6
-84.31
-82.56
-79.32
-74.6
-68.33
-60.45
-50.96
-40.04
-28.15
-16.06
-4.72
4.91
12.04
16.19
17.29
15.71
12.22
7.91
4.01
1.56
1.16
2.79
5.8
9.26
12.23
14.16
14.94
14.84
14.3
13.7
13.29
13.16
13.25
13.38
13.26
12.58
11.08
8.77
5.91
2.91
0.21
-1.92
-3.44
-4.47
-5.22
-5.83
-6.31
-6.54
-6.35
-5.55
-4.1
-2.08
0.31
2.79
5.17
7.39
9.49
11.57
13.61
15.45
16.83
17.55
17.61
17.24
16.78
16.52
16.55
16.75
16.91
16.81
16.44
15.93
15.49
15.24
15.13
14.99
14.55
13.66
12.32
10.7
9.03
7.52
6.24
5.17
4.15
3.04
1.77
0.28
-1.36
-3.05
-4.69
-6.14
-7.31
-8.17
-8.74
-9.08
-9.29
-9.47
-9.68
-9.95
-10.28
-10.59
-10.76
-10.59
-9.92
-8.65
-6.83
-4.66
-2.4
-0.33
1.4
2.78
3.85
4.73
5.49
6.12
6.61
6.88
6.95
6.82
6.6
6.4
6.34
6.51
6.95
7.6
8.34
9.03
9.53
9.77
9.71
9.38
8.86
8.21
7.53
6.89
6.3
5.69
4.98
4.1
3.06
1.92
0.82
-0.14
-0.93
-1.61
-2.29
-3.04
-3.86
-4.7
-5.49
-6.16
-6.74
-7.26
-7.78
-8.36
-9.02
-9.81
-10.67
-11.51
-12.15
-12.36
-11.96
-10.86
-9.14
-7.04
-4.84
-2.76
-0.9
0.76
2.31
3.78
5.15
6.35
7.31
7.97
8.38
8.57
8.62
8.57
8.4
8.06
7.52
6.81
6.05
5.39
4.92
4.68
4.63
4.64
4.66
4.65
4.68
4.82
5.11
5.56
6.11
6.67
7.12
7.39
7.4
7.12
6.6
5.93
5.23
4.58
4.01
3.49
2.93
2.26
1.43
0.45
-0.62
-1.69
-2.66
-3.47
-4.13
-4.67
-5.18
-5.76
-6.46
-7.31
-8.29
-9.33
-10.25
-10.86
-10.94
-10.42
-9.3
-7.79
-6.14
-4.6
-3.27
-2.12
-1.04
0.1
1.32
2.58
3.73
4.63
5.2
5.42
5.36
5.08
4.68
4.24
3.85
3.57
3.49
3.63
4.01
4.62
5.4
6.28
7.14
7.85
8.32
8.5
8.41
8.13
7.76
7.41
7.12
6.87
6.62
6.28
5.81
5.19
4.41
3.52
2.57
1.6
0.66
-0.19
-0.96
-1.65
-2.31
-3.01
-3.78
-4.63
-5.46
-6.18
-6.72
-7.09
-7.4
-7.8
-8.42
-9.26
-10.18
-10.96
-11.41
-11.4
-10.89
-9.92
-8.58
-6.95
-5.15
-3.29
-1.53
0.01
1.27
2.24
2.99
3.61
4.15
4.66
5.12
5.5
5.78
5.91
5.89
5.71
5.45
5.21
5.13
5.33
5.79
6.43
7.06
7.49
7.53
7.1
6.2
5.01
3.75
2.64
1.83
1.31
0.93
0.47
-0.29
-1.44
-2.87
-4.36
-5.63
-6.52
-6.97
-7.07
-6.99
-6.89
-6.87
-6.94
-7.05
-7.11
-7.06
-6.92
-6.74
-6.61
-6.53
-6.37
-5.86
-4.68
-2.6
0.35
3.89
7.55
10.86
13.53
15.52
17.09
18.59
20.28
22.29
24.46
26.54
28.25
29.4
30
30.21
30.27
30.41
30.77
31.32
31.92
32.24
31.8
30.07
26.64
21.32
14.33
6.29
-1.98
-9.63
-16.06
-20.98
-24.41
-26.55
-27.66
-28.01
-27.88
-27.57
-27.39
-27.49
-27.88
-28.26
-28.26
-27.57
-26.13
-24.25
-22.49
-21.38
-21.23
-21.88
-22.71
-22.94
-21.93
-19.52
-16.15
-12.72
-10.21
-9.28
-9.96
-11.7
-13.66
-15.11
-15.79
-15.91
-15.99
-16.5
-17.46
-18.39
-18.38
-16.38
-11.58
-3.63
7.19
19.88
32.81
43.99
51.62
54.81
54.22
52.14
51.81
56.26
66.87
82.63
100.44
116.24
126.55
129.55
125.28
115.1
100.79
83.86
65.43
46.56
28.6
13.32
2.72
-1.57
1.1
9.84
22.08
33.82
40.54
38.34
25.17
1.7
-28.71
-60.95
-89.74
-111.32
-124.5
-130.6
-132.48
-132.97
-133.72
-134.98
-136.09
-136.34
-135.53
-133.81
-131.2
-127.15
-120.53
-110.2
-95.76
-77.93
-58.42
-39.46
-23.1
-10.75
-2.99
0.55
1
0.08
-0.51
0.43
3.23
7.46
12.39
17.33
21.75
25.06
26.43
25.12
21
15.01
9.05
5.24
4.81
7.49
11.69
15.43
17.41
17.53
16.61
15.64
15.05
14.56
13.63
11.95
9.86
8.1
7.42
8.23
10.35
13.24
16.28
19.1
21.74
24.47
27.55
31
34.39
36.97
37.9
36.51
32.6
26.59
19.45
12.59
7.45
5.14
6.04
9.69
14.98
20.56
25.34
28.78
30.84
31.72
31.47
29.78
26.21
20.55
13.14
4.99
-2.57
-8.34
-11.66
-12.55
-11.5
-9.18
-6.23
-3.17
-0.5
1.29
1.72
0.51
-2.32
-6.44
-11.26
-16.1
-20.28
-23.27
-24.81
-24.96
-24.15
-23.07
-22.35
-22.29
-22.75
-23.13
-22.71
-20.94
-17.6
-12.88
-7.22
-1.24
4.33
8.73
11.3
11.66
9.88
6.54
2.57
-1.05
-3.62
-4.88
-5.01
-4.4
-3.4
-2.15
-0.49
1.88
5.37
10.2
16.43
23.77
31.73
39.66
46.88
52.81
57.11
59.69
60.72
60.54
59.53
58
56.05
53.54
50.06
45.09
38.31
29.82
20.38
11.18
3.48
-1.9
-4.91
-6.21
-6.8
-7.61
-9.18
-11.63
-14.9
-19.04
-24.26
-30.77
-38.47
-46.79
-54.78
-61.42
-65.89
-67.83
-67.31
-64.72
-60.63
-55.66
-50.49
-45.67
-41.6
-38.37
-35.8
-33.56
-31.35
-28.97
-26.33
-23.37
-20.04
-16.27
-12.08
-7.49
-2.4
3.54
10.83
19.74
29.95
40.31
49.15
54.92
56.88
55.45
51.83
47.32
42.7
37.95
32.64
26.46
19.6
12.79
6.86
2.29
-1
-3.57
-5.98
-8.45
-10.71
-12.18
-12.42
-11.56
-10.41
-10.22
-12.16
-16.76
-23.62
-31.35
-38.07
-41.95
-41.84
-37.56
-30.05
-21.04
-12.58
-6.37
-3.29
-3.07
-4.49
-5.86
-5.85
-4.09
-1.49
0.2
-0.81
-5.37
-12.9
-21.52
-28.86
-33.02
-33.31
-30.37
-25.59
-20.41
-15.63
-11.36
-7.27
-3.12
0.9
4.3
6.64
7.84
8.39
9.07
10.58
13.19
16.72
20.65
24.5
27.95
30.91
33.41
35.6
37.55
39.18
40.19
40.07
38.28
34.54
28.95
22.08
14.62
7.15
-0.06
-6.99
-13.62
-19.71
-24.84
-28.74
-31.4
-33.17
-34.39
-35.05
-34.61
-32.25
-27.34
-19.92
-10.8
-1.27
7.25
13.73
17.66
19.15
18.62
16.6
13.47
9.35
4.17
-2.15
-9.44
-17.19
-24.61
-30.88
-35.42
-38.07
-39.09
-38.97
-38.2
-37.09
-35.7
-33.91
-31.45
-27.88
-22.65
-15.22
-5.3
6.72
19.61
31.29
39.33
41.92
38.63
30.9
21.62
14.08
10.69
12.22
17.62
24.77
31.39
35.87
37.62
36.88
34.34
30.7
26.53
22.24
18.14
14.61
12.18
11.49
13.21
17.68
24.66
33.19
41.78
48.9
53.42
54.89
53.44
49.51
43.55
35.93
27.05
17.64
8.82
1.93
-1.91
-2.36
-0.15
3.02
4.99
3.8
-1.54
-10.83
-22.62
-34.77
-45.15
-52.27
-55.65
-55.84
-53.99
-51.39
-49.02
-47.27
-46.11
-45.24
-44.43
-43.55
-42.63
-41.7
-40.73
-39.59
-38.14
-36.27
-33.93
-31.22
-28.36
-25.66
-23.46
-21.87
-20.72
-19.52
-17.67
-14.81
-11.15
-7.46
-4.73
-3.65
-4.1
-5.25
-5.88
-5.13
-2.9
0.14
2.91
4.62
5.12
4.86
4.55
4.66
5.16
5.58
5.33
4.14
2.17
-0.02
-1.72
-2.47
-2.13
-0.98
0.5
1.83
2.73
3.17
3.31
3.36
3.47
3.67
3.87
3.93
3.76
3.35
2.76
2.08
1.43
0.83
0.3
-0.27
-0.97
-1.84
-2.9
-4.07
-5.2
-6.14
-6.81
-7.17
-7.34
-7.46
-7.74
-8.26
-8.92
-9.46
-9.52
-8.82
-7.24
-4.92
-2.09
1.02
4.35
7.93
11.84
15.9
19.66
22.42
23.5
22.59
19.94
16.42
13.2
11.35
11.41
13.22
16.09
19.04
21.15
21.69
20.2
16.55
11.09
4.74
-0.99
-4.36
-3.9
0.93
9.51
20.25
31.18
40.67
47.91
52.85
55.88
57.37
57.43
55.97
52.98
48.74
43.8
38.76
33.9
29.05
23.74
17.5
10.31
2.7
-4.49
-10.47
-14.96
-18.16
-20.58
-22.58
-24.19
-25.21
-25.52
-25.39
-25.5
-26.54
-28.79
-31.7
-33.99
-34.02
-30.55
-23.32
-13.32
-2.53
6.8
12.91
15.26
14.6
12.56
10.93
10.89
12.72
15.93
19.78
23.72
27.51
30.97
33.72
35.13
34.66
32.22
28.49
24.66
21.93
20.92
21.34
22.16
22.08
20.11
15.96
10.1
3.63
-2.2
-6.34
-8.28
-8.24
-7.08
-5.98
-5.88
-7.03
-8.75
-9.61
-8.1
-3.29
4.64
14.42
24.11
31.9
36.58
37.82
36
31.92
26.69
21.6
18.01
16.81
17.78
19.21
18.31
12.36
0.03
-17.73
-38.02
-57.11
-71.92
-80.82
-83.71
-81.32
-74.67
-64.87
-53.3
-41.73
-32.13
-25.97
-23.64
-24.27
-26.14
-27.48
-27.16
-24.88
-21.02
-16.22
-10.95
-5.45
0.35
6.53
13.11
19.9
26.56
32.74
38.21
42.99
47.3
51.33
55.07
58.12
59.84
59.49
56.53
50.68
42
30.83
17.93
4.58
-7.41
-16.09
-20.08
-19.4
-15.92
-12.84
-13.49
-19.85
-31.54
-45.89
-59.04
-67.47
-69.08
-63.49
-51.52
-34.44
-13.64
9.31
32.25
52.53
67.55
75.83
77.76
75.61
72.7
71.9
74.58
80.14
86.41
90.59
90.23
83.83
71.06
52.69
30.28
5.97
-17.86
-38.9
-55.24
-65.65
-69.8
-68.3
-62.46
-54.07
-44.96
-36.7
-30.34
-26.31
-24.51
-24.47
-25.61
-27.32
-29.19
-30.97
-32.58
-34.16
-35.93
-38.18
-41.13
-44.82
-48.97
-52.95
-55.87
-56.85
-55.34
-51.34
-45.53
-39.13
-33.56
-30.09
-29.49
-31.74
-36.06
-41.01
-44.86
-46.14
-43.99
-38.51
-30.57
-21.64
-13.14
-6.17
-1.17
1.99
3.86
5.03
5.88
6.51
6.67
6.09
4.65
2.52
0.2
-1.74
-2.85
-2.96
-2.2
-0.83
0.82
2.5
3.96
4.96
5.23
4.56
2.91
0.44
-2.46
-5.36
-7.88
-9.82
-11.2
-12.15
-12.88
-13.55
-14.27
-15.09
-16.02
-16.96
-17.76
-18.22
-18.06
-17.15
-15.42
-12.97
-9.98
-6.62
-3.08
0.48
3.93
7.13
10.06
12.8
15.52
18.33
21.19
23.86
26
27.36
28.01
28.34
28.95
30.38
32.82
36.11
39.71
42.98
45.32
46.31
45.73
43.54
39.84
34.79
28.51
21.04
12.34
2.36
-8.73
-20.35
-31.43
-40.54
-46.3
-47.75
-44.82
-38.42
-30.35
-22.8
-17.66
-15.91
-17.17
-19.89
-21.83
-20.94
-16
-6.95
5.14
18.51
31.11
41.01
46.64
47.13
42.63
34.48
25.07
17.04
12.44
11.81
14.1
17.23
19.08
18.37
15.08
10.09
4.6
-0.46
-4.49
-7.07
-7.66
-5.71
-0.97
6.12
14.29
21.76
26.95
28.95
27.78
24.18
19.11
13.39
7.54
1.85
-3.48
-8.34
-12.86
-17.64
-23.61
-31.67
-41.98
-53.6
-64.41
-71.73
-73.27
-67.94
-56.22
-39.96
-21.68
-3.85
11.67
23.88
32.64
38.6
43.06
47.6
53.65
61.88
71.84
82.04
90.48
95.57
96.8
94.98
91.75
88.63
86.23
83.95
80.4
74.32
65.43
54.63
43.63
34.02
26.48
20.51
14.93
8.61
1.23
-6.58
-13.46
-17.92
-18.86
-15.93
-9.46
-0.39
9.94
19.9
27.83
32.18
31.84
26.45
16.56
3.6
-10.49
-23.74
-34.59
-42.3
-46.94
-49.19
-50.01
-50.34
-50.95
-52.38
-54.87
-58.31
-62.21
-65.8
-68.18
-68.38
-65.56
-59.04
-48.48
-34.22
-17.6
-1.05
12.46
20.23
21.04
15.69
6.86
-2
-8.16
-10.77
-11.12
-11.84
-15.48
-23.23
-34.21
-45.74
-54.54
-57.95
-54.94
-46.37
-34.36
-21.54
-10.5
-3.6
-2.71
-8.48
-19.32
-30.78
-36.37
-30.01
-9.17
22.99
58.08
85.63
97.59
91.84
72.79
48.77
27.92
14.65
8.55
5.9
2.52
-3.88
-13.01
-22.89
-31.58
-38.38
-44.14
-50.32
-57.78
-65.94
-72.86
-76.11
-73.97
-66.32
-54.77
-41.93
-30.46
-22.16
-17.54
-16.02
-16.43
-17.63
-18.92
-20.12
-21.41
-22.99
-24.83
-26.63
-27.91
-28.26
-27.55
-26.03
-24.24
-22.8
-22.17
-22.41
-23.24
-24.12
-24.54
-24.18
-22.99
-21.13
-18.79
-16.06
-12.8
-8.66
-3.17
3.98
12.69
22.22
31.14
37.75
40.62
39.13
33.83
26.19
18.17
11.53
7.38
6.07
7.28
10.3
14.29
18.33
21.59
23.47
23.88
23.32
22.76
23.17
25
27.97
31.18
33.6
34.66
34.46
33.6
32.75
32.28
32.06
31.65
30.48
28.04
23.91
17.91
10.15
1.23
-7.6
-14.63
-18.02
-16.43
-9.55
1.48
14.38
26.21
34.45
37.75
36.4
32.01
26.68
22.08
18.83
16.53
14.3
11.49
8.04
4.34
0.73
-2.81
-6.86
-12.18
-19.2
-27.6
-36.18
-43.24
-47.18
-47.13
-43.36
-37.28
-30.82
-25.74
-22.92
-22.17
-22.58
-23.15
-23.44
-23.68
-24.49
-26.28
-28.7
-30.64
-30.44
-26.58
-18.2
-5.35
10.93
28.75
45.57
58.56
65.05
63.29
53.09
36.15
15.87
-3.4
-17.55
-23.77
-21.28
-11.33
3.31
19.24
33.24
42.82
46.45
43.52
34.33
20.02
2.52
-15.56
-31.31
-42.24
-46.89
-45.28
-38.82
-29.71
-20.15
-11.69
-4.96
0.07
3.67
5.98
6.9
6.25
4.08
0.87
-2.47
-4.85
-5.31
-3.33
0.93
6.67
12.57
17.21
19.52
19.15
16.48
12.47
8.23
4.57
1.79
-0.3
-2.15
-4.11
-6.31
-8.58
-10.62
-12.29
-13.62
-14.89
-16.42
-18.42
-20.85
-23.49
-26
-28.16
-29.92
-31.41
-32.84
-34.38
-36.1
-37.96
-39.86
-41.69
-43.26
-44.36
-44.73
-44.07
-42.13
-38.69
-33.45
-26.03
-15.99
-3.02
12.83
31.04
50.66
70.44
89.03
105.13
117.6
125.6
128.76
127.31
122.06
114.04
104.14
92.74
79.65
64.49
47.18
28.34
9.26
-8.45
-23.49
-35.19
-43.68
-49.54
-53.46
-55.92
-57.02
-56.63
-54.61
-51.03
-46.2
-40.67
-34.98
-29.56
-24.6
-20.12
-16.07
-12.48
-9.47
-7.18
-5.7
-4.98
-4.75
-4.66
-4.38
-3.79
-3.01
-2.42
-2.35
-2.96
-4.12
-5.41
-6.43
-6.91
-6.86
-6.54
-6.28
-6.27
-6.55
-7.03
-7.6
-8.23
-8.97
-9.89
-11.05
-12.51
-14.21
-16.07
-17.91
-19.53
-20.64
-21.04
-20.63
-19.45
-17.74
-15.8
-13.9
-12.26
-10.93
-9.88
-8.95
-7.98
-6.84
-5.46
-3.84
-2.01
-0.1
1.77
3.47
4.85
5.78
6.24
6.29
6.08
5.79
5.57
5.47
5.4
5.23
4.85
4.3
3.78
3.55
3.84
4.75
6.2
7.92
9.6
10.92
11.64
11.61
10.86
9.53
7.93
6.49
5.57
5.38
5.84
6.52
6.74
5.75
2.94
-1.82
-8.06
-14.67
-20.18
-23.13
-22.62
-18.54
-11.65
-3.34
4.93
12.01
17.26
20.59
22.17
22.25
21.07
18.9
16.1
13.17
10.64
8.88
7.98
7.79
8.04
8.55
9.4
10.83
13.11
16.2
19.68
22.72
24.33
23.71
20.57
15.37
9.08
2.86
-2.36
-6.19
-8.79
-10.66
-12.3
-13.98
-15.68
-17.31
-18.79
-20.2
-21.62
-23.02
-24.23
-25.04
-25.44
-25.72
-26.37
-27.76
-29.84
-31.92
-32.81
-31.23
-26.23
-17.57
-5.72
8.34
23.52
38.87
53.76
67.9
81.09
93.12
103.62
112.04
117.77
120.4
119.89
116.72
111.76
106.06
100.35
94.72
88.45
80.34
69.18
54.45
36.58
16.97
-2.55
-20.29
-35.08
-46.38
-54.02
-57.95
-58.38
-56.08
-52.55
-49.8
-49.38
-51.41
-54.1
-54.38
-49.44
-38.43
-23.18
-7.6
4.05
9.1
7.48
1.49
-5.57
-11.03
-13.85
-14.7
-15.11
-16.43
-19.04
-22.13
-24.06
-23.1
-18.29
-9.9
0.56
10.88
18.96
23.63
24.94
24.03
22.52
21.75
22.28
23.79
25.36
26.09
25.57
24.15
22.68
21.97
22.24
22.86
22.47
19.55
13.22
3.76
-7.29
-17.62
-25.14
-28.82
-29.23
-28.21
-28.16
-31.03
-37.44
-46.3
-55.24
-61.43
-62.8
-58.95
-51.39
-42.98
-36.67
-34.32
-36.03
-40.3
-45.06
-48.77
-51.11
-52.85
-55.13
-58.48
-62.36
-65.38
-66.05
-63.62
-58.41
-51.7
-45.05
-39.65
-35.91
-33.49
-31.7
-29.85
-27.44
-24.07
-19.36
-12.76
-3.81
7.73
21.66
37.35
54
70.88
87.49
103.48
118.57
132.22
143.74
152.23
156.91
157.27
153.25
145.21
133.76
119.62
103.46
85.88
67.52
49.16
31.62
15.67
1.83
-9.82
-19.54
-27.71
-34.61
-40.31
-44.68
-47.62
-49.17
-49.6
-49.33
-48.75
-48.17
-47.72
-47.38
-47.06
-46.58
-45.75
-44.41
-42.54
-40.22
-37.68
-35.25
-33.26
-32.01
-31.74
-32.51
-34.17
-36.28
-38.15
-39
-38.26
-35.77
-31.91
-27.52
-23.54
-20.67
-19.03
-18.22
-17.35
-15.48
-11.83
-6.16
1.28
9.76
18.43
26.63
34.11
41.08
47.91
54.77
61.3
66.76
70.26
71.23
69.66
66.03
60.95
54.95
48.34
41.43
34.75
29.12
25.38
23.88
24.16
24.9
24.36
20.99
13.98
3.48
-9.57
-23.86
-38.15
-51.5
-63.21
-72.59
-78.82
-80.88
-77.97
-69.9
-57.42
-42.26
-26.71
-12.98
-2.55
4.11
7.45
8.36
7.71
6.06
3.75
1.16
-1.17
-2.57
-2.54
-1.12
1.01
2.76
3.26
2.38
0.93
0.35
2.01
6.55
13.44
21.2
27.93
31.99
32.45
29.14
22.43
12.9
1.18
-12.1
-26.11
-39.9
-52.44
-62.89
-70.76
-75.96
-78.7
-79.23
-77.76
-74.49
-69.67
-63.69
-57.02
-50.07
-43.06
-36.07
-29.05
-22.03
-15.18
-8.71
-2.89
2.17
6.5
10.28
13.7
16.83
19.63
21.91
23.51
24.4
24.77
24.95
25.33
26.15
27.43
28.98
30.53
31.87
32.94
33.85
34.83
36.16
38.09
40.76
44.11
47.86
51.54
54.59
56.43
56.55
54.63
50.5
44.29
36.41
27.57
18.67
10.66
4.3
-0.06
-2.57
-3.79
-4.48
-5.32
-6.58
-8.12
-9.43
-9.94
-9.27
-7.39
-4.57
-1.26
2.07
5.1
7.52
9.12
9.68
9.16
7.7
5.71
3.79
2.47
2.01
2.23
2.58
2.26
0.6
-2.78
-7.7
-13.56
-19.43
-24.32
-27.42
-28.28
-26.85
-23.45
-18.7
-13.51
-8.94
-6.19
-6.21
-9.38
-15.15
-22.03
-27.97
-31.07
-30.35
-26.13
-19.89
-13.58
-8.86
-6.48
-6.27
-7.5
-9.44
-11.72
-14.3
-17.12
-19.75
-21.25
-20.4
-16.17
-8.23
2.85
15.72
28.64
39.97
48.45
53.3
54.32
51.77
46.43
39.56
32.64
27
23.31
21.41
20.46
19.42
17.57
14.81
11.55
8.28
5.22
2.22
-1.09
-4.9
-9
-12.73
-15.39
-16.58
-16.48
-15.89
-15.91
-17.53
-21.25
-26.76
-33.07
-38.78
-42.58
-43.61
-41.79
-37.72
-32.5
-27.42
-23.65
-22.03
-22.76
-25.21
-27.84
-28.46
-24.89
-15.82
-1.36
16.79
35.84
52.82
65.41
72.53
74.33
71.93
67.01
61.34
56.36
52.91
51.07
50.24
49.36
47.41
43.61
37.67
29.77
20.42
10.37
0.57
-8.01
-14.56
-18.64
-20.29
-20.06
-18.73
-17.04
-15.5
-14.27
-13.28
-12.34
-11.34
-10.45
-10.11
-11.02
-13.86
-18.97
-26.07
-34.31
-42.5
-49.58
-54.95
-58.48
-60.37
-60.66
-59.2
-55.75
-50.33
-43.51
-36.35
-29.92
-24.74
-20.45
-15.87
-9.6
-0.68
10.94
24.45
38.5
51.69
62.96
71.57
77.14
79.56
79.12
76.52
72.81
68.98
65.61
62.58
59.09
54.03
46.44
35.88
22.51
7
-9.55
-25.78
-40.14
-51.08
-57.26
-57.95
-53.13
-43.54
-30.47
-15.5
-0.31
13.51
24.46
31.37
33.7
31.86
27.33
22.35
19.2
19.29
22.51
27.17
30.68
30.56
25.45
15.47
2.07
-12.78
-27.23
-40.03
-50.46
-58.12
-62.71
-63.95
-61.83
-56.8
-49.8
-42.17
-35.28
-30.3
-27.86
-28.03
-30.28
-33.6
-36.72
-38.46
-38
-35.09
-30.1
-23.94
-17.79
-12.8
-9.86
-9.3
-10.83
-13.53
-16.13
-17.38
-16.47
-13.28
-8.4
-2.83
2.45
6.77
9.9
11.89
12.9
13.06
12.47
11.3
9.85
8.5
7.6
7.36
7.74
8.47
9.21
9.64
9.54
8.87
7.68
6.07
4.1
1.8
-0.77
-3.58
-6.48
-9.34
-12.01
-14.36
-16.32
-17.87
-19.04
-19.88
-20.41
-20.65
-20.56
-20.01
-18.86
-17.03
-14.52
-11.42
-7.86
-4.02
0
4.08
8.1
11.88
15.28
18.23
20.84
23.39
26.14
29.26
32.65
36.05
39.06
41.38
42.88
43.64
43.84
43.64
43.03
41.88
39.96
37.17
33.64
29.77
26.05
22.88
20.37
18.18
15.74
12.41
7.82
2.03
-4.42
-10.77
-16.21
-20.13
-22.34
-23.05
-22.88
-22.68
-23.34
-25.54
-29.46
-34.7
-40.31
-45.1
-47.99
-48.43
-46.5
-42.8
-38.24
-33.64
-29.57
-26.24
-23.64
-21.6
-19.97
-18.59
-17.34
-16.12
-14.84
-13.46
-11.98
-10.45
-8.94
-7.49
-6.11
-4.74
-3.32
-1.78
-0.11
1.67
3.4
4.89
5.95
6.45
6.32
5.65
4.6
3.43
2.35
1.49
0.82
0.24
-0.44
-1.29
-2.31
-3.4
-4.47
-5.51
-6.56
-7.65
-8.74
-9.67
-10.22
-10.26
-9.75
-8.83
-7.66
-6.36
-4.9
-3.11
-0.8
2.19
5.83
9.92
14.15
18.09
21.38
23.78
25.24
25.92
26.12
26.14
26.22
26.42
26.59
26.38
25.28
22.73
18.32
11.95
3.91
-5.07
-13.95
-21.65
-27.21
-30.01
-29.91
-27.18
-22.47
-16.72
-10.92
-5.95
-2.34
-0.21
0.7
0.87
0.82
0.89
1.23
1.81
2.55
3.32
3.99
4.42
4.44
3.89
2.67
0.78
-1.71
-4.63
-7.82
-11.07
-14.14
-16.72
-18.5
-19.29
-19.03
-17.89
-16.19
-14.28
-12.43
-10.88
-9.86
-9.65
-10.48
-12.43
-15.16
-17.88
-19.45
-18.7
-14.87
-7.87
1.53
11.94
21.76
29.72
35.4
39.38
43.03
48.01
55.64
66.33
79.45
93.46
106.39
116.3
121.73
121.97
117.13
108.03
95.98
82.39
68.48
55.03
42.36
30.6
19.82
10.33
2.57
-3.1
-6.7
-8.85
-10.58
-12.93
-16.43
-20.82
-25.15
-28.23
-29.23
-28.1
-25.65
-23.01
-21.24
-20.83
-21.78
-23.88
-27.15
-31.92
-38.61
-47.24
-57.02
-66.36
-73.39
-76.54
-75.2
-69.87
-61.8
-52.52
-43.28
-34.75
-27.09
-20.14
-13.63
-7.31
-1.02
5.3
11.45
16.9
20.83
22.38
20.95
16.67
10.34
3.36
-2.82
-7.22
-9.58
-10.34
-10.3
-10.21
-10.52
-11.3
-12.44
-13.76
-15.11
-16.34
-17.33
-17.94
-18.16
-18.1
-17.92
-17.76
-17.51
-16.88
-15.45
-12.87
-9.02
-3.99
1.97
8.66
15.88
23.42
30.88
37.76
43.62
48.42
52.76
57.79
64.66
73.81
84.5
94.87
102.67
106.26
105.37
101.13
95.44
90.06
85.87
82.68
79.67
75.88
70.66
63.7
54.84
43.87
30.61
15.11
-1.96
-19.35
-35.41
-48.65
-58.32
-64.6
-68.53
-71.5
-74.69
-78.59
-82.91
-86.76
-89.15
-89.44
-87.56
-84.12
-80.16
-76.67
-74.32
-73.09
-72.38
-71.12
-68.32
-63.35
-56.3
-47.88
-39.2
-31.42
-25.32
-21.1
-18.34
-16.25
-13.97
-10.9
-6.86
-2.05
3.09
8
12
14.39
14.38
11.49
5.78
-1.89
-9.88
-16.27
-19.49
-18.93
-15.19
-9.81
-4.68
-1.35
-0.5
-1.98
-4.98
-8.65
-12.45
-16.29
-20.35
-24.68
-28.91
-32.09
-32.99
-30.47
-23.87
-13.23
0.73
16.66
32.86
47.45
58.68
65.28
66.78
63.73
57.52
50.05
43.03
37.5
33.62
30.82
28.28
25.38
22.02
18.51
15.38
13.03
11.51
10.59
9.9
9.19
8.34
7.36
6.27
5.02
3.48
1.51
-1.08
-4.44
-8.68
-13.69
-19.18
-24.53
-29
-31.93
-33.06
-32.59
-31.15
-29.47
-28.16
-27.54
-27.74
-28.89
-31.16
-34.66
-39.14
-43.76
-47.16
-47.84
-44.76
-37.81
-27.87
-16.42
-4.9
5.8
15.51
24.5
33.02
40.99
47.98
53.56
57.66
60.7
63.53
66.96
71.42
76.71
82.05
86.42
88.84
88.57
85.26
78.86
69.62
58.06
45.01
31.53
18.75
7.6
-1.29
-7.69
-11.72
-13.71
-14.07
-13.29
-11.92
-10.53
-9.63
-9.59
-10.44
-12
-13.95
-15.99
-18.04
-20.23
-22.85
-26.15
-30.24
-34.87
-39.54
-43.53
-46.08
-46.54
-44.48
-39.76
-32.51
-23.11
-12.22
-0.73
10.36
20.03
27.53
32.51
35.22
36.3
36.59
36.7
36.55
35.35
31.84
24.84
13.99
0.08
-14.97
-28.77
-39.24
-45.27
-46.85
-44.88
-40.54
-34.94
-28.87
-23
-17.93
-14.3
-12.57
-12.72
-14.13
-15.67
-16.13
-14.7
-11.3
-6.63
-1.89
1.66
3.13
2.28
-0.55
-4.56
-8.92
-12.98
-16.51
-19.63
-22.69
-26.04
-29.85
-34.02
-38.14
-41.67
-44.11
-45.23
-45.09
-44.01
-42.34
-40.17
-37.22
-33.03
-27.19
-19.71
-11.06
-2.12
6.12
12.89
17.8
20.82
22.27
22.63
22.52
22.52
23.08
24.31
25.94
27.37
27.89
27.05
24.81
21.68
18.38
15.61
13.74
12.66
11.96
11.25
10.39
9.65
9.56
10.59
12.8
15.72
18.5
20.22
20.3
18.68
15.92
12.92
10.73
10.15
11.5
14.49
18.25
21.65
23.64
23.6
21.55
18.04
13.97
10.2
7.38
5.87
5.74
6.95
9.36
12.81
17.08
21.94
27.11
32.28
37.1
41.2
44.29
46.26
47.24
47.53
47.4
46.89
45.66
43.17
38.84
32.38
24.04
14.49
4.7
-4.44
-12.27
-18.54
-23.24
-26.54
-28.63
-29.65
-29.72
-28.98
-27.62
-25.89
-24.01
-22.2
-20.56
-19.1
-17.73
-16.42
-15.18
-14.08
-13.3
-13.02
-13.38
-14.45
-16.17
-18.44
-21.15
-24.25
-27.68
-31.31
-34.84
-37.88
-39.99
-40.99
-41.01
-40.46
-39.89
-39.7
-39.96
-40.47
-40.84
-40.75
-40.12
-39.04
-37.67
-36.08
-34.22
-31.97
-29.33
-26.5
-23.89
-21.93
-20.84
-20.49
-20.35
-19.66
-17.6
-13.56
-7.21
1.47
12.11
24.06
36.44
48.3
58.86
67.71
74.89
80.77
85.8
90.25
94.06
96.83
98.08
97.48
94.97
90.85
85.63
79.82
73.83
67.9
62.14
56.68
51.73
47.58
44.6
43.07
43.12
44.6
47.11
49.99
52.38
53.41
52.34
48.83
42.97
35.31
26.57
17.27
7.54
-2.84
-14.12
-26.08
-37.83
-48.01
-55.35
-59.27
-60.16
-59.18
-57.76
-57.02
-57.4
-58.65
-60.18
-61.33
-61.74
-61.29
-60.21
-58.82
-57.46
-56.37
-55.69
-55.48
-55.76
-56.55
-57.83
-59.41
-60.86
-61.59
-61.04
-58.99
-55.64
-51.67
-47.88
-44.91
-42.92
-41.6
-40.28
-38.3
-35.22
-30.89
-25.36
-18.7
-10.85
-1.66
8.93
20.7
33.04
45.08
55.89
64.74
71.24
75.44
77.73
78.74
79.18
79.66
80.44
81.28
81.41
79.81
75.58
68.39
58.72
47.7
36.71
26.92
18.93
12.72
7.86
3.83
0.18
-3.34
-6.9
-10.6
-14.56
-18.85
-23.39
-27.99
-32.39
-36.33
-39.66
-42.4
-44.64
-46.57
-48.32
-49.94
-51.46
-52.89
-54.27
-55.67
-57.19
-58.85
-60.53
-62.01
-62.91
-62.81
-61.36
-58.41
-54.16
-49.13
-44.04
-39.49
-35.78
-32.76
-30.05
-27.29
-24.49
-22.08
-20.71
-20.81
-22.29
-24.32
-25.71
-25.33
-22.59
-17.7
-11.48
-4.98
1.01
6.21
10.93
15.76
21.18
27.25
33.59
39.51
44.38
47.96
50.4
52.14
53.74
55.68
58.28
61.66
65.61
69.58
72.61
73.58
71.67
66.69
59.29
50.6
41.7
33.06
24.4
15.12
4.89
-5.84
-15.82
-23.53
-27.81
-28.46
-26.27
-22.63
-18.86
-15.72
-13.31
-11.18
-8.7
-5.25
-0.33
6.39
14.99
25.22
36.33
47.35
57.21
65.2
71.1
74.97
77.02
77.28
75.68
72.24
67.33
61.52
55.23
48.44
40.55
30.8
18.83
5.14
-8.94
-21.76
-31.93
-38.86
-42.75
-44.37
-44.68
-44.5
-44.47
-44.96
-46.06
-47.53
-48.86
-49.4
-48.65
-46.57
-43.66
-40.7
-38.43
-37.12
-36.4
-35.45
-33.37
-29.64
-24.35
-18.13
-11.9
-6.57
-2.86
-1.18
-1.6
-3.76
-6.73
-9.24
-10.06
-8.5
-4.9
-0.51
2.97
4.24
2.94
-0.22
-3.92
-7.05
-9.27
-11.16
-13.77
-17.88
-23.57
-29.96
-35.65
-39.26
-40.14
-38.6
-35.78
-33.09
-31.61
-31.66
-32.78
-34.02
-34.34
-33.01
-29.9
-25.54
-21.04
-17.79
-17.03
-19.31
-24.23
-30.37
-35.74
-38.45
-37.38
-32.6
-25.24
-17.06
-9.77
-4.57
-1.84
-1.28
-2.18
-3.72
-5.26
-6.33
-6.66
-6.09
-4.53
-2.07
0.98
4.16
7.02
9.43
11.71
14.56
18.7
24.41
31.31
38.43
44.62
48.99
51.31
52.08
52.29
52.96
54.78
57.82
61.48
64.68
66.17
65
60.97
54.78
47.84
41.76
37.65
35.72
35.24
35.03
34.01
31.67
28.12
23.86
19.51
15.59
12.54
10.77
10.56
11.94
14.46
17.23
19.15
19.3
17.2
12.92
6.97
0.08
-7.02
-13.71
-19.58
-24.46
-28.43
-31.78
-34.83
-37.78
-40.49
-42.6
-43.64
-43.29
-41.58
-38.82
-35.45
-31.64
-27.2
-21.6
-14.26
-4.93
5.97
17.25
27.08
33.49
34.99
31.2
23.21
13.32
4.35
-1.43
-3.11
-1.46
1.42
3.06
1.58
-3.67
-12.02
-21.91
-31.63
-39.83
-45.85
-49.62
-51.42
-51.6
-50.4
-48.08
-44.96
-41.56
-38.54
-36.45
-35.53
-35.49
-35.61
-35.08
-33.27
-30.16
-26.23
-22.29
-19.1
-17
-15.82
-15.02
-13.95
-12.2
-9.68
-6.61
-3.35
-0.19
2.77
5.58
8.35
11.21
14.19
17.25
20.25
23.01
25.33
27.1
28.31
29.13
29.84
30.72
32.03
33.85
36.08
38.51
40.77
42.41
43.02
42.26
39.99
36.36
31.7
26.48
21.16
16.11
11.51
7.52
4.22
1.66
-0.21
-1.54
-2.51
-3.3
-3.99
-4.52
-4.77
-4.64
-4.15
-3.45
-2.72
-2.11
-1.7
-1.45
-1.29
-1.14
-0.98
-0.79
-0.57
-0.34
-0.13
0.03
0.13
0.15
0.13
0.09
0.03
-0.04
-0.18
-0.41
-0.72
-1.05
-1.34
-1.52
-1.65
-1.81
-2.16
-2.77
-3.61
-4.55
-5.36
-5.88
-6.06
-5.95
-5.66
-5.38
-5.24
-5.34
-5.76
-6.5
-7.55
-8.78
-10.05
-11.22
-12.23
-13.11
-13.92
-14.73
-15.45
-15.94
-16.03
-15.71
-15.2
-14.94
-15.45
-17.08
-19.9
-23.62
-27.78
-31.92
-35.76
-39.21
-42.41
-45.66
-49.47
-54.47
-61.13
-69.38
-78.28
-85.95
-90.01
-88.43
-80.27
-66.1
-47.7
-27.39
-7.2
11.59
28.46
43.31
56.13
66.82
75.27
81.59
86.17
89.59
92.38
94.8
96.75
97.79
97.44
95.34
91.47
86.19
80.17
74.2
68.97
64.87
61.88
59.63
57.47
54.79
51.18
46.64
41.56
36.48
31.88
27.94
24.63
21.78
19.3
17.22
15.65
14.63
14.03
13.51
12.74
11.54
9.94
8.22
6.7
5.63
5.09
4.95
5
5.01
4.77
4.19
3.21
1.89
0.35
-1.3
-2.88
-4.28
-5.46
-6.49
-7.49
-8.66
-10.09
-11.8
-13.61
-15.27
-16.52
-17.25
-17.53
-17.61
-17.71
-17.94
-18.11
-17.81
-16.66
-14.47
-11.47
-8.29
-5.69
-4.22
-3.89
-4.09
-3.75
-1.84
2.22
8.16
14.98
21.27
25.81
28.12
28.61
28.38
28.71
30.58
34.39
39.96
46.65
53.42
58.88
61.47
59.98
54.16
45.24
35.75
28.74
26.4
28.91
34.23
38.93
39.73
35.05
25.72
14.36
4.2
-2.45
-4.92
-4.1
-1.64
0.97
2.89
3.93
4.17
3.53
1.71
-1.52
-5.9
-10.55
-14.23
-16.05
-15.95
-15
-14.99
-17.72
-24.16
-34.03
-45.87
-57.48
-66.68
-71.94
-72.78
-69.71
-64
-57.22
-50.8
-45.7
-42.36
-40.71
-40.36
-40.78
-41.47
-42.07
-42.29
-41.98
-41.07
-39.53
-37.39
-34.75
-31.77
-28.7
-25.8
-23.26
-21.25
-19.79
-18.93
-18.73
-19.18
-20.26
-21.71
-23.21
-24.35
-24.86
-24.6
-23.64
-22.15
-20.3
-18.25
-16.16
-14.21
-12.55
-11.2
-10.08
-8.97
-7.65
-6.06
-4.32
-2.66
-1.32
-0.34
0.43
1.31
2.59
4.39
6.6
8.85
10.74
11.92
12.27
11.88
10.98
9.81
8.53
7.24
6.02
5
4.41
4.46
5.38
7.22
9.95
13.46
17.59
22.11
26.62
30.51
33.08
33.66
31.9
27.92
22.3
15.92
9.63
4.04
-0.7
-4.78
-8.55
-12.27
-15.95
-19.32
-21.94
-23.35
-23.27
-21.74
-19.09
-15.98
-13.24
-11.74
-12.23
-15.21
-20.89
-29.07
-39.18
-50.29
-61.18
-70.52
-77.13
-80.22
-79.59
-75.65
-69.28
-61.47
-53.16
-44.99
-37.39
-30.66
-25.03
-20.7
-17.74
-15.94
-14.84
-13.82
-12.3
-9.99
-6.98
-3.7
-0.72
1.43
2.46
2.36
1.35
-0.24
-2.12
-4.06
-5.91
-7.56
-8.86
-9.67
-9.88
-9.48
-8.53
-7.21
-5.68
-4.12
-2.61
-1.19
0.15
1.42
2.6
3.6
4.28
4.52
4.28
3.68
2.98
2.54
2.66
3.45
4.84
6.61
8.51
10.41
12.31
14.27
16.35
18.52
20.65
22.51
23.97
24.96
25.61
26.14
26.78
27.68
28.85
30.15
31.39
32.41
33.12
33.59
33.94
34.39
35.16
36.45
38.41
40.9
43.47
45.36
45.64
43.59
38.96
32.09
23.82
15.18
7.08
0.1
-5.56
-9.91
-13
-14.9
-15.68
-15.65
-15.28
-15.25
-16.14
-18.22
-21.33
-24.96
-28.42
-31.11
-32.72
-33.23
-32.79
-31.54
-29.61
-27.04
-23.9
-20.36
-16.63
-12.95
-9.44
-6.15
-3
0.05
2.94
5.52
7.57
8.93
9.62
9.85
9.88
9.92
10.02
10.02
9.74
9.07
8.08
6.99
6.05
5.41
5.06
4.83
4.52
3.96
3.07
1.94
0.71
-0.41
-1.2
-1.48
-1.2
-0.48
0.5
1.48
2.28
2.81
3.13
3.36
3.63
4.03
4.6
5.38
6.44
7.9
9.95
12.71
16.18
20.16
24.2
27.75
30.26
31.38
31.09
29.78
28.07
26.66
26.1
26.52
27.64
28.85
29.41
28.74
26.58
23.11
18.82
14.3
10.1
6.51
3.59
1.3
-0.42
-1.48
-1.68
-0.82
1.13
3.84
6.56
8.26
7.83
4.46
-2.12
-11.45
-22.42
-33.47
-42.96
-49.58
-52.71
-52.64
-50.4
-47.44
-45.1
-44.1
-44.44
-45.51
-46.45
-46.58
-45.58
-43.48
-40.42
-36.51
-31.71
-25.94
-19.08
-10.99
-1.54
9.27
21.02
32.6
42.35
48.6
50.44
48.34
44.11
40.14
38.32
39.26
42.19
45.6
48.17
49.34
49.33
48.63
47.52
45.88
43.41
40.07
36.18
32.35
29.02
26.26
23.78
21.07
17.77
13.85
9.56
5.28
1.3
-2.26
-5.43
-8.3
-10.88
-13.12
-14.87
-16.03
-16.64
-16.87
-17.04
-17.5
-18.49
-20.07
-22.05
-24.11
-25.96
-27.54
-29.05
-30.84
-33.16
-35.92
-38.71
-40.92
-42.06
-41.93
-40.68
-38.59
-35.92
-32.76
-29.15
-25.15
-20.98
-16.87
-13.06
-9.58
-6.37
-3.32
-0.48
1.94
3.73
4.83
5.49
6.23
7.54
9.78
12.94
16.65
20.36
23.55
25.79
26.9
26.81
25.61
23.45
20.55
17.23
13.82
10.75
8.37
6.99
6.71
7.41
8.69
9.95
10.62
10.3
9.04
7.24
5.5
4.39
4.18
4.78
5.85
6.86
7.21
6.32
3.71
-0.79
-6.8
-13.34
-19.02
-22.5
-23
-20.69
-16.53
-11.87
-7.79
-4.72
-2.38
-0.01
3.14
7.53
13.1
19.42
25.78
31.38
35.42
37.28
36.63
33.57
28.65
22.75
16.85
11.67
7.51
4.23
1.38
-1.51
-4.71
-8.2
-11.75
-14.94
-17.3
-18.26
-17.21
-13.55
-7
2.25
13.17
24.02
32.62
36.95
35.78
29.2
18.6
6.3
-5.21
-14.03
-19.33
-21.35
-20.98
-19.21
-16.69
-13.66
-10
-5.47
0.09
6.46
12.98
18.41
21.17
19.85
13.75
3.41
-9.35
-21.91
-31.66
-36.96
-37.56
-34.56
-29.77
-25
-21.41
-19.31
-18.29
-17.59
-16.53
-14.79
-12.5
-10.07
-8.04
-6.88
-6.8
-7.79
-9.5
-11.32
-12.52
-12.47
-10.89
-7.93
-4.18
-0.38
2.76
4.72
5.31
4.52
2.5
-0.46
-4.01
-7.69
-11.06
-13.8
-15.77
-17.07
-17.9
-18.46
-18.82
-18.91
-18.65
-18.01
-17.2
-16.62
-16.71
-17.7
-19.41
-21.22
-22.29
-21.92
-19.86
-16.45
-12.48
-8.82
-6.12
-4.65
-4.36
-5.05
-6.57
-8.87
-11.91
-15.61
-19.78
-24.32
-29.35
-35.27
-42.51
-51.1
-60.06
-67.38
-70.45
-67.11
-56.57
-39.97
-20.01
0.01
17.19
29.54
35.83
35.27
27.46
12.84
-6.57
-26.99
-43.66
-52.28
-50.69
-39.64
-22.38
-3.25
13.82
26.37
33.49
35.4
33.03
27.65
20.83
14.37
9.98
8.81
11.15
16.29
22.76
28.72
32.53
33.12
30.46
25.6
20.55
17.61
18.55
23.88
32.76
43.45
53.98
62.68
68.09
68.91
64.05
53.29
37.94
21.17
7.22
-0.05
1.11
9.62
22.09
34.45
43.8
49.4
52.49
55.15
58.95
64.16
69.82
74.38
76.4
75.19
70.93
64.34
56.33
47.63
38.74
30
21.8
14.68
9.15
5.5
3.46
2.25
0.69
-2.26
-7.12
-13.51
-20.23
-25.68
-28.46
-27.97
-24.53
-19.18
-13.14
-7.28
-1.93
3.04
7.8
12.25
15.95
18.4
19.29
18.81
17.54
16.15
15.06
14.24
13.33
11.79
9.2
5.33
0.22
-5.86
-12.45
-18.93
-24.62
-29
-31.81
-33.1
-33.13
-32.27
-30.88
-29.35
-28.08
-27.42
-27.5
-28.09
-28.57
-28.23
-26.61
-23.85
-20.66
-18.07
-16.89
-17.32
-18.98
-21.13
-23.15
-24.69
-25.83
-26.82
-27.81
-28.73
-29.21
-28.77
-27.06
-24.01
-19.99
-15.76
-12.36
-10.81
-11.86
-15.63
-21.53
-28.32
-34.51
-38.83
-40.66
-40.23
-38.41
-36.32
-34.9
-34.58
-35.21
-36.14
-36.32
-34.54
-29.64
-20.87
-8.29
7.04
23.21
38.19
50.61
60.42
68.85
77.63
88.07
100.27
113.08
124.66
133.33
138.18
139.21
137.02
132.38
125.86
117.75
108.21
97.32
85.15
71.69
56.8
40.23
21.8
1.72
-19.18
-39.42
-57.14
-70.59
-78.63
-81.12
-78.9
-73.45
-66.36
-58.97
-52.13
-46.21
-41.25
-37.02
-33.09
-28.95
-24.23
-18.86
-13.26
-8.29
-4.96
-4.11
-6.05
-10.45
-16.38
-22.61
-27.92
-31.41
-32.69
-31.81
-29.26
-25.71
-21.96
-18.78
-16.86
-16.68
-18.38
-21.57
-25.47
-29.01
-31.26
-31.69
-30.4
-27.91
-24.91
-21.91
-19.12
-16.44
-13.73
-11.04
-8.69
-7.3
-7.49
-9.58
-13.33
-18.03
-22.62
-26.13
-27.94
-27.96
-26.49
-23.98
-20.8
-17.21
-13.32
-9.27
-5.26
-1.5
1.8
4.6
6.93
8.88
10.54
11.93
13.01
13.72
13.95
13.65
12.81
11.55
10.21
9.3
9.37
10.88
13.86
17.83
21.83
24.6
25.08
22.83
18.24
12.46
6.98
3.15
1.75
2.85
5.89
9.97
14.12
17.52
19.53
19.74
18.01
14.52
9.92
5.15
1.38
-0.4
0.3
3.41
8.27
13.95
19.36
23.6
25.98
26.22
24.53
21.67
18.76
17.07
17.59
20.62
25.77
31.92
37.69
41.88
43.81
43.52
41.64
39.06
36.52
34.26
31.97
28.84
23.95
16.63
6.76
-5.22
-18.46
-32
-45
-56.86
-67.16
-75.57
-81.77
-85.47
-86.54
-85.15
-81.79
-77.11
-71.73
-65.92
-59.51
-52.04
-43.06
-32.63
-21.4
-10.51
-1.04
6.52
12.51
17.95
23.92
30.99
38.86
46.5
52.65
56.27
56.86
54.41
49.23
41.92
33.33
24.55
16.64
10.3
5.45
1.18
-3.87
-10.8
-19.91
-30.34
-40.44
-48.4
-53.07
-54.34
-53.1
-50.84
-48.96
-48.3
-48.92
-50.32
-51.8
-52.82
-53.14
-52.77
-51.76
-49.98
-47.16
-42.98
-37.32
-30.32
-22.44
-14.22
-6.14
1.58
8.96
16.13
23.25
30.27
36.94
42.82
47.46
50.52
51.92
51.82
50.62
48.87
47.23
46.4
47.03
49.47
53.47
58.01
61.32
61.47
57.11
48.17
35.97
22.77
10.87
1.83
-3.9
-6.7
-7.31
-6.3
-4.14
-1.25
1.62
3.52
3.57
1.42
-2.51
-7.26
-11.72
-15.13
-17.36
-18.83
-20.19
-21.93
-24.1
-26.39
-28.21
-29.05
-28.71
-27.27
-25.04
-22.38
-19.56
-16.76
-14.07
-11.6
-9.48
-7.8
-6.47
-5.28
-3.9
-2.06
0.33
3.08
5.81
8.07
9.56
10.18
10.06
9.46
8.76
8.37
8.72
10.2
12.97
16.89
21.39
25.63
28.72
30.06
29.51
27.46
24.63
21.82
19.63
18.45
18.39
19.42
21.38
24.12
27.41
31.02
34.64
37.83
40.02
40.53
38.82
34.72
28.68
21.79
15.52
11.26
9.76
10.87
13.57
16.43
18.05
17.53
14.64
9.63
3.05
-4.6
-12.95
-21.74
-30.65
-39.18
-46.7
-52.58
-56.41
-58.18
-58.23
-57.14
-55.43
-53.45
-51.28
-48.83
-46.01
-42.82
-39.42
-36.05
-32.89
-30.01
-27.31
-24.5
-21.25
-17.32
-12.7
-7.59
-2.4
2.48
6.72
10.16
12.73
14.47
15.51
16.09
16.5
17
17.64
18.21
18.29
17.45
15.52
12.7
9.46
6.35
3.82
2.11
1.22
1.13
1.68
2.7
3.91
5
5.7
5.9
5.59
4.94
4.15
3.38
2.79
2.43
2.3
2.35
2.47
2.56
2.6
2.63
2.73
2.99
3.45
4.09
4.83
5.56
6.15
6.48
6.41
5.85
4.76
3.24
1.49
-0.24
-1.72
-2.82
-3.55
-4.05
-4.48
-5.01
-5.76
-6.76
-8.01
-9.46
-10.98
-12.38
-13.42
-13.81
-13.43
-12.34
-10.92
-9.75
-9.45
-10.44
-12.59
-15.24
-17.25
-17.46
-15.15
-10.31
-3.66
3.6
10.21
15.27
18.36
19.49
18.95
17.17
14.57
11.61
8.75
6.4
4.81
4
3.76
3.8
3.87
3.83
3.71
3.64
3.72
4.04
4.59
5.32
6.08
6.74
7.17
7.29
7.1
6.65
5.98
5.15
4.13
2.93
1.57
0.15
-1.16
-2.23
-3.02
-3.58
-4.04
-4.5
-4.98
-5.43
-5.79
-6.05
-6.29
-6.65
-7.27
-8.2
-9.37
-10.71
-12.12
-13.52
-14.84
-15.96
-16.67
-16.8
-16.21
-14.9
-13.01
-10.74
-8.34
-6
-3.87
-2.05
-0.58
0.55
1.4
2.08
2.67
3.22
3.73
4.15
4.47
4.71
4.96
5.28
5.77
6.44
7.25
8.14
8.99
9.65
9.97
9.86
9.35
8.63
8.02
7.81
8.15
8.94
9.83
10.38
10.26
9.41
8.15
7.13
7.14
8.79
12.21
16.83
21.42
24.41
24.48
21.06
14.66
6.75
-0.81
-6.43
-9.43
-10.24
-10.07
-10.39
-12.26
-15.96
-21.02
-26.4
-30.9
-33.44
-33.34
-30.43
-25.17
-18.64
-12.41
-8.14
-7.13
-9.75
-15.29
-22.18
-28.6
-33.14
-35.19
-34.97
-33.21
-30.72
-28.13
-25.79
-23.89
-22.39
-21.11
-19.66
-17.55
-14.4
-10.08
-4.76
1.23
7.47
13.57
19.1
23.58
26.54
27.71
27.32
26.04
24.82
24.41
25.06
26.52
28.23
29.78
31.1
32.41
33.87
35.25
35.8
34.46
30.22
22.61
11.99
-0.52
-13.3
-24.79
-33.87
-40.1
-43.73
-45.36
-45.66
-45.1
-43.87
-42.01
-39.53
-36.54
-33.27
-29.95
-26.65
-23.22
-19.32
-14.52
-8.55
-1.4
6.6
14.83
22.65
29.48
34.94
38.91
41.44
42.75
43.18
43.06
42.74
42.41
42.13
41.8
41.3
40.7
40.32
40.73
42.43
45.57
49.75
54.09
57.55
59.3
59.09
57.27
54.54
51.65
49.07
46.82
44.62
41.97
38.35
33.43
27.01
19.14
10.05
0.17
-9.89
-19.51
-28.16
-35.66
-42.3
-48.77
-55.89
-64.21
-73.6
-83.14
-91.3
-96.48
-97.56
-94.21
-87.02
-77.2
-66.25
-55.5
-45.89
-37.84
-31.32
-25.96
-21.28
-16.82
-12.27
-7.52
-2.66
2.14
6.69
10.84
14.55
17.9
21.21
24.95
29.65
35.51
42.26
49.04
54.62
57.89
58.23
55.77
51.24
45.56
39.51
33.4
27.24
20.98
14.78
9.06
4.36
1.04
-0.89
-1.88
-2.65
-3.96
-6.4
-10.15
-15
-20.41
-25.72
-30.33
-33.88
-36.27
-37.58
-38.02
-37.82
-37.23
-36.49
-35.85
-35.49
-35.38
-35.3
-34.86
-33.55
-31
-27.03
-21.76
-15.57
-9.07
-2.91
2.29
6.13
8.48
9.46
9.34
8.36
6.68
4.4
1.74
-0.8
-2.47
-2.47
-0.19
4.57
11.53
20.09
29.41
38.53
46.34
51.63
53.29
50.63
43.73
33.59
21.9
10.53
0.98
-6.05
-10.66
-13.4
-14.88
-15.34
-14.75
-12.9
-9.83
-5.88
-1.71
2.04
5.01
7.14
8.52
9.21
9.08
7.9
5.59
2.32
-1.48
-5.33
-8.93
-12.23
-15.36
-18.34
-20.95
-22.74
-23.26
-22.32
-20.18
-17.57
-15.37
-14.36
-14.87
-16.63
-18.92
-20.78
-21.45
-20.62
-18.5
-15.55
-12.32
-9.17
-6.2
-3.39
-0.77
1.53
3.32
4.48
5.06
5.31
5.48
5.77
6.21
6.64
6.9
6.88
6.6
6.16
5.71
5.33
5.04
4.78
4.49
4.17
3.83
3.49
3.12
2.67
2.04
1.24
0.31
-0.62
-1.48
-2.33
-3.3
-4.57
-6.19
-8.07
-9.98
-11.63
-12.78
-13.32
-13.23
-12.54
-11.26
-9.47
-7.28
-4.88
-2.53
-0.47
1.18
2.45
3.48
4.49
5.58
6.78
8
9.11
10.03
10.81
11.53
12.28
13.11
13.96
14.71
15.28
15.62
15.77
15.76
15.61
15.33
14.88
14.25
13.47
12.54
11.53
10.47
9.45
8.56
7.88
7.48
7.34
7.39
7.44
7.29
6.77
5.76
4.29
2.49
0.59
-1.2
-2.78
-4.18
-5.52
-6.95
-8.51
-10.06
-11.32
-11.9
-11.49
-9.93
-7.3
-3.9
-0.15
3.51
6.77
9.41
11.43
12.94
14.1
15.09
16.02
16.87
17.54
17.84
17.67
17.06
16.19
15.36
14.82
14.68
14.85
15.19
15.52
15.74
15.77
15.57
15.04
14.09
12.73
11.06
9.24
7.4
5.57
3.65
1.55
-0.72
-3.02
-5.15
-6.91
-8.33
-9.57
-10.9
-12.52
-14.53
-16.86
-19.3
-21.61
-23.5
-24.69
-24.93
-24.02
-21.95
-18.85
-15.1
-11.15
-7.44
-4.27
-1.73
0.3
1.98
3.49
4.83
5.88
6.49
6.5
5.87
4.66
3.06
1.31
-0.32
-1.61
-2.43
-2.71
-2.56
-2.17
-1.81
-1.71
-2.06
-2.88
-4.11
-5.6
-7.2
-8.78
-10.26
-11.62
-12.87
-14.09
-15.32
-16.58
-17.8
-18.76
-19.21
-18.87
-17.59
-15.36
-12.34
-8.79
-5.05
-1.43
1.82
4.54
6.63
8.05
8.85
9.12
9.01
8.66
8.24
7.85
7.57
7.42
7.39
7.38
7.34
7.17
6.84
6.35
5.75
5.12
4.57
4.15
3.88
3.7
3.51
3.18
2.56
1.55
0.11
-1.68
-3.65
-5.48
-6.86
-7.5
-7.25
-6.14
-4.35
-2.17
0.11
2.25
4.13
5.77
7.28
8.81
10.41
11.99
13.36
14.32
14.78
14.8
14.65
14.58
14.8
15.31
16.03
16.77
17.43
17.97
18.39
18.69
18.82
18.74
18.39
17.8
17.02
16.14
15.22
14.29
13.32
12.27
11.11
9.84
8.5
7.16
5.85
4.59
3.35
2.07
0.73
-0.68
-2.09
-3.44
-4.73
-5.95
-7.16
-8.42
-9.73
-11.11
-12.58
-14.22
-16.14
-18.39
-20.91
-23.49
-25.72
-27.13
-27.3
-26.01
-23.36
-19.67
-15.45
-11.22
-7.32
-3.92
-1
1.59
3.99
6.31
8.56
10.68
12.59
14.18
15.42
16.3
16.82
17.04
17.05
16.91
16.7
16.47
16.27
16.18
16.21
16.39
16.69
17.02
17.23
17.21
16.86
16.2
15.3
14.32
13.35
12.42
11.5
10.5
9.35
8.04
6.59
5.07
3.53
1.98
0.44
-1.1
-2.59
-4.01
-5.28
-6.39
-7.33
-8.13
-8.87
-9.66
-10.61
-11.75
-12.98
-14.04
-14.56
-14.1
-12.34
-9.2
-4.88
0.16
5.29
9.93
13.74
16.66
18.92
20.94
23.07
25.45
27.93
30.15
31.71
32.37
32.17
31.43
30.52
29.72
28.96
27.96
26.29
23.67
20.1
15.78
11.06
6.27
1.72
-2.14
-4.68
-5.26
-3.65
-0.48
2.95
5.37
6.54
7.79
11.69
20.86
36.45
57.37
80.42
101.43
116.74
124.22
123.55
115.87
103.19
87.95
72.71
59.76
50.68
45.75
43.71
42.1
38.01
28.94
13.53
-7.99
-33.91
-61.4
-87.1
-107.91
-121.62
-127.46
-126.05
-119.14
-108.86
-97.18
-85.34
-73.84
-62.63
-51.38
-39.76
-27.55
-14.69
-1.26
12.32
25.36
36.92
46.01
51.92
54.49
54.2
52.01
49.08
46.29
43.95
41.76
39.02
35.11
29.79
23.34
16.39
9.6
3.36
-2.25
-7.42
-12.39
-17.26
-21.99
-26.46
-30.55
-34.28
-37.71
-40.95
-44.06
-47.02
-49.76
-52.21
-54.36
-56.27
-58.05
-59.78
-61.47
-62.99
-64.19
-64.98
-65.44
-65.83
-66.54
-67.85
-69.83
-72.19
-74.39
-75.84
-76.16
-75.35
-73.8
-72.13
-70.89
-70.35
-70.32
-70.25
-69.29
-66.56
-61.48
-53.94
-44.48
-34.16
-24.27
-15.85
-9.28
-4.14
0.7
6.69
15.09
26.54
40.73
56.44
71.84
85.18
95.38
102.42
107.2
110.92
114.26
116.92
117.71
115.23
108.63
98.16
84.98
70.58
56.19
42.49
29.72
18.09
7.98
-0.13
-6.02
-9.98
-12.77
-15.35
-18.46
-22.3
-26.64
-30.94
-34.77
-37.87
-40.23
-41.9
-42.95
-43.45
-43.5
-43.24
-42.78
-42.08
-40.97
-39.25
-36.81
-33.72
-30.24
-26.65
-23.16
-19.82
-16.64
-13.63
-10.87
-8.51
-6.67
-5.41
-4.69
-4.4
-4.42
-4.63
-4.94
-5.25
-5.48
-5.57
-5.45
-5.11
-4.53
-3.72
-2.75
-1.68
-0.58
0.47
1.38
2.1
2.58
2.85
2.96
3.02
3.08
3.11
3.04
2.76
2.21
1.47
0.66
-0.02
-0.47
-0.65
-0.66
-0.58
-0.51
-0.52
-0.65
-0.91
-1.27
-1.7
-2.07
-2.28
-2.28
-2.13
-1.99
-2.02
-2.32
-2.84
-3.34
-3.59
-3.41
-2.77
-1.83
-0.81
0.15
0.96
1.63
2.18
2.63
2.91
2.96
2.75
2.28
1.68
1.04
0.52
0.19
0.09
0.14
0.19
0.06
-0.39
-1.2
-2.27
-3.42
-4.45
-5.25
-5.85
-6.49
-7.44
-8.96
-11.19
-14.03
-17.28
-20.59
-23.63
-26.09
-27.76
-28.54
-28.45
-27.71
-26.6
-25.42
-24.33
-23.23
-21.86
-19.89
-17.11
-13.6
-9.69
-5.77
-2.21
0.87
3.55
5.98
8.33
10.62
12.88
15.11
17.43
20.02
23.01
26.44
30.14
33.76
36.91
39.24
40.55
40.84
40.22
38.78
36.6
33.71
30.24
26.46
22.76
19.61
17.29
15.81
14.87
14.02
12.86
11.29
9.56
8.15
7.53
7.98
9.43
11.58
14.02
16.29
18
18.8
18.39
16.57
13.36
8.97
3.87
-1.41
-6.38
-10.72
-14.34
-17.32
-19.85
-22.13
-24.36
-26.58
-28.67
-30.28
-30.93
-30.19
-27.95
-24.59
-20.92
-17.9
-16.23
-16.06
-16.81
-17.5
-17.08
-14.96
-11.2
-6.59
-2.31
0.39
0.66
-1.64
-5.91
-10.88
-15.03
-17.04
-16.19
-12.57
-6.87
-0.12
6.78
13.13
18.49
22.53
24.97
25.62
24.51
21.98
18.63
15.06
11.7
8.72
6.08
3.75
1.85
0.67
0.66
2.23
5.73
11.36
19.02
28.3
38.5
48.7
58.08
66.05
72.29
76.73
79.3
79.88
78.26
74.28
67.89
59.2
48.45
36.01
22.43
8.63
-4.1
-14.21
-20.35
-21.9
-19.35
-14.39
-9.39
-6.66
-7.66
-12.55
-20.25
-28.99
-37.09
-43.41
-47.67
-50.16
-51.46
-52.12
-52.43
-52.57
-52.53
-52.34
-52.01
-51.56
-51.01
-50.35
-49.48
-48.26
-46.51
-44.01
-40.67
-36.47
-31.5
-25.91
-19.89
-13.73
-7.79
-2.5
1.8
4.94
7.08
8.58
9.81
10.99
12.09
12.9
13.27
13.18
12.8
12.42
12.23
12.23
12.25
12.08
11.56
10.72
9.67
8.61
7.68
7
6.57
6.39
6.39
6.46
6.4
6.03
5.13
3.61
1.52
-0.9
-3.25
-5.03
-5.8
-5.23
-3.25
-0.07
3.94
8.29
12.51
16.18
18.92
20.36
20.21
18.37
15.12
11.09
7.18
4.26
2.85
2.91
3.91
5.04
5.64
5.37
4.39
3.13
2.06
1.46
1.27
1.16
0.66
-0.55
-2.61
-5.33
-8.41
-11.55
-14.57
-17.49
-20.45
-23.51
-26.65
-29.73
-32.58
-35.1
-37.33
-39.37
-41.3
-43.16
-44.88
-46.38
-47.67
-48.89
-50.31
-52.23
-54.8
-57.95
-61.3
-64.26
-66.17
-66.47
-64.89
-61.4
-56.1
-49.11
-40.4
-29.91
-17.59
-3.75
10.93
25.42
38.64
49.81
58.73
65.82
71.84
77.53
83.24
88.69
93.13
95.65
95.56
92.7
87.57
81.09
74.4
68.49
63.98
61.06
59.48
58.75
58.27
57.45
55.88
53.34
49.89
45.9
41.96
38.71
36.71
36.17
36.8
37.91
38.55
37.78
34.98
29.99
23.18
15.21
6.89
-1.12
-8.42
-14.89
-20.6
-25.71
-30.33
-34.47
-38.05
-40.96
-43.07
-44.31
-44.72
-44.47
-43.86
-43.22
-42.88
-43.03
-43.63
-44.39
-44.91
-44.79
-43.79
-41.94
-39.5
-36.91
-34.6
-32.87
-31.86
-31.52
-31.66
-32.01
-32.3
-32.28
-31.79
-30.77
-29.24
-27.34
-25.25
-23.17
-21.3
-19.82
-18.8
-18.17
-17.76
-17.28
-16.44
-15.03
-13
-10.49
-7.77
-5.15
-2.93
-1.31
-0.4
-0.22
-0.7
-1.74
-3.17
-4.8
-6.39
-7.73
-8.66
-9.08
-9.06
-8.73
-8.26
-7.85
-7.6
-7.54
-7.61
-7.74
-7.82
-7.77
-7.57
-7.26
-6.94
-6.8
-7.02
-7.68
-8.81
-10.35
-12.2
-14.2
-16.22
-18.03
-19.39
-20.03
-19.78
-18.62
-16.74
-14.44
-12.07
-9.85
-7.88
-6.1
-4.41
-2.75
-1.16
0.26
1.4
2.14
2.41
2.22
1.7
1.02
0.44
0.15
0.2
0.55
1.05
1.52
1.89
2.17
2.44
2.74
3.11
3.49
3.83
4.19
4.64
5.32
6.24
7.34
8.44
9.35
9.95
10.25
10.37
10.39
10.39
10.34
10.19
9.88
9.42
8.9
8.42
8.02
7.64
7.16
6.44
5.42
4.17
2.85
1.64
0.64
-0.2
-1.03
-2.08
-3.57
-5.52
-7.79
-10.03
-11.83
-12.83
-12.84
-11.87
-10.09
-7.73
-5.02
-2.12
0.78
3.53
5.95
7.95
9.51
10.73
11.79
12.81
13.87
14.93
15.92
16.74
17.36
17.73
17.86
17.75
17.43
16.94
16.32
15.65
14.99
14.44
14
13.66
13.29
12.78
12.07
11.22
10.37
9.7
9.3
9.12
8.97
8.6
7.88
6.81
5.54
4.26
3.09
2.06
1.1
0.12
-0.91
-1.95
-2.94
-3.8
-4.52
-5.2
-5.97
-6.95
-8.23
-9.77
-11.45
-13.17
-14.84
-16.52
-18.25
-20.02
-21.63
-22.75
-23
-22.15
-20.19
-17.39
-14.16
-10.93
-7.99
-5.48
-3.36
-1.52
0.16
1.78
3.38
4.95
6.43
7.74
8.81
9.59
10.13
10.48
10.78
11.16
11.7
12.46
13.39
14.37
15.3
16.12
16.84
17.5
18.09
18.56
18.8
18.77
18.45
17.9
17.23
16.5
15.71
14.81
13.78
12.63
11.42
10.25
9.23
8.39
7.73
7.22
6.77
6.29
5.64
4.75
3.57
2.11
0.44
-1.32
-3.06
-4.75
-6.38
-8.1
-10.07
-12.45
-15.21
-18.15
-20.93
-23.1
-24.32
-24.38
-23.28
-21.16
-18.24
-14.78
-11.05
-7.33
-3.85
-0.78
1.82
4
5.87
7.5
8.97
10.23
11.2
11.82
12.06
11.99
11.76
11.55
11.54
11.81
12.37
13.14
13.99
14.82
15.57
16.21
16.72
17.06
17.19
17.09
16.8
16.41
16
15.63
15.27
14.87
14.33
13.63
12.81
11.95
11.14
10.4
9.67
8.89
7.98
6.91
5.68
4.3
2.71
0.87
-1.25
-3.61
-6.07
-8.47
-10.67
-12.66
-14.53
-16.42
-18.42
-20.58
-22.78
-24.8
-26.34
-27.07
-26.72
-25.18
-22.51
-18.98
-14.98
-10.88
-6.99
-3.52
-0.53
1.99
4.15
6.09
7.92
9.69
11.35
12.73
13.7
14.18
14.24
14.1
14.01
14.17
14.63
15.33
16.13
16.95
17.78
18.63
19.56
20.54
21.46
22.14
22.45
22.31
21.76
20.85
19.68
18.28
16.69
14.96
13.21
11.58
10.24
9.19
8.31
7.35
6.07
4.39
2.45
0.6
-0.8
-1.54
-1.64
-1.47
-1.53
-2.29
-4.06
-6.8
-10.19
-13.68
-16.69
-18.7
-19.36
-18.55
-16.37
-13.02
-8.83
-4.15
0.69
5.42
9.96
14.37
18.87
23.71
29.07
34.86
40.75
46.15
50.43
53.1
53.97
53.19
51.31
49.11
47.44
46.97
47.96
50.14
52.76
54.89
55.74
54.85
52.18
47.9
42.33
35.8
28.8
22.03
16.32
12.42
10.61
10.58
11.48
12.35
12.43
11.42
9.37
6.47
2.93
-1.07
-5.24
-9.12
-12.26
-14.46
-15.96
-17.31
-19.15
-21.9
-25.59
-30.11
-35.43
-41.69
-49
-57.16
-65.33
-72.19
-76.41
-77.2
-74.73
-69.91
-63.98
-57.91
-52.12
-46.56
-41.13
-35.85
-31.07
-27.14
-24.19
-21.93
-19.79
-17.19
-13.93
-10.29
-6.89
-4.38
-3.09
-2.84
-3.02
-2.81
-1.59
0.85
4.23
7.93
11.33
14.02
16.03
17.76
19.79
22.63
26.5
31.22
36.25
40.84
44.28
46.08
46.17
44.95
43.21
41.85
41.56
42.59
44.54
46.59
47.76
47.26
44.71
40.14
33.93
26.68
18.98
11.44
4.55
-1.35
-6.18
-10.24
-14
-18.05
-22.69
-27.76
-32.68
-36.63
-38.96
-39.49
-38.62
-37.11
-35.77
-35.07
-35.12
-35.7
-36.52
-37.4
-38.32
-39.33
-40.4
-41.37
-42
-42.07
-41.46
-40.21
-38.5
-36.5
-34.35
-32.12
-29.81
-27.35
-24.75
-22.06
-19.42
-16.98
-14.87
-13.16
-11.78
-10.63
-9.57
-8.53
-7.49
-6.54
-5.82
-5.47
-5.55
-6.02
-6.72
-7.49
-8.21
-8.85
-9.49
-10.28
-11.34
-12.71
-14.36
-16.15
-17.88
-19.34
-20.31
-20.64
-20.31
-19.42
-18.13
-16.56
-14.74
-12.52
-9.62
-5.74
-0.79
4.97
10.89
16.03
19.51
20.88
20.43
19.26
18.95
21.09
26.67
35.69
47.08
59.06
69.65
77.28
81.21
81.68
79.7
76.74
74.13
72.67
72.38
72.61
72.29
70.35
66.11
59.38
50.57
40.47
30.03
20.16
11.55
4.54
-0.87
-4.86
-7.77
-9.85
-11.27
-12.17
-12.78
-13.52
-14.9
-17.35
-20.98
-25.48
-30.16
-34.29
-37.4
-39.44
-40.76
-41.79
-42.83
-43.88
-44.69
-44.94
-44.45
-43.23
-41.45
-39.39
-37.28
-35.22
-33.14
-30.91
-28.38
-25.5
-22.36
-19.15
-16.03
-13.01
-9.93
-6.56
-2.8
1.11
4.54
6.7
6.91
5
1.43
-2.89
-6.89
-9.73
-10.95
-10.52
-8.68
-5.73
-2
2.18
6.37
10.1
13.01
15.04
16.4
17.57
18.96
20.62
22.21
23.06
22.52
20.28
16.5
11.78
6.89
2.45
-1.32
-4.52
-7.46
-10.4
-13.37
-16.14
-18.29
-19.42
-19.19
-17.38
-13.84
-8.56
-1.86
5.49
12.31
17.37
19.85
19.79
18.1
16.18
15.28
16.01
18.21
21.2
24.25
26.83
28.68
29.63
29.34
27.43
23.59
17.89
10.84
3.29
-3.84
-9.8
-14.2
-17.04
-18.7
-19.75
-20.86
-22.56
-25.14
-28.56
-32.5
-36.55
-40.28
-43.42
-45.81
-47.38
-48.13
-48.13
-47.57
-46.84
-46.36
-46.39
-46.7
-46.54
-44.85
-40.67
-33.58
-23.92
-12.67
-1.13
9.52
18.48
25.45
30.52
34.04
36.44
38.08
39.12
39.53
39.16
37.95
36.02
33.77
31.63
29.81
28.12
25.98
22.7
17.77
11.16
3.38
-4.65
-11.82
-17.08
-19.76
-19.75
-17.71
-15.03
-13.51
-14.85
-20.04
-28.87
-39.91
-50.94
-59.63
-64.28
-64.15
-59.4
-50.72
-38.84
-24.39
-7.98
9.47
26.47
41.11
51.48
56.31
55.39
49.65
40.79
30.62
20.56
11.33
3.16
-3.83
-9.29
-12.54
-12.89
-10.2
-5.26
0.08
3.54
3.22
-1.62
-10.19
-20.56
-30.54
-38.54
-44.18
-48.13
-51.57
-55.43
-59.94
-64.68
-68.86
-71.83
-73.34
-73.41
-72.09
-69.23
-64.47
-57.52
-48.45
-37.97
-27.28
-17.72
-10.23
-5.11
-1.89
0.32
2.5
5.28
8.78
12.68
16.38
19.36
21.34
22.47
23.23
24.2
25.94
28.7
32.42
36.74
41.14
44.96
47.52
48.29
47.05
44.09
40.17
36.34
33.58
32.4
32.71
33.96
35.48
36.72
37.42
37.5
36.91
35.54
33.26
30.05
26.08
21.68
17.25
13.07
9.3
6
3.06
0.28
-2.62
-5.98
-9.99
-14.57
-19.28
-23.47
-26.48
-27.91
-27.76
-26.32
-24.04
-21.31
-18.38
-15.34
-12.26
-9.22
-6.33
-3.71
-1.43
0.48
2.04
3.19
3.91
4.17
4.02
3.59
3.09
2.7
2.57
2.78
3.27
3.94
4.65
5.26
5.73
6.06
6.31
6.58
6.92
7.31
7.72
8.12
8.47
8.87
9.4
10.16
11.2
12.49
14
15.73
17.71
20.01
22.73
25.96
29.74
34.08
38.87
43.81
48.4
51.9
53.56
52.89
49.81
44.82
38.77
32.55
26.8
21.71
17.11
12.74
8.41
4.14
0.12
-3.49
-6.58
-9.19
-11.36
-13.14
-14.44
-15.12
-14.93
-13.59
-10.83
-6.57
-1.01
5.3
11.59
17.09
21.28
24.01
25.49
26.16
26.51
26.98
27.93
29.57
31.96
34.89
37.89
40.37
41.82
42.01
40.99
38.91
35.79
31.41
25.36
17.36
7.5
-3.71
-15.3
-26.24
-35.57
-42.62
-47.01
-48.72
-48.07
-45.78
-42.78
-39.91
-37.46
-34.95
-31.38
-25.76
-17.83
-8.36
1.05
8.67
13.38
15.18
14.99
14.15
13.72
14.11
15.16
16.42
17.55
18.44
19.2
19.94
20.6
20.94
20.62
19.38
17.11
13.93
10.08
5.8
1.19
-3.79
-9.34
-15.63
-22.7
-30.4
-38.34
-45.88
-52.14
-56.15
-57.05
-54.53
-49.06
-41.97
-35.09
-30.01
-27.54
-27.35
-28.3
-29.07
-28.89
-27.86
-26.67
-26.13
-26.62
-27.93
-29.52
-30.93
-32.07
-33.25
-34.82
-36.85
-39.01
-40.6
-40.87
-39.38
-36.12
-31.58
-26.51
-21.7
-17.71
-14.8
-12.84
-11.47
-10.27
-8.99
-7.64
-6.47
-5.78
-5.7
-6.1
-6.58
-6.73
-6.26
-5.22
-3.85
-2.49
-1.3
-0.25
0.84
2.16
3.73
5.42
7.01
8.35
9.46
10.51
11.68
13.02
14.34
15.27
15.37
14.36
12.2
9.23
5.97
2.95
0.57
-1.09
-2.22
-3.15
-4.23
-5.63
-7.27
-8.84
-9.91
-10
-8.7
-5.86
-1.61
3.53
8.74
13.03
15.48
15.53
13.14
8.78
3.29
-2.34
-7.29
-10.98
-13.16
-13.79
-13.05
-11.21
-8.63
-5.7
-2.72
0.14
2.89
5.67
8.56
11.49
14.14
16
16.65
15.92
14.01
11.47
8.95
7.02
5.93
5.61
5.78
6.08
6.21
6.01
5.45
4.54
3.33
1.85
0.16
-1.66
-3.5
-5.29
-7.03
-8.83
-10.8
-13
-15.4
-17.81
-20.02
-21.86
-23.28
-24.39
-25.37
-26.44
-27.72
-29.31
-31.24
-33.5
-35.98
-38.44
-40.57
-42
-42.45
-41.77
-39.97
-37.21
-33.7
-29.66
-25.27
-20.71
-16.05
-11.34
-6.5
-1.41
4.11
10.12
16.57
23.24
29.75
35.66
40.63
44.46
47.13
48.77
49.59
49.8
49.69
49.66
50.17
51.63
54.19
57.52
60.94
63.66
65.22
65.9
66.7
68.96
73.74
81.15
90.2
99
105.4
107.72
105.2
98.14
87.65
75.19
62.13
49.44
37.56
26.27
14.93
2.68
-11.13
-26.47
-42.3
-56.62
-66.93
-71.18
-68.62
-60.35
-49.07
-38.27
-30.95
-28.71
-31.3
-37.05
-43.7
-49.3
-52.85
-54.35
-54.37
-53.66
-52.75
-51.87
-51.02
-50.15
-49.25
-48.3
-47.23
-45.84
-43.84
-41.01
-37.26
-32.81
-28.09
-23.69
-20.09
-17.62
-16.27
-15.72
-15.45
-14.95
-13.85
-12.13
-10
-7.88
-6.1
-4.85
-4.05
-3.47
-2.81
-1.92
-0.82
0.3
1.23
1.94
2.73
4.26
7.2
11.99
18.4
25.53
32.05
36.67
38.59
37.66
34.34
29.35
23.57
17.78
12.73
9.02
6.98
6.5
7.05
7.82
8.04
7.35
6.04
4.99
5.41
8.48
14.91
24.65
36.76
49.5
60.71
68.38
71.24
69.11
62.91
54.25
44.92
36.25
29.01
23.43
19.52
17.32
16.93
18.33
21.02
23.97
25.82
25.44
22.45
17.41
11.54
6.17
2.12
-0.59
-2.61
-4.79
-7.7
-11.37
-15.38
-19.29
-22.9
-26.46
-30.44
-35.22
-40.75
-46.46
-51.49
-55
-56.5
-56.03
-54.02
-51.05
-47.55
-43.68
-39.43
-34.74
-29.68
-24.45
-19.32
-14.5
-10.13
-6.3
-3.15
-0.89
0.26
0.24
-0.76
-2.29
-3.76
-4.72
-4.98
-4.64
-4.02
-3.34
-2.7
-2
-1.04
0.25
1.82
3.46
4.97
6.29
7.56
8.95
10.6
12.35
13.8
14.42
13.77
11.68
8.35
4.34
0.39
-2.75
-4.59
-4.95
-4.09
-2.65
-1.56
-1.76
-3.87
-7.88
-13.01
-17.91
-21.04
-21.33
-18.54
-13.38
-7.2
-1.45
2.81
5.2
5.93
5.57
4.71
3.82
3.21
3.07
3.57
4.75
6.49
8.43
10.07
10.96
10.9
10.05
8.88
7.9
7.5
7.75
8.49
9.48
10.53
11.57
12.62
13.65
14.61
15.37
15.77
15.66
14.88
13.31
10.93
7.88
4.41
0.88
-2.43
-5.41
-8.14
-10.74
-13.33
-15.93
-18.42
-20.73
-22.8
-24.65
-26.33
-27.83
-29.13
-30.19
-30.98
-31.45
-31.57
-31.2
-30.14
-28.1
-24.88
-20.41
-14.87
-8.67
-2.32
3.66
8.95
13.41
17.14
20.31
23.05
25.44
27.52
29.41
31.37
33.67
36.53
39.92
43.45
46.55
48.6
49.25
48.52
46.78
44.52
42.11
39.64
36.92
33.64
29.56
24.62
18.96
12.86
6.65
0.62
-4.97
-9.94
-14.11
-17.39
-19.83
-21.63
-23.12
-24.64
-26.4
-28.47
-30.68
-32.76
-34.41
-35.44
-35.86
-35.86
-35.76
-35.91
-36.56
-37.77
-39.37
-40.98
-42.09
-42.19
-40.92
-38.18
-34.1
-28.96
-23.02
-16.4
-9.09
-1.1
7.5
16.39
25.03
32.76
38.99
43.26
45.39
45.5
44.02
41.6
39.03
36.96
35.79
35.49
35.73
36.03
35.97
35.28
33.94
32.01
29.68
27.14
24.59
22.17
20
18.09
16.34
14.57
12.54
10.12
7.18
3.73
-0.22
-4.62
-9.32
-14.12
-18.77
-23.05
-26.8
-30
-32.68
-34.86
-36.53
-37.59
-37.93
-37.45
-36.09
-33.82
-30.58
-26.32
-20.98
-14.64
-7.61
-0.4
6.27
11.7
15.33
16.9
16.52
14.56
11.54
7.99
4.29
0.72
-2.58
-5.55
-8.2
-10.54
-12.53
-14.04
-14.87
-14.86
-14.02
-12.58
-10.96
-9.64
-8.96
-9.01
-9.68
-10.74
-12.04
-13.49
-15.02
-16.42
-17.4
-17.52
-16.47
-14.18
-10.92
-7.28
-3.94
-1.49
-0.13
0.38
0.65
1.39
3
5.39
7.97
9.99
10.86
10.61
9.84
9.63
11.02
14.67
20.57
28.06
35.98
42.93
47.62
49.24
47.78
44.14
39.96
37.1
36.9
39.65
44.42
49.51
53.19
54.39
52.98
49.57
45
39.82
34.25
28.42
22.69
17.85
15.01
15
17.9
22.74
27.72
30.82
30.65
26.98
20.79
13.76
7.56
3.16
0.61
-0.81
-2.06
-3.94
-6.8
-10.66
-15.31
-20.46
-25.8
-30.89
-35.24
-38.38
-40.09
-40.56
-40.4
-40.49
-41.75
-44.86
-50.12
-57.35
-65.88
-74.59
-82
-86.59
-87.21
-83.48
-76.07
-66.48
-56.61
-48.04
-41.52
-36.85
-33.21
-29.65
-25.57
-20.88
-15.84
-10.81
-6.08
-1.86
1.48
3.43
3.42
1.02
-3.66
-9.95
-16.78
-22.99
-27.72
-30.57
-31.54
-30.77
-28.32
-24.06
-17.78
-9.45
0.59
11.59
22.51
32.32
40.22
45.68
48.48
48.54
45.98
41.22
35.06
28.65
23.19
19.53
17.83
17.52
17.62
17.23
15.98
14.11
12.39
11.69
12.67
15.6
20.29
26.17
32.37
37.9
41.75
43.12
41.68
37.66
31.86
25.43
19.46
14.63
10.97
7.93
4.7
0.61
-4.53
-10.44
-16.47
-21.97
-26.58
-30.19
-32.94
-34.94
-36.2
-36.67
-36.35
-35.47
-34.4
-33.59
-33.23
-33.18
-32.92
-31.81
-29.32
-25.18
-19.44
-12.36
-4.31
4.2
12.59
20.18
26.44
31.13
34.48
37.04
39.29
41.23
42.26
41.29
37.35
30.13
20.24
9.08
-1.67
-10.72
-17.46
-21.97
-24.61
-25.49
-24.34
-20.72
-14.61
-6.79
1.14
7.44
10.97
11.87
11.37
11.1
12.14
14.42
16.98
18.7
19.19
19.08
19.62
21.77
25.46
29.44
31.87
31.25
27.14
20.35
12.52
5.31
-0.18
-3.74
-5.76
-6.84
-7.36
-7.42
-6.9
-5.74
-4.03
-2.01
0.04
1.97
3.63
4.92
5.61
5.37
3.86
0.87
-3.56
-9.14
-15.41
-21.87
-28.11
-33.9
-39.16
-43.91
-48.09
-51.52
-53.87
-54.8
-54.1
-51.9
-48.64
-45.03
-41.72
-39.15
-37.42
-36.29
-35.42
-34.46
-33.23
-31.66
-29.66
-27.14
-23.91
-19.9
-15.24
-10.26
-5.44
-1.18
2.41
5.59
8.81
12.54
16.97
21.84
26.5
30.11
31.97
31.81
29.91
27.01
24.04
21.7
20.2
19.17
17.89
15.68
12.31
8.15
4.01
0.81
-0.89
-1.24
-1.08
-1.64
-3.97
-8.51
-14.79
-21.67
-27.57
-30.97
-30.6
-25.72
-16.36
-3.45
11.1
24.81
35.38
41.65
44.21
45.17
47.16
51.93
59.37
67.53
73.59
75.35
72.29
65.68
57.66
50.08
43.55
37.6
31.45
25.02
19.34
16.11
16.79
21.57
29.07
36.68
41.55
41.59
36.02
25.52
11.9
-2.59
-15.84
-26.55
-34.61
-41.06
-47.5
-55.23
-64.57
-74.76
-84.56
-93
-99.9
-105.69
-110.62
-114.13
-114.82
-111.25
-103.01
-91.38
-78.96
-68.44
-61.26
-56.9
-53.25
-47.85
-39.21
-27.45
-14.22
-1.67
8.4
15.35
19.71
22.75
25.75
29.37
33.39
36.93
38.95
38.87
36.84
33.71
30.63
28.66
28.45
30.21
33.85
39.1
45.45
52.23
58.55
63.46
66.25
66.68
65.01
61.9
58.15
54.34
50.75
47.36
43.91
40.12
35.82
31.05
