1.4946
0.56503
-12.365
-31.114
-8.5084
28.074
11.623
-5.3663
5.5171
0.70797
-8.0217
-1.416
-1.925
-4.3475
4.4575
-3.8297
-2.7062
2.1983
-5.1358
1.2855
-1.0719
-3.4825
-4.9337
-0.90826
-6.1407
16.85
3.1299
-2.1628
9.5833
13.329
33.58
17.763
-26.051
-25.895
-3.1632
1.8192
18.915
21.517
-31.273
7.4332
52.727
39.605
-1.8972
-40.518
-98.934
-68.458
13.461
100.03
57.468
-84.751
-56.807
-18.542
20.05
12.982
-11.604
-4.2867
23.484
-8.8005
-69.454
-7.8545
43.83
50.529
125.75
-23.649
-158.08
26.27
90.617
-1.1499
-94.347
-57.757
13.642
8.6049
13.456
98.434
67.153
-10.484
-9.7677
-24.895
-11.919
-51.327
-108.88
7.8668
91.008
144.1
40.602
-81.835
-96.812
-96.646
-38.765
61.472
175.52
-7.2688
-35.748
45.883
-7.4139
-63.008
-39.48
72.178
32.096
-40.391
-30.367
-11.335
-12.371
-8.0684
-44.573
-18.52
0.82558
53.869
75.483
-21.039
-59.388
16.03
-1.2963
-26.881
27.367
38.006
-33.508
-8.136
-34.744
-5.0118
64.749
30.434
41.306
75.373
-7.4165
-81.45
-52.977
-46.924
-57.935
-39.46
51
47.627
22.883
7.0216
-0.85879
-35.856
8.3605
33.519
21.415
34.141
7.6106
-28.929
3.1454
-10.586
-12.496
18.983
-15.71
-9.8724
29.245
-6.3207
-8.6433
47.395
31.286
-56.468
-20.836
11.299
-23.013
-16.169
15.884
-9.1289
-29.88
23.769
18.858
-21.562
-17.721
-3.005
-32.713
42.966
65.655
34.404
72.353
54.452
-60.847
-165.42
-28.619
-2.3011
-36.358
11.679
10.71
2.6365
38.142
22.649
-20.074
55.437
13.276
-86.704
23.895
4.2008
-48.187
-5.4729
44.267
40.39
-38.66
13.447
-8.2931
3.9583
35.002
-0.74454
-20.63
14.669
3.3976
-26.119
17.506
9.2631
-17.413
20.361
8.5213
-23.319
11.405
22.7
-13.218
1.6812
23.776
-5.2949
-27.994
-3.4217
-8.1936
-12.138
26.019
-7.0935
-20.873
32.055
2.1925
-40.976
5.8835
-14.981
14.811
28.283
-17.11
20.016
24.405
-30.583
-10.058
17.173
-20.613
-3.9261
3.0367
-37.897
15.686
45.347
10.411
40.313
39.393
-50.563
-55.961
2.3244
-20.473
10.888
-37.392
8.4132
30.773
-18.291
12.959
1.1528
-45.403
16.919
26.825
-30.814
11.468
15.07
-13.529
19.635
43.702
-16.432
-52.173
0.32618
10.47
27.886
20.111
-60.759
-5.0715
12.071
-14.534
34.608
-13.713
-8.0376
31.015
-6.2171
-25.226
1.1922
32.451
57.085
19.941
-99.24
-12.422
2.7346
-3.6521
25.637
-8.0134
-0.88063
23.325
-5.0379
3.0945
-1.374
-25.791
17.248
-11.676
-11.581
31.637
-9.4359
-10.185
32.909
-11.096
-22.045
15.377
-45.608
-35.737
71.278
72.896
-62.619
-20.169
-27.434
34.769
73.317
-10.91
5.174
-3.9165
-30.188
-18.489
1.4717
46.873
9.6837
-73.961
-5.8356
33.284
-8.0485
-31.139
23.256
-5.2687
-23.051
0.13412
-17.23
12.044
-8.4705
1.5368
14.122
-18.369
24.515
7.484
-20.797
19.485
20.226
-16.897
-13.246
29.583
6.7381
-17.935
10.503
8.3541
-16.27
12.564
4.0421
-18.672
26.368
42.772
-0.16793
6.794
-15.11
-25.386
-17.826
16.662
73.217
-64.016
-57.478
35.72
-34.942
-43.71
11.33
-43.721
12.462
65.345
-1.9574
-20.123
10.582
-22.682
2.9224
32.866
34.044
43.396
-24.306
-41.295
-33.752
-46.461
22.068
36.645
11.66
-53.927
-13.349
30.444
23.855
15.756
15.223
81.04
-53.564
-55.288
19.731
24.516
-33.329
-0.83161
-10.789
0.0078038
33.686
9.2699
30.523
-31.868
8.7231
9.1341
-2.4823
-40.246
11.603
15.308
8.1269
2.7168
21.745
-15.419
-29.201
-24.635
35.156
-18.512
-63.297
12.255
56.291
-26.728
0.81715
26.228
-20.86
-12.628
8.3476
-34.05
17.485
60.009
-41.722
28.604
14.342
-15.821
12.34
-48.736
-33.638
83.273
-4.9248
-73.103
10.944
0.86957
-0.69627
9.9421
1.9518
-12.472
29.917
5.9346
-2.6613
25.94
-9.6376
-6.7088
27.679
-5.3995
-1.4578
44.685
-17.363
-4.3664
20.829
-7.0736
9.0177
62.568
-31.909
-83.135
-23.614
-41.027
-43.804
6.9204
-18.742
8.8473
46.965
10.139
51.692
91.474
-76.094
-38.219
-55.441
-20.759
53.438
83.62
-26.29
-26.805
-5.2031
9.684
75.085
38.466
-28.684
-73.889
-8.8452
5.9947
-70.674
-54.683
0.077051
43.09
65.587
21.635
-42.523
-9.4048
19.057
2.5342
18.277
45.386
-5.5091
-28.489
2.477
-33.933
45.963
-18.532
-8.8184
51.133
-2.4293
-24.388
9.5053
23.403
42.793
38.222
-114.46
-147.18
42.489
44.002
66.258
6.9599
-67.716
7.8103
-42.136
8.8884
18.975
-13.697
19.378
12.47
-23.617
-13.912
-33.735
-3.481
70.346
26.054
-19.716
33.8
-34.456
-25.661
60.273
92.25
-25.969
-50.56
-15.945
-9.5127
37.241
-34.232
-42.426
56.391
-19.137
-1.9234
34.415
-23.873
-57.673
5.7668
14.955
6.783
42.863
51.28
87.224
26.331
-88.048
-192.39
-52.078
17.188
7.1621
47.867
36.321
-2.2394
-4.6329
22.832
12.272
37.412
-0.94687
-77.086
-20.374
6.4593
48.193
79.959
2.1184
-26.366
44.374
-89.814
-21.429
32.274
-27.719
21.001
-3.1386
-22.183
26.697
-8.5279
-12.764
29.813
-13.056
-5.2979
21.299
-20.568
4.7517
10.561
-18.209
20.481
18.448
-26.309
-6.4179
27.974
-14.471
-18.438
20.273
1.1773
-9.11
59.098
25.673
-43.149
-9.0018
-53.916
-78.985
7.6757
103.75
5.9787
23.095
-38.001
-53.561
8.453
16.07
-38.593
61.608
134.3
-38.586
-127.34
-46.314
-6.6111
-9.6375
-56.026
15.443
59.886
39.988
147.48
-31.069
-124.55
10.589
-15.425
14.115
52.783
-20.434
106.71
-0.76668
-86.782
25.971
32.944
1.5358
-69.414
-19.803
-33.163
8.4991
9.713
-63.518
52.745
66.109
-35.992
-17.215
8.6695
-21.673
22.633
22.163
0.95068
58.435
-20.295
-61.174
6.8204
-55.015
-5.8101
55.152
-4.1424
-4.2876
25.397
6.5591
5.7221
53.24
-5.2933
-13.716
-18.945
-76.798
-31.469
24.339
2.808
36.28
19.573
-36.65
19.033
-3.6728
11.946
32.931
-40.775
-4.1062
3.2586
-15.734
-3.0407
30.853
-4.9224
-34.653
6.4616
25.55
-14.905
19.284
-7.637
-1.5272
25.157
-1.2793
2.89
130.24
93.04
-107.44
-140.33
-52.941
-3.287
39.104
2.3643
32.995
79
-62.077
-29.32
-21.931
-10.148
39.189
-37.629
-79.737
35.151
27.785
11.492
86.214
-49.986
-56.692
45.332
-14.101
-13.04
17.286
-72.16
4.0509
65.733
21.946
39.849
-7.2912
-34.273
32.766
-1.8402
-20.279
-8.3396
6.8859
18.597
85.24
30.428
-81.452
-20.09
-84.67
-18.614
60.208
2.8909
-45.476
8.8425
9.9962
27.386
29.478
-12.895
-3.8253
17.384
-67.335
-16.66
28.151
8.323
18.745
-60.275
62.862
127.36
15.37
-100.26
-82.562
-37.668
-2.5972
31.42
-25.345
36.015
34.572
-42.842
-47.486
78.665
38.411
-63.004
12.794
25.186
1.3633
17.383
0.037314
4.4246
-2.2189
-25.26
-3.1072
13.286
-15.565
6.1342
114.74
-32.859
-63.093
65.662
68.87
-45.815
-10.911
9.5871
25.076
-141.64
-122.04
31.552
-28.578
-17.332
128.83
-121.08
-33.705
98.766
24.602
98.719
121.12
-142.05
-128.27
1.4482
-6.3023
53.147
46.827
-9.0539
19.333
15.583
-13.277
16.767
19.685
-14.669
-5.3522
15.675
-13.408
-6.1576
9.4986
-11.51
4.283
5.201
-12.973
11.417
-1.9585
-11.569
13.911
-5.4349
-7.2092
15.401
-7.5035
-10.417
9.6966
-7.6616
-7.8175
11.732
-8.1847
0.22157
10.541
-13.617
6.2038
3.6184
-12.033
11.2
-4.9238
-37.874
18.475
29.737
-5.0894
10.804
-6.662
-4.2746
1.464
-15.967
10.646
5.4833
-11.783
15.052
-5.1796
-26.394
-0.2057
19.293
-0.097348
-10.627
15.952
17.723
91.608
65.511
-40.003
-74.688
-19.024
-10.781
-54.12
-25.53
5.0813
50.106
-14.253
-11.222
38.019
-42.537
-14.258
-16.985
-11.404
-3.2935
-14.058
-20.021
14.939
-25.639
15.322
16.57
23.386
99.461
-28.434
-34.604
14.593
-8.9685
-3.5991
-50.415
-47.407
56.306
-31.293
-56.137
41.472
4.5293
40.059
62.313
-14.783
17.375
33.829
-48.651
-47.433
38.44
24.878
-7.0731
13.515
20.88
-11.124
36.741
54.833
4.7064
-18.381
-44.976
-33.434
31.473
51.343
-4.3567
-31.147
-50.724
-34.355
15.835
7.7462
-6.4064
-23.389
-50.051
39.614
39.453
-59.137
-47.941
-17.601
-15.206
41.586
29.131
11.614
19.815
5.4115
19.69
41.717
-11.61
42.769
18.126
-87.17
-35.044
-33.207
-12.658
41.659
3.2676
41.996
30.507
-18.818
9.075
-11.31
-26.731
-1.3927
1.6502
39.862
31.004
-62.935
19.911
0.35009
-54.144
62.574
-12.092
-59.883
15.778
-7.3183
-13.357
113.02
20.305
-35.324
-20.775
-10.171
7.5564
-9.2855
-38.45
-68.162
20.287
10.502
-1.5179
39.65
12.382
-10.727
37.205
28.125
37.746
-11.873
-96.908
-88.683
64.668
14.454
63.294
30.691
-87.311
-47.496
25.277
-2.9292
5.6273
37.707
-5.3588
10.862
27.839
42.972
46.58
-1.5265
-103.27
50.682
94.426
-15.193
-92.8
-95.751
-64.254
18.422
13.201
-18.889
43.177
3.9389
10.472
11.352
20.433
-39.63
-24.019
-24.03
19.764
106.22
-27.683
-0.0016467
0.8714
-53.014
47.736
57.535
-74.909
36.425
73.112
-21.629
-0.84148
-29.076
-19.523
-13.419
26.163
42.66
-65.417
-3.5603
18.527
-1.1895
-48.483
-4.8557
10.301
-22.242
21.504
20.114
12.25
101.61
42.257
-98.982
-106.55
-73.757
3.5028
104.08
24.948
-4.6402
15.779
-64.846
-19.227
2.9852
-3.9199
32.366
14.449
-0.6815
32.535
-7.0409
2.3122
21.282
-20.75
10.224
11.561
-17.215
15.955
-1.4682
-8.5586
12.042
-14.688
4.1962
-0.29994
-19.797
13.473
-11.648
-7.7195
8.1367
-17.059
14.914
5.3992
-12.512
12.191
-14.583
2.9986
10.503
-11.383
20.079
-7.227
-9.3162
26.156
5.7108
44.861
75.355
-7.4428
6.3874
-70.248
-134.77
-10.448
-2.4326
-37.049
24.132
12.952
8.6168
35.383
-7.3294
13.389
25.448
-19.502
8.6859
16.916
-21.456
7.0994
31.687
-7.5884
28.245
2.433
-63.83
54.855
67.107
9.3459
-53.859
-65.129
-48.45
-27.012
-21.937
46.189
89.866
-32.117
-42.015
0.48413
-18.49
9.2267
2.9791
13.826
81.572
59.412
-107.6
-45.872
-27.746
-27.22
100.24
19.28
-23.26
11.117
-24.894
-44.433
27.245
21.202
-7.51
32.486
-9.9615
23.818
52.417
-22.233
-56.975
-19.448
17.454
-30.72
51.01
-20.473
8.3967
-11.259
-10.299
12.775
-48.97
-47.845
41.356
50.313
43.485
-27.856
-75.776
2.0731
6.0955
0.98604
39.946
4.0223
2.1232
27.427
-1.4813
14.538
19.481
-32.145
26.958
14.189
-44.935
8.6442
17.223
-11.678
8.6182
-0.14914
-9.1651
-3.2805
0.43654
16.335
-11.677
-34.495
1.2861
107.7
91.37
-115.66
-35.087
-56.189
5.0659
-0.079426
-29.97
1.7559
13.265
27.306
3.4957
-5.3355
-3.7524
-54.295
-73.562
-14.22
-15.577
46.013
61.313
3.6358
38.558
33.75
74.462
42.532
-90.525
-24.27
-42.346
-37.9
15.078
-1.1433
-12.897
33.28
23.199
15.524
56.595
-25.355
-44.451
-32.537
-37.413
22.341
18.504
-7.8582
23.771
-0.44091
-3.8844
23.734
2.4061
14.21
32.458
-1.6825
6.4518
-23.831
-57.425
-40.131
-45.245
41.182
14.436
15.6
44.541
10.288
-14.832
24.178
-11.55
-17.902
21.835
-11.337
5.2819
27.118
-8.1057
6.8143
-25.099
-31.505
1.1447
-14.707
-19.082
1.2894
-7.0856
14.14
0.069599
33.177
51.857
-32.841
4.4653
2.1329
-29.049
-25.668
-22.546
-20.689
33.779
12.246
12.047
42.193
-5.6546
19.648
-9.1007
-67.585
45.384
-23.978
-25.403
24.683
14.904
-16.855
13.647
13.687
-10.655
15.673
14.77
-26.568
53.893
45.606
-41.889
7.6519
-41.479
-70.608
0.95104
58.648
-91.722
4.3494
91.014
18.104
-26.63
-73.221
-31.38
34.061
13.302
-1.3545
33.124
-3.4251
5.6994
37.39
21.233
134.14
3.8183
-144.16
-34.851
-22.769
-77.194
-46.548
-9.9928
35.609
85.041
11.766
11.335
1.0798
-16.668
20.478
0.33257
-4.5826
16.122
-69.996
-0.35684
64.369
-55.904
-1.0751
53.942
-1.2222
10.113
116.82
-34.14
-61.801
-25.66
-22.192
14.475
83.44
-53.195
-18.363
-8.6137
-53.148
28.112
15.753
0.92022
40.856
-12.036
65.815
5.9079
-82.489
-52.044
-29.486
1.3784
41.178
5.5244
35.219
20.973
-31.037
11.387
9.1658
-38.475
24.747
1.7733
-39.82
39.192
59.581
-23.823
-16.116
-17.327
-1.764
48.779
-39.879
-31.177
36.79
-17.155
-33.569
13.018
8.7387
39.193
32.522
-25.222
-69.098
-129.1
-55.655
94.761
76.374
-4.9802
37.623
-17.62
0.8314
28.82
4.684
21.436
-12.094
-43.783
26.128
10.663
10.429
20.212
-41.944
25.36
-1.4292
-72.847
-25.567
8.8931
-25.514
51.713
70.276
19.097
29.462
-36.907
-42.189
34.044
3.7343
-77.454
-8.8399
-3.6693
1.7046
44.904
30.8
-5.4093
20.146
-17.071
5.8179
46.41
25.519
6.2036
-36.196
-63.286
-36.394
3.954
-14.862
-6.6276
-37.919
-23.643
41.917
-13.865
113.77
77.218
-90.905
-27.826
-56.941
20.874
42.275
-6.871
-39.969
12.093
5.9284
16.158
32.296
1.6543
55.681
89.515
-114.38
-28.204
-16.479
-22.872
79.22
-32.228
3.8697
29.408
-102.22
-29.639
44.788
2.4959
1.831
-9.102
-33.687
-13.031
17.806
-0.57372
35.144
14.72
8.0636
67.559
59.767
-33.265
-29.24
-14.609
-18.709
-61.236
-8.4495
38.73
9.0928
8.6619
2.7413
-12.999
-65.279
21.114
-25.77
-4.3841
39.959
-4.122
17.572
39.659
-34.833
46.038
-4.1607
-74.603
39.437
-3.7883
-0.46213
25.012
-39.512
-35.805
88.822
-42.932
-64.095
30.159
-13.503
40.33
30.844
56.925
12.942
-80.608
28.961
56.811
-38.484
-55.122
-16.209
-79.354
5.699
35.698
8.0725
58.748
72.529
3.9176
-43.179
-81.895
-20.424
30.595
-13.175
23.629
12.526
-24.365
0.60926
4.5365
-28.469
13.149
27.428
-2.9674
20.214
5.7689
-2.7102
13.166
-12.829
13.943
10.723
-15.955
14.824
-2.2571
-19.948
19.836
3.2627
-5.1258
14.339
-9.3942
-16.259
2.9746
0.34224
-11.05
5.4367
2.9047
-13.12
-0.18265
6.5413
-8.2315
-5.4964
5.7177
-8.4225
-0.50171
0.7986
-8.1497
8.8245
-8.5767
-1.2381
12.308
2.2016
31.408
20.33
-19.418
-20.922
-10.732
8.1244
4.1962
-2.2222
-1.5191
-13.377
5.8837
-10.892
3.4926
2.162
-2.5987
13.839
-22.083
2.901
4.8989
-4.587
16.36
-8.9588
0.71369
10.165
-11.668
13.556
0.88514
-4.5249
15.422
-5.9304
-13.865
13.649
3.9223
-14.988
6.9773
8.7605
-16.872
-6.4025
11.777
-5.0344
-2.7664
9.7784
-4.6704
2.3196
7.4947
-15.379
-0.56838
18.5
-3.0453
-3.7901
-0.36475
-17.894
2.3229
3.3668
-6.8119
12.726
-6.4958
2.3006
10.277
-9.4544
10.369
1.4496
-8.4827
10.217
-0.45136
1.7753
-1.8421
-14.296
-2.5163
5.079
-4.6402
2.0931
-2.5629
-0.42626
1.4507
-7.6637
4.4487
-2.4551
-1.7287
11.021
-3.9403
10.703
4.1238
-11.878
11.753
7.1168
-2.9548
1.1062
-6.7577
-11.634
-6.2118
3.7102
11.198
-3.1454
2.6639
-2.2235
-3.7997
8.7759
-7.19
-4.6858
8.0692
-3.4732
-8.8901
7.263
-0.094136
-4.9609
7.9178
-1.0343
-10.171
12.052
6.7719
21.816
12.242
-65.496
25.709
32.726
22.098
80.908
27.981
-22.066
12.469
-53.169
-133.34
-66.639
11.139
0.85868
7.9891
5.2008
-5.4087
14.142
-6.3166
6.185
20.682
-6.6611
16.285
0.57084
-8.894
13.207
-22.145
1.4717
18.034
-1.8465
18.642
-0.29806
-6.7571
62.838
109.25
-32.892
9.4271
-58.586
30.449
13.489
4.8604
-27.512
60.647
-49.956
-182.77
-130.17
59.056
108.65
0.92324
-7.1234
-27.571
87.799
32.642
-249.76
-31.738
50.035
170.35
63.492
62.003
-138.64
-147.1
32.278
32.782
-52.456
125.64
240.85
-25.92
-214.18
-38.989
10.205
-189.93
-66.904
84.988
204.38
90.557
-145.88
-106.39
-80.274
87.124
126.72
11.754
50.907
7.1845
45.853
129.27
25.336
-125.43
-45.65
3.6673
25.333
3.8235
-10.771
184.14
100.16
-309.28
-161.46
44.577
79.516
42.493
29.722
125.41
-26.465
-329.65
-27.891
108.25
93.412
-27.534
-62.175
32.071
2.0282
26.574
9.8449
-13.775
14.08
-9.7026
-5.8764
10.268
-16.35
32.459
8.5613
-14.011
12.32
-1.5202
31.655
66.905
71.331
-110.1
-139.41
21.53
-6.5185
2.231
79.571
-37.257
4.4107
48.449
-6.515
2.8127
116.41
36.647
-32.489
-81.46
-234.49
-63.464
208.98
181.82
-156.38
-42.502
105.9
-45.226
-110.69
35.86
-45.906
-38.098
50.038
-57.176
-50.386
37.693
-45.927
-8.4712
106.91
31.356
6.212
51.651
-11.49
15.047
42.117
-48.879
11.831
-2.3436
-52.653
51.966
-13.973
12.303
60.64
-39.635
16.624
36.355
-47.285
12.079
62.474
-21.973
176.07
47.322
-306.33
-79.932
48.324
-89.124
-8.6447
11.079
62.596
10.434
-134.38
37.278
303.89
222.34
-81.942
-111.22
-56.749
3.8861
26.295
-159.27
-143.25
41.638
-17.223
31.652
151.14
3.3464
-78.332
47.553
-93.059
22.251
22.621
-107
-7.6954
104.89
48.988
-93.376
-33.498
58.35
-63.074
-12.122
22.668
73.816
-24.233
-34.78
92.423
-15.047
-148.23
39.585
-8.0507
-1.0047
108.1
-4.1336
58.885
325.31
-46.571
-248.76
-17.965
15.141
-97.788
12.413
65.991
-25.207
-8.0679
93.88
5.1618
-300.97
-71.707
-105.89
-88.097
91.44
203.97
237.16
179.48
-90.328
11.552
33.888
-126.69
52.554
28.312
-120.99
29.269
-146.78
-19.679
122.8
-12.926
-98.893
-158.25
13.872
222.85
33.243
-2.3283
-29.961
-20.07
44.561
-46.733
-84.631
56.905
-7.4397
-35.986
54.314
-6.227
9.2239
113.05
194.08
-9.0433
-117.32
-22.772
1.5752
-70.659
-103.02
-10.437
-15.051
68.802
63.09
161.92
-79.954
-199.56
85.95
95.893
-53.261
-31.354
-51.018
-59.919
43.857
-19.11
-9.672
30.699
-48.245
23.102
-12.81
-12.449
45.813
-41.412
44.518
1.0142
-11.264
62.788
18.717
41.599
-21.676
-34.207
-24.653
-58.154
0.38984
2.8504
-41.058
80.899
4.1202
-18.906
60.308
-31.739
-19.033
53.724
-29.07
-23.745
48.37
-28.001
-5.8802
25.751
-43.373
18.534
3.4147
-45.702
46.164
-14.819
-19.598
42.408
-33.324
10.933
26.702
-37.996
32.68
-17.89
-15.113
26.582
-45.582
40.04
-10.895
-20.562
58.194
-39.049
-0.87095
59.903
-26.876
-38.166
55.189
3.9431
-46.255
31.07
5.3732
-32.44
28.445
-31.134
-14.75
33.986
-44.188
23.583
27.367
-44.022
33.286
19.078
-45.15
26.256
30.021
-47.935
6.7991
33.545
-36.663
9.7132
8.148
-37.649
24.741
-22.421
-8.4927
35.776
-42.327
20.669
23.93
-45.883
31.527
27.725
-44.11
12.901
29.629
-34.519
15.293
15.98
-51.625
-3.4802
19.418
-20.041
-4.1189
78.292
-21.042
126.78
117.51
-189.24
-91.38
-6.5701
-12.455
-1.3997
49.525
-32.932
1.1154
4.8962
-56.868
46.356
33.277
-27.187
28.355
9.5891
39.273
14.281
-42.465
-25.87
-22.068
-102.34
8.1323
92.931
1.4158
-22.227
-36.013
-35.181
117.64
29.321
-95.888
35.991
8.7562
-15.14
37.677
-35.276
-8.6471
-2.8463
-50.595
111.67
116.48
25.14
-80.093
-141.84
104.72
-20.191
-59.235
-24.888
97.245
76.342
-47.111
-80.913
-30.448
170.75
26.748
-300.6
133.64
59.406
-58.277
63.183
-58.465
-26.346
-5.4527
-36.069
43.553
18.344
-8.8951
93.339
-54.126
-26.257
-3.6491
-100.69
69.876
-17.377
1.2551
181.95
-60.311
14.871
-11.633
-148.56
30.903
45.708
-36.016
8.0644
-105.37
-7.6084
211.11
44.891
52.697
-69.001
-40.8
-57.9
-213.88
-45.792
85.008
24.206
48.119
100.9
9.9087
89.649
171.57
-156.97
65.978
-14.064
-159.94
-8.0674
-32.843
-61.215
-9.5914
191.92
29.432
-18.71
-7.1554
-56.584
-17.073
10.65
-70.168
34.519
-11.107
-12.532
51.075
-32.208
-9.102
22.813
-33.656
20.805
23.747
-77.992
3.6629
27.819
-71.553
12.54
-31.243
-23.577
128.67
3.2843
128.45
145.35
-179.36
-6.645
61.691
-116.92
40.638
66.763
-110.55
-20.007
11.272
-25.352
46.169
-30.132
-66.633
99.055
90.126
-43.456
82.936
-82.46
-122.57
26.628
10.623
-45.912
50.97
-8.4773
-29.87
45.071
-37.948
10.328
55.826
-51.681
6.3988
57.804
-38.586
-9.0469
51.601
-36.245
-17.218
55.187
-20.801
0.073757
25.084
-25.675
47.843
14.13
-80.428
19.18
-7.9171
-38.057
44.934
-11.11
-29.899
44.557
-17.934
-11.413
31.18
-38.914
12.268
43.544
22.246
199.21
71.597
-312.02
-257.51
1.4416
133.04
205.07
-10.694
-48.224
-5.0858
-69.072
-62.474
31.357
-43.533
-113.85
126.5
79.318
2.298
-38.76
-101.53
7.6704
82.865
-11.546
47.067
50.819
-16.937
51.731
-27.302
-19.585
71.428
-30.407
-3.5415
47.383
-30.124
22.45
51.989
95.216
67.795
-67.914
-107.3
13.942
21.877
-100.24
-54.372
-90.779
-108.54
68.63
116.77
-90.924
-97.279
-39.186
35.754
81.349
-24.645
59.453
-2.9689
-12.391
71.312
67.59
63.024
-82.49
-66.231
204.38
53.198
-232.06
-5.5877
15.954
-66.581
130.73
-107.9
-19.707
115.21
-50.016
-16.431
64.745
-82.324
-79.038
96.446
93.368
1.5991
31.641
-69.211
-68.061
27.263
-59.187
22.063
30.237
-60.576
52.128
2.7984
-36.435
73.576
-22.703
59.164
164.67
-147.04
-142.02
-29.725
48.392
126.4
37.239
-95.958
18.624
-129.88
-75.59
36.489
-37.822
84.449
59.268
-49.456
58.443
11.007
-21.355
20.962
-54.575
77.525
308.04
-45.324
-151.21
16.457
-107.77
-29.937
52.849
-26.577
-26.844
-9.5302
-152.86
-7.0137
48.33
-12.016
74.545
41.416
-14.565
44.977
-15.461
-11.007
46.271
-28.896
-4.3637
36.426
-28.784
17.939
14.417
-34.296
47.034
-12.985
-24.74
5.989
-64.871
34.367
28.31
76.545
49.763
-24.15
-52.32
-64.915
7.8145
47.893
89.322
56.611
-111.61
-70.352
1.8247
-61.463
-3.9784
107.65
117.35
-21.727
-181.28
-154.75
-23.854
-23.723
-66.17
28.874
46.35
-2.7637
99.741
83.659
114.67
16.429
-140.76
66.878
79.44
-9.897
-75.898
-22.227
-48.855
79.737
45.34
-121.01
26.258
-76.575
-42.157
91.785
66.985
31.499
40.495
-79.245
5.3407
-43.03
-51.718
31.861
-4.0023
-65.627
35.182
11.061
10.672
118.8
22.285
-26.736
41.088
-53.747
-37.222
8.7277
-74.748
15.878
42.617
-41.029
41.641
43.298
-39.49
22.641
30.84
-39.762
17.877
15.238
-43.102
12.342
-4.6778
-32.406
31.385
-23.914
-14.437
40.232
-44.254
0.83448
42.651
-50.32
-3.6813
59.155
-23.351
-40.625
50.179
18.345
-45.361
5.7785
28.239
-47.241
13.764
44.527
-38.669
19.112
31.268
-72.418
51.425
79.093
-80.029
87.133
-74.173
-8.9652
58.543
-123.47
-33.377
-29.019
74.174
85.83
-63.493
18.441
63.021
-92.31
-33.723
-1.6635
-28.724
83.353
-14.669
-13.287
17.203
-55.191
32.765
-15.137
-0.51198
166.41
12.291
-172.97
-30.361
-41.504
54.544
56.754
-6.0942
47.126
19.058
-41.886
153.11
-49.704
-264.77
31.968
59.037
163.42
138.5
-19.593
21.284
-32.814
-109.51
-14.066
-175.64
-131.88
-61.189
1.2397
176.57
166.54
169.78
65.14
26.522
-65.531
-346.56
-158.22
-105.42
-38.276
-24.134
-76.288
77.223
91.716
-22.424
140.18
30.369
60.189
139.55
197.96
128.07
-196.07
123.59
100.6
-441.74
-135.98
105.21
47.436
143.98
64.189
2.8501
-39.505
38.642
85.333
-118.92
53.3
85.388
-35.33
31.794
-103.26
-49.109
36.555
-162.04
-52.291
22.109
-45.383
35.082
-67.586
76.428
32.376
-102.68
24.435
-36.487
22.147
18.951
-44.453
38.11
-46.483
-124.15
-8.968
-50.863
57.404
7.001
-0.71044
38.428
-114.63
9.7636
-7.6835
76.648
157.19
-43.955
104.61
100.68
50.271
47.338
1.3897
-15.368
-10.599
22.496
61.342
90.374
79.904
-143.86
-220.67
9.3581
27.186
-35.734
9.3307
-42.53
26.838
2.9966
-13.724
33.834
-23.922
-13.638
19.987
-23.548
114.22
172.29
-80.256
-75.28
-16.441
-62.315
29.925
-6.1288
10.577
34.451
-106.03
-46.571
182.54
43.249
-58.516
-197.92
-210.06
-29.049
219.25
180.37
-186.79
9.1309
130.29
7.5422
-37.394
-85.704
-67.91
35.543
-72.459
-64.04
-29.049
-110.73
-152.47
179.83
192.56
137.27
120.51
-71.022
-198.96
-37.29
191.17
119.87
8.1508
-95.225
89.73
238.25
-9.7837
-124.72
-22.037
-15.92
-117.49
29.496
30.554
-165.55
-216.29
66.728
194.64
47.572
-60.731
-177.23
9.3639
85.624
15.497
118.44
21.081
-121.04
17.669
-45.397
-176.19
98.57
96.838
-9.1744
38.15
145.22
108.85
-91.707
-162.67
-23.705
-29.889
-50.515
122.82
81.568
-5.1807
-2.5567
-128.35
52.208
51.772
-15.245
121.5
24.037
37.597
-44.836
-164.32
33.414
-25.364
-80.255
189.94
251.49
-165.95
-80.19
-132.85
-108.69
48.091
-47.549
-35.847
95.28
2.3306
-36.245
82.389
46.214
23.694
83.883
-98.711
-94.486
-30.233
-79.374
32.908
63.238
-13.548
106.43
-18.607
-149.11
166.54
79.628
10.561
43.767
-98.917
-47.001
45.371
-112.06
-24.617
6.1965
46.094
213.35
-57.55
-93.68
-49.798
-84.668
132.52
6.9454
-195.98
209.55
147.76
7.0556
1.2797
-264.12
-90.94
66.849
-16.084
-53.572
150.81
9.2425
-37.991
26.044
26.814
25.857
24.544
-121.74
63.964
93.816
-128.98
-104.5
36.784
26.654
79.389
149.17
-157.35
-236.24
-27.839
22.987
85.803
110.27
-128.89
-49.409
107.35
38.265
108.71
-40.205
-0.5617
66.337
3.7166
128.1
-24.019
-207.98
-26.447
17.367
12.327
80.735
-19.435
-8.3391
59.604
-24.339
-0.83662
56.144
-29.414
-20.333
34.904
-8.8751
32.558
28.646
-25.487
-17.543
43.065
-102.54
-130.9
40.937
19.202
46.486
75.647
-59.827
-72.189
4.4997
-59.878
-19.244
38.632
-54.078
21.92
57.083
-24.031
32.696
1.5907
-18.639
8.7965
-95.613
56.579
109.42
45.895
71.068
-85.758
-41.896
-4.1267
-27.517
20.576
-17.73
27.092
80.16
-73.957
-16.683
60.372
-58.508
21.174
-63.119
118.26
58.945
-231.53
-11.798
-30.354
17.258
71.339
-13.576
29.166
0.19845
-13.883
31.601
-38.349
24.719
-4.1329
-10.839
29.287
148.03
179.47
-31.172
-115.83
-31.275
32.377
-137.2
-50.84
-12.404
8.2575
88.732
31.179
12.685
39.832
140.47
58.923
-179.86
-378.95
-62.103
-75.824
-95.337
164.31
104.06
36.096
14.307
-186.59
15.7
71.785
55.298
72.051
-59.294
-10.518
94.852
-21.927
17.271
65.034
-9.2856
115.8
174.9
27.504
-228.78
-125.96
-34.776
64.183
-2.9572
-0.44792
68.324
-19.288
59.031
129.64
-42.054
-15.007
97.002
-88.25
-15.825
49.139
-167.44
-120.53
82.732
-197.4
-96.01
144.89
60.473
69.187
56.65
-75.588
12.895
50.441
-83.12
-22.148
-78.197
0.23878
148.97
56.54
69.396
-4.3196
-109.41
-37.817
68.54
25.784
-25.724
-49.03
120.74
84.674
-199.13
-1.5984
154.15
-9.5104
-82.655
-81.305
-55.916
78.808
-47.019
-80.131
16.057
142.09
-21.536
-99.542
82.727
9.64
19.865
135.59
-53.594
-63.841
99.575
-28.756
-71.137
37.127
-61.197
-99.225
47.104
10.584
13.782
132.03
109.71
-52.024
-125.25
-168.21
-75.342
72.613
90.98
133.47
122.05
-93.918
-114.69
-25.111
-99.785
-30.27
74.15
-49.214
31.502
84.268
-11.426
44.112
-72.73
-47.549
127.35
-54.387
-131.61
72.061
209.63
49.474
65.285
117.87
-190.89
-258.77
-39.831
-2.8113
47.751
49.467
-49.45
26.776
44.501
-36.395
46.292
-0.56954
-22.53
59.481
-76.511
-83.347
42.063
44.031
135.83
-73.136
25.34
122.63
-86.161
25.709
51.829
-263.93
-135.88
50.828
25.077
73.023
87.76
-63.165
-30.127
-29.684
7.9453
121.3
42.424
51.425
31.847
-64.977
-48.57
-44.855
56.184
36.037
-76.932
-2.6082
110.44
56.034
-42.736
55.886
6.3697
-199.7
-6.4858
114.03
-90.251
-29.68
7.3546
108.42
116.27
-78.17
-105.87
-63.354
52.488
15.863
71.241
-157
-39.289
118.57
12.164
-55.755
-2.5413
-52.655
80.62
131.72
-0.73757
-78.869
35.728
-40.788
-102.15
35.286
-26.738
-3.8174
96.881
18.711
-96.646
43.631
121.26
-36.164
-109.13
-88.322
13.432
237.76
-65.087
-183.52
72.685
43.296
-136.91
4.1196
27.792
24.893
39.957
-40.26
44.937
61.218
-31.865
38.587
17.232
-13.889
28.586
-35.676
0.37869
4.6028
-56.753
40.812
-14.183
-34.882
74.487
-64.748
-86.391
102.29
16.102
-143.25
30.603
196.7
67.238
-72.247
-128.69
5.8628
32.787
-14.063
29.628
31.844
22.675
-52.933
-110.03
52.159
38.975
4.7373
82.332
22.107
-101.35
-26.818
150.81
-30.542
-111.56
-36.156
-10.47
35.43
28.213
-33.839
29.681
30.041
-37.572
21.281
40.931
-23.256
-18.695
40.481
-74.9
6.3342
58.301
32.287
-14.411
19.17
-70.112
-42.218
161.61
181.83
22.566
-241.9
-331.7
51.378
109.25
-192.09
-72.284
139.9
68.794
110.55
43.996
-61.044
-79.796
-103.03
-10.325
130.9
58.554
7.9022
75.6
2.7835
-16.32
64.583
-27.661
-49.369
35.204
-26.831
-3.3864
39.003
-18.344
-0.27136
150.56
150.81
-15.168
-199.38
-227.25
34.901
62.944
-10.283
-15.658
134.66
-15.157
-267.35
-72.504
3.4413
118.15
26.971
0.61321
5.6214
-10.66
35.241
3.8247
24.294
26.112
-34.95
11.195
10.58
29.416
97.171
92.777
33.018
81.254
-7.5183
-73.134
-18.792
40.069
-165.01
-147.34
21.367
-12.209
-33.388
-17.46
26.018
-20.135
42.038
50.931
10.348
105.63
248.36
-255.06
-300.84
-27.747
55.796
29.185
10.607
58.119
73.207
294.76
78.293
-431.89
-230.77
-10.583
97.423
61.169
4.0204
99.884
32.505
149.08
333.49
57.082
-204.37
-278.49
-149.04
73.03
-39.26
-180.6
-5.5818
79.721
221.67
-172.58
-156.8
76.165
49.221
134.57
187.25
-180.48
-64.99
83.59
6.655
-15.538
57.075
51.613
4.3872
-49.031
-69.712
-48.805
42.789
182.47
66.65
-127.27
-117.32
-60.127
5.5295
59.963
15.088
-0.22749
-25.056
80.783
26.078
-163.11
-108.76
-83.299
61.177
75.615
-12.885
53.722
31.063
3.1943
143.55
101.53
-85.301
-74.645
-34.766
-42.875
18.234
6.5173
10.526
46.816
-109.16
-121.97
91.833
119.42
345.97
-73.133
-230.35
144.72
-179.05
-242.06
11.449
56.955
-2.666
74.982
5.9289
-17.063
86.164
34.742
16.885
28.566
-55.229
6.2419
-24.119
-29.756
37.614
-44.815
19.479
44.491
-43.102
25.057
42.457
-38.918
17.296
113.27
86.802
-54.551
-92.484
-165.64
-10.42
73.682
0.5079
19.263
-60.843
-74.498
133.81
22.724
-48.84
22.995
-90.88
-60.066
55.434
69.762
67.399
129.74
-15.176
-54.271
-140.44
-63.769
61.763
-22.838
37.046
22.742
-56.326
44.775
3.4416
-80.359
57.624
274.77
13.195
-208.26
104.15
-7.4968
-190.51
-53.96
-293.5
202.26
245.73
-118.59
-29.823
-24.275
-155.69
79.51
190.17
-24.794
57.891
117.59
-123.61
-116.66
51.734
86.862
181.54
-53.673
-71.374
9.9908
-37.557
24.023
-133.99
-72.882
61.475
-44.022
122.28
-21.666
0.54472
-6.0216
-7.5319
-7.6999
-37.4
38.182
5.4082
-75.118
101.14
46.295
-133.29
-48.592
16.027
93.095
-38.339
129.15
76.491
-149.17
-8.2241
-16.369
-11.828
60.01
-21.264
2.1833
45.11
-30.53
28.061
25.85
-61.768
56.049
11.881
-128.37
41.041
60.52
26.091
-15.201
139.93
-98.961
-137.98
-43.231
17.121
2.897
-39.387
-59.607
-64.76
44.505
7.01
-14.198
206.33
-138.59
-135.78
100.74
-3.2143
35.756
89.829
-0.50223
13.341
53.722
-27.395
100.68
48.217
-34.106
90.343
-54.674
-58.678
-6.7965
-168.74
-87.134
46.454
40.319
-0.7452
48.831
-19.716
7.7649
23.294
-37.06
32.635
3.9901
-22.376
57.526
20.79
-46.242
129.03
-36.296
-130.87
-31.312
-23.392
192.6
-88.672
-147.98
30.037
32.212
83.379
78.932
-27.231
-159.2
-15.873
86.48
70.736
197.94
-50.327
-68.395
-35.387
-45.434
70.171
-178.51
-181.44
55.048
72.609
4.0244
78.14
21.119
-85.138
-2.6881
107.69
197.51
25.758
-211.51
-42.023
75.385
-12.069
15.641
-22.728
-159.86
-4.9538
51.633
24.579
69.238
-29.65
-48.799
49.999
-0.24154
-23.643
38.93
-5.0974
-31.655
53.774
16.089
-12.482
31.44
-40.623
13.057
40.069
-36.072
49.335
58.005
-21.355
15.3
6.8831
-79.798
-83.699
-10.501
-71.018
-32.208
-6.2499
184.24
-47.442
-147.14
20.402
-159.62
50.496
-14.99
-12.197
89.202
36.22
80.75
68.378
-7.1096
32.378
-13.774
-20.647
28.192
-1.7515
90.239
32.324
-35.309
-20.317
-44.485
-44.641
36.436
98.942
5.7249
-25.097
1.3438
-29.599
-26.211
-13.833
-49.232
-3.5442
17.568
-18.719
4.4908
0.87714
-8.9373
20.379
-5.3081
6.9815
28.995
-13.594
-5.6484
-13.652
-39.086
5.5411
-12.209
2.4409
3.2744
-28.262
5.1365
-5.0299
22.218
15.387
-19.376
39.664
20.809
-20.169
27.448
32.737
-8.9712
-34.698
19.86
24.123
-6.9389
-4.0764
40.857
-14.337
-35.815
33.061
4.4399
-5.9309
-25.243
-15.983
18.328
-3.4502
-35.339
-2.8006
11.635
2.4027
-27.138
3.7172
21.358
-3.4507
-28.166
-7.8284
8.021
-9.5023
2.9016
27.901
-3.8514
-6.4762
17.717
-15.531
-20.602
19.318
-16.48
9.0153
40.829
-13.137
-40.938
-27.397
18.961
49.335
-28.474
40.211
35.297
-11.982
-8.4736
17.067
148.68
-31.031
-116.86
-146.06
-120.02
464.29
136.32
-48.508
-188.09
-266.07
-746.45
236.67
359.02
-18.489
-8.2691
139.22
220.99
-42.176
38.339
-40.309
-49.3
18.361
-66.032
65.328
2.6602
-22.601
67.863
-31.974
10.711
51.128
-41.79
24.594
53.881
-46.429
-37.989
51.78
-14.196
-28.222
30.068
-19.624
-25.988
16.301
-41.264
-7.0203
23.476
-58.532
2.9556
41.977
-18.307
-42.953
65.201
101.76
-9.3689
76.136
9.0517
67.302
11.109
-64.618
71.715
-0.96051
-284.64
-119.14
-58.544
-51.861
49.771
-50.956
43.015
47.985
-61.425
73.102
51.624
-23.011
62.175
68.79
7.9376
2.0333
-63.663
-53.513
121.1
55.095
-37.495
6.8356
15.924
55.62
168.36
157.04
-171.32
-249.3
-147.03
-39.893
23.153
4.1913
85.604
30.849
-56.255
-19.41
46.312
27.979
34.857
62.944
-41.691
-46.276
10.777
-40.371
-13.088
-5.7781
-15.437
22.814
-16.361
-24.326
28.328
12.917
3.5645
63.749
-10.841
-30.276
29.377
2.1309
-7.3814
48.386
3.9614
-34.658
11.091
-32.603
-69.684
-34.058
-17.694
37.345
45.25
-12.529
27.829
34.674
-15.292
26.49
1.4227
4.2777
11.936
-41.031
13.748
16.03
-6.7169
17.533
-9.6817
-7.1932
36.864
103.84
54.776
-18.051
-2.2083
50.144
-36.44
-53.796
-32.175
-34.294
-25.348
-24.758
1.8729
-79.092
-107.05
12.598
6.3381
58.416
19.651
65.062
95.178
-127
-87.137
-48.254
-14.101
63.099
34.749
66.738
-14.356
-107.57
4.648
111.81
13.287
83.059
47.612
-146.39
15.472
-55.616
-38.736
-64.751
-167.73
68.488
126.01
28.509
30.745
54.847
-23.158
-0.064149
-2.013
-24.697
60.476
12.131
0.52644
154.41
135
-201.93
-171.74
73.842
86.179
101.84
-102.27
-213.43
31.449
54.577
-6.0682
-5.4989
7.6884
5.2719
-15.93
76.37
166.45
56.288
-231.29
-64.18
43.208
46.82
18.959
-50.173
-78.045
34.652
27.841
-57.961
2.7375
67.326
210.59
77.026
-251.78
-181.98
-100.42
58.827
156.8
-95.514
151.82
292.54
93.986
-181.81
-806.16
72.167
203.05
108.38
294.73
54.076
-129.48
-78.477
-158.48
58.53
276.96
21.544
-185.86
-50.179
20.659
24.341
-14.029
32.093
-5.8911
68.973
169.6
193.36
-117.54
-91.603
-25.134
-115.78
-150.58
3.1951
72.81
6.789
4.7665
55.475
-7.0701
18.555
-96.694
-93.494
134.65
165.05
88.312
2.7828
-153.59
-218.81
-104.34
-122.69
-36.719
155.38
-3.3358
4.4309
7.8274
-76.3
98.92
87.692
1.2473
-50.934
-48.744
41.495
47.103
280.93
188.79
-90.584
-246.22
-215.86
-12.637
42.169
5.5504
51.763
91.346
22.683
78.885
217.04
223.9
54.736
-340.29
-34.903
87.561
-73.527
-114.64
-75.531
43.835
111.81
-79.979
-152.19
-98.274
6.7909
-33.528
-28.11
-0.11174
-49.81
14.386
-12.931
-8.775
40.345
-32.855
28.571
-18.727
-11.798
-2.518
-79.73
-31.805
177.85
103.34
7.807
13.522
18.56
94.963
294.23
54.931
-192.77
-186.72
1.2591
49.894
-62.956
16.841
95.828
28.776
12.911
66.92
59.838
-12.038
-3.5068
-24.188
-116.63
-38.703
-43.221
-60.113
7.547
-13.049
-22.234
13.07
-39.696
-20.283
33.522
-20.84
1.8493
38.165
-32.55
8.6948
45.664
-34.907
4.8947
16.119
-54.711
12.079
9.2977
-47.569
-44.019
-2.5234
3.374
48.432
2.6849
-24.64
19.676
83.142
1.8548
6.4379
168.58
70.089
-46.966
-26.651
-17.195
-25.428
-49.031
-31.075
-8.6522
3.071
-17.805
-0.77023
4.0946
-1.6003
4.019
1.4307
-5.3405
-2.8823
1.3114
-2.4244
-4.0186
-7.6508
7.6631
11.63
10.161
13.872
38.102
-11.02
-31.565
-12.905
-27.353
-3.7971
-19.907
2.0583
-24.633
-2.4641
-14.383
12.789
62.864
-11.249
5.0587
-2.4625
-23.599
27.65
18.015
-25.186
3.3783
27.081
-12.573
-15.72
16.77
-4.4627
-16.066
17.718
19.62
-2.8726
-7.9515
10.207
5.2538
-15.652
-10.049
10.853
3.409
-15.649
-9.0409
9.8825
-6.8237
-9.8103
7.383
2.3415
-12.706
-1.2155
3.6863
16.472
37.765
-12.603
-28.441
13.117
-6.3036
-25.691
-12.03
-5.2773
11.763
29.71
-33.927
57.481
73.426
-48.956
-57.736
-67.643
-13.808
45.619
20.613
12.885
10.493
-9.3395
-27.463
-16.159
-2.96
6.4897
4.6899
21.196
-5.1928
-20.301
7.5282
12.845
-15.32
10.085
-1.2
-11.144
22.882
7.1851
7.1803
15.367
-6.7847
-0.86773
9.1597
-7.0991
-1.2685
18.742
5.5038
-7.3858
1.9449
-6.0415
-7.0628
6.338
-0.56934
-5.5105
6.6606
1.1396
3.6071
-0.36565
-54.319
-26.439
73.018
20.998
-38.976
75.269
93.731
149.81
163.91
43.624
-23.53
-71.258
-97.738
-206
-143.55
-45.211
-121.73
23.985
78.372
-32.441
-141.35
-71.792
54.982
-105.95
29.711
124.7
50.617
30.143
48.65
-101.4
-54.695
79.042
12.057
-31.221
96.261
57.991
-37.762
39.304
-41.074
7.3967
56.566
-72.001
22.444
30.524
-51.887
66.07
29.071
-48.514
39.17
20.335
-14.168
77.254
28.829
5.3612
-89.948
-158
-3.3276
121.89
129.39
-129.97
42.295
136.76
-100.55
-105.27
-119.21
50.945
104.42
-22.307
82.5
7.3467
-52.712
54.85
-38.394
-51.282
32.95
-43.659
-34.713
29.887
-50.825
36.058
6.6663
-56.86
78.627
-10.931
-76.424
74.883
62.496
-70.934
-6.243
75.721
-26.602
-42.252
63.964
-10.855
-26.422
59.412
-44.437
-23.255
71.837
-32.748
-46.805
71.159
-16.367
-59.746
60.775
7.3091
-46.037
45.91
-12.78
-50.458
8.9749
-46.191
6.3283
64.878
-49.975
10.13
73.349
-42.143
-24.509
65.974
-23.755
-33.179
56.552
-18.72
-14.399
44.99
-51.784
1.4072
46.296
-56.491
-8.8446
52.839
-54.263
-30.621
73.518
16.862
-58.815
55.639
46.24
-1.9624
17.008
-54.008
-59.802
44.201
-28.717
-77.079
36.863
-62.543
57.21
61.584
-47.693
98.043
-14.315
-107.73
91.625
50.563
-41.517
-98.515
-122.44
62.969
-20.725
185.7
156.18
-172.24
-27.756
-75.458
9.1447
21
-28.026
48.45
-10.363
-2.0809
39.253
-49.796
62.445
5.2865
-36.199
71.025
-13.571
-36.824
56.339
-0.564
-52.645
38.913
-6.7208
-32.353
39.213
-38.683
-4.838
47.969
-52.411
9.1388
38.512
-50.196
5.8293
57.421
-57.982
-58.823
47.76
-27.746
21.752
7.9787
-53.715
31.532
-94.945
26.942
143.27
-42.107
82.655
-26.85
-200.86
-26.009
6.7772
4.735
121.21
14.811
8.6179
-28.62
-82.453
60.809
19.945
12.655
73.43
10.286
29.119
37.625
-58.37
8.9675
-46.004
-48.965
-5.3568
-63.991
-29.137
142.17
61.947
-27.68
46.034
-41.342
-76.798
-89.092
33.955
204.76
-73.364
-66.562
17.377
-79.027
32.05
-23.34
-23.066
-9.6551
-47.275
97.668
-5.0065
-10.794
21.546
-33.737
95.57
2.4899
-60.409
9.3301
-64.433
-42.804
-71.798
-53.39
212.9
96.191
8.7608
129.7
11.59
-54.966
-79.946
-134.23
4.0406
51.569
-65.961
20.99
50.358
-36.954
34.478
51.419
-25.96
47.247
11.96
-45.768
23.219
-76.981
-4.4268
31.671
-53.514
57.78
-4.6547
-26.758
67.668
-32.83
-21.927
51.694
-51.163
-11.767
34.701
-58.431
50.967
39.21
-127.95
18.681
-57.315
-129.8
69.639
-39.645
-13.738
85.93
171.66
304.17
-198.35
-174.8
7.703
3.1016
-23.411
118.47
126.58
22.047
-120.2
-66.283
-131.24
30.798
24.089
-42.827
-25.815
91.747
189.08
-1.5164
-100.01
-15.53
-30.95
-42.822
19.62
3.7602
-26.805
99.26
-19.682
-65.476
-27.972
-10.08
-71.787
-27.849
77.147
50.857
-52.884
-77.785
-40.138
85.417
102.04
-28.217
165.06
93.546
-286.64
-101.16
90.427
3.7899
26.738
148.82
168.82
30.211
-12.995
-199.02
-175.31
122.98
-55.711
-72.831
26.559
-27.846
39.001
-0.44524
-112.15
-34.7
111.33
12.66
19.884
42.765
64.497
74.643
-46.19
-117.28
6.3913
18.102
24.579
46.497
-27.544
-152.07
2.4993
44.7
14.446
68.77
8.9668
-7.8192
50.343
-29.103
-15.672
33.893
-37.341
-28.026
46.942
-10.31
63.763
27.471
-18.73
-100.66
7.2593
-85.461
-112.45
43.659
14.296
84.237
104.21
-0.86043
34.567
31.544
-65.418
-7.7705
17.127
-68.609
-5.5392
41.769
-47.162
-5.5309
21.498
-43.579
24.159
65.971
-64.717
-99.317
9.6405
-58.44
46.297
111.9
-28.558
7.8614
48.905
38.546
83.258
-10.848
28.82
-108.88
31.092
-94.919
-7.6977
82.316
-88.25
-1.6624
-94.928
-111.03
79.033
78.027
-5.0887
82.689
56.74
71.009
37.277
-78.071
-15.749
45.782
-66.197
-27.228
81.202
-3.3869
-70.052
18.225
-64.615
-4.7558
43.245
-1.6434
77.21
53.738
-82.509
-37.048
16.901
-64.996
43.208
-45.301
-92.009
17.022
32.9
29.039
45.9
-36.31
-32.646
21.518
-9.301
-48.991
37.055
-89.989
133.86
26.311
-67.295
56.577
53.864
-84.829
96.174
-41.694
-74.349
117.51
-17.14
-110.85
38.65
-21.458
15.242
57.308
-62.813
-15.714
22.416
-26.287
87.009
2.2956
-135.05
45.944
78.797
23.102
49.513
-35.516
-161.45
-4.7127
39.65
-22.02
65.998
10.619
-17.118
57.351
-31.91
0.43502
55.226
-40.989
5.818
37.721
-43.224
31.569
0.77695
-62.782
57.048
-15.612
12.625
-60.527
-11.025
-48.918
39.617
17.817
112.2
132.8
-101.91
-35.731
67.194
-23.126
-14.251
-67.407
-66.998
2.5701
-16.334
-18.998
-59.661
-46.191
84.579
29.906
-37.117
-66.237
-64.362
54.033
122.88
59.027
25.554
-178.56
-145.91
42.549
78.489
20.938
93.007
15.706
-128.79
45.642
131.74
89.764
47.595
-38.826
-21.201
-4.3684
-26.784
-23.74
-7.8504
-4.4867
-12.98
17.468
3.3802
-16.051
-14.711
16.846
2.3942
-9.9923
9.5636
6.7853
-8.1881
7.4745
2.3824
-5.4237
5.1263
-1.1296
0.24277
1.9816
-5.2175
-0.3238
5.7092
1.2766
11.613
47.417
96.755
71.933
-23.787
67.614
12.329
-46.57
-37.043
-224.2
-229.15
-47.876
-15.377
135.39
81.484
-15.772
-2.824
-181.13
26.004
167.92
15.114
80.741
31.912
-88.908
41.407
-86.374
-38.042
49.249
19.649
-27.051
34.06
82.542
77.525
-93.107
-89.629
64.232
-5.5084
-98.028
-102.78
177.39
111.02
-37.543
44.846
156.28
-111.15
-125.43
-94.55
-45.056
14.851
61.658
-1.2248
-63.93
152.92
139
-185.64
-71.144
8.9078
-62.498
-34.305
137.91
48.888
-83.114
-30.857
14.082
122.59
97.956
-94.421
-82.436
88.818
138.08
-273.97
-137.82
135.93
96.213
64.043
78.75
-64.698
-46.71
-76.255
10.197
-39.977
142.51
-52.55
-112.3
72.524
-17.963
-6.0392
142.46
36.723
-68.925
87.538
-27.172
-189.67
-78.932
35.447
81.442
61.144
150.1
-207.66
-274.04
132.51
80.85
29.499
119.03
31.582
-69.764
-1.9212
-50.039
-89.386
32.907
99.298
-36.077
34.66
-21.422
-66.445
1.773
-87.306
12.269
119.71
34.89
47.05
51.112
65.259
31.83
-85.906
-204.5
-43.422
24.172
-87.701
-23.298
110.97
104.48
84.634
116.47
-126.64
-192.54
47.263
39.567
-81.526
-19.384
184.67
120.11
-52.906
-117.79
-6.0566
81.675
-141.44
-15.398
12.449
-16.737
22.319
42.966
-25.218
17.245
28.554
-47.061
26.45
-8.9037
-33.482
21.689
-1.7112
16.56
48.919
-2.3028
-32.567
26.933
-28.703
-69.726
63.93
19.889
-3.7224
38.341
94.254
-17.75
-61.869
-126.6
22.093
36.774
-22.499
45.075
84.331
-41.535
-26.954
-38.323
-79.691
39.704
3.9747
5.4832
121.01
5.5974
-60.988
-127.89
-41.187
103.14
76.999
25.327
66.944
-156.61
-120.38
39.539
47.106
28.274
64.334
99.965
-178.38
60.95
-29.964
-59.063
-10.989
-41.177
56.894
73.082
-42.546
153.21
95.683
-158.54
-65.16
-83.514
-24.629
72.508
-12.74
44.648
178.27
21.751
-90.916
0.4497
-2.6277
-38.855
-128.74
-95.43
52.137
12.589
-62.609
40.903
49.407
29.143
86.266
80.615
58.471
117.55
-144.3
-145.54
-162.65
73.773
203.64
-73.012
-98.759
-31.929
-45.905
65.278
-74.954
4.6001
53.624
0.014433
46.255
153.4
92.18
-51.115
-78.068
-55.069
-49.25
-35.561
22.413
-4.6955
57.075
37.522
-12.858
40.651
-7.9346
-28.734
42.537
23.855
-99.481
-50.625
58.887
24.209
-77.749
44.409
-13.065
42.698
22.549
-12.38
-5.5167
-37.753
-94.507
-7.4092
42.754
-48.084
43.024
-75.57
26.93
55.807
-98.363
139.56
140.2
-146.62
-129.1
10.032
58.278
85.947
-1.5599
47.779
75.645
-11.02
-4.3675
-92.589
-133.03
29.417
44.387
-34.9
44.3
35.525
-8.6345
81.606
134.59
75.857
-0.26705
-118.4
-202
5.2465
13.834
-153.46
-32.922
72.148
81.429
-64.256
-24.858
-32.664
49.522
178.35
28.084
22.053
-29.828
-150.88
-32.245
-20.083
6.3209
88.801
26.6
-73.252
29.759
9.4609
16.826
70.921
72.361
24.009
-17.132
19.275
-26.95
-11.562
-12.69
49.21
9.8251
-154.61
-78.782
-45.249
-31.312
16.655
-6.2712
-33.373
112.46
26.854
-1.0437
148.78
-66.184
-71.703
114.97
-102.22
-23.132
6.3908
-31.762
-128.11
-30.635
108.33
165.38
79.966
-69.549
-75.039
-125.79
-41.068
138.14
-6.4206
17.776
12.022
17.461
59.202
-59.365
1.0698
-15.679
-4.886
32.042
41.779
-52.796
29.529
1.8645
-16.236
-4.6597
-43.606
66.512
84.144
23.532
-19.754
-113.87
-122.07
24.042
20.452
4.6327
53.639
-27.116
12.131
30.691
-26.24
28.287
14.096
-10.78
53.658
30.074
193.7
141.05
-116.73
-159.7
-228.38
-71.686
31.399
-83.307
-63.968
24.378
0.055085
74.32
71.926
9.4444
34.815
14.844
-19.101
122.46
84.486
-38.789
-43.248
-43.328
31.31
26.18
-104.1
-7.6662
66.784
-47.239
17.694
-49.756
-45.195
-10.696
-45.223
45.656
133.01
0.11866
-26.382
-42.767
-68.195
32.338
53.116
-40.141
22.346
46.937
-8.9386
22.672
116.7
45.753
24.196
-119.37
-113.44
76.004
18.406
9.675
2.0871
10.111
-81.785
-34.331
14.449
-95.118
5.583
5.0471
-62.959
28.586
-0.39302
118.79
201.84
-79.11
-31.793
-19.133
-27.331
-26.173
-143.76
-72.938
-60.967
-3.5035
115.56
25.223
91.222
-11.582
13.085
44.029
9.8304
70.7
-28.58
25.521
-23.285
-43.457
2.3966
-55.148
42.155
-29.216
11.165
23.626
-36.693
62.769
-28.567
-11.961
31.409
-55.22
35.602
-44.393
-4.977
13.908
-35.028
40.449
-41.726
16.83
2.2641
-29.414
41.102
-40.59
21.986
-0.081937
-22.205
30.993
-57.004
30.147
-27.276
-78.584
57.288
-87.832
32.465
202.5
3.0059
-21.288
63.265
71.973
100.24
-49.864
-169.67
85.117
-7.4338
-312.34
157.82
34.116
-74.369
56.977
5.5851
-13.913
16.924
4.9417
-68.661
124.55
52.608
-144.4
5.8172
119.89
-15.491
-62.032
37.272
77.934
-0.42062
-81.794
-153.84
16.584
147.11
-16.367
-73.583
23.676
-50.577
6.166
8.6046
-43.864
47.424
67.718
-23.881
88.301
100.85
-83.387
55.303
34.939
-103.1
-96.863
-121.18
-27.216
99.74
81.547
23.181
-24.8
-99.903
16.6
94.113
-33.181
-2.4257
-72.467
-184.98
61.35
251.08
0.49873
75.541
65.154
-204.5
-87.722
-0.36815
10.534
118.58
-34.076
-95.801
128.99
137.2
-65.89
-43.125
-57.437
-55.83
47.33
0.24207
-4.2179
59.093
-35.265
-22.207
67.981
-34.324
0.25455
44.632
-67.143
-105.93
-16.057
91.48
67.498
-92.307
-91.131
-31.363
114.38
-6.457
34.939
50.141
-17.987
31.247
-8.0498
-31.164
39.583
-55.969
-10.173
53.265
-101.25
44.729
39.063
34.49
30.834
-7.1214
-4.9085
24.961
-25.421
2.2597
21.802
-12.51
-4.6098
72.264
4.0174
-22.768
-76.188
-35.95
-54.891
-10.719
133.82
-123.74
16.599
11.693
142.56
52.141
-54.581
-152.85
-62.498
36.524
-8.4324
-93.478
129.12
-28.737
-21.126
82.649
-5.4299
76.958
-95.205
-30.112
7.2122
-55.818
57.434
50.302
-86.895
32.644
54.725
-30.338
77.505
73.178
121.4
-125.27
-191.06
89.158
96.869
-115.9
-48.122
86.419
12.197
-96.17
-23.931
66.145
9.7147
-37.372
11.259
15.015
46.374
33.55
58.579
-78.966
-30.114
18.312
0.72868
49.242
-16.879
-135.81
22.577
0.38104
-4.8794
110.8
27.4
-35.826
33.291
-142.5
2.7598
53.66
-93.067
56.547
39.842
-43.564
-29.259
-32.108
-22.435
98.422
148.88
55.457
-113.46
-205.55
-86.248
149.04
236.66
15.511
-104.01
-139.89
-30.23
170.53
-58.625
9.6695
20.319
-79.071
-14.393
45.478
35.707
3.8935
-5.4241
-113.3
-45.023
-99.634
-20.511
154.36
-1.8842
-46.613
28.759
7.4283
86.482
83.333
-87.17
14.178
-0.10538
62.055
55.678
-154.78
-64.714
50.7
74.456
179.7
95.154
-147.92
40.989
5.5014
-161.42
-0.78794
-16.916
-25.866
45.173
-29.78
-22.31
85.488
-12.577
-82.299
11.851
-18.744
-150.42
48.696
95.151
197.75
-11.825
-194.77
3.4347
153.4
-120.08
-74.441
-12.251
-98.239
160.97
-59.086
-69.047
109.62
1.8947
29.673
65.526
-6.5439
47.398
11.631
-35.01
88.429
-23.229
-9.7829
17.1
6.1505
-71.527
-22.698
-113.67
-6.2476
42.512
-36.898
200.18
-65.211
-189.13
113.45
56.32
-115.23
-24.5
86.179
55.772
-3.5128
-83.697
-43.966
117.5
-6.6559
-38.226
-23.916
-45.596
56.692
98.902
-25.982
-67.206
-36.001
4.8858
-35.582
-1.0421
117.84
99.445
-36.415
-89.632
22.917
-10.94
-99.819
-37.278
-94.781
42.429
98.808
18.645
82.234
61.826
-11.015
53.023
-28.203
-24.372
-4.1658
-55.625
-16.64
-69.382
-3.432
60.946
-21.358
2.8856
38.288
-48.025
39.221
17.602
14.338
89.662
23.63
5.192
11.089
35.394
-173.04
-89.351
-23.846
-111.19
47.184
43.463
106.41
34.82
-69.314
28.306
-46.077
-69.835
102.47
49.922
52.826
-34.163
-161.5
8.9421
-6.9377
-125.53
93.599
105.81
38.757
78.499
-150.44
-1.1718
129.32
55.511
26.305
-81.449
-93.099
34.388
109.13
-2.0279
53.27
-74.269
-80.427
-37.174
11.139
34.833
-7.6165
77.385
-27.767
-49.248
53.33
11.414
-47.73
15.06
-7.2194
-21.289
59.965
-97.029
-113.95
-15.665
86.535
103.47
76.168
37.307
-65.976
-9.653
-40.892
-41.197
21.92
-39.795
-12.483
38.804
-35.836
13.698
23.639
-44.696
22.613
14.396
-44.67
28.249
-3.3782
-18.193
13.773
-90.459
-31
47.575
-14.854
63.131
92.417
167.32
301.89
12.71
-158.42
-215.72
-30.127
-135.41
-160.84
20.987
-79.573
-15.483
54.712
21.316
71.988
180.03
30.061
-117.05
-41.251
4.0115
83.64
-37.582
20.379
22.195
-32.656
75.91
-7.523
-122.34
16.43
-3.312
30.68
14.583
-10.755
76.281
-14.519
-68.543
92.466
29.905
-71.201
-10.414
-28.371
152.41
132.77
-152.64
-152.64
-136.9
114.68
65.517
1.1843
4.1843
-67.674
39.95
-118.8
21.384
84.28
49.476
127.02
-94.286
-55.075
43.752
-44.46
12.228
65.756
-90.181
-4.4997
-58.678
-33.234
83.68
-5.7458
131.91
-12.288
-151.76
-43.622
-47.681
-0.54286
84.627
6.9212
53.086
100.6
-24.125
12.001
-128.33
-133.63
93.74
180.97
108.61
-149.27
-161.49
-89.419
-7.221
16.665
174.56
95.058
-20.787
48.19
188.29
-31.168
-151.85
-152.41
-140.76
111.16
77.7
-81.12
-23.768
152.64
10.901
-100.88
-40.063
47.567
102.72
-31.336
-87.25
-99.294
23.256
53.947
99.702
127.64
-144.62
-36.888
28.273
-121.16
-3.9242
130.81
124.39
15.6
-61.547
-146.12
-92.777
-42.816
67.858
173.82
-32.559
-59.191
107.02
40.77
-99.195
-3.2585
76.186
-56.163
-250.89
-75.949
119.5
225.12
303.88
-286.83
-360.08
-23.943
106.19
113.71
59.897
137.39
93.348
104.95
-188.41
-144.24
143.32
1.3235
40.548
-12.764
-80.608
-49.398
25.171
105.38
-39.239
-85.31
-37.819
72.998
4.1095
-18.617
5.7627
-20.09
14.136
44.482
10.228
18.155
20.185
-43.783
-51.63
-46.263
-59.471
2.6194
-19.288
-45.081
20.668
-31.158
-37.599
24.828
-41.762
-48.7
53.337
-15.962
-20.959
76.816
-18.891
12.954
58.289
-42.737
20.147
61.928
-33.885
39.074
70.471
-34.28
34.097
46.585
-42.616
28.252
19.306
-36.572
34.87
6.9017
-33.82
37.672
-27.793
-9.5219
3.5243
-214.91
-76.5
31.144
52.654
311.33
365.86
-139.4
-470.19
-180.37
68.948
191.2
-4.0902
34.818
-30.156
55.905
7.5221
-24.541
53.856
-41.722
-9.8898
-20.748
10.63
35.359
-5.304
36.795
-10.274
12.699
8.012
-26.618
14.916
-5.8736
-5.3257
7.0481
-15.222
4.7616
-10.176
-6.3715
0.87491
-13.608
7.7243
-10.936
6.9665
1.7764
-19.098
2.8148
-7.0203
11.355
11.454
-18.649
11.373
7.2056
4.788
15.631
-18.874
-7.636
-1.4772
-22.163
19.508
-4.7755
-7.1153
-0.10717
-16.835
8.5305
-13.11
-7.2723
17.472
13.744
53.831
98.929
32.293
27.189
-418.73
-272.88
273.65
60.241
44.629
40.009
57.788
-27.27
16.477
20.972
16.662
-2.4825
-13.795
29.155
-19.45
-28.996
-15.747
19.882
11.063
-16.034
-6.846
11.281
-23.695
-21.947
15.79
2.3466
-9.9238
34.842
8.3063
-10.545
6.7905
-27.938
-11.543
22.414
-16.256
114.05
21.455
-59.169
116.33
7.1669
2.8579
-93.16
-24.186
117.9
11.058
-50.416
-109.45
25.932
209.03
88.066
-172.96
-68.657
-157.1
-98.531
40.463
-44.896
-212
38.38
106.18
8.5618
38.245
-68.513
60.582
108
17.609
-152.38
2.7271
93.139
-8.0694
83.79
-82.326
-6.5495
77.519
41.904
96.893
-117.05
67.02
48.746
-237.72
-124.15
67.478
92.407
25.519
132.39
-16.911
-52.419
3.8401
-79.239
-25.437
43.315
-5.0155
37.722
59.534
37.308
59.344
24.011
-86.561
12.471
18.89
-64.252
-27.188
15.707
43.083
57.952
36.615
-20.323
-9.3863
-50.809
-42.155
-24.986
21.123
-25.97
-21.353
19.308
-1.2549
0.89893
18.579
-6.8394
2.4708
15.683
-7.4426
-0.29908
10.081
-12.536
18.665
-8.0759
-6.6918
37.297
26.774
-31.711
-7.1608
-26.343
-15.976
4.6143
-18.858
36.742
40.835
57.88
1.3889
-49.26
-18.639
-49.334
-69.379
20.32
11.359
20.521
13.594
5.9974
13.79
4.6311
7.1553
0.64805
-5.0583
-2.8675
-19.306
-0.26548
13.327
3.1198
22.747
18.284
-22.351
-18.112
-12.259
4.2791
-5.9031
-12.172
13.965
12.466
29.957
4.818
-59.207
-30.457
35.981
17.29
7.6126
11.749
-16.988
-11.783
4.7116
-18.972
-6.6292
3.3729
5.707
39.476
30.091
-36.344
-60.46
-15.872
50.283
39.236
13.033
-1.5874
-46.685
-56.419
5.9892
54.029
26.446
20.521
-18.035
-53.182
-35.21
81.991
35.502
60.357
53.156
-338.35
170.32
-123.58
181.28
-194.11
90.457
153.85
-0.26134
11.06
-88.375
-40.308
-34.079
-31.028
3.1066
-51.047
-18.132
16.78
-14.946
102.95
-17.535
-55.808
3.5043
-7.9533
32.901
-9.2864
-19.234
58.745
12.738
82.462
26.691
-77.029
46.474
-53.411
2.9247
44.536
21.711
25.559
90.697
-33.797
84.112
-44.428
-335.48
-153.2
74.958
95.543
41.018
75.367
-27.451
7.3691
-1.2637
-14.69
27.11
-33.37
38.134
19.126
70.665
10.858
-136.54
19.343
35.291
-6.4206
8.6066
62.437
65.463
56.785
-143.46
-45.429
-24.557
2.3815
0.77933
-16.796
-0.72618
-14.459
14.586
-14.074
-4.0381
8.5707
5.7493
50.45
1.0917
8.2214
-16.339
-38.694
26.364
5.9287
13.689
39.607
-26.861
-24.818
-16.29
-11.692
0.41522
26.357
54.936
71.979
36.508
32.451
-6.5077
-29.21
-46.107
-46.991
-12.509
-64.481
-13.326
-148.11
65.236
206.53
-132.19
-52.532
102.1
-45.617
-102.51
59.899
38.254
-7.5056
5.2909
-2.0498
-46.452
31.437
22.23
-5.6704
99.36
129.57
-132.28
-101.99
-11.123
10.192
7.2662
20.981
-28.281
-27.666
21.062
-4.6423
-9.315
22.053
27.245
26.744
-24.225
-70.527
-12.587
-18.968
-26.835
56.382
109.46
52.352
135.66
59.502
-177.88
-52.981
8.3465
57.998
126.2
-266.01
-179.69
26.692
-75.032
54.84
26.773
18.565
42.529
-18.322
44.766
38.175
15.013
33.283
-29.074
6.9738
26.425
14.052
21.564
-22.601
-10.848
1.5583
66.143
83.78
-58.75
-52.412
-33.285
46.541
103.79
2.3448
-104.61
-21.105
32.325
-29.508
-25.99
2.9572
46.342
7.8592
-1.3305
-106.16
-90.05
15.347
4.4873
-0.42761
89.912
119.31
38.783
-252.74
-125.01
306.15
268.28
103.11
114.13
48.682
-124.86
-151.07
-157.88
-174.4
-67.499
-14.823
-63.39
-61.605
76.549
17.847
-39.844
-19.734
-42.806
-41.928
29.073
-7.5259
-35.484
33.529
16.079
-35.292
35.157
44.195
-37.346
-20.348
28.584
15.061
65.908
80.856
53.932
98.106
54.208
-58.032
-103.05
91.672
44.917
-41.474
-21.801
-75.435
-26.17
-79.083
18.817
43.747
0.5522
129.84
-14.148
-43.378
-51.7
-55.838
-11.845
43.308
-15.434
60.578
4.5177
-89.266
56.055
58.535
15.216
45.397
135.44
51.452
-236.08
-106.46
60.675
44.786
62.865
159.61
114.71
-162.62
-341.95
-29.259
-12.239
21.475
73.342
8.9358
49.245
5.5826
-33.803
162.41
-122.62
66.297
102.37
71.159
-51.198
-167.15
-112.43
65.769
61.487
-80.181
135.66
34.938
-161.48
-27.453
89.8
17.537
82.39
-2.5094
-57.445
-125.99
-108.78
22.28
83.248
80.43
41.428
-46.677
-30.06
-61.503
161.32
-28.158
-80.313
-16.961
-41.483
67.051
40.854
-82.116
4.3747
-29.295
86.946
156.18
-77.46
-29.882
-66.31
-17.287
5.3405
81.286
62.039
-128.44
-38.532
4.2974
-10.38
-8.0709
36.2
-9.2114
2.0845
35.985
8.5218
7.2472
16.438
-50.925
-49.331
-7.773
43.231
33.931
-13.037
6.8939
16.271
13.289
21.567
-10.248
24.784
19.631
-0.94699
7.9886
-15.337
-11.243
-22.61
-4.9424
-14.114
-7.6074
-1.2789
-4.2449
6.0799
-17.939
28.626
-7.233
-17.109
37.809
26.297
145.38
62.891
-144.53
-21.159
-17.203
2.369
21.285
13.732
19.268
-14.682
-104.9
-35.642
26.869
-28.827
-41.36
-41.143
41.473
29.31
-24.59
-7.5986
-3.14
40.591
10.548
-23.719
-30.992
4.0438
6.793
6.4499
16.586
-5.0974
18.061
-1.7996
-9.6483
22.873
6.0293
-9.8771
19.504
14.504
-14.838
-4.074
20.09
5.3322
-20.784
1.9353
11.584
-18.99
-27.979
-13.857
-1.213
-7.6117
9.3237
15.604
-5.3097
6.6664
11.239
-5.2841
-5.1768
38.522
7.1782
-9.1855
-2.613
-13.862
-3.0904
3.8803
-10.491
-2.0565
15.551
0.069694
-4.6864
12.614
1.3364
-2.124
9.1793
0.17286
-5.109
9.5078
0.82146
-7.1298
4.1742
0.24815
-5.5762
4.8931
0.96329
-5.4801
3.9885
1.6857
-8.1774
3.4744
3.3508
-5.9461
0.97319
4.4493
-7.2654
1.8446
4.6577
-7.0453
0.78709
3.4724
-7.1235
0.33182
0.70932
2.2214
-2.6675
3.7245
6.4058
6.8666
-11.159
6.0079
-1.8043
-15.369
-6.6967
6.0929
-21.59
-35.583
-8.837
-15.145
89.328
58.406
-35.427
22.623
-68.409
-17.249
-9.9428
-17.504
32.815
33.188
18.079
-6.237
28.567
13.269
-32.277
0.74819
-17.097
1.9233
30.314
43.67
35.51
113.63
84.649
-167.94
-103.67
-55.454
-9.7977
-42.551
-25.35
6.8026
2.8399
17.273
7.3314
-1.3191
10.792
0.90352
1.4487
-0.43466
-9.1397
28.082
-14.597
-11.611
9.9203
5.4058
21.526
-4.5884
14.954
-0.57247
-6.5332
9.3348
7.6882
99.178
207.45
113.11
59.323
-112.12
-521.34
-274.22
130.02
177.81
91.335
90.055
8.5085
-81.942
-94.969
-51.008
-63.605
34.885
67.29
127.82
285.07
-44.455
-52.717
190.89
35.941
-75.784
-386.31
-271.13
-123.1
-119.53
109.54
6.2011
61.711
50.157
38.204
76.26
-2.7417
27.102
41.569
127.33
301.25
178.94
71.156
-131.39
-227.97
-98.176
-42.263
14.329
-96.423
-85.292
43.772
94.448
-115
-135.52
30.925
-35.019
-42.689
49.889
49.838
35.346
69.755
45.896
50.948
85.03
-14.455
-96.966
-55.831
-15.144
-69.741
-1.5917
70.685
45.882
48.133
17.604
-68.231
-101.29
34.844
-0.016111
-40.593
66.875
83.804
15.168
11.792
-22.99
-39.322
18.166
73.46
-38.249
-40.269
-8.3329
-12.643
68.766
257.62
87.063
-275.87
-107.87
-47.008
-2.7459
-31.337
5.7911
5.6436
16.525
101.61
3.7881
-53.916
-18.654
-78.39
136.24
34.502
-111.06
55.443
9.4929
-40.96
2.4864
-53.786
50.318
131.34
-19.852
-51.341
-5.3384
-69.229
-10.628
86.861
-16.754
-48.219
16.289
-43.933
-84.822
14.191
22.348
-4.4777
28.025
7.6775
16.661
59.393
-130.27
-233.25
58.331
26.23
-30.777
-75.855
119.15
128.56
54.773
8.9343
-23.434
71.774
25.421
37.518
98.809
198.46
204.76
-51.997
-114.96
-50.078
-83.948
-100.73
-39.201
-51.442
-15.055
-0.34101
-38.262
27.764
-5.4063
19.669
70.026
-84.941
-30.803
-15.407
-54.063
50.332
-40.111
5.1873
21.035
-93.796
60.863
59.806
-61.262
65.324
-49.416
0.69033
21.836
-65.72
22.227
86.439
-34.652
11.537
22.615
-55.792
27.253
-43.188
-139.41
-70.005
-16.766
63.436
98.566
12.783
79.855
16.168
23.82
44.238
-26.771
1.2176
15.946
8.906
21.309
-42.778
-45.371
-36.16
64.859
230.1
250.41
-57.736
-65.251
83.368
-23.187
-51.886
-261.65
-481.03
24.686
186.52
48.271
38.385
-46.728
87.329
136.35
-176.41
-43.55
-9.0552
-48.087
49.887
34.347
-17.534
-47.975
299.06
263.88
-457.46
-36.805
40.427
-0.30604
69.743
6.1677
-13.979
15.612
-14.844
25.625
61.517
-13.678
-78.849
-73.556
-40.853
49.919
-1.7336
88.365
13.028
-62.271
74.007
-28.068
27.066
131.8
-59.991
-64.171
116.09
-83.885
31.043
178.72
-88.373
-421.11
-307.99
-30.119
119.29
38.685
83.919
0.21295
18.061
57.856
25.217
84.305
14.454
94.771
22.575
38.805
59.345
-32.421
30.547
28.624
-49.107
22.644
46.236
-20.013
63.063
93.716
-94.441
-66.447
37.956
74.853
-126.93
-37.368
24.899
-97.231
-134.52
-133.43
50.628
133.86
-18.203
-57.484
-2.8376
38.653
-12.8
10.424
36.021
-8.5602
34.041
13.628
-6.4455
36.485
-5.6422
24.466
36.815
-18.5
22.688
52.671
25.846
71.207
243.79
150.67
-60.206
-200.04
-188.69
-35.654
-232.25
-121.57
47.937
-81.929
-25.137
66.461
75.414
-0.32693
8.0022
23.766
-27.644
21.326
47.895
90.41
104.31
-111.44
-96.606
45.613
88.499
44.749
-47.596
-72.969
-174.86
-55.05
72.386
60.374
92.679
77.325
58.904
-78.395
-92.856
43.425
84.504
65.97
-4.5607
-18.987
-61.945
-14.536
24.595
-74.584
20.627
57.968
-108.45
-96.105
15.881
46.755
45.228
209.77
316.71
9.004
-66.934
-164.44
-120.34
-52.981
-83.638
-56.552
-45.371
-43.169
3.337
19.92
72.661
24.13
-25.084
13.028
-41.565
-57.924
-1.7595
-76.282
-8.373
48.509
-28.848
-68.661
26.263
192.58
88.038
-138.22
23.217
-17.91
22.148
124.66
91.449
93.765
4.3777
-73.913
23.87
-54.479
-55.005
-72.328
-67.597
-46.415
-55.736
9.9382
-84.303
-17.577
49.558
20.235
93.793
470.09
104.25
-234.64
-41.739
-160.37
-170.22
-235.81
55.533
42.111
130.03
157.33
54.428
-62.962
-68.5
-69.163
-104.41
79.446
70.608
70.868
-4.5167
20.68
6.5624
39.75
73.366
24.862
41.183
-17.796
-56.194
-29.077
-10.363
-33.949
-48.047
-104.96
70.534
67.606
-19.142
52.895
12.526
-6.2524
-68.844
73.95
161.54
-136.1
-57.772
-161.16
-34.913
122.79
135.86
231.74
31.156
-102.26
-210.48
-650.3
-329.08
428.81
466.17
113.45
-76.648
1.4346
-20.973
-134.34
35.862
-5.5452
57.62
72.1
14.625
215
337.87
-415.51
-213.43
-16.463
-11.06
57.135
25.429
27.534
-14.768
53.838
107.18
115.04
-447.73
-214.15
169.83
68.561
75.639
84.577
170.65
34.491
123.01
73.576
-96.757
-473.88
-429.71
-37.037
-13.764
48.861
41.106
256.29
198.75
44.868
68.161
0.28783
35.726
115.26
-78.493
-61.009
-46.164
-62.448
137.45
2.9703
51.213
24.325
-36.303
-5.4267
3.0316
3.0893
52.812
-4.816
-58.943
-48.147
-57.695
1.0771
76.005
25.885
-4.5943
-2.7288
-19.365
-13.169
38.123
2.0048
-58.8
-93.691
37.25
43.841
-92.485
3.6258
0.13118
119.32
100.3
-68.807
-12.022
42.374
-261.36
-124.16
107.97
45.699
83.322
33.182
30.484
55.197
210.04
103.15
13.84
-13.264
-68.996
-217.05
75.531
33.48
-275.93
-141.7
-285.54
-1529
762.79
894.4
13.322
154.8
-16.617
-175.48
61.155
184.79
26.64
-108.72
-24.833
89.488
166.68
18.616
84.761
-17.734
-24.035
145.17
503.84
737.14
-1125.9
-391.37
41.523
339.92
-169.07
-118.72
348.42
-24.224
-222.45
6.922
-265.51
-268.79
232.75
82.82
12.389
135.98
-13.854
-190.96
-57.375
-19.265
-116.83
150.72
-12.412
128.07
78.948
-270.13
-15.18
49.397
19.83
18.207
-25.948
109.07
122.13
-74.143
-78.028
-26.999
36.202
-97.749
6.3406
120.13
92.118
84.76
-131.57
-148.83
209.04
129.9
-79.273
-125.92
166.39
-18.937
-149.04
-29.289
-115.2
98.365
193.83
-29.226
-127.21
43.055
87.911
76.213
-182.42
-50.975
126.71
215.55
-130.57
-258.28
14.071
107.95
-14.177
-248.45
-130.35
29.807
172.27
-42.116
-38.365
188.88
49.681
11.798
-25.089
61.181
-30.359
-31.829
83.207
143.08
-54.231
-130.62
49.091
60.224
-12.456
-50.75
26.019
40.896
3.4054
-129.92
-54.966
-14.303
161.65
83.543
-57.953
-48.77
24.809
-225.96
-88.748
41.447
35.28
31.205
42.588
155.94
14.689
12.211
38.264
-56.742
-127.11
-32.74
-33.943
110.86
-136.76
-70.681
168.85
47.529
99.414
28.598
-116.55
-71.08
-43.512
71.72
72.021
50.409
30.821
-212.89
-24.523
91.866
280.11
81.694
-362.59
-32.898
149.22
174.98
107.6
-229.11
-179.26
-54.052
-150.86
-261.06
0.15649
30.813
267.08
-8.147
74.625
74.157
52.214
63.593
64.233
123.18
32.714
-120.62
-88.37
-22.248
-14.856
45.543
-92.212
79.308
15.888
62.492
-189.23
-3.2257
-5.0218
-81.113
72.798
-0.077438
2.7041
11.799
-3.7252
-2.0601
35.019
-3.8827
46.728
-42.07
9.6442
32.682
4.4688
24.139
-61.186
26.888
11.985
-45.798
-7.5004
-19.814
16.665
7.8816
-11.703
19.115
-11.41
1.7186
3.6949
-11.361
17.594
-1.9259
-5.5806
7.9739
-10.745
-1.0789
8.2586
-16.119
0.38836
18.177
-0.43798
12.072
7.0002
-13.754
14.461
-3.3276
-27.669
23.112
16.77
82.547
146.5
111.06
-47.868
-196.71
-100.97
12.501
-3.6288
34.188
-0.8166
-45.354
-62.182
-47.585
23.146
14.859
-1.2883
2.1924
-0.052788
5.3296
14.078
-14.146
-34.326
-18.786
-29.91
-153.94
-50.746
135.8
71.046
64.842
44.883
4.5202
41.628
-2.7724
-34.312
-3.9208
4.3017
17.68
3.2461
-5.4882
23.063
3.757
-38.034
-13.594
58.683
-1.281
38.275
49.18
-193.11
0.030259
142.2
-98.167
-34.211
49.872
91.008
-9.8832
-1.8414
-98.444
71.806
21.421
-47.845
47.411
38.003
-9.4655
-71.25
28.155
17.041
-10.342
-40.262
-26.743
91.421
98.886
-110.45
-65.82
-59.96
-55.842
47.109
121.05
-10.351
-16.964
-33.445
-8.6738
-50.698
-43.82
70.148
135.61
-39.41
-31.292
-23.143
-65.485
-103.11
14.038
220.47
94.193
-118.65
-56.654
-70.478
21.853
139.9
-39.384
-21.225
-55.513
141.04
-7.4168
-78.75
28.876
-9.4287
62.446
21.576
27.123
-12.318
65.739
126.93
17.433
-33.982
-44.25
-178.14
-365.51
-1178
695.94
555.38
57.551
70.866
-125.56
-32.813
-6.3004
171.33
64.388
-16.282
-71.684
-48.341
53.935
10.568
23.627
61.446
59.336
93.566
-190.63
-155.08
189.67
3.9943
191.3
63.705
-162.72
48.902
33.224
-65.447
-58.707
-92.584
-63.228
54.429
187.32
44.011
-112.27
-19.776
76.887
35.408
-36.294
19.115
-90.547
-237.03
-67.583
181.57
88.944
52.014
-72.343
-75.107
-19.228
122.02
264.71
-31.75
-206.81
-107.78
-106.6
-18.677
2.7373
-20.638
113.62
126.82
19.664
-79.809
80.963
136.65
-105.22
-163.33
-24.9
-22.184
39.951
85.198
194.44
183.79
-210.09
-176.66
-51.513
-9.0742
-128.23
13.209
100.73
-4.517
56.56
