-104.19
32.161
160.6
195
129.52
46.59
-5.9894
-72.428
-100.32
-162.85
-167.44
-102.88
-30.557
98.76
180.7
113.03
79.622
70.301
-31.519
-82.159
-175.47
-260.48
-156.96
41.248
187.21
223.91
125.64
57.088
53.284
13.974
-44.382
-118.32
-193.54
-180.78
-30.286
113.53
187.95
180.31
94.003
65.569
17.128
-88.058
-144.33
-156.13
-168.56
-65.795
72.217
124.64
130.92
107.78
126.84
88.3
-46.744
-121.32
-187.86
-247.28
-106.56
102.34
113.73
145.88
103.95
54.641
101.92
36.578
-69.96
-138.7
-178
-196.41
-26.579
122
149.56
111.73
27.101
86.904
44.103
-77.015
-113.39
-108.65
-164.08
-132.01
29.06
135.56
200.7
158
73.031
40.334
-42.603
-122.18
-153.54
-186.83
-168.22
-44.608
99.292
227.27
203.95
127.77
88.712
-22.31
-104.72
-198.33
-263.14
-214.17
-5.61
169.74
258.96
194.11
105.5
48.211
-8.1922
-18.234
-91.664
-157.06
-174.59
-88.104
10.21
110.96
184.63
166.84
129.1
81.523
64.33
85.94
-32.46
-116.04
-57.035
-76.258
-74.386
2.6785
42.112
47.576
10.721
-43.693
-98.218
-131.68
-129.57
-127.03
-171.62
-186.34
-156.21
16.749
197.75
262.2
167.71
14.18
-132.63
-184.68
-187.06
-31.944
208.92
285.49
253.65
141.02
102.56
105.58
-83.722
-169.95
-184.86
-258.59
-210.92
-19.536
107.59
196.05
196.32
159.27
131.32
28.37
-85.841
-170.23
-241.5
-230.2
-42.473
88.654
109.79
161.26
99.709
143.8
148.05
-73.577
-178.04
-247.02
-306.75
-183.13
70.488
139.95
148.88
138.26
83.938
107.49
7.2577
-89.355
-121.46
-209.48
-247.99
-10.991
162.36
172.06
174.01
63.803
83.287
89.971
-87.608
-155.16
-184.55
-209.53
-70.049
139.81
183.67
151.21
117.98
186.35
78.069
-110.33
-178.69
-240.05
-275.62
-42.089
232.07
234.42
202.29
121.66
73.661
97.025
9.0015
-122.07
-257.75
-309
-129.52
147.72
202.22
177.74
127.87
122.16
160.45
85.168
9.0038
-122.43
-299.5
-275.56
-5.0855
79.514
79.426
159.16
152.65
62.736
-19.441
-120.36
-204.25
-225.53
-172.77
-39.729
120.89
190.85
145.8
88.098
130.46
91.841
-102.15
-181.28
-225.02
-239.88
-25.363
161.59
117.93
130.02
105.26
104.47
137.03
-9.3568
-171.69
-262.12
-273.38
-132.47
54.124
148.17
216.47
162.12
104.02
135.03
-15.588
-144.8
-178.36
-235.73
-163.62
43.877
96.487
123.82
157.55
125.69
154.76
90.646
-38.946
-126.72
-182.49
-111.28
55.165
44.008
86.355
169.23
95.483
-0.56733
-26.722
-55.204
-30.892
-61.533
-100.42
-180.06
-161.85
60.361
151.03
98.442
36.052
-6.3399
-15.778
-42.181
-103.55
-146.64
-117.23
-107.36
-17.124
80.757
113.85
114.58
97.301
36.574
-20.779
-36.852
-39.576
-59.314
-73.202
-39.8
29.876
67.53
40.165
-19.246
-49.084
-40.19
-94.609
-101.99
-29.322
34.395
75.878
116.02
93.047
-0.14864
-22.798
-2.2528
-33.313
-135.97
-214.42
-184.43
-194.76
-154.51
52.383
139.06
267.18
344.03
136.36
-112.66
-328.2
-307.49
-51.291
206.21
158.58
32.746
44.83
202
247.41
42.74
-182.56
-389.93
-362.32
-120.75
159.7
220.74
154.98
100.59
105.43
231.44
185.74
-31.889
-245.33
-338.4
-235.61
63.511
233.86
229.33
207.91
183.51
244.48
147.91
29.162
11.964
-47.746
-51.377
-34.763
-54.246
42.419
113.79
26.227
-52.218
-54.017
51.858
36.961
-74.659
-85.173
-50.61
-50.894
-41.039
-54.773
0.73662
56.71
40.445
-3.0253
-29.592
-49.988
-48.947
-5.0169
24.481
23.621
7.0241
-5.6352
-31.19
-22.311
3.2373
-20.171
-29.335
-13.587
3.2765
63.892
86.753
111.81
75.494
-55.333
-70.366
-88.823
-131.79
-136.9
-93.468
-106.44
-48.614
33.314
70.599
105.17
66.126
10.639
-21.889
-83.62
-124.65
-70.66
12.254
86.431
138.75
142.78
44.09
-8.5124
-4.5199
-35.44
-74.48
-135.48
-163.38
-62.551
78.305
166.54
212.42
93.78
-41.824
-47.706
-38.414
-43.729
-59.941
-32.156
-39.111
-32.115
77.857
162.76
58.168
-83.173
-115.21
-111.67
-51.6
-5.2186
-4.5245
-141.44
-200.2
-21.282
55.411
54.919
156.44
58.75
-52.481
-73.369
-203.76
-197.69
-143.04
-163.08
-67.872
59.339
103.84
228.08
290.14
70.284
-171.73
-305.91
-239.85
20.929
233.15
235.75
229.67
188.59
187.58
165.32
-52.677
-183.08
-236.2
-239.48
4.1897
158.2
117.96
149.64
189.82
246.86
170.89
-13.101
-179.51
-266.5
-304.34
-145.55
108.85
152.4
150.09
102.39
170.83
206.02
73.706
-66.42
-191.68
-261.79
-99.188
76.551
123.58
193.09
143.24
89.459
97.937
0.40884
-73.918
-145.29
-234.63
-143.05
46.707
83.013
143.18
107.19
61.443
112.7
-28.643
-143.96
-132.73
-211.15
-241.34
-23.485
98.478
176.47
214.96
117.83
157.38
83.163
-140.35
-195.67
-208.96
-267.83
-65.704
135.85
64.688
88.85
100.69
85.339
173.08
27.494
-135.94
-192.66
-261.19
-184.09
90.804
189.76
134.3
84.318
5.586
89.896
158.36
-40.565
-159.96
-195.04
-272.29
-172.37
111.76
187.55
104.32
79.368
25.853
28.357
122.41
-15.468
-125.73
-201.46
-296.98
-205.29
77.981
197.22
174.84
102.52
29.499
110.62
95.901
-65.762
-133.72
-230.56
-294.19
-47.336
198.3
160.76
90.6
22.416
95.758
142.25
-11.854
-89.663
-150.04
-239.87
-164.16
46.542
107.05
124.03
124.73
80.282
144.6
78.258
-68.704
-115.44
-175.51
-231.34
-60.129
77.019
20.342
60.878
110.76
174.57
160.81
-36
-163.98
-212.32
-249
-146.47
101.09
182.16
167.03
87.456
85.292
186.92
94.337
-63.517
-151.91
-279.45
-238.29
65.102
179.47
137.41
140.69
55.23
125.35
124.22
-78.217
-146.24
-190.23
-243.82
-59.619
165.88
195.09
169.68
79.314
38.833
108.91
40.054
-50.008
-142.84
-255.66
-169.56
83.552
145.55
123.86
118.62
52.693
82.189
22.565
-77.668
-99.617
-195.96
-250.33
-56.408
118.56
146.62
168.7
103.84
95.027
135.61
-55.645
-178.4
-164.8
-214.72
-211.5
42.034
154.07
102.55
102.75
78.819
60.515
123.69
-26.983
-161.42
-179.27
-214.48
-188.61
39.923
121.17
95.492
136.85
174.33
209.18
64.672
-132.95
-182.42
-245.95
-272.23
-74.068
113.54
104.08
125.44
92.465
91.417
168.13
35.936
-106.22
-177.56
-260.08
-232.33
-16.466
111.91
127.08
95.249
32.092
109.95
108.78
-4.3726
-84.416
-197.45
-302.01
-137.51
118.95
132.81
132.48
87.297
56.995
140.87
39.676
-70.715
-140.37
-244.62
-282.26
-88.112
146.67
223.92
212.19
134.23
120.55
90.437
-17.936
-71.995
-160.58
-258.84
-143.1
60.781
120.83
190.56
191.96
107.65
81.449
-25.462
-135.71
-147.45
-194.76
-199.07
-33.194
96.517
130.24
143.21
208.47
233.97
17.997
-109.77
-205.52
-307.12
-284.78
-53.968
197.74
222.95
166.8
141.06
170.43
185.95
40.406
-124.93
-244.02
-319.15
-211.3
67.331
193.59
160.97
107.52
91.544
157.92
49.072
-90.844
-130.82
-234.88
-280.28
-58.508
131.78
150.46
146.62
113.89
103.49
120.64
32.234
-80.251
-198.32
-310.67
-260.02
35.771
218.3
226.29
197.2
119.19
95.708
2.3681
-70.12
-91.411
-222.79
-223.46
-25.743
87.892
132.83
184.04
129.16
96.336
0.77236
-114.86
-115.84
-209.61
-282.27
-184.13
8.4019
153.54
228.56
224.45
166.41
177.1
8.5264
-152.06
-132.64
-204.1
-234.19
-28.759
104.2
61.308
121.31
143.49
76.722
54.824
-53.742
-165.97
-133.73
-143.92
-168.94
-28.355
89.025
116.21
122.57
129.14
169.62
68.361
-67.413
-136.05
-195.9
-212.71
-44.639
76.498
91.348
122.68
94.367
125.88
66.624
-142.12
-131.96
-209.73
-257.06
-44.73
75.135
155.07
150.34
27.199
-17.332
14.655
50.828
24.282
-21.558
-52.722
-97.823
-121.3
-57.068
-23.56
88.107
198.13
278.32
270.94
27.937
-149.21
-245.05
-277.01
-223.78
-37.589
115.34
176.5
179.97
165.79
120.54
4.5551
-91.495
-172.73
-206.83
-165.5
-0.087272
126.09
165.62
117.26
53.77
163.96
89.067
-98.746
-163.63
-225.47
-253.97
-98.27
52.953
71.659
111.5
88.186
142.16
142.46
-31.304
-97.971
-153.81
-214.37
-101.97
46.829
57.105
95.954
108.33
102.44
150.22
20.712
-89.152
-130.02
-201.42
-202.14
-31.122
112.08
141.19
105.99
59.285
164.49
238.26
70.562
-84.588
-193.73
-287.92
-149.44
99.98
129.74
180.65
134.48
108.32
170.27
-5.4152
-153.16
-166.23
-237.23
-262.08
18.996
190.71
219.21
172.88
92.686
177.46
75.798
-71.278
-98.958
-197.95
-298.14
-159.6
110.18
141.11
122.47
84.193
73.841
136.33
30.424
-88.897
-84.453
-167.86
-256.19
-84.382
66.766
134.42
122.62
54.852
150.6
117.06
-53.089
-84.609
-100.87
-200.88
-201.89
13.488
139.74
131.06
110.84
72.14
114.89
63.666
-104.68
-111.9
-164.51
-246.76
-201.74
5.6135
98.287
164.16
127.36
115.61
180.99
20.213
-101.99
-96.707
-132.95
-174
-27.412
57.527
34.237
62.158
52.649
130.64
129.1
-83.756
-128.61
-108.68
-172.22
-114.66
59.379
93.856
97.368
68.784
102.62
204.52
51.652
-110.52
-140.86
-131.68
-91.287
14.88
58.84
86.494
124.46
176.35
186.43
29.124
-113.51
-140.69
-162.7
-138.12
-84.567
-70.105
-42.436
-31.464
-3.922
89.814
123.26
53.973
4.5865
-18.174
-32.87
-50.187
-38.633
-8.7531
7.0065
-4.3231
-37.163
-82.747
-89.314
-3.4649
35.229
6.6595
-89.236
-105.36
-34.365
29.56
111.05
119.49
96.642
102.09
66.42
76.466
32.372
-61.145
-35.55
-90.98
-74.703
3.1056
46.921
41.346
5.508
-5.4459
27.005
0.88293
-36.313
-40.726
-64.664
-66.745
7.7455
33.094
14.007
-1.68
-8.3457
6.4547
24.662
21.927
42.069
33.337
-24.511
-42.459
-30.602
16.236
51.485
30.513
-39.203
-16.914
43.062
35.79
58.408
-10.624
-120.38
-139.46
-9.3581
137.12
95.701
-55.841
-85.584
-0.95287
14.161
89.513
98.53
-33.115
-110.68
-93.196
-82.783
-14.173
17.641
-24.953
18.13
19.794
-51.478
-36.929
2.5847
8.1418
48.213
69.232
89.968
128.08
159.05
119.25
52.099
-14.487
-161.84
-240.79
-209.8
-194.28
-86.011
18.042
67.975
92.194
126.68
274.33
201.8
-36.27
-194.87
-298.12
-241
50.448
222.07
147.43
86.637
61.046
155.54
195.75
30.151
-93.496
-182.93
-220.01
-161.01
41.181
207.88
284.38
173.75
61.667
148
27.77
-127.33
-151.24
-182.41
-260.7
-108.22
91.821
103.34
129.86
77.67
109.69
163.39
0.2427
-101.23
-177.47
-258.22
-249.1
-14.436
158.79
207.9
184.63
144.32
179.15
83.626
-45.65
-196.22
-306.42
-267.83
-42.972
143.5
143.1
153.19
96.556
94.307
76.293
-90.57
-113.28
-159.7
-254.9
-191.22
36.013
140.87
199.37
160.95
112.9
165.95
-21.619
-137.13
-146.71
-237.33
-239.46
-50.141
102.43
136.13
178.39
99.675
141.45
39.441
-129.05
-135.27
-170.98
-219.18
-98.527
116.26
126.13
113.79
105.71
107.85
114.98
-22.565
-94.637
-197.07
-218.35
-166.67
33.703
130.93
119.65
126.47
81.211
125.95
86.622
-88.147
-142.21
-157.73
-207.05
-101.38
104.9
106.09
73.659
23.765
42.334
159.16
79.782
-79.055
-130.55
-197.44
-200.23
-66.343
2.0518
70.106
122.88
41.44
109.6
134.9
-9.7101
-86.259
-134.7
-212.17
-161.56
60.366
123.05
150.52
119.85
97.012
160.78
14.927
-102.46
-144.74
-212
-260.13
-88.467
138.06
204.55
169.5
51.609
74.57
149.64
19.586
-68.302
-112.66
-225.7
-270.4
-3.3074
186.79
222.94
233.29
142.23
99.791
14.628
-111.4
-169.99
-229.23
-258.28
-48.346
166.07
219.37
230.25
161.92
81.533
57.313
-73.96
-125
-156.12
-228.02
-208.87
-21.233
81.16
199.51
240.92
181.72
180.81
14.79
-99.816
-133.76
-207.71
-205.29
-28.476
26.078
55.078
123.41
120.52
159.3
41.712
-105.67
-135.74
-139.65
-179.61
-58.264
72.979
95.472
131.06
122.45
150.72
73.628
-65.202
-121.88
-152.11
-171.06
-59.518
104.96
94.526
94.009
43.366
79.517
111.78
-22.922
-77.859
-168.33
-231.76
-187.34
0.30408
111.13
125.93
127.65
67.154
177.43
170.51
-56.316
-139.6
-192.83
-270.72
-129.28
106.16
90.086
147.12
100.92
53.998
167.22
24.06
-102.52
-131.61
-237.37
-235.65
27.941
155.13
140.55
136.19
80.62
157.89
74.604
-104.66
-135.24
-145.22
-224.36
-147.11
103.7
112.77
121.97
154.29
70.439
-12.525
0.29229
-67.451
-189.62
-211.06
-158.75
-56.009
42.671
138.33
148.15
97.374
108.06
40.909
-10.534
-65.874
-148.98
-185.59
-65.65
46.169
57.33
100.24
73.892
59.943
143.67
15.561
-72.143
-118.61
-214.71
-234.26
-100.46
26.606
143.59
191.93
121.69
158.65
70.169
-70.692
-101.79
-150.02
-218.31
-114.96
42.066
35.874
130.86
159.03
94.949
109.77
72.737
-37.954
-124.43
-194.05
-235.9
-99.665
68.769
132.79
210.81
184.6
198.98
116.88
-66.484
-109.5
-126.37
-186.22
-106.33
49.549
55.681
88.042
105.15
132.33
165.74
27.624
-89.458
-120.78
-122.31
-131.54
-46.733
39.635
132.79
157.35
105.51
164.02
94.555
-106.54
-165.28
-162.08
-198.9
-127.58
60.864
112.7
105.39
47.809
135.31
250.25
35.249
-126.53
-182.67
-219.55
-165.69
37.101
158.8
128.54
55.12
7.0146
108.52
103
-50.561
-116.79
-161.03
-205.45
-136.36
46.889
140.47
140.88
78.339
18.428
139.39
82.553
-72.922
-123.29
-208.76
-207.28
-43.221
79.235
60.932
84.479
56.842
50.829
123.23
21.912
-97.942
-116.45
-194.38
-178.03
15.077
98.662
133.84
106.22
56.93
158.9
50.397
-72.837
-96.875
-171.65
-209.72
-81.304
122
173.6
152.29
49.206
61.77
104.23
-48.885
-117.74
-128.45
-210.63
-249.04
-43.767
150.46
207.88
164.93
65.435
43.161
10.444
-82.172
-79.278
-104.77
-189.42
-138.69
7.5492
56.541
118.42
112.4
84.107
170.89
85.074
-81.485
-125.02
-186.98
-234.95
-53.177
121.19
150.01
133.57
77.944
144.87
92.349
-75.377
-81.464
-141.25
-242.12
-159.03
77.521
132.34
149.8
100.59
92.2
175.71
31.611
-144.91
-152
-185.71
-254.27
-39.399
136.69
142.54
161.08
106.91
150.21
97.799
-95.43
-138.58
-127.46
-184.16
-122.76
35.441
77.623
136.63
103.68
93.407
188.05
9.9179
-161.45
-151.21
-160.9
-220.19
-17.399
188.06
143.16
128.18
102.57
105.06
227.2
38.686
-191.41
-158.14
-163.24
-226.97
-78.228
146.79
162.66
149.59
104.4
80.911
157.4
15.601
-135.77
-127.61
-188.7
-251.97
-61.682
71.533
125.31
196.57
116.8
202.5
148.99
-125.38
-118.27
-108.36
-219.44
-173.49
-63.252
-16.478
113.47
190.27
123.68
169.26
74.424
-126.91
-182.72
-165.7
-201.4
-140.35
29.306
92.44
195.72
187.99
170.5
177.82
-62.656
-204.25
-173.07
-190.11
-204.73
-12.251
101.35
128.72
141.24
103.73
180.27
73.209
-112.94
-148.95
-168.41
-191.39
-111.43
22.356
30.037
89.921
132.43
189.86
190.79
-10.692
-101.94
-160.39
-191.47
-149.41
-7.4425
-3.8816
7.0179
42.723
88.922
240.02
111.5
-53.4
-106.47
-187.43
-195.6
-87.624
57.044
77.811
116.74
65.629
99.445
234.32
68.468
-150.75
-166.95
-191.61
-207.82
-19.229
119.41
116.69
73.361
45.648
220.5
180.87
-34.758
-115.15
-197.56
-268.86
-131.81
97.398
109.52
121.88
74.328
27.465
176.02
131.58
-52.708
-144.29
-261.15
-283.25
-30.73
150.41
161.99
128.13
49.685
139.6
162.34
30.208
-70.372
-207.87
-314.03
-151.17
151.33
191.88
155.02
78.276
33.235
107.61
43.062
-27.324
-94.136
-245
-251.35
49.055
236.04
160.55
102.89
57.659
98.653
110.98
0.37839
-55.83
-160.87
-285.47
-143.17
120.15
134.04
115.76
82.557
47.305
136.71
83.348
-39.711
-141.26
-245.89
-311.06
-139.9
139.5
218.98
189.51
78.099
76.353
108.29
-35.071
-82.615
-94.776
-218.72
-216.09
25.25
101.31
111.72
128.03
57.143
121.71
34.465
-67.581
-58.984
-171.69
-232.15
-121.35
18.436
93.75
165.42
91.367
125.77
123.6
-80.247
-107.76
-133.28
-240.7
-225.17
23.55
132.81
143.95
165.43
76.685
123.21
134.94
-112.96
-182.11
-154.01
-217.88
-133.09
79.4
150.37
209.67
124.26
40.121
124.99
-14.354
-117.29
-77.678
-163.01
-234.83
-54.627
92.563
47.208
90.66
67.956
27.01
163.32
28.035
-148.82
-161.82
-235.01
-261.38
-15.373
169.42
183.59
172.91
86.655
89.486
145.88
11.851
-92.948
-168.36
-247.81
-145.04
76.703
115.86
81.205
101.24
45.704
56.232
124.74
-60.342
-111.31
-107.44
-187.01
-211.02
-28.584
101.97
185.18
189.46
108.85
183.62
64.536
-117.02
-122.99
-154.24
-226.81
-146.78
56.982
123.48
148.14
126.13
107.01
177.75
110.19
-85.479
-128.54
-138.33
-203.67
-101.95
0.96994
27.585
129.18
133.91
200.45
131.81
-73.065
-134.13
-166.58
-193.84
-52.371
94.611
95.54
110.28
73.894
126.45
205.43
14.281
-163.32
-167.93
-172.33
-165.12
26.791
131.31
133.64
84.34
65.295
171.45
36.119
-145.26
-154.05
-167.12
-198.22
-94.962
87.796
125.91
162.46
146.18
69.877
40.086
-46.743
-152.67
-162.16
-158.48
-160.66
-130.88
-20.762
125.35
208.33
155.66
153.52
173.54
-4.8082
-165.15
-239.83
-271.63
-131.33
169.42
227.12
151.79
108.83
27.378
97.915
130.72
-100.12
-150.93
-183.24
-231.65
-143.22
52.934
127.7
70.219
24.226
33.346
76.983
174.65
34.963
-111.22
-137.22
-159.56
-170.41
-40.041
131.55
144.52
103.34
88.852
49.441
28.104
-30.109
-67.024
-80.169
-136.3
-150.65
-73.33
34.9
108.48
122.84
87.443
161.01
82.851
-102.47
-124.6
-159.77
-180.86
-20.706
96.448
57.71
87.389
75.736
39.287
96.291
-3.6695
-131.53
-159.26
-226.5
-124.13
62.325
120.5
168.44
97.34
57.064
152.81
33.124
-43.071
-73.473
-222.76
-230.8
22.606
131.72
179.38
168.92
63.648
114.75
77.559
-70.293
-102.61
-164.63
-263.29
-126.51
77.289
171.46
173.07
61.568
108.29
107.82
-14.786
-44.883
-97.263
-227.46
-204.7
7.4793
146.54
222.82
156.9
83.577
133.96
29.041
-89.421
-118.23
-178.6
-251.42
-96.764
104.31
172.21
153.35
49.728
111.24
122.83
-25.302
-56.995
-96.989
-203.2
-216.7
-27.879
124.96
184.11
142.37
74.558
158.61
64.706
-126.14
-143.76
-152.49
-240.9
-166.01
44.921
141.05
150.56
94.882
70.284
134.7
18.845
-109.58
-109.77
-180.35
-191.5
41.219
125.79
97.492
130.65
43.978
43.302
76.557
-47.612
-98.548
-188.96
-277.4
-233.88
64.036
276.83
299.33
214.86
105.66
-26.16
-99.651
-124.55
-146.24
-211.68
-205.73
27.342
183.96
260.23
206.72
164.91
81.263
-108.04
-91.189
-33.577
-59.396
-45.067
83.115
169.03
180.59
112.8
-41.85
-70.6
-72.774
-102.55
-105.79
-67.082
-81.179
-151.22
-143.45
-159.18
-210.03
-153.49
-77.493
10.835
-9.4406
-88.201
-113.07
-46.637
99.937
150.3
105.65
147.92
174.65
249.12
175.22
-67.619
-154
-189.66
-238.63
-198.29
-7.183
109.27
182.44
140.4
152.09
242.78
74.709
-113.92
-161.61
-209.17
-234.5
-116.69
66.748
157.26
183.23
120.24
105.45
121.48
5.8991
-61.736
-132.61
-223.38
-188.92
-31.137
93.976
147.18
130.54
91.905
177.38
148.64
-20.726
-115.62
-239.43
-297.51
-138.57
59.106
129.02
198.59
115.99
97.221
187.67
40.465
-58.511
-132.98
-276.06
-243.24
-11.74
89.12
97.809
126.77
71.286
155.35
210.04
26.025
-108.36
-166.93
-283.31
-202.68
56.755
120.21
126.39
58.177
44.815
201.19
106.05
-19.713
-93.642
-280.08
-305.17
4.4497
185.07
165.31
155.88
39.055
76.809
140.78
-4.1753
-84.072
-167.72
-291.46
-185.27
67.821
155.82
185.32
77.327
22.307
153.09
99.023
-29.866
-108.77
-231.97
-258.53
9.045
190.03
166.88
145.6
23.966
34.61
92.933
-62.916
-128.17
-164.62
-302.29
-216.08
82.464
171.91
184.55
121.27
48.758
135.97
76.482
-42.359
-53.818
-196.05
-251.53
29.686
156.58
128.08
103.24
2.8788
104.43
109.7
-94.056
-143.88
-170.74
-283.08
-125.48
177.08
209.93
156.09
48.67
40.839
138.75
9.1081
-104.36
-140.02
-252.96
-215.11
74.575
140.57
100.16
118.51
56.589
111.43
87.063
-101.31
-144.22
-156.23
-254.96
-132.76
125.08
200.24
153.31
47.515
76.463
159.61
-18.816
-128.48
-131.99
-201.56
-198.85
21.132
131.63
111.48
91.388
38.041
123.79
144.94
-66.457
-159.14
-164.02
-228.9
-171.17
50.007
146.5
151.26
59.96
36.331
146.46
6.7428
-102.39
-61.414
-155.31
-184.69
24.215
115.1
115.73
117.54
52.192
141.4
106.42
-118.44
-146.03
-134.19
-239.78
-165.47
43.282
106.21
168.15
130.83
99.035
159.58
-38.34
-174.75
-122.25
-172.44
-195
-42.722
67.385
167.56
154.61
90.429
182.24
65.415
-120.59
-127.79
-144.24
-207.48
-80.777
130.33
162.25
181.31
132.62
89.212
8.9932
-156.4
-171.75
-141.22
-154.74
-160.3
-73.594
86.856
198.98
195.71
122.55
177.8
111.5
-51.524
-139.69
-134.21
-153.67
-71.768
35.553
27.88
74.44
68.687
102.44
111.81
-33.54
-89.373
-121.11
-161.35
-141.62
-7.243
92.728
119.63
87.03
82.495
227.92
167.6
-108.06
-215.97
-172.85
-214.01
-69.245
128.49
81.931
91.567
109.9
116.47
205.64
66.932
-135.24
-226.16
-229.45
-162.06
45.011
160.23
128.93
79.236
30.796
120.43
120.22
-115.69
-178.4
-136.91
-195.56
-132.45
74.604
116.56
132.84
101.71
72.905
158.5
11.738
-159.93
-175.17
-232.15
-213.4
3.675
157.67
128.95
95.895
60.419
147.62
205.75
14.134
-97.967
-198.7
-263.26
-218.43
-58.083
141.67
187.93
120.27
102.11
81.538
88.287
-20.047
-121.51
-146.67
-186.37
-197.58
-59.384
124.19
170.69
158.18
83.963
166.73
106.53
-62.003
-82.818
-155.44
-184.34
-152.89
-52.62
0.87836
66.952
103.07
99.788
164.79
59.23
-54.856
-116.67
-223.98
-260.56
-103.4
90.212
179.53
183.08
93.698
201.81
175.9
-37.336
-86.638
-149.71
-217.24
-142.79
-4.8215
59.884
113.24
45.638
87.653
206.39
53.698
-67.902
-188.8
-296.05
-187.84
126.92
235.37
196.61
113.71
7.4747
97.635
125.94
-26.682
-79.81
-172.92
-237.61
-87.597
74.365
152.45
153.51
56.996
33.724
191.71
112.65
-37.976
-104.48
-208.4
-236.16
-65.438
46.532
80.53
133.98
58.855
113.4
168.77
-25.114
-107.34
-141.16
-234.11
-126.09
42.237
69.559
80.039
12.977
94.311
242.78
124.83
-11.342
-109.48
-237.1
-223.88
11.697
112.99
100.21
97.514
1.2637
48.814
107.11
-27.605
-89.852
-126.09
-172.4
-79.846
72.833
137.01
148.11
67.227
32.715
62.029
-0.5065
-43.659
-93.732
-184.48
-135.31
4.2966
24.597
71.715
84.247
18.144
91.681
90.519
-41.338
-97.329
-146.37
-186.35
-69.817
48.16
109.33
94.448
18.426
74.82
77.861
-18.27
-62.236
-146.4
-196.06
-69.411
99.692
104.89
120.84
105.27
57.728
100.05
-30.161
-130.76
-137.35
-194.86
-250.31
-122.66
56.847
110.93
130.31
98.503
151.02
251.64
82.57
-120.65
-179.14
-215.26
-231.91
-61.226
70.692
137.8
159.23
58.544
109.12
88.647
-57.699
-112.13
-187.82
-281.76
-131.93
114.78
184.77
148.86
25.906
68.882
173.1
38.011
-106.75
-117.21
-187.17
-213.69
9.8936
161.13
142.23
80.643
-12.407
90.685
145.85
0.5007
-51.542
-131.09
-247.34
-187.44
29.382
159.12
201.36
124.46
-18.915
43.788
54.143
-81.324
-106.34
-171.89
-299.83
-166.69
122.74
189.99
171.5
74.494
26.199
173.99
149.86
-11.2
-53.321
-174.52
-226.23
-3.585
184.6
188.43
121.45
-22.861
-46.697
121.02
63.585
-59.032
-82.459
-163.53
-157.03
-26.818
116.47
157.81
95.051
-22.673
23.028
160.6
51.799
-47.564
-104.08
-174.08
-136.85
13.574
124.81
125.15
54.664
0.99241
100.63
72.133
-24.074
-36.708
-184.27
-229.4
-122.86
21.222
98.864
143.62
117.44
63.587
117.27
108.18
-52.335
-148.49
-133.16
-134
-121.63
-34.845
31.037
63.805
46.71
83.12
218.47
88.721
-109.73
-170.98
-193.64
-176
-61.744
51.058
72.547
96.521
57.413
65.454
192.12
89.397
-81.655
-110.06
-148.5
-140.52
-22.083
14.044
16.819
39.343
46.203
143.74
177.48
30.619
-88.275
-165.51
-112.04
-32.264
51.939
64.424
-6.7915
-3.839
50.136
127.09
114.5
-18.292
-86.778
-144.81
-182.52
-122.5
21.098
94.588
115.17
61.146
93.357
160.45
-27.271
-139.81
-158.66
-184.51
-193.07
-75.312
19.323
76.223
133.71
112.39
157.3
99.177
-38.818
-71.704
-157.23
-217.09
-146.06
23.541
85.664
147.82
191
129.19
143.51
54.761
-103.93
-114.32
-116.34
-167.03
-65.622
17.969
9.6399
79.607
139.49
222.91
187.04
63.162
-30.536
-89.005
-18.892
49.505
31.677
-38.118
-16.322
55.689
52.575
9.1321
1.8359
-28.696
-96.742
-128.63
-172.35
-253.87
-342.37
-354.24
-193.02
43.549
174.78
140.41
90.266
-13.613
-157.52
-121.5
113.33
228.93
213.96
212.19
135.12
175.7
171.72
-53.17
-146.42
-166.77
-233.56
-160.07
25.88
94.627
130.47
93.623
79.697
205.3
132.18
-22.603
-118.36
-269.54
-235.96
31.528
129.3
97.598
130.18
51.76
117.08
167.98
-7.7981
-97.119
-196.19
-302.38
-137.27
114.64
152.62
146.24
68.911
36.545
200.95
107.77
-60.935
-81.788
-194.1
-262.24
-73.452
60.25
69.978
138.11
70.496
54.843
136.76
46.489
-31.384
-139.7
-273.71
-156.59
82.152
151.83
143.37
105.17
-9.7197
104.59
148.3
-38.076
-119.24
-156
-218.47
-93.38
50.597
45.177
80.445
30.57
30.013
168.2
110.79
15.592
-118.07
-262.97
-207.77
24.128
128.76
110.3
56.528
15.355
168.65
170.69
-23.318
-87.704
-158.75
-285.64
-125.17
138.24
148.31
97.487
27.072
50.37
157.81
46.426
-65.197
-87.343
-181.59
-151.98
34.252
150.52
131.91
-35.46
-137.12
82.212
207.67
15.608
-97.706
-112.18
-169.62
-112.37
31.716
87.4
80.106
31.604
39.972
160.97
95.738
-68.429
-124.34
-153.25
-202.84
-35.607
92.96
61.113
48.378
13.233
53.905
146.24
12.377
-84.368
-123.75
-211.88
-149.19
21.506
55.924
125.71
137.16
63.901
136.7
68.78
-81.138
-127.13
-136.38
-185.26
-90.253
28.03
53.93
87.453
43.525
43.575
160.18
29.226
-60.779
-110.62
-180.7
-136.72
39.401
102.54
62.738
53.833
-19.463
32.054
156.93
29.065
-70.93
-166.99
-218.42
-154.27
58.647
189.76
157.29
39.216
37.13
157.94
43.344
-64.251
-66.842
-169.8
-222.79
-57.802
93.949
125.82
104.12
35.612
14.288
119.96
55.551
-67.888
-127.95
-202.91
-208.41
-48.543
117.13
170.25
131.55
51.475
144.5
162.13
-33.252
-83.792
-126.12
-214.74
-132.77
55.638
90.598
65.361
1.6671
-57.363
121.21
177.54
-33.25
-147.69
-197.77
-214.15
-112.41
66.539
180.2
143.11
72.533
90.467
183.42
130.81
-79.861
-215.76
-248.26
-229.53
-110.53
80.044
159.19
153.37
99.599
131.69
201.73
19.075
-125.88
-166.9
-232.06
-185.25
8.2332
133.02
195.13
189.67
124.47
206.94
96.12
-95.496
-168.77
-292.12
-320.46
-127.81
64.228
158.01
204.76
141.21
160.74
140.64
-45.395
-74.08
-174.22
-287.91
-134.95
66.822
151.29
155.08
150.38
83.276
102.27
88.555
-45.986
-123.89
-224.69
-289.11
-110.62
103.49
137.05
116.05
48.407
70.364
227.36
117.26
-17.916
-138.81
-278.01
-196.48
74.164
156.07
133.73
127.22
39.505
103.33
117.75
-76.833
-165.13
-175.1
-266.57
-142.42
61.447
109.1
126.33
54.417
9.8289
190.32
103.75
-88.036
-92.957
-213.13
-208.79
12.709
94.419
78.301
71.191
-2.0405
111.84
155.67
0.21251
-48.931
-111.53
-239.11
-131.79
36.303
10.968
36.414
125.11
82.666
168.18
112.88
-97.662
-127.9
-189.25
-197.32
-42.784
98.3
128.94
140.13
92.075
72.374
99.216
-54.612
-136.47
-146.3
-191.35
-132.39
39.429
153.23
164.17
126.65
109.36
144.24
-11.527
-149.17
-116.65
-199.03
-239
-26.415
67.083
60.966
137.83
142.6
97.723
147.27
12.211
-163.1
-140.79
-192
-178.47
-24.471
79.858
165.39
168.44
118.38
55.747
-4.1824
-83.176
-93.978
-99.149
-181.98
-128.84
-20.469
22.649
64.317
104.25
101.33
187.56
12.245
-139.06
-100.4
-220.46
-246.87
-45.388
90.517
130.34
167.67
112.12
167.65
182.62
24.501
-21.108
-141.44
-246.66
-185.01
-78.688
-13.077
117.51
170.12
80.773
142.25
109.43
-71.849
-118.34
-191.29
-213.23
-79.941
19.159
70.461
54.283
39.061
92.683
165.84
167.95
18.078
-76.532
-128.3
-162.12
-64.874
108.7
127.27
100.45
67.601
73.382
205.15
87.436
-105
-134.45
-185.44
-213.91
-91.814
26.211
68.652
126.69
137.42
190.81
128.11
-44.481
-84.196
-120.25
-176.21
-124.7
-4.4045
81.181
138.89
187.79
166
81.931
-43.809
-125.03
-92.773
-115.25
-153.85
-122.6
-12.543
58.848
89.446
107.52
116.2
140.66
-14.078
-125.28
-96.288
-128.37
-168.48
-51.494
35.827
31.693
113.09
152.62
140.33
62
-45.681
-91.714
-146.69
-157.79
-74.748
4.7889
35.938
98.758
135.41
102.67
69.439
-28.257
-122.53
-141.77
-139.45
-124.52
-57.469
35.34
97.506
132.59
101.12
112.46
129.89
-77.768
-167.16
-145.99
-145.34
-132.41
-28.487
74.774
140.9
175.66
108.29
165.58
87.969
-109.52
-134.78
-156.46
-207.09
-156.94
-6.3052
45.518
113.53
155.8
146.33
175.48
-20.259
-150.64
-128.14
-143.17
-174.83
-29.781
101.25
73.123
88.201
96.439
104.89
172.42
-3.5856
-188.53
-161.59
-127.08
-201.14
-81.859
69.757
58.304
99.695
122.33
149.84
233.25
57.088
-96.319
-134.67
-190.72
-207.63
-12.095
84.856
67.53
127.28
98.612
85.933
136.01
2.0098
-102.26
-125.87
-217.12
-216.12
2.8222
75.003
99.628
175.64
152.99
205.81
190.89
-39.871
-161.7
-178.95
-257.07
-182.32
32.716
65.026
134.59
160.59
108.83
132.31
40.726
-28.578
-84.043
-159.08
-187.58
-47.769
48.581
51.456
151.12
154.54
167.27
152.4
-37.896
-160.81
-187.91
-251.08
-244.08
-18.378
86.411
175.14
194.71
162.35
177.33
72.453
-29.894
-128.21
-189.31
-170.14
16.321
44.767
33.277
140.3
117.26
91.168
123.18
33.058
-108.82
-218.8
-267.58
-170.73
14.575
24.943
115.48
168.55
166.16
195.27
27.531
-137.17
-205.69
-268.35
-138.72
110.88
124.13
150.6
151.51
162.01
181.85
23.846
-104.57
-196.6
-258.99
-243.24
-27.894
87.028
105.78
130.91
127.94
157.16
111.08
-21.436
-136.77
-210.59
-229.51
-85.717
84.248
104.99
136.65
138.78
83.771
96.288
-45.201
-193.9
-127.8
-145.4
-217.68
-113.08
-11.585
-3.0584
69.715
76.715
143.13
236.22
79.759
-86.763
-160.93
-212.25
-65.233
129.3
96.949
89.455
86.614
73.209
119.07
10.947
-132.22
-136.01
-149.92
-199.49
-85.196
19.928
68.169
116.66
82.694
160.01
134.42
-66.824
-112.69
-107.27
-178.48
-123.98
36.358
16.161
33.912
104.63
68.603
122.51
66.858
-72.096
-66.486
-89.846
-187.07
-69.247
98.9
110.08
190.67
189.22
152.28
152.04
-11.214
-134.19
-115.14
-141.96
-196.9
-120.07
-60.223
51.187
173.08
151.17
126
41.036
-110.91
-79.05
-71.951
-216.5
-224.65
-156.2
12.141
214.89
160.5
180.98
178.49
-2.6085
-104.8
-96.357
-158.76
-103.15
43.476
44.791
127.41
166.82
217.93
219.66
-42.49
-214.46
-147.05
-132.89
-207.61
-135.44
47.623
171.12
195.57
141.52
116.9
155.95
56.224
-121.66
-142.71
-133.91
-102.6
5.368
59.267
79.329
132.94
101.27
79.07
13.112
-112.65
-113.69
-49.957
-137.51
-154.38
-26.193
62.399
163.55
146.77
121.84
209.28
41.523
-118.83
-114.96
-166.53
-221.81
-77.508
45.716
55.636
104.12
87.805
28.759
149.9
101.87
-1.3183
-45.845
-187.74
-232.02
-74.433
44.774
105.55
148.21
37.604
123.19
110.9
-90.147
-118.93
-127.51
-178.95
-112.99
61.212
127.88
136
44.474
-72.972
6.797
10.21
-19.725
-30.001
-125.3
-198.14
-95.871
65.25
119.8
170.01
88.74
71.254
171.66
20.866
-139.69
-189.19
-178.09
-240.43
-181.91
54.19
177.83
172.24
78.128
81.132
136.86
48.645
-28.941
-142.42
-226.77
-170.65
1.8917
100.18
104.49
70.997
10.779
-47.808
33.803
23.933
-81.021
-114.44
-191.88
-152.82
33.051
142.15
135.97
55.867
-14.98
117.42
156.25
41.171
-28.386
-148.47
-292.91
-156.02
48.043
111.98
191.37
110.54
-11.742
126.38
97.635
-77.936
-118.33
-176.57
-191.18
-41.002
102.56
154.82
86.984
-15.586
105.74
261.87
94.377
-78.58
-150.53
-252.87
-225.2
29.984
136.72
100.62
54.678
10.18
143.91
203.83
26.573
-101.28
-199.35
-244.08
-100.87
67.395
110.69
100.82
50.789
97.125
257.19
135
-38.674
-116.44
-229.29
-201.17
-34.71
49.903
84.421
60.024
41.97
206.93
194.28
-30.106
-146.01
-186.93
-172.11
-122.36
8.0344
62.814
54.269
70.6
90.033
223.25
199.31
-5.105
-100.25
-178.18
-219.94
-145.34
15.487
98.924
122.26
75.693
57.628
153.98
43.431
-92.413
-136.01
-169.26
-175.93
-43.774
81.553
55.18
91.953
94.006
62.966
158.15
56.22
-75.806
-96.173
-139.14
-151.94
22.762
67.577
28.682
99.98
62.085
154.06
150.38
-106.47
-161.9
-140.64
-189.35
-124.31
4.4967
65.939
121.79
98.87
159.52
186.27
-53.075
-180.85
-148.46
-163.2
-174.51
-5.092
37.228
42.808
99.292
64.571
174.5
184.86
-86.501
-183.13
-123.86
-174.73
-143.86
24.218
78.789
124.26
124.93
103.16
191.12
55.634
-134.8
-123.91
-156.57
-233.81
-110.1
74.437
97.777
112.79
85.361
15.866
123.89
65.474
-104.99
-114.93
-108.92
-153.78
-69.353
90.717
122.85
133.75
41.686
71.77
206.36
-22.587
-171.53
-138.86
-173.95
-194.92
-92.867
50.355
145.99
152.6
80.222
100.93
85.753
-22.726
-75.739
-91.098
-197.5
-254.43
-83.241
97.422
182.14
194.03
61.071
76.278
96.986
1.4791
-42.359
-173.03
-268.51
-185.42
16.121
138.98
168.18
87.79
33.853
118.84
105.51
10.071
-38.117
-156.86
-269.44
-86.416
111.19
126.81
140.38
44.096
82.469
155.65
3.3994
-64.664
-119.72
-259.3
-216.18
66.344
198.29
187.92
92.995
0.48629
103.58
70.13
-62.953
-84.109
-155.83
-254.46
-120.87
108.46
151.69
123.01
51.645
3.2029
168.13
131.43
-35.69
-126.66
-215.43
-238.83
-104.1
84.745
129.33
120.75
46.349
43.458
226.7
116.94
-80.803
-140.33
-238.49
-234.53
-8.0643
160.73
160.74
106.39
28.078
82.115
171.8
40.498
-81.708
-129.77
-226.65
-191.33
-42.678
-12.361
7.8732
75.356
91.668
175.93
163.24
13.478
-85.819
-151.24
-203.39
-119.42
30.726
93.363
109.06
57.33
51.334
128.36
68.458
-13.303
-81.766
-148.36
-169.59
-47.516
51.8
32.182
15.502
4.2972
119
236.74
62.982
-133.35
-189.6
-167.72
-143.04
4.8496
142.83
94.915
60.284
78.447
138.94
176.89
-5.5435
-159.27
-170.17
-253.57
-198.63
77.928
79.391
30.03
115.64
181.35
236.1
159.37
-60.33
-182.88
-188.11
-194.52
-107.7
56.389
105.82
162.27
196.9
152.29
97.391
-13.574
-91.512
-125.95
-143.11
-95.864
-7.7868
31.104
27.87
95.381
92.898
71.712
61.283
-4.6984
-31.487
-106.1
-215.39
-186.75
-127.16
-60.117
115.65
204.93
123.19
140.07
80.506
-73.836
-91.827
-71.16
-146.52
-126.44
-30.377
-24.889
61.084
106.84
67.769
186.77
93.684
-85.543
-103.78
-161.86
-212.01
-95.276
16.786
108.26
152.93
59.277
128.57
141.02
-49.656
-110.03
-77.367
-154.94
-167.73
-3.3179
73.852
111.11
123.68
55.472
141.16
88.554
-81.709
-100.21
-143.95
-225.52
-179.7
8.4678
139.76
176.18
109.01
62.463
201.93
112.1
-79.917
-115.71
-185.66
-262.18
-142.75
31.29
80.559
100.22
42.677
-22.238
104.83
107.87
-14.141
-99.948
-160.16
-179.85
-24.314
156.9
139.7
90.74
5.6566
10.764
150.08
163.62
26.7
-134.29
-288.46
-367.69
-184.84
140.51
225.12
176.53
92.206
59.98
238.59
185.87
-35.93
-130.53
-275.82
-274.55
-8.8921
135.66
71.152
37.992
29.956
72.512
168.27
86.933
-104.3
-167.9
-218.33
-183.46
-33.171
47.682
66.572
65.118
65.429
243.01
277.14
41.917
-162.49
-248.76
-276.96
-174.32
94.553
180
104.4
56.192
38.401
125.62
201.44
83.187
-58.648
-211.4
-210.32
-81.905
56.463
90.05
50.562
47.079
110.91
178.58
99.557
-56.612
-166.34
-184.34
-127.39
-55.553
-10.454
17.33
31.132
57.599
151.43
253.16
41.182
-175.2
-204.7
-191.32
-175.61
-29.032
86.92
70.031
99.302
123.13
162.91
212.82
64.795
-110.2
-178.17
-180.36
-143.79
1.9607
34.231
34.241
94.003
113.17
207.38
126.54
-118.19
-173.15
-141.83
-204.37
-150.8
-4.8358
40.73
68.92
84.227
202.21
265.36
38.23
-174.03
-153.89
-177.44
-183.21
38.431
125.56
66.518
90.818
85.246
153.03
194.17
6.0593
-126.74
-148.11
-234.6
-268.13
-37.199
71.483
132.47
222.2
183.61
157.76
11.104
-135.9
-130.31
-151.59
-165.25
-114.52
2.1333
101.04
175.75
116.1
115.92
104.74
-57.579
-118.03
-134.92
-188.39
-137.09
-31.437
-7.6645
73.546
177.13
69.516
50.028
66.251
-61.09
-91.589
-122.33
-180.86
-57.343
88.039
165.36
254.47
190.71
118.33
74.668
-72.079
-144.19
-134.91
-169.58
-147.7
-26.39
24.145
105.2
136.51
84.155
135.1
12.511
-131.26
-91.233
-147.4
-223.31
-103.08
15.941
151.24
258.57
164.57
112.25
57.035
-92.877
-121.87
-100.29
-167.33
-152.31
-54.06
27.231
180.88
206.13
158.58
103.37
-63.134
-94.126
-58.487
-128.11
-156.55
-90.429
-31.759
90.846
163.98
128.48
189.13
22.799
-127.38
-96.594
-166.89
-271.18
-135.13
19.862
110.08
235.25
173.44
198.35
124.35
-55.801
-76.164
-137.83
-234.71
-142.44
12.202
23.822
119.15
144.33
135.92
208.13
6.0451
-168.99
-168.88
-202.91
-220.34
-87.747
42.445
172.55
220.86
164.32
256.2
136.31
-73.001
-113.32
-192.5
-260.33
-162.8
-23.666
68.141
188.64
145.55
127.28
183.74
-45.699
-116.5
-102.33
-205.47
-219.47
-103.44
17.431
167.32
233.43
139.16
151.04
69.829
-95.004
-102.87
-160.08
-264.18
-230.12
-63.144
110.04
237.88
159.89
99.341
184.96
32.169
-58.541
-97.661
-214.51
-243.21
-104.18
46.047
185.14
228.07
108.11
153.78
104.98
-53.586
-77.317
-160.67
-262.71
-227.99
-73.031
118.77
212.95
115.92
138.84
151.43
-39.157
-55.403
-124.33
-274.6
-253.86
-40.596
133.04
254.05
167.14
115.64
147.27
-53.581
-107.75
-99.613
-214.1
-237.94
-66.885
115.73
260.16
229.3
123.99
146.75
10.517
-81.438
-74.336
-166
-235.47
-130.93
3.6448
91.268
164.61
89.338
106.99
69.385
-103.64
-64.746
-108.52
-236.03
-197.15
-53.168
120.05
237.99
152.13
116.67
176.62
35.542
-32.536
-78.771
-187.9
-232.82
-146.64
-17.508
98.132
85.794
36.966
118.57
3.3718
-41.902
4.3409
-117.96
-186.91
-36.711
153.54
247.46
230.09
116.94
138.67
136.44
-11.513
-84.24
-171.92
-280.51
-233.76
-73.654
45.983
110
107.71
17.104
80.971
111.95
36.173
-61.321
-218.62
-340.83
-227.53
68.854
253.92
280.32
121.97
118.54
137.71
10.974
-37.162
-168.76
-269.06
-223.44
-26.82
110.81
168.79
82.456
54.319
113.89
-4.8947
-22.819
-106.27
-275.49
-292.67
-52.472
183.76
252.67
151.97
46.916
148.11
112.89
37.225
-66.636
-243.87
-324.67
-143.75
127.19
188.84
149.63
51.123
-15.116
84.698
62.523
-17.41
-84.492
-273.53
-280.73
-17.863
143.92
169.19
118.59
42.783
149.55
115.43
-1.7106
-67.226
-211.87
-308.73
-95.042
116.18
128.66
130.88
30.609
89.041
177.77
42.471
-48.374
-194.84
-336.46
-185.2
101.13
187.86
185.08
56.295
72.911
213.19
66.561
-41.032
-117.71
-271.45
-263.11
-7.2395
93.627
95.357
72.863
-15.154
118.38
132.04
1.4838
-75.247
-243.49
-295.86
-30.467
171.05
167.86
150.17
22.48
88.222
206.41
-14.529
-135.74
-186.99
-296.08
-185.67
93.149
125.88
83.44
26.844
-30.806
176.83
182.73
-20.947
-96.071
-252.15
-243.26
-37.717
75.473
65.747
52.397
3.8681
118.36
326.2
258.41
29.664
-199.19
-352.38
-241
-17.207
44.514
18.5
24.187
10.436
132.47
228.21
48.896
-139.86
-209.07
-212.61
-86
87.187
114.14
65.217
27.586
128.38
273.75
44.118
-122.2
-158.08
-214.99
-145.05
6.5437
61.01
45.658
46.251
71.813
206.37
140.4
-70.498
-149.89
-159.02
-179.56
-95.796
30.835
32.255
76.946
108.77
192.87
225.04
6.6277
-104.68
-135.67
-166.19
-144.05
-19.888
5.2399
25.226
79.867
139.75
258.2
70.303
-164.62
-196.69
-168.91
-165.55
-49.066
79.273
105.6
170.31
170.98
219.47
184.19
-6.5852
-110.31
-154.13
-147.3
-99.759
-64.315
-36.817
11.145
80.686
118.48
207.53
88.286
-71.092
-82.411
-46.855
-14.882
-25.884
1.3656
161.73
209.27
83.779
-14.824
-69.475
-89.024
-86.909
-38.875
23.537
-46.766
-144.61
-333.33
-484.61
-412.59
-219.2
174.06
190.99
53.96
33.088
-41.197
-56.639
118.09
227.02
248.73
253.58
151.36
206.85
125.75
-102.09
-151.95
-228.56
-256.52
-100.07
72.247
143.96
217.86
162.76
177.74
212.08
-45.668
-180.89
-156.21
-184.36
-224.29
-191.16
-33.891
157.91
186.78
172.48
179.27
-13.545
7.7067
27.319
-106.91
-69.196
-48.003
-26.501
152.56
185.77
42.211
-15.004
-55.198
-76.432
-2.273
-58.125
-256.68
-400.42
-358.79
-118.77
71.325
125.55
269.03
349.72
146.85
-16.028
-108.71
-204.49
-164.38
-73.815
118.09
294.61
271.37
196.7
80.583
-98.448
-131.68
-151.08
-236.72
-284.78
-210.93
30.715
226.57
249.25
140.28
132.48
148.88
20.736
-69.381
-129.81
-238.65
-255.82
-43.133
168.96
217.58
133.18
50.267
142.97
143.48
44.355
-56.745
-193.89
-303.62
-170.58
75.66
170.5
185.16
90.766
137.56
142.39
-8.4553
-104.99
-190.45
-315.34
-228.4
73.856
229.18
213.87
83.942
28.903
133.09
90.592
-30.987
-114.67
-221.41
-331.72
-120.29
130.7
146.01
130.97
28.414
44.662
215.68
73.368
-69.629
-188.2
-328.67
-204.06
67.246
162.76
152.63
97.208
17.444
202.31
243.95
-23.62
-147.39
-253.49
-285.8
-112.92
61.348
95.93
82.163
25.107
45.085
258.35
183.45
-61.259
-172.73
-237.81
-178.15
-90.093
38.33
102.26
82.184
93.548
144.62
250.17
170.86
-47.956
-187.5
-188.19
-196.46
-218.34
-109.76
-31.292
81.386
206.62
169.89
212.54
112.61
-29.497
-104.32
-199.59
-231.5
-125.31
18.26
91.835
174.64
147.94
20.693
124.36
67.756
-55.853
-64.034
-189.78
-288.14
-241.5
-13.386
202.23
273.74
212.93
80.753
6.326
32.472
10.895
-60.836
-149.27
-242.8
-160.09
22.692
96.894
95.979
45.593
-43.789
48.169
98.34
44.937
-30.429
-195.21
-256.06
-77.319
74.566
84.704
101.09
34.724
95.185
239.25
153.59
39.834
-170.73
-329.45
-250.2
-47.395
46.463
122.36
126.68
69.242
186.46
157.78
-40.08
-118.67
-206.24
-225
-93.452
54.378
47.098
34.462
62.087
92.916
231.98
197.58
-19.719
-136.2
-190.31
-209.07
-115.37
28.412
19.879
32.208
96.306
180.42
274.99
100.97
-57.347
-112.84
-160.46
-166.53
-79.513
-5.7447
-33.689
50.443
142.34
119.51
161.73
85.766
-34.137
-54.084
-107.22
-231.55
-221.81
-137.11
62.976
265.76
207.2
107.17
35.617
-64.29
-50.004
-65.768
-159.78
-237.42
-50.847
49.647
74.05
125.56
84.119
166.42
148.33
61.913
2.5882
-186.13
-268.58
-190.59
-26.87
130.17
254.5
176.24
71.025
19.96
-9.947
-39.062
-108.53
-208.32
-289.59
-170.95
35.115
142.36
141.84
20.298
65.793
189.03
103.06
-2.1035
-116.19
-261.76
-221.02
88.122
228.01
142.35
67.504
-40.964
-11.339
170.51
102.2
-31.157
-177.34
-330.08
-208.42
107.33
160.48
112.69
14.675
-36.384
173.63
149.51
-29.707
-84.91
-222.02
-276.56
-72.422
124.54
163.18
135.15
76.329
-2.2525
154.25
199.17
-52.345
-163.86
-227.2
-229.3
-137.37
60.306
137.38
77.899
64.457
105.5
142.68
149.32
3.6635
-97.13
-134.16
-176.87
-183.4
-70.274
51.946
85.101
132.52
101.96
26.661
109.97
21.928
-65.428
-13.845
-97.861
-235.12
-171.38
-8.3443
134.54
182.26
145.7
86.515
108.57
76.83
-57.017
-133.13
-176.09
-289.71
-243.95
46.631
170.78
145.9
46.254
58.004
195.52
141.58
31.6
-56.109
-171.65
-270.39
-95.172
119.81
124.78
69.455
-30.349
11.65
179.98
72.997
-67.207
-136.95
-255.22
-216.31
18.975
122.26
101.81
44.736
-42.421
64.9
249.77
126.37
-22.833
-164.38
-364.78
-243.7
69.801
155.38
94.809
25.129
-51.332
109.82
262.9
93.986
-105.74
-230.17
-217.46
-42.722
126.77
192.66
115.21
23.424
121.03
174.06
24.327
-112.12
-217.18
-269.87
-142.91
31.481
85.786
63.791
10.873
-3.3073
128.76
242.42
86.15
-90.289
-179.63
-133.76
-84.699
-11.37
76.576
93.263
77.626
74.104
149.54
150.84
-36.051
-131.62
-164.67
-137.32
-56.381
42.998
97.896
74.995
78.562
162.81
90.4
-113.43
-169.06
-199.53
-182.79
-97.297
-64.301
5.4736
60.291
85.123
150.35
203.65
223.11
52.206
-127.78
-160.01
-168.25
-213.71
-92.293
11.184
72.069
184.14
222.85
210.4
118.85
-44.58
-139.37
-157.21
-146.15
-96.933
1.0424
24.523
96.488
221.59
155.04
106.21
39.554
-101.98
-145.94
-94.899
-135.22
-157.09
-93.099
35.402
262.12
339.86
192.34
-26.556
-126.78
-176.79
-211.11
-167.85
-145.44
-169.87
-131.71
49.056
170.03
96.788
136.23
58.753
-123.32
-150.05
-129.66
-123.39
-26.085
90.02
127.09
163.25
126.97
124.91
59.799
-96.895
-193.81
-120.01
-110.4
-70.145
76.95
110.89
140.83
151.77
66.249
132.75
103.33
-80.639
-113.45
-142.28
-239.4
-108.41
19.647
31.037
141.17
140.83
136.01
180.71
-41.963
-136.61
-124.47
-228.19
-240.09
-121
-9.2738
176.35
246.27
174.24
300.13
207.29
-93.745
-185.88
-267.88
-247.52
-45.146
28.909
43.093
141.14
87.421
185.86
155.3
-90.812
-94.287
-108.7
-195.86
-128.77
4.0254
75.629
152.98
156.78
163.95
192.92
-26.722
-211.62
-200.43
-227.28
-236.1
-106.1
13.633
107.9
196.88
140.96
169.78
217.82
36.689
-40.447
-63.198
-89.122
-68.625
-111.09
-1.7981
166.36
183.01
85.579
63.43
44.174
33.397
66.684
-64.199
-276.01
-381.95
-332.86
-137.94
65.836
20.399
78.155
177.34
25.445
-61.667
-63.349
-161.53
-96.733
78.574
134.09
211.31
189.6
83.72
94.208
-18.436
-105.95
-50.823
-147.3
-221.11
-58.865
39.857
149.37
238.45
152.5
227.77
107.97
-122.3
-146.43
-200.99
-258.21
-185.61
-56.929
75.229
188.8
135.92
123.92
211.52
51.138
-66.639
-58.483
-151.9
-221.86
-51.44
86.067
80.633
98.433
63.886
17.415
91.181
84.779
25.641
-106.87
-237.66
-214.97
-87.248
122.22
247.18
194.19
76.997
128.43
28.824
-118.22
-69.94
-114.68
-341.4
-268.18
19.339
142.99
194.85
142.75
37.897
73.182
44.013
11.979
-74.691
-221.37
-310.31
-154.52
111.27
206.73
204
68.424
61.885
176.35
117.09
-12.769
-182.1
-292.72
-255.9
-50.26
127.08
145.78
53
82.364
139.95
62.234
25.755
-70.697
-188.36
-218.2
-11.998
173.15
159.88
80.426
9.332
70.031
180.15
85.182
-50.242
-146.03
-232.03
-228.18
-65.162
128.55
174.66
113.99
26.255
83.669
149.55
56.016
-156.35
-301.13
-282.66
-107.96
77.538
123.25
64.022
-31.874
14.917
189.77
191.66
64.148
-150.05
-353.33
-284.49
-63.354
117.36
135.32
51.377
-35.69
169.71
269.45
54.533
-69.218
-216.96
-264.14
-63.755
121.41
118.68
72.839
-38.405
-8.0631
248.59
139.86
-100.3
-225.05
-333.25
-190.98
102.06
202.97
127.79
63.044
-13.604
197.26
267.09
5.2144
-91.658
-215.32
-295.76
-98.508
122.59
134.04
25.077
-61.997
40.782
309.19
240.91
-16.219
-149.56
-265.65
-193.61
-22.747
19.285
28.577
2.0235
-35.339
154.2
230.06
-22.971
-161.42
-256.48
-293.85
-115.83
123.44
194.55
113.7
52.261
111
265.61
257.35
31.204
-157.85
-276.01
-236.75
-53.648
117.54
124.05
2.8571
-2.65
19.792
150.45
240.1
32.856
-167.69
-199.5
-182.03
-151.06
-50.639
-4.3914
-6.8448
100.38
123.58
158.32
134.11
-49.982
-88.559
-80.154
-157.71
-151.63
-71.582
64.024
211.98
204.58
111
168.25
52.219
-96.362
-85.184
-137.77
-207.34
-190.31
-135
15.912
152.76
88.889
27.132
159.77
91.077
-8.492
-57.582
-154.58
-210.66
-159.89
-12.845
145.79
162.68
37.57
140.7
188.86
52.719
33.109
-106.56
-234.28
-191.41
-19.51
156.53
216.2
111.54
42.349
175.66
76.312
-68.548
-122.3
-222.48
-260.72
-227.34
-54.558
144.62
195.42
51.733
85.892
131.22
10.775
23.211
-86.543
-196.63
-203.83
-122.75
101.48
237.72
197.16
42.361
23.672
3.7291
-41.714
-55.016
-166.83
-238.75
-215.23
-82.697
175.48
284.31
168.17
30.576
22.211
1.5965
9.5712
9.1044
-148.88
-302.92
-208.24
32.963
185.25
205.65
118.69
43.446
111.31
44.711
-15.335
-168.55
-306.55
-286.99
-55.067
179.12
177.49
125.51
34.107
28.735
199.42
174.18
66.857
-68.384
-265.02
-318.55
-131.68
125.5
175.72
81.957
-19.998
99.562
172.25
73.372
-41.406
-229.03
-354.5
-229.75
85.684
262.7
220.04
47.767
-16.655
138.52
109.5
37.116
-44.409
-224.01
-253.88
-57.433
98.805
84.576
55.247
-44.493
-3.7801
214.88
179.37
22.102
-158.08
-315.16
-262.43
2.7148
189.46
210.23
111.23
-9.2841
87.893
133.25
36.786
-75.311
-205.71
-288.51
-113.19
135.83
148.84
75.54
-41.731
-62.742
170.03
200.99
53.818
-75.422
-266.51
-336.75
-151.26
139.6
234.84
149.68
1.4786
75.481
141.76
26.108
-22.072
-130.7
-350.13
-353.59
-57.791
193.21
238.52
141.35
-2.4294
109.44
214.68
121.81
-40.531
-270.04
-323.36
-111.72
167.16
207.85
134.48
21.439
-67.231
108.73
150.6
-26.961
-92.623
-162.87
-279.22
-164.03
66.714
132.83
67.364
-8.5746
-58.431
138.91
309.32
116.43
-85.298
-277.81
-398.35
-171.16
153.32
182.78
56.219
-55.658
7.6121
276.53
209.73
12.711
-117.22
-315.34
-268.43
47.572
175.49
99.519
15.115
-122.15
4.9214
224.75
90.864
-45.698
-195
-326.46
-134.91
186.92
226.09
87.706
-10.969
-50.686
169.11
244.24
67.129
-69.546
-271.95
-292.95
-38.973
89.023
72.509
32.28
-60.658
67.279
261.68
92.095
-43.759
-163.75
-276.01
-110.89
109.31
130.95
25.343
-52.913
-69.308
151.55
328.31
121.81
-74.253
-256.02
-281.18
-44.281
110.45
123.29
44.749
-61.834
-21.701
159.1
126.81
-6.5069
-131.02
-238.73
-176.5
84.325
138.34
46.564
15.147
-53.647
98.601
323.33
149.64
-47.519
-229.99
-305.8
-88.929
93.047
112.08
43.147
-68.705
-72.85
213.84
191.41
-8.7945
-106.67
-272.07
-222.15
19.583
117.91
106.69
38.014
-55.269
29.619
263.6
158.97
-104.99
-204.52
-291.69
-234.48
48.384
190.87
113.8
31.031
-48.276
77.129
273.27
122.68
-46.65
-181.29
-299.66
-111.24
107.63
140.68
64.048
-50.742
-80.032
149.12
244.01
39.507
-142.69
-242.9
-303.99
-80.519
124.98
85.474
-20.564
-79.122
23.174
253.42
230.86
-8.5641
-159.61
-261.59
-115.46
166.66
181.63
33.266
-28.221
-92.658
84.576
300.33
100.66
-92.739
-218.76
-288.69
-89.124
77.27
90.975
32.808
-68.002
-17.152
257.97
181.94
-58.89
-145.17
-287.28
-256.22
44.474
179.72
97.255
26.615
-47.689
35.665
302.94
204.89
-30.05
-166.62
-293.38
-135.58
38.644
39.07
23.584
6.1298
-58.534
81.358
306.33
154.48
-60.34
-186.89
-278.43
-130.76
41.151
62.416
1.8859
-57.83
-49.903
195.54
295.55
54.071
-76.413
-221.36
-258.33
-27.09
122.12
127.68
42.352
-42.79
-10.93
97.833
228.48
112.53
-86.106
-191.86
-194.12
-105.44
6.946
106.04
72.535
28.046
45.517
150.05
198.52
-16.125
-153.91
-194.39
-210.18
-138.15
41.679
103.4
9.1473
35.995
102.97
173.1
286.73
94.607
-114.34
-103.55
-90.417
-89.291
-66.927
-28.817
-70.668
2.0576
44.555
17.175
193.95
133.44
-98.917
-81.048
-79.771
-130.24
-120.19
-66.432
31.264
147.57
109.1
0.80704
67.284
125.26
82.643
15.114
-107.97
-148.71
-121.2
-103.22
23.288
79.318
-9.717
-87.258
-83.623
41.181
180.14
135.62
4.2486
-121.03
-213.77
-132.05
95.183
180.51
111.07
9.9422
-105.88
-35.156
162.54
189.17
93.272
-90.115
-179.26
-26.757
95.299
133.58
107.42
157.14
181.7
82.65
66.372
19.883
-148.97
-375.99
-441.51
-350.99
-307.68
-297.24
-177.25
55.468
185.96
239.85
227.68
232.66
176.91
79.579
-106.69
-253.23
-204.89
-28.842
122.99
104.65
98.996
105.02
124.35
215.17
71.342
-133.35
-200.64
-173.44
-109.04
45.561
87.39
11.119
80.683
114.32
211.21
247.26
4.1087
-192.66
-208.2
-198.61
-136.34
52.884
79.022
30.838
110.45
85.462
164.43
208.83
-27.922
-129.94
-148.34
-194.94
-166.85
-5.4477
60.015
45.377
127.52
80.044
93.285
108.97
-70.499
-129.6
-137.32
-173.42
-129.94
7.5687
49.953
99.407
167.21
92.165
183.24
179.89
-39.376
-79.365
-90.125
-170.9
-126.17
-7.8882
5.5623
18.528
75.228
10.227
137.93
178.88
-55.958
-91.394
-68.352
-151.97
-147.24
-26.201
63.042
130.65
113.04
15.166
144.1
177.06
-36.908
-127.93
-169.67
-256.8
-173.79
-23.776
60.703
163.79
154.68
28.327
127.29
150.34
3.9133
-0.84549
-78.677
-202.41
-176.89
-43.289
64.377
111.75
112.24
5.8694
106.35
175.13
-26.916
-94.063
-139.66
-228.12
-190.67
-78.415
79.335
170.4
83.73
41.158
189.98
84.69
-69.54
-76.618
-120.99
-166.32
-83.021
-3.1013
36.387
81.704
54.765
6.5413
172.37
146.72
-3.5303
-53.707
-196.19
-267.41
-146.8
24.967
154.11
212.96
119.51
59.723
149.7
46.979
-27.39
-83.357
-244.02
-291
-151.75
16.952
133.89
171.74
66.758
125.16
218.19
36.922
-8.194
-66.118
-211.08
-189.27
-95.948
-14.243
71.416
99.175
9.3399
104.17
170.78
-17.883
-83.497
-65.822
-180.59
-205.25
-58.944
49.898
139.43
159.43
55.982
154.97
183.2
-72.641
-141.64
-133.44
-201.64
-133.27
-0.68775
63.444
131.12
125.17
29.607
176.79
154.22
-76.121
-68.861
-82.448
-183.52
-166.56
-68.98
13.525
102.42
117.06
53.925
171.23
92.779
-96.194
-100.22
-119.68
-169.59
-73.906
1.6364
47.933
133.09
93.704
74.961
229.26
135.94
-77.627
-85.489
-134.83
-179.63
-104.26
-21.755
-0.64058
60.717
40.613
85.544
236.3
34.075
-157.83
-120.27
-196.8
-230.18
-10.626
63.831
43.164
141.03
105.42
172.81
251.7
-9.4296
-167.93
-195.71
-193.66
-36.29
83.733
48.775
28.838
71.435
71.165
168.48
108.65
-108.84
-202.17
-167.17
-121.1
11.055
103.93
10.685
-26.328
29.006
130.65
268.21
106.67
-95.603
-196.7
-212.37
-138.52
11.119
72.585
-3.2592
-0.80842
82.329
175.51
298.06
147.08
-100.66
-239.35
-261.42
-107.36
120.16
158.37
65.396
-8.4877
14.946
207.65
110.54
-92.244
-138.14
-240.74
-139.5
4.5336
10.48
98.315
81.172
-39.849
54.973
229.54
101.57
-42.364
-65.243
-181.54
-204.18
-81.806
-5.3696
0.5338
2.361
-72.912
-41.166
187.67
176.23
5.3652
-100.89
-245.51
-190.14
111.95
233.96
132.49
53.106
-29.934
115.65
293.42
86.1
-99.973
-161.01
-299.46
-198.16
124.14
233.43
130.58
-30.679
-72.785
37.875
61.871
-10.784
-95.865
-228.32
-303.76
-76.033
168.23
176.78
79.189
-46.216
-0.074822
163.4
129.75
67.363
-48.119
-217.88
-198.65
-0.80642
159.18
120.9
3.2664
-117.3
-15.495
211.55
138.16
-61.511
-191.45
-306.25
-219.83
93.345
227.03
125.36
40.36
-53.255
-22.827
238.9
245.26
-42.068
-216.57
-325.88
-234.04
79.594
218.48
88.334
-0.21049
-71.454
14.129
282.4
214.71
-0.50618
-131.43
-322.92
-264.51
39.901
149.59
22.871
-50.13
-86.525
25.484
259.3
241.1
67.276
-152.87
-337.04
-199.42
110.74
176.61
71.668
-6.6131
-49.422
165.71
286.93
150.86
-46.805
-255.99
-339.48
-201.1
65.488
119.98
27.366
-85.237
-64.441
151.82
208.61
40.393
-128.06
-270.51
-241.02
19.008
149.45
106.27
63.109
0.39511
45.358
289.02
259.39
37.415
-110.83
-326.53
-350.92
-48.803
165
107.71
15.467
-69.545
-25.055
255.38
250.52
7.7175
-115.79
-319.51
-309.49
-23.71
123.85
125.83
31.191
-65.709
-11.149
117.83
284.91
169.29
-31.217
-196.02
-276.04
-139.22
46.771
112.12
52.153
-13.455
102.39
330.37
248.97
23.036
-158.35
-353.83
-333.56
-53.773
114.14
76.005
-23.476
-105.84
-27.692
209.98
292.96
97.159
-149.18
-380.79
-360.38
-89.7
164.38
218.31
155.02
119.1
243.34
373.14
194.06
-73.709
-285.91
-491.75
-416.47
-74.037
104.63
97.364
52.113
19.222
223.07
299.4
78.161
-93.881
-284.8
-365.64
-89.077
181.74
162.9
83.871
9.3221
-20.692
210.19
275.43
23.007
-180.11
-325.38
-345.3
-51.323
189.42
124.4
12.539
-44.206
1.0932
261.23
318.45
60.559
-145.26
-275.36
-277.17
-17.859
222.52
88.106
-96.593
-132.75
-49.546
235.64
258.58
18.408
-136.57
-321.61
-292.23
16.279
211.98
129.15
17.826
-84.544
-44.44
215.6
215.5
23.773
-108.64
-315.55
-334.02
-31.719
216.2
156.3
15.878
-80.378
15.26
252.94
245.8
70.918
-127.88
-347.34
-299.19
-33.901
86.973
73.212
93.273
26.556
92.722
277.24
210.57
13.781
-267.33
-410.39
-207.63
53.432
157.24
176.15
88.383
-35.191
95.98
211.44
75.975
-55.522
-208.26
-381.98
-188.63
120.05
155.24
77.305
-4.7013
-70.119
141.39
234.43
76.303
-62.156
-285.58
-365.45
-112.13
171.19
200.85
123.99
45.956
-20.323
101.83
128.15
8.9628
-92.458
-236.47
-369.73
-181.02
132.78
231.49
156.23
34.349
-35.023
177.04
301.75
127.02
-41.79
-270.53
-377.83
-140.71
121.73
162.38
82.077
-17.864
-57.227
151.49
193.41
-22.718
-118.03
-266.58
-324.7
-85.126
127.74
152.27
94.58
29.439
69.837
204.01
215.16
35.275
-120.74
-260.88
-298.8
-28.882
178.54
117.49
49.857
-32.101
40.806
272.38
153.81
-53.824
-181.02
-351.95
-249.03
74.776
157.92
88.63
16.378
-40.228
162.65
315.99
98.857
-83.601
-188.31
-363.3
-204.41
122.01
143.21
37.571
-26.412
-78.305
141.39
272.75
39.467
-162.01
-314.19
-309.27
-9.7426
244.97
183.98
56.675
-58.347
-0.67718
263.75
181.45
-72.616
-206.69
-351.71
-276.98
60.293
246.12
139.11
38.25
-48.401
105.99
321.96
161.66
-67.285
-248.56
-338.74
-150.95
80.034
155.56
77.435
-39.822
-95.317
119.33
244.25
66.569
-99.639
-291.22
-349.19
-75.112
199.51
166.8
63.233
-44.716
21.619
250.6
189.08
35.221
-126.47
-337.19
-245.81
91.682
174.47
68.885
-2.4123
-94.804
57.493
227.91
101.42
-73.154
-263.44
-308.88
-27.502
214.97
167.53
89.347
-32.437
-9.3969
225.62
184.69
-0.12235
-211.63
-376.92
-214.81
120.26
178.08
73.018
11.174
-81.68
68.801
247.83
132
-34.082
-244.7
-345.17
-76.514
199.83
156.98
52.614
-73.489
-58.23
187.56
162.77
5.5492
-92.233
-298.35
-319.65
11.947
203.44
102.55
-11.634
-131.3
0.99055
232.54
104.9
-39.763
-166.54
-342.71
-189.46
141.16
209.37
113.41
48.638
5.9007
182.87
313.02
98.02
-91.156
-232.76
-353.61
-106.89
166.03
146.02
46.929
-103.76
-7.759
236.29
112.51
-90.69
-218.53
-349.07
-214.55
99.901
211.94
94.174
-47.6
-63.504
173.83
345.96
138.89
-82.471
-271.63
-388.52
-164.71
157.29
173.87
75.486
0.94202
-24.881
205.03
233.39
18.945
-140.75
-328.34
-283.61
4.6985
159.03
113.07
28.285
-54.032
117.49
279.18
103.19
-67.179
-241.95
-343.4
-129.79
127.04
149.2
93.023
-2.6671
48.049
233.22
131.43
-38.916
-128.07
-307.16
-286.74
49.008
168.86
110.38
42.201
-30.906
153.9
252.81
68.881
-107.66
-327.48
-372.29
-71.372
191.26
159.53
76.184
-21.308
48.16
272.41
210.89
-9.4051
-178.43
-307.17
-232.15
-7.7112
73.692
62.6
-0.25436
-15.767
202.9
262.05
65.649
-64.165
-253.58
-337.34
-41.611
160.61
83.678
41.955
-10.234
91.624
291.35
124.29
-105.06
-233.88
-344
-169.1
136.62
157.01
78.459
-16.719
5.5118
276.81
237.75
-41.956
-164.1
-319.29
-307.09
23.668
216.79
106.54
-2.7075
-87.135
39.658
292.82
185.33
-90.398
-259.74
-310.42
-202.24
32.058
183.87
145.84
49.505
26.635
158.6
280.77
68.858
-183.21
-230.85
-234.22
-138.69
80.044
115.88
26.312
-10.795
29.914
176.03
301.68
82.819
-190.69
-304.23
-283.44
-203.31
32.761
174.84
96.717
80.042
119.46
128.65
108.1
-9.6471
-84.964
-148.58
-203.26
-117.88
1.3249
-1.4362
21.212
147.93
115.36
147.83
159.99
-56.245
-124.97
-111.22
-174.82
-83.289
47.196
93.57
192.71
148.63
85.625
56.276
-111.99
-137.79
-83.153
-184.17
-152.72
8.3389
13.482
94.554
144.08
112.14
145.01
24.664
-69.301
-44.973
-164.23
-234.49
-78.681
11.492
67.697
161.98
87.474
124.27
196.66
8.256
-84.173
-137.37
-245.87
-187.77
-35.385
87.056
204.66
156.78
42.04
48.456
1.06
-32.354
-94.415
-221.29
-216.15
-53.36
56.777
167.18
192.75
93.702
112.73
-16.194
-76.998
13.242
-100.21
-239.09
-150.1
25.718
165.45
234.11
122.51
31.767
104.86
34.446
0.41544
-49.133
-137.29
-174.31
-175.13
41.369
284.49
173.55
-32.426
-159.95
-158.44
-57.482
8.8925
4.5463
-50.712
-118.11
-108.22
8.755
65.764
-79.576
-18.267
156.63
89.086
0.95214
-113.53
-282.94
-248.51
-48.063
187.45
300.43
174.23
85.91
186.64
217.59
85.756
-57.046
-253.53
-415.98
-313.09
-47.929
213.8
278.53
108.25
50.24
195.56
205
103.87
-34.817
-228.27
-346.84
-223.55
52.495
152
73.369
-74.905
56.231
198.56
89.452
-54.941
-224.04
-333.54
-114.22
207.32
242.55
121.08
-34.968
-15.802
213.06
156.28
-34.138
-205.19
-376.46
-310.52
30.211
254.9
210.21
63.485
-29.863
184.04
280.94
68.603
-113.98
-323.78
-327.89
-33.938
164.61
137.75
79.119
-26.977
103.8
261.7
52.787
-105.66
-225.86
-271.73
-101.76
103.25
140.5
54.137
10.4
58.85
177.37
151.85
-20.957
-116.41
-195.66
-197
-98.481
46.08
62.606
11.3
82.235
66.217
162.18
180.15
-51.24
-145.32
-155.13
-184.72
-86.494
73.134
79.25
148.88
122.58
62.092
181.68
91.428
-69.512
-141.4
-252.73
-299.04
-136.5
57.87
231.8
226.21
55.154
18.698
-1.7588
-53.389
-1.5637
-74.963
-249.85
-233.63
-36.814
151.67
224.9
138.01
47.533
129.68
90.621
-6.9302
-89.422
-273.52
-409.44
-243.52
77.795
224.84
164.59
45.786
-31.885
151.36
247.56
90.715
-53.181
-227.12
-372.55
-142.8
171.5
170
111.55
10.017
-22.959
190.05
132.92
-84.505
-194.25
-332.47
-261.71
61.998
173.83
89.729
42.77
8.9325
143.11
303.75
140.84
-89.252
-236.38
-304.81
-162.38
68.035
133.93
1.3269
-60.539
111.45
102.11
204.32
227.06
-43.715
-150.4
-217.45
-184.55
30.014
134.43
46.894
65.207
45.377
-2.3155
138.35
99.3
-40.958
-57.743
-139.67
-279.61
-193.52
33.829
202.77
197.7
44.807
71.966
99.275
-3.1763
-31.736
-131.78
-304.72
-272.1
-14.577
201.66
210.63
92.884
21.021
89.548
118.32
74.112
-47.103
-258.7
-352.71
-157.02
160.73
216.17
120.65
10.706
-4.081
197.65
161.88
-30.634
-220.68
-390.97
-276.45
62.232
200.83
169.19
69.562
4.9348
171.32
184.06
10.468
-182.14
-383.84
-358.64
-16.428
195.02
175.28
135.98
54.68
184.26
246
57.575
-111.98
-284.3
-267.14
-7.544
113.73
84.534
81.781
27.334
84.186
203.2
137.69
-18.079
-174.13
-237.47
-158.65
-75.068
46.675
130.91
75.875
45.202
181.99
236.43
2.384
-176.1
-193.4
-198.16
-153.02
-12.011
17.078
10.647
25.095
43.566
178.52
146.71
-40.987
-102.96
-104.71
-137.88
-45.019
8.7231
-7.4219
64.319
87.832
67.569
116.19
31.361
-65.923
-74.778
-115.39
-166.04
-77.163
52.753
173.32
174.06
40.427
59.111
58.571
-28.949
-30.563
-112.01
-227.67
-154.68
-22.042
71.845
138.12
55.93
30.131
110.58
35.948
25.172
-65.23
-237.71
-255.13
-34.566
171.7
210.61
112.44
-0.47878
-1.9908
42.041
71.823
28.736
-81.998
-295.63
-252.46
27.594
142.88
161.73
66.927
29.29
116.58
67.72
-1.492
-150.29
-346.28
-249.88
81.003
175.11
178.65
113.55
-0.22937
133.82
168.31
36.045
-72.394
-252.58
-312
-47.652
96.91
71.219
43.62
-30.561
75.795
239.67
151.07
21.931
-178.25
-295.58
-93.282
117.36
125.83
83.639
19.682
11.999
187.13
145.31
-87.073
-182.05
-223.97
-161.79
-17.453
67.533
66.227
55.209
106.87
150.95
131.22
34.256
-61.178
-116.87
-100.69
-122.22
-66.892
3.4564
32.116
94.202
103.89
30.921
36.969
-34.534
-56.097
-12.301
-99.398
-163.86
-91.728
52.801
161.43
185.74
105.37
48.304
63.519
-4.4398
-15.606
-64.285
-232.52
-288.54
-87.844
106.41
136.22
91.937
-38.522
40.25
169.39
92.499
-17.09
-105.78
-220.99
-122.47
95.108
112.79
88.267
3.4899
-49.558
122.4
95.855
-32.84
-127.47
-291.3
-224.08
58.82
134.63
99.074
21.186
-42.488
155.57
194.61
11.133
-86.578
-234.45
-248.39
28.255
187.49
143.63
67.7
24.481
95.945
128.85
8.4734
-123.62
-229.85
-239.49
-89.226
56.084
92.078
55.599
33.726
56.179
226.94
150.5
-80.391
-161.38
-197.17
-184.04
-48.685
77.999
65.324
73.685
83.545
186.29
183.14
-30.285
-94.058
-89.584
-116.46
-117.1
-27.742
-10.037
22.249
99.567
90.373
171.29
199.56
25.265
-80.238
-133.05
-277.96
-250.3
-67.784
78.078
224.5
179.19
139.86
71.264
-102.28
-61.562
-67.051
-213.81
-211.47
-30.32
122.58
190.85
170.83
36.802
46.413
63.898
-15.096
-65.596
-112.42
-268.32
-236.5
67.953
199.65
144.62
55.67
-77.675
38.886
149.11
-14.795
-105.56
-226.07
-258.59
22.496
193.89
127.17
74.954
-47.942
64.057
159.95
17.346
-59.144
-234.64
-289.21
4.6858
196.68
114.93
53.663
-40.805
122.18
271.86
45.579
-65.205
-166.64
-311.76
-155.83
112.65
112.34
52.242
26.383
78.155
176.63
81.971
-31.87
-87.578
-135.92
-109.01
-22.448
45.801
20.162
-8.2553
52.592
98.852
228.17
163.97
-39.24
-58.84
-123.94
-266.33
-191.29
-81.04
-5.4935
121.63
98.151
174.18
154.3
-76.157
-66.028
-38.036
-169.26
-124.24
-4.0646
7.0055
130.16
129.75
105.15
141.63
-79.493
-123.92
-108.14
-232.47
-240.07
-43.659
140.95
223.2
170.75
31.524
119.55
85.474
-81.735
-108.58
-188.24
-277.84
-206.29
34.114
204.43
191
64.814
-5.8865
179.7
226.85
54.547
-95.039
-258.02
-352.63
-99.526
158.95
153.15
109.12
-30.812
38.307
202.04
91.772
-70.549
-261.25
-329.84
-89.811
126.65
132.65
89.226
-22.62
53.197
268.58
142.35
-13.887
-170.43
-302.67
-167.58
70.402
104.7
60.455
21.926
83.96
332.79
286.88
105.79
-16.556
-105.85
48.699
163.63
99.302
18.097
-1.9838
60.473
123.99
63.576
-30.464
-126.1
-167.04
-143.04
-231.02
-368.84
-562.58
-619.1
-379.93
-101
124.03
306.85
203.99
67.298
16.254
-98.701
-24.481
183.9
276.75
227.71
179.08
115.84
44.447
171.49
173.15
34.221
-115.04
-274.76
-297.18
-82.076
123.47
112.52
89.777
-11.455
-60.405
137.47
113.39
-23.86
-143.55
-334.2
-241.32
93.305
207.94
134.34
41.641
-34.91
167.43
261.02
60.649
-85.052
-274.52
-345.34
-75.894
148.87
95.209
0.61474
-50.418
15.092
220.29
205.41
37.369
-128.36
-237.62
-134.54
43.551
106.3
24.299
0.12958
37.285
208.81
253.41
40.398
-65.331
-124.94
-147.43
-83.143
-18.43
-25.327
27.737
80.205
74.503
131.96
-6.9509
-153.05
-95.238
-75.098
-119.11
-2.5609
23.001
29.484
107.67
73.802
181.32
148.56
-80.941
-69.42
-78.709
-172.54
-132.75
-0.51257
89.952
129.78
34.46
12.016
181.36
47.185
-135.32
-138.15
-194.02
-246.78
-13.934
191.63
161.14
58.655
-35.494
113.97
294.84
104.56
-75.854
-143.41
-293.46
-242.59
17.574
113.19
66.478
0.2014
-73.696
132.42
245.5
43.914
-87.748
-215.63
-249.42
-13.041
136.23
77.188
34.549
-53.985
-6.152
201.97
111.06
-42.258
-140.88
-235.85
-95.967
111.19
159.07
105.25
1.8642
83.847
201.92
73.308
-116.58
-237.03
-284.08
-192.54
-12.836
54.005
61.431
76.02
104.53
187.94
190.07
4.3081
-140.15
-181.2
-153.21
-231.03
-164.71
18.987
124.76
211.68
192.65
179.51
150.05
-35.6
-173.35
-166.82
-241.57
-272.83
-98.977
59.179
205.7
201.48
130.29
131.81
70.087
-1.5734
-63.998
-217.88
-264
-96.253
101.32
196.91
215.25
94.817
-19.851
61.086
70.705
13.261
-132.36
-305.88
-312.58
-52.979
194.84
206.02
144.09
-5.8442
36.846
139.85
-22.165
-106.55
-208.26
-360.08
-191.5
132.57
178.59
118.45
19.665
4.9938
255.91
284.01
82.877
-105.71
-291.93
-187.56
13.461
67.258
41.721
13.727
-39.093
130.75
239.69
0.27481
-157.73
-210.5
-194.19
-60.677
88.756
60.332
-10.562
26.266
133.54
274.19
223.54
4.6953
-145.9
-160.32
-120.03
-17.319
39.182
-23.045
-2.8636
17.788
61.811
200.55
50.563
-111.26
-103.07
-144.43
-150.86
-28.757
56.022
169.26
213.3
103.49
149.45
68.053
-112.7
-144.73
-238.98
-262.29
-98.547
67.14
137.6
154.03
64.508
3.0293
166.92
150.28
37.85
-66.654
-239.15
-323.45
-101.36
122.78
122.57
101.59
-1.6174
77.055
220.77
57.953
-72.532
-193.67
-342.45
-181.14
126.72
145.97
83.97
17.389
-5.8425
241.16
221.31
-34.2
-137.46
-276.66
-236.89
49.101
149.9
59.173
6.4466
-46.685
81.463
286.35
99.55
-143.69
-234.68
-242.26
-132.41
59.981
103.92
-4.9522
16.997
75.485
239.09
302.51
26.261
-132.95
-145.55
-178.07
-119.65
-2.5971
-14.529
0.9729
83.403
98.355
173.05
163.96
4.0993
-102.66
-177.68
-284.54
-173.58
32.214
133.22
168.78
103.6
118.59
189.27
25.308
-83.088
-166.26
-284.32
-208.44
-1.1062
90.558
70.444
57.561
-32.866
75.391
223.16
108.68
-75.958
-254.4
-309.02
-79.167
161.36
129.37
103.27
19.422
-0.03103
166.88
69.979
-73.882
-208.75
-386.27
-288.84
73.84
216.68
150.06
66.827
7.5141
233.5
300.03
39.938
-156.61
-324.27
-323.61
-24.687
172.16
81.927
18.948
13.761
130.73
262.32
69.641
-174.15
-303.79
-310.8
-133.4
90.098
172.98
160.89
180.24
214.25
295.08
165.29
-83.786
-193.27
-269.71
-309.93
-168.2
37.498
71.379
103.65
151.65
171.31
265.29
89.335
-139.23
-170.28
-255.53
-304.06
-87.54
51.696
101.26
194.99
131.1
179.23
176.44
-48.875
-59.198
-89.2
-255.81
-281.58
-92.462
60.237
137.89
113.84
41.442
114.84
151.21
110.15
36.429
-153.81
-313.92
-343.2
-96.808
143.88
158.76
143.59
60.381
51.3
248.65
96.451
-91.776
-164.57
-267.49
-144.18
61.315
108.47
81.695
33.237
74.064
295.47
192.72
-75.356
-103.11
-197.13
-180.97
-61.215
-50.865
1.6326
-26.286
-83.022
59.024
183.45
42.701
-56.597
-134.07
-142.97
-69.218
-3.7661
22.034
20.211
62.724
113.05
250.7
220.27
-7.1359
-108.18
-100.11
-200.78
-220.11
-47.451
31.044
114.16
152.35
73.091
158.29
120.6
-42.441
-39.608
-115.96
-183.66
-85.111
-14.776
40.229
129.01
77.088
100.88
171.2
10.235
-46.389
-92.971
-245.71
-298.5
-132.38
95.79
191.46
154.75
68.706
74.098
110.96
39.742
-5.4743
-80.252
-294.69
-264.61
35.033
149.03
113.73
90.102
-20.089
82.58
238.85
42.033
-98.211
-220.78
-276.46
-54.678
136.7
119.86
85.299
11.706
86.594
284.76
99.973
-129.59
-199.54
-293.46
-234.77
-48.719
36.174
45.786
40.601
91.744
168.83
290.37
143.15
-81.582
-170.76
-194.5
-170.22
-58.664
15.72
0.22012
105.86
146.11
182.35
236.49
55.304
-105.89
-130.31
-222.73
-262.53
-104.35
17.775
136.11
190.13
99.04
158.26
154.23
-10.747
-19.629
-87.456
-249.67
-289.37
-108.56
76.034
159.71
145.81
44.078
122.1
138.25
7.5674
-89.114
-212.5
-361.51
-266.36
50.112
158.78
149.98
100.26
26.16
202.42
258.41
50.846
-60.587
-240.54
-372.23
-94.405
141.19
107.99
95.756
25.824
82.749
187.6
42.492
-72.497
-189.1
-319.83
-208.2
32.253
129.51
122.88
72.036
80.316
235.95
188.12
8.4775
-77.608
-232.01
-260.9
-88.613
70.138
96.663
55.047
93.678
168.37
122.74
-4.1848
-54.412
-137.69
-185.7
-155.05
-63.666
40.765
61.328
93.45
122.18
127.34
94.379
-7.226
-102.44
-157.43
-153.23
-119.17
11.394
85.416
126.13
182.03
154.29
49.162
10.372
-11.478
-18.295
-65.185
-196.83
-217.34
-127.72
82.705
201.38
138.66
26.048
-62.066
4.9539
126.27
93.785
12.36
-150.14
-293.61
-116.41
49.892
36.619
57.589
-6.9243
7.1725
171.31
129.53
3.8258
-156.86
-294.87
-136.5
86.936
93.776
58.12
-10.811
-15.144
211.96
234.63
22.994
-113.23
-213.52
-261.22
-63.718
90.43
81.313
35.571
-9.7245
107.97
280.9
132.53
-46.36
-169.96
-252.12
-183.05
-9.666
63.837
51.975
57.38
93.131
242.97
202.77
20.494
-131.05
-293.57
-277.73
-108.03
48.829
25.548
23.545
107.53
147.9
207.34
139.21
-3.5018
-94.507
-157.89
-161.4
-75.562
-10.698
10.359
112.79
138.95
184.98
136.15
-15.826
-31.555
-150.58
-262.85
-255.07
-148.52
-21.788
105.16
142.63
99.29
117.19
77.651
9.1978
-29.077
-118.2
-189.41
-119
45.632
136.68
160.64
121.92
141.07
264.73
161.67
-60.3
-226.45
-405.08
-379.2
-96.075
86.33
57.268
52.162
63.916
155.98
206.3
79.724
-46.561
-200.92
-305.61
-124.53
91.709
124.54
126.33
49.82
105.44
155.31
16.273
-77.267
-219.47
-347.02
-203.59
114.9
199.26
154.88
73.052
25.579
208.61
203.98
31.951
-80.028
-241.32
-254.2
-38.106
68.885
53.076
16.741
-91.602
66.112
212.3
49.262
-103.98
-268.05
-278.51
-44.652
140.79
101.68
76.104
1.024
91.782
311.04
162.1
-44.742
-203.58
-322.43
-180.76
68.28
145.14
90.856
57.014
125.59
233.83
161.11
-23.379
-155.08
-267.16
-254.2
-142.58
11.248
68.827
69.024
142.62
201.97
133.49
55.472
-10.779
-93.074
-139.36
-200.84
-217.12
-93.785
52.401
206.77
231.37
194.47
153.89
18.044
-71.347
-144.22
-262.64
-307.37
-181.4
1.2767
187.53
264.07
179.86
220.01
187.24
-4.3091
-81.346
-187.23
-289.54
-161.5
1.3357
60.18
154.99
115.52
117.64
208.71
51.556
-54.897
-142.86
-287.15
-302.68
-140.96
79.269
177.98
173.6
76.347
122.27
203.32
90.618
-59.733
-216.31
-324.4
-185.42
45.051
108.15
128.18
61.854
40.994
196.82
160.46
5.5436
-156.13
-347.57
-323.65
-22.041
140.39
159.26
123.79
39.567
199.87
195.35
-12.528
-113.07
-268.3
-386.65
-148.39
134
132.89
90.788
30.622
69.629
293.54
209.85
-36.508
-170.36
-298.78
-223.89
8.7966
85.351
63.281
37.471
37.832
184.51
190.72
-1.9107
-154.19
-244.13
-190.15
-40.026
60.187
61.308
24.453
97.55
217.7
252.21
126.05
-46.786
-192.29
-213.42
-157.49
-103.27
7.5916
10.635
17.575
85.49
125.27
98.273
-9.2361
-120.77
-129.21
-152.14
-153
-48.967
18.056
123.09
206.28
246.06
214.62
56.474
-85.835
-195.83
-218.54
-160.47
-15.953
2.0067
35.085
116.41
116.56
203.44
147.81
-42.025
-117.63
-197.44
-270.78
-182.9
-23.652
114.37
204.64
181.06
81.594
112.17
127.32
56.934
-29.378
-200.34
-342.35
-276.23
-7.5126
161.42
141.57
106.03
18.304
13.175
164.25
155.55
28.767
-180.76
-356.16
-188.96
97.299
134.21
98.18
42.773
26.302
200.27
162.93
-17.44
-192.52
-325.56
-230.63
-18.441
128.23
163.49
123.88
91.426
176.81
190.04
82.064
-83.81
-300.94
-340.64
-153.65
3.7231
70.869
60.478
64.099
173.74
195.35
105.87
-44.814
-233.48
-245.63
-131.63
-31.846
23.805
36.186
83.889
149.22
202.65
183.37
59.706
-126.59
-205.55
-187.77
-162.27
-56.378
4.1211
75.108
189.77
226.72
196.91
102.12
-48.831
-168.39
-202.13
-235.51
-100.52
29.089
59.009
153.38
179.74
122.82
124.54
13.076
-79.928
-89.847
-187.24
-262.76
-163.76
-24.094
135.37
245.35
229.03
166.51
107.53
-1.6326
-111.66
-243.35
-296.1
-274.17
-108.58
121.25
226.72
227.44
142.66
26.026
39.511
83.165
0.54071
-167.75
-292.92
-222.86
-30.37
108.23
159
94.101
17.976
73.208
127.55
34.011
-139.88
-309.94
-251.48
39.002
213.01
214.83
126.16
63.778
98.079
130.23
59.144
-104.62
-296.88
-371.22
-135.56
70.898
128
112.69
36.387
119.6
204.04
116.18
-70.161
-263.79
-372.75
-168.25
91.666
157.55
190.02
124.02
75.347
202.83
195.05
27.657
-172.34
-370
-304.27
-42.821
104.56
102.53
25.575
32.716
201.93
212.52
84.827
-100.55
-264.27
-247.51
-70.949
71.82
103.73
57.958
49.442
184.61
184.78
26.918
-134.48
-224.15
-214.78
-135.62
-47.587
19.068
36.954
78.191
192.49
232.68
151.43
18.476
-93.281
-165.07
-191.05
-124.18
7.3262
41.22
75.142
190.27
190.51
149.79
55.299
-91.945
-100.92
-103.15
-228.23
-273.26
-122.83
88.892
273.43
276.29
152.2
61.021
-17.915
-56.914
-102.47
-217.45
-302.92
-224.93
-27.543
163.68
258.74
201.95
83.687
39.387
57.475
-17.57
-156.04
-287.5
-262.55
-0.63147
216.37
229.61
173.47
82.873
44.868
34.899
0.96749
-98.289
-262.59
-392.39
-231.09
92.791
208.64
167.3
82.754
92.363
275.81
249.39
48.39
-183.19
-382.74
-296.09
-18.775
120.49
144.45
133.13
99.711
75.783
-34.186
-116.68
-156.05
-226.14
-216.69
-50.403
123.98
202.64
144.55
129.96
181.1
107.52
15.975
-40.19
-203.49
-294.65
-182.9
-17.304
62.365
55.496
91.146
164.63
135.05
123.3
52.922
-108.16
-145.31
-146.67
-185.17
-49.517
61.496
113.44
215.49
206.49
110.99
32.196
-65.313
-133.71
-138.88
-203.72
-133.7
22.44
103.42
214.68
225.36
145.44
116.25
82.992
78.057
65.011
32.321
0.74495
-52.055
29
215.95
166.77
-9.5485
-91.603
-184.39
-205.66
-156.88
-242.8
-443.29
-574.03
-454.5
-164.57
103.73
173.15
141.56
92.772
76.799
41.57
-47.26
-86.574
-19.18
100.02
212.27
261.42
230.84
62.072
-53.424
-62.469
-76.374
-150.02
-241.49
-153.55
73.306
220.55
237.8
170.82
39.81
61.134
143.06
67.78
-64.792
-207.42
-283.47
-150.22
35.434
122.61
115.38
63.648
142.48
196.65
109.15
-48.451
-238.76
-365.72
-203.29
57.242
146.12
153.9
102.41
50.838
187.09
164.56
9.1897
-126.28
-350.51
-352.17
-53.549
107.79
139.37
110.27
61.791
176.57
222.13
111.87
-62.798
-304.43
-393.98
-123.65
100.65
141.51
129.68
111.66
204.72
231.57
70.833
-56.401
-229.85
-314.5
-257.41
-130.79
66.044
102.85
89.266
204.67
217.18
113.45
33.077
-76.865
-176.01
-247.08
-224.93
-73.624
27.706
74.152
151.36
205.16
223.69
134.62
-29.051
-151.94
-193.6
-266.2
-153.19
30.269
170.2
306.46
318.44
140.04
14.451
-40.146
-144.88
-243.24
-341.51
-210.82
-33.878
77.386
238.95
302.59
188.08
19.523
-48.295
-65.593
-138.2
-248.95
-283.47
-146.14
59.238
218.51
272.64
195.32
153.09
112.63
25.353
-80.313
-247.38
-366.02
-239.03
0.11661
211.38
288.26
206.57
101.54
44.875
45.405
-12.841
-183.24
-367.77
-344.41
-57.687
134.47
177.47
153.1
81.327
126.11
190.24
106.95
-83.573
-293.81
-404.4
-193.09
108.35
194.05
164.29
85.142
71.51
191.85
139.83
-19.153
-205.26
-385.4
-266.64
54.963
182.09
190.25
113.98
128.55
220.04
106.45
-41.19
-191.55
-370.39
-359.32
-78.622
106.33
120.52
75.844
68.182
159.46
196.14
123.14
-22.804
-195.24
-264.74
-207.31
-55.32
47.321
58.092
112.08
227.79
251.42
180.93
41.914
-157.39
-236.19
-252.91
-208.27
-29.387
50.929
105.95
183.36
159.26
144.97
94.106
-44.513
-106.79
-163.78
-262.96
-182.4
0.74728
197.67
307.05
298.15
180.2
0.71169
-71.3
-89.517
-163.38
-270.93
-322.06
-152.21
78.405
253.45
340.75
313.61
127.07
-50.752
-156.32
-205.61
-278.79
-293.02
-253.02
-49.189
180.03
183.64
122
51.922
99.768
192.87
126.99
-4.3959
-207.87
-373.26
-153.9
37.715
29.328
95.512
63.708
114.99
242.6
138.78
-1.3127
-140.59
-329.41
-276.12
-35.06
36.835
37.932
63.301
99.216
199.48
269.03
150.17
-46.415
-172.25
-231.16
-245.77
-86.857
33.726
93.204
191
243.31
203.1
72.364
-86.842
-214.68
-279.94
-287.67
-79.972
68.317
73.536
172.04
281.87
203.49
138.71
72.735
-65.561
-171.88
-227.67
-309.45
-201.25
-12.497
112.77
214.6
235.93
154.18
40.83
16.865
-3.486
-112.26
-280.78
-352.58
-155.08
112.4
258.34
245.31
160.69
49.607
42.864
67.33
-16.15
-159.6
-342.26
-273.47
27.343
166.82
169.48
117.49
20.84
118.22
192.36
47.453
-148.6
-342.57
-387.19
-104.42
133.06
197.21
213.56
106.96
44.345
117.96
66.349
-86.703
-292.19
-384.58
-111.64
107.46
145.68
130.86
112.79
226.88
266.83
118.73
-59.515
-241.12
-390.46
-266.41
-16.43
71.964
88.897
89.576
187.47
283.95
180.04
4.063
-187.5
-262.68
-258.17
-143.64
20.559
60.619
123.52
274.57
263.83
132.49
50.595
-91.344
-198.57
-266.3
-280.59
-109.75
17.37
107.45
215.88
227.27
235.47
171.64
-10.59
-111.98
-160.13
-285.39
-248.54
-95.043
-7.9844
97.458
162.84
110.99
135.23
133.7
60.736
-4.6625
-115.06
-269.41
-275.11
-32.463
158.15
224.42
169.46
70.389
90.778
102.03
9.5464
-116.84
-292.71
-440.36
-246.53
40.741
144.89
161.12
88.22
137.52
279.69
204.76
4.2997
-199.77
-371.04
-265.35
33.246
145.36
175.58
119.61
68.436
116.97
111.32
-8.1232
-111.25
-288.9
-363.37
-114.38
73.865
127.93
110.95
101.13
264.65
255.46
49.487
-112.67
-259.9
-279.73
-131.35
13.968
48.66
76.971
124.6
227.48
173.58
18.344
-106.57
-180.21
-216.41
-220.65
-67.921
73.255
74.424
141.2
229.38
175.33
156.8
68.757
-106.27
-172.54
-226.58
-241.98
-105.36
-12.772
64.718
191.5
188.79
150.1
99.571
-13.67
-70.365
-125.4
-259.45
-255.09
-91.488
69.232
237.15
249.67
113.55
135.56
132.31
5.8798
-149.98
-224.18
-165
-131.41
47.09
161.4
161.84
118.06
43.113
-7.0176
8.5825
-46.349
-191.36
-301.53
-208.76
5.9711
117.18
151.24
113.8
71.771
148.5
176.59
76.633
-102.78
-318.31
-368.33
-113.31
60.509
98.083
151.07
91.768
114.32
191.03
97.426
-54.587
-244.67
-416.4
-209.74
110.89
205.5
148.88
62.027
151.33
247.54
139.71
-56.039
-275.89
-449.55
-304.87
15.432
131.09
116.64
78.547
131.8
240.37
213.38
82.199
-117.56
-295.16
-300.9
-135.74
1.3911
59.386
102.85
156.76
213.75
205.88
112.12
-51.094
-201.79
-278.19
-251.72
-50.968
96.714
152.65
248.47
291.27
167.65
27.296
-67.754
-124.05
-225.9
-309.69
-162.19
-16.757
2.2963
93.122
214.45
192.82
123.76
27.37
-66.381
-65.556
-168.95
-296.61
-203.87
-23.54
134.32
231.77
205.5
162.38
168.04
87.078
6.0568
-103.66
-285.37
-351.65
-160.34
32.227
111.46
127.98
91.269
58.598
170.56
187.96
9.1607
-199.23
-370.29
-302.89
17.011
181.83
199.72
148.06
64.453
117.19
132.68
19.518
-125.4
-345.99
-384.75
-82.962
133.68
164.27
137.24
77.402
194.07
274.22
114.94
-72.203
-276
-412.35
-193.46
55.871
112.96
109.78
79.018
161.4
217.48
121.23
-22.852
-201.87
-302.88
-221.01
-39.974
72.692
86.028
65.996
125.97
192.05
229.63
139.26
-18.875
-135.91
-215.88
-245.56
-143.97
-47.405
20.373
138.73
229.89
183.27
59.625
-53.961
-80.861
-120.71
-240.2
-218.54
-80.455
-2.9808
147.06
267.02
205.85
181.49
119.17
-1.4619
-73.725
-214.68
-342.59
-286.27
-76.942
124.04
207.4
184.97
100.84
94.064
135.57
93.469
-68.297
-260.52
-330.2
-142.86
73.037
135.85
129.02
58.262
61.508
144.55
127.62
-11.61
-201.38
-387.34
-256.48
70.833
180.22
173.19
109.42
60.677
172.04
181.1
30.777
-113.11
-314.42
-364.06
-86.128
42.656
57.288
69.014
27.184
151.15
259.83
117.5
-47.259
-231.71
-322
-189.99
8.0403
118.48
117.79
113.68
183.8
197.08
141.08
26.575
-148.99
-288.39
-293.87
-167.39
-1.7745
68.546
100.99
211
232.28
171.52
87.892
-84.914
-186.53
-217.32
-229.73
-82.166
46.731
100.24
215.37
237.31
159.49
122.61
16.35
-91.41
-141.74
-269.83
-290.58
-128.74
57.839
210.18
199.04
140.68
166.06
115.87
25.871
-53.503
-170.41
-357.62
-395.39
-117.47
170.38
189.97
138.3
53.846
34.354
228.23
223.21
33.569
-177.24
-369.25
-329.37
-3.6095
151.93
113.48
63.477
5.8421
142
248.1
112.43
-66.843
-243.23
-298.07
-132.35
37.149
50.981
26.703
34.297
157.63
254.92
204.76
68.192
-115.6
-246.7
-226.83
-50.864
60.648
25.295
51.332
162.52
218.03
204.94
69.307
-83.048
-84.578
-38.825
-29.256
37.293
37.355
29.858
86.08
15.385
-54.656
-60.728
-165.8
-162.79
-118.48
-145.22
-228.97
-388.15
-317.88
-36.037
103.95
117.28
177.95
190.03
124.33
-0.43873
-173.87
-275.97
-98.779
172.75
279.25
242.1
116
32.666
71.182
72.685
-5.5154
-119.59
-293.38
-308.61
-27.908
169.28
173.38
114.91
-4.7886
52.426
206.81
110.11
-90.166
-190.99
-303.48
-235.66
87.786
199.01
118.5
37.17
-20.215
135.83
289.97
146.45
-32.659
-209.47
-319.46
-159.44
23.472
72.396
57.548
53.533
130.02
177.75
99.957
-18.96
-147.13
-212.29
-223.56
-101.74
78.9
94.1
97.947
161.57
177.89
176.76
58.987
-112.19
-141.13
-138.85
-247.01
-154.81
4.5078
76.955
186.91
189.48
108.69
124.29
39.277
-71.593
-125.18
-249.96
-315.5
-155.64
79.093
254.59
260.19
133.2
53.089
80.827
80.896
18.338
-119.17
-313.48
-308.08
-46.357
126.08
169.65
130.74
40.506
97.715
161.03
86.783
-72.628
-275.74
-394.91
-190.07
127.41
185.61
154.92
83.842
42.909
190.01
164.71
-5.06
-150.33
-341.89
-333.1
-22.28
126.33
90.851
31.65
22.588
206
302.39
120.61
-87.384
-287.62
-352.95
-137.64
64.958
140
114.97
72.885
154.36
156.8
53.19
-49.418
-180.89
-233.4
-209.6
-100.83
48.493
86.259
93.866
184.89
185.09
184.88
115.79
-60.927
-187.07
-277.13
-272.84
-65.382
68.403
99.835
192.85
194.28
128.84
126.77
16.693
-67.893
-92.073
-217.04
-280.46
-146.24
18.714
158.74
200.55
119.45
73.618
105.81
73.386
-17.377
-131.01
-274.24
-333.03
-80.047
162.35
216.37
180.25
97.458
71.68
147.04
71.786
-92.917
-230.57
-416.21
-339.9
4.8855
155.52
157.31
95.21
72.246
252.98
273.52
71.179
-126.27
-314.47
-383.94
-144.52
81.749
122.25
102.71
60.605
132.91
215.01
122.88
-59.061
-205.83
-243.63
-213.83
-72.483
63.667
66.009
82.048
192.66
162.72
162.37
175.69
-22.564
-182.44
-236.76
-323.76
-203.72
22.147
123.42
248.99
245.4
124.87
62.765
-62.285
-136.14
-155.61
-172.52
-111.31
-49.238
49.228
243.08
233.04
134.18
91.682
-69.172
-232.61
-256.5
-212.98
-86.404
17.275
78.61
222.63
241.13
174.9
166.85
52.465
-74.825
-156.68
-308.66
-334.97
-137.98
14.319
155.47
227.89
172.18
150.26
132.5
55.932
12.654
-102.52
-307.37
-364.87
-116.51
90.342
134.71
144.37
76.711
39.735
226.24
207.37
23.186
-144.86
-302.14
-166.65
138.44
222.51
244.01
210.53
136.02
91.021
44.96
-43.475
-139.9
-218.91
-285.31
-344
-300.56
-215.05
-111.7
44.584
169.35
167.07
122.45
16.133
-136.63
-267.64
-209.15
1.966
125.79
176.47
113.73
113.52
244.52
187.74
36.036
-133.96
-245.04
-220.62
-133.53
28.821
72.397
31.852
112.39
190.62
209.54
204.62
32.695
-148.25
-231.59
-274.1
-163.01
12.05
59.081
147.81
253.48
197
162.27
164.04
9.1805
-121.08
-243.28
-297.46
-167.34
-61.284
12.643
125.22
132.56
137.56
165.97
54.226
-12.38
-150.14
-271.38
-189.29
-46.483
76.311
162.72
194.97
149.05
145.52
103.26
23.413
-99.771
-283.05
-339.81
-162.07
77.068
184.85
183
132.38
120.77
102.83
24.062
-96.737
-270.29
-359.92
-183.62
69.65
202.75
203.82
124.02
117.29
138.69
106.95
20.602
-145.28
-314.94
-307.98
-73.309
122.81
123.94
110.72
87.13
79.05
165.96
85.857
-113.66
-289.34
-412.71
-264.69
62.176
175.76
134.85
86.715
118.97
275.98
253.03
22.309
-198.86
-394.28
-350.38
-39.949
130.78
97.048
33.949
11.271
178.48
266.1
107.54
-93.509
-292.8
-277.86
-13.224
113.38
95.03
78.439
67.642
155.47
253.12
140.07
-64.847
-254.9
-338.58
-197.19
-34.242
44.584
31.538
52.772
166.11
272.56
244.97
84.798
-113.16
-240.44
-174.2
-26.28
56.47
55.17
-8.1346
72.935
128.17
70.223
-26.594
-168.06
-209.77
-193.31
-158.97
-36.384
30.353
78.398
221.46
259.19
240.28
178.17
-29.899
-196.6
-230.24
-287.99
-181.04
-34.218
-18.18
101.42
215.65
172.96
221.22
161.6
-11.408
-75.517
-191.93
-312.5
-146.09
129.88
280.78
265.25
119.03
5.8639
-112.61
-204.34
-240.55
-210.83
-130.71
-30.248
166.42
234.02
164.51
139.44
5.561
-13.123
81.579
-4.6992
-135.23
-267.71
-404.74
-198.18
160.6
277.6
283.03
166.33
57.742
148.48
63.925
-129.99
-285.56
-426.68
-345.44
7.4661
170.22
167.43
134.78
60.927
196.41
294.22
108.39
-75.558
-269.62
-408.27
-165.88
60.305
67.811
30.754
-7.2379
66.993
247.44
218.95
31.584
-204.97
-330.03
-155.58
77.189
170.25
87.747
15.753
113.74
255.44
278.46
97.799
-156.01
-312.75
-274.47
-116.1
-14.952
-30.819
-26.26
87.703
178.24
225.49
161.05
-44.942
-166.87
-175.64
-206.79
-86.728
7.6512
18.559
170.75
301.4
234.89
105.74
-91.261
-229.63
-174.75
-241.43
-225.61
0.70409
65.298
148.96
251.3
193.02
93.592
37.42
-82.125
-142.93
-237.61
-306.44
-148.17
-15.517
129.05
237.41
195.8
184.77
151.83
30.608
-28.211
-99.753
-283.61
-290.08
-105.74
39.152
137.35
140
96.93
128.74
158.97
47.85
-84.833
-217.94
-300.78
-110.14
175.67
243.04
187.98
118.18
-4.2636
27.542
55.897
-8.5669
-157.45
-371
-355.14
-46.934
183.9
171.14
129.76
22.021
55.289
205.92
92.761
-127.94
-292.82
-357.65
-98.53
184.62
186.83
148.44
52.244
57.4
217.29
147.55
-54.044
-232.92
-399.11
-230.95
98.023
196.11
157.86
58.667
58.927
195.89
132.4
-53.017
-200.5
-364.99
-252.54
55.434
139.3
115.47
60.147
39.063
229.47
253.08
2.4477
-185.04
-336.9
-291.03
-11.979
119.16
85.751
20.201
37.054
195.66
233.94
61.326
-113.9
-268.82
-281.19
-101.94
65.771
106.87
75.91
90.843
147.98
166.78
102.69
-70.409
-214.35
-221.65
-154.12
-16.189
70.611
59.454
101.88
196.32
201.11
144.82
45.828
-94.144
-175.28
-212.33
-268.6
-159.56
-4.0708
94.908
174.52
211.48
202.1
103.07
-84.719
-190.02
-160.18
-244.62
-166.56
36.667
64.113
105.91
163.32
89.833
120
141.45
-4.8382
-80.064
-197.21
-179.22
-41.289
15.024
124.07
179.88
80.912
90.22
110.27
8.9208
-57.586
-161.84
-286.38
-204.78
-23.242
105.33
177.11
190.55
132.64
61.227
114.5
115.59
-54.694
-273.66
-413.75
-257.98
79.264
274.61
227.83
130.92
202.48
178.76
-37.792
-171.32
-244.59
-355.06
-333.15
-52.612
177.36
168.16
117.72
78.344
118.43
166.35
37.522
-108.38
-222.74
-306.41
-104.55
97.287
83.176
50.91
-3.3606
22.086
195.69
122.15
-91.303
-203.44
-290.5
-151.23
107.93
143.26
56.492
-21.143
2.4344
228.01
274.93
62.45
-105.01
-281.52
-291.18
-54.687
93.794
95.229
19.151
43.566
247.58
346.98
171.84
-111.41
-272.12
-258.09
-160.32
18.759
54.434
-1.1498
63.259
177.53
200.17
151.16
-18.629
-126.56
-148.26
-197.15
-98.674
30.042
52.469
102.02
205.47
175.27
229.67
202.31
27.474
12.772
62.648
-5.7444
-132.65
-105.94
104.12
213.41
115.07
18.968
-70.52
-232.97
-296.59
-330.59
-441.91
-531.31
-551.9
-387.98
-130.34
97.255
240.72
346.14
289.42
126.79
44.998
-47.403
-24.682
161.09
221.92
187.05
164.34
70.809
29.208
126.99
110.81
-13.259
-233.5
-300.86
-126.75
109.07
259.48
239.31
159.17
10.117
-42.871
11.906
-46.006
-177.17
-352.42
-354.77
-63.745
206.89
222.73
156.24
46.591
60.659
231.92
183
-21.008
-220.9
-419.45
-320.33
1.4388
125.54
110.18
51.219
29.71
200.86
304.61
136.72
-120.91
-303.52
-295.57
-79.244
77.647
105.27
69.056
8.5011
121.75
273.93
191.86
-37.214
-250.04
-300.56
-184.33
7.044
115.17
83.82
76.179
201.48
223.19
149.64
27.938
-161.42
-259.31
-271.91
-209.23
-26.137
33.484
40.762
152.65
172.19
161
186.8
34.579
-117.18
-162.66
-282.4
-235.92
-64.072
21.422
115.62
160.56
116.45
198.48
202.12
47.99
-67.248
-215.13
-368.42
-268.53
1.759
192.38
224.3
149.54
106.37
168.54
155.16
11.706
-141.34
-262.75
-339.61
-142.14
138.83
207.2
154.37
66.776
39.836
143.76
121.2
-27.019
-180.47
-381.31
-352.07
-22.23
149.63
142.47
87.135
28.54
192.57
298.87
83.851
-132.23
-287.78
-409.84
-197.52
88.477
127.48
65.322
10.54
148.85
352.41
250.63
-37.03
-242.85
-358.69
-250.94
30.83
156.26
91.681
-64.228
19.41
247.33
261.78
43.428
-173.83
-278.62
-310.61
-160.12
55.961
89.312
60.407
142.83
277.04
265.37
116.44
-92.478
-218.35
-271.79
-310.51
-75.579
136.82
101.06
152.47
194.22
143.8
192.71
35.49
-192.09
-224.55
-303.25
-266.04
-27.711
53.517
123.82
194.39
160.27
229.51
195.51
-36.033
-122.13
-210.87
-379.37
-226.46
26.586
182.36
265.13
202.8
139.35
150.34
39.254
-149.81
-252.22
-390.45
-347
-35.343
201.03
248.56
225.62
94.176
81.402
167.43
51.738
-136.92
-318.78
-412.87
-213.1
107.12
253.04
217.9
134.69
80.321
167.53
175.29
39.531
-133.45
-331.81
-404.77
-153.06
146.33
200.62
170.79
98.572
112.2
233.97
173.93
4.0587
-137.17
-255.2
-24.65
343.33
383.29
209.06
19.858
-20.883
66.74
31.933
-96.262
-205.92
-325.5
-338.33
-217.31
-239.26
-395.88
-449.03
-263.88
-73.078
46.443
156.69
8.8316
-196.24
-125.65
119.57
309.35
297.82
141.47
46.546
174.38
290.08
184.09
-46.397
-241.94
-305.5
-158.78
78.459
144.01
92.669
88.36
210.48
291.73
219.64
1.9537
-258.96
-377.68
-269.13
-22.671
121.57
68.007
77.625
170.04
201.19
176.45
52.859
-111.97
-230.04
-292.59
-236.09
-31.965
73.296
134.27
219.33
187.99
234.06
177.32
-28.365
-146.39
-239.92
-304.23
-142.06
18.871
102.28
225.83
195.83
134.86
230.55
119.5
-63.413
-178.47
-322.13
-345.76
-153.92
42.502
119.5
172.41
84.245
50.005
184.91
159.26
-45.739
-278.14
-369.87
-192.47
105.9
235.93
206.84
146.01
73.744
113.16
119.71
-23.98
-170.87
-336.08
-412.88
-187.47
126.09
211.58
155.14
53.174
88.419
290.68
257.84
10.777
-217.61
-411.26
-344.95
-13.543
167.61
138.35
66.798
25.971
99.002
216.24
138.76
-79.6
-294.88
-246.44
-78.06
15.556
69.307
54.481
51.545
153.72
195.86
119.32
-43.935
-212.04
-264.35
-192.59
-48.728
57.709
38.923
25.818
112.65
157.09
227.37
134.71
-87.471
-187.99
-185.53
-162.3
-77.343
-4.6989
88.155
194.05
164.7
160.89
146.76
-47.852
-144.29
-144.64
-252.35
-205.49
-27.358
100.74
167.77
133.31
103.33
102.58
35.117
-15.273
-40.793
-187.66
-263.43
-147.32
85.9
216.91
210.92
128.25
8.4572
42.74
43.697
-66.857
-216.7
-334.57
-246.47
7.2503
157.6
188.78
153.21
62.671
126.56
157.98
12.649
-144.23
-308.4
-313.34
-47.724
123.96
154.27
144.22
78.66
93.549
101.52
-26.792
-126.6
-237.43
-358.18
-163.51
150.63
205.34
129.62
56.347
5.3584
166.13
231.35
44.073
-151.48
-328.96
-309.31
-53.004
88.455
90.902
32.107
11.618
197.26
312.76
148.17
-68.323
-268.63
-280.34
-65.696
70.276
68.885
31.119
40.936
134.1
194.46
105.2
-15.792
-128.17
-223.56
-174.15
-95.219
-17.736
-40.394
-37.915
130.16
204.01
213.78
110.69
-50.468
-177.41
-172.38
-109.43
-19.224
-0.9709
5.5459
102.1
175.92
262.17
149.64
-102.97
-179.92
-136.95
-156.71
-61.606
8.8683
10.231
119.79
169.93
169.87
232.94
103.54
-72.066
-126.38
-190.35
-244.55
-170.46
-63.416
29.558
108.62
87.962
149.32
119.55
-22.11
-41.051
-119.39
-194.8
-100.68
-10.229
59.702
127.18
131.94
101.42
105.86
69.164
-63.211
-181.3
-312.41
-348.26
-109.12
131.83
165.6
165.04
162.18
78.332
146.92
130.23
-26.516
-213.06
-334.18
-178.49
114.19
148.59
84.716
40.517
-13.919
136.51
209.61
21.671
-150.59
-330.66
-315.7
0.83289
152.43
97.456
74.131
10.308
127.35
323.72
171.1
-62.722
-250.72
-347.07
-122.36
104.09
117.15
67.984
-2.227
86.459
280.9
140.16
-136.68
-276.34
-297.1
-159.06
31.448
69.141
-0.50744
-27.897
87.105
239.29
269.02
92.244
-133.25
-217.73
-178.83
-131.54
-24.413
25.092
33.152
96.162
175.79
200.64
100.19
-46.453
-159.19
-163.16
-189.83
-130.96
-10.702
54.436
163.79
234.32
171.92
176.96
96.741
-78.692
-133.47
-202.65
-234.61
-141.98
-52.032
84.503
198.19
173.53
85.063
26.714
-23.176
-37.156
-100.82
-221.32
-205.67
-41.915
152.06
199.4
162.69
72.08
48.653
115.35
42.496
-120.82
-236.93
-321.77
-220.88
76.803
188.94
126.19
64.893
-5.5831
141.4
265.04
86.33
-94.31
-281.11
-361.57
-126
68.646
94.826
72.899
-11.351
61.764
282.91
194.38
-19.221
-199.47
-335.13
-172.37
99.189
141.66
75.438
-4.6093
-29.684
161.27
269.55
108.06
-99.64
-272.78
-264.12
-74.126
56.438
82.253
35.633
42.493
143.67
249.06
176.5
-64.86
-233.86
-212
-190.5
-90.991
8.9122
-1.639
1.1058
105.57
188.2
247.51
124.55
-91.523
-160.57
-193.89
-217.69
-88.043
-1.5963
48.745
155.27
156.37
183.64
195.25
4.5887
-98.978
-160.37
-258.12
-194.81
-36.901
95.412
214.24
207.74
119.91
148.26
38.444
-97.19
-129.34
-258.45
-294.97
-112.22
100.98
215.31
196.09
109.4
111.74
131.11
56.659
-44.236
-142.83
-288.98
-328.87
-118.19
127.55
173.74
124.97
7.0716
-2.4543
162.77
134.21
-55.67
-229.66
-387.25
-255.38
54.144
183.41
167.1
110.83
62.245
227.99
276.05
68.174
-93.641
-268.93
-357.69
-87.369
103.08
138.85
124.58
23.295
108.77
326.47
244.52
20.904
-101.72
-63.522
22.155
39.065
57.631
58.862
52.466
118.1
88.176
-47.501
-180.13
-282.15
-383.05
-362.32
-316.37
-356.49
-391.94
-287.06
-70.677
92.638
247.7
281.55
29.707
-144.04
-70.548
88.626
215.25
222.69
138.65
162.73
226.57
231.28
127.04
-69.129
-223.14
-261.57
-189.91
-84.96
50.43
123.18
202.84
245.67
182.98
179.46
61.199
-95.399
-121.7
-149.88
-124.39
-69.328
-53.944
46.824
202.15
178.42
89.136
31.919
-92.994
-144.76
-230.9
-274.34
-94.732
45.802
164.75
232.52
151.78
42.82
66.16
82.182
38.284
-66.842
-202.45
-249.52
-103.73
98.557
148.63
97.198
-6.5356
-58.161
95.919
166.19
27.272
-122.59
-281.03
-300.34
5.0222
232.33
178.31
83.008
-54.677
-38.925
168.68
164.21
-29.508
-207.27
-233.58
-90.119
40.643
76.098
30.959
-60.255
4.3877
227.86
245.58
63.331
-106.34
-305.41
-319.66
-39.762
134.17
113.31
13.486
7.9774
106.31
137.64
106.56
-20.488
-169.54
-170.62
-105.53
47.056
149.64
43.713
-28.074
61.647
90.178
109.24
31.748
-141.83
-143.1
-133.89
-138.12
9.9754
72.271
105.29
200.35
144.47
39.114
55.4
-22.112
-125.73
-129.62
-163.32
-175.61
-58.523
84.65
161.45
120.95
15.998
-5.2455
70.822
68.423
-4.8484
-107.31
-281.43
-253.55
68.824
232.49
164.14
77.946
-21.071
17.933
143.81
59.569
-95.154
-247.37
-334.83
-109.63
172.63
162.01
53.839
-29.736
-29.257
178.92
240.45
21.683
-130.05
-284.42
-287.63
24.123
156.9
75.944
2.1146
-54.547
72.226
252.83
137.12
-70.619
-227.25
-255.83
-51.222
101.06
71.143
-9.019
-26.851
61.698
203.94
171.24
-13.128
-157.81
-249.01
-193.97
37.084
121.48
25.951
15.382
102.75
166.22
222.22
93.392
-111.65
-176.29
-223.75
-162.18
33.098
63.797
41.573
129.4
151.88
82.314
34.514
-85.575
-109.99
-145.29
-183.97
-106.81
5.2158
133.69
215.63
216.26
60.481
53.186
109.98
2.4848
-114.84
-250.44
-347.41
-168.58
89.967
138.4
113.34
65.878
-52.637
44.121
181.59
81.844
-98.862
-297.99
-345.67
-60.337
204.04
189.29
126.8
0.97582
2.0069
221.64
186.66
27.959
-157.88
-327.13
-179.91
24.781
146.05
104.51
-48.782
-13.732
161.62
151.09
0.8683
-104.24
-251.99
-210.01
-5.0161
89.97
92.123
21.047
-17.374
82.321
232.05
167.12
-50.827
-216.91
-216.81
-162.52
-26.683
49.06
14.39
78.425
178.51
203.85
204.27
46.729
-147.09
-161.56
-209.46
-171.45
-6.0032
12.685
41.104
139.21
109.4
129.77
138.18
-31.138
-69.578
-92.43
-235.7
-210.58
-39.777
113.2
158.19
135.71
64.152
33.233
159.3
119.57
-44.105
-179.42
-332.9
-298.38
32.539
199.49
156.14
68.642
-36.447
93.078
269.7
109.21
-115.87
-267.89
-392.86
-199.7
91.522
122.19
42.583
-14.099
35.378
217.06
281.56
101.72
-135.93
-314.16
-241.93
-21.967
77.169
72.574
42.353
57.128
174
278.46
160.64
-91.954
-242.04
-226.1
-150.46
-7.9881
25.156
-22.559
59.273
162.75
223.67
217.28
4.9767
-180.5
-198.49
-208.5
-118.71
8.0632
8.5698
80.811
170.74
140.55
198.68
73.005
-132.28
-112.07
-161.93
-153.25
1.8544
25.956
67.503
181.41
163.23
98.067
102.78
-20.116
-112.56
-183.31
-367.14
-289.91
-36.322
80.034
167.74
162.89
95.508
143.74
107.92
-14.642
-76.825
-217.75
-248.21
-40.425
105.33
121.19
125.78
34.458
-4.917
169.72
167.85
-28.213
-142.72
-301.02
-310
-4.282
150.43
134.04
65.464
30.268
171.81
237.38
64.488
-111.34
-289.16
-385.26
-116.35
157.93
174.39
95.966
-9.9283
57.932
263.67
182.79
-29.759
-198.5
-394.39
-267.84
67.218
142.72
72.477
2.5189
-10.621
173.92
234.67
76.555
-139.92
-326.78
-272.58
-33.582
87.018
82.685
48.627
58.235
191.83
244.07
83.74
-108.68
-258.15
-269.39
-125.33
16.662
75.031
76.162
149.79
240.02
234.86
129.69
-85.21
-210.04
-210.62
-222.37
-75.246
53.961
41.02
82.28
166.94
108.93
90.486
1.9685
-113.37
-104.43
-153.47
-185.86
-79.753
2.7441
115.5
221.43
174.78
179.28
148.65
-28.182
-78.39
-126.35
-195.29
-69.311
40.279
203.18
353.04
281.97
82.413
-74.419
-166.79
-170.46
-222.22
-240.41
-241.86
-266.9
-122.67
93.096
86.674
37.98
24.764
74.333
72.513
-14.008
-188.61
-314.12
-163.52
156.72
283.81
196.39
105.81
2.3159
91.05
146.88
5.3435
-171.27
-323.18
-288.07
0.34846
224.46
217.82
82.224
-1.1127
158.62
263.07
83.13
-123.87
-233.85
-274.17
-52.359
187.02
188.5
88.49
-22.231
80.098
190.45
32.536
-173.85
-340.48
-381.1
-144.38
107.9
145.85
126.42
65.837
102.3
244.19
191.37
-11.354
-237.95
-360.85
-231.53
3.2436
131.45
121.89
88.533
142.17
229.4
252.57
70.857
-171.93
-298.68
-282.09
-152.95
10.6
55.725
57.494
109.52
178.18
249
102.74
-161.84
-252.61
-227.7
-119.59
34.298
84.541
44.469
119.22
150.15
210.38
229.57
-18.875
-193.42
-217.4
-253.99
-143.61
-1.2072
46.554
163.63
183.36
126.24
213.29
69.996
-96.263
-118.32
-221.5
-224.89
-69.13
46.21
154.42
170.98
59.489
120.17
94.274
-52.179
-105.22
-225.49
-276.07
-132.72
52.626
175.16
172.92
79.155
127.04
139.17
15.64
-47.464
-156.7
-303.92
-210.15
17.922
114.21
117.6
60.785
33.485
193.19
198.14
8.7613
-129.36
-300.66
-319.79
-9.6968
181.51
142.67
87.088
-16.531
67.861
214.87
87.801
-71.07
-251.8
-374.38
-143.61
128.99
152.7
118.26
38.417
28.87
204.63
158.44
-53.182
-193.19
-353.23
-243.39
37.227
103.31
53.407
22.831
41.167
179.78
231.93
25.258
-179.02
-244.38
-170.35
-36.797
49.513
8.0924
-25.663
49.556
117.66
181.58
99.046
-40.138
-97.447
-67.36
50.881
102.09
1.2383
-63.989
50.365
95.188
141.63
71.139
-160.76
-205.04
-171.2
-154.56
-6.6793
49.694
51.791
148.98
140.42
143.8
162.69
-33.885
-135.46
-165.1
-221.95
-98.542
-12.732
39.622
132.16
110.68
57.888
103.6
26.107
-47.68
-67.615
-182.98
-208.14
-36.337
148.68
222.69
125.58
-2.8846
81.146
89.108
-47.943
-118.55
-177.84
-260.89
-102.77
113.16
138.46
62.561
-42.559
15.253
197.98
130.57
-53.832
-215.44
-320.83
-114.36
193.16
213.66
105.34
-5.9204
-77.91
119.51
184.6
5.7102
-153.72
-331.19
-215.18
132.44
226.31
119.68
23.045
-13.163
189.74
230.1
-10.373
-167.6
-308.5
-262.1
47.04
161.26
82.799
-6.1714
-24.634
99.217
184.82
62.502
-163.8
-247.99
-188.82
-70.456
66.622
51.9
-11.738
81.164
174.44
255.65
166.81
-115.32
-209.77
-130.75
-48.445
30.199
6.3674
-59.541
9.4927
52.267
123.39
126.66
-83.173
-105.58
-48.804
-80.011
1.0761
41.138
19.386
114.03
91.336
49.997
117.66
-11.019
-98.294
-122.87
-172.72
-83.262
21.507
90.182
129.46
85.858
-21.295
52.391
81.878
-4.2848
-60.115
-168.14
-262.21
-89.183
142.62
174.32
105.95
-1.4627
59.344
155.61
24.04
-80.136
-189.46
-273.07
-106.44
96.294
108.27
69.525
-29.699
-44.505
171.29
173.88
0.12658
-165.74
-316.87
-156.23
131.23
139.94
53.282
-10.385
-40.527
174.59
208.4
-24.218
-160.11
-295.96
-219.83
66.438
147.53
68.617
-28.044
-28.744
167.01
276.1
78.758
-125.11
-258.17
-263.92
-45.39
95.379
30.989
-60.002
-7.6354
109.84
219.57
104.92
-118.33
-147.35
-75.39
16.662
95.375
62.582
-9.9207
57.127
81.421
135.45
145.63
-70.025
-172.97
-175.24
-181.5
-43.178
16.647
59.079
211.2
172.95
98.614
132.52
-43.546
-120.82
-123.47
-203.45
-143.66
-35.239
51.175
150.38
99.18
51.019
133.33
58.616
-34.336
-64.535
-177.17
-247.78
-42.755
206.61
258.75
199.52
90.792
103.52
196.98
149.43
73.913
-30.047
-186.53
-138.16
63.384
124.73
70.141
-45.461
-87.145
-56.268
-103.65
-192.67
-271.85
-459.67
-475.04
-232.42
-100.07
-47.706
-23.955
38.905
176.14
259.5
127.85
-145.4
-239.5
13.41
215.09
209.25
116.46
20.346
74.799
261.56
244.1
32.795
-191.22
-297.38
-125.45
48.167
58.752
31.436
6.1855
33.982
231.52
255.75
19.852
-170.97
-214.29
-160.69
-34.404
49.556
47.075
73.872
111.92
123.16
232.84
131.8
-105.42
-164.28
-216.51
-193.18
-64.919
14.966
125.67
188.73
145.33
121.84
85.263
7.2385
-29.58
-150.09
-253.14
-203.83
-18.93
154.97
167.11
84.582
33.049
20.903
50.418
-10.153
-146.01
-242.22
-184.79
102.85
286.36
272.31
188.89
78.123
152.25
212.86
67.644
-67.211
-185.62
-405.59
-324.08
-47.757
49.297
23.992
-28.315
46.674
28.552
-125.16
-130.9
-122.07
-199.17
-168.5
-111.16
1.0942
67.014
99.541
282.3
361.66
134.36
-106.48
-277.5
-288.32
-46.073
147.64
169.23
94.388
42.878
144.68
244.37
117.43
-67.901
-217.84
-246.03
-146.92
-81.265
-4.8576
19.996
35.061
63.455
148.49
185.9
26.203
-73.386
-84.842
-128.45
-137.87
-73.83
59.518
187.08
193.24
112.75
134.02
48.882
-113.91
-158.74
-195.8
-190.81
-72.776
30.217
72.866
108.61
28.716
-28.401
118.43
156.35
19.664
-109.43
-278.9
-265.34
45.692
189.5
126.9
24.07
-61.259
108.26
208.7
52.045
-134.19
-329.22
-291.77
-12.696
134.45
105.39
6.4287
-62.695
75.525
224.68
135.03
-70.69
-194.36
-109.05
13.065
105.43
148.77
72.978
62.847
135.66
149.02
89.599
-36.91
-169.39
-193.52
-175.01
-147.82
-56.888
-25.365
66.694
184.13
178.95
148.54
51.714
-84.342
-119.16
-156.8
-177.54
-84.937
21.171
137.78
186.72
138.29
173.09
128.47
-11.472
-105.54
-196.27
-282.38
-217.62
24.001
194.3
167.3
73.432
84.089
183.41
159.13
19.819
-130.59
-314.43
-348.33
-72.107
153.47
140.97
57.761
-33.041
83.436
236.52
96.725
-101.18
-249.32
-268.94
-34.101
139.22
100.05
48.239
-28.884
30.948
201.56
114.8
-64.861
-211.43
-266.38
-111.77
33.737
59.836
0.45155
-1.94
134.3
248.45
206.22
7.1197
-164.62
-172.53
-143.14
-83.947
-0.9005
1.5405
20.457
106.31
91.174
134.64
83.947
-75.942
-68.456
-106.11
-162.25
-82.844
9.7864
102.69
166.49
86.592
60.273
118.73
18.054
-83.228
-152.53
-212.51
-193.78
-13.206
139.38
146.87
67.014
11.526
88.378
88.137
-4.161
-72.839
-226.3
-276.82
-5.4259
159.43
125.5
75.889
-22.398
26.837
145.85
11.019
-80.133
-188.31
-285.27
-43.538
170.33
138.52
41.541
-19.794
78.001
211.74
104.99
-77.695
-217.58
-270.49
-93.326
93.967
112.46
-2.2025
-25.743
57.477
110.19
175.44
26.512
-171.39
-135.39
-86.528
-82.676
13.842
29.79
84.127
153.06
97.584
131.62
103.33
-91.035
-116.08
-142.73
-193.63
-74.777
32.129
115.16
139.88
48.399
28.138
106.79
72.347
23.461
-66.064
-218.56
-209.15
-11.609
137.74
127.19
64.172
-28.318
39.503
145.51
17.845
-125.22
-244.85
-271.05
-3.9447
204.61
142.08
15.684
-50.302
84.004
247.39
114.54
-77.802
-223.26
-304.95
-72.908
103.36
70.863
-21.322
-48.719
37.557
171.1
200.86
10.794
-170.86
-174.9
-108.42
-23.507
54.604
16.08
-0.30891
58.451
122.58
247.27
116.45
-133
-144.84
-161.44
-178.95
-36.615
41.415
118.49
183.98
112.72
123.42
123.18
-20.569
-76.401
-125.22
-208.8
-153.43
-33.76
76.454
97.249
64.298
-42.301
35.694
192.91
75.839
-90.324
-228.43
-297.13
-67.863
138.7
102.75
30.652
-32.628
14.161
193.64
123.39
-74.644
-219.49
-283.35
-119.57
74.042
122.61
19.97
-38.318
117.34
260.82
173.28
-57.921
-204.2
-192.52
-135.63
-17.965
68.808
18.992
12.262
102.69
148.29
216.71
99.885
-83.83
-74.575
-93.811
-187.5
-132.85
28.172
176.2
205.08
131.6
89.197
92.893
20.751
-74.479
-148.44
-276.89
-341.92
-122.51
151.39
175.96
73.659
1.8288
86.342
263.42
159.2
-57.264
-198.86
-341.24
-195.26
95.044
129.69
37.043
-37.137
32.314
213.61
214.77
16.158
-184.25
-204.72
-121.06
-27.184
67.508
50.048
13.753
102.81
152.83
176.89
114.56
-52.87
-131.63
-149.48
-230.83
-144.09
-7.0919
82.214
178.06
140.24
77.053
93.548
28.309
-32.87
-62.95
-190.06
-257.6
-92.399
96.319
114.6
61.059
27.705
-13.488
139.93
217.56
48.491
-185.42
-326.7
-184.7
66.648
142.07
75.078
28.5
10.081
79.611
147.82
46.653
-134.22
-268.42
-193.06
-28.885
84.848
92.14
53.938
162.28
176.82
99.868
64.639
-50.784
-138.01
-204.74
-210.92
-90.33
15.627
65.1
147.97
182.75
79.404
110.59
99.337
-1.4713
-87.357
-210.49
-286.16
-174.79
44.972
127.32
126.83
86.516
43.862
183.17
169.14
0.67181
-177.96
-337.8
-240.07
37.101
122.63
113.36
76.353
37.117
120.45
79.199
-82.522
-203.6
-299.01
-172.49
25.127
102.16
95.024
64.747
115.69
259.8
315.98
147.38
-72.826
-218.23
-282.76
-223.83
-70.412
-69.152
-85.487
60.821
118.85
192.57
222.24
-13.998
-88.887
-135.86
-212.63
-97.873
-10.539
37.9
160.15
173.2
116.76
176.95
123.81
-31.708
-168.11
-258.47
-324.07
-143.74
140.95
246.79
222.22
157.66
156.99
235.44
222.58
95.244
-36.176
-190.28
-199.28
-61.481
20.905
21.945
-20.682
-15.899
39.951
-36.533
-129.18
-180.07
-353.7
-395.62
-239.52
15.141
211.84
214.15
197.26
215.84
145.63
43.095
-45.836
-97.352
-36.689
-67.104
-305.1
-459.47
-362.84
-156.28
8.3685
139.04
272.61
164.55
-5.1131
-75.682
-137.7
-8.889
133.35
199.75
213.85
174.57
112.87
81.611
89.643
46.58
-69.05
-215.67
-269.28
-82.393
146.96
199.91
150.09
104.94
160.68
161.12
-3.6907
-157.55
-323.11
-384.3
-115.45
163.11
185.12
115.59
41.817
120.33
273.9
173.42
-32.084
-237.95
-386.1
-180.19
52.644
86.405
49.249
7.0156
64.451
201.46
187.12
5.8162
-182.11
-222.09
-99.645
-16.295
5.8457
-4.919
43.265
150.77
197.1
238.23
89.779
-134.62
-172.77
-172.96
-135.88
-36.401
-40.19
59.079
170.92
118.42
151.32
109.63
-34.333
-71.828
-171.48
-255.32
-180.4
-17.226
132.71
192.33
124.98
116.46
183.47
59.851
-80.397
-201.7
-353.3
-263.06
16.866
120.68
115.35
83.379
74.925
258.87
240.96
23.121
-126.7
-324.92
-291.54
-18.718
76.344
31.688
1.8761
-3.3679
121.83
243.05
129.79
-86.527
-248.61
-202.48
-66.179
-2.7869
15.786
22.196
111.2
201.76
243.72
139.17
-97.828
-242.43
-237.93
-165.12
-32.076
33.712
29.113
119.42
159.43
164.2
153.83
-23.007
-104.16
-97.867
-178.37
-154.67
-75.538
32.718
196.85
209.98
135.64
131.2
53.046
-24.473
-78.255
-215.73
-248.47
-128.75
-1.1424
79.402
94.082
43.047
110.3
123.56
14.315
-88.437
-227.28
-248.74
-49.038
92.026
98.449
102.81
34.182
124.68
233.67
46.322
-116.88
-243.54
-309.71
-107.86
32.357
22.287
-6.2924
-9.3788
128.19
276.04
159.73
-71.638
-219.04
-195.64
-82.894
-4.0988
25.098
10.285
41.9
146.37
261.21
210.52
-39.801
-206.08
-209.26
-188.05
-70.411
9.9404
-7.0775
101.41
171.56
137.41
185.68
68.866
-67.355
-96.598
-190.34
-153.29
-18.381
11.445
94.295
133.39
66.833
70.982
56.405
-7.0642
-75.453
-189.97
-324.33
-194.74
112.94
225.81
147.67
54.648
18.14
183.49
181.81
-8.7304
-195.49
-380.08
-266.22
17.904
126.36
99.4
8.5183
8.1806
222.26
289.85
69.328
-172.8
-323.78
-181.63
44.085
95.098
67.34
-3.8843
61.072
255.62
212.1
22.729
-134.64
-196.79
-160.46
-145.87
-68.198
-10.701
19.842
157.97
186.04
183.27
137.87
-34.312
-87.447
-115.54
-215.72
-143.33
-30.23
39.797
109.56
92.597
94.813
164.75
84.645
-17.839
-92
-241.92
-275.83
-60.128
119.33
156.52
103.48
38.859
132.3
237.15
106.66
-67.808
-229.13
-347.9
-182.96
13.865
52.963
43.234
26.905
116.81
243.12
126.37
-49.103
-239.98
-271.02
-72.146
37.14
45.462
19.463
38.855
139.01
219.95
184.64
2.3306
-158.17
-186.75
-168.15
-81.49
-18.292
-22.038
78.572
213.98
177.59
129.1
25.103
-115.56
-159.46
-230.05
-192.6
-77.276
-32.265
57.817
167.45
130.99
108.38
158.74
97.206
-16.609
-138.73
-274.05
-239.27
-33.601
94.618
107.88
80.662
39.451
174.4
224.06
44.532
-133.86
-307.63
-243.76
10.938
164.77
152.99
-46.8
-119.56
57.592
244.04
164.06
-36.39
-269.01
-383.69
-162.47
17.213
43.19
33.412
88.278
157.75
253.35
273.83
88.885
-76.374
-116.49
-127.41
-92.294
-10.641
79.822
263.72
367.12
216.75
18.616
-195.79
-267.91
-165.1
-138.12
-185.61
-301.4
-214.45
56.058
136.01
103.19
17.611
55.758
54.312
-53.429
-177.93
-316.49
-276.37
21.743
200.52
180.49
132.45
87.738
205.73
246.08
68.355
-142.86
-363.7
-337.55
-43.43
155.99
153.73
105.88
83.384
203.31
310.03
159.25
-88.28
-300.16
-296.51
-135.3
8.0686
49.232
13.159
97.202
160.12
202.72
233.49
28.346
-143.51
-128.38
-179.26
-168.3
-86.226
-48.207
86.834
180.96
152.59
205.77
157.8
17.796
-70.916
-166.39
-290.5
-278.98
-83.518
136.31
182.62
116.78
135.85
214.07
153.4
5.6315
-125.99
-284.25
-323.24
-117.82
18.934
46.052
43.024
10.121
141.25
288.33
144.32
-86.315
-285.94
-274.83
-68.014
50.4
76.345
52.291
57.494
164.53
245.21
182.68
0.95498
-181.3
-225.15
-254.67
-192.47
-71.369
12.17
145.13
226.47
150.05
164.49
115.72
-37.312
-80.163
-160.59
-245.72
-177.45
-16.094
149.27
213.1
159.99
110.18
160.01
127.42
26.593
-84.94
-219.7
-270.71
-94.348
93.642
159.68
136.05
56.432
44.352
32.173
-80.794
-133.47
-216.62
-280.52
-186.02
-73.923
-35.99
-57.327
-28.863
136.46
229.7
153.69
-52.588
-252.35
-218.24
-50.43
98.043
102.72
4.1201
29.28
169.9
239.88
225.12
85.517
-101.17
-161.56
-227.28
-202.86
-75.404
12.926
159.84
223.18
170.25
210.31
170.85
17.784
-49.304
-174.71
-293.53
-232.25
-80.956
57.858
109.04
115.09
37.597
84.404
171.38
50.148
-106.88
-281.76
-345.51
-92.747
147.89
168.04
105.21
47.458
126.2
248.48
125.63
-88.065
-278.42
-330.88
-142.34
5.8567
67.988
45.918
88.254
216.85
230.55
166.49
13.182
-169.55
-221.82
-206.5
-144.1
-34.692
-4.2418
27.947
135.24
170.46
239.33
141.09
-53.559
-72.02
-131.32
-232.95
-146.09
-37.828
84.69
181.61
174.99
99.497
125.06
93.965
-37.569
-166.32
-315.64
-339.9
-82.495
143.75
185.72
162.39
76.794
96.723
250.47
125.6
-78.641
-216.22
-356.67
-231.88
39.73
130.04
91.015
68.983
131.6
258.2
276.52
182.6
29.579
-124.58
-63.513
34.115
45.116
27.995
28.515
93.455
59.469
-22.521
-154.72
-263.68
-226.74
-232.41
-372.42
-402.9
-312.81
-145.82
78.301
131.66
191.7
179.55
84.311
32.407
-43.228
-38.973
24.736
124.4
326.1
396.15
235.41
101.64
-16.902
-78.35
-50.454
-89.527
-148.77
-191.74
-135.26
-51.062
-97.472
-111.5
-98.767
-3.9501
129.94
60.277
-121.2
-317.26
-291.3
-24.749
134.34
114.43
51.978
-2.4391
91.408
241.9
165.75
-18
-222.46
-258.97
-41.218
103.67
131.6
59.665
92.705
257.31
307.5
152.03
-74.406
-228.6
-230.35
-110.53
-5.5842
18.379
-27.519
60.245
167.39
191.53
150.45
-40.687
-135.57
-91.309
-131.54
-107.25
-12.727
25.196
118.01
150.55
130.14
169.5
31.225
-106.83
-117.33
-188.58
-179.23
-49.391
90.833
144.86
73.712
23.939
90.391
122.97
61.806
-37.086
-170.52
-280.59
-116.68
131.01
113.75
-9.4269
-71.234
-46.057
161.05
208.06
25.062
-157.16
-305.52
-183.88
89.884
135.79
41.687
-26.509
55.612
254.58
243.24
45.216
-150.16
-278.34
-179.96
2.5961
59.769
-20.878
-75.538
65.248
202.81
232.91
68.066
-125.97
-99.853
-90.962
-112.36
-22.826
-10.561
4.0312
97.295
97.697
143.26
109.61
-35.461
-61.948
-112.52
-216.8
-188.34
-38.226
130.01
148.85
83.79
74.959
138.55
106
8.5529
-56.906
-187.87
-277.38
-73.521
86.746
100.97
67.404
-48.106
24.335
174.5
32.671
-126.07
-183.65
-211.83
-93.014
67.777
117.78
63.077
46.989
126.56
132.49
120.2
-24.005
-249.03
-242.39
-167.1
-178.61
-57.452
90.938
199.61
304.59
273.77
186.37
81.985
-21.375
28.383
27.533
-68.317
-112.15
-77.387
49.898
107.51
73.208
-42.368
-146.85
-138.29
-122.04
-189.84
-366.36
-409.26
-178.42
0.4356
70.143
131.96
66.058
114.44
246.3
199.26
37.235
-144.36
-35.123
211.47
247.53
171.34
22.119
-74.197
-28.397
16.429
-33.486
-88.965
-10.756
-31.347
-202.88
-368.89
-383.69
-241.71
-47.181
78.15
218.92
287.56
33.949
-113.36
-55.367
15.119
153.15
194
122.05
199.09
234.96
232.71
254.64
136.07
-18.202
-153.72
-302.53
-416.63
-304.11
-48.477
167.07
154.37
112.74
86.322
48.395
-18.498
-133.45
-305.67
-353.02
-123.36
114.5
202.8
168.4
79.872
139.52
267.26
136.58
-42.688
-191.51
-327.83
-185.79
58.077
102.7
77.006
35.377
80.522
218.09
241.01
71.383
-90.93
-130.63
-169.81
-80.625
15.656
-2.1041
34.47
140.68
126.42
153.74
133.97
4.8916
-56.709
-120.95
-212.7
-182.97
-129.19
-1.661
107.07
83.986
131.72
169.17
84.773
-6.4062
-95.075
-236.89
-255.04
-34.043
131.54
137.9
91.082
12.803
89.703
193.85
81.659
-56.65
-198.95
-294.12
-142.67
38.586
86.012
72.731
17.849
71.281
166.38
42.29
-121.35
-223.99
-199.54
-33.866
24.44
7.2377
-1.9153
13.565
111.36
214.78
177.86
37.421
-98.964
-153.06
-226.44
-202.91
-47.456
30.901
151.94
209.63
183.23
219.38
127.48
-19.151
-97.429
-198.8
-262.29
-210.15
-68.719
80.865
110.83
100.07
148.63
152.01
61.979
-55.071
-163.6
-253.23
-167.85
11.757
105.1
92.559
68.967
123.83
181.04
69.321
-72.361
-191.6
-310.93
-183.98
-2.2267
40.562
35.33
20.004
78.028
220.98
239.97
70.587
-117.09
-201.18
-181.8
-128.89
-58.714
-19.014
19.199
122.55
171.99
216.97
145.58
-30.317
-117.99
-187.79
-249.73
-139.68
-59.107
54.132
160.28
161.47
205.98
169.46
28.071
-26.004
-115.72
-269.32
-269.3
-91.576
123
212.88
162.74
135.67
190.66
134.64
-13.875
-152.36
-326.12
-377.28
-112.47
110.95
122.22
60.814
16.255
113.48
298.01
212.28
-12.27
-196.85
-300.37
-234.21
-48.014
59.518
45.729
56.429
140.11
185.38
233.72
110.3
-108.35
-168.87
-195.98
-210.83
-57.103
78.093
189.38
258.05
113.91
28.695
56.374
-30.231
-100.67
-159.9
-303.84
-270.46
-66.417
90.838
154.68
147.07
66.124
157.42
228.59
72.728
-115.01
-271.65
-284.61
-63.94
95.975
116.83
85.368
20.92
99.511
239.15
143.36
-29.475
-219.01
-276.31
-172.19
-62.165
37.297
32.176
61.378
168.69
233.13
172.15
-12.641
-147
-159.61
-175.36
-132.23
-53.904
18.187
155.67
204.89
114.26
107.07
8.5286
-110.45
-120.89
-175.32
-186.64
-94.103
49.891
172.28
177.02
110.05
147.66
124.71
32.929
-49.094
-158.95
-285.14
-242.93
-75.748
57.82
101.08
57.317
47.309
189.55
166.82
-5.2846
-172.64
-282.08
-169.3
1.6095
54.081
80.226
56.038
54.369
219.6
224.22
52.766
-122.19
-243.61
-226.19
-95.687
12.438
-1.2109
2.6118
102.49
108.9
151.7
104.63
-66.636
-109.21
-95.185
-152.37
-103.96
-41.856
41.025
145.84
143.6
157.4
142.91
10.911
-86.867
-144.56
-189.69
-108.59
-34.007
37.39
112.81
58.748
78.329
163.26
126.71
10.267
-98.908
-236.27
-220.24
-14.489
139.76
145.64
74.268
64.027
129.47
91.137
-32.265
-178.58
-357.16
-321.64
-89.243
64.671
94.853
55.286
53.173
243.78
314.24
124.16
-102.1
-310.86
-305.37
-92.543
21.349
53.17
25.606
64.311
151.02
240.76
200.62
-32.232
-185.98
-133.27
-112.33
-62.74
23.327
-2.078
41.098
118.02
189.92
208.79
41.966
-86.357
-108.88
-203.82
-198.98
-76.805
84.066
196.7
208.06
191.7
67.186
-89.492
-105.7
-92.173
-197.89
-236.19
-127.41
9.1373
81.678
119.2
85.709
73.751
235.46
230.94
50.217
-112.28
-223.61
-114.8
64.304
73.588
48.69
-41.156
28.37
115.89
15.04
-7.8358
-107.55
-159.35
-8.1015
76.264
39.798
54.87
86.065
152.68
113.93
8.7382
47.494
-50.952
-188.3
-165.49
-102.19
-18.192
18.253
-42.259
-27.147
-16.706
-156.18
-286.04
-244.59
-114.73
39.943
53.872
-62.823
-44.878
124.14
177.84
158.73
114.05
-4.4653
10.058
91.617
37.281
-75.306
-182.91
-118.67
34.762
159.4
203.61
177.61
111.03
43.314
55.456
13.966
-108.22
-317.48
-272.89
-29.443
27.138
-41.415
-113.2
-4.4577
153.74
165.44
43.853
-79.368
-181.52
-125.61
-71.08
-37.279
34.921
8.9184
87.699
162.66
87.119
68.25
22.002
1.0023
4.5057
-71.04
-79.695
4.2962
42.552
125.68
119.55
65.257
124.58
89.766
15.548
-50.518
-138.11
-226.4
-148.75
48.31
138.76
113.5
-29.262
-57.669
107.68
127.22
17.018
-125.97
-281.66
-205.9
42.945
98.696
35.728
12.15
48.871
210.98
205.16
21.868
-147.01
-206.19
-91.213
56.083
145.33
131.99
34.53
-13.246
7.3089
71.877
33.956
-92.328
-102.7
-8.1374
-13.217
31.957
50.223
29.057
112.93
67.505
-0.40544
-20.316
-139.03
-133.55
-68.384
-117.75
-73.645
18.75
62.261
108.59
69.231
-19.656
31.457
48.093
23.509
-20.99
-143.14
-202.07
-56.16
93.102
110.97
49.753
-56.636
-58.697
96.739
116.98
61.831
-47.361
-207.7
-124.21
100.67
139.62
29.46
-109.86
-70.756
158.57
234.21
116.46
-54.227
-222.95
-146.43
19.707
91.674
27.976
-60.119
-24.666
33.548
82.135
80.099
-64.404
-95.744
-43.228
-111.95
-81.312
4.9676
65.919
146.8
114.71
36.587
59.981
26.741
-1.0147
-29.81
-143.74
-207.73
-135.02
-13.19
86.369
125.21
32.82
8.8174
152.37
151.17
8.7778
-135.63
-234.04
-116.18
103.77
163.47
159.54
51.476
-98.325
-6.7383
50.032
-26.604
-126.7
-241.53
-186.28
33.123
150.56
96.525
25.867
41.999
139.59
190.01
29.683
-176.83
-230.8
-122.33
-23.814
33.876
-7.0409
-61.99
15.606
133.1
165.24
85.523
-98.635
-189.24
-105.31
-95.687
-4.2315
76.024
93.183
164.51
122.66
89.096
135.43
24.788
-67.154
-73.281
-207.59
-249.92
-89.954
58.706
114.24
86.793
-7.2224
25.617
150.6
129.39
12.097
-127.63
-267.33
-96.191
159.88
164.73
83.802
-20.437
-53.07
119.57
159.93
31.001
-107.64
-249.82
-253.15
-73.925
7.9935
-0.44969
-39.766
-8.8114
138
194.77
55.182
-127.94
-175.72
-79.104
47.541
118.99
90.703
10.232
72.558
108.53
151.3
100.23
-112.59
-159.58
-137.35
-153.86
-32.564
39.031
27.413
128.47
152.3
79.036
107.05
11.085
-39.742
-51.402
-182.58
-209.8
-80.38
19.239
80.955
88.775
35.524
23.422
46.496
65.987
27.123
-115.92
-223.78
-85.089
158.89
203.29
166
93.799
7.523
67.861
42.818
-85.025
-190.38
-265.32
-195.49
-15.818
98.967
88.948
11.718
42.529
133.44
166.51
76.289
-82.211
-196.39
-183.71
-118.68
6.284
35.58
-25.654
44.701
109.97
154.14
117.97
-62.761
-115.25
-93.003
-153.63
-52.28
51.517
50.168
130.94
133.63
73.86
109.33
26.331
-51.252
-75.329
-168.07
-228.61
-93.692
78.469
161.22
140.41
58.602
68.161
104.85
87.482
10.949
-116.98
-260.26
-185.32
48.671
83.825
39.376
-42.113
-114.58
60.029
146.8
42.968
-80.527
-206.82
-155.46
61.933
152.13
99.534
50.019
7.7045
43.192
148.92
85.399
-82.578
-206.92
-195.22
-91.907
38.444
23.686
-44.519
37.537
49.589
135.94
158.38
-40.711
-81.633
-54.752
-106.17
-21.815
58.025
47.886
130.16
111.29
64.239
75.106
-22.697
-72.655
-111.76
-206.49
-185.82
-76.086
44.056
122.27
76.262
14.241
81.633
125.49
86.981
25.175
-122.95
-266.36
-144.62
80.157
142.98
115.94
43.849
-6.9204
59.817
55.015
-22.493
-145.82
-287.62
-159.83
100.32
144.88
85.155
-0.43164
0.14314
187.1
207.85
43.725
-96.375
-275.55
-244.08
-21.654
49.182
39.932
-1.0263
-3.0828
156.28
217.22
53.955
-27.252
-75.703
-201.45
-144.5
3.2681
17.806
4.5625
121.24
144.5
139.05
78.815
-61.531
-89.319
-108.45
-151.05
-16.516
31.104
38.819
113.56
52.567
15.115
11.041
-50.307
-39.353
-47.206
-156.93
-143.45
-15.089
125.65
214.33
158.17
30.715
41.273
64.38
34.287
-44.803
-163.18
-308.19
-168.78
88.735
130.06
81.225
2.1007
-44.449
145.5
202.18
30.773
-135.56
-268.21
-142.91
111.88
143.82
81.885
4.5294
-4.6814
149.67
178.46
24.256
-166.8
-283.28
-208.32
-39.92
75.407
33.63
15.118
121.43
193.96
214.48
87.617
-115.26
-196.25
-168.56
-116.39
-13.99
-14.903
-29.841
68.477
100.35
107.15
50.506
-78.456
-79.052
-74.556
-138.05
-71.203
29.059
148.94
191.5
110.54
96.277
79.966
-4.7081
-32.135
-62.544
-190.63
-186.62
-19.293
82.117
92.677
35.769
-7.9674
39.225
108.54
56.742
-53.069
-177.83
-261.3
-43.532
144.19
133.84
78.751
-27.932
20.779
226.74
168.15
-24.867
-191.64
-301.46
-147.43
55.116
68.924
2.7865
-57.133
35.542
185.31
153.23
-13.356
-162.47
-182.4
-111.43
7.9562
63.149
35.828
74.065
126.23
138.54
147.21
28.511
-112.7
-114.51
-144.44
-136.09
-6.5678
-14.116
14.388
96.644
49.675
88.304
104.05
1.0912
-1.7658
-61.9
-211.17
-125.84
34.451
114.98
122.09
63.815
49.223
83.709
56.251
-22.459
-86.515
-215.49
-287.1
-54.268
137.16
144.52
78.153
2.6801
119
231.85
90.295
-52.085
-205.88
-334.78
-145.79
36.204
28.924
-18.218
-70.731
56.874
214.37
117.02
-67.11
-198.13
-190.44
-74.312
57.259
77.948
23.63
58.957
159.29
225.63
137.15
-58.151
-171.08
-168.25
-145.89
-17.143
41.923
-33.081
27.323
101.49
67.943
134.61
59.65
-20.637
-9.4341
-139.3
-203.9
-73.496
71.566
191.25
146.66
31.318
64.889
83.5
54.921
-33.72
-184.87
-269.99
-149.49
38.304
96.409
84.459
-3.1199
-53.918
125.79
172.77
39.882
-89.007
-265.24
-193.29
79.48
122.93
58.438
-15.526
-82.036
68.899
185.97
80.968
-93.277
-225.86
-179.47
-23.376
90.433
53.094
-5.3813
88.214
133.02
178.76
156.06
-33.293
-139.52
-117.04
-152.13
-56.336
6.1538
-38.368
57.887
104.04
55.731
133.63
95.301
36.871
26.385
-127.36
-246.47
-102.06
70.276
137.04
114.02
7.9569
-10.763
81.709
63.094
-9.418
-150.51
-313.78
-174.16
112.41
185.67
101.13
-48.195
-76.247
107.58
202.67
82.407
-37.372
-191.33
-217.96
-26.223
79.344
73.547
-44.564
-80.768
45.931
149.22
108.14
-64.11
-118.51
-51.036
-82.101
-16.166
55.407
13.46
66.228
85.513
65.722
67.288
6.7601
-52.992
-157.45
-187.48
-120.18
-3.7429
106.82
198.17
151.59
17.573
16.732
63.67
32.784
0.04301
-91.262
-250.14
-185.33
54.636
110.23
48.568
-26.179
-106.8
53.672
213.93
103.86
-55.994
-217.83
-207.14
33.134
143.93
80.185
6.1864
-10.016
112.97
190.24
93.999
-89.856
-235.09
-202.75
-106.58
5.0852
26.271
-42.24
79.209
158.98
108.64
88.928
-47.989
-134.38
-89.917
-147.77
-84.632
29.031
14.22
62.446
99.183
42.4
124.84
81.331
-15.131
-1.9567
-110.76
-204.73
-65.427
97.224
157.59
133.26
32.806
13.493
80.624
50.192
-49.361
-154.6
-284.14
-232.29
79.343
216.93
135.84
28.219
-54.944
113.85
218.21
44.469
-124.05
-288.67
-236.74
41.605
139.77
102.25
14.546
-18.879
150.13
250.65
94.321
-177.73
-268.98
-167.53
-53.957
51.3
75.07
10.175
56.193
114.08
150.73
132.91
-24.012
-107.58
-119.13
-199.44
-117.39
-1.9933
-7.8604
79.139
134.46
77.891
59.212
-6.8855
8.4342
3.3177
-138.33
-219.19
-73.157
128.03
199.96
130.86
8.9234
9.2033
60.416
43.324
-18.336
-126.17
-281.69
-186.31
47.348
91.554
58.777
8.7345
2.7395
178.95
186.45
2.8903
-135.7
-239.69
-163.75
59.532
127.86
81.404
-15.879
-12.23
140.27
156.52
28.861
-152.04
-232.84
-155.39
-52.326
62.342
72.364
66.516
135.08
123.95
133.87
75.661
-114.23
-115.05
-95.247
-136.8
-33.906
-18.311
-4.4783
139
82.999
31.078
85.505
15.903
9.354
-42.357
-198.4
-191.16
16.708
172.7
186.54
120.44
-4.6768
-7.232
60.618
36.703
-61.572
-214.2
-302
-73.395
139.02
87.787
12.141
-86.877
-71.384
164.73
161.16
-15.148
-155.56
-224.9
-42.648
144.8
107.31
17.248
-33.72
26.638
162.58
126.44
-16.855
-173.92
-190.2
-109.8
9.4879
96.585
16.392
50.521
147.26
136.33
161.56
34.193
-136.82
-110.1
-139.38
-167.3
-107.35
-80.02
28.371
139.46
98.6
102.82
68.536
3.0259
10.524
-39.388
-156.35
-141.73
24.083
141.73
148.19
18.597
-59.188
39.654
103.01
45.784
-147.65
-311.27
-267.99
35.992
206.35
164.34
58.871
-103.75
-3.3066
179.91
107.18
-44.232
-232.12
-283.03
-6.7853
174.15
107.6
23.9
20.695
116.75
165.8
38.183
-143.04
-216.37
-140.37
-68.632
23.444
39.117
-31.584
36.993
83.247
51.702
70.548
-38.913
-50.527
-6.5801
-83.925
-57.075
27.072
102.67
244.25
117.32
-50.269
26.467
-2.0496
-31.443
-47.072
-193.19
-225.51
-20.386
170.5
183.78
92.454
-14.716
-2.6417
119.64
94.183
-6.3143
-96.935
-275.67
-204.93
103.7
153.67
55.895
-80.998
-122.86
102.27
161.19
13.341
-125.85
-239.14
-131.37
84.765
154.83
81.168
-16.142
-4.0925
151.23
204.06
66.961
-116.96
-224.15
-170.42
-71.811
50.799
66.592
37.588
115.23
84.1
89.631
98.748
-49.836
-26.172
-26.564
-161.51
-62.467
49.65
91.625
153.56
54.381
-33.576
-33.193
-56.407
-8.18
-53.336
-207.87
-239.17
-7.2045
205.25
207.55
66.498
-117
-91.717
114.29
113
9.3179
-140.92
-252.37
-12.485
155.68
98.742
31.897
-35.42
86.692
220.9
123.6
-68.961
-237.48
-215.74
-49.465
46.043
28.97
-24.847
-42.282
92.095
193.21
121.32
-34.604
-153.77
-122.96
-102.29
-29.126
14.592
-8.1537
84.424
138.93
163.58
188
12.557
-107.02
-83.892
-191.61
-217.28
-133.24
-95.962
32.872
90.111
81.722
142.54
134.97
114.7
57.532
-97.897
-276.98
-180.8
74.51
143.79
59.604
-53.6
-55.903
110.29
140.98
42.738
-73.714
-264.42
-213.26
90.887
153.04
53.965
-47.257
-48.554
161.68
218.07
51.117
-179.71
-263.06
-121.21
-5.5395
31.608
-3.8885
-18.711
63.219
160.14
199.07
93.409
-92.186
-94.03
-93.588
-123.42
0.67032
3.5917
63.008
143.28
66.782
124.95
84.839
-59.981
-27.362
-112.97
-209.6
-79.657
23.268
53.841
87.489
42.843
-22.589
61.673
120.68
50.674
-80.142
-237.14
-207.75
92.287
211.46
150.23
47.826
-90.843
23.872
159.64
62.04
-94.804
-248.8
-261.16
-23.808
131.85
72.428
-28.844
-18.755
96.64
226
158.44
-66.821
-176.6
-129.57
-82.803
-4.5776
-3.274
-46.267
52.003
78.874
87.897
115.72
-25.294
-64.751
-30.969
-132.48
-133.48
8.6575
87.456
171.81
180.95
-31.346
15.535
97.906
7.8184
-76.751
-185.11
-272.35
-128.72
106.07
140.49
95.515
-27.736
-53.439
160.25
165.08
1.9153
-139.24
-266.72
-123.84
121.67
113.49
47.645
-17.271
-42.843
119.26
153.72
17.468
-135.4
-209.29
-176.83
-40.643
65.823
22.106
23.182
83.941
147.76
216.85
74.304
-119.49
-126.44
-147.22
-148.7
-4.7167
-12.069
-10.255
88.545
58.494
89.038
59.436
-22.449
-2.0252
-91.127
-211.56
-123.06
54.946
198.07
227.47
77.596
-24.112
36.231
86.506
55.487
-45.06
-228.21
-248.67
-0.35295
112.22
85.256
13.87
-103.81
47.342
213.82
86.886
-45.428
-195.19
-270.61
-18.794
145.1
92.873
39.859
-50.834
27.514
185.94
135.79
-20.241
-167.71
-221.09
-177.01
-17.247
28.952
-13.064
73.212
111.07
150.4
179.91
-1.3465
-54.469
-25.892
-178.01
-148.35
18.492
40.699
98.987
114.82
30.236
57.91
29.354
-17.074
-37.76
-130.79
-233.81
-119.25
124.75
209.3
145.22
13.565
-11.464
103.41
111.95
21.602
-131.58
-325.75
-256.76
52.145
115.99
48.754
-50.969
-84.916
124.37
213.01
49.777
-123.69
-221.65
-140.9
62.052
138.7
79.652
8.3765
8.3554
99.075
174.28
96.042
-72.106
-117.86
-139.44
-169.68
-27.712
-19.094
-13.47
118.89
88.857
117.9
149.26
18.445
-15.681
-73.899
-194.25
-132.81
1.5025
85.828
144.91
75.435
37.496
60.306
46.879
6.406
-108.84
-276.6
-281.27
6.9826
168.59
143.49
80.842
-27.054
71.545
226.73
125.94
-28.36
-241.05
-367.55
-124.5
89.9
45.875
-3.3339
-10.064
83.028
226.67
180.23
-37.938
-230.62
-208.53
-113.05
20.385
84.691
38.902
67.494
130.98
112.92
133.16
26.457
-118.48
-97.838
-175.77
-152.72
-20.756
24.642
165.72
191.82
48.166
95.082
79.817
-40.176
-33.077
-113.73
-257.44
-131.23
-0.99052
50.66
90.831
33.505
32.266
166.63
152.38
17.197
-86.988
-265.89
-225.41
71.375
138.01
68.949
-9.6394
-15.723
187.77
239.4
54.833
-114.76
-263.63
-268.6
-50.225
76.469
29.006
-6.7467
46.233
152.85
226.74
107.17
-81.774
-166.9
-203.21
-172.47
5.9138
33.55
-5.2225
101.87
69.858
80.947
114.64
-35.756
-37.381
-35.516
-204.85
-164.45
6.0211
118.24
222.85
132.63
32.478
122.81
78.052
-7.3605
-49.381
-205.36
-316.82
-116.44
68.234
141.18
117.78
-0.15794
74.062
176.22
37.828
-103.26
-228.01
-347.32
-159.6
16.274
64.469
122.44
69.677
120.48
246.77
145.87
-19.304
-195.71
-261.18
-110.02
85.976
79.683
9.3108
31.136
102.28
229.78
182.83
-25.148
-172.25
-179.87
-204.79
-93.315
-3.0527
-73.238
29.704
109.94
59.767
164.39
72.112
-10.324
2.8683
-150.84
-202.42
-47.911
56.289
145.14
194.83
84.359
-32.93
52.157
83.906
-37.611
-147.05
-291.68
-241.13
50.902
183.33
171.66
93.799
38.026
122.62
186.36
77.738
-90.875
-282.54
-304.02
-46.381
80.289
45.965
12.187
77.716
141.77
153.35
31.238
-139.67
-151.74
-104.42
-124.28
-3.8649
59.583
16.719
102.74
106.7
74.216
97.622
-61.732
-75.587
-79.178
-202.46
-100.87
10.329
83.608
219.16
171.1
82.803
113.62
56.461
21.269
-32.934
-181.64
-278.09
-109.05
59.855
105.37
94.062
60.727
64.036
73.903
25.811
-40.209
-176.55
-354.03
-190.69
88.935
149.42
108.75
-6.4783
55.592
195.37
134.03
-9.9891
-201.39
-331.15
-179.55
21.016
38.926
33.441
60.507
91.516
204.6
191.48
52.615
-126.07
-195.75
-187.37
-81.865
13.975
-38.681
18.613
101.9
120.74
187.95
54.528
-37.934
-23.047
-168.29
-159.39
-15.744
-7.5594
135.28
229.58
118.16
112.81
63.112
-15.751
-83.218
-217.46
-296.59
-183.54
42.285
170.5
182.97
57.126
-41.233
125.6
150.63
17.652
-80.308
-274.1
-259.47
30.424
97.285
59.567
12.818
-42.788
109.85
190.22
42.143
-129.9
-239.36
-185.87
39
151.78
122.35
57.204
33.65
101.97
118.91
20.797
-102.65
-189.91
-237.59
-155.61
8.0441
-14.078
35.964
167.52
99.126
149.16
132.57
-38.099
-15.259
-59.03
-185.2
-68.768
15.211
57.024
104.55
59.766
68.36
82.902
32.781
-15.779
-108.68
-277.26
-209.07
96.037
210.37
213.18
158.26
-7.3519
32.483
146.42
60.77
-59.672
-222.64
-327.97
-105.58
50.794
48.875
