3.1398
-4.3456
13.592
12.27
129.73
85.866
-471.68
47.922
158.67
25.579
37.015
-2.0085
-11.144
25.313
112.15
129.74
42.223
-10.558
-32.82
-209.36
-263.57
3.4891
-7.0109
57.483
14.921
-41.597
38.933
57.12
10.582
24.025
-55.059
52.28
26.502
-53.887
8.6478
-18.435
31.62
0.25144
-21.946
38.92
-30.183
17.651
17.744
-27.991
32.208
-19.538
-6.9403
9.4099
-36.219
34.861
-5.0125
-8.0683
35.57
-25.65
16.31
3.94
-23.479
28.843
-31.222
11.448
4.8421
19.596
33.04
-46.4
-6.5558
-15.272
-18.158
32.232
-23.374
2.0437
20.974
-21.569
24.351
-14.582
5.037
17.085
-17.615
26.354
-14.137
-3.9152
12.117
-26.548
21.693
-25.29
5.2118
4.4647
-18.616
26.908
-24.114
25.522
-6.269
3.6889
15.444
-22.785
25.199
-20.077
12.419
-11.982
-6.2946
13.873
-25.325
26.374
-24.259
21.577
-1.9982
-0.99046
16.537
-23.356
31.823
-22.565
29.191
-24.686
-13.533
-0.57051
-36.13
32.381
-2.969
19.139
-20.907
6.652
31.637
-25.131
35.294
-30.632
11.902
24.122
-24.072
37.621
-22.613
2.7408
31.685
-28.184
24.553
-3.9094
-28.435
28.21
-23.092
0.82934
14.755
-39.465
27.591
-11.772
-10.81
31.541
-28.31
11.909
9.5917
-28.6
25.437
-24.354
1.5743
8.256
-37.069
33.199
-25.857
-3.2182
29.365
-33.301
31.851
3.1823
-14.204
39.98
-27.308
7.9404
17.491
-31.938
30.08
-23.721
-2.7458
26.035
-40.722
29.506
0.093619
-19.856
37.844
-24.964
6.3326
17.352
-32.477
28.065
-12.138
-12.763
25.105
-43.293
27.82
-9.3046
-21.849
40.355
-31.736
24.384
41.181
4.8803
-17.343
-46.736
-9.5586
29.133
-35.044
34.609
-29.63
-16.386
35.169
-34.751
29.638
-4.1332
-0.78305
35.716
-49.889
26.626
-7.4915
-12.151
43.741
-37.36
30.98
8.0944
-27.299
44.757
-12.074
-25.157
38.55
-28.306
-5.9164
32.927
-33.464
-6.3833
36.13
-25.357
-7.3611
26.443
-30.051
0.36984
21.694
-37.49
0.24536
23.49
-35.588
9.6603
21.323
-33.514
14.078
13.745
-34.083
18.982
-3.5212
-36.842
33.649
-12.749
-21
40.718
-20.507
-0.068264
36.308
-33.888
12.123
10.118
-39.789
36.597
-16.982
-23.781
53.079
-28.661
6.5418
41.231
-36.483
15.489
18.324
-43.217
33.425
-0.5856
-38.214
54.043
-15.835
-12.044
44.915
-30.753
3.4375
35.896
-37.133
7.337
21.089
-40.414
23.591
-7.6764
-26.115
42.638
-26.245
-7.434
37.658
-31.339
6.4699
23.266
-36.335
19.415
5.2417
-36.826
32.845
-5.3238
-27.535
39.231
-16.848
-22.073
39.117
-22.801
-13.534
31.235
-35.798
-2.7418
30.583
-44.216
9.1519
32.241
-41.153
15.238
33.146
-36.71
5.5199
34.541
-36.675
6.1857
37.707
-44.813
0.17491
27.933
-39.46
15.614
21.97
-50.713
32.216
25.772
-43.294
35.356
11.379
-36.773
40.13
0.5378
-31.85
39.797
-0.89242
-23.352
35.154
-17.105
-17.803
29.936
-34.199
-2.0675
30.982
-38.09
6.8585
14.493
-34.841
32.557
-14.33
0.78713
60.848
-67.611
-37.836
68.499
-64.05
-122.71
-54.189
216.22
117.87
-39.592
-125.5
34.518
61.556
-7.0567
-14.375
-15.735
19.56
6.6711
-11.972
6.0383
4.7715
3.203
99.43
24.112
-10.331
-59.89
-99.26
-81.481
-48.936
110.71
35.336
-56.151
-24.651
12.631
-36.502
44.661
16.148
-20.731
37.195
21.672
-27.465
27.316
18.207
-31.567
44.015
31.6
-36.449
21.943
-17.77
-28.456
50.677
15.188
-28.241
-7.9731
-2.2339
38.952
16.058
-214.71
-34.111
96.796
19.701
19.093
10.452
-16.89
32.984
-11.636
-3.7889
20.739
-32.978
12.148
-17.454
-8.3856
45.678
-48.245
29.475
41.956
-39.279
13.625
-20.562
77.46
-8.7319
13.556
60.433
-195.29
144.62
54.405
-244.91
-107.53
-3.2219
58.794
-57.338
75.361
-24.321
46.821
97.411
-35.99
68.117
34.551
-50.355
34.629
41.755
-30.432
18.35
44.38
-23.427
-7.6275
44.898
5.7076
19.53
-8.2503
-51.267
-35.504
16.885
8.0076
-31.81
-9.5825
-18.341
-36.352
19.189
1.4367
-39.537
34.636
-1.4961
-24.419
92.446
-63.903
-35.461
-23.905
-37.988
-23.194
91.015
89.281
-95.661
37.358
-3.4464
-111.64
94.359
21.62
-36.443
47.409
40.991
-72.257
-62.304
9.2356
142.41
36.781
-90.921
62.545
8.5487
-111.99
54.443
31.686
-52.952
-22.587
10.312
10.404
12.236
-28.205
-14.548
53.664
-9.6943
36.708
17.465
-74.078
52.799
22.353
-17.884
63.619
17.341
2.3955
-29.804
-52.295
-45.727
-40.787
-31.583
50.476
16.659
15.145
-37.634
-67.444
-15.331
-76.282
31.378
103.56
36.096
42.521
-49.851
-63.932
121.78
-22.161
-10.014
63.861
-34.852
33.87
31.958
-43.514
17.495
21.113
-34.19
29.837
-16.593
-32.894
64.8
-4.9565
-31.189
20.748
-22.311
-17.151
21.298
-32.818
3.9718
11.349
-29.735
20.573
-6.482
-22.043
26.016
-22.102
-9.9068
28.623
-25.64
1.3599
5.0309
-31.436
23.49
-7.0576
-15.973
22.555
-39.28
6.3646
28.752
-4.0593
63.191
-41.249
-67.897
13.642
-34.218
14.513
26.67
-33.191
36.125
-4.5314
-23.058
51.044
-27.333
-6.1509
49.852
-33.303
-0.44929
50.188
-24.406
-4.4052
36.63
-31.049
10.704
17.159
-45.419
26.577
-23.862
-11.582
37.769
-37.639
20.241
20.583
-30.669
33.907
-8.8612
-15.836
27.347
-32.341
12.219
9.0796
-35.607
32.923
-16.047
-15.925
38.26
-24.91
-0.040732
25.464
-32.012
10.154
9.8033
-28.424
22.752
-21.323
-11.545
25.835
-41.437
11.497
18.24
-36.402
33.031
2.4278
-19.115
40.961
-13.727
-8.6264
27.795
-33.908
15.724
-0.25367
-26.153
39.912
-38.413
-1.5154
31.552
-40.607
26.912
17.637
-37.424
40.505
22.814
-32.192
29.906
12.819
-39.216
25.111
-5.1977
-40.395
35.787
-17.886
-11.222
38.603
-27.521
0.073676
38.271
-29.594
2.8498
26.299
-41.46
7.8002
11.131
-31.475
34.896
-9.5831
-29.029
22.337
-31.089
6.5075
30.874
-35.269
23.874
-4.372
-30.945
41.891
-21.21
-7.9961
42.672
-35.169
10.599
33.996
-36.865
19.098
25.556
-38.924
19.056
17.922
-40.964
23.615
4.1191
-31.465
44.393
-23.318
-28.69
29.451
-31.501
-27.214
33.087
-49.013
33.427
68.972
21.745
-27.285
-54.127
16.005
7.9824
-39.614
57.246
-7.5045
-11.019
4.8105
-67.067
34.851
43.027
-31.504
24.291
10.395
-31.354
39.751
-15.056
-16.278
37.794
-27.822
1.214
30.505
-31.679
2.942
19.429
-33.406
10.026
11.366
-35.523
23.627
0.32254
-41.841
31.125
-3.7616
-29.807
34.662
-14.882
-15.861
35.536
-28.511
-2.5625
30.911
-30.625
8.2261
22.397
-44.014
24.849
9.6398
-36.959
40.966
-1.382
-18.875
38.294
-21.876
-17.704
30.69
-35.193
7.3661
20.982
-37.489
47.071
6.5829
-30.818
63.96
-24.888
-45.759
70.937
-4.3855
16.982
-20.638
-65.005
30.734
-50.719
-24.34
46.82
-25.913
24.367
6.0931
-50.871
49.481
-37.283
3.1082
125.43
45.483
-22.265
-52.986
24.026
-10.521
-31.385
4.9368
11.777
-19.462
20.23
-3.437
-18.853
16.564
-20.391
-5.0833
8.5932
-35.779
-2.3889
-33.292
-60.674
74.892
63.497
11.608
30.267
-52.047
-74.883
-43.002
-39.728
94.675
60.84
-76.266
43.547
-28.56
7.8306
77.243
-30.167
10.383
-46.866
-31.28
59.87
-29.617
32.522
144.2
33.925
-57.057
24.678
31.547
63.873
-70.171
-144.35
23.731
5.0112
-59.244
25.986
-28.199
-100.14
45.243
28.622
13.676
9.7646
-60.237
-24.557
-2.436
-49.919
74.136
3.214
-36.788
83.807
37.151
12.158
-72.692
-139.17
-76.715
62.417
12.146
-56.012
68.919
7.8914
-8.9177
103.6
16.218
-2.9383
98.392
3.3667
-95.628
33.223
67.331
-29.161
22.869
-14.829
5.4499
24.517
-11.072
-55.43
26.131
35.902
-10.935
-13.647
-4.833
-21.7
65.851
14.345
-36.337
18.043
-66.595
1.2247
57.796
-20.347
-2.9188
19.891
-32.88
21.191
12.263
-44.885
33.316
13.825
-30.403
31.767
-16.454
-100.28
-2.3757
81.494
1.4873
35.235
-24.182
-28.509
26.204
-21.329
-4.2083
33.4
-24.656
-8.0444
60.385
12.563
-10.37
8.4928
-20.903
17.117
-7.1112
-16.161
10.294
-7.0348
-28.438
8.2929
-0.40097
-10.187
-0.8527
-7.714
-10.204
10.473
-17.265
-15.303
4.4865
-0.37068
19.933
36.636
-9.9717
-9.6792
-7.3543
-29.291
-32.583
-2.3744
5.2107
10.932
24.966
-7.673
-18.343
-34.45
-31.133
34.727
34.64
18.357
49.04
19.577
-20.345
-123.03
13.192
-0.10461
20.602
15.136
68.157
146.5
-107.15
-142.59
-54.429
10.241
-30.964
59.61
-52.061
-21.35
37.534
-27.917
39.465
17.156
-6.9883
63.228
-21.33
11.833
60.21
-26.907
21.958
52.526
-30.859
-0.88122
52.637
-18.076
-27.684
40.369
0.55424
-31.254
26.061
12.15
-39.587
11.487
28.548
-33.012
-7.1288
33.585
-22.324
-24.239
27.587
-9.3354
-27.705
24.795
-15.196
-33.67
33.708
-6.9439
-36.25
37.813
2.0859
-37.874
36.172
12.4
-35.781
25.319
6.843
-36.275
27.88
-5.2592
-37.44
35.602
-12.946
-25.011
43.116
-17.441
-13.183
42.862
-27.835
2.5799
20.972
-34.174
28.287
-16.992
-14.268
29.028
-40.742
26.938
3.9249
-29.351
43.67
-18.459
2.924
31.751
-34.106
20.847
9.3967
-26.093
26.804
-26.382
6.5695
4.7839
-28.809
45.673
4.5213
9.4356
-22.421
-19.059
76.84
-21.439
-68.92
-14.317
-54.555
20.554
22.078
-51.517
39.349
0.016554
-14.42
46.298
-15.135
6.6781
27.246
-55.992
93.627
84.819
-58.347
-12.215
-93.877
-84.064
40.932
-8.3955
29.268
37.856
-25.242
53.73
26.809
-62.018
21.52
-0.36961
5.3053
32.479
-6.4872
1.7442
-27.162
-29.992
76.814
-29.717
-31.016
15.365
-31.947
32.67
15.761
48.926
41.496
-22.25
-65.677
-95.585
-42.014
17.08
0.90097
7.6239
29.217
-18.53
41.38
-3.6043
2.5197
20.998
-21.648
28.526
-19.592
6.3275
24.52
3.594
107.33
-76.585
-77.438
-27.032
5.3945
32.708
-16.83
36.034
-21.88
20.196
-2.9451
3.6739
-5.4532
-17.297
3.44
-37.298
36.762
-30.909
45.579
33.633
-10.73
0.27374
-33.249
42.494
5.4474
-13.175
40.936
-6.8982
-5.4118
28.92
-27.23
3.2028
12.795
-30.777
21.711
-15.238
-9.8591
10.911
-29.71
18.903
-24.351
3.8729
23.648
22.499
-10.469
-70.635
-13.737
-2.0057
-7.7235
31.42
-23.911
19.238
0.034124
-10.314
25.545
-38.166
25.647
-12.926
-15.557
38.285
-49.392
36.933
10.538
-26.179
47.875
-38.805
23.295
14.224
-42.094
53.299
-29.752
-1.9198
48.92
-50.948
24.428
25.91
-37.203
45.024
0.96425
-36.316
49.998
-9.3831
-21.445
36.673
-25.798
0.45534
19.597
-38.538
15.482
-11.253
-34.706
38.887
-23.272
-4.3612
24.336
-39.46
29.075
-12.255
-5.8606
17.359
-33.123
31.387
-23.376
6.4808
-3.9074
-36.685
45.359
-34.932
31.039
-3.3623
3.7034
25.531
-24.313
29.912
-23.076
18.081
-0.0055419
-0.48774
20.158
-19.132
20.838
-41.24
5.7696
-22.664
-7.1351
2.1888
-22.823
26.062
-30.057
46.325
-14.22
15.341
7.0257
-18.792
22.459
-26.395
30.502
-29.929
20.386
6.5793
-14.16
33.585
-26.432
28.578
-8.5108
-8.5652
24.381
-26.704
24.531
-12.666
-2.0149
4.7078
-32.516
23.236
-30.496
12.67
-17.146
-15.744
21.823
-27.968
39.842
-13.163
9.1093
37.121
-29.733
22.583
-14.541
-13.26
21.814
-36.001
18.578
-13.007
-9.7083
32.169
-34.405
23.16
10.014
-19.18
35.655
-22.196
-2.2246
19.999
-32.101
21.77
-13.94
-17.868
30.497
-32.934
13.035
21.877
-33.243
25.529
1.8811
-23.41
23.933
-39.523
3.968
35.537
-37.697
25.669
8.1758
-25.224
38.451
-20.515
-15.03
32.6
-36.541
13.707
-0.10829
-33.696
43.097
-36.785
-24.088
43.349
16.661
55.415
-26.165
-71.029
26.024
49.069
-12.573
42.663
-50.7
-90.22
43.591
8.194
-19.257
63.236
2.4415
-9.0492
70.776
-25.397
-53.665
8.153
-42.915
19.247
56.859
-66.501
20.356
11.561
-40.351
59.304
17.832
-33.233
104.96
54.192
-145.39
11.39
-88.987
-1.6319
60.056
-61.147
15.508
27.214
-51.704
58.971
-4.7965
-34.999
70.735
25.704
14.18
-11.991
-20.346
57.241
16.745
-92.293
-50.991
34.48
-38.456
0.20641
46.276
-71.221
6.9396
48.957
-44.006
29.25
40.18
-45.217
35.298
16.99
-44.408
37.304
-11.761
-32.004
34.446
-50.882
23.654
9.3128
-45.553
62.393
-28.649
11.567
34.064
-33.18
47.47
-2.1143
-12.276
25.08
-5.9613
65.827
-30.433
-30.822
54.257
77.643
10.682
-139.76
14.565
-77.891
-46.213
86.625
-46.177
-109.13
-88.959
63.115
103.83
168.27
144.34
-76.083
-186.19
-131.31
-69.263
12.402
53.852
30.033
216.33
36.261
-51.257
-143.07
-183.17
66.103
12.462
8.633
65.727
23.57
117.84
91.755
-7.4354
-115.93
-181.93
-8.1279
72.794
-18.101
54.557
17.922
-18.706
47.999
-32.199
11.883
15.787
-208.48
-7.2376
147.57
107.23
88.425
-73.179
-32.316
-11.736
-89.357
180.42
124.91
-7.392
-49.03
-190.1
9.7687
264.18
-175.19
-159.97
253.38
41.897
-234.16
-17.421
64.236
-127.05
27.541
54.396
-59.684
93.268
339.16
157.17
5.6281
-140.71
-283.89
-322.59
-241.93
110.28
204.31
29.623
35.435
67.02
192.62
29.026
22.935
-78.269
-146.88
-119.76
-26.238
62.927
-9.1066
-104.22
-110.8
70.515
33.437
-13.488
73.839
-33.675
-31.356
124.47
-2.2401
-21.332
61.264
-10.091
5.9073
67.719
-30.916
18.277
32.756
-39.93
44.845
5.7109
-26.23
66.139
11.373
20.492
35.5
-56.314
-7.1474
11.549
-72.393
9.1206
31.93
-89.485
48.635
11.992
-26.362
49.497
-18.492
-3.8021
74.207
-44.828
-39.2
29.383
-36.248
2.3219
23.69
-50.372
23.824
13.895
-44.314
43.555
2.1234
-34.074
49.084
-2.4675
-33.034
43.943
-10.68
-37.541
35.675
-27.309
-15.127
32.516
-43.268
12.796
25.701
-47.713
31.025
15.893
-39.474
40.02
2.4787
-34.355
40.739
-13.251
-18.102
43.145
-33.419
-11.585
39.411
-36.813
4.4085
42.401
-35.624
1.7947
29.734
-38.277
14.011
14.024
-43.033
32.236
-3.1084
-31.835
36.605
-31.571
-16.024
52.478
-17.084
10.089
12.201
-42.32
22.328
-26.571
-7.7492
17.852
-39.381
33.713
-30.198
6.068
22.933
-32.815
44.155
-6.8739
-12.419
41.576
-31.618
1.6745
18.196
-38.445
34.706
-19.481
-9.3902
32.877
-42.773
26.764
9.3161
-17.997
33.289
-24.245
5.305
12.925
-30.233
15.31
-22.825
2.291
16.491
-37.455
30.812
-30.681
-1.6217
23.87
-33.605
52.673
-47.192
84.605
59.468
-147.9
-65.985
12.347
155.6
-27.436
-97.045
51.657
34.178
-68.862
33.644
6.125
-58.245
68.316
30.232
-41.088
34.783
2.1131
-39.807
51.073
-12.043
-22.984
57.608
-5.4412
6.879
119.19
-54.628
-91.222
18.867
-55.478
-5.8281
9.6513
-61.484
33.508
-30.984
4.5265
26.773
-65.058
58.633
-3.8174
-9.6044
61.7
-46.247
6.0842
47.912
-44.973
16.557
34.63
-54.353
21.277
16.47
-58.316
43.106
2.4392
-44.805
55.638
-9.1776
-34.694
46.26
-2.6678
6.9706
26.341
-20.551
-31.688
27.628
-53.158
-3.8318
54.67
-34.845
-13.753
27.836
-42.047
28.109
35.123
-28.977
27.088
-30.76
-10.526
46.432
-42.726
3.1922
2.3465
-27.748
50.551
-28.004
17.157
38.275
-55.344
26.66
-17.982
-10.215
56.712
-39.448
15.607
38.2
-35.563
27.455
15.564
-32.994
25.921
6.5012
-42.239
21.238
-1.7966
-37.8
34.079
-9.2867
-23.967
33.598
-19.746
-8.8238
29.026
-26.14
-10.888
19.55
-39.356
8.8736
18.348
-37.169
26.284
2.5858
-27.686
36.368
-14.13
-16.953
40.327
-20.757
-15.372
41.281
-24.75
-16.478
35.728
-31.175
-4.7853
34.047
-49.998
5.1406
37.694
-40.343
32.049
28.467
-46.456
32.929
16.982
-23.843
22.768
-15.521
-40.092
45.183
-1.2294
-41.835
32.425
-16.338
-5.3802
56.722
-43.278
-12.723
64.004
-34.703
26.852
15.132
-40.262
25.58
-38.904
3.4098
1.8547
-32.798
54.62
-33.556
-1.1956
46.566
-38.689
17.233
37.784
-42.889
0.21885
36.691
-36.936
-15.012
101.32
65.353
-34.961
-7.9212
-43.179
-52.369
-28.323
-15.287
-34.758
36.379
-2.6026
-18.68
33.982
-30.008
-50.515
34.882
35.026
-51.004
-1.5087
-53.979
2.9383
252.59
170.77
-259.55
-98.338
196.18
-62.202
-50.381
-62.055
-28.267
-2.4669
104.9
-77.562
-55.949
-12.474
-101.38
59.884
54.486
-47.447
70.807
37.361
-36.678
54.201
35.075
-48.502
51.061
118.96
-98.95
62.227
39.753
-56.758
-18.846
58.103
-25.98
-42.688
8.7568
-22.729
23.68
-13.496
-88.66
23.108
22.987
-104.74
-46.569
-21.09
54.775
233.02
163.96
-337.53
-78.262
19.352
118.59
-25.626
-166.93
118.85
-44.584
29.58
54.091
1.0421
46.788
-363.28
-319.48
71.887
-5.9104
163.67
363.93
189.57
29.595
2.7042
12.177
-54.286
-45.521
-20.786
-32.096
13.563
15.342
-0.8009
69.539
47.48
-72.111
-60.719
-13.831
-1.2956
25.055
1.9238
-28.632
6.8605
-1.2528
17.82
1.4088
1.3154
-0.20419
-19.311
-12.277
10.821
29.286
44.457
21.639
-27.314
-35.538
-6.881
9.7958
0.89842
-42.492
-22.206
2.9772
12.824
-18.186
-108.9
59.354
64.423
50.277
29.321
-53.556
-31.539
22.158
-45.582
-27.645
38.514
27.559
78.489
26.769
-86.301
28.189
1.4525
-95.013
-11.856
16.139
-25.616
65.283
66.167
-52.145
-10.383
3.2922
-72.741
-24.255
31.701
-35.431
38.191
23.11
-33.655
43.446
18.473
-56.418
26.668
37.018
-42.847
20.668
90.549
-42.38
-47.772
40.395
-65.95
-8.8037
91.404
117.73
-47.202
-85.162
-42.107
-55.725
58.225
-26.567
-45.127
73.681
8.4054
-33.028
35.697
36.064
-4.8089
-0.75015
28.751
-39.798
-12.331
-25.033
-45.952
51.663
5.3665
-44.238
25.547
32.908
-36.419
-7.614
37.797
-28.617
-25.201
25.68
-19.824
-14.066
50.505
-14.731
-28.536
41.285
7.5518
-52.771
79.725
107.15
-74.203
-121.61
-75.534
-218.7
-90.775
237.6
37.619
-54.992
88.013
17.238
-15.842
73.876
74.323
-34.107
64.738
147.4
115.44
182.68
-49.892
-167.41
-89.022
-10.5
-15.038
-21.302
-14.428
-21.458
-39.982
-3.9614
-24.064
25.93
0.69226
-85.284
18.076
-38.861
-25.95
-2.1017
37.448
54.057
23.603
40.116
-21.029
-145.22
-25.631
111.39
4.1733
-48.634
66.471
44.276
-91.313
-39.146
-30.789
-3.3751
28.224
46.747
-10.818
66.172
16.388
-8.9741
-115.9
68.87
-1.3586
-16.971
36.912
3.4649
-38.108
9.6916
-18.421
-52.572
50.169
28.866
-13.48
-3.1948
-29.237
10.028
-14.304
45.661
-37.053
-14.573
15.962
39.971
-14.85
-45.057
82.503
16.401
-49.007
-13.974
21.088
-15.188
-22.98
17.009
8.7995
17.555
14.175
-14.382
10.697
-31.199
-3.5704
10.611
36.746
-24.618
-16.978
-1.7604
-33.846
52.101
-38.716
-24.648
14.253
36.916
1.5825
16.721
24.935
-61.68
-71.729
17.565
54.238
51.961
-0.93167
-2.9293
15.495
-29.83
44.012
42.229
-45.675
-43.337
-6.9595
-49.055
6.9093
12.497
25.747
64.112
-177.5
10.199
51.863
-4.8507
85.867
164.75
-194.84
4.8549
24.993
-8.3865
28.392
35.856
-42.247
1.3412
-28.047
-55.797
31.643
42.002
9.2491
-4.28
27.378
-55.45
-58.083
29.94
-3.8839
33.401
4.28
4.8196
-29.14
-25.53
43.857
-90.569
103.28
97.052
-32.829
12.154
-53.124
-18.945
-34.277
5.3365
47.162
-11.554
-73.196
-8.1312
101.05
-6.4168
-20.336
-238.04
-311.95
-5.2155
47.023
259.35
278.05
-9.7495
-16.45
83.204
-28.051
-36.749
73.608
-1.3795
12.219
25.51
2.8855
15.166
-1.6583
-52.241
-18.105
1.9697
-23.904
-66.124
20.917
66.598
-11.357
-19.522
-30.488
6.896
17.853
15.536
-11.123
9.3964
58.366
-26.48
-49.531
-8.6444
-55.795
-102.71
-5.9091
85.556
114.29
132.12
-91.88
-75.724
-80.314
11.95
68.501
-5.8171
-9.3985
22.182
29.45
1.4285
-30.62
-57.692
0.012701
129.35
-72.476
-86.106
22.616
34.592
-80.924
-5.9024
79.133
-4.3517
6.3151
92.148
31.71
-96.772
-71.031
41.052
-48.3
-59.835
72.08
108.34
-4.2594
-62.755
-51.358
32.776
4.4746
-0.27858
19.341
19.634
-34.074
-41.952
-49.294
13.445
64.333
57.979
15.636
-34.92
-49.202
46.206
-42.063
6.5602
-0.64797
11.097
18.561
-9.3688
-108.55
51.499
68.281
-35.738
96.581
0.95108
-35.971
-32.079
-4.2639
-58.442
-58.009
92.494
89.53
-45.164
-19.166
-27.918
-28.936
-85.127
51.805
41.807
-15.859
41.86
22.396
-6.4817
-13.237
29.229
53.653
-85.747
5.2807
23.982
-67.451
30.712
148.93
-66.399
-119.29
7.5531
25.602
76.386
-12.704
-18.349
-19.668
9.2428
-16.868
-7.6666
-10.958
6.7404
13.032
53.542
-15.552
-30.657
-58.893
-121.91
99.272
122.08
31.24
-45.305
-41.835
-2.9995
-10.229
16.628
-7.7315
-39.613
42.195
84.15
19.885
-66.9
-119.45
11.854
127.31
10.004
-62.995
-27.307
24.072
7.303
3.3495
15.313
28.962
35.284
-74.77
-41.557
-22.25
37.831
61.142
-16.113
-59.742
28.744
-18.37
-47.427
77.063
4.4694
-3.3739
-24.944
22.677
32.987
-60.589
29.309
-10.911
-11.272
53.096
-10.87
-21.88
4.6397
-5.5403
-27.808
-3.8981
48.896
0.60061
-3.6615
28.061
-15.932
-0.68706
-19.383
-56.817
20.588
5.2647
13.414
-4.3042
-6.6805
3.7269
-4.9123
9.7345
38.973
36.361
-87.878
-23.734
30.118
2.1503
11.536
0.38991
-5.4742
42.723
28.892
-20.307
-94.725
-46.008
48.378
51.597
10.582
16.27
5.7781
-10.275
-80.525
16.008
78.823
3.3183
-2.3569
-50.172
-54.508
29.213
26.248
-8.6131
47.139
24.056
-34.646
-50.4
21.913
48.747
-57.15
-8.3152
18.764
42.121
-35.959
-0.062693
3.4207
11.321
-10.313
5.7509
5.8533
-29.767
-66.139
-3.1297
45.827
40.538
35.267
-33.763
-4.753
-25.67
-42.647
92.243
56.727
-41.113
-79.831
4.6072
10.257
-15.389
89.182
10.623
-26.157
-38.559
-23.982
55.666
20.766
7.04
-77.939
30.656
-17.132
15.117
5.793
-19.606
57.856
-34.305
-12.652
23.107
-2.1002
-9.4133
-74.129
18.403
53.813
24.483
-46.33
-2.0444
16.132
-35.405
-20.204
128.67
16.576
-98.947
-40.56
0.024039
-12.252
-1.0387
72.372
35.554
-51.236
25.213
48.528
-66.964
-10.85
11.928
-6.5393
-15.563
15.139
7.9611
-38.087
-2.1334
40.414
19.872
-23.059
43.205
-11.033
-35.386
10.107
8.2236
-36.531
-46.719
49.673
6.7784
38.749
3.7819
-27.576
-18.732
-19.693
25.365
2.9834
-34.338
56.266
71.724
-30.742
-14.632
-67.316
-52.838
45.832
24.876
0.25985
-2.7955
18.574
75.687
-58.942
-60.287
9.2809
41.349
0.50906
-9.6642
-60.885
16.607
47.607
6.7696
-50.878
9.6769
54.243
31.438
-60.491
-23.267
26.235
-14.245
-24.62
-4.3428
43.62
14.089
-18.151
-0.19297
9.2037
-22.606
11.376
12.334
4.4651
-17.265
-5.1547
-4.7999
-53.585
72.385
66.876
-49.456
-4.623
-19.312
-3.8505
-2.7182
1.1573
6.9735
8.6579
-28.734
-6.7567
0.42694
17.103
-13.972
17.896
46.799
-24.259
-62.638
15.004
18.927
12.269
2.748
10.749
-4.25
6.3295
21.298
-21.88
-19.699
-23.87
-8.2741
14.183
16.759
-4.4459
3.83
39.822
-27.562
-40.209
16.573
32.292
-12.057
22.939
-48.313
-18.927
61.315
17.392
-50.987
-24.197
20.293
16.546
-39.044
78.083
-5.8611
-50.76
48.613
-20.717
4.5461
-37.133
-39.234
26.133
41.094
99.245
-53.78
-91.79
29.491
-4.6498
-17.671
38.509
11.928
-29.83
-9.6536
35.418
-40.724
-37.456
69.995
8.7853
-13.002
6.9069
-2.8814
-15.201
-4.165
20.098
-47.247
-23.962
56.641
-27.834
-43.769
69.386
-12.604
-19.236
168.04
-16.224
-17.076
-38.372
-33.72
-14.773
-29.26
27.848
15.267
-14.752
-11.395
7.1518
-33.356
36.826
15.126
-46.675
22.244
-8.0917
15.888
3.9202
-12.695
-28.677
38.439
102.93
-42.14
6.4742
-86.882
18.818
-43.097
34.23
4.1686
-10.233
25.284
-2.3276
-3.7825
-7.1345
8.0127
25.739
-11.052
-26.102
-43.481
-29.711
54.163
42.033
-14.357
-5.0367
-14.178
25.333
36.004
1.0819
-20.734
-41.056
-10.018
-30.132
65.353
27.277
-33.049
-22.889
6.1594
-13.973
36.778
-24.035
9.7494
14.236
13.252
-16.126
-47.353
8.6876
29.527
-101.67
61.568
123.83
-51.736
-39.966
9.3773
3.6886
-58.343
62.338
8.4227
-59.642
11.014
64.296
-26.287
-1.5825
8.4442
-12.116
-21.595
23.625
-7.0252
-13.453
40.118
14.284
-40.767
-36.205
29.036
13.369
-24.123
-52.624
26.609
146.7
-32.783
-54.684
-13.519
-7.5048
-8.6739
12.972
20.312
1.812
5.2439
-14.533
-4.7868
-37.234
0.82723
20.397
17.247
-6.8082
-5.6368
4.3848
25.862
6.9928
-37.221
-4.154
-26.769
-3.7404
43.296
-9.8082
-100.78
53.849
74.572
-53.007
55.294
-1.7385
-44.856
47.617
-15.108
59.527
23.91
-31.92
-56.879
-26.688
42.99
-13.371
-10.181
-18.254
2.5957
62.55
-7.1192
-39.994
-31.97
-21.89
68.678
62.476
-40.371
-14.446
4.4649
-6.3804
-13.426
-18.523
28.45
-5.1041
-43.454
-16.694
50.296
5.1011
49.647
7.9257
-58.491
-86.665
48.285
44.363
8.3401
82.889
-94.734
-9.3606
14.478
-6.1811
-12.452
5.8919
-15.687
-7.5145
49.374
23.912
-41.146
-17.239
-7.3309
-31.262
58.365
23.558
-30.217
-10.379
20.51
-29.044
8.0393
-2.6073
8.4395
10.267
20.576
-11.412
-21.065
0.017982
-6.5578
-5.0145
11.463
15.733
-14.152
-3.0739
-62.766
35.332
61.098
11.736
15.904
-40.977
11.331
-34.042
8.3536
-0.58104
0.17019
7.1859
-18.926
-6.4862
16.482
-40.847
0.51719
66.321
-33.66
42.516
-13.854
-28.091
-1.7751
43.826
-22.507
-16.194
53.139
-38.239
8.767
7.7934
-13.956
-42.518
12.829
-13.011
4.5734
47.881
18.888
-19.719
-46.339
8.4777
-24.191
-3.5302
98.747
-29.05
-25.457
7.7398
-6.0887
7.0004
19.913
16.962
-39.749
-18.943
2.1135
-6.3618
-59.09
51.923
45.822
14.712
6.0164
-17.73
-6.8774
-4.4058
4.1573
-17.015
-23.981
-14.124
-5.3813
-11.822
11.259
86.741
-2.3445
12.567
12.94
-39.429
-44.209
-36.283
3.0317
92.23
1.5986
-9.9917
-11.093
-34.247
2.435
-13.307
10.657
18.634
-15.73
24.096
20.492
-13.766
-40.407
29.315
1.4181
-26.706
10.507
-4.2671
-12.017
16.903
49.124
-12.758
-13.079
-13.742
-34.225
-13.741
47.94
16.33
-46.627
17.692
15.728
-26.021
13.166
12.77
-11.733
31.469
21.244
-33.623
-8.4154
-14.944
15.063
-0.4845
-9.3006
-4.7872
-22.937
38.895
-8.9215
33.068
2.2858
-36.254
-18.437
0.33506
1.6684
-10.077
76.802
-24.107
-35.41
36.099
-28.231
-31.95
49.411
34.21
-18.166
-44.298
29.296
22.195
-70.769
35.872
82.306
-68.959
-9.5774
-4.4583
28.98
-106.83
67.314
94.399
-39.734
-55.922
-5.2561
-32.59
-53.942
46.008
65.001
16.705
6.995
4.5562
-31.687
-40.798
4.8316
10.907
6.6539
10.526
-20.379
34.566
36.653
-7.6983
5.1159
-25.95
-49.796
3.3121
23.689
-0.43873
-4.6055
16.359
8.8724
-7.3916
-12.478
19.158
0.27688
-42.599
1.4977
26.61
-32.974
37.119
15.99
6.2377
-75.096
-60.368
72.347
36.487
65.32
-45.779
3.7006
-6.2911
-23.582
-9.0177
32.907
13.856
-17.396
-53.295
-31.314
48.61
65.431
37.832
-28.704
14.923
-57.628
-67.233
-17.722
19.411
39.887
41.84
-37.735
-9.2797
63.813
36.86
-22.206
-20.659
2.866
-76.964
-0.050555
42.2
-45.16
28.552
40.146
13.524
-7.4563
-7.434
-38.349
-19.111
46.43
-8.52
-7.8394
-18.183
23.034
11.403
5.7509
-32.496
35.705
-17.747
-39.719
25.53
-0.49399
-9.1666
-9.2988
2.9847
41.215
45.063
-52.258
-26.33
22.875
38.87
-12.969
-57.668
-57.513
21.024
-11.397
-5.3111
130.63
36.716
-73.195
-20.489
-17.66
-1.112
38.592
-14.986
-41.826
27.454
13.658
-21.535
6.081
35.088
24.771
-24.634
3.5473
-5.3407
-6.288
-7.3511
-23.038
8.9882
21.072
-10.398
-25.777
6.0224
29.976
-42.713
58.148
31.612
-56.611
-4.1583
34.1
-3.8552
16.28
-20.326
-54.592
-27.941
29.022
24.24
-7.6589
6.038
19.376
-21.48
-21.179
26.116
-8.3022
-27.157
71.677
24.178
-32.606
2.4115
3.792
-20.362
-13.033
7.2532
1.8683
6.221
20.546
-21.281
-28.551
-13.359
71.139
-60.277
-37.655
21.72
57.986
20.709
-46.809
33.672
-44.798
7.8882
-20.972
-5.6501
9.1092
12.55
46.893
8.5135
-20.613
-1.3572
-84.68
-7.4863
18.429
44.996
55.02
-26.265
-9.8822
-42.445
20.957
1.8352
-39.341
88.349
14.514
-31.834
17.966
-10.745
-17.563
-16.532
18.786
-35.55
-26.529
62.036
-6.8976
10.311
-12.821
6.9127
-23.74
-22.095
9.2411
15.968
45.068
-10.38
-46.227
7.6867
41.213
15.739
-42.487
-21.935
21.726
-22.021
-49.715
72.627
6.7042
-2.6041
-23.891
11.533
-11.27
-34.66
42.551
30.75
-19.887
0.71413
40.198
-8.1962
-23.355
-29.74
-14.637
15.527
-0.33718
-55.519
10.441
88.621
23.888
43.167
-47.264
-83.406
-1.2088
86.854
41.3
-56.831
-54.662
28.117
3.1325
-34.219
-31.158
-13.796
42.788
33.174
-50.189
21.264
80.552
-35.818
-49.474
56.494
10.886
-72.003
20.256
29.922
7.3957
3.4419
20.917
-86.199
31.515
16.011
-1.2877
-18.2
-102.58
79.166
62.827
0.96052
26.47
-62.133
-20.011
-21.681
58.15
-19.465
12.495
40.583
-26.011
12.883
-14.197
-39.274
-14.457
21.056
22.134
-14.26
-2.4332
0.062734
16.946
-25.054
-18.569
43.771
15.346
-5.9881
-59.112
22.639
33.335
-0.00484
-71.738
-47.439
42.17
30.424
74.957
11.345
-37.718
-18.876
-1.9808
31.515
19.915
2.438
-23.384
5.2681
13.874
-61.467
-23.279
63.45
-26.588
-32.049
5.5798
-5.707
17.546
63.188
-48.565
19.148
-12.623
-38.675
18.969
65.102
-10.136
-67.173
-26.988
57.106
-24.718
11.922
55.723
3.5934
-5.7576
-36.886
-10.284
-19.651
30.859
29.805
-64.442
-18.877
33.015
28.642
-14.792
-19.712
-4.3337
39.835
8.3477
-1.3199
-29.382
5.9934
-0.65662
-7.2461
14.032
8.504
-37.594
-5.5843
14.972
-10.264
-16.07
29.832
3.827
4.3789
6.5563
-1.8536
-41.039
23.796
41.735
3.0787
4.7718
-20.828
-11.196
-11.462
2.8205
-1.1249
-20.964
55.005
63.561
-37.482
-21.613
-44.101
-55.024
-17.392
96.627
-21.215
12.522
-37.175
-5.8941
2.3992
61.623
35.863
-5.9286
-22.657
-14.11
-44.344
8.6184
32.576
-23.32
2.4388
-11.545
1.7635
-2.3319
14.657
-5.7539
57.477
52.962
-92.461
-43.765
13.751
15.179
-9.0379
75.692
-2.1283
-38.613
-9.5819
-46.752
-25.558
5.5685
49.456
-63.232
19.189
119.7
-30.261
-12.314
-6.1734
-26.3
-1.7881
44.132
-51.776
-31.297
18.98
11.681
-5.9531
8.2499
54.137
11.627
-27.636
1.8009
-8.0593
-45.338
-8.1149
26.304
-4.0378
-64.979
36.057
56.474
1.1564
9.5588
-3.0949
-15.49
-1.4807
8.5407
-30.45
5.824
41.015
-15.431
-5.2326
19.905
-15.77
-29.505
39.266
-14.332
-36.899
36.576
-11.726
-51.76
54.776
41.847
-46.567
29.842
11.978
-43.037
-5.1501
29.818
-4.3319
-8.4811
17.662
-25.784
-16.698
5.4774
-3.2988
-62.018
-40.793
152.14
105.88
19.018
-98.112
-69.532
6.6199
21.288
-8.7747
-3.8195
-1.5156
-7.283
-0.19844
2.1537
-9.9776
10.762
6.528
-13.676
15.912
-6.5613
-62.1
11.782
-89.069
-73.155
149.79
-118.94
-114.92
65.419
116.83
-91.042
33.076
-1.054
-43.224
150.66
-48.552
2.3241
128.18
-47.31
73.143
92.292
73.599
23.184
-154.66
-88.804
100.68
-31.994
18.424
54.315
-65.951
77.709
-8.4445
-33.942
94.2
-45.37
43.513
-42.949
-53.608
60.241
-22.588
17.883
-107.49
-13.603
132.1
-161.02
22.419
10.256
-20.766
61.862
-41.55
96.114
-57
-98.366
114.24
-17.816
40.534
20.26
-59.314
39.406
-25.092
-68.329
-25.374
0.71586
12.068
56.373
24.888
-56.189
31.149
41.32
-11.875
100.33
41.633
-96.381
-35.161
98.998
64.056
-140.41
-5.9195
48.39
-40.577
-44.345
-75.638
25.676
51.501
-15.575
62.447
4.5235
-30.101
33.732
-11.976
-31.041
100.71
238.48
125.54
-120.24
-256.65
-181.2
-60.169
26.281
-51.302
59.825
0.40639
6.8884
-121.52
-332.5
-99.662
311.22
-31.292
22.166
236.64
14.373
-53.121
31.655
24.032
-53.675
40.978
-160.96
-51.265
110.19
-135.4
54.841
110.75
-33.953
78.751
57.781
-140.61
56.813
163.67
16.492
115.16
65.559
-148.93
-20.766
47.363
59.871
-42.046
-226
-55.396
116.6
54.305
-129.43
111.37
31.961
-112.56
123.49
-22.229
-60.391
111.37
-227.64
216.05
145.08
-153.69
-37.402
-61.18
-60.312
32.467
25.621
4.2569
2.3275
-1.5094
-6.2388
4.1107
7.5045
-4.1162
16.802
30.551
-52.739
9.1658
-4.731
44.266
-37.265
-68.26
31.618
31.636
7.1534
-34.602
27.499
-40.007
-77.406
-3.7208
27.25
33.078
28.014
-10.429
27.614
4.2382
-41.714
107.35
-61.24
30.578
95.49
-202.8
-16.723
75.498
6.5462
74.837
-74.963
-97.615
84.071
-8.7146
36.813
52.275
-74.271
46.044
10.987
-49.402
64.81
-14.23
-51.392
-46.74
77.664
31.737
15.03
-85.468
42.334
52.349
-40.55
18.76
-7.9221
5.9096
-52.857
30.821
-10.687
-4.7309
17.35
-88.856
4.6419
21.445
-19.049
-37.843
-34.384
22.126
-30.169
-8.5668
40.729
42.536
108.27
54.659
34.079
-68.755
-64.225
-14.617
-30.496
-106.4
-86.439
93.441
99.284
19.726
-6.4756
-30.683
6.9377
-0.27344
-18.283
-24.043
45.634
-43.727
119.58
-0.51564
-37.876
109.66
-53.399
-65.145
-51.389
-18.078
-5.2633
-25.034
117.49
59.85
-44.116
-42.501
32.988
38.386
0.89716
-48.731
-43.116
48.4
-9.0048
-19.249
78.648
-22.72
-9.0596
25.744
91.343
-60.164
-118.36
8.2307
13.455
-8.4105
-34.936
-0.14745
28.46
31.993
30.294
-24.487
-29.155
-32.801
16.096
81.571
-50.547
-4.7389
24.421
31.171
37.055
-129.95
-32.192
43.044
49.03
8.2706
-22.532
-28.481
-27.273
64.103
90.925
-60.358
-45.409
58.742
-90.308
-14.946
94.287
-27.079
-82.866
27.241
97.437
-30.942
-22.022
16.752
43.478
21.74
-80.783
-22.575
-31.581
14.546
31.241
6.3237
-57.864
30.762
-63.571
81.443
59.233
-48.088
-49.508
4.7894
29.503
32.951
-58.998
-6.1635
39.932
4.5273
-11.462
20.635
55.098
-14.53
-49.876
-0.27131
31.34
4.3772
-46.43
-44.268
9.1693
-6.1285
21.536
46.091
-15.748
-10.253
91.009
20.947
-106.57
12.484
23.794
-7.2812
-24.822
-25.07
-10.527
23.445
9.8344
23.185
36.077
27.063
-15.137
-134.56
3.3576
65.39
30.802
-18.487
-35.96
2.3312
-54.428
33.708
58.302
-5.3011
-33.527
-15.852
30.083
33.386
12.074
-66.906
26.54
19.092
11.063
-12.466
-17.522
-38.633
-19.819
2.1643
50.668
-17.146
4.4464
36.098
-96.07
72.524
112.49
-55.314
-52.629
25.429
-43.838
38.596
35.833
-28.728
26.868
-12.202
-28.849
-26.827
80.208
39.523
-30.301
-94.4
-29.686
12.328
-45.32
14.211
66.228
13.901
7.4427
56.095
5.6228
13.143
-42.563
-58.917
-53.081
61.135
50.643
26.101
-5.5611
-83.745
-44.005
-35.003
42.182
22.973
-37.587
37.279
51.996
-58.015
59.245
67.124
-78.443
-20.941
-0.26816
37.028
-17.229
34.82
-38.738
-42.496
45.99
-4.7825
-22.72
62.314
-42.866
-86.426
48.101
93.322
-41.077
-36.19
23.752
-4.7036
-26.791
39.361
50.783
-11.764
-27.85
-5.7228
-27.953
-27.267
24.61
-11.218
-17.805
31.756
35.133
45.03
-40.176
-88.12
-20.34
73.123
60.957
-25.107
-59.951
31.284
42.975
-5.7504
-22.242
-14.252
-15.58
-5.9616
-112.58
60.825
134.65
-10.853
-54.245
-9.8585
45.272
21.896
6.8473
-44.421
-67.449
5.3484
34.127
-3.8188
-4.3808
16.816
-31.129
-36.851
59.739
14.056
-7.5205
71.034
-65.217
-26.577
81.269
112.98
-65.614
-63.113
-31.225
-45.605
18.776
-0.59621
-20.758
41
43.967
-31.436
-30.844
-30.104
47.374
30.51
-14.515
26.186
-19.578
-34.817
-33.177
18.647
4.7439
-62.544
19.645
112.03
8.0409
-30.474
-22.832
5.1371
-1.4341
83.996
-16.186
-40.417
36.918
-12.075
-26.145
-14.416
-19
-17.34
-15.158
-2.1443
26.313
24.572
-9.9195
17.52
-59.232
9.5595
92.091
-59.758
-8.7276
-33.832
23.355
-2.5918
-22.094
-27.461
-24.894
102.81
69.148
-109.1
-39.222
29.121
-1.6643
-46.369
91.212
14.343
22.321
-47.518
30.146
64.836
13.734
-7.7071
-48.618
-43.216
-53.699
-4.2309
5.3894
81.857
-19.934
-52.45
68.678
25.004
-55.024
37.246
-15.689
-9.4013
20.908
-0.075419
-1.7595
-52.724
0.31274
32.838
11.836
-3.9176
-46.359
-54.713
97.647
24.274
-75.684
79.35
-29.611
-3.6283
3.8313
-1.1267
-18.512
-49.621
36.468
38.734
-23.457
-6.0832
16.128
-3.8527
11.172
11.389
-68.041
67.613
81.408
-66.672
-61.09
-16.563
47.809
-46.729
-36.558
121.2
-18.964
-21.976
-19.885
-22.415
21.297
14.307
23.256
-62.078
-14.324
125.35
-11.16
-40.36
12.427
-14.559
-45.269
18.508
27.836
57.836
35.024
-67.541
-96.029
-25.775
98.932
-1.9217
-17.539
39.911
-67.513
-26.888
32.836
3.017
-13.437
45.789
54.133
-79.339
-35.599
27.02
3.8745
-13.556
57.722
-9.7502
-47.129
54.109
48.807
-50.299
-5.1042
-24.802
-51.282
7.3142
12.644
4.2574
-110.61
64.405
71.204
-195.37
179.72
113.96
-117.53
-2.826
44.779
38.784
-9.071
35.633
6.3194
0.26682
-59.445
-17.875
15.141
14.429
-20.519
39.324
7.4143
22.642
-46.227
-41.18
-6.6122
-47.049
43.416
58.375
-15.594
-55.431
15.78
-10.746
-17.261
-1.8188
33.015
76.832
11.508
-25.385
-53.91
-87.768
9.3986
49.842
-48.209
83.672
73.831
-76.949
-15.311
-3.3808
89.802
-89.858
-22.939
14.569
-23.755
34.139
-10.944
-6.5312
-5.351
-16.392
-92.149
120.91
95.629
23.808
-36.933
-32.046
-5.8976
-60.063
22.427
-8.1444
-14.712
79.661
-5.5387
-28.249
-31.93
63.89
-55.801
-33.088
60.371
55.986
-47.496
-28.852
53.804
64.627
-119.95
5.6161
18.894
-19.009
39.387
33.719
-18.161
-19.723
7.6596
-14.935
-73.838
-31.326
70.93
20.604
-59.435
-17.668
41.682
55.476
-28.171
10.864
-8.5142
-6.6171
-25.166
3.8679
67.188
5.755
-4.857
-41.201
-23.597
-6.7843
22.366
-63.287
-11.06
65.891
-16.98
24.827
-26.797
-128.28
74.645
114.86
12.961
-19.402
9.5086
-3.7736
-94.356
25.291
85.599
19.245
-67.311
-18.94
-4.9238
52.078
-31.949
-62.589
102.56
21.744
-78.553
43.602
60.356
13.828
-46.666
-84.3
-15.325
30.458
9.8287
-35.26
67.33
48.207
-60.321
-28.14
24.973
-30.45
-21.811
84.968
14.185
-55.936
-28.261
-8.5051
-101.68
95.852
148.08
-50.931
46.014
15.262
-93.791
-63.801
63.812
4.3723
-75.128
19.848
9.1892
32.19
35.524
11.857
-48.901
-55.835
52.874
-5.0865
-15.136
8.7493
-18.54
-4.8814
-19.758
2.5172
87.9
1.5128
-21.12
-1.7148
-64.013
2.4696
11.448
25.608
11.476
2.6954
-22.101
-23.683
59.479
-6.0902
-5.7378
-9.4279
-3.8204
-9.7337
-5.3099
2.2954
6.8975
3.876
10.079
13.265
14.042
-39.892
-44.13
-15.411
58.393
17.246
3.3243
-28.242
29.019
-76.107
-37.552
80.169
-52.076
12.12
142.84
8.9172
28.976
-43.396
-125.53
-60.58
57.374
112.66
-19.319
-29.3
-51.094
15.655
41.63
-6.3999
73.323
-48.754
-0.40317
-12.957
-5.7451
-17.041
-11.354
4.8379
-30.996
22.783
23.876
-44.57
-40.483
52.505
3.4735
-15.593
57.73
14.12
-2.8315
-42.143
6.3783
6.6664
24.906
20.306
-70.811
-65.333
12.692
28.343
32.638
24.484
22.706
-22.188
1.9989
-31.071
0.19877
45.526
-86.684
75.367
76.909
-55.736
-34.453
-10.268
-36.972
27.51
6.2314
25.545
31.412
-19.877
15.073
-28.361
-119.8
77.033
29
-16.64
29.198
-0.48737
-42.929
38.902
12.84
-27.405
-39.407
27.818
25.633
31.132
20.591
-30.348
-58.613
-1.3855
15.062
-14.846
12.847
56.973
35.675
-14.026
-37.889
-51.245
-37.115
102.79
35.016
-60.359
39.269
-31.16
-4.079
-8.9409
11.991
-9.3156
-24.066
6.5462
-67.651
71.798
71.927
-118.32
10.222
45.472
14.899
-2.4114
114.35
-7.0288
-124.47
-56.109
-57.873
41.188
63.76
71.755
9.1103
-72.298
-31.573
46.761
49.513
-58.705
-12.304
-59.752
14.629
67.515
35.022
-4.4498
-20.838
-1.7713
-96.094
-27.984
115.02
-95.797
-74.625
111.5
77.412
-32.373
17.206
25.402
-23.698
-44.265
44.449
3.955
-30.634
3.1807
46.855
-18.531
-80.373
9.6341
-2.6323
28.235
12.188
24.978
-6.4695
-85.072
54.057
81.933
-42.573
-48.766
41.547
-10.118
-45.328
-39.208
52.663
3.4459
-38.677
66.298
-28.133
75.975
48.847
-37.321
-45.203
-15.872
-31.861
-46.568
-16.493
35.182
33.122
82.391
68.953
-38.186
-78.521
-44.405
-12.38
33.361
-10.859
40.272
-61.388
15.229
31.469
-12.224
-3.7666
-3.3354
-20.878
-20.593
51.385
25.909
-68.794
-11.235
79.927
46.395
28.261
21.776
-41.627
-100.42
-48.651
33.995
-20.759
26.632
18.439
-28.883
-31.139
109.15
-7.6798
-60.477
45.083
42.451
12.255
1.7668
-94.524
7.2482
6.5545
-30.07
-42.69
96.148
93.594
-26.148
-15.052
-45.6
36.992
-16.847
-19.163
-19.358
6.8721
-3.2846
-40.93
-67.506
30.396
100.65
26.863
-14.317
-45.946
-42.341
44.442
55.928
-43.589
-36.735
16.834
-19.323
16.008
37.753
25.967
-37.959
13.099
47.075
-44.064
-0.3844
-0.19602
-7.3497
38.376
-61.047
-85.129
47.676
41.334
-33.178
-22.076
36.268
-3.2306
-12.978
57.559
6.2613
0.92425
32.948
-15.549
-48.163
-9.4513
0.39535
8.6512
-16.313
-26.657
-30.246
30.775
28.358
-30.585
60.678
106.96
-39.841
-62.53
-10.506
-5.1372
15.5
53.256
-32.939
-62.56
-4.0623
1.8339
-16.067
42
-4.9849
-8.2656
25.486
9.4983
-8.2733
-13.902
10.442
-13.45
-10.119
7.4857
18.036
-0.99118
-6.9111
-5.6228
-28.858
38.856
27.622
-58.056
-7.3165
24.613
-20.733
-23.968
38.957
-7.5965
-52.586
45.142
24.144
28.414
73.344
12.398
-115.84
-53.468
118.16
-2.5398
-31.713
-0.79024
-24.398
-52.69
28.409
60.55
23.882
-58.169
-24.021
68.043
-14.533
32.83
-43.376
6.904
-11.871
-4.2751
-15.334
-26.472
-11.399
-15.086
89.055
12.65
-43.659
-13.435
-3.5673
0.10913
47.645
15.443
-37.681
-48.064
64.845
14.254
-37.791
-48.888
-4.9301
70.015
40.394
-14.342
-94.95
33.123
14.693
-51.235
26.62
3.139
5.5021
14.664
23.415
-34.884
10.282
37.593
3.5139
-5.4873
-30.486
-24.353
26.91
19.478
-21.288
7.0002
70.81
-8.7736
-45.632
-7.907
2.2234
38.091
-36.684
-23.943
-24.794
-2.713
45.867
-35.106
35.794
47.75
-54.873
-43.504
25.007
40.009
-20.726
-14.107
-10.558
32.706
7.7261
15.166
-36.028
-4.526
10.498
-21.77
-31.014
36.147
-5.8128
5.2995
44.636
-18.586
-32.424
-20.042
-4.9838
64.121
39.96
-18.057
-14.771
-18.888
-39.946
-6.3482
36.311
8.883
-28.527
-25.294
41.718
-12.412
25.544
32.998
-31.751
-23.144
-5.4961
29.463
-34.938
9.866
25.242
27.253
-36.835
-42.133
15.619
-2.7314
36.638
79.86
-49.032
-56.073
-12.391
-2.7355
2.2984
-16.431
42.378
-50.44
7.001
35.729
7.7426
13.033
4.299
4.2907
-23.81
1.7716
7.0754
7.2817
-11.552
0.22099
-11.157
-8.6007
-21.001
-10.778
107.16
-9.7766
-34.525
-26.988
15.661
7.748
-37.228
0.036101
3.4319
-9.9841
85.645
42.685
-43.251
-74.253
-74.033
51.603
58.291
-1.585
-5.9712
-5.0387
2.5265
-25.597
-38.023
67.583
-23.165
-70.883
129.55
-22.407
-10.978
3.7609
3.2185
-36.175
16.068
9.2047
-40.934
49.03
-23.184
-32.944
94.637
-38.152
-10.103
30.856
-18.339
-26.095
-2.1707
32.901
39.167
-9.783
-59.109
-159.91
-80.524
193.49
95.12
25.627
22.982
-63.482
-39.369
-1.7413
-10.327
-17.973
29.444
24.12
11.457
-6.5082
20.564
17.344
-3.9475
-12.598
-13.167
-11.482
-1.9188
-1.5769
-8.179
-0.23964
-4.3758
5.2624
4.4649
-13.42
-19.109
26.025
72.09
-10.772
-25.747
1.5635
20.673
18.096
-122.04
-10.766
7.7478
-45.37
73.21
49.111
74.25
-4.2184
-47.976
-39.585
25.545
3.9235
-57.404
47.686
6.7156
-46.125
59.181
2.6344
-103.28
20.052
29.499
27.29
-2.4327
-41.418
32.807
15.232
-6.9472
-23.076
-15.501
-18.61
29.238
37.811
38.459
-81.122
-4.0462
24.115
-31.59
16.233
0.92379
10.027
3.3185
-21.374
4.3005
-6.7669
-33.333
50.721
-3.2503
0.80277
41.297
-54.173
-21.258
41.693
-9.7607
-48.728
-5.2522
53.178
2.1354
18.949
35.305
-103.05
8.1371
75.733
-15.974
24.268
-28.842
-22.617
7.7512
55.881
-18.007
-30.744
-7.8777
-7.8593
1.4584
77.107
36.735
-73.073
-83.923
-30.957
121.42
48.422
-82.459
-38.122
65.43
-25.05
27.556
-40.981
-23.742
55.907
-31.464
-45.192
-40.244
-18.821
53.618
29.81
-10.107
80.7
-12.261
-124.87
36.713
94.602
4.774
110.39
-59.064
-14.471
-94.078
-10.804
51.13
16.523
12.572
-31.16
-39.338
-22.741
-19.139
40.404
5.8552
38.551
-56.891
-1.7234
60.693
12.254
-25.716
-104.83
-50.888
128.43
-28.218
90.703
27.976
-43.295
-85.283
43.73
94.063
-50.89
-44.458
14.338
-6.3787
19.4
-35.281
-0.46046
-12.603
-8.8908
21.337
-14.861
9.2706
15.317
0.80415
-2.1412
-0.046043
-26.334
6.5575
86.19
-13.52
49.727
18.291
-86.359
-64.917
1.0073
-20.513
-20.7
28.779
104.83
5.9372
-59.114
52.966
-42.257
-9.3906
-36.1
-42.146
6.4286
70.317
-7.4221
10.396
55.31
35.85
-11.598
-138.04
-40.064
-45.424
81.972
121.91
23.597
54.862
-34.571
-63.509
-96.973
1.9951
-58.749
115.19
48.891
-37.455
52.816
-47.74
-56.94
30.996
47.754
-19.223
-70.219
41.565
17.412
13.241
-29.626
-38.535
-38.552
33.907
1.7449
86.225
7.5865
-65.011
-37.489
41.874
47.297
-7.7534
-3.7933
-25.682
8.3281
-4.0332
13.074
85.04
-28.51
-72.048
-24.646
19.514
-19.937
-41.356
34.663
36.242
-4.2142
14.067
-27.136
-20.923
30.788
-24.846
-12.13
27.804
21.654
6.7041
1.6204
-21.766
-37.245
51.726
2.7003
-23.09
-21.396
33.844
-85.245
2.1561
45.289
36.095
4.6466
-3.6614
45.24
20.689
-4.3276
-42.348
-31.713
-22.199
2.5514
8.2851
30.056
-88.638
-43.346
154.16
34.693
-18.768
-6.4752
-15.453
39.44
6.0739
-111.38
-69.366
57.264
12.15
-23.671
83.07
-86.328
-71.748
118.89
109.82
-44.248
49.712
-82.352
11.938
27.572
-34.138
-71.977
68.412
76.409
-42.922
-61.593
-43.737
51.142
38.934
10.274
-5.0427
13.471
-32.495
10.225
-44.003
-19.54
54.559
-39.453
-23.931
74.952
6.3362
-16.406
7.3938
-13.441
-21.628
5.7762
-34.094
26.752
-1.7465
14.35
83.642
-67.28
-54.291
32.401
-31.063
34.686
-21.429
-33.335
12.526
8.3461
39.041
-30.701
8.4343
64.306
39.223
-87.45
-34.807
68.896
-31.509
23.71
10.547
-24.356
-2.2161
-24.872
-19.58
22.723
3.4781
51.746
-12.563
-11.716
-22.312
-26.45
41.424
53.294
-61.505
-64.447
-3.0487
78.603
21.386
35.333
-73.672
-54.591
28.551
-46.798
36.158
-35.695
80.939
27.07
-72.98
93.467
-27.043
-0.65079
-0.95209
-46.338
3.779
36.277
-34.9
60.366
-34.791
-11.1
-2.5418
-31.261
-14.79
-31.006
74.451
68.29
-29.441
-55.909
-17.095
18.092
4.0799
26.382
-29.631
77.583
21.982
-93.878
7.8541
2.0105
-21.72
-7.9604
25.338
-42.122
-15.721
140.67
-56.104
-0.49306
53.873
14.313
-21.516
-32.61
15.896
17.632
-63.566
-51.325
21.013
28.813
-13.36
46.139
-12.793
-35.583
8.0387
-0.695
-17.853
-4.8279
6.902
20.141
-4.6219
-15.482
-26.177
-21.275
39.782
-11.261
73.375
98.678
-26.88
-3.5953
-99.538
-51.032
68.554
62.689
-93.457
64.529
-30.756
0.63548
-10.073
-74.222
24.813
-18.783
47.273
40.479
-34.721
3.956
-0.76751
-19.14
3.5935
96.102
17.629
-91.667
-33.3
-18.796
81.748
-27.856
-67.783
26.599
3.4885
4.0337
-0.56587
-13.365
-41.089
107.34
94.146
-86.129
-48.285
6.1215
2.7326
-7.3965
-8.8277
34.507
26.01
-77.82
-37.876
-16.188
158.69
53.215
-36.627
-49.985
-81.409
-4.8483
79.49
66.033
-19.832
-61
-51.055
44.234
-15.745
-19.638
85.232
-9.4687
-27.457
-22.224
-23.337
36.87
42.33
-44.762
-38.843
22.213
-22.753
-19.587
-2.377
124.2
-12.924
-36.809
-4.5143
-69.596
-29.75
102.4
-46.081
-70.176
58.322
57.594
19.221
66.416
-23.778
-99.565
-9.5685
-3.4346
-8.2014
50.305
4.9866
17.117
32.431
3.476
-3.656
-16.403
-37.669
-18.012
-2.2955
28.275
-7.1373
-9.288
-0.59323
-19.344
-8.8578
11.544
4.4405
4.1042
50.156
22.193
-39.484
-94.342
64.294
87.798
-81.982
-72.832
-147.65
120.36
163.64
-24.884
13.723
25.869
-59.833
-52.176
36.178
48.759
0.64899
-41.119
-24.687
14.17
61.097
-20.68
-73.592
-26.739
37.221
-31.245
9.916
80.692
-13.561
-38.034
45.361
32.536
-21.018
1.2857
-50.187
-39.552
55.802
35.862
-28.82
-35.924
2.8773
5.9493
-0.92209
0.83997
19.114
4.973
-27.992
-22.847
-46.87
54.951
122
-40.564
-72.494
44.961
23.627
-31.148
-24.926
11.354
-12.616
-18.602
19.144
-38.918
4.508
46.779
-0.051819
-34.443
56.038
55.74
-25.479
-78.899
-30.906
2.2251
69.233
-12.313
-22.889
20.608
-12.836
-8.779
-3.1781
32.899
26.777
14.755
43.354
-16.766
-102.6
-5.2389
15.825
-89.213
-5.8223
62.07
63.454
21.314
-0.78027
-25.45
37.02
-27.28
-4.2747
21.814
-32.91
29.644
-53.194
-13.529
-53.312
-117.37
9.9186
147.22
49.471
29.571
-6.5847
-14.815
11.28
22.716
26.74
25.056
-51.18
-28.491
6.3498
-13.307
-0.66475
8.9189
-2.9236
-11.452
6.5509
-5.9019
-0.69606
4.296
10.105
-19.536
0.20848
-20.706
-45.355
-72.37
-16.213
96.025
91.012
27.227
-5.7448
24.484
-3.0564
-23.403
-6.1414
30.554
-65.474
-134.41
-48.526
27.54
124.55
36.105
-278.01
-102.99
70.533
-124.97
217.49
134.14
-47.04
121.93
-22.483
-11.744
45.29
-33.269
91.117
0.29448
-63.313
76.75
6.2306
-36.447
73.146
-10.426
-6.0984
76.277
-40.165
32.335
40.518
-173.99
70.27
175.06
88.802
-75.888
-99.919
-22.015
-41.356
35.117
-17.319
-69.889
30.954
-64.101
-4.5376
20.119
-44.707
60.429
-13.323
-57.684
43.025
-98.704
-118.59
-144.24
-102.47
221.89
215.7
-68.966
33.195
67.241
-101.28
-3.7428
116.2
-16.838
-24.771
83.371
-36.842
-120.71
-44.524
0.29501
95.375
155.47
4.0075
-60.743
-23.114
-71.537
33.052
16.41
-34.253
31.859
-3.7171
-27.736
72.389
-18.887
-0.65926
101.19
-99.914
-42.368
80.022
-128.32
-132.5
-16.344
-19.26
92.429
225.53
43.45
126.51
-1.5706
-255.87
-116.43
29.667
-18.989
-32.921
61.777
47.617
-55.629
65.177
1.7571
51.902
38.534
-21.823
-39.464
-86.321
-60.211
-77.165
65.429
107.11
65.344
19.977
-24.193
-4.536
-27.579
-63.193
30.28
-81.867
-10.966
81.643
-59.673
80.812
37.022
-31.892
-0.50384
-110.57
77.244
88.105
6.5724
-64.648
-105.42
146.27
178.47
233.88
138.16
-140.36
-290.34
-115.27
-60.016
-60.753
-53.757
-303.9
130.48
225.81
22.816
121.5
-78.156
-75.758
32.93
27.441
78.606
99.955
-373
-107.44
181.22
-298.45
64.043
113.44
9.6154
204.67
181.87
-167.46
-188.9
14.162
177.95
134.04
-146.7
35.663
53.366
53.58
5.5953
-37.006
-51.546
-50.68
-3.9941
50.564
36.838
-25.414
-28.286
-32.91
-29.462
88.364
23.238
-31.376
5.3003
28.891
-31.999
-23.233
207.96
85.713
-162.48
-216.38
-92.544
107.64
14.528
-2.3301
-13.197
41.807
37.116
85.243
-31.972
-20.836
-18.434
-64.497
-6.2124
-55.65
68.246
-4.9428
-18.986
59.93
-91.144
-115.21
118.87
-12.201
-16.531
55.291
-12.125
2.5888
-36.197
25.433
100.92
-41.304
-66.261
-0.4748
-22.784
48.129
50.404
-43.319
8.4532
13.906
28.836
-29.606
-43.942
-11.165
-20.646
-36.289
15.493
20.451
52.397
27.824
-2.6176
-24.256
-25.946
8.1339
-33.356
22.271
35.967
-16.431
5.416
55.753
-10.328
-57.539
13.047
-35.52
-8.2015
48.364
66.095
-17.148
22.819
-29.411
-64.122
41.734
38.751
-48.632
-16.806
8.1138
-59.182
18.836
54.506
-21.707
23.403
21.142
-19.477
-47.57
3.7848
59.028
4.6296
-24.366
7.5557
-21.907
3.4317
16.247
-7.3544
-19.288
11.826
17.152
50.063
25.114
-13.969
-40.095
-32.719
-17.833
-29.707
1.5431
12.708
34.316
5.9731
39.797
-18.054
-46.294
12.346
13.843
5.8847
13.039
26.842
-23.293
-50.797
11.65
49.894
-16.107
-14.712
4.1478
-20.433
-21.717
34.236
17.073
-18.663
60.261
4.7472
-7.5486
-42.981
-7.0703
6.6641
-0.17671
17.364
20.123
-17.509
-30.672
-8.1478
11.488
38.377
-9.383
-29.676
12.599
5.274
-34.911
-28.631
73.727
-25.685
85.1
20.508
-112.08
-99.789
109.69
-1.3064
-45.439
22.19
37.415
8.4171
-3.0665
10.992
-13.962
-50.686
-3.9854
56.51
2.2071
27.03
45.556
-87.863
-31.537
19.613
24.642
-37.125
-15.817
-27.714
65.331
64.77
-33.32
-10.101
4.4296
-5.1792
-14.635
-17.074
12.873
4.5029
-11.803
21.734
-17.667
-22.777
23.599
4.0831
-17.433
11.474
30.319
-38.975
17.362
10.163
-2.3436
-21.234
-13.794
-10.927
29.647
71.56
-59.733
12.243
-23.284
-23.139
-11.825
-11.607
17.506
106.44
-9.4748
-46.99
-42.184
68.134
-28.278
-10.156
49.801
-32.966
-31.999
0.72203
-8.3447
15.495
24.677
-3.7722
-12.098
26.049
24.055
-18.837
-23.467
-2.3276
-7.2004
-39.38
22.898
-62.808
-4.1231
103.31
76.878
-31.879
-89.085
-15.327
78.13
-20.955
-52.467
-2.6932
-25.54
21.348
120.77
22.051
-62.413
-2.2616
-41.413
-19.867
9.5675
31.634
-7.1468
-46.026
15.948
-28.352
49.364
42.103
-12.667
-26.181
-24.741
-3.2964
-28.322
-9.6879
66.538
4.1011
-0.53465
24.882
20.519
-46.99
1.9881
34.438
-11.408
-23.665
18.549
-22.335
-82.265
39.926
86.308
-72.566
0.49883
6.7766
-0.8686
64.389
3.8738
-18.711
-2.0939
40.453
-70.797
-88.942
34.579
71.066
-18.188
11.474
-0.64159
-1.7307
48.196
-30.028
-13.23
-31.982
8.7987
-14.751
3.214
15.317
20.714
-59.841
-24.388
109.73
25.916
-39.863
-20.803
8.8239
-23.053
23.161
38.022
-50.492
-0.84755
53.822
21.746
-12.278
-56.057
-29.07
-34.381
-33.827
8.6764
129.78
7.5844
-58.858
-11.324
-60.509
30.363
42.381
-31.122
16.471
89.281
-8.7772
0.75573
14.083
-41.5
-49.753
4.0063
23.976
-64.875
73.985
53.211
-88.534
-3.2905
11.348
-6.7361
-40.406
-19.606
153.75
-17.613
-35.574
-22.535
-40.332
7.5955
25.154
-13.027
5.2888
26.246
13.629
-27.065
4.9347
37.152
-15.682
-29.163
-39.468
1.7074
19.814
30.511
-6.4709
9.576
-19.17
-17.704
1.3898
30.967
24.617
-51.06
-1.2173
9.4883
-2.6447
3.8802
52.793
2.5452
-77.561
6.0492
-46.028
13.642
53.433
-17.037
48.762
1.5361
-4.2826
-85.149
70.965
126.54
-170.09
-33.941
67.608
-26.655
-1.4359
50.264
28.392
-22.898
-40.831
-2.7663
37.324
2.0712
-12.515
-84.469
36.453
42.882
-24.136
-47.717
81.594
6.5847
-57.855
66.325
-31.502
-50.518
62.341
9.5632
-67.39
35.744
-19.129
-12.539
3.6679
55.158
-15.962
12.138
76.219
-48.885
-25.073
4.4977
-19.352
-41.234
24.412
25.441
0.17638
16.515
-11.276
-17.622
-48.832
17.721
-53.85
32.563
92.6
-25.316
1.1037
31.379
-23.799
-19.723
-3.1446
0.49751
0.16632
-22.233
-0.14969
29.5
-8.0497
21.124
3.0746
-27.591
-2.5746
-47.079
37.338
101.1
-88.91
-16.125
23.304
9.6806
-7.6352
-9.4779
2.8482
-0.76968
10.379
-48.735
2.7118
43.096
-22.895
-0.40752
44.394
10.464
-16.693
-18.888
-29.208
-20.448
63.003
16.661
-57.824
49.738
10.833
-72.896
60.701
29.097
-89.92
17.962
55.184
-30.844
14.922
2.3006
-52.558
16.846
-8.5845
5.7101
22.486
6.1187
-35.729
57.766
46.093
-131.56
51.869
62.708
-107.54
-51.21
59.136
11.852
58.937
5.5081
-121.15
12.868
26.779
37.601
36.527
100.34
-61.047
-81.459
43.766
53.371
-36.54
-31.678
-4.1831
-20.033
44.847
-31.251
-20.274
-2.3439
-12.478
44.473
16.474
20.509
0.79342
-38.006
-66.831
-13.927
34.671
35.086
5.8857
-38.861
-18.158
55.445
15.858
-7.4855
-21.361
6.3084
50.019
-89.733
17.286
19.051
-20.247
-24.913
51.546
7.8638
1.2188
12.574
4.2897
-11.235
-11.253
-9.5825
-12.81
2.1142
19.028
-10.433
-15.56
19.009
3.5754
-35.048
15.257
14.382
-41.07
-0.60524
-8.3941
67.798
19.426
-0.70173
-32.231
2.5792
2.755
-7.8832
-2.0883
-38.045
-40.611
73.25
26.549
63.462
-19.687
-96.859
-15.302
-18.593
36.795
74.53
32.741
-22.287
-3.6976
-9.4
-33.535
-68.149
118.5
-5.887
-111.19
-53.53
106.35
-15.751
8.3809
78.613
-17.551
-67.849
88.493
26.617
-104.3
-40.515
-158.18
118.69
126.15
-87.51
131.67
40.96
-72.174
-62.633
19.913
53.134
12.484
-19.376
-54.816
-20.555
46.865
-50.995
-14.864
98.341
5.3079
-85.6
74.072
4.96
-74.092
-25.299
-4.3003
-48.502
42.875
115.32
33.936
-32.7
-37.184
-26.356
33.572
39.168
-94.851
-11.109
43.94
-19.13
-56.296
81.055
30.989
8.758
-57.395
-30.779
3.1124
86.246
-7.0003
-52.58
-21.088
3.4237
-52.648
12.056
110.5
82.937
-68.812
-88.622
-66.771
-11.647
4.8352
155.2
47.306
-91.885
31.613
-44.456
26.746
2.074
-57.819
15.795
26.159
-11.903
-106.14
45.321
80.272
-35.056
79.784
5.1385
-68.049
-55.485
37.725
-33.513
-101.92
161.52
29.372
14.327
-8.5404
11.744
-32.393
-24.527
55.108
-114.4
-74.566
167.68
3.5762
12.437
-37.764
-18.065
-24.434
57.307
-11.134
-119.82
45.417
133.27
14.317
-4.682
-70.45
-78.246
59.221
28.398
-28.147
-2.1536
8.9594
-78.896
-104.14
182.27
55.713
4.372
26.048
-77.776
-21.823
29.342
-56.45
-29.286
79.881
37.249
-93.636
90.517
97.204
-124.65
-79.425
15.926
59.902
-57.557
60.88
30.281
-29.402
17.51
-6.7539
-72.43
49.148
90.788
-65.325
-25.086
19.416
-16.958
-27.96
-25.054
-5.7903
-25.023
86.473
42.119
-35.98
2.3635
-18.859
8.6327
-21.941
47.473
20.158
-68.972
7.0123
-7.252
-34.367
-14.373
40.844
-15.663
25.064
91.421
-1.298
-46.052
-40.573
-35.274
-39.87
102.29
32.154
-34.753
-20.216
-1.2103
-57.309
3.6395
61.932
19.1
17.664
9.9153
-35.537
-4.7088
-15.26
-25.897
-40.868
100.81
13.558
-39.801
-18.066
48.18
-34.108
4.8324
-43.887
-8.3608
17.322
7.8957
57.691
2.2853
-31.298
34.951
-12.992
-6.4126
-31.238
12.701
-4.3576
-25.614
25.714
-17.138
-28.106
41.59
79.159
-109.62
2.9685
34.661
-15.373
52.754
21.119
-48.558
-25.192
-31.015
-10.723
64.658
27.4
-41.791
-3.5987
17.262
-15.452
-1.899
-59.079
11.147
-15.334
88.514
94.405
-21.562
-23.257
-65.44
10.952
-21.333
11.09
18.51
-59.3
51.595
-22.019
58.339
-57.842
-30.645
29.028
10.426
-93.953
-44.533
146.64
77.499
-9.7661
-56.764
16.976
12.368
-49.416
-12.515
13.144
-12.996
4.995
18.473
4.4018
15.092
-45.057
-37.813
20.291
56.109
13.902
-47.395
41.5
-7.259
-1.9187
23.495
-19.516
-6.2795
-3.6371
-20.054
-31.902
-8.1372
77.235
6.1053
-55.815
-14.606
3.4266
-19.596
2.2455
26.669
63.618
-17.364
12.132
21.647
-46.296
-3.4069
-34.171
-5.1902
7.7345
59.789
-30.349
-43.044
61.692
-31.572
-40.5
18.009
49.703
8.9881
3.6698
-41.987
-26.91
-58.943
47.493
33.366
-58.054
74.444
19.149
-45.161
30.388
17.155
35.943
-5.795
-54.004
-37.818
-11.769
61.647
-1.3337
-22.6
48.327
8.7839
-100.22
85.017
-5.5631
-46.184
39.834
14.938
-11.78
-22.835
7.5442
-29.667
-5.5497
18.239
61.699
26.884
-64.314
-19.036
13.344
20.495
-53.834
-17.734
-2.1781
43.223
55.845
-43.399
-18.57
-29.33
-6.0544
14.89
-13.43
14.042
49.61
-2.5953
-92.556
67.868
114.95
-36.865
-57.772
-14.063
-19.665
5.5216
8.2918
-1.5462
1.2398
-11.812
-50.662
-85.255
57.996
120.01
-144.14
27.999
166.13
-74.153
31.661
66.778
-3.5846
-73.544
-44.017
2.8907
24.924
71.593
-73.843
26.683
58.264
-44.56
-38.757
-10.536
-6.7831
25.014
28.412
-30.318
-16.257
-20.821
-2.0767
-26.15
24.434
31.33
11.093
6.6002
7.5584
-42.278
-11.654
1.3458
-38.825
-75.055
183.64
33.485
-64.4
-4.846
5.1089
-0.63912
-2.4937
-23.519
44.654
3.0193
2.2629
-11.623
-25.121
-55.422
20.929
40.458
-26.735
12.811
39.378
-3.4783
-48.39
1.1755
-30.955
-36.886
103.2
12.315
28.946
-59.507
-2.8116
32.429
-10.604
-57.168
-61.159
111.42
10.425
-1.6658
17.078
-76.373
-39.782
-13.776
111.27
46.929
-73.688
-13.721
55.716
-46.794
-11.32
58.542
30.854
-0.71769
7.2879
-53.592
-28.047
30.954
-3.4954
-8.5522
-4.9921
-34.101
-17.423
-61.147
57.708
28.674
10.257
95.223
-17.096
-60.278
-28.743
-46.427
-26.251
130.74
131.39
-157.84
-61.611
83.758
-3.0808
44.408
-85.898
-42.947
-54.951
158.88
83.252
-117.28
-12.066
2.2886
29.711
-23.575
-1.5566
-33.093
-8.9283
31.494
14.997
-1.0634
17.91
-44.618
-29.583
14.706
72.471
4.4609
-75.133
-20.097
-17.624
35.921
68.812
-17.449
21.861
6.4873
-21.43
-4.3442
-29.068
-30.53
-16.096
49.153
-22.921
-63.298
61.157
-2.5417
-110.26
151.9
-19.142
-98.13
173.7
54.281
-94.917
20.597
-2.6236
-69.231
-16.077
29.454
-16.292
72.771
77.131
-89.985
-2.8356
16.899
3.7582
-35.694
26.972
4.4784
-72.45
-0.92461
11.263
11.408
15.63
-10.165
-26.205
-7.1078
22.803
-4.358
22.751
45.573
-74.21
-7.1116
60.001
62.967
-67.007
-55.227
-29.964
11.005
75.024
8.5981
-32.14
-25.917
4.7092
-5.4726
25.499
58.342
-39.269
-24.447
-14.255
14.937
22.066
-38.59
-14.896
-43.072
14.976
12.976
10.198
132.05
-30.495
-53.375
4.5685
-12.243
0.47998
-16.255
12.146
-18.031
8.2525
36.055
-42.58
-14.665
25.459
-1.3293
-44.86
11.537
54.941
13.957
-2.8393
-11.046
5.3725
-30.303
-25.621
1.8515
17.069
31.132
-0.03679
-41.823
15.284
15.901
-37.185
72.271
6.6889
-48.087
-32.969
30.188
-41.359
28.758
88.636
-83.149
-7.3406
41.5
28.596
-23.736
-26.357
-9.7726
-29.254
56.526
41.31
-92.272
-23.813
5.2872
98.792
0.89336
-27.826
-22.05
-6.147
5.2236
12.41
45.025
-39.94
-26.536
7.0073
-12.552
14.871
-29.596
-29.255
66.774
21.372
-15.946
-13.253
17.318
-21.65
10.564
-42.993
16.461
26.354
11.362
-5.6407
-12.925
20.523
-6.536
-18.427
-20.021
17.006
13.102
2.301
-9.1914
-2.2263
-7.1812
-22.732
34.977
-40.52
-3.4967
62.176
11.595
-4.5118
-19.127
-31.664
-57.859
49.771
63.458
30.324
18.429
-44.767
-41.845
5.0491
15.21
-40.627
12.775
59.723
8.111
-60.809
15.512
-10.511
-19.277
32.938
-20.492
-48.503
96.812
-1.7089
-9.9537
8.754
-70.574
-24.974
110.55
-28.621
-37.631
-10.007
28.028
33.024
-67.221
-8.9273
77.585
5.318
-9.0979
-38.537
-30.443
-14.303
26.404
15.183
37.694
25.594
-40.532
-25.431
28.687
32.85
-61.999
-34.942
24.77
41.448
28.608
-32.918
-19.384
-10.766
-2.6175
10.832
35.903
-2.8628
-13.731
6.0149
-37.844
-20.504
65.296
2.5855
1.9911
36.105
-38.157
-47.296
-58.325
26.015
7.8154
-140.06
141.08
175.54
-71.376
-51.193
-19.227
-20.687
22.04
-3.6875
-157.53
54.577
127.54
27.353
5.9487
-18.848
-18.857
51.339
9.206
-59.424
5.1596
43.329
-32.229
-41.662
16.226
20.401
1.1473
7.2047
-8.6961
0.73058
16.352
-17.016
-12.873
12.872
-7.3436
-18.012
-3.1663
-19.797
-0.28483
0.40482
-27.432
-6.8543
58.697
47.536
-11.36
-5.8918
23.327
-37.489
-112.55
118.74
9.8124
51.83
3.9443
-99.853
-41.559
66.904
52.492
-20.359
-23.762
-56.004
40.717
27.65
-5.4006
-9.0148
-23.328
-31.21
21.691
-43.442
-64.299
105.11
136.74
-25.677
-54.803
-40.424
19.646
44.571
17.281
-19.78
-39.014
-23.462
-64.967
17.478
54.865
6.6981
-58.54
-24.349
91.703
-9.4487
2.1732
-27.007
35.917
-40.838
9.0821
64.053
-52.209
-56.256
13.681
71.858
-7.3266
13.885
-1.8717
-26.211
-30.27
12.577
-13.685
-13.177
26.632
-2.6126
-161.02
95.066
199.77
-88.55
-56.058
62.518
61.31
-85.383
-46.609
-25.036
64.222
83.863
-45.03
-63.054
0.39733
2.9516
67.902
10.597
-32.415
-38.236
8.7966
-23.215
-18.93
0.46884
57.765
15.328
-45.869
-1.2697
-54.091
61.159
32.48
12.173
7.8569
-53.698
-23.162
44.406
-16.685
-21.831
0.95731
30.383
21.022
5.3533
-14.045
-14.866
58.831
-32.274
-35.681
-31.816
40.482
-31.911
-1.3812
81.904
-19.804
-43.892
-2.693
16.074
-1.2527
-49.339
-10.23
48.369
96.902
-41.626
-67.821
17.363
4.8156
-11.017
39.671
-0.060204
-3.225
15.147
-11.133
-181.55
-126.4
180.67
101.56
-16.772
17.222
97.545
-17.416
-5.1854
12.683
-69.55
-35.815
46.107
25.372
4.5217
-31.037
-31.576
22.859
35.192
-73.731
-6.4214
2.9343
38.314
-4.7863
-52.737
50.74
39.469
-114.39
45.609
72.442
4.5609
4.0568
-23.993
-52.319
-50.101
59.082
4.5343
-53.555
62.387
1.6333
11.365
-7.5198
30.251
-36.139
-75.967
20.995
4.9975
41.411
46.015
22.191
-58.152
-20.086
19.891
-26.231
-62.221
58.445
68.505
-18.019
-14.828
-0.69113
-28.881
-23.723
8.4498
8.9868
-29.27
12.776
29.149
9.1319
72.896
-45.124
-32.764
39.497
-20.363
-13.185
-14.53
-15.506
-51.917
-34.14
89.143
110.08
-38.486
-137
80.886
-50.927
-89.441
151.25
4.0003
37.1
117.23
-62.429
-90.903
-25.387
-8.3007
-83.521
81.65
72.139
-23.749
-17.089
-25.039
-10.677
45.268
136.29
-89.525
-95.784
59.389
11.71
-60.265
79.687
50.724
-45.939
0.069677
5.2748
-77.473
-60.603
38.498
7.3118
-23.773
114.25
0.028698
-35.513
-36.006
-41.528
-105.88
167.42
50.962
-68.853
7.3373
22.392
-18.881
69.672
-1.9903
-80.632
-15.606
38.015
28.176
-5.9273
-28.999
-18.264
-5.0632
19.168
34.899
-51.784
-86.635
5.3413
49.526
69.265
99.445
-91.253
-72.673
76.5
12.577
-27.567
18.68
-51.622
-88.207
27.273
97.929
22.779
-40.131
-30.04
0.32898
-7.472
84.067
2.1441
-68.495
42.076
-13.513
-15.267
2.916
2.291
-30.301
24.865
28.081
-47.593
-50.792
50.101
-28.573
94.036
67.075
-109.46
-33.746
70.994
31.901
-66.171
-44.949
-21.609
37.905
70.339
-26.914
-64.005
38.189
22.957
-19.624
30.051
-3.4387
-23.91
-22.168
-9.6623
-83.874
-32.897
114.86
27.101
-34.942
156.87
-14.336
-81.478
7.8505
-1.1552
-35.32
-32.352
29.166
33.43
-27.728
-19.067
-31.851
38.131
-17.533
5.9454
100.72
-30.526
-45.817
6.9992
22.978
-9.4824
54.201
-4.2658
-43.187
-53.687
-5.697
0.85563
25.839
-3.0328
-47.496
56.884
9.0602
-41.993
70.795
11.081
-13.925
-8.8756
-5.3346
-25.774
-29.43
83.241
-34.66
-36.258
16.459
-0.3929
-46.546
-42.628
66.51
7.257
7.9477
130.16
13.599
-27.025
-5.8118
-90.592
-48.723
35.727
-17.2
-40.011
6.0561
16.739
-21.414
43.034
64.8
-72.7
107.45
74.489
-123.2
-47.798
65.047
-28.332
2.0527
12.541
-1.6793
-27.492
-47.232
40.76
2.3949
50.464
-7.7721
-42.839
10.443
2.3443
-19.593
-39.805
5.6008
-2.2267
-38.474
94.811
69.95
-55.865
-64.29
-17.794
60.156
-13.032
42.278
-19.201
-16.59
13.554
-22.247
1.8439
14.862
-38.81
-12.616
73.491
19.544
-73.863
-46.256
68.998
-36.359
-19.365
80.395
63.066
-35.817
-8.5921
39.393
-89.766
-146.47
-18.767
133.05
-22.689
-8.7488
75.895
-25.726
-38.843
76.864
-36.992
64.9
161.15
-61.518
-17.212
-68.94
-31.814
-126.06
37.93
86.391
-17.466
47.47
6.8462
-96.589
22.279
114.02
-54.576
1.7737
1.6068
-29.364
3.1043
27.98
29.199
-41.358
-45.127
44.327
-9.225
-51.905
-34.464
54.124
59.417
-17.624
-20.725
-59.307
-26.043
35.376
15.019
22.571
13.823
34.188
7.0218
-32.935
25.341
-8.2169
-44.632
-40.276
46.589
36.472
-23.815
11.453
-37.29
-27.536
27.892
-54.667
-1.9728
77.557
57.104
-20.693
-0.54908
-39.417
-69.815
-10.131
29.693
-44.196
11.082
61.299
-40.853
-1.1032
137.41
-33.578
-83.781
82.454
1.0652
26.359
-5.8129
-26.735
-27.892
16.584
27.51
-82.118
29.432
-9.8672
29.635
-73.375
-32.343
53.447
-9.2596
37.177
52.766
-110.21
20.297
26.823
9.5973
-1.7887
78.676
-77.453
-46.639
58.752
-70.785
17.629
82.089
-24.003
-8.795
40.177
-47.906
-85.364
108.74
-19.803
-26.793
26.133
70.931
17.679
-17.544
8.1042
-41.019
-65.009
-3.7291
1.842
15.288
65.289
-24.275
-41.692
-7.9185
29.273
-3.6113
-94.846
73.134
80.915
-37.341
-37.06
-33.036
-53.986
128.42
82.315
-71.023
-24.351
-10.27
-32.194
1.9124
91.43
17.057
-72.162
-53.124
-27.092
-11.218
128.63
-21.184
-61.5
12.088
6.3067
2.8753
8.0299
51.974
-11.179
-47.148
-34.024
27.781
-13.667
52.035
43.652
-63.958
-48.411
18.027
72.024
11.555
-8.4173
-28.311
-11.465
-56.535
68.634
-19.562
-37.534
101.41
0.98794
-15.398
-18.604
-49.881
-22.827
-7.2797
-45.899
98.724
24.996
-71.633
8.6963
7.8373
16.97
21.026
-25.43
62.019
24.142
-46.338
-7.5988
-39.734
-29.658
-51.833
61.391
96.707
-20.274
-68.688
-30.467
60.08
-13.494
-4.6639
-23.058
34.256
30.661
-25.836
42.078
-36.271
-95.967
-29.023
74.828
57.821
56.931
11.545
-66.314
10.891
22.831
53.907
-72.444
-17.628
5.148
-26.527
-39.881
-65.802
-112.78
172.12
175.55
-90.342
32.107
33.75
-59.508
-44.292
50.737
-20.919
-43.677
61.663
-18.723
-17.008
-4.4344
-78.67
-44.346
-62.962
-34.07
107.61
34.951
-16.047
-83.563
-55.7
11.663
109.03
0.98331
1.5219
103.08
43.728
19.567
85.125
-35.546
-147.15
104.93
56.853
4.1773
27.865
-50.973
-8.0716
49.525
-68.951
-49.579
54.01
-52.128
-13.847
176.17
36.69
-146.35
33.504
10.99
69.583
-31.09
-60.428
22.02
-26.127
27.474
37.341
168.83
5.4973
-175.88
23.11
-3.3706
-121.12
-99.09
-0.21138
3.2355
8.1081
76.373
-41.207
-64.566
-74.817
107
118.81
-169.18
-60.571
-75.827
37.813
185.7
49.843
14.218
63.327
19.392
-27.513
-10.452
-13.182
6.2052
12.691
-1.2953
-12.216
-23.798
-9.8777
-42.394
15.314
32.936
-13.844
-40.83
-7.1641
10.611
-9.6831
25.098
27.297
-7.1826
-11.738
-9.1469
-5.9769
-3.9742
-3.7745
-11.256
-8.3588
-23.365
37.893
-58.096
2.3577
49.97
-11.351
-30.764
-38.752
-42.872
76.678
59.139
-54.498
33.135
14.613
-32.871
34.164
2.0897
-9.2919
-41.86
-60.471
12.844
-23.285
31.732
122.83
-55.259
30.349
51.617
-21.893
-154.98
-238.52
115.45
107.47
18.603
123.82
3.9202
-75.997
20.12
-38.685
90.988
7.5105
-27.424
44.326
10.354
71.479
43.281
-14.076
80.058
-43.575
-122.27
2.7409
-138.97
-116.46
-53.136
7.9651
212.08
2.698
427.11
141.1
-481.06
-60.558
-38.457
26.756
14.111
-14.326
9.1421
37.803
100.89
-186.75
-66.291
12.982
208.18
52.771
-454.95
29.408
69.792
-29.972
169.83
101.02
-53.176
33.468
174.12
-217.3
-147.37
78.238
88.669
-75.777
-36.192
74.067
-78.538
-38.111
119.37
-55.44
4.7406
129.59
-74.064
-3.2001
58.148
-129.94
43.524
81.871
-94.108
99.806
72.698
-120.23
43.759
93.276
-75.508
-55.437
75.135
-59.533
-17.66
107.37
-86.183
-57.562
129.57
-34.728
-92.876
-26.387
19.507
51.92
95.705
41.907
-66.705
47.53
-65.044
-66.342
71.448
-95.692
-55.143
112.73
-90.645
6.0423
110.51
-95.274
31.53
57.868
-133.18
35.702
109.47
-75.066
42.701
57.761
-89.929
28.976
60.152
-126.64
-18.747
107.38
-86.237
-31.963
133.23
-48.126
-60.181
105.18
-27.794
-106.1
78.482
77.708
-107.15
-6.3886
80.617
-98.134
-1.8046
113.07
-84.34
-43.012
124.43
-35.377
-82.078
92.569
23.77
-102.76
46.989
71.537
-89.631
-10.762
93.103
-48.764
-62.638
86.206
14.521
-71.722
48.078
-6.0588
-134.46
39.021
83.19
-86.451
-6.8933
94.446
-74.281
-13.924
95.131
-62.503
-4.7144
91.716
-114.19
-27.076
124.3
-76.115
29.171
125.22
-79.743
-87.615
101.09
-7.2702
-100.89
87.17
19.739
-93.744
76.358
63.478
-100.14
-22.189
98.083
-50.575
-96.572
89.432
42.267
-88.368
31.799
71.34
-110.61
-36.024
146.85
-25.284
-121.36
61.605
47.542
-99.635
18.698
109.84
-64.996
-63.828
101.54
-2.3474
-82.237
69.625
32.616
-91.18
31.19
43.852
-88.851
33.167
45.556
-102.24
57.743
76.608
-98.613
29.019
79.7
-93.206
-34.285
110.92
-3.2205
-72.158
121.96
235.55
192.18
-86.247
-290.84
-350.85
-318.51
197.38
450.92
-66.457
-494.45
132.83
110.57
57.395
194.28
-65.103
-132.34
161.32
94.465
-168.63
113.32
13.836
-78.39
33.972
8.7424
-294.05
35.858
228.41
-94.236
6.0389
154.07
-68.509
-55.407
147.01
21.739
11.863
29.12
3.6204
-155.48
-63.744
76.311
-2.0379
38.11
-54.526
-135.79
-88.926
209.47
29.453
23.685
175.78
-26.59
-190.95
10.688
-90.328
-345.25
19.685
325.73
17.112
-109.76
106.4
-8.3771
-10.912
148.54
33.94
-129.14
72.393
71.917
-107.59
3.5469
116.19
-28.084
-96.558
72.483
-43.843
-78.135
140.67
-42.379
-136.69
62.979
148.77
-39.701
1.4789
67.474
-165.1
-126.02
112.79
37.338
-98.259
144.88
68.642
-133.84
61.15
-57.647
-168.46
104.17
48.427
-124.22
128.44
140.32
-47.819
8.5137
17.746
-109.57
50.352
158.92
-89.144
-72.859
-85.597
-182.79
-141.99
282.21
115.48
53.545
155.38
23.319
170.38
-331.31
-610.83
-55.4
57.609
371.62
143.23
-45.525
226.76
-175.22
-208.65
159.51
72.446
-45.976
76.968
119.74
-60.036
-38.223
-51.725
-240.17
-48.459
141.32
76.441
14.818
