-28.289
0.78565
133.56
146.17
-86.404
-160.46
-50.186
-56.332
-81.957
194.39
188.17
-119.4
-173.44
12.467
-67.754
113.53
218.66
-180.22
-104.29
23.812
64.775
-115.64
-212.7
231.08
199.58
-107.73
66.803
170.61
-62.454
51.892
-238.61
-287.64
79.682
235.05
24.701
-297.5
-15.011
188.7
-15.81
52.254
164.86
-20.377
-103.7
122
-2.4816
-184.67
48.422
106.65
-141.22
3.7507
-3.9379
-21.297
96.793
19.969
-35.892
64.925
-28.184
9.6677
79.569
-38.249
13.436
27.247
-28.236
-0.52802
166.97
199.47
57.225
-314.59
-340.9
126.33
258.67
20.708
-61.758
-127.35
-229.27
31.392
-96.477
-26.73
176.28
73.91
-228.34
103.8
145.3
-185.43
26.379
228.26
88.228
-124.91
-34.47
-118.36
-136.16
92.686
-4.5812
-130.04
-30.369
133
203.98
174.33
85.163
-163.71
-116
-73.351
-250.11
85.386
236.88
34.946
49.914
124.74
-169.51
-212.14
69.777
-3.2261
-22.647
267.1
79.197
-18.112
11.033
-139.92
-58.148
-167.96
9.3197
108.66
36.693
178.42
-112.84
-174.99
-17.042
87.569
-96.409
36.97
158.95
16.026
1.7791
90.66
-34.298
-160.78
12.933
97.499
118.26
-58.84
-200.32
14.374
-119.59
29.173
-70.366
41.308
190.49
138.96
-209.78
-78.176
30.236
8.1308
-112.75
207.47
89.441
55.849
-30.846
-72.309
-196.77
-22.616
-12.968
-50.52
126.59
69.478
48.917
212.3
-8.4849
-150.02
-24.493
2.6039
81.154
-142.31
-25.794
46.746
-142.87
80.847
43.219
-32.308
113.65
-37.708
-149.87
139.51
50.1
-179.63
9.5317
3.8871
-67.838
22.13
151.91
13.314
64.651
40.189
-10.573
-122.94
-109.87
86.788
64.308
-49.115
-107.45
-36.805
151.38
114.61
-82.283
-4.5251
228.7
163.72
-83.758
-252.74
-205.19
-216.07
-205.08
130.24
240.89
-59.38
12.336
101.21
70.033
365.45
142.48
-390.44
-129.16
85.442
-337.78
-22.056
278.21
-23.677
84.937
284.79
248.56
-212.76
-409.04
34.212
-39.151
-13.334
36.745
-45.302
-46.87
69.721
67.443
54.837
117.76
122.63
-274.91
-171.2
174.5
-22.948
-107.95
65.659
86.401
-82.723
-20.054
133.89
9.1596
-191.85
-93.869
94.439
95.768
51.208
92.589
-98.314
-37.064
96.389
-13.016
-122.37
39.011
138.76
2.3075
90.517
-59.964
-195.71
-9.2652
60.131
184.75
63.55
-258.37
-15.076
135.68
-14.466
22.518
-20.754
92.269
-125.99
-171.33
121.13
52.981
-237.05
54.346
7.6256
-191.09
41.614
179.38
-40.204
31.135
165.88
-180.34
-235.62
149.32
40.937
161.79
-13.212
-146.59
229.59
-52.8
-107.36
-88.463
-62.775
16.914
166.82
91.921
-11.405
-155.84
89.923
150.3
-101.82
-106.77
98.264
34.877
-9.3127
156.83
-60.039
-177.09
52.449
148.04
-85.452
-108.7
16.391
-0.69748
61.222
-161.31
-11.431
203.66
101.87
-34.824
73.798
-45.939
-154.71
-152.28
-86.475
82.265
-4.7059
56.659
59.682
-49.21
0.51161
245.09
-104.65
-235.86
59.062
210.65
24.869
-46.076
-9.5466
76.922
-122.63
-166.94
-15.08
54.423
-15.67
95.086
90.424
-138.04
-47.788
51.75
32.025
-31.464
28.056
158.57
31.082
-258.02
84.895
306.74
173.69
-213.18
-194.96
-69.347
-106.12
43.821
66.97
57.602
106.25
38.846
-41.346
-142.97
-151.87
83.377
44.518
-99.681
32.57
44.446
-52.416
80.503
96.007
-23.359
-100.86
-203.85
-3.7476
122.92
3.7616
389.43
-31.198
-360.53
21.29
94.23
-26.716
6.1692
112.19
139.8
51.137
-163.56
195.52
-140.82
-310.03
310.35
-108.09
-276.77
-86.506
260.6
211.63
-284.38
-161.73
45.322
23.306
25.451
99.179
58.761
145.81
198.98
147.09
-154.62
-346.07
-106.26
137.93
119.41
73.322
-45.06
-175.88
-188.15
28.752
121.14
30.694
-10.183
-129.51
-203.06
141
197.69
9.1507
-319.16
157.51
250.41
-146.82
22.844
49.192
-128.82
66.346
137.73
-94.918
-94.433
168.58
248.52
-51.204
-63.855
-24.32
37.35
-145.51
85.314
73.393
-217.38
-57.05
3.8743
-82.485
-40.355
86.3
187.49
0.78321
-170.87
143.31
47.092
19.483
-100.47
-61.684
20.912
-73.336
82.023
220.88
2.4744
-125.33
-150.25
49.297
109.06
-87.632
131.39
-99.493
-201.36
-22.281
165.98
-39.33
3.3157
100.19
-42.797
91.098
121.46
82.769
63.032
-250.58
-168.72
-58.461
14.887
-133.24
-12.213
265.02
284.14
-161.84
-205.95
-5.3245
65.499
-117.34
-77.637
-15.885
62.526
18.179
144.11
-56.435
-86.373
101.52
116.55
-2.9622
-68.447
32.845
35.432
43.628
79.667
-20.889
-125.67
31.148
-33.182
-42.441
19.562
34.709
-49.927
-3.3129
61.346
-11.601
20.357
64.307
-26.136
-52.347
-29.648
-117.12
49.411
125.14
134.96
23.395
-254.35
28.48
144.28
17.023
-118.08
87.063
-94.978
-388.33
2.0247
103.82
75.511
83.756
71.689
-98.737
-17.862
167.75
174.59
23.706
-163.37
-268.85
-121.96
210.04
207.28
147.35
-253.45
-192.94
74.347
153.71
-88.291
-203.32
244.47
173.84
-57.046
-8.1696
86.445
-213.9
-124.77
224.05
-129.29
-112.45
-10.139
44.695
-104.2
84.069
78.838
-55.6
17.769
260.74
-109.96
-265.43
9.8784
-97.228
34.926
279.96
209.76
-222.63
33.472
18.87
-7.7043
-9.8644
198.06
16.243
-231.37
-72.463
138.25
-0.98836
-10.7
-30.667
-182.12
-45.257
309.15
0.13993
-73.579
-2.4476
-73.842
-100.23
70.559
18.989
-61.85
127.65
219.85
-170.38
-227.91
48.002
-21.358
-68.166
113.27
61.397
-17.884
24.919
266.17
-105.19
-160.26
125.76
191.22
-215.76
-86.903
214.34
-195.96
-26.047
-113.22
-29.233
61.249
196.82
-6.4996
-178.98
-15.382
-108.39
90.934
122.35
83.303
-38.616
-101.12
-60.639
-30.959
36.713
64.248
204.05
-51.019
-33.062
50.36
134.18
-249.11
-203.68
114.82
-21.881
63.005
268.42
72.556
-227.67
-139.88
54.461
87.077
-55.592
7.2804
-5.7834
-165.19
-47.709
88.697
50.542
21.978
6.0175
85.056
-148.73
51.15
190.74
-381.85
-38.883
365.33
51.931
-108.82
-108.74
-52.59
65.609
209.99
31.422
-111.75
-226.71
-49.379
164.03
-43.687
73.457
-26.476
-64.319
-152.25
103.08
137.96
-111.29
-22.09
226.12
195.39
-104.36
-179.58
-51.962
8.0552
61.209
182.62
-54.17
-82.882
3.5079
-89.01
-100.85
123.7
5.0964
-108.8
-37.924
19.865
118.59
93.262
259.21
-73.646
-193.22
17.072
-240.74
-22.402
-25.622
-65.314
46.13
98.096
7.7298
-20.133
144.44
151.65
50.804
-117.26
-46.035
-15.968
-74.194
-3.4336
27.812
70.446
-4.6409
42.114
-113.38
-174.26
104.17
140.78
-121.43
-96.204
124.04
-24.794
-6.767
123.49
13.318
17.571
100.95
164.41
-249.49
-429.38
65.463
224.94
152.61
121.44
-127.83
-163.35
-39.774
55.982
25.744
-116.9
-70.461
161.51
101.15
184.9
-3.1096
-270.49
18.707
123.68
63.777
-249.09
-136.4
144.79
-157.03
-206.59
-57.506
224.47
57.148
108.56
340.75
109.19
-217.7
-142.42
40.407
-107.5
-129.99
28.457
109.71
-141.35
220.8
110.33
-212.1
-46.052
46.006
39.119
98.27
158.53
13.679
20.535
-136
-100.4
-55.87
95.963
110.21
113.29
-129.97
-321.21
55.689
98.352
-113.39
-4.9075
176.41
-76.698
17.52
66.51
-75.315
-27.059
107.86
-2.0964
-194.52
169.34
195.58
-151.73
-226.38
-83.739
98.218
117.17
149.63
-35.562
-44.133
-106.47
200.35
-27.631
-233.36
99.061
-58.605
-226.82
82.026
80.292
97.482
125.67
204.17
-154.69
-291.4
74.067
166.5
-53.821
-102.63
67.228
-34.191
89.295
144.51
-133.52
-130
-11.312
161.75
-23.388
100.52
-41.914
-202.81
210.03
-30.563
-309.42
-118.88
222.38
121.81
-77.161
16.399
67.869
-27.326
-36.563
78.112
-1.39
-59.78
36.152
30.867
-40.994
6.3692
71.313
-63.028
13.654
55.673
198.98
239.52
-138.93
-260.2
-170.68
-91.488
152.44
-66.044
-357.33
-9.89
389.82
-15.626
-6.5192
-43.25
86.802
76.851
-31.857
25.365
-23.749
2.5119
35.191
-48.535
-14.171
29.579
-8.0815
-44.693
-11.985
7.7207
-14.988
-9.7922
-17.559
64.758
7.4383
21.092
53.759
35.892
178.87
-62.548
-173.2
-70.586
-16.489
-61.487
-32.095
27.6
142.92
-47.574
41.043
-83.426
-90.097
27.857
5.6723
-16.659
48.548
2.5841
115.53
-83.757
-123.36
218.34
115.33
41.748
222.17
-159.75
-254.04
-44.987
-3.6769
-25.53
129.5
-61.846
-143.31
52.132
-2.1503
4.2636
-20.126
33.926
1.2154
40.697
4.7198
-72.388
24.56
44.615
54.557
-160.88
-116.12
61.42
25.207
114.44
-277.27
36.805
346.81
231.64
86.128
-341.88
-23.435
61.936
25.153
-124.42
-68.635
-166.53
-132.33
-125
198.9
381.99
131.28
3.7195
-117.85
-173.03
-44.1
-98.527
64.978
93.507
46.354
194.27
-43.531
-218.76
-152.77
165.82
-85.844
-22.31
-40.843
31.439
383.63
121.41
-174.1
-79.395
-161.65
-43.014
-9.2709
42.935
33.767
83.682
54.577
-60.973
42.166
-9.1794
-14.583
15.913
-42.578
21.512
-3.7689
-40.944
55.175
-28.043
-20.984
46.781
-14.718
13.269
-6.0616
-2.5639
155.73
118.93
-371.53
-37.847
103.39
247.57
230.03
-196.22
-308.56
23.962
120.58
225.53
-31.148
-428.57
-77.903
121.36
123.55
-62.793
-18.704
32.89
52.651
-30.411
-28.303
38.82
7.8733
48.88
-28.896
-41.165
-29.817
-71.756
15.039
-12.994
-120.44
107.66
18.698
50.268
85.748
42.007
-146.35
33.436
1.4169
-68.626
58.901
9.017
-92.172
58.077
62.919
-90.417
180.07
-78.325
-79.128
63.898
42.481
-76.865
19.707
55.626
-67.503
-9.8448
-4.0577
-16.387
92.784
11.178
-50.425
32.321
50.944
-49.133
-36.235
41.012
0.53638
-44.66
26.927
20.656
-57.661
-19.122
47.937
-6.1023
-34.501
38.48
10.524
-23.76
78.295
-3.3139
-80.617
-79.909
44.331
-8.316
-92.993
72.278
216.44
-76.329
-51.22
149.12
55.484
12.689
-125.49
-224.83
36.914
246.61
15.847
-93.345
-113.5
86.622
-78.979
40.448
-110.56
109.75
40.989
-108.87
-42.83
-224
158.13
-234.84
88.341
174.04
245.16
131.85
-156.73
-75.297
-238.78
85.014
94.014
-87.188
66.75
146.78
-38.413
-147.66
-23.928
-55.98
159.9
112.06
2.194
75.101
15.236
-86.678
-104.81
-78.754
-86.559
-1.8341
103.81
10.101
-87.217
-75.795
-173.18
67.342
157.32
114.46
-56.89
62.507
104.51
88.065
175.74
102.71
-184.89
-119.57
-23.835
-59.696
-136.51
39.925
50.159
-13.684
8.8468
50.699
56.226
-20.706
96.066
-15.963
-86.962
-50.105
-216.76
259.44
-41.975
-106.06
197.83
-242.54
-47.951
283.57
-108.24
-244.87
238.23
165.18
-99.002
-39.723
-3.9682
92.842
-169.02
-15.926
149.6
94.696
-39.069
58.131
-85.22
-182.43
-126.68
84.537
5.6295
-52.722
187.32
150.58
58.693
90.931
9.7383
-157.96
-381
-101.12
302.92
38.692
-115.71
-12.819
-11.894
-51.524
-40.831
159.49
141.94
73.869
-74.844
-188.06
162.75
110.88
130.37
-222.53
-220.29
32.293
115.41
80.294
48.321
-105.07
-167.68
80.004
38.59
-31.508
196.84
-8.7934
-238.05
42.038
10.609
-89.743
73.689
-15.696
144.11
-98.746
70.152
91.753
-95.159
-83.356
-62.371
34.516
137.02
130.29
-183.96
4.3231
-45.513
-20.67
45.506
61.198
108.44
-155.63
-159.23
-58.072
84.935
5.3846
7.0338
352.49
31.496
-269.93
-17.386
189.09
-178.15
-121.24
107.49
156.15
41.762
-197.02
-11.033
-145.61
-146.51
418.9
228.2
-71.98
-277.42
-179.15
-41.1
-30.675
206.81
108.82
-12.341
80.679
-131.84
16.694
65.38
-42.828
-154.44
12.385
226.69
-21.373
-38.046
90.721
-2.1556
-138.2
-153.91
85.717
25.892
-60.027
233.42
-25.655
-132.66
72.806
61.59
-81.738
-21.732
48.662
-56.141
-90.697
129.68
97.866
-119.72
-30.666
-137.7
46.881
13.62
202.84
-118.1
-220.72
26.357
283.02
280.2
-123.18
-276.89
-48.412
-83.546
12.236
184.52
157.97
7.8686
-217.25
-17.32
65.302
-62.989
-8.1322
99.284
-114.54
2.2848
181.64
-61.073
-246.79
171.4
187.73
-115.15
-104.82
152.45
4.3746
74.839
-22.393
-83.362
-28.208
6.1947
6.4636
-89.332
23.528
128.83
-75.782
35.757
234.54
60.504
-412.73
-196.51
116.79
103
75.643
139.7
66.361
-222.96
-198.42
71.399
8.7968
-77.484
59.424
-8.5822
27.856
49.886
-73.124
-36.953
-23.001
179.09
41.33
-81.035
-16.086
4.3029
-55.774
19.626
37.666
-81.789
142.69
320.24
62.524
-247.91
-326.56
-15.986
116.74
28.564
46.223
25.858
-82.008
35.209
12.279
-32.214
103.78
191.81
92.111
-40.972
-8.7866
-102.54
-342.62
-328.33
100.27
142.79
132.45
71.897
101.55
-119.28
-44.862
126.69
-148.7
-58.196
195.99
74.289
-40.906
67.79
37.498
-54.029
34.671
-144.66
24.737
127.48
-104.28
-8.3356
-152.43
-197.7
10.928
43.356
46.534
104.18
74.84
217.66
132.88
28.134
-229.7
-330.62
57.822
13.692
36.86
57.493
-110.6
12.777
101.14
21.981
-212.25
152.24
331.77
36.285
-204.37
-30.577
-33.518
-123.88
26.248
71.942
-87.598
-113.98
159.96
46.43
54.936
165.59
-215.99
-213.59
54.287
146.48
42.095
-189.89
243.82
160.37
-238.38
-66.312
19.31
-17.106
0.30785
71.607
6.1737
-98.212
36.088
114.16
155.62
-88.993
-120.68
-29.444
-120.64
70.804
29.788
-33.837
-15.987
116.38
53.368
27.911
73.492
-100.68
-154.07
36.996
8.1055
-18.888
63.992
200.29
-186.66
-114.58
245.17
-127.67
-126.19
-8.9783
-9.2791
-71.018
67.897
134.87
-4.9066
-98.808
196.07
39.516
-241.92
-10.943
48.311
14.057
70.028
-51.644
-126.07
59.826
213.27
78.852
-118.22
-59.419
-59.233
-152.31
134.56
56.404
-66.665
35.529
50.173
-87.24
-33.087
155.83
11.141
-147.69
-73.606
48.177
-31.466
70.683
126.55
-71.983
-25.538
83.72
-104.94
5.5367
154.54
40.674
-23.413
-107.57
-78.776
36.325
171.32
-68.188
-59.746
-2.596
-101.52
-10.438
30.324
108.67
42.595
29.382
87.521
-179.77
-40.177
-120.32
73.544
112.23
43.196
-69.468
-292.48
-142.19
319.72
26.419
-247.01
58.031
63.624
57.293
149.8
-6.5734
52.724
103.04
-163.53
-247.05
83.53
163.42
92.016
39.703
66.943
37.614
-4.087
14.656
-477.18
-42.043
110.37
-66.049
33.388
131.59
18.054
-66.263
32.554
-29.857
-51.215
88.599
66.97
9.1618
21.535
-8.7524
-66.859
69.905
138.9
-118.72
18.477
176.43
-57.824
-136.91
53.398
184.3
-265.79
-175.09
10.11
82.758
-79.568
247.04
-48.857
-120.87
21.197
-101.55
5.3869
45.067
-49.779
15.749
93.569
-16.202
-26.028
-6.3774
-16.174
64.676
109.32
38.172
-34.603
131.97
-87.146
-146.78
68.774
-49.305
1.1934
100.77
-120.4
-113.02
113.32
37.651
109.67
22.811
-236.01
-29.478
109.99
59.044
-4.2884
31.092
-118.66
28.002
-24.634
-0.3804
94.749
50.018
-18.489
-128.69
-74.325
60.196
-61.885
-37.263
32.991
40.916
31.451
112.96
-29.278
-133.11
10.005
44.742
-52.499
-19.54
159.35
-44.025
-82.849
113.27
100.88
-80.595
-20.344
93.997
-141.74
-58.294
4.0063
-40.461
29.238
113.15
13.366
24.99
32.747
-24.155
-109.23
-34.189
78.986
13.846
5.9983
-58.62
-70.512
96.047
54.41
-41.52
-21.359
-27.432
14.121
-120.74
85.393
78.281
-98.345
-20.035
11.896
-92.481
15.194
111.29
15.632
-25.216
81.045
22.582
4.4018
153.11
65.432
-129.72
-102.11
11.913
21.025
-91.648
21.996
44.95
83.692
-25.63
-104.75
39.271
-20.759
-140.27
44.889
171.4
-47.419
-140.94
94.403
93.455
-140
-96.216
64.578
56.594
108.81
97.987
-187.48
-180.61
54.392
-1.249
8.4755
44.465
105.81
216.96
-24.415
-322.34
68.276
64.718
-16.287
-101.02
-123.24
18.705
141.06
63.492
163.64
-198.24
-57.123
-42.646
-7.131
59.494
29.271
1.6517
39.464
128.67
-110.26
-31.441
-29.983
-141.34
66.099
118.72
97.426
-115.66
-86.382
85.125
-65.585
-4.6389
182.4
81.435
-159.18
13.052
-4.688
57.229
79.931
-16.989
-167.09
-29.096
158.84
-80.279
-82.767
22.702
-13.469
-70.677
-7.2616
125.74
115.93
-3.9419
11.398
27.602
-335.42
-86.653
218.11
124.25
-214.66
-11.233
246.67
-123.02
-181.28
222.45
43.564
-96.625
-29.441
56.218
-111.97
-127.29
133.37
166.06
111.36
-89.011
-29.706
-0.065764
-100.32
12.018
-11.943
91.6
-4.3467
-85.702
6.6689
1.8241
85.529
-84.727
14.094
26.736
100.68
-7.7637
127.31
-123.58
19.45
31.69
-98.927
-140.27
17.407
-7.2115
89.131
138.33
-227.82
-66.295
28.077
-105.35
-98.327
77.358
146.84
-22.395
200.21
163.25
-251.03
12.68
26.631
-3.3163
-56.916
-26.944
150.38
52.169
26.199
-141.57
-66.613
4.8309
65.767
67.721
-63.02
-104.62
53.871
-1.6131
-88.933
58.57
66.177
-174.52
23.104
151.37
222.84
-8.2327
-42.735
-63.75
-195.51
-40.816
69.351
68.259
-51.294
91.388
173.1
-385.01
-188.22
232.54
176.72
67.071
11.749
-39.177
-218.24
87.244
-30.827
-137.34
17.232
110.27
-37.479
3.3299
198.56
58.641
-53.074
-97.915
36.498
-24.972
-18.593
56.89
-102.42
-164.24
69.892
182.3
-50.596
-82.962
96.685
58.805
-165.5
29.331
71.727
-33.483
-81.442
84.156
-8.6713
-9.7512
143.67
88.474
-75.332
36.038
-12.173
-256.62
-85.406
203.91
229.1
-279.74
-61.195
172.02
2.3765
28.449
-119.56
-170.25
-14.557
116.77
143.02
106.37
108.44
22.02
-335.06
-84.446
307.27
-129.32
-218.22
106.08
34.664
-116.2
-23.932
152.72
255.73
-10.692
-222.15
-139.83
-61.765
153.88
104.81
-80.471
-96.294
148.82
-16.942
-95.086
23.465
190.66
121.9
-98.204
6.9721
-54.375
106.51
-133.41
-391.76
-41.476
115.32
260.59
225.08
-303.93
-232.01
99.941
208.56
-155.4
70.765
84.002
-41.211
9.949
5.3013
-25.914
-104.59
94.851
-36.684
-20.125
61.203
-17.518
48.148
74.856
-139.86
102.43
226.28
-309.85
-71.465
76.967
19.11
-31.223
25.612
149.92
144.87
127.01
-135.98
-251.87
-144.24
60.369
63.896
-16.6
55.23
-26.776
-25.508
50.468
-5.7713
-7.3126
-28.594
42.54
-115.45
71.143
-4.7608
-181.46
159.31
71.933
-99.757
33.593
276.23
-65.651
-223.36
217.59
-188.86
-238.62
26.423
246.95
-4.7214
-126.22
92.586
-38.117
-73.902
142.18
73.33
38.559
81.995
-80.152
-120.02
19.095
53.124
-89.687
21.033
122.02
51.769
50.787
99.383
-49.507
-431.52
-306.27
202.37
173.64
44.551
158.71
62.396
-153.93
-27.7
51.392
52.601
-192.51
-6.0985
250.57
-20.65
-73.269
-172.01
-126.82
82.101
205.7
-82.291
-127.01
22.698
88.427
-88.476
4.9527
214.3
-82.281
-106.61
55.881
90.968
22.71
32.981
-25.723
-231.01
19.832
165.34
112.13
-71.307
135.93
-152.61
-253.78
65.238
272.16
-8.3831
-150.89
14.514
-43.967
-23.091
102.03
139.1
35.182
-15.109
-88.4
-87.502
38.71
11.895
-40.33
-25.837
162.86
25.102
-317.9
-11.536
189.23
-33.107
182.41
-83.625
-273.66
37.758
21.22
137
191.23
-33.43
-108.61
-213.52
-17.901
38.441
20.203
117.34
27.535
-83.88
-126.2
7.4794
154.62
-98.524
53.689
262.84
-39.736
-184.01
42.454
-31.745
-153.55
107.09
70.654
38.187
-190.15
-42.538
-17.3
46.381
149.45
12.058
-51.047
-51.766
57.732
74.683
37.809
69.679
219.6
73.854
-50.351
-254.59
-517.37
-40.549
258.97
89.001
194.69
-137.69
-161.95
-21.001
104.7
-3.6336
-50.057
92.067
73.434
56.094
177.03
-112.27
-270.22
59.57
25.228
-75.32
-38.973
94.629
74.051
20.414
43.759
-7.1855
41.921
27.369
-61.369
-59.116
7.2601
52.648
-34.925
-37.03
43.175
2.9218
-14.491
20.812
25.371
-52.206
3.8645
-15.012
-104.49
-56.775
51.691
29.943
-43.696
-13.671
191.84
34.995
-49.017
9.3001
-30.491
-43.694
30.249
60.833
-42.692
-34.177
65.325
298.04
-354.78
-244.81
230.12
197.14
25.732
-185.55
-161.15
-120.88
260.97
-1.9578
-25.54
205.97
-145.6
-39.536
59.323
-138
-164.99
9.0855
247.47
101.72
-86.459
-89.374
-21.517
-279.09
99.871
329.19
101.09
-110.06
-173.26
-35.855
1.1582
-167.11
106.66
323.27
-26.391
-388.33
-1.6874
-5.8995
46.297
187.11
159.42
-57.296
-4.97
111.28
-6.5561
-145.6
-49.032
76.728
16.197
17.62
-45.381
108.36
79.519
-252.62
55.41
71.275
-115.86
-44.961
92.584
22.776
5.4794
168.78
-64.895
-189.6
-85.659
95.93
9.9211
50.7
2.5703
-86.036
-6.1309
-31.883
67.563
124.23
21.059
-75.969
19.239
13.138
137.48
-0.0035519
-92.779
-57.311
94.421
-160.41
-22.687
-63.905
28.423
192.54
-6.4534
0.46539
18.674
-312.26
-245.3
163.16
147.54
-124.9
41.211
269.76
146.04
2.0346
-106.29
-136.45
-87.439
12.136
45.147
81.59
-9.941
-47.154
33.374
-64.92
101.39
189.48
-48.515
-281.89
-153.91
-59.12
-7.4984
154.38
61.744
-65.221
93.272
264.06
-72.84
-153.34
-63.156
128.49
-82.669
100.11
146.7
-61.791
-171.51
39.68
-16.931
-136.13
117.25
59.621
-22.323
-56.811
187.44
-5.947
-121.03
22.142
24.13
50.225
-123.09
-95.527
-29.052
-33.829
94.852
261.53
-68.926
32.219
97.328
-157.83
-235.98
196.24
-20.733
-93.009
95.244
-94.838
-204.54
-22.223
15.32
141.34
25.462
74.196
103.85
29.004
124.02
3.5051
-168.14
-13.085
26.979
-67.913
-233.08
84.401
202.97
53.322
158.64
-90.747
-199.04
34.682
100.66
-9.9662
48.111
-26.959
-138.39
-23.862
56.693
9.5265
-157.57
11.768
109.88
-89.554
59.643
169.51
-62.242
6.2943
152.83
-45.611
-155.15
-115.52
87.697
96.841
-92.026
-172.05
-5.7075
85.342
11.405
-83.748
-53.116
-30.646
100.18
-11.461
50.77
122.13
76.09
51.921
113.11
145.67
-108.87
-132.63
-111.29
-170.22
64.495
37.53
-16.609
88.512
171.75
-95.122
-229.79
49.342
72.501
9.3304
-45.674
49.304
-73.938
-61.637
105.96
104.72
-148.19
75.808
92.313
38.093
-7.6082
-153.32
-85.798
-182.84
145.66
184.01
-82.389
-137.97
194.16
23.241
-95.556
-135.58
69.172
-56.014
19.714
164.54
146.4
-183.98
-146.82
34.136
-216.88
-42.632
195.16
202.58
178.91
-24.976
-77.015
-44.39
73.022
89.75
-52.403
-13.476
-75.687
2.598
53.74
-280.78
58.992
86.235
-154.2
9.8861
5.7714
33.838
68.899
221.52
-0.01121
-134.54
-121.91
-152.99
42.281
202.47
172.61
-94.156
-22.866
-18.339
-202.01
15.523
69.536
-24.202
-20.534
95.741
151.73
134
9.9195
-186.47
-203.67
-65.033
137.16
147.03
-1.8679
41.499
166.33
-267.82
9.1744
178.39
-288.87
-251.9
106.66
155.19
43.387
-20.862
-21.008
-144.16
163.84
373.35
-229.99
-443.06
147.71
32.745
-162
69.733
60.383
-12.196
115.65
146.95
-36.849
42.24
29.773
66.023
-27.834
123.5
-107.98
-271.85
-1.551
394.23
155.99
-150.12
-357.48
-83.488
22.888
-89.872
102.28
73.339
-64.453
89.268
219.56
-77.014
-417.67
130.84
203.37
-278.6
49.525
77.589
-43.858
-17.722
112.75
15.131
-2.1795
286.06
294.11
-57.664
-101.52
-96.604
-265.28
-433.54
-4.2034
224.8
-41.173
11.723
184.7
89.896
226.85
6.157
-471.02
-170.94
260.78
85.511
-53.523
58.081
53.829
-42.234
24.531
68.864
-34.921
-11.296
61.591
-7.5558
-59.423
35.553
24.914
-26.22
-15.101
16.632
-18.116
-45.225
29.299
9.1662
-66.604
-2.668
100.7
-100.58
16.719
187.93
83.458
-80.737
55.532
-158.45
-222.01
39.724
-59.45
-27.886
0.73186
117.08
47.257
-38.516
12.148
60.639
-14.257
99.186
295.06
3.5316
-224.4
-213.61
125.03
138.11
-118.01
-204.7
-230.14
-79.894
335.49
319.19
-103.62
-137.38
-127.79
-119.49
64.613
-17.885
103.89
-14.071
-135.01
117.9
13.114
-27.56
71.655
92.843
78.233
18.611
-62.041
-155
23.428
51.455
3.9432
-145.42
101.34
126.83
-35.507
52.675
-72.332
-68.2
-52.507
2.9488
34.58
-67.889
65.877
231.31
85.675
-38.02
-159.27
-93.478
-242.66
81.596
153.43
-83.618
-3.4602
215.9
318.63
-29.1
-174.09
-119.11
-269.84
-100.22
122.66
103.74
-57.035
39.832
93.567
25.113
101.2
76.548
-84.626
-101.9
37.524
89.281
-56.198
-29.605
93.072
-156.86
-161.65
-21.382
78.084
-29.733
24.956
170.86
236.62
19.276
-270.28
130.41
103.93
-394.73
6.9051
160.23
-266.12
-38.953
33.677
-20.021
64.71
144.12
267.87
-25.291
-83.54
-126.83
-179.96
-11.421
43.957
-47.437
48.282
276.23
-2.3931
-177.04
36.422
-96.509
-25.171
216.55
170.24
-182.72
-77.432
376.27
-247.28
-223.33
30.152
-34.285
96.912
18.236
-118.1
40.565
279.32
92.571
-238.94
-223.51
85.082
92.881
-200.9
55.234
168.57
53.228
-53.272
-13.373
-69.328
-218.66
107.94
156.07
-121.87
-114.1
48.978
103.11
94.355
60.716
-63.724
-58.912
35.523
189.9
118.35
-138.08
-102.07
-67.244
-82.489
-31.226
65.539
173.93
-152.15
-56.032
244.55
-1.4521
-213.13
94.2
93.719
-174.08
-126.86
153.34
104.11
-168.94
13.371
-28.478
-109.48
156.22
160.43
-62.788
-154.03
22.519
77.822
-87.896
28.015
82.501
-49.818
-32.472
75.023
50.572
-28.241
-53.636
86.651
3.3668
106.53
98.082
29.387
-100.15
-165.5
-18.615
-4.1297
16.656
64.908
-42.465
-163.03
25.446
98.91
-115.82
62.275
138.45
-54.778
-63.314
115.63
-13.535
-77.438
26.828
-52.472
5.9336
-81.298
27.781
69.771
34.795
-45.548
-12.277
14.204
-118.31
26.451
149.41
-33.652
-158.46
190.59
136.31
-127.33
-102.65
-38.425
103.27
-12.991
105.61
42.941
-299.99
-124
97.827
-14.589
-32.497
90.638
74.667
28.46
205.79
-6.0647
-166.95
-31.821
131.64
98.37
-74.334
26.14
44.793
-63.254
-185.37
-39.06
30.164
67.945
101.36
209.75
30.024
-176.87
-378.29
-243.27
156.55
393.61
-36.082
-323.76
139.07
17.039
13.778
84.196
4.7442
-136.56
-52.079
191.28
116.08
-48.835
-124.78
-119.83
-32.426
189.95
206.21
-61.527
-41.135
111.66
-216.45
-416.73
146.37
97.51
2.9691
120.28
29.058
38.902
-13.329
91.557
-13.324
-52.217
32.67
-1.0994
23.978
25.372
-106.97
3.3586
54.053
-87.476
23.414
52.784
-6.2972
80.374
28.98
-85.28
44.574
151.29
-310.96
-28.043
254.67
-46.811
-104.62
40.303
-19.332
-43.055
288.09
108.24
82.966
-8.0291
-197.84
-327.42
-44.96
257.07
-266.67
30.673
99.337
-24.865
-28.868
-100.81
-121.73
108.5
-44.952
-233.99
168.82
81.136
-36.97
-16.806
-119.9
123.26
45.443
-61.179
75.054
33.539
41.223
57.103
-44.993
38.084
-51.279
55.79
22.812
57.144
200.57
-38.396
8.1305
-56.615
2.9281
32.991
-130.1
-64.852
16.87
-40.635
-41.337
-74.94
2.308
134.71
62.559
40.292
14.221
-32.009
-14.622
27.505
30.25
77.326
48.478
-164.28
-84.771
-34.053
1.335
35.295
-39.325
25.678
141.31
-4.1074
-11.572
-53.084
-84.58
-4.2601
49.939
20.276
34.081
-83.943
43.115
-47.251
-76.128
9.3667
14.805
36.797
16.757
55.362
56.055
-31.836
-68.706
171.55
-99.44
-75.144
-47.353
101.37
64.756
-488.9
-3.9832
143.95
268.45
54.478
102.07
253.59
-239.02
-163.07
33.71
209.88
-278.36
-269.55
134.03
130.52
-22.887
-0.58686
17.632
8.4935
126.98
39.49
-115.7
-49.968
-12.661
-5.1965
0.64053
-5.2278
14.641
14.086
-15.215
36.851
-33.092
-62.95
50.932
22.408
-55.437
7.3206
19.542
-40.762
51.202
2.2542
53.021
62.666
-99.606
-274.08
119.49
170.65
124.03
31.681
-185.81
-175.52
253.15
-9.9665
-206.98
111.29
7.2971
-62.518
-55.861
58.229
-22.418
132.09
99.058
-206.05
42.114
85.812
-52.718
-7.591
-42.333
-171.21
44.118
288.07
111.54
-150.72
79.82
157.24
-170.55
-229.71
-12.54
40.408
-11.399
1.4973
107.77
-81.268
-70.379
130.13
71.638
248.02
-46.887
-457.61
-32.621
154.06
-90.311
-112.09
180.76
28.599
-10.936
158.81
224.72
-265.33
-194.56
150.65
280.69
-118.35
-222.93
-35.798
13.409
26.587
110.46
29.64
-140.89
79.07
-34.612
-125.62
-17.033
88.024
49.05
-50.019
-18.32
54.481
-4.3863
81.189
80.341
-79.674
-55.551
79.129
117.1
-58.138
-296.41
-7.3796
100.63
39.039
43.772
101.94
-209.87
-136.47
164.24
185.73
-92.678
48.162
7.8011
-202.49
-111.49
87.173
260.74
-96.053
-6.6455
281.95
-262.5
-257.27
82.129
20.663
-96.785
134.19
261.41
91.131
-66.377
-148.76
-13.741
-79.477
58.882
83.118
-28.458
-75.529
106.71
8.9408
-213.35
50.435
125.41
-34.555
124.14
-193.93
-325.53
210.18
206.61
39.728
-106.1
1.8416
33.05
-113.41
124
80.086
-89.389
-123.85
39.387
148.42
-37.585
-52.686
43.464
-94.946
-106.84
34.898
122.97
165.85
46.315
-38.504
-231.95
-64.061
-48.737
45.909
7.0079
-69.522
2.0007
128.27
-8.9956
-104.25
210.51
173.84
41.598
-100.4
-152
-15.181
-122.05
-78.323
202.47
56.358
-83.205
157.04
-53.884
-205.4
39.168
11.55
-55.589
68.025
235.15
-291.4
-3.576
209.58
-35.145
-128.29
-10.786
90.209
-93.613
134.02
81.821
-96.276
-39.848
70.583
14.247
-84.144
157.69
-49.085
-208.71
48.615
239.07
-201.65
-81.191
224.43
-257.96
-74.412
297.37
-91.02
-93.353
-144.16
66.16
244.38
92.013
-211.66
75.691
171.11
-45.215
-188.22
97.124
3.5782
-7.4505
-39.847
26.302
-27.999
-26.687
53.726
8.1048
-81.85
-46.19
91.981
-102.84
48.323
192.5
11.512
-178.41
-15.676
143.53
-24.876
-99.835
36.956
-95.703
-98.936
29.059
141.9
-138.73
-5.7586
166.85
-23.199
15.085
55.251
0.60457
-5.1963
-67.815
17.9
34.228
-137.74
62.476
189.11
-26.883
-58.298
-48.902
33.983
-105.74
-23.481
95.786
30.289
-54.404
199.95
-57.972
-336.44
-24.319
194.87
152.14
-188.55
-137.49
112.22
-8.1086
-15.282
0.40184
-30.967
-29.619
89.126
90.826
24.783
72.045
63.878
-56.412
-66.08
22.684
181.43
-43.368
4.1245
-9.7471
-42.65
-119.36
-229.59
96.751
53.169
-71.293
94.014
19.208
-27.234
-66.522
-8.4346
38.742
59.168
-54.542
-32.116
-58.382
37.471
322.91
52.409
-263.55
38.807
52.203
-118.98
-100.7
45.294
19.13
-111.59
26.077
143.87
-50.286
-56.103
88.875
29.776
37.041
102.37
-47.444
-15.663
-7.5271
-6.696
-93.391
-64.805
-30.071
67.309
31.3
-70.039
31.531
108.23
83.874
195.28
-36.192
-219.55
-220.54
47.617
280.91
-119.79
-199.81
59.291
108.83
-215.73
-91.424
211.35
103.72
120.61
58.194
12.232
-236.43
-129.87
23.226
28.894
-25.729
-12.52
245.04
86.144
-109.39
-78.043
-18.023
-64.381
-47.294
72.533
90.752
62.019
124.08
-112.47
-176
-95.357
-60.414
102.9
-74.183
137.47
188.6
35.043
-221.98
-217.62
81.983
53.15
-41.58
279.86
92.61
-237.98
-82.216
59.628
26.727
-110.01
21.75
103.24
-35.235
-89.572
98.481
124.27
-31.58
28.164
33.272
3.3341
91.928
26.033
-110.06
35.118
-238.75
-5.611
68.067
-63.736
16.677
155.94
61.311
-185.1
-4.6928
62.455
4.7001
-6.3246
-28.92
19.236
55.018
-221.77
24.528
174.4
-160.43
51.083
90.881
-117.85
-214.89
94.518
168.64
-76.506
71.032
206.37
-79.629
-243.31
13.262
68.838
-80.748
10.417
271.48
243.9
-111.19
-48.425
-36.02
-122.5
43.461
-23.463
-139.63
-56.042
60.742
232.98
-215.81
-277.62
197.76
341.87
9.9225
25.997
-74.288
-132.79
-84.669
-195.48
-137.09
168.38
29.639
121.2
-7.7625
-47.555
111.67
-16.21
-53.323
-61.895
102.56
159.55
77.575
-77.899
-147.05
-29.151
145.13
-1.5075
-202.39
-90.597
-18.096
21.361
9.7031
225.87
19.479
-228.07
148.86
151.55
-199.84
24.834
116.28
-181.21
-87.194
244.25
132.4
-79.449
-53.752
-97.616
0.19868
102.86
41.452
-115.56
54.978
273.79
-93.923
-169.8
-67.56
12.124
41.054
-74.463
21.809
-164.31
-74.203
100.53
7.0318
-12.596
107.75
70.823
-52.161
90.826
75.845
-123.85
75.306
41.936
-24.192
-62.919
-19.437
-29.08
-45.729
-10.117
29.965
-110.05
-83.789
233.8
26.704
-135.71
148.21
198.54
-61.583
-204.12
-28.502
100.78
-8.4137
-81.36
202.81
-118.24
-221.24
82.652
-12.013
-30.668
31.011
148.46
54.009
-189.57
4.8807
176.93
-33.633
69.607
119.9
-27.329
-190.01
10.664
218.07
-94.758
-70.525
-94.844
8.5617
-44.301
-39.451
87.244
-35.087
-43.827
32.154
6.5075
-57.44
-12.027
52.857
-28.805
1.7965
54.355
59.092
25.155
-32.969
-83.303
-324.86
-96.273
146.71
131.63
117.83
-196.38
141.73
178.67
-74.446
137.32
-68.292
5.4897
-13.338
3.1484
47.839
91.959
-6.5243
-100.71
-55.56
0.71178
31.79
33.796
-14.328
-64.977
27.161
77.271
-44.086
-19.514
10.668
-181.16
9.7196
89.736
42.525
-39.75
64.582
10.67
-81.232
18.31
125.24
161.56
-34.142
-103.49
-144.4
-174.54
-19.268
76.693
-78.907
-51.8
391.29
41.695
-97.405
-165.92
-19.385
342.98
-53.043
-89.901
-108
-110.53
0.3368
-6.1315
326.93
-23.755
-195.74
-43.178
-20.531
62.533
-52.798
-21.545
171.73
150.85
-221.48
-304.37
-12.806
165.21
-142.46
80.274
146.19
-56.852
-29.591
93.257
140.73
-29.728
289.68
-27.058
-337.4
-36.116
239.06
118.24
-104.51
-66.722
-200.01
-132.71
88.705
149.52
-5.0668
60.612
63.967
-127.7
-176.75
-0.37954
186.01
43.28
-74.947
-64.671
70.971
17.972
-10.117
-103.76
15.361
49.917
-73.53
113.54
-97.725
-20.318
35.476
-98.868
95.501
169
33.698
137.74
27.587
-188.23
-89.962
-217.21
22.419
48.409
18.059
126.58
57.759
-69.047
25.041
-133.62
-48.934
173.08
189.08
-200.91
-228.95
89.353
234.65
-61.666
0.36184
52.474
-71.579
-144.18
12.537
66.328
-41.954
31.402
96.842
42.564
-5.2506
-3.698
18.238
-60.746
112.97
-37.594
-225.8
-68.621
157.09
-48.149
-197.15
38.717
401.28
111.79
-79.789
25.769
-228.34
-66.761
28.6
-59.183
-20.534
-42.592
94.455
66.12
-65.347
-60.223
90.102
114.96
-6.3625
56.321
-43.795
-50.897
-114.14
270.38
-45.821
-77.122
80.164
-225.74
-168.48
-24.263
117.87
78.77
115.02
150.99
-53.046
-148.95
140.17
68.399
-347.51
48.599
177.13
-222.35
115.87
160.3
-135.19
-283.22
7.8233
131.45
131.87
-84.189
133.56
147.82
-237.5
-32.73
86.336
-4.2698
-63.645
78.368
123.45
166.88
96.52
-32.721
-32.026
-76.188
-166.97
-225.21
140.12
199.31
-16.272
-202.01
-144.97
-0.8674
-2.5671
-140.49
25.476
35.244
-104.11
-7.5976
123.73
116.4
49.958
113.93
135.9
-243.95
117.46
51.898
160.31
-325.38
-2.4663
130.84
-80.718
-305.89
103.31
232.39
-33.057
79.838
4.3653
-131.77
4.2906
10.155
-15.585
-27.341
109.53
80.696
-31.357
-82.24
23.148
7.8846
0.54893
71.461
64.291
-144.49
8.2876
151.21
83.454
-84.32
-47.765
37.992
-174.69
148.69
94.22
-213.02
-196.6
8.0309
44.913
-36.203
11.531
149.79
164.27
-104.21
-38.804
-10.63
-163.02
83.946
111.24
-18.62
63.721
15.328
-90.43
109.89
74.833
-330.78
-159.18
244.16
-37.034
-92.623
24.943
-24.113
108.68
113.22
196.89
-168.82
-48.09
-35.189
-86.151
-40.437
-78.377
253.62
51.434
31.079
-13.764
-116.72
30.027
74.117
10.895
-117.48
64.194
-22.738
-4.678
-60.117
25.72
50.843
78.496
88.95
-34.427
-93.808
-97.079
-17.201
-90.778
10.774
144.86
50.801
-100.29
-36.597
7.408
-85.969
13.357
58.846
-34.055
-48.39
160.92
-10.591
-192.79
65.627
176.68
86.071
-154.31
-57.979
13.157
-24.429
163.01
65.76
-86.221
-2.0605
220.21
4.4431
-42.243
-26.706
-223.28
-133.57
-29.212
7.2567
52.726
90.459
165.06
71.514
-240.82
100.78
-30.647
-205.33
5.4155
265.14
63.767
-233.52
28.49
140.97
-32.858
-152.88
-6.0617
2.2984
63.746
4.3358
4.3853
-161.09
-46.14
171.85
5.7139
-137.16
63.154
25.733
-38.224
-36.91
126.53
144.74
134.39
135.57
-227.2
-428.05
170.11
143.15
-40.755
-31.717
-18.188
-7.8641
55.44
116.43
19.835
-101.39
-123.44
164.56
-0.27682
-115.74
144.89
-41.97
61.313
-203.59
-215.42
314.82
50.651
-27.231
-7.7221
-95.769
59.521
161.3
-109.19
-184.06
27.616
188.22
-143.22
17.677
172.34
-278.58
-36.313
116.89
172.6
111.58
-10.914
-109.66
-358.29
236.03
136.01
-243.82
36.283
134.71
-134.89
-39.978
128.34
-89.073
10.671
184.32
-13.779
-130.09
64.259
71.23
-44.099
-4.868
8.5139
46.261
20.103
176.52
-81.815
-287.36
93.167
-50.639
-31.349
32.053
149.19
-4.2275
-50.226
21.888
-124.85
-184.28
59.156
187.59
122.19
15.637
-77.621
-126.99
-154.5
38.211
68.012
-97.997
73.812
62.909
57.845
10.173
-22.628
-25.862
-109.71
144.24
129.3
6.9143
-81.981
39.94
-61.777
-93.5
6.0536
159.72
-2.7998
-58.077
3.9226
-63.913
10.862
36.509
189.24
-190.4
-236.12
149.42
258.75
59.825
-281.15
-185.43
46.859
-2.693
150.64
73.41
62.474
72.447
-28.385
-292.53
-44.592
139.34
-188.26
9.7447
170.45
126.28
42.306
69.453
142.48
-46.137
-238.98
128.35
-58.591
-138.51
-77.156
-90.728
32.304
157.94
80.061
-232.79
-41.263
122.6
-108.17
130.15
204.65
-16.362
-109.87
7.4494
-49.767
-160.2
36.006
65.582
0.40917
14.305
117.77
-24.854
-55.876
-18.188
117.12
-106.95
-88.199
71.455
65.834
36.402
87.59
6.6995
-79.4
11.729
-50.627
-124.34
-87.46
99.386
52.566
53.173
219.01
-188.37
-291.87
-76.834
165.05
215.38
98.644
51.593
-127.8
41.047
-51.161
83.373
-79.192
-301.39
94.986
100.28
-92.909
-29.145
222.15
227.11
44.369
-28.611
-213.84
-302.62
-139.86
203.35
74.49
-73.342
-45.694
-12.501
-75.165
63.473
168.06
119.1
2.4093
184.33
-174.99
-323.95
64.867
267.07
-141.22
-104.08
160.99
-12.162
-213.21
85.803
79.968
48.533
136.47
-57.049
-46.49
186.27
42.275
-222.17
-283.77
88.209
97.18
-47.852
-200.42
25.996
236.66
79.499
24.316
96.648
-104.52
7.4836
224.31
120.21
-507.67
-164.1
243.37
174.55
-12.01
2.2046
-116.77
-189.01
-0.83866
-123.09
33.116
171.14
23.367
-0.44328
-40.191
186.88
69.861
-39.4
-91.755
-193.59
-49.518
22.291
218.43
74.431
-90.362
12.419
-69.87
-6.152
76.646
62.654
-252.09
-21.933
235.16
278.15
-91.114
-151.53
-29.093
-233.84
-78.077
20.259
85.644
123.82
168.39
122.36
-2.9083
-178.1
-54.133
-0.44688
67.265
-21.721
-94.757
-66.162
111.44
81.899
-54.207
31.458
-96.058
-174.92
52.606
14.271
-26.903
-15.331
6.0138
-5.5365
-18.685
161.76
110.7
-57.967
4.8187
102.49
83.183
-179.79
-45.526
76.227
-77.664
-52.77
112.11
1.0738
32.163
-83.286
-163.06
-99.899
122.87
136.67
52.21
-42.786
111.89
2.0511
-177.36
-32.419
-56.887
-147.95
214.97
259.39
48.625
49.573
41.489
-4.232
-403.43
-379.81
184.69
202.31
115.91
91.222
-59.813
-298.35
-52.655
205.68
3.9615
84.057
77.745
-176.78
52.555
116.43
-83.704
-154.12
127.54
193.65
-66.772
-159.22
14.205
-135.34
48.514
48.937
-150.76
33.015
228.98
48.94
-51.379
-45.535
15.515
35.828
46.49
60.401
-95.258
-6.3422
136.21
21.774
30.584
-66.005
-275.43
46.304
141.82
-74.188
-36.329
18.268
32.296
-99.78
31.878
207.26
4.835
-175.05
-231.74
30.173
18.896
-13.86
67.476
32.098
121.61
51.813
-182.23
-53.509
101.62
-48.607
57.636
111.72
14.836
7.3877
15.164
11.618
-25.287
21.885
46.994
-55.912
-18.947
2.7652
-85.695
-13.737
40.551
24.006
-45.885
20.622
41.31
-46.159
-58.652
51.147
83.847
-86.884
-20.382
2.7294
-66.151
-42.112
102.52
-55.148
-66.522
126.31
37.541
-102.3
50.934
33.208
-74.034
93.001
259.46
124.16
7.9437
-107.75
-373.11
103.62
35.63
51.024
133.88
-225.98
-267.28
-41.459
152.97
125.98
27.037
-4.993
17.869
-83.253
-18.825
-37.103
-22.087
-119.75
76.965
50.794
-1.966
310.54
-8.9914
-263.54
-45.425
24.56
-47.208
46.903
265.06
-129.75
-63.649
222.52
-21.744
-178.25
12.708
15.106
-198.98
-14.394
197.07
127.97
80.164
-238.88
-110.28
56.658
-67.378
92.415
-71.009
-70.421
26.537
-45.253
133.42
284.71
-156.14
-291.78
144.61
12.791
-85.826
213.97
70.257
-132.17
16.266
4.1079
74.526
-55.44
19.841
38.703
-46.375
229.83
-54.865
-152.55
154.41
77.915
-216.57
-8.069
16.497
-81.828
-56.432
-79.484
54.696
182.51
42.615
-106.05
31.17
-24.135
-117.11
-130.83
-28.212
83.543
55.87
-48.264
147.43
109.35
-44.427
-36.875
59.954
-170.29
-122.4
189.37
-3.92
5.6474
102.46
-14.979
-132.5
77.968
105.13
-133.39
-45.019
155.13
-103.59
20.831
38.357
83.383
-132.62
-289.8
72.434
64.472
49.083
-21.424
194.43
121.46
-168.41
29.77
137.68
-149.58
-80.332
24.02
-115.72
53.756
220.31
-16.78
-48.179
170.02
-43.767
-292.38
-117.44
42.508
-29.773
65.381
221.51
-96.444
-205.14
72.014
151.83
-156.75
125.81
160.24
123.78
-174.13
-217.09
-192.03
165.97
69.526
-7.6605
84.39
-32.77
49.442
101.31
97.417
-115.42
-81.122
-114.04
11.766
-29.477
-89.822
177
15.757
-86.646
29.51
274.96
-208.08
-194.29
242.02
131.42
-239.23
-106.01
2.3564
90.487
273.7
11.802
-206.33
-51.149
58.879
117.99
5.439
5.6481
23.941
-271.02
-90.687
116.85
136.1
77.792
-121.36
-114.57
-64.025
-33.105
157.71
115.08
-96.447
-23.542
163.97
84.119
-270
-103.39
113.78
-52.085
-4.9148
123.08
66.381
41.393
43.231
27.1
-36.948
-90.34
109.73
60.532
-277.26
-110.63
287.39
2.941
-251.68
131.39
-83.675
-199.16
145.74
-12.131
91.485
98.531
105.12
-273.04
-61.69
121.77
-79.945
-58.843
176.6
45.131
-131.22
99.702
-7.5656
-169.53
-1.0166
114.19
96.108
-19.355
27.944
44.943
-38.985
1.3707
-60.612
-104.81
43.526
193.7
17.011
-232.83
23.772
129.27
-116.9
69.806
80.207
-21.429
129.02
207.12
-70.554
-415.79
-142.08
50.01
47.008
107.08
-63.986
25.582
102.75
-46.686
-95.017
102.38
-51.149
-98.894
13.644
73.879
-11.649
92.206
114.18
-89.451
-219.69
172.52
134.96
-195.21
-126.69
158.73
81.23
-206.11
-29.439
332.66
288.68
-163.77
-336.17
-28.597
-151.34
182.94
19.003
-80.883
138.47
-106.9
17.294
32.996
106.06
121.13
14.115
-153.21
-71.274
-32.424
9.3856
79.131
83.761
-66.687
13.203
-1.451
-217.46
82.817
115.65
-3.5097
37.738
-83.139
-163.43
32
44.832
45.375
-4.4656
38.025
-5.0868
12.55
180.75
-100.97
-352.81
104.87
375.5
165.93
40.544
-49.52
-101.52
-158.21
-184.92
-59.04
42.931
101.67
108.34
-233.24
-334.35
62.035
304.65
10.513
-75.51
-6.3885
-68.231
92.488
333.9
-47.844
-127.26
23.652
-148.18
-132.86
215.46
102.12
-167.22
216.75
-28.415
-128.9
-41.596
-150.64
-15.07
177.8
229.15
-154.8
-371.86
17.983
581.27
202.63
-259.57
-236.98
11.987
-186.17
17.058
142.98
-37.789
8.2149
104.74
36.708
-5.8293
25.046
-69.498
-134.63
-81.221
34.813
-13.278
138.81
267.22
-10.064
11.381
-11.453
-106.97
-46.689
-48.556
-56.127
-191.56
72.582
96.692
-33.314
36.168
98.809
-5.4895
86.126
81.653
-91.664
-157.41
3.3525
95.041
-12.045
10.257
79.304
-5.9213
-102.47
7.3302
57.198
-4.8961
-51.934
33.508
-22.378
-15.988
23.265
-6.8338
23.245
113.59
-48.189
-121.78
-26.488
44.748
113.09
-23.225
-98.841
85.13
131.58
-124.92
78.925
-287.14
-217.36
71.885
90.341
-65.404
49.219
103.94
0.11926
9.5093
54.842
-60.261
-15.045
129.51
60.675
-140
-31.169
27.21
36.86
79.463
34.54
10.008
141.22
180.27
-263.24
-274.75
116.01
207.14
-194.69
-143.18
-36.807
63.376
73.784
138.88
37.703
-58.256
-137.81
-26.633
-46.402
50.597
61.829
-27.731
-91.595
40.411
45.483
-59.856
3.0297
88.33
3.2331
74.45
102.46
151.68
-16.861
-261.52
-26.509
-197.13
1.9427
161.7
24.105
-170.73
1.0838
53.536
-38.965
138.21
40.702
-69.941
72.109
84.818
-88.143
-131.43
55.367
58.674
-102.76
-16.58
-19.678
40.847
67.517
67.112
-76.497
-105.73
65.984
111.98
98.319
-36.396
-158.78
69.311
-31.619
79.3
209.62
-173.16
24.401
-154.12
-271.15
8.0327
178.71
32.366
-88.017
-34.531
56.536
51.789
-44.358
60.985
42.95
-19.053
200.15
-1.8466
-128.24
-103.23
17.14
126.55
0.36059
-66.372
-6.515
-21.144
34.869
208.52
-61.589
-186.12
-123.57
167.84
145.76
-72.021
-26.003
40.396
-43.553
-24.306
-78.153
-78.176
-35.623
162.11
158.34
74.47
-33.41
-258.51
-143.88
-5.7906
126.67
50.594
-6.5221
52.756
34.639
-26.998
-100.26
89.407
-45.769
-21.609
-18.116
-77.691
105.07
178.99
-90.33
58.186
121.8
-358.28
-194.51
6.276
183.4
171.66
-129.44
418.25
128.54
-191.56
-382.05
-64.45
-136.7
111.52
442.81
28.909
-198.61
-191.29
-4.3853
113.49
123.84
-214.82
-217.21
90.077
169.18
-96.529
55.495
145.38
-14.425
-157.78
117.74
127.4
-17.958
6.552
226.16
-110.77
-173.74
19.431
-58.805
-0.22471
-7.2339
-43.125
-7.4285
-63.165
71.97
-28.745
54.19
157.9
37.754
-29.522
-59.446
-32.254
-125.2
61.404
-91.104
10.929
67.505
128.1
17.734
-246.3
44.513
252.28
49.951
-51.406
-138.18
-178.01
-62.173
36.545
36.647
-83.618
-58.601
169.03
108.11
-80.621
27.22
168.18
42.56
-42.606
-12.734
15.572
-49.933
15.733
91.048
-122.08
-56.149
3.338
-29.524
-20.238
190.26
187.99
-217.74
-248.24
120.89
90.361
32.096
103.52
6.1878
-292.48
-149.78
72.208
41.888
228.84
-10.756
-175.29
-80.735
-49.433
-6.0802
81.88
65.545
-25.834
-67.534
-13.323
214.03
-216.43
-290.62
220.85
330.61
-171.97
-10.592
103.49
-27.704
56.061
63.365
-41.514
-83.736
138.02
-3.7981
-130.16
66.459
97.563
11.299
-76.823
45.741
-25.978
-37.114
38.974
-154.95
-94.158
77.943
94.787
-0.15615
107.1
-80.085
-89.714
-100.73
95.246
65.135
-58.882
59.156
89.732
45.243
-110.09
51.684
-67.24
-233.28
80.735
172.36
81.888
5.3467
-26.138
-79.513
92.025
11.461
-119.56
-25.417
27.304
-54.207
-77.092
67.025
73.674
-9.6097
22.999
-27.392
-82.883
22.045
26.228
-116.66
1.2477
107.8
-82.611
-112.9
-75.371
87.408
168.26
186.25
-239.24
-138.07
138.98
161.32
-103.41
40.806
206.32
-102.9
-39.379
-33.369
-76.358
-71.755
91.06
-74.874
-52.879
346.01
149.35
-186.42
-292.6
-52.889
177.7
286.03
91.795
-338.55
-354.23
146.97
-37.064
132.62
-2.0932
-42.07
-27.447
144.22
86.798
-156.05
32.407
-49.614
-32.896
88.034
19.971
-28.68
134.33
39.173
-125.89
20.457
124.13
-50.671
45.835
101.39
-17.395
-132.28
-61.894
117.9
-126.09
-125.33
95.425
-123.11
92.663
148.36
-106
-8.1553
57.154
-16.54
-84.805
26.442
186.29
48.239
-180.49
7.8471
0.82859
-243.91
-25.937
199.8
-66.38
-35.835
178.52
38.953
-262.71
91.509
100.81
-241.1
-32.067
105.78
56.705
174.41
298.23
-162.98
-227.71
24.833
91.821
16.285
-155.05
-236.38
-24.983
129.98
166.81
125.8
-22.352
12.222
-14.269
-178.33
131.77
2.2769
-77.223
74.548
35.624
-201.92
41.084
83.304
32.949
41.629
-261.68
104.92
219.57
-34.963
-103.61
27.816
82.105
-73.644
-165.62
102.82
76.338
-185.5
-28.431
117.21
79.561
2.9985
-22.608
122.71
-37.275
-21.837
9.1852
-50.279
-57.112
-112.02
62.229
-105.03
-64.44
177.99
54.259
-21.039
82.726
-14.905
-105.36
-63.164
163.62
5.8055
-185.13
-66.215
89.012
-85.624
-2.7681
154.81
102.92
-25.772
28.257
80.715
42.625
-15.569
-99.886
-68.663
-81.03
120.76
88.445
-42.896
-15.478
93.154
-15.293
-83.321
-2.256
-73.454
-15.434
-9.0792
111.03
-23.056
-57.169
80.89
-39.8
-37.587
14.975
-103.51
-118.68
81.416
105.58
-14.091
-27.079
206.41
106.44
-237.93
-99.629
106.27
-74.251
-45.967
20.284
1.3594
-71.102
108.6
-31.321
-144.05
166.54
213.15
-165.41
-26.577
35.427
116.31
155.17
138.26
-301.42
-507.67
75.446
157.62
-27.378
23.488
119.46
-14.943
-29.433
55.174
-32.94
-22.935
201.02
138.42
-189.48
-44.841
117.2
-22.512
-133.81
-30.046
-33.345
36.684
85.837
99.741
57.467
-60.565
-11.365
-72.977
-45.559
-83.85
18.429
82.495
4.3262
-135.72
-2.5434
96.672
-59.275
11.993
84.219
57.436
-32.71
62.711
46.083
-95.116
52.039
88.54
-188.65
-182.61
78.671
87.416
-69.683
138.12
61.066
-212.67
-126.5
72.271
53.248
-31.283
26.09
87.665
44.955
146.15
242.61
-84.551
-261.71
-120.36
106.26
145.3
-78.002
-193.31
-96.5
80.357
145.08
17.155
-330.43
-41.394
288.18
-103.03
-123.87
110.32
90.057
-65.631
-33.043
71.82
69.629
10.84
40.439
-30.487
-123.27
52.871
-5.1096
-34.561
142.55
80.302
-86.004
-146.83
20.55
77.48
12.224
39.423
171.06
18.902
-274.89
-198.89
69.906
-52.99
-3.9017
169.52
39.598
-134.14
-50.782
127.88
13.256
35.754
145.43
41.747
-130.3
-49.886
139.46
-24.821
-110.46
21.297
90.458
-63.604
-49.993
-43.672
-31.492
226.64
-18.646
-181.03
21.552
115.3
-128.65
-90.494
72.137
67.972
13.744
89.857
-86.518
-80.692
100.35
-74.274
-153.8
-49.835
117.75
51.043
-25.233
50.887
127.67
-24.528
-56.48
49.13
-103
-31.549
169.12
-35.889
-12.388
32.961
-57.907
-30.157
103.65
43.563
-191.07
-127.12
83.468
135.12
20.86
124.25
-138.44
-112.1
24.455
149.1
-149.28
-177.22
127.87
164.66
151.69
-99.779
-283.82
-161.61
99.674
233.78
76.295
-165.52
-9.3823
24.422
-45.854
-22.41
66.464
12.942
79.182
114.9
-1.9318
-75.171
-19.04
-146.91
-28.926
177.09
177.02
-39.955
-83.989
-194.36
-42.192
64.389
46.669
-22.131
-29.111
80.498
40.507
-14.979
131.94
-72.579
-156.35
6.012
52.155
-38.755
101.13
214.39
-63.716
-219.36
-168.45
-118.78
78.41
201.39
102.94
-7.2183
-0.99805
27.898
-46.273
40.303
5.3853
-169.36
-67.48
153.37
236.63
-229.47
-122.6
39.51
8.049
29.959
-1.4515
-51.634
-65.933
125.94
-14.782
-62.11
46.845
-15.908
-125.87
140.82
46.203
-126.33
139.31
336.4
22.067
-177.02
-146.55
-171.16
22.494
145.68
54.265
56.092
-139.77
-237.2
-152.86
213.39
172.5
-73.553
47.594
-168.68
-102.12
183.06
50.466
-24.319
116.85
-6.8249
-166.79
28.372
35.301
-112.02
17.609
139.85
47.557
17.906
6.2809
-3.7078
40.604
-106.63
-1.8468
43.241
103.71
11.121
9.8688
118.33
-96.241
-335.3
1.6185
145.05
-140.7
49.598
94.299
-20.926
88.636
121.67
-195.78
-99.173
51.314
-0.91636
80.947
125.4
-45.258
-110.05
38.656
35.581
24.255
-55.535
16.932
19.544
154.77
-17.538
-200.12
7.1219
-16.88
94.263
3.5446
-135.2
-263.13
30.699
276.62
57.348
-39.899
232.02
-134.38
-192.54
33.28
-100.77
-175.08
106.02
184.92
126.78
-68.699
-0.025049
62.808
-81.274
-152.38
-201.53
-5.865
192.53
89.808
-12.699
126.19
7.7821
-70.965
96.708
55.766
-80.441
8.8512
31.807
-62.144
4.294
28.224
-50.98
0.56462
37.972
-40.07
-1.965
73.841
-17.363
-36.167
23.774
-2.4477
-38.776
27.802
38.206
-44.041
13.151
3.191
-41.602
20.834
-6.0425
-75.953
30.826
6.739
-50.65
68.727
55.741
-39.525
-12.994
27.991
-44.557
14.542
46.563
-60.68
-59.374
23.14
36.031
-132
87.401
185.41
-135.24
6.2602
52.28
-58.257
-42.455
140.46
147.14
-130.57
-50.175
70.15
103.71
18.511
-156.53
-256.74
-44.559
93.681
70.713
95.364
81.129
62.295
-36.112
88.474
258.8
0.064954
-152.94
-339.2
-190.88
22.609
-37.5
-187.25
-5.7152
280.37
17.122
116.53
-71.402
-262.02
-31.884
104.17
159.2
24.377
-157.97
-120.08
-1.1675
156.9
59.655
79.665
229.05
331.9
-119.6
-257.69
-187.01
-205.39
-11.827
36.494
8.8114
170.77
118.3
-15.453
-49.296
-60.022
2.7484
-2.7282
185.08
-84.821
-30.442
-107.12
-25.9
-55.197
-35.539
105.43
-59.209
405.76
282.16
-160.62
-371.16
-82.763
-81.86
-119.73
9.3419
48.03
91.293
167.94
251.28
97.593
-274.62
-0.20453
-353.92
-3.8839
252.03
36.817
-115.66
60.763
-102.14
-182.04
126.5
124.01
217.31
23.544
-124.53
-122.61
14.423
-12.332
-55.213
45.791
-49.404
21.93
2.4155
26.032
-99.101
-74.684
241.03
47.335
-15.034
224
-157.52
-60.302
208.7
-221.88
-14.826
-42.123
22.675
41.087
66.146
-85.439
-24.136
32.746
-185.92
110.4
-23.411
-21.737
141.86
-54.531
-64.907
3.9297
111.95
276.59
60.339
-380.68
-125.67
74.394
-17.714
43.239
433.65
-248.32
-320.32
152.18
-211.53
-15.655
56.186
-72.703
324.05
260.3
-389.67
-459.5
93.854
256.26
87.666
124.3
24.715
-36.086
40.687
-23.722
-33.717
-48.825
-142.58
22.921
220.1
60.972
-77.173
-30.778
20.071
23.322
-30.898
145.5
309.06
-14.859
-456.84
-347.29
91.65
108
24.691
50.836
12.388
-3.1423
57.554
-8.5072
18.09
29.046
-20.328
5.3912
131.63
-15.717
-131.66
71.251
-19.37
-81.33
-10.754
23.156
-39.817
43.125
79.334
280.43
-126.81
-291.69
-66.517
37.565
17.164
1.5376
46.503
36.201
-16.91
-20.022
33.973
14.248
23.998
76.348
157.79
46.304
-138.55
-41.17
-108.46
-221.47
-228.96
84.159
131.09
295.87
-49.425
-276.74
-52.912
79.193
142.35
-41.376
88.696
127.45
54.658
-6.7887
-180.03
-151.46
-38.531
189.93
-113.52
-13.001
137.72
108.27
-8.3112
-59.058
-89.067
51.179
53.066
8.9555
-18.559
-24.763
-63.922
-33.014
33.376
14.89
-41.495
28.293
-66.617
-94.992
137.84
128.27
41.513
-140.02
10.36
-10.485
19.252
-69.102
61.07
15.466
8.7858
43.25
177.15
286.06
-88.839
-348.81
-242.62
-37.376
141.6
60.671
-79.855
-10.482
-17.364
-74.473
-117.01
134.61
103.65
-45.28
68.83
-77.051
-171.29
114.68
187.38
3.7834
12.14
-22.595
186.66
-156.33
-15.447
-49.897
-116.01
66.62
212.8
152.34
-168.75
34.418
-158.15
-134.65
-66.222
77.295
-60.107
-22.505
98.214
41.532
-41.971
31.574
94.584
-11.256
-49.872
62.025
69.112
-96.259
-68.348
111.15
27.193
-48.556
7.3966
-22.977
-74.746
-12.321
93.465
1.5444
-72.699
134.8
14.017
-131.66
21.486
81.869
-54.567
-27.042
10.238
-67.927
89.078
68.11
-35.194
-72.079
28.659
47.001
-91.689
17.5
39.869
57.943
-24.328
-2.1882
32.628
-44.374
4.7263
41.64
-57.93
-18.295
21.88
-41.193
-45.051
42.157
56.392
-64.075
26.979
40.315
-45.906
-22.761
52.14
-67.27
-65.61
189.77
-24.747
-32.041
69.188
8.7866
-62.472
-14.301
11.948
-13.525
-37.977
40.346
70.815
-105.1
20.487
21.744
-64.638
-33.995
27.62
44.392
-56.211
113.62
0.77363
-92.409
-5.9219
26.416
-55.191
-4.4091
46.21
-23.876
-69.704
145.1
2.1844
-18.256
69.661
-0.099518
-25.891
-21.556
14.926
-39.029
5.5611
44.727
52.174
-73.11
3.6334
26.022
-108.25
4.7488
21.361
13.809
17.747
-22.168
31.579
-53.34
-41.631
39.064
12.124
-21.941
117.16
-54.269
-26.814
53.797
30.842
-72.026
-80.169
53.061
3.0014
-54.93
43.558
34.573
81.909
197.89
-77.77
-367.11
-67.961
136.18
107.69
-73.426
-43.531
99.365
9.1703
22.03
-42.231
-135.15
36.731
88.049
-0.9002
3.2933
63.147
-96.075
5.6434
77.863
3.9149
-9.5574
30.334
11.215
-33.199
11.34
3.5819
-30.255
-47.127
56.072
60.479
-33.09
19.341
-10.777
94.182
43.212
-106.96
-79.861
-23.33
76.229
83.622
-88.503
-10.224
-134.36
-122
108.59
140.18
-69.459
92.295
87.152
30.151
-234.68
-277.24
131.64
25.15
41.84
45.573
-17.699
-22.976
68.166
1.4825
-26.759
75.683
76.737
188.83
67.568
-83.299
-236.75
-158.06
171.79
-16.874
-54.771
-18.486
145.89
145.9
-134.67
-86.563
-0.95211
-12.217
0.34797
-33.996
26.266
67.164
-56.64
-36.058
21.952
-33.95
-0.84489
41.079
1.5567
-19.777
19.401
16.525
-56.709
-2.0206
33.616
-28.109
-10.211
42.81
-31.717
-24.338
54.049
-22.059
-37.984
51.408
-6.497
-49.771
47.114
20.798
-59.545
24.914
36.884
-32.985
-2.517
54.968
-15.795
-26.782
29.894
4.5698
39.708
81.212
-64.1
-68.368
48.022
24.764
19.363
88.744
154.4
-334.22
-129.11
146.61
264.81
2.8367
-315.09
-8.1223
31.233
-199.07
11.863
55.506
14.761
-19.876
-27.493
55.142
44.87
29.417
47.274
-14.092
-15.958
47.103
-12.326
-3.7271
61.292
122.17
53.224
-46.436
28.099
21.77
-69.544
-139.83
24.881
-145.03
-1.2841
-39.544
125.4
147.26
85.015
-69.477
75.859
37.032
-328.97
-39.018
160.02
-771.19
-72.536
618.24
133.87
118.54
-121.43
57.667
-33.635
-60.987
4.2299
46.807
-8.5974
-15.07
46.333
-14.464
-36.883
51.921
14.108
-36.051
42.54
33.676
-34.289
15.194
37.075
-23.375
-18.254
42.13
21.128
-33.593
29.942
24.242
-45.466
-43.486
23.873
-42.467
-8.4226
-6.748
-48.607
33.376
25.589
15.755
-19.654
20.724
19.308
-32.706
11.237
24.313
-38.892
-5.7024
36.023
11.682
-50.727
32.882
40.631
19.819
80.722
54.393
-169.17
-295.54
239.05
45.266
-35.093
-58.84
-14.649
-8.7587
73.327
14.767
-0.75197
18.788
16.449
-41.743
-0.51663
-8.5085
-45.139
6.7098
51.433
34.926
-39.16
-58.909
23.165
-18.376
74.993
60.958
-57.501
-20.485
-2.7538
11.811
-76.261
35.981
41.784
