64.855
-90.637
99.512
-40.713
-1.4058
86.815
180.71
-135.79
-365.69
-203.43
236.71
123.31
225.89
-313.96
-62.695
46.894
70.689
204.64
27.034
-44.09
-103.48
33.363
-21.85
35.561
-8.1495
-60.055
62.872
196.1
-36.401
-186.57
-184.8
59.691
199.13
-49.55
38.078
-54.141
-25.015
35.809
-43.63
-19.562
3.5926
-33.156
123.08
73.052
62.958
-147.41
-118.19
-3.9729
-28.839
20.377
-58.347
124.99
347.39
-95.908
-330.59
-116.69
154.81
32.78
-72.657
43.764
215.22
-107.27
-74.356
-6.8962
9.4101
-70.965
-61.424
205.93
18.622
18.208
165.19
-168.38
-21.851
-109.45
-12.458
23.48
4.7284
16.603
-7.7746
-15.604
-125.42
92.466
302.48
-272
0.12574
180.1
-175.54
-96.303
128.51
-55.07
-12.696
94.086
-127.8
117.83
75.979
-57.235
-128.97
89.818
-43.093
-48.447
214.47
-85.026
-32.51
-23.227
26.008
-20.929
184.04
-167.09
-15.551
10.56
85.089
-5.1611
-178.04
167.18
28.714
-43.974
-33.936
48.792
-57.965
8.8418
-57.945
135.18
-162.67
4.3705
105.69
87.984
162.61
-279.43
-211.19
277.25
-196.61
27.466
103.34
54.966
-207.15
122.25
83.552
43.126
108.91
-159.9
-153.11
-171.06
233.42
117.64
-262.27
267.48
37.78
-134.07
-26.5
-14.597
46.723
-1.3366
-71.074
13.987
10.104
0.32904
13.491
62.278
40.889
-103.15
-87.221
304.17
-39.897
-70.881
-67.305
-75.385
-41.112
102.11
-376.49
-256.52
512.83
834.95
-650.82
249.64
-140.87
-126.74
-55.759
99.437
-81.502
-46.238
27.458
39.194
-56.77
48.985
145.94
-150.02
36.735
48.638
337.04
42.168
-56.739
-1056.6
-235.85
861.73
-99.4
16.408
-8.3459
246.71
-207.11
44.952
204.3
-34.661
27.831
-334.62
-22.001
108.83
127.82
-104.69
46.066
31.266
10.644
-106.44
2.516
101.69
-26.754
1.6021
23.803
-28.103
-19.982
29.896
-4.6719
0.03584
-9.0145
3.2572
1.016
18.149
-29.612
-2.0476
31.073
1.5956
-31.168
-0.67368
8.1665
12.872
-9.5916
0.76015
6.5539
1.288
5.1663
-27.476
-21.377
-22.59
-78.595
-28.557
243.82
51.459
-77.687
-1.2844
-12.222
3.6901
-14.508
-8.6542
17.861
36.388
-38.815
49.609
-0.13875
-236.42
189.89
77.042
-185.31
13.879
9.9231
34.107
9.4189
-4.6404
0.12538
1.253
-2.3206
0.98353
3.2786
-10.549
2.1662
4.8287
-3.6679
9.4547
-1.9308
0.7382
-0.30456
-34.361
6.4918
33.051
-10.461
10.203
-3.6607
-16.613
5.3592
13.038
-2.3753
11.015
-10.9
0.99992
14.616
-10.041
-2.212
7.5759
-8.8993
1.8852
7.5458
-5.515
-0.94852
4.2052
-3.0217
-2.6146
12.273
-18.846
14.916
36.374
-44.824
-17.26
39.092
-14.523
69.554
-71.35
-11.1
-121.02
29.787
11.336
61.6
36.989
-6.8851
-53.657
-57.284
200.49
160.59
-70.473
-268.94
-25.872
77.234
22.646
0.45381
5.4572
-9.2605
-5.4389
18.695
-11.701
4.9291
15.897
-14.488
-6.2113
9.9816
-11.616
3.6348
13.1
-9.2151
-1.0345
6.9672
-4.258
-8.7047
0.55185
12.705
2.9271
-8.4818
2.047
-4.6256
-1.8637
9.6307
-1.7631
-9.6113
8.2327
-12.167
0.20424
15
-13.883
12.819
19.374
-19.794
-1.7471
8.0107
-13.122
11.835
-4.759
6.1983
16.092
-15.487
-12.49
-13.881
11.825
36.549
-25.726
-26.067
14.457
18.423
-9.5807
-7.257
2.8341
7.0632
-3.6944
-9.6036
2.3622
-9.6991
13.71
-4.7089
-27.767
4.383
13.888
30.513
-35.004
11.094
10.699
-11.305
19.788
-3.5141
-12.512
-0.69339
30.363
-25.533
9.5018
14.17
-15.06
-6.6913
4.0835
10.784
-6.4244
-3.0081
11.343
-15.234
10.863
-10.721
-17.036
0.84985
0.69692
2.4684
10.442
-9.1025
0.568
7.4378
-6.0838
9.2098
-0.64395
7.9867
-5.5596
-27.642
23.59
21.989
9.4138
-13.334
-11.04
50.006
16.338
-91.602
-33.575
12.057
-1.5819
10.589
7.1095
-0.29403
7.7144
-33.995
0.48134
0.62524
-22.544
77.462
34.545
-15.469
15.895
-13.387
-10.23
-2.092
-22.694
6.9711
23.745
-11.058
-3.1297
-2.054
-2.351
7.9757
-5.025
-4.0838
2.5018
-9.7107
8.9766
-16.604
9.0845
8.0374
-19.802
-33.984
58.791
-7.7478
-5.267
34.693
6.7733
-32.543
-23.194
-12.444
25.369
-11.261
8.6042
-0.70099
-1.4555
3.7218
7.7851
-6.8274
-2.4578
3.5954
-8.4984
17.882
-0.36603
-8.9276
7.9276
-4.6638
-1.7757
3.6002
-3.3663
-0.78485
3.7304
-4.7845
-2.1735
3.9033
-3.0723
5.7641
-0.97721
-4.5322
1.6819
-1.3284
1.3978
6.5703
-9.8927
0.15171
-0.89242
-1.8437
5.9272
-2.2152
-0.37839
5.213
-6.933
5.6837
5.3883
-3.9409
13.329
-1.6885
-15.155
-4.8061
-20.681
26.918
15.39
-15.411
2.5897
5.525
-10.892
6.5759
4.5313
-9.0888
7.1136
-3.4587
-0.46645
2.9285
-7.3456
5.5972
0.2381
-5.688
6.3819
-3.2761
-1.1262
8.3457
-5.3053
0.067986
2.7835
-10.125
4.3398
-1.2203
-2.7403
7.7272
-5.828
-2.7515
5.6346
-3.2079
5.8684
-2.8317
-0.92303
5.7615
-8.5528
2.0099
-0.10751
-4.1002
6.8965
-5.0897
2.9541
4.3492
-5.8594
5.1842
-0.068826
-0.84331
7.1191
-4.3791
-2.8162
13.547
-13.003
-4.9682
0.88896
6.6951
7.9681
-4.0488
2.5571
-12.385
-69.973
23.4
92.145
-0.21178
-16.883
-15.582
5.2573
-4.7928
16.46
-11.645
-26.121
-6.6512
0.4194
6.9669
-4.8379
5.3829
-0.69695
-2.9726
9.3533
-5.5567
5.5584
3.0765
-5.2407
11.484
-5.9293
-2.3199
8.331
-5.17
-0.30842
-0.18955
-5.4519
2.3937
-6.4993
0.96864
4.6955
-9.0721
4.6773
-6.6337
0.90692
2.531
-8.1781
10.604
-2.0995
-1.8288
-0.15874
-3.1
4.0746
-6.3391
4.6658
3.9424
-9.8997
8.64
-5.749
30.97
8.3633
-31.807
-1.2656
11.496
-10.117
11.937
11.811
-13.922
6.3365
6.1573
-7.871
6.4317
4.1575
-12.56
5.4846
4.0023
-7.9044
7.7153
-5.8454
-6.8268
7.2634
-0.64097
-7.2556
0.70728
-2.9516
-6.0648
7.4134
-1.408
8.2916
-0.7634
-7.7093
0.57179
4.6788
-8.9971
1.2912
0.012187
-7.7749
0.047697
-4.3729
-1.477
1.2012
-6.4924
6.4643
-2.9072
-1.1156
10.822
-8.6573
5.7416
6.356
-7.8213
10.432
2.9007
-2.9298
6.8776
-2.9232
-1.9928
7.8504
-6.9711
2.9361
5.5291
-6.0461
4.9743
8.039
-7.4348
-0.23879
2.6695
-6.2923
4.7676
8.6376
-2.5731
69.949
-39.066
-108.76
65.941
29.823
-2.8947
11.723
-26.485
-33.941
-3.8547
0.92819
-0.92013
-40.521
14.809
23.751
-19.141
17.856
-0.68177
8.5074
8.8584
-13.568
7.4516
5.8559
-5.8654
19.311
2.6468
9.826
7.3824
27.277
-3.6463
-235.14
151.99
70.27
-75.022
-6.2396
63.402
-37.012
-37.986
47.823
178.51
39.464
-222.92
-0.39319
107.93
-121.01
38.136
-38.317
-1.9245
53.832
-65.798
29.847
-25.867
57.503
79.438
-68.189
-74.482
51.735
-44.649
-4.4898
41.449
66.011
148.97
-252.15
66.881
-8.066
-182.39
214.13
79.258
143.29
-281.15
-75.026
171.06
-112.61
-123.84
20.699
222.6
-199.16
279.4
29.33
-198.73
-497.66
280.79
360.08
-87.887
17.047
-143.09
-60.527
0.99782
103.74
124.19
84.591
84.923
38.8
-7.6405
-142.31
-337.23
-53.462
40.677
39.79
40.742
-2.9915
26.582
16.143
11.353
19.48
2.0791
-7.5663
12.89
5.3013
-1.4717
8.6246
-6.2538
0.73085
0.29522
-4.8145
16.463
8.0111
-0.1801
6.6636
-4.1578
-7.3124
7.3129
-1.321
-7.0075
5.3034
-3.841
-1.6876
2.3325
5.4161
6.4713
-0.31339
-1.3815
7.0899
-15.411
-10.963
2.1131
-16.366
-6.9838
-22.55
11.678
76.979
13.571
-5.0467
5.8738
-4.2753
6.9053
-13.035
5.1803
16.186
19.545
-79.007
-255.62
53.09
287.38
-192.78
-149.38
208.94
198.86
-71.671
-187.86
201.65
20.574
-115.44
11.963
-11.618
37.904
-44.845
104.01
6.8296
-192.25
6.1503
26.704
-22.744
99.619
49.259
15.885
-100.39
62.636
2.6528
-61.883
11.262
5.2501
-28.491
-23.757
64.121
53.599
-92.08
-34.483
103.26
-8.3439
10.685
13.686
-44.098
-24.561
5.628
-4.7786
17.966
-15.717
74.532
36.705
-86.672
-49.6
53.016
-12.239
-19.361
-29.449
2.0113
52.221
10.521
13.142
-10.751
-4.4464
28.231
1.797
-5.5882
-14.025
-32.749
-2.9629
4.5388
-33.339
15.486
1.0094
-4.2899
11.805
13.589
21.853
-11.405
-11.698
-11.304
14.026
5.5411
-3.4334
14.765
-8.7567
-4.4566
2.7657
-6.1106
-1.435
3.899
-3.1783
16.833
-10.003
9.2451
31.093
63.68
-82.632
-55.261
46.816
-19.194
-24.204
-6.3248
-29.014
8.0849
-16.526
7.1028
-71.116
81.619
74.312
-60.568
45.584
-40.87
-12.163
6.4681
-1.0662
6.0335
9.8217
-11.478
8.0588
-5.1255
-5.3154
11.584
-4.63
11.139
-13.707
14.9
6.921
34.981
29.867
13.056
-162.58
-32.365
84.582
28.534
23.129
-3.4318
21.785
176.08
-74.691
-32.259
-86.563
40.07
118.16
-40.478
16.072
-6.0889
-269.91
-8.1686
46.428
-49.376
47.011
47.341
-22.199
-14.198
-26.705
36.853
12.153
18.686
7.3385
-0.87526
-7.632
-21.061
9.6427
-4.864
-25.672
28.153
-107.49
99.294
176.84
-92.003
-28.35
-12.835
0.082222
21.848
-20.413
33.978
13.756
-25.798
23.994
2.6829
-26.686
6.3969
12.147
-29.624
10.226
36.762
3.5723
71.408
-151.92
-69.603
59.439
99.722
-212.96
14.489
264.77
2.9006
-195.36
-62.59
146.49
56.552
43.357
-219.66
-327.05
138.06
176.95
-53.942
227.25
283.11
-274.45
-77.284
46.942
189.51
35.178
-256.53
15.214
53.743
-49.967
-39.672
-114.54
-10.235
196.72
8.3414
-87.167
-1.2108
75.341
1.6356
-124.12
97.024
114.18
1.2344
-42.773
-109.83
-39.823
-9.7024
54.609
84.994
-77.261
144.54
-130.56
-119.4
122.06
42.804
31.871
-115.06
140.24
-67.698
-50.301
-46.724
7.4377
3.2913
17.48
54.232
22.863
-19.168
-35.318
-10.533
18.097
-22.575
16.844
-7.093
-0.91763
26.706
-26.996
-10.052
31.196
3.1138
6.094
-12.73
-2.0699
14.223
-24.817
6.5695
9.937
-14.989
7.6388
-0.17492
-10.752
15.238
-0.75787
-3.91
10.918
-23.824
14.489
-8.161
24.64
-137.43
-36.497
62.472
20.997
102.89
-9.3625
-77.155
-12.051
68.473
0.35814
-18.154
11.077
-7.1104
3.677
62.375
-42.582
7.5271
-29.391
27.133
-13.569
9.5276
211.48
31.16
-191.9
-62.546
-35.248
24.628
1.7419
3.048
-20.722
11.048
0.58933
-7.1706
-0.40967
-0.39688
-1.5365
-10.557
9.7575
15.574
-15.425
6.7511
-1.8394
-13.681
3.2578
-3.9487
-0.76286
0.87673
-5.8209
7.4502
-7.501
-0.74079
12.552
-7.8208
9.7152
0.081223
-1.7877
13.845
-6.164
0.51603
11.54
1.8926
-10.161
16.787
-101.93
-69.533
76.499
103.79
151.08
-221.31
97.212
-63.675
198.12
-45.797
-132.15
-95.314
-0.31287
148.39
-66.835
-7.8207
-10.351
39.438
0.39377
-15.141
-19.976
-90.297
152.03
-109.2
206.63
73.083
-212.45
76.067
15.759
-60.481
-36.639
-20.051
-124.28
270.14
214.21
-32.231
-239.25
-151.77
26.756
11.723
-86.129
-11.564
2.8431
6.5505
12.669
53.942
60.682
-3.6639
-80.819
15.362
52.344
13.248
0.61585
-162.77
153.47
91.11
186.73
155.57
-81.607
71.295
-310.08
-141.44
34.911
83.379
-4.8637
-230.93
-39.108
99.596
39.097
-70.335
126.86
242.2
2.5508
-246.84
-94.339
63.155
-12.152
38.006
-25.412
-2.666
-10.396
20.521
19.578
3.4817
11.35
4.5494
16.709
-12.392
5.7561
17.766
-1.1489
11.488
-18.311
6.3015
7.6494
-26.941
4.3215
-16.709
-1.4433
5.0948
-5.0133
11.234
-3.1554
0.84395
3.634
-0.68129
-1.2036
15.433
-10.446
-5.5729
9.0801
4.8514
-1.2807
0.58539
-11.446
9.2395
-2.2369
1.2267
25.596
-29.917
26.003
-19.822
-17.674
49.978
-12.315
-3.2819
2.7
-8.9874
-0.19366
-4.2547
-10.068
3.0239
-12.297
6.0467
1.76
12.676
9.549
7.676
-27.095
-23.323
37.657
-12.556
-21.499
11.693
3.1803
-28.122
16.488
-13.679
-38.853
-82.348
160.2
117.17
-263.77
-26.933
84.386
256.6
153.18
-169.11
-114.03
-98.92
9.182
182.34
-71.707
-81.708
-31.835
10.395
-20.493
77.958
-33.741
-40.085
78.508
2.7946
-14.422
4.5498
20.73
70.347
-5.7797
-38.972
-36.368
0.93023
-50.963
4.4183
-17.005
9.343
-5.7482
-10.054
21.012
-4.3369
-6.0368
12.635
10.79
11.461
3.4216
4.0334
-1.005
-3.3005
-0.059443
0.81664
-3.8766
-1.5622
15.793
-10.457
-0.74815
-12.819
9.8278
-4.3239
24.912
-20.454
-76.469
150.65
-70.579
-43.361
-1.0421
-14.494
-85.622
121.26
307.35
-259
41.234
71.541
-72.661
-293.92
-7.9084
217.06
55.406
149.87
-404.79
120.65
29.067
96.045
-26.987
-103.8
148.89
70.917
-9.8143
113.79
39.678
13.231
-203.15
-397.76
-137.31
89.323
331.05
196.21
-267.51
-126.32
282.75
-71.392
-9.1679
12.969
-111.43
193.12
115.22
11.707
-83.027
-111.4
-138.4
48.407
-0.27882
143.14
189.41
-86.738
-214.53
-55.196
-100.5
136.15
123.2
24.528
-63.331
-296.07
265.4
192.81
-408.62
-201.54
93.535
361.98
71.193
-64.796
98.028
108.23
-138.54
58.936
458.12
-316.34
-558.58
45.805
-52.212
73.933
403.82
94.904
-271.92
-49.453
-289.22
29.711
280.92
-32.798
65.383
155.47
-196.88
21.568
109.09
-88.997
91.815
-75.736
-103.63
70.956
-46.236
369.08
-142.45
-30.337
-45.246
-190.27
321.22
-218.96
-349.25
364.04
-88.553
23.489
176.41
-234.66
-27.464
-66.107
282.1
18.58
-372.11
-83.776
387.74
-48.619
-383.85
10.449
-11.503
134.72
353.55
162.03
-102.38
-31.475
20.392
-54.818
-6.3227
53.003
73.094
15.651
-382.6
-26.342
88.928
355.82
99.914
-369.13
-54.553
203.96
-43.634
-237.41
31.935
43.398
-122.65
180.43
196.2
-124.41
-48.915
-199.68
-60.042
258.85
56.126
-2.5417
55.572
-10.998
-138.45
-33.747
12.108
27.336
102.63
4.0284
-71.225
-113.72
-61.861
44.272
125.27
37.38
-106.59
-8.6279
6.8187
6.57
11.077
0.37559
21.199
63.487
-24.734
-11.236
-45.069
13.653
-150.01
153.48
36.712
-322.51
-133.96
207.48
549.94
211.56
-489.89
-45.44
23.584
41.046
71.42
34.277
-44.186
-61.778
-67.512
129.09
-168.26
-331.45
172.41
238.19
70.912
-118.62
-124.98
-10.272
-3.8211
46.282
41.818
80.602
43.001
-46.812
17.666
29.486
-12.692
-72.225
-1.4034
-186.97
65.33
85.553
59.852
18.93
136.21
-202.97
-3.2003
7.7613
-19.832
111.49
37.742
75.283
-282.58
-110.44
189.69
-22.65
21.194
85.117
-37.204
-53.009
117.04
100.62
-105.45
-100.16
-211.58
169.14
-0.16815
-153.59
183.95
116.93
-217.56
143.82
-18.726
-12.724
84.504
7.0514
-84.716
-37.785
151.07
-43.064
18.072
20.482
-76.537
-5.6558
128.08
-90.201
5.4096
-29.222
-44.578
-131.24
66.83
52.614
-25.326
98.611
-23.652
-20.808
208.26
-124.99
7.1053
-68.169
-152.72
113.9
75.748
13.87
-69.085
-64.008
-15.284
-29.128
121.81
107.48
-185.92
-100.68
4.3185
47.364
57.762
54.797
114.39
20.335
-16.815
-52.327
-30.77
-55.01
-0.90935
49.489
-13.96
-21.803
30.645
29.263
-5.9389
-70.133
17.17
-10.381
31.519
70.874
19.752
-117.93
-36.177
150.21
110.08
-110.5
94.277
15.427
-228.22
-170.16
64.088
156.08
19.106
64.99
113.07
-239.53
-147.94
106.07
36.284
26.397
44.302
-41.202
1.3376
-23.181
21.087
8.6426
-24.511
-62.015
28.483
-12.719
-76.932
123.25
13.692
-72.92
26.107
72.168
-22.176
20.356
146.24
-182.91
-17.757
-39.567
44.514
-4.3492
-9.3025
-15.13
11.623
46.269
-9.5929
86.026
-60.904
-5.9368
-18.156
-47.792
52.033
129.9
145.18
-183.23
-110.87
-17.327
-17.987
55.384
24.898
-29.985
1.0121
-19.55
-7.1729
1.0149
-1.2121
30.75
5.7726
-34.742
-2.1621
14.173
4.648
-4.6099
1.2842
-4.4093
-7.911
19.956
-11.08
-0.067713
-5.4191
-2.2003
23.34
-4.1565
-9.1556
14.991
-4.6
7.015
-19.638
-5.4869
3.9349
-4.7094
7.768
-3.3847
-4.5165
9.3226
-6.2999
1.8952
10.117
-3.4096
10.935
-4.0408
3.1163
6.7332
0.49684
-1.1968
-10
-64.124
-26.202
94.841
14.252
-21.445
-12.84
65.475
6.4374
-22.086
-20.842
0.61741
4.9762
15.099
-57.829
8.701
-14.303
39.445
10.717
-5.4209
2.0039
0.6469
-6.7243
-18.14
-7.3762
-3.25
12.579
6.9348
-78.576
-6.1265
-42.133
79.222
105.12
35.931
-50.511
-43.663
91.702
-150.62
107.49
14.933
-93.142
-84.035
106.14
44.949
-50.109
83.142
-67.262
-24.194
-0.20023
-38.887
-42.833
43.618
90.216
64.743
-85.995
75.583
69.338
-20.142
-113.16
16.536
157.98
0.48945
-395.2
-11.225
67.661
-195.09
189.03
-95.82
302.9
-4.4291
45.666
20.681
-76.19
-25.359
7.3999
-1.4689
17.427
-19.088
-51.744
-123.44
39.371
225.03
-41.615
28.063
9.0603
-134.28
-49.74
6.5713
13.105
24.364
0.44911
106.41
45.765
-112.19
-67.886
4.0167
-46.109
55.166
72.85
-46.459
43.183
54.806
-110.09
-47.871
52.043
72.917
-24.741
-49.899
-12.204
24.352
-3.3711
76.84
43.839
-140.19
83.564
-82.69
-29.369
140.34
16.197
-9.4316
12.766
-89.277
9.5424
11.574
-28.058
19.208
2.7145
-30.069
-13.027
4.9182
13.899
-3.1082
6.385
8.2734
-20.48
1.5813
15.356
-8.2893
-11.382
6.8202
-6.0225
-1.1519
5.8652
-4.0987
1.9808
-6.2965
-2.1697
10.208
1.2624
-1.1704
8.1439
3.0284
3.499
0.95182
-9.2861
3.9852
-11.994
18.537
-20.041
-14.013
71.62
141.57
141.48
-115.42
-136.88
-284.3
168.23
76.704
-77.906
54.789
7.305
7.7918
-211.98
42.837
99.435
-63.974
5.9029
68.35
49.217
59.321
-43.258
-2.83
21.847
-83.904
6.6167
60.202
-43.215
-7.5657
-82.331
75.201
102.62
-64.137
-5.7737
12.987
-86.489
-41.256
200.11
1.4541
-179.75
164.49
-31.405
-74.149
56.22
35.526
-41.969
1.9518
-41.042
-12.124
49.123
-10.64
16.615
9.4154
-38.389
12.447
-10.15
-0.59398
5.1789
-19.526
7.0618
5.6313
-28.227
28.999
-9.5083
-27.778
31.31
20.382
5.4611
-0.90652
-13.88
5.3438
-44.543
22.972
41.192
-37.177
0.27923
-26.133
27.563
20.32
-9.3107
25.059
-33.407
-10.537
12.586
-54.364
7.632
60.201
118.28
-91.665
-236.83
127.34
50.791
-21.165
166.38
-107.54
-70.758
26.43
90.345
43.519
0.3996
-29.24
-20.868
-7.4699
-32.206
-15.857
-44.675
-27.01
90.697
5.8681
27.848
-1.5406
11.452
-32.733
-57.095
26.269
-16.002
-17.651
9.8163
-16.88
22.325
14.131
6.7961
4.8242
-18.402
9.7164
2.8141
-2.8139
16.708
-17.092
-5.1844
7.7103
-32.046
108.29
-27.672
-64.974
1.7177
-8.7708
-9.1602
114.78
-54.725
-36.293
3.9982
-11.923
-0.26124
11.741
-12.221
-2.2877
8.5076
-9.2541
5.3213
-3.3456
11.301
-4.231
-11.012
7.4639
-1.4859
14.811
32.684
-84.366
248.79
-136.96
-54.982
-42.383
-42.634
-16.168
118.03
53.044
-26.114
-1.4641
-32.318
-9.8899
4.098
-17.512
-38.407
-28.667
3.2558
5.4833
47.322
16.537
-23.021
-38.465
9.4919
55.916
15.961
34.226
13.681
-26.433
-24.14
-17.307
-18.412
14.739
1.8331
-6.1583
-1.0757
6.4303
15.902
1.1033
5.1284
-3.8185
-8.6767
10.041
0.065245
-18.605
8.6449
6.2456
6.2612
1.7632
-2.0322
4.9814
-9.1374
18.548
7.2221
-13.654
-12.047
-18.163
21.429
6.6989
71.799
-120.94
-40.913
45.64
6.6339
3.1111
-95.335
63.853
16.818
-45.544
72.632
14.057
36.845
30.25
-90.787
-52.355
29.031
-22.925
28.996
-0.61255
27.386
60.685
-45.201
-1.0656
2.2296
2.8255
10.329
-1.5337
-10.211
-2.1966
20.987
43.491
-58.713
-29.256
-2.7466
7.9052
-11.218
43.891
26.626
-27.567
55.137
-23.646
-70.38
-68.389
-18.671
78.118
67.767
-33.881
6.5372
-3.5805
79.782
-51.569
-83.111
-2.5028
-7.0572
12.912
-49.499
24.899
51.526
37.909
-8.3377
-16.04
-19.553
-1.4315
3.3934
9.8033
9.0587
-10.29
12.579
-0.63242
-42.648
-56.573
170.05
39.255
-13.637
-42.058
-49.028
-14.681
-0.24391
18.066
0.22868
2.0156
3.6776
-0.47678
1.6799
-1.6979
-3.6883
-0.82252
-5.6761
-0.078274
16.685
-3.7192
-1.5093
-2.642
-12.828
0.071297
-4.4029
0.26847
6.3249
-1.8296
6.9076
-2.5782
-5.8047
2.873
-9.3745
0.085454
-0.73576
-4.875
1.8454
-2.6877
-1.2363
14.232
-0.30213
-1.8038
-0.086892
-3.3917
6.8886
-9.9944
-2.8487
4.0468
-1.6576
7.5796
-1.1612
2.3725
2.9565
-3.6418
9.8546
-0.78426
-2.5748
12.735
-7.6212
-2.4019
13.54
-19.226
3.3999
8.4683
-8.8862
11.751
4.7172
17.596
11.845
-35.972
-4.9825
4.6435
-7.0777
-10.857
19.947
3.5979
-17.245
0.64318
-7.0045
-16.008
7.8371
7.9801
-16.288
7.2808
-4.7438
5.1945
1.052
2.0229
-2.7489
-27.038
28.182
0.30007
5.7885
22.089
-13.373
-71.81
43.266
9.8343
-22.128
-2.2473
9.8122
6.1998
8.4859
-13.575
5.41
0.30458
-3.7378
8.1987
-11.153
-3.1559
7.0503
-1.8822
-18.421
5.2143
43.87
5.3509
-18.487
-17.015
0.61559
6.1867
9.2039
-9.5053
7.7925
-0.97309
-4.3544
12.485
-4.5513
8.8795
4.7969
-9.3877
11.235
-12.102
-2.4567
3.8664
-10.355
1.8512
12.83
-4.4879
9.0518
13.195
-17.504
-12.678
-3.1887
-1.2449
8.5492
-16.165
4.9755
3.7381
-13.916
14.788
-2.765
0.47022
5.489
-4.1517
10.644
-10.554
2.9558
-4.3226
-1.3106
-6.5441
70.133
-18.67
12.654
33.286
-27.453
-41.163
-171.24
164.56
14.108
-16.863
8.5851
5.594
-3.8822
2.9827
-4.1207
-16.515
-4.3284
16.653
-8.0712
-3.9173
2.7838
-16.244
-7.017
10.146
-7.3191
3.8594
4.2146
-0.45407
3.6602
-14.131
6.9722
5.4139
-10.58
-4.2625
11.384
7.5646
-34.308
19.463
2.2051
-10.002
17.308
-17.654
8.3389
-26.818
12.562
43.797
7.6311
4.9696
-11.466
2.5965
-13.413
27.465
-45.816
-23.124
46.447
9.3781
-35.984
-0.78604
27.321
3.3062
12.027
18.292
-12.667
-8.3564
-8.8822
20.325
29.49
-40.789
-19.626
8.399
-20.798
-30.381
29.921
33.505
-21.976
-96.368
139.58
135.74
-11.107
-151.36
-76.457
15.554
28.843
67.993
-81.283
123.11
4.2934
-87.043
-131.94
151.44
116.53
-154.61
-15.21
60.175
-86.559
26.661
38.663
0.83879
-14.147
35.479
45.763
-37.151
-24.977
-14.442
-6.4201
9.7465
-13.118
13.749
-1.9152
-2.887
6.1592
-6.8139
-0.67806
0.43746
-9.3252
4.7312
1.1121
-3.4276
11.849
-18.006
-25.312
13.861
-21.174
41.875
131.59
41.887
-115.64
-54.277
-35.026
-41.569
15.707
106.52
-37.194
13.557
-6.0606
-21.81
-24.494
-13.335
-46.322
69.385
56.697
-51.809
94.017
-74.058
10.85
-91.204
62.261
41.431
4.8944
38.063
131.01
-114.24
-65.613
-31.138
-117.87
92.147
114.79
-88.55
19.466
-42.038
-15.035
72.431
-25.745
-7.1804
-10.931
5.6322
3.6927
-9.2785
-4.0229
-61.309
21.899
23.748
32.165
56.126
-33.534
-12.309
12.519
-10.702
52.91
-15.136
-99.675
24.99
33.789
29.014
-13.894
77.88
-44.319
-70.194
24.232
-25.141
10.014
-67.448
29.517
188.79
-62.336
-33.488
-90.524
-39.275
136.29
-69.302
33.78
-41.387
21.089
-51.409
43.418
55.366
-113.85
77.683
38.334
-1.2228
60.856
-47.086
-50.251
13.074
-27.364
7.3789
-15.035
4.8494
-5.3655
-9.7962
0.95745
-0.22271
-12.74
-12.356
-11.753
122.64
-26.584
-70.718
-93.412
36.879
329.05
-52.498
-179.61
-16.567
-54.608
17.378
-100.11
140.8
243.74
140.13
-301.66
-266.69
147.58
-33.768
-162.74
-53.568
317.48
-24.947
-29.159
116.82
-101.97
-154.02
118.21
111.62
-198.81
8.1717
281.27
-5.5722
-137.45
22.936
-58.721
10.585
-32.689
-6.6217
13.529
88.23
-15.072
-0.89361
-74.523
207.41
-51.488
-83.476
-73.319
-43.253
46.676
145.66
-34.838
-128.25
80.324
30.065
-226.93
137.58
175.66
-43.945
-21.083
-32.544
-106.51
11.672
82.289
172.01
-123.23
-83.638
-63.558
6.3037
46.168
25.54
-110.19
-64.84
193.82
81.046
2.1604
-32.293
-150.76
-83.171
52.216
126.49
31.111
-91.599
104.02
-220.69
223.99
-4.5859
21.689
140.93
-289.14
5.8039
118.67
-159.89
-69.97
320.75
-37.387
-215.92
252.13
-103.25
-71.761
-32.547
72.237
42.56
-275.69
-18.034
297.22
169.71
-229.68
-1.525
75.534
-170.58
99.308
-20.697
-26.571
72.73
-2.4354
23.704
-117.31
15.465
252.5
46.041
-184.26
-128.76
13.318
-93.479
81.993
81.173
34.121
33.548
-98.024
-47.813
17.118
7.7347
55.866
-12.332
-51.297
-26.538
-111.24
107.87
26.949
-67.649
408.46
28.275
-389.17
80.357
-135.18
99.803
96.739
-204.58
-47.487
204.79
92.508
-76.898
-59.562
-19.318
-48.036
-76.487
141.15
181.08
-107.98
38.363
-100.2
-23.123
12.842
18.891
-7.4218
-40.495
2.1577
20.955
13.01
46.567
-64.542
1.4016
215.66
-36.353
47.681
-203.21
-131.87
29.207
46.514
18.796
132.82
-84.881
-108.67
72.882
51.675
-24.58
-26.933
64.246
20.88
20.784
-85.616
-42.769
41.383
15.776
-60.943
57.117
37.304
-58.875
2.0578
37.998
13.805
-38.858
-12.943
-6.0254
43.578
-4.5276
-6.8317
11.075
-7.8671
5.1619
-15.471
1.506
13.466
-5.4666
28.089
36.05
-21.934
-27.415
-4.554
2.1929
-1.8806
-5.8299
5.7583
-1.6629
4.8041
-2.0908
-12.773
15.959
-3.0428
-2.4345
4.2535
-6.0639
-0.89896
2.2008
-14.803
7.9014
4.8318
-10.893
11.455
-5.1669
-3.7261
3.3636
-12.187
2.8297
-1.6562
-4.4623
17.544
24.989
-12.022
-28.192
49.259
-62.126
-26.244
23.096
21.03
-9.1732
-40.64
43.077
-64.527
44.092
70.288
-9.8123
-68.063
-14.178
17.092
4.8461
34.45
99.347
-95.567
41.048
84.602
33.563
-138.56
-76.836
103.33
43.274
23.953
-39.313
-309.2
50.187
406.71
-223.93
-45.732
-32.986
-80.887
219.45
-159.92
132.23
-23.552
-50.223
19.899
-31.644
13.989
-25.056
-89.157
140.74
-23.387
-21.179
-21.448
-21.017
53.427
-17.571
14.528
17.796
-18.585
11.171
-18.643
-33.194
39.941
42.267
-18.172
88.466
125.3
-18.815
-187.58
-144.23
20.706
104.64
94.112
-8.983
-16.366
-57.48
137.76
66.969
-146.85
-11.586
2.6688
-241.34
-46.883
118.62
62.558
22.067
52.457
82.316
-9.2563
-102.59
-84.509
-70.594
14.623
257.74
74.991
-82.83
-52.715
-99.532
-26.391
27.586
19.868
18.881
84.213
11.278
-48.447
-85.423
127.74
122.54
-79.206
-91.671
-27.055
-13.998
-56.644
-148.82
26.007
321.34
206.17
-182.08
-119.7
6.2199
-55.566
4.679
-65.266
4.5109
-31.373
-45.616
196.61
32.571
-37.322
68.572
-204.87
-5.1427
135.32
4.3924
-99.424
120.74
74.091
-125.72
100.42
-73.95
-18.319
-62.813
57.197
-47.49
37.288
215.48
-161.48
-125.35
77.982
4.4027
91.735
-114.92
-120.31
140.93
35.066
120.67
-85.533
-105.5
4.8952
-22.089
6.7934
-65.356
-28.38
115.7
25.256
37.853
-30.722
-27.827
102.38
-133.81
-41.863
61.624
92
313.8
-129.33
-232.95
-201.63
41.303
104.8
-41.388
65.721
231.57
-99.928
-183.3
177.16
-104.6
-114.98
94.245
-25.988
-13.63
153.4
-123.35
-20.316
24.467
42.99
77.209
-116.25
-47.684
146.83
15.588
14.567
121.04
-146
-56.1
-64.531
-13.719
-39.079
41.217
7.4575
-21.583
-113.42
-4.9873
114.5
214.09
-149.96
-77.917
169.75
-218.37
131.58
79.075
-215.38
300.6
-45.219
-235.51
84.446
155.53
-11.485
-162.02
-27.933
128.43
-43.103
-35.092
-29.134
76.884
36.047
-157.65
-38.422
94.848
99.286
101.62
25.894
-80.147
-107.77
-8.4348
-23.94
23.762
-5.6494
-10.698
31.476
-3.6372
-2.6627
-0.40939
-19.782
7.3169
-2.3637
9.3837
1.7416
-5.6074
7.9044
-20.334
13.964
3.2988
-4.1986
12.061
-7.2287
-2.5226
13.667
17.316
8.5201
8.2532
-11.951
-6.265
10.285
-5.4321
-11.687
-31.607
-87.634
-1.3978
397.69
-58.079
-287.42
14.406
109.01
53.75
-106.37
-96.733
-68.314
129.15
74.318
-151.69
139.88
-15.527
-11.599
-11.824
-224.42
199.41
64.1
19.193
-36.103
5.5462
20.303
-15.371
13.163
27.613
-6.7816
-46.273
-92.166
51.983
46.77
57.319
-13.935
-117.27
-53.528
74.994
44.256
-120.54
50.268
-4.4879
88.943
-30.207
-56.824
97.747
54.264
-53.078
-31.611
-18.367
-21.174
-9.4826
-127.02
97.263
212.55
-74.424
-153.67
123.49
118.13
-91.521
-90.046
83.845
20.809
-32.12
-67.916
-46.116
-106.11
33.587
171.56
15.296
-31.831
-9.2452
-10.393
-5.3252
30.033
-22.177
32.029
26.001
-33.96
-45.027
17.809
-8.2508
32.137
4.4786
-116.87
-4.5075
206.41
-68.517
77.924
69.795
-101.96
-120.89
-19.937
4.9888
-24.326
-25.366
-27.562
-11.421
82.585
42.73
14.152
-22.067
0.1864
85.004
-36.378
-12.165
19.091
-25.232
-14.654
56.999
172.13
-116.66
-63.47
-24.171
-6.5852
26.951
43.673
12.995
-50.299
-25.963
-81.861
2.1325
44.966
-24.497
-13.679
39.179
-4.3853
4.0608
11.263
-11.648
8.177
-5.2007
-43.98
9.1426
44.207
-16.325
-3.3537
-18.723
-66.188
-192.8
88.981
152.24
52.316
56.45
-0.96741
-15.677
-29.598
0.34858
-19.502
20.775
-16.812
-14.475
-6.9453
145.08
-19.08
-91.651
8.3123
-89.563
87.792
77.872
-127.88
63.637
45.388
-64.472
12.638
-10.276
7.3547
11.248
-19.187
17.393
-21.696
-46.373
-98.947
93.156
42.107
10.497
19.418
-25.526
14.397
-33.474
-40.219
83.994
-6.5077
36.34
29.868
7.6748
-114.29
14.438
-57.179
105.2
16.041
-61.28
-57.981
-1.4034
88.033
-80.251
-164.9
61.799
280.37
-13.399
-95.214
-137.5
108.56
30.932
-0.27874
17.669
21.331
-35.924
-81.602
-116.2
-8.323
114.36
60.551
109.43
-86.082
-50.029
50.318
4.1386
44.423
-57.766
-77.531
201.49
4.3714
-253.5
137.57
56.469
-34.263
-20.441
158.09
199.2
-211.28
-169.66
-3.6551
-53.432
120.56
-33.067
2.1249
113.45
177.85
-251.98
143.27
97.575
-247.67
272.61
125.11
-1109.1
-594.32
622.46
680.64
289.55
-442.6
348.25
261.06
-57.922
-144.05
-266.67
-99.369
143.18
-86.014
-207.85
-50.286
-314.54
11.389
412.21
-45.72
338.17
-132.31
-265.46
22.234
90.133
431.61
68.654
-366.42
143.27
86.291
-282.6
-159.84
170.21
102.26
-43.351
-16.302
-31.055
-106.5
62.778
159.25
-43.118
-3.5424
42.749
2.4213
66.978
-68.909
-16.181
-56.109
197.53
19.426
-289.46
43.482
-227.75
242.35
84.618
-312.67
175.87
212.53
48.856
71.437
-54.093
-129.81
0.87528
-260.66
-5.0727
111.94
11.878
-219.2
236.94
-32.592
49.339
268.7
-70.586
-80.33
-73.666
-202.7
-30.929
83.731
322.1
57.973
-117.65
-185.42
7.1212
-92.834
24.699
-10.845
30.272
112.23
40.287
-8.3937
62.659
22.305
72.58
4.2346
-365.81
-46.639
258.65
-225.25
-44.272
15.336
12.171
-176.31
39.207
226.9
117.85
-61.219
105.79
91.35
90.86
-166.62
29.85
-15.432
-71.66
108.53
139.5
-194.03
-49.385
-30.29
52.619
9.5275
-56.189
-3.3323
26.173
64.95
-245.8
179.06
-37.74
10.434
30.516
43.808
52.682
-38.045
19.438
-9.3379
-57.102
4.5373
78.02
-207.37
-51.795
185.7
120.31
-141.68
-214.11
234.66
-53.619
-80.74
130.68
-54.285
11.68
100.41
-170.67
21.714
32.347
-4.2087
14.333
16.815
-4.8448
2.8534
14.437
-23.185
-11.255
75.309
-1.8037
-55.166
15.747
24.292
20.283
26.563
20.063
-117.03
32.986
14.735
-4.8211
64.352
-15.383
79.085
144.69
-23.735
-140.01
-56.425
-541.11
-217.44
665.38
-68.126
94.306
-70.335
-20.307
54.404
59.164
-237.52
153.08
145.93
-72.232
-41.228
-36.284
59.726
76.345
-189.65
66.389
17.441
-36.115
-19.109
35.352
63.68
-3.4645
4.3839
-22.817
-8.2189
53.794
-88.722
20.333
38.894
-49.464
37.068
-8.2194
-6.5409
104.85
-95.649
-16.252
58.057
-23.487
9.2956
-27.753
-35.062
-22.415
-45.748
70.894
51.41
-7.4743
8.6832
-11.677
-76.98
103.12
177.88
-246.39
-17.487
-5.9025
3.5046
136.27
-13.757
-110.07
72.162
-17.131
2.9916
91.811
193.1
-55.875
-162.74
-227.94
-92.374
178.08
-59.608
52.508
-6.5661
1.7402
7.0263
-9.2733
9.1611
19.735
20.111
5.8213
-15.558
-29.88
6.4241
-71.669
70.163
-94.137
53.538
115.49
114.43
-37.104
-71.014
-27.799
-52.017
34.778
-128.5
149.67
60.737
-92.749
31.195
-30.345
-30.662
9.1683
-10.028
300.05
-48.946
-230.13
104.28
-73.383
7.4594
-79.674
89.303
-1.8059
16.411
-125.26
-41.63
190.3
-78.698
126.23
-88.211
-118.53
86.285
168.99
-205.99
177.13
-22.477
-170.98
-4.9913
323.63
-150.35
-161.58
-33.944
-92.13
135.89
159.72
-165.69
43.706
138.36
-115.13
-47.273
44.843
16.884
-55.885
1.8908
-96.863
132.33
261.92
-255.04
-105.95
-13.169
-213.34
268.8
57.622
4.526
-9.5947
162.18
-36.09
-21.344
-90.551
-261.81
69.267
363.38
-59.32
-95.363
47.298
265.65
-169.46
-218.42
8.0667
-17.064
-5.5715
-25.838
54.12
106.45
-135.63
58.818
-128.09
-1.3366
443.4
-30.151
-265.14
-112.52
122.2
37.644
-41.633
-56.633
36.495
-111.73
37.219
-23.543
89.042
180.76
-164.49
-53.969
1.5848
-44.798
93.095
188.76
-282.07
22.084
29.103
104.28
247.63
-306.01
7.6734
-68.76
-87.437
153.96
-25.271
-101.63
62.241
6.0431
10.554
-6.146
-26.562
166.32
-15.836
-57.886
-9.8276
8.9777
23.577
-15.945
-31.563
-18.322
5.5167
-22.323
-50.894
25.772
84.464
7.9389
-3.2838
-33.908
25.615
22.39
-2.4341
-43.92
147.97
58.316
-120.63
-37.882
-101.29
16.476
35.882
-57.302
39.595
37.707
-32.677
-5.7848
72.995
22.494
-84.236
6.1596
-33.136
-9.1352
-142.51
88.552
264.79
61.98
109.26
-86.813
-330.28
177.2
-112.52
-135.22
261.8
-110.5
-83.457
-90.84
-79.018
114.77
99.872
87.266
-142.33
45.163
11.952
-31.474
13.12
-32.552
79.996
-0.74312
8.8709
-0.80988
-47.407
-10.407
-9.8279
30.185
35.642
50.936
42.369
-55.114
-58.018
-10.285
16.345
-0.63447
-99.76
5.846
134.5
145.89
240.13
-202.76
-176.73
-56.365
-17.04
13.288
2.8032
18.958
-32.61
6.7197
21.818
59.718
-60.883
-18.005
38.95
-1.9504
-2.4745
18.838
-86.143
-80.756
111.01
-15.034
60.787
36.289
-114.17
52.854
42.659
-70.96
12.025
0.7314
-46.932
75.992
159.03
-52.122
-71.589
65.477
119.65
-147.38
-39.378
-0.10568
57.61
0.55673
-135.41
-98.883
39.016
56.775
129.97
-81.785
-144.16
70.47
12.695
78.726
137.02
-139.17
-44.343
-77.236
28.203
18.711
43.685
60.894
115.68
-50.434
-192.38
169.95
-173.01
-51.628
140.16
-50.836
83.377
24.04
-4.3017
-16.624
-114.46
72.911
101.88
-92.209
-62.112
-19.054
41.549
88.696
49.34
-11.06
-121.82
6.145
3.1802
-27.724
85.032
-11.813
-22.459
39.476
-60.097
-4.126
32.472
-46.652
39.062
-18.139
6.5056
74.105
-42.177
54.389
85.579
-268.81
-57.283
184.33
7.9145
-70.975
-69.013
153.34
68.056
-85.994
-9.978
6.8433
65.573
25.29
27.711
-116.81
-126.53
25.881
146.47
107.11
-40.243
-207.34
-86.86
99.736
45.303
-151.12
139.65
78.986
-73.96
70.822
10.917
72.42
-21.767
-34.306
102.31
120.98
-162.65
-191.7
61.568
19.327
-51.31
61.246
-6.7693
-338.57
131.96
86.781
-54.307
42.008
179.22
-83.045
-153.44
-1.7003
34.109
138.39
-65.587
2.7737
178.95
-213.45
-141.98
146.64
96.039
-140.56
34.102
22.079
20.64
30.717
78.6
-30.097
-103.54
0.01126
-1.3291
28.077
21.677
6.2139
20.351
10.47
-0.39875
16.894
5.4496
-7.7234
7.7299
-0.33267
62.462
8.8369
-68.919
-58.657
71.683
25.466
-111.93
25.028
36.094
7.0289
-24.751
18.129
-2.5356
-0.077969
-10.552
17.658
-54.297
2.6052
10.641
7.5121
13.365
48.323
-19.305
-14.008
-45.027
13.684
80.332
-54.617
104.55
-59.867
-102.77
30.904
40.324
-22.794
-89.015
31.308
47.296
31.832
-7.717
-47.489
-5.9518
23.701
-16.586
21.196
-26.693
16.347
51.769
16.942
-24.42
-15.556
14.334
-8.8078
4.6419
-26.956
35.023
54.342
-91.154
68.18
-9.4747
-22.937
-30.363
5.6122
-69.26
36.19
132.91
-94.117
-1.5498
12.379
20.583
-49.153
-56.992
-4.3901
0.10012
12.91
25.195
24.159
20.339
-22.017
65.229
-7.675
-59.335
37.543
-81.883
44.556
4.3301
-25.25
49.547
16.131
-5.0809
-15.988
-150.59
100.66
65.704
-54.42
4.9493
-1.7604
23.474
-22.335
35.85
-8.6892
-7.0111
-26.834
25.701
39.52
-29.731
35.286
-37.834
-40.528
14.651
-31.258
-5.5318
37.358
16.802
-29.414
-20.319
8.9331
19.709
-17.805
55.919
-17.72
-29.398
22.091
-17.49
-36.944
30.759
80.701
-31.644
-46.48
14.437
0.23905
35.331
-8.6587
-24.011
57.399
-30.349
-10.187
-27.48
-14.665
-8.921
-36.101
69.882
7.3535
-12.932
42.408
24.976
-73.466
-11.309
-39.969
13.685
75.991
24.364
-29.129
-27.703
-14.072
26.35
-2.094
17.625
17.11
-77.848
59.364
62.144
-75.175
40.597
1.2378
-94.775
45.984
-0.1367
26.166
-11.639
17.1
-20.324
-104.96
114.14
20.568
-18.292
13.915
2.7047
-25.471
29.38
36.678
-114.57
209.3
-284.32
155.22
85.129
-310.34
181.3
-32.164
-74.623
-79.528
-4.5305
344.34
165.31
-41.454
-278.65
-113.08
74.354
-234.08
35.395
278.97
234.99
-67.625
-165.62
-236.33
-94.567
446.47
148.66
-453
257.25
221.78
-252.05
-77.081
-217.85
30.588
198.83
-4.921
-60.61
-156.97
206.24
303.52
-63.362
-256.15
-239.4
237.56
-26.264
95.428
-173.4
113.08
-1.3879
13.419
-98.691
-75.783
116.7
-81.635
257.81
69.57
-14.221
-145.3
-3.9205
-98.939
30.49
200.94
118.7
-160.4
-74.322
-169.82
36.516
132.86
-69.629
-9.0336
-57.509
23.266
219.25
-59.552
-42.607
6.6319
-25.039
-31.896
-158.69
23.837
321.81
19.481
-164.02
-44.281
-28.214
-8.0889
-24.21
23.007
1.0215
-12.491
3.429
-16.151
18.273
26.372
-32.578
27.115
-91.639
87.911
118.3
-27.065
24.789
-40.507
-60.571
145.96
8.5994
-65.134
29.684
-54.262
-180.24
52.85
133.72
219.13
-59.961
-112.88
-103.77
-283.7
131.78
143.61
159.07
171.74
-138.26
-196.07
-96.608
37.552
148.25
-77.869
-13.991
-210.43
-28.964
257.4
110.8
93.437
-213.75
-15.416
-10.19
47.657
34.758
15.963
-78.908
-75.186
77.065
95.587
-253.37
70.741
41.424
71.125
84.068
-105.17
12.006
-184.42
43.942
133.22
53.582
-133.16
337.84
178.7
-370.96
-133.38
-8.2188
59.516
-62.575
-16.107
-5.3212
-16.005
1.5534
95.31
14.817
52.322
-19.052
-36.7
94.284
-6.5409
-47.931
-94.701
-28.365
87.078
35.089
26.643
-1.7175
-41.235
22.977
1.8514
-15.524
36.425
91.058
-63.741
-92.328
89.5
-130.21
39.186
89.726
-120
156.5
52.058
-111.18
-28.127
-33.229
-30.52
-58.901
111.82
8.399
-76.269
71.459
-55.1
-79.641
149.44
18.2
-164.29
71.273
15.673
38.162
18.648
69.364
-89.227
-55.458
223.55
-148.29
-101.67
49.928
39.699
-23.625
-113.04
36.075
299.36
-150.15
-101
-39.382
120.61
-0.17995
35
-109.81
219.24
-159.96
-277.13
190.55
273.85
-93.86
-158.01
110.8
-306.65
113.76
195.52
90.582
227.08
-83.266
-275.05
-270.82
1.9133
-41.462
-14.823
377.77
-89.039
-316.56
178.27
95.998
-23.33
34.153
136.47
7.5461
-162.64
-50.602
204.25
-52.535
-76.83
-142.13
230.41
286.87
-107.2
-182.63
-78.119
-112.37
151.51
262.12
-241.36
-186.77
-131.33
-18.832
312.87
440.79
-255.35
-250.15
-121.73
-72.256
192.72
-132.96
257.72
-20.749
-50.842
55.08
-130.08
8.4378
12.663
19.765
-53.372
-53.672
-169.45
298.76
488.53
-174.07
-225.13
-109.51
-63.411
-4.4241
-24.945
153.14
86.604
-117.28
24.12
-40.691
-1.6857
-12.035
-34.717
16.289
33.965
8.6942
-63.84
46.509
65.476
-104.25
-68.941
-10.257
31.511
274.87
167.31
-112.14
-196.47
-173.2
-139.69
261.39
44.811
-219.06
84.399
375.6
108.14
-291.99
-134.46
-5.6169
19.936
-3.8176
8.8376
5.9195
21.028
1.2856
-0.8471
-122.31
-47.144
187.68
168.77
100.31
-97.273
-90.57
-96.824
62.979
142.99
-435.07
-70.78
-0.17641
253.01
161.39
21.332
-24.495
-109.69
-30.162
17.771
9.5648
9.875
-19.72
-24.687
21.35
0.92997
-26.326
7.5321
10.056
2.3955
8.431
16.412
22.37
1.1558
-18.046
25.214
-10.278
-15.954
19.755
-16.711
6.4434
59.095
-32.813
-17.087
-8.3892
-13.465
78.511
10.612
-33.542
5.8837
-6.5231
-29.584
-6.373
-1.9046
26.502
6.2813
-17.399
-24.346
9.693
1.2485
-1.0669
8.7779
-15.44
9.0876
2.8899
-1.872
41.11
26.909
-86.611
81.278
-44.118
-36.854
-13.673
-1.4954
6.3491
0.91603
-10.163
-64.977
-58.788
183.88
114.75
-4.7016
-47.821
-26.838
-75.243
22.103
26.87
-67.041
-45.152
-37.839
63.556
47.819
-6.5354
-41.669
-10.387
-1.0509
-3.1301
20.138
-0.89261
23.752
-0.50608
-20.961
11.231
3.4589
5.3816
-12.939
47.553
74.18
144.93
-67.555
-240.93
14.239
-5.3767
7.3404
-45.643
0.64512
6.4493
57.003
-15.432
-24.844
2.0517
-15.142
12.371
12.859
7.3357
-12.499
-84.733
78.857
26.238
34.669
253.5
11.398
-131.64
-125.97
-127.41
195.45
-132.04
-91.873
136.48
-25.643
146.67
242.95
-324.6
-102.21
25.86
66.047
65.774
-94.977
-5.5359
68.27
-51.948
-50.975
-116.3
100.94
233.5
-257.8
-99.921
267.65
165.46
-226.49
115.37
166.05
-339.09
-57.614
32.848
102.72
-90.022
-60.068
-85.026
91.502
83.597
-57.092
168.22
-89.906
14.327
-140.6
103.12
-11.387
30.098
38.047
20.325
133.56
-67.512
-124.1
-44.627
52.283
-12.018
-19.837
94.952
59.694
31.077
-83.799
-104.03
-26.524
-14.811
-125.2
6.54
325.41
58.004
-25.546
120.41
-131.74
-196.84
23.644
-15.644
-46.039
-105.88
205.24
-19.8
24.391
-17.81
53.125
-80.372
-121.26
64.925
-11.389
26.014
-14.722
22.64
17.016
25.311
-24.211
37.868
14.688
-14.824
56.725
14.498
-53.336
-52.929
182.85
64.901
-15.298
-145.63
-132.24
32.244
28.403
15.939
17.773
4.0223
-13.425
-26.424
11.123
3.9047
10.316
8.3725
-14.938
8.2787
6.938
1.4103
-7.3271
-10.165
-81.748
53.417
193.6
-72.931
-49.049
76.473
-252.79
53.015
106.34
31.446
-7.9541
60.788
1.4917
-197.1
144.04
82.733
32.346
-67.489
161.54
-230.26
-237.86
122.23
-30.239
-5.618
116.9
-10.575
-26.981
86.14
38.402
-126.65
52.137
109.51
-152.07
129.75
-137.53
-20.492
-21.957
14.54
-7.4149
2.6289
30.915
-123.97
-113.91
310.43
192.19
94.189
-244.41
-147.94
124.42
-149.15
-3.6317
-31.459
-35.765
223.64
122.78
-135.09
-85.182
11.676
-6.034
-47.354
-13.52
116.31
-129.61
143.68
64.182
-72.023
30.387
128.55
-233.56
11.039
35.179
-31.652
16.103
-47.32
144.35
-55.635
-52.186
-80.452
96.659
97.189
-57.612
87.882
-93.628
66.896
338.64
-386.37
-119.13
62.592
18.575
-7.8869
20.623
-20.653
73.511
-31.358
-100.24
-131.49
204.67
249.17
-155.37
-102.35
16.554
2.0264
-64.872
31.126
-3.5996
6.6106
-88.805
-112.77
259.19
126.97
-123.67
-39.916
-28.116
48.404
-1.6759
-2.4304
-59.241
-16.341
41.2
3.3421
49.985
-53.638
-90.894
-8.3449
68.715
56.678
-33.152
85.901
-85.382
-13.097
58.657
29.845
-14.515
-80.476
-14.734
33.571
11.462
119.95
-133.23
111.95
278.25
-371.71
49.758
52.178
-38.201
13.297
-131.55
-40.088
53.871
120.78
-39.323
-30.979
-29.225
6.3987
2.8021
15.465
-7.9585
14.088
-1.9053
-3.4288
9.3863
12.187
-5.7666
-0.74538
-16.544
-26.121
-69.11
20.352
51.151
-24.1
95.942
8.7989
1.3094
-52.218
-80.286
-17.846
18.963
110.08
144.26
39.157
-122.68
-18.196
-70.518
-62.04
6.0506
48.726
41.888
-25.527
-77.861
-30.537
4.553
59.371
81.314
-8.2529
-48.074
-14.438
32.348
3.4776
-4.2845
-4.6071
4.3529
-10.793
-23.079
-6.6562
82.765
169.44
-176.39
-92.03
57.756
18.656
-107.5
17.975
8.9954
166.1
213.02
-252.48
-102.48
-55.129
26.176
-109.13
-130.23
24.999
191.5
179.27
-63.91
8.1734
-34.218
-0.33824
-43.286
-27.496
209.7
59.518
-160.56
-69.841
30.887
17.948
-51.288
-15.358
-4.1046
-100.58
119.5
144.57
-103.76
-10.41
-12.094
8.3431
-93.014
-8.0711
122.12
122.88
-13.996
-24.249
-30.481
-47.392
-35.613
-19.412
-35.628
-56.392
90.705
0.31174
-21.92
0.64662
3.3418
-1.248
86.526
26.271
-88.469
1.0384
10.284
15.227
32.441
42.858
-16.753
-79.986
-25.041
56.809
-50.004
-33.75
123.99
-83.631
13.668
29.927
2.4014
63.821
-11.661
-83.45
-48.107
115.7
-73.864
-6.538
29.323
7.2153
14.333
-3.375
-61.343
60.947
92.111
-83.439
-39.548
-37.712
-5.9914
10.041
26.692
97.973
44.12
-144.62
-19.759
38.081
48.827
-26.217
-48.846
-22.599
4.5892
-35.884
55.348
63.501
-11.237
-14.906
-35.785
4.8825
19.392
-21.139
7.7548
-6.0667
46.108
-0.23275
-0.1949
563.49
-96.628
-330.23
-196.05
-107.82
3.4192
-40.636
6.538
-121.09
164.36
84.018
-106.95
110.89
308.64
-236.98
-100.7
-7.489
-80.407
-26.807
74.416
47.717
71.933
75.396
9.8979
-115.71
-24.653
3.3051
25.897
-18.433
-11.242
51.63
22.156
-41.343
-9.1726
-154.98
-7.0427
317.03
22.599
-20.793
-18.763
-27.396
-27.703
23.83
-3.3221
46.814
-113.78
-114.27
134.39
-32.604
-34.264
-61.544
42.649
-1.5929
68.524
-58.557
46.749
136.6
-74.008
-147.95
-93.51
20.183
85.78
14.683
101.54
53.924
-88.99
-52.81
38.734
-5.3938
-7.9674
9.6961
-10.789
26.885
-0.73662
-1.0549
5.9206
-10.278
8.5523
16.753
8.0122
26.806
40.743
-71.38
-118.37
-38.947
105.48
119.4
-36.868
-67.068
76.802
-27.453
-27.04
-0.34013
0.43053
-9.7617
-0.36399
-7.7181
3.6362
-5.6506
-11.397
1.718
-5.8429
1.0737
-4.2022
-18.639
-33.872
37.222
43.811
-52.31
23.398
-0.28789
306.85
-124.42
-203.96
-39.134
70.212
-67.043
86.03
44.144
-3.1811
-79.516
-5.6269
-19.582
51.603
13.452
-36.054
21.135
-2.2969
20.41
-10.133
-19.261
9.3605
3.0145
-9.452
7.6886
-14.367
12.332
1.3743
-9.5225
9.7479
-15.164
-48.355
-17.302
64.521
205.08
-107.58
-129.19
57.493
-40.062
-30.312
13.57
56.455
65.345
-145.93
157.82
84.047
-82.967
-56.943
-113.43
110.39
26.105
-119.01
-28.295
110.48
27.735
-75.339
-0.84572
42.256
58.606
-82.874
-10.887
36.36
1.6958
-135.77
328.64
-51.042
-251.4
263.21
-36.008
-102.28
-16.677
7.5825
-12.954
-18.706
-74.599
-134.81
95.103
179.59
-11.177
32.419
35.814
-13.761
70.141
20.665
-156.59
-118.76
42.487
-22.236
33.604
-35.53
6.1009
-21.817
4.1629
-145.47
256.28
2.5659
-168.57
40.267
-109.06
93.123
121.53
83.792
-154.01
-35.033
3.2985
-102.54
106.63
217.95
-160.26
23.691
-55.289
149.89
-78.066
-37.12
1.0349
25.964
-0.37148
18.861
-1.8102
-34.537
-39.194
-41.89
176.16
333.88
9.8429
-167.99
-250.69
2.4118
-6.4107
-54.723
-10.324
5.6966
-200.24
169.4
354.07
-152.09
-128.39
-43.614
70.08
75.588
-68.573
-11.931
-37.999
-3.7402
-37.155
-16.974
21.547
-24.516
-22.483
188.12
-44.104
-90.398
219.11
177.7
-205.69
-266.86
84.804
208.34
-93.861
-61.247
-101.26
-40.393
174.83
-159.15
115.6
-5.2553
-40.562
43.832
137.79
313.06
-160.1
-305.77
-85.898
-94.786
217.49
-83.109
170.24
91.821
-47.917
-86.062
-262.02
44.228
75.677
111.49
-85.515
-62.405
159.29
-37.449
-13.809
30.671
-30.414
-50.311
77.6
-12.838
-95.511
60.825
67.567
7.2268
-1.9738
-2.4661
25.012
-37.247
-16.49
12.437
-14.424
-6.3731
20.874
-4.0373
-21.238
12.229
14.368
11.666
17.624
-0.1388
43.627
-61.119
-23.453
21.515
-26.437
18.979
15.621
-20.425
-10.295
-2.0789
1.5516
6.3909
4.4729
-0.20698
-5.2154
-2.2454
-2.7489
-1.2824
10.375
3.1135
2.5116
13.316
-11.372
3.8103
9.3079
2.2009
5.7531
4.4598
3.4005
23.033
-37.449
41.149
-1.0312
-33.74
-25.876
-50.559
40.306
-9.223
0.089123
16.833
8.7528
16.811
-23.352
29.678
5.5912
-54.956
-59.854
218.89
-195.57
-134.6
129.73
-262.56
192.07
350.31
-12.984
-161.14
-42.476
-47.515
6.9757
-6.358
2.4668
11.457
1.0491
15.188
0.45535
-3.6931
10.81
7.7848
1.0974
-6.7087
6.2385
4.2129
-2.1762
8.8187
-11.418
-1.2807
-3.4013
-8.1139
6.3606
8.9242
-7.8919
9.3029
-14.409
5.147
20.174
-6.9661
0.37278
-21.963
70.683
66.22
-215.7
136.77
-48.3
-19.304
-92.334
-109.43
-99.86
28.124
-85.343
236.71
358.01
0.38427
-113.34
-49.69
19.14
42.145
-97.05
-15.473
54.781
51.555
-60.118
-32.747
-13.076
-8.8059
-56.295
116.92
50.163
226.82
-8.0239
-314.75
-6.0547
16.619
36.198
61.856
93.427
138.98
-176.38
-91.496
-576.01
-182.91
334.29
118.89
332.74
10.681
-213.83
-46.898
500.86
-197.68
-32.662
204.87
-35.718
-261.09
-290.09
11.79
52.581
9.5325
-17.983
109.44
37.127
-36.107
-7.3468
-0.65332
1.4907
60.012
8.6115
-5.9177
18.59
13.817
10.797
32.376
-41.913
14.887
9.8587
-54.16
66.442
-1.2081
-11.275
38.165
22.634
-50.316
-30.47
23.736
-9.791
1.9652
0.79156
0.27371
1.5346
-3.1113
-4.7269
-4.013
1.619
-56.587
-67.651
74.192
-1.0496
249.23
-0.026389
-112.59
-108.38
-16.886
107.71
-10.688
-107.53
-16.598
17.62
30.849
-49.492
2.1598
42.58
38.078
-48.627
-20.475
40.519
-10.87
-2.3745
5.5268
11.367
-7.2089
-1.5705
-4.6993
11.093
-2.4914
-3.2216
-4.0131
10.371
-43.399
1.3267
63.597
-155.41
70.708
149.97
-8.7676
-86.653
32.378
-15.189
-17.804
12.117
-25.366
11.052
-3.3196
9.2383
-5.9289
6.8464
-2.5987
6.6426
-10.076
-20.622
45.123
-7.0606
6.8215
-18.01
-20.626
45.68
-11.362
-11.991
3.4975
-5.6752
-15.901
24.684
5.6026
-8.0897
-29.9
23.319
-105.11
68.173
99.786
-106.18
20.878
22.177
60.886
5.6032
-43.25
-77.677
-169.67
-72.144
221.64
353.8
-59.45
102.33
-205.66
131.35
-317.62
-139.14
270.17
63.924
-134.74
204.55
54.586
-395.85
-139.13
385.98
-288.98
-146.55
176.95
-144.37
26.664
187.16
199.63
114.55
-166.69
-10.636
161.99
-16.295
-257.38
148.92
-122.63
31.651
-5.4823
22.964
-58.866
24.927
18.711
-32.483
21.927
10.867
1.7855
-2.9621
20.083
-11.359
-25.71
-10.216
9.2501
7.5874
16.889
10.429
-41.682
-52.52
-204.26
31.157
452.69
90.827
-256.18
-51.135
-38.381
-51.062
-129.96
132.87
288.89
46.932
-225.32
0.23677
40.401
-74.958
5.544
131.03
17.694
-111.64
-173.89
34.857
20.11
142.27
145.18
-44.611
-35.768
-50.225
-36.002
24.278
-46.103
-26.006
-20.856
13.853
32.14
-42.034
-92.292
104.98
34.466
-162.51
167.67
64.109
160.08
-167.53
-112.21
-118.59
14.502
173.8
113.1
-15.964
-82.287
-44.316
-22.944
7.0574
6.5858
7.8227
-6.1222
-2.6084
9.2847
-0.1772
-1.0225
20.187
-0.55316
2.5692
-6.7849
0.65546
-2.1288
5.7422
-7.6785
2.5688
-10.88
22.692
5.3961
163.24
-114.98
-382.25
271.81
121.27
-60.538
-57.461
6.9018
34.391
-8.6368
5.1937
-8.3966
4.311
-3.6344
-0.056572
-6.0247
1.7703
0.61224
-0.612
-2.3884
0.1649
13.337
2.4419
-4.2737
-4.8172
-2.2751
1.6467
4.2703
6.998
0.59988
-17.574
36.982
-9.5354
-87.373
93.592
2.4358
-25.126
-5.1617
-11.186
-30.147
-72.267
-5.1072
138.98
198.66
-237.96
30.473
24.193
-12.701
-115.38
76.555
26.629
-164.86
124.76
89.888
-12.173
-2.9954
122.56
33.119
-157.38
18.481
-33.182
-131.35
249.08
-188.97
-7.6813
42.592
-9.954
-6.2338
15.263
-31.234
6.602
89.621
-18.786
-189.42
52.143
38.971
154.91
-29.893
-25.875
-47.917
75.63
21.419
-109.48
4.8722
-38.212
133.06
78.614
132.37
-65.934
-180.62
-50.126
3.1112
-43.527
-19.66
-15.203
-27.933
-102.77
167.9
-50.322
34.388
71.119
53.682
-6.6211
-55.559
23.086
-15.108
-39.839
73.529
26.885
-89.555
43.55
78.742
189.52
-283.61
-43.658
-85.074
55.124
41.105
-25.763
40.915
88.298
-32.727
-64.737
-0.77031
3.3484
2.357
11.021
1.4424
3.332
15.464
-30.902
17.888
-143.98
179.23
31.031
-263.09
69.667
187.14
32.645
-92.184
48.09
-7.4009
1.4504
-73.106
-11.957
68.245
-9.5618
-96.209
161.16
-195.73
-37.849
255.96
188.71
-231.74
-23.448
4.4769
-48.78
-0.13311
5.5803
-29.112
-33.852
16.271
5.1641
17.257
15.899
42.665
-46.011
19.358
-83.276
-22.045
-14.764
179.42
218.66
-283.57
12.753
-6.6348
-81.708
14.108
89.727
-138.16
73.361
136.96
-1.275
-39.374
-42.275
-24.011
-15.73
65.788
0.62709
11.896
-217.6
-107.58
412.87
175
-136.41
-227.5
-78.651
26.963
-16.832
12.72
12.143
-4.444
19.679
11.928
-10.883
0.18078
11.532
-119.25
43.547
154.42
-37.769
-82.01
92.936
60.868
-119.94
96.671
9.8394
12.948
19.924
-27.608
-52.097
-69.527
-5.8649
34.475
85.995
34.926
16.45
-70.031
-52.808
20.989
29.135
3.4085
17.722
-6.0749
14.726
-1.093
-7.0309
7.6279
-13.006
-4.5789
7.2546
-4.0316
-6.7014
-0.65922
2.9013
6.8919
-8.5401
-5.6382
6.3277
-3.0892
9.364
8.0047
-14.37
-5.3359
0.86295
4.2016
3.0408
0.81439
2.3543
-7.7176
-6.1956
5.1049
-14.07
4.783
9.9404
-2.186
5.6275
-5.0762
-7.8569
-0.81327
3.9045
-8.4017
3.4423
-16.548
-55.079
-25.233
93.687
15.884
66.366
66.727
132.15
44.92
-106.63
22.125
-118.61
-104.13
-138.74
99.654
57.668
69.056
-180.47
-37.65
4.6612
0.38894
16.084
-123.9
-96.529
299.21
273.28
-196.76
-161.64
3.5229
3.7355
11.359
35.542
-208.75
160.01
220.02
50.703
-49.532
-91.622
80.378
-321.36
-2.9244
124.53
8.1214
18.624
-1.7802
6.9468
-1.6581
-4.1289
-8.5065
-52.364
54.726
60.46
43.246
-70.634
-83.563
78.382
-38.488
-25.522
77.88
51.774
-1.6294
-61.365
18.388
-33.803
24.418
122.76
-29.272
-138.67
-188.12
207.76
54.43
4.5847
29.583
-132.08
54.559
-31.077
18.073
141.2
13.738
-45.436
-216.51
-185.58
218.32
11.526
128.15
26.522
6.0445
6.8513
-168.95
45.28
-23.302
128.4
-86.019
21.55
93.708
-79.593
5.2253
47.183
8.2789
-11.636
-81.347
24.068
215.29
-45.095
-143.92
-31.095
39.76
5.9042
-68.759
-44.241
67.945
-62.502
-52.981
192.03
-25.243
-79.031
-3.6284
91.198
66.191
-85.765
16.13
-16.447
-20.722
-53.645
12.887
73.583
40.735
-15.217
-46.655
-162.41
77.329
88.612
5.3053
146.7
-188.36
-15.958
-70.301
-57.045
93.986
-20.304
95.898
116.29
-122.82
295.53
72.681
-61.475
93.535
-191.76
-446.22
-278.21
10.198
-37.312
629.03
128.07
197.29
-81.836
-351.97
100.65
-65.756
-310.27
38.485
191.59
258.33
-36.637
-43.429
47.477
-160.31
-107.99
94.068
63.877
-54.131
-31.001
29.691
-23.821
-0.46864
59.643
-19.266
-33.843
13.283
22.067
-30.327
3.6673
-27.809
17.165
17.582
-9.9261
-7.5207
1.8709
-4.5401
22.503
3.5976
1.8329
-1.5569
-0.47958
1.0999
0.014455
4.3322
-11.085
0.22186
7.3404
0.083851
-5.8579
3.0525
-2.4988
0.12349
0.31854
-12.104
23.859
-16.884
2.4
3.3561
-7.2337
12.692
-11.219
3.219
-5.1029
12.829
-14.675
12.988
0.53647
1.304
-9.903
-0.34994
-24.039
-8.6479
-71.982
127.15
-28.802
215.85
30.213
-300.97
-107.91
333.08
40.793
-226.02
6.6881
-103.81
268.89
78.324
71.283
-377.58
-217.35
258.25
-3.7502
271.82
-184.06
-196.73
172.98
-390.06
54.28
121.38
142.51
78.745
59.956
-8.5039
13.445
-6.6346
125.75
-222.09
276.79
-1.7353
-86.27
-164.44
-87.518
129.9
-66.192
15.769
-52.306
-15.272
74.963
56.835
-38.279
-26.064
-132.02
38.56
48.588
4.3992
12.483
5.2933
35.851
-32.08
33.263
5.894
-48.123
-30.623
-23.309
54.921
-107.01
106.11
98.828
-33.79
26.696
-199.13
-108.45
285.38
153.4
-76.066
-125.88
-20.687
18.261
-10.394
-5.8441
-4.7021
-7.0806
3.991
-6.1975
7.3048
-0.55468
3.3115
15.025
-5.6973
9.7453
11.945
-11.504
17.162
-8.8036
-2.7577
-3.5037
-10.28
10.35
12.856
0.55663
1.394
1.7351
-7.4254
12.413
3.1368
-6.904
-0.33933
0.64901
-7.0763
8.9965
5.8786
1.7965
10.302
76.754
-131.48
-18.939
-5.1007
41.044
32.426
46.587
-119.2
-12.251
257.55
-44.915
-29.626
-82.909
-71.682
-30.275
44.705
-22.525
-5.4809
27.132
-12.01
-0.29077
37.307
26.778
-33.373
24.004
-60.788
-306.96
194.15
121.04
-12.328
48.653
19.327
-86.715
82.427
20.165
-39.734
-13.377
41.287
-12.782
-7.7757
7.7772
-13.024
5.402
-14.987
12.538
30.533
-20.864
9.2566
-23.108
-4.227
-62.863
114.35
-20.419
-140.02
85.663
54.867
-31.312
-7.1064
-0.98955
11.276
-2.5972
-12.582
0.83804
-0.22053
-3.199
2.3284
62.259
-71.449
-33.195
17.463
-6.4775
-18.618
49.829
87.714
14.786
-38.823
-30.623
-14.64
14.86
-9.3963
7.6091
-11.936
7.4924
-10.966
9.6416
14.056
-0.81379
-13.845
-1.2469
-5.8628
8.5898
-44.482
6.9085
64.943
55.549
223.51
-165.86
-57.686
-117.36
42.28
9.8159
71.37
-11.057
-94.533
8.8909
20.676
-57.859
-42.354
-25.56
49.907
59.871
-27.21
-12.169
42.136
-33.774
41.48
-28.453
-27.446
42.698
-16.818
38.061
-62.632
28.884
44.234
-41.813
6.8129
1.7308
-0.89887
-98.082
26.371
67.809
-16.223
3.1749
-6.0789
14.121
-11.505
12.694
-10.083
-36.06
10.135
44.245
14.003
-17.302
-42.162
-30.19
43.448
74.167
7.863
-103.63
28.049
-6.4097
17.612
31.272
-0.80005
-15.885
-37.263
-7.4106
66.359
-29.016
33.398
-29.321
-5.7306
16.939
-23.044
4.3681
11.724
57.875
-70.353
6.2111
16.207
-33.276
-34.932
17.072
50.028
-30.042
-7.4804
44.941
2.9086
-29.027
-23.388
14.568
11.611
22.909
-27.636
-48.526
69.237
14.873
-23.043
-33.331
20.907
27.159
0.52719
1.9668
-37.89
5.511
84.467
14.298
-110.3
-64.877
15.651
91.035
-3.0055
-23.105
5.3843
-5.3224
15.323
-3.6135
43.197
-60.725
-49.493
37.012
68.311
-128.67
66.768
59.618
93.455
89.594
-98.753
-303.36
-307.58
524.22
5.7535
-141.4
-53.069
-65.846
150.75
143.98
137.28
-104.06
-206.68
20.612
105.29
28.395
-20.484
-35.604
2.9673
56.833
-29.756
-6.9165
-91.575
-50.115
71.534
18.317
17.8
47.418
118.21
-93.285
-83.002
2.5292
8.6531
30.072
-104.57
-73.555
281.26
60.613
-251.04
-44.565
42.136
45.476
-48.637
113.63
18.33
-33.731
-13.507
-19.551
-87.683
-37.315
159.11
-7.8448
65.637
-11.737
-50.612
69.193
39.088
-194.8
60.711
23.851
-26.744
22.63
22.692
-2.2232
-52.107
-23.781
18.929
26.498
-91.589
16.068
44.001
-8.9538
65.996
-38.294
-43.519
51.54
24.873
-71.038
33.922
64.028
-83.319
-37.427
-58.449
67.119
49.594
92.634
-85.265
-34.374
4.9884
42.224
27.965
24.155
26.789
-82.947
-37.498
-4.8474
29.84
-24.674
53.297
-34.505
-16.879
-152.82
1.8733
471.6
91.786
17.949
-79.956
-252.22
-312.34
52.593
-7.7468
40.76
29.647
65.081
103.1
-156.96
-37.376
-16.944
81.397
94.346
34.81
-23.41
-35.709
-22.315
6.3419
-12.36
-47.593
-78.292
100.97
164.41
98.336
12.936
-176.49
-92.917
19.782
17.785
65.794
-32.861
-47.415
-2.2265
-15.378
80.131
-21.752
-6.3725
22.029
-10.34
-20.265
8.5952
-56.874
-10.193
32.268
-215.23
464.88
167.53
-108.06
-186.91
-372.74
218.8
364.45
64.265
-263.08
-90.136
-250.51
-1.0932
57.869
31.768
257.55
-217.78
34.802
46.974
99.191
75.166
74.42
-438.79
133.19
330.71
-163.63
-133.56
94.06
-114.33
-82.5
273.28
-283.8
-125.6
-195.5
139.6
345.55
302.25
-78.046
-245.65
43.414
200.42
-106.55
59.448
-92.875
66.355
242.7
-201.7
182.85
-333.19
-355.03
-67.809
341.82
246.73
-59.482
-100.98
228.41
-97.652
-176.83
-0.91901
28.561
31.562
-193.38
140.09
-18.262
-170.47
101.39
205.89
123.23
-216.28
-89.837
17.103
-256.43
113.82
220.48
-45.128
5.476
120.35
-288.86
-90.931
237.52
-72.162
10.877
-26.351
40.551
-2.9375
58.783
-27.241
-38.538
138.73
113.77
-65.208
36.021
-86.274
-238.8
-11.092
-118.62
246
-14.617
-67.682
101.33
98.572
65.532
-125.24
-139.14
72.721
209.32
106.35
9.7188
-154.34
-127.08
-161.66
102.99
127.54
-87.306
43.764
2.0294
-78.678
198.3
119.31
-295.94
60.221
-114.76
-30.074
338.1
-50.692
-13.157
-30.137
95.535
-53.608
-41.801
54.22
72.932
-236.36
571.49
10.034
-388.97
94.847
-53.301
-247.96
-304.18
162.68
184.57
-40.808
-0.14629
-136.47
73.169
304.11
-233.8
139.77
-196.54
-120.52
143.05
133.9
-78.081
-122.96
-140.35
246.75
124.23
-161.1
164.98
-23.887
-10.752
15.451
8.4985
-48.337
-17.096
-1.4241
-38.553
-9.3713
26.771
73.807
-40.873
-37.807
17.416
-3.0978
0.72272
14.512
-13.665
-24.195
29.978
2.5062
-17.887
17.197
26.124
-12.886
-60.188
30.767
-4.9166
141.52
-17.383
-112.77
-8.5775
-8.5585
-26.579
-33.768
-1.6425
13.014
-30.552
30.363
27.028
11.753
22.06
-50.049
-9.1719
-29.499
12.051
3.2593
12.599
-28.166
90.118
33.214
-57.738
51.122
40.58
-100.93
-59.899
33.855
60.569
50.746
-38.447
30.91
20.749
91.569
2.596
-150.48
-298.77
-143.74
314.3
197.67
-3.9826
-31.361
85.447
-35.254
-94.299
-4.0417
-13.177
-88.542
41.326
285.38
-59.966
-133.81
-88.893
-36.049
-152.67
145.68
136.1
-97.236
-44.876
48.07
38.846
-67.024
98.39
-89.748
78.611
-15.243
65.927
-5.8431
-96.484
-30.522
-13.718
26.063
177.37
-28.815
-78.37
-21.865
-4.3059
-78.507
84.588
67.039
36.662
-48.5
-260.85
80.179
309.84
-104.02
-106.88
-27.48
-24.614
12.139
64.371
-17.849
-17.35
-2.0708
-92.358
-188.06
250.11
136.49
-84.361
63.314
72.869
-44.731
65.869
153.41
-214.13
-270.33
70.293
256.84
167.74
-237.02
-150.85
-19.907
80.571
37.722
-71.979
62.022
-36.659
242.04
54.064
-258.28
-41.31
-21.708
-17.293
7.8412
145.5
-13.025
-76.383
-10.626
-122.38
41.683
45.308
76.499
107.27
-33.467
7.6607
-183.9
86.648
89.351
-90.814
-74.536
144.64
30.306
-173.38
-36.524
41.81
85.997
-12.264
2.1385
-14.824
47.439
-60.921
153.91
-150.02
-35.31
39.411
40.222
8.1675
129.01
64.286
-301.98
-103.68
158.56
68.668
-63.003
3.6307
19.577
5.4785
-5.4024
41.92
-74.413
-153.1
361.28
-43.818
-385.7
239.86
117.13
-105.9
3.7181
-5.6076
-30.835
-92.971
-234.3
434.56
211.47
-77.081
43.074
-238.47
-108.04
-296.29
5.558
407.02
73.359
90.426
-123.2
47.436
-163.88
20.004
3.1184
-24.465
47.534
12.223
4.2545
-42.849
17.789
24.344
-12.503
-29.025
-8.925
-30.329
199.25
122.48
-203.93
-109.29
-150.16
31.484
158.02
192.28
-101.67
-122.02
33.613
-71.928
56.407
64.562
1.3255
8.713
-49.88
-11.512
70.474
-44.158
-10.107
-11.339
6.8287
28.485
-9.1008
-29.417
30.12
-44.581
64.121
-27.15
-37.383
90.682
124.4
50.112
-191.11
-84.195
53.25
-23.143
-27.298
2.2304
-5.7335
7.3113
-11.148
-2.3063
6.6919
-30.556
-69.321
86.561
2.4706
-7.0269
127.44
154.9
29.266
-221.95
-105.25
13.1
-5.7607
-53.504
99.184
41.446
-16.232
11.942
5.7768
-9.5549
33.232
-75.591
-51.087
-120.59
134.5
534.44
-223.98
-221.33
-136.03
-73.446
110.73
117.41
140.56
122.1
-170.54
-152.05
-128.73
-67.242
170.74
-0.041723
-34.686
35.2
26.977
-13.67
3.7041
-10.739
16.474
37.406
-1.8759
-13.721
13.025
-6.685
27.817
-86.484
64.805
184.96
28.753
-87.754
-20.728
-151.39
-16.785
52.207
13.352
-29.583
-1.7451
8.5407
5.2807
-28.933
-83.725
-169.26
247.43
185.9
3.621
-6.3512
-54.058
-73.268
-22.949
-23.389
-71.095
405.67
-44.881
-241.95
-179.31
-60.597
-12.305
1.5733
215.55
-74.81
38.508
250.6
50.149
-286.71
-122.34
133.55
73.677
-117.67
144.95
70.221
-103.72
-47.377
28.456
291.45
-136.21
-351.2
132.53
253.05
-298.31
-126.16
-307.22
-31.309
157.12
338.99
162.74
-5.1763
-14.601
-10.259
14.663
-23.962
-19.265
-9.0268
12.523
8.1034
-5.6893
13.533
-33.999
-45.261
39.813
16.055
8.67
-25.671
27.679
39.356
-57.759
175.24
219.75
-364.92
-66.834
-207.66
298.13
-87.939
-129.4
262.78
-136.48
34.056
92.495
-142.21
-153.47
267.28
140.11
243.31
-484.82
-333.28
-124.86
-87.47
164.4
394.12
234.73
-123.54
-192.32
123.89
-13.692
498.15
-255.1
-415.85
250.65
-164.28
-14.346
124.75
6.4228
39.283
-158.5
72.117
-46.387
49.752
-127.33
-41.709
-238.7
204.78
256.76
37.141
84.201
91.516
-281.67
-171.37
135.59
-115.12
270.77
42.769
-26.782
-159.32
-92.947
-101.48
100.55
126.98
-91.459
57.346
79.453
104.92
312.82
-164.28
-246.69
-313.94
47.403
165.92
-64.493
185.9
202.52
96.836
-737.74
286.81
40.489
85.696
52.202
-312.41
460.66
-342.21
-190.43
427.34
224.67
-3.223
138.23
-396.27
-387.55
17.549
-377.5
221.66
475.01
-220.32
-37.392
-127.55
327.7
646.84
-254.97
-592.95
84.095
165.53
0.7217
-125.77
-68.538
1.7569
74.006
18.454
73.519
40.131
154.49
-227.62
-30.425
-2.2949
-41.837
9.6847
-13.031
39.792
38.245
26.854
20.396
-78.354
-8.8266
-6.4868
-106.5
159.16
52.424
80.587
-103.98
-56.981
134.5
-109.57
3.5687
-3.6358
-82.351
27.924
73.043
-12.357
32.139
-99.141
222.39
-223.6
162.24
-52.96
-261.4
188.44
-92.404
129.45
-195.49
386.36
-23.376
-193.46
-232.15
64.93
101.07
-26.348
126.15
84.483
-6.1325
71.701
-90.208
-192.83
76.577
97.042
23.333
6.4764
-66.757
-127.65
159.18
-98.709
-70.29
335.23
-195.16
-177.22
457.3
-147.41
-193.46
-261.59
104.05
99.103
-62.301
378.5
-230.71
-257.41
360.5
120.37
-205.11
-127.4
273.66
71.725
-85.311
-417.45
62.375
340.19
-52.115
-66.913
37.388
153.31
-198.37
-295.48
283.74
-183.99
165.46
29.587
15.679
-51.122
-44.223
49.591
140.86
-37.77
-18.93
3.3356
101.05
-7.9003
63.323
-289.8
-125.02
175.5
105.51
-147.26
110.99
105
-96.766
-212.98
6.5121
215.15
-96.439
1.303
26.621
100.21
14.252
-148.37
-43.389
118.46
-72.087
-32.911
147.38
-77.433
-55.222
23.757
41.601
-28.683
-14.319
30.737
-29.65
-103.32
200.34
18.691
-78.018
-87.561
279.03
-35.689
-61.691
154.3
-287.52
-488.01
313.63
252.43
-55.443
-70.159
-59.485
4.2419
234.93
-12.244
-22.849
-60.838
1.9592
-91.535
60.048
230.54
-196.28
-44.709
20.55
23.225
0.5254
-8.0087
-8.6736
-3.0183
5.237
5.3122
-13.442
19.575
2.3548
-19.224
-4.6859
17.239
4.0644
-3.9476
-3.3914
4.2115
-2.2285
11.105
12.053
-17.583
3.6282
-13.531
-1.0282
-31.395
121.66
-0.86473
-6.655
106.22
-346.8
59.724
70.13
40.604
-23.934
22.097
-45.832
2.593
-153.24
59.207
290.89
68.977
-167.34
-204.12
204.94
193.82
-143.63
-177.67
119.69
-138.79
79.327
1.2747
-29.647
26.329
4.468
0.056265
-11.321
-12.76
-0.19285
10.215
14.124
-14.021
-47.307
-29.91
-117.75
105.71
165.94
-14.786
56.88
-14.229
-63.501
23.018
-38.118
-8.0584
-83.93
-25.498
51.108
39.521
44.821
15.314
-28.174
-2.4677
5.89
-11.558
-26.584
-74.656
60.49
145.94
-107.17
7.8763
-14.623
-1.6088
-12.119
4.8371
-26.2
-31.668
29.448
251.18
-59.57
-265.93
56.041
52.572
34.703
-35.969
5.7651
-37.029
32.826
-21.875
-12.763
26.819
29.343
-54.697
-58.085
97.272
-0.072832
4.6604
-14.727
-27.12
61.273
-32.271
67.576
-138.12
-30.973
212.18
-171.8
62.306
54.103
40.216
-78.728
-19.737
-117.38
95.08
82.44
56.959
93.516
-130.79
-20.621
-42.618
108.61
-189.18
-85.045
211.6
-34.127
-109.03
69.996
45.618
-25.391
176.71
-228.59
-105.35
97.882
13.558
52.419
-24.466
106.41
-118.04
130.31
9.1173
-269.6
80.767
94.128
32.748
35.573
-36.668
102.7
-133.49
-212.79
127.37
130.26
125.63
-84.318
-156.96
4.816
-22.981
22.059
51.557
-151.84
78.223
367.33
-234.56
-132.81
90.218
-95.083
-1.9163
-71.15
33.607
138.61
133.45
-120.47
-187.45
155.78
-34.344
20.794
52.396
-3.7227
-34.9
62.08
-130.27
-2.3918
66.549
99.179
-72.829
118.63
-132.93
-132.35
83.934
84.387
68.292
-81.225
-36.458
-9.9011
-34.142
17.363
-48.094
69.973
56.715
-96.989
-35.837
94.762
45.038
-23.464
140.99
-228.21
-18.29
106.39
75.558
-41.05
-212.45
126.75
-16.912
-103.09
142.26
74.09
-179.41
164.58
-1.3065
16.117
-98.278
13.353
-38.741
150.31
-17.501
-140.04
135.94
-64.783
-190.19
192.78
112.97
-308.08
77.951
194
-125.48
-67.421
113.46
-10.412
134.12
-75.85
-162.1
59.16
-31.11
213.09
-43.071
-68.391
54.58
-203.28
-49.212
70.167
63.933
49.02
131.56
-116.78
-118.06
-97.611
127.76
229.21
-51.265
-241.98
90.279
-37.236
-97.587
254.82
18.306
-15.042
-61.714
-236
262.12
-147.68
93.398
-1.3113
56.774
-127.58
48.452
-63.556
-1.6469
124.79
-67.892
-52.22
65.318
28.793
-67.011
33.9
46.847
-16.386
-10.471
2.5505
-22.013
-3.506
29.48
5.6669
-92.526
94.971
18.294
-2.7976
9.7907
-28.401
-11.121
4.6085
-7.7266
10.669
-9.7517
49.438
-33.293
-42.356
10.096
33.776
11.37
-11.885
-38.137
12.576
35.644
-31.261
8.7028
-9.5585
-30.691
72.726
-26.33
-40.32
56.658
-45.415
-1.1933
-3.2345
-6.0593
-19.062
19.449
20.969
84.795
-21.221
-69.126
11.959
174.63
-162.47
-96.394
53.979
15.924
-28.813
34.821
-27.825
76.202
-39.043
-0.20399
-9.9111
16.831
-45.46
107.22
-29.911
-36.48
80.713
-76.058
-7.6128
-49.455
13.338
134.79
-118.17
40.012
105.61
26.473
-223.89
-50.951
250.5
29.511
-203.79
-62.182
47.193
57.452
-19.349
113.67
-32.921
-66.358
-9.5715
-25.374
22.792
80.243
84.573
-105.35
-258.43
170.07
107.54
-97.276
-23.99
48.837
8.3518
156.05
-66.64
-275.06
296.92
-74.976
-112.73
80.207
8.8811
34.358
27.075
143.95
14.679
15.354
-343.6
10.257
214.38
-63.663
-409.63
-28.27
285.85
245.61
-151.21
66.462
-319.84
-170.65
261.83
151.57
72.752
23.436
19.548
-25.276
-191.97
118.94
227.96
-262.28
-40.605
-25.584
93.926
534.49
-80.093
-356.58
-177.15
-86.483
-12.634
91.421
183.84
-226.17
-171.04
144.27
-24.628
101.32
403.26
-265.29
-260.27
334.99
-150.75
-32.572
-53.303
-32.034
167.08
-78.656
13.722
-60.319
-193.93
-146.72
161.22
424.1
25.634
585.5
-371.29
-420.64
77.77
8.3788
-97.147
17.538
309.73
100.39
-32.799
-289.71
-608.75
-41.411
317.1
182.88
248.94
51.555
-252.32
-194.9
48.46
20.776
218.06
158.5
-104.29
-164.28
31.372
-43.829
-11.89
-22.494
-16.732
44.521
164.5
-111.72
22.728
-55.28
114.01
67.943
-170.8
35.416
96.201
32.128
-84.368
-20.539
7.9967
-28.926
-30.536
-104.08
-28.168
260.01
230.02
-85.095
126.95
-19.247
-443.92
-391.15
46.907
601.86
270.51
-141.98
-335.59
-130.64
86.784
-165.68
-81.522
83.931
173.07
431.4
-28.446
-50.133
-376.76
-166.48
51.836
75.412
37.838
-7.0187
-48.466
403.87
-64.256
-73.651
66.759
43.213
-286.12
15.186
98.443
-169.75
49.501
104.9
-257.61
43.162
173.33
-179.65
139.36
-10.478
71.512
74.554
28.934
123.45
-206.02
-80.921
46.13
245.76
179.54
90.414
-193.66
-412.36
-231.51
142.03
90.958
-76.033
344.69
-102.38
-242.57
-136.48
-169.38
139.96
380.06
411.13
-88.085
-522.4
-93.07
356.21
49.856
45.979
-115.23
-214.85
-6.1839
128.04
-251.24
-33.798
284.74
328.69
-79.486
-103.42
-196.17
-248.86
98.138
270.96
-226.14
203.5
160.95
-3.7866
51.909
-242.53
-301.77
82.975
315.55
81.419
-368.89
-184.77
168.31
158.22
80.858
321.34
-352.58
-250.49
-10.859
160.6
260.56
26.836
-20.873
65.524
-181.49
-54.136
141.97
-171.4
76.95
-64.214
-76.897
-123.03
477.2
156.42
-80.64
-53.224
-145.01
-212.91
-295.07
-4.5069
4.4408
480.51
167.47
-282.88
-66.347
16.64
68.125
-38.099
-18.093
-22.999
-32.291
-39.44
-115.18
98.688
119.3
142.42
-125.24
73.192
32.274
-67.685
64.498
-113.1
-9.4729
17.322
5.2797
30.984
-35.451
-24.174
-143.18
103.82
105.28
-0.57703
32.5
112.29
28.157
-321.09
146.12
264.62
-73.386
41.495
-171.28
-216.15
29.947
14.865
10.157
-63.126
141.82
-77.834
119.3
-124.02
255.04
162.38
-311.6
-255.71
-108.81
306.48
164.24
-19.17
-105.45
2.0619
77.166
-114.19
180.52
-20.881
-305.4
-103.14
265.39
242.97
-234.27
-301.06
111.23
302.14
152.62
-313.48
-18.451
172.12
-223.54
-48.984
418.91
167.96
-319.99
-27.202
-197.36
49.122
129.17
-99.74
-24.05
73.245
-8.2311
-21.404
-36.545
-77.206
-168.78
308.07
42.566
104.94
-113.03
-81.615
78.26
31.435
-53.474
-76.394
-22.113
153.81
-20.075
-56.257
-207.29
174.82
46.625
-96.87
193.49
6.5905
-7.0682
-133.59
-107.92
138.22
18.586
-180.23
327.34
-76.468
-86.429
