25.79
15.15
6.84
3.26
5.12
11.16
18.81
25.33
28.91
28.94
25.76
19.9
11.85
2.13
-8.31
-17.75
-24.02
-25.27
-20.8
-11.49
0.43
12.19
21.52
27.24
29.41
28.9
26.78
23.87
20.6
17.02
13.06
8.72
4.14
-0.42
-4.67
-8.41
-11.53
-14.06
-16.09
-17.75
-19.19
-20.56
-21.97
-23.48
-25.06
-26.63
-28.04
-29.22
-30.24
-31.35
-32.89
-35.12
-38.04
-41.37
-44.55
-46.98
-48.19
-47.94
-46.27
-43.33
-39.4
-34.7
-29.52
-24.14
-18.92
-14.29
-10.76
-8.87
-9.03
-11.38
-15.56
-20.7
-25.56
-28.93
-29.98
-28.55
-25.07
-20.36
-15.23
-10.26
-5.71
-1.59
2.14
5.46
8.25
10.33
11.59
12.01
11.83
11.49
11.55
12.49
14.42
16.91
19.04
19.8
18.49
15.11
10.27
4.98
0.13
-3.83
-6.89
-9.27
-11.11
-12.34
-12.76
-12.27
-11.02
-9.41
-7.86
-6.55
-5.37
-3.92
-1.8
1.25
5.19
9.77
14.5
18.88
22.49
25.04
26.48
26.98
26.88
26.52
26.22
26.1
26.08
25.9
25.15
23.44
20.48
16.23
11
5.5
0.71
-2.33
-2.89
-0.86
3.09
7.64
11.25
12.69
11.45
7.88
2.96
-2.15
-6.58
-9.99
-12.63
-15.01
-17.56
-20.4
-23.23
-25.5
-26.66
-26.33
-24.47
-21.33
-17.3
-12.88
-8.51
-4.58
-1.42
0.73
1.75
1.63
0.5
-1.39
-3.78
-6.35
-8.82
-10.89
-12.24
-12.53
-11.5
-8.96
-4.98
0.1
5.75
11.41
16.58
20.96
24.34
26.55
27.35
26.53
24.1
20.57
17.01
14.88
15.53
19.66
26.88
35.75
44.07
49.47
50.04
44.78
33.82
18.55
1.53
-13.81
-23.86
-25.81
-18.74
-4.13
14.29
31.72
43.78
47.86
43.68
32.83
17.83
1.13
-15.38
-30.27
-42.33
-50.51
-54.06
-52.97
-48.09
-40.79
-32.46
-23.9
-15.25
-6.29
3.11
12.55
21.27
28.47
33.75
37.3
39.69
41.52
43.1
44.3
44.64
43.39
39.65
32.5
21.3
6.23
-11.29
-28.46
-41.77
-48.3
-46.94
-39.09
-28.17
-18.24
-12.21
-10.87
-12.89
-15.96
-18.03
-18.24
-16.78
-14.2
-10.74
-6.13
-0.1
7.09
14.31
19.91
22.54
21.76
18.31
13.6
9.04
5.42
2.74
0.43
-2.23
-5.67
-9.92
-14.57
-18.98
-22.54
-24.89
-26.05
-26.41
-26.56
-27.02
-27.92
-28.99
-29.65
-29.31
-27.69
-24.95
-21.59
-18.31
-15.73
-14.2
-13.72
-13.92
-14.06
-13.21
-10.48
-5.29
2.3
11.54
21.09
29.48
35.54
38.77
39.34
37.9
35.07
31.21
26.35
20.43
13.57
6.26
-0.74
-6.67
-11.09
-13.97
-15.69
-16.76
-17.57
-18.27
-18.81
-19.1
-19.14
-19.06
-19.06
-19.22
-19.38
-19.13
-17.98
-15.53
-11.78
-7.23
-2.73
0.72
2.4
2.15
0.42
-1.88
-3.64
-4.03
-2.7
0.08
3.63
7.12
9.92
11.84
13.08
14.04
14.96
15.73
15.9
14.93
12.56
9.04
5.16
2.03
0.65
1.6
4.87
9.83
15.41
20.42
23.82
25.01
24.1
21.77
19.14
17.31
16.92
17.89
19.34
19.76
17.51
11.46
1.56
-10.85
-23.32
-33.02
-37.8
-36.96
-31.51
-23.63
-15.62
-9.05
-4.25
-0.65
2.54
5.7
8.65
10.92
12.29
13.01
13.69
14.84
16.42
17.76
17.89
16.04
12.22
7.21
2.25
-1.56
-3.72
-4.47
-4.56
-4.78
-5.57
-6.98
-8.73
-10.54
-12.36
-14.34
-16.68
-19.37
-22.06
-24.08
-24.76
-23.71
-21.06
-17.4
-13.6
-10.46
-8.49
-7.73
-7.73
-7.71
-6.71
-3.92
1.07
8.06
16.23
24.44
31.54
36.86
40.22
41.9
42.23
41.31
38.94
34.75
28.65
21.02
12.79
5.1
-1.12
-5.43
-7.99
-9.36
-10.21
-10.98
-11.88
-12.88
-13.87
-14.81
-15.62
-16.22
-16.42
-16.02
-14.87
-13.02
-10.74
-8.46
-6.62
-5.55
-5.36
-5.95
-7.1
-8.6
-10.32
-12.24
-14.35
-16.56
-18.57
-19.92
-20.04
-18.49
-15.06
-9.95
-3.67
3.03
9.38
14.76
18.85
21.64
23.34
24.33
25.06
25.98
27.48
29.82
33.04
36.93
41.13
45.19
48.69
51.23
52.35
51.52
48.3
42.63
35.14
27.22
20.64
16.89
16.54
18.93
22.34
24.59
23.64
18.09
7.48
-7.65
-25.66
-43.99
-59.52
-69.45
-72.19
-67.97
-58.67
-46.98
-35.33
-25.02
-16.18
-8.3
-0.99
5.53
10.65
13.85
15.24
15.51
15.59
15.94
16.31
15.89
13.97
10.44
5.95
1.61
-1.61
-3.43
-4.3
-5.12
-6.64
-9.15
-12.38
-15.78
-18.89
-21.56
-23.87
-25.97
-27.82
-29.1
-29.46
-28.68
-26.92
-24.69
-22.6
-21.15
-20.53
-20.64
-21.24
-22.07
-22.85
-23.1
-22.14
-19.2
-13.86
-6.5
1.62
8.65
12.91
13.63
11.26
7.25
3.37
0.97
0.57
1.89
4.15
6.53
8.44
9.7
10.44
11.08
12.04
13.58
15.6
17.62
18.96
19.01
17.57
14.98
12.01
9.5
8.09
7.97
8.83
9.94
10.14
7.99
2.02
-8.75
-24.14
-42.37
-60.26
-74.09
-80.91
-79.75
-71.9
-60.34
-48.34
-38.1
-30.11
-23.55
-17.29
-10.76
-4.37
1.04
4.89
7.37
9.39
11.99
15.56
19.66
23.25
25.27
25.33
23.78
21.54
19.55
18.36
17.89
17.56
16.63
14.52
11.1
6.72
2.14
-1.86
-4.71
-6.31
-7.08
-7.68
-8.81
-10.82
-13.71
-17.12
-20.64
-23.92
-26.86
-29.49
-31.83
-33.75
-34.83
-34.6
-32.62
-28.79
-23.34
-16.82
-9.87
-2.96
3.71
10.16
16.48
22.61
28.26
33.02
36.52
38.61
39.4
39.19
38.33
37.08
35.64
34.21
33.06
32.54
32.96
34.47
36.96
40.04
43.19
45.82
47.47
47.88
46.97
44.79
41.42
36.86
31.01
23.77
15.23
5.79
-3.73
-12.33
-19.11
-23.56
-25.69
-26.02
-25.55
-25.56
-27.4
-32
-39.27
-47.72
-54.64
-56.97
-52.73
-42.17
-27.95
-14.12
-4.27
0.09
-0.03
-2
-3.27
-2.72
-0.97
0.45
0.39
-1.06
-2.7
-3.02
-1.34
1.76
4.73
5.89
4.32
0.25
-5.11
-10.27
-14.13
-16.49
-17.99
-19.74
-22.77
-27.54
-33.77
-40.55
-46.78
-51.54
-54.37
-55.28
-54.51
-52.31
-48.81
-44.05
-38.01
-30.8
-22.58
-13.6
-4.15
5.36
14.45
22.58
29.25
34.22
37.56
39.71
41.19
42.47
43.74
44.93
45.8
46.09
45.68
44.6
43.06
41.34
39.71
38.35
37.27
36.32
35.19
33.53
31.08
27.75
23.59
18.78
13.52
8.07
2.62
-2.68
-7.76
-12.61
-17.22
-21.42
-24.8
-26.77
-26.76
-24.48
-20.3
-15.39
-11.53
-10.53
-13.45
-19.92
-28.06
-35.15
-38.72
-37.64
-32.54
-25.37
-18.3
-12.62
-8.32
-4.44
-0.04
5.01
9.84
13.18
14.24
13.32
11.64
10.77
11.77
14.7
18.73
22.67
25.67
27.54
28.66
29.48
29.97
29.29
26.15
19.4
8.87
-4.22
-17.41
-27.76
-33
-32.38
-26.87
-18.6
-9.94
-2.57
2.85
6.37
8.21
8.31
6.41
2.4
-3.22
-9.37
-14.68
-18.08
-19.29
-18.8
-17.53
-16.37
-15.81
-15.84
-16.08
-15.95
-14.98
-12.91
-9.75
-5.82
-1.62
2.21
5.17
6.97
7.55
6.98
5.37
2.82
-0.55
-4.54
-8.84
-13.12
-17.06
-20.41
-22.83
-23.87
-22.94
-19.5
-13.33
-4.75
5.25
15.38
24.26
30.81
34.42
34.95
32.75
28.54
23.4
18.55
15.07
13.6
14.13
16.04
18.38
20.26
21.12
20.91
19.94
18.7
17.56
16.67
15.9
14.88
13.14
10.29
6.17
0.95
-4.93
-10.86
-16.3
-20.95
-24.83
-28.24
-31.47
-34.63
-37.46
-39.36
-39.58
-37.59
-33.22
-26.82
-18.97
-10.32
-1.3
7.85
16.97
25.72
33.48
39.57
43.47
45.2
45.41
45.09
45.24
46.37
48.34
50.41
51.74
51.74
50.46
48.54
46.92
46.38
47.19
48.98
50.9
51.95
51.29
48.44
43.31
36.23
28.03
19.94
13.45
9.68
8.66
9.02
8.25
3.76
-6
-20.64
-37.98
-54.95
-68.9
-78.4
-83.37
-84.47
-82.39
-77.45
-69.72
-59.46
-47.45
-34.91
-23.2
-13.3
-5.52
0.57
5.88
11.32
17.44
24.2
30.99
36.93
41.26
43.66
44.37
44.1
43.68
43.78
44.62
45.97
47.29
47.98
47.64
46.12
43.47
39.82
35.37
30.36
25.13
19.94
14.79
9.17
2.23
-6.82
-18.16
-30.99
-43.61
-54.03
-60.79
-63.48
-62.74
-59.78
-55.73
-51.18
-46.19
-40.61
-34.55
-28.54
-23.4
-19.94
-18.51
-18.93
-20.53
-22.46
-24.03
-24.86
-24.92
-24.4
-23.51
-22.33
-20.81
-18.78
-16.13
-12.96
-9.63
-6.67
-4.66
-3.92
-4.44
-5.79
-7.36
-8.61
-9.26
-9.43
-9.44
-9.67
-10.34
-11.51
-13.1
-14.97
-16.93
-18.59
-19.41
-18.72
-16
-11.1
-4.42
3.21
10.78
17.49
22.97
27.24
30.56
33.12
34.9
35.73
35.42
33.97
31.59
28.54
24.99
20.9
15.97
9.88
2.48
-5.99
-14.85
-23.1
-29.56
-33.1
-32.9
-28.72
-21.07
-11.21
-1.03
7.5
12.68
13.62
10.31
3.56
-5.32
-14.91
-23.95
-31.53
-37.18
-40.83
-42.7
-43.09
-42.26
-40.33
-37.35
-33.43
-28.81
-23.85
-18.93
-14.38
-10.41
-7.25
-5.19
-4.51
-5.36
-7.6
-10.77
-14.28
-17.57
-20.31
-22.29
-23.2
-22.45
-19.25
-12.9
-3.33
8.67
21.5
33.23
42.17
47.3
48.51
46.48
42.4
37.61
33.31
30.31
28.87
28.63
28.58
27.15
22.65
13.83
0.55
-15.82
-32.77
-47.44
-57.72
-62.95
-63.87
-61.79
-57.53
-50.91
-41.16
-27.9
-12.05
4.1
17.73
26.79
30.79
30.88
28.97
26.8
25.25
24.41
24.05
23.99
24.28
24.98
25.97
26.94
27.53
27.73
27.85
28.45
29.86
32.01
34.38
36.21
36.91
36.28
34.53
32.01
29.21
26.68
25.17
25.54
28.42
33.67
40.16
45.99
49.13
48.39
43.88
36.9
28.99
20.95
12.27
1.62
-12
-28.07
-44.03
-55.98
-60.28
-55.24
-42.16
-24.89
-8.36
3.46
8.94
8.89
5.55
1.12
-3.25
-7.57
-12.33
-17.57
-22.58
-26.16
-27.36
-26.2
-23.71
-21.41
-20.5
-21.26
-23.01
-24.41
-24.26
-21.97
-17.89
-13.18
-9.37
-7.73
-8.87
-12.62
-18.12
-24.27
-29.99
-34.49
-37.35
-38.48
-37.94
-35.89
-32.44
-27.64
-21.52
-14.19
-5.99
2.47
10.44
17.18
22.25
25.59
27.5
28.54
29.3
30.26
31.72
33.75
36.11
38.35
39.86
40.05
38.58
35.51
31.35
26.94
23.16
20.61
19.26
18.48
17.2
14.37
9.41
2.45
-5.78
-14.36
-22.5
-29.8
-36.16
-41.57
-45.88
-48.76
-49.84
-48.84
-45.79
-41
-35.02
-28.42
-21.75
-15.35
-9.36
-3.72
1.73
7.06
12.19
16.83
20.66
23.43
25.11
25.86
25.94
25.64
25.18
24.79
24.74
25.29
26.48
27.97
29.02
28.69
26.19
21.22
14.13
5.84
-2.6
-10.36
-17.07
-22.76
-27.72
-32.13
-36.02
-39.27
-41.85
-43.91
-45.64
-47.14
-48.15
-47.99
-45.87
-41.28
-34.39
-26.13
-17.82
-10.66
-5.2
-1.22
2.07
5.54
9.71
14.59
19.75
24.64
28.8
31.94
33.93
34.69
34.17
32.39
29.52
25.96
22.23
18.86
16.13
14.03
12.22
10.31
8.04
5.43
2.8
0.52
-1.12
-2.13
-2.77
-3.44
-4.5
-6.22
-8.7
-11.89
-15.55
-19.2
-22.09
-23.33
-22.12
-18.05
-11.3
-2.62
6.89
16.15
24.49
31.69
37.93
43.48
48.53
53.1
57.17
60.77
64.03
67.06
69.87
72.22
73.79
74.31
73.8
72.6
71.21
70.11
69.41
68.76
67.3
63.92
57.59
47.73
34.46
18.51
0.92
-17.37
-35.86
-54.45
-73.17
-91.85
-109.85
-126.21
-139.89
-150.19
-156.94
-160.38
-160.98
-159.21
-155.35
-149.52
-141.72
-131.9
-119.92
-105.6
-88.78
-69.48
-48.11
-25.51
-2.84
18.62
37.77
53.87
66.51
75.6
81.2
83.56
83.16
80.67
77.06
73.3
70.21
68.2
67.13
66.22
64.18
59.58
51.26
38.99
23.97
8.82
-3.19
-9.49
-9.53
-5.24
-0.29
1.78
-0.66
-6.57
-13.05
-17.26
-18.09
-16.59
-14.96
-14.73
-15.6
-15.59
-12.47
-5.29
4.82
15.28
23.48
28.07
29.38
28.87
28.09
27.9
28.18
28.25
27.34
25.22
22.21
19.09
16.72
15.64
15.93
17.08
18.24
18.5
17.31
14.68
11.18
7.83
5.61
5.11
6.34
8.76
11.52
13.87
15.34
15.86
15.59
14.83
13.78
12.5
10.91
8.66
5.26
0.2
-6.79
-15.41
-24.75
-33.51
-40.48
-45.04
-47.4
-48.28
-48.46
-48.28
-47.64
-46.23
-43.95
-41.04
-37.88
-34.59
-30.84
-25.97
-19.48
-11.42
-2.48
6.3
14.09
20.62
26.22
31.39
36.34
40.74
43.81
44.7
42.9
38.54
32.35
25.47
19.14
14.47
12.1
12.11
13.8
15.78
16.28
13.68
7.04
-3.57
-17.07
-31.76
-45.86
-57.89
-66.86
-72.27
-73.99
-72.18
-67.3
-60.05
-51.29
-41.86
-32.48
-23.56
-15.28
-7.68
-0.76
5.45
10.88
15.52
19.39
22.69
25.69
28.73
32.04
35.66
39.33
42.63
45.09
46.54
47.16
47.49
48.18
49.6
51.56
53.18
53.07
49.79
42.34
30.67
15.86
-0.05
-14.5
-25.11
-30.36
-29.94
-24.87
-17.16
-9.15
-2.77
0.98
2.24
2.08
2.02
3.35
6.74
12.05
18.47
24.7
29.28
30.74
28.06
21.18
11.43
1.54
-5.19
-6.13
-0.62
9.59
20.92
29.5
32.67
29.85
22.33
12.36
2.02
-7.32
-14.97
-20.65
-24.17
-25.53
-25.08
-23.68
-22.5
-22.62
-24.66
-28.57
-33.69
-39.11
-43.95
-47.7
-50.24
-51.79
-52.65
-53
-52.76
-51.56
-48.88
-44.3
-37.71
-29.41
-20.08
-10.59
-1.83
5.59
11.33
15.38
18.03
19.73
21.05
22.51
24.49
27.19
30.61
34.53
38.7
42.8
46.62
49.97
52.78
54.99
56.53
57.33
57.22
56.04
53.67
50.13
45.66
40.71
35.81
31.38
27.56
24.14
20.62
16.45
11.26
5.01
-1.95
-9.07
-15.75
-21.56
-26.35
-30.25
-33.67
-37.12
-41.07
-45.74
-50.88
-55.68
-58.72
-58.35
-53.21
-42.81
-27.93
-10.65
6.24
20.01
28.85
32.26
31
26.57
20.65
14.62
9.32
5.16
2.19
0.27
-0.89
-1.68
-2.46
-3.54
-5
-6.69
-8.16
-8.86
-8.2
-5.88
-2.04
2.75
7.74
12.42
16.94
22.04
28.66
37.14
46.68
55.34
60.72
60.88
55.22
44.6
30.89
16.17
2.07
-10.45
-20.86
-28.77
-33.89
-36.09
-35.74
-33.7
-31.07
-28.82
-27.36
-26.52
-25.74
-24.38
-22.05
-18.65
-14.38
-9.58
-4.68
-0.09
3.85
6.92
9.07
10.44
11.24
11.62
11.65
11.22
10.21
8.57
6.36
3.82
1.24
-1.12
-3.08
-4.61
-5.89
-7.22
-9.03
-11.68
-15.19
-19.11
-22.52
-24.24
-23.26
-19.11
-12.09
-3.1
6.66
16.18
24.87
32.57
39.39
45.41
50.6
54.81
57.94
60.01
61.23
61.81
61.79
60.97
58.83
54.69
47.94
38.29
25.89
11.38
-4.27
-19.95
-34.7
-47.88
-59.27
-69.16
-78.13
-86.89
-95.95
-105.47
-115.12
-124.13
-131.51
-136.28
-137.68
-135.47
-129.93
-121.84
-112.28
-102.25
-92.31
-82.43
-72.07
-60.59
-47.71
-33.87
-20.25
-8.45
0.15
5
6.72
6.96
7.63
9.9
13.46
16.6
17.16
13.85
7.31
0.08
-4.53
-4.22
1.12
9.39
17.53
23.19
25.82
26.53
27.04
28.31
29.97
30.64
28.95
24.39
17.73
10.49
4.25
-0.17
-2.93
-4.95
-7.38
-11.02
-16.05
-21.99
-27.92
-32.82
-35.92
-36.85
-35.59
-32.33
-27.28
-20.59
-12.36
-2.86
7.45
17.93
27.91
36.87
44.43
50.32
54.21
55.77
54.73
51.09
45.27
38.05
30.4
23.19
16.97
11.87
7.69
4.12
0.9
-1.99
-4.37
-6.05
-6.97
-7.33
-7.51
-7.85
-8.43
-8.94
-8.83
-7.63
-5.28
-2.33
0.18
1.17
-0.09
-3.59
-8.53
-13.67
-17.79
-20.15
-20.7
-20.01
-18.97
-18.36
-18.68
-19.91
-21.6
-22.95
-23.02
-21.01
-16.58
-10.08
-2.39
5.41
12.51
18.79
24.71
30.8
37.19
43.19
47.44
48.51
45.4
38.12
27.69
15.99
5.22
-2.64
-6.49
-6.61
-4.52
-2.48
-2.46
-5.23
-10.13
-15.57
-20.11
-23.4
-26.3
-30.26
-36.18
-43.58
-50.56
-54.71
-54.27
-48.96
-40.1
-29.91
-20.54
-13.27
-8.18
-4.47
-0.98
3.2
8.31
14
19.54
24.24
27.71
29.93
31.2
31.9
32.29
32.47
32.48
32.36
32.26
32.44
33.12
34.33
35.81
37.04
37.38
36.37
34.03
30.88
27.82
25.74
25.07
25.49
25.99
25.23
22.11
16.33
8.6
0.47
-6.2
-9.98
-10.3
-7.62
-3.17
1.54
5.31
7.53
8.15
7.5
5.97
3.88
1.49
-0.97
-3.22
-5.01
-6.16
-6.65
-6.57
-6.01
-4.92
-3.14
-0.51
2.92
6.84
10.69
13.88
16.05
17.24
17.79
18.12
18.47
18.71
18.44
17.23
14.93
11.81
8.47
5.52
3.3
1.69
0.2
-1.8
-4.76
-8.78
-13.6
-18.61
-23.06
-26.21
-27.44
-26.4
-22.98
-17.45
-10.37
-2.53
5.22
12.11
17.68
21.95
25.32
28.42
31.68
35.1
38.05
39.48
38.43
34.53
28.2
20.64
13.4
7.84
4.86
4.73
7.24
11.84
17.69
23.72
28.54
30.62
28.55
21.65
10.36
-3.54
-17.34
-28.31
-34.69
-36.28
-34.41
-31.14
-28.32
-26.87
-26.77
-27.61
-29.05
-31.02
-33.5
-35.99
-37.46
-36.67
-32.82
-26.15
-17.89
-9.79
-3.35
0.73
2.55
2.79
2.15
1.17
0.14
-0.68
-1.06
-0.69
0.56
2.56
4.9
7.03
8.44
8.93
8.64
7.94
7.34
7.22
7.78
9.03
10.82
12.92
15.1
17.13
18.75
19.7
19.79
19.08
18.01
17.37
18.05
20.58
24.79
29.68
33.82
35.91
35.33
32.38
27.93
22.93
17.89
12.86
7.62
2.19
-2.91
-6.73
-8.37
-7.51
-4.67
-1.12
1.64
2.44
1.02
-1.97
-5.15
-7.08
-6.75
-3.96
0.75
6.49
12.4
17.97
23.03
27.54
31.35
34.18
35.65
35.58
34.11
31.65
28.66
25.41
21.88
17.84
13.05
7.48
1.34
-5.07
-11.48
-17.74
-23.81
-29.54
-34.5
-38.04
-39.52
-38.56
-35.37
-30.73
-25.66
-21.06
-17.28
-14.07
-10.81
-6.94
-2.38
2.34
6.26
8.5
8.65
7.11
4.88
3.23
3.13
4.89
8.08
11.75
14.9
16.72
16.9
15.51
13.1
10.39
8.19
7.17
7.58
9.15
11.11
12.47
12.44
10.71
7.55
3.63
-0.34
-3.87
-6.8
-9.36
-12.02
-15.56
-20.88
-28.71
-39.12
-51.06
-62.25
-69.8
-71.27
-65.67
-53.88
-38.21
-21.27
-4.98
9.8
22.88
33.87
41.62
44.53
41.56
33.23
21.99
11.36
4.39
2.23
3.69
6.05
6.59
3.98
-1.3
-7.56
-13.08
-17.11
-20.04
-22.81
-26.02
-29.49
-32.46
-34.19
-34.56
-34.24
-34.24
-35.31
-37.44
-39.85
-41.42
-41.21
-38.88
-34.7
-29.36
-23.59
-17.97
-12.94
-8.88
-6.14
-4.9
-4.93
-5.48
-5.42
-3.65
0.39
6.41
13.37
19.88
24.85
27.81
29.03
29.08
28.43
27.1
24.79
21.25
16.65
11.72
7.53
4.96
4.37
5.39
7.12
8.62
9.27
8.98
8.07
7
6.03
5.15
4.16
2.86
1.17
-0.84
-2.98
-5.11
-7.07
-8.64
-9.47
-9.02
-6.84
-2.68
3.23
10.25
17.51
24.2
29.89
34.53
38.35
41.64
44.45
46.59
47.54
46.67
43.4
37.43
28.89
18.38
6.92
-4.21
-13.72
-20.51
-23.93
-24.09
-21.93
-19.19
-17.82
-19.35
-24.14
-31.04
-37.86
-42.14
-42.24
-38.01
-30.83
-23.12
-17.5
-16.05
-19.75
-28.18
-39.41
-50.32
-57.29
-57.34
-49.2
-33.92
-14.48
5.35
22.36
34.87
42.67
46.48
47.14
45.26
41.4
36.37
31.36
27.68
26.13
26.55
27.85
28.45
26.91
22.56
15.61
7.14
-1.39
-8.46
-13.01
-14.67
-13.99
-12.36
-11.58
-13.39
-18.73
-27.45
-38.24
-49.05
-57.8
-63.04
-64.37
-62.37
-58.28
-53.44
-48.82
-44.74
-40.91
-36.56
-30.75
-22.76
-12.38
-0.02
13.21
25.88
36.56
44.24
48.44
49.15
46.61
41.17
33.31
23.69
13.22
3.06
-5.64
-12.02
-15.64
-16.6
-15.34
-12.5
-8.76
-4.67
-0.69
2.85
5.72
7.79
8.95
9.18
8.51
7.13
5.32
3.42
1.68
0.16
-1.32
-3.04
-5.25
-7.92
-10.64
-12.68
-13.21
-11.61
-7.74
-2.06
4.51
10.88
16.13
19.79
21.97
23.17
24
24.91
25.99
27.07
27.92
28.46
28.89
29.59
30.82
32.43
33.86
34.29
33.07
30.12
26.04
21.94
18.92
17.69
18.26
19.97
21.6
21.63
18.48
10.86
-1.7
-18.32
-36.54
-52.78
-63.43
-66.22
-61.13
-50.36
-37.36
-25.33
-16.12
-9.93
-5.97
-3.38
-1.92
-1.86
-3.32
-5.85
-8.31
-9.44
-8.58
-6.08
-3.1
-0.96
-0.51
-1.8
-4.25
-7.03
-9.52
-11.47
-13.05
-14.65
-16.8
-20.05
-24.72
-30.73
-37.34
-43.28
-47.13
-47.85
-45.25
-40.07
-33.65
-27.45
-22.57
-19.5
-18.24
-18.56
-20.16
-22.66
-25.53
-27.9
-28.82
-27.44
-23.53
-17.53
-10.41
-3.23
3.39
9.34
14.98
20.75
26.76
32.72
38.05
42.18
44.85
46.09
46.09
44.94
42.54
38.67
33.22
26.29
18.36
10.17
2.58
-3.64
-8.02
-10.39
-10.94
-10.1
-8.47
-6.62
-5.04
-4.02
-3.72
-4.13
-5.18
-6.73
-8.56
-10.45
-12.19
-13.74
-15.25
-17
-19.28
-22.09
-25.05
-27.4
-28.24
-26.86
-22.99
-16.99
-9.59
-1.71
5.91
12.87
19.12
24.78
29.99
34.82
39.29
43.52
47.79
52.49
57.94
64.24
71.16
78.09
84.12
88.17
89.22
86.64
80.53
71.8
62.07
53.09
46.2
41.71
38.93
36.29
32.03
24.58
13.03
-2.57
-21.03
-39.93
-56
-65.96
-67.66
-60.96
-47.86
-31.76
-16.13
-3.42
5.47
10.72
12.99
12.81
10.6
6.93
2.9
-0.08
-0.84
0.96
4.48
8.04
9.86
8.79
4.83
-1.09
-7.47
-12.9
-16.48
-17.85
-17.13
-14.81
-11.58
-8.31
-5.9
-5.03
-5.89
-8.06
-10.66
-12.7
-13.58
-13.31
-12.41
-11.61
-11.5
-12.38
-14.29
-17.09
-20.55
-24.28
-27.71
-30.14
-30.92
-29.69
-26.49
-21.71
-15.89
-9.5
-2.88
3.71
9.97
15.51
19.83
22.53
23.46
22.86
21.37
19.77
18.73
18.54
19
19.57
19.74
19.24
18.24
17.18
16.49
16.36
16.61
16.89
16.9
16.56
15.89
14.97
13.73
12.12
10.21
8.39
7.33
7.64
9.58
12.77
16.3
18.96
19.72
18.03
13.94
8
1.05
-6.07
-12.78
-18.86
-24.44
-29.76
-34.82
-39.18
-41.87
-41.8
-38.19
-31.18
-21.89
-12.35
-4.89
-1.54
-3.47
-10.52
-21.17
-32.73
-41.99
-46.09
-43.52
-34.79
-22.36
-9.93
-1.06
2.02
-0.89
-8.23
-17.5
-26.41
-33.55
-38.54
-41.66
-43.16
-43.04
-40.98
-36.86
-31.03
-24.42
-18.23
-13.39
-10.12
-7.81
-5.38
-1.73
3.73
10.86
18.95
27.06
34.35
40.41
45.29
49.49
53.71
58.65
64.74
71.98
79.92
87.77
94.69
100.11
103.9
106.29
107.58
107.92
107.14
104.92
101.04
95.66
89.34
82.84
76.86
71.81
67.81
64.8
62.68
61.4
60.87
60.83
60.78
60.01
57.85
53.88
48.16
41.35
34.38
28.1
22.81
17.96
12.35
4.64
-5.97
-19.27
-34
-48.36
-60.66
-69.77
-75.28
-77.34
-76.37
-72.93
-67.71
-61.56
-55.48
-50.46
-47.28
-46.51
-48.43
-53.08
-60.26
-69.39
-79.55
-89.5
-98.03
-104.32
-108.16
-109.96
-110.38
-110
-109.03
-107.29
-104.41
-100.13
-94.51
-88.03
-81.28
-74.81
-68.81
-63.1
-57.38
-51.49
-45.65
-40.45
-36.6
-34.52
-34.14
-34.89
-35.87
-36.35
-36.04
-35.36
-35.29
-36.92
-40.79
-46.41
-52.1
-55.53
-54.59
-48.27
-37.19
-23.29
-9.3
2.18
9.18
10.79
7.33
0.81
-4.97
-4.92
5.88
30.01
66.16
109.01
151
185.2
207.83
219.15
222.41
221.75
220.15
218.75
217.29
215.31
212.83
210.42
208.55
207.06
205.11
201.65
196.02
188.19
178.62
167.8
155.71
141.57
124.07
101.99
75.06
44.49
12.92
-16.41
-40.79
-59.07
-71.96
-81.54
-90.29
-99.95
-110.9
-122.19
-132.08
-138.84
-141.48
-140.05
-135.57
-129.62
-123.85
-119.44
-116.88
-115.97
-116.06
-116.32
-115.88
-113.85
-109.46
-102.32
-92.76
-82.1
-72.45
-65.94
-63.88
-65.96
-70.17
-73.42
-72.95
-67.69
-58.99
-50.13
-44.94
-45.89
-52.87
-63.03
-71.9
-74.95
-69.18
-54.08
-31.9
-7.34
13.14
22.43
14.55
-13.27
-58.91
-115.13
-171.29
-216.63
-243.75
-250.45
-239.37
-215.57
-183.72
-146.35
-104.07
-57.15
-7.21
42.19
86.53
122.06
147.27
163.1
171.81
175.37
174.38
168.09
155.22
135.34
109.59
80.51
51.16
23.99
0.19
-20.42
-38.73
-55.69
-71.53
-85.65
-96.88
-103.96
-106.05
-103.09
-95.78
-85.46
-73.77
-62.31
-52.27
-44.29
-38.39
-34.16
-31.09
-28.89
-27.59
-27.5
-28.85
-31.49
-34.84
-38.01
-40.18
-40.93
-40.27
-38.55
-36.16
-33.3
-30
-26.2
-21.98
-17.68
-13.76
-10.67
-8.7
-7.83
-7.77
-8.1
-8.45
-8.62
-8.63
-8.75
-9.33
-10.71
-13.03
-16.09
-19.36
-21.94
-22.79
-20.92
-15.81
-7.49
3.36
15.62
28.1
39.79
50.07
58.64
65.43
70.38
73.53
74.92
74.77
73.46
71.49
69.37
67.54
66.28
65.7
65.82
66.49
67.47
68.42
68.86
68.27
66.13
61.99
55.59
46.92
36.28
24.21
11.57
-0.81
-12.3
-22.63
-31.94
-40.44
-48.36
-55.87
-62.83
-68.65
-72.39
-72.95
-69.39
-61.35
-49.11
-33.82
-17.3
-1.55
12.11
23.16
31.89
38.96
44.9
50.28
55.29
59.75
63.36
66.57
70.01
74.14
78.92
83.55
87.89
91.78
94.65
95.93
96.32
96.42
96.32
95.02
90.12
81.49
70.31
58.37
47.78
41.69
41.24
44.63
47.79
45.35
37.21
26.56
17.68
14.51
21.51
40.52
70.04
105.96
141.67
175.44
207.61
238.71
251.03
231.65
179.62
107.62
46.68
-0.03
-34.12
-56.73
-72.77
-83.16
-85.9
-79.6
-64.99
-45.17
-26.23
-10.22
2.37
11.22
16.65
20.78
25.42
31.13
36.9
39.57
39.12
36.54
32.53
27.62
22.86
18.85
15.59
12.45
7.81
2.12
-3.67
-9.05
-13.67
-16.94
-18.3
-17.38
-14.23
-9.8
-4.65
0.45
4.41
6.37
6.05
3.81
0.37
-3.59
-7.92
-12.6
-17.79
-23.62
-29.78
-35.46
-39.57
-41.14
-39.81
-36.11
-31.33
-27.14
-25.12
-26.43
-31.62
-40.63
-52.71
-66.49
-80.15
-91.78
-99.85
-103.62
-103.09
-98.63
-90.52
-78.7
-62.97
-43.54
-21.56
0.87
21.24
37.36
47.99
53
53.11
49.51
43.54
36.61
30.12
25.28
22.79
22.73
24.59
27.6
31.04
34.16
36.05
35.5
31.36
23.46
13.29
3.91
-1.17
0.18
7.37
16.99
24.36
25.69
19.6
7.24
-8.82
-26.01
-42.74
-58.46
-73.05
-86.31
-97.68
-106.34
-111.53
-112.73
-109.77
-103.19
-94.26
-85
-77.65
-73.92
-74.06
-76.5
-78.58
-77.91
-74.01
-68.69
-65.19
-66.26
-72.55
-81.85
-89.95
-92.76
-88.33
-77.91
-65.07
-53.8
-46.74
-44.41
-45.64
-48.48
-51.24
-52.97
-53.99
-55.07
-56.73
-58.96
-61.46
-63.98
-66.36
-68.64
-70.64
-73.09
-76.28
-79.6
-81.43
-80.3
-75.66
-67.79
-57.98
-47.52
-39.54
-36.78
-40.73
-50.9
-65.79
-83.55
-101.61
-117.63
-129.11
-136.93
-143.49
-151.64
-162.88
-177.91
-196.57
-217.11
-237.31
-238.47
-209.02
-150.54
-78.07
-8.18
49.64
92.07
126.55
158.04
188.82
217.08
241.47
257.94
266.94
270.79
271.8
271.73
270.62
268.39
263.04
252.94
237.83
219.88
201.74
185.36
171.89
161
152.18
143.77
134.32
123.2
111.38
100.01
89.88
81.38
74.12
67.81
61.59
54.64
46.39
37.06
27.08
16.88
7.01
-2.1
-9.88
-16.01
-20.46
-23.59
-25.83
-27.87
-30.44
-34.09
-39.07
-45.22
-52
-58.56
-63.97
-67.2
-67.51
-64.6
-58.8
-50.92
-42.07
-33.26
-25.18
-18.16
-12.25
-7.48
-3.88
-1.51
-0.29
0.05
-0.07
-0.33
-0.67
-1.26
-2.41
-4.23
-6.56
-8.94
-10.86
-11.96
-12.2
-11.78
-11.02
-10.22
-9.62
-9.47
-10.03
-11.54
-14.07
-17.49
-21.4
-25.39
-29.19
-32.66
-35.7
-38
-39.06
-38.16
-34.75
-28.67
-20.32
-10.54
-0.31
9.57
18.69
27.02
34.67
41.73
48.01
53.14
56.72
58.5
58.58
57.34
55.35
53.14
51.04
49.08
47.09
44.83
42.12
38.83
34.96
30.59
25.81
20.72
15.47
10.21
5.04
0.03
-4.84
-9.64
-14.52
-19.68
-25.38
-31.76
-38.77
-45.98
-52.57
-57.52
-59.96
-59.46
-56.32
-51.44
-45.99
-41
-37
-34.06
-31.96
-30.61
-30.16
-30.96
-33.26
-36.94
-41.46
-46.02
-49.89
-52.57
-53.89
-53.87
-52.64
-50.36
-47.26
-43.71
-40.11
-36.87
-34.25
-32.27
-30.77
-29.53
-28.37
-27.14
-25.7
-23.84
-21.29
-17.86
-13.52
-8.62
-3.82
0.05
2.38
3.13
3
3.36
5.75
11.39
20.63
32.88
46.79
60.74
73.37
83.75
91.56
96.74
99.36
99.46
97.1
92.52
86.22
78.99
71.72
65.14
59.65
55.22
51.54
48.17
44.84
41.49
38.26
35.4
33.07
31.28
29.83
28.4
26.7
24.61
22.25
19.89
17.8
16.1
14.63
13.06
11.06
8.47
5.45
2.49
0.3
-0.37
1.1
5.14
11.9
21.26
32.82
45.95
59.88
73.74
86.71
98.01
106.99
113.1
115.99
115.54
111.98
105.93
98.38
90.55
83.59
78.34
75.12
73.73
73.58
74.03
74.56
74.91
75.01
74.85
74.42
73.66
72.57
71.28
70.01
69.07
68.59
68.42
68.06
66.85
64.12
59.55
53.28
45.92
38.36
31.49
25.92
21.91
19.28
17.6
16.14
14.14
10.89
6.04
-0.32
-7.73
-15.72
-24.15
-33.43
-44.33
-57.53
-73.06
-90.05
-106.84
-121.63
-133.12
-140.89
-145.36
-147.41
-147.85
-147.23
-145.77
-143.6
-140.89
-137.95
-135.1
-132.48
-129.93
-127.05
-123.35
-118.5
-112.5
-105.64
-98.32
-90.82
-83.09
-74.71
-65
-53.4
-39.74
-24.45
-8.46
7.28
22.18
36.25
49.86
63.32
76.38
88.27
98
104.93
108.78
109.36
106.17
98.44
85.7
68.46
48.49
28.11
9.02
-8.75
-26.76
-47
-70.3
-95.33
-119.12
-138.5
-151.81
-159.53
-163.69
-166.42
-168.86
-171
-172.53
-173.86
-176.42
-182.13
-192.1
-205.75
-220.78
-234.06
-242.9
-245.74
-242.06
-231.46
-213.07
-185.47
-147.67
-100.3
-46.27
9.62
61.93
106.01
138.68
158.17
163.63
155.14
134.28
104.83
72.9
45.68
29.24
26.32
35.37
51.35
68.14
80.94
87.7
88.79
85.69
79.47
70.35
58.26
44.1
30.44
21.22
20.52
30.68
51.04
77.6
104.3
125.18
136.68
138.98
135.65
131.84
131.77
136.84
145.2
153.17
157.27
156.05
150.5
143.22
136.83
132.71
130.76
129.99
129.54
129.31
129.84
131.72
134.95
138.55
140.75
139.65
133.84
122.91
107.64
89.64
70.77
52.48
35.46
19.7
4.88
-9.15
-22.06
-33.27
-42.27
-48.96
-53.73
-57.19
-59.79
-61.52
-61.98
-60.54
-56.76
-50.59
-42.43
-33.1
-23.55
-14.61
-6.78
-0.07
5.93
11.7
17.5
23.06
27.72
30.64
31.25
29.52
25.94
21.28
16.28
11.51
7.27
3.58
0.19
-3.38
-7.72
-13.26
-20
-27.39
-34.46
-40.18
-43.99
-46.09
-47.46
-49.45
-53.12
-58.64
-65.11
-70.92
-74.49
-75.05
-72.86
-68.93
-64.19
-58.94
-52.67
-44.61
-34.43
-22.84
-11.44
-2.01
4.21
6.94
6.75
4.57
1.26
-2.46
-5.95
-8.69
-10.48
-11.74
-13.5
-16.93
-22.59
-29.93
-37.37
-43.02
-45.68
-45.43
-43.62
-42.12
-42.32
-44.67
-48.52
-52.61
-55.61
-56.53
-54.93
-50.9
-45.17
-39.1
-34.47
-32.98
-35.57
-41.9
-50.27
-58.15
-63.09
-63.59
-59.45
-51.71
-41.96
-31.73
-21.96
-12.8
-3.86
5.45
15.36
25.45
34.62
41.52
45.11
45.18
42.47
38.27
33.93
30.29
27.63
25.8
24.56
23.72
23.04
22.09
20.22
16.78
11.41
4.41
-3.41
-11.08
-17.87
-23.64
-28.59
-33
-36.72
-39.09
-39.24
-36.51
-30.91
-23.12
-14.24
-5.34
2.87
10.01
15.85
20.04
22.19
22.03
19.71
15.87
11.45
7.27
3.71
0.64
-2.24
-5.23
-8.37
-11.57
-14.85
-18.42
-22.7
-28.15
-35.06
-43.39
-52.76
-62.46
-71.7
-79.8
-86.39
-91.61
-95.95
-100
-103.89
-107.02
-107.99
-105.08
-96.99
-83.55
-66.05
-46.95
-29.18
-15.16
-6.09
-1.72
-0.65
-1.01
-1.07
0.2
3.13
7.5
12.86
18.83
25.12
31.62
38.35
45.26
52.2
58.75
64.13
67.42
67.95
65.97
63.01
61.63
64.65
74
89.93
110.76
133.38
154.25
170.26
179.46
181.26
176.41
166.7
154.59
142.78
133.5
127.92
125.65
124.94
123.47
119.45
112.35
102.95
92.49
81.61
69.57
54.43
34.11
7.84
-22.74
-53.76
-80.38
-98.69
-107.2
-107.36
-102.7
-97.22
-93.9
-93.93
-96.93
-101.84
-107.7
-113.89
-119.81
-124.28
-125.41
-121.37
-111.39
-96.75
-80.73
-67.46
-60.25
-60.18
-65.78
-73.91
-81.21
-85.4
-85.73
-82.56
-76.63
-68.43
-58.03
-45.3
-30.28
-13.41
4.39
21.76
36.99
48.29
54.23
54.24
49
40.29
30.38
21.25
13.9
8.33
3.96
0.21
-3.17
-6.12
-8.74
-11.41
-14.74
-19.11
-24.2
-29.08
-32.51
-33.72
-32.78
-30.61
-28.52
-27.56
-28.12
-29.9
-32.24
-34.6
-36.72
-38.61
-40.23
-41.32
-41.33
-39.73
-36.28
-31.27
-25.39
-19.46
-14.13
-9.74
-6.39
-4.09
-2.95
-3.03
-4.29
-6.39
-8.77
-10.92
-12.65
-14.38
-16.92
-21.15
-27.46
-35.48
-44.06
-51.73
-57.19
-59.7
-59.23
-56.2
-51.15
-44.38
-35.94
-25.82
-14.23
-1.9
10.09
20.45
28.18
32.77
34.21
32.89
29.36
24.13
17.82
11.23
5.53
2.1
2.11
6.08
13.59
23.37
33.84
43.66
52.19
59.49
65.96
71.93
77.3
81.6
84.29
85.13
84.4
82.77
80.95
79.25
77.41
74.8
70.89
65.73
60.06
55
51.48
49.56
48.34
46.2
41.55
33.49
22.22
8.86
-5.07
-18.17
-29.63
-39.27
-47.39
-54.54
-61.33
-68.26
-75.6
-83.28
-90.86
-97.52
-102.34
-104.67
-104.41
-102.08
-98.41
-93.91
-88.62
-82.08
-73.81
-63.7
-52.15
-39.89
-27.65
-16.01
-5.55
2.86
7.98
8.59
4.32
-3.65
-12.41
-18.29
-18.3
-11.66
-0.48
10.9
17.74
16.81
7.85
-6.56
-22.26
-35.32
-43.27
-45.22
-40.98
-30.57
-14.32
5.83
25.4
38.02
38.04
23.98
0.46
-22.85
-35.51
-31.25
-10.95
18.16
46.6
67.38
78.71
83.42
86.12
89.96
95.27
100.34
103.3
103.68
102.83
102.81
105.2
110.12
116.2
121.32
123.59
122.28
118.21
113.36
110.01
109.6
112.02
115.6
117.99
117.12
112.09
103.21
91.46
77.7
62.25
44.99
25.83
5.39
-15.04
-33.81
-49.67
-62.27
-72.26
-80.91
-89.46
-98.63
-108.36
-117.95
-126.38
-132.65
-135.95
-135.77
-131.75
-123.8
-112.09
-97.21
-80.12
-62.05
-44.27
-27.86
-13.55
-1.71
7.65
14.79
20.18
24.38
27.89
31
33.68
35.61
36.39
35.79
33.81
30.82
27.47
24.34
21.57
18.91
15.7
11.35
5.49
-2.07
-11.07
-20.92
-30.85
-40.23
-48.61
-55.95
-62.35
-68.08
-73.7
-79.41
-84.7
-88.51
-89.73
-87.6
-82.13
-74.01
-64.43
-55.59
-48.78
-43.82
-39.46
-34.71
-29.43
-24.76
-22.07
-22.38
-27.74
-38.1
-51.02
-62.9
-71.38
-76.21
-79.39
-83.07
-88.77
-99.78
-116.59
-136.4
-154.97
-169.95
-181.7
-192.85
-204.87
-217.26
-232.1
-249.43
-266.85
-280.56
-287.55
-285.27
-271.89
-245.08
-181.08
-77.65
43.27
149.35
221.34
258.19
276.52
287.59
295.62
300.04
293.74
274.2
246.69
221.67
208.01
208.45
217.92
228.16
231.72
222.09
199.51
170.36
143.17
123.27
111.18
103.26
96.1
88.41
79.08
68.99
60.18
54.28
51.08
48.81
44.97
38.4
29.61
19.08
8.06
-1.9
-9.51
-14.43
-17.21
-19.05
-20.88
-23.24
-26.66
-31.25
-36.58
-41.71
-45.57
-47.14
-45.83
-41.43
-34.19
-24.87
-14.5
-4.11
5.5
13.86
20.82
26.39
30.54
33.24
34.48
34.4
33.38
31.98
30.71
29.83
29.21
28.44
27.12
25.06
22.46
19.77
17.43
15.62
14.14
12.52
10.26
7.14
3.34
-0.7
-4.44
-7.48
-9.7
-11.25
-12.48
-13.8
-15.62
-18.24
-21.82
-26.33
-31.45
-36.5
-40.54
-42.59
-41.87
-38.1
-31.61
-23.17
-13.78
-4.3
4.67
12.9
20.28
26.7
31.92
35.6
37.51
37.7
36.57
34.7
32.69
30.87
29.25
27.62
25.71
23.48
21.05
18.73
16.75
15.13
13.69
12.08
9.96
7.16
3.75
0.07
-3.45
-6.38
-8.54
-10.05
-11.3
-12.83
-15.1
-18.41
-22.72
-27.74
-32.88
-37.38
-40.35
-41
-38.81
-33.77
-26.4
-17.62
-8.5
0.04
7.45
13.5
18.18
21.51
23.53
24.28
23.91
22.75
21.19
19.68
18.52
17.82
17.52
17.38
17.12
16.54
15.58
14.33
12.96
11.63
10.35
8.93
7.12
4.7
1.64
-1.83
-5.33
-8.5
-11.09
-13.16
-14.92
-16.72
-18.88
-21.58
-24.82
-28.41
-32
-35.04
-36.89
-36.96
-34.79
-30.28
-23.68
-15.59
-6.83
1.82
9.64
16.14
20.94
23.79
24.64
23.7
21.5
18.82
16.41
14.78
13.92
13.46
12.8
11.55
9.66
7.48
5.5
4.07
3.11
2.23
0.84
-1.35
-4.25
-7.27
-9.62
-10.59
-9.81
-7.27
-3.24
1.9
7.59
13.08
17.44
19.78
19.75
17.83
15.19
13.29
13.26
15.47
19.57
24.8
30.34
35.57
39.96
43
44.15
42.95
39.24
33.36
26.22
19.34
14.7
14.36
19.77
30.94
45.98
61.36
73.15
78.67
77.65
72.4
66.61
63.66
65.16
70.54
77.84
85.01
91
96.08
101.34
107.8
115.76
124.73
133.94
142.89
151.47
159.54
166.27
169.96
168.65
161.3
148.68
133.45
118.95
107.68
99.94
93.93
86.82
76.42
62.19
45.19
27.04
8.92
-8.92
-26.78
-44.79
-62.38
-78.4
-91.82
-102.21
-110.05
-116.39
-122.3
-128.38
-134.63
-140.59
-145.7
-149.65
-152.44
-154.41
-155.98
-157.56
-159.36
-161.29
-163.04
-164.13
-164.13
-162.79
-160.23
-156.98
-153.85
-151.75
-151.44
-153.27
-157.02
-161.83
-166.38
-169.24
-169.42
-166.82
-162.36
-157.8
-155.1
-155.74
-160.15
-167.69
-176.92
-186.26
-194.52
-201.08
-205.92
-209.28
-211.46
-212.54
-212.25
-209.85
-203.99
-192.91
-174.94
-149.36
-117.22
-81.64
-47.19
-18.03
4.06
20.9
37.27
58.68
88.46
125.62
164.75
197.71
216.25
214.31
189.39
142.68
78.7
4.75
-69.92
-135.3
-182.33
-204.84
-200.71
-171.86
-123
-59.92
11.59
85.9
157.33
220.25
270.05
304.56
324.95
335.24
340.1
342.15
340.35
330.36
306.56
264.84
204.7
129.56
45.83
-38.66
-116.02
-179.21
-222.71
-243.3
-240.9
-218.84
-183.27
-141.72
-101.16
-66.55
-40.23
-22.39
-12.17
-8.45
-9.82
-13.82
-16.49
-12.9
1.17
26.93
61.44
98.34
130.5
152.99
164.97
169.38
170.65
171.96
173.73
174.05
170.76
163.46
154.22
146.45
142.82
143.54
146.12
146.51
141.29
129.26
112.03
92.96
75.26
60.51
48.13
36.25
23.06
7.72
-9.46
-27.57
-45.7
-63.11
-78.96
-92.23
-101.87
-107.34
-109.05
-108.26
-106.35
-104.03
-101.04
-96.52
-89.91
-81.52
-72.36
-63.41
-54.8
-45.76
-35.24
-22.94
-9.74
2.74
12.96
20.35
25.32
28.81
31.58
34.01
36.33
39.02
42.72
47.71
53.52
59
63.2
66.41
70.3
76.92
87.05
99.04
109.26
113.98
111.57
103.42
93
83.58
76.29
69.62
60.8
47.82
30.86
12.16
-5.31
-19.41
-29.58
-36.61
-41.73
-45.76
-48.88
-50.85
-51.45
-50.77
-49.22
-47.31
-45.47
-43.97
-42.96
-42.47
-42.5
-42.97
-43.76
-44.73
-45.77
-46.87
-48.06
-49.44
-51.01
-52.68
-54.25
-55.47
-56.21
-56.63
-57.1
-58.1
-60
-62.74
-65.9
-68.72
-70.5
-70.93
-70.31
-69.49
-69.53
-71.34
-75.24
-80.8
-86.83
-91.63
-93.39
-90.67
-82.84
-70.3
-54.46
-37.3
-20.77
-6.25
5.71
15.34
23.26
30.01
35.8
40.48
43.74
45.39
45.51
44.48
42.77
40.77
38.68
36.51
34.15
31.54
28.71
25.86
23.2
20.92
19.02
17.32
15.49
13.12
9.86
5.51
0.11
-6.17
-12.94
-19.79
-26.31
-32.17
-37.24
-41.57
-45.46
-49.33
-53.52
-58.07
-62.55
-66.16
-67.88
-66.88
-62.78
-55.86
-46.98
-37.32
-27.96
-19.52
-12.01
-4.92
2.44
10.42
18.63
25.86
30.36
30.54
25.67
16.32
4.43
-7.32
-16.18
-20.14
-18.45
-11.77
-1.9
8.86
18.24
24.5
26.48
23.56
15.57
2.98
-12.9
-29.86
-45.28
-57.01
-64.2
-67.48
-68.27
-67.46
-64.48
-57.59
-45.29
-27.94
-8.36
9.47
22.62
31.12
37.97
47.5
62.75
83.77
107.64
130.18
147.99
159.67
165.67
167.18
165.11
159.76
151.28
140.24
127.87
115.76
105.2
96.79
90.27
84.78
79.37
73.28
66.25
58.49
50.5
42.86
36.08
30.4
25.92
22.59
20.33
19.05
18.61
18.79
19.31
19.92
20.39
20.63
20.65
20.47
20.01
19.03
17.17
13.99
9.21
2.78
-4.97
-13.31
-21.21
-27.53
-31.32
-32.07
-29.84
-25.16
-18.87
-11.73
-4.38
2.83
9.74
16.25
22.23
27.48
31.83
35.23
37.79
39.78
41.47
43.08
44.62
45.92
46.7
46.58
45.28
42.64
38.72
33.76
28.22
22.63
17.44
12.85
8.71
4.66
0.31
-4.45
-9.41
-14.03
-17.77
-20.28
-21.54
-21.82
-21.51
-20.98
-20.58
-20.69
-21.77
-24.18
-28.01
-32.72
-37.17
-39.91
-39.75
-36.31
-30.18
-22.75
-15.64
-10.1
-6.66
-5.18
-5.19
-6.17
-7.87
-10.16
-12.86
-15.6
-17.8
-18.88
-18.5
-16.68
-13.84
-10.58
-7.45
-4.74
-2.43
-0.32
1.82
4.07
6.3
8.29
9.86
10.99
11.81
12.5
13.07
13.38
13.1
11.96
9.95
7.34
4.64
2.39
0.87
0.06
-0.37
-0.83
-1.56
-2.5
-3.24
-3.2
-1.88
0.91
4.91
9.55
14.11
18.05
21.18
23.63
25.74
27.73
29.65
31.28
32.33
32.52
31.66
29.66
26.58
22.68
18.53
14.98
12.93
12.87
14.58
17.06
18.82
18.53
15.48
9.85
2.4
-5.85
-14.06
-21.67
-28.37
-33.88
-37.97
-40.46
-41.43
-41.21
-40.36
-39.44
-38.91
-39.01
-39.75
-41.06
-42.7
-44.3
-45.32
-45.12
-43.13
-39.07
-33.14
-25.92
-18.29
-11.09
-4.96
-0.24
3
4.92
5.8
6.04
6.11
6.46
7.4
9.01
11.06
13.2
15
16.15
16.5
16.1
15.13
13.84
12.46
11.17
10.03
8.91
7.59
5.8
3.37
0.25
-3.38
-7.21
-10.86
-14.05
-16.64
-18.71
-20.54
-22.5
-24.97
-28.1
-31.8
-35.62
-38.9
-40.96
-41.35
-39.97
-37.11
-33.3
-29.05
-24.75
-20.56
-16.56
-12.85
-9.65
-7.21
-5.74
-5.2
-5.31
-5.63
-5.73
-5.39
-4.61
-3.6
-2.62
-1.87
-1.46
-1.41
-1.75
-2.48
-3.66
-5.27
-7.29
-9.6
-12.09
-14.64
-17.12
-19.43
-21.53
-23.46
-25.34
-27.33
-29.53
-31.93
-34.51
-37.28
-40.35
-43.86
-47.76
-51.58
-54.48
-55.36
-53.4
-48.41
-40.98
-32.32
-23.76
-16.31
-10.42
-6
-2.63
0.09
2.45
4.5
6.23
7.6
8.68
9.6
10.51
11.58
12.97
14.8
17.17
20.1
23.49
27.09
30.45
33.06
34.43
34.26
32.56
29.68
26.09
22.29
18.57
15.07
11.74
8.59
5.68
3.11
0.94
-1
-3.12
-5.97
-9.91
-14.84
-20.06
-24.36
-26.35
-25
-20.08
-12.39
-3.65
3.96
8.44
8.62
4.36
-3.47
-13.41
-23.82
-33.14
-40.13
-43.82
-43.68
-39.69
-32.5
-23.32
-13.7
-5.07
1.65
6.18
8.85
10.28
11.14
11.9
12.76
13.7
14.55
15.08
15.12
14.69
13.96
13.2
12.6
12.12
11.46
10.13
7.7
4.09
-0.31
-4.6
-7.64
-8.37
-6.23
-1.33
5.53
13.08
20.04
25.42
28.81
30.38
30.7
30.41
30.01
29.74
29.63
29.64
29.79
30.19
30.89
31.79
32.54
32.63
31.56
29.14
25.51
21.16
16.62
12.34
8.55
5.26
2.45
0.12
-1.62
-2.74
-3.37
-3.86
-4.82
-6.85
-10.33
-15.33
-21.49
-28.19
-34.72
-40.35
-44.51
-46.76
-46.83
-44.59
-40.18
-34.03
-26.89
-19.71
-13.39
-8.56
-5.4
-3.72
-3.05
-2.97
-3.17
-3.52
-3.94
-4.33
-4.54
-4.39
-3.82
-2.84
-1.61
-0.37
0.69
1.38
1.63
1.44
0.93
0.24
-0.43
-0.98
-1.33
-1.51
-1.58
-1.66
-1.93
-2.6
-3.93
-6.1
-9.04
-12.34
-15.26
-16.88
-16.4
-13.43
-8.11
-1.15
6.4
13.47
19.19
23.2
25.56
26.66
27.01
27
26.84
26.51
25.92
24.98
23.7
22.21
20.7
19.35
18.27
17.46
16.76
15.88
14.49
12.28
9.12
5.07
0.43
-4.35
-8.71
-12.05
-13.88
-13.94
-12.39
-9.83
-7.1
-4.92
-3.53
-2.49
-0.9
2.12
7.02
13.49
20.68
27.6
33.5
38.11
41.53
44.01
45.69
46.6
46.66
45.89
44.46
42.67
40.88
39.38
38.37
37.83
37.64
37.53
37.09
35.91
33.57
29.84
24.71
18.49
11.66
4.83
-1.46
-6.89
-11.37
-15.07
-18.27
-21.35
-24.62
-28.24
-32.02
-35.45
-37.7
-37.92
-35.58
-30.75
-24.11
-16.73
-9.71
-3.78
0.78
4.09
6.41
7.87
8.52
8.37
7.54
6.29
4.94
3.66
2.53
1.49
0.52
-0.34
-1.05
-1.62
-2.23
-3.12
-4.46
-6.2
-8.11
-9.92
-11.5
-12.92
-14.42
-16.16
-18.15
-20.23
-22.2
-24.03
-25.76
-27.48
-29.09
-30.15
-30.03
-28.14
-24.19
-18.34
-11.2
-3.6
3.66
9.95
14.95
18.52
20.68
21.55
21.38
20.52
19.35
18.32
17.67
17.54
17.84
18.36
18.87
19.19
19.17
18.74
17.82
16.37
14.37
11.85
8.9
5.64
2.21
-1.28
-4.77
-8.18
-11.51
-14.74
-17.95
-21.28
-24.86
-28.71
-32.55
-35.71
-37.32
-36.61
-33.29
-27.73
-20.84
-13.75
-7.39
-2.26
1.56
4.22
5.86
6.52
6.21
5.06
3.31
1.4
-0.3
-1.5
-2.15
-2.37
-2.39
-2.48
-2.81
-3.43
-4.25
-5.17
-6.12
-7.18
-8.49
-10.13
-12.05
-14.05
-15.85
-17.23
-18.19
-18.87
-19.5
-20.34
-21.52
-23.03
-24.69
-26.11
-26.78
-26.16
-23.83
-19.68
-13.96
-7.19
-0.02
6.93
13.18
18.32
22
23.88
23.75
21.63
17.94
13.42
9.01
5.5
3.3
2.35
2.15
2.1
1.75
0.98
-0.03
-0.97
-1.65
-2.16
-2.82
-4.07
-6.2
-9.14
-12.43
-15.32
-16.99
-16.91
-14.99
-11.68
-7.79
-4.23
-1.72
-0.58
-0.62
-1.26
-1.68
-1.1
0.97
4.6
9.36
14.56
19.43
23.32
25.88
27.02
26.86
25.62
23.63
21.3
19.05
17.26
16.12
15.68
15.78
16.22
16.78
17.3
17.63
17.59
17.05
15.93
14.27
12.15
9.64
6.7
3.23
-0.82
-5.31
-9.86
-14.01
-17.42
-20.04
-22.16
-24.33
-27.06
-30.68
-35.18
-40.17
-44.97
-48.78
-50.8
-50.48
-47.65
-42.7
-36.44
-29.97
-24.25
-19.95
-17.24
-15.89
-15.54
-15.93
-17.07
-19.2
-22.55
-27.02
-31.89
-35.82
-37.18
-34.66
-27.85
-17.44
-5.05
7.26
17.7
25.08
28.97
29.4
26.8
21.95
16.09
11
8.66
10.69
17.68
28.94
42.7
56.87
69.71
80.15
87.52
91.14
90.12
83.6
71.57
55.31
37.44
21.06
8.6
0.85
-3.07
-4.99
-6.6
-8.57
-10.51
-11.53
-11.08
-9.46
-7.72
-7.15
-8.62
-12.21
-17.21
-22.54
-27.15
-30.46
-32.44
-33.53
-34.47
-35.99
-38.6
-42.34
-46.68
-50.63
-52.97
-52.73
-49.58
-44.05
-37.47
-31.58
-27.96
-27.48
-29.93
-34.1
-38.17
-40.35
-39.47
-35.36
-28.84
-21.3
-14.24
-8.77
-5.44
-4.28
-4.99
-7.11
-10.16
-13.7
-17.46
-21.54
-26.39
-32.56
-40.21
-48.46
-55.2
-57.54
-52.85
-39.99
-19.99
4.02
27.81
47.48
60.6
66.78
67.47
65.18
62.5
61.36
62.67
66.18
70.75
74.62
75.96
73.36
66.41
56
44.15
33.52
26.45
24.12
26.08
30.35
34.27
35.61
33.43
28.37
22.1
16.48
12.67
10.74
9.86
8.87
6.8
3.18
-2
-8.4
-15.48
-22.39
-27.97
-30.78
-29.52
-23.73
-14.19
-3.03
6.92
13.07
14.14
10.61
4.52
-1.38
-4.69
-4.17
-0.01
6.45
13.33
18.83
21.58
20.81
16.42
9
-0.19
-9.38
-16.72
-20.82
-21.21
-18.47
-13.88
-8.94
-4.77
-1.87
-0.35
-0.05
-0.95
-3.03
-6.17
-9.91
-13.47
-15.95
-16.73
-15.61
-12.92
-9.31
-5.37
-1.55
2.03
5.42
8.57
11.26
12.97
13.03
10.88
6.38
-0.11
-7.72
-15.31
-21.86
-26.7
-29.72
-31.33
-32.2
-33.08
-34.49
-36.61
-39.22
-41.78
-43.59
-44.02
-42.6
-39.18
-33.93
-27.33
-19.98
-12.46
-5.2
1.59
7.81
13.39
18.12
21.72
23.93
24.65
24.08
22.69
21.07
19.74
18.99
18.82
19.11
19.71
20.48
21.3
21.97
22.15
21.44
19.54
16.33
11.95
6.75
1.16
-4.45
-9.72
-14.38
-18.19
-21
-22.92
-24.35
-25.91
-28.15
-31.25
-34.8
-37.85
-39.26
-38.1
-34.04
-27.44
-19.15
-10.18
-1.35
6.77
13.93
20.03
24.99
28.73
31.18
32.39
32.53
31.93
30.98
30.03
29.29
28.79
28.38
27.87
27.05
25.93
24.59
23.25
22.02
20.86
19.56
17.85
15.59
12.83
9.82
6.87
4.22
1.87
-0.36
-2.78
-5.63
-8.99
-12.77
-16.78
-20.77
-24.36
-27.13
-28.47
-27.84
-24.96
-19.99
-13.69
-7.14
-1.45
2.66
4.99
5.9
5.94
5.6
5.16
4.69
4.19
3.67
3.22
2.81
2.29
1.47
0.27
-1.1
-2.08
-1.94
-0.18
3.2
7.57
11.96
15.36
17.15
17.23
15.96
13.86
11.43
9.03
6.84
4.99
3.53
2.37
1.34
0.15
-1.41
-3.29
-5.09
-6.11
-5.55
-2.91
1.84
8.17
15.15
21.78
27.2
30.99
33.07
33.67
33.11
31.72
29.8
27.63
25.47
23.51
21.86
20.49
19.24
17.91
16.32
14.37
12.08
9.61
7.17
5.02
3.38
2.36
1.97
2.1
2.64
3.48
4.56
5.83
7.09
8.01
8.13
7
4.36
0.31
-4.78
-10.28
-15.49
-19.7
-22.36
-23.1
-21.95
-19.24
-15.65
-12
-8.97
-6.96
-5.99
-5.87
-6.33
-7.26
-8.61
-10.32
-12.22
-13.99
-15.31
-15.97
-16.05
-15.9
-15.95
-16.52
-17.7
-19.33
-21.08
-22.72
-24.15
-25.53
-27.11
-29.16
-31.79
-34.97
-38.44
-41.87
-44.79
-46.71
-47.16
-45.81
-42.59
-37.72
-31.64
-24.76
-17.28
-9.14
-0.1
9.97
20.85
31.9
42.33
51.38
58.61
63.92
67.39
69.12
69.06
67.11
63.24
57.58
50.51
42.61
34.5
26.78
19.82
13.83
8.73
4.33
0.37
-3.33
-6.83
-10.05
-12.94
-15.49
-17.79
-20
-22.23
-24.52
-26.82
-29.1
-31.41
-33.88
-36.58
-39.38
-41.86
-43.36
-43.16
-40.75
-35.99
-29.09
-20.58
-11.11
-1.4
7.88
16.13
22.84
27.69
30.61
31.79
31.67
30.86
30.01
29.65
30.07
31.29
33.02
34.79
36.04
36.38
35.6
33.75
31.02
27.68
23.99
20.17
16.43
12.95
9.85
7.11
4.62
2.13
-0.75
-4.36
-8.94
-14.43
-20.44
-26.19
-30.73
-33.22
-33.26
-31.02
-27.16
-22.59
-18.08
-14.03
-10.44
-7.14
-3.98
-1.02
1.51
3.37
4.47
4.92
5
4.93
4.85
4.7
4.37
3.78
2.95
1.98
1.04
0.18
-0.62
-1.5
-2.67
-4.28
-6.39
-8.9
-11.57
-14.11
-16.32
-18.16
-19.78
-21.44
-23.4
-25.83
-28.68
-31.71
-34.43
-36.25
-36.52
-34.73
-30.76
-24.86
-17.76
-10.37
-3.57
2.1
6.46
9.62
11.82
13.21
13.86
13.82
13.2
12.19
10.98
9.72
8.41
6.96
5.3
3.43
1.49
-0.37
-2
-3.41
-4.74
-6.21
-8.01
-10.27
-12.95
-15.85
-18.7
-21.21
-23.25
-24.83
-26.2
-27.68
-29.59
-32.1
-35.11
-38.21
-40.7
-41.83
-40.99
-37.98
-33.08
-26.99
-20.61
-14.67
-9.58
-5.38
-1.92
0.99
3.37
5.12
6.14
6.48
6.39
6.22
6.3
6.81
7.68
8.67
9.52
10.07
10.3
10.32
10.28
10.29
10.39
10.58
10.82
11.15
11.57
12
12.23
11.89
10.59
8
4.07
-0.9
-6.29
-11.22
-14.87
-16.66
-16.48
-14.66
-11.85
-8.77
-5.9
-3.41
-1.22
0.88
2.94
4.85
6.23
6.75
6.2
4.73
2.88
1.34
0.83
1.76
4.28
8.31
13.73
20.52
28.72
38.31
49.16
61.01
73.55
86.51
99.51
111.89
122.62
130.49
134.62
135.05
132.81
129.66
127.15
125.81
124.86
122.52
116.99
107.34
94.05
78.8
63.72
50.64
40.53
33.44
28.83
26.12
24.99
25.49
27.88
32.36
38.73
46.38
54.27
61.11
65.73
67.35
65.66
60.45
51.45
38.6
22.61
5.49
-9.67
-19.95
-24.33
-24.8
-26.01
-33.14
-49.17
-73.13
-100.41
-125.1
-142.79
-152.48
-156.16
-157.08
-157.57
-158.16
-157.95
-155.83
-151.41
-144.84
-136.63
-127.01
-116.51
-106.57
-99.85
-99.6
-107.7
-123.05
-141.01
-154.79
-158.13
-147.94
-125.48
-95.48
-63.86
-35.47
-12.8
3.73
14.75
20.96
22.76
20.61
15.45
8.86
2.7
-1.47
-2.99
-2.28
-0.54
0.85
0.99
-0.17
-1.88
-3.03
-2.76
-0.98
1.49
3.3
3.07
0.06
-5.48
-12.34
-18.69
-22.73
-23.21
-19.86
-13.33
-4.94
3.85
11.87
18.51
23.65
27.52
30.36
32.26
33.17
33.01
31.84
29.94
27.74
25.77
24.35
23.62
23.48
23.71
24.1
24.48
24.74
24.74
24.3
23.16
21.15
18.16
14.27
9.6
4.34
-1.45
-7.75
-14.58
-21.95
-29.67
-37.39
-44.55
-50.4
-54.18
-55.19
-52.98
-47.47
-39.01
-28.32
-16.35
-4.11
7.49
17.87
26.66
33.79
39.27
43.22
45.78
47.21
47.88
48.23
48.65
49.4
50.55
51.97
53.45
54.78
55.88
56.74
57.43
58
58.43
58.62
58.39
57.5
55.71
52.76
48.44
42.6
35.24
26.51
16.69
6.08
-4.97
-16.13
-26.95
-36.78
-44.8
-50.19
-52.39
-51.36
-47.69
-42.34
-36.38
-30.59
-25.38
-20.82
-16.82
-13.38
-10.64
-8.82
-8.08
-8.39
-9.5
-11.03
-12.54
-13.72
-14.42
-14.64
-14.54
-14.33
-14.22
-14.43
-15.11
-16.36
-18.21
-20.54
-23.11
-25.52
-27.39
-28.47
-28.75
-28.52
-28.27
-28.52
-29.58
-31.44
-33.67
-35.56
-36.29
-35.22
-32.05
-26.93
-20.39
-13.18
-6.07
0.36
5.77
10.05
13.24
15.48
16.82
17.35
17.19
16.49
15.4
14.12
12.78
11.53
10.48
9.65
8.98
8.28
7.27
5.68
3.34
0.31
-3.13
-6.54
-9.47
-11.61
-12.94
-13.67
-14.21
-15.01
-16.47
-18.83
-22.13
-26.16
-30.45
-34.27
-36.75
-37.09
-34.77
-29.76
-22.61
-14.3
-6.06
0.99
6.05
8.81
9.38
8.26
6.22
4.05
2.45
1.77
1.85
2.03
1.44
-0.66
-4.43
-9.25
-13.89
-17.02
-17.89
-16.73
-14.75
-13.62
-14.55
-17.57
-21.39
-23.99
-23.48
-19.25
-12.32
-5.07
-0.5
-1.59
-10.89
-30.4
-60.66
-99.63
-141.69
-178.11
-199.36
-198.66
-175.01
-133.9
-85.08
-38.57
-0.94
26.1
44.58
57.57
66.96
72.81
74.57
72.62
69.17
67.69
71.36
81.82
98.53
119.14
140.72
160.91
178.63
194.16
208.38
221.92
234.41
244.32
249.41
247.71
238.37
222.03
200.46
175.66
149.08
121.21
91.85
60.84
28.71
-3.16
-32.84
-58.3
-77.97
-91.01
-97.4
-97.98
-94.31
-88.44
-82.17
-76.55
-71.4
-65.55
-57.54
-46.45
-32.49
-16.9
-1.39
12.57
24.06
32.84
39.08
43.11
45.32
46.07
45.64
44.09
41.36
37.26
31.66
24.62
16.42
7.47
-1.87
-11.33
-20.68
-29.69
-38.06
-45.53
-51.97
-57.48
-62.27
-66.51
-70.06
-72.39
-72.76
-70.53
-65.54
-58.21
-49.49
-40.51
-32.26
-25.28
-19.67
-15.15
-11.38
-8.11
-5.28
-2.98
-1.32
-0.35
0.05
0.09
0.03
0.03
0.15
0.32
0.41
0.35
0.11
-0.29
-0.89
-1.75
-2.97
-4.59
-6.61
-8.9
-11.35
-13.86
-16.42
-19.11
-22
-25.17
-28.54
-31.92
-34.82
-36.58
-36.48
-34
-29.08
-22.21
-14.34
-6.55
0.26
5.65
9.59
12.36
14.31
15.69
16.62
17.08
17.04
16.44
15.34
13.8
11.97
10.04
8.21
6.71
5.7
5.26
5.32
5.65
5.89
5.61
4.51
2.51
-0.16
-3.07
-5.76
-7.93
-9.54
-10.83
-12.17
-13.95
-16.39
-19.46
-22.72
-25.33
-26.2
-24.21
-18.66
-9.6
2.07
14.76
26.83
37.04
44.93
50.79
55.25
58.92
62.07
64.7
66.62
67.67
67.65
66.36
63.57
59.12
53.09
45.88
38.17
30.69
23.96
18.12
12.95
7.99
2.87
-2.64
-8.54
-14.61
-20.56
-26.04
-30.76
-34.49
-37.15
-38.85
-39.93
-40.86
-42.2
-44.27
-46.99
-49.8
-51.8
-52.11
-50.23
-46.34
-41.25
-35.99
-31.41
-27.87
-25.15
-22.78
-20.33
-17.67
-15.03
-12.83
-11.35
-10.58
-10.21
-9.79
-8.98
-7.71
-6.24
-4.98
-4.28
-4.27
-4.73
-5.28
-5.49
-5.17
-4.38
-3.41
-2.61
-2.19
-2.12
-2.16
-2
-1.44
-0.48
0.66
1.69
2.3
2.37
1.91
1.12
0.24
-0.39
-0.42
0.52
2.72
6.23
10.84
16.06
21.27
25.91
29.6
32.18
33.65
34.05
33.44
31.91
29.65
27
24.35
22.03
20.18
18.73
17.48
16.22
14.82
13.23
11.44
9.43
7.1
4.34
1.11
-2.56
-6.56
-10.66
-14.6
-18.08
-20.8
-22.54
-23.26
-23.15
-22.56
-21.95
-21.72
-22.05
-22.81
-23.6
-23.74
-22.53
-19.43
-14.27
-7.42
0.33
7.96
14.63
19.83
23.53
26.02
27.68
28.73
29.24
29.2
28.58
27.56
26.34
25.16
24.15
23.31
22.65
22.14
21.82
21.68
21.68
21.63
21.32
20.61
19.57
18.45
17.57
17.12
17.05
17.08
16.85
16.16
15.08
13.84
12.79
12.15
12.11
12.82
14.56
17.77
22.95
30.45
40.34
52.21
65.26
78.37
90.29
99.8
105.84
107.7
105.07
98.24
88.09
75.99
63.58
52.3
42.92
35.15
27.69
18.73
6.87
-8.17
-25.43
-43.37
-61.09
-79.21
-99.68
-124.54
-154.26
-186.72
-217.55
-241.7
-255.34
-256.94
-247.09
-227.46
-199.95
-166.63
-130.29
-94.79
-64.33
-41.85
-27.55
-18.5
-10.11
1.62
18.04
37.63
57.26
74.18
87.41
97.66
106.15
113.44
118.92
121.48
120.47
116.42
110.85
105.48
101.42
98.74
96.69
94.33
91.01
86.73
82.02
77.56
73.86
70.85
67.91
63.98
58.07
49.67
39.04
27.21
15.46
4.8
-4.49
-12.93
-21.42
-30.71
-40.83
-50.95
-59.55
-64.92
-65.86
-62.15
-54.69
-45.2
-35.55
-27.17
-20.68
-15.94
-12.42
-9.68
-7.63
-6.43
-6.26
-7.1
-8.64
-10.54
-12.59
-14.9
-17.72
-21.16
-24.99
-28.62
-31.42
-32.99
-33.45
-33.25
-32.97
-32.96
-33.23
-33.49
-33.47
-33.02
-32.2
-31.13
-29.96
-28.84
-27.92
-27.39
-27.27
-27.34
-27.01
-25.52
-22.3
-17.19
-10.61
-3.32
3.84
10.21
15.34
18.95
20.8
20.77
18.98
15.87
12.15
8.55
5.54
3.13
0.94
-1.56
-4.75
-8.59
-12.67
-16.35
-19.1
-20.65
-21.05
-20.57
-19.54
-18.28
-17.05
-16.13
-15.76
-16.09
-17.12
-18.62
-20.31
-21.97
-23.6
-25.38
-27.6
-30.36
-33.41
-36.13
-37.66
-37.21
-34.37
-29.22
-22.38
-14.71
-7.11
-0.21
5.77
10.87
15.25
19.01
22.05
24.11
24.94
24.46
22.85
20.55
18.1
15.92
14.19
12.84
11.59
10.17
8.43
6.39
4.16
1.82
-0.63
-3.3
-6.21
-9.3
-12.35
-15.1
-17.46
-19.52
-21.63
-24.16
-27.45
-31.61
-36.43
-41.32
-45.27
-46.98
-45.11
-38.64
-27.26
-11.58
6.97
26.54
45.41
62.34
76.73
88.49
97.71
104.44
108.56
109.78
107.77
102.25
93.19
80.78
65.53
48.32
30.34
12.98
-2.29
-14.3
-22.42
-26.75
-28.08
-27.64
-26.67
-26.04
-26.05
-26.52
-27.08
-27.42
-27.44
-27.26
-27.05
-26.91
-26.84
-26.82
-26.85
-27.03
-27.47
-28.23
-29.22
-30.25
-31.16
-31.88
-32.47
-33.01
-33.35
-33.02
-31.24
-27.21
-20.52
-11.45
-0.93
9.71
19.22
26.76
32.08
35.34
36.85
36.86
35.58
33.33
30.7
28.43
27.25
27.47
28.82
30.48
31.51
31.2
29.37
26.41
22.98
19.76
17.14
15.15
13.56
12.02
10.25
8.14
5.75
3.21
0.6
-2.08
-4.98
-8.24
-11.91
-15.92
-20.06
-24.15
-28.12
-31.98
-35.74
-39.2
-41.86
-43
-41.98
-38.5
-32.83
-25.74
-18.17
-10.94
-4.5
1.13
6.1
10.58
14.54
17.76
20.07
21.41
22.03
22.33
22.7
23.37
24.3
25.29
26.05
26.41
26.31
25.85
25.15
24.34
23.46
22.51
21.47
20.29
18.95
17.41
15.63
13.57
11.2
8.54
5.65
2.65
-0.37
-3.33
-6.24
-9.2
-12.34
-15.74
-19.32
-22.75
-25.49
-26.93
-26.59
-24.3
-20.32
-15.25
-9.88
-4.89
-0.66
2.75
5.5
7.74
9.47
10.46
10.46
9.39
7.45
5.12
2.99
1.52
0.84
0.74
0.76
0.38
-0.68
-2.39
-4.36
-6.04
-6.93
-6.87
-6.08
-5.16
-4.94
-6.13
-9.24
-14.27
-20.7
-27.36
-32.58
-34.59
-31.97
-24.31
-12.41
1.87
16.22
28.71
38.45
45.7
51.47
56.77
61.88
66.2
68.65
68.51
66.1
62.9
60.98
61.96
66.16
72.31
78.15
81.34
80.42
75.2
66.5
55.63
43.83
32.05
20.94
11
2.64
-3.86
-8.41
-11.12
-12.25
-12.16
-11.27
-10.17
-9.71
-11.06
-15.61
-24.84
-39.74
-60.28
-84.91
-110.69
-133.92
-151.35
-161.23
-163.88
-161.49
-157.19
-153.86
-153.11
-154.79
-157.12
-157.3
-152.52
-140.91
-122.23
-98.07
-71.33
-45.39
-23.09
-6.04
5.56
12.52
16.21
18.16
19.86
22.67
27.63
35.3
45.49
57.26
69.14
79.57
87.32
91.82
93.1
91.65
88.13
83.2
77.35
70.94
64.16
57.05
49.52
41.49
32.92
24.01
15.11
6.71
-0.81
-7.31
-13
-18.31
-23.78
-29.79
-36.34
-42.95
-48.74
-52.65
-53.76
-51.66
-46.66
-39.7
-32.02
-24.65
-18.08
-12.17
-6.44
-0.59
5.15
9.97
12.86
13.18
11.03
7.32
3.38
0.38
-1.07
-1.07
-0.09
1.33
2.94
4.71
6.77
9.09
11.49
13.72
15.63
17.23
18.63
19.87
20.79
21.13
20.58
19.08
16.85
14.32
11.93
9.89
8.09
6.09
3.37
-0.46
-5.41
-11.04
-16.47
-20.7
-22.86
-22.56
-20.06
-16.16
-11.93
-8.29
-5.74
-4.26
-3.5
-3.07
-2.74
-2.55
-2.72
-3.47
-4.84
-6.69
-8.76
-10.75
-12.41
-13.51
-13.84
-13.07
-10.74
-6.3
0.79
10.88
23.92
39.33
56
72.46
87.23
99.18
107.67
112.5
113.7
111.34
105.62
97.15
87.13
77.35
69.54
64.75
62.91
62.87
63.17
62.84
61.92
61.35
62.35
65.56
70.57
76.04
80.35
82.33
81.83
79.51
76.24
72.17
66.24
56.28
40.03
16.39
-13.63
-46.84
-78.95
-106.09
-126.14
-139.02
-146.07
-148.86
-148.25
-144.3
-136.9
-126.5
-114.54
-103.09
-93.99
-88.2
-85.51
-84.85
-84.96
-84.78
-83.67
-81.28
-77.28
-71.39
-63.53
-54.14
-44.37
-36.1
-31.55
-32.54
-39.58
-51.14
-63.63
-72.34
-73.08
-63.87
-45.69
-22.09
2.26
23.45
39.45
50.26
57.18
61.61
64.28
65.14
63.7
59.62
52.97
44.31
34.41
24
13.64
3.62
-5.92
-14.82
-22.86
-29.74
-35.12
-38.82
-40.95
-41.98
-42.61
-43.55
-45.23
-47.57
-50.03
-51.78
-52.08
-50.62
-47.66
-43.99
-40.57
-38.21
-37.23
-37.42
-38.22
-38.95
-39.13
-38.63
-37.59
-36.19
-34.51
-32.4
-29.56
-25.76
-21.07
-15.89
-10.89
-6.69
-3.7
-1.9
-1.02
-0.67
-0.62
-0.96
-1.9
-3.66
-6.02
-8.37
-9.75
-9.32
-6.74
-2.37
2.77
7.39
10.39
11.22
9.99
7.33
4.06
0.95
-1.66
-3.83
-6.03
-8.92
-13.16
-19.12
-26.74
-35.47
-44.17
-51.25
-55.08
-54.73
-50.69
-45.03
-40.95
-41.51
-48.01
-58.95
-69.94
-75.12
-69.28
-49.84
-17.98
21.95
63.89
102.1
132.57
153.7
165.85
170.61
169.79
164.98
157.27
147.49
136.59
125.86
116.99
111.9
112.22
118.51
129.75
143.22
155.12
161.7
160.46
150.99
134.84
114.86
94.05
74.71
58.14
44.79
34.76
28.03
24.48
23.59
24.22
24.55
22.6
16.81
6.73
-6.71
-21.5
-35.21
-45.86
-52.54
-55.51
-55.88
-54.97
-53.77
-52.72
-51.84
-51
-50.21
-49.57
-49.19
-48.96
-48.5
-47.3
-44.94
-41.28
-36.47
-30.74
-24.12
-16.28
-6.68
5.05
18.61
32.87
45.97
55.92
61.26
61.53
57.32
49.94
40.83
31.12
21.39
11.78
2.2
-7.4
-16.94
-26.11
-34.48
-41.57
-47.01
-50.65
-52.64
-53.43
-53.65
-53.9
-54.54
-55.47
-56.16
-55.71
-53.2
-47.99
-39.79
-28.74
-15.17
0.31
16.69
32.44
45.67
54.69
58.77
58.75
56.91
56.13
58.68
65.28
74.95
85.59
94.88
101.12
103.5
101.94
96.97
89.57
81.09
72.99
66.41
61.58
57.31
51.11
39.77
20.68
-6.88
-40.94
-76.96
-109
-131.7
-142.11
-140.67
-130.89
-117.52
-104.36
-92.76
-81.79
-69.96
-57.27
-46.12
-40.26
-42.43
-52.06
-64.79
-74.1
-74.38
-63.66
-44.22
-21.36
-0.68
14.01
21.46
22.33
18.01
9.91
-0.56
-11.71
-21.59
-28.31
-30.88
-29.5
-25.59
-21.22
-18.34
-18.21
-21.17
-26.59
-33.17
-39.17
-42.85
-42.76
-38.07
-28.71
-15.43
0.36
16.72
31.43
42.41
48.23
48.7
45.02
39.4
34.21
30.96
29.75
29.45
28.5
25.92
21.79
17.12
13.3
11.39
11.83
14.58
19.4
25.93
33.47
40.72
45.91
47.3
43.96
36.28
25.76
14.32
3.24
-7.35
-18.4
-31.1
-46.01
-62.37
-78.27
-91.26
-99.17
-100.61
-95.24
-83.53
-66.58
-46.03
-24.12
-3.58
12.71
22.45
24.72
20.54
12.62
4.38
-1.33
-3.29
-2.06
0.65
3.06
4.22
4.22
3.78
3.59
3.89
4.49
4.99
5.13
4.82
3.87
1.94
-1.4
-6.26
-12.03
-17.23
-20.11
-19.38
-15.17
-9.14
-3.95
-2.13
-4.99
-12.2
-22.12
-32.74
-42.52
-50.66
-56.93
-61.09
-62.72
-61.4
-57.16
-50.71
-43.3
-36.05
-29.45
-23.08
-15.93
-7.12
3.42
14.72
24.94
32.13
35.07
33.77
29.62
24.86
21.75
21.82
25.34
31.38
38.07
43.2
44.75
41.43
33.05
20.73
6.76
-5.94
-14.64
-17.76
-15.36
-9.03
-1.21
5.71
10.06
11.06
8.67
3.26
-4.41
-13.13
-21.25
-26.95
-28.91
-26.79
-21.45
-14.57
-7.92
-2.64
1.02
3.57
5.81
8.49
12.13
17.03
23.32
31.02
39.85
49.23
58.26
65.87
70.96
72.71
70.71
65.24
57.4
48.97
41.94
37.8
36.88
38.1
39.39
38.48
33.83
25.15
13.36
0.19
-12.5
-23.19
-31.15
-36.45
-39.92
-42.73
-45.9
-49.78
-53.78
-56.47
-55.99
-50.81
-40.29
-24.9
-6.02
14.64
35.37
54.79
71.62
84.5
92.15
93.66
89.14
80.01
68.65
57.46
47.68
38.85
29.2
16.89
1.36
-15.94
-32.2
-44.62
-51.72
-53.85
-52.56
-49.44
-45.35
-40.26
-33.94
-26.66
-19.39
-13.46
-9.81
-8.68
-9.59
-11.9
-15.3
-19.96
-26.31
-34.59
-44.46
-54.86
-64.07
-70.02
-70.73
-64.77
-51.77
-32.75
-10.31
11.65
28.5
36.11
32.18
17.44
-4.15
-26.35
-42.52
-47.92
-41.14
-24.11
-0.87
24.16
47.57
67.18
81.69
90.12
91.77
86.68
76.11
62.44
48.5
36.62
27.77
21.44
16.22
10.66
4.39
-1.32
-3.78
0.1
12.34
32.56
57.75
83.24
104.61
119.55
128.57
134.29
139.83
146.98
155.23
161.74
162.22
152.1
127.88
88.49
36.31
-22.63
-79.66
-125.56
-153.14
-159.24
-145.34
-116.64
-80.31
-43.53
-12.21
9.73
20.62
21.02
13.47
1.86
-9.67
-17.77
-20.78
-18.96
-14.18
-9.26
-7.08
-9.56
-17.02
-27.94
-39.64
-49.43
-55.72
-58.41
-58.47
-57.06
-54.72
-51.28
-46.46
-40.72
-35.61
-33.36
-35.71
-42.96
-53.67
-65.29
-75.29
-82.05
-85.18
-85.04
-82.05
-76.24
-67.26
-54.9
-39.64
-22.94
-6.94
6.35
15.76
21.44
24.51
26.46
28.5
31.04
33.81
36.15
37.47
37.54
36.51
34.82
32.83
30.75
28.51
25.9
22.7
18.89
14.67
10.43
6.52
3.07
-0.06
-3.31
-7.11
-11.71
-16.98
-22.46
-27.57
-31.81
-34.95
-36.93
-37.71
-37.15
-34.99
-31.03
-25.35
-18.46
-11.15
-4.35
1.28
5.47
8.26
9.96
10.85
11.13
10.94
10.44
9.89
9.63
9.87
10.6
11.57
12.38
12.67
12.35
11.64
10.95
10.7
11.13
12.18
13.58
14.96
16.02
16.61
16.77
16.58
16.17
15.69
15.24
14.84
14.42
13.68
12.17
9.38
5.02
-0.63
-6.66
-11.72
-14.47
-14.15
-10.93
-5.83
-0.33
4.29
7.38
9.04
9.8
10.18
10.25
9.51
7.13
2.43
-4.71
-13.59
-22.95
-31.35
-37.68
-41.23
-41.55
-37.94
-29.39
-14.85
6.29
33.62
65.54
99.83
134.31
167.5
198.27
225.26
246.27
258.65
260.56
252.5
237.66
220.61
204.78
190.17
172.9
146.88
107.07
52.22
-13.98
-84.14
-149.75
-203.78
-242.22
-264.1
-270.64
-264.26
-248.01
-225.18
-199.06
-172.67
-148.17
-126.53
-107.48
-89.8
-72.14
-53.6
-34.21
-14.92
2.77
17.12
26.45
29.52
26.06
17.45
6.88
-1.24
-3.03
2.92
14.53
26.73
33.77
31.78
20.45
2.8
-16.72
-34.37
-48.49
-59.31
-67.77
-74.42
-78.94
-80.56
-78.83
-74.13
-67.61
-60.68
-54.35
-48.87
-43.73
-38.16
-31.65
-24.39
-17.28
-11.44
-7.58
-5.54
-4.25
-2.3
1.29
6.51
12.51
18.16
22.71
26.1
28.76
31.01
32.79
33.69
33.48
32.33
30.9
29.82
29.17
28.48
27.1
24.81
22.07
19.83
18.79
18.96
19.83
21.14
23.53
28.56
37.65
50.85
66.09
79.65
87.78
88.18
80.87
67.57
50.32
30.38
7.94
-16.98
-43.47
-69.21
-91.17
-106.93
-115.82
-119.03
-118.58
-115.93
-111.13
-102.96
-89.97
-71.67
-49.23
-25.37
-3.42
13.67
24.22
28.19
26.96
22.91
18.69
16.46
17.29
20.95
26.16
31.19
34.53
35.34
33.48
29.37
23.92
18.14
13.06
9.44
7.53
6.85
6.03
3.09
-4.25
-17.69
-37.51
-62.08
-88.08
-111.76
-130.4
-143.53
-152.77
-160.6
-168.31
-174.82
-176.87
-170.84
-154.75
-129.43
-98.2
-65.06
-32.89
-2.53
27.13
58.05
91.93
129.39
169.82
211.09
249.85
282.09
304.04
313.26
309.14
292.95
267.29
235.78
202.15
169.85
141.94
120.81
107.72
101.87
100.08
97.49
89.89
74.5
50.7
19.9
-14.93
-50.03
-81.61
-106.5
-122.49
-127.3
-120.27
-102.61
-77.25
-47.64
-16.64
13.86
42.42
67.49
88.97
106.56
119.92
128.66
133.01
134.11
133.52
132.34
120.28
91.31
46.18
-6.48
-55.62
-93.49
-117.37
-128.53
-130.67
-128.53
-124.63
-120.02
-113.43
-103.46
-89.19
-70.74
-49.06
-26.49
-7.17
5.44
8.61
1.85
-14.96
-42.37
-81.8
-130.06
-179.59
-220.8
-243.35
-239.61
-205.67
-144.49
-65.93
15.73
87.47
140.8
171.57
179.82
161.33
120.11
69.23
23.12
-11.98
-42.27
-73.04
-105.83
-136.26
-158
-163.65
-149.71
-114.02
-65.06
-17.81
15.45
30.92
33.26
29.74
26.62
25.57
24.22
18.6
7.81
-4.66
-14.22
-18.12
-16.94
-12.83
-8.95
-7.81
-10.86
-16.69
-21.58
-22.14
-17.08
-8.06
2.24
11.33
17.97
22.22
26.01
32.11
42.46
56.98
73.58
89.32
101.28
107.3
106.09
98.16
85.61
71.57
59.1
50.04
44.2
39.42
32.84
21.28
5.26
-11.09
-21.6
-21.36
-9.76
8.66
26.21
35.88
34.7
25.14
13.23
5.5
5.69
13.74
26.48
39.36
48.27
50.26
43.95
29.45
8.31
-17.01
-43.69
-69.32
-92.03
-110.27
-122.69
-127.82
-124.41
-112.15
-92.45
-68.46
-44.46
-24.54
-11.42
-6.09
-7.71
-13.99
-20.48
-22.35
-16.02
-1.87
15.31
29.55
36.96
37.72
35.22
33.53
34.96
39.1
43.45
45.31
43.81
40
35.78
33.91
35.6
40.15
45.61
49.7
50.21
46.06
37.12
25.23
14.03
8.08
11.97
28.84
59.3
100.08
148.31
197.84
242.32
276.36
295.81
298.11
282.51
250.46
203.61
146.5
86.15
30.92
-12.9
-43.43
-62.88
-75.71
-86.2
-100.51
-121.58
-148.42
-176.62
-201.62
-220.88
-233.82
-240.94
-242.98
-245.74
-254.29
-271.16
-295.62
-325.99
-361.22
-400.83
-444.2
-460.2
-430.77
-359.25
-268.04
-180.81
-110.34
-58.8
-22.43
4.53
27.27
44.58
54.32
56.15
52.4
46.11
39.08
31.72
24.07
17.19
10.23
4.95
5.84
17.84
42.22
74.9
108.21
134.77
150.76
154.56
148.23
135.93
121.82
108.22
95.55
83.71
73.23
65.23
59.48
54.92
50.17
44.27
36.62
27.46
17.8
9.11
2.74
-1.02
-2.64
-3.07
-3.27
-3.82
-4.8
-5.81
-5.98
-4.65
-1.61
2.84
7.94
12.87
17.03
20.22
22.6
24.5
26.21
27.91
29.54
31.04
32.25
33.14
33.81
34.32
34.68
34.83
34.76
34.56
34.5
34.93
36.13
38.31
41.16
44
45.99
46.5
45.44
43.28
40.91
39.2
39.02
40.54
43.35
46.7
49.99
53.08
56.46
61.06
68.18
79.74
96.97
119.91
146.68
173.68
196.26
210.33
213.85
204.52
184.64
159.15
133.81
113.3
99.82
92.7
88.84
83.92
73.83
56.38
31.3
0.14
-34.41
-69.64
-103.55
-135.15
-164.08
-190.46
-214.21
-236.17
-258.34
-283.59
-314.1
-349.41
-385.52
-415.83
-433.6
-434.49
-418.57
-389.74
-353.67
-315.19
-277.09
-240.14
-204.24
-169.4
-135.65
-102.46
-68.43
-31.72
8.56
51.1
92.69
129.66
159.81
183.27
202.07
219
236.26
254.74
273.89
291.84
305.76
312.26
308.3
292.34
265.51
231.54
195.58
162.22
133.85
110.4
90.34
72.32
55.99
41.67
29.36
18.06
6.01
-8.26
-25.24
-44.4
-64.7
-85.6
-107.03
-129.01
-150.96
-171.13
-187.05
-196.22
-197.1
-189.48
-174.3
-152.9
-126.6
-96.79
-65.51
-35.74
-11.01
5.67
13.08
12.4
6.73
-0.39
-6.62
-11.54
-16.1
-21.25
-26.49
-29.7
-28.32
-20.97
-8.57
6.01
19.78
31.41
42.1
54.52
70.66
89.94
108.64
121.51
124.05
114.42
93.93
66.24
35.98
7.53
-15.69
-31.25
-37.89
-35.68
-26.4
-13.63
-2.26
2.71
-2.12
-16.77
-37.14
-55.8
-64.62
-57.88
-34.79
0.49
41.06
80.58
115.35
144.29
166.81
180.75
182.06
166.6
132.58
82.23
21.49
-41.87
-100.39
-148.08
-180.79
-196.18
-194.1
-176.95
-149.58
-118.16
-88.46
-64.47
-47.88
-38.71
-36.2
-39.21
-45.9
-53.2
-56.77
-51.82
-34.54
-3.28
40.78
93.88
150.6
205.04
251.99
287.84
310.81
320.69
318.3
304.9
281.69
249.56
209.14
161.05
106.5
47.74
-11.53
-66.34
-111.34
-142.16
-156.83
-156.47
-144.81
-126.88
-107.44
-90.02
-76.65
-68.22
-65.02
-66.83
-72.81
-81.42
-90.52
-97.81
-101.24
-99.42
-91.86
-79.07
-62.45
-44.2
-26.97
-13.12
-3.84
1.44
5.27
11.64
24.73
47.69
81.35
123.88
171.11
217.68
258.3
288.9
307.23
313.37
309.65
300.2
289.75
281.87
277.27
273.07
263.43
241.69
203.01
146.45
75.5
-3.1
-81.45
-152.56
-211.57
-255.75
-283.99
-296.25
-293.43
-277.62
-252.4
-222.57
-193.48
-169.86
-154.46
-147.58
-147.28
-150.32
-153.41
-154.1
-151
-143.31
-130.47
-111.87
-87.29
-57.54
-24.83
7.54
36.13
58.32
72.86
79.83
80.03
74.33
63.53
48.58
30.83
12.08
-5.99
-22.44
-37.52
-52.33
-68.06
-84.97
-101.92
-116.72
-126.96
-130.95
-128.46
-120.65
-109.5
-96.95
-84.37
-72.21
-60.16
-47.56
-33.99
-19.56
-5.08
8.11
18.57
25.1
27
24.28
17.83
9.45
1.78
-2.37
-0.88
6.73
18.89
32.36
43.48
49.58
49.86
45.26
37.43
27.6
15.89
1.71
-15.35
-34.64
-54.38
-72.37
-87.16
-98.7
-108.12
-116.75
-125.03
-132.11
-136.4
-136.85
-133.83
-129.11
-124.97
-122.87
-122.91
-124.31
-126.37
-129.1
-132.99
-137.98
-142.57
-144.01
-139.48
-127.75
-110.01
-89.42
-69.53
-52.66
-39.12
-27.56
-16.08
-2.99
12.93
32.79
57.85
89.24
127.22
170.48
216.02
259.7
297.52
326.83
346.85
358.58
363.91
364.61
361.63
355.11
344.98
331.78
317.01
302.79
290.91
281.53
272.6
260.11
239.36
206.68
160.96
104.27
41.51
-20.86
-76.53
-120.7
-151.03
-167.8
-173.2
-170.25
-161.71
-149.6
-135.39
-120.63
-107.16
-96.92
-91.29
-90.42
-93.17
-97.54
-101.59
-104.16
-105.02
-104.57
-103.37
-101.9
-100.45
-99.29
-98.48
-97.91
-97.21
-96.09
-94.77
-93.89
-94.23
-96.02
-98.73
-101.42
-103.49
-105.04
-106.6
-108.24
-108.67
-105.3
-95.48
-78.25
-55.57
-32.09
-13.29
-3.02
-1.79
-6.72
-13.33
-18.04
-19.9
-20.76
-23.7
-30.96
-42.5
-56.1
-68.46
-76.77
-79.41
-75.71
-65.24
-47.17
-20.59
14.82
57.91
106.01
155.35
201.88
241.82
271.96
290.04
295.3
288.72
272.85
250.65
224.27
194.38
160.63
122.96
82.82
43.39
8.59
-18.33
-35.81
-43.81
-43.01
-34.13
-17.86
4.48
30.31
55.88
77.19
91.09
95.95
91.63
79.01
59.7
35.81
10.07
-14.37
-34.33
-47.47
-53.22
-53.2
-50.96
-50.67
-55.48
-65.93
-79.69
-92.62
-100.86
-102.74
-99.43
-93.92
-89.02
-85.72
-82.93
-78.81
-72.54
-65.29
-59.5
-57.02
-57.42
-57.64
-53.25
-40.49
-18.03
12.41
46.69
79.49
105.67
121.43
125.1
117.45
101.57
81.85
62.74
47.3
36.51
29.65
25.36
22.74
21.7
22.57
25.05
27.61
27.58
22.15
9.67
-9.5
-32.85
-56.58
-76.87
-90.97
-97.71
-97.38
-91.12
-80.37
-66.51
-50.9
-34.99
-20.43
-8.78
-1.14
2.18
1.6
-1.88
-7.12
-12.86
-17.73
-20.35
-19.63
-15.34
-8.52
-1.25
4.17
6.37
5.67
3.77
2.67
3.32
4.99
5.84
4.21
-0.13
-5.69
-10.06
-11.3
-9.03
-4.46
0.38
3.78
5.02
4.43
2.76
0.74
-1.16
-2.55
-2.89
-1.47
2.35
8.79
17.44
27.35
37.41
46.73
54.83
61.54
66.69
69.98
71.13
70.08
67.23
63.27
58.69
53.19
45.56
34.43
19.33
1.47
-16.62
-32.42
-44.9
-54.84
-63.93
-73.06
-81.67
-88.39
-92.63
-95.67
-100.09
-108.03
-119.43
-131.57
-140.47
-143
-138.29
-127.44
-112.07
-93.01
-70.21
-43.76
-15.04
13.26
38.39
59.3
77.69
97.31
121.94
153.02
188.36
222.36
248.01
259.4
253.74
232.03
198.26
157.74
115.55
75.78
41.4
14.64
-2.99
-10.89
-9.86
-2.2
8.64
18.88
25.33
26.09
20.82
10.66
-2.23
-15.34
-26.55
-34.69
-39.77
-42.7
-44.78
-46.95
-49.42
-51.77
-53.23
-53.27
-51.77
-48.98
-45.24
-40.78
-35.64
-30
-24.27
-19.08
-15.03
-12.37
-10.84
-9.87
-8.9
-7.72
-6.54
-5.85
-6.11
-7.54
-9.93
-12.88
-15.9
-18.68
-21.04
-23.09
-25
-26.98
-29.17
-31.87
-35.62
-41.13
-48.81
-58.06
-66.74
-71.42
-68.55
-56.1
-34.76
-8.08
18.87
41.49
57.31
66.42
70.65
71.93
71.1
67.62
60.28
48.42
32.65
14.89
-2.23
-16.32
-26.01
-31.27
-33.2
-33.46
-33.68
-35.05
-38.02
-42.43
-47.73
-52.94
-56.73
-57.55
-54.25
-46.92
-37.46
-29.33
-26.23
-30.32
-41.01
-55.06
-67.99
-76.23
-78.69
-77.01
-74.44
-74.16
-78.07
-86.43
-98.42
-112.76
-128.09
-142.68
-154.13
-159.31
-154.78
-137.68
-106.65
-62.53
-8.32
51.32
111.22
166.9
215.45
255.89
288.78
315.36
336.69
352.99
363.57
367.03
361.63
345.63
317.59
276.75
223.51
159.73
88.93
15.93
-53.76
-114.95
-163.84
-198.71
-220.29
-231.18
-234.78
-233.9
-229.85
-222.52
-211.4
-196.76
-180.01
-163.09
-147.16
-131.91
-116.01
-98.41
-79.59
-61.65
-46.86
-35.91
-27.08
-16.97
-2.62
16.73
38.99
60.22
76.47
85.29
86.34
81.07
72.19
62.84
56.07
54.16
58.03
66.87
78.36
89.33
96.81
98.78
94.62
84.88
70.98
54.77
38.27
23.4
11.69
3.86
-0.29
-1.84
-2.32
-3.14
-5.19
-8.72
-13.6
-19.61
-26.49
-33.84
-40.88
-46.36
-48.8
-47.03
-40.78
-30.97
-19.66
-9.37
-2.4
-0.05
-2.37
-8.22
-15.75
-23.06
-28.68
-31.92
-32.88
-32.11
-30.37
-28.29
-26.23
-24.36
-22.75
-21.47
-20.67
-20.48
-20.83
-21.5
-22.06
-22.12
-21.57
-20.82
-20.66
-21.88
-24.93
-29.52
-34.78
-39.64
-43.34
-45.69
-47.15
-48.46
-50.32
-53.14
-57.08
-62.14
-68.16
-74.76
-81.19
-86.44
-89.66
-90.69
-90.55
-91.28
-95.2
-103.73
-116.29
-129.92
-139.89
-141.2
-130.25
-106
-70.4
-27.83
15.95
55.29
86.11
106.87
118.98
125.88
131.26
137.07
142.37
143.79
137.6
122.21
99.68
75.37
55.69
45.46
46.25
56.39
72.34
90.39
107.86
123.66
138.4
154.34
174.87
203.29
240.78
284.51
327.28
359.56
373.18
365.03
338.75
303.17
268.43
241.53
223.68
210.47
194.41
168.33
128.04
73.48
8.17
-62.18
-131.2
-193.02
-243.14
-278.77
-299.14
-305.51
-300.96
-289.6
-275.72
-262.72
-252.36
-244.46
-237.29
-228.4
-215.9
-199.56
-181.31
-164.67
-153.19
-148.64
-149.84
-152.9
-152.84
-145.71
-130.38
-108.74
-84.45
-60.9
-39.64
-20.09
-0.63
19.84
40.76
59.95
74.61
82.8
84.54
82.12
79.32
80.07
86.8
99.35
114.91
128.89
136.55
134.5
121.71
99.56
71.48
41.93
15.56
-3.76
-13.57
-13.33
-4.67
8.99
23.25
33.99
38.71
37.26
31.61
24.8
19.61
17.53
18.34
20.48
21.8
20.45
15.47
7.09
-3.27
-13.47
-21.34
-25.44
-25.64
-23.21
-20.27
-18.77
-19.62
-22.2
-24.78
-25.51
-23.2
-17.87
-10.45
-2.23
5.69
12.46
17.42
19.8
18.74
13.73
5.15
-5.41
-15.37
-22.11
-24.06
-21.54
-16.69
-12.4
-10.89
-12.49
-15.51
-17.1
-14.8
-7.87
2.23
12.5
19.6
21.14
16.43
6.51
-6.12
-18.06
-25.65
-25.83
-17.19
-0.7
20.22
40.52
55.17
60.79
56.68
44.57
27.42
7.86
-12.85
-34.88
-58.93
-85.1
-112.24
-138.1
-160.17
-176.72
-187.35
-192.57
-192.98
-188.42
-178
-160.96
-137.96
-111.72
-86.43
-66.16
-53.05
-46.45
-43.29
-39.55
-31.94
-18.99
-1.25
19.13
39.33
56.62
69.02
75.68
76.79
73.36
66.81
58.75
50.93
45.34
43.91
47.94
57.32
70.07
82.64
91.26
93.67
90.2
83.6
77.34
73.72
72.76
72.58
71.08
67.59
63.46
60.95
61.36
63.64
64.52
60.38
49.44
33.11
15.54
1.74
-4.66
-2.53
7.02
21.88
40.06
59.88
79.41
95.73
105.16
104.56
92.94
72.33
47.12
22.05
0.09
-18.62
-36.12
-54.64
-74.68
-94.24
-109.7
-117.62
-116.42
-107.2
-93.09
-78
-65.22
-56.73
-53.09
-53.88
-58.16
-64.77
-72.42
-79.57
-84.48
-85.45
-81.46
-72.69
-60.7
-48.1
-37.52
-30.64
-27.37
-25.96
-23.75
-18.4
-8.86
4.22
18.75
32.19
42.44
48.66
51.28
51.5
50.52
48.93
46.84
44.4
42.48
42.71
46.82
55.6
68.04
81.61
93.28
101.03
104.7
105.72
105.89
105.95
105.27
102.69
98.2
93.76
92.87
98.55
111.2
127.67
142.3
149.43
145.92
132.38
112.42
90.65
70.43
52.82
36.85
20.71
3.18
-15.76
-34.93
-52.68
-67.65
-79.13
-87.13
-92.12
-94.71
-95.48
-94.88
-93.38
-91.4
-89.29
-87.17
-84.99
-82.46
-79.25
-75.14
-70.05
-64.12
-57.69
-51.24
-45.37
-40.7
-37.66
-36.4
-36.7
-38.07
-39.96
-41.97
-43.96
-45.95
-47.94
-49.76
-51.08
-51.53
-50.96
-49.56
-47.69
-45.67
-43.59
-41.24
-38.26
-34.64
-30.93
-28.33
-28.35
-32.16
-39.96
-50.49
-61.28
-69.3
-72.21
-69.46
-62.83
-55.98
-53.02
-56.74
-67.43
-82.68
-98.21
-109.34
-112.29
-105.08
-87.7
-62.1
-31.82
-1.5
24.1
41.27
48.64
47.56
41.55
34.7
29.96
28.19
28.36
28.73
28.28
27.48
28.02
32.12
41.77
58.25
82.08
113.03
149.96
190.53
231.33
268.27
297.47
316.16
323.32
319.76
307.89
291.22
273.54
257.72
244.43
231.32
213.08
183.08
136.1
71.01
-7.97
-92.32
-172.1
-239.21
-289.38
-322.2
-339.24
-341.94
-330.44
-304.08
-263.08
-209.97
-149.76
-88.68
-32.32
15.81
54.7
85.08
108.36
125.92
138.9
148.27
154.73
158.28
157.99
152.1
138.87
117.8
90.52
60.58
32.3
9.22
-7.13
-17.35
-23.46
-27.72
-32
-37.77
-46.42
-59.35
-77.58
-100.95
-127.54
-153.84
-175.72
-189.58
-193.29
-186.38
-169.79
-145.41
-116.01
-85.08
-56.58
-34.19
-20.23
-14.68
-14.9
-16.44
-14.57
-6.04
9.69
30.23
51.2
67.78
76.32
75.12
64.65
47.23
26.63
7.78
-3.83
-3.29
12.05
41.03
78.32
115.81
145.28
161.26
162.52
151.77
133.77
113.41
94.35
78.78
67.71
61.25
58.66
58.3
58.03
55.89
51.02
43.9
35.87
28.25
21.38
14.39
5.8
-5.49
-19.19
-33.22
-44.3
-49.36
-47
-38.39
-26.96
-16.95
-11.58
-11.68
-15.51
-19.66
-20.7
-16.44
-6.53
7.9
25.05
43.16
60.79
76.59
88.94
95.99
95.94
87.73
71.64
49.49
24.17
-1.24
-24.47
-44.59
-61.81
-76.84
-90.1
-101.24
-109.3
-113.37
-113.12
-109.24
-103.19
-96.72
-91.29
-87.54
-85.29
-83.67
-81.55
-78.01
-72.63
-65.62
-57.7
-49.73
-42.43
-36.2
-31.07
-26.93
-23.65
-21.2
-19.66
-19.08
-19.32
-20.03
-20.75
-21.03
-20.63
-19.57
-18.08
-16.53
-15.24
-14.52
-14.47
-15.13
-16.43
-18.26
-20.56
-23.3
-26.53
-30.26
-34.48
-39.1
-43.97
-48.97
-54.03
-59.14
-64.2
-68.99
-73.04
-75.79
-76.76
-75.76
-73.05
-69.25
-65.27
-61.95
-59.9
-59.35
-60.17
-62.03
-64.58
-67.54
-70.82
-74.36
-78.19
-82.3
-86.83
-92.13
-98.86
-107.71
-118.88
-131.43
-142.96
-149.94
-148.69
-136.64
-113.21
-80.21
-41.41
-1.48
34.86
63.62
81.81
87.86
81.91
66.27
45.16
23.89
7.26
-1.99
-3.98
-1.07
3.79
8.9
15.04
25.37
44.2
75.18
119.83
176.6
241.01
306.52
366.09
413.99
447.48
467.41
477.4
481.58
482.11
477.73
464.07
435.85
389.56
325.46
247.71
163.01
78.45
-0.19
-69.25
-127.1
-173.55
-209.48
-236.55
-256.89
-272.6
-285.27
-295.42
-302.69
-306.42
-306.37
-302.97
-297.01
-289.05
-278.91
-265.76
-248.7
-227.45
-202.77
-176.32
-150.12
-125.97
-105.19
-88.57
-76.48
-68.83
-64.89
-63.06
-60.91
-55.65
-44.81
-26.96
-2.3
27.24
58.69
89.28
118
146.52
178.56
217.8
265.19
317.21
366.09
402.13
416.96
406.07
369.93
313.38
244.26
171.87
105.32
52.02
15.96
-3.34
-10.45
-12.1
-14.42
-20.76
-31.28
-44.38
-58.61
-73.82
-90.81
-109.83
-129.5
-146.88
-158.87
-163.83
-162.4
-157.03
-150.5
-144.71
-139.95
-135.32
-129.43
-121.02
-109.09
-93.12
-73.32
-50.93
-28.3
-8.33
6.54
15.14
17.72
15.35
9.31
0.79
-8.71
-16.99
-21.21
-18.89
-9.28
5.89
22.87
37.5
47.22
51.91
53.35
53.63
53.6
52.39
48.22
39.72
26.97
11.57
-4.02
-17.62
-28.02
-35.18
-39.7
-42.05
-42.23
-39.86
-34.69
-27.1
-18.27
-9.85
-3.15
1.41
4.43
7.14
10.67
15.28
20.27
24.17
25.37
22.72
15.94
5.75
-6.35
-18.35
-28.28
-34.63
-36.72
-34.82
-29.9
-23.36
-16.57
-10.67
-6.47
-4.34
-4.25
-5.66
-7.68
-9.36
-10.24
-10.56
-11.19
-13.08
-16.59
-21.27
-26.18
-30.5
-34.06
-37.43
-41.48
-46.93
-54.05
-62.7
-72.56
-83.12
-93.28
-100.97
-103.2
-97.01
-80.71
-55.04
-23.22
10.17
40.8
65.9
84.39
96.25
101.65
100.58
93.26
80.87
66.03
52.19
42.46
38.03
37.66
38.17
36.12
29.58
19.16
7.68
-1.32
-5.46
-4.54
-0.12
5.84
12.54
20.76
31.98
46.72
63.29
78.02
86.78
87.07
79.21
65.93
50.61
35.42
20.39
4.14
-14.45
-34.72
-53.69
-66.96
-70.47
-62.32
-43.88
-19.5
4.94
24.16
35.25
38.29
35.55
29.96
23.52
16.64
8.73
-0.71
-11.22
-21.39
-29.71
-35.63
-39.85
-43.68
-47.87
-51.79
-53.74
-52.07
-46.52
-38.78
-31.83
-28.54
-30.32
-36.68
-45.73
-55.29
-63.56
-69.37
-71.67
-69.2
-60.67
-45.34
-23.76
2.01
29
54.4
76.48
95.02
110.94
125.45
139.33
152.59
164.41
173.01
175.6
168.59
148.55
114.07
67.43
15.2
-33.18
-68.39
-84.55
-81.09
-62.6
-36.64
-10.92
8.9
20.17
23.01
19.47
12.72
6.27
3.02
4.32
9.12
14.2
15.4
9.34
-4.99
-25.67
-48.52
-68.15
-79.23
-77.79
-62.19
-33.84
2.92
42.09
78.1
107.68
130.64
148.97
164.73
178.24
187.6
189.89
183.16
167.9
146.8
123.19
99.32
75.71
51.97
28.36
6.57
-10.64
-21.15
-25.04
-25.02
-25.52
-30.72
-42.69
-60.56
-81.17
-100.45
-115.26
-124.33
-128.21
-128.42
-126.46
-123.11
-118.34
-111.78
-103.06
-92.16
-79.48
-65.65
-51.37
-37.41
-24.62
-13.81
-5.75
-0.74
1.44
1.54
0.59
-0.43
-0.74
0.03
1.84
4.09
5.67
5.27
1.99
-3.97
-11
-16.44
-17.8
-14.16
-6.91
0.82
5.71
6.39
4.55
4.44
10.75
25.93
48.51
73.39
94.11
105.78
107.17
100.89
91.68
83.96
79.99
79.29
79.54
77.87
72.04
60.83
43.97
21.94
-4.14
-32.4
-60.38
-85.45
-105.39
-118.87
-125.53
-125.83
-120.5
-110.26
-95.95
-79
-61.92
-48.18
-41.34
-43.42
-53.64
-68.33
-82.33
-91.31
-93.75
-91.42
-87.98
-86.77
-89.03
-93.61
-98.09
-100.25
-98.74
-92.81
-81.57
-63.79
-38.73
-7.41
26.56
57.43
79.23
88.02
83.35
68.24
47.74
26.91
9.32
-3.37
-10.93
-13.7
-12.08
-6.45
2.39
12.98
23.27
31.29
35.9
37.31
37.1
37.41
39.84
44.37
49.16
51.35
48.57
40.41
29.02
18.46
13.08
15.89
27.59
46.86
71.4
98.97
127.72
155.68
180.05
196.84
201.71
191.44
165.61
127.38
82.98
40.08
5.33
-17.71
-29.42
-33.49
-34.96
-38.1
-44.9
-55.08
-66.94
-78.63
-88.93
-97.17
-102.92
-105.58
-104.48
-99.36
-90.79
-80.23
-69.69
-61
-55.37
-53.12
-53.8
-56.43
-59.78
-62.74
-64.67
-65.62
-66.23
-67.39
-69.69
-72.78
-75.23
-74.68
-68.36
-53.93
-30.46
1.07
37.52
74.06
105.37
127.1
137.11
136.02
126.75
113.15
98.66
85.37
73.97
64.3
55.93
48.45
41.45
34.43
26.96
19.17
11.96
6.76
4.62
5.19
6.45
5.42
-0.49
-12.09
-28.02
-45.39
-60.96
-72.28
-78.26
-79.03
-75.5
-68.92
-60.73
-52.4
-45.4
-40.82
-38.96
-39.14
-39.69
-38.35
-33.12
-23.14
-9.55
4.43
14.29
15.91
7.33
-10.05
-31.48
-50.33
-60.14
-56.78
-39.53
-11.11
23.5
58.64
89.67
113.92
130.96
142.06
149.15
153.77
156.45
156.6
152.99
144.36
129.96
109.79
84.66
56.43
27.81
1.97
-18.49
-32.41
-40.48
-44.68
-46.98
-48.32
-48.31
-46.14
-42.14
-38.59
-39.32
-48.07
-66.41
-92.43
-120.92
-145.07
-158.7
-158.22
-143.53
-117.83
-86.49
-55.64
-30.75
-15.66
-12.3
-20.61
-38.76
-63.43
-90.49
-115.77
-135.92
-149.13
-155.24
-155.27
-150.68
-142.83
-133.01
-122.78
-114.27
-109.66
-109.97
-113.84
-117.19
-114.53
-101.32
-76.21
-41.95
-4.16
31.2
60.49
83.56
103.02
122.05
142.45
164.06
185.5
205.29
222.35
235.74
244.16
245.97
240.08
227.08
209.68
192.08
178.4
171.22
170.72
174.9
180.49
183.96
182.26
173.17
155.59
129.6
96.39
57.98
16.89
-24.27
-62.99
-97.07
-125.16
-147.05
-163.71
-176.75
-187.6
-196.73
-203.55
-206.94
-206.09
-201.07
-192.91
-183.12
-173.22
-164.36
-157.16
-151.68
-147.44
-143.4
-138.11
-129.89
-117.22
-99.39
-76.97
-52.05
-27.84
-7.6
6.6
14.81
19.27
23.59
31.34
44.81
64.3
88.15
113.25
135.97
152.94
161.83
162.05
154.84
143.08
130.27
119.4
112.02
107.94
105.65
103.19
98.74
91.05
79.51
64.3
46.68
29.17
15.15
7.93
9.24
18.05
30.18
39.34
39.23
25.98
-0.21
-34.96
-71.28
-102.02
-122.38
-131.25
-130.87
-125.16
-117.71
-110.45
-103.56
-96.45
-88.82
-80.96
-73.26
-65.24
-55.33
-41.72
-23.87
-3.52
15.62
29.69
36.92
38.59
38.12
38.85
41.87
45.53
46.57
42.15
31.25
14.76
-5.51
-27.52
-49.03
-66.96
-77.1
-75.12
-58.67
-29.13
8.12
45.54
76.68
98.86
113.84
126.29
141.1
161.09
186.11
213.6
239.6
259.79
270.28
268.49
254.37
231.29
205.8
185.81
177.68
183.48
199.65
218.03
228.83
224.26
201.06
161.08
109.9
54.26
-0.22
-50.19
-94.47
-132.85
-164.92
-189.65
-205.99
-213.8
-214.68
-211.74
-208.31
-206.55
-206.66
-207.39
-207.33
-206.21
-205.31
-206.79
-212.32
-221.89
-233.54
-244.08
-250.32
-250.19
-243.16
-229.92
-211.69
-189.57
-164.33
-136.62
-107.31
-77.58
-48.81
-22.24
1.1
20.38
34.98
44.59
49.47
50.65
49.83
48.96
49.57
52.28
56.76
62.14
67.64
72.98
78.6
85.47
94.62
106.73
121.64
138.15
154.04
166.54
173
171.87
163.36
149.59
134.05
120.56
111.87
108.88
110.41
113.83
116.06
114.46
107.67
95.88
80.57
63.7
46.75
29.95
12.15
-8.45
-33.2
-61.83
-92.17
-120.86
-144.62
-161.59
-171.72
-176.37
-177.14
-174.92
-169.78
-161.35
-149.87
-136.69
-124.39
-116.08
-114.36
-120.29
-132.8
-148.82
-164.07
-174.19
-175.93
-168.1
-151.8
-129.97
-106.09
-82.75
-60.58
-38.2
-13.17
16.44
50.72
87.67
124.13
157
184.36
205.57
220.93
231.3
238.04
243.1
248.65
256.01
264.19
269.11
264.56
244.37
205.34
148.84
80.61
8.89
-58.22
-114.68
-157.22
-184.96
-198.52
-199.34
-189.34
-171.06
-147.91
-123.91
-102.92
-87.54
-78.08
-72.51
-67.3
-58.97
-45.52
-27.19
-6.01
15.42
34.96
51.43
64.34
73.27
77.53
76.44
70.02
59.33
46.56
34.2
23.97
16.13
9.26
0.85
-11.39
-28.3
-48.46
-68.4
-84
-92.17
-92.49
-87.39
-81.13
-77.87
-79.83
-86.53
-95.29
-102.57
-105.4
-102.23
-93
-78.68
-60.76
-41.02
-21.58
-4.82
6.89
11.9
9.96
2.59
-7.04
-14.95
-17.48
-12.55
-0.37
16.72
35
50.74
61.46
66.51
66.81
64.24
60.76
57.99
57.12
58.94
63.68
70.67
78
82.73
81.85
73.44
57.52
36.13
12.55
-9.81
-28.21
-40.92
-47.09
-46.52
-39.57
-27.26
-11.26
6.3
23.11
37.07
46.46
50.11
47.52
38.95
25.59
9.43
-7.19
-22
-33.26
-39.91
-41.64
-38.84
-32.67
-24.65
-16.06
-7.07
3.62
18.48
39.89
68.74
103.55
140.71
175.88
205.65
228.5
244.84
256.01
263.22
266.79
266
259.4
245.35
222.74
191.82
154.78
115.74
79.7
50.83
30.77
17.85
7.88
-3.84
-20.39
-42.01
-66.32
-89.76
-109.29
-123.23
-131.29
-133.93
-131.69
-124.97
-114.35
-101
-86.76
-73.86
-64.24
-58.85
-57.37
-58.28
-59.61
-59.7
-57.79
-54.2
-50.1
-46.81
-45.31
-45.87
-47.91
-50.42
-52.33
-52.91
-52.05
-50.18
-48.08
-46.6
-46.36
-47.58
-50
-52.94
-55.52
-56.84
-56.27
-53.6
-49.04
-43.23
-36.85
-30.57
-24.77
-19.55
-14.88
-10.72
-7.12
-4.24
-2.26
-1.16
-0.81
-0.96
-1.36
-1.94
-2.74
-3.77
-4.96
-6.1
-6.92
-7.3
-7.33
-7.3
-7.56
-8.35
-9.68
-11.36
-13.14
-14.8
-16.27
-17.61
-18.95
-20.45
-22.27
-24.52
-27.17
-30.02
-32.58
-34.2
-34.25
-32.32
-28.4
-22.95
-16.78
-10.77
-5.64
-1.72
1.02
2.9
4.3
5.43
6.27
6.59
6.11
4.68
2.44
-0.22
-2.78
-4.89
-6.52
-8.06
-10.12
-13.3
-17.78
-23.28
-29.01
-34.14
-38.09
-40.83
-43.01
-45.63
-49.61
-55.44
-62.88
-71.09
-79.03
-85.85
-91.24
-95.49
-99.3
-103.48
-108.67
-115.03
-122.05
-128.16
-130.59
-125.65
-109.65
-80.24
-37.62
15.07
72.56
129.26
181.04
226.28
265.38
299.43
328.79
352.5
368.55
374.66
368.87
349.74
316.43
269.01
209.07
140.23
67.95
-1.36
-61.78
-109.01
-140.96
-157.49
-160.04
-151.34
-135.29
-116.68
-100.41
-90.24
-87.73
-91.94
-99.9
-107.82
-112.21
-110.76
-102.78
-89.21
-72.2
-54.1
-36.66
-20.32
-4.61
10.9
25.77
38.62
48.14
54.4
59.26
65.79
76.4
91.24
107.79
122.09
130.74
132.65
129.29
123.61
118.27
114.36
111.15
106.72
99.09
87.04
70.67
51.17
30.34
10.03
-8.37
-24.11
-36.96
-46.85
-53.86
-58.27
-60.68
-62.14
-63.92
-67.16
-72.44
-79.6
-87.78
-95.71
-102.14
-106.1
-107.16
-105.47
-101.62
-96.46
-90.77
-85.12
-79.78
-74.91
-70.66
-67.3
-64.99
-63.64
-62.71
-61.47
-59.31
-56.23
-52.93
-50.53
-50.04
-51.76
-55.09
-58.67
-60.89
-60.4
-56.45
-49.32
-40.47
-32.41
-27.72
-27.79
-31.82
-36.77
-38.74
-35.19
-26.84
-17.99
-14.78
-22.29
-42.13
-71.67
-105.56
-137.99
-164.47
-182.25
-189.8
-186.25
-171.65
-147.61
-117.59
-86.06
-56.69
-30.61
-5.84
21.76
56.07
98.37
146.11
193.66
234.51
263.87
280.48
286.76
287.41
287.14
288.48
290.95
291.52
286.3
272.34
248.73
216.68
178.85
138.37
98.14
60.56
27.46
0.17
-20.62
-34.97
-43.64
-48
-49.7
-50.37
-51.03
-51.86
-52.14
-50.5
-45.6
-36.66
-23.89
-8.47
7.84
23.19
36.27
46.56
54.47
61.07
67.55
74.78
82.9
91.27
98.78
104.43
108.11
111.12
116.13
126.34
143.99
169
198.08
225.12
242.63
243.81
224.57
184.69
128.02
61.48
-6.67
-68.63
-118.59
-153.61
-173.68
-181.12
-179.39
-171.96
-161.48
-149.66
-137.54
-125.93
-115.45
-106.34
-98.29
-90.5
-82.2
-73.25
-64.47
-57.46
-53.92
-54.66
-58.97
-64.58
-68.5
-68.05
-62.05
-50.97
-36.65
-21.54
-8.01
2.01
7.06
6.07
-1.46
-15.02
-32.51
-50.21
-63.53
-68.66
-64.15
-51.79
-35.91
-21.69
-12.95
-10.76
-13.53
-18.19
-22.16
-24.53
-26.27
-29.31
-35.29
-44.72
-56.96
-70.9
-85.66
-100.6
-115.11
-128.05
-137.7
-142.3
-140.98
-134.61
-125.72
-117.6
-112.9
-112.28
-114.05
-114.89
-111.3
-101.06
-84.05
-62.05
-37.73
-13.5
9.31
30.68
51.42
72.27
93.26
113.29
130.39
142.51
148.34
148.14
143.87
138.84
136.68
140.37
151.35
168.98
190.25
210.03
222.29
222.28
209.08
186.95
164.39
150.65
151.41
165.59
185.33
199.28
197.46
175.42
135.48
85.03
32.89
-14.01
-52.32
-82.06
-105.14
-123.47
-137.93
-148.18
-153.41
-153.66
-150.72
-148.1
-149.64
-157.54
-170.9
-185.56
-195.92
-197.55
-189.45
-174.69
-158.89
-147.59
-143.73
-146.67
-152.86
-157.86
-158.4
-153.62
-144.81
-134.07
-122.75
-110.4
-94.94
-73.63
-44.4
-7
36.58
82.34
125.26
160.69
186.03
201.89
212.28
223.09
239.55
263.54
292.07
318.03
332.64
328.71
302.95
256.58
194.14
121.67
45.2
-29.88
-98.84
-157.61
-203.23
-234.52
-252.63
-260.81
-263.49
-264.81
-267.48
-271.87
-276.15
-277.29
-272.4
-259.98
-240.57
-216.53
-190.94
-166.45
-144.33
-124.34
-105.19
-85.39
-63.95
-40.64
-15.94
9.16
33.3
54.98
72.72
85.52
93.29
96.99
98.33
99.07
100.25
101.86
103.15
103.22
101.68
98.72
94.8
90.3
85.61
81.44
79.12
80.44
86.9
98.69
114.21
130.53
144.6
154.52
160.22
163.16
165.42
168.62
173.25
178.52
182.62
183.25
178.26
166.28
147.16
122.02
92.9
61.97
30.87
0.31
-29.57
-58.66
-86.28
-111.08
-131.55
-146.7
-156.33
-160.75
-160.14
-154.17
-142.42
-125.38
-105.21
-85.63
-70.5
-62
-59.66
-60.75
-61.99
-61.41
-59.16
-56.77
-55.71
-56.09
-56.58
-55.37
-51.62
-46.26
-41.67
-40.45
-44.1
-52.37
-63.48
-74.91
-84.33
-90.18
-91.93
-90.1
-85.91
-80.69
-75.11
-68.58
-59.33
-45.09
-24.25
3.14
35.41
70.15
105.64
141.71
179.49
220.06
262.91
305.2
342.46
370.25
385.66
387.89
377.55
355.62
322.69
279.19
226.3
166.72
104.57
44.51
-9.71
-56.22
-95.07
-127.39
-154.26
-175.97
-192.1
-202.29
-206.93
-207.2
-204.46
-199.48
-192.05
-181.43
-167.27
-150.16
-131.71
-113.8
-97.81
-84.16
-72.77
-63.66
-57.44
-54.82
-55.72
-58.41
-59.57
-55.43
-43.4
-23.54
1.17
25.76
45.03
55.28
55.35
46.66
32.42
16.5
2.34
-7.69
-12.75
-13.37
-11.1
-8.01
-5.98
-6.34
-9.67
-15.83
-24.17
-33.66
-43.03
-50.89
-56.06
-57.85
-56.46
-52.97
-49.06
-46.47
-46.43
-49.48
-55.33
-63.2
-71.95
-80.34
-87.11
-91.19
-91.9
-89.2
-83.59
-75.78
-66.06
-53.71
-37.12
-14.35
15.66
52.34
93.63
136.97
180.57
223.66
266
306.6
342.94
371.63
389.92
397.39
396.23
389.85
380.55
367.87
348.68
318.95
276.34
221.66
158.71
92.56
27.51
-34.03
-91.34
-144.39
-192.56
-234.14
-266.83
-288.83
-299.81
-301.11
-295.12
-284.35
-270.64
-255.09
-238.31
-220.96
-203.92
-187.96
-173.48
-160.48
-148.91
-139.09
-131.67
-127.04
-124.59
-122.3
-117.27
-106.87
-89.9
-66.83
-39.38
-9.6
20.83
50.64
78.7
103.94
125.8
144.72
162.21
179.94
198.57
216.9
232.2
241.36
242.11
233.66
216.36
191.06
158.73
120.61
78.68
35.79
-4.79
-40.32
-69.14
-90.83
-105.61
-113.86
-115.98
-112.86
-106.31
-98.92
-93.26
-90.98
-92.04
-94.85
-96.96
-96.05
-90.73
-80.88
-67.53
-52.6
-38.37
-27.05
-20.26
-18.54
-21.02
-25.62
-29.63
-30.85
-28.42
-22.99
-16.16
-9.41
-3.39
2.12
7.63
13.3
18.71
23.26
26.64
29.06
31.11
33.44
36.47
40.23
44.45
48.51
51.37
51.61
47.86
39.56
27.52
13.89
1.49
-7.14
-10.45
-7.95
-0.14
11.44
24.08
33.79
36.19
28.14
9.68
-14.98
-38.4
-52.35
-51.07
-33.78
-5.12
26.58
52.47
66.23
65.83
53.49
34.24
13.82
-3.1
-14.01
-18.64
-18.6
-16.58
-15.57
-17.89
-24.25
-33.21
-41.22
-43.84
-37.66
-22.26
-0.97
20.07
34.34
37.77
30.45
16.64
3.05
-3.53
1.71
20.52
51.41
90.23
131.07
167.35
193.42
206
205.41
195.49
182.25
171.55
166.89
168.16
171.69
171.66
162.07
138.95
101.8
54.07
2.35
-45.51
-82.87
-106.35
-116.8
-118.6
-117.88
-120.12
-128.48
-143.19
-161.95
-180.89
-195.33
-200.38
-191.92
-167.77
-129.07
-80.77
-30.59
13.21
44.32
60.23
62.19
53.87
39.42
22.25
4.52
-12.37
-27.56
-40.73
-52.45
-64.19
-77.64
-93.46
-110.23
-124.25
-130.71
-125.61
-107.72
-79.44
-46.25
-15.02
8.42
21.04
23.22
18.02
9.56
1.45
-4.14
-6.71
-7.1
-6.94
-8.12
-12.24
-20.16
-31.68
-45.62
-59.9
-71.93
-78.98
-78.8
-70.48
-55.09
-35.86
-17.38
-4.12
1.23
-1.37
-9.46
-19.38
-27.89
-33.09
-34.41
-31.9
-25.79
-16.59
-5.76
4.11
10.18
10.55
5.49
-2.77
-11.26
-17.79
-21.71
-23.65
-24.43
-24.28
-22.91
-20.04
-16
-11.79
-8.45
-6.4
-5.35
-4.73
-4.4
-4.76
-6.39
-9.38
-13.05
-16.27
-18.1
-18.26
-16.89
-13.92
-8.35
2.09
20.36
48.91
88.16
135.45
184.89
228.82
260.15
274.92
273.89
262.2
247.24
235.49
229.85
228.5
225.96
215.62
192.7
156.27
109.52
58.33
8.76
-35.12
-72.31
-104.2
-132.83
-159.05
-181.62
-197.99
-205.91
-205.22
-198.43
-189.88
-183.84
-182.55
-185.28
-188.85
-189.39
-184.36
-173.78
-160.12
-146.91
-136.81
-130.35
-125.85
-120.62
-112.59
-101.37
-88.08
-74.2
-60.25
-45.49
-28.57
-8.85
12.7
33.66
51.51
65.09
75.46
85.3
97.28
112.4
129.28
144.89
156.42
162.81
165.22
165.89
166.12
164.75
158.18
142.05
113.82
74.73
29.76
-14.34
-52
-80.99
-102.61
-119.95
-135.37
-148.74
-157.32
-157.4
-146.41
-124.37
-93.96
-59.41
-24.85
7.05
35.53
61.34
85.92
110.51
135.72
161.54
187.59
213.32
237.86
259.79
276.9
286.47
286.15
274.81
253.19
223.79
189.99
154.97
120.81
88.59
58.9
32.52
10.65
-5.75
-16.66
-23.51
-28.78
-35.06
-43.93
-55.57
-69.02
-83.01
-96.8
-110.63
-125.44
-142.15
-160.89
-180.43
-198.36
-211.91
-218.9
-218.52
-211.31
-198.64
-181.95
-162.24
-140.17
-116.5
-92.65
-70.63
-52.47
-39.24
-30.56
-24.99
-20.9
-17.43
-14.86
-14.12
-15.98
-20.43
-26.54
-32.84
-37.93
-40.69
-40.38
-36.62
-29.4
-19.26
-7.59
3.5
11.75
15.45
14.08
8.53
0.75
-6.9
-12.25
-13.82
-11.02
-4.22
5.35
15.75
24.86
30.85
32.7
30.47
24.95
17.24
8.29
-1.31
-11.21
-20.98
-30.06
-37.76
-43.53
-47.16
-48.76
-48.66
-47.18
-44.58
-41.06
-36.91
-32.53
-28.41
-24.97
-22.26
-19.93
-17.2
-13.11
-6.87
1.7
11.9
22.18
30.49
35
34.88
30.85
25.21
21.15
21.49
27.17
36.68
46.57
53.14
54.31
50.71
45.1
40.63
39.17
40.54
43.3
46.05
48.43
50.8
53.23
54.78
53.97
50.29
45.35
42.66
45.71
55.55
69.74
83.3
91.29
91.36
84.66
74.65
64.78
56.6
49.3
40.89
29.95
16.77
3.26
-8.25
-16.31
-21.03
-23.74
-26.16
-29.39
-33.39
-37.27
-40.02
-41.16
-41.19
-41.3
-42.92
-47.01
-53.7
-62.2
-71.14
-79.04
-84.75
-87.81
-88.54
-87.9
-87.13
-87.28
-88.64
-90.49
-91.08
-88.13
-79.53
-64.19
-42.63
-16.94
9.61
33.45
51.51
61.69
62.96
55.18
39.26
17.3
-7.31
-30.42
-48.33
-59.25
-63.99
-65.7
-68.09
-73.62
-82.18
-91.31
-97.69
-99.01
-95.18
-88.24
-81.34
-77.32
-77.53
-81.54
-87.17
-90.88
-88.22
-74.83
-47.71
-6.48
46.01
103.99
160.33
208.61
244.7
267.57
278.81
281.55
279.13
274.32
268.94
264.03
260.17
257.58
256.23
255.66
255.01
253.08
248.6
240.52
228.38
212.56
194.16
174.61
155.13
136.25
117.54
97.92
76.26
52.24
26.95
2.64
-18.31
-34.79
-47.83
-60.28
-75.15
-93.52
-113.48
-130.83
-141.42
-143.52
-138.83
-131.32
-124.7
-120.17
-115.84
-108.32
-95.23
-77.23
-58.26
-43.88
-38.78
-44.55
-58.91
-76.44
-90.69
-96.51
-91.88
-78.37
-60.26
-42.61
-29.16
-21.13
-17.39
-15.83
-14.98
-14.97
-17.39
-24.12
-36.17
-53.03
-72.87
-93.25
-111.96
-127.26
-137.91
-142.98
-141.91
-134.82
-122.77
-107.72
-91.99
-77.67
-66.21
-58.43
-54.84
-55.84
-61.59
-71.51
-83.89
-95.93
-104.25
-106.09
-100.22
-87.37
-69.87
-50.78
-32.72
-17.15
-4
8.09
21.21
37.52
58.62
85
115.86
149.05
181.61
210.68
234.28
251.75
263.48
270.01
271.37
266.64
254.31
233.12
202.75
164.37
120.38
73.89
27.99
-14.69
-52.16
-83.08
-106.48
-121.67
-128.1
-125.47
-113.89
-94.39
-69.16
-41.36
-14.43
8.96
27.9
43.48
58.07
73.85
91.09
107.34
117.96
117.93
104.11
76.75
39.58
-1.6
-40.97
-74.38
-99.96
-117.77
-128.8
-134.3
-135.5
-133.61
-129.91
-125.61
-121.59
-118.02
-114.32
-109.35
-101.75
-90.55
-75.53
-57.54
-38.31
-20.02
-4.53
7.07
14.62
18.59
19.6
18.16
14.72
10.09
5.58
2.86
3.27
7.2
13.7
20.99
27.3
31.77
34.72
37.09
39.4
40.81
39.05
31.27
15.65
-7.55
-35.64
-64.43
-89.74
-108.54
-119.33
-121.78
-116.18
-103.46
-85.51
-65.57
-47.86
-36.39
-33.13
-36.95
-43.98
-49.43
-49.93
-45.07
-37.06
-29.25
-24.31
-23.08
-24.73
-27.7
-30.56
-32.49
-33.1
-32.03
-28.84
-23.34
-16
-8.23
-2.12
0.34
-2.17
-9.64
-20.62
-32.5
-42.01
-46.09
-42.78
-31.95
-15.34
4
23.01
39.77
54.22
68.07
83.9
103.92
129.06
158.51
189.81
219.4
243.23
257.41
258.92
246.25
219.89
182.58
139
94.81
55.22
23.73
1.19
-14.03
-24.98
-34.63
-44.6
-54.82
-64.17
-71.62
-77.08
-81.44
-85.7
-90.08
-93.52
-94.3
-91.09
-83.86
-74
-63.63
-54.59
-47.76
-43.02
-39.61
-36.56
-32.98
-28.29
-22.39
-15.84
-9.76
-5.45
-3.88
-5.3
-9.34
-15.38
-22.99
-31.93
-41.85
-51.83
-60.36
-65.82
-67.1
-63.96
-56.95
-47.02
-35
-21.6
-7.46
6.72
20.24
32.68
44.01
54.56
64.62
74.04
81.81
86.33
86.07
80.46
70.53
58.74
48.11
40.86
37.57
37.33
38.66
40.88
44.67
51.56
62.33
75.82
88.73
96.79
96.63
87
68.79
44.08
15.11
-15.91
-46.52
-73.57
-93.7
-104.54
-105.85
-99.92
-90.48
-81.05
-73.57
-68.19
-64.12
-60.84
-58.71
-58.54
-60.66
-64.31
-67.84
-69.42
-67.95
-63.33
-56.07
-46.67
-35.3
-21.87
-6.2
11.93
33.14
58.52
89.26
125.67
165.99
206.14
240.86
265.98
280.28
285.74
285.87
283.15
276.99
263.87
239.3
200.69
149.29
90.19
30.47
-23.19
-66.33
-97.25
-116.52
-126
-128
-124.69
-117.79
-108.41
-97.25
-85.19
-73.72
-65.04
-61.14
-62.68
-68.46
-75.65
-81.1
-82.81
-80.75
-76.45
-71.84
-68.05
-65.1
-62.51
-60.26
-59.29
-61.1
-66.72
-75.76
-86.31
-95.79
-102.1
-104.52
-103.8
-101.54
-99.31
-98.05
-97.83
-98.05
-97.77
-96.03
-92.16
-85.9
-77.57
-68.13
-58.99
-51.61
-47.06
-45.52
-46.26
-47.91
-49.01
-48.43
-45.61
-40.61
-34
-26.69
-19.95
-15.08
-13.18
-14.67
-19.25
-25.83
-33.1
-39.95
-45.68
-49.83
-51.8
-50.7
-45.8
-37.22
-26.08
-13.89
-1.43
11.89
27.59
46.77
68.57
89.79
105.95
113.58
112.14
104.44
95.22
88.86
87.58
91.13
97.76
105.53
113.16
119.68
123.85
123.95
118.16
105.76
87.93
67.98
50.51
39.72
37.53
42.62
50.68
55.94
53.4
40.67
18.86
-7.79
-33.39
-52.25
-60.43
-56.71
-42.84
-22.95
-2.38
13.76
22.04
21.54
13.83
2.12
-9.98
-19.62
-25.19
-26.28
-23.26
-16.96
-8.6
0.23
7.57
11.39
10.28
4.02
-6.14
-17.9
-28.98
-38.27
-46.38
-55.23
-66.73
-81.37
-97.34
-110.86
-117.53
-114.1
-99.75
-76.38
-47.93
-19.07
6.04
24.74
36.22
41.37
42.15
40.7
38.54
36.38
34.39
32.69
31.65
31.83
33.56
36.55
39.77
41.8
41.33
37.71
31.29
23.33
15.67
10.04
7.52
8.1
10.85
14.33
17.3
19.17
19.99
20.07
19.5
18.07
15.54
12.03
8.19
4.72
1.96
-0.46
-3.39
-7.47
-12.44
-16.96
-18.92
-16.23
-7.65
6.7
25.16
44.68
61.4
71.62
72.83
64.65
49.18
30.45
13.29
1.68
-2.51
-0.14
5.75
11.24
13.12
9.86
1.7
-9.68
-21.76
-31.71
-36.82
-35.19
-26.6
-13.01
1.67
12.76
16.65
12.22
1.31
-12.34
-24.76
-33.5
-38.01
-39.04
-37.42
-33.59
-27.8
-20.88
-14.41
-10.12
-8.78
-9.51
-10.22
-9.17
-6.44
-4.54
-7.37
-18.21
-37.83
-63.86
-91.73
-116.52
-134.59
-144.16
-144.85
-136.97
-121.17
-98.66
-71.58
-42.81
-15.33
8.64
28.2
43.62
55.73
65.45
73.88
82.53
93.53
109.19
130.89
158.24
188.69
218.28
242.9
259.62
267.23
266.2
258.25
245.67
230.96
216.36
203.56
193.19
184.57
175.71
163.74
145.69
119.4
84.41
42.16
-4.04
-49.77
-90.49
-122.57
-143.91
-154.37
-155.57
-150.51
-142.96
-136.44
-133.24
-133.64
-135.91
-137.09
-134.42
-126.5
-113.65
-97.43
-79.83
-62.69
-47.64
-36.32
-30.11
-29.36
-32.35
-35.04
-32.25
-19.7
3.45
33.41
62.54
82.01
85.24
70.53
41.54
5.72
-28.57
-54.73
-69.47
-72.77
-67.05
-55.89
-43.11
-32.12
-25.36
-23.68
-26.06
-29.69
-30.92
-26.63
-15.6
0.96
19.9
37.42
50.52
57.88
59.88
58.03
54
49.07
44.03
39.48
36.14
34.74
35.39
36.87
36.38
30.19
15.27
-9.01
-39.98
-72.35
-100.1
-118.79
-127.2
-127.45
-123.74
-120.34
-119.93
-122.83
-127.33
-130.67
-130.1
-123.56
-110.11
-90.26
-66.27
-41.86
-21.35
-8.25
-3.85
-6.45
-11.97
-15.61
-13.86
-5.99
5.77
17.53
25.75
28.98
28.44
27.43
29.7
37.76
51.96
70.41
89.89
107.05
119.37
125.59
125.41
119.07
107.17
90.86
71.97
52.75
35.27
20.65
8.64
-1.94
-12.2
-22.24
-30.75
-35.44
-34.2
-26.11
-11.99
5.92
24.64
41.24
53.4
59.58
59.19
52.65
41.41
27.76
14.32
3.49
-3.07
-4.62
-1.37
5.76
15.38
25.92
35.98
44.45
50.67
54.29
55.05
52.85
48.11
42.41
38.57
39.83
48.13
62.58
78.96
91.08
93.35
83.33
62.77
36.57
10.37
-11.72
-28.3
-40.22
-49.35
-57.39
-65.52
-74.5
-84.78
-96.25
-107.83
-117.34
-122.12
-120.21
-111.17
-96.43
-78.63
-60.53
-44.23
-30.93
-21.24
-15.57
-14.22
-17.06
-23.26
-31.18
-38.84
-44.7
-48.34
-50.68
-53.49
-58.53
-66.4
-76.17
-85.57
-91.97
-93.42
-89.45
-81.01
-69.86
-57.8
-46.16
-35.74
-27.03
-20.43
-16.26
-14.45
-14.19
-13.8
-11.28
-4.96
5.73
20.04
36.4
53.47
70.85
89.24
109.82
133.27
159.04
185.06
208.07
224.19
229.71
222
200.51
167.49
127.99
88.75
56.16
33.92
21.73
15.66
10.14
0.51
-15.13
-35.55
-57.43
-77.08
-91.84
-100.61
-103.6
-101.54
-94.87
-83.37
-66.56
-44.55
-19
6.67
28
41.19
44.95
41.24
34.55
29.85
30.29
35.71
43.08
48.18
47.8
41.21
30.24
18.15
7.92
1
-2.99
-5.66
-8.78
-13.46
-19.87
-27.55
-35.99
-44.94
-54.26
-63.75
-72.9
-80.96
-87.1
-90.48
-90.19
-85.22
-74.82
-59.37
-40.99
-23.37
-10.68
-5.77
-8.74
-16.85
-25.74
-31.39
-31.5
-25.88
-15.6
-2.09
13.33
29.08
42.8
51.41
52.01
43.06
25.35
2.01
-22.62
-44.38
-60.52
-70.37
-75.12
-77.13
-78.86
-82.13
-87.48
-94.19
-100.55
-104.54
-104.49
-99.5
-89.52
-75.07
-56.97
-35.92
-12.54
12.45
38
62.54
84.04
100.23
109.15
109.62
101.86
87.67
70.31
53.73
41.26
34.47
32.42
31.99
29.23
21.08
6.86
-11.28
-29.06
-41.68
-45.56
-39.65
-25.79
-8.02
8.76
20.32
24.44
21.48
13.87
5.28
-0.72
-1.76
2.87
12.22
24.08
35.55
43.73
46.33
42.13
31.31
15.42
-2.94
-20.62
-34.53
-42.3
-43.01
-37.66
-29.14
-21.48
-18.57
-22.54
-32.95
-47.04
-61.05
-71.75
-77.54
-78.29
-74.67
-67.26
-56.45
-43.04
-28.77
-16.22
-7.86
-4.67
-5.57
-8.01
-9.52
-9.23
-8.48
-9.91
-15.77
-26.4
-39.83
-52.64
-61.44
-64.05
-59.74
-48.86
-32.22
-10.97
13.15
37.45
58.41
72.5
77.17
71.93
58.71
41.43
24.68
12.05
4.74
1.22
-2.04
-8.8
-21.23
-38.76
-58.5
-76.58
-90
-97.7
-100.38
-99.49
-96.13
-90.84
-84.19
-77.49
-72.96
-72.91
-78.48
-88.66
-100.3
-108.96
-110.25
-101
-79.7
-46.15
-1.02
54.15
116.87
183.27
248.29
306.63
354.25
389.5
413.08
426.84
431.8
427
409.72
377.25
329.26
269.06
203.09
138.9
82.57
37.06
2.16
-24.4
-45.25
-62.31
-76.51
-88.07
-96.95
-103.23
-107.12
-108.92
-109.1
-108.25
-107.04
-106.15
-106.16
-107.45
-110.11
-113.94
-118.22
-121.76
-122.92
-119.97
-111.55
-97.25
-77.77
-54.87
-30.8
-7.6
13.34
31.49
46.88
59.7
69.83
76.76
79.76
78.29
72.29
62.3
49.31
34.47
18.88
3.49
-10.86
-23.42
-33.67
-41.32
-46.6
-50.08
-52.52
-54.56
-56.51
-58.3
-59.62
-60.19
-59.93
-59.04
-57.96
-57.19
-57.11
-57.87
-59.37
-61.3
-63.22
-64.6
-64.97
-64.05
-61.81
-58.49
-54.46
-49.95
-45.01
-39.6
-33.9
-28.54
-24.41
-22.36
-22.73
-25.08
-28.43
-31.83
-34.79
-37.37
-39.86
-42.39
-44.72
-46.44
-47.37
-47.62
-47.26
-45.97
-42.79
-36.73
-27.59
-16.63
-6.33
0.81
3.72
3.58
3.49
7.09
16.76
32.65
52.8
74.43
95.58
116.09
137.73
163.14
194.16
230.73
270.54
309.77
344.36
370.95
387.17
391.06
380.49
353.37
308.7
248.01
176.23
101.09
31.09
-26.82
-69.07
-95.65
-109.15
-113.25
-111.64
-107.62
-103.95
-102.65
-104.5
-108.89
-113.87
-116.88
-115.81
-110.11
-101.53
-93.99
-92.6
-101.56
-121.94
-150.48
-180.12
-202.51
-211.12
-203.63
-182.37
-152.63
-119.99
-88.35
-59.4
-33.51
-11.11
6.88
19.52
26.82
30.3
32.44
35.54
40.7
47.39
53.95
58.51
59.78
57.31
51.43
42.87
32.53
21.39
10.41
0.43
-8
-14.74
-20.09
-24.41
-27.72
-29.45
-28.53
-24.02
-15.86
-5.29
5.51
14.34
19.94
22.49
23.19
23.43
23.86
24.1
23.09
19.93
14.56
7.79
0.99
-4.64
-8.34
-9.69
-8.4
-4.23
2.77
11.87
21.63
30.02
35.02
34.91
28.79
16.86
0.68
-16.65
-31.01
-38.4
-36.58
-26.27
-11.13
3.79
14.35
19.23
20.11
20.18
21.84
24.98
26.92
24.03
13.79
-3.74
-25.73
-47.63
-64.88
-74.17
-74.27
-66.2
-52.82
-38.04
-25.78
-18.87
-18.12
-22.2
-28.2
-32.82
-33.69
-30.22
-23.54
-15.84
-9.35
-5.56
-4.95
-6.91
-9.99
-12.1
-11.04
-5.21
5.54
19.46
33.09
42.31
43.95
37.11
23.69
7.68
-6.41
-15.16
-17.3
-13.72
-6.56
1.86
9.93
16.97
23
28.29
33.11
37.72
42.52
47.92
53.99
59.85
63.67
63.16
56.72
44.47
28.58
12.44
-0.7
-9.16
-13.32
-14.94
-15.92
-17.13
-17.99
-17.01
-12.79
-4.91
5.83
17.81
29.38
39.52
47.94
54.7
59.52
61.37
58.72
50.35
36.27
18.24
-0.71
-17.38
-29.69
-37.45
-42.17
-46.05
-50.83
-56.89
-63.31
-68.45
-70.94
-70.27
-66.9
-61.88
-56.12
-50.1
-43.82
-37.19
-30.36
-23.8
-18.17
-13.9
-11.04
-9.07
-7.28
-4.95
-1.63
2.74
7.86
13.19
18.17
22.34
25.56
27.94
29.82
31.56
33.37
35.25
36.96
38.18
38.62
38.08
36.43
33.55
29.41
24.04
17.66
10.73
3.81
-2.52
-7.81
-11.74
-14.1
-14.71
-13.41
-10.14
-5.11
1.17
7.94
14.42
20.05
24.69
28.55
31.99
35.26
38.34
40.91
42.53
42.73
41.14
37.56
31.86
24.03
14.27
2.97
-9.19
-21.3
-32.45
-41.91
-49.34
-54.82
-58.77
-61.7
-64.03
-65.98
-67.61
-68.87
-69.8
-70.55
-71.26
-71.98
-72.51
-72.37
-71.01
-67.98
-63.2
-56.95
-49.82
-42.4
-35.15
-28.18
-21.45
-14.91
-8.77
-3.44
0.54
2.86
3.62
3.36
2.87
2.83
3.46
4.43
5
4.39
2.22
-1.35
-5.53
-9.41
-12.18
-13.6
-13.96
-13.85
-13.86
-14.27
-14.82
-14.64
-12.23
-5.67
6.76
25.68
49.64
74.86
96.09
108.5
109.73
101.05
86.84
72.81
63.83
62.49
68.93
81.46
97.41
113.67
126.93
134.1
133.16
124.1
109.26
92.48
77.54
66.4
58.55
51.58
42.75
30.44
14.76
-2.76
-20.12
-35.62
-48.26
-57.59
-63.53
-66.25
-66.26
-64.58
-62.57
-61.67
-62.89
-66.44
-71.74
-77.55
-82.44
-85.19
-85.12
-82.18
-76.8
-69.72
-61.69
-53.29
-44.79
-36.28
-27.82
-19.7
-12.53
-7.01
-3.56
-1.9
-0.98
0.62
3.89
8.78
14.04
17.76
18.21
14.64
7.69
-0.75
-8.11
-11.83
-10.07
-2.28
10.51
25.84
40.28
50.58
54.7
52.61
46.17
38.34
31.94
28.59
28.3
29.55
29.95
27.03
19.11
6.12
-10.13
-26.23
-38.31
-43.37
-40.53
-31.46
-19.78
-9.67
-4.36
-5.13
-11.13
-19.92
-28.1
-32.05
-28.58
-15.81
5.99
33.88
62.56
85.84
98.51
98.32
86.6
67.61
46.72
28.43
15
6.29
0.58
-4.29
-9.84
-16.67
-24.51
-32.7
-40.49
-47.2
-52.23
-55.07
-55.53
-54
-51.4
-49
-47.72
-47.57
-47.58
-46.31
-42.76
-37.2
-31.01
-25.92
-22.95
-21.77
-21.18
-19.99
-17.84
-15.16
-12.59
-10.2
-7.38
-3.27
2.48
9.38
16.42
22.88
28.76
34.67
41.06
47.44
52.11
52.87
48.08
37.58
22.91
6.79
-7.96
-19.29
-26.57
-30.45
-32.36
-33.9
-36.32
-40.18
-45.3
-50.97
-56.05
-59.28
-59.56
-56.15
-48.97
-38.53
-25.87
-12.22
1.29
13.82
24.76
33.63
40.03
43.65
44.56
43.35
41.01
38.57
36.69
35.5
34.76
34.23
33.94
34.14
35.02
36.26
37.03
36.29
33.46
29.01
24.63
22.77
25.58
33.7
45.52
57.44
65.12
65.27
57.03
42.4
25.21
9.45
-1.99
-7.97
-8.5
-3.88
5.8
20.32
38.44
57.37
73.2
82.27
82.68
75.17
62.62
48.66
36.1
25.94
17.58
9.69
1.28
-7.81
-17.16
-26.41
-35.81
-46.21
-58.47
-72.76
-88.27
-103.43
-116.65
-126.99
-134.42
-139.64
-143.37
-145.82
-146.7
-145.5
-142.2
-137.44
-132.36
-127.8
-123.68
-118.92
-111.88
-101.33
-87.12
-70.1
-51.39
-31.69
-11.03
10.66
32.81
53.8
71.5
84.4
92.5
97.21
100.38
102.83
103.56
100.31
91.02
75.41
55.5
34.79
16.65
2.88
-6.78
-13.84
-19.88
-25.55
-30.31
-32.99
-32.71
-29.47
-24.3
-18.83
-14.58
-12.46
-12.48
-13.94
-15.8
-17.04
-16.89
-14.84
-10.4
-3.04
7.8
22.3
39.91
59.2
78.07
94.29
106.15
112.88
114.71
112.48
107.21
99.86
91.28
82.37
74.12
67.51
63.08
60.68
59.2
56.87
51.72
42.38
28.69
11.91
-5.63
-21.31
-33.12
-40.38
-43.95
-45.65
-47.4
-50.43
-54.9
-60.22
-65.69
-71.11
-76.85
-83.42
-90.75
-97.85
-102.9
-103.9
-99.45
-89.03
-72.84
-51.6
-26.42
0.86
27.54
50.17
65.34
70.83
66.58
54.64
38.25
20.39
2.73
-14.19
-30
-43.59
-53.05
-56.42
-52.95
-44.02
-32.82
-23.02
-16.68
-13.06
-8.96
-0.56
14.64
36.16
60.45
82.24
94.63
92.26
73.83
42.7
5.52
-29.89
-56.37
-69.39
-66.03
-46.08
-12.78
27.22
65
91.13
99.5
89.63
66.8
40.01
18.07
6.83
7.28
16.08
27.53
36.34
39.96
39.68
40.32
47.97
67.13
98.03
135.49
169.9
190.21
187.64
158.52
105.47
36.17
-39.09
-110.02
-168.23
-207.93
-225.92
-221.21
-194.87
-150.1
-92.44
-29.43
30.47
79.73
113.68
131.66
136.81
133.86
126.4
114.72
95.76
65.25
21
-34.86
-95.36
-150.77
-191.9
-212.86
-212.27
-192.34
-156.99
-110.2
-55.32
4.35
64.53
119.49
162.81
189.34
197.08
188.05
167.24
140.42
111.89
83.46
55.06
26.24
-2.58
-30
-54.44
-74.91
-90.96
-101.98
-106.57
-103.06
-91.03
-72.54
-52.02
-34.6
-23.68
-19.71
-20.71
-24.07
-28.11
-32.28
-35.93
-37.1
-32.6
-19.49
2.82
31.49
61.23
86.59
104.17
113.43
115.64
112.21
103.52
89.15
68.91
43.87
16.49
-10.14
-33.28
-51.47
-64.57
-73.45
-79.29
-83.14
-85.66
-87.3
-88.44
-89.62
-91.46
-94.35
-98.09
-101.65
-103.34
-101.38
-94.75
-83.65
-69.43
-53.9
-38.38
-23.27
-8.31
6.62
20.77
32.36
39.37
40.55
35.99
27.19
16.26
5.21
-4.36
-10.99
-13.06
-8.71
3.46
23.34
48.74
75.56
99
115.02
121.4
117.95
106.01
87.62
64.89
39.78
14.17
-10.05
-31.02
-46.97
-56.4
-58.26
-52.23
-39.17
-21.29
-2.08
14.45
24.78
26.86
20.5
7.03
-11.3
-32.04
-52.72
-70.79
-83.57
-88.56
-84.25
-70.92
-51.03
-28.59
-7.96
7.5
16.08
17.55
12.55
2.02
-12.91
-30.73
-49.43
-66.91
-81.57
-92.98
-101.68
-108.51
-113.59
-115.9
-113.6
-105.13
-90.34
-70.78
-49.2
-28.4
-10.17
5.14
18.33
30.61
42.84
54.93
65.88
74.02
77.73
75.91
68.31
55.65
39.56
22.3
6.27
-6.56
-15.24
-20.03
-22.12
-22.91
-23.28
-23.07
-21.41
-17.25
-10.2
-0.93
9.07
18.18
25.26
30.04
32.97
35.04
37.72
43.22
54.37
73.95
103.18
140.12
178.9
210.7
226.39
220.03
191.32
145.84
92.91
42.33
1.26
-26.99
-42.66
-48.34
-47.57
-44.08
-41.25
-41.65
-46.52
-55.54
-67.12
-79.19
-90.16
-99.41
-107.15
-113.88
-119.85
-124.78
-128.06
-128.95
-126.78
-120.9
-110.65
-95.62
-76.2
-54.3
-33.58
-18.69
-13.32
-18.05
-29.2
-39.59
-41.52
-30.39
-7.17
21.73
47.28
62.03
63.15
52.95
36.93
20.57
6.97
-3.76
-13.37
-23.8
-36.02
-49.87
-64.58
-79.33
-93.48
-106.34
-116.98
-124.21
-126.67
-123.12
-112.32
-92.92
-63.57
-23.21
28.46
90.76
161.97
239.35
319.01
395.76
463.14
514.45
544.34
550.51
534.46
500.58
454
398.45
335.71
266.74
193.66
120.82
53.91
-2.27
-45.98
-79.11
-105.62
-129.05
-150.68
-169.52
-183.56
-191.53
-193.7
-191.23
-185.25
-175.99
-163.03
-146.23
-126.65
-106.52
-88.51
-74.74
-66.18
-62.78
-63.93
-68.87
-76.91
-87.17
-98.66
-110.51
-122.34
-134.34
-146.92
-159.85
-171.77
-180.12
-181.78
-174.15
-156.04
-128.27
-93.45
-55.54
-18.85
12.94
37.55
54.43
64.42
68.84
68.71
64.27
55.29
41.79
24.81
6.52
-10.39
-23.71
-32.62
-38.08
-42.33
-47.84
-55.99
-66.16
-75.63
-80.65
-78.15
-67.55
-51.38
-34.58
-22.53
-18.69
-23.33
-33.79
-46.05
-56.58
-63.44
-66.31
-65.6
-61.7
-54.8
-45.46
-35.07
-25.74
-19.55
-17.3
-18.06
-19.57
-19.73
-18.02
-15.96
-16.22
-20.99
-30.52
-42.81
-54.56
-62.64
-65.05
-61.01
-50.14
-31.56
-3.58
35.77
87.86
152.57
227.65
308.64
389.25
462.32
521.3
561.45
580.74
579.75
560.62
525.84
477.42
416.89
345.86
266.69
182.72
98.07
17.09
-56.11
-117.95
-165.75
-198.1
-215.41
-219.92
-215.24
-205.38
-193.86
-183.19
-174.91
-169.97
-168.93
-171.7
-177.06
-182.25
-183.33
-176.37
-159
-131.64
-97.8
-63.11
-33.57
-13.73
-5.68
-8.8
-20.36
-36.34
-52.42
-64.85
-71.26
-71.06
-65.49
-56.82
-47.28
-38.11
-29.33
-20.46
-11.68
-4.64
-2.05
-6.36
-18.02
-34.63
-51.5
-63.4
-66.72
-60.63
-47.16
-29.91
-12.66
1.67
11.35
15.59
14.54
9.4
2.54
-2.79
-3.5
2.11
13.35
27.17
39.34
46.29
46.58
41.37
33.72
27.08
23.87
24.69
28.57
33.62
37.81
39.41
37.08
29.77
16.92
-0.99
-21.93
-42.14
-57.07
-62.84
-57.88
-43.78
-24.89
-6.8
5.82
10.83
9.13
3.76
-1.63
-4.25
-2.94
2.09
9.93
19.57
30.09
40.47
49.34
55.28
57.38
55.92
52.5
49.43
48.38
49.28
50.2
48.18
40.93
28.19
12.17
-3.31
-14.43
-18.84
-16.53
-9.56
-1.07
5.82
8.85
6.84
-0.34
-11.95
-26.47
-41.64
-54.84
-63.67
-66.74
-64.11
-57.34
-48.8
-40.55
-33.47
-26.97
-19.59
-10.06
1.76
14.6
26.26
34.72
38.8
38.47
34.59
28.32
20.7
12.54
4.59
-2.58
-8.54
-13.19
-16.47
-17.98
-16.64
-10.68
1.71
21.4
47.6
77.81
108.47
135.99
157.64
172.02
178.99
179.28
173.84
163.35
147.96
127.44
101.6
70.87
36.68
1.36
-32.35
-62.11
-86.53
-105.13
-118.13
-125.94
-129
-127.89
-123.61
-117.64
-111.56
-106.54
-102.87
-100.09
-97.34
-93.98
-90
-85.92
-82.54
-80.33
-79.24
-78.65
-77.68
-75.66
-72.56
-69.05
-66.24
-65.13
-66.03
-68.3
-70.54
-71.34
-70.06
-67.19
-64.21
-62.84
-64.25
-68.55
-74.94
-82.17
-89.14
-95.07
-99.32
-101.19
-99.9
-95.21
-87.81
-79.51
-72.52
-68.22
-66.09
-63.48
-56.7
-42.73
-20.8
7.17
37.47
66.28
90.98
110.53
124.8
133.54
136.13
132.09
122
108.23
94.42
84.31
80.2
82.23
88.68
97.06
105.32
112.41
118.08
122.02
123.51
121.25
113.97
101.2
83.57
62.79
40.9
19.54
-0.4
-18.68
-35.21
-49.49
-60.62
-67.68
-70.55
-70.37
-69.3
-69.7
-72.96
-78.79
-85.12
-89.08
-88.1
-80.97
-68.27
-51.98
-34.61
-18.22
-3.68
9.59
23.3
39.57
60
85
113.43
142.75
169.48
189.79
200.28
198.51
183.51
155.97
118.19
73.62
26.39
-19.19
-58.86
-88.77
-105.9
-108.7
-97.71
-75.73
-47.35
-17.74
8.56
28.69
41.44
46.82
45.4
37.88
25.28
9.17
-8.35
-25.1
-39.5
-51.21
-60.98
-69.81
-77.95
-84.23
-86.7
-84.05
-77.03
-68.87
-64
-65.84
-74.85
-88.13
-100.71
-107.85
-106.9
-97.89
-82.83
-64.29
-44.49
-25.06
-7.44
6.81
16.23
20.21
19.8
17.73
17.54
22.16
32.55
47.14
62.49
74.85
81.71
82.84
80.02
75.95
72.67
70.6
68.63
65.05
58.53
48.75
36.39
22.53
8.42
-4.7
-15.32
-21.58
-21.62
-14.19
0.42
20
40.64
57.89
68.43
71.17
67.63
60.94
54.21
48.97
44.61
38.85
29.24
14.5
-4.68
-25.8
-45.36
-59.84
-66.57
-64.19
-53.08
-35.43
-14.94
3.91
17.24
23.09
22.03
16.79
10.98
7.54
7.71
10.95
15.57
19.68
21.81
21.11
17.3
10.65
1.93
-7.57
-16.2
-22.42
-25.35
-25.09
-22.73
-19.86
-18.02
-18.17
-20.4
-24.03
-27.95
-31.04
-32.48
-32.08
-30.31
-28.1
-26.58
-26.74
-29.03
-33.17
-38.19
-42.61
-44.99
-44.34
-40.48
-34.09
-26.42
-18.83
-12.34
-7.42
-3.99
-1.62
0.04
1.17
1.66
1.3
0.04
-1.91
-4.1
-5.95
-7
-7.17
-6.64
-5.86
-5.24
-4.86
-4.35
-3.04
-0.43
3.29
6.97
8.64
6.21
-1.58
-14.53
-30.97
-48.45
-64.37
-76.34
-82.14
-79.61
-67.21
-45.12
-16.14
14.3
39.69
55.05
59.11
54.84
47.56
41.98
39.69
38.72
35.18
26.15
11.45
-6.43
-23.83
-37.85
-47.27
-52.26
-53.38
-50.79
-44.38
-34.65
-23.56
-14.29
-10.14
-13.01
-22.27
-34.95
-46.81
-53.92
-53.94
-46.66
-33.54
-17.12
-0.2
14.6
24.91
28.78
24.9
13.15
-5.02
-26.49
-47.19
-63.05
-71.19
-70.76
-63.02
-50.78
-37.24
-24.96
-15.16
-7.72
-1.64
4.24
10.8
18.56
27.99
39.84
55.14
74.65
97.99
123.02
146.04
162.73
169.79
166.11
153.06
133.69
111.35
88.57
66.73
46.49
28.35
12.91
0.56
-9.16
-17.95
-28.33
-42.46
-60.62
-80.84
-99.53
-112.87
-118.34
-115.5
-105.83
-91.8
-75.89
-59.16
-41.75
-23.49
-4.57
14.25
31.78
47
59.55
69.63
78.99
89.63
102.84
118.64
135.69
151.64
163.94
170.64
170.53
165.07
157.06
149.69
145.63
146.56
152.92
164.01
178.29
185.34
176.18
145.46
94.31
30.7
-33.79
-88.17
-124.73
-138.54
-131.44
-106.35
-67.53
-21.32
24.63
62.86
87.77
93.48
79.45
49.2
7.57
-36.02
-71.8
-93.4
-99.73
-94.5
-83.48
-71.27
-61.44
-55.46
-53.18
-53.98
-56.9
-60.87
-65.6
-71.86
-80.61
-93.45
-111.73
-136.33
-168.39
-209.08
-253.28
-294.89
-326.55
-340.14
-330.43
-297.5
-247.43
-190.81
-138.66
-99.78
-74.36
-59.55
-51.09
-45.62
-41.47
-38.13
-35.47
-32.94
-29.52
-24.55
-20.05
-17.44
-17.37
-19.46
-22.09
-23.28
-21.53
-16.68
-10.17
-4.53
-1.36
-0.56
-0.13
3.04
11.64
26.63
46.67
68.55
88.64
105.14
118.82
132.87
151.67
179.12
216.86
263.22
312.91
357.49
387.19
393.34
371.34
323.35
259.12
194.15
144.94
122.96
129.94
157.1
188.59
208.1
205.33
179.43
137.87
91.83
50.92
19.86
-1.68
-16.54
-27.24
-34.56
-38.34
-39.53
-41.69
-50.7
-72.23
-108.19
-154.36
-200.42
-232.94
-240.47
-218.13
-169.83
-106.82
-43.39
8.46
42.57
59.15
62.45
57.47
47.6
34.36
18.69
2.25
-12.6
-23.65
-30.2
-33.23
-34.79
-36.89
-40.45
-45.31
-50.6
-55.49
-59.53
-62.87
-66.19
-70.44
-76.59
-85.35
-96.78
-109.96
-122.76
-131.86
-133.09
-122.27
-96.56
-55.87
-3.95
51.5
100.45
133.66
146.03
138.65
118.42
95.26
78.1
71.66
75.07
83.38
90.42
91.8
86.54
76.52
64.51
51.92
37.98
20.57
-1.68
-27.65
-53.82
-75.81
-90.67
-98.49
-102.16
-105.62
-111.6
-120.18
-129.09
-135.29
-136.8
-133.66
-127.24
-118.83
-108.21
-93.83
-74.2
-50.11
-25.95
-8.77
-5.47
-19.68
-49.76
-89.15
-128.7
-159.69
-176.5
-177.92
-166.97
-149.44
-131.71
-118.33
-110.41
-105.34
-97.84
-82.24
-54.75
-14.38
37.45
98.39
166.11
238.21
310.95
378.32
432.43
465.48
472.33
452.28
408.85
348.17
276.29
197.03
111.66
20.17
-76.06
-172.07
-258.61
-324.19
-358.96
-358.85
-327.58
-275.27
-214.24
-154.23
-99.32
-48.67
0.58
49.67
96.47
136.28
164.12
177
174.82
159.98
136.45
109.03
83.01
63.62
54.88
58.36
72.37
92.43
112.94
129.15
138.89
142.8
143.68
144.74
148.08
153.6
158.92
160.32
154.32
139.45
117.07
91.07
66.46
47.31
35.46
30.19
29.1
29.59
29.77
28.43
24.14
14.45
-3.73
-32.59
-71.38
-115.33
-156.57
-186.77
-200.35
-196.41
-178.48
-152.44
-123.83
-96.31
-71.68
-51.01
-35.65
-27.44
-27.71
-36.15
-50.36
-66.43
-80.21
-88.78
-91.12
-87.94
-80.89
-71.68
-61.55
-51.38
-42.05
-34.59
-29.95
-28.36
-28.83
-29.23
-27.13
-20.93
-10.69
1.98
14.96
26.92
38.13
50.19
64.86
82.91
103.46
124.37
143.15
157.67
166.46
168.46
162.65
148.11
124.43
92.35
54.07
13.08
-26.71
-61.84
-90.16
-111.19
-126
-136.66
-145.48
-154.26
-163.94
-174.49
-185.23
-195.24
-203.76
-210.36
-214.92
-217.55
-218.81
-219.68
-221.61
-226.11
-233.97
-244.61
-255.89
-264.86
-269.14
-268.13
-263.36
-257.71
-253.78
-252.61
-252.83
-251.04
-242.84
-224.11
-192.13
-146.58
-90.23
-28.83
30.01
79.13
114.44
136.75
151.48
166.65
189.75
225.07
272.68
329.19
389.11
446.27
494.76
529.54
547.28
547.46
533.07
509.97
484.71
461.76
441.51
420.16
391.78
351.15
295.98
227.44
149.24
66.05
-17.36
-96.42
-166.58
-223.57
-264.2
-287.29
-293.91
-286.73
-268.81
-242.82
-211.26
-177.17
-144.77
-118.89
-103.79
-101.66
-112.11
-132.62
-159.41
-188.02
-213.27
-229.17
-229.81
-211.01
-172.39
-118.26
-56.66
3.39
54.76
94.09
121.43
138.39
146.13
144.31
131.74
107.71
73.3
31.63
-12.88
-55.68
-92.92
-121.93
-141.38
-151.31
-153.12
-149.11
-141.89
-133.44
-124.59
-115.17
-104.64
-92.97
-80.83
-69.09
-57.88
-46.12
-31.68
-12.27
13.79
47.25
87.9
134.81
185.83
237.31
284.23
321.47
345.67
356.79
358.14
354.45
349.1
341.75
328.18
302.1
258.18
194.63
114.36
24.36
-65.93
-146.53
-208.54
-245.36
-253.69
-234.45
-193.13
-139.23
-84.33
-39.39
-11.97
-4.66
-15.04
-37.26
-64.42
-90.76
-112.91
-129.9
-142.38
-151.39
-157.54
-160.73
-160.21
-155.13
-145.14
-130.88
-114.04
-97.14
-82.93
-73.7
-70.54
-72.77
-77.85
-81.89
-80.95
-72.45
-56.43
-35.77
-15.14
0.86
9.61
11.6
10.05
9.43
13.49
23.87
39.78
58.75
77.67
93.74
104.61
108.5
104.27
91.87
72.87
50.67
29.85
14.55
6.82
5.6
7.19
6.93
1.27
-10.6
-26.68
-43.18
-56.24
-63.22
-63.37
-57.42
-47.05
-34.18
-20.6
-7.9
2.56
9.61
12.48
10.95
5.54
-2.47
-11.33
-19.18
-24.56
-26.76
-25.98
-23.04
-19.03
-14.84
-10.92
-7.33
-3.93
-0.75
1.78
2.83
1.29
-3.83
-13.09
-26.31
-42.49
-60.15
-77.92
-95.02
-111.52
-127.76
-143.4
-156.62
-164.13
-162.12
-147.79
-120.36
-81.11
-32.41
23.35
84.14
147.68
210.54
267.87
314.7
348.08
369.02
382.3
394.06
408.24
423.82
434.74
432.46
409.84
364.14
297.88
217.51
131.05
46.08
-31.16
-95.78
-144.06
-173.6
-184.04
-177.61
-159.09
-134.7
-110.45
-90.77
-77.64
-70.82
-68.46
-68.09
-67.49
-65.5
-62.39
-59.78
-59.98
-64.9
-75.29
-90.17
-107.25
-123.6
-136.46
-143.89
-144.8
-138.95
-126.86
-109.85
-89.94
-69.63
-51.19
-36.02
-24.33
-15.45
-8.49
-2.88
1.34
3.99
5.34
6.34
8.32
12.37
18.62
26.11
33.31
38.79
42.01
43.56
44.77
46.99
50.89
56.08
61.42
65.67
67.9
67.38
63.17
53.8
37.74
14.58
-13.77
-42.81
-66.61
-80.26
-82.07
-74.54
-63.34
-54.56
-52.03
-56.08
-64.09
-72.58
-79.17
-83.31
-85.7
-86.9
-86.12
-81.24
-69.76
-50.17
-22.75
10.34
46.11
81.83
115.82
147.5
176.72
203.11
225.76
243.69
256.67
265.82
273.41
281.49
290.37
297.43
297.59
285.32
257.24
214.12
160.87
104.57
51.55
5.08
-34.9
-70.17
-101.87
-129.07
-149.14
-159.51
-159.63
-151.84
-140.41
-129.77
-122.62
-119.25
-117.97
-116.22
-111.85
-103.81
-92.35
-78.77
-65
-52.93
-43.78
-37.74
-33.97
-31.27
-28.81
-26.75
-26.12
-28.2
-33.69
-42.4
-53.42
-65.74
-78.47
-90.61
-100.39
-105.07
-101.51
-87.67
-63.97
-33.73
-2.05
26.17
48.1
63.49
73.56
79.26
79.96
73.61
58.29
33.93
3.22
-29.05
-57.66
-78.78
-90.99
-95.29
-94.27
-91.05
-88.11
-86.69
-86.85
-88.05
-90.04
-93.13
-97.45
-101.68
-102.2
-94.05
-73.42
-40.43
-0.41
37.8
65.61
78.58
78.06
69.83
60.66
55.19
54.68
57.92
62.8
67.27
69.03
65.04
51.97
27.87
-5.83
-43.38
-76.09
-95.45
-96.55
-79.96
-51.31
-18.63
10.85
32.98
47.25
55.65
60.79
64.24
65.9
64.33
57.94
46.01
29.06
8.71
-13.08
-34.51
-54.24
-71.5
-86.19
-98.14
-106.93
-111.94
-112.53
-108.67
-101.12
-91.55
-82.33
-76.37
-75.51
-79.76
-87.57
-96.68
-105.76
-114.83
-124.73
-135.86
-147.59
-156.68
-158.26
-147.98
-124.06
-88.78
-47.37
-6.23
33.27
68.35
97.06
118.86
134.02
146.12
157.71
169.01
177.37
179.1
170.49
150.47
121.16
87.14
54.37
28.6
15.01
17.39
36.77
69.21
106.49
138
154.69
153.25
137.56
117.25
103.09
101.98
113.63
131.93
148.36
155.49
149.2
128.41
94.4
50.26
0.77
-47.94
-88.94
-116.21
-126.51
-119.94
-99.76
-71.01
-39.07
-8.78
15.86
31.72
36.72
30.03
12.53
-13.21
-43.27
-73.28
-99.65
-120.45
-135.76
-146.99
-155.78
-162.82
-167.48
-168.12
-163.12
-151.9
-135.55
-116.72
-99.08
-86.38
-81.31
-84.63
-94.64
-107.35
-117.65
-120.85
-114.2
-97.45
-72.53
-42.26
-9.1
25.52
61.11
97.68
135.28
173.84
213.22
252.99
291.85
326.91
353.62
366.57
361.31
336.2
293.19
237.48
175.68
113.92
56.4
5.25
-38.63
-74.43
-100.85
-116.53
-121.18
-116.38
-105.55
-92.79
-81.51
-73.25
-67.45
-61.82
-53.58
-41.03
-24.95
-8.95
1.73
2.68
-7.13
-24.36
-42.62
-55.57
-60.13
-57.91
-53.99
-54.02
-61.46
-76.4
-96.39
-118.07
-138.23
-153.68
-160.7
-154.86
-132.08
-90.45
-31.78
38.15
110.8
176.83
228.29
259.98
270.17
260.45
235.05
199.69
160.4
122.29
88.72
60.98
38.5
19.53
2.2
-14.53
-30.48
-44.44
-54.91
-60.96
-62.63
-60.9
-57.17
-52.83
-49.02
-46.7
-46.71
-49.37
-53.86
-57.63
-56.7
-46.83
-25.19
8.25
50.52
96.78
141.9
181.92
214.46
238.28
252.38
255.69
247.24
226.81
195.55
156.06
111.9
66.9
24.35
-13.74
-46.98
-76.77
-105.78
-136.76
-170.99
-207.2
-241.55
-268.96
-285.35
-289.47
-283.43
-271.43
-257.57
-243.87
-229.67
-212.78
-191.54
-166.49
-140.37
-116.58
-97.14
-81.53
-67.39
-52.57
-36.9
-22.62
-12.96
-9.87
-12.44
-17.27
-20.47
-20.24
-18.24
-18.93
-27.37
-46.22
-74.08
-105.5
-132.69
-148.17
-147.05
-128.24
-94.32
-50.49
-2.95
42.42
80.96
109.4
125.76
129.1
119.62
99.19
71.79
43.34
20.79
10.24
15.12
35.31
67.35
106.09
146.85
186.91
225.86
264.51
303.46
342.11
378.88
412.01
440.23
462.54
477.34
481.67
471.33
442.29
392.52
323.34
239.6
148.73
59.14
-21.38
-86.82
-133.76
-161.61
-172.58
-170.81
-161.13
-147.78
-133.8
-121.61
-113.79
-113.52
-123.79
-145.79
-177.54
-213.81
-247.81
-273.62
-288.13
-291.37
-285.43
-272.51
-253.81
-229.34
-198.87
-163.06
-124.06
-85.08
-49.72
-20.91
-0.36
11.43
14.57
9.54
-2.46
-18.85
-35.51
-47.55
-51.32
-46.5
-36.67
-27.76
-24.71
-28.32
-34.27
-35.12
-24.27
0.43
35.61
74.3
109.59
137.69
158.43
173.51
183.89
188.34
183.96
168.08
140.4
103.82
63.57
25.34
-6.64
-30.34
-45.7
-53.69
-55.45
-52.02
-44.55
-34.65
-24.36
-15.88
-10.9
-10.35
-14.18
-21.49
-30.7
-39.8
-46.73
-49.94
-48.97
-44.53
-38.39
-32.59
-28.8
-27.81
-29.4
-32.64
-36.31
-39.42
-41.57
-43
-44.42
-46.55
-49.78
-53.99
-58.56
-62.52
-64.9
-64.86
-61.8
-55.43
-45.9
-33.95
-20.9
-8.44
1.81
8.55
11.17
9.93
5.96
1.24
-1.86
-1.32
3.59
11.64
19.76
24.11
21.74
12.03
-2.69
-17.97
-28.87
-31.71
-24.92
-8.7
16.02
48.32
87.08
130.03
172.56
207.54
226.75
223.46
195.14
144.95
81.01
13.99
-46.1
-92.43
-122.44
-137.33
-140.57
-136.34
-128.41
-119.84
-113.08
-110.14
-112.06
-118.23
-125.79
-130.39
-128.05
-117.46
-101.23
-85.16
-76
-78.66
-94.41
-120.7
-152.4
-183.66
-209.46
-226.56
-233.63
-230.93
-219.64
-201.14
-176.25
-145.06
-107.17
-62.6
-12.44
41.19
96.04
150.99
206.85
265.98
330.78
401.51
474.91
544.12
600.49
636.28
647.17
633.35
598.64
548.33
486.89
417.05
340.53
259.74
178.85
103.45
38.52
-13.78
-55.01
-89.49
-121.69
-153.73
-184.16
-208.86
-222.91
-223.1
-209.17
-183.79
-151.21
-115.67
-80.36
-47.28
-17.8
6.49
23.47
30.7
26.37
10.4
-15.04
-45.77
-76.7
-103.45
-123.68
-137.47
-146.72
-153.71
-159.59
-163.47
-162.68
-154.05
-135.47
-107.18
-72.16
-35.25
-1.54
25.2
43.42
53.56
57.11
55.3
48.56
36.72
19.92
-0.47
-21.63
-39.93
-52.36
-58.08
-58.78
-57.78
-58.08
-60.47
-63.28
-63.84
-60.55
-54.23
-47.48
-42.64
-39.58
-35.14
-24.74
-5.16
23.3
56.55
88.7
114.92
133.28
144.63
150.8
152.57
148.9
137.83
118.1
90.59
58.51
26.17
-2.71
-26.45
-45.5
-61.45
-75.4
-86.98
-94.49
-95.97
-90.78
-80.42
-68.1
-57.42
-50.76
-48.38
-48.49
-48.42
-46.01
-40.58
-33.02
-25.11
-18.48
-13.93
-11.2
-9.36
-7.47
-5.08
-2.36
0.15
1.8
2.05
0.49
-3.05
-8.34
-14.48
-20
-23.28
-23.32
-20.22
-15.1
-9.41
-3.94
1.49
7.5
14.03
19.56
21.37
16.92
5.42
-11.34
-29.67
-45.61
-56.64
-62.46
-64.64
-65.49
-67.04
-70.54
-76.24
-83.56
-91.1
-96.9
-99.05
-96.35
-88.62
-76.4
-60.24
-40.06
-15.26
14.42
47.87
82.1
112.73
135.2
146.14
144.33
130.88
108.95
83.03
57.93
37.66
24.35
17.63
15.05
13.45
10.66
6.47
2.42
0.38
0.86
2.3
1.63
-4.16
-16.23
-33.13
-51.18
-65.96
-74.21
-75.09
-70.34
-63.36
-57.72
-55.75
-57.87
-62.67
-68.08
-72.77
-76.76
-81.03
-86.29
-91.9
-95.53
-94.28
-86.6
-73.95
-60.81
-52.24
-50.48
-53.17
-54.89
-51.11
-42.03
-32.67
-30.13
-38.66
-56.16
-74.3
-82.64
-74.32
-49.31
-13.32
27.28
69.11
112.34
157.9
204.14
245.3
273.24
281.36
264.54
225.54
175.37
128.42
94.91
76.65
68.54
64.07
59.51
54.82
52.18
53.26
57.26
61.03
61.11
55.77
45.78
33.78
22.87
14.72
9.11
3.62
-5.59
-22.22
-48.38
-83.91
-126.09
-167.35
-199.64
-215.52
-210.65
-186.06
-148.11
-106.29
-69.56
-43.12
-27.09
-18.1
-11.85
-6.01
-1.38
-0.52
-5.09
-14.25
-24.59
-31.66
-32.44
-26.28
-14.4
0.8
16.78
30.83
39.91
41.02
32.62
15.88
-4.45
-21.37
-29.02
-25.49
-13.87
-0.36
9.23
12.36
10.46
7.35
6.73
9.71
14.93
20.11
24.21
28.4
35.62
49.15
69.47
96.51
128.92
164.31
199.18
229.13
249.63
257.27
251.2
233.88
210.94
188.94
173.33
166.84
169
176.67
185.18
189.33
184.19
166.21
133.93
88.83
35.46
-19.38
-68.37
-105.83
-129.12
-139.23
-140.15
-137.63
-137.28
-142.71
-154.28
-168.96
-181.7
-187.51
-183.58
-169.89
-148.81
-123.62
-97.6
-73.88
-55.99
-47.74
-52.04
-69.19
-95.89
-126.16
-153.78
-174.66
-187.65
-193.19
-191.26
-180.4
-158.88
-126.97
-88.53
-50.32
-19.28
0.6
9.77
12.25
13.28
17.11
25.81
39.36
56.08
73.14
86.9
93.86
91.96
81.64
66.03
49.85
37.39
30.8
29.65
31.6
34.13
35.75
36.76
39.27
46.5
61.61
86.55
120.88
161.48
203.2
240.28
267.86
282.92
284.21
271.58
245.54
207.15
158.51
103
44.58
-13.64
-70.65
-127.48
-185.52
-243.86
-297.67
-338.8
-358.35
-350.14
-313.39
-253.17
-178.98
-101.99
-32.31
22.87
60.19
79.98
85.62
82.3
75.66
70.15
67.8
67.87
67.73
64.54
56.68
44.3
29.03
13.01
-1.5
-12.28
-16.95
-13.51
-1.4
17.23
37.13
51.16
53
39.76
13.33
-20.45
-54.27
-81.92
-99.86
-107.21
-105.02
-95.61
-82.24
-68.51
-57.36
-50.04
-45.62
-41.63
-35.63
-26.87
-16.83
-8.52
-4.98
-7.94
-17.47
-32.17
-49.69
-66.82
-79.61
-83.94
-76.72
-57.25
-27.88
6.73
41.28
71.63
95.59
112.42
121.62
122.06
112.04
90.48
58.34
19.3
-21.1
-57.39
-86.17
-107.27
-123.18
-137.3
-151.84
-166.22
-177
-179.14
-168.15
-141.97
-102.15
-53.5
-2.81
43.06
79.03
102.59
113.68
113.54
103.56
84.61
57.5
23.93
-12.67
-47.37
-74.99
-91.89
-97.13
-92.47
-81.09
-66
-48.96
-30.31
-9.65
13.48
39.07
67.07
97.32
129.5
162.75
194.99
222.44
239.89
241.94
225.05
189.55
140.52
87
39.7
8.26
-0.91
14.64
53.93
113.34
187.15
267.52
344.74
408.36
449.46
463.05
449.4
413.43
362.33
302.72
238.67
171.4
100.47
25.44
-52.35
-129
-198.25
-252.76
-286.18
-295.31
-281.49
-250.65
-211.88
-174.83
-147.33
-133.83
-135.29
-149.85
-173.96
-203.25
-233.14
-259.27
-277.94
-286.66
-284.59
-272.64
-253.36
-230.12
-206.27
-184.08
-164.03
-144.77
-123.8
-98.76
-68.81
-35.62
-3.31
22.77
38.06
40.8
32.91
19.46
6.5
-1.32
-2.52
1.19
6.55
11.07
14.78
19.98
29.71
45.93
68.73
97.11
130.41
169.01
213.47
262.5
311.47
352.89
379.18
386.33
376.09
355.19
331.79
311.06
292.41
269.97
235.93
185.13
118.16
41.57
-34.63
-100.87
-151.32
-185.12
-205.42
-217.23
-225.44
-233.9
-245.38
-261.79
-283.78
-309.93
-335.94
-355.26
-361.18
-349.81
-322.09
-283.85
-243.39
-208.21
-182.54
-166.77
-159.01
-157.26
-160.82
-170.05
-184.95
-203.59
-222
-235.65
-241.76
-240.75
-235.87
-230.95
-227.57
-223.59
-213.65
-191.75
-154.15
-101.01
-35.75
37.08
113.86
192.62
271.78
348.42
417.3
471.75
506.18
518.67
512.16
493.34
469.76
446.55
424.36
399.41
365.93
319.44
259.46
190.26
119.26
54.17
0.31
-40.46
-68.77
-85.8
-91.62
-85.35
-66.77
-38.2
-5.02
25.58
47.26
56.96
55.74
48
39.47
35.28
38.86
51.51
72.7
100.5
131.97
163.41
190.85
210.4
218.84
214.07
195.35
163.18
119.23
66.05
6.99
-53.88
-112
-162.73
-202.2
-228.26
-241.05
-242.71
-236.35
-224.78
-209.78
-192.11
-172.21
-150.66
-128.39
-106.7
-87.52
-73.68
-68.6
-74.93
-92.59
-117.4
-141.73
-157.43
-159.5
-148.35
-129.22
-108.96
-92.23
-79.3
-66.79
-50.33
-27.27
2.16
35.68
70.67
105.35
138.57
168.5
191.83
204.01
201.22
182.84
152.98
119.81
92.77
78.87
79.94
92.38
109.44
124.71
134.97
140.62
143.96
146.45
146.9
141.55
126.09
98.11
58.63
11.99
-35.77
-79.11
-114.6
-141.42
-160.69
-174.24
-183.55
-189.27
-191.58
-190.78
-187.66
-183.38
-179.01
-175.18
-172.36
-171.43
-174.2
-182.88
-198.75
-220.5
-243.86
-262.95
-272.51
-270
-256.27
-234.66
-209.44
-184.52
-162.83
-146.21
-135.28
-128.88
-123.82
-115.21
-98.06
-69.04
-27.78
23.29
80.53
140.96
203.4
268
334.53
400.42
459.94
504.91
527.1
521.06
486.17
426.94
351.15
267.31
182.44
101.44
28.02
-34.11
-80.82
-108.52
-115.98
-105.64
-83.49
-57.46
-35.1
-21.64
-19.21
-26.99
-42.31
-61.75
-81.92
-99.93
-113.5
-121.16
-122.36
-117.49
-108.04
-96.29
-85.04
-76.93
-73.74
-75.79
-81.86
-89.62
-96.56
-100.98
-102.6
-102.39
-101.81
-101.83
-102.46
-102.78
-101.73
-98.82
-94.24
-88.64
-82.57
-76.27
-70.05
-64.68
-61.41
-61.31
-64.23
-68.21
-70.17
-67.55
-59.91
-49.38
-39.42
-32.37
-27.73
-22.15
-11.3
7.6
34.35
66.14
99.52
132.12
163.1
191.72
215.52
229.61
228.02
206.78
166.4
112.44
53.45
-2.57
-51.11
-91.89
-127.2
-159.04
-186.87
-207.2
-215.01
-206.1
-179.08
-136.18
-82.6
-25.19
28.98
73.82
105.02
120.79
122.25
113.56
101.11
91.79
90.43
97.5
108.27
114.37
107.57
84.1
47.16
6.01
-28.11
-47.29
-50.34
-42.62
-32.46
-26.48
-26.81
-31.21
-36.12
-39.8
-43.47
-49.89
-60.3
-72.5
-81.45
-82.31
-73.88
-59.86
-46.85
-40.29
-40.97
-44.4
-43.58
-33.37
-13.77
9.87
29.58
38.73
34.7
19.1
-4.05
-30.45
-56.61
-79.55
-96.11
-103.03
-98.19
-82.11
-58.56
-33.08
-10.44
7.42
21.75
35.32
49.89
64.66
76.43
81.52
77.89
66.23
49.48
31.62
16.44
7.05
5.95
14.88
34.26
62.55
96.21
130.87
162.84
190.32
213.28
232.26
247.09
256.31
257.94
250.93
236.33
217.41
198.43
182.77
171.43
162.76
153.36
139.86
120.52
96.02
69.23
44.25
25.13
14.67
13.52
19.75
28.88
34.6
30.7
13.48
-16.02
-51.39
-82.64
-99.84
-97.38
-76.6
-45.52
-15.65
2.78
4.88
-7.22
-25.85
-41.35
-46.11
-37.18
-16.73
9.53
34.88
53.88
63.44
62.83
52.92
35.43
12.88
-11.15
-31.76
-43.23
-40.5
-21.31
11.94
51.78
87.51
108.91
110.34
93.36
66.43
41.57
29.51
35.61
58.28
90.35
122.31
145.49
153.95
144.81
117.96
76.02
24.5
-28.49
-73.85
-104.02
-115.69
-110.89
-95.99
-79.01
-66.62
-62.25
-66.23
-77.08
-93.04
-112.54
-133.93
-154.87
-172.36
-183.49
-186.37
-180.45
-166.07
-143.82
-114.27
-78.34
-38.11
2.78
39.67
68.12
85.36
90.86
85.93
72.57
52.36
26.1
-5.83
-42.54
-81.98
-120.98
-155.86
-183.5
-202.06
-210.98
-210.3
-199.83
-178.97
-147.41
-106.47
-60.1
-14.55
23.5
49.41
62.39
65.5
63.8
61.86
62.09
64.6
68.22
71.68
74
74.1
70.34
60.67
43.54
18.99
-10.91
-42.48
-71.58
-94.33
-107.42
-107.98
-93.62
-63.24
-18.19
36.92
94.78
147.1
186.98
210.62
217.65
210.2
191.48
164.6
132.2
96.59
60.05
24.73
-7.57
-35.7
-59.09
-77.49
-90.81
-99.2
-103.26
-104.14
-103.36
-102.31
-101.82
-101.99
-102.44
-102.79
-103
-103.34
-104.23
-105.76
-107.69
-109.44
-110.39
-110.12
-108.42
-105.35
-101.27
-96.94
-93.56
-92.67
-95.54
-102.37
-111.76
-120.57
-124.94
-121.62
-109.24
-88.98
-64.22
-39.75
-20.72
-11.35
-13.97
-28.38
-51.58
-78.18
-101.55
-115.66
-116.87
-105.04
-83.1
-55.35
-25.29
5.9
39.45
77.8
123.21
176.75
238.26
306.6
379.76
454.47
525.72
586.93
630.91
651.86
647.07
617.71
568.01
503.42
428.97
348.49
264.91
181.12
100.54
26.91
-36.68
-88.98
-131.08
-165.9
-196.87
-226.43
-255.04
-281.18
-302.25
-315.69
-319.69
-313.35
-296.52
-269.72
-234.33
-192.83
-148.73
-106.08
-68.77
-39.83
-21.19
-13.7
-17.11
-29.83
-48.73
-69.34
-86.89
-97.76
-100.73
-97.35
-91.26
-86.79
-87.44
-94.66
-107.28
-121.5
-131.78
-132.39
-119.47
-92.54
-55.04
-13.15
26.45
58.92
82.46
97.99
107.51
112.55
113.32
109.14
99.61
85.59
69.51
54.82
44.88
41.9
46.26
56.68
70.79
85.83
99.09
107.9
109.59
101.47
81.61
49.79
8.53
-36.84
-79.11
-111.18
-128.15
-128.77
-115.36
-92.54
-65.2
-37.02
-10.07
14.47
35.21
49.84
55.55
50.27
34.19
10.42
-15.65
-37.93
-51.4
-53.32
-43.4
-23.33
3.9
34.46
63.81
87.1
99.94
99.49
85.39
60.14
28.3
-4.86
-34.94
-59.3
-77.15
-88.77
-94.4
-93.74
-86.09
-71.23
-50.39
-26.7
-4.73
10.88
16.88
12.52
-0.29
-17.72
-35.35
-49.39
-57.52
-59.19
-55.26
-47.52
-38.15
-29.27
-22.72
-19.79
-20.91
-25.28
-31.06
-35.73
-37.14
-34.19
-27.19
-17.35
-5.99
5.88
17.28
26.88
32.75
32.93
26.47
14.36
-0.47
-14.25
-24.13
-29.71
-33.35
-39.04
-50.53
-69.3
-93.77
-119.95
-143.13
-159.86
-169.23
