64
-0
-0
-0
-0
-0
-0
-0
-0
-0
-0
0
0.01
0.01
-0
-0.03
-0.05
-0.05
0
0.13
0.36
0.66
1.01
1.37
1.72
2.06
2.4
2.79
3.24
3.8
4.42
5.06
5.66
6.2
6.68
7.15
7.68
8.31
9.14
10.09
11.04
11.88
12.56
13.14
13.76
14.65
15.96
17.91
20.32
22.9
25.38
27.58
29.57
31.68
34.32
37.81
42.54
48.15
54.1
59.83
64.97
69.58
74.14
79.34
85.71
93.76
103
112.62
121.73
129.77
136.75
143.3
150.75
157.77
166.64
177.95
191.79
206.97
220.57
228.25
225.36
208.53
176.87
132.76
80.05
23.07
-34.94
-92.44
-149.16
-205.23
-260.37
-313.74
-363.87
-409.83
-450.91
-486.5
-515.74
-537.23
-549.22
-549.96
-538.37
-514.21
-478.67
-433.88
-382.45
-327.02
-269.84
-212.63
-156.66
-102.95
-52.37
-5.9
35.58
71.43
101.35
125.5
144.38
158.69
169.15
176.37
180.75
182.57
182.07
179.51
175.23
169.65
163.18
156.15
148.81
141.3
133.69
126.02
118.33
110.69
103.16
95.8
88.68
81.83
75.25
68.95
62.95
57.25
51.86
46.78
42.03
37.59
33.45
29.61
26.07
22.81
19.83
17.11
14.67
12.48
10.54
8.83
7.35
6.07
4.97
4.05
3.27
2.62
2.09
1.65
1.29
1.01
0.78
0.61
0.49
0.41
0.33
0.26
0.17
0.06
-0.06
-0.15
-0.2
-0.2
-0.16
-0.12
-0.09
-0.11
-0.16
-0.23
-0.29
-0.29
-0.24
-0.16
-0.08
-0.07
-0.16
-0.33
-0.53
-0.69
-0.72
-0.59
-0.38
-0.19
-0.17
-0.4
-0.87
-1.42
-1.85
-1.98
-1.75
-1.27
-0.83
-0.71
-1.12
-1.99
-3.07
-3.92
-4.2
-3.79
-2.92
-2.05
-1.72
-2.23
-3.52
-5.14
-6.44
-6.95
-6.5
-5.33
-4.01
-3.06
-2.92
-3.79
-5.83
-8.91
-12.46
-15.2
-15.35
-11.28
-2.49
9.81
22.89
33.52
39.48
40.23
36.95
31.68
26.09
20.86
15.75
10.35
4.75
-0.3
-3.82
-5.16
-4.5
-2.77
-1.11
-0.52
-1.33
-3.2
-5.42
-7.18
-7.96
-7.63
-6.53
-5.23
-4.25
-3.85
-3.93
-4.18
-4.28
-4.03
-3.42
-2.55
-1.54
-0.56
0.21
0.53
0.1
-1.21
-3.24
-5.52
-7.39
-8.29
-7.97
-6.62
-4.68
-2.66
-0.92
0.38
1.27
1.82
2.19
2.48
2.84
3.37
4.1
4.89
5.5
5.62
5.08
3.85
2.12
0.25
-1.43
-2.65
-3.29
-3.34
-2.95
-2.41
-2.02
-2.08
-2.81
-4.21
-6.05
-7.93
-9.42
-10.22
-10.36
-10.12
-9.98
-10.29
-11.13
-12.14
-12.77
-12.51
-11.14
-8.81
-5.95
-3
-0.28
2.12
4.29
6.35
8.32
10.1
11.48
12.25
12.32
11.69
10.54
9.1
7.63
6.34
5.3
4.5
3.91
3.5
3.28
3.18
3.04
2.63
1.75
0.34
-1.44
-3.35
-5.11
-6.64
-8.03
-9.5
-11.26
-13.35
-15.61
-17.68
-19.11
-19.51
-18.66
-16.58
-13.5
-9.79
-5.8
-1.85
1.87
5.19
7.93
9.88
10.89
10.92
10.11
8.73
7.06
5.28
3.51
1.86
0.54
-0.25
-0.32
0.32
1.42
2.58
3.37
3.5
2.88
1.61
-0.11
-2.03
-3.99
-5.89
-7.74
-9.62
-11.54
-13.37
-14.78
-15.39
-14.9
-13.31
-10.93
-8.2
-5.47
-2.75
0.18
3.55
7.33
11.14
14.37
16.47
17.25
16.95
16.1
15.22
14.6
14.22
13.89
13.38
12.59
11.56
10.45
9.38
8.41
7.51
6.56
5.43
4.02
2.29
0.33
-1.67
-3.5
-5.05
-6.31
-7.44
-8.62
-9.92
-11.17
-12.02
-12.09
-11.1
-9.03
-6.09
-2.63
1.04
4.66
8.07
11.1
13.56
15.25
16.04
15.91
15
13.55
11.88
10.31
9.09
8.35
8.12
8.25
8.57
8.83
8.87
8.58
7.91
6.83
5.38
3.65
1.8
-0.01
-1.69
-3.28
-4.96
-6.87
-9.08
-11.43
-13.58
-15.14
-15.76
-15.26
-13.66
-11.11
-7.87
-4.26
-0.61
2.86
5.97
8.71
11.07
12.98
14.34
14.96
14.76
13.76
12.14
10.13
7.93
5.71
3.63
1.9
0.75
0.33
0.6
1.28
1.93
2.13
1.7
0.64
-0.84
-2.54
-4.3
-6.03
-7.65
-9.13
-10.48
-11.83
-13.38
-15.2
-17.16
-18.85
-19.72
-19.33
-17.55
-14.63
-11.01
-7.2
-3.52
-0.12
2.92
5.51
7.47
8.67
9.01
8.6
7.66
6.56
5.67
5.21
5.27
5.71
6.27
6.67
6.77
6.63
6.41
6.24
6.08
5.66
4.65
2.86
0.38
-2.4
-4.96
-6.91
-8.17
-9.04
-9.97
-11.35
-13.24
-15.26
-16.75
-17.03
-15.7
-12.84
-8.95
-4.68
-0.56
3.13
6.31
8.9
10.68
11.35
10.74
9.02
6.72
4.63
3.37
3.11
3.58
4.17
4.37
3.99
3.24
2.57
2.34
2.64
3.22
3.68
3.71
3.22
2.39
1.5
0.76
0.14
-0.6
-1.73
-3.4
-5.47
-7.6
-9.33
-10.34
-10.46
-9.74
-8.29
-6.16
-3.33
0.23
4.4
8.78
12.81
15.84
17.45
17.54
16.39
14.55
12.55
10.78
9.37
8.26
7.36
6.63
6.11
5.87
5.84
5.84
5.57
4.77
3.38
1.56
-0.36
-2.05
-3.3
-4.17
-4.91
-5.82
-7.14
-8.93
-11.04
-13.17
-14.97
-16.11
-16.41
-15.82
-14.41
-12.31
-9.67
-6.58
-3.14
0.49
4.06
7.24
9.71
11.28
11.95
11.9
11.42
10.76
10.08
9.45
8.92
8.58
8.51
8.7
9.03
9.26
9.06
8.22
6.68
4.58
2.27
0.07
-1.75
-3.1
-4.09
-5.05
-6.3
-8.09
-10.39
-12.91
-15.17
-16.65
-16.98
-16.05
-14.02
-11.23
-8.1
-5.03
-2.24
0.13
2.1
3.71
4.96
5.81
6.21
6.18
5.78
5.22
4.64
4.14
3.64
2.99
2.11
1
-0.15
-1.1
-1.67
-1.87
-1.88
-1.98
-2.4
-3.22
-4.36
-5.66
-6.99
-8.35
-9.88
-11.66
-13.64
-15.55
-16.98
-17.51
-16.86
-15.04
-12.3
-8.99
-5.46
-1.96
1.33
4.27
6.67
8.31
8.99
8.64
7.4
5.64
3.87
2.6
2.17
2.53
3.36
4.12
4.41
4.09
3.37
2.66
2.33
2.47
2.87
3.18
3.11
2.57
1.65
0.48
-0.92
-2.65
-4.77
-7.15
-9.37
-10.85
-11.07
-9.84
-7.4
-4.25
-0.97
2.08
4.75
7.1
9.2
11.01
12.37
13.14
13.26
12.79
11.92
10.81
9.62
8.44
7.4
6.66
6.36
6.56
7.1
7.64
7.77
7.16
5.76
3.83
1.82
0.13
-1.06
-1.89
-2.71
-3.85
-5.41
-7.23
-8.95
-10.25
-10.91
-10.87
-10.14
-8.71
-6.64
-4.03
-1.14
1.64
3.96
5.61
6.6
7.11
7.34
7.36
7.17
6.74
6.08
5.29
4.53
3.93
3.57
3.47
3.56
3.74
3.83
3.7
3.18
2.24
0.91
-0.69
-2.43
-4.23
-6.11
-8.15
-10.38
-12.72
-14.93
-16.66
-17.61
-17.61
-16.76
-15.28
-13.39
-11.21
-8.69
-5.75
-2.38
1.19
4.57
7.29
9
9.57
9.15
8.04
6.56
5.02
3.64
2.6
2.01
1.9
2.23
2.82
3.41
3.73
3.57
2.82
1.45
-0.46
-2.77
-5.26
-7.69
-9.86
-11.6
-12.87
-13.73
-14.31
-14.73
-14.97
-14.91
-14.31
-12.96
-10.76
-7.75
-4.19
-0.42
3.13
6.09
8.26
9.54
10.01
9.86
9.24
8.3
7.13
5.83
4.48
3.29
2.43
2.04
2.14
2.59
3.15
3.56
3.64
3.32
2.7
1.92
1.09
0.21
-0.82
-2.19
-3.96
-6.04
-8.16
-9.92
-10.97
-11.11
-10.38
-8.91
-6.84
-4.26
-1.17
2.36
6.1
9.68
12.59
14.44
15.05
14.51
13.17
11.43
9.69
8.21
7.18
6.7
6.77
7.31
8.11
8.78
8.96
8.38
7
5.04
2.87
0.89
-0.69
-1.82
-2.72
-3.67
-4.95
-6.66
-8.75
-10.96
-12.96
-14.44
-15.13
-14.91
-13.77
-11.81
-9.2
-6.14
-2.83
0.48
3.5
5.93
7.55
8.3
8.26
7.7
6.86
5.96
5.08
4.22
3.47
2.96
2.99
3.79
5.41
7.64
9.95
11.72
12.35
11.54
9.3
6
2.18
-1.56
-4.8
-7.35
-9.32
-10.93
-12.41
-13.8
-14.95
-15.59
-15.48
-14.52
-12.79
-10.47
-7.7
-4.55
-1.05
2.73
6.59
10.17
13.03
14.77
15.18
14.32
12.51
10.26
8.13
6.56
5.71
5.49
5.56
5.58
5.23
4.43
3.25
1.84
0.39
-0.95
-2.05
-2.75
-2.99
-2.87
-2.67
-2.87
-3.89
-5.9
-8.74
-11.89
-14.71
-16.63
-17.3
-16.68
-14.92
-12.36
-9.36
-6.29
-3.4
-0.75
1.66
3.9
5.9
7.5
8.44
8.62
8.1
7.21
6.33
5.75
5.52
5.52
5.55
5.51
5.42
5.3
5.13
4.79
4.14
3.17
1.96
0.71
-0.4
-1.41
-2.47
-3.87
-5.8
-8.25
-11.03
-13.82
-16.28
-18.13
-19.19
-19.29
-18.37
-16.45
-13.74
-10.61
-7.43
-4.54
-2.03
0.12
2.02
3.66
4.88
5.5
5.45
4.85
4.05
3.39
3.12
3.26
3.68
4.21
4.79
5.49
6.39
7.47
8.56
9.4
9.73
9.45
8.67
7.59
6.46
5.36
4.25
2.94
1.24
-0.94
-3.48
-6.04
-8.13
-9.27
-9.11
-7.61
-5.04
-1.89
1.36
4.39
7.18
9.87
12.6
15.32
17.72
19.38
19.9
19.12
17.13
14.28
11.04
7.98
5.58
4.18
3.86
4.38
5.2
5.59
4.86
2.56
-1.27
-6.12
-11.05
-14.93
-16.78
-16.17
-13.5
-9.92
-7.05
-6.31
-8.37
-12.73
-17.91
-21.98
-23.27
-21.03
-15.62
-8.27
-0.55
6.19
11.18
14.23
15.58
15.64
14.81
13.46
11.86
10.26
8.86
7.82
7.22
7.08
7.39
8.04
8.84
9.49
9.69
9.19
7.96
6.21
4.34
2.73
1.51
0.51
-0.65
-2.33
-4.63
-7.3
-9.85
-11.84
-13.07
-13.62
-13.77
-13.72
-13.49
-12.89
-11.61
-9.33
-5.91
-1.47
3.64
8.83
13.38
16.64
18.27
18.33
17.28
15.8
14.53
13.83
13.73
13.93
14.09
13.92
13.42
12.85
12.68
13.38
15.19
17.92
21.01
23.66
25.21
25.38
24.44
23.04
21.97
21.79
22.71
24.56
26.96
29.57
32.19
34.8
37.45
40.12
42.66
44.85
46.46
47.35
47.37
46.39
44.18
40.55
35.37
28.58
20.02
9.4
-3.66
-19.4
-37.51
-56.85
-75.49
-91.03
-101.26
-104.8
-101.52
-92.73
-80.9
-69.22
-60.8
-57.83
-60.84
-68.35
-77.35
-84.34
-86.61
-83.26
-75.42
-65.67
-56.99
-51.75
-51.05
-54.73
-61.58
-69.79
-77.28
-81.95
-81.93
-75.94
-63.63
-45.79
-24.27
-1.63
19.51
36.99
49.5
56.68
58.86
56.83
51.6
44.25
35.95
27.88
21.12
16.41
13.9
13.17
13.39
13.69
13.57
13.07
12.71
13.13
14.64
16.95
19.18
20.12
18.83
15.11
9.68
4.03
-0.12
-1.5
0.32
4.79
10.66
16.46
20.97
23.45
23.76
22.14
19.15
15.41
11.61
8.37
6.17
5.19
5.26
5.93
6.69
7.18
7.32
7.36
7.7
8.69
10.46
12.85
15.47
17.85
19.55
20.28
19.92
18.54
16.26
13.3
9.86
6.25
2.91
0.36
-0.8
-0.18
2.37
6.55
11.74
17.03
21.51
24.37
25.12
23.73
20.66
16.75
13
10.24
8.81
8.5
8.71
8.76
8.18
6.86
4.97
2.81
0.69
-1.16
-2.53
-3.35
-3.64
-3.7
-3.94
-4.79
-6.45
-8.73
-11.19
-13.3
-14.66
-15.12
-14.76
-13.69
-12
-9.76
-7.03
-3.99
-0.86
2.09
4.65
6.7
8.15
8.99
9.21
8.88
8.16
7.3
6.51
5.98
5.78
5.9
6.23
6.56
6.69
6.43
5.69
4.5
2.96
1.27
-0.47
-2.19
-4.01
-5.99
-8.21
-10.62
-13.07
-15.32
-17.06
-17.93
-17.62
-15.9
-12.81
-8.67
-4.05
0.44
4.28
7.25
9.38
10.8
11.62
11.87
11.59
10.89
10.08
9.48
9.25
9.3
9.25
8.71
7.44
5.57
3.47
1.62
0.27
-0.58
-1.16
-1.76
-2.48
-3.24
-3.86
-4.26
-4.54
-4.98
-5.89
-7.35
-9.12
-10.61
-11.2
-10.52
-8.66
-6.1
-3.54
-1.48
-0.06
1
2.11
3.58
5.4
7.23
8.7
9.52
9.68
9.37
8.77
7.99
7.02
5.84
4.55
3.43
2.8
2.88
3.61
4.6
5.29
5.17
3.95
1.71
-1.17
-4.16
-6.75
-8.58
-9.6
-9.94
-9.96
-9.98
-10.26
-10.87
-11.73
-12.62
-13.25
-13.32
-12.58
-10.9
-8.3
-5.03
-1.48
1.86
4.59
6.49
7.54
7.87
7.7
7.22
6.55
5.81
5.1
4.54
4.22
4.15
4.3
4.53
4.73
4.78
4.61
4.22
3.63
2.92
2.13
1.32
0.51
-0.33
-1.29
-2.51
-4.1
-6.21
-8.82
-11.8
-14.87
-17.66
-19.84
-21.23
-21.81
-21.71
-21.07
-19.96
-18.35
-16.28
-13.92
-11.68
-10.14
-9.77
-10.75
-12.81
-15.35
-17.65
-19.17
-19.7
-19.39
-18.62
-17.78
-17.05
-16.3
-14.98
-12.38
-7.82
-1.1
7.27
15.92
22.74
25.4
21.95
11.53
-5.26
-26.21
-47.97
-66.75
-79.24
-83.32
-78.59
-66.36
-49.27
-30.61
-13.48
0.03
9.25
14.97
18.89
22.87
28.13
34.8
42.01
48.38
52.65
54.09
52.66
48.75
43
36.16
29.02
22.41
17.18
13.87
12.59
12.87
13.79
14.37
13.84
12.02
9.14
5.77
2.48
-0.35
-2.57
-4.18
-5.26
-5.91
-6.26
-6.45
-6.54
-6.5
-6.1
-4.98
-2.84
0.38
4.37
8.58
12.34
15.16
16.9
17.78
18.28
18.97
20.27
22.32
24.88
27.43
29.31
30.06
29.6
28.28
26.67
25.3
24.38
23.72
22.84
21.22
18.47
14.42
9.12
2.8
-4.13
-11.09
-17.43
-22.5
-25.87
-27.44
-27.52
-26.75
-25.97
-26.02
-27.56
-30.9
-35.87
-41.75
-47.35
-51.23
-52.14
-49.38
-43.14
-34.48
-24.95
-16.09
-8.96
-3.81
-0.24
2.47
4.95
7.43
9.75
11.53
12.45
12.31
11.1
8.91
5.89
2.28
-1.54
-5.05
-7.66
-8.84
-8.34
-6.19
-2.65
1.81
6.65
11.32
15.31
18.21
19.83
20.23
19.7
18.62
17.29
15.89
14.38
12.72
10.92
9.19
7.85
7.17
7.25
7.92
8.81
9.54
9.78
9.37
8.36
6.91
5.27
3.7
2.39
1.45
0.9
0.62
0.49
0.42
0.38
0.42
0.64
1.14
2.02
3.27
4.79
6.37
7.74
8.63
8.96
8.86
8.69
8.87
9.76
11.58
14.32
17.81
21.78
25.76
29.3
31.91
33.22
32.95
30.89
26.78
20.34
11.35
0.02
-12.79
-25.63
-36.73
-44.66
-48.89
-49.97
-49.3
-48.46
-48.57
-49.82
-51.44
-52.01
-49.93
-43.94
-33.56
-19.29
-2.65
14.19
28.9
39.64
45.51
46.73
44.38
39.94
34.78
29.76
25.14
20.72
16.1
11.01
5.47
-0.18
-5.31
-9.31
-11.84
-12.97
-13.19
-13.15
-13.33
-13.78
-14
-13.16
-10.4
-5.24
2.16
11.04
20.11
27.96
33.43
35.86
35.24
32.14
27.43
22.05
16.7
11.71
7.06
2.56
-1.85
-5.97
-9.3
-11.21
-11.27
-9.48
-6.32
-2.6
0.98
4
6.53
8.89
11.42
14.17
16.83
18.82
19.53
18.58
15.89
11.75
6.62
1.05
-4.45
-9.45
-13.63
-16.74
-18.66
-19.35
-18.86
-17.31
-14.84
-11.67
-8.04
-4.22
-0.49
2.89
5.7
7.71
8.74
8.79
8.11
7.33
7.31
8.87
12.35
17.28
22.36
25.76
25.74
21.2
12.1
-0.57
-14.97
-28.89
-40.17
-47.18
-49.04
-45.89
-38.76
-29.22
-18.9
-8.9
0.38
9.11
17.52
25.42
32.03
36.23
37.21
34.89
30.09
24.23
18.72
14.48
11.73
10.24
9.62
9.5
9.64
9.78
9.49
8.34
6.08
2.81
-0.91
-4.26
-6.47
-7.08
-6.11
-4.07
-1.73
0.12
0.87
0.25
-1.65
-4.53
-7.91
-11.4
-14.76
-17.9
-20.93
-23.99
-27.09
-30.04
-32.42
-33.64
-33.17
-30.72
-26.41
-20.82
-14.86
-9.45
-5.22
-2.2
0.17
2.82
6.59
11.85
18.17
24.48
29.45
31.99
31.57
28.31
22.8
15.84
8.19
0.43
-6.98
-13.69
-19.44
-24.06
-27.49
-29.75
-30.91
-31.04
-30.15
-28.27
-25.44
-21.81
-17.57
-12.98
-8.3
-3.76
0.46
4.18
7.25
9.48
10.74
11.01
10.41
9.21
7.75
6.35
5.2
4.32
3.65
3.1
2.65
2.33
2.14
2.03
1.86
1.53
1.02
0.47
0.04
-0.12
0.01
0.33
0.71
1.07
1.44
1.88
2.43
2.98
3.28
2.98
1.73
-0.68
-4.22
-8.6
-13.22
-17.36
-20.28
-21.43
-20.56
-17.69
-13.06
-7.01
0.04
7.6
15.02
21.5
26.11
28.02
26.72
22.31
15.55
7.78
0.64
-4.39
-6.28
-4.76
-0.32
5.99
12.88
19.2
24.14
27.27
28.37
27.26
23.77
17.87
9.92
0.87
-7.75
-14.18
-16.94
-15.3
-9.57
-0.94
8.81
17.81
24.43
27.57
26.73
22.11
14.59
5.54
-3.52
-11.34
-17.37
-21.82
-25.51
-29.27
-33.57
-38.24
-42.58
-45.7
-46.92
-45.85
-42.49
-37.11
-30.14
-22.29
-14.4
-7.44
-2.22
0.84
1.73
0.83
-1.32
-4.18
-7.34
-10.44
-13.13
-15.05
-15.94
-15.75
-14.78
-13.58
-12.69
-12.42
-12.61
-12.72
-12.11
-10.33
-7.38
-3.6
0.46
4.36
7.81
10.69
12.95
14.55
15.47
15.82
15.76
15.44
14.96
14.26
13.19
11.65
9.69
7.44
5.16
3.05
1.28
-0.07
-1.07
-1.88
-2.8
-4.01
-5.51
-6.97
-7.85
-7.66
-6.26
-4.1
-1.98
-0.75
-0.9
-2.26
-4.14
-5.66
-6.11
-5.25
-3.29
-0.72
1.91
4.13
5.61
6.16
5.75
4.46
2.58
0.5
-1.27
-2.27
-2.21
-1.05
0.9
3.06
4.72
5.32
4.64
2.89
0.67
-1.37
-2.78
-3.44
-3.52
-3.32
-3.03
-2.7
-2.23
-1.53
-0.61
0.43
1.49
2.51
3.49
4.54
5.74
7.04
8.29
9.24
9.64
9.35
8.41
6.98
5.38
3.97
3.04
2.72
2.95
3.48
3.97
4.14
3.83
3.07
2.01
0.78
-0.49
-1.76
-2.94
-3.94
-4.64
-4.99
-5.02
-4.87
-4.71
-4.55
-4.36
-3.99
-3.31
-2.34
-1.14
0.22
1.69
3.34
5.14
6.93
8.34
8.93
8.44
6.95
4.97
3.17
2.09
1.87
2.19
2.57
2.62
2.31
1.88
1.69
1.86
2.22
2.42
2.08
1.11
-0.35
-1.98
-3.51
-4.91
-6.3
-7.86
-9.61
-11.35
-12.69
-13.26
-12.91
-11.81
-10.36
-8.99
-7.92
-7.06
-6.11
-4.73
-2.8
-0.47
1.84
3.66
4.63
4.63
3.81
2.51
1.09
-0.18
-1.15
-1.86
-2.38
-2.74
-2.91
-2.81
-2.43
-1.82
-1.18
-0.75
-0.7
-1.08
-1.81
-2.67
-3.42
-3.83
-3.77
-3.19
-2.19
-0.89
0.59
2.19
3.9
5.7
7.54
9.32
10.93
12.36
13.67
14.96
16.19
17.09
17.3
16.47
14.52
11.69
8.53
5.68
3.59
2.45
2.07
2.11
2.16
1.91
1.23
0.15
-1.13
-2.36
-3.37
-4.09
-4.65
-5.27
-6.16
-7.38
-8.75
-9.99
-10.81
-11.04
-10.62
-9.49
-7.52
-4.48
-0.29
4.8
10.07
14.51
17.2
17.66
16.05
12.99
9.27
5.53
2.17
-0.64
-2.79
-4.18
-4.77
-4.65
-4.12
-3.53
-3.22
-3.33
-3.83
-4.57
-5.32
-5.92
-6.31
-6.55
-6.87
-7.53
-8.65
-10.12
-11.49
-12.13
-11.56
-9.71
-6.97
-4.03
-1.6
-0.02
0.75
1.07
1.28
1.55
1.76
1.77
1.5
1.09
0.84
0.97
1.45
2.03
2.31
2.05
1.25
0.19
-0.77
-1.39
-1.72
-1.97
-2.39
-3.05
-3.79
-4.37
-4.61
-4.53
-4.31
-4.16
-4.17
-4.24
-4.13
-3.63
-2.66
-1.26
0.41
2.15
3.85
5.42
6.93
8.45
10.12
11.99
13.94
15.76
17.14
17.81
17.66
16.78
15.36
13.65
11.84
10.06
8.41
6.97
5.74
4.64
3.47
2.01
0.13
-2.09
-4.4
-6.47
-8.05
-9.1
-9.76
-10.22
-10.58
-10.83
-10.84
-10.55
-10.02
-9.42
-8.83
-8.13
-7.03
-5.16
-2.39
1.04
4.54
7.4
9.1
9.47
8.73
7.3
5.61
3.95
2.47
1.25
0.4
-0.01
0.03
0.4
0.84
1.06
0.83
0.12
-0.94
-2.11
-3.2
-4.11
-4.87
-5.58
-6.31
-7.04
-7.62
-7.85
-7.52
-6.55
-4.98
-2.92
-0.57
1.89
4.34
6.68
8.85
10.74
12.16
12.94
12.93
12.1
10.55
8.5
6.21
3.97
2.03
0.61
-0.13
-0.09
0.69
2.01
3.47
4.63
5.09
4.69
3.54
1.95
0.26
-1.36
-3.02
-4.99
-7.49
-10.46
-13.49
-15.92
-17.11
-16.76
-15
-12.34
-9.4
-6.58
-3.98
-1.46
1.16
3.87
6.45
8.53
9.84
10.35
10.23
9.79
9.26
8.72
8.05
7.12
5.88
4.52
3.36
2.72
2.8
3.45
4.26
4.63
4.07
2.36
-0.36
-3.75
-7.39
-11
-14.35
-17.21
-19.22
-19.95
-19.11
-16.75
-13.32
-9.52
-5.94
-2.86
-0.23
2.18
4.44
6.39
7.7
8.07
7.45
6.1
4.41
2.79
1.49
0.62
0.14
0.04
0.24
0.61
1
1.18
1
0.35
-0.72
-2.07
-3.47
-4.72
-5.68
-6.33
-6.82
-7.4
-8.31
-9.66
-11.34
-13.04
-14.38
-15
-14.65
-13.25
-10.81
-7.41
-3.24
1.46
6.35
11
14.99
18
19.81
20.39
19.84
18.36
16.28
13.95
11.73
9.91
8.66
7.96
7.64
7.39
6.87
5.76
3.85
1.13
-2.17
-5.64
-8.79
-11.12
-12.35
-12.47
-11.75
-10.62
-9.51
-8.68
-8.17
-7.78
-7.22
-6.25
-4.7
-2.5
0.29
3.57
7.15
10.69
13.69
15.66
16.21
15.35
13.45
11.21
9.35
8.35
8.3
8.95
9.88
10.75
11.44
11.95
12.3
12.39
11.99
10.88
8.99
6.54
3.94
1.6
-0.2
-1.44
-2.28
-3
-3.87
-5.14
-7.02
-9.59
-12.69
-15.85
-18.34
-19.43
-18.67
-16.1
-12.25
-7.9
-3.81
-0.41
2.23
4.33
6.17
7.99
9.87
11.75
13.48
14.85
15.66
15.76
15.13
13.87
12.19
10.35
8.62
7.21
6.24
5.71
5.49
5.26
4.68
3.44
1.38
-1.39
-4.54
-7.6
-10.14
-11.91
-12.85
-13.1
-12.84
-12.24
-11.36
-10.21
-8.72
-6.88
-4.68
-2.16
0.63
3.59
6.56
9.34
11.61
13.08
13.53
12.92
11.41
9.37
7.21
5.27
3.69
2.42
1.41
0.64
0.19
0.16
0.5
1.01
1.38
1.33
0.77
-0.22
-1.43
-2.71
-4.09
-5.7
-7.62
-9.81
-12.04
-14.03
-15.52
-16.42
-16.77
-16.69
-16.3
-15.6
-14.52
-12.88
-10.51
-7.28
-3.21
1.46
6.26
10.57
13.77
15.39
15.31
13.76
11.28
8.55
6.2
4.64
3.97
4.02
4.45
4.91
5.09
4.88
4.27
3.36
2.28
1.06
-0.32
-1.95
-3.88
-6.1
-8.46
-10.67
-12.41
-13.39
-13.51
-12.84
-11.63
-10.2
-8.82
-7.65
-6.67
-5.75
-4.7
-3.4
-1.84
-0.14
1.5
2.92
4.04
4.87
5.39
5.55
5.21
4.23
2.61
0.63
-1.2
-2.3
-2.31
-1.23
0.55
2.42
3.84
4.49
4.34
3.58
2.39
0.93
-0.76
-2.58
-4.48
-6.31
-7.99
-9.53
-11.04
-12.64
-14.28
-15.71
-16.46
-16.08
-14.26
-11
-6.65
-1.66
3.47
8.39
12.89
16.85
20.13
22.58
24.05
24.47
23.89
22.49
20.52
18.3
16.13
14.28
12.86
11.83
10.96
9.9
8.29
5.97
3.05
-0.12
-3.02
-5.26
-6.61
-7.16
-7.17
-7.01
-6.94
-7.08
-7.4
-7.73
-7.9
-7.78
-7.28
-6.34
-4.89
-2.93
-0.55
2.07
4.66
6.94
8.73
9.98
10.76
11.23
11.49
11.5
11.08
9.96
7.87
4.66
0.48
-4.22
-8.66
-11.85
-12.86
-11.17
-6.91
-1.08
4.82
9.15
10.79
9.39
5.36
-0.44
-7.1
-13.88
-20.2
-25.54
-29.36
-31.12
-30.56
-27.8
-23.42
-18.19
-12.88
-8.07
-4.13
-1.31
0.21
0.38
-0.55
-2
-3.08
-2.8
-0.41
4.35
11.08
18.84
26.23
31.8
34.34
33.12
28.15
20.15
10.55
1.12
-6.4
-10.83
-11.87
-10.11
-6.76
-3.19
-0.53
0.58
-0.11
-2.51
-6.36
-11.21
-16.38
-21
-24.12
-25.02
-23.29
-19.06
-12.78
-5.14
3.07
11.05
17.93
22.85
25.05
24.11
20.22
14.17
7.35
1.3
-2.65
-3.92
-2.73
-0.05
2.88
5.02
5.87
5.51
4.4
3.02
1.6
0.13
-1.55
-3.51
-5.62
-7.57
-9.03
-9.79
-9.87
-9.46
-8.71
-7.72
-6.44
-4.8
-2.9
-0.98
0.59
1.57
2.04
2.35
3.04
4.45
6.59
9.03
11.13
12.27
12.1
10.66
8.33
5.62
3.09
1.15
0.02
-0.3
0.04
0.7
1.37
1.71
1.53
0.68
-0.84
-3.01
-5.66
-8.58
-11.52
-14.23
-16.54
-18.37
-19.66
-20.31
-20.18
-19.03
-16.7
-13.17
-8.65
-3.55
1.58
6.19
9.87
12.29
13.36
13.14
11.86
9.92
7.79
5.96
4.82
4.56
5.1
6.17
7.34
8.18
8.36
7.68
6.23
4.27
2.22
0.53
-0.46
-0.61
-0.1
0.67
1.15
0.93
-0.21
-2.13
-4.46
-6.71
-8.5
-9.65
-10.1
-9.82
-8.75
-6.77
-3.88
-0.34
3.27
6.25
8.05
8.53
7.99
7
6.12
5.55
5.22
4.88
4.36
3.71
3.14
2.82
2.75
2.71
2.39
1.56
0.24
-1.41
-3.12
-4.77
-6.39
-8.12
-10.04
-12.02
-13.69
-14.55
-14.22
-12.57
-9.85
-6.53
-3.1
0.11
3.02
5.68
8.13
10.28
11.91
12.79
12.81
12.06
10.79
9.31
7.87
6.62
5.6
4.81
4.24
3.89
3.75
3.7
3.58
3.17
2.32
1
-0.66
-2.47
-4.24
-5.87
-7.38
-8.79
-10.06
-11.04
-11.48
-11.17
-10.1
-8.43
-6.44
-4.38
-2.31
-0.09
2.49
5.57
9
12.34
15
16.42
16.35
14.93
12.6
9.99
7.68
6.03
5.15
4.89
4.95
4.97
4.61
3.67
2.1
0.08
-2.06
-3.91
-5.11
-5.53
-5.34
-5
-5.08
-6.08
-8.17
-11.14
-14.44
-17.33
-19.12
-19.39
-18.02
-15.22
-11.41
-7.07
-2.69
1.27
4.44
6.54
7.48
7.36
6.51
5.43
4.59
4.32
4.61
5.2
5.66
5.66
5.11
4.17
3.13
2.23
1.53
0.93
0.23
-0.67
-1.78
-3.03
-4.35
-5.7
-7.12
-8.63
-10.17
-11.67
-12.98
-13.96
-14.48
-14.42
-13.74
-12.4
-10.45
-8
-5.15
-2.03
1.24
4.45
7.32
9.45
10.52
10.39
9.21
7.42
5.58
4.19
3.5
3.56
4.19
5.18
6.27
7.18
7.7
7.58
6.73
5.18
3.18
1.07
-0.82
-2.31
-3.43
-4.37
-5.37
-6.53
-7.79
-8.95
-9.77
-10.12
-10.01
-9.52
-8.7
-7.47
-5.65
-3.05
0.37
4.43
8.75
12.81
16.09
18.22
19.04
18.64
17.33
15.55
13.72
12.15
11.02
10.35
10.06
10.07
10.26
10.49
10.57
10.24
9.3
7.71
5.59
3.28
1.14
-0.61
-1.96
-3.13
-4.36
-5.85
-7.57
-9.27
-10.68
-11.56
-11.84
-11.61
-10.98
-9.99
-8.59
-6.66
-4.15
-1.14
2.12
5.27
7.94
9.79
10.66
10.53
9.58
8.16
6.65
5.4
4.61
4.3
4.33
4.5
4.65
4.69
4.58
4.29
3.8
3.08
2.12
0.96
-0.31
-1.58
-2.74
-3.74
-4.62
-5.46
-6.43
-7.65
-9.18
-10.91
-12.54
-13.72
-14.11
-13.58
-12.18
-10.14
-7.68
-4.94
-2.01
1.04
4.03
6.68
8.67
9.8
10.06
9.63
8.8
7.87
6.97
6.1
5.21
4.24
3.2
2.14
1.12
0.16
-0.78
-1.76
-2.77
-3.72
-4.49
-4.96
-5.1
-5.06
-5.05
-5.33
-6.05
-7.2
-8.64
-10.19
-11.64
-12.86
-13.74
-14.2
-14.19
-13.69
-12.73
-11.36
-9.69
-7.78
-5.7
-3.48
-1.16
1.19
3.43
5.44
7.12
8.35
9.03
9.02
8.28
6.89
5.09
3.29
1.91
1.25
1.36
2.12
3.22
4.33
5.22
5.7
5.71
5.27
4.49
3.57
2.73
2.15
1.85
1.72
1.47
0.81
-0.49
-2.47
-4.92
-7.45
-9.56
-10.86
-11.16
-10.55
-9.34
-7.84
-6.29
-4.75
-3.2
-1.68
-0.27
0.88
1.7
2.28
2.79
3.4
4.07
4.61
4.75
4.36
3.6
2.82
2.4
2.5
2.98
3.48
3.65
3.28
2.47
1.49
0.61
0.05
-0.15
-0.11
-0.04
-0.16
-0.69
-1.73
-3.28
-5.15
-7.05
-8.61
-9.53
-9.62
-8.89
-7.51
-5.68
-3.6
-1.39
0.95
3.48
6.22
9.05
11.68
13.7
14.7
14.49
13.11
10.92
8.43
6.21
4.69
4.15
4.66
6.03
7.88
9.64
10.72
10.65
9.27
6.8
3.78
0.88
-1.42
-2.91
-3.7
-4.15
-4.61
-5.3
-6.29
-7.51
-8.85
-10.16
-11.3
-12.07
-12.28
-11.74
-10.43
-8.47
-6.11
-3.69
-1.5
0.33
1.84
3.21
4.67
6.33
8.12
9.74
10.78
10.89
9.93
8.1
5.85
3.82
2.52
2.26
3.02
4.41
5.89
6.89
7.01
6.15
4.51
2.47
0.5
-1.09
-2.14
-2.71
-2.98
-3.21
-3.71
-4.69
-6.27
-8.4
-10.79
-13.03
-14.68
-15.39
-15.03
-13.66
-11.5
-8.81
-5.82
-2.74
0.25
2.98
5.3
7.12
8.38
9.16
9.57
9.81
9.99
10.14
10.22
10.15
9.88
9.41
8.76
7.99
7.11
6.07
4.87
3.58
2.33
1.25
0.44
-0.14
-0.67
-1.38
-2.38
-3.68
-5.12
-6.5
-7.71
-8.72
-9.62
-10.51
-11.41
-12.26
-12.86
-13.1
-12.97
-12.57
-12.08
-11.55
-10.84
-9.64
-7.55
-4.33
-0.09
4.68
9.21
12.71
14.65
14.96
14.01
12.49
11.17
10.67
11.29
12.98
15.3
17.51
18.69
17.87
14.39
8.07
-0.52
-10.15
-19.23
-26.24
-30.25
-31.14
-29.61
-26.68
-23.41
-20.41
-17.92
-15.86
-14.21
-13.01
-12.4
-12.37
-12.63
-12.55
-11.45
-8.81
-4.57
0.85
6.68
12.07
16.3
19.01
20.13
19.88
18.61
16.71
14.52
12.27
10.14
8.24
6.69
5.56
4.86
4.58
4.64
4.93
5.29
5.56
5.56
5.16
4.37
3.34
2.31
1.52
1.12
1.08
1.19
1.18
0.77
-0.19
-1.73
-3.75
-6.06
-8.41
-10.54
-12.14
-12.9
-12.54
-10.93
-8.1
-4.38
-0.27
3.63
6.79
8.9
9.92
10.04
9.58
8.81
7.93
7.05
6.26
5.61
5.23
5.14
5.33
5.68
5.97
5.98
5.53
4.57
3.15
1.42
-0.48
-2.42
-4.31
-6.06
-7.55
-8.68
-9.41
-9.85
-10.21
-10.71
-11.44
-12.28
-12.9
-12.91
-12.04
-10.2
-7.6
-4.56
-1.45
1.44
3.93
5.88
7.2
7.85
7.82
7.16
5.98
4.44
2.75
1.17
0.01
-0.45
-0.08
0.99
2.4
3.62
4.17
3.76
2.43
0.43
-1.94
-4.45
-7
-9.52
-11.9
-13.94
-15.42
-16.22
-16.43
-16.3
-16.15
-16.14
-16.22
-16.09
-15.38
-13.8
-11.33
-8.21
-4.87
-1.8
0.66
2.33
3.24
3.55
3.46
3.11
2.59
1.97
1.34
0.87
0.71
0.95
1.54
2.33
3.08
3.6
3.83
3.85
3.76
3.63
3.44
3.15
2.74
2.28
1.89
1.65
1.55
1.45
1.22
0.82
0.36
0.01
-0.06
0.24
0.88
1.82
3.1
4.83
7.1
9.86
12.81
15.46
17.26
17.85
17.17
15.54
13.5
11.65
10.38
9.84
9.9
10.26
10.67
11
11.34
11.9
12.82
14.07
15.41
16.5
17.01
16.87
16.26
15.62
15.43
16.01
17.33
19.04
20.58
21.5
21.72
21.53
21.48
22.11
23.75
26.53
30.65
36.53
44.71
55.3
67.12
77.35
82.1
77.56
61.5
34.23
-1.89
-43.85
-89.47
-137.91
-188.84
-240.83
-290.36
-332.18
-360.91
-372.94
-367.64
-347.23
-315.81
-277.75
-236.67
-194.98
-154.05
-114.47
-75.89
-36.84
5.33
53.43
109.52
173.64
242.78
310.5
367.79
405.53
417.8
404.23
369.87
323.84
276.48
236.11
206.63
186.88
172.22
157.17
137.64
111.21
77.58
38.22
-4.27
-47.14
-88.3
-126.21
-159.5
-182.1
-188.23
-176.67
-152.55
-124.07
-97.79
-76.87
-61.46
-49.88
-39.89
-30.46
-21.82
-14.75
-9.76
-6.86
-5.64
-5.37
-5.05
-3.69
-1.22
1.7
4.31
6.2
7.42
8.19
8.81
9.64
11.02
12.82
14.61
16.04
17.03
17.79
18.5
19.24
20.02
20.81
21.3
21.23
20.4
18.84
16.71
14.16
11.23
7.91
4.18
-0.18
-5.01
-10.07
-14.97
-19.34
-22.91
-25.66
-27.78
-29.62
-31.53
-33.49
-35.32
-36.69
-37.28
-36.99
-36.07
-35.06
-34.52
-34.94
-36.11
-37.33
-37.69
-36.35
-32.93
-27.82
-21.96
-15.89
-11.17
-8.15
-6.34
-4.82
-2.85
-0.13
2.72
4.51
3.96
-0.12
-8.21
-20.75
-37.68
-57.62
-77.37
-92.27
-97.64
-90.91
-73.27
-49.04
-24.82
-6.53
3.07
4.88
2.25
-1.17
-3.14
-3.43
-2.16
-0.35
1.34
2.99
4.88
6.82
8.39
9.28
9.45
10.32
12.2
14.93
18.94
24.86
33.44
46.08
65.49
89.19
118.41
153.75
195.98
246.09
303.03
361.7
413.23
447.4
456.19
437.65
393.45
329.47
254.45
176.28
99.13
23.6
-51.81
-128.65
-194.05
-237.06
-258.17
-264.31
-261.52
-253.35
-241.06
-225.51
-207.78
-188.85
-172.15
-160.89
-155.98
-156.01
-158.55
-158.46
-148.75
-123.03
-79.04
-23.06
30.84
72.03
93.16
92.3
75.78
54.81
40
36.82
43.36
55.71
65.48
70.95
71.89
69.86
65.7
58.28
45.17
23.76
-6.56
-43.98
-75.6
-96.13
-104.69
-103.82
-97.83
-91.18
-87.03
-86.24
-87.45
-87.67
-85.98
-81.84
-75.82
-69.43
-64.48
-62.03
-62.53
-65.97
-71.53
-78.88
-85.53
-87.26
-79.79
-60.86
-31.01
5.98
44.19
77.46
99.79
107.42
98.93
75.36
39.76
-2.45
-45.5
-82.54
-107.5
-116.71
-109.08
-86.75
-53.21
-17.44
12.42
30.67
35.61
29.49
17.06
3.54
-7.72
-15.76
-21.35
-25.17
-27.29
-27.07
-23.96
-18.32
-10.75
-2.37
5.69
12.71
18.86
24.61
30.36
36.05
41.18
45.04
47.15
47.39
46.04
43.87
41.7
39.94
38.43
36.55
33.49
28.89
22.74
15.43
7.68
0.13
-6.97
-13.76
-20.67
-28.22
-36.08
-43.75
-50.49
-55.58
-58.56
-59.55
-59.12
-58.06
-57.23
-56.42
-55.23
-52.9
-48.43
-40.63
-28.26
-10.26
14.15
39.66
62.21
78.08
85.14
83.84
77.14
69.37
64.37
64.23
68.91
77.66
89
101.31
112.84
121.54
125.18
121.89
110.87
92.66
69.61
44.49
19.94
-1.79
-19.15
-31.27
-37.98
-39.78
-37.75
-33.02
-27.01
-21.21
-16.95
-15.17
-15.98
-18.73
-22.41
-26.32
-30.15
-34.12
-38.34
-42.38
-45.25
-45.84
-43.34
-36.89
-25.13
-6.38
20.23
53.34
88.86
121.03
144.74
157.46
160.12
156.26
150.04
145.17
145.03
153.41
174.14
209.31
256.23
307.02
350.79
377.59
382.47
367.2
338.92
306.44
276.71
251.42
229.1
207.91
187.34
168.07
150.69
134.69
118.38
99.38
72.79
36.19
-7.87
-52.59
-90.09
-115.03
-126.36
-126.8
-120.96
-118.22
-125.38
-143.18
-167.67
-193.52
-217.42
-238.87
-259.08
-279.58
-308.04
-350.45
-407.27
-474.28
-545.7
-617.43
-688.36
-759.35
-789.86
-753.03
-649.24
-506.79
-360.37
-231.5
-126.46
-43.47
21.71
73.68
110.26
123.37
118.27
104.45
90.91
83.38
83.05
87.73
93.61
91.15
71.97
31.7
-21.9
-78.71
-127.46
-159.15
-169.33
-158.84
-136.71
-104.06
-67.24
-33.49
-7.6
10.33
22.39
30.08
33.63
31.2
22.04
6.76
-11.67
-30.35
-46.61
-59.87
-71.4
-82.32
-93.51
-104.69
-115.34
-123.9
-128.65
-128.27
-122.4
-113.26
-102.88
-92.66
-83.22
-75.14
-68.25
-62.15
-56.46
-51.37
-47.52
-45.3
-44.78
-45.53
-47.15
-48.7
-49.2
-47.82
-44.36
-39.3
-33.33
-27.3
-21.83
-17.21
-13.06
-8.51
-2.48
5.66
15.88
27.65
40.11
52.69
65.51
79.62
96.56
117.8
143.93
174.28
207.14
240.6
273.18
304.58
335.54
367.25
400.69
436.42
474.87
516.53
561.48
608.23
652.63
687.7
705.12
698.08
664.04
605.87
530.75
447.17
361.54
276.5
191.78
107.11
24.86
-49.52
-109.79
-152.5
-179.51
-197.18
-212.59
-229.15
-244.46
-251.91
-245.62
-225.01
-196.35
-169.94
-154.55
-152.58
-159.05
-164.91
-162.25
-148.57
-127.13
-103.81
-82.95
-64.62
-45.22
-21.15
7.53
35.6
54.63
57.66
43.56
18.15
-8.79
-28.57
-37.3
-36.29
-29.17
-18.56
-4.9
11.86
29.58
43.11
46.22
35.28
11.75
-18.4
-47.83
-71.44
-87.83
-98.03
-102.9
-101.55
-92.05
-73.55
-47.97
-19.79
6.13
26.72
42.08
54.84
68.39
85.01
104.81
125.87
145.04
159.01
165.19
161.9
148.58
125.65
94.81
58.85
21.12
-15.61
-50.48
-84.81
-121.21
-161.79
-206.36
-251.59
-292.18
-323.55
-343.87
-354.69
-359.55
-361.31
-360.38
-354.56
-340.92
-318.44
-289.48
-259.05
-232.33
-211.37
-193.5
-172.37
-141.26
-96.82
-41
19.78
77.98
127.91
167.08
195.37
213.38
221.61
220.84
213.69
205.3
201.91
208.02
224.01
245.96
267.5
283.22
290.99
291.99
289.01
284.13
277.57
268.27
255.23
238.79
220.74
203.29
187.89
174.68
162.72
150.9
138.77
126.54
114.31
101.3
85.88
66.45
42.81
16.89
-7.97
-29.09
-46.37
-62.45
-80.96
-104.2
-131.74
-161.31
-190.71
-219.2
-246.91
-272.75
-292.99
-302.13
-296
-274.82
-244.36
-213.45
-189.44
-174.87
-166.88
-159.52
-147.59
-128.87
-103.98
-74.49
-41.32
-4.51
36
79.48
124.33
168.31
209.25
245.07
273.31
291.12
295.91
286
261.43
224.27
178.62
130.66
87.91
57.9
45.75
51.7
69.95
90.14
101.38
96.96
77.35
49.33
21.98
2.3
-7.27
-8.24
-3.6
4.33
14.18
24.49
32.59
34.99
29.15
15
-4.6
-25.33
-43.32
-56.78
-66.12
-72.58
-77.17
-80.44
-83.11
-86.54
-92.1
-99.82
-107.52
-111.68
-109.95
-103.57
-97.02
-94.99
-98.42
-102.64
-99.85
-84.76
-59.75
-34.99
-23.09
-31.03
-55.09
-82.49
-98.95
-97.28
-81.19
-61.99
-50.57
-50.35
-55.63
-55.71
-42.23
-14.16
22
56.07
79.82
90.32
90.18
84.9
79.48
76.52
76.04
76.58
76.75
76.24
75.64
75.64
76.09
75.88
73.52
68.3
60.83
52.5
44.17
34.73
21.16
0.52
-27.33
-58.57
-86.72
-106.09
-115.17
-117.31
-118.26
-122.14
-128.9
-135.29
-138.25
-137.86
-137.52
-140.44
-145.48
-145.96
-133.26
-102.89
-59.1
-13.97
18.76
30.83
23.07
3.14
-20.44
-43.37
-65.96
-89.75
-113.19
-130.64
-136.14
-127.94
-110.37
-91.73
-79.57
-76.4
-79.26
-82.28
-80.74
-73.89
-64.13
-54.78
-48.14
-44.52
-43.06
-42.73
-43.06
-45.06
-52.06
-67.27
-91.56
-121.39
-149.29
-166.61
-167.16
-149.26
-116.68
-78.09
-43.2
-20.01
-13.32
-24.57
-51.71
-89.44
-129.03
-152.17
-145.55
-107.78
-52.52
0.43
37.14
56.09
63.31
71.47
88.76
115.26
145.95
174.6
197.02
209.97
211.65
201.3
180.76
155.05
131.73
119.62
125.27
149.43
184.98
219.57
240.41
240.8
222.73
194.92
168.52
151.74
146.68
145.32
138.12
118.42
87.68
54.81
29.41
15.56
10.3
7.04
0.26
-10.61
-21.67
-27.28
-24.03
-13
1.05
12.32
16.66
13.05
4.46
-4.34
-8.68
-6.28
1.94
12.48
21.05
24.32
20.96
12.21
0.79
-10.13
-19.23
-27
-35.6
-47.4
-64.25
-86.42
-112.33
-139.08
-163.43
-182.8
-196.02
-203.43
-205.95
-205.14
-203.01
-201.73
-203.1
-207.63
-213.6
-216.83
-211.83
-193.49
-160.11
-114.59
-63.63
-14.99
25.58
56.49
80.74
100.53
119.78
141.69
167.36
195.48
222.92
245.81
260.52
264.6
257.13
239.57
214.87
187.14
160.93
140.26
127.31
121.42
119.01
114.65
103.76
84.28
57.83
29
3.33
-14.93
-24.25
-25.58
-21.45
-14.49
-7.18
-1.74
-0.05
-3.32
-11.65
-23.92
-38.1
-51.86
-62.98
-69.81
-71.24
-66.81
-56.94
-43.4
-29.11
-17.49
-11.25
-11.27
-16.35
-23.84
-30.86
-35.41
-36.95
-36.12
-34.12
-32.05
-30.44
-29.2
-27.84
-25.83
-23.03
-19.75
-16.6
-13.97
-11.7
-9
-4.92
0.86
7.47
12.93
14.92
11.9
3.81
-7.79
-20.3
-31.07
-37.99
-39.81
-35.93
-26.31
-11.52
7
26.71
44.35
56.68
61.65
58.98
50.27
38.29
25.89
15.05
6.53
0.18
-4.44
-7.54
-8.93
-8.28
-5.59
-1.44
3.12
6.89
9.07
9.51
8.67
7.47
6.9
7.66
9.84
12.85
15.5
16.43
14.66
10.02
3.42
-3.42
-8.53
-10.42
-8.34
-2.32
7.05
18.79
31.37
42.5
49.28
48.95
40.38
25.03
7.09
-7.98
-15.68
-14.32
-5.54
6.83
18.73
27.54
32.48
33.99
32.69
28.84
22.41
13.73
3.86
-5.58
-12.91
-17.02
-17.61
-15.22
-10.92
-6.1
-2.2
-0.46
-1.75
-6.25
-13.45
-22.28
-31.5
-39.91
-46.54
-50.61
-51.56
-49.21
-43.92
-36.94
-30.36
-26.58
-27.25
-32.32
-39.61
-45.39
-45.92
-39.06
-25.31
-7.46
10.63
25.49
35.16
39.4
39.44
37.34
35.41
35.59
38.93
45.09
52.41
58.42
60.83
58.39
51.24
40.54
27.84
14.52
1.72
-9.5
-17.98
-22.84
-23.96
-22.4
-20.11
-19.22
-21.14
-26.07
-33.15
-40.94
-48.08
-53.57
-56.71
-56.99
-54.11
-48.24
-40.25
-31.68
-24.16
-18.71
-15.2
-12.56
-9.51
-5.53
-1.22
2.07
3.1
1.69
-1.15
-3.92
-5.57
-6.16
-6.73
-8.34
-11.09
-13.81
-14.64
-12.3
-7.12
-1.24
2.21
0.49
-7.28
-19.7
-33.52
-44.87
-50.78
-50.12
-43.96
-34.79
-25.38
-17.62
-11.84
-7.01
-1.66
5.05
12.64
19.52
23.84
24.58
22.2
18.38
15.16
14
15.21
18.16
21.86
25.63
29.27
33.02
37.04
41.22
45.1
48.06
49.48
48.76
45.36
38.79
28.88
16.1
1.74
-12.24
-23.85
-31.72
-35.54
-36.02
-34.36
-31.7
-28.81
-25.99
-23.3
-20.74
-18.16
-15.32
-11.84
-7.49
-2.39
2.85
7.34
10.22
10.97
9.47
5.91
0.7
-5.58
-12.13
-17.92
-21.96
-23.63
-23.04
-20.93
-18.4
-16.35
-15.12
-14.49
-13.88
-12.83
-11.3
-9.81
-9.12
-9.86
-12.12
-15.24
-18.07
-19.29
-17.93
-13.72
-7.21
0.28
6.95
10.97
11.13
7.42
1.29
-4.55
-7.04
-3.88
5.48
19.48
34.89
47.86
55.2
55.28
48.3
36.11
21.47
7.25
-4.18
-11.32
-13.64
-11.58
-6.39
0.14
6.09
9.92
10.92
9.38
6.32
2.85
-0.37
-3.45
-7
-11.65
-17.55
-24.33
-31.32
-37.93
-43.55
-47.37
-48.29
-45.07
-37.01
-24.75
-10.61
1.87
9.17
9.21
2.13
-9.83
-23.35
-35.22
-42.91
-44.67
-39.26
-26.13
-5.88
19.09
44.58
65.74
78.82
82.94
80.45
75.73
72.95
74.1
78.17
82.17
82.84
78.21
68.23
54.45
39.11
24.42
12.01
2.58
-4.02
-8.64
-12.46
-16.3
-20.22
-23.51
-25.28
-25.12
-23.64
-22.25
-22.44
-24.89
-29.12
-33.86
-37.68
-39.81
-40.31
-39.84
-39.06
-38.21
-36.95
-34.67
-30.83
-25.39
-18.78
-11.7
-4.78
1.79
8.15
14.55
20.95
26.72
30.78
32.03
29.83
24.36
16.64
8.17
0.36
-5.82
-9.97
-12.2
-12.92
-12.69
-12.04
-11.4
-10.94
-10.55
-9.76
-7.98
-4.79
-0.23
5.08
10.05
13.39
13.99
11.47
6.44
0.56
-3.99
-5.28
-2.48
3.76
11.62
18.92
24.16
26.88
27.43
26.41
24.03
20.06
14.3
7.2
0.06
-5.49
-8.27
-8.3
-6.75
-5.35
-5.43
-7.27
-9.96
-11.92
-11.73
-8.69
-3.12
3.9
10.93
16.65
20.11
20.94
19.25
15.49
10.22
3.95
-2.84
-9.68
-15.87
-20.47
-22.52
-21.38
-17.14
-10.7
-3.45
3.24
8.6
12.71
16.25
19.96
24.15
28.47
32.08
34.1
34
31.78
27.8
22.53
16.34
9.57
2.87
-2.73
-6.13
-6.78
-5.22
-3.15
-2.75
-5.62
-11.92
-20.16
-27.87
-32.71
-33.43
-30.16
-24.14
-17.08
-10.6
-5.98
-4.16
-5.6
-10.1
-16.52
-22.73
-26.15
-24.57
-17.06
-4.56
10.32
24.17
34.05
38.54
38.04
34.29
29.41
24.99
21.74
19.8
19.11
19.71
21.66
24.65
27.8
29.79
29.36
26.02
20.41
14.13
9.14
6.81
7.28
9.29
10.82
10.02
6.22
0.25
-6.1
-11.03
-13.78
-14.99
-16.4
-19.85
-26.36
-35.63
-45.93
-54.59
-58.62
-55.56
-44.36
-25.93
-3.29
19.11
36.59
45.77
45.53
37.21
23.84
8.98
-4.2
-13.35
-16.98
-14.56
-6.65
4.76
16.39
24.28
25.14
17.59
2.86
-15.46
-32.78
-45.05
-50.13
-48.17
-41.11
-31.62
-22.2
-14.47
-9.07
-5.92
-4.48
-4.1
-4.23
-4.6
-5.28
-6.64
-9.17
-13.18
-18.62
-25.01
-31.5
-37.12
-40.82
-41.66
-38.9
-32.23
-22.02
-9.35
4.16
16.75
27.02
34.35
38.91
41.45
42.7
43
42.04
39.12
33.47
24.86
13.75
1.19
-11.52
-23.27
-33.11
-40.14
-43.28
-41.37
-33.74
-21.05
-5.68
8.73
18.5
21.38
17.47
8.96
-1.16
-10.47
-18.02
-24.17
-29.77
-35.33
-40.69
-45.27
-48.44
-49.74
-48.76
-44.93
-37.63
-26.59
-12.53
2.74
16.86
27.84
34.99
39.11
41.81
44.51
47.45
49.62
49.47
45.96
39.41
31.51
24.54
20.34
19.57
21.64
25.28
29.3
32.96
35.9
37.79
38.09
36.23
32.18
26.79
21.64
18.32
17.45
18.2
18.69
17.07
12.5
5.71
-1.47
-7
-9.56
-8.83
-5.26
0.57
8.14
16.94
26.16
34.68
41.45
46.15
49.56
53.15
58.35
65.59
74.02
82.05
88.2
91.89
93.5
93.82
93.27
91.88
89.77
87.59
86.37
86.55
86.75
83.53
72.65
51.36
20.55
-14.91
-48.24
-74.1
-91.34
-102.91
-113.28
-124.89
-136.27
-143.33
-142.68
-134.44
-122.4
-111.32
-103.37
-96.56
-86.23
-68.8
-45.18
-20.97
-3.68
1.77
-4.34
-16.9
-29.17
-36.4
-37.71
-35.31
-32.18
-30.01
-28.58
-26.87
-24.35
-21.7
-20.29
-20.92
-23.11
-25.27
-25.97
-25.07
-23.93
-24.44
-27.56
-32.46
-37.05
-39.51
-39.67
-39.35
-41.16
-46.7
-55.27
-64.05
-69.58
-69.47
-63.54
-53.48
-41.78
-30.37
-20.16
-11.39
-4.36
0.27
1.71
-0.41
-5.45
-11.9
-17.92
-22.06
-23.73
-23.05
-20.59
-16.96
-12.68
-8.2
-3.99
-0.42
2.25
4.02
5
5.42
5.52
5.54
5.69
5.96
5.99
5.17
2.99
-0.44
-4.27
-7.03
-7.29
-4.21
2.03
10.39
19.51
28.21
35.82
42.08
46.95
50.43
52.54
53.37
53.13
52.02
50.04
46.98
42.68
37.33
31.71
26.96
23.92
22.6
22
20.45
16.73
10.84
4.24
-0.75
-2.33
-0.31
3.7
7.07
7.64
4.71
-0.97
-8.35
-17.11
-27.88
-41.28
-56.63
-71.33
-81.73
-84.9
-80.1
-69.06
-54.75
-39.79
-25.4
-11.85
0.58
10.92
17.94
21.33
22.47
23.92
27.89
34.62
41.95
46.22
44.27
34.99
19.93
2.77
-12.15
-21.29
-23.05
-18.21
-9.58
-0.92
4.57
5.47
2.67
-1.16
-2.97
-0.94
4.74
12.06
18.34
21.56
21.33
18.76
15.71
13.86
14
15.94
18.99
22.38
25.48
27.75
28.58
27.35
23.67
17.61
9.72
0.77
-8.56
-17.73
-26.27
-33.48
-38.45
-40.4
-39.12
-35.37
-30.85
-27.69
-27.52
-30.77
-36.34
-41.89
-44.92
-43.99
-39.69
-34.53
-31.78
-33.59
-39.53
-46.38
-49.46
-44.99
-32.01
-13.03
6.96
22.67
30.62
30.42
24.62
17.51
13.26
14.43
21.08
30.95
40.59
46.75
47.72
43.78
36.74
28.77
21.28
14.35
7.16
-0.97
-9.66
-17.34
-22.04
-22.66
-19.87
-15.91
-13.59
-14.72
-19.03
-24.23
-27.12
-25.25
-18.17
-7.65
3.36
12.2
17.87
21.29
24.42
28.78
34.31
39.14
40.62
36.87
28.01
16.3
4.96
-3.48
-8.29
-10.61
-12.31
-14.63
-17.23
-18.32
-15.62
-7.61
5.42
21.18
35.88
45.57
47.67
42.17
31.73
20.64
12.99
10.97
14.39
21.27
29.38
37.39
45.04
52.23
58.27
61.62
60.91
56.15
49.3
43.52
41.51
43.88
48.71
52.73
53.19
49.38
42.88
36.29
31.35
27.56
22.38
12.96
-1.51
-18.35
-31.75
-35.19
-24.71
-1.33
28.84
57.13
76.16
83.04
80.2
73.51
68.92
69.49
74.59
81.2
86.43
89.25
90.79
92.87
96.33
100.14
101.96
99.53
92.09
80.69
67.31
53.39
38.95
22.73
3.37
-19.14
-42.55
-62.91
-75.95
-79.12
-73
-61.44
-50.19
-44.49
-46.73
-55.3
-65.32
-70.93
-68.08
-56.59
-40.21
-25
-16.5
-17.26
-25.79
-37.5
-47.04
-50.87
-48.67
-43.15
-38.3
-37.22
-40.65
-46.88
-52.94
-56.39
-56.51
-54.45
-52.24
-51.36
-51.83
-52.32
-51.15
-47.45
-41.76
-35.78
-31.41
-29.76
-30.73
-33.29
-36.23
-38.9
-41.27
-43.53
-45.32
-45.42
-42.04
-33.74
-20.48
-4.07
12.03
23.92
28.75
25.9
17.3
6.66
-2.03
-6.03
-4.63
0.92
8.41
15.77
21.8
26.09
28.53
28.83
26.51
21.44
14.37
6.97
1.13
-1.99
-2.67
-2.47
-3.33
-6.37
-11.13
-15.85
-18.49
-17.95
-14.69
-10.44
-7.13
-5.77
-5.84
-5.67
-3.45
1.67
8.91
16.08
20.56
20.59
16.22
9.45
3.4
0.88
3
8.59
14.6
17.56
15.13
7.19
-3.93
-14.39
-20.41
-19.77
-12.52
-1.02
11.05
19.94
22.88
18.75
8.27
-6.25
-21.51
-34.02
-40.92
-40.84
-34.25
-23.33
-11.11
-0.37
7.36
12.08
14.91
17.1
19.18
20.83
21.26
20.03
17.5
14.89
13.61
14.43
16.93
19.58
20.35
17.77
11.78
3.9
-3.3
-7.44
-7.49
-4.35
-0.38
1.71
0.29
-4.67
-11.88
-19.62
-26.63
-32.22
-35.89
-36.77
-33.64
-25.58
-12.88
2.44
17.07
27.56
31.68
29.15
21.49
11.23
0.92
-7.4
-12.45
-13.62
-11.09
-5.83
0.45
5.69
8.05
6.38
0.59
-8.22
-17.83
-25.33
-27.77
-23.28
-12.04
3.14
17.56
26.17
25.89
16.96
2.9
-11.2
-21.04
-24.85
-23.57
-19.59
-14.93
-10.09
-4.14
4.09
14.77
26.49
36.76
43.16
44.52
41.28
35.08
27.7
20.24
12.83
5.1
-3.04
-10.86
-16.93
-19.92
-19.37
-16.17
-12.15
-9.29
-8.87
-11.04
-14.96
-19.21
-22.36
-23.42
-22.11
-19.14
-16.05
-14.76
-16.59
-21.2
-26.31
-28.3
-23.97
-12.44
4.03
20.75
32.74
37.06
34.05
26.79
19.21
14.04
11.73
10.99
10.07
8.17
5.91
4.6
5.22
7.63
10.68
12.94
13.59
12.77
11.38
10.33
10.1
10.49
11.05
11.4
11.44
11.25
10.78
9.56
6.84
1.81
-5.98
-16.19
-27.58
-38.26
-46.04
-49.21
-47.23
-41.15
-33.42
-27.03
-24.22
-25.56
-29.66
-33.89
-35.76
-33.92
-28.6
-21.2
-13.44
-6.78
-2.18
-0.14
-0.49
-2.21
-3.13
-0.46
8.16
23.24
42.65
61.99
76.27
81.89
78.1
67.08
52.71
38.8
27.69
19.9
14.77
11.55
10.12
10.92
14.29
19.71
25.46
29.2
28.87
23.65
14.36
3.21
-7
-13.72
-15.35
-11.69
-4.11
4.66
11.3
13.09
9.12
0.82
-8.65
-16.14
-20.01
-20.95
-21.05
-22.13
-24.29
-25.95
-25.22
-21.58
-16.68
-13.35
-13.83
-18.02
-23.4
-26.36
-24.18
-16.45
-4.93
7.54
18.32
25.86
29.61
29.82
27.27
23.2
19.26
17.07
17.55
20.47
24.49
27.87
29.25
28.19
25.18
21.08
16.7
12.43
8.38
4.63
1.29
-1.68
-4.69
-8.44
-13.51
-19.72
-25.87
-29.89
-29.78
-24.57
-14.95
-3.07
8.24
16.67
21.19
22.06
20.4
17.31
13.43
8.97
4.04
-0.93
-5.21
-7.95
-8.69
-7.58
-5.36
-3.08
-1.68
-1.7
-3.1
-5.42
-8.01
-10.27
-11.89
-12.89
-13.54
-14.18
-15.04
-16.18
-17.64
-19.44
-21.69
-24.39
-27.17
-29.31
-29.87
-28.34
-24.85
-20.32
-15.96
-12.62
-10.33
-8.29
-5.64
-2.03
1.95
5.12
6.46
5.74
3.64
1.25
-0.67
-1.96
-2.83
-3.29
-2.75
-0.18
5.2
13.27
22.73
31.61
37.99
40.93
40.52
37.6
33.07
27.44
20.83
13.25
5.11
-2.68
-8.93
-12.72
-13.9
-13.18
-11.94
-11.44
-12.07
-13.15
-13.18
-10.7
-5.13
2.76
10.99
17.16
19.32
16.78
10.43
2.51
-4.11
-6.87
-4.43
2.85
13.03
23.27
30.85
34.05
32.48
26.92
18.79
9.54
0.27
-8.43
-16.25
-23.01
-28.5
-32.38
-34.4
-34.63
-33.49
-31.69
-29.79
-27.85
-25.34
-21.52
-16.08
-9.52
-3.12
1.69
4.05
4.16
3.06
2.04
1.93
2.73
3.9
4.77
4.93
4.37
3.22
1.67
-0.25
-2.45
-4.75
-6.86
-8.48
-9.39
-9.63
-9.4
-9.01
-8.88
-9.33
-10.6
-12.73
-15.51
-18.47
-20.93
-22.15
-21.49
-18.7
-13.97
-7.97
-1.65
4.01
8.34
11.19
12.8
13.71
14.38
15.08
15.76
16.25
16.39
16.11
15.4
14.24
12.68
10.76
8.68
6.73
5.21
4.2
3.54
2.82
1.67
-0.08
-2.29
-4.63
-6.78
-8.69
-10.6
-12.93
-15.94
-19.44
-22.75
-24.95
-25.17
-23.04
-18.81
-13.2
-7.15
-1.42
3.68
8.16
12.19
15.91
19.22
21.81
23.36
23.68
22.82
21.03
18.71
16.24
13.92
11.96
10.46
9.44
8.79
8.38
7.97
7.32
6.2
4.45
2.06
-0.83
-3.88
-6.65
-8.73
-10.05
-10.89
-11.89
-13.74
-16.85
-21.1
-25.68
-29.43
-31.17
-30.2
-26.42
-20.44
-13.26
-5.92
0.71
6.2
10.37
13.28
15.01
15.64
15.31
14.26
12.86
11.54
10.6
10.11
9.89
9.53
8.67
7.16
5.23
3.4
2.24
2.06
2.67
3.46
3.62
2.62
0.45
-2.35
-5.07
-7.3
-9.16
-11.2
-13.97
-17.58
-21.45
-24.57
-25.98
-25.22
-22.54
-18.58
-13.96
-8.94
-3.41
2.81
9.57
16.15
21.54
24.86
25.83
24.91
23.07
21.3
20.22
19.89
19.96
19.95
19.49
18.44
16.91
15.16
13.53
12.3
11.55
11.1
10.58
9.62
8.07
6.02
3.7
1.25
-1.42
-4.55
-8.38
-12.88
-17.66
-22.13
-25.65
-27.77
-28.26
-27.08
-24.29
-20.02
-14.47
-8.01
-1.13
5.52
11.25
15.39
17.53
17.63
16.06
13.61
11.1
9.13
7.84
6.93
5.88
4.25
1.92
-0.86
-3.51
-5.44
-6.17
-5.61
-4.09
-2.34
-1.27
-1.67
-4.01
-8.25
-14
-20.71
-27.94
-35.32
-42.48
-49.03
-54.43
-58.09
-59.49
-58.2
-53.93
-46.49
-36
-23.09
-8.97
4.73
16.4
24.98
30.21
32.62
33.2
33.01
32.86
33.26
34.41
36.12
37.9
39
38.69
36.51
32.48
27.14
21.29
15.77
11.12
7.55
5.02
3.3
2.14
1.3
0.57
-0.22
-1.3
-2.95
-5.41
-8.79
-12.85
-17.01
-20.47
-22.46
-22.48
-20.44
-16.66
-11.75
-6.44
-1.41
2.83
5.97
7.99
9.03
9.31
8.99
8.09
6.52
4.33
1.81
-0.55
-2.26
-3.11
-3.37
-3.61
-4.39
-5.85
-7.52
-8.66
-8.68
-7.59
-6.18
-5.64
-6.94
-10.34
-15.3
-20.71
-25.39
-28.26
-28.36
-24.67
-16.31
-2.94
14.57
33.77
51.15
63.19
67.75
64.96
57.02
47.14
38.04
31
25.72
21.07
16.08
10.56
5.17
0.88
-1.67
-2.59
-2.67
-2.92
-4
-5.92
-8.03
-9.48
-9.74
-8.94
-7.93
-7.86
-9.7
-13.68
-19.22
-25.06
-29.82
-32.42
-32.5
-30.38
-26.85
-22.74
-18.59
-14.45
-10.05
-4.99
0.82
6.96
12.54
16.44
17.79
16.29
12.38
6.96
1.21
-3.85
-7.52
-9.6
-10.31
-10.31
-10.5
-11.72
-14.4
-18.33
-22.6
-26.03
-27.71
-27.66
-26.92
-27.15
-29.87
-35.55
-43.25
-50.95
-56.49
-58.54
-57.19
-53.74
-49.96
-47.13
-45.57
-44.61
-43.1
-39.83
-33.93
-25.02
-13.43
-0.41
11.81
20.34
22.68
18
8.07
-3.03
-10.59
-11.56
-6.18
2.29
9.51
12.68
12.14
10.93
12.52
18.24
26.23
32.19
31.96
23.85
9.51
-7.03
-21.69
-32.04
-38
-40.95
-42.55
-43.92
-45.69
-48.53
-53.32
-60.74
-70.45
-80.7
-88.66
-91.82
-89.22
-81.92
-72.3
-62.99
-55.94
-52.15
-51.89
-54.67
-58.97
-62.01
-60.39
-51.47
-34.73
-12.39
11.59
33.5
51.35
65.25
76.18
84.74
90.67
93.67
94.58
95.84
100.3
109.21
121.08
132.22
139.07
140.39
138.18
136.2
137.38
141.43
144.84
142.76
132.08
113.63
92.11
73.85
63.76
63.11
69.17
76.83
81.01
78.62
69.34
55.15
39.18
24.7
14.25
9.19
9.47
13.68
19.44
24.43
27.37
28.53
29.36
31.24
34.41
37.59
38.9
37.27
33.55
30.27
30.23
34.64
42.19
49.55
53.19
51.34
44.88
36.99
31.53
31.37
37.22
47.5
59.21
69.15
75.17
76.77
75.33
73.41
73.43
76.61
82.05
86.85
87.12
79.32
61.1
31.78
-7.76
-54.93
-105.3
-152.73
-190.33
-212.01
-214.55
-198.9
-169.88
-134.52
-99.31
-67.98
-40.96
-16.41
7.7
32.15
56.41
79.69
102.09
124.62
148.05
171.28
190.65
200.9
197.39
178.59
147.04
108.35
68.71
32.46
1.04
-26.28
-50.54
-71.54
-87.37
-95.57
-94.88
-86.58
-74.52
-63.67
-57.91
-58.29
-62.55
-66.37
-65.6
-58.3
-45.57
-30.85
-18.2
-10.54
-8.86
-12.57
-20.37
-31.29
-44.74
-60.11
-75.96
-89.65
-97.85
-97.77
-88.71
-72.88
-55.17
-41.4
-36.32
-41.82
-56.48
-76.29
-96.27
-112.06
-120.99
-122.58
-118.42
-111.72
-106.42
-106.18
-113.11
-127.05
-145.47
-164.36
-179.52
-187.77
-187.74
-179.88
-166.08
-148.98
-131.44
-116.08
-104.96
-99.58
-100.9
-109.44
-125.18
-147.29
-173.92
-202.2
-228.82
-250.78
-266.13
-274.17
-275.06
-269.13
-256.43
-236.85
-210.68
-179.18
-144.62
-109.83
-77.09
-47.38
-19.91
7.45
37.43
72.39
113.58
160.57
211.02
260.96
305.49
340.11
361.96
370.64
368.07
357.28
340.95
320.26
295.02
264.75
230.12
193.97
160.99
136.74
125.55
129.22
146.23
171.91
199.3
220.67
229.67
223.34
203.23
174.56
143.74
115.42
90.52
66.43
38.9
4.68
-36.84
-83.12
-130.16
-174.05
-211.96
-242.02
-262.94
-274.49
-278
-276.85
-274.44
-273.63
-274.65
-274.76
-269.42
-254.77
-230.28
-199.1
-165.53
-128.95
-84.68
-26.35
48.92
137.02
227.06
305.34
360.85
388.96
395.43
389.35
378.55
367.4
358.35
354.39
358.68
372.26
391.48
413.28
433.43
449.52
462.24
475.14
492.44
515.58
541.87
536.21
473.79
347.64
174.84
-14.04
-190.03
-333.01
-432.96
-488.77
-507.07
-494.92
-461.91
-416.35
-364.5
-311.83
-261.72
-220.06
-194.49
-191.84
-211.46
-248.34
-293.18
-335.64
-367.17
-382.59
-381.36
-367.18
-346.77
-318.7
-287.03
-257.53
-235.03
-220.98
-213.6
-210.39
-209.75
-211.21
-213.87
-215.94
-213.95
-204.67
-186.34
-159.12
-124.58
-84.59
-39.92
8.25
59.14
112.68
168.78
226.81
285.7
344.53
403.42
463.53
525.82
588.91
648.06
695.31
721.78
721.11
692.54
641.86
579.25
515.12
456.49
405.16
358.67
312.92
264.79
213.18
158.69
102.8
47.38
-5.13
-51.85
-90.44
-120.7
-145.96
-172.34
-206.19
-250.3
-301.31
-349.69
-383.31
-392.09
-371.78
-325.08
-260.02
-186.78
-114.45
-49.07
6.77
53.09
91.1
122.02
146.15
163.37
173.82
178.77
180.91
183.51
188.72
196.3
203.37
205.63
199.48
183.65
159.33
129.05
95.17
59
20.79
-19.72
-63.17
-110.5
-163.03
-221.84
-286.64
-355.1
-422.72
-483.72
-532.14
-562.93
-573.06
-562.61
-535.59
-499.5
-463.1
-433.04
-411.3
-394.95
-378.84
-359.17
-335.8
-311.27
-287.6
-263.47
-234.2
-194.99
-145.25
-90.81
-41.52
-6.44
10.76
13.25
8.61
4.74
6.55
15.14
29.18
46.9
67.03
88.56
109.68
127.27
137.48
137.53
127.5
110.91
93.61
81.35
77.25
80.88
88.85
96.76
101.36
101.64
98.62
94.29
90.24
86.98
83.93
79.99
74.04
65.49
54.45
41.72
28.72
17.25
9.17
6.14
8.9
16.99
28.53
40.6
50.18
55.29
55.81
53.34
50.45
49.33
50.99
55.02
60.08
64.54
66.99
66.35
61.98
53.79
42.52
29.74
17.62
8.15
2.42
0.26
0.49
1.62
2.57
2.85
2.48
1.53
-0.1
-2.62
-6.05
-9.92
-13.31
-15.11
-14.44
-11.09
-5.63
0.69
6.48
10.72
13.12
14.12
14.48
14.71
14.94
14.94
14.52
13.86
13.45
13.84
15.12
16.84
18.19
18.52
17.7
16
13.92
11.76
9.48
6.86
3.76
0.28
-3.2
-6.18
-8.23
-9.11
-8.8
-7.52
-5.55
-3.15
-0.51
2.25
4.91
7.07
8.12
7.49
5.01
1.15
-3.04
-6.32
-7.85
-7.56
-6.08
-4.4
-3.35
-3.29
-4.03
-5.13
-6.13
-6.86
-7.4
-8.04
-9.06
-10.63
-12.72
-15.05
-17.27
-19.03
-20.03
-19.94
-18.27
-14.45
-8.23
-0.15
8.28
15.11
18.81
19.24
17.84
16.9
18.2
21.91
26.43
29.27
28.45
23.3
14.66
4.03
-7.23
-18.26
-28.56
-37.5
-44.23
-47.93
-48.36
-46.08
-42.25
-38.11
-34.48
-31.54
-29.09
-26.87
-24.85
-23.09
-21.55
-19.8
-17.08
-12.61
-6.15
1.75
9.83
16.69
21.49
24.42
26.53
29.06
32.73
37.31
41.74
44.74
45.48
43.97
40.95
37.51
34.64
32.79
31.81
30.96
29.31
26.2
21.64
16.27
11.15
7.15
4.6
3.31
2.89
3.22
4.46
6.86
10.27
13.94
16.7
17.47
15.8
11.97
6.8
1.32
-3.58
-7.33
-9.76
-11.05
-11.67
-12.1
-12.73
-13.67
-14.86
-16.3
-18.04
-20.27
-23.05
-26.14
-28.79
-30.14
-29.58
-27.25
-23.89
-20.46
-17.79
-16.27
-15.91
-16.51
-18.03
-20.68
-25
-31.45
-39.93
-49.87
-60.4
-70.78
-80.76
-90.72
-101.52
-114.19
-129.03
-144.63
-158.89
-169.96
-177.19
-181.35
-184.1
-187.05
-191.6
-197.38
-201.13
-199.09
-188.44
-168.55
-141.14
-109.25
-76.07
-45.23
-17.94
8.63
38
72.84
113.55
158.24
204.04
248.43
288.22
323.81
360.63
404.73
460.88
530.58
612.15
702.65
799.82
900.51
978.46
1008.9
974.47
876.08
731.79
566.67
403.51
271.1
168.4
90.87
36.55
2.77
-14.34
-20.36
-21.58
-23.16
-28.9
-43.32
-66.64
-94.73
-122.48
-145.17
-160.21
-167.58
-169.24
-168.02
-168.33
-171.6
-176.29
-180.11
-180.83
-177.36
-170.13
-160.66
-150.91
-143.7
-139.81
-138.31
-137.68
-136.27
-133.05
-127.91
-121.52
-115.04
-110.29
-108.45
-110.53
-118.05
-132.8
-155.95
-186.77
-221.74
-255.12
-280.91
-294.64
-294.61
-281.77
-258.15
-225.99
-188.05
-148.64
-114.43
-93.43
-92.41
-113.96
-155.09
-208.38
-264.97
-317.4
-360.89
-392.54
-409.87
-410.37
-392.56
-357.89
-311.84
-262.79
-219
-185.28
-161.28
-142.47
-123.12
-99.36
-70.79
-39.77
-9.42
18.12
42.22
62.83
79.34
90.04
92.94
87.14
74.15
58.03
44.44
38.67
43.77
59.15
80.49
101.07
114.27
116.24
107.35
91.6
74.28
59.37
47.99
38.93
30.48
22.08
14.6
9.23
5.95
3.15
-1.28
-8.17
-15.98
-21.52
-21.98
-16.9
-8.86
-2.08
0.02
-3.3
-9.78
-15.77
-18.46
-17.46
-14.72
-13.1
-14.55
-19.02
-24.82
-29.88
-33.03
-34.41
-35.02
-35.68
-36.35
-36.19
-34.16
-29.92
-24.22
-18.49
-14.03
-11.07
-8.68
-5.41
-0.34
6.45
14.07
21.67
29.19
37.36
46.85
57.3
67.05
73.93
76.63
75.81
73.93
73.79
76.85
82.34
87.88
91.07
90.94
88.24
84.67
81.63
79.4
77.2
73.9
68.74
61.77
53.84
46.2
40.2
36.94
37.08
40.51
46.33
53.13
59.45
64.33
67.54
69.5
70.82
71.89
72.77
73.23
72.87
71.34
68.07
62.22
52.64
38.51
20.05
-0.88
-21.14
-37.41
-47.53
-51.45
-51.02
-48.91
-47.2
-46.51
-46.08
-44.84
-42.41
-39.54
-37.73
-38.16
-40.99
-45.41
-50.2
-54.52
-58.22
-61.4
-63.78
-64.53
-62.49
-57.08
-49.33
-42.06
-38.83
-42.23
-52.33
-66.53
-80.75
-91.23
-96.02
-95.03
-89.22
-79.55
-66.78
-52.16
-38.07
-27.66
-23.37
-25.18
-29.84
-31.97
-26.44
-10.9
13.5
43.07
73.75
103.29
131.99
162.29
197.03
237.33
280.85
321.55
350.99
361.27
348.39
313.87
264.42
208.7
153.57
102.19
54.89
12.21
-22.56
-43.57
-45.47
-27.38
4.97
40.71
68.17
79.44
72.63
51.11
20.86
-12.39
-44.51
-72.76
-95.37
-111.17
-120.11
-123.51
-123.69
-123.05
-122.9
-122.99
-121.92
-118.12
-110.62
-99.69
-86.5
-72.64
-59.48
-47.81
-37.68
-28.68
-20.46
-13.29
-8.5
-8.27
-14.73
-28.55
-47.73
-67.23
-80.13
-79.67
-61.68
-25.9
24.25
83.17
144.59
202.33
250.64
284.86
302.91
306.78
302.52
298
299
305.88
312.74
310.22
290.33
250.52
194.93
131.64
68.35
8.64
-48.59
-106.42
-165.92
-223.82
-272.94
-305.46
-316.84
-308
-284.68
-254.17
-221.88
-189.35
-155.28
-118.34
-79.69
-43.75
-16.64
-3.21
-4.61
-17.67
-36.14
-53.11
-63.47
-65.28
-60.15
-51.98
-44.99
-41.84
-42.54
-44.83
-45.47
-41.91
-33.24
-20.13
-4.14
13.09
30.05
45.41
57.97
66.74
71.36
72.26
70.53
67.51
64.26
61.34
58.81
56.51
54.24
51.9
49.6
47.63
46.22
45.21
43.94
41.29
36.3
28.8
19.89
11.58
5.9
3.8
4.56
6.13
6.11
2.95
-3.4
-11.57
-19.42
-25.02
-27.38
-26.78
-24.59
-22.65
-22.38
-24.12
-26.87
-28.93
-28.86
-26.42
-22.76
-19.73
-18.73
-19.83
-21.74
-22.74
-21.75
-19.06
-16.08
-14.46
-15.12
-17.8
-21.22
-23.82
-24.45
-22.69
-18.93
-14.08
-9.25
-5.45
-3.15
-2.11
-1.43
0.03
3.04
7.54
12.58
16.81
19.2
19.61
18.83
18.05
18.24
19.65
21.77
23.66
24.41
23.5
20.88
16.89
12.07
7.01
2.19
-2.08
-5.62
-8.3
-10.01
-10.63
-10.27
-9.42
-8.83
-9.27
-11.11
-14.02
-17.12
-19.4
-20.26
-19.81
-18.69
-17.58
-16.69
-15.61
-13.65
-10.4
-6.19
-1.98
1.12
2.59
2.71
2.47
2.85
4.22
6.21
8.05
9.18
9.61
9.87
10.48
11.51
12.49
12.82
12.34
11.64
11.86
13.82
17.35
20.88
22.02
18.66
10.15
-2.13
-15.3
-26.07
-32.28
-33.69
-31.76
-28.64
-25.9
-23.69
-20.87
-16.03
-8.44
1.23
11.09
18.77
22.44
21.49
16.68
9.83
3.14
-1.59
-3.44
-2.65
-0.48
1.42
1.73
0.14
-2.48
-4.49
-4.55
-2.37
0.94
3.41
3.31
0.14
-5.05
-10.28
-13.76
-14.81
-14.02
-12.8
-12.34
-13.02
-14.32
-15.37
-15.48
-14.54
-12.83
-10.66
-8.18
-5.42
-2.51
0.15
1.98
2.54
1.86
0.43
-1.01
-1.9
-2.13
-2.02
-2.05
-2.47
-3.28
-4.28
-5.24
-5.97
-6.21
-5.52
-3.41
0.37
5.44
10.66
14.49
15.61
13.68
9.55
4.88
1.3
-0.32
-0.25
0.62
1.42
1.95
2.71
4.52
7.81
12.25
16.73
19.86
20.61
18.81
15.25
11.41
8.8
8.43
10.3
13.47
16.39
17.68
16.82
14.47
12.18
11.66
13.91
18.55
24.04
28.33
29.82
28.13
24.19
19.82
16.76
15.93
17.04
18.77
19.61
18.65
16.21
13.67
12.74
14.55
19.01
24.86
30.16
32.94
31.43
24.13
9.87
-11.3
-36.93
-61.75
-78.63
-81.38
-68.18
-43.41
-16.69
0.65
0.31
-19.47
-53.22
-90.45
-119.76
-132.65
-125.98
-102.13
-67.63
-30.71
1.35
24
36.21
39.77
37.43
31.39
22.5
10.84
-2.93
-16.67
-26.82
-29.79
-23.41
-8.05
13.62
37.57
59.85
77.62
89.44
95.18
95.77
93.04
89.45
87.67
90.09
97.98
111
126.84
141.42
149.37
145
123.76
84.07
28.87
-33.91
-92.76
-136.08
-156.1
-151.68
-128.59
-97.17
-68.57
-51.34
-49.69
-63.4
-89.13
-121.75
-155.56
-185.25
-206.65
-217.7
-218.77
-212.31
-201.57
-189.23
-176.63
-163.65
-149.53
-133.61
-115.73
-96.34
-76.3
-56.72
-38.73
-23.21
-10.41
0.18
9.76
19.61
30.49
42.3
54.13
64.74
73.07
78.6
81.24
81.27
79.09
75.24
70.44
65.47
61.07
57.68
55.27
53.38
51.39
48.77
45.41
41.65
38.14
35.63
34.67
35.36
37.33
39.91
42.3
43.87
44.37
43.89
42.75
41.29
39.7
38.01
36.17
34.13
31.88
29.42
26.66
23.48
19.77
15.54
10.97
6.38
2.04
-1.86
-5.24
-8.03
-10.03
-11.01
-10.75
-9.31
-7.12
-4.91
-3.48
-3.33
-4.5
-6.41
-8.2
-8.94
-8.02
-5.36
-1.4
3.04
7.05
9.91
11.19
10.83
9
6.08
2.59
-0.83
-3.44
-4.56
-3.83
-1.33
2.33
6.17
9.21
10.87
11.12
10.45
9.59
9.15
9.35
10.02
10.69
10.94
10.38
8.87
6.3
2.65
-2.03
-7.53
-13.37
-18.82
-22.99
-25.02
-24.31
-20.71
-14.62
-6.97
0.99
8.01
13.09
15.74
16
14.37
11.59
8.44
5.56
3.32
1.85
1.01
0.51
0.06
-0.41
-0.7
-0.4
0.93
3.51
7.18
11.43
15.45
18.42
19.67
18.9
16.12
11.67
6.12
0.14
-5.65
-10.79
-15.05
-18.33
-20.65
-21.96
-22.09
-20.88
-18.18
-14
-8.62
-2.61
3.26
8.09
11.1
11.8
10.21
6.82
2.58
-1.43
-4.3
-5.49
-5.02
-3.28
-0.87
1.68
4.07
6.18
7.98
9.46
10.55
11.22
11.55
11.65
11.6
11.24
10.13
7.76
3.85
-1.3
-6.73
-11.15
-13.4
-12.92
-9.9
-5.14
0.36
5.75
10.43
14.01
16.2
16.74
15.61
13.13
9.96
6.92
4.61
3.19
2.4
1.84
1.27
0.89
1.12
2.38
4.65
7.3
9.27
9.51
7.46
3.39
-1.69
-6.44
-9.77
-11.37
-11.77
-12.07
-13.25
-15.65
-18.71
-21.16
-21.68
-19.39
-14.22
-6.78
1.88
10.71
18.86
25.69
30.74
33.62
34.12
32.33
28.75
24.17
19.47
15.33
12.12
9.83
8.24
7.1
6.23
5.62
5.23
4.95
4.55
3.73
2.31
0.35
-1.87
-3.93
-5.5
-6.52
-7.22
-7.97
-9.01
-10.18
-10.96
-10.66
-8.78
-5.41
-1.22
2.78
5.65
6.97
6.96
6.31
5.76
5.71
6.12
6.64
6.86
6.56
5.76
4.59
3.18
1.58
-0.16
-1.81
-3.02
-3.37
-2.65
-1.08
0.67
1.68
1.24
-0.81
-3.91
-6.95
-8.72
-8.55
-6.62
-3.95
-2.01
-2
-4.39
-8.64
-13.43
-17.12
-18.5
-17.17
-13.73
-9.52
-6.05
-4.37
-4.69
-6.29
-7.82
-7.84
-5.44
-0.56
5.89
12.41
17.42
19.82
19.34
16.58
12.61
8.59
5.32
3.06
1.62
0.67
-0.02
-0.51
-0.68
-0.5
-0.06
0.38
0.44
-0.16
-1.57
-3.73
-6.31
-8.79
-10.56
-11.21
-10.67
-9.35
-7.95
-7.14
-7.2
-7.87
-8.47
-8.25
-6.83
-4.38
-1.52
1
2.63
3.19
2.83
1.84
0.56
-0.75
-1.81
-2.37
-2.13
-0.86
1.48
4.68
8.26
11.56
13.92
14.91
14.36
12.45
9.47
5.75
1.43
-3.53
-9.24
-15.7
-22.66
-29.51
-35.48
-39.95
-42.63
-43.71
-43.72
-43.17
-42.21
-40.5
-37.44
-32.55
-25.86
-17.98
-9.81
-2.12
4.75
10.85
16.37
21.32
25.48
28.55
30.43
31.39
31.89
32.37
32.9
33.18
32.7
31.03
28.08
24.14
19.68
15.21
11.11
7.63
4.97
3.4
3.16
4.33
6.53
8.93
10.54
10.57
8.97
6.48
4.29
3.46
4.41
6.76
9.66
12.28
14.23
15.56
16.6
17.59
18.53
19.26
19.61
19.51
19.04
18.35
17.67
17.3
17.62
18.91
21.21
24.14
27.05
29.29
30.46
30.57
29.86
28.68
27.33
26.2
25.82
26.86
29.85
34.79
40.93
46.84
50.88
51.85
49.36
43.98
36.87
29.35
22.37
16.3
11.1
6.63
3.27
1.85
3.28
7.75
13.93
18.93
19.37
12.9
-0.76
-19.92
-41.94
-64.67
-86.82
-107.37
-124.35
-134.57
-134.85
-124.13
-104.83
-82.11
-61.2
-44.44
-30.36
-15.22
4.01
27.35
52.18
75.72
97.41
119.46
144.98
175.17
207.77
237.78
259.95
271.32
272.02
264.41
251.33
235.25
218.14
201.96
188.65
179.54
174.43
171.51
168.55
164.68
161.46
162.2
169.67
183.49
199.01
208.62
204.87
183.94
147.46
101.67
54.31
11.28
-25.36
-56.99
-86.33
-114.99
-142.31
-165.92
-183.46
-194.19
-199.32
-201.41
-203.04
-205.66
-209.4
-213.75
-218.5
-224.14
-231.43
-240.54
-250.6
-259.81
-266.19
-268.43
-266.14
-259.61
-249.16
-234.94
-217.17
-196.64
-175.02
-154.57
-137.07
-122.99
-111.05
-98.69
-83.27
-62.99
-37.35
-6.79
27.73
64.62
101.53
134.85
160.13
172.98
170.59
152.83
122.24
82.57
36.79
-14.03
-70.06
-130.37
-190.8
-243.42
-278.66
-288.99
-272.01
-231.38
-175.23
-113.11
-53.27
-1.4
39.34
67.5
82.9
86.77
81.93
72.45
62.54
55.12
50.82
48.12
44.36
36.98
24.89
8.9
-8.44
-23.57
-33.05
-34.53
-27.52
-13.37
4.96
23.78
39.34
48.72
50.44
44.81
33.84
20.65
8.47
-0.38
-5.15
-6.65
-6.72
-7.23
-9.36
-13.28
-18.34
-23.6
-28.16
-31.27
-32.18
-30.03
-24.01
-13.85
-0.25
14.87
28.73
38.44
41.92
38.58
29.37
16.46
2.54
-9.73
-18.22
-21.52
-19.18
-11.69
-0.44
12.56
25.13
35.33
41.79
43.7
40.84
33.49
22.66
10.11
-1.77
-10.47
-14.18
-12.59
-7.16
-0.5
4.57
6.23
4.14
-0.67
-6.61
-12.34
-17.1
-20.64
-22.78
-23.16
-21.34
-17.37
-12.09
-7.09
-4.11
-4.15
-6.86
-10.59
-13.18
-12.93
-9.43
-3.67
2.57
7.58
10.5
11.56
11.69
11.89
12.52
13.22
13.03
10.99
6.64
0.45
-6.34
-12.07
-15.29
-15.33
-12.65
-8.69
-5.46
-4.76
-7.46
-13
-19.51
-24.38
-25.24
-20.77
-11.27
1.34
14.07
23.63
27.36
23.91
13.62
-1.58
-18.56
-33.86
-44.55
-48.93
-46.86
-39.55
-29.02
-17.53
-7.13
0.85
6.15
9.54
12.36
15.58
18.97
21.11
20.18
15.34
7.7
0.19
-3.78
-2.05
5.13
15.25
24.95
31.58
34.18
33.55
31.39
29.42
28.78
29.76
31.92
34.24
35.32
33.78
28.72
20.09
9.02
-2.37
-11.56
-16.42
-15.97
-10.69
-2.29
6.9
14.82
20.27
23.01
23.38
21.92
19.02
14.9
9.9
4.54
-0.59
-4.94
-8.14
-9.91
-9.94
-7.95
-4.02
1.18
6.27
9.53
9.64
6.34
0.61
-5.65
-10.47
-12.48
-11.3
-7.38
-1.54
5.4
12.81
20.12
26.57
31.19
33.09
31.93
28.33
23.97
21.24
22.28
28.17
38.2
49.91
59.81
64.53
61.92
51.66
35.14
14.8
-6.75
-27.3
-45.27
-59.49
-69.16
-73.95
-74.37
-71.91
-68.82
-67.22
-68.11
-70.77
-73.14
-72.89
-68.6
-60.43
-49.69
-38.02
-26.49
-15.4
-4.75
5.12
13.3
18.74
20.95
20.47
18.7
17.21
17
18.21
20.32
22.68
24.79
26.34
26.87
25.74
22.35
16.63
9.37
2.24
-2.86
-4.6
-2.82
1.44
6.6
11.3
15.08
18.35
22.06
26.94
33.1
40.1
47.18
53.68
59.1
62.9
64.31
62.4
56.47
46.58
33.85
20.02
6.77
-5
-15.27
-24.36
-32.19
-37.94
-40.55
-39.67
-36.31
-32.51
-30.2
-29.96
-30.62
-30.11
-26.98
-21.52
-15.67
-11.74
-10.88
-12.3
-13.78
-13.16
-9.68
-4.34
0.75
3.68
3.83
2.01
-0.17
-1.29
-0.82
0.75
2.45
3.4
3.3
2.49
1.51
0.82
0.48
0.29
-0.01
-0.58
-1.38
-2.29
-3.2
-3.98
-4.41
-4.29
-3.56
-2.63
-2.37
-3.98
-8.36
-15.64
-24.91
-34.63
-43.31
-50.18
-55.41
-59.88
-64.49
-69.61
-75.07
-80.54
-85.73
-90.45
-94.38
-96.92
-97.57
-96.5
-95.05
-95.55
-100.56
-111.73
-129.02
-150.58
-173.18
-192.9
-205.76
-208.28
-197.94
-173.85
-137.35
-92.12
-43.46
3.2
44.17
78.65
108.85
139.28
175.23
221.13
278.86
346.47
417.86
483.69
533.94
561.05
562.36
540.73
502.78
455.56
403.65
347.68
285.38
214.24
134.24
49.62
-31.31
-98.14
-141.38
-155.86
-143.21
-112.2
-76.62
-51.14
-46.54
-65.96
-104.18
-150.01
-191.06
-218.76
-231.08
-232.15
-228.9
-226.69
-226.12
-222.93
-210.76
-185.27
-147.12
-102.25
-59.24
-25.61
-4.48
6.04
11.04
15.89
23.44
32.79
39.8
38.86
25.78
0.61
-31.15
-59.7
-74.48
-69
-44.46
-9.53
23.76
46.11
55.31
56
55.93
60.92
72.02
86.31
99.87
110.32
117.05
119.52
115.97
103.89
82.38
54.39
26.47
5.72
-4.4
-6
-4.95
-6.37
-10.53
-12.48
-5.97
11.41
35.34
56.17
63.8
52.88
24.97
-12.81
-51.54
-83.91
-105.42
-113.93
-108.54
-89.47
-58.87
-21.22
17.6
52.44
80.86
103.21
121.14
135.36
144.21
144.69
134.64
114.9
89.68
64.96
45.65
33.25
25.19
16.65
3.5
-15.11
-36.21
-54.42
-65.12
-66.9
-62.35
-56.53
-54.03
-56.65
-62.81
-68.9
-71.57
-69.52
-63.91
-57.37
-52.41
-50.26
-50.59
-52.08
-53.26
-53.23
-51.91
-49.85
-47.88
-46.57
-46.03
-45.86
-45.41
-44.11
-41.76
-38.62
-35.16
-31.89
-29.02
-26.43
-23.8
-20.81
-17.38
-13.74
-10.31
-7.49
-5.5
-4.3
-3.62
-3.17
-2.73
-2.21
-1.63
-1.05
-0.48
0.22
1.19
2.49
3.98
5.36
6.24
6.34
5.62
4.29
2.72
1.27
0.22
-0.4
-0.72
-0.99
-1.46
-2.22
-3.25
-4.37
-5.4
-6.18
-6.69
-6.94
-6.96
-6.75
-6.22
-5.36
-4.21
-2.98
-1.91
-1.19
-0.83
-0.68
-0.45
0.08
0.94
1.99
2.95
3.58
3.77
3.59
3.25
3.01
3.06
3.39
3.89
4.31
4.46
4.24
3.72
3.09
2.59
2.3
2.15
1.96
1.51
0.7
-0.38
-1.59
-2.79
-3.96
-5.08
-6.18
-7.17
-7.85
-8.01
-7.49
-6.3
-4.64
-2.8
-1.11
0.21
1.04
1.47
1.64
1.75
1.95
2.4
3.13
4.16
5.41
6.73
7.92
8.77
9.13
8.95
8.32
7.47
6.67
6.16
6
6.07
6.05
5.59
4.42
2.52
0.12
-2.37
-4.57
-6.27
-7.47
-8.27
-8.74
-8.86
-8.46
-7.44
-5.82
-3.82
-1.81
-0.16
0.88
1.32
1.34
1.28
1.46
2.08
3.09
4.27
5.32
5.96
6.14
6.04
5.92
6.08
6.63
7.48
8.36
8.95
9
8.45
7.4
6.08
4.77
3.67
2.86
2.29
1.79
1.17
0.24
-1.08
-2.75
-4.67
-6.63
-8.41
-9.85
-10.75
-11.04
-10.71
-9.86
-8.69
-7.37
-6.08
-4.85
-3.64
-2.33
-0.84
0.77
2.34
3.62
4.31
4.23
3.38
1.92
0.19
-1.41
-2.5
-2.86
-2.45
-1.48
-0.24
0.94
1.85
2.39
2.59
2.42
1.92
1.09
0.01
-1.21
-2.39
-3.45
-4.38
-5.28
-6.24
-7.22
-8.06
-8.53
-8.42
-7.69
-6.48
-5.02
-3.54
-2.18
-1.03
-0.07
0.69
1.27
1.68
1.94
2.12
2.28
2.44
2.64
2.82
2.94
2.98
3.01
3.09
3.3
3.56
3.65
3.35
2.46
1.01
-0.71
-2.22
-2.99
-2.68
-1.25
1.02
3.63
6.06
7.89
8.89
9.02
8.35
6.97
4.97
2.48
-0.26
-2.87
-4.83
-5.69
-5.32
-3.96
-2.15
-0.55
0.38
0.54
0.21
-0.14
-0.09
0.52
1.57
2.77
3.84
4.67
5.23
5.57
5.69
5.52
4.97
4.01
2.73
1.35
0.14
-0.69
-1.03
-0.92
-0.52
-0.02
0.36
0.46
0.21
-0.37
-1.2
-2.17
-3.16
-4.07
-4.79
-5.29
-5.54
-5.52
-5.29
-4.87
-4.27
-3.5
-2.56
-1.48
-0.34
0.74
1.62
2.23
2.6
2.86
3.17
3.67
4.38
5.16
5.8
6.09
5.95
5.5
4.98
4.68
4.82
5.51
6.66
7.94
8.8
8.55
6.55
2.52
-3.25
-9.85
-16
-20.5
-22.65
-22.45
-20.45
-17.43
-14.07
-10.75
-7.64
-4.84
-2.47
-0.7
0.38
0.82
0.83
0.7
0.74
1.09
1.81
2.76
3.76
4.53
4.86
4.61
3.87
2.87
1.96
1.4
1.27
1.44
1.64
1.58
1.13
0.37
-0.5
-1.23
-1.73
-2.05
-2.34
-2.77
-3.44
-4.32
-5.31
-6.23
-6.98
-7.49
-7.74
-7.76
-7.59
-7.28
-6.86
-6.36
-5.78
-5.1
-4.33
-3.5
-2.66
-1.89
-1.27
-0.88
-0.9
-1.48
-2.71
-4.46
-6.31
-7.61
-7.71
-6.24
-3.28
0.62
4.67
8.15
10.58
11.89
12.19
11.72
10.66
9.13
7.24
5.17
3.17
1.54
0.5
0.1
0.22
0.6
0.9
0.91
0.57
0.03
-0.48
-0.72
-0.63
-0.25
0.28
0.88
1.51
2.22
3
3.78
4.39
4.66
4.5
3.98
3.23
2.47
1.82
1.34
1
0.75
0.56
0.39
0.23
0.13
0.11
0.17
0.24
0.19
-0.17
-0.99
-2.26
-3.84
-5.46
-6.85
-7.78
-8.15
-7.94
-7.18
-5.93
-4.3
-2.46
-0.67
0.83
1.85
2.37
2.57
2.72
3.06
3.68
4.41
4.92
4.82
3.92
2.33
0.49
-0.93
-1.34
-0.52
1.25
3.23
4.53
4.55
3.25
1.27
-0.35
-0.63
0.83
3.54
6.23
7.35
5.79
1.48
-4.44
-9.85
-12.5
-10.87
-4.75
4.78
15.81
26.23
34.22
38.49
38.68
35.83
32.69
33.36
41.92
60.32
86.75
115.73
140.09
154.21
156.56
150.09
140.2
131.56
125.86
121.63
116.28
108.57
99.9
93.55
92.75
98.56
108.94
119.44
124.75
120.42
103.99
75.49
37.19
-7.21
-53.57
-98.39
-139.3
-174.97
-204.73
-228.04
-244.33
-253.24
-254.8
-249.28
-237.27
-219.65
-198
-175.1
-154.57
-139.74
-131.69
-128.1
-123.54
-111.87
-89.31
-56.49
-18.22
18.95
49.25
69.46
78.35
75.76
61.9
38.06
7.86
-22.7
-47.38
-63.2
-72.72
-83.22
-102.56
-134.03
-173.57
-211.31
-236.49
-242.77
-230.9
-207.46
-181
-157.62
-138.81
-122.01
-103.24
-80.41
-55.87
-36.91
-33.73
-55.13
-103.63
-172.54
-246.92
-308.73
-344.22
-349.21
-329.82
-298.27
-266.2
-239.48
-216.92
-193.1
-162.75
-123.99
-78.95
-31.85
13.73
56.65
98.56
142.71
192.32
249.61
315.11
387.98
466.13
545.88
621.64
685.66
729.16
744.63
728.74
684.73
622.84
558.08
505.72
476.03
470.51
481.45
495.17
497.42
478.89
437.85
379.45
312.13
243.42
177.13
113.07
49.29
-15.07
-77.85
-133.81
-176.35
-200.15
-203.42
-189.21
-164.71
-139.18
-121.08
-115.14
-121.4
-135.69
-151.84
-163.93
-167.75
-161.35
-145.05
-121.39
-94.71
-70.11
-51.73
-40.97
-36.29
-34.31
-32.45
-31.01
-33.61
-45.25
-69.34
-105.91
-151.09
-198.22
-239.46
-267.36
-276.54
-265.71
-239.01
-205.68
-176.72
-159.77
-155.35
-156.33
-151.98
-133.63
-99.46
-54.89
-9.3
28.51
53.73
65.78
66.69
59.16
45.41
26.8
3.47
-25.67
-61.86
-104.31
-148.22
-184.08
-200.14
-187.52
-145.26
-82.32
-14.77
40.99
75.41
88.83
89.57
88.03
91.22
100.84
115.18
131.86
150.22
171.06
194.41
217.92
237.28
248.29
249.55
243.07
231.75
217.81
201.76
183.06
161.47
137.36
111.14
82.42
49.28
7.17
-47.87
-116.35
-193.51
-269.99
-334.53
-377.51
-394.29
-387.13
-367
-348.67
-345.22
-362.84
-398.72
-442.82
-482.4
-507.04
-498.57
-448.88
-362.47
-255.77
-148.85
-55.12
22.67
88.2
145.07
192.99
226.75
241.84
238.8
224.38
208.3
198.35
196.98
201.18
205.2
202.38
188.4
163.22
130.59
96.37
66.78
47.23
41.95
53.32
79.75
116.13
155.53
191.35
219.49
239.09
251.3
257.17
256.04
244.9
217.97
172.69
110.51
37.24
-38.27
-106.23
-157.87
-187.11
-191.8
-173.47
-136.4
-87.08
-32.97
17.88
58.37
83.64
92.72
89.45
81.75
78.73
86.92
107.46
134.86
159.54
171.72
165.38
139.83
99.61
51.04
0.04
-49.28
-95.91
-140.95
-187.04
-236.76
-290.57
-344.9
-393.38
-427.01
-436.09
-414.22
-360.53
-281.26
-188.7
-97.64
-20.57
33.81
63.23
77.71
88.98
107.6
138.04
177.51
214.22
245.42
270.84
290.13
301.93
304.73
296.98
279.05
253.85
225.92
200.11
177.84
157.39
135.57
109.17
77.04
40.72
3.73
-30.23
-58.71
-83.01
-106.88
-134.71
-170.25
-215.01
-267.37
-322.14
-370.83
-402.96
-409.97
-388.49
-342.66
-284.28
-229.19
-191.17
-176.19
-179.96
-190.02
-192.57
-179.04
-149.86
-113.42
-80.93
-60.22
-52
-50.43
-47.13
-36.44
-18.67
0.38
12.74
12.55
-0.95
-23.13
-46.43
-63.83
-71.52
-69.64
-60.95
-48.52
-34.02
-17.64
0.5
18.55
32.47
37.53
31.04
14.63
-5.72
-22.38
-29.96
-28.31
-22.51
-20.38
-28.45
-48.84
-78.31
-109.74
-134.71
-146.36
-141.31
-120.45
-88.45
-52.04
-17.51
11.64
35.77
58.24
83.22
113.03
147.11
182.78
217.47
251.01
286.44
328.87
382.74
448.71
521.75
591.76
646.42
675.53
674.66
646.53
599.13
541.72
480.38
415.81
344.29
260.9
162.88
51.38
-69.01
-191.56
-308.6
-412.15
-494.54
-549.93
-576.73
-579.5
-568.36
-555.82
-551.74
-559.12
-573.12
-583.66
-580.35
-556.83
-512.54
-451.78
-381
-306.49
-233.17
-164.78
-104.17
-53.12
-11.63
23.06
56.7
96.7
149.34
216.87
295.25
374.59
441.83
485.08
497.76
480.62
440.95
389.64
337.12
290.02
249.51
212.15
172.94
129.08
82.67
40.76
12.68
5.66
21.59
55.06
94.92
128.29
145.67
143.78
125.64
97.82
66.58
36.05
5.91
-27.5
-68.56
-118.35
-172.54
-221.97
-256.24
-268.37
-255.88
-222.93
-177.9
-129.37
-82.58
-38.38
4.95
48.68
91.71
133.37
172.58
208.94
243.07
276.36
310.05
344.1
376.52
388.04
364.56
302.03
209.65
104.76
4.17
-81.32
-147.75
-196.4
-231.21
-254.4
-267.69
-272.46
-270.18
-262.6
-251.2
-237.43
-223.02
-209.82
-197.61
-185.67
-173.04
-159.12
-143.55
-126.01
-106.08
-84.91
-62.95
-39.43
-13.87
12.94
38.59
60.29
76.59
88.58
99.3
112.24
129.16
148.07
163.68
169.32
159.53
131.79
87.05
29.15
-36.07
-101.96
-162.12
-211.45
-246.91
-267.7
-274.93
-270.58
-256.72
-235.09
-207.39
-175.41
-140.62
-103.88
-65.19
-24.74
15.79
52.1
77.81
86.87
76.92
51.59
19.73
-7.86
-23.06
-24.02
-15.47
-5.68
-2.06
-7.62
-20.39
-35.37
-47.65
-54.41
-55.12
-50.2
-39.81
-23.63
-1.82
23.97
50.7
75.22
95.87
113.37
130.47
150.35
174.91
203.68
234.13
262.88
287.29
306.47
321.23
333.3
344.09
353.78
361.23
364.63
362.53
354.64
341.9
325.85
307.65
287.56
264.9
238.92
209.57
177.92
145.63
114.04
83.15
51.37
16.58
-21.96
-61.97
-98.15
-124.13
-136.03
-135.19
-128.49
-125.51
-133.87
-155.19
-184.18
-211.3
-227.43
-228.1
-214.77
-193.01
-168.88
-145.89
-124.19
-101.9
-77.42
-51.02
-24.92
-2.17
14.82
25.15
29.27
27.91
21.2
8.43
-11.05
-36.47
-64.86
-91.79
-113.24
-127.46
-135.68
-140.89
-145.58
-149.79
-150.93
-145.71
-132.64
-113.82
-94.19
-79.11
-71.22
-69.04
-68.11
-63.8
-54.16
-40.53
-26.03
-12.75
0.02
15.09
34.69
57.78
79.32
92.67
94.03
85.88
77.23
79.65
101.27
142.14
193.63
242.44
276.71
290.95
287.31
272.86
255.04
237.97
221.29
201.84
176.73
146.08
113.84
86.33
69.16
64.34
68.89
75.99
77.88
69.46
50.72
26.33
2.97
-14.42
-25.22
-33.16
-43.83
-61.3
-85.94
-114.56
-142.5
-166.06
-183.79
-196.4
-205.65
-213.23
-220.19
-226.87
-233.04
-237.77
-239.24
-234.84
-221.92
-199.07
-167.77
-132.84
-101.39
-80.23
-72.71
-76.85
-85.61
-90.17
-83.99
-66.07
-41.22
-17.07
0.46
10.44
17.02
26.25
41.49
60.7
77.17
83.66
77
60.3
41.26
27.91
24.42
29.41
37.75
44
45.32
42.21
37.18
32.5
28.62
24.12
16.89
5.6
-9.64
-27.55
-46.41
-64.83
-82.04
-97.61
-111.01
-121.2
-126.55
-125.23
-116.14
-99.7
-78.38
-56.18
-37.49
-25.61
-21.8
-25.04
-32.86
-42.32
-51.08
-58.02
-63.18
-67.15
-70.32
-72.38
-72.26
-68.81
-61.59
-51.49
-40.57
-31.17
-24.76
-21.26
-19.28
-17.14
-14
-10.47
-8.24
-8.82
-12.4
-17.33
-20.94
-20.79
-16.06
-7.99
0.66
6.76
7.95
3.28
-6.87
-21.11
-37.46
-53.71
-67.66
-77.5
-82.25
-81.98
-77.66
-70.7
-62.24
-52.86
-42.6
-31.35
-19.22
-6.58
6.21
19.06
32.11
45.31
57.87
68.11
73.86
73.36
66.13
53.31
37.39
21.32
7.66
-1.99
-7.19
-8.44
-6.96
-4.52
-3.17
-4.87
-10.89
-21.2
-34.28
-47.43
-57.65
-62.61
-61.37
-54.48
-43.53
-30.5
-17.24
-5.34
3.89
9.45
10.92
8.85
4.91
1.44
0.68
3.75
10.27
18.57
26.52
32.5
35.95
37.3
37.42
37.06
36.56
35.98
35.42
35.27
36.09
38.23
41.5
44.92
47.06
46.57
42.85
36.34
28.42
20.81
14.97
11.48
10.13
10.17
10.89
11.97
13.48
15.62
18.42
21.65
24.9
27.86
30.47
32.77
34.78
36.3
36.86
35.87
32.96
28.09
21.64
14.28
6.79
-0.06
-5.62
-9.44
-11.35
-11.51
-10.38
-8.6
-6.82
-5.57
-5.22
-6.01
-8.08
-11.46
-15.94
-20.95
-25.59
-28.86
-30.06
-29.04
-26.31
-22.7
-19.05
-15.72
-12.58
-9.2
-5.16
-0.37
4.89
10.09
14.71
18.41
21.04
22.54
22.89
22.08
20.15
17.31
13.98
10.67
7.86
5.78
4.42
3.56
3.01
2.67
2.59
2.77
3.12
3.39
3.25
2.49
1.11
-0.77
-3.1
-5.97
-9.52
-13.87
-18.82
-23.9
-28.49
-31.99
-34.03
-34.56
-33.72
-31.83
-29.16
-25.92
-22.25
-18.28
-14.18
-10.23
-6.8
-4.07
-1.85
0.46
3.72
8.47
14.51
20.81
25.9
28.62
28.84
27.74
27.43
30.23
37.76
50.42
67.37
86.89
106.97
125.65
141.22
152.11
156.73
153.58
141.63
120.86
92.78
60.44
27.81
-1.13
-23.42
-37.69
-44.24
-44.58
-40.76
-34.82
-28.32
-22.09
-16.3
-10.6
-4.6
1.64
7.21
10.45
9.48
2.97
-9.05
-25.09
-42.47
-58.22
-69.9
-76.11
-76.65
-72.24
-64.11
-53.64
-42.18
-30.92
-20.83
-12.56
-6.35
-2.06
0.68
2.24
2.79
2.25
0.6
-1.86
-4.37
-5.92
-5.79
-4.1
-1.93
-0.97
-2.72
-7.7
-14.98
-22.4
-27.23
-27.11
-20.67
-7.85
10.33
32.21
55.92
79.55
101.23
119.23
132.03
138.71
139.13
134.11
125.08
113.66
101.04
87.7
73.47
57.93
40.9
22.65
3.92
-14.33
-31.09
-45.32
-56.04
-62.34
-63.62
-59.9
-51.87
-40.77
-28.12
-15.44
-4.03
5.05
10.97
13.26
11.92
7.63
1.6
-4.69
-9.87
-13.03
-13.82
-12.34
-8.92
-4.11
1.41
6.69
10.7
12.53
11.71
8.37
3.18
-2.95
-9.19
-15.06
-20.57
-26.03
-31.86
-38.29
-45.19
-52.05
-58.11
-62.55
-64.74
-64.33
-61.33
-56.11
-49.37
-42.18
-35.78
-31.31
-29.36
-29.69
-31.24
-32.54
-32.29
-29.98
-25.9
-20.92
-15.92
-11.41
-7.55
-4.36
-1.92
-0.4
0.23
0.39
0.95
2.84
6.54
11.76
17.56
22.76
26.48
28.44
28.92
28.4
27.22
25.5
23.3
20.76
18.19
15.98
14.32
13.13
12.11
10.91
9.48
7.98
6.67
5.7
4.92
3.97
2.49
0.34
-2.3
-4.98
-7.1
-8.17
-7.89
-6.22
-3.48
-0.24
2.87
5.31
6.88
7.68
7.96
7.87
7.29
5.94
3.6
0.48
-2.78
-5.32
-6.47
-6.1
-4.65
-2.93
-1.66
-1.23
-1.64
-2.73
-4.36
-6.53
-9.16
-12.03
-14.66
-16.4
-16.72
-15.52
-13.2
-10.43
-7.92
-6
-4.56
-3.14
-1.22
1.5
4.95
8.77
12.54
15.95
18.91
21.4
23.36
24.57
24.68
23.47
21.02
17.86
14.8
12.68
12.02
12.8
14.55
16.57
18.3
19.47
20.08
20.24
19.97
19.1
17.37
14.69
11.3
7.75
4.72
2.7
1.79
1.66
1.68
1.24
-0.01
-2.02
-4.36
-6.39
-7.49
-7.29
-5.74
-3.06
0.3
3.85
7.07
9.43
10.46
9.79
7.41
3.73
-0.46
-4.17
-6.65
-7.67
-7.5
-6.81
-6.28
-6.3
-6.91
-7.9
-9.02
-10.11
-11.19
-12.2
-12.95
-13
-11.95
-9.69
-6.52
-3.08
-0.1
2
3.33
4.56
6.77
11.04
18.07
27.91
39.86
52.68
64.93
75.48
84.01
91
97.43
104.06
111.05
118.02
124.51
130.38
136.12
142.78
151.35
162.05
174.04
185.72
195.38
201.85
204.44
203.22
199.23
194.27
190.31
188.36
187.89
186.62
181.27
167.69
142.36
104.07
54.67
-0.52
-53.56
-95.02
-116.36
-112.97
-88.1
-53.12
-23.93
-15.01
-33.78
-78.68
-140.99
-210.65
-275.99
-329.43
-370.42
-403.58
-433.46
-460.45
-480.86
-489.45
-481.98
-456.18
-413.1
-356.9
-293.85
-231.21
-175.35
-130.27
-96.48
-72.08
-52.81
-36.23
-22.1
-10.83
-2.16
5.61
14.83
27.34
43.46
62.52
82.48
101.2
118.07
134.25
151.75
171.81
194.12
214.3
229.34
238.54
244.23
250.48
260.14
272.1
280.74
278.27
258.53
220.75
169.53
112.7
57.99
10.39
-27.94
-56.2
-73.47
-78.5
-70.51
-50.94
-23.54
6.79
35.75
60.96
81.67
97.37
106.7
107.43
97.36
75.9
45
8.63
-28.57
-62.56
-90.54
-110.74
-122.04
-123.89
-116.23
-99.37
-74.02
-41.42
-3.68
35.95
73.26
103.65
123.36
130.67
126.25
112.67
93
69.58
43.73
16.35
-10.83
-34.57
-50.65
-55.6
-48.35
-30.74
-6.7
19.69
45.95
71.59
97.15
122.2
144
157.86
158.99
144.75
116.04
77.22
34.75
-4.53
-34.52
-50.44
-49.25
-30.24
4.18
48.67
95.85
138.24
170.06
188.23
192.47
184.28
165.88
139.53
107.69
73.15
38.79
6.86
-22.01
-48.91
-76.29
-106.42
-140.33
-176.86
-213.23
-246.88
-277.08
-305.72
-335.73
-368.67
-402.92
-434.34
-458.71
-474.55
-484.23
-491.66
-499.09
-504.12
-501.49
-487.68
-465.48
-442.93
-428.3
-423.98
-424.24
-419.83
-404.21
-379.47
-355.97
-345.9
-353.08
-369.05
-377.14
-361.85
-319.15
-256.86
-189.76
-131.43
-88.14
-55.55
-22.84
20.67
80.26
153.19
234.05
318.41
405.81
489.42
556.58
593.01
591.68
566.55
533.15
505.23
491.82
495.14
506.23
514.71
512.19
496.44
472.05
445.8
424.55
411.47
404.48
397.59
385.77
366.7
340.8
309.36
271.18
224.27
167.03
100.06
27.09
-44.11
-103.98
-144.31
-161.41
-158.27
-142.28
-122.4
-106.15
-97.72
-97.08
-101.52
-107.66
-113.18
-117.77
-122.04
-126.48
-130.92
-134.53
-136.04
-134.4
-129.2
-120.81
-110.4
-99.3
-88.7
-79.42
-71.94
-66.45
-63.02
-61.64
-62.14
-64.19
-67.24
-70.46
-72.9
-73.54
-71.69
-67.06
-60
-51.23
-41.75
-32.49
-24.18
-17.36
-12.35
-9.3
-8.15
-8.55
-9.91
-11.43
-12.34
-12.03
-10.37
-7.64
-4.51
-1.75
-0.08
0.1
-1.26
-3.82
-6.92
-9.81
-11.81
-12.5
-11.87
-10.31
-8.52
-7.22
-6.92
-7.73
-9.36
-11.27
-12.89
-13.78
-13.6
-12.15
-9.27
-4.9
0.77
7.24
13.69
19.26
23.27
25.56
26.44
26.6
26.65
26.92
27.33
27.54
27.21
26.25
24.9
23.58
22.69
22.47
22.94
23.97
25.28
26.35
26.28
23.92
18.15
8.54
-4.11
-17.67
-29.14
-35.76
-36.01
-30.28
-20.61
-9.95
-1
4.56
6.27
4.6
0.41
-5.42
-12.05
-18.6
-24
-27.2
-27.43
-24.55
-19.21
-12.56
-5.88
-0.16
4.21
7.23
9.11
9.94
9.64
8.2
5.87
3.3
1.26
0.38
0.69
1.78
2.92
3.56
3.57
3.19
2.8
2.57
2.39
1.99
1.17
0.03
-1.17
-2.14
-2.8
-3.38
-4.21
-5.52
-7.28
-9.14
-10.67
-11.51
-11.53
-10.87
-9.84
-8.72
-7.67
-6.69
-5.69
-4.59
-3.37
-2.07
-0.73
0.61
1.9
3.08
3.98
4.5
4.61
4.45
4.36
4.65
5.48
6.7
7.88
8.51
8.24
7.05
5.18
3
0.84
-1.12
-2.79
-4.15
-5.09
-5.47
-5.16
-4.16
-2.58
-0.66
1.34
3.18
4.73
5.9
6.73
7.34
7.96
8.81
10.09
11.81
13.85
16
18.03
19.81
21.26
22.28
22.62
21.99
20.12
17.04
13.22
9.41
6.45
4.81
4.44
4.71
4.8
4.04
2.22
-0.34
-3.08
-5.41
-7.07
-8.07
-8.68
-9.17
-9.68
-10.18
-10.5
-10.38
-9.61
-8.02
-5.59
-2.52
0.79
3.76
5.77
6.35
5.35
2.98
-0.27
-3.75
-6.77
-8.71
-9.12
-7.77
-4.73
-0.38
4.54
9.16
12.62
14.33
14.11
12.16
8.99
5.23
1.59
-1.25
-2.69
-2.4
-0.47
2.55
5.66
7.77
8.01
6.09
2.33
-2.42
-7.16
-11.01
-13.46
-14.44
-14.26
-13.45
-12.52
-11.9
-11.78
-12.12
-12.75
-13.4
-13.81
-13.7
-12.89
-11.27
-8.92
-6.14
-3.28
-0.7
1.44
3.2
4.81
6.39
7.93
9.17
9.79
9.63
8.81
7.72
6.84
6.51
6.84
7.69
8.79
9.84
10.65
11.02
10.81
9.87
8.2
5.95
3.55
1.61
0.66
0.97
2.36
4.25
5.86
6.47
5.64
3.35
0.06
-3.46
-6.18
-7.18
-5.88
-2.26
3.06
8.97
14.3
18.24
20.64
22.14
23.76
26.49
30.68
35.85
40.77
44.11
45.04
43.77
41.63
40.45
41.85
46.59
54.33
63.73
72.52
77.66
75.53
62.73
37.61
1.88
-38.5
-74.35
-96.1
-97.45
-77.96
-43.31
-3.04
33.04
57.81
68.02
63.51
45.83
17.36
-18.65
-57.44
-92.77
-118.15
-128.82
-123.56
-105.34
-80.11
-54.73
-34.72
-23.01
-19.85
-23.6
-31.76
-41.72
-51.16
-58.22
-61.62
-60.87
-56.25
-48.7
-39.42
-29.62
-20.3
-12.2
-5.86
-1.6
0.64
1.31
1.18
1.15
1.93
3.82
6.7
10.08
13.3
15.71
16.81
16.36
14.49
11.68
8.62
6
4.3
3.62
3.8
4.53
5.51
6.49
7.32
7.91
8.35
8.93
10.2
12.76
16.97
22.63
28.88
34.36
37.58
37.36
33.16
25.21
14.44
2.22
-9.9
-20.4
-28.05
-32.08
-32.27
-28.96
-22.91
-15.08
-6.48
1.95
9.37
14.95
17.86
17.4
13.27
5.79
-3.97
-14.35
-23.54
-30.06
-33.14
-32.78
-29.62
-24.66
-18.98
-13.56
-9.14
-6.16
-4.71
-4.57
-5.23
-6.12
-6.73
-6.67
-5.75
-3.88
-1.09
2.41
6.3
10.09
13.32
15.66
17.08
17.82
18.29
18.85
19.64
20.53
21.18
21.21
20.4
18.77
16.57
14.17
11.88
9.89
8.13
6.39
4.46
2.28
0.03
-1.98
-3.39
-4.02
-3.96
-3.57
-3.22
-3.26
-3.73
-4.5
-5.25
-5.59
-5.14
-3.58
-0.64
3.76
9.42
15.65
21.31
25.03
25.69
22.78
16.72
8.69
0.22
-7.39
-13.48
-17.95
-21.04
-22.87
-23.3
-22.05
-19.01
-14.53
-9.39
-4.48
-0.49
2.32
4.01
4.74
4.46
2.96
0.03
-4.27
-9.52
-15.03
-20.1
-24.07
-26.5
-27.01
-25.23
-21
-14.4
-6
3.22
12.09
19.6
25.11
28.42
29.64
28.93
26.51
22.62
17.7
12.44
7.72
4.45
3.27
4.38
7.43
11.66
16.13
20
22.68
23.94
23.74
22.18
19.39
15.48
10.71
5.46
0.3
-4.12
-7.27
-8.85
-8.84
-7.57
-5.61
-3.6
-2.16
-1.7
-2.33
-3.82
-5.71
-7.39
-8.32
-8.09
-6.44
-3.34
1.08
6.41
11.98
16.93
20.31
21.43
20.07
16.55
11.72
6.63
2.26
-0.69
-1.95
-1.57
0.15
2.75
5.65
8.24
9.93
10.33
9.34
7.12
4.07
0.65
-2.77
-5.91
-8.6
-10.61
-11.78
-11.97
-11.23
-9.83
-8.2
-6.82
-6
-5.8
-6.06
-6.43
-6.58
-6.24
-5.19
-3.33
-0.63
2.79
6.62
10.34
13.37
15.22
15.68
14.87
13.2
11.18
9.33
7.92
7.1
6.82
6.97
7.32
7.65
7.7
7.31
6.46
5.26
3.87
2.42
0.88
-0.87
-3.01
-5.55
-8.38
-11.18
-13.56
-15.26
-16.2
-16.5
-16.34
-15.89
-15.2
-14.16
-12.71
-10.83
-8.62
-6.24
-3.78
-1.17
1.75
5.11
8.84
12.61
15.89
18.21
19.36
19.48
18.97
18.31
17.82
17.52
17.22
16.66
15.67
14.27
12.62
10.92
9.34
7.92
6.62
5.37
4.1
2.79
1.42
-0.04
-1.65
-3.51
-5.64
-7.97
-10.27
-12.23
-13.55
-14.1
-13.93
-13.29
-12.43
-11.47
-10.38
-8.94
-7
-4.58
-1.88
0.73
2.89
4.39
5.18
5.32
4.86
3.83
2.28
0.4
-1.46
-2.91
-3.62
-3.54
-2.87
-1.99
-1.22
-0.7
-0.36
-0.09
0.18
0.39
0.47
0.37
0.17
-0.01
-0.09
-0.12
-0.25
-0.59
-1.19
-1.93
-2.64
-3.14
-3.33
-3.16
-2.59
-1.56
0.03
2.24
5.02
8.2
11.45
14.35
16.54
17.7
17.72
16.69
14.9
12.75
10.68
9.04
8.04
7.76
8.1
8.87
9.8
10.53
10.69
9.94
8.13
5.37
2.05
-1.29
-4.09
-6.05
-7.1
-7.51
-7.71
-8.07
-8.77
-9.75
-10.74
-11.56
-12.2
-12.85
-13.79
-15.04
-16.19
-16.42
-14.85
-10.99
-4.99
2.45
10.37
17.94
24.45
29.25
31.42
29.83
23.59
12.6
-1.92
-17.56
-31.31
-40.52
-43.62
-40.4
-31.73
-19.17
-4.59
9.98
22.5
31.11
34.52
32.39
25.51
15.66
5.07
-4.25
-11.02
-14.81
-15.89
-14.9
-12.48
-9.16
-5.4
-1.67
1.52
3.67
4.47
3.93
2.38
0.37
-1.56
-3
-3.73
-3.62
-2.54
-0.4
2.83
6.92
11.34
15.4
18.4
19.98
20.1
19.11
17.46
15.52
13.46
11.29
8.99
6.66
4.45
2.51
0.88
-0.56
-2.05
-3.82
-6.03
-8.65
-11.52
-14.26
-16.28
-16.92
-15.53
-11.81
-6.03
0.95
7.88
13.57
17.28
18.98
19.24
18.93
18.8
19.29
20.48
22.17
24.1
25.94
27.29
27.74
27.06
25.32
23.01
20.99
20.19
21.26
24.32
28.88
33.99
38.45
41.1
41.09
38.03
32.21
24.54
16.26
8.52
1.82
-4.12
-10.13
-16.96
-24.72
-32.66
-39.52
-44.16
-46.17
-45.98
-44.64
-43.12
-41.96
-41.18
-40.55
-39.88
-39.25
-38.84
-38.75
-38.74
-38.41
-37.4
-35.8
-34.1
-33.05
-33.17
-34.38
-35.89
-36.64
-35.68
-32.78
-28.32
-23.18
-18.27
-14.2
-11.21
-9.23
-7.98
-6.94
-5.33
-2.25
2.95
10.05
17.71
23.68
25.6
22.08
13.51
1.9
-9.84
-19.13
-24.76
-26.85
-26.41
-24.37
-21.08
-16.29
-9.82
-2.04
5.98
12.78
17.23
18.92
18.21
15.95
12.97
9.87
7.08
4.99
4.06
4.75
7.26
11.41
16.56
21.76
25.95
28.24
28.11
25.45
20.73
14.84
8.9
4.06
1.18
0.64
2.34
5.75
10.03
14.29
17.8
20.28
22.02
23.66
25.73
28.26
30.42
31.02
29.11
24.66
18.85
13.6
10.72
11.07
14.25
18.97
23.74
27.63
30.48
32.67
34.71
36.79
38.67
40
40.52
40.32
39.87
39.7
40.12
41.04
41.91
42.18
41.69
41.09
41.72
45.19
52.58
63.97
78.26
93.64
108.33
121.33
132.52
142.73
153.18
164.84
177.93
191.74
204.84
215.69
223.47
228.31
231.52
234.93
239.97
246.82
253.95
258.49
257.35
248.47
231.39
207.72
180.39
152.35
125.24
98.71
70.62
38.39
0.17
-45.2
-97.28
-154.09
-211.86
-264.89
-306.09
-328.64
-328.42
-306.73
-272.81
-240.01
-220.53
-219.59
-233.04
-250.01
-259.25
-255.34
-241.25
-228.29
-227.02
-240.92
-263.91
-284.43
-292.94
-287.72
-275.29
-266.06
-271.48
-295.91
-335.78
-381.8
-424.28
-457.63
-481.5
-498.67
-492.15
-449.62
-366.75
-252.76
-125.9
-4.19
100.85
184.55
247.23
291.76
316.88
324.21
314.93
290.92
254.62
208.13
153.32
92.95
36.57
-6.89
-29.66
-29.5
-10.39
18.88
48.21
70.03
81.87
86.11
85.02
80.31
71.88
59.42
43.68
26.87
11.9
1.19
-4.18
-6.18
-7.83
-12.12
-20.03
-30.2
-39.78
-45.73
-46.47
-41.3
-31.64
-19.95
-8.66
0.98
9.2
17.17
26.06
36.29
47.29
57.7
65.9
70.82
72.49
72
70.87
70.3
70.72
72.02
74.12
76.88
80.07
83.14
85.12
84.87
81.71
76
66.41
53.49
37.97
20.13
0.22
-20.55
-39.18
-51.17
-52.07
-39.61
-14.93
16.89
48.6
73.47
87.5
90.26
84.19
73.01
59.96
47.12
34.98
23.17
11.37
-0.04
-10.09
-17.91
-23.28
-26.68
-28.47
-28.26
-24.61
-15.45
0.67
23.37
49.97
75.92
96.41
108.03
109.8
103.34
92.13
80.09
70.52
65.32
64.85
68.04
72.66
75.22
71.15
55.45
24.24
-23.08
-82.01
-142.98
-193.55
-222.17
-221.92
-192.36
-139.05
-71.13
1.38
69.3
124.84
161.52
174.67
162.84
129.39
82.84
35.01
-2.75
-23.5
-26.8
-17.97
-4.89
5.91
11.72
13.54
14.01
14.84
15.34
12.86
4.69
-10.35
-31.17
-55
-78.65
-99.73
-117.21
-131.54
-144.22
-157.03
-170.85
-184.54
-194.48
-195.45
-182.77
-154.78
-114.37
-68.41
-25.18
8.85
31.13
43.17
48.76
51.65
54
56.28
58.21
59.56
60.27
60.05
58.11
53.65
47.12
41.48
42.3
56.09
87.26
135.29
193.62
251.18
296.07
319.49
318.37
295.3
256.32
207.73
153.98
97.41
39.53
-17.26
-69.16
-111.84
-142.38
-160.59
-168.99
-171.27
-170.23
-166.62
-159.42
-147.27
-130.31
-110.8
-92.45
-78.57
-70.64
-67.68
-66.94
-65.32
-60.68
-52.52
-41.81
-30.32
-19.72
-10.96
-4.13
1.37
6.32
11.26
16.39
21.79
27.82
35.38
45.58
58.96
74.77
90.75
104.08
112.6
116.11
116.51
116.91
120.18
127.61
138.68
151.44
163.31
171.56
173.5
166.71
149.89
123.92
92.5
61.57
37.16
22.66
16.99
14.79
9.08
-5.32
-29.22
-58.74
-87.23
-108.32
-118.43
-117.67
-109.08
-96.77
-84.12
-72.61
-61.72
-49.78
-34.99
-16.34
6.33
32.69
62.68
96.5
134.23
174.77
215.33
251.66
279.67
297.31
305.66
308.35
309.39
311
312.44
310.92
303.74
290.43
273.39
256.64
243.53
234.74
227.82
218.15
201.19
174.73
140.4
103.99
74.42
61.23
71.27
105.56
157.85
215.84
265.2
294.45
298.69
279.94
244.76
200.25
150.94
98.25
42.1
-17.14
-77.53
-135.77
-188.01
-230.65
-261.08
-278.2
-283.21
-280.01
-274.67
-273.82
-282.19
-301.11
-328.6
-361.28
-396.9
-435.91
-481.1
-535.23
-598.1
-664.88
-726.67
-773.23
-796.63
-793.99
-768.16
-726.41
-677.16
-626.91
-578.62
-532.05
-485.46
-437.64
-388.85
-340.49
-293.93
-249.55
-206.37
-162.92
-117.99
-71.25
-23.29
25.05
73.74
124.29
179.48
241.68
310.64
381.81
446.6
494.99
519.35
517.63
494.22
457.85
417.77
380.31
347.45
317.82
289.07
259.99
231.05
203.55
178.08
153.66
127.95
98.4
63.67
24.29
-17.27
-57.9
-94.99
-127.66
-156.94
-185.32
-215.76
-251.03
-293.37
-344.21
-403.61
-469.33
-536.23
-596.65
-642.47
-667.82
-671.33
-656.62
-630.4
-599.54
-568.52
-538.53
-508.58
-477.56
-445.54
-413.97
-384.45
-357.28
-330.82
-302.25
-268.92
-229.82
-186.46
-142.23
-101.36
-67.11
-40.5
-19.95
-2.08
16.73
38.82
63.68
88.86
110.5
125.54
133.17
135.32
135.9
139.21
148.9
166.84
193.95
229.11
269.73
310.9
345.4
365.14
364.15
347.25
325.08
314.59
331.56
383.26
463.65
556.67
644.24
713.33
758.2
777.52
776.94
755.75
711.51
644.4
560.02
468.89
383.09
311.55
256.75
215.34
179.56
143.21
103.06
59.23
14.05
-29.98
-71.7
-111.76
-151.22
-190.9
-229.17
-262.23
-285.46
-295.42
-291.53
-276.45
-255.08
-232.23
-211.2
-192.34
-173.92
-153.81
-130.8
-105.49
-79.83
-56.04
-35.68
-19.47
-7.3
1.15
6.12
7.83
6.9
4.8
3.82
6.3
13.63
25.48
39.61
52.65
61.41
63.87
59.73
50.03
36.46
20.88
5.24
-8.39
-17.83
-21.28
-18.15
-9.65
1.27
10.73
15.37
13.52
5.8
-5.23
-16.09
-23.7
-26.36
-24.09
-18.36
-11.17
-4.22
1.61
6.12
9.19
10.28
8.5
3.21
-5.25
-15.17
-24.03
-29.59
-30.91
-28.75
-24.98
-21.57
-19.75
-19.73
-21.14
-23.58
-27.11
-32.08
-38.8
-47.31
-57.33
-68.64
-81.44
-96.64
-115.7
-140.11
-170.66
-206.88
-246.86
-287.64
-325.82
-358.39
-383.12
-398.76
-404.98
-402.2
-391.59
-374.92
-354.44
-332.32
-310.17
-288.48
-266.58
-242.96
-216
-184.55
-148.4
-108.24
-65.35
-21.29
22.64
65.62
107.39
148.19
188.6
229.54
271.95
316.2
361.31
404.49
441.39
467.36
479.15
476.33
461.53
439.32
414.3
389.58
366.26
344.13
322.83
302.5
283.72
266.79
251.23
235.98
220.03
203.28
186.5
170.88
157.22
145.52
135.09
125.14
115.35
105.98
97.46
89.98
83.26
76.74
69.84
62.22
53.68
44.02
33.13
21.28
9.39
-1
-8.23
-11.35
-10.73
-8.11
-5.83
-5.88
-9.08
-14.9
-21.86
-28.3
-33.04
-35.66
-36.47
-36.21
-35.68
-35.48
-35.79
-36.31
-36.44
-35.63
-33.72
-31.15
-28.83
-27.77
-28.54
-30.95
-34.07
-36.65
-37.75
-37.13
-35.33
-33.36
-32.15
-32.12
-33.01
-34.02
-34.18
-32.86
-30.02
-26.32
-22.75
-20.19
-18.97
-18.71
-18.54
-17.66
-15.89
-13.74
-12.15
-11.77
-12.47
-13.34
-13.11
-10.82
-6.42
-0.73
4.88
9.08
11.02
10.65
8.59
5.97
4.06
3.81
5.42
8.09
10.38
10.81
8.72
4.65
0.2
-2.86
-3.51
-1.95
0.6
2.71
3.6
3.44
3.15
3.59
4.95
6.63
7.61
7.1
5.02
1.93
-1.35
-4.21
-6.47
-8.23
-9.55
-10.24
-9.95
-8.53
-6.25
-3.76
-1.82
-0.92
-1.1
-1.95
-2.9
-3.52
-3.58
-3.03
-1.94
-0.5
0.99
2.12
2.45
1.72
0
-2.28
-4.57
-6.4
-7.61
-8.34
-8.91
-9.61
-10.5
-11.45
-12.21
-12.59
-12.58
-12.37
-12.26
-12.62
-13.71
-15.61
-18.16
-20.91
-23.27
-24.53
-24.18
-21.97
-18.12
-13.45
-9.12
-6.51
-6.69
-9.88
-14.85
-18.82
-17.98
-8.86
9.81
35.83
63.64
86.14
97.45
95.18
81.13
59.98
36.99
15.96
-1.47
-15.08
-24.82
-30.19
-30.59
-26.37
-19.37
-12.52
-8.48
-8.32
-11.09
-14.47
-16.14
-14.95
-11.3
-6.6
-2.36
0.56
2.19
3.11
3.83
4.53
5.02
5.07
4.75
4.54
5.08
6.76
9.41
12.26
14.35
15.07
14.59
13.85
14.09
16.23
20.45
26.04
31.74
36.33
39.17
40.43
40.93
41.71
43.51
46.46
50.09
53.65
56.5
58.24
58.38
55.9
49.19
36.56
17.33
-7.52
-35.51
-64.08
-92.09
-120.48
-151.34
-185.88
-222.74
-257.88
-286.21
-304.02
-310.53
-307.53
-297.49
-281.56
-258.93
-227.96
-188.23
-141.84
-93.18
-47.23
-7.58
24.54
49.99
70.41
87.09
100.45
110.4
117.1
121.48
125.07
129.34
134.92
141.28
147.02
150.71
151.58
149.9
146.69
143.22
140.33
138.31
137
136.17
135.83
136.16
137.3
139.14
141.41
143.82
146.39
149.43
153.27
158.14
164.12
171.4
180.56
192.58
208.35
227.97
250.36
273.32
294.36
311.51
323.76
330.76
332.11
326.83
313.73
292.25
263.27
229.31
193.56
158.47
124.81
91.82
58.42
24.5
-8.81
-40.07
-68.62
-94.97
-119.8
-142.58
-161.15
-172.85
-176.58
-174.15
-169.98
-169.2
-175.53
-189.97
-210.77
-234.46
-257
-274.78
-285.31
-287.82
-283.52
-275.28
-266.45
-259.34
-254.18
-249.49
-243.36
-234.98
-225.05
-214.85
-205.1
-195.3
-184.31
-171.61
-157.96
-145.17
-135
-128.28
-124.52
-122.31
-119.99
-116.07
-109.38
-99.11
-85.32
-69.33
-53.97
-42.74
-38.35
-41.1
-48.33
-55.44
-58.37
-55.8
-50.01
-45.43
-45.78
-51.69
-60.08
-65.84
-64.56
-54.77
-38.21
-18.31
2.02
21.93
42.7
66.53
94.98
128.13
164.59
202.18
238.63
271.88
300.14
321.81
335.71
341.42
339.8
333.15
325.02
319.53
320.28
329.22
345.81
367.03
388.25
404.75
413.33
413.23
406.01
394.51
381.45
368.45
355.74
342.71
328.53
312.59
294.5
273.79
249.79
221.82
189.59
153.63
115.38
76.87
40.31
7.55
-20.24
-42.65
-59.74
-71.84
-79.21
-82.05
-80.57
-75.21
-66.87
-56.88
-46.86
-38.39
-32.63
-30.11
-30.63
-33.44
-37.64
-42.45
-47.83
-54.12
-61.4
-69.84
-79.61
-90.43
-101.73
-112.82
-123.4
-134
-145.62
-159.01
-174.83
-193.39
-214.15
-235.96
-257.54
-278.08
-298.38
-319.97
-343.57
-369.91
-399.48
-431.56
-464.55
-496.4
-525.47
-552.72
-579.6
-604.79
-628.29
-652.48
-679.61
-710.74
-744.33
-775.5
-800.37
-813.81
-805.96
-773.42
-721.97
-660.67
-598.43
-541.14
-490.72
-451.99
-427.39
-408.23
-389.15
-371.21
-354.63
-338.31
-320.4
-299.48
-283.21
-278.96
-279.94
-282.37
-289.57
-302.98
-322.03
-344.67
-320.87
-221.51
-114.13
-33.08
33.03
85.98
127.96
162.21
192.95
224.24
250.5
266.28
279.4
293.39
303.46
306.38
301.63
291.78
281.44
269.18
255.38
251.28
263.44
288.68
320.35
349.47
367.46
373.62
364.38
342.33
322.36
318.12
333.77
364.98
400.43
427.91
441.04
435.77
413.64
383.18
353.23
329.45
315.29
308.84
307.33
307.07
302.89
291.69
273.83
250.78
223.72
193.67
161.65
129.47
99.49
73.58
53.4
39.42
30.42
23.52
15.32
3.26
-12.92
-31.12
-47.93
-59.32
-62.83
-59
-51.44
-45.11
-43.64
-47.71
-54.94
-61.64
-64.53
-61.99
-54.02
-41.49
-25.66
-8.55
6.57
15.38
13.93
1.05
-20.29
-43.59
-61.59
-69.75
-68.08
-60.65
-52.74
-47.68
-45.06
-41.37
-31.99
-13.23
16.46
56.39
103.6
152.67
195.64
223.13
227.28
205.07
160.57
104.36
50.15
10.07
-8.83
-5.82
14.82
46.2
81.05
113.27
138.8
156.29
166.96
173.78
179.47
184.72
187.72
185.93
178.33
166.91
155.8
148.21
144.37
141.98
139.34
138.6
146.01
168.22
206.78
254.58
297.5
321.17
318.67
294.47
262.01
236.14
225.05
226.66
231.11
227.59
211.07
184.7
157.13
136.81
126.9
123.86
120.08
108.62
86.93
57.78
26.87
-1.06
-24.84
-47.19
-72.57
-103.89
-140.73
-179.9
-218.28
-255.49
-294.57
-339.67
-392.23
-447.9
-496.64
-526.58
-529.4
-504.4
-458.72
-403.41
-347.99
-296.74
-249.1
-203.28
-159.8
-122.19
-94.38
-76.89
-65.4
-53.26
-36.58
-17.87
-5.2
-7.08
-25.81
-54.19
-78.13
-83.94
-66.36
-31.79
4.99
28.94
32.78
20.04
1.97
-9.36
-7.82
4.01
17.58
24.14
20.46
10.62
2.92
4.36
15.86
31.41
41.74
40.08
26.09
6.02
-10.56
-15.59
-6.04
15.15
40.87
62.76
74.27
72.26
57.57
34.7
9.87
-10.94
-23.92
-28.05
-24.35
-14.14
1.73
22.19
45.2
66.59
81.06
84.36
75.64
57.81
36.6
17.33
2.24
-8.92
-17.9
-25.84
-32.1
-34.71
-32.64
-26.57
-20.5
-20.98
-33.11
-58.01
-91.57
-125.38
-149.95
-159.21
-150.94
-127.63
-94.43
-53.88
-4.76
56.21
130.71
215.21
299.15
370.64
420.17
435.05
411.06
353.78
276.19
192.65
120.85
60.95
9.94
-32.06
-61.42
-74.4
-69.3
-49.13
-19.89
13
45.52
76.52
103.42
120.12
120.26
101.42
67.88
29.41
-4.42
-31.03
-54.67
-83.71
-123.65
-170.51
-211.18
-230.21
-218.76
-180.43
-130.15
-84.58
-53.78
-36.77
-24.09
-5.99
19.36
43.8
54.26
41.19
5.69
-40.95
-84.15
-114.16
-130.07
-138.27
-146.04
-155.98
-164.64
-165.45
-153.99
-131.2
-103.17
-77.85
-61.22
-54.94
-56.24
-59.84
-60.77
-56.73
-49.23
-42.92
-42.97
-51.91
-68.17
-87.23
-104.73
-119.22
-132.14
-145.13
-156.67
-160.84
-150.13
-120.88
-77.57
-32.75
-1.65
5.05
-13.5
-48.39
-85.61
-112.37
-121.53
-112.2
-87.63
-52.63
-12.1
28.81
64.63
90.27
102.54
101.68
91.57
78.13
66.57
59.55
56.98
57.57
60.83
67.71
79.78
97.4
118.16
137.36
150.14
153.98
149.88
141.34
131.79
122.45
112.14
99.17
83.97
70.18
62.92
65.66
77.79
94.59
109.69
118.29
118.89
113.32
105.16
98.14
95.21
98.32
108.28
124.61
145.49
168.22
190.1
209.22
224.39
234.47
237.57
230.92
211.9
179.22
133.79
78.82
19.19
-39.63
-92.9
-137.72
-173.9
-203.61
-229.97
-255.08
-279.11
-301
-320.54
-339.82
-362.71
-392.06
-426.41
-458.67
-478.15
-475.19
-445.74
-393.15
-326.21
-254.87
-186.26
-123.02
-64.34
-8.17
47.07
102.23
158.15
216.18
277.69
342.62
408.01
467.62
513.18
537.04
535.11
508.52
463.25
407.79
349.95
294.21
240.75
186.61
128.23
64.35
-2.15
-64.45
-113.85
-142.97
-148.68
-133.38
-104.06
-69.78
-38.83
-16.73
-5.81
-5.83
-15.02
-31.06
-51.61
-74.73
-99.01
-123.36
-146.43
-165.82
-177.74
-177.61
-161.73
-129.42
-84.54
-35.33
7.61
34.67
40.43
25.41
-4.22
-38.93
-69.01
-87.61
-92.5
-85.94
-73.31
-60.67
-52.55
-50.33
-51.89
-52.58
-47.16
-32.04
-6.82
25.31
58.81
87.6
106.88
114.22
109.54
94.92
73.93
51.03
30.63
15.81
7.33
3.62
2.07
0.87
0.35
2.65
9.93
22.34
37.2
49.83
55.6
51.77
38.22
16.96
-8.86
-35.54
-59.03
-75.14
-80.3
-72.91
-54.5
-29.77
-5.03
14.15
24.97
28.17
27.07
25.61
26.58
30.65
36.64
42.36
45.68
45.17
40.33
31.51
19.75
6.61
-6.05
-16.42
-23.17
-25.73
-24.45
-20.33
-14.69
-8.78
-3.6
0.24
2.49
3.26
3.03
2.47
2.14
2.31
2.76
2.95
2.33
0.63
-1.93
-4.7
-6.91
-8.01
-7.84
-6.59
-4.63
-2.31
0.17
2.66
5.02
6.99
8.28
8.75
8.46
7.77
7.07
6.64
6.49
6.44
6.25
5.82
5.19
4.43
3.53
2.3
0.53
-1.84
-4.59
-7.16
-8.89
-9.32
-8.49
-6.92
-5.42
-4.76
-5.25
-6.62
-8.13
-8.89
-8.26
-6.15
-3
0.45
3.47
5.66
7.06
8
8.84
9.75
10.61
11.1
10.92
9.99
8.46
6.73
5.18
4.07
3.38
2.93
2.42
1.7
0.75
-0.26
-1.07
-1.56
-1.71
-1.68
-1.66
-1.82
-2.21
-2.76
-3.39
-4.03
-4.65
-5.24
-5.7
-5.87
-5.56
-4.62
-3.02
-0.91
1.43
3.64
5.46
6.72
7.44
7.75
7.83
7.78
7.61
7.23
6.52
5.46
4.11
2.56
0.91
-0.83
-2.63
-4.44
-6.18
-7.75
-9.17
-10.55
-12.12
-14.09
-16.58
-19.55
-22.83
-26.15
-29.19
-31.57
-32.91
-32.89
-31.33
-28.36
-24.31
-19.7
-15.02
-10.58
-6.5
-2.78
0.59
3.57
6.06
8
9.39
10.34
11.02
11.48
11.7
11.54
10.94
9.95
8.78
7.72
7.02
6.77
6.87
7.08
7.17
6.96
6.48
5.87
5.31
4.91
4.6
4.19
3.39
1.97
-0.11
-2.75
-5.66
-8.47
-10.81
-12.33
-12.81
-12.12
-10.39
-7.92
-5.22
-2.83
-1.12
-0.19
0.11
0.09
0
-0.04
-0.09
-0.25
-0.62
-1.18
-1.9
-2.74
-3.7
-4.78
-5.89
-6.9
-7.62
-7.97
-7.98
-7.83
-7.72
-7.79
-8.03
-8.38
-8.7
-8.96
-9.14
-9.21
-9.04
-8.42
-7.04
-4.74
-1.53
2.29
6.2
9.62
12.09
13.42
13.64
12.97
11.68
10.1
8.51
7.13
6.08
5.37
4.88
4.48
4.11
3.82
3.75
3.98
4.44
4.96
5.32
5.43
5.33
5.2
5.17
5.22
5.18
4.81
3.93
2.5
0.64
-1.45
-3.55
-5.38
-6.69
-7.25
-6.97
-5.88
-4.2
-2.23
-0.24
1.62
3.31
4.83
6.16
7.15
7.62
7.46
6.73
5.7
4.7
4
3.66
3.53
3.35
2.92
2.15
1.18
0.18
-0.69
-1.34
-1.81
-2.18
-2.51
-2.85
-3.28
-3.84
-4.56
-5.37
-6.05
-6.33
-5.93
-4.76
-2.93
-0.75
1.45
3.45
5.14
6.54
7.64
8.46
8.95
9.08
8.88
8.43
7.79
7.06
6.33
5.74
5.42
5.51
6.01
6.77
7.53
8.03
8.14
7.93
7.6
7.37
7.32
7.44
7.56
7.52
7.29
7.02
7.03
7.71
9.36
12.1
15.85
20.35
25.27
30.3
35.23
39.95
44.39
48.55
52.53
56.61
61.19
66.72
73.51
81.58
90.6
100.02
109.31
118.2
126.84
135.7
145.35
156.28
168.67
182.4
197.15
212.44
227.64
241.88
254.03
262.79
266.95
265.56
258.16
244.71
225.56
201.43
173.38
142.8
111.24
79.87
49.1
18.45
-13.21
-46.98
-83.28
-121.87
-162.35
-204.68
-249.19
-295.56
-341.82
-384.05
-417.3
-437.58
-443.38
-436.04
-418.25
-392.11
-357.88
-314.69
-262.76
-205.46
-149.67
-103.57
-72.95
-58.39
-55.09
-55.72
-54.3
-48.9
-41.51
-35.48
-32.59
-31.71
-30.05
-25.62
-18.82
-12.12
-8.13
-7.57
-8.9
-9.58
-7.95
-4.25
-0.11
3.08
5.45
8.7
14.99
25.49
39.64
55.13
68.48
75.59
72.2
54.6
20.84
-27.7
-85.44
-143.25
-190.6
-218.88
-224.6
-210.88
-186.68
-163.43
-150.56
-151.7
-163.52
-177.98
-187.17
-188.3
-185.8
-189.25
-207.72
-243.91
-291.48
-337.3
-367.32
-373
-354.36
-318.41
-274.35
-228.7
-183.45
-137.44
-89.44
-40.39
6.6
48.15
82.7
111.45
137.76
165.46
197.11
232.96
270.74
306.58
336.64
358.81
373.83
384.97
396.71
412.18
431.17
449.5
460.29
456.33
432.79
388.93
328.51
258.2
185.11
114.31
47.69
-15.29
-75.45
-131.71
-180.15
-215.32
-232.75
-231.28
-213.6
-184.76
-149.46
-110.07
-66.27
-16.65
38.88
97.46
153.45
200.34
233.35
251.11
256.34
254.08
249
242.78
233.75
218.41
194.6
164.32
134.18
113.22
108.69
122.37
149.3
179.68
202.73
210.61
200.62
174.84
138.16
96.02
52.89
11.55
-26.81
-62.02
-93.93
-121.61
-142.97
-155.64
-158.77
-154.53
-147.76
-143.5
-143.62
-145.08
-141.72
-128.82
-107.7
-86.71
-77.2
-86.81
-114.08
-148.55
-176.56
-189.48
-188.51
-183.39
-185.25
-198.75
-218.53
-232.03
-227.08
-199.37
-155.23
-108.58
-74.02
-60.28
-66.94
-86.1
-106.71
-118.91
-116.53
-97.61
-63.95
-20.31
26.65
69.97
105.63
134.41
162.43
198.72
250.62
319.46
398.88
477.04
541.32
583.87
603.56
604.95
594.8
578.3
557.21
530.76
497.96
459.1
417.57
377.22
340.8
308.49
278.18
246.82
212.3
174.65
134.66
97.2
65.44
40.95
23.29
10.2
-1.63
-15.52
-33.95
-60.67
-92.31
-127.35
-163.82
-200.24
-235.95
-271.51
-308.29
-347.86
-395.66
-447.33
-502.73
-561.3
-621.69
-680.92
-733.73
-772.77
-790.72
-788.43
-759.69
-709.42
-645.56
-575.52
-503.33
-429.24
-351.84
-236.1
-131.93
-41.95
23.4
56.76
56.67
27.98
-19.98
-76.18
-130.1
-178.88
-210.21
-220.27
-207.4
-172.06
-117.01
-47.55
28.25
99.87
151.43
177.51
171.96
134.71
71.56
-7.62
-91.66
-170.4
-235.74
-284.38
-309.53
-310.43
-290.19
-255.87
-216.57
-180.37
-151.56
-129.62
-111.92
-92.27
-67.38
-36.29
0.17
40.67
84.04
129.09
174.03
215.66
251.32
278.41
295.91
304.61
306.45
303.56
297.3
288.08
275.61
259.73
241.13
221.75
204.7
193.63
191.64
200.15
217.98
241.25
264.17
280.77
286.58
279.84
261.62
234.87
203.09
169.22
135.34
103.17
74.7
52.43
38.74
34.81
39.56
49.48
59.46
64.23
59.73
43.94
16.95
-19.1
-60.23
-100.87
-134.48
-154.81
-157.57
-141.76
-110
-67.69
-21.3
23.15
60.9
88.57
103.9
105.96
95.62
75.87
51.31
26.91
6.16
-10.14
-24.06
-39.46
-60.29
-88.99
-125.48
-166.97
-208.44
-243.69
-266.6
-272.44
-258.96
-226.65
-178.51
-119.34
-55.01
7.95
62.74
102.96
123.79
123.42
104.06
71.7
34.62
0.87
-23.89
-37.7
-41.86
-39.61
-34.29
-28.11
-21.84
-15.26
-8.05
-0.38
7.09
13.64
19.17
24.35
30.34
37.92
46.79
55.41
61.65
63.95
62.22
58.02
53.81
51.58
51.86
53.53
54.7
53.87
50.9
47.13
44.4
43.98
45.68
47.9
48.44
45.6
39
29.72
19.75
11.12
5.18
2.29
1.93
3.17
5.1
7.08
8.79
10.23
11.47
12.73
14.33
16.63
19.94
24.12
28.38
31.19
30.88
26.29
17.63
6.65
-3.93
-11.56
-15.09
-15.34
-14.74
-16.13
-21.42
-30.72
-42.31
-53.38
-61.19
-64
-61.36
-54.04
-43.4
-30.93
-17.89
-5.33
6.01
15.67
23.58
30
35.13
38.75
40.04
37.93
31.8
22.12
10.58
-0.62
-9.93
-17.39
-24.72
-34.29
-47.63
-64.29
-81.59
-95.52
-102.23
-99.39
-86.89
-66.87
-43.09
-19.86
-1.02
10.87
14.95
11.88
3.44
-8.2
-21.04
-33.62
-44.85
-53.84
-59.64
-61.34
-58.36
-50.72
-39.28
-25.49
-11.1
2.29
13.51
21.93
27.43
30.23
30.79
29.56
26.95
23.2
18.57
13.48
8.72
5.46
4.84
7.46
12.89
19.72
26.03
30.26
31.86
31.4
30.13
29.03
28.25
26.98
24.11
19.03
12.28
5.52
0.7
-0.83
0.86
4.35
7.55
8.78
7.53
4.65
1.87
0.89
2.56
6.54
11.54
15.97
18.61
19.04
17.64
15.22
12.51
9.84
7.09
4
0.5
-3.01
-5.78
-7.13
-6.83
-5.31
-3.47
-2.16
-1.71
-1.75
-1.52
-0.4
1.62
3.91
5.58
6.11
5.71
5.24
5.6
7.12
9.24
10.81
10.71
8.57
5.03
1.44
-0.8
-0.86
1.19
4.56
8.2
11.2
13.06
13.68
13.12
11.48
8.79
5.16
0.94
-3.15
-6.14
-7.12
-5.61
-1.89
3.07
7.96
11.65
13.5
13.55
12.19
9.96
7.27
4.42
1.76
-0.33
-1.44
-1.41
-0.5
0.61
1.09
0.46
-1.26
-3.42
-5.13
-5.68
-4.85
-2.94
-0.49
2
4.29
6.34
8.02
8.97
8.51
5.98
1.13
-5.64
-13.2
-20.11
-25.03
-27.14
-26.39
-23.28
-18.71
-13.6
-8.71
-4.55
-1.39
0.68
1.68
1.72
1.02
-0.04
-0.94
-1.1
-0.03
2.46
6.07
10.04
13.29
14.87
14.27
11.71
8.13
4.8
2.83
2.72
4.24
6.55
8.68
9.97
10.18
9.43
7.88
5.5
2.16
-2.22
-7.22
-11.99
-15.48
-16.97
-16.46
-14.73
-12.81
-11.32
-10.18
-8.7
-6.22
-2.82
0.47
2.12
1
-2.83
-7.89
-11.96
-13.06
-10.41
-4.7
2.36
8.81
13.16
14.64
13.12
8.76
2
-6.39
-15.11
-22.47
-26.72
-26.84
-22.97
-16.5
-9.6
-4.22
-1.41
-0.9
-1.39
-1.23
0.68
4.43
9.1
13.17
15.2
14.36
10.64
4.82
-1.85
-8.09
-12.92
-15.94
-17.39
-17.93
-18.3
-18.9
-19.55
-19.52
-17.92
-14.18
-8.47
-1.71
4.77
9.8
12.86
14.1
14.17
13.77
13.41
13.33
13.51
13.91
14.33
14.59
14.5
14.08
13.67
13.9
15.4
18.41
22.59
27.04
30.85
33.52
35.21
36.52
37.97
39.6
40.87
41.05
39.62
36.58
32.42
27.73
22.98
18.42
14.2
10.62
8.18
7.33
8.24
10.57
13.57
16.37
18.27
18.81
17.68
14.58
9.23
1.65
-7.67
-17.61
-26.73
-33.72
-37.81
-38.95
-37.6
-34.49
-30.29
-25.7
-21.42
-18.25
-16.84
-17.38
-19.39
-21.78
-23.24
-22.75
-20.03
-15.53
-10.21
-5.05
-0.75
2.42
4.48
5.7
6.39
6.94
7.7
8.86
10.24
11.27
11.15
9.16
5.06
-0.71
-7.21
-13.35
-18.32
-21.77
-23.73
-24.27
-23.36
-20.93
-17.07
-12.29
-7.45
-3.39
-0.47
1.72
4.23
8.13
13.81
20.62
26.99
31.11
31.7
28.63
22.87
15.95
9.35
3.92
-0.06
-2.65
-3.85
-3.49
-1.43
2.09
6.22
9.76
11.54
10.99
8.41
4.92
1.94
0.75
1.91
5.17
9.55
13.66
16.16
16.18
13.55
8.87
3.25
-2.03
-5.97
-8.09
-8.61
-8.27
-8.13
-9.18
-12.04
-16.77
-22.81
-29.14
-34.59
-38.18
-39.43
-38.52
-36.11
-33
-29.63
-25.79
-20.7
-13.48
-3.72
8.05
20.3
31.04
38.51
41.83
41.26
37.96
33.4
28.78
24.76
21.5
18.96
17.17
16.22
16.15
16.7
17.25
17.07
15.64
13.05
10.05
7.74
7.03
8.13
10.39
12.55
13.29
11.81
8.12
3.06
-2.16
-6.38
-8.87
-9.55
-8.9
-7.82
-7.24
-7.96
-10.39
-14.5
-19.79
-25.42
-30.45
-34.08
-35.97
-36.32
-35.97
-35.99
-37.13
-39.16
-40.57
-38.86
-31.52
-17.22
3.32
27.38
51.11
70.89
84.41
91.09
91.66
87.58
80.42
71.7
62.99
55.81
51.44
50.39
52.19
55.5
58.72
60.59
60.71
59.45
57.54
55.55
53.44
50.5
45.81
38.62
28.99
17.92
7.16
-1.3
-5.98
-6.58
-4.37
-2.07
-3.09
-10.14
-23.85
-41.95
-59.59
-70.91
-71.13
-58.27
-33.61
-1.15
33.79
66.09
91.74
108.4
115.74
115.84
112.92
112.44
118.72
132.42
149.24
161.13
160.35
143.82
115.05
82.37
54.85
38.1
33
36.87
46.03
57.45
68.46
75.6
74.34
60.49
32.91
-5.04
-46.7
-85.66
-119.42
-150.92
-186.79
-233.35
-292.49
-359.89
-426.16
-479.73
-510.75
-514.09
-491.31
-450.27
-402.39
-358.89
-326.75
-306.7
-293.99
-281.48
-263.29
-237.25
-204.62
-168.11
-129.24
-87
-38.42
19.16
85.56
155.71
220.11
267.42
288.47
280.33
248.53
206.23
169.81
152.55
159.36
185.2
217.78
243.29
252.37
243.66
223.46
202.02
188.45
186.46
192.91
199.39
195.82
174.94
135.36
82.19
24.84
-26.82
-66.31
-92.31
-107.91
-117.68
-124.26
-126.97
-122.75
-108.75
-85.06
-55.62
-26.82
-4.24
10.19
19.27
28.58
42.96
63.32
85.77
103.47
110.31
104.07
87.34
66.26
47.47
35.42
31.1
32.51
36.28
39.54
40.88
40.3
38.51
35.99
32.81
28.7
23.41
16.89
9.22
0.45
-9.67
-21.5
-35.05
-49.57
-63.59
-75.33
-83.65
-88.74
-92.05
-95.5
-100.35
-106.69
-113.47
-119.5
-124.16
-127.68
-130.67
-133.45
-135.72
-137.01
-137.14
-136.53
-135.52
-133.29
-127.2
-113.52
-89.36
-54.9
-14.49
24.51
54.6
71.47
75.98
73.53
71.12
73.71
81.83
91.96
99.45
101.83
100.83
101.66
110.19
129.91
161.02
201.56
249.7
304.83
366.45
431.68
493.44
541.41
565.74
561.69
532.2
486.9
437.7
393.72
358.08
327.74
296.43
258.32
210.46
153.53
90.82
26.93
-33.38
-86.2
-129.61
-164.22
-192.86
-219.56
-247.75
-278.89
-311.72
-342.37
-365.36
-375.25
-368.81
-346.84
-314.62
-280.15
-250.55
-228.05
-208.2
-182.07
-141.52
-84.96
-20.16
38.5
76.82
87.57
73.46
44.76
12.95
-14.81
-37.83
-60.1
-86.34
-118.95
-157.34
-198.69
-239.44
-276
-304.67
-321.47
-322.78
-306.64
-273.83
-228.13
-175.54
-122.45
-74.25
-34.16
-3.13
20.05
38.5
57.01
81.38
116.96
166.48
228.25
295.71
359.06
408.22
436.53
442.94
431.66
409.72
383.61
357.04
330.78
304.12
276.69
249.39
223.62
199.86
176.66
150.87
118.66
77.2
25.88
-33
-93.66
-147.56
-184.81
-196.9
-180.12
-137.88
-80.74
-23.55
19.25
38.37
31.75
3.72
-38.11
-86.5
-137.12
-188.38
-239.76
-289.52
-333.86
-368.12
-389.66
-400.66
-408.51
-422.79
-450.16
-490.05
-533.85
-568.41
-582.41
-571.6
-540.22
-497.89
-454.16
-414
-376.96
-339.56
-299.06
-255.76
-212.62
-172.9
-137.96
-106.31
-74.65
-39.99
-1.34
39.99
81.31
120.38
156.64
191.28
225.95
261.48
297.13
330.84
360.06
382.26
395.14
396.55
384.92
360.47
326.36
288.89
255.85
233.44
223.27
221.34
219.84
211.01
191.07
161.87
129.55
101.08
80.87
69.09
62.5
57.03
50.25
42.51
35.98
32.83
33.44
36.08
37.93
36.75
32.08
25.31
18.54
13.37
10.03
7.48
4.2
-0.95
-8.04
-15.91
-22.57
-25.94
-24.71
-19.02
-10.59
-2.21
3.33
4.36
1.07
-4.67
-10.23
-13.42
-13.47
-11.1
-7.91
-5.45
-4.5
-4.92
-5.94
-6.77
-6.9
-6.27
-5.12
-3.81
-2.69
-2.08
-2.22
-3.17
-4.74
-6.49
-7.91
-8.7
-8.95
-8.99
-9.22
-9.77
-10.4
-10.77
-10.67
-10.33
-10.22
-10.76
-11.94
-13.21
-13.81
-13.1
-10.93
-7.71
-4.24
-1.53
-0.47
-1.54
-4.68
-9.1
-13.47
-16.26
-16.3
-13.2
-7.55
-0.67
5.89
10.97
14.12
15.71
16.45
17.02
17.6
17.83
17.14
15.22
12.47
10.05
9.39
11.5
16.45
23.3
30.58
37
41.94
45.48
48.04
49.95
51.36
52.36
53.35
55.13
58.69
64.74
73.26
83.35
93.54
102.44
109.4
114.93
120.61
128.44
139.95
155.38
173.59
192.58
210.45
226.19
240.1
253.37
267.46
283.44
301.61
321.54
342.27
362.4
380.16
393.63
401.06
401.19
393.58
378.6
356.87
328.88
294.58
253.16
203.42
144.86
79.3
12.06
-48.58
-93.97
-118.68
-123.32
-114.68
-102.65
-95.59
-96.51
-102.31
-106.37
-102.71
-89.2
-68.16
-44.37
-22.04
-2.93
13.63
29.1
44.01
57.09
65.82
67.66
61.29
47.55
28.78
7.56
-14.84
-38.77
-65.06
-92.94
-118.7
-136.28
-139.83
-127.12
-101.49
-71.1
-45.75
-32.74
-34.12
-46.67
-64.03
-79.86
-90.39
-94.95
-95.18
-93.9
-93.81
-96.97
-104.87
-118.37
-137.2
-159.17
-179.71
-192.27
-190.8
-172.62
-140.56
-102.63
-69
-47.81
-41.81
-48.14
-60.83
-74.55
-87.46
-101.56
-120.73
-147.82
-182.05
-217.89
-245.84
-255.13
-237.58
-191.39
-123.36
-47.45
19.98
66.06
85.82
82.74
65.34
42.05
17.39
-8.35
-36.7
-67.8
-99.13
-126.61
-147.63
-163.4
-178.56
-198.65
-226.59
-260.74
-295.83
-325.04
-342.84
-345.91
-333.03
-304.63
-262.79
-211.66
-157.54
-107.57
-67.64
-40.93
-27.59
-25.86
-33.68
-49.27
-70.73
-95.75
-122.39
-149.28
-176.3
-203.79
-231.48
-257.73
-280.01
-296.04
-304.69
-306.36
-300.93
-286.97
-261.55
-222.37
-169.99
-108.12
-42.04
24.29
88.75
151.64
213.59
273.6
328.08
371.7
399.49
408.63
399.76
373.59
333.33
283.5
229.66
177
129.3
87.89
52.19
20.63
-15.13
-62.41
-126.02
-205.38
-294.37
-383.66
-463.85
-528.35
-574.74
-615.65
-665.34
-735.5
-828.49
-936.78
-1047.7
-1149.7
-1235.7
-1303.7
-1368.5
-1443.6
-1537.3
-1647.3
-1762.3
-1868.7
-1956.8
-2022.6
-1982.5
-1781.7
-1402.3
-882.95
-302.06
258.4
742.12
1125.3
1408.5
1605.5
1715
1751.8
1728.2
1659.4
1563.7
1457.6
1351.9
1250.3
1151.9
1043.5
918.38
775.33
624.23
482.21
365.63
283.17
233.99
210.54
196.94
181.13
155.89
121.93
85.21
52.37
27.37
11.27
3.72
1.04
0.72
0.08
-1.8
-4.51
-7.33
-9.71
-11.25
-11.37
-10.33
-8.1
-5.19
-2
1.21
4.16
6.58
8.4
9.96
11.86
14.83
19.03
24.18
29.62
34.55
38.31
40.65
41.67
41.79
41.51
41.13
40.77
40.31
39.58
38.42
36.81
34.86
32.75
30.66
28.72
26.97
25.36
23.85
22.39
20.97
19.61
18.34
17.21
16.27
15.53
15.01
14.7
14.58
14.59
14.72
14.91
15.1
15.24
15.3
15.21
14.92
14.44
13.79
13.02
12.22
11.47
10.83
10.34
10.02
9.88
9.9
10.1
10.53
11.22
12.2
13.44
14.87
16.38
17.84
19.2
20.5
21.88
23.55
25.69
28.39
31.59
35.11
38.71
42.24
45.69
49.27
53.26
57.91
63.31
69.32
75.58
81.75
87.63
93.35
99.31
106.08
114.1
123.57
134.28
145.79
157.69
169.73
181.93
194.54
207.86
222.24
238.27
256.68
278.16
302.63
328.53
352.7
371.02
379.77
377.04
363.44
341.72
315.6
288.46
262.49
238.8
217.8
199.62
184.21
171.01
158.79
145.86
130.75
112.98
93.56
74.64
58.77
47.89
42.55
41.65
42.81
43.34
41.1
35.3
26.63
16.8
7.78
0.79
-3.98
-7.21
-9.81
-12.31
-14.45
-15.47
-14.81
-12.8
-10.78
-10.54
-13.27
-18.77
-25.27
-30.07
-30.96
-27.31
-20.53
-13.53
-9.44
-10.23
-16.05
-25.16
-34.7
-41.82
-44.55
-42.28
-35.77
-26.9
-18.13
-12.06
-10.65
-14.76
-23.76
-35.58
-47.03
-54.62
-55.56
-48.65
-34.89
-17.5
-0.94
10.6
14.83
12.26
5.91
-0.19
-2.92
-1.53
2.19
5.05
4.39
-0.48
-8
-15.32
-19.8
-20.32
-17.63
-13.8
-11.04
-10.68
-12.52
-15.14
-16.66
-15.65
-11.82
-6.04
0.08
4.91
7.32
7.05
4.61
1.08
-2.25
-4.21
-4.14
-2.16
0.86
3.5
4.46
3.12
-0.07
-3.84
-6.81
-8.16
-8.08
-7.44
-7.21
-7.74
-8.69
-9.31
-9.02
-7.87
-6.43
-5.4
-5.19
-5.75
-6.74
-7.84
-8.73
-9.03
-8.17
-5.63
-1.39
3.67
7.96
9.82
8.42
4.28
-0.97
-5.48
-8.04
-8.55
-7.71
-6.35
-4.92
-3.47
-2.01
-1.02
-1.21
-3.09
-6.48
-10.37
-13.35
-14.44
-13.57
-11.62
-9.92
-9.41
-10.16
-11.33
-11.8
-10.92
-8.89
-6.69
-5.42
-5.68
-7.25
-9.35
-11.02
-11.67
-11.29
-10.4
-9.69
-9.78
-11.05
-13.57
-17.08
-20.97
-24.41
-26.57
-26.96
-25.64
-23.07
-19.85
-16.32
-12.59
-8.78
-5.26
-2.72
-1.77
-2.39
-3.72
-4.45
-3.71
-1.67
0.33
0.71
-1.32
-5.09
-8.79
-10.55
-9.46
-6.01
-1.62
2.31
5.18
7.16
8.79
10.33
11.49
11.64
10.3
7.58
4.15
1.06
-0.76
-0.89
0.48
2.58
4.34
4.83
3.6
1
-2.02
-4.31
-5.12
-4.5
-3.23
-2.27
-2.11
-2.45
-2.44
-1.31
1.09
4.1
6.78
8.58
9.67
10.76
12.45
14.62
16.58
17.49
17.19
16.5
16.81
19.16
23.42
28.02
30.44
28.37
20.86
8.88
-4.81
-16.69
-23.86
-25.2
-21.79
-16.43
-12.23
-11.28
-13.8
-18.48
-23.52
-27.88
-31.6
-35.35
-39.4
-42.83
-43.87
-40.83
-33.3
-22.71
-11.76
-3.31
0.83
0.51
-2.98
-7.66
-11.64
-13.65
-13.26
-10.77
-6.99
-2.99
0.26
2.16
2.61
1.88
0.41
-1.34
-2.99
-4.22
-4.72
-4.32
-3.03
-1.08
1.15
3.26
4.93
5.93
6.13
5.52
4.35
3.15
2.63
3.35
5.41
8.3
11.11
12.92
13.25
12.35
10.96
10.01
10.15
11.52
13.64
15.53
16.08
14.4
10.29
4.51
-1.44
-5.82
-7.41
-6.13
-3
0.34
2.44
2.62
1.17
-1.12
-3.39
-5.14
-6.22
-6.57
-6.14
-4.88
-3.06
-1.33
-0.57
-1.36
-3.56
-6.21
-7.92
-7.64
-5.25
-1.72
1.31
2.3
0.55
-3.42
-8.06
-11.46
-12.25
-10.23
-6.49
-3.02
-1.84
-4.11
-9.6
-16.68
-22.77
-25.33
-22.75
-15.07
-4.11
7.1
15.32
18.22
15.12
7.14
-3.36
-13.73
-21.9
-26.93
-28.99
-28.87
-27.51
-25.56
-23.36
-21.02
-18.66
-16.48
-14.75
-13.58
-12.79
-12.09
-11.25
-10.48
-10.51
-12.14
-15.7
-20.52
-25.01
-27.36
-26.52
-22.84
-17.96
-13.83
-11.55
-10.7
-9.63
-6.51
-0.62
7
14.09
18.37
18.83
16.29
12.87
10.67
10.6
11.98
13.07
12.33
9.36
5.17
1.54
-0.09
0.53
2.29
3.4
2.37
-1.14
-6.23
-11.21
-14.47
-15.15
-13.39
-10.02
-6.03
-2.17
1.21
3.95
5.94
7.02
7.03
6.13
4.77
3.56
3.05
3.46
4.61
6.03
7.27
7.97
8.02
7.47
6.5
5.35
4.3
3.51
2.99
2.45
1.24
-1.63
-7.16
-15.85
-27.19
-39.51
-50.27
-57.04
-58.32
-53.95
-44.87
-32.47
-17.86
-1.93
13.7
26.04
30.84
24.32
5.64
-21.51
-49.63
-70.47
-78.57
-73.57
-59.82
-43.74
-30.86
-23.92
-23.12
-27.37
-35.15
-44.54
-52.44
-54.01
-43.71
-17.57
24.35
77.23
132.88
182.45
219.69
242.67
253.73
257.72
259.48
261.95
265.53
268.84
270.24
269.09
265.84
261.45
256.2
249.2
239.03
224.89
207.74
190.49
177
170.67
172.84
182.25
195.84
210.1
222.24
230.93
236.19
238.62
238.5
235.12
226.7
210.68
184.81
147.86
100.32
44.37
-16.88
-80.2
-143.23
-204.72
-264.56
-323.4
-382.49
-443.45
-507.88
-576.34
-647.03
-714.9
-771.95
-809.57
-821.65
-807.21
-770.88
-721.06
-666.67
-614.1
-566.15
-522.32
-481.16
-441.95
-405.26
-372.18
-343.27
-317.99
-295.07
-273.32
-251.18
-228.04
-204.3
-180.86
-158.64
-138.06
-118.83
-100.24
-81.7
-60.67
-35.23
-4.43
31.25
70.11
109.94
148.86
185.72
219.86
254.84
294.15
340.18
393.02
450.25
508.02
562.7
611.9
654.71
696.68
744.27
803.07
875.76
961.37
1056.3
1156.2
1257.7
1325
1328.7
1249.9
1089.6
870.11
624.68
384.14
168.4
-14.46
-164.88
-282.32
-367.42
-421.7
-448.73
-454.75
-447.59
-434.58
-420.93
-409.64
-398.52
-385.5
-370.45
-355.93
-346.13
-344.19
-350.06
-360.5
-371.04
-375.92
-371.87
-358.45
-337.38
-311.48
-283.52
-255.84
-230.38
-208.94
-191.68
-177.87
-165.88
-153.88
-140.67
-125.93
-110.36
-95.21
-81.86
-70.84
-62.06
-54.82
-48.18
-41.35
-33.93
-25.97
-17.9
-10.4
-4.1
0.52
3.39
4.79
5
4.32
2.89
0.72
-2.2
-5.71
-9.4
-12.72
-15.24
-16.8
-17.59
-17.98
-18.28
-18.53
-18.44
-17.64
-15.84
-13.13
-9.95
-6.85
-4.39
-3.12
-3.58
-6.2
-11.1
-17.51
-23.76
-27.68
-27.28
-21.95
-12.74
-2.12
7.5
15.06
21.26
27.87
36.2
45.88
54.69
59.85
59.45
53.9
45.75
38.36
34.17
33.7
35.67
38.1
39.72
40.33
40.91
42.66
46.04
50.38
54.15
55.61
53.25
47.95
40.59
32.32
24.24
16.97
10.62
4.93
-0.49
-5.95
-11.44
-17.02
-22.58
-28.08
-33.58
-39.21
-44.97
-50.63
-55.74
-59.67
-62.19
-63.31
-63.44
-63.3
-63.52
-64.42
-65.79
-67.04
-67.42
-66.57
-64.65
-62.22
-59.98
-58.26
-56.78
-54.85
-51.78
-47.35
-42.03
-36.71
-32.2
-28.85
-26.4
-24.34
-22.17
-19.74
-17.17
-14.66
-12.3
-10
-7.65
-5.29
-3.14
-1.45
-0.36
0.22
0.52
0.77
1.1
1.5
1.87
2.1
2.08
1.83
1.48
1.33
1.69
2.73
4.38
6.21
7.73
8.58
8.8
8.77
9.02
9.87
11.32
13.09
14.83
16.44
17.95
19.43
20.79
21.81
22.32
22.36
22.24
22.28
22.65
23.27
23.92
24.5
25.17
26.21
27.69
29.41
30.85
31.61
31.68
31.53
31.77
32.8
34.54
36.51
38.25
39.51
40.35
40.89
41.08
40.76
39.81
38.48
37.4
37.19
37.88
38.57
37.55
33.13
24.57
12.63
-0.52
-12.18
-20.29
-24.18
-24.64
-23.26
-21.53
-20.26
-19.66
-19.7
-20.57
-22.67
-26.3
-31.17
-36.5
-41.33
-45.08
-47.82
-50.03
-52.05
-53.63
-53.98
-52.27
-48.19
-42.36
-36
-30.49
-26.69
-24.71
-23.99
-23.73
-23.26
-22.22
-20.63
-18.63
-16.36
-13.89
-11.25
-8.56
-6.08
-4.12
-2.86
-2.22
-1.84
-1.21
0.01
1.76
3.63
5.12
5.99
6.4
6.84
7.79
9.36
11.29
12.99
13.85
13.49
11.81
9.03
5.52
1.79
-1.67
-4.43
-6.26
-7.17
-7.4
-7.21
-6.8
-6.1
-4.95
-3.29
-1.33
0.29
0.9
0.14
-1.7
-3.71
-4.75
-4.19
-2.19
0.3
2.04
2.34
1.47
0.49
0.64
2.57
5.87
9.35
11.66
12.03
10.63
8.4
6.49
5.76
6.43
8.1
10.13
11.93
13.14
13.64
13.4
12.36
10.5
7.96
5.07
2.3
0.04
-1.67
-3.18
-5.09
-7.89
-11.62
-15.85
-19.88
-23.12
-25.35
-26.71
-27.41
-27.56
-27.02
-25.6
-23.22
-20.12
-16.75
-13.71
-11.51
-10.39
-10.25
-10.62
-10.79
-10.07
-8.23
-5.62
-3.09
-1.48
-0.91
-0.58
0.85
4.5
10.46
17.6
24.09
28.36
29.74
28.71
26.45
24.1
22.32
21.26
20.82
20.82
21.07
21.18
20.49
18.19
13.74
7.37
0.12
-6.29
-10.18
-10.69
-8.37
-5.14
-3.64
-6.17
-13.62
-25.15
-38.45
-50.71
-59.69
-64.29
-64.51
-61.13
-55.18
-47.61
-39.36
-31.35
-24.42
-19.15
-15.47
-12.48
-8.66
-2.47
6.98
19.32
32.86
45.06
53.38
56.23
53.47
46.41
37.27
28.42
21.88
19.17
21.32
28.9
41.86
59.23
78.88
97.62
111.54
116.86
111
93.59
66.88
35.48
4.94
-19.97
-36.57
-44.85
-46.81
-45.04
-41.64
-37.55
-32.94
-27.87
-22.72
-18.13
-14.6
-12.17
-10.45
-9.03
-7.92
-7.58
-8.64
-11.42
-15.61
-20.46
-25.06
-28.88
-31.96
-34.84
-38.32
-43.07
-49.27
-56.56
-64.12
-70.94
-76.13
-79.19
-80.03
-78.77
-75.57
-70.38
-63.08
-53.63
-42.38
-30.24
-18.5
-8.42
-0.71
4.69
8.5
11.74
15.2
19.21
23.61
28.1
32.51
36.92
41.49
46.2
50.62
53.92
55.25
54.15
50.86
46.29
41.65
37.95
35.61
34.36
33.41
31.82
28.91
24.55
19.14
13.48
8.41
4.5
1.83
0.03
-1.48
-3.19
-5.3
-7.58
-9.6
-10.91
-11.3
-10.81
-9.67
-8.15
-6.42
-4.55
-2.59
-0.57
1.42
3.33
5.14
6.9
8.53
9.91
10.75
10.77
9.88
8.19
6.05
3.93
2.22
1.14
0.71
0.87
1.42
2.25
3.22
4.17
4.85
5
4.46
3.26
1.75
0.46
-0.09
0.21
1.02
1.62
1.34
-0.08
-2.24
-4.37
-5.7
-5.96
-5.51
-5.01
-4.98
-5.47
-6.03
-6.02
-5.05
-3.15
-0.74
1.72
3.85
5.53
6.74
7.51
7.82
7.69
7.31
6.95
6.84
7.02
7.25
7.13
6.42
5.21
4
3.5
4.16
5.9
8.07
9.76
10.23
9.26
7.19
4.64
2.17
0.09
-1.56
-2.8
-3.66
-4.07
-4.03
-3.7
-3.31
-3.12
-3.15
-3.29
-3.31
-3.06
-2.54
-1.81
-0.95
-0
1
1.94
2.6
2.8
2.43
1.61
0.65
-0.21
-0.82
-1.24
-1.61
-2.04
-2.4
-2.51
-2.18
-1.47
-0.66
-0.08
0.06
-0.18
-0.55
-0.77
-0.81
-0.95
-1.55
-2.8
-4.49
-6.04
-6.89
-6.78
-5.97
-5.09
-4.78
-5.27
-6.26
-7.14
-7.36
-6.7
-5.34
-3.59
-1.65
0.58
3.25
6.34
9.46
11.93
13.14
12.87
11.42
9.45
7.6
6.2
5.27
4.66
4.31
4.26
4.56
5.07
5.52
5.54
4.95
3.81
2.41
1.05
-0.13
-1.19
-2.31
-3.54
-4.8
-5.87
-6.56
-6.82
-6.75
-6.55
-6.35
-6.22
-6.15
-6.08
-5.99
-5.89
-5.77
-5.55
-5.06
-4.09
-2.53
-0.47
1.7
3.43
4.21
3.9
2.81
1.66
1.15
1.66
3
4.54
5.6
5.88
5.59
5.26
5.37
6.02
6.85
7.38
7.37
7.08
6.97
7.38
8.08
8.37
7.49
5.11
1.64
-2.02
-4.92
-6.64
-7.34
-7.6
-7.91
-8.45
-9.04
-9.46
-9.59
-9.46
-9.11
-8.45
-7.28
-5.41
-2.89
0.01
2.85
5.25
6.9
7.62
7.35
6.11
4.05
1.54
-0.9
-2.76
-3.67
-3.53
-2.54
-1.06
0.49
1.75
2.46
2.5
1.87
0.75
-0.66
-2.12
-3.49
-4.71
-5.8
-6.86
-7.98
-9.28
-10.87
-12.83
-15.13
-17.5
-19.51
-20.65
-20.55
-19.17
-16.82
-14.06
-11.5
-9.55
-8.28
-7.53
-7
-6.4
-5.6
-4.54
-3.25
-1.81
-0.3
1.17
2.46
3.4
3.93
4.13
4.26
4.75
5.97
7.97
10.41
12.57
13.74
13.64
12.61
11.55
11.42
12.71
15.12
17.79
19.82
20.77
20.89
20.71
20.57
20.21
18.97
16.36
12.6
8.77
6.25
6.11
8.43
12.32
16.38
19.44
20.96
21.04
20.07
18.33
15.87
12.67
8.88
4.99
1.62
-0.73
-2
-2.58
-2.99
-3.55
-4.25
-4.8
-5.05
-5.1
-5.39
-6.31
-7.81
-9.28
-9.79
-8.74
-6.3
-3.42
-1.31
-0.74
-1.52
-2.68
-3.06
-2.11
-0.21
1.55
2.18
1.43
0
-0.8
0.21
3.52
8.72
14.71
20.31
24.63
27.44
29.13
30.54
32.68
36.39
42
49.17
56.83
63.32
66.7
65.26
57.88
44.41
25.91
4.59
-16.51
-34.2
-46.14
-51.6
-51.68
-48.7
-44.99
-41.63
-38.18
-33.35
-26.45
-18.44
-11.92
-9.89
-14.17
-24.3
-37.82
-51.55
-63.06
-71.43
-76.84
-79.54
-78.94
-73.64
-62.4
-45.36
-24.68
-4.07
12.39
21.85
23.73
19.78
13.38
8.23
7.18
11.66
21.82
37.04
56.35
78.46
101.16
120.89
132.91
132.51
116.92
86.9
47.16
5.05
-31.88
-58.42
-72.94
-77.18
-74.72
-69.14
-62.98
-57.55
-53.6
-51.74
-52.66
-56.57
-62.91
-70.24
-76.8
-81.22
-82.96
-82.46
-80.79
-79.09
-78.15
-78.01
-77.99
-76.77
-72.85
-64.97
-52.61
-36.27
-17.52
1.51
18.78
33.02
43.98
52.18
58.4
63.13
66.45
68.12
67.93
65.98
62.73
58.98
55.49
52.82
51.15
50.29
49.85
49.32
48.28
46.42
43.61
39.9
35.48
30.54
25.37
20.29
15.62
11.63
8.41
5.78
3.26
0.23
-3.75
-8.67
-13.91
-18.36
-20.84
-20.63
-17.79
-13.21
-8.17
-3.77
-0.46
2.01
4.31
6.95
9.95
12.82
14.83
15.57
15.19
14.37
14
14.72
16.57
18.96
20.96
21.74
20.96
18.91
16.45
14.63
14.26
15.59
18.2
21.16
23.38
24.14
23.3
21.34
19.08
17.36
16.81
17.74
20.02
22.86
24.39
21.57
10.73
-11.05
-44.28
-86.1
-130.57
-170.5
-199.74
-214.95
-215.92
-204.59
-183.51
-154.97
-120.96
-83.87
-46.94
-13.94
11.88
28.95
37.88
41
41.25
41.01
41.49
42.77
44.13
44.81
44.32
42.64
40.24
37.72
35.63
34.17
33.03
31.52
28.8
24.45
18.72
12.66
7.6
4.59
3.69
3.89
3.66
1.69
-2.35
-7.63
-12.57
-15.61
-15.86
-13.3
-8.52
-2.24
4.99
12.8
20.79
28.32
34.62
39.03
41.36
41.97
41.59
40.94
40.56
40.7
41.42
42.66
44.26
45.85
46.88
46.84
45.6
43.67
42.09
41.86
43.39
46.04
48.33
48.7
46.36
41.9
36.94
33.42
32.44
33.72
35.74
36.56
34.73
29.75
21.97
11.93
-0.06
-13.98
-29.58
-45.84
-60.92
-72.69
-79.65
-81.58
-79.53
-75.17
-69.87
-64.21
-57.99
-50.86
-42.91
-34.84
-27.64
-22.02
-18.03
-15.1
-12.5
-9.63
-6.32
-2.76
0.73
3.86
6.46
8.45
9.84
10.66
11.04
11.12
11
10.69
10.05
9.02
7.6
6.03
4.49
3.05
1.45
-0.7
-3.63
-7.16
-10.57
-12.85
-13.11
-11.03
-7.01
-2.08
2.6
6.1
8.04
8.55
8.01
6.82
5.24
3.49
1.74
0.24
-0.76
-1.07
-0.71
0.1
1.15
2.22
3.2
4.07
4.77
5.27
5.59
5.85
6.19
6.74
7.39
7.81
7.59
6.41
4.29
1.54
-1.33
-3.89
-5.89
-7.32
-8.31
-8.96
-9.33
-9.4
-9.17
-8.58
-7.61
-6.17
-4.23
-1.86
0.71
3.04
4.66
5.21
4.7
3.52
2.37
1.97
2.68
4.36
6.33
7.78
8.19
7.64
6.69
6.05
6.15
6.83
7.52
7.6
6.83
5.5
4.21
3.42
3.13
2.84
1.88
-0.15
-3.14
-6.44
-9.31
-11.3
-12.5
-13.35
-14.34
-15.55
-16.57
-16.67
-15.25
-12.25
-8.19
-3.9
-0.16
2.68
4.75
6.41
7.96
9.37
10.34
10.47
9.56
7.8
5.68
3.83
2.76
2.61
3.11
3.75
4.06
3.84
3.27
2.77
2.8
3.55
4.74
5.81
6.17
5.51
3.99
2.1
0.29
-1.32
-3.05
-5.37
-8.47
-12.01
-15.1
-16.79
-16.54
-14.55
-11.62
-8.67
-6.16
-3.92
-1.43
1.7
5.31
8.77
11.31
12.58
12.77
12.48
12.25
12.2
12
11.29
10.07
8.78
8.14
8.57
9.91
11.48
12.43
12.33
11.3
9.9
8.69
7.89
7.4
6.97
6.5
6.07
5.81
5.57
4.86
3.14
0.14
-3.78
-7.74
-10.78
-12.3
-12.34
-11.41
-10.14
-8.82
-7.32
-5.37
-2.75
0.42
3.8
7.04
9.93
12.44
14.66
16.55
17.96
18.69
18.68
17.98
16.9
15.71
14.66
13.75
12.82
11.72
10.35
8.82
7.42
6.4
5.8
5.24
3.98
1.19
-3.56
-10
-17.13
-23.57
-28.25
-30.97
-32.48
-34.05
-36.72
-40.61
-44.87
-48.11
-49.13
-47.55
-44.01
-39.72
-35.78
-32.71
-30.29
-27.91
-25.02
-21.53
-17.82
-14.42
-11.63
-9.23
-6.61
-3.07
1.62
7.07
12.46
17.06
20.74
24.1
28.07
33.11
38.73
43.53
45.86
44.8
40.72
35.17
29.97
26.32
24.26
22.92
21.27
18.83
16
13.56
12.07
11.39
10.79
9.53
7.42
5.09
3.68
4.11
6.59
10.52
14.92
18.99
22.56
25.93
29.42
32.95
35.83
37.1
36.11
32.87
28.12
22.87
17.96
13.77
10.39
7.85
6.38
6.23
7.28
8.76
9.38
7.79
3.28
-3.77
-12.08
-20.17
-27.05
-32.74
-38.06
-43.95
-50.81
-58.21
-65.15
-70.64
-74.23
-75.99
-76.31
-75.43
-73.34
-69.9
-65.23
-59.91
-54.78
-50.44
-46.85
-43.23
-38.49
-31.84
-23.26
-13.51
-3.78
4.82
11.52
16.11
18.77
19.94
20.39
21.05
22.82
26.23
31.08
36.37
40.6
42.45
41.32
37.64
32.58
27.58
23.69
21.2
19.8
18.8
17.63
16.03
14.13
12.27
10.77
9.72
8.97
8.15
6.91
5.09
2.82
0.54
-1.3
-2.32
-2.4
-1.68
-0.42
1.09
2.56
3.79
4.69
5.26
5.61
5.87
6.1
6.2
6.03
5.49
4.72
4.09
4.05
4.88
6.47
8.34
9.84
10.47
10.12
9.06
7.8
6.8
6.26
6.05
5.77
5.03
3.67
1.88
0.1
-1.23
-1.99
-2.44
-3.14
-4.6
-6.99
-10.02
-13.05
-15.38
-16.52
-16.36
-15.03
-12.81
-10.07
-7.3
-5.11
-4.07
-4.47
-6.05
-8.04
-9.35
-9.08
-6.93
-3.35
0.59
3.58
4.69
3.66
1.02
-2.16
-4.82
-6.36
-6.81
-6.69
-6.66
-7.04
-7.72
-8.3
-8.38
-7.89
-7.1
-6.42
-6.2
-6.57
-7.46
-8.74
-10.27
-11.92
-13.55
-15.16
-16.82
-18.73
-21.03
-23.58
-25.9
-27.28
-27.07
-25.02
-21.37
-16.71
-11.7
-6.85
-2.44
1.42
4.66
7.21
9.02
10.1
10.58
10.59
10.26
9.7
9.01
8.3
7.69
7.29
7.14
7.28
7.73
8.51
9.62
10.93
12.09
12.74
12.63
11.8
10.6
9.5
8.74
8.19
7.38
5.81
3.39
0.56
-1.85
-3.06
-2.79
-1.37
0.42
1.89
2.82
3.62
4.99
7.44
10.91
14.83
18.39
21.05
22.76
23.84
24.65
25.31
25.58
25.18
24
22.29
20.5
19.02
17.94
17.1
16.33
15.62
15.19
15.3
16
17.08
18.11
18.67
18.57
17.9
16.94
15.94
15.05
14.23
13.33
12.24
10.89
9.31
7.62
6.04
4.86
4.42
4.92
6.26
7.96
9.26
9.47
8.27
5.78
2.44
-1.32
-5.26
-9.37
-13.5
-17.17
-19.59
-19.94
-17.9
-13.9
-9.03
-4.6
-1.66
-0.66
-1.39
-3.15
-4.93
-5.78
-5.21
-3.43
-1.3
-0
-0.38
-2.46
-5.44
-8.2
-9.96
-10.71
-11.08
-11.75
-12.95
-14.3
-15.14
-15.01
-13.76
-11.37
-7.45
-1.27
7.75
19.2
31.24
40.84
44.79
41.09
29.77
12.88
-6.46
-25.22
-41.27
-53.47
-61.38
-64.83
-63.9
-59.14
-51.86
-44
-37.51
-33.66
-32.63
-33.6
-35.31
-36.78
-37.66
-38.22
-39.02
-40.46
-42.55
-44.89
-46.71
-47.12
-45.26
-40.59
-33.11
-23.48
-12.87
-2.74
5.69
11.81
15.71
17.98
19.39
20.48
21.42
22.14
22.55
22.73
22.97
23.62
24.81
26.31
27.65
28.31
28.01
26.86
25.28
23.75
22.61
21.9
21.46
20.99
20.22
19.02
17.38
15.43
13.36
11.34
9.44
7.61
5.7
3.61
1.32
-1.01
-3.16
-4.97
-6.46
-7.79
-9.19
-10.79
-12.6
-14.5
-16.32
-17.88
-18.99
-19.39
-18.87
-17.3
-14.73
-11.4
-7.67
-3.95
-0.65
1.84
3.31
3.85
3.93
4.33
5.83
8.81
12.91
17.14
20.24
21.27
20.04
17.13
13.56
10.36
8.18
7.23
7.46
8.6
10.24
11.81
12.58
11.83
9.12
4.6
-0.98
-6.43
-10.57
-12.72
-13.02
-12.3
-11.67
-11.99
-13.49
-15.72
-17.76
-18.69
-17.97
-15.52
-11.7
-7.04
-2.05
2.81
7.16
10.66
13.05
14.29
14.72
14.9
15.58
17.27
20.19
24.03
28.22
32.03
34.8
36.13
35.85
34.12
31.4
28.4
25.99
24.81
25.04
26.29
27.69
28.32
27.68
26
24.04
22.74
22.64
23.65
25.12
26.22
26.27
24.86
21.73
16.55
9.05
-0.72
-12.19
-24.16
-35.16
-44.01
-50.18
-53.86
-55.57
-55.75
-54.48
-51.68
-47.34
-41.84
-36.02
-30.93
-27.48
-26.06
-26.36
-27.34
-27.65
-26.02
-21.91
-15.83
-9.12
-3.46
-0.01
1.08
0.65
-0.09
-0.2
0.6
1.82
2.76
2.86
1.9
-0.09
-3.08
-6.95
-11.35
-15.29
-17.13
-14.9
-7.09
6.61
24.89
44.91
63.1
76.11
81.81
79.68
70.78
57.17
41.28
25.37
11.18
-0.08
-7.84
-12.1
-13.5
-13.13
-12.35
-12.4
-13.91
-16.84
-20.47
-23.73
-25.73
-26.13
-25.26
-24.09
-23.86
-25.59
-29.79
-36.14
-43.75
-51.37
-57.86
-62.49
-64.98
-65.42
-64.06
-61.16
-56.94
-51.65
-45.56
-38.93
-31.9
-24.4
-16.22
-7.18
2.56
12.54
22.04
30.33
37.04
42.18
46.09
49.23
51.88
54.05
55.49
55.91
55.15
53.3
50.63
47.4
43.8
39.97
36.08
32.42
29.42
27.41
26.36
25.7
24.54
21.99
17.73
12.23
6.54
1.8
-1.3
-2.85
-3.57
-4.39
-6.07
-8.88
-12.62
-16.68
-20.24
-22.41
-22.51
-20.22
-15.74
-9.79
-3.34
2.74
7.88
11.92
14.9
16.88
17.77
17.52
16.05
13.56
10.42
7.17
4.44
2.73
2.38
3.44
5.53
7.85
9.26
8.44
4.29
-3.7
-15.16
-28.72
-42.43
-54.29
-62.96
-68.08
-70.15
-70.05
-68.45
-65.66
-61.69
-56.77
-51.51
-46.76
-43.14
-40.59
-38.26
-34.9
-29.59
-22.15
-13.27
-4.04
4.52
11.97
18.38
24.16
29.5
34.26
37.92
39.92
40.01
38.44
35.97
33.46
31.56
30.39
29.59
28.63
27.12
25.1
22.93
21.09
19.83
19.04
18.3
17.16
15.31
12.8
9.91
6.97
4.12
1.25
-1.92
-5.68
-10.1
-15.04
-20.16
-25
-29.15
-32.22
-33.93
-34.11
-32.76
-30.1
-26.55
-22.62
-18.65
-14.82
-11.1
-7.48
-4.12
-1.32
0.73
2.26
4.03
7.02
11.93
18.79
26.79
34.71
41.42
46.27
49.17
50.24
49.59
47.16
43.07
37.86
32.61
28.58
26.6
26.57
27.43
27.7
26.15
22.36
16.7
10.05
3.23
-3.28
-9.38
-14.95
-19.72
-23.19
-24.87
-24.63
-22.82
-20.1
-17.15
-14.31
-11.52
-8.68
-5.92
-3.81
-3.15
-4.52
-7.79
-12.08
-16.06
-18.62
-19.41
-18.89
-18
-17.56
-17.78
-18.22
-18.2
-17.36
-15.96
-14.87
-14.99
-16.63
-19.3
-21.8
-22.83
-21.69
-18.52
-14.26
-10.11
-7.02
-5.43
-5.22
-6.02
-7.42
-9.13
-10.88
-12.43
-13.41
-13.51
-12.54
-10.56
-7.81
-4.57
-1.03
2.79
6.86
11.08
15.24
19.09
22.51
25.55
28.36
31.04
33.56
35.69
37.24
38.18
38.69
38.97
38.92
37.98
35.26
30.12
22.61
13.77
5.34
-1.01
-4.38
-5.06
-4.32
-3.7
-4.2
-5.94
-8.21
-10.12
-11.19
-11.64
-12.06
-12.93
-14.15
-15.03
-14.74
-12.88
-9.81
-6.5
-3.95
-2.61
-2.13
-1.63
-0.2
2.49
6.08
9.67
12.37
13.72
13.86
13.33
12.74
12.34
11.99
11.28
9.85
7.61
4.85
2.02
-0.45
-2.36
-3.7
-4.59
-5.12
-5.34
-5.32
-5.25
-5.46
-6.31
-8.03
-10.63
-13.94
-17.55
-21.02
-23.84
-25.51
-25.76
-24.52
-22.11
-19.06
-15.92
-12.92
-9.94
-6.58
-2.52
2.16
6.96
11.06
13.8
14.89
14.58
13.52
12.5
12.1
12.5
13.57
14.83
15.78
16.05
15.62
14.76
13.99
13.79
14.39
15.84
18
20.79
24.19
28.11
32.27
36.03
38.61
39.37
38.15
35.39
32.06
29.12
27.26
26.68
27.13
28.13
29.11
29.44
28.39
25.42
20.29
13.28
5.11
-3.39
-11.61
-19.45
-27.12
-34.78
-42.16
-48.5
-52.91
-54.77
-54.19
-51.9
-48.87
-45.88
-43.15
-40.5
-37.54
-34.04
-30.02
-25.74
-21.4
-17.15
-13.05
-9.29
-6.18
-4.12
-3.44
-4.12
-5.85
-8.07
-10.25
-12.1
-13.57
-14.8
-15.91
-16.93
-17.73
-18.21
-18.26
-17.85
-16.85
-15
-11.94
-7.3
-0.92
6.93
15.56
24.01
31.32
36.85
40.46
42.43
43.3
43.53
43.39
42.98
42.27
41.32
40.26
39.28
38.45
37.67
36.74
35.49
33.9
32.2
30.75
29.8
29.36
29.17
28.83
28.14
27.24
26.64
27.1
29.23
33.24
38.66
44.12
47.43
45.85
36.88
19.28
-6.08
-36.08
-66.13
-91.59
-109.35
-118.67
-120.91
-118.58
-114.03
-108.64
-102.8
-96.34
-89.11
-81.42
-73.85
-66.92
-60.78
-55.11
