-0
-0
-0
-0
-0
-0
-0
-0
-0
-0
0
0.01
0.01
-0
-0.03
-0.05
-0.05
0
0.13
0.36
0.66
1.01
1.37
1.72
2.06
2.4
2.79
3.24
3.8
4.42
5.06
5.66
6.2
6.68
7.15
7.68
8.31
9.14
10.09
11.04
11.88
12.56
13.14
13.76
14.65
15.96
17.91
20.32
22.9
25.38
27.58
29.57
31.68
34.32
37.81
42.54
48.15
54.11
59.84
64.98
69.58
74.14
79.34
85.7
93.77
103.02
112.66
121.78
129.79
136.7
143.14
150.45
157.34
166.11
177.37
191.21
206.39
219.98
227.62
224.64
207.68
175.9
131.73
79.01
22.07
-35.91
-93.44
-150.3
-206.63
-262.09
-315.75
-366.06
-412.04
-453.03
-488.57
-517.93
-539.83
-552.55
-554.17
-543.4
-519.77
-484.38
-439.45
-387.88
-332.65
-276.26
-220.45
-166.24
-114.19
-64.75
-18.68
22.97
59.08
88.78
111.79
128.56
140.2
148.08
153.41
156.92
158.74
158.62
156.22
151.31
143.83
133.91
122.05
109.33
97.65
89.5
87.22
91.91
102.69
116.67
129.94
139.07
142.24
139.65
132.92
123.99
114.22
104.17
93.9
83.55
73.62
64.93
57.92
52.49
48.03
43.63
38.61
32.85
26.88
21.64
17.99
16.31
16.31
17.13
17.71
17.21
15.34
12.36
8.89
5.61
2.97
1.12
-0.03
-0.75
-1.27
-1.79
-2.33
-2.81
-3.19
-3.48
-3.77
-4.13
-4.45
-4.44
-3.81
-2.48
-0.76
0.7
1.2
0.45
-1.34
-3.49
-5.22
-6.1
-6.14
-5.77
-5.44
-5.43
-5.69
-5.95
-5.98
-5.72
-5.3
-4.92
-4.74
-4.83
-5.07
-5.28
-5.31
-5.12
-4.76
-4.38
-4.12
-4.03
-4.11
-4.28
-4.48
-4.63
-4.59
-4.13
-2.98
-1.01
1.68
4.66
7.39
9.35
10.31
10.36
9.83
9.13
8.56
8.28
8.31
8.65
9.23
9.97
10.73
11.36
11.7
11.64
11.17
10.29
9.09
7.66
6.12
4.47
2.69
0.79
-1.26
-3.42
-5.58
-7.56
-9.2
-10.37
-11.07
-11.41
-11.49
-11.44
-11.34
-11.19
-10.94
-10.55
-10.01
-9.33
-8.58
-7.86
-7.29
-6.94
-6.79
-6.76
-6.71
-6.51
-6.14
-5.64
-5.14
-4.79
-4.64
-4.68
-4.81
-4.91
-4.93
-4.84
-4.67
-4.48
-4.35
-4.34
-4.51
-4.91
-5.46
-5.97
-6.11
-5.52
-3.98
-1.54
1.47
4.5
7
8.58
9.16
8.89
8.11
7.16
6.25
5.52
5
4.67
4.55
4.64
4.81
4.98
5.1
5.18
5.28
5.5
5.91
6.49
7.15
7.76
8.2
8.45
8.5
8.37
8.03
7.45
6.62
5.58
4.47
3.45
2.66
2.12
1.77
1.49
1.17
0.75
0.24
-0.35
-0.96
-1.58
-2.21
-2.83
-3.44
-4.05
-4.7
-5.45
-6.36
-7.45
-8.68
-9.9
-10.99
-11.88
-12.62
-13.39
-14.45
-15.99
-18.09
-20.54
-22.89
-24.57
-24.97
-23.73
-20.84
-16.65
-11.76
-6.81
-2.32
1.42
4.31
6.37
7.69
8.42
8.75
8.94
9.2
9.59
10.06
10.48
10.74
10.87
11
11.27
11.73
12.32
12.92
13.41
13.73
13.83
13.66
13.15
12.26
11.02
9.59
8.16
6.86
5.71
4.64
3.54
2.42
1.34
0.41
-0.3
-0.86
-1.39
-2.06
-2.93
-4.01
-5.27
-6.66
-8.15
-9.71
-11.3
-12.8
-14.15
-15.3
-16.35
-17.47
-18.91
-20.83
-23.15
-25.57
-27.5
-28.29
-27.45
-24.84
-20.7
-15.62
-10.24
-5.17
-0.77
2.8
5.52
7.47
8.79
9.63
10.19
10.64
11.09
11.56
12.03
12.47
12.88
13.3
13.81
14.42
15.08
15.7
16.19
16.49
16.61
16.54
16.28
15.76
14.97
13.91
12.69
11.47
10.38
9.48
8.74
8.07
7.36
6.58
5.74
4.87
4
3.1
2.14
1.13
0.1
-0.86
-1.73
-2.56
-3.47
-4.59
-6
-7.66
-9.45
-11.18
-12.7
-13.99
-15.13
-16.28
-17.66
-19.42
-21.59
-24.03
-26.43
-28.31
-29.15
-28.5
-26.14
-22.19
-17.08
-11.45
-5.98
-1.18
2.64
5.44
7.33
8.56
9.39
10.05
10.69
11.36
12.02
12.59
13.05
13.38
13.67
13.99
14.41
14.93
15.49
16.06
16.56
16.94
17.16
17.15
16.84
16.18
15.21
14
12.66
11.32
10.09
9.04
8.17
7.47
6.83
6.18
5.42
4.5
3.43
2.27
1.12
0.07
-0.85
-1.66
-2.41
-3.22
-4.17
-5.33
-6.69
-8.21
-9.78
-11.26
-12.6
-13.8
-14.97
-16.27
-17.88
-19.9
-22.22
-24.59
-26.53
-27.54
-27.17
-25.25
-21.88
-17.44
-12.47
-7.52
-2.99
0.89
4.03
6.46
8.22
9.39
10.05
10.32
10.32
10.18
10
9.88
9.89
10.1
10.58
11.34
12.34
13.43
14.42
15.12
15.38
15.17
14.56
13.66
12.58
11.36
10.01
8.54
6.98
5.45
4.05
2.82
1.71
0.64
-0.47
-1.68
-2.96
-4.27
-5.55
-6.77
-7.9
-8.88
-9.73
-10.51
-11.37
-12.55
-14.26
-16.55
-19.26
-21.98
-24.14
-25.17
-24.64
-22.43
-18.76
-14.07
-8.98
-4.07
0.21
3.64
6.13
7.79
8.78
9.3
9.55
9.69
9.78
9.81
9.75
9.61
9.47
9.48
9.79
10.44
11.35
12.32
13.13
13.62
13.71
13.42
12.82
11.97
10.93
9.71
8.34
6.84
5.25
3.65
2.13
0.77
-0.38
-1.35
-2.22
-3.08
-4.02
-5.09
-6.29
-7.59
-8.95
-10.32
-11.66
-12.98
-14.3
-15.72
-17.37
-19.38
-21.8
-24.48
-27.02
-28.84
-29.3
-27.96
-24.76
-20.03
-14.45
-8.79
-3.7
0.47
3.64
5.94
7.52
8.55
9.16
9.46
9.6
9.69
9.8
9.92
10.02
10.11
10.2
10.31
10.45
10.6
10.69
10.72
10.68
10.57
10.38
9.99
9.28
8.13
6.53
4.58
2.5
0.48
-1.35
-2.94
-4.31
-5.51
-6.61
-7.68
-8.77
-9.84
-10.79
-11.41
-11.49
-10.89
-9.66
-8.04
-6.38
-4.99
-4
-3.36
-2.86
-2.35
-1.79
-1.37
-1.32
-1.95
-3.4
-5.68
-8.63
-11.85
-14.79
-16.85
-17.45
-16.29
-13.41
-9.26
-4.5
0.18
4.27
7.58
10.16
12.17
13.77
15.03
15.95
16.51
16.74
16.76
16.67
16.61
16.69
16.96
17.48
18.23
19.13
20
20.65
20.9
20.69
20.1
19.27
18.34
17.35
16.27
15.03
13.64
12.18
10.83
9.72
8.92
8.35
7.84
7.23
6.38
5.25
3.87
2.35
0.84
-0.53
-1.69
-2.7
-3.7
-4.86
-6.24
-7.81
-9.44
-11.02
-12.52
-13.99
-15.54
-17.24
-19.09
-21.02
-23.03
-25.15
-27.43
-29.76
-31.79
-32.96
-32.65
-30.42
-26.27
-20.69
-14.5
-8.54
-3.47
0.42
3.19
5.1
6.44
7.44
8.22
8.84
9.32
9.7
10.03
10.39
10.84
11.39
12
12.61
13.13
13.54
13.83
14.09
14.33
14.47
14.33
13.66
12.31
10.27
7.76
5.11
2.63
0.52
-1.25
-2.85
-4.51
-6.39
-8.54
-10.86
-13.25
-15.6
-17.88
-20.08
-22.24
-24.42
-26.68
-29.13
-31.87
-34.95
-38.25
-41.53
-44.4
-46.41
-47.21
-46.56
-44.38
-40.73
-35.85
-30.1
-23.93
-17.84
-12.09
-6.64
-1.02
5.46
13.49
23.46
35.32
48.54
62.3
75.62
87.42
96.66
102.36
103.74
100.45
92.67
81.24
67.39
52.39
37.21
22.28
7.52
-7.26
-22.01
-36.07
-48.25
-57.18
-61.87
-62.23
-59.09
-53.87
-47.74
-41.08
-33.3
-23.32
-10.46
4.95
21.49
37.28
50.83
61.74
70.59
78.32
85.34
91.1
94.3
93.74
89.11
81.37
72.39
64.04
57.4
52.32
47.63
41.83
33.71
22.83
9.58
-5.01
-19.58
-32.77
-43.49
-51.15
-55.74
-57.76
-58.03
-57.37
-56.32
-54.97
-52.88
-49.3
-43.5
-35.11
-24.26
-11.55
2.1
15.64
28.1
38.61
46.42
50.82
51.39
48.34
42.78
36.5
31.33
28.38
27.6
27.88
27.44
24.92
20.25
14.88
11.09
10.62
13.77
19.16
24.24
25.6
20.45
7.86
-10.48
-30.96
-49.67
-63.76
-72.38
-76.54
-79.66
-85.68
-97.25
-114.31
-134.3
-153.32
-166.79
-169.82
-158.23
-131.65
-94.46
-55.16
-23.76
-8.51
-13.83
-38.78
-77.64
-114.14
-132.04
-123.46
-94.25
-57.84
-24.15
3.81
27.58
49.44
70
86.82
96.55
97.54
91.23
82.23
75.12
72.69
75.29
81.21
86.61
87.45
81.44
68.17
51.37
35
21.8
12.61
6.45
0.57
-8.08
-18.88
-32.23
-46.07
-57.67
-65.03
-67.46
-65.84
-62.42
-59.69
-59.56
-63.19
-70.34
-80.07
-90.45
-98.07
-98.4
-87.39
-63.5
-29.18
9.22
44.23
69.88
83.97
88.44
87.6
85.45
83.9
82.6
80.22
76.26
71.61
67.99
66.71
67.89
70.52
73.28
75.04
75.35
74.05
70.82
65
55.97
43.73
29.08
13.56
-1.3
-14.62
-26.41
-37.32
-47.95
-58.7
-68.62
-76.53
-81.36
-82.71
-80.81
-76.61
-71.39
-66.47
-63.14
-62.4
-65.23
-72.17
-82.75
-94.86
-104.82
-108.04
-100.72
-81.58
-52.6
-18.7
14.18
41.26
60.48
72.52
79.66
84.31
87.78
90.36
91.74
92.05
92.24
93.9
98.51
106.6
117.11
127.31
133.8
133.33
124.43
108.23
88.19
68.87
54.2
45.97
43.45
44.34
45.82
46.45
46.76
48.61
53.57
61.66
70.64
76.83
76.64
67.45
48.81
22.22
-9.74
-43.99
-76.55
-102.55
-116.88
-112.42
-87.31
-46.7
-2.49
30.54
40.71
24.15
-14.47
-65.33
-118.58
-168.7
-213.93
-253.48
-284.6
-301.94
-300.03
-276.99
-236.47
-186.43
-136.1
-91.75
-55.19
-24.95
0.86
22.34
37.55
44.47
43.28
36.96
30.77
29.65
35.76
47.14
58.34
62.52
53.96
29.64
-10.19
-62.07
-120.1
-176.99
-225.58
-260.65
-280.38
-286.89
-285.1
-280.48
-276.36
-272.63
-266.27
-253.53
-232.21
-202.86
-168.19
-131.25
-93.81
-55.67
-15.23
29.26
78.41
130.94
183.47
231.19
269.01
293.1
302.38
298.94
287.44
273.3
260.57
250.6
242.1
232.47
219.63
203.15
184.17
164.26
144.35
124.39
104.13
84.32
67.37
56.86
56.08
66.13
84.81
106.99
126.31
137.41
137.7
127.87
111.08
91.53
73.14
58.76
49.91
46.86
48.65
53.34
58.32
61
59.45
53.05
42.72
30.58
19.3
11.12
6.98
6.29
7.26
8.05
8.15
9.02
13.71
25.23
44.47
68.82
92.39
107.83
108.87
92.73
61.28
20.9
-18.91
-48.08
-58.57
-46.65
-13.85
33.82
88.04
140.97
187.14
223.97
250.7
266.89
271.64
264.06
244.43
214.9
179.37
141.94
105.3
69.67
32.95
-8.45
-58.17
-118.41
-188.35
-263.26
-334.67
-392.05
-425.57
-429.1
-402.13
-350.03
-282.27
-209.88
-142.82
-88.26
-49.98
-28.67
-22.75
-29.17
-44.2
-63.85
-84.05
-100.7
-109.9
-108.51
-95.1
-70.95
-39.98
-7.76
20.33
40.7
52.26
55.97
53.87
48.13
40.54
32.55
25.24
19.3
14.88
11.69
9.36
7.71
6.86
6.77
6.99
6.62
4.91
1.91
-1.23
-2.71
-0.92
4.71
13.4
23.13
31.14
34.19
28.49
9.98
-24.76
-76.57
-141.84
-211.74
-273.69
-314.73
-325.59
-303.66
-253.92
-187.54
-118.8
-61.31
-24.69
-12.53
-22.11
-45.78
-73.69
-96.87
-109.58
-110.28
-100.86
-84.9
-65.73
-45.29
-24.37
-3.19
17.79
37.76
55.71
70.81
82.5
90.32
93.75
92.12
84.89
72.37
56.16
39.16
24.75
15.77
13.55
17.86
26.96
38.42
49.92
59.92
67.73
73.37
77.36
80.29
82.87
85.03
85.57
82.36
73.31
57.54
36.21
12.62
-8.64
-22.47
-25.49
-17.17
0.06
22
44.22
63.28
77.68
87.8
96.32
106.09
118.46
132.19
143.81
148.87
143.56
126.5
93.74
46.99
-7.03
-59.24
-102.68
-134.47
-154.37
-164.1
-164.51
-156.19
-139.9
-117.78
-92.71
-67.08
-42.63
-20.49
-1.87
11.41
16.98
13.92
3.34
-11.29
-25.13
-33.36
-32.83
-23.17
-6.72
12.06
28.75
39.98
44.18
41.63
34.08
24.06
14.05
6.03
1.28
0.67
4.39
11.79
21.31
30.89
38.61
43.35
45.19
45.09
44.48
44.49
45.55
47.39
49.41
51.09
52.18
52.71
52.8
52.5
51.78
50.59
48.8
46.29
42.89
38.44
32.86
26.21
18.77
11.01
3.48
-3.32
-9.06
-13.54
-16.73
-18.66
-19.43
-19.17
-18.06
-16.19
-13.58
-10.19
-6.07
-1.49
3.08
7.11
10.29
12.67
14.53
16.06
17.03
16.68
14.01
8.31
-0.31
-10.78
-21.37
-30.43
-37.05
-41.42
-44.59
-47.73
-51.36
-54.94
-56.93
-55.48
-49.18
-37.6
-21.36
-1.89
19.03
39.52
57.78
72.2
81.61
85.56
84.43
79.26
71.17
60.86
48.47
33.87
17.33
-0.16
-17.08
-32.06
-44.56
-55.06
-64.58
-73.87
-82.85
-90.59
-95.9
-98.15
-97.59
-95.18
-91.89
-88.1
-83.43
-77.21
-69.12
-59.69
-50.2
-42.04
-36.02
-31.96
-28.75
-24.99
-19.69
-12.64
-4.47
3.83
11.41
17.86
23.26
27.85
31.76
34.88
36.99
38.04
38.26
38.14
38.19
38.61
39.15
39.27
38.41
36.44
33.76
31.21
29.67
29.6
30.85
32.71
34.27
34.87
34.4
33.39
32.66
32.95
34.39
36.37
37.71
37
33.22
26.08
16.23
4.99
-6
-15.28
-21.98
-25.97
-27.82
-28.41
-28.65
-29.05
-29.74
-30.52
-31.05
-31.11
-30.67
-29.86
-28.87
-27.92
-27.2
-26.94
-27.39
-28.74
-31.03
-34.05
-37.37
-40.43
-42.76
-44.11
-44.61
-44.67
-44.85
-45.55
-46.8
-48.14
-48.75
-47.75
-44.47
-38.74
-30.94
-21.84
-12.45
-3.66
3.89
9.98
14.69
18.32
21.23
23.62
25.51
26.83
27.54
27.71
27.53
27.15
26.58
25.67
24.18
22.08
19.59
17.21
15.45
14.54
14.21
13.76
12.37
9.45
4.99
-0.46
-5.97
-10.52
-13.39
-14.3
-13.5
-11.77
-10.23
-10.13
-12.43
-17.35
-24.1
-30.84
-35.31
-35.54
-30.67
-21.21
-8.82
4.39
16.64
26.86
34.71
40.26
43.65
44.94
44.2
41.77
38.27
34.6
31.62
29.85
29.33
29.58
29.88
29.58
28.36
26.35
24
21.82
20.13
18.84
17.57
15.88
13.49
10.47
7.17
4.02
1.26
-1.16
-3.45
-5.88
-8.58
-11.58
-14.86
-18.39
-22.11
-25.75
-28.73
-30.22
-29.41
-25.88
-19.85
-12.13
-3.83
4.01
10.66
15.78
19.3
21.27
21.84
21.23
19.82
18.07
16.43
15.19
14.45
14.07
13.83
13.5
12.96
12.23
11.41
10.66
10.09
9.71
9.39
8.88
7.9
6.24
3.85
0.9
-2.29
-5.35
-8
-10.17
-11.99
-13.75
-15.82
-18.46
-21.78
-25.54
-29.19
-31.9
-32.79
-31.2
-26.95
-20.41
-12.43
-4.04
3.75
10.23
15.02
18.07
19.53
19.73
19.06
17.92
16.67
15.48
14.38
13.27
12
10.51
8.86
7.2
5.76
4.73
4.13
3.84
3.56
2.99
1.94
0.39
-1.5
-3.52
-5.52
-7.5
-9.56
-11.89
-14.63
-17.85
-21.49
-25.3
-28.78
-31.26
-32
-30.36
-26.06
-19.3
-10.8
-1.62
7.1
14.45
19.93
23.53
25.55
26.42
26.47
25.85
24.6
22.71
20.28
17.58
14.9
12.5
10.51
8.96
7.87
7.28
7.18
7.47
7.82
7.78
6.91
5.04
2.34
-0.74
-3.69
-6.22
-8.35
-10.42
-12.88
-16.05
-19.96
-24.28
-28.32
-31.23
-32.19
-30.67
-26.59
-20.4
-12.9
-5.03
2.39
8.81
14.02
17.98
20.78
22.53
23.34
23.34
22.62
21.32
19.58
17.66
15.93
14.8
14.59
15.32
16.73
18.34
19.68
20.52
20.91
21.11
21.35
21.64
21.76
21.39
20.38
18.82
17.04
15.36
13.83
12.31
10.6
8.85
7.64
7.76
9.65
13.11
17.41
21.94
27
33.97
44.74
60.61
81.17
104.02
125.59
142.42
152.31
154.82
150.78
141.49
128.18
111.91
93.81
75.2
57.47
41.59
27.86
15.91
5
-5.55
-16.02
-26.31
-36.04
-44.68
-51.8
-57.25
-61.3
-64.71
-68.48
-73.43
-79.72
-86.57
-92.6
-96.4
-97.24
-95.42
-92.05
-88.46
-85.56
-83.57
-82.14
-80.76
-79.14
-77.3
-75.36
-73.25
-70.57
-66.56
-60.51
-52.1
-41.77
-30.7
-20.43
-12.3
-6.93
-4.02
-2.65
-1.79
-0.88
-0.05
0.1
-1.09
-3.8
-7.6
-11.6
-14.85
-16.79
-17.5
-17.58
-17.96
-19.5
-22.72
-27.61
-33.74
-40.44
-47.09
-53.3
-58.88
-63.69
-67.43
-69.55
-69.4
-66.5
-60.79
-52.69
-42.86
-31.92
-20.18
-7.74
5.36
18.8
31.9
43.77
53.57
60.74
65.1
66.73
65.85
62.75
57.89
52
46.03
40.87
36.95
33.9
30.65
25.97
19.12
10.41
1.16
-6.88
-12.37
-15.09
-15.93
-16.48
-18.15
-21.61
-26.65
-32.61
-38.99
-45.79
-53.42
-62.13
-71.51
-80.26
-86.52
-88.59
-85.64
-78.05
-67.24
-55.03
-42.9
-31.53
-20.85
-10.37
0.26
10.84
20.73
29.05
35.17
38.95
40.8
41.47
41.68
41.96
42.52
43.3
44.08
44.67
44.94
44.87
44.47
43.72
42.53
40.71
38.14
34.78
30.82
26.57
22.42
18.63
15.28
12.27
9.41
6.47
3.3
-0.21
-4.09
-8.25
-12.39
-16.03
-18.52
-19.25
-17.85
-14.32
-9.08
-2.8
3.74
9.86
15.14
19.34
22.39
24.37
25.39
25.65
25.36
24.72
23.88
22.86
21.62
20.1
18.31
16.41
14.64
13.21
12.24
11.62
11.1
10.37
9.2
7.59
5.69
3.77
2.04
0.57
-0.71
-1.94
-3.21
-4.57
-6.05
-7.72
-9.75
-12.22
-15.01
-17.68
-19.48
-19.68
-17.78
-13.86
-8.45
-2.36
3.62
8.97
13.41
16.86
19.31
20.77
21.3
21.06
20.26
19.14
17.87
16.6
15.42
14.44
13.67
13.07
12.5
11.8
10.86
9.69
8.39
7.06
5.76
4.42
2.96
1.3
-0.54
-2.47
-4.38
-6.27
-8.22
-10.42
-13.04
-16.18
-19.74
-23.37
-26.52
-28.51
-28.75
-26.84
-22.77
-16.88
-9.82
-2.39
4.64
10.68
15.43
18.84
21.05
22.28
22.71
22.47
21.65
20.37
18.8
17.15
15.61
14.25
13.03
11.9
10.83
9.88
9.18
8.8
8.68
8.59
8.18
7.13
5.35
3.01
0.5
-1.78
-3.6
-5.01
-6.29
-7.84
-9.96
-12.76
-16.15
-19.83
-23.37
-26.21
-27.71
-27.27
-24.53
-19.6
-13.05
-5.85
0.98
6.64
10.83
13.69
15.55
16.69
17.25
17.21
16.56
15.35
13.7
11.9
10.2
8.84
7.9
7.41
7.32
7.56
7.97
8.35
8.58
8.54
8.06
6.99
5.31
3.17
0.89
-1.24
-3.13
-4.67
-6
-7.56
-9.78
-12.8
-16.25
-19.41
-21.79
-23.51
-24.55
-25.22
-25.95
-27.06
-28.41
-29.32
-28.87
-26.37
-21.54
-13.23
-1.03
13.77
27.74
36.35
36.17
27.07
12.93
0.7
-0.53
15.69
50.39
98.78
152.58
203.75
247.06
280.63
293.78
279.48
237.12
174.65
105.23
40.86
-11.41
-49.45
-74.64
-90.12
-97.84
-99.56
-97.07
-92.47
-87.73
-83.86
-80.78
-77.95
-75.07
-71.2
-66.09
-60.16
-54.28
-49.06
-44.45
-39.59
-34.51
-29.8
-25.64
-22.12
-19.08
-16.26
-13.46
-10.69
-8.1
-6.04
-4.69
-3.52
-1.93
0.48
3.56
6.68
9.09
10.4
10.77
10.79
11.26
12.57
14.51
16.32
17.46
17.21
15.27
11.85
7.77
4.3
2.4
2.5
4.32
6.79
8.06
6.4
0.95
-7.68
-17.25
-25.5
-30.63
-31.86
-29.76
-26.55
-24.81
-26.24
-30.84
-36
-39.27
-38.53
-32.46
-21.46
-8.35
3.11
9.54
9.39
4.41
-3.82
-13.47
-22.31
-28.77
-33.11
-36.84
-42.28
-51.68
-65.15
-84.16
-109.48
-139.78
-163.56
-169.88
-153.93
-121.04
-93.98
-80.56
-83.62
-103.52
-132.88
-163.79
-187.61
-196.26
-185.01
-154.78
-111
-65.37
-29.81
-11.32
-10.88
-24.99
-48.19
-75.21
-101.46
-121.25
-130.46
-125.74
-105.19
-70.19
-25.55
22.23
67.34
106.93
142.16
174.87
206.36
236.8
264.49
286.76
301.26
306.83
304.11
295.7
284.48
273.16
263.91
257.73
254.41
252.65
250.52
246.06
237.94
225.39
208.21
186.6
160.93
131.88
100.55
68.48
37.15
7.21
-21.94
-51.69
-82.97
-114.72
-143.28
-163.56
-171.3
-165.58
-149.75
-130.11
-113.03
-102.21
-97.73
-97.31
-98.73
-101.57
-107.4
-118.26
-134.84
-155.43
-176.5
-194.25
-206.12
-211.13
-209.07
-199.5
-181.45
-154.4
-119.79
-82.12
-48.28
-25.59
-19.15
-29.9
-54.38
-86.32
-119.16
-148.29
-171.74
-189.16
-200.23
-203.46
-196.34
-176.73
-144.32
-101.25
-51.43
1.04
53.12
103.17
150.15
192.61
228.25
254.6
269.96
274.3
268.98
256.02
237.29
214.28
188.57
162.03
137.01
115.84
100.28
91.12
88.12
90.1
95.09
100.49
103.54
102.19
95.94
86.18
75.68
67.4
63.2
63.14
65.79
69.17
71.7
72.66
71.94
69.52
65.12
58.32
48.9
37.26
24.32
11.21
-1.3
-13.09
-24.49
-35.87
-47.25
-58.33
-68.76
-78.64
-88.53
-99.1
-110.53
-122.18
-132.59
-139.95
-142.61
-139.52
-130.39
-115.72
-96.8
-75.59
-54.4
-35.2
-18.74
-4.14
10.88
28.8
50.7
75.11
97.87
113.15
115.24
100.49
68.67
23.15
-29.99
-83.48
-130.47
-165.75
-186.49
-192.37
-185.37
-169.16
-148.15
-126.54
-107.3
-91.68
-79.13
-67.75
-55.19
-39.53
-19.86
3.43
28.84
53.96
76.02
92.44
101.56
103.23
98.96
91.42
83.53
77.56
74.56
74.37
76.11
78.9
82.27
86.14
90.52
95.09
99.03
101.14
100.26
95.63
87.09
75.03
60.19
43.44
25.67
7.81
-9.27
-24.76
-38.04
-48.61
-56.06
-59.98
-60.03
-56.29
-49.53
-41.34
-33.66
-27.99
-24.77
-23.25
-22.18
-20.77
-19.34
-19.13
-21.73
-28.21
-38.71
-52.66
-69.03
-86.37
-102.67
-115.14
-120.47
-115.69
-99.68
-74.1
-43.75
-15.39
4.27
11.22
5.91
-6.71
-19.2
-25.17
-22.29
-13.42
-4.74
-2.18
-8
-19.64
-31.53
-38.48
-38.51
-33.47
-27.23
-22.82
-20.71
-18.96
-14.96
-7.55
2.11
11.21
16.95
17.87
14.61
9.34
4.69
2.63
3.85
7.9
13.92
21.43
30.69
42.48
57.22
74.11
90.77
103.85
110.38
109.04
100.79
88.31
74.81
62.68
52.8
44.57
36.4
26.21
11.76
-8.93
-36.94
-71.69
-110.39
-148.3
-179.94
-200.74
-208.42
-203.37
-187.99
-165.45
-138.58
-109.61
-80.39
-52.9
-29.43
-12.19
-2.64
-0.81
-4.97
-11.86
-17.47
-18.17
-11.72
2.07
21.49
43.7
65.77
85.54
101.97
114.76
123.75
128.46
128.15
122.38
111.64
97.58
82.71
69.49
59.52
52.97
48.75
45.07
40.23
33.17
23.61
11.94
-1.2
-15.16
-29.41
-43.45
-56.73
-68.56
-78.32
-85.54
-90.12
-92.26
-92.29
-90.42
-86.58
-80.52
-72.02
-61.18
-48.57
-35.11
-21.87
-9.74
0.77
9.44
16.27
21.28
24.47
25.89
25.75
24.55
23
21.91
21.89
23.13
25.28
27.51
28.76
28.14
25.27
20.41
14.29
7.82
1.69
-3.87
-9.05
-14.24
-19.92
-26.73
-35.5
-47.17
-62.34
-80.51
-99.68
-116.48
-127.17
-129.07
-121.68
-106.81
-87.74
-67.89
-49.88
-35.46
-26.02
-23.06
-27.88
-40.78
-60.11
-82.25
-102.75
-117.94
-126.24
-128.36
-126.43
-122.66
-118.2
-112.88
-105.49
-94.42
-78.27
-56.36
-29.02
2.24
35
66.52
94.6
118.17
137.42
153.25
166.52
177.57
186.18
192.03
195.24
196.48
196.65
196.44
195.99
194.88
192.53
188.58
183.19
176.99
170.72
164.94
159.76
154.83
149.59
143.52
136.41
128.4
119.97
111.73
104.2
97.62
91.96
86.95
82.26
77.71
73.33
69.35
66
63.41
61.57
60.33
59.45
58.75
57.97
56.87
55.2
52.84
49.94
46.98
44.63
43.52
43.95
45.78
48.41
50.93
52.47
52.37
50.51
47.33
43.8
41.13
40.24
41.3
43.32
44.27
41.49
32.45
15.58
-9.18
-40.16
-74.17
-107.28
-135.81
-157.23
-170.72
-177.16
-178.58
-177.47
-176.07
-175.93
-177.76
-181.3
-185.48
-188.53
-188.36
-182.82
-170.28
-150.01
-122.61
-90.16
-55.92
-23.68
3.19
22.74
34.85
41.16
44.19
46.34
48.96
52.09
54.79
55.78
54.05
49.27
41.83
32.6
22.64
12.85
3.64
-5.09
-13.74
-22.74
-32.28
-42.13
-51.55
-59.41
-64.53
-65.94
-63.28
-56.91
-47.97
-38.13
-28.97
-21.43
-15.37
-9.73
-3.07
5.55
16.02
26.63
34.66
37.6
34.43
26.4
16.36
7.34
0.91
-3.37
-7.67
-14.18
-23.24
-32.61
-38.58
-38.41
-32.09
-22.6
-13.6
-8.01
-6.26
-5.92
-2.93
6.33
22.78
44.37
67.1
88.16
105.8
119.75
130.97
141.02
151.34
162.14
172.52
180.86
186.8
189.25
186.19
175.32
155.38
127.1
92.43
54.1
7.04
-46.77
-100.74
-147.85
-184.67
-213.17
-233.34
-243.67
-240.01
-220.94
-187.05
-142.96
-96.13
-54.23
-22.36
-1.12
12.55
24.11
39.04
62
93.68
130.51
166.33
194.93
212.29
216.61
208.17
188.26
159.72
125.71
89.82
56.07
28.72
11.23
4.69
7.33
14.88
22.25
24.51
18.01
1.18
-25.24
-58.55
-94.98
-130.27
-160.31
-181.3
-190.74
-188.21
-176.05
-159.18
-143.99
-136.39
-139.7
-153.41
-173.38
-193.63
-208.71
-215.69
-214.64
-207.89
-198.27
-187.72
-176.82
-165.05
-151.72
-136.86
-121.35
-106.48
-93.26
-81.76
-71.14
-60.14
-47.88
-34.49
-21
-8.85
0.92
8.26
14
19.41
25.37
31.97
38.38
43.37
45.96
45.97
44.25
42.3
41.69
43.49
47.83
53.99
60.73
66.81
71.39
74.17
75.3
75.18
74.22
72.71
70.78
68.46
65.72
62.63
59.34
56.06
53.08
50.57
48.56
46.9
45.4
43.86
42.21
40.5
38.79
37.15
35.53
33.83
31.92
29.72
27.21
24.41
21.43
18.33
15.17
11.96
8.64
5.17
1.58
-2.01
-5.36
-8.22
-10.42
-12.01
-13.23
-14.47
-16.1
-18.43
-21.59
-25.47
-29.72
-33.67
-36.47
-37.27
-35.49
-31.06
-24.46
-16.57
-8.45
-0.95
5.4
10.41
14.16
16.81
18.57
19.64
20.19
20.41
20.45
20.46
20.56
20.82
21.3
22.03
23.01
24.17
25.44
26.65
27.62
28.17
28.15
27.48
26.22
24.48
22.47
20.33
18.2
16.09
13.98
11.78
9.44
6.93
4.24
1.41
-1.51
-4.46
-7.36
-10.13
-12.67
-14.92
-16.85
-18.5
-19.97
-21.44
-23.13
-25.33
-28.23
-31.91
-36.16
-40.4
-43.75
-45.22
-43.98
-39.65
-32.51
-23.44
-13.68
-4.4
3.57
9.99
15.07
19.21
22.7
25.53
27.47
28.28
28
26.97
25.78
24.97
24.81
25.2
25.82
26.29
26.43
26.28
26.06
25.96
25.92
25.69
24.88
23.2
20.67
17.58
14.44
11.69
9.57
8.03
6.77
5.5
4.01
2.23
0.23
-1.9
-4.07
-6.24
-8.34
-10.3
-12.12
-13.86
-15.72
-17.97
-20.86
-24.45
-28.51
-32.43
-35.32
-36.32
-34.83
-30.75
-24.58
-17.17
-9.49
-2.31
3.99
9.32
13.79
17.48
20.38
22.36
23.33
23.28
22.33
20.73
18.79
16.84
15.18
14.04
13.54
13.69
14.33
15.19
15.93
16.25
15.94
14.97
13.42
11.47
9.3
7.03
4.71
2.35
-0.01
-2.31
-4.41
-6.24
-7.79
-9.18
-10.67
-12.51
-14.89
-17.83
-21.1
-24.23
-26.61
-27.62
-26.82
-24.08
-19.58
-13.81
-7.4
-0.98
4.91
9.94
13.91
16.74
18.38
18.8
18.06
16.34
14.01
11.59
9.66
8.64
8.65
9.48
10.68
11.77
12.41
12.52
12.19
11.63
10.96
10.2
9.24
7.95
6.25
4.12
1.61
-1.15
-3.98
-6.7
-9.11
-11.11
-12.69
-14.01
-15.31
-16.89
-19.01
-21.78
-25.08
-28.5
-31.37
-32.88
-32.34
-29.43
-24.32
-17.62
-10.23
-3.02
3.41
8.79
13.07
16.3
18.52
19.78
20.18
19.9
19.22
18.42
17.68
17.11
16.72
16.51
16.51
16.78
17.31
18.01
18.68
19.05
18.85
17.94
16.28
14.03
11.43
8.75
6.18
3.81
1.56
-0.69
-3.05
-5.55
-8.16
-10.77
-13.3
-15.68
-17.93
-20.13
-22.39
-24.87
-27.68
-30.8
-33.96
-36.55
-37.78
-36.8
-33.14
-26.86
-18.67
-9.72
-1.24
5.81
10.99
14.43
16.6
18.06
19.18
20.09
20.7
20.85
20.52
19.91
19.35
19.16
19.52
20.33
21.31
22.15
22.63
22.74
22.59
22.33
21.97
21.42
20.54
19.23
17.51
15.46
13.22
10.84
8.35
5.79
3.24
0.86
-1.23
-2.98
-4.51
-5.99
-7.61
-9.47
-11.58
-13.85
-16.17
-18.41
-20.47
-22.34
-24.08
-25.92
-28.15
-30.98
-34.35
-37.81
-40.54
-41.52
-39.97
-35.59
-28.72
-20.28
-11.43
-3.19
3.75
9.18
13.19
16.09
18.19
19.7
20.77
21.49
21.94
22.18
22.34
22.47
22.64
22.84
23.03
23.16
23.17
23.08
22.93
22.76
22.52
22.12
21.41
20.27
18.69
16.76
14.67
12.56
10.57
8.73
7.05
5.48
3.98
2.52
1.09
-0.29
-1.57
-2.69
-3.69
-4.65
-5.71
-6.96
-8.42
-9.99
-11.56
-13.1
-14.68
-16.49
-18.63
-21.07
-23.6
-25.96
-28.01
-29.85
-31.79
-34.18
-37.31
-41.16
-45.45
-49.65
-53.07
-55.08
-55.15
-53.03
-48.78
-42.85
-35.96
-28.87
-22.17
-15.96
-9.85
-3.2
4.57
13.73
24.05
35.02
46.01
56.49
66
74.09
80.28
84.08
85.2
83.65
79.82
74.35
67.88
60.99
54.08
47.48
41.46
36.17
31.63
27.67
24.03
20.45
16.82
13.14
9.52
6.07
2.86
-0.02
-2.49
-4.42
-5.73
-6.4
-6.61
-6.65
-6.88
-7.59
-8.9
-10.73
-12.87
-15.09
-17.25
-19.33
-21.37
-23.4
-25.38
-27.13
-28.51
-29.49
-30.21
-30.92
-31.91
-33.31
-35.13
-37.33
-39.84
-42.64
-45.65
-48.51
-50.63
-51.24
-49.65
-45.67
-39.66
-32.56
-25.58
-19.76
-15.76
-13.68
-13.15
-13.56
-14.34
-15.11
-15.79
-16.54
-17.64
-19.37
-21.78
-24.72
-27.82
-30.6
-32.63
-33.69
-33.87
-33.56
-33.38
-34.01
-35.97
-39.5
-44.29
-49.25
-52.49
-51.68
-44.74
-30.68
-10.19
14.41
39.8
62.73
80.88
93.24
99.94
101.72
99.38
93.49
84.55
73.26
60.74
48.59
38.55
32.1
30.07
32.35
38.09
45.97
54.7
63.35
71.36
78.33
83.82
87.31
88.38
86.99
83.6
79.05
74.18
69.58
65.39
61.47
57.6
53.7
49.83
46.1
42.54
38.96
35.15
30.96
26.5
22.15
18.42
15.71
14.07
13.18
12.45
11.26
9.23
6.36
3.01
-0.31
-3.18
-5.39
-7
-8.22
-9.32
-10.57
-12.22
-14.5
-17.44
-20.8
-24
-26.25
-26.82
-25.44
-22.41
-18.58
-14.98
-12.5
-11.52
-11.9
-13.16
-14.76
-16.29
-17.54
-18.43
-18.93
-19.01
-18.71
-18.22
-17.93
-18.29
-19.69
-22.24
-25.83
-30.14
-34.84
-39.66
-44.34
-48.62
-52.07
-54.28
-54.93
-54
-51.77
-48.77
-45.58
-42.64
-40.27
-38.6
-37.72
-37.62
-38.14
-39.07
-40.06
-40.82
-41.15
-41.04
-40.61
-40.06
-39.55
-39.14
-38.79
-38.38
-37.78
-36.93
-35.86
-34.72
-33.73
-33.07
-32.84
-32.96
-33.21
-33.23
-32.63
-31.11
-28.46
-24.75
-20.22
-15.32
-10.58
-6.45
-3.21
-0.86
0.77
1.92
2.74
3.23
3.32
2.94
2.15
1.18
0.31
-0.2
-0.25
0.11
0.74
1.45
2.17
2.84
3.45
3.99
4.46
4.87
5.31
5.87
6.61
7.51
8.5
9.47
10.35
11.18
12
12.84
13.69
14.45
14.97
15.17
14.98
14.32
13.13
11.33
9
6.38
3.88
1.92
0.67
-0.01
-0.55
-1.41
-2.8
-4.52
-6.02
-6.61
-5.74
-3.16
1.01
6.37
12.35
18.2
23.14
26.42
27.61
26.84
24.84
22.79
21.81
22.55
24.96
28.38
31.99
35.18
37.79
40.08
42.43
45.06
47.83
50.25
51.59
51.09
48.16
42.56
34.52
24.7
14.05
3.51
-6.23
-14.84
-22.33
-28.84
-34.57
-39.75
-44.7
-49.89
-55.78
-62.67
-70.46
-78.69
-86.6
-93.47
-98.86
-102.65
-105.14
-106.78
-108.07
-109.39
-110.94
-112.65
-114.22
-115.21
-115.13
-113.64
-110.6
-106.14
-100.46
-93.8
-86.4
-78.54
-70.63
-63.21
-56.85
-51.87
-48.15
-45.03
-41.45
-36.27
-28.7
-18.52
-6.19
7.31
20.74
32.87
42.79
50.06
54.76
57.51
59.27
61.1
63.81
67.69
72.43
77.21
80.95
82.68
81.76
78.05
71.87
63.89
54.9
45.64
36.71
28.47
21.08
14.54
8.72
3.39
-1.73
-6.92
-12.42
-18.38
-24.69
-30.98
-36.58
-40.59
-42.11
-40.51
-35.64
-27.98
-18.47
-8.29
1.53
10.31
17.83
24.16
29.47
33.83
37.23
39.6
41.04
41.8
42.31
42.95
43.9
45.06
46.11
46.75
46.83
46.45
45.85
45.32
44.95
44.67
44.22
43.35
41.94
39.99
37.66
35.14
32.56
29.97
27.35
24.7
22.05
19.53
17.24
15.24
13.45
11.67
9.67
7.33
4.67
1.82
-0.98
-3.63
-6.12
-8.6
-11.29
-14.36
-17.93
-21.95
-26.2
-30.24
-33.47
-35.14
-34.63
-31.53
-25.9
-18.19
-9.28
-0.18
8.17
15.14
20.49
24.38
27.15
29.21
30.78
31.95
32.63
32.79
32.53
32.1
31.82
31.87
32.24
32.74
33.13
33.25
33.13
32.92
32.7
32.42
31.8
30.54
28.48
25.74
22.7
19.87
17.61
16.05
15.02
14.2
13.28
12.03
10.42
8.52
6.5
4.57
2.92
1.63
0.68
-0.15
-1.11
-2.44
-4.22
-6.34
-8.55
-10.63
-12.47
-14.16
-15.86
-17.8
-20.13
-22.92
-26.13
-29.59
-32.93
-35.59
-36.83
-35.97
-32.63
-26.94
-19.6
-11.66
-4.14
2.26
7.3
11.15
14.15
16.54
18.39
19.66
20.27
20.27
19.82
19.19
18.63
18.3
18.24
18.4
18.67
18.98
19.29
19.61
19.91
20.12
20.08
19.61
18.57
16.99
15.01
12.88
10.85
9.09
7.6
6.34
5.14
3.9
2.54
1
-0.67
-2.44
-4.19
-5.86
-7.38
-8.73
-9.97
-11.18
-12.48
-14.03
-15.97
-18.34
-21.04
-23.74
-25.92
-26.97
-26.39
-23.99
-19.92
-14.67
-8.88
-3.2
1.88
6.07
9.26
11.46
12.8
13.47
13.64
13.49
13.15
12.7
12.21
11.73
11.37
11.19
11.26
11.57
12.04
12.49
12.75
12.68
12.2
11.36
10.21
8.85
7.37
5.85
4.4
3.17
2.27
1.75
1.53
1.39
1.08
0.36
-0.78
-2.26
-3.86
-5.4
-6.84
-8.22
-9.7
-11.35
-13.18
-15.07
-16.9
-18.56
-20
-21.2
-22.03
-22.28
-21.63
-19.79
-16.64
-12.36
-7.4
-2.34
2.25
5.97
8.64
10.31
11.08
11.13
10.64
9.76
8.69
7.62
6.77
6.3
6.25
6.55
7
7.34
7.41
7.18
6.74
6.25
5.8
5.4
4.93
4.31
3.54
2.7
1.93
1.31
0.81
0.29
-0.39
-1.29
-2.39
-3.58
-4.76
-5.89
-7
-8.14
-9.34
-10.6
-11.85
-13.02
-14.04
-14.86
-15.48
-15.99
-16.51
-17.27
-18.46
-20.21
-22.45
-24.89
-26.97
-28.04
-27.51
-25.03
-20.68
-14.88
-8.35
-1.87
3.91
8.58
12
14.24
15.53
16.12
16.23
15.99
15.42
14.58
13.52
12.4
11.43
10.83
10.68
10.91
11.31
11.66
11.81
11.75
11.58
11.41
11.3
11.18
10.89
10.3
9.34
8.08
6.64
5.23
4
3.02
2.25
1.57
0.84
-0.09
-1.26
-2.66
-4.14
-5.55
-6.72
-7.54
-8.06
-8.42
-8.84
-9.53
-10.58
-11.94
-13.42
-14.85
-16.06
-17.04
-17.88
-18.77
-19.84
-21.25
-23.03
-25.13
-27.35
-29.34
-30.57
-30.44
-28.48
-24.52
-18.82
-12.03
-5.03
1.35
6.54
10.25
12.54
13.66
13.93
13.69
13.21
12.69
12.23
11.85
11.56
11.34
11.19
11.13
11.17
11.3
11.5
11.74
11.99
12.24
12.44
12.52
12.4
11.99
11.28
10.3
9.15
7.94
6.76
5.66
4.68
3.81
3.04
2.33
1.65
0.98
0.3
-0.37
-1.03
-1.68
-2.37
-3.16
-4.12
-5.24
-6.44
-7.57
-8.54
-9.35
-10.11
-10.98
-12.06
-13.33
-14.66
-15.91
-17.02
-18.03
-19.12
-20.48
-22.22
-24.28
-26.4
-28.1
-28.84
-28.09
-25.57
-21.31
-15.72
-9.44
-3.19
2.4
6.92
10.18
12.18
13.04
12.97
12.25
11.18
10.04
9.04
8.3
7.85
7.66
7.66
7.76
7.91
8.09
8.34
8.71
9.23
9.86
10.47
10.92
11.07
10.86
10.3
9.5
8.56
7.61
6.72
5.92
5.18
4.45
3.66
2.8
1.89
0.97
0.08
-0.77
-1.62
-2.46
-3.29
-4.09
-4.84
-5.56
-6.31
-7.16
-8.18
-9.39
-10.71
-12.06
-13.35
-14.51
-15.57
-16.59
-17.66
-18.84
-20.19
-21.72
-23.45
-25.24
-26.8
-27.66
-27.22
-25
-20.84
-15.07
-8.44
-1.93
3.64
7.79
10.47
11.92
12.53
12.64
12.48
12.18
11.83
11.51
11.25
11.06
10.93
10.83
10.8
10.86
11.05
11.4
11.89
12.44
12.97
13.38
13.53
13.37
12.86
12.05
11.03
9.9
8.74
7.58
6.42
5.3
4.33
3.59
3.12
2.81
2.43
1.74
0.63
-0.8
-2.29
-3.52
-4.32
-4.74
-5.04
-5.53
-6.43
-7.76
-9.33
-10.91
-12.29
-13.4
-14.26
-14.98
-15.69
-16.53
-17.66
-19.21
-21.17
-23.33
-25.2
-26.1
-25.41
-22.81
-18.41
-12.77
-6.69
-0.96
3.89
7.61
10.22
11.87
12.73
12.97
12.75
12.25
11.67
11.15
10.76
10.48
10.26
10.08
9.98
10.06
10.41
11.1
12.07
13.19
14.25
15
15.26
14.93
14.08
12.88
11.59
10.43
9.56
9.04
8.82
8.75
8.67
8.42
7.94
7.22
6.39
5.57
4.91
4.46
4.21
4.06
3.88
3.53
2.82
1.64
-0.05
-2.15
-4.53
-7.08
-9.86
-13.04
-16.8
-21.12
-25.7
-30.01
-33.53
-36
-37.54
-38.52
-39.27
-39.85
-40
-39.27
-37.32
-34.08
-29.76
-24.65
-18.91
-12.51
-5.34
2.62
11.04
19.3
26.56
32.02
35.09
35.55
33.56
29.59
24.35
18.64
13.19
8.48
4.7
1.81
-0.27
-1.51
-1.75
-0.78
1.38
4.42
7.76
10.75
12.96
14.3
14.94
15.15
15.06
14.57
13.48
11.64
9.18
6.52
4.22
2.75
2.16
1.97
1.28
-0.9
-5.2
-11.51
-18.82
-25.44
-29.5
-29.65
-25.5
-17.78
-8.08
1.75
10.19
16.43
20.28
21.96
21.67
19.43
15.05
8.35
-0.66
-11.61
-23.67
-35.55
-45.54
-51.71
-52.3
-46.34
-34.1
-17.3
1.31
18.74
32.62
41.76
46.25
47.07
45.53
42.86
39.82
36.78
33.73
30.43
26.56
21.85
16.21
9.73
2.73
-4.36
-11.02
-16.58
-20.1
-20.49
-16.8
-8.8
2.59
15.21
26.16
32.68
33.13
27.51
17.23
4.53
-8.46
-20.21
-29.78
-36.54
-39.84
-39.07
-34
-25.29
-14.54
-4.02
4.19
8.84
9.92
8.41
5.72
3.04
1
-0.4
-1.48
-2.6
-3.95
-5.51
-7.17
-8.84
-10.43
-11.94
-13.36
-14.63
-15.72
-16.62
-17.43
-18.37
-19.72
-21.75
-24.48
-27.56
-30.26
-31.68
-31.06
-28.06
-22.98
-16.58
-9.88
-3.79
1.12
4.71
7.12
8.62
9.53
10.02
10.25
10.31
10.3
10.29
10.34
10.48
10.73
11.07
11.51
12.06
12.74
13.52
14.38
15.27
16.09
16.74
17.07
16.95
16.31
15.19
13.73
12.2
10.85
9.88
9.34
9.12
9.04
8.93
8.65
8.19
7.62
7.01
6.45
5.99
5.64
5.32
4.96
4.45
3.73
2.79
1.68
0.49
-0.76
-2.07
-3.5
-5.08
-6.78
-8.5
-10.12
-11.56
-12.83
-14.01
-15.2
-16.45
-17.74
-19.04
-20.39
-21.94
-23.89
-26.31
-28.99
-31.37
-32.68
-32.23
-29.65
-25.1
-19.16
-12.67
-6.44
-1.05
3.19
6.21
8.14
9.18
9.64
9.81
9.95
10.21
10.63
11.15
11.68
12.17
12.64
13.14
13.72
14.4
15.13
15.85
16.45
16.84
16.96
16.79
16.39
15.85
15.27
14.69
14.09
13.37
12.48
11.45
10.4
9.55
9.07
9
9.18
9.33
9.22
8.71
7.91
7.02
6.24
5.63
5.09
4.44
3.54
2.42
1.2
0.05
-0.95
-1.87
-2.87
-4.11
-5.61
-7.27
-8.92
-10.37
-11.55
-12.47
-13.24
-14.01
-14.88
-15.98
-17.41
-19.24
-21.48
-23.95
-26.29
-27.94
-28.29
-26.88
-23.58
-18.63
-12.62
-6.35
-0.57
4.21
7.74
10.09
11.47
12.16
12.39
12.34
12.13
11.83
11.5
11.18
10.94
10.8
10.84
11.11
11.65
12.46
13.47
14.56
15.54
16.21
16.44
16.13
15.31
14.11
12.71
11.34
10.2
9.32
8.63
7.91
6.97
5.7
4.17
2.63
1.36
0.52
0.11
-0.09
-0.36
-0.91
-1.83
-3.05
-4.47
-6
-7.61
-9.29
-11
-12.66
-14.23
-15.71
-17.25
-19.02
-21.07
-23.13
-24.66
-24.98
-23.55
-20.22
-15.37
-9.71
-4.07
0.89
4.85
7.74
9.7
10.9
11.5
11.66
11.54
11.3
11.04
10.86
10.77
10.81
11.02
11.42
12.01
12.72
13.45
14.1
14.6
14.93
15.08
14.99
14.58
13.78
12.57
11.06
9.49
8.1
7.08
6.41
5.97
5.48
4.76
3.72
2.44
1.1
-0.12
-1.13
-1.94
-2.63
-3.36
-4.26
-5.44
-6.91
-8.64
-10.52
-12.4
-14.16
-15.76
-17.3
-18.94
-20.87
-23.17
-25.73
-28.16
-29.92
-30.41
-29.14
-25.98
-21.14
-15.18
-8.82
-2.78
2.41
6.44
9.28
11.04
12
12.47
12.7
12.88
13.07
13.22
13.33
13.4
13.56
13.92
14.53
15.31
16.09
16.68
16.98
16.99
16.75
16.32
15.69
14.88
13.96
13.03
12.2
11.55
11.02
10.5
9.86
9.01
8.01
6.97
6.03
5.26
4.66
4.17
3.66
3.07
2.34
1.48
0.53
-0.49
-1.54
-2.64
-3.83
-5.14
-6.61
-8.24
-9.95
-11.67
-13.29
-14.76
-16.06
-17.24
-18.36
-19.56
-20.99
-22.78
-25.01
-27.54
-29.94
-31.57
-31.74
-29.97
-26.16
-20.72
-14.41
-8.13
-2.6
1.74
4.83
6.86
8.14
9.03
9.8
10.59
11.45
12.35
13.21
13.93
14.47
14.81
14.95
14.93
14.83
14.76
14.83
15.13
15.68
16.36
16.98
17.33
17.22
16.59
15.5
14.12
12.65
11.32
10.27
9.53
9.01
8.56
8.03
7.37
6.61
5.88
5.31
4.94
4.71
4.48
4.08
3.41
2.47
1.32
0.09
-1.1
-2.16
-3.02
-3.69
-4.21
-4.73
-5.41
-6.44
-7.9
-9.72
-11.7
-13.55
-15.09
-16.27
-17.27
-18.37
-19.88
-21.94
-24.46
-27.06
-29.16
-30.09
-29.31
-26.58
-22.05
-16.29
-10.08
-4.21
0.75
4.56
7.23
8.96
9.95
10.4
10.47
10.38
10.36
10.58
11.12
11.87
12.68
13.32
13.71
13.86
13.9
13.94
14.05
14.2
14.31
14.31
14.19
13.93
13.54
12.98
12.23
11.29
10.24
9.2
8.27
7.48
6.8
6.18
5.58
5.02
4.55
4.21
3.95
3.67
3.22
2.53
1.64
0.65
-0.27
-1.03
-1.61
-2.07
-2.48
-2.98
-3.64
-4.56
-5.76
-7.28
-9.02
-10.83
-12.49
-13.83
-14.78
-15.43
-15.98
-16.72
-17.89
-19.61
-21.82
-24.22
-26.32
-27.54
-27.35
-25.45
-21.91
-17.12
-11.7
-6.31
-1.44
2.6
5.71
7.93
9.34
10.08
10.32
10.25
10.05
9.87
9.8
9.87
10.1
10.46
10.9
11.32
11.64
11.79
11.78
11.72
11.71
11.81
11.96
12.02
11.82
11.25
10.35
9.26
8.15
7.15
6.31
5.62
5.02
4.5
4.05
3.68
3.4
3.16
2.89
2.53
1.98
1.21
0.27
-0.74
-1.69
-2.47
-3.09
-3.64
-4.31
-5.24
-6.5
-7.96
-9.42
-10.64
-11.52
-12.1
-12.58
-13.2
-14.13
-15.48
-17.24
-19.35
-21.63
-23.79
-25.39
-25.92
-24.97
-22.33
-18.19
-13.07
-7.66
-2.6
1.64
4.93
7.32
8.94
9.92
10.34
10.24
9.78
9.16
8.62
8.37
8.45
8.8
9.24
9.6
9.81
9.91
10.03
10.28
10.68
11.13
11.42
11.4
10.99
10.21
9.18
8.05
7
6.13
5.48
5.01
4.61
4.17
3.6
2.91
2.22
1.67
1.35
1.22
1.18
1.03
0.67
0.09
-0.66
-1.48
-2.32
-3.16
-4
-4.9
-5.86
-6.91
-8.05
-9.24
-10.42
-11.5
-12.44
-13.25
-14.06
-15.05
-16.37
-18.07
-20.03
-21.99
-23.59
-24.4
-24.08
-22.4
-19.36
-15.22
-10.43
-5.52
-1.01
2.75
5.57
7.46
8.56
9.07
9.16
8.97
8.62
8.17
7.72
7.4
7.3
7.5
7.94
8.52
9.06
9.47
9.74
9.93
10.11
10.33
10.52
10.56
10.32
9.71
8.73
7.46
6.08
4.74
3.61
2.72
2.07
1.57
1.12
0.63
0.05
-0.66
-1.5
-2.46
-3.53
-4.69
-5.91
-7.24
-8.7
-10.34
-12.14
-14.02
-15.84
-17.51
-18.94
-20.18
-21.3
-22.47
-23.9
-25.83
-28.38
-31.41
-34.37
-36.39
-36.42
-33.65
-27.81
-19.36
-9.31
1.05
10.57
18.46
24.42
28.44
30.73
31.6
31.38
30.47
29.27
28.09
27.08
26.19
25.2
23.9
22.19
20.22
18.31
16.81
15.97
15.8
16.05
16.31
16.19
15.45
14.04
12.1
9.9
7.7
5.73
4.11
2.87
1.9
1.1
0.36
-0.29
-0.61
-0.18
1.45
4.57
9.02
14.09
18.62
21.24
20.81
16.86
9.7
0.38
-9.69
-19.27
-27.54
-34.35
-39.96
-44.84
-49.38
-53.7
-57.64
-60.78
-62.44
-61.76
-57.89
-50.26
-39.06
-25.34
-10.9
2.17
12.17
18.27
20.64
20.2
18.2
15.8
13.81
12.65
12.37
12.77
13.44
13.96
14.07
13.78
13.37
13.26
13.8
15.07
16.88
18.83
20.49
21.56
21.96
21.82
21.41
21.08
21.09
21.54
22.3
23
23.15
22.24
19.89
15.9
10.25
3.09
-5.35
-14.83
-25.1
-35.88
-46.67
-56.6
-64.31
-67.97
-65.76
-56.6
-40.94
-21.07
-0.75
15.97
26.06
28.62
24.9
17.5
9.06
1.2
-5.83
-12.66
-20.03
-28.07
-36.23
-43.61
-49.36
-52.85
-53.47
-50.47
-42.97
-30.54
-13.81
5.19
23.33
37.38
45.27
46.84
43.79
38.66
33.63
29.56
25.91
21.35
14.67
5.45
-5.77
-17.7
-28.56
-36.26
-38.63
-33.92
-21.47
-2.41
20.2
42.07
58.96
68.1
68.94
62.92
52.45
39.78
26.32
12.61
-1.08
-14.17
-25.49
-33.47
-36.63
-34.13
-26.25
-14.4
-0.85
11.93
21.93
28.08
30.28
29.07
25.06
18.62
9.84
-1.14
-13.83
-27.22
-40.04
-51.04
-59.29
-64.26
-65.71
-63.63
-58.2
-49.87
-39.4
-27.77
-16
-5.03
4.43
11.85
16.9
19.52
19.94
18.76
16.83
15.07
14.13
14.27
15.27
16.7
18.09
19.14
19.83
20.33
20.9
21.69
22.73
23.9
24.99
25.75
26.01
25.72
24.89
23.66
22.22
20.74
19.34
18.05
16.86
15.7
14.56
13.42
12.33
11.31
10.4
9.63
8.96
8.36
7.71
6.92
5.9
4.66
3.32
2.03
0.93
0.02
-0.85
-1.92
-3.39
-5.3
-7.5
-9.72
-11.71
-13.36
-14.73
-16.05
-17.54
-19.41
-21.73
-24.39
-27.12
-29.45
-30.76
-30.49
-28.26
-24.1
-18.47
-12.13
-5.88
-0.36
4.09
7.48
9.93
11.64
12.76
13.43
13.77
13.93
14
14.06
14.15
14.3
14.54
14.94
15.5
16.2
16.94
17.62
18.15
18.51
18.65
18.49
17.95
16.92
15.42
13.6
11.73
10.06
8.79
7.89
7.22
6.56
5.76
4.78
3.7
2.57
1.46
0.33
-0.84
-2.08
-3.37
-4.65
-5.87
-7.04
-8.18
-9.33
-10.56
-11.93
-13.57
-15.58
-18.06
-20.89
-23.69
-25.83
-26.63
-25.59
-22.62
-18.05
-12.58
-6.98
-1.89
2.34
5.59
7.96
9.57
10.59
11.13
11.32
11.26
11.05
10.8
10.6
10.53
10.68
11.07
11.65
12.33
13.03
13.69
14.31
14.88
15.37
15.61
15.42
14.65
13.29
11.57
9.77
8.19
6.96
6.01
5.17
4.28
3.3
2.31
1.41
0.59
-0.27
-1.38
-2.89
-4.77
-6.81
-8.69
-10.19
-11.23
-11.98
-12.76
-13.9
-15.66
-18.08
-21.02
-24.13
-26.87
-28.6
-28.73
-26.9
-23.1
-17.79
-11.75
-5.84
-0.78
3.06
5.65
7.25
8.21
8.82
9.24
9.5
9.62
9.63
9.62
9.72
10.05
10.68
11.56
12.56
13.53
14.34
14.9
15.21
15.3
15.18
14.87
14.35
13.58
12.59
11.42
10.19
9.03
8.08
7.4
6.94
6.53
5.99
5.16
4.01
2.67
1.32
0.13
-0.85
-1.72
-2.61
-3.64
-4.84
-6.16
-7.51
-8.83
-10.13
-11.44
-12.79
-14.18
-15.6
-17.09
-18.75
-20.73
-23.12
-25.83
-28.54
-30.66
-31.54
-30.66
-27.84
-23.33
-17.76
-11.94
-6.59
-2.18
1.18
3.66
5.54
7.1
8.49
9.75
10.85
11.74
12.39
12.81
13.03
13.13
13.17
13.23
13.38
13.67
14.13
14.72
15.39
16.04
16.51
16.65
16.32
15.47
14.17
12.63
11.11
9.87
9.01
8.47
8.04
7.52
6.74
5.71
4.59
3.54
2.72
2.13
1.71
1.32
0.88
0.4
-0.1
-0.58
-1.09
-1.72
-2.58
-3.71
-5.04
-6.41
-7.7
-8.81
-9.78
-10.67
-11.54
-12.44
-13.4
-14.51
-15.86
-17.54
-19.44
-21.21
-22.2
-21.7
-19.16
-14.52
-8.26
-1.38
4.97
9.76
12.45
13.03
11.96
9.88
7.36
4.65
1.7
-1.77
-6.02
-11.13
-16.82
-22.46
-27.11
-29.69
-29.16
-24.87
-16.78
-5.67
6.88
18.94
28.68
34.96
37.64
37.49
35.75
33.61
31.74
30.2
28.54
26.24
22.99
18.88
14.29
9.67
5.21
0.74
-4.28
-10.43
-18.03
-26.77
-35.61
-42.9
-46.73
-45.54
-38.68
-26.72
-11.5
4.36
18.18
27.94
32.69
32.53
28.15
20.31
9.58
-3.66
-18.83
-34.85
-50.03
-62.33
-69.75
-70.81
-64.9
-52.4
-34.81
-14.48
5.7
22.91
35.01
41.08
41.54
37.82
31.71
24.81
18.17
12.35
7.62
4.25
2.48
2.43
3.92
6.38
9.04
11.19
12.51
13.08
13.28
13.49
13.71
13.49
12.03
8.58
2.79
-5.04
-13.99
-22.72
-29.74
-33.61
-33.17
-27.79
-17.54
-3.46
12.55
28.08
40.78
48.92
51.69
49.15
41.98
31.07
17.44
2.28
-12.81
-25.83
-34.68
-37.72
-34.55
-26.29
-15.43
-4.98
2.59
6.24
6.46
4.81
2.99
2.07
2.27
3.22
4.47
5.87
7.65
10.04
12.96
15.86
17.82
17.98
15.8
11.29
4.91
-2.6
-10.53
-18.31
-25.55
-31.86
-36.71
-39.27
-38.53
-33.59
-24.19
-11.04
4.06
18.68
30.48
38.02
41.12
40.63
37.83
33.61
28.16
21.14
12.27
2.04
-8.08
-15.9
-19.41
-17.58
-10.93
-1.42
8.24
15.53
18.91
18.19
14.29
8.71
2.87
-2.34
-6.63
-10.12
-13.15
-16.02
-18.91
-21.87
-24.73
-27.15
-28.75
-29.22
-28.54
-27.02
-25.24
-23.92
-23.63
-24.64
-26.84
-29.59
-31.77
-31.96
-28.74
-21.28
-9.75
4.49
19.28
32.28
41.76
47
48.23
46.22
41.72
35.24
27.05
17.49
7.33
-2.17
-9.46
-13.16
-12.45
-7.55
0.37
9.4
17.46
22.93
25.04
23.98
20.63
16.08
11.21
6.58
2.4
-1.21
-4.11
-6.12
-7.16
-7.32
-6.94
-6.5
-6.49
-7.19
-8.63
-10.54
-12.5
-14.09
-15.09
-15.53
-15.68
-15.9
-16.51
-17.66
-19.3
-21.28
-23.47
-25.77
-28.03
-29.96
-31.12
-30.98
-29.16
-25.62
-20.74
-15.16
-9.59
-4.56
-0.3
3.16
5.84
7.74
8.83
9.16
8.93
8.55
8.44
8.88
9.9
11.3
12.81
14.25
15.66
17.28
19.34
21.93
24.75
27.13
28.12
26.71
22.16
14.22
3.33
-9.43
-22.44
-33.72
-41.19
-43.02
-38.14
-26.61
-9.99
8.86
26.42
39.57
46.42
46.79
41.94
33.81
24.17
14.08
3.93
-6.18
-15.9
-24.39
-30.49
-33.1
-31.7
-26.7
-19.42
-11.76
-5.61
-2.27
-2.07
-4.37
-7.9
-11.26
-13.36
-13.62
-11.99
-8.72
-4.23
0.94
6.11
10.47
13.18
13.53
11.18
6.25
-0.68
-8.75
-17.02
-24.63
-30.79
-34.76
-35.74
-32.99
-26.03
-15.02
-0.96
14.28
28.37
39.12
45.02
45.63
41.45
33.66
23.68
12.89
2.57
-6.06
-11.86
-14.04
-12.44
-7.78
-1.62
4.13
7.85
8.71
6.91
3.39
-0.7
-4.51
-7.78
-10.84
-14.28
-18.7
-24.38
-31.24
-38.85
-46.61
-53.91
-60.4
-66.08
-71.19
-75.87
-79.73
-81.64
-79.85
-72.55
-58.47
-37.36
-10.1
21.49
54.92
87.29
115.41
136.15
147.03
146.95
136.78
119.41
98.88
79.18
63.05
51.53
44.16
39.88
37.76
37.36
38.52
41
44.06
46.6
47.41
45.64
41.01
33.92
25.25
16.13
7.66
0.64
-4.64
-8.36
-11.03
-13.1
-14.75
-15.77
-15.84
-14.88
-13.23
-11.64
-10.84
-11.18
-12.45
-13.97
-15.05
-15.31
-14.83
-13.98
-13.17
-12.67
-12.59
-12.99
-13.99
-15.72
-18.12
-20.84
-23.23
-24.58
-24.45
-22.85
-20.22
-17.15
-14.11
-11.31
-8.73
-6.31
-4.13
-2.37
-1.22
-0.75
-0.85
-1.33
-2.04
-2.97
-4.19
-5.73
-7.43
-8.89
-9.66
-9.4
-8.06
-5.89
-3.31
-0.82
1.12
2.06
1.66
-0.24
-3.51
-7.65
-11.89
-15.39
-17.55
-18.16
-17.36
-15.44
-12.62
-9.02
-4.79
-0.29
3.83
6.75
7.87
7.11
5.03
2.59
0.74
-0.02
0.18
0.62
0.37
-1.32
-4.77
-9.81
-15.99
-22.71
-29.38
-35.46
-40.46
-43.98
-45.83
-46.13
-45.22
-43.55
-41.41
-38.77
-35.36
-30.85
-25.14
-18.52
-11.56
-4.89
1.06
6.17
10.54
14.35
17.66
20.37
22.36
23.61
24.39
25.13
26.23
27.74
29.21
29.8
28.69
25.54
20.76
15.4
10.73
7.69
6.57
7.06
8.53
10.37
12.2
13.83
15.16
16.06
16.37
16.04
15.18
14
12.73
11.49
10.27
8.96
7.42
5.63
3.67
1.75
0.11
-1.03
-1.6
-1.74
-1.73
-1.91
-2.54
-3.71
-5.26
-6.86
-8.09
-8.61
-8.18
-6.73
-4.41
-1.52
1.55
4.43
6.91
8.99
10.79
12.49
14.14
15.61
16.72
17.34
17.57
17.67
17.94
18.55
19.39
20.13
20.37
19.84
18.42
16.15
13.15
9.53
5.49
1.32
-2.62
-6.02
-8.75
-11.02
-13.22
-15.74
-18.7
-21.85
-24.79
-27.15
-28.89
-30.22
-31.47
-32.79
-33.99
-34.72
-34.65
-33.78
-32.5
-31.45
-31.13
-31.76
-33.08
-34.51
-35.45
-35.53
-34.67
-33.15
-31.36
-29.7
-28.4
-27.53
-26.98
-26.45
-25.46
-23.45
-19.9
-14.54
-7.58
0.33
8.25
15.31
20.92
24.96
27.66
29.38
30.4
30.87
30.88
30.52
30
29.56
29.38
29.42
29.46
29.18
28.35
26.99
25.36
23.83
22.75
22.2
21.98
21.74
21.14
20.06
18.69
17.35
16.39
15.99
16.13
16.57
17.02
17.25
17.11
16.6
15.8
14.9
14.08
13.48
13.11
12.78
12.1
10.6
7.86
3.7
-1.76
-8.01
-14.33
-19.9
-24.02
-26.27
-26.57
-25.2
-22.72
-19.8
-17.15
-15.3
-14.55
-14.93
-16.25
-18.15
-20.1
-21.57
-22.04
-21.13
-18.71
-14.93
-10.19
-5.03
-0.06
4.2
7.38
9.29
9.96
9.55
8.3
6.47
4.23
1.56
-1.69
-5.79
-10.91
-16.96
-23.36
-29.11
-33.1
-34.39
-32.69
-28.4
-22.5
-16.18
-10.38
-5.59
-1.81
1.2
3.75
5.96
7.83
9.32
10.46
11.47
12.62
14.09
15.7
16.91
16.95
15.18
11.51
6.48
1.08
-3.68
-7.27
-9.72
-11.4
-12.66
-13.52
-13.73
-13.01
-11.45
-9.54
-8.02
-7.47
-7.96
-8.99
-9.62
-8.9
-6.21
-1.55
4.35
10.15
14.25
15.32
12.85
7.4
0.51
-5.87
-10.09
-11.36
-9.86
-6.47
-2.19
2.29
6.71
11.16
15.68
20.08
23.9
26.59
27.83
27.69
26.67
25.49
24.78
24.86
25.55
26.41
26.9
26.77
26.05
25.04
24
23
21.85
20.25
18.01
15.13
11.84
8.48
5.35
2.61
0.21
-2.05
-4.38
-6.95
-9.7
-12.4
-14.75
-16.52
-17.7
-18.55
-19.44
-20.71
-22.5
-24.69
-26.94
-28.8
-29.86
-29.85
-28.66
-26.45
-23.52
-20.28
-17.1
-14.21
-11.64
-9.28
-6.93
-4.43
-1.75
1.05
3.75
6.14
8.07
9.52
10.64
11.66
12.77
14.07
15.52
17.1
18.9
21.08
23.73
26.6
28.99
29.93
28.67
25.08
19.88
14.35
9.79
6.91
5.64
5.25
4.92
4.16
3.05
2.07
1.73
2.24
3.38
4.68
5.62
5.87
5.43
4.5
3.38
2.44
2
2.37
3.8
6.31
9.56
12.79
14.93
14.91
12.06
6.33
-1.71
-11.09
-20.82
-30.15
-38.61
-45.87
-51.65
-55.62
-57.47
-57.14
-54.86
-51.17
-46.7
-41.99
-37.28
-32.57
-27.74
-22.79
-17.96
-13.72
-10.61
-8.94
-8.64
-9.19
-9.82
-9.69
-8.19
-5.07
-0.47
5.15
11.17
16.86
21.63
25.16
27.48
29
30.25
31.62
33.1
34.28
34.62
33.8
31.96
29.66
27.56
26.02
24.98
24.01
22.66
20.73
18.37
15.96
13.81
12.08
10.62
9.2
7.49
5.34
2.7
-0.28
-3.4
-6.47
-9.44
-12.42
-15.63
-19.25
-23.28
-27.47
-31.43
-34.73
-37.14
-38.61
-39.28
-39.33
-38.87
-37.92
-36.43
-34.34
-31.64
-28.44
-24.92
-21.27
-17.69
-14.33
-11.22
-8.33
-5.61
-3.06
-0.73
1.22
2.58
3.14
2.83
1.77
0.36
-0.86
-1.29
-0.56
1.35
4.14
7.3
10.42
13.29
15.94
18.52
21.1
23.58
25.66
26.96
27.2
26.25
24.19
21.32
18.09
15.03
12.56
10.77
9.32
7.58
4.94
1.25
-2.86
-6.18
-7.4
-5.87
-2
2.68
6.23
7.13
5.03
0.98
-3.11
-5.21
-4.03
0.49
7.34
14.85
21.22
24.7
23.74
17.26
5.36
-9.88
-24.32
-32.78
-31.26
-19.2
-0.4
18.52
31.32
35.55
33.65
31.02
32.22
37.73
43.5
43.72
34.89
18.47
0.37
-12.38
-15.42
-9.03
2.77
15.11
24.93
31.93
37.52
42.98
48.15
51.64
51.91
48.35
41.59
33.1
24.3
16.03
8.54
1.76
-4.28
-9.33
-12.98
-14.96
-15.39
-14.98
-15.01
-16.88
-21.57
-29
-37.87
-46.08
-51.61
-53.44
-52
-48.82
-45.66
-43.54
-42.38
-41.25
-39.13
-35.63
-31.3
-27.23
-24.51
-23.7
-24.55
-26.18
-27.36
-26.84
-23.61
-17.03
-7.04
5.71
19.8
33.34
44.39
51.7
55.1
55.54
54.62
53.81
53.82
54.34
54.3
52.49
48.14
41.28
32.81
24.21
17.01
12.3
10.13
9.42
8.25
4.76
-1.97
-11.4
-21.63
-30.35
-35.82
-37.52
-36.05
-32.57
-27.99
-22.81
-17.28
-11.88
-7.52
-5.25
-5.81
-9.07
-14.02
-19.18
-23.17
-25.21
-25.14
-23.33
-20.33
-16.64
-12.67
-8.73
-5.09
-1.88
0.79
2.89
4.28
4.74
4
1.89
-1.52
-5.91
-10.77
-15.53
-19.71
-22.96
-25
-25.64
-24.81
-22.66
-19.55
-15.92
-12.11
-8.13
-3.67
1.79
8.65
16.98
26.47
36.42
45.98
54.33
60.83
65.13
67.25
67.46
66.2
63.84
60.59
56.53
51.74
46.43
41.11
36.51
33.36
32.05
32.32
33.2
33.24
30.95
25.41
16.66
5.67
-6.02
-16.93
-26.2
-33.73
-39.94
-45.22
-49.62
-52.73
-53.95
-52.85
-49.45
-44.16
-37.7
-30.87
-24.45
-19.17
-15.7
-14.51
-15.67
-18.67
-22.47
-25.71
-27.22
-26.66
-24.91
-23.99
-26.25
-33.28
-44.87
-58.71
-71.16
-78.68
-79.33
-73.47
-63.43
-52.3
-42.61
-35.57
-31.13
-28.64
-27.47
-27.33
-27.99
-28.91
-28.99
-26.93
-21.77
-13.43
-2.93
7.95
17.32
23.91
27.43
28.53
28.54
28.88
30.64
34.17
38.95
43.71
46.84
46.98
43.65
37.45
29.86
22.64
17.06
13.52
11.57
10.31
8.93
7
4.56
1.95
-0.36
-1.95
-2.5
-1.88
-0.24
1.98
4.14
5.54
5.63
4.2
1.38
-2.37
-6.42
-10.09
-12.85
-14.37
-14.61
-13.79
-12.27
-10.41
-8.44
-6.44
-4.28
-1.78
1.21
4.63
8.21
11.44
13.68
14.4
13.4
10.96
7.8
4.74
2.35
0.78
-0.21
-0.88
-1.15
-0.51
1.89
6.79
14.43
24.42
35.75
47.2
57.69
66.57
73.77
79.55
84.29
88.11
90.66
91
87.89
80.15
67.15
49.17
27.41
3.87
-19.03
-38.84
-53.65
-62.68
-66.61
-67.47
-67.91
-70.13
-74.97
-81.56
-87.88
-91.68
-91.42
-86.64
-77.7
-65.26
-50.03
-32.91
-15.33
0.68
12.87
19.63
20.73
17.4
11.89
6.37
2.15
-0.69
-3.05
-6.13
-10.71
-16.75
-23.44
-29.46
-33.47
-34.49
-32.17
-26.85
-19.45
-11.15
-3.06
4.13
10.28
15.75
21.01
26.34
31.52
35.9
38.64
39.16
37.41
33.96
29.79
25.89
22.92
21.02
19.77
18.56
16.8
14.36
11.65
9.51
9.04
11.1
16.08
23.6
32.52
41
46.71
47.3
41.16
28.33
10.96
-7.03
-21.16
-28.15
-27.37
-21.09
-13.47
-8.66
-9.06
-14.44
-22.46
-30.17
-35.55
-38.3
-39.56
-40.79
-42.66
-44.64
-45.51
-44.31
-41.13
-37.13
-33.83
-32.01
-31.15
-29.66
-25.89
-19.24
-10.67
-2.3
3.62
5.74
4.12
0.07
-4.54
-7.86
-8.65
-6.44
-1.63
4.59
10.47
14.13
14.26
10.59
4.11
-3.31
-9.67
-13.66
-15.02
-14.32
-12.45
-9.97
-6.98
-3.34
0.91
5.28
8.92
11.13
11.73
11.16
10.27
9.75
9.91
10.58
11.35
11.87
12.02
11.89
11.62
11.31
10.97
10.66
10.49
10.6
11.07
11.8
12.47
12.65
11.95
10.14
7.16
3.17
-1.46
-6.19
-10.4
-13.45
-14.86
-14.44
-12.25
-8.59
-3.84
1.63
7.49
13.62
20.05
26.99
34.66
43.01
51.54
59.23
64.85
67.41
66.64
63.11
58
52.63
47.88
43.93
40.34
36.39
31.56
25.71
19.16
12.5
6.33
1.08
-3.11
-6.25
-8.45
-9.79
-10.39
-10.45
-10.31
-10.33
-10.85
-12.03
-13.82
-16.07
-18.6
-21.25
-23.88
-26.29
-28.28
-29.7
-30.55
-30.97
-31.16
-31.21
-31.05
-30.44
-29.21
-27.35
-25.01
-22.43
-19.73
-16.88
-13.82
-10.55
-7.32
-4.49
-2.39
-1.19
-0.73
-0.66
-0.56
-0.19
0.55
1.6
2.9
4.43
6.18
8.13
10.17
12.07
13.52
14.24
13.99
12.67
10.41
7.58
4.8
2.79
2.14
3.07
5.31
8.14
10.7
12.28
12.62
11.92
10.81
10.03
10.17
11.44
13.6
16.01
17.94
18.88
18.79
18.21
17.94
18.68
20.65
23.52
26.56
28.89
29.57
27.68
22.47
13.78
2.39
-9.67
-19.57
-24.68
-23.7
-17.41
-8.45
-0.24
4.45
4.58
0.92
-4.71
-10.61
-16.08
-21.42
-27.23
-33.49
-39.04
-41.9
-40.3
-33.8
-23.77
-12.93
-4.17
0.79
2.03
1.02
-0.34
-0.85
-0.42
0.17
0.12
-0.85
-2.23
-3.14
-2.85
-1.21
1.26
3.61
4.89
4.47
2.23
-1.45
-5.92
-10.46
-14.55
-17.97
-20.71
-22.88
-24.5
-25.5
-25.84
-25.66
-25.31
-25.2
-25.49
-25.87
-25.6
-23.84
-20.16
-14.8
-8.75
-3.35
0.3
1.7
1.11
-0.64
-2.5
-3.51
-3
-0.59
3.83
10.18
18.13
27.09
36.17
44.22
50.02
52.64
51.76
47.92
42.36
36.57
31.65
27.95
25.03
22.15
18.81
15.06
11.19
7.4
3.45
-1.11
-6.49
-12.27
-17.45
-20.98
-22.49
-22.76
-23.46
-26.21
-31.59
-38.64
-45.09
-48.51
-47.48
-42.45
-35.69
-30.38
-29.16
-32.86
-40.08
-47.81
-52.94
-53.76
-50.58
-45.28
-40.03
-36.15
-33.65
-31.59
-28.88
-24.81
-19
-11.2
-1.23
10.63
23.11
33.87
40.19
40.17
33.79
23.11
11.5
2.36
-1.87
-0.3
6.36
16.05
25.82
32.61
34.41
31.17
25.13
19.97
19.17
24.4
34.81
47.55
59.15
66.84
69.24
66.22
58.46
47.05
33.43
19.4
6.86
-2.61
-8.3
-10.56
-10.69
-10.52
-11.82
-15.76
-22.33
-30.17
-36.85
-39.7
-36.97
-28.81
-17.44
-6.33
1.24
3.53
0.93
-4.5
-10.25
-14.46
-16.61
-17.25
-17.39
-17.7
-18.18
-18.28
-17.31
-14.93
-11.3
-6.95
-2.51
1.66
5.62
9.67
14.07
18.76
23.23
26.79
28.83
29.22
28.38
27.13
26.31
26.37
27.24
28.36
29.02
28.67
27.19
24.84
22.14
19.6
17.49
15.84
14.43
13.02
11.45
9.73
8.03
6.58
5.56
5.03
4.92
4.99
4.93
4.41
3.18
1.22
-1.32
-4.12
-6.88
-9.33
-11.3
-12.59
-13.06
-12.79
-12.38
-12.96
-15.77
-21.53
-29.76
-38.68
-45.77
-48.71
-46.24
-38.36
-26.22
-11.61
3.38
16.48
25.48
28.73
25.66
17.3
6.12
-4.71
-12.48
-15.82
-14.93
-11.07
-5.77
-0.17
5.15
10.07
14.47
18.05
20.26
20.49
18.15
12.93
4.9
-5.4
-17.07
-28.85
-39.37
-47.28
-51.59
-51.84
-48.3
-41.86
-33.85
-25.6
-18.17
-12.16
-7.64
-4.41
-2.1
-0.37
1.05
2.39
3.91
5.81
8.14
10.65
12.86
14.19
14.28
13.13
11.1
8.69
6.29
3.99
1.64
-0.95
-3.78
-6.6
-9
-10.65
-11.42
-11.38
-10.67
-9.32
-7.24
-4.31
-0.53
3.8
8.1
11.68
13.89
14.43
13.41
11.42
9.4
8.5
9.89
14.45
22.58
34.01
47.75
62.16
75.21
84.82
89.24
87.4
79.23
65.78
49.24
32.47
18.36
9.09
5.46
6.8
11.32
16.89
21.8
25.15
26.84
27.09
26.12
23.86
20.17
15.15
9.37
3.82
-0.35
-2.33
-2.04
-0.15
2.13
3.47
2.98
0.45
-3.5
-7.69
-10.77
-11.63
-9.78
-5.48
0.15
5.39
8.32
7.5
2.55
-5.47
-14.47
-22.06
-26.55
-27.72
-26.64
-25.11
-24.58
-25.47
-27.09
-28.01
-26.77
-22.52
-15.37
-6.37
2.62
9.45
12.26
10.17
3.55
-6.09
-16.75
-26.73
-35.14
-42.04
-47.91
-53.15
-57.71
-61.03
-62.46
-61.6
-58.51
-53.6
-47.49
-40.77
-33.9
-27.19
-20.84
-15
-9.81
-5.45
-2.14
-0.02
1.02
1.49
2.22
4.17
8.04
13.97
21.42
29.31
36.3
41.08
42.7
40.69
35.24
27.11
17.5
7.8
-0.82
-7.65
-12.52
-15.61
-17.2
-17.49
-16.67
-15.02
-13.04
-11.31
-10.32
-10.14
-10.43
-10.57
-9.92
-8.17
-5.45
-2.31
0.56
2.57
3.5
3.5
3
2.54
2.47
2.89
3.66
4.46
5
5.1
4.76
4.1
3.34
2.71
2.41
2.53
2.98
3.56
3.96
3.95
3.44
2.58
1.64
0.93
0.65
0.88
1.55
2.54
3.7
4.85
5.78
6.28
6.13
5.19
3.46
1.09
-1.68
-4.49
-7.06
-9.14
-10.58
-11.24
-10.98
-9.6
-6.97
-3.14
1.5
6.34
10.76
14.48
17.66
20.69
23.74
26.31
27.33
25.59
20.66
13.33
5.5
-0.54
-3.08
-1.55
3.55
11.25
20.59
30.71
40.44
47.94
50.96
47.67
37.85
23.4
7.95
-4.54
-11.32
-11.83
-7.45
-0.51
6.93
13.64
19.06
22.66
23.53
20.62
13.43
2.7
-9.53
-20.62
-28.39
-32
-32.13
-30.42
-28.57
-27.51
-27.23
-27.04
-26.16
-24.25
-21.55
-18.68
-16.29
-14.76
-14.1
-13.95
-13.83
-13.12
-11.17
-7.35
-1.2
7.31
17.58
28.33
37.8
44.28
46.59
44.43
38.44
29.88
20.23
10.87
2.81
-3.38
-7.65
-10.47
-12.76
-15.56
-19.67
-25.22
-31.4
-36.62
-39.05
-37.28
-30.9
-20.7
-8.44
3.66
13.46
19.52
21.31
19.34
14.93
9.65
4.86
1.18
-1.52
-3.76
-5.89
-7.7
-8.4
-6.96
-2.72
4.28
13.36
23.49
33.73
43.47
52.29
59.73
65.17
67.82
67.03
62.57
54.92
45.28
35.4
27
21.09
17.43
14.41
9.69
1.31
-11.21
-26.5
-41.85
-54.41
-62.39
-65.65
-65.45
-63.37
-60.53
-57.14
-52.99
-48.06
-43.07
-39.26
-37.77
-38.85
-41.51
-43.89
-44.05
-40.9
-34.64
-26.56
-18.36
-11.36
-6
-1.85
2.1
6.88
13.22
21.42
31.41
42.84
55.22
67.93
80.36
92
102.61
112.18
120.78
128.08
133.19
134.58
130.64
120.42
104.18
83.55
61.06
39.18
19.52
2.43
-12.72
-26.79
-40.31
-53.08
-64.5
-73.98
-81.22
-86.21
-88.91
-89.13
-86.66
-81.89
-76.12
-71.38
-69.62
-71.55
-75.87
-79.57
-79.25
-72.83
-60.69
-45.52
-30.86
-19.34
-11.58
-6.3
-1.54
4.01
10.42
17.01
23.05
28.27
32.68
36.1
37.87
37.2
33.83
28.46
22.53
17.36
13.23
9.08
3.2
-5.51
-16.49
-27.42
-35.19
-37.39
-33.55
-25.35
-15.87
-8.28
-4.55
-4.96
-8.29
-12.84
-17.36
-21.45
-25.4
-29.48
-33.37
-36.16
-36.71
-34.38
-29.37
-22.72
-15.86
-10.07
-6.1
-3.97
-3.16
-2.89
-2.48
-1.58
-0.37
0.5
0.26
-1.64
-5.2
-9.71
-14.02
-16.99
-17.93
-16.75
-13.71
-9.1
-3.02
4.28
12.04
18.71
22.38
21.68
16.78
9.68
3.66
1.77
5.44
13.9
24.66
34.84
42.41
46.66
47.9
46.6
42.87
36.47
27.35
16.24
4.63
-5.62
-13.1
-17.34
-18.96
-19.2
-19.36
-20.18
-21.74
-23.56
-25.02
-25.65
-25.33
-24.36
-23.27
-22.64
-22.86
-23.99
-25.77
-27.76
-29.59
-31.05
-32.21
-33.29
-34.49
-35.92
-37.49
-38.95
-39.98
-40.29
-39.62
-37.89
-35.2
-31.82
-28.16
-24.59
-21.37
-18.46
-15.58
-12.27
-8.01
-2.32
5.16
14.43
25.1
36.2
46.35
54.04
58.18
58.41
55.31
50.1
44.13
38.39
33.28
28.7
24.42
20.36
16.66
13.52
10.88
8.24
4.8
-0.21
-7.14
-15.62
-24.64
-32.96
-39.52
-43.68
-45.2
-44.19
-41
-36.36
-31.4
-27.58
-26.27
-28.22
-33.08
-39.5
-45.57
-49.63
-50.78
-49.04
-45.05
-39.63
-33.4
-26.72
-19.82
-12.84
-5.89
1.07
8.4
16.72
26.79
39.15
53.8
69.9
85.93
100
110.44
116.26
117.41
114.64
109.17
102.15
94.36
86.06
77.15
67.48
57.2
47
38.03
31.5
28
27.08
27.3
26.92
24.93
21.64
18.65
17.82
20.13
24.95
30.32
33.97
34.47
31.83
27.22
22.04
17.07
12.16
6.61
-0.07
-7.69
-15.39
-22.08
-27
-30.06
-31.76
-32.88
-34.08
-35.66
-37.54
-39.41
-40.93
-41.89
-42.3
-42.31
-42.02
-41.37
-40
-37.21
-32.16
-24.18
-13.21
-0.09
13.44
25.18
33.07
35.93
33.96
28.69
22.46
17.57
15.55
16.72
20.25
24.63
28.28
30.09
29.7
27.47
24.24
20.99
18.61
17.77
18.72
21.05
23.5
24.08
20.73
12.32
-0.52
-15.23
-28.15
-35.9
-36.84
-31.69
-23.21
-14.92
-9.65
-8.6
-11.2
-15.8
-20.56
-24.29
-26.73
-28.47
-30.35
-32.88
-35.82
-38.18
-38.85
-37.26
-33.9
-30.15
-27.47
-26.31
-25.76
-23.95
-19.32
-11.96
-3.88
1.78
2.53
-1.99
-9.68
-17
-20.78
-19.67
-14.42
-7.04
0.61
7.7
14.42
21.13
27.59
32.7
35.1
33.98
29.75
23.94
18.49
14.82
13.24
12.92
12.59
11.3
8.95
6.39
4.84
5.22
7.6
11.21
14.74
17.04
17.59
16.71
15.36
14.59
15.16
17.1
19.86
22.51
24.2
24.46
23.27
20.92
17.8
14.27
10.7
7.42
4.67
2.32
-0.26
-4.05
-9.88
-17.73
-26.38
-33.63
-37.15
-35.46
-28.69
-18.52
-7.54
1.76
7.75
9.91
8.68
4.93
-0.34
-6.23
-11.95
-16.88
-20.7
-23.58
-26.27
-29.86
-35.43
-43.35
-53.01
-62.71
-70.34
-74.04
-73
-67.61
-59.23
-49.47
-39.68
-30.62
-22.66
-16.11
-11.46
-9.31
-10.01
-13.31
-18.2
-23.12
-26.37
-26.72
-23.74
-17.96
-10.61
-3.25
2.82
6.89
9.06
9.96
10.47
11.22
12.34
13.51
14.05
13.32
10.87
6.58
0.66
-6.18
-12.74
-17.41
-18.67
-15.68
-8.85
0.1
8.76
14.94
17.55
16.86
14.1
10.68
7.46
4.63
1.89
-1.01
-4.03
-6.87
-9.28
-11.26
-13.08
-15.04
-17.28
-19.69
-22.06
-24.2
-26.01
-27.37
-28.03
-27.61
-25.73
-22.22
-17.15
-10.9
-4.1
2.26
6.93
8.62
6.5
0.73
-7.24
-15.01
-20.06
-20.81
-17.23
-10.77
-3.57
2.51
6.54
8.5
8.9
8.23
6.76
4.71
2.52
0.92
0.77
2.6
6.33
11.16
15.9
19.55
21.7
22.88
24.35
27.68
34.13
44.12
57
71.08
84.14
93.95
98.94
98.56
93.34
84.75
74.69
65
57.12
51.89
49.47
49.39
50.61
51.68
51.09
47.74
41.28
32.21
21.59
10.48
-0.39
-10.74
-20.46
-29.28
-36.66
-41.86
-44.24
-43.5
-39.75
-33.55
-25.93
-18.39
-12.79
-10.89
-13.54
-20.11
-28.4
-35.45
-38.68
-37.06
-31.45
-24.15
-17.82
-14.31
-14.09
-16.14
-18.48
-19.09
-16.82
-12.04
-6.57
-3.03
-3.7
-9.43
-19.17
-30.4
-40.04
-45.5
-45.46
-40.13
-31.07
-20.77
-11.95
-6.7
-5.78
-8.28
-11.97
-14.27
-13.41
-9.26
-3.19
2.68
6.48
7.23
4.9
0.01
-6.81
-15.07
-24.25
-33.62
-42.11
-48.49
-51.59
-50.62
-45.52
-37.07
-26.66
-15.78
-5.49
3.79
12.04
19.15
24.47
26.99
25.84
21.08
14.12
7.44
3.65
4.56
10.6
20.93
33.98
47.95
61.11
71.83
78.63
80.41
76.87
68.74
57.68
45.75
34.73
25.67
18.7
13.33
8.9
4.96
1.38
-1.79
-4.53
-6.96
-9.36
-11.99
-14.93
-18
-20.79
-22.81
-23.7
-23.33
-21.83
-19.49
-16.69
-13.7
-10.74
-7.86
-5.08
-2.38
0.31
3.02
5.72
8.35
10.8
13
14.99
16.89
18.86
20.95
23.04
24.9
26.33
27.3
28.02
28.8
29.88
31.34
33.02
34.64
36.01
37.03
37.7
37.97
37.74
36.86
35.26
33.11
30.74
28.63
27.11
26.23
25.7
24.98
23.47
20.79
16.85
11.9
6.41
0.95
-3.83
-7.37
-9.44
-10.45
-11.6
-14.61
-20.99
-31.18
-44.01
-56.92
-66.93
-71.75
-70.5
-63.89
-53.7
-42.25
-31.87
-24.61
-21.87
-23.96
-29.86
-37.34
-43.65
-46.57
-45.24
-40.23
-33.01
-25
-16.95
-8.78
-0.17
8.92
17.84
25.32
29.85
30.21
25.8
16.9
4.71
-8.86
-21.54
-31.26
-36.72
-37.83
-35.73
-32.36
-29.68
-29
-30.59
-33.89
-37.99
-42.16
-46.17
-49.99
-53.55
-56.51
-58.39
-58.89
-58.2
-56.96
-55.89
-55.37
-55.1
-54.27
-51.81
-47.03
-39.84
-30.84
-21.07
-11.62
-3.23
3.84
9.8
15.07
20.02
24.75
29.1
32.77
35.51
37.27
38.18
38.46
38.33
37.89
37.26
36.56
36.02
35.94
36.58
38.09
40.47
43.49
46.79
49.88
52.31
53.68
53.86
52.99
51.55
50.25
49.92
51.25
54.61
59.84
66.14
72.19
76.44
77.62
75.2
69.67
62.33
54.82
48.57
44.4
42.54
42.87
45.11
48.91
53.59
57.91
60.11
58.34
51.39
39.4
23.93
7.6
-6.84
-17.49
-23.78
-26.5
-27.39
-28.45
-31.32
-36.89
-45.13
-55
-64.7
-72.1
-75.38
-73.76
-67.85
-59.52
-51.12
-44.43
-39.88
-36.48
-32.35
-25.78
-16.04
-3.64
9.93
22.91
33.82
41.82
46.67
48.58
48.07
45.79
42.44
38.6
34.62
30.58
26.32
21.62
16.36
10.58
4.53
-1.36
-6.57
-10.63
-13.21
-14.29
-14.15
-13.35
-12.47
-11.97
-12.02
-12.52
-13.34
-14.34
-15.47
-16.67
-17.8
-18.72
-19.32
-19.64
-19.89
-20.31
-21.01
-21.84
-22.48
-22.6
-22.03
-20.81
-18.99
-16.49
-12.98
-8.02
-1.37
6.7
15.26
22.98
28.56
31.26
31.27
29.58
27.59
26.47
26.69
27.77
28.43
27.15
22.77
15.1
5.12
-5.19
-13.65
-18.63
-19.67
-17.48
-13.46
-8.96
-4.87
-1.64
0.49
1.18
0.17
-2.34
-5.42
-7.55
-7.35
-4.27
1.06
7.22
12.95
17.89
22.69
28.2
34.48
40
41.95
37.42
24.97
5.65
-17.07
-38.42
-54.14
-61.87
-61.76
-55.98
-47.48
-38.83
-31.61
-26.46
-23.52
-22.87
-24.57
-28.4
-33.51
-38.39
-41.18
-40.27
-35.03
-26.14
-15.5
-5.66
0.92
2.7
-0.42
-7.05
-14.74
-20.9
-23.63
-22.33
-17.78
-11.57
-5.32
-0.02
4.17
7.74
11.16
14.48
17.18
18.48
17.79
15.17
11.31
7.3
4.14
2.33
1.8
1.98
2.16
1.81
0.76
-0.84
-2.67
-4.4
-5.94
-7.38
-8.93
-10.71
-12.72
-14.78
-16.63
-18.06
-18.9
-19
-18.11
-15.88
-11.83
-5.61
2.72
12.53
22.55
31.12
36.6
37.86
34.58
27.41
17.76
7.5
-1.49
-7.73
-10.44
-9.76
-6.76
-3.1
-0.6
-0.67
-3.79
-9.45
-16.29
-22.6
-26.87
-28.19
-26.35
-21.88
-15.76
-9.17
-3.22
1.39
4.54
6.74
8.84
11.71
15.71
20.52
25.23
28.65
29.69
27.76
22.78
15.23
6.02
-3.64
-12.36
-18.84
-22.27
-22.63
-20.77
-18.1
-16.04
-15.44
-16.33
-18.13
-20.14
-21.98
-23.82
-26.01
-28.7
-31.51
-33.55
-33.81
-31.58
-26.75
-19.85
-11.84
-3.87
2.94
7.7
9.83
9.19
6.17
1.63
-3.2
-7.08
-9.03
-8.67
-6.22
-2.37
2.05
6.28
9.77
12.11
12.94
12
9.26
5.22
0.95
-2.1
-2.74
-0.55
3.79
8.7
12.32
13.16
10.57
4.83
-3.03
-11.55
-19.19
-24.55
-26.6
-24.84
-19.26
-10.29
1.31
14.52
28.05
40.31
49.59
54.36
53.69
47.62
37.18
24.2
10.77
-1.29
-10.76
-17.15
-20.54
-21.39
-20.18
-17.38
-13.32
-8.32
-2.78
2.79
7.78
11.68
14.34
16.06
17.45
19.06
21.07
23.03
24.09
23.4
20.5
15.64
9.63
3.62
-1.3
-4.29
-4.91
-3.19
0.25
4.14
6.73
6.29
1.96
-5.65
-14.4
-21.38
-24.05
-21.41
-14.41
-5.58
2.03
6.11
5.85
1.97
-3.85
-9.92
-15.19
-19.39
-22.61
-24.7
-25.08
-22.97
-18.11
-11.28
-4.34
0.51
1.94
0.32
-2.41
-3.88
-2.72
0.53
3.78
4.74
2.35
-2.48
-7.31
-9.45
-7.35
-1.15
7.51
16.47
24.05
29.62
33.47
36.35
38.91
41.41
43.83
45.94
47.49
48.07
47.03
43.4
36.15
24.67
9.38
-8.01
-24.62
-37.09
-42.62
-39.87
-29.59
-14.51
1.3
13.7
19.78
18.91
12.9
5.14
-0.87
-2.98
-1.07
3.38
8.34
12.3
14.77
15.92
16.02
15.08
12.92
9.71
6.22
3.65
3.01
4.47
7.09
9.26
9.51
7.15
2.59
-2.99
-8.2
-12
-13.96
-14.24
-13.33
-11.82
-10.23
-9.05
-8.71
-9.55
-11.56
-14.22
-16.48
-17.09
-15.18
-10.79
-4.82
1.42
6.98
11.66
15.89
19.99
23.56
25.35
23.84
18.05
8.17
-4.49
-18.03
-30.69
-41.11
-48.45
-52.23
-52.45
-49.88
-46.21
-43.63
-44
-47.93
-54.37
-61.16
-66.1
-68.04
-67.36
-65.55
-64.25
-64.28
-65.26
-65.87
-64.53
-60.21
-52.84
-43.22
-32.65
-22.35
-13.04
-4.71
3.22
11.61
21.22
32.43
45.01
58.1
70.19
79.38
83.89
82.67
75.99
65.73
54.92
46.82
43.85
46.69
54.25
64.2
73.89
81.16
84.8
84.52
80.72
74.16
65.66
55.93
45.46
34.56
23.55
12.94
3.66
-3.14
-6.31
-5.21
-0.09
7.83
16.52
23.76
27.8
27.99
25
20.61
16.95
15.7
17.48
21.72
26.97
31.48
33.84
33.33
30.09
25.13
20.02
16.48
15.55
17.06
19.36
19.9
16.32
7.58
-5.46
-20.41
-34.4
-45.23
-51.98
-55.07
-55.52
-54.41
-52.52
-50.36
-48.44
-47.39
-47.79
-49.78
-52.86
-55.79
-56.99
-55.16
-49.77
-41.39
-31.52
-22.02
-14.5
-9.79
-7.75
-7.59
-8.36
-9.5
-11.08
-13.65
-17.66
-22.96
-28.43
-32.26
-32.61
-28.51
-20.43
-10.22
-0.39
6.97
11.01
12.31
12.31
12.42
13.23
14.45
15.36
15.54
15.41
16.06
18.51
22.89
27.96
31.47
31.35
26.95
19.75
12.75
9.03
10.11
15.26
22.07
28.13
32.45
35.75
39.47
44.19
48.6
49.96
45.65
34.88
19.41
2.84
-11.12
-20.16
-23.98
-23.76
-20.94
-16.35
-10.11
-2.19
6.83
15.47
21.77
24.15
22.21
17.02
10.63
5.17
1.94
0.95
1.16
1.2
0.12
-2.21
-5.17
-7.85
-9.47
-9.77
-8.97
-7.62
-6.28
-5.32
-4.83
-4.73
-4.93
-5.43
-6.35
-7.82
-9.81
-12.11
-14.42
-16.53
-18.47
-20.49
-22.88
-25.79
-29.03
-32.2
-34.82
-36.62
-37.7
-38.5
-39.59
-41.39
-43.88
-46.61
-48.78
-49.44
-47.77
-43.15
-35.32
-24.5
-11.58
1.93
14.14
23.55
29.7
33.58
37.23
42.6
50.28
58.9
65.51
67.1
62.24
51.96
39.35
28.11
20.85
18.18
18.82
20.71
22.16
22.49
21.84
20.46
18.15
14.15
7.71
-1.21
-11.5
-21.13
-28.01
-30.89
-29.92
-26.53
-22.64
-19.79
-18.55
-18.48
-18.66
-18.36
-17.48
-16.52
-16.24
-17.19
-19.5
-22.86
-26.75
-30.69
-34.31
-37.28
-39.17
-39.47
-37.75
-33.89
-28.2
-21.3
-14
-6.89
-0.36
5.41
10.21
13.69
15.39
15.01
12.57
8.55
3.68
-1.38
-6.17
-10.37
-13.6
-15.2
-14.32
-10.23
-2.83
7.15
18.14
28.2
35.53
38.99
38.35
34.18
27.73
20.6
14.48
10.85
10.69
14.2
20.67
28.52
35.59
39.67
39
32.81
21.5
6.57
-9.78
-25.24
-37.91
-46.75
-51.65
-53.32
-52.92
-51.68
-50.52
-49.88
-49.67
-49.48
-48.8
-47.33
-45.15
-42.66
-40.47
-39.1
-38.72
-38.96
-38.87
-37.11
-32.36
-23.92
-12.3
0.62
12
19.01
19.95
15.15
6.95
-1.19
-6
-5.69
-0.46
7.92
17.02
24.76
29.94
32.18
31.59
28.55
23.72
18.06
12.99
10.01
10.19
13.64
19.25
25.19
29.62
31.47
30.72
28.05
24.24
19.71
14.68
9.56
5.28
3.02
3.45
6.04
8.89
9.51
6.12
-1.29
-10.76
-19.28
-24.24
-24.71
-21.66
-17.22
-13.39
-11.02
-9.55
-7.6
-4.06
1.13
6.87
11.5
13.77
13.51
11.67
9.66
8.44
7.95
7.21
4.98
0.6
-5.53
-12.11
-17.52
-20.57
-20.95
-19.22
-16.44
-13.7
-11.71
-10.71
-10.55
-10.92
-11.54
-12.22
-12.93
-13.68
-14.54
-15.54
-16.7
-18.05
-19.61
-21.47
-23.71
-26.38
-29.48
-32.83
-36.21
-39.35
-42.01
-44.03
-45.36
-46.01
-46.06
-45.64
-44.9
-43.95
-42.77
-41.2
-38.92
-35.64
-31.12
-25.3
-18.3
-10.33
-1.68
7.28
16.13
24.44
31.86
38.21
43.51
47.87
51.39
53.97
55.39
55.38
53.72
50.48
45.97
40.74
35.39
30.5
26.42
23.36
21.38
20.39
20.22
20.51
20.79
20.58
19.62
18.04
16.37
15.49
16.34
19.69
25.98
35.15
46.66
59.34
71.53
81.33
86.99
87.49
82.88
74.36
63.91
53.59
44.86
38.17
32.93
27.95
22.03
14.41
5.02
-5.61
-16.56
-26.72
-35.01
-40.56
-43.03
-42.73
-40.71
-38.34
-36.79
-36.45
-36.72
-36.36
-34.1
-29.39
-22.54
-14.52
-6.39
1.17
8.02
14.28
20.09
25.39
29.96
33.63
36.41
38.54
40.32
41.94
43.41
44.57
45.29
45.64
45.92
46.57
48
50.33
53.34
56.58
59.57
62.16
64.67
67.79
72.19
77.97
84.24
89.14
90.31
85.79
74.76
57.89
37.1
14.86
-6.53
-25.35
-40.59
-51.74
-58.65
-61.59
-61.28
-58.85
-55.49
-52.03
-48.72
-45.46
-42.24
-39.69
-38.92
-40.95
-45.77
-51.94
-56.88
-58.01
-54.04
-45.7
-35.5
-26.51
-21
-19.47
-20.75
-22.85
-24.11
-23.98
-23.03
-22.36
-22.92
-24.91
-27.83
-30.83
-33.25
-34.9
-36.1
-37.41
-39.26
-41.66
-44.22
-46.28
-47.17
-46.45
-44
-40.01
-34.99
-29.62
-24.73
-21.04
-19.02
-18.72
-19.79
-21.63
-23.73
-25.81
-27.93
-30.19
-32.45
-34.17
-34.4
-32.2
-26.9
-18.3
-6.58
7.65
23.24
38.35
50.58
57.66
58.42
53.48
45.23
36.79
30.63
27.61
27.01
27.4
27.78
27.98
28.46
29.49
30.6
30.72
28.83
24.57
18.46
11.54
4.8
-1.1
-5.77
-8.84
-9.82
-8.31
-4.42
0.92
6.06
9.15
8.88
5.07
-1.2
-8.05
-13.65
-16.95
-18.17
-18.64
-20.11
-23.97
-30.54
-38.96
-47.49
-54.21
-57.71
-57.37
-53.44
-46.82
-38.86
-31.22
-25.65
-23.6
-25.72
-31.41
-38.87
-45.57
-49.2
-48.53
-43.88
-36.76
-29.16
-22.63
-17.92
-14.99
-13.4
-12.74
-12.78
-13.46
-14.61
-15.94
-16.99
-17.28
-16.59
-14.96
-12.68
-10.11
-7.47
-4.73
-1.63
2.04
6.28
10.75
14.86
17.98
19.68
19.89
18.88
17.12
15.1
13.28
11.93
11.25
11.33
12.16
13.6
15.44
17.42
19.33
21.12
22.81
24.47
26.11
27.62
28.81
29.52
29.68
29.36
28.69
27.75
26.58
25.16
23.51
21.74
20.05
18.6
17.4
16.32
15.14
13.72
12.08
10.43
9.01
7.92
7.1
6.38
5.59
4.69
3.75
2.83
1.9
0.83
-0.45
-1.86
-3.15
-3.97
-4.05
-3.32
-1.81
0.47
3.78
8.56
15.18
23.62
33.18
42.63
50.58
56.05
58.78
59.27
58.39
56.94
55.34
53.53
51.23
48.2
44.48
40.3
35.97
31.64
27.27
22.73
18.05
13.46
9.5
6.74
5.53
5.77
6.89
8.09
8.64
8.18
6.82
4.98
3.14
1.6
0.42
-0.37
-0.81
-0.92
-0.98
-1.62
-3.74
-8.12
-14.99
-23.69
-32.91
-41.14
-47.27
-50.81
-51.9
-51.02
-48.85
-46.19
-43.98
-43.06
-43.75
-45.42
-46.45
-44.86
-39.23
-29.58
-17.5
-5.45
4.44
11.25
15.52
18.55
21.35
23.93
25.28
24.05
19.41
11.59
1.82
-8.16
-16.61
-22.19
-24.12
-22.17
-16.71
-8.72
0.42
9.28
17
23.51
29.46
35.58
42.04
48.07
52.27
53.41
51.19
46.69
42.02
39.37
39.85
42.84
46.04
46.53
42.15
32.6
19.5
5.65
-6.43
-15.57
-22.25
-27.94
-33.92
-40.42
-46.49
-50.62
-51.74
-49.87
-46.15
-42.28
-39.78
-39.37
-40.81
-43.11
-44.96
-45.34
-43.79
-40.6
-36.67
-33.19
-31.1
-30.79
-31.78
-32.83
-32.25
-28.46
-20.57
-8.79
5.46
19.83
31.69
38.93
40.58
37.17
30.62
23.81
19.69
20.33
25.97
34.63
42.6
45.81
41.57
29.92
13.7
-2.58
-14.65
-20.09
-18.98
-13.34
-5.83
1.42
7.37
11.89
15.24
17.54
18.58
18
15.47
10.95
4.77
-2.32
-9.26
-15.04
-19.01
-21.15
-21.97
-22.23
-22.45
-22.73
-22.67
-21.68
-19.45
-16.22
-12.78
-10.06
-8.62
-8.19
-7.73
-5.88
-1.66
4.95
12.94
20.75
26.9
30.48
31.37
29.95
26.82
22.66
18.24
14.51
12.49
12.74
14.95
17.71
18.85
16.38
9.35
-1.63
-14.65
-27.37
-38.06
-46.28
-52.74
-58.51
-63.96
-68.21
-69.52
-66.44
-58.98
-49.14
-40.19
-35.05
-34.64
-37.29
-39.46
-37.45
-29.13
-14.65
4.07
24.54
44.76
63.56
80.13
93.51
102.38
105.57
102.74
94.86
84.01
72.67
62.88
55.65
50.85
47.48
44.08
39.33
32.43
23.44
13.29
3.52
-4.32
-9.16
-10.85
-10.12
-8.27
-6.77
-6.84
-9.23
-14.06
-20.74
-28.1
-34.63
-38.88
-39.97
-37.88
-33.41
-27.8
-22.15
-17.05
-12.6
-8.65
-5.2
-2.53
-1.13
-1.5
-3.83
-7.91
-13
-18
-21.63
-22.79
-20.94
-16.32
-9.95
-3.31
2.3
6.26
8.8
10.69
12.5
14.02
14.06
10.93
3.32
-8.79
-23.79
-38.75
-50.27
-55.68
-53.8
-45.37
-32.64
-18.61
-6.18
2.52
6.33
5.05
-0.68
-9.4
-19.01
-27.09
-31.63
-31.91
-28.9
-25.07
-23.26
-25.35
-31.31
-39.09
-45.58
-48.09
-45.59
-39.13
-31.17
-24.29
-20.09
-18.61
-18.71
-18.93
-18.38
-17.11
-15.8
-15.05
-14.79
-14.19
-12.26
-8.52
-3.49
1.61
5.55
7.82
8.91
9.95
12.09
15.82
20.82
26.12
30.62
33.53
34.6
34.14
32.79
31.23
29.9
28.82
27.55
25.44
21.92
16.89
10.86
4.86
0.01
-2.89
-3.69
-2.8
-0.97
1.21
3.45
5.84
8.64
11.93
15.49
18.8
21.17
22.06
21.23
18.91
15.68
12.31
9.48
7.5
6.27
5.36
4.29
2.76
0.79
-1.39
-3.57
-5.74
-8.12
-11.05
-14.71
-18.97
-23.41
-27.45
-30.63
-32.84
-34.34
-35.64
-37.22
-39.25
-41.46
-43.2
-43.71
-42.48
-39.42
-34.96
-29.77
-24.53
-19.56
-14.73
-9.56
-3.46
3.95
12.61
21.97
31.1
39.1
45.31
49.58
52.19
53.69
54.56
54.99
54.86
53.73
51.03
46.23
38.97
29.31
17.86
5.93
-4.73
-12.41
-16.04
-15.67
-12.49
-8.23
-4.46
-1.94
-0.48
0.67
2.17
4.16
6.19
7.58
7.93
7.41
6.66
6.46
7.22
8.83
10.67
12.04
12.45
11.92
10.9
9.94
9.44
9.4
9.53
9.46
9.04
8.43
8.07
8.4
9.73
12.09
15.38
19.44
24.24
29.8
36.06
42.71
49.08
54.19
57.11
57.24
54.59
49.75
43.65
37.14
30.65
24.1
17.07
9.12
0.14
-9.48
-18.94
-27.24
-33.42
-36.7
-36.6
-33.02
-26.31
-17.34
-7.43
1.88
9.24
13.79
15.36
14.39
11.74
8.41
5.22
2.69
1.01
0.06
-0.45
-0.92
-1.74
-3.26
-5.78
-9.49
-14.39
-20.15
-26.06
-31.1
-34.29
-35.04
-33.49
-30.48
-27.2
-24.69
-23.44
-23.33
-23.82
-24.33
-24.53
-24.41
-24.16
-23.99
-23.9
-23.61
-22.5
-19.79
-14.89
-7.81
0.62
8.78
14.84
17.46
16.37
12.49
7.4
2.63
-1.03
-3.61
-5.67
-7.67
-9.64
-11.2
-11.9
-11.62
-10.69
-9.72
-9.22
-9.36
-9.88
-10.32
-10.34
-9.87
-9.1
-8.28
-7.57
-6.92
-6.2
-5.31
-4.31
-3.35
-2.54
-1.89
-1.27
-0.54
0.32
1.2
2
2.64
3.22
3.84
4.58
5.43
6.33
7.41
9.04
11.72
15.83
21.33
27.64
33.72
38.42
40.88
40.81
38.46
34.57
30.05
25.76
22.28
19.82
18.21
17
15.66
13.77
11.18
7.99
4.49
0.94
-2.5
-5.75
-8.69
-11.07
-12.51
-12.69
-11.55
-9.45
-7.15
-5.54
-5.44
-7.45
-11.8
-18.39
-26.6
-35.22
-42.54
-46.72
-46.4
-41.3
-32.48
-21.92
-11.73
-3.32
3.08
8.16
12.89
17.92
23.25
28.53
33.39
37.81
42.04
46.38
50.79
54.85
57.91
59.4
59.04
56.86
53.1
48.02
41.86
34.84
27.32
19.71
12.47
5.92
0.12
-5.05
-9.85
-14.45
-18.76
-22.34
-24.45
-24.23
-21.18
-15.49
-8.21
-1.07
4.14
6.27
5.24
2.07
-1.71
-4.72
-6.2
-6.19
-5.27
-4.08
-3.07
-2.46
-2.3
-2.64
-3.55
-5.02
-6.82
-8.54
-9.74
-10.1
-9.65
-8.8
-8.16
-8.28
-9.37
-11.24
-13.34
-15.11
-16.2
-16.66
-16.83
-17.15
-17.96
-19.34
-21.17
-23.27
-25.44
-27.53
-29.46
-31.14
-32.49
-33.36
-33.49
-32.5
-29.95
-25.43
-18.89
-10.84
-2.38
5.01
9.95
11.6
10.04
6.19
1.49
-2.59
-4.96
-5.12
-3.18
0.23
4.05
6.93
7.58
5.11
-0.49
-8.3
-16.68
-23.84
-28.49
-30.09
-28.93
-25.84
-21.91
-18.21
-15.63
-14.64
-15.05
-15.94
-15.89
-13.59
-8.53
-1.41
6.15
12.32
16.07
17.63
18.19
19.07
20.78
22.64
22.96
19.91
12.37
0.37
-14.78
-30.92
-45.52
-56.34
-61.81
-61.43
-55.87
-46.74
-36.09
-25.76
-16.88
-9.81
-4.43
-0.54
1.92
3.2
4.25
6.79
12.72
23.1
37.18
52.36
65.23
73
74.62
70.99
64.15
56.38
49.58
45.07
43.66
45.4
49.27
53.04
53.87
49.56
39.83
26.86
14.29
5.42
1.57
1.59
2.87
2.93
0.73
-3.36
-8.4
-13.99
-20.58
-28.93
-38.95
-49.13
-56.81
-59.51
-56.39
-48.97
-40.49
-34.36
-32.48
-34.57
-38.78
-42.99
-46.18
-48.8
-52.18
-57.45
-64.62
-72.5
-79.31
-83.6
-84.91
-83.8
-81.33
-78.53
-75.9
-73.53
-71.22
-68.81
-66.26
-63.64
-61.02
-58.33
-55.32
-51.61
-46.77
-40.53
-32.9
-24.29
-15.33
-6.68
1.28
8.64
15.87
23.62
32.27
41.72
51.32
60.1
67.08
71.65
73.78
74.02
73.41
73.23
74.66
78.44
84.64
92.45
100.41
106.67
109.61
108.39
103.32
95.77
87.75
81.17
77.14
75.64
75.64
75.67
74.53
71.73
67.54
62.63
57.59
52.6
47.46
41.83
35.59
28.95
22.43
16.64
12.15
9.27
7.97
7.9
8.36
8.45
7.33
4.47
-0.2
-6.24
-12.96
-19.62
-25.67
-30.71
-34.47
-36.67
-37.24
-36.55
-35.6
-35.92
-39.04
-45.77
-55.47
-65.99
-74.17
-76.91
-72.37
-60.54
-43.16
-22.82
-2.01
17.51
34.69
48.78
58.99
64.61
65.46
62.36
57.12
51.91
48.31
46.51
45.18
42.2
35.82
25.59
12.72
-0.5
-11.7
-19.48
-23.87
-26.15
-28.04
-30.85
-34.86
-39.25
-42.71
-44.22
-43.72
-42.22
-41.43
-43.02
-47.97
-56.17
-66.43
-76.93
-85.7
-91.13
-92.27
-88.92
-81.62
-71.4
-59.65
-47.8
-37
-27.93
-20.65
-14.74
-9.63
-4.85
-0.27
3.96
7.64
10.66
13.1
15.19
17.18
19.21
21.36
23.67
26.22
29.07
32.2
35.46
38.56
41.13
42.83
43.45
42.96
41.54
39.61
37.67
36.17
35.32
35
34.74
34.03
32.52
30.21
27.48
24.78
22.5
20.72
19.26
17.87
16.42
14.96
13.66
12.67
11.96
11.33
10.53
9.39
7.91
6.22
4.53
3.13
2.38
2.73
4.61
8.18
13.18
18.84
24.11
28.11
30.45
31.45
31.87
32.51
33.73
35.24
36.22
35.64
32.69
27.13
19.29
10.07
0.63
-7.83
-14.27
-18.15
-19.49
-18.95
-17.63
-16.66
-16.76
-17.97
-19.68
-20.95
-21.12
-20.08
-18.35
-16.74
-15.85
-15.83
-16.37
-17.04
-17.63
-18.31
-19.45
-21.23
-23.41
-25.29
-25.93
-24.55
-20.84
-15.19
-8.53
-2.11
2.86
5.63
6.09
4.75
2.45
-0.05
-2.41
-4.68
-7.15
-9.9
-12.66
-14.84
-15.8
-15.29
-13.53
-11.15
-8.89
-7.28
-6.5
-6.39
-6.62
-6.82
-6.8
-6.51
-6.13
-5.92
-6.14
-6.89
-8.06
-9.3
-10.15
-10.17
-9
-6.42
-2.39
2.98
9.33
16.06
22.4
27.53
30.8
31.94
31.09
28.76
25.54
21.91
18.06
13.91
9.31
4.27
-0.99
-6.01
-10.37
-13.87
-16.63
-18.99
-21.3
-23.69
-26.02
-28.04
-29.6
-30.77
-31.8
-32.95
-34.23
-35.3
-35.6
-34.6
-32.11
-28.4
-24.08
-19.96
-16.67
-14.44
-13.12
-12.27
-11.4
-10.25
-8.81
-7.35
-6.26
-5.83
-6.18
-7.16
-8.44
-9.62
-10.27
-10.01
-8.59
-6.02
-2.68
0.69
3.18
4.05
3.12
0.89
-1.68
-3.49
-3.7
-2.06
1.09
4.8
7.74
8.58
6.42
1.29
-5.59
-12.15
-16.15
-16.11
-12.03
-5.32
1.78
7.25
9.95
9.85
7.63
4.19
0.24
-3.76
-7.55
-10.97
-13.99
-16.79
-19.65
-22.69
-25.72
-28.23
-29.7
-29.93
-29.18
-27.97
-26.69
-25.42
-24
-22.34
-20.65
-19.32
-18.58
-18.2
-17.59
-16.4
-15.05
-14.76
-16.93
-22.08
-29.18
-35.75
-38.95
-36.88
-29.49
-18.47
-6.32
4.74
13.52
19.81
23.92
26.15
26.61
25.45
23.22
20.95
19.9
21.04
24.54
29.65
34.92
38.82
40.35
39.35
36.46
32.72
29.08
26
23.36
20.65
17.3
12.97
7.76
2.1
-3.42
-8.31
-12.29
-15.32
-17.5
-18.98
-19.89
-20.33
-20.33
-19.72
-18.11
-14.81
-9
-0.09
11.96
26.39
41.73
56.11
67.86
76.01
80.5
82.14
82.06
81.29
80.26
78.7
75.84
70.78
63.01
52.72
40.8
28.69
17.85
9.38
3.65
0.33
-1.41
-2.52
-3.66
-4.98
-6.1
-6.24
-4.57
-0.51
5.98
14.29
23.09
30.53
34.59
33.57
26.7
14.45
-1.38
-18.12
-32.86
-43.26
-47.99
-47
-41.39
-33.1
-24.44
-17.56
-13.99
-14.39
-18.63
-25.97
-35.46
-46.05
-56.53
-65.51
-71.47
-73.12
-69.81
-61.77
-50.02
-35.94
-20.87
-5.94
7.99
20.29
30.58
38.86
45.46
50.92
55.68
59.88
63.34
65.78
66.98
66.7
64.54
59.87
52.13
41.36
28.66
16.11
6.02
-0.01
-1.87
-0.93
0.64
0.94
-0.9
-4.51
-8.82
-12.82
-16.21
-19.52
-23.66
-29.32
-36.48
-44.43
-52.23
-59.21
-65.25
-70.59
-75.3
-78.92
-80.4
-78.6
-72.89
-63.61
-52.02
-39.8
-28.36
-18.37
-9.75
-2.06
5.04
11.53
17.02
21.2
24.13
26.43
29
32.61
37.38
42.66
47.25
49.82
49.58
46.55
41.52
35.73
30.33
25.98
22.68
19.95
17.07
13.38
8.36
1.71
-6.77
-17.03
-28.61
-40.44
-50.9
-58.11
-60.57
-57.71
-50.2
-39.66
-28.12
-17.36
-8.53
-2.11
1.8
3.36
2.84
0.81
-1.91
-4.34
-5.7
-5.66
-4.55
-3.04
-1.83
-1.23
-1.08
-0.88
-0.12
1.4
3.52
5.77
7.7
9.01
9.68
9.93
10.1
10.44
11.08
12.05
13.26
14.66
16.19
17.78
19.33
20.67
21.65
22.19
22.38
22.41
22.46
22.57
22.61
22.26
21.27
19.54
17.28
14.86
12.65
10.89
9.57
8.5
7.42
6.14
4.6
2.81
0.88
-1.07
-2.97
-4.79
-6.6
-8.57
-10.88
-13.72
-17.15
-21.09
-25.33
-29.58
-33.51
-36.82
-39.16
-40.23
-39.76
-37.67
-34.13
-29.57
-24.56
-19.68
-15.25
-11.3
-7.65
-4.08
-0.47
3.11
6.62
10.12
13.93
18.4
23.65
29.28
34.47
38.39
40.68
41.79
42.64
43.97
45.64
46.48
44.83
39.53
30.64
19.45
7.82
-2.7
-11.4
-18.2
-23.17
-26.08
-26.61
-24.86
-21.74
-18.83
-17.6
-18.54
-20.86
-22.85
-22.85
-20.13
-15.11
-8.98
-2.94
2.34
6.77
10.52
13.64
15.86
16.73
15.79
12.78
7.67
0.62
-7.96
-17.31
-26.34
-33.62
-37.72
-37.6
-32.88
-23.96
-11.9
1.84
15.64
27.95
37.45
43.3
45.24
43.73
39.79
34.69
29.6
25.22
21.74
18.94
16.44
13.91
11.23
8.43
5.64
3.03
0.76
-1.02
-2.26
-3.01
-3.5
-4.02
-4.87
-6.21
-7.85
-9.35
-9.99
-9.04
-6
-0.78
6.18
14.01
21.58
27.79
31.82
33.36
32.6
30.17
26.82
23.18
19.47
15.48
10.74
4.75
-2.69
-11.32
-20.42
-29.08
-36.47
-42.08
-45.77
-47.74
-48.32
-47.81
-46.4
-44.21
-41.33
-37.91
-34.15
-30.25
-26.32
-22.35
-18.27
-13.97
-9.46
-4.89
-0.57
3.18
6.15
8.39
10.14
11.79
13.72
16.1
18.88
21.84
24.64
26.99
28.69
29.66
29.93
29.58
28.7
27.43
25.88
24.18
22.47
20.85
19.41
18.18
17.15
16.23
15.27
14.11
12.64
10.8
8.65
6.28
3.87
1.56
-0.52
-2.29
-3.76
-5.06
-6.35
-7.85
-9.69
-11.91
-14.4
-16.91
-19.13
-20.88
-22.18
-23.27
-24.42
-25.69
-26.81
-27.1
-25.74
-22.1
-16.1
-8.44
-0.48
6.19
10.31
11.42
10.08
7.61
5.56
5.17
7
10.8
15.73
20.69
24.68
27.04
27.49
26.11
23.12
18.79
13.38
7.14
0.53
-5.77
-10.85
-13.86
-14.33
-12.44
-9.15
-5.89
-4.25
-5.57
-10.72
-19.99
-33.01
-48.47
-63.98
-76.31
-82.16
-79.31
-67.74
-49.98
-30.2
-12.44
1.16
11.14
19.86
29.67
41.19
52.83
61.75
65.72
64.36
59.35
53.22
47.98
44.26
41.67
39.67
38.33
38.14
39.18
40.28
39.04
32.9
20.63
3.25
-16.11
-33.48
-45.71
-51.64
-52.21
-49.53
-45.7
-41.88
-38.19
-34.13
-29.35
-23.99
-18.73
-14.46
-11.89
-11.25
-12.31
-14.5
-17.06
-19.12
-19.81
-18.47
-14.92
-9.69
-4.1
0.12
1.48
-0.69
-5.87
-12.56
-18.98
-23.77
-26.48
-27.59
-28.07
-28.87
-30.51
-33.03
-36.09
-39.26
-42.17
-44.56
-46.28
-47.24
-47.35
-46.57
-44.86
-42.27
-38.89
-34.87
-30.41
-25.7
-20.88
-16.04
-11.23
-6.44
-1.62
3.3
8.38
13.57
18.69
23.39
27.29
30.18
32.17
33.73
35.53
38.16
41.94
46.87
52.69
59.03
65.44
71.39
76.25
79.4
80.42
79.22
76.13
71.65
66.23
60.01
52.78
44.27
34.41
23.54
12.4
1.8
-7.55
-15.31
-21.49
-26.28
-29.95
-32.66
-34.56
-35.78
-36.57
-37.22
-37.96
-38.87
-39.78
-40.39
-40.45
-39.97
-39.3
-39.09
-39.91
-41.98
-44.9
-47.72
-49.2
-48.34
-44.71
-38.6
-30.91
-22.89
-15.85
-10.92
-8.82
-9.61
-12.57
-16.3
-19.06
-19.42
-16.79
-11.68
-5.49
0.18
4.13
6.09
6.61
6.72
7.4
9.22
12.29
16.38
21.1
26.02
30.73
34.81
37.89
39.8
40.75
41.4
42.69
45.53
50.46
57.3
65.17
72.72
78.5
81.41
80.99
77.4
71.4
63.97
56.04
48.21
40.57
32.77
24.27
14.67
4.05
-6.89
-16.99
-25.01
-30.09
-32.01
-31.19
-28.51
-24.91
-21.06
-17.26
-13.54
-9.81
-6.11
-2.67
0.15
2.01
2.78
2.71
2.38
2.45
3.44
5.46
8.25
11.27
13.98
16
17.13
17.22
16.16
13.94
10.77
7.24
4.17
2.24
1.69
2.03
2.34
1.69
-0.37
-3.59
-7.2
-10.44
-12.91
-14.84
-16.79
-19.31
-22.61
-26.44
-30.29
-33.6
-36.06
-37.61
-38.47
-39.12
-40.29
-42.73
-46.93
-52.77
-59.36
-65.27
-69.09
-69.94
-67.78
-63.18
-57.04
-50.4
-44.43
-40.45
-39.68
-42.69
-48.69
-55.4
-59.57
-58.17
-49.57
-34.12
-13.79
8.79
31.2
51.75
69.31
83.09
92.43
97.07
97.35
94.3
89.33
83.7
78.1
72.56
66.7
60.2
53.15
46.13
39.94
35.23
32.2
30.59
29.82
29.3
28.59
27.48
25.94
23.97
21.68
19.19
16.74
14.6
13
12.02
11.47
10.95
9.98
8.16
5.36
1.79
-2.04
-5.46
-7.81
-8.66
-7.87
-5.66
-2.46
1.22
4.96
8.47
11.63
14.42
16.81
18.75
20.07
20.51
19.79
17.6
13.79
8.38
1.71
-5.6
-12.74
-18.86
-23.25
-25.52
-25.59
-23.72
-20.5
-16.71
-13.24
-10.84
-9.91
-10.4
-11.8
-13.36
-14.4
-14.56
-13.76
-12.14
-9.92
-7.34
-4.87
-3.23
-3.19
-5.14
-8.68
-12.61
-15.38
-16.07
-15.11
-14.47
-16.81
-24.07
-36.19
-50.74
-63.81
-71.66
-72.22
-65.71
-54.29
-41.04
-28.94
-20.3
-16.38
-17.24
-21.63
-27.16
-30.74
-29.61
-22.34
-9.44
6.82
23.41
37.73
48.43
55.48
59.61
61.75
62.53
62.25
61.13
59.26
56.7
53.32
48.99
43.7
37.79
31.76
25.93
20.14
13.75
6.11
-2.84
-12.19
-20.2
-25.03
-25.64
-22.42
-17.12
-12.25
-9.93
-11
-14.74
-19.21
-22.2
-22.12
-18.7
-12.9
-6.44
-0.87
3.1
5.66
7.47
8.96
9.86
9.24
6.04
-0.48
-10.29
-22.69
-36.4
-49.81
-61.15
-68.73
-71.19
-67.83
-58.82
-45.21
-28.78
-11.53
4.69
18.6
29.53
37.4
42.47
45.13
45.83
44.99
43.05
40.49
37.72
35.04
32.52
30.05
27.42
24.46
21.11
17.5
13.8
10.23
6.92
3.88
0.97
-2.04
-5.36
-9.14
-13.41
-18.23
-23.81
-30.51
-38.6
-47.78
-56.95
-64.23
-67.69
-66.12
-59.7
-49.99
-39.28
-29.64
-22.15
-16.78
-12.75
-9.29
-6.08
-3.35
-1.59
-1.11
-1.86
-3.46
-5.48
-7.66
-9.97
-12.48
-15.16
-17.69
-19.54
-20.13
-19.07
-16.39
-12.49
-8.06
-3.83
-0.37
2.01
3.34
3.9
4.11
4.35
4.83
5.52
6.2
6.65
6.74
6.61
6.58
6.95
7.9
9.28
10.78
12.03
12.77
13
12.9
12.71
12.63
12.72
12.94
13.14
13.2
13.05
12.67
12.17
11.72
11.51
11.7
12.24
12.91
13.35
13.16
12.1
10.22
7.85
5.57
3.92
3.18
3.22
3.56
3.53
2.68
0.98
-1.07
-2.69
-3.04
-1.56
1.97
7.41
14.32
21.89
29
34.35
36.91
36.32
33.25
29.2
25.98
24.9
26.27
29.31
32.6
34.73
34.94
33.27
30.43
27.36
24.83
23.16
22.25
21.67
20.94
19.73
17.9
15.49
12.6
9.35
5.98
2.97
1.04
0.9
2.88
6.49
10.39
12.81
12.32
8.52
2.23
-4.79
-10.66
-14.12
-14.96
-13.83
-11.87
-10.18
-9.61
-10.67
-13.53
-17.94
-23.17
-28.07
-31.47
-32.6
-31.53
-29.14
-26.74
-25.44
-25.75
-27.46
-29.92
-32.44
-34.58
-36.16
-37.11
-37.3
-36.58
-34.89
-32.34
-29.24
-25.82
-22.09
-17.8
-12.61
-6.38
0.55
7.4
13.19
17.16
19.09
19.36
18.74
17.98
17.56
17.51
17.57
17.39
16.74
15.66
14.3
12.85
11.37
9.73
7.74
5.24
2.29
-0.84
-3.77
-6.11
-7.58
-7.94
-6.95
-4.39
-0.18
5.39
11.54
17.15
21.07
22.58
21.59
18.67
14.74
10.66
6.98
3.84
1.09
-1.54
-4.3
-7.35
-10.82
-14.79
-19.29
-24.25
-29.44
-34.5
-38.96
-42.34
-44.28
-44.62
-43.48
-41.18
-38.16
-34.79
-31.26
-27.6
-23.71
-19.52
-15.12
-10.81
-7.04
-4.21
-2.48
-1.67
-1.25
-0.61
0.71
2.82
5.5
8.3
10.84
12.97
14.75
16.32
17.7
18.78
19.35
19.29
18.72
17.96
17.39
17.16
17.16
17.02
16.31
14.86
12.79
10.48
8.37
6.74
5.54
4.48
3.2
1.53
-0.33
-1.75
-1.92
-0.28
3.19
7.69
11.83
14.12
13.57
10.1
4.5
-1.84
-7.45
-11.09
-12.03
-10.17
-6.18
-1.45
2.14
2.87
-0.16
-6.51
-14.51
-21.91
-26.79
-28.36
-27.18
-24.74
-22.64
-21.92
-22.71
-24.35
-25.81
-26.16
-24.93
-22.38
-19.47
-17.55
-17.8
-20.6
-25.2
-29.89
-32.5
-31.24
-25.19
-14.49
-0.02
17.01
35.39
53.95
71.38
86.15
96.66
101.66
100.76
94.68
85.24
74.93
66.22
60.67
58.4
57.99
57.1
53.45
45.86
34.67
21.45
8.23
-3.39
-12.6
-19.26
-23.47
-25.3
-24.9
-22.75
-19.9
-17.67
-17.16
-18.67
-21.57
-24.68
-26.86
-27.59
-27.12
-26.2
-25.56
-25.51
-25.79
-25.77
-24.88
-22.89
-20.09
-17.14
-14.77
-13.39
-12.99
-13.08
-13
-12.15
-10.29
-7.62
-4.65
-1.99
-0.09
0.87
0.91
0.15
-1.28
-3.23
-5.41
-7.34
-8.46
-8.32
-6.88
-4.55
-2.06
-0.09
1.02
1.36
1.33
1.3
1.44
1.65
1.77
1.69
1.45
1.2
0.98
0.7
0.1
-1.04
-2.81
-5.09
-7.57
-9.88
-11.78
-13.19
-14.24
-15.22
-16.46
-18.27
-20.8
-24.05
-27.75
-31.44
-34.54
-36.43
-36.68
-35.14
-32.06
-28.02
-23.82
-20.27
-17.93
-16.99
-17.22
-18.2
-19.45
-20.7
-21.87
-23.01
-24.12
-25.04
-25.5
-25.22
-24.05
-21.93
-18.81
-14.75
-9.95
-5.07
-1.15
0.6
-0.62
-4.66
-10.33
-15.75
-19.22
-19.86
-17.9
-14.34
-10.21
-6
-1.48
3.86
10.31
17.53
24.58
30.42
34.38
36.57
37.76
39.01
41.17
44.49
48.6
52.69
55.86
57.43
57.12
55
51.4
46.71
41.22
35.12
28.45
21.25
13.66
5.98
-1.29
-7.63
-12.53
-15.67
-16.98
-16.6
-14.83
-12.04
-8.62
-4.9
-1.12
2.55
6
9.11
11.74
13.8
15.24
16.17
16.75
17.25
17.84
18.64
19.61
20.65
21.6
22.34
22.78
22.85
22.51
21.76
20.64
19.23
17.63
15.92
14.21
12.62
11.28
10.3
9.7
9.36
9.03
8.47
7.54
6.31
5.01
3.9
3.09
2.47
1.81
0.82
-0.62
-2.52
-4.71
-7.05
-9.41
-11.74
-14
-16.15
-18.13
-19.9
-21.46
-22.83
-24.03
-24.93
-25.3
-24.83
-23.26
-20.45
-16.53
-11.8
-6.7
-1.65
3.06
7.3
11.12
14.62
17.89
20.91
23.54
25.57
26.81
27.18
26.75
25.75
24.49
23.33
22.51
22.16
22.19
22.36
22.3
21.68
20.29
18.15
15.44
12.43
9.38
6.42
3.66
1.13
-1.11
-3.05
-4.71
-6.16
-7.54
-8.93
-10.3
-11.57
-12.63
-13.42
-14
-14.52
-15.12
-15.93
-16.98
-18.25
-19.62
-20.93
-21.88
-22.11
-21.16
-18.61
-14.18
-7.93
-0.28
7.96
15.81
22.35
26.86
29.04
28.88
26.63
22.66
17.4
11.33
4.81
-2.04
-9.52
-18.26
-28.88
-41.42
-54.94
-67.45
-76.52
-80.16
-77.58
-69.58
-58.18
-45.88
-34.85
-26.37
-20.81
-17.82
-16.72
-16.78
-17.37
-18
-18.4
-18.43
-18.17
-17.83
-17.72
-18.25
-19.79
-22.55
-26.4
-30.91
-35.4
-39.22
-42.07
-44.11
-45.87
-47.98
-50.76
-54.07
-57.27
-59.53
-60.08
-58.53
-54.87
-49.37
-42.43
-34.42
-25.53
-15.86
-5.47
5.42
16.42
26.93
36.32
44.09
50.09
54.53
57.85
60.43
62.42
63.62
63.7
62.48
60.16
57.45
55.31
54.68
56.12
59.68
65.02
71.54
78.52
85.14
90.46
93.55
93.79
91.18
86.42
80.67
74.98
69.77
64.65
58.7
51.13
41.88
31.79
22.25
14.48
8.94
5.19
2.25
-0.75
-4.1
-7.51
-10.32
-11.89
-11.94
-10.52
-7.9
-4.37
-0.25
4.1
8.23
11.65
13.99
15.19
15.48
15.29
15
14.83
14.77
14.72
14.6
14.48
14.49
14.7
15.13
15.7
16.4
17.35
18.89
21.36
24.88
29.11
33.24
36.12
36.64
34.09
28.3
19.69
9.11
-2.33
-13.45
-23.11
-30.43
-34.99
-36.93
-37
-36.29
-35.84
-36.31
-37.81
-40.06
-42.6
-44.99
-46.83
-47.71
-47.04
-44.3
-39.34
-32.71
-25.74
-20.13
-17.27
-17.64
-20.48
-24.08
-26.39
-25.77
-21.48
-13.98
-4.73
4.22
10.85
13.89
13.28
10.24
6.84
5.21
6.64
11.12
17.4
23.61
28.09
30.03
29.64
27.79
25.51
23.43
21.56
19.47
16.61
12.75
8.14
3.45
-0.58
-3.55
-5.55
-7.14
-9.02
-11.71
-15.25
-19.23
-23
-25.89
-27.49
-27.7
-26.74
-25.03
-23.15
-21.71
-21.28
-22.23
-24.64
-28.21
-32.22
-35.7
-37.73
-37.7
-35.54
-31.77
-27.28
-22.99
-19.54
-17.17
-15.7
-14.74
-13.9
-12.85
-11.39
-9.45
-7.06
-4.38
-1.7
0.72
2.67
4.13
5.19
6.01
6.72
7.41
8.14
9
10.09
11.4
12.78
13.89
14.31
13.78
12.29
10.13
7.77
5.67
4.14
3.28
2.97
3.02
3.19
3.24
2.97
2.22
0.91
-0.94
-3.19
-5.56
-7.75
-9.52
-10.79
-11.68
-12.47
-13.47
-14.91
-16.82
-19.06
-21.39
-23.54
-25.26
-26.37
-26.68
-26.01
-24.26
-21.41
-17.62
-13.13
-8.24
-3.26
1.49
5.69
8.98
11.06
11.72
10.98
9.11
6.54
3.8
1.34
-0.62
-2.06
-3.13
-4.02
-4.89
-5.81
-6.84
-8.09
-9.75
-12.06
-15.2
-19.11
-23.46
-27.67
-31.08
-33.18
-33.75
-32.89
-30.96
-28.41
-25.71
-23.21
-21.17
-19.74
-18.99
-18.92
-19.45
-20.45
-21.74
-23.28
-25.13
-27.51
-30.57
-34.32
-38.43
-42.27
-45.03
-45.89
-44.28
-40.07
-33.59
-25.56
-16.89
-8.4
-0.55
6.64
13.51
20.42
27.4
33.92
39.01
41.65
41.2
37.7
31.79
24.4
16.41
8.46
1.06
-5.17
-9.5
-11.36
-10.78
-8.7
-6.83
-6.93
-9.92
-15.33
-21.36
-25.61
-26.18
-22.45
-15.3
-6.6
1.57
7.74
11.39
12.88
12.96
12.37
11.49
10.32
8.6
6.07
2.71
-1.21
-5.21
-8.77
-11.56
-13.36
-14.05
-13.41
-11.03
-6.42
0.74
10.36
21.92
34.56
47.4
59.71
70.99
80.8
88.59
93.6
94.97
92.12
85.11
74.87
63.12
51.96
43.28
38.25
36.99
38.68
41.88
45.03
46.84
46.59
44.09
39.68
34.02
28.02
22.58
18.5
16.22
15.7
16.54
18.11
19.83
21.3
22.36
22.96
23.13
22.9
22.29
21.29
19.93
18.16
15.88
12.99
9.34
4.88
-0.38
-6.24
-12.33
-18.12
-23.1
-27.08
-30.21
-32.95
-35.74
-38.7
-41.61
-44.17
-46.29
-48.32
-50.8
-54.1
-58.07
-62.03
-65.15
-66.82
-66.92
-65.72
-63.61
-61.08
-58.77
-57.6
-58.51
-61.87
-66.8
-71.07
-71.69
-66.14
-53.5
-34.89
-13
8.96
28.38
43.83
55.09
62.69
67.55
70.6
72.79
74.97
77.71
81.13
84.64
87.09
87.04
83.29
75.24
63.22
48.44
32.82
18.63
7.96
2.16
1.39
4.51
9.4
13.71
15.73
14.98
12.16
8.62
5.52
3.2
1.15
-1.51
-5.35
-10.23
-15.33
-19.67
-22.63
-24.27
-25.31
-26.69
-29.16
-32.94
-37.65
-42.44
-46.34
-48.53
-48.62
-46.8
-43.66
-40.05
-36.66
-33.84
-31.49
-29.2
-26.48
-22.94
-18.37
-12.88
-6.98
-1.67
1.7
1.91
-1.54
-7.93
-15.31
-21.04
-22.82
-19.59
-12.03
-2.38
6.48
12.06
13.15
10.09
4.46
-1.79
-7.19
-11.17
-14.08
-16.59
-19.04
-21.17
-22.47
-22.72
-22.43
-22.63
-24.07
-26.51
-28.52
-28.12
-23.9
-16
-6.22
2.71
8.45
9.94
7.7
3.3
-1.58
-5.88
-9.44
-12.71
-16.19
-20.06
-24.04
-27.59
-30.24
-31.85
-32.59
-32.71
-32.3
-31.09
-28.58
-24.29
-18.08
-10.36
-1.99
6.01
12.89
18.44
23.07
27.49
32.49
38.55
45.82
54.18
63.19
72.11
79.85
85.18
87.09
85.39
80.87
75.12
69.82
65.9
63.21
60.72
57.37
52.7
47.11
41.41
36.13
30.98
24.96
17.03
6.8
-5.11
-17.21
-27.78
-35.5
-39.9
-41.3
-40.51
-38.42
-35.8
-33.17
-30.96
-29.5
-29.02
-29.62
-31.1
-33.05
-34.9
-36.18
-36.63
-36.29
-35.5
-34.72
-34.35
-34.6
-35.49
-36.81
-38.19
-39.18
-39.25
-37.94
-34.87
-29.88
-23.06
-14.79
-5.65
3.68
12.56
20.61
27.75
34.25
40.55
47.07
53.96
60.96
67.46
72.71
76.05
77.12
76
73.09
69.04
64.59
60.5
57.38
55.57
54.95
54.96
54.75
53.5
50.76
46.56
41.42
36.09
31.19
27.06
23.63
20.61
17.68
14.66
11.59
8.66
6.15
4.26
3.05
2.4
2.11
1.99
1.88
1.67
1.26
0.53
-0.64
-2.4
-4.77
-7.72
-11.06
-14.46
-17.51
-19.8
-21.1
-21.47
-21.31
-21.28
-21.97
-23.79
-26.76
-30.65
-35.11
-39.76
-44.14
-47.61
-49.31
-48.35
-44.13
-36.69
-26.82
-15.81
-4.99
4.64
12.52
18.37
21.95
22.89
20.89
15.93
8.64
0.29
-7.52
-13.19
-15.67
-14.69
-10.81
-5.3
0.18
3.98
4.98
2.9
-1.46
-6.54
-10.5
-11.92
-10.31
-6.22
-0.88
4.31
8.27
10.42
10.48
8.25
3.5
-3.86
-13.5
-24.48
-35.45
-45.06
-52.39
-57.24
-60.01
-61.3
-61.58
-60.99
-59.42
-56.73
-52.98
-48.45
-43.64
-39.14
-35.54
-33.25
-32.42
-32.8
-33.77
-34.43
-33.84
-31.29
-26.49
-19.64
-11.36
-2.41
6.45
14.68
21.98
28.27
33.56
37.86
41.1
43.24
44.38
44.79
44.95
45.3
46.1
47.33
48.65
49.63
49.92
49.38
48.07
46.22
44.01
41.52
38.76
35.65
32.21
28.6
25.12
22.15
19.94
18.49
17.48
16.35
14.57
11.87
8.33
4.41
0.61
-2.68
-5.41
-7.76
-10.03
-12.42
-15.02
-17.83
-20.8
-23.87
-26.87
-29.4
-30.95
-30.97
-29.21
-25.79
-21.24
-16.19
-11.09
-6.08
-1.02
4.19
9.4
14.03
17.28
18.4
16.98
13.09
7.34
0.79
-5.25
-9.49
-11.01
-9.61
-5.91
-1.17
3.13
5.92
6.83
6.33
5.42
5.15
6.21
8.69
12.03
15.26
17.46
18.27
18.17
18.36
20.2
24.45
30.74
37.6
43.02
45.26
43.47
37.94
29.77
20.38
10.96
2.13
-6.12
-14.25
-22.87
-32.48
-43.44
-55.91
-70
-85.55
-101.84
-117.22
-129.07
-134.44
-131.12
-118.78
-99.33
-76.44
-54.12
-35.31
-21.11
-10.88
-3.09
3.75
10.54
17.62
24.94
32.4
39.81
46.81
52.7
56.62
57.82
56.08
51.88
46.31
40.69
36.03
32.72
30.35
27.95
24.29
18.47
10.31
0.61
-9.01
-16.54
-20.35
-19.76
-15.23
-8.16
-0.21
7.16
13.15
17.52
20.39
21.99
22.51
22.16
21.17
19.8
18.24
16.62
14.96
13.23
11.36
9.27
6.8
3.81
0.2
-3.93
-8.32
-12.64
-16.69
-20.49
-24.23
-28.04
-31.79
-34.94
-36.73
-36.48
-33.85
-29.08
-22.86
-16.12
-9.65
-3.92
1.02
5.38
9.45
13.39
17.09
20.24
22.45
23.46
23.29
22.29
21.01
19.98
19.47
19.41
19.45
19.15
18.25
16.76
14.95
13.21
11.79
10.68
9.56
7.97
5.53
2.26
-1.23
-3.84
-4.32
-1.85
3.43
10.25
16.5
20.08
19.61
14.97
7.13
-2.27
-11.62
-19.62
-25.49
-28.95
-30.26
-30.36
-30.88
-33.61
-39.79
-49.25
-60.2
-69.85
-75.64
-76.5
-73.29
-68.32
-64.12
-62.22
-62.63
-64.1
-64.99
-64.04
-60.76
-55.25
-47.8
-38.6
-27.7
-15.28
-1.85
11.74
24.52
35.8
45.42
53.77
61.58
69.54
78.03
86.93
95.66
103.23
108.55
110.67
109.02
103.55
94.69
83.26
70.24
56.62
43.21
30.65
19.33
9.31
0.18
-8.86
-18.83
-30.4
-43.43
-56.68
-67.97
-74.97
-76.03
-71
-61.28
-49.35
-37.83
-28.51
-21.96
-17.72
-15.04
-13.52
-13.45
-15.46
-19.87
-26.15
-32.85
-38.16
-40.75
-40.42
-38.06
-35.19
-33.05
-31.93
-31.07
-29.15
-25.05
-18.41
-9.81
-0.33
8.94
17.38
24.89
31.66
37.85
43.37
47.9
51.06
52.7
52.95
52.27
51.23
50.42
50.26
50.9
52.19
53.66
54.7
54.77
53.63
51.43
48.72
46.12
44.08
42.61
41.3
39.47
36.5
32.11
26.5
20.25
14.15
8.88
4.82
1.99
0.11
-1.24
-2.42
-3.69
-5.13
-6.71
-8.33
-9.93
-11.49
-13.06
-14.72
-16.52
-18.5
-20.61
-22.8
-25.02
-27.19
-29.22
-30.96
-32.28
-33.11
-33.5
-33.57
-33.49
-33.41
-33.44
-33.62
-33.91
-34.18
-34.15
-33.4
-31.52
-28.25
-23.68
-18.27
-12.74
-7.78
-3.82
-0.9
1.22
2.94
4.63
6.52
8.64
10.79
12.61
13.67
13.72
12.88
11.68
10.95
11.43
13.4
16.44
19.59
21.67
21.72
19.27
14.32
7.27
-1.2
-10.05
-17.92
-23.23
-24.66
-21.65
-14.86
-6.05
2.49
8.81
11.93
12
9.74
5.87
0.64
-5.86
-13.18
-19.96
-24.05
-23.29
-16.69
-5.06
9.08
22.51
32.69
38.6
40.91
41.3
41.48
42.4
44.03
45.62
46.15
44.77
41.11
35.36
28.16
20.51
13.42
7.59
3.26
0.16
-2.19
-4.23
-6.03
-7.28
-7.45
-6.06
-2.9
1.8
7.47
13.24
18.19
21.57
22.95
22.38
20.39
17.77
15.33
13.63
12.86
12.85
13.25
13.7
13.94
13.85
13.36
12.4
10.78
8.18
4.14
-1.9
-10.35
-21.24
-33.97
-47.23
-59.17
-67.87
-71.88
-70.69
-64.84
-55.76
-45.2
-34.77
-25.58
-18.16
-12.61
-8.84
-6.69
-5.93
-6.26
-7.29
-8.58
-9.78
-10.66
-11.17
-11.34
-11.28
-11.13
-11.07
-11.3
-11.97
-13.03
-14.04
-14.23
-12.69
-8.72
-2.2
6.37
16.01
25.66
34.52
42.15
48.36
53
56
57.43
57.69
57.43
57.18
56.91
55.9
53.12
47.92
40.42
31.58
22.61
14.28
6.57
-1.27
-10.1
-20.36
-31.69
-43.06
-53.12
-60.64
-64.79
-65.25
-62.2
-56.2
-48.07
-38.69
-28.85
-19.21
-10.34
-2.81
2.81
6.13
7.12
6.14
3.87
1.03
-1.88
-4.72
-7.72
-11.33
-15.96
-21.72
-28.41
-35.58
-42.84
-50.18
-57.93
-66.54
-76.01
-85.58
-93.71
-98.65
-99.17
-95.11
-87.45
-77.83
-67.74
-58.02
-48.71
-39.42
-29.83
-20.07
-10.66
-2.27
4.71
10.3
14.94
19.21
23.57
28.24
33.13
38.08
42.95
47.74
52.51
57.28
61.9
66.12
69.68
72.5
74.69
76.44
77.78
78.44
77.81
75.2
70.12
62.71
53.82
44.88
37.48
32.75
30.91
31.3
32.65
33.81
34.2
33.91
33.4
32.89
32.08
30.3
27.01
22.37
17.39
13.46
11.63
11.91
13.18
13.69
11.81
6.78
-1.08
-10.56
-20.1
-28.36
-34.53
-38.36
-40.06
-40.07
-38.86
-36.82
-34.16
-30.91
-26.95
-22.13
-16.54
-10.61
-5.19
-1.34
0.06
-1.35
-5.27
-10.81
-16.98
-22.96
-28.39
-33.22
-37.52
-41.21
-44.03
-45.69
-46.11
-45.52
-44.39
-43.31
-42.79
-43.17
-44.56
-46.77
-49.37
-51.75
-53.33
-53.75
-52.95
-51.11
-48.38
-44.7
-39.73
-33.09
-24.65
-14.71
-4.02
6.55
16.28
24.86
32.35
39.02
45.11
50.7
55.63
59.59
62.26
63.53
63.67
63.25
63.1
63.95
66.29
70.28
75.76
82.26
88.89
94.28
96.74
94.73
87.6
75.99
61.71
46.99
33.56
22.03
11.99
2.69
-6.22
-14.49
-21.47
-26.78
-30.65
-33.74
-36.62
-39.18
-40.67
-40.17
-37.41
-33.16
-29.02
-26.76
-27.46
-31.2
-37.19
-44.18
-50.85
-55.86
-57.95
-55.97
-49.37
-38.57
-25.05
-10.87
2.12
12.9
21.18
26.77
28.98
26.56
18.54
5.24
-11.21
-27.34
-39.69
-46.28
-47.36
-44.96
-41.91
-40.44
-41.5
-44.65
-48.64
-52.16
-54.51
-55.93
-57.41
-60.1
-64.52
-70.07
-75.22
-78.19
-78
-74.92
-70.39
-66.06
-62.92
-60.67
-58.01
-53.35
-45.61
-34.57
-20.72
-4.97
11.61
27.8
42.24
53.61
61
64.29
64.25
62.25
59.67
57.43
55.81
54.6
53.46
52.26
51.14
50.37
50.26
51.02
52.81
55.71
59.71
64.57
69.73
74.37
77.58
78.66
77.37
74.02
69.37
64.33
59.69
55.8
52.57
49.45
45.72
40.71
34.09
26
17.12
8.54
1.49
-2.98
-4.38
-3.01
-0.03
2.88
4.1
2.65
-1.44
-7.21
-13.19
-18.12
-21.4
-23.2
-24.2
-25.16
-26.58
-28.61
-31.09
-33.67
-35.87
-37.15
-36.91
-34.74
-30.57
-24.8
-18.2
-11.76
-6.29
-2.29
0.11
1.11
1.01
0.21
-0.93
-1.99
-2.52
-2.04
-0.18
3.24
8.01
13.53
18.92
23.29
26.05
27.12
26.9
26.09
25.33
24.9
24.64
24.1
22.76
20.29
16.61
11.86
6.29
0.17
-6.22
-12.57
-18.53
-23.78
-28.09
-31.41
-33.84
-35.6
-37.01
-38.39
-40.06
-42.21
-44.89
-47.9
-50.86
-53.37
-55.21
-56.46
-57.48
-58.72
-60.55
-63.08
-66.11
-69.22
-71.79
-73.13
-72.63
-69.98
-65.41
-59.53
-53.15
-46.81
-40.46
-33.49
-25.03
-14.46
-1.72
12.62
27.65
42.42
56.18
68.4
78.74
86.95
92.91
96.64
98.28
98.03
96.09
92.74
88.35
83.44
78.57
74.21
70.56
67.51
64.79
62.09
59.17
55.84
51.97
47.49
42.37
36.71
30.65
24.3
17.59
10.34
2.41
-6.11
-14.68
-22.39
-28.24
-31.53
-32.11
-30.41
-27.23
-23.4
-19.49
-15.75
-12.18
-8.7
-5.28
-1.93
1.3
4.45
7.5
10.37
12.78
14.37
14.72
13.65
11.29
8.06
4.53
1.2
-1.62
-3.85
-5.57
-6.84
-7.7
-8.12
-8.04
-7.44
-6.36
-4.96
-3.4
-1.91
-0.7
0.06
0.26
-0.15
-1.04
-2.22
-3.36
-4.17
-4.4
-3.98
-3.02
-1.8
-0.69
-0.06
-0.15
-1.01
-2.48
-4.24
-5.94
-7.26
-8.01
-8.19
-7.93
-7.45
-7.03
-6.92
-7.26
-8.14
-9.58
-11.54
-13.96
-16.7
-19.49
-22.11
-24.48
-26.86
-29.76
-33.66
-38.68
-44.44
-50.24
-55.53
-60.35
-65.28
-71.07
-77.98
-85.52
-92.6
-98.13
-101.5
-102.66
-101.75
-98.63
-92.85
-84.01
-72.31
-58.85
-45.27
-33.01
-22.68
-13.8
-5.31
3.72
13.5
23.44
32.52
39.93
45.33
48.86
50.75
51.09
49.78
46.85
42.84
39.01
37.11
38.61
43.91
51.79
59.65
64.45
63.97
57.8
47.5
35.85
25.68
18.82
15.73
15.89
18.57
23.35
30.12
38.59
47.82
56.27
62.28
64.89
64.25
61.43
57.74
53.89
49.72
44.32
36.8
26.94
15.55
4.19
-5.47
-12.36
-16.42
-18.62
-20.46
-23.44
-28.43
-35.41
-43.51
-51.37
-57.54
-60.91
-60.94
-57.73
-51.9
-44.42
-36.36
-28.67
-22.03
-16.78
-12.93
-10.27
-8.43
-7
-5.61
-3.97
-1.91
0.62
3.53
6.65
9.74
12.55
14.86
16.52
17.48
17.72
17.25
16.12
14.41
12.2
9.68
7.06
4.62
2.61
1.15
0.19
-0.48
-1.14
-2.09
-3.52
-5.53
-8.05
-10.93
-13.93
-16.8
-19.34
-21.48
-23.31
-25.13
-27.34
-30.3
-34.11
-38.49
-42.78
-46.06
-47.45
-46.39
-42.71
-36.75
-29.13
-20.62
-11.94
-3.65
3.89
10.48
16.05
20.63
24.28
27.15
29.39
31.13
32.48
33.49
34.19
34.6
34.85
35.1
35.6
36.53
37.93
39.68
41.52
43.15
44.37
45.08
45.24
44.83
43.78
42.01
39.54
36.52
33.23
29.91
26.65
23.31
19.62
15.36
10.52
5.36
0.32
-4.18
-7.86
-10.71
-12.96
-15.03
-17.33
-20.2
-23.78
-27.94
-32.29
-36.27
-39.17
-40.35
-39.3
-35.78
-29.89
-22.02
-12.86
-3.25
5.94
14.02
20.61
25.63
29.32
31.92
33.62
34.33
33.93
32.44
30.3
28.39
27.77
29.21
32.83
38
43.57
48.46
52.09
54.51
56.23
57.75
59.25
60.47
60.99
60.39
58.45
55.16
50.67
45.2
39.09
32.77
26.74
21.46
17.18
13.83
11.07
8.39
5.32
1.51
-3.09
-8.3
-13.74
-19.02
-23.89
-28.39
-32.83
-37.57
-42.8
-48.33
-53.51
-57.4
-59.07
-57.94
-54.13
-48.54
-42.61
-37.78
-34.83
-33.41
-32.07
-28.87
-22.38
-12.42
-0.35
11.57
21.12
27.12
29.84
30.68
31.35
33
35.71
38.58
40.26
39.63
36.35
30.92
24.45
18.14
12.78
8.57
5.16
1.97
-1.38
-4.85
-7.98
-10.13
-10.85
-10.21
-8.85
-7.78
-8.01
-10.22
-14.53
-20.57
-27.72
-35.36
-43.07
-50.72
-58.32
-65.87
-73.06
-79.16
-83.08
-83.61
-79.88
-71.76
-60.02
-46.06
-31.53
-17.77
-5.58
4.79
13.39
20.28
25.44
28.73
30.09
29.66
27.8
25.05
22.04
19.37
17.47
16.47
16.15
15.97
15.28
13.53
10.52
6.47
1.93
-2.41
-5.88
-8
-8.53
-7.41
-4.83
-1.18
2.93
6.74
9.6
11.12
11.28
10.33
8.64
6.5
4.03
1.37
-1.21
-3.33
-4.68
-5.32
-5.88
-7.26
-10.2
-14.81
-20.43
-26
-30.68
-34.28
-37.24
-40.25
-43.63
-47.16
-50.11
-51.72
-51.49
-49.36
-45.7
-41.16
-36.7
-33.42
-32.37
-34.02
-37.87
-42.26
-44.85
-43.47
-37
-25.86
-11.75
3.04
16.42
27.04
34.42
38.72
40.45
40.3
39.03
37.45
36.35
36.23
37.15
38.68
40.07
40.54
39.61
37.22
33.7
29.57
25.33
21.38
17.94
15.13
12.93
11.2
9.66
7.99
5.95
3.48
0.76
-1.87
-4.16
-6.1
-7.99
-10.33
-13.56
-17.79
-22.66
-27.35
-30.85
-32.3
-31.23
-27.58
-21.58
-13.56
-3.84
7.12
18.68
29.85
39.53
46.76
51.02
52.33
51.26
48.59
45.3
42.39
40.87
41.56
44.76
49.92
55.56
59.64
60.32
56.68
49.11
39.19
28.98
20.29
14.11
10.39
8.32
6.73
4.48
0.86
-4.25
-10.33
-16.38
-21.23
-23.93
-24.13
-22.18
-18.99
-15.62
-12.87
-11.02
-9.9
-9.13
-8.38
-7.61
-6.97
-6.63
-6.74
-7.35
-8.56
-10.53
-13.35
-16.74
-19.97
-22.06
-22.44
-21.43
-20.34
-20.82
-23.84
-28.9
-34.03
-36.8
-35.56
-30.34
-22.71
-14.98
-9.04
-5.8
-5.18
-6.65
-9.61
-13.48
-17.59
-21.06
-23
-22.87
-20.82
-17.61
-14.28
-11.63
-10.05
-9.56
-10.14
-11.98
-15.44
-20.79
-27.93
-36.19
-44.49
-51.65
-56.82
-59.61
-60.05
-58.24
-54.13
-47.45
-38.07
-26.33
-13.25
-0.27
11.35
21.07
29.22
36.67
44.22
52.11
59.94
67.08
73.11
78.13
82.52
86.42
89.23
89.65
86.16
77.84
65.01
49.32
33.27
19.25
8.81
2.2
-1.35
-3.13
-4.39
-6.04
-8.69
-12.59
-17.68
-23.32
-28.34
-31.27
-30.94
-27.09
-20.54
-12.92
-5.97
-0.87
1.99
2.85
2.12
0.11
-2.93
-6.6
-10.27
-13.18
-14.86
-15.35
-15.19
-15.03
-15.2
-15.51
-15.29
-13.88
-10.96
-6.74
-1.91
2.64
6.03
7.7
7.45
5.62
3
0.68
-0.33
0.46
2.77
5.6
7.63
7.77
5.58
1.34
-4.16
-10.11
-15.91
-21.37
-26.54
-31.61
-36.69
-41.84
-47.04
-52.21
-57.22
-61.77
-65.4
-67.54
-67.66
-65.46
-61
-54.73
-47.41
-39.84
-32.77
-26.71
-21.95
-18.56
-16.54
-15.82
-16.19
-17.26
-18.36
-18.61
-17.08
-13.04
-6.14
3.32
14.45
25.84
35.94
43.6
48.47
51.16
53
55.41
59.23
64.32
69.65
73.81
75.67
74.8
71.44
66.16
59.42
51.36
41.94
31.22
19.57
7.72
-3.48
-13.34
-21.49
-27.82
-32.36
-35.21
-36.47
-36.43
-35.62
-34.73
-34.31
-34.57
-35.17
-35.44
-34.6
-32.13
-27.92
-22.21
-15.45
-8.1
-0.62
6.59
13.17
19.02
24.31
29.52
35.24
41.8
48.96
55.81
60.99
63.16
61.44
55.75
46.78
35.8
24.3
13.67
4.97
-1.17
-4.58
-5.52
-4.62
-2.75
-0.79
0.58
1.07
0.85
0.5
0.79
2.43
5.73
10.43
15.66
20.25
23.08
23.46
21.48
17.85
13.59
9.64
6.46
4.05
2.07
0.15
-1.88
-3.97
-5.94
-7.63
-8.99
-10.14
-11.27
-12.51
-13.95
-15.62
-17.53
-19.75
-22.33
-25.21
-28.08
-30.39
-31.43
-30.6
-27.64
-22.8
-16.72
-10.21
-3.93
1.81
7.04
11.94
16.71
21.35
25.7
29.44
32.18
33.58
33.44
31.77
28.84
25.08
20.94
16.72
12.47
8.13
3.61
-1
-5.3
-8.67
-10.42
-9.93
-6.99
-1.94
4.25
10.09
13.94
14.59
11.72
6.08
-0.84
-7.37
-12.43
-15.76
-17.84
-19.38
-20.84
-22.19
-23.12
-23.45
-23.41
-23.62
-24.78
-27.23
-30.72
-34.52
-37.79
-39.95
-40.84
-40.63
-39.56
-37.75
-35.17
-31.73
-27.54
-22.92
-18.32
-14.12
-10.48
-7.28
-4.27
-1.29
1.67
4.42
6.68
8.29
9.31
10.01
10.78
11.89
13.43
15.25
17.07
18.6
19.61
20.03
19.82
19
17.58
15.59
13.12
10.33
7.4
4.5
1.69
-1.09
-3.93
-6.8
-9.43
-11.2
-11.24
-8.8
-3.68
3.36
10.64
16.01
17.67
14.92
8.46
0.06
-8.34
-15.35
-20.65
-24.8
-28.67
-32.87
-37.41
-41.8
-45.38
-47.69
-48.56
-48.08
-46.49
-44.05
-41
-37.5
-33.64
-29.45
-24.94
-20.2
-15.37
-10.73
-6.51
-2.89
0.08
2.46
4.36
5.85
6.96
7.63
7.8
7.49
6.84
6.2
5.97
6.53
7.99
10.14
12.46
14.34
15.33
15.33
14.54
13.27
11.77
10.1
8.24
6.27
4.5
3.36
3.21
4.1
5.77
7.77
9.81
11.81
13.9
16.13
18.23
19.63
19.69
17.99
14.71
10.57
6.67
4
3.05
3.52
4.38
4.19
1.63
-3.94
-12.11
-21.44
-29.88
-35.43
-36.86
-34.1
-28.2
-20.83
-13.61
-7.56
-2.81
1.15
5.04
9.3
13.77
17.79
20.56
21.56
20.85
19.02
16.84
14.84
13.03
11.06
8.6
5.88
3.81
3.77
6.93
13.64
23.04
33.35
42.55
49.11
52.55
53.38
52.63
51.26
49.76
48.07
45.86
42.88
39.23
35.34
31.8
29.09
27.28
26.01
24.58
22.3
18.83
14.3
9.29
4.53
0.51
-2.81
-5.98
-9.76
-14.8
-21.24
-28.72
-36.49
-43.74
-49.74
-53.99
-56.12
-55.86
-53.13
-48.16
-41.56
-34.19
-26.85
-19.94
-13.29
-6.34
1.41
9.96
18.62
26.19
31.45
33.65
32.87
29.91
25.96
22.11
19
16.71
14.85
12.88
10.34
7.09
3.32
-0.62
-4.33
-7.48
-9.84
-11.18
-11.32
-10.16
-7.87
-5.02
-2.53
-1.43
-2.47
-5.81
-10.91
-16.78
-22.33
-26.79
-29.88
-31.79
-32.89
-33.52
-33.97
-34.54
-35.71
-38.04
-41.93
-47.17
-52.75
-57.03
-58.29
-55.49
-48.81
-39.52
-29.44
-20.11
-12.19
-5.34
1.35
8.75
17.18
26.29
35.35
43.66
50.99
57.62
64.05
70.57
76.89
82.13
85.23
85.48
82.96
78.5
73.36
68.61
64.87
62.33
61.06
61.25
63.17
66.79
71.45
75.89
78.7
79.05
77.1
73.83
70.39
67.25
63.89
59.02
51.44
40.93
28.5
15.96
4.96
-3.77
-10.53
-16.13
-21.11
-25.34
-28.29
-29.57
-29.55
-29.21
-29.61
-31.28
-33.99
-37.11
-40.21
-43.37
-47
-51.36
-56.16
-60.65
-64.01
-65.75
-65.73
-63.88
-59.91
-53.39
-44.11
-32.6
-20.15
-8.44
1.21
8.3
13.17
16.62
19.38
21.81
23.91
25.42
26.04
25.47
23.54
20.32
16.27
12.34
9.66
9.16
10.95
14.09
16.95
17.92
16.25
12.38
7.69
3.62
0.81
-1.27
-4.04
-8.88
-16.11
-24.48
-31.48
-34.51
-32.24
-25.64
-17.81
-12.62
-12.85
-18.66
-27.44
-35.2
-38.7
-37.36
-33.56
-31.22
-33.61
-41.54
-53.07
-64.59
-72.66
-75.29
-72.29
-64.73
-54.18
-42.26
-30.59
-20.67
-13.71
-10.28
-10.18
-12.66
-16.73
-21.5
-26.19
-30
-32
-31.39
-28.02
-22.63
-16.71
-11.91
-9.3
-9.01
-10.4
-12.57
-14.82
-16.9
-18.86
-20.76
-22.55
-23.98
-24.82
-24.91
-24.23
-22.85
-20.9
-18.55
-16.06
-13.73
-11.85
-10.62
-10.04
-9.87
-9.67
-9
-7.59
-5.42
-2.77
-0.1
2.16
3.66
4.27
4.05
3.15
1.81
0.32
-1.09
-2.25
-3.18
-4.09
-5.36
-7.47
-10.75
-15.27
-20.73
-26.54
-31.86
-35.87
-37.89
-37.6
-35.12
-31.06
-26.39
-22.08
-18.81
-16.65
-15.06
-13.12
-10
-5.3
0.78
7.6
14.45
20.75
26.27
30.94
34.72
37.51
39.14
39.49
38.67
36.97
34.86
32.85
31.41
30.85
31.27
32.56
34.32
36.06
37.3
37.75
37.41
36.49
35.28
33.97
32.61
31.12
29.38
27.33
24.99
22.45
19.85
17.48
15.72
15.1
16
18.54
22.37
26.67
30.41
32.66
32.88
31.1
27.85
23.87
19.81
15.92
12.06
7.9
3.09
-2.43
-8.43
-14.53
-20.31
-25.46
-29.68
-32.59
-33.58
-31.94
-27.11
-19.04
-8.42
3.47
15.1
25.27
33.42
39.74
44.84
49.39
53.68
57.59
60.87
63.54
66.09
69.42
74.29
80.74
87.86
94.06
97.77
98.2
95.7
91.54
87.26
83.96
81.93
80.74
79.65
77.98
75.31
71.3
65.64
58.04
48.41
37.09
24.91
12.97
2.27
-6.51
-13.08
-17.39
-19.45
-19.3
-17.18
-13.72
-10.08
-7.69
-7.92
-11.55
-18.44
-27.43
-36.64
-43.96
-47.72
-47.29
-43.44
-38.13
-33.9
-32.76
-35.35
-40.51
-45.81
-48.66
-47.54
-42.86
-36.72
-31.86
-30.19
-31.71
-34.41
-35.25
-31.77
-23.56
-12.74
-3.05
1.77
-0.23
-8.33
-19.63
-30.37
-37.51
-39.69
-37.23
-31.31
-23.23
-13.96
-4.41
4.26
10.46
12.62
9.88
2.79
-6.59
-15.24
-20.19
-19.58
-13.24
-2.73
9.26
19.92
27.21
30.29
29.41
25.37
18.88
10.37
0.07
-11.56
-23.66
-35.06
-44.8
-52.58
-58.89
-64.69
-70.85
-77.63
-84.58
-90.77
-95.29
-97.56
-97.42
-95.08
-91.06
-86.1
-81.11
-76.92
-74.04
-72.37
-71.12
-68.89
-64.18
-55.88
-43.84
-28.93
-12.82
2.69
16.24
27.37
36.44
44.21
51.36
58.13
64.32
69.55
73.59
76.45
78.31
79.28
79.32
78.42
76.86
75.32
74.59
75.05
76.24
76.71
74.68
68.84
59.14
46.91
34.26
23.09
14.32
7.64
1.97
-3.78
-10.11
-16.84
-23.49
-29.67
-35.41
-41.05
-46.95
-53.11
-59.14
-64.4
-68.36
-70.93
-72.54
-73.82
-75.26
-76.83
-77.87
-77.44
-74.77
-69.78
-63.21
-56.56
-51.46
-49.1
-49.71
-52.47
-55.77
-57.75
-56.89
-52.49
-44.82
-35.04
-24.8
-15.74
-9
-4.75
-2.17
0.21
3.89
9.64
17.11
24.96
31.57
35.81
37.56
37.61
37.21
37.45
39
42.2
47.21
54.05
62.44
71.64
80.51
87.92
93.21
96.39
97.88
98.07
96.93
94.11
89.37
82.95
75.77
69.04
63.7
60.04
57.5
55.04
51.53
46.14
38.53
29
18.34
7.71
-1.72
-9.09
-14.16
-17.29
-19.35
-21.28
-23.78
-27.13
-31.21
-35.75
-40.48
-45.31
-50.29
-55.5
-60.91
-66.32
-71.43
-75.89
-79.42
-81.78
-82.75
-82.12
-79.64
-75.14
-68.62
-60.33
-50.81
-40.78
-30.99
-22.05
-14.32
-7.91
-2.7
1.53
4.99
7.87
10.25
12.18
13.65
14.65
15.19
15.37
15.3
15.14
14.93
14.61
13.95
12.66
10.49
7.43
3.67
-0.36
-4.22
-7.53
-10.11
-11.92
-12.96
-13.28
-12.99
-12.23
-11.26
-10.35
-9.75
-9.56
-9.7
-9.94
-9.98
-9.6
-8.71
-7.38
-5.82
-4.31
-3.12
-2.43
-2.31
-2.7
-3.48
-4.46
-5.47
-6.41
-7.29
-8.21
-9.38
-10.98
-13.05
-15.38
-17.53
-18.97
-19.2
-18
-15.41
-11.74
-7.37
-2.66
2.12
6.8
11.19
15.14
18.51
21.23
23.35
25.03
26.44
27.73
28.98
30.15
31.23
32.2
33.17
34.26
35.6
37.18
38.82
40.2
40.94
40.72
39.44
37.21
34.35
31.26
28.25
25.46
22.9
20.47
18.08
15.78
13.68
12.01
10.93
10.46
10.47
10.69
10.75
10.38
9.44
8.04
6.5
5.34
5.1
6.09
8.21
10.86
13.06
13.74
12.21
8.46
3.27
-1.94
-5.45
-5.76
-1.96
5.99
17.29
30.47
43.79
55.63
64.9
71.1
74.34
75.06
73.85
71.23
67.62
63.32
58.46
53.02
46.79
39.6
31.42
22.58
13.84
6.16
0.48
-2.62
-3.07
-1.21
2.35
7.02
12.43
18.45
25.25
33.03
41.79
51.01
59.45
65.23
66.3
61.09
49.2
31.82
11.65
-7.8
-23.16
-32.34
-35.07
-32.92
-28.59
-24.93
-24
-26.61
-32.5
-40.78
-50.46
-60.59
-70.21
-78.16
-83.26
-84.72
-82.61
-78.14
-73.2
-69.64
-68.4
-69.25
-71.05
-72.38
-72.25
-70.36
-66.97
-62.62
-57.84
-53.04
-48.6
-44.84
-42.01
-40.06
-38.71
-37.52
-36.15
-34.58
-33.02
-31.62
-30.21
-28.08
-24.29
-18.09
-9.33
1.35
12.74
23.58
33.05
41.03
48.04
54.83
62.09
70.08
78.6
87.01
94.46
100.03
102.88
102.47
98.6
91.58
82.17
71.51
60.77
50.78
41.73
33.09
23.92
13.33
1.04
-12.32
-25.41
-36.69
-45
-50.08
-52.6
-53.74
-54.65
-56.01
-57.83
-59.54
-60.35
-59.47
-56.35
-50.68
-42.43
-31.94
-19.87
-7.2
4.89
15.33
23.44
29.15
32.97
35.75
38.27
40.86
43.3
44.97
45.22
43.71
40.56
36.12
30.64
23.98
15.81
6.02
-4.86
-15.57
-24.59
-30.79
-33.91
-34.67
-34.34
-34.15
-34.8
-36.3
-38.06
-39.25
-39.09
-37.1
-33.22
-27.88
-21.82
-15.89
-10.77
-6.7
-3.61
-1.26
0.39
1.03
0.05
-3.2
-9.14
-17.75
-28.38
-39.8
-50.3
-58.02
-61.43
-59.82
-53.54
-43.9
-32.65
-21.34
-10.81
-1.16
7.97
16.77
25.05
32.16
37.47
40.67
41.94
41.72
40.39
37.98
34.26
29.03
22.41
15.06
7.88
1.69
-3.16
-6.8
-9.56
-11.47
-12.09
-10.66
-6.53
0.26
8.88
17.97
26.21
32.76
37.36
40.12
41.19
40.58
38.31
34.65
30.25
25.93
22.4
19.91
18.31
17.16
16.12
14.94
13.48
11.48
8.57
4.38
-1.13
-7.53
-13.99
-19.59
-23.73
-26.4
-28.13
-29.7
-31.75
-34.5
-37.73
-40.88
-43.19
-43.95
-42.48
-38.29
-31.15
-21.3
-9.52
2.94
14.69
24.58
32.09
37.53
41.75
45.86
50.66
56.28
62.1
66.86
69.09
67.54
61.58
51.33
37.67
22.02
6.23
-7.64
-17.57
-21.99
-20.36
-13.56
-4.02
4.8
9.55
8.27
1.34
-8.56
-17.48
-22.02
-20.83
-15.3
-8.9
-5.51
-7.61
-15.19
-26
-36.69
-44.4
-47.81
-47.22
-43.89
-39.07
-33.56
-27.59
-21.35
-15.24
-10.03
-6.47
-4.97
-5.32
-6.8
-8.56
-9.98
-10.94
-11.73
-12.91
-14.95
-18.01
-21.85
-25.98
-29.75
-32.62
-34.34
-34.92
-34.59
-33.64
-32.3
-30.71
-28.9
-26.86
-24.62
-22.24
-19.85
-17.57
-15.5
-13.58
-11.66
-9.48
-6.8
-3.61
-0.2
2.92
5.17
6.28
6.47
6.44
7.15
9.35
13.23
18.31
23.52
27.59
29.49
28.71
25.44
20.43
14.69
9.13
4.37
0.71
-1.8
-3.19
-3.47
-2.75
-1.29
0.44
1.98
3.08
3.88
4.71
5.78
6.82
7.06
5.51
1.52
-4.8
-12.61
-20.73
-28.25
-34.85
-40.8
-46.5
-51.91
-56.41
-58.85
-58.2
-54.01
-46.8
-37.89
-28.91
-21.22
-15.38
-11.06
-7.27
-2.88
2.9
10.2
18.51
26.88
34.24
39.7
42.73
43.23
41.47
38.15
34.35
31.47
30.84
33.09
37.63
42.48
44.9
42.47
34.21
21.07
5.5
-9.62
-22.17
-31.32
-37.44
-41.39
-43.91
-45.38
-45.91
-45.61
-44.58
-42.75
-39.76
-35.04
-28.15
-19.24
-9.11
0.91
9.5
15.73
19.35
20.76
20.7
20.07
19.59
19.77
20.82
22.66
24.92
26.93
27.9
27.13
24.37
19.96
14.84
10.12
6.56
4.21
2.45
0.42
-2.32
-5.41
-7.74
-8.08
-5.7
-0.86
5.36
11.58
16.76
20.42
22.59
23.35
22.51
19.7
14.64
7.68
-0.1
-7.15
-12.12
-14.46
-14.62
-13.7
-12.6
-11.46
-9.57
-5.92
-0.01
7.55
15.21
21.11
24.02
23.87
21.64
18.77
16.36
14.82
13.94
13.34
12.85
12.64
12.99
13.93
15.11
15.82
15.35
13.36
10.07
6.16
2.35
-0.95
-3.87
-6.87
-10.48
-14.88
-19.84
-24.88
-29.56
-33.63
-37.01
-39.63
-41.22
-41.32
-39.47
-35.48
-29.55
-22.27
-14.47
-6.9
-0.15
5.44
9.78
12.92
15
16.23
16.78
16.79
16.3
15.27
13.58
11.11
7.83
3.84
-0.61
-5.16
-9.38
-12.84
-15.24
-16.42
-16.38
-15.27
-13.32
-10.79
-7.94
-4.97
-2
0.98
4.04
7.29
10.77
14.43
18.05
21.32
23.95
25.76
26.78
27.17
27.17
26.91
26.46
25.78
24.87
23.74
22.47
20.99
19.06
16.29
12.32
7.07
0.95
-5.23
-10.49
-14.14
-16
-16.49
-16.35
-16.24
-16.41
-16.53
-15.87
-13.68
-9.77
-4.9
-0.95
-0.53
-6.11
-19.06
-38.86
-62.92
-87.29
-107.8
-121.27
-126.32
-123.41
-114.38
-101.6
-87.33
-73.39
-61.05
-50.97
-43.28
-37.42
-32.36
-26.77
-19.55
-10.17
1
12.83
23.8
32.65
38.73
42.28
44.13
45.3
46.57
48.14
49.66
50.4
49.67
47.07
42.67
37.03
31.01
25.51
21.19
18.29
16.57
15.43
14.17
12.22
9.29
5.41
0.82
-4.14
-9.17
-14.05
-18.63
-22.8
-26.49
-29.59
-31.94
-33.29
-33.31
-31.67
-28.13
-22.76
-15.92
-8.22
-0.35
7.17
14.1
20.44
26.34
31.86
37
41.63
45.65
49.08
52.07
54.8
57.36
59.7
61.64
63.02
63.87
64.43
65.08
66.15
67.73
69.59
71.29
72.24
71.93
70.03
66.44
61.28
54.84
47.47
39.52
31.23
22.78
14.31
6.06
-1.57
-8.05
-12.87
-15.76
-16.79
-16.35
-15
-13.31
-11.71
-10.51
-9.92
-10.06
-10.93
-12.38
-14.09
-15.7
-16.97
-17.89
-18.71
-19.85
-21.68
-24.35
-27.73
-31.37
-34.67
-36.96
-37.75
-36.73
-33.89
-29.42
-23.76
-17.45
-11.07
-5.14
0.03
4.31
7.83
10.78
13.27
15.28
16.59
16.94
16.2
14.46
12.09
9.57
7.35
5.74
4.84
4.63
5.03
5.99
7.46
9.33
11.39
13.35
14.86
15.61
15.48
14.55
13.1
11.5
10.09
9.07
8.51
8.32
8.4
8.63
8.93
9.24
9.5
9.65
9.62
9.33
8.68
7.57
5.93
3.77
1.18
-1.64
-4.48
-7.15
-9.59
-11.88
-14.19
-16.69
-19.43
-22.39
-25.41
-28.27
-30.7
-32.42
-33.16
-32.73
-31.13
-28.52
-25.28
-21.9
-18.89
-16.68
-15.47
-15.2
-15.56
-16.03
-15.97
-14.85
-12.39
-8.61
-3.84
1.44
6.83
12.03
16.82
21.01
24.32
26.48
27.29
26.82
25.33
23.23
20.84
18.24
15.26
11.68
7.36
2.45
-2.71
-7.73
-12.41
-16.83
-21.27
-25.99
-31.11
-36.48
-41.75
-46.46
-50.22
-52.67
-53.58
-52.78
-50.24
-46.11
-40.72
-34.53
-27.99
-21.49
-15.25
-9.37
-3.91
1.12
5.67
9.73
13.24
16.09
18.12
19.07
18.77
17.23
14.75
11.92
9.39
7.69
7.02
7.25
8.12
9.39
10.97
12.97
15.45
18.35
21.41
24.22
26.37
27.61
27.92
27.45
26.48
25.34
24.3
23.6
23.34
23.56
24.18
25.08
26.11
27.11
27.94
28.49
28.72
28.6
28.18
27.52
26.66
25.65
24.6
23.64
22.93
22.56
22.46
22.34
21.83
20.59
18.53
15.89
13.16
10.96
9.84
10.19
12.16
15.56
19.86
24.14
27.32
28.44
27.06
23.52
18.77
13.97
9.87
6.45
2.92
-1.91
-9.01
-18.69
-30.4
-42.9
-54.58
-63.79
-69.14
-69.69
-65.04
-55.5
-42.01
-26.04
-9.3
6.59
20.4
31.52
39.88
45.86
49.95
52.54
53.67
53.05
50.24
44.91
37.16
27.63
17.48
8.02
0.33
-4.96
-7.92
-9.12
-9.52
-10.15
-12.03
-15.98
-22.52
-31.65
-42.62
-53.79
-62.88
-67.49
-65.93
-57.93
-44.91
-29.68
-15.46
-4.89
0.81
2.07
0.52
-1.75
-3.06
-2.57
-0.3
3.24
7.45
11.94
16.41
20.42
23.3
24.23
22.6
18.43
12.44
5.78
-0.46
-5.71
-10.11
-14.23
-18.68
-23.67
-28.93
-33.89
-38
-40.92
-42.57
-42.94
-42
-39.65
-35.86
-30.83
-25.1
-19.47
-14.75
-11.48
-9.73
-9.13
-8.99
-8.56
-7.28
-4.92
-1.56
2.32
6.05
8.88
10.26
10.02
8.5
6.41
4.56
3.47
3.13
3.03
2.4
0.57
-2.67
-6.98
-11.59
-15.68
-18.65
-20.3
-20.74
-20.15
-18.69
-16.46
-13.66
-10.75
-8.41
-7.39
-8.25
-11.13
-15.73
-21.46
-27.64
-33.67
-39.11
-43.67
-47.15
-49.52
-50.84
-51.26
-50.96
-50.07
-48.67
-46.86
-44.76
-42.53
-40.3
-38.05
-35.62
-32.7
-29
-24.41
-19.04
-13.2
-7.27
-1.52
3.91
9.05
13.99
18.8
23.45
27.85
31.86
35.37
38.34
40.79
42.84
44.63
46.33
48.13
50.15
52.45
54.97
57.55
59.97
61.98
63.41
64.16
64.27
63.8
62.79
61.27
59.23
56.61
53.43
49.67
45.36
40.48
35
28.98
22.54
15.91
9.35
3.03
-3.05
-9.02
-15.11
-21.44
-27.99
-34.55
-40.87
-46.73
-52.1
-57.05
-61.73
-66.29
-70.82
-75.37
-79.88
-84.14
-87.72
-90.04
-90.48
-88.59
-84.2
-77.46
-68.73
-58.42
-46.94
-34.65
-21.96
-9.4
2.46
13.05
22.01
29.27
34.97
39.36
42.68
45.06
46.58
47.3
47.37
47.05
46.63
46.38
46.43
46.76
47.2
47.5
47.41
46.77
45.53
43.8
41.78
39.71
37.81
36.19
34.79
33.44
31.89
29.91
27.34
24.2
20.65
17.01
13.64
10.85
8.77
7.27
6.02
4.5
2.32
-0.73
-4.47
-8.39
-11.83
-14.16
-15.02
-14.49
-12.96
-10.93
-8.83
-6.77
-4.61
-2.02
1.24
5.19
9.54
13.86
17.73
20.86
23.21
24.9
26.06
26.82
27.21
27.22
26.85
26.12
25.06
23.7
22.12
20.43
18.93
17.98
18.02
19.35
22.02
25.72
29.86
33.77
36.85
38.77
39.54
39.42
38.83
38.22
37.93
38.23
39.22
40.87
43.07
45.64
48.37
51.07
53.56
55.72
57.43
58.55
58.95
58.49
56.94
54.01
49.36
42.69
33.99
23.6
12.22
0.68
-10.37
-20.7
-30.53
-40.33
-50.5
-61.11
-71.81
-82.01
-91.1
-98.68
-104.63
-109.09
-112.35
-114.64
-116.06
-116.49
-115.59
-112.98
-108.35
-101.71
-93.39
-84.02
-74.28
-64.76
-55.75
-47.27
-39.22
-31.49
-24.05
-17
-10.46
-4.53
0.72
5.2
8.82
11.44
13.08
13.9
14.3
14.76
15.68
17.16
19.04
20.94
22.47
23.44
23.82
23.82
23.64
23.47
23.45
23.65
24.11
24.82
25.68
26.43
26.71
26.15
24.45
21.57
17.68
13.18
8.54
4.26
0.68
-1.98
-3.75
-4.77
-5.28
-5.54
-5.73
-6
-6.36
-6.82
-7.34
-7.89
-8.47
-9.09
-9.79
-10.62
-11.64
-12.88
-14.34
-15.98
-17.71
-19.48
-21.25
-23.05
-24.92
-26.92
-29.02
-31.07
-32.81
-33.89
-33.99
-32.84
-30.37
-26.7
-22.12
-17.03
-11.81
-6.81
-2.21
1.89
5.59
9.02
12.36
15.68
18.93
21.88
24.26
25.77
26.25
25.75
24.51
22.95
21.56
20.75
20.79
21.73
23.35
25.29
27.16
28.65
29.7
30.51
31.52
33.27
36.25
40.62
46.11
51.89
56.78
59.57
59.43
56.19
50.34
42.78
34.44
26.02
17.94
10.44
3.77
-1.74
-5.86
-8.62
-10.44
-12.02
-14.03
-16.86
-20.42
-24.25
-27.75
-30.51
-32.47
-33.89
-35.18
-36.73
-38.75
-41.21
-43.9
-46.5
-48.58
-49.74
-49.58
-47.85
-44.55
-39.96
-34.59
-28.98
-23.53
-18.41
-13.53
-8.79
-4.13
0.29
4.27
7.59
10.25
12.34
14.03
15.43
16.51
17.23
17.61
17.82
18.16
19.02
20.65
23.15
26.4
30.17
34.17
38.09
41.66
44.66
46.88
48.18
48.48
47.77
46.15
43.77
40.91
37.88
35
32.49
30.36
28.49
26.65
24.64
22.38
19.92
17.41
14.98
12.71
10.63
8.71
6.93
5.19
3.37
1.2
-1.67
-5.57
-10.72
-17.04
-24.16
-31.45
-38.28
-44.23
-49.24
-53.59
-57.66
-61.66
-65.53
-68.85
-71.1
-71.88
-71.07
-68.9
-65.73
-61.84
-57.33
-52.07
-45.86
-38.7
-30.86
-22.86
-15.38
-8.95
-3.91
-0.39
1.63
2.26
1.7
0.33
-1.28
-2.44
-2.65
-1.78
-0.18
1.53
2.75
3.25
3.28
3.38
4.05
5.58
7.93
10.88
14.22
17.85
21.72
25.77
29.71
33.15
35.64
36.95
37.14
36.52
35.52
34.4
33.17
31.57
29.29
26.17
22.35
18.27
14.46
11.29
8.78
6.61
4.27
1.38
-2.21
-6.29
-10.49
-14.43
-17.9
-20.88
-23.56
-26.19
-28.95
-31.91
-35.02
-38.05
-40.66
-42.46
-43.09
-42.31
-40.03
-36.38
-31.7
-26.41
-20.98
-15.75
-10.87
-6.32
-2
2.18
6.16
9.77
12.83
15.26
17.18
18.83
20.48
22.28
24.16
25.92
27.31
28.13
28.33
27.95
27.15
26.11
25.1
24.42
24.38
25.16
26.73
28.76
30.63
31.64
31.25
29.31
26.08
22.12
17.97
13.89
9.87
5.72
1.32
-3.24
-7.65
-11.53
-14.71
-17.23
-19.37
-21.45
-23.72
-26.29
-29.13
-32.1
-35.04
-37.8
-40.24
-42.39
-44.37
-46.48
-49.06
-52.36
-56.45
-61.09
-65.68
-69.44
-71.53
-71.29
-68.39
-62.9
-55.2
-45.79
-35.23
-23.93
-12.24
-0.39
11.4
22.85
33.57
43.01
50.46
55.2
56.73
55.04
50.7
44.78
38.48
32.72
27.99
24.31
21.54
19.58
18.56
18.64
19.86
21.93
24.27
26.21
27.27
27.37
26.79
25.95
25.22
24.71
24.28
23.64
22.61
21.17
19.55
18.08
17.08
16.69
16.89
17.52
18.46
19.68
21.2
22.99
24.89
26.54
27.54
27.52
26.28
23.75
19.94
14.85
8.57
1.32
-6.35
-13.62
-19.6
-23.52
-25.1
-24.48
-22.16
-18.67
-14.38
-9.47
-4.05
1.63
7.03
11.43
14.13
14.69
13.15
9.96
5.79
1.26
-3.31
-7.89
-12.68
-17.87
-23.51
-29.45
-35.47
-41.38
-47.04
-52.36
-57.22
-61.36
-64.5
-66.39
-66.92
-66.21
-64.49
-62.05
-59.19
-56.14
-53.08
-50.08
-47.09
-43.9
-40.29
-36.17
-31.68
-27.29
-23.56
-20.96
-19.75
-19.89
-21.19
-23.46
-26.6
-30.54
-35.18
-40.3
-45.61
-50.78
-55.54
-59.64
-62.78
-64.56
-64.51
-62.28
-57.78
-51.35
-43.64
-35.45
-27.47
-20.11
-13.5
-7.59
-2.29
2.4
6.44
9.72
12.2
13.82
14.57
14.49
13.75
12.72
11.88
11.78
12.78
14.97
18.1
21.74
25.46
28.96
32.11
34.88
37.21
39.03
40.32
41.07
41.37
41.31
40.89
39.99
38.49
36.34
33.68
30.78
27.93
25.27
22.77
20.29
17.71
15.04
12.42
10.02
7.86
5.82
3.56
0.69
-3.14
-8.15
-14.29
-21.2
-28.17
-34.3
-38.69
-40.74
-40.29
-37.68
-33.52
-28.47
-22.99
-17.28
-11.41
-5.48
0.3
5.66
10.42
14.64
18.53
22.29
25.97
29.37
32.18
34.2
35.45
36.25
37.01
38.04
39.42
40.99
42.49
43.69
44.54
45.06
45.32
45.38
45.21
44.85
44.37
43.89
43.57
43.57
43.96
44.76
45.85
47.02
47.97
48.41
48.19
47.31
45.92
44.16
42.04
39.35
35.72
30.78
24.3
16.25
6.85
-3.47
-14.07
-24.12
-32.74
-39.07
-42.65
-43.51
-42.18
-39.5
-36.27
-33.04
-29.94
-26.84
-23.44
-19.47
-14.81
-9.47
-3.67
2.22
7.72
12.39
16.02
18.69
20.77
22.74
24.99
27.58
30.3
32.66
34.2
34.56
33.59
31.41
28.29
24.68
21.09
17.95
15.46
13.56
11.9
10.07
7.76
4.9
1.66
-1.67
-4.83
-7.71
-10.22
-12.36
-14.07
-15.25
-15.9
-16.11
-16.13
-16.27
-16.89
-18.16
-20.08
-22.36
-24.48
-25.83
-25.86
-24.25
-20.98
-16.38
-11.01
-5.52
-0.56
3.41
6.19
7.89
8.81
9.37
9.87
10.54
11.38
12.33
13.24
13.94
14.29
14.16
13.55
12.58
11.51
10.66
10.26
10.45
11.21
12.46
14.06
15.85
17.57
18.89
19.41
18.85
17.16
14.53
11.33
8.03
5.02
2.57
0.86
-0.04
-0.19
0.18
0.67
0.83
0.28
-1.12
-3.25
-5.76
-8.25
-10.4
-12.01
-13
-13.33
-13
-12.07
-10.68
-9.06
-7.43
-5.92
-4.54
-3.12
-1.42
0.78
3.6
6.99
10.75
14.53
17.95
20.69
22.56
23.55
23.82
23.63
23.24
22.88
22.71
22.8
23.13
23.62
24.08
24.33
24.22
23.71
22.89
21.97
21.12
20.46
19.9
19.31
18.5
17.4
16.05
14.59
13.18
11.88
10.63
9.33
7.85
6.19
4.37
2.41
0.25
-2.23
-5.14
-8.42
-11.78
-14.8
-17.07
-18.41
-18.95
-19.08
-19.22
-19.71
-20.64
-21.96
-23.54
-25.36
-27.45
-29.9
-32.81
-36.16
-39.9
-43.84
-47.78
-51.48
-54.68
-57.17
-58.74
-59.25
-58.58
-56.6
-53.2
-48.35
-42.14
-34.85
-26.86
-18.54
-10.14
-1.67
6.94
15.73
24.51
32.83
40.09
45.79
49.73
52.02
53.01
53.01
52.11
50.16
46.85
41.91
35.43
27.84
19.91
12.52
6.39
1.96
-0.72
-1.85
-1.79
-0.94
0.34
1.72
2.88
3.49
3.28
2.11
0.05
-2.64
-5.68
-8.86
-12.16
-15.58
-19.03
-22.1
-24.18
-24.61
-23.03
-19.57
-14.85
-9.69
-4.81
-0.66
2.69
5.29
7.28
8.76
9.88
10.9
12.15
13.89
16.11
18.33
19.75
19.46
16.85
11.87
5.11
-2.45
-9.77
-16.13
-21.26
-25.23
-28.27
-30.52
-32.04
-32.91
-33.35
-33.75
-34.46
-35.58
-36.75
-37.31
-36.52
-33.93
-29.62
-24.12
-18.19
-12.4
-7.03
-2.05
2.65
6.99
10.63
13.08
13.97
13.27
11.33
8.76
6.23
4.39
3.82
5.18
9.1
16.04
25.87
37.65
49.67
59.9
66.7
69.34
68.18
64.31
58.96
52.9
46.4
39.38
31.87
24.28
17.38
11.86
8.01
5.5
3.53
1.28
-1.71
-5.36
-9.17
-12.55
-15.21
-17.28
-19.25
-21.66
-24.79
-28.47
-32.16
-35.11
-36.62
-36.23
-33.85
-29.74
-24.49
-18.9
-13.79
-9.8
-7.14
-5.52
-4.26
-2.59
0.03
3.64
7.76
11.58
14.32
15.54
15.37
14.32
13.13
12.37
12.29
12.78
13.5
14.07
14.28
14.06
13.49
12.81
12.38
12.65
14.01
16.48
19.45
21.63
21.38
17.4
9.28
-2.23
-15.41
-28.25
-39.16
-47.44
-53.26
-57.34
-60.44
-63
-65.1
-66.6
-67.37
-67.39
-66.75
-65.56
-63.83
-61.49
-58.37
-54.37
-49.47
-43.85
-37.76
-31.48
-25.17
-18.91
-12.68
-6.51
-0.48
5.2
10.29
14.56
17.84
20.08
21.28
21.56
21.09
20.13
19
18.04
17.53
17.54
17.89
18.18
17.91
16.77
14.83
12.67
11.14
11.03
12.67
15.73
19.38
22.62
24.71
25.47
25.25
24.65
24.32
24.72
26.13
28.67
32.14
35.86
38.6
38.69
34.61
25.78
13.16
-0.61
-11.9
-17.26
-14.63
-4.15
11.99
30.31
47.26
60.21
67.8
69.92
67.14
60.34
50.57
38.96
26.78
15.19
4.93
-3.9
-11.82
-19.55
-27.54
-35.54
-42.72
-47.98
-50.55
-50.27
-47.54
-43.04
-37.41
-31.05
-24.22
-17.25
-10.64
-4.99
-0.64
2.52
5.08
7.84
11.39
15.74
20.29
24.14
26.53
27.15
26.24
24.44
22.44
20.79
19.77
19.42
19.57
19.92
20.09
19.66
18.33
15.98
12.8
9.22
5.79
2.98
1.08
0.06
-0.4
-0.66
-0.91
-0.86
0.24
3.29
8.77
16.1
23.52
28.63
29.36
24.97
16.48
6.27
-2.87
-8.68
-10.13
-7.55
-2.44
2.97
6.36
5.96
1.19
-6.99
-16.34
-24.28
-29.01
-30.47
-30.31
-31.01
-34.49
-41.03
-49.1
-56.01
-59.09
-56.78
-49.13
-37.65
-24.63
-12.32
-2.3
4.84
9.28
11.52
11.82
9.99
5.69
-1.1
-9.6
-18.25
-25.38
-29.98
-32.29
-33.58
-35.33
-38.31
-42.14
-45.67
-47.77
-48.13
-47.33
-46.36
-45.87
-45.75
-45.21
-43.29
-39.43
-33.7
-26.79
-19.77
-13.84
-10.06
-9.16
-11.32
-16.11
-22.6
-29.7
-36.41
-41.88
-45.26
-45.6
-41.97
-33.88
-21.68
-6.81
8.53
22.04
32.04
37.82
39.62
38.28
34.88
30.48
26.09
22.54
20.35
19.57
19.67
19.74
18.81
16.27
12.14
6.94
1.5
-3.48
-7.52
-10.43
-12.08
-12.33
-11.11
-8.6
-5.28
-1.84
1.18
3.72
6.2
9.24
13.12
17.45
21.18
23.12
22.57
19.65
15.21
10.27
5.49
0.86
-4.1
-9.88
-16.47
-23.16
-28.74
-31.93
-31.99
-29.03
-24.09
-18.76
-14.71
-13
-13.78
-16.13
-18.4
-18.75
-15.75
-8.76
1.85
14.77
27.96
39.02
45.75
46.69
41.64
31.67
18.86
5.59
-6.27
-15.8
-22.98
-28.28
-31.99
-33.91
-33.42
-29.88
-23.09
-13.51
-2.08
10.01
21.58
31.64
39.32
43.91
44.95
42.47
37.18
30.52
24.36
20.38
19.49
21.47
25.14
28.88
31.28
31.6
29.77
26.13
21.23
15.7
10.29
5.7
2.32
-0.18
-2.89
-7.29
-14.36
-23.9
-34.24
-42.77
-47.02
-45.75
-39.51
-30.34
-20.83
-12.96
-7.35
-3.26
0.8
6.11
13
20.67
27.62
32.54
34.97
35.44
34.97
34.3
33.41
31.57
28.12
23.19
17.98
14.26
13.47
15.81
19.92
23.45
24.08
20.53
13.03
2.99
-7.73
-17.65
-25.89
-32.15
-36.22
-37.83
-36.76
-33.19
-28
-22.6
-18.46
-16.54
-17
-19.19
-22.2
-25.28
-28.16
-31.01
-34.16
-37.76
-41.62
-45.26
-48.07
-49.63
-49.79
-48.75
-46.95
-44.92
-43.17
-42.07
-41.77
-42.14
-42.88
-43.45
-43.24
-41.67
-38.27
-32.88
-25.63
-17.04
-7.87
1.03
8.93
15.41
20.42
24.24
27.34
30.09
32.68
35.06
37.07
38.56
39.59
40.32
40.99
41.81
42.83
43.98
45.18
46.36
47.51
48.56
49.33
49.48
48.55
46.28
42.77
38.64
34.86
32.39
31.71
32.62
34.22
35.33
34.97
32.74
28.85
23.91
18.58
13.33
8.38
3.79
-0.39
-4.04
-6.92
-8.78
-9.4
-8.65
-6.64
-3.77
-0.74
1.62
2.63
1.99
-0.08
-2.94
-5.7
-7.53
-7.86
-6.48
-3.61
0.14
3.79
6.27
6.64
4.4
-0.28
-6.69
-13.77
-20.43
-25.86
-29.57
-31.35
-31.14
-28.99
-24.97
-19.22
-12.12
-4.24
3.58
10.44
15.61
18.78
20.18
20.5
20.54
20.89
21.64
22.43
22.61
21.6
19.1
15.2
10.25
4.69
-1.09
-6.87
-12.59
-18.28
-24.05
-29.95
-35.9
-41.7
-46.9
-50.96
-53.25
-53.27
-50.75
-45.79
-38.89
-30.82
-22.55
-14.94
-8.63
-3.89
-0.71
1.16
1.98
2
1.41
0.37
-0.95
-2.36
-3.65
-4.64
-5.17
-5.07
-4.1
-1.96
1.57
6.51
12.42
18.41
23.24
25.77
25.39
22.3
17.48
12.3
7.94
4.96
3.18
1.92
0.39
-1.99
-5.53
-10.44
-16.86
-24.87
-34.12
-43.78
-52.75
-60.07
-65.41
-68.99
-71.26
-72.29
-71.59
-68.3
-61.73
-51.93
-39.78
-26.7
-14.01
-2.52
7.62
16.64
24.86
32.51
39.75
46.64
53.17
59.03
63.47
65.36
63.57
57.64
48.35
37.93
29.67
26.88
31.61
43.65
60.47
78.04
92.38
101.05
103.87
102.41
98.77
94.19
88.41
80.15
68.21
52.63
35.06
18.09
4.03
-6.12
-12.97
-18.08
-22.93
-28.23
-33.76
-38.91
-43.37
-47.43
-51.86
-57.34
-63.95
-70.94
-77.01
-80.7
-81.03
-77.77
-71.43
-63.1
-53.92
-44.8
-36.24
-28.44
-21.42
-15.26
-10.07
-5.9
-2.68
-0.16
1.95
3.87
5.62
7.02
7.83
7.84
6.94
5.17
2.72
-0.1
-2.82
-4.91
-5.86
-5.4
-3.57
-0.74
2.58
5.91
8.98
11.65
13.85
15.5
16.41
16.49
15.74
14.41
12.88
11.44
10.18
8.93
7.36
5.19
2.33
-1.06
-4.71
-8.33
-11.77
-15.07
-18.42
-22.11
-26.47
-31.77
-38.05
-45.06
-52.18
-58.49
-63.03
-65.02
-64.16
-60.66
-55.18
-48.62
-41.84
-35.5
-29.96
-25.28
-21.25
-17.49
-13.6
-9.32
-4.57
0.45
5.41
10
14.07
17.74
21.28
25.05
29.3
34.12
39.31
44.35
48.4
50.4
49.36
44.74
36.79
26.6
15.9
6.59
0.25
-2.15
-0.39
5.12
13.5
23.55
33.97
43.5
51.18
56.56
59.72
61.19
61.73
62.1
62.91
64.56
67.24
70.88
75.2
79.73
83.88
87.06
88.84
89.03
87.68
85.02
81.39
77.09
72.29
67.04
61.36
55.27
48.92
42.49
36.17
30.02
24.01
18.08
12.21
6.54
1.34
-2.98
-5.94
-6.99
-5.68
-1.86
4.07
10.96
17.01
20.27
19.25
13.62
4.4
-6.3
-15.83
-21.75
-22.33
-16.93
-6.06
8.62
24.53
38.67
48.18
51.06
46.62
35.63
20.12
2.85
-13.31
-25.91
-33.45
-35.6
-33.23
-28.02
-21.96
-16.67
-12.99
-10.96
-10.05
-9.71
-9.66
-9.96
-10.87
-12.69
-15.56
-19.38
-23.84
-28.54
-33.05
-37.02
-40.28
-42.74
-44.44
-45.49
-46.08
-46.48
-47.08
-48.26
-50.17
-52.54
-54.62
-55.37
-53.94
-50.15
-44.68
-38.9
-34.3
-32.01
-32.36
-34.99
-39.06
-43.68
-48.16
-52.05
-55.04
-56.89
-57.5
-56.9
-55.43
-53.64
-52.15
-51.44
-51.68
-52.72
-54.14
-55.46
-56.32
-56.56
-56.28
-55.75
-55.21
-54.66
-53.66
-51.25
-46.19
-37.47
-24.84
-9.16
7.73
23.56
36.41
45.28
50.21
51.93
51.32
49.02
45.36
40.64
35.2
29.52
23.95
