98.603
300.5
68.94
-61.669
-79.921
-27.973
-27.838
-67.063
-25.185
35.012
-6.2582
-14.141
8.2316
13.108
-8.6837
0.73252
1.0364
-2.7589
4.2077
0.97469
10.509
18.15
40.832
22.032
137.23
316.88
-298.25
-211.58
-25.19
30.705
-11.461
-4.2072
15.488
-42.786
-79.205
-41.973
55.829
14.322
64.908
2.086
-67.478
32.797
135.89
63.077
-112.64
-57.156
64.178
-16.243
-8.5657
274.01
-216.23
-515.53
526.24
-38.014
-274.12
408.12
-70.836
-479.6
302.42
49.472
-180.66
-58.274
85.022
245.96
106.74
-174.23
-48.315
34.701
-12.971
18.003
64.61
-14.715
-63.29
17.32
-18.291
-33.237
-33.881
7.9083
66.282
75.849
-38.328
-35.977
1.6367
-9.5997
-8.7214
7.657
1.3916
12.267
3.9705
-24.139
0.12082
208.11
95.224
-52.694
-105.77
26.636
-558.9
-719.54
509.28
176.89
154.2
278.31
170.12
-48.283
-7.9263
-58.53
-44.023
-0.86038
-27.884
-58.187
149.75
242.24
-50.333
-156.82
-201.6
-104.62
4.5406
-80.445
29.026
115.47
14.584
87.107
67.24
167.81
261.4
36.963
-226.76
-546.35
-251.03
306.4
378.43
-51.073
46.513
165.52
67.045
-522.76
-265.22
-24.141
27.722
204.41
31.676
224.5
72.485
362.67
183.68
-351.87
-104.34
-145.81
-600.75
-252.87
320.93
648.82
179.87
-670.29
101.24
337.93
-195.71
-108.89
139.63
169.69
-10.658
-236.12
-216.31
263.7
502.07
104.52
-351.1
-88.109
-311.68
-91.115
366.91
-171.09
-121.83
342.42
-28.311
-276.2
19.535
422.53
-117.15
-70.438
76.065
-259.46
-242.58
549.04
299.78
-161.87
-240.64
-716.32
-152.36
324.78
-11.736
254.15
421.26
142.31
4.8103
-191.62
-364.53
198.35
25.183
-178.19
39.783
36.318
91.14
62.815
-119.34
-209.45
106.26
298.98
-118.6
-6.6293
172.34
-44.96
-241.64
60.334
169.1
-240.96
-27.559
382.72
46.44
-271.7
-240.01
-247.26
97.783
79.743
-62.007
201.44
383.92
-58.922
-370.95
14.054
90.361
145.93
102.72
-172.18
-85.878
26.391
-37.106
66.294
113.84
-202.54
-232.54
68.684
255.22
113.75
-59.893
-106.86
301.73
208.48
-319.42
-549.55
-99.422
192.78
-13.333
118.2
294.89
12.446
68.825
-255.42
81.34
185.46
-158.09
-103.25
-23.76
269.73
63.278
61.617
-38.981
84.004
-144.4
-94.587
-159.66
150.41
-59.622
-157.58
-36.529
71.203
192.37
-74.953
56.139
-39.953
112.92
-202.5
147.57
-77.085
-101.12
-63.278
-180.91
201.7
461.69
-429.49
-287.97
-13.418
517.96
365.38
-192.35
-217.14
49.731
-113.37
-288.81
425.52
-210.92
-18.487
-57.939
117.96
30.026
220.95
116.4
-132.82
-97.856
-288.62
-92.648
118.28
453.72
-52.424
-447.72
95.586
-61.272
57.947
70.631
-147.38
198.93
-0.37002
217.01
-91.106
-13.366
64.317
-242.37
108.71
-223.89
-107
46.63
78.466
401.37
193.19
-269.82
-494.93
158.51
356.68
-124.14
80.381
-28.829
-263.58
48.063
96.228
-0.48739
45.37
-71.54
130.94
-6.6851
-165.15
150.4
-141.57
-12.952
67.893
249.36
136.38
-182.53
-183.19
-638.2
528.08
31.152
-600.7
117.74
879.05
-196.58
-143.3
182.55
-413.23
-263.41
380.54
235.32
66.034
-174.58
-22.914
134.7
-90.625
-241.86
50.989
169.06
12.923
3.6196
80.914
15.777
-56.742
-4.2149
-163.77
74.459
228.83
156.58
-205.76
-292.33
55.812
208.05
75.995
-107.94
-15.406
-107.18
-227.45
333.63
76.645
-24.356
-153.55
-387.17
195.28
111.36
21.402
-194.67
140.05
222.16
76.525
-269.59
-68.205
240.41
91.37
28.137
54.479
77.478
-433.06
-13.811
-86.319
165.33
-27.746
-205.91
251.75
44.675
82.111
-167.45
97.545
-56.416
95.136
201.37
-76.245
-148.69
-25.566
88.536
30.784
-267.39
-72.421
95.676
-9.7194
60.477
-56.188
240.85
248.2
-198.8
113.2
133.17
-358.36
-615.65
-294.74
391.78
800.63
-250.71
-155.82
205.25
-44.797
-106.97
-143.37
-82.07
178.27
278.98
-166.25
-296.94
48.459
407
28.467
-274.33
-89.748
55.154
4.7947
-21.122
112.5
81.724
-59.515
41.643
37.597
-31.548
-252.7
-17.903
174.63
58.308
-98.319
-61.814
107.19
14.044
-183.44
22.891
-68.72
288.31
86.769
-77.955
-74.412
-48.618
36.4
46.727
-8.0317
-24.498
-8.2764
-16.038
-5.5629
46.026
29.547
-37.632
-26.385
-26.61
-23.95
5.4434
7.9059
-2.4219
-0.68943
23.934
14.157
-11.025
-1.571
17.649
-0.5367
-15.422
9.9343
20.564
39.044
4.9383
-22.626
-29.607
-6.4481
-53.219
57.019
-34.828
278.54
-48.426
-274.13
-168.83
-96.77
104.34
-41.247
251.41
35.737
112.46
-69.028
-28.466
0.36333
276.86
-298.61
-124.13
22.885
167.14
96.172
-69.33
-12.53
-15.036
-20.197
-31.714
-13.135
-0.74847
-9.2046
-16.496
-2.8415
-13.771
3.1432
-3.8245
-9.7039
6.8083
9.6413
-10.159
1.1076
23.762
7.8149
-6.6305
17.804
-7.2386
-23.051
4.4374
20.383
1.2168
14.375
43.615
44.438
-30.848
-49.545
17.989
15.816
11.18
-24.326
-29.185
7.4788
-43.532
-31.526
-21.866
-112.92
65.647
-310.68
186.37
130.36
631.04
-132.76
-258.33
-79.699
-222.79
127.67
116.41
-10.998
-4.9307
-98.285
-34.172
35.046
-3.732
-131.61
-150.06
83.186
358.64
130.38
-192.67
148.55
-233.63
-44.064
231.96
-55.244
-49.109
1.1956
-35.121
8.9627
21.526
-51.464
-1.2139
-35.102
-43.125
99.79
103.38
97.827
-242.32
-1.7957
160.56
-14.369
-230.2
75.882
-0.14824
66.181
-18.748
-29.367
113.05
-53.179
-39.732
-34.594
16.501
104.8
-132.75
-48.18
182.8
-28.494
-144.23
12.988
116.25
82.898
-86.349
-185.59
120.37
120.36
-191.76
11.019
48.985
34.941
143.94
-54.583
207.36
20.089
-48.949
-496.52
-463.45
659.14
3.9047
-78.791
25.405
46.485
-6.6892
-38.205
28.382
135.26
-56.467
-128.49
164.6
-100.94
11.299
-141.06
76.387
268.74
-40.528
-122.72
-29.163
18.687
248.15
-168.14
-79.417
105.72
-24.826
227.55
-214.38
330.11
-483.5
-140.75
-198.83
8.232
541.17
-243.16
79.074
-340.49
49.208
418.59
-245.5
-44.999
73.281
-110.7
62.787
327.54
144.74
-119.47
-267.54
-42.168
487.04
-54.06
-137.34
-51.269
-216.96
26.328
6.6823
51.969
111.3
7.3756
-175.01
-185.69
155.28
161.35
8.2622
-94.589
647.75
39.916
-735.39
-711.95
268.26
469.69
148.54
-54.851
-114.48
-169.34
-287.13
92.285
288.68
418.87
142.72
137
-415.29
-409.15
-150.31
280.91
89.698
130.65
238.55
-277.62
-275.16
99.192
373.29
-167.83
-135.24
27.212
216.58
-112.42
-370.54
353.43
-110.08
41.995
383.13
-82.18
-407.23
-460.32
86.088
134.64
324.82
496.21
-145.02
-287.21
18.419
132.06
-167.22
-198.65
275.24
-33.508
-508.6
33.292
406.73
151.97
47.158
-93.859
-74.392
-152.74
8.2433
-94.269
80.356
159.27
33.303
-54.232
107.53
-207.9
122.14
346.97
-334.2
-413.19
118.99
262.88
381.12
-74.473
-185.89
-184.93
-220.27
261.42
128.05
170.53
47.831
-159.12
-173.56
-315.39
-284.46
135.55
311.41
222.31
-133.47
-139.26
352.41
171.7
-67.854
85.543
-274.56
-309.14
186.16
208.35
-64.287
-315.99
45.024
205.93
74.06
116.12
-105.08
-393.84
179.26
48.873
-84.19
443.42
-364.49
-29.036
141.68
-85.006
48.894
-112.49
-103.98
58.225
-129.6
134.56
464.54
11.428
-226.87
-242.51
130.73
192.03
-157.28
-126.56
-49.651
479.75
-97.028
-572.08
504.44
139.38
223.61
-477.15
-816.89
585.45
-47.328
-127.26
-155.27
526.79
499.01
-485.14
-201.86
182.86
24.324
-11.832
26.669
-15.216
-10.428
-31.512
-17.956
-51.291
219.51
47.478
-173.02
-344.63
254.21
64.595
27.209
21.66
-143.13
-37.469
40.784
-125.46
335.34
123.93
8.5599
-382.25
-92.152
1.1687
252.99
70.275
-323.64
189.65
36.986
240.5
-264.07
-75.768
95.719
399.63
-216.83
-215.98
-200.56
-235.24
169.52
601.56
140.92
-274.84
-45.187
-172.66
37.523
131.76
-350.21
84.53
130.76
-41.869
-89.295
348.85
-62.378
-236.37
104.38
-88.022
0.49108
81.082
284.79
-151.22
9.6967
104.85
-628.25
-212.2
122.27
484.87
172.53
75.595
203.49
-496.1
-296.43
240.24
404.68
-66.087
-613.82
-3.9432
95.546
-34.497
214.12
205.22
2.5813
287.42
189.55
-98.589
-252.19
-203.6
-643.06
267.87
320.41
3.4113
150.37
-199.45
-311.15
199.57
-61.695
532.15
36.372
-287.09
20.049
-116.48
39.351
-65.851
42.231
49.521
-35.001
24.801
62.401
-44.068
-47.912
-34.538
-27.334
33.441
-28.586
-10.827
135.97
200.26
-102.69
-408.46
162.27
119.34
-63.189
-69.321
60.764
166.68
85.749
-125.42
-56.185
-105.13
42.781
211.7
389.65
114.24
-936.09
-726.98
738.26
22.005
-68.525
-38.293
38.63
-75.083
126.82
365.95
269.92
-123.83
-331.37
292.08
-572.52
252.72
588.73
-175.32
-258.46
60.039
81.153
-124.01
-60.721
-54.312
6.9468
-4.767
-40.4
56.252
59.475
-24.796
-9.7605
6.9679
6.3268
-15.943
-2.0667
-25.621
-33.635
91.564
39.436
-4.6593
17.985
43.721
-17.764
-10.086
-63.726
-45.594
-6.7807
-8.7684
13.876
5.8747
22.508
-7.1054
9.6247
-139.24
-43.095
138.57
63.521
-25.363
43.016
191.39
300.07
-364.17
-62.436
-26.593
-90.008
-117.6
-129.35
250.11
-169.31
-201.87
74.065
495.73
356.99
-418.97
-55.742
4.5639
-196.69
38.48
-84.201
-5.4636
413.69
81.273
-175.93
-304.99
-108.57
-150.39
-100.86
-60.896
33.849
153.33
111.02
-21.205
-94.043
23.6
102.61
293.74
203.92
-12.199
30.962
30.885
-40.344
-25.921
-26.434
-14.051
-15.517
14.375
3.947
0.81815
-37.102
27.34
0.49323
55.914
-79.172
576.47
427.84
-865.69
-288.68
-130.57
89.596
46.817
13.202
33.49
-87.816
35.832
18.575
-59.657
72.869
59.567
76.941
225.14
-545.11
-424.35
411.66
16.403
159.28
-0.54884
-37.123
35.274
13.255
35.908
-46.254
-134.96
23.532
-336.15
150.22
323.16
458.04
-274.87
-256.64
43.109
-27.539
23.673
-2.7656
-44.28
-40.276
25.86
105.67
14.548
-32.806
38.235
56.697
-28.432
47.325
-55.537
-147.36
-102.4
-20.771
-7.0142
34.906
28.085
47.42
10.868
1.9368
-35.378
-10.843
75.705
64.836
37.84
-47.28
-27.363
4.2845
6.3727
0.60148
10.138
-27.045
-21.341
-2.0557
14.122
24.66
-40.809
-66.445
25.644
32.282
12.415
2.6394
3.2584
8.6237
4.538
-2.8334
-1.7809
4.7432
10.444
31.446
10.216
-0.64691
9.9742
-12.541
-22.02
1.9096
0.64781
0.13832
2.3753
19.867
-6.879
-101.21
13.772
74.511
1.9988
-157.73
151.68
184.67
88.292
-285.94
-6.7571
61.454
-61.638
-49.65
58.989
-20.012
-69.885
61.23
-27.631
-67.596
53.862
315.45
-39.06
31.657
-75.826
16.77
-200.64
19.78
-232.99
-566.39
556.15
241.31
63.366
37.103
158.93
57.005
-207.89
-426.2
-199.81
-60.914
62.568
56.951
118.47
140.95
608.38
850.88
-878.8
-314.72
-81.322
-64.728
66.766
22.951
56.917
-8.6098
-50.817
-26.89
23.038
3.0983
-112.13
52.094
93.312
8.7169
-109.41
11.116
23.507
-10.67
-15.467
88.919
-17.166
-210.78
123.4
101.86
-4.0191
-38.679
5.8177
275.03
31.296
-20.31
-78.516
-43.965
-51.341
-114.13
-91.189
-122.71
-22.459
-3.6848
-17.775
-61.943
136.36
294.76
-213.5
-34.65
62.524
76.983
0.30956
124.24
-144.57
-129.33
-1.9276
77.549
-82.188
79.187
342.36
-9.3698
-362.01
-158.91
201.59
123.84
-29.233
53.601
-39.982
-17.913
33.663
-69.298
0.070706
-1.6684
-82.087
-85.05
87.642
69.493
-25.82
-26.488
224.16
-132.43
-14.109
5.5567
19.119
-15.507
-106.7
132.86
69.529
-16.159
52.246
92.057
118.92
-112.69
-602.76
-66.828
469.99
128.87
31.964
-116.04
-713.03
-4.3967
412.01
-10.584
94.464
384.49
130.98
-289.88
-484.47
-32.444
177.93
302.95
118.31
-13.64
136.89
-73.758
-246.97
-50.365
-84.406
-107.47
-154.9
586.47
323.49
-344.47
-89.216
-15.929
101.44
70.49
16.106
-36.589
28.807
82
-164.84
-356.18
-221.86
-17.989
101.47
224.03
146.21
-75.422
-128.53
30.673
34.707
-105.86
-5.8647
226.63
155.4
-10.472
-74.369
-88.045
-64.181
9.5679
13.333
-14.338
32.15
8.576
-13.849
-115.01
343.01
368.97
-177.49
-73.686
-652.45
-257.26
210.72
347.75
315.16
155.32
-186.63
-154.26
-84.546
42.841
-96.914
-92.642
21.915
392.27
-90.269
-485.59
59.818
64.094
-338.61
-76.245
331.84
759.47
1.5537
40.475
-508.22
-460.16
76.396
502.93
439.28
-87.253
-631.89
-70.044
153.02
47.031
-96.718
58.921
199.61
301.05
-387.74
-465.38
137.06
429.32
134.24
162.92
76.83
-724.16
-402.22
72.653
319.53
291.65
0.033202
-19.289
-34.04
3.6565
-16.479
-30.521
-18.638
-26.269
15.722
34.278
15.037
43.956
135.5
231.98
94.792
174.94
-283.53
-203.67
-671.11
-240.8
775.77
-460.71
71.077
206.81
200.67
-2.0626
-84.253
65.138
-75.015
-49.856
-32.834
11.064
-70.381
-140.62
-62.754
-57.327
-34.192
87.462
131.03
304.2
310.72
-154.71
-207.14
222.32
65.294
-124.68
226.79
134.48
-108.01
-520.3
-307.11
94.879
117.85
356.39
-9.4597
124.46
-183.89
-215.09
23.235
53.885
-27.561
3.1212
52.659
-35.46
63.372
88.315
184.19
-133.74
-155.69
372.76
-49.87
-434.12
-466.13
82.707
515.12
154.6
-281.45
-85.543
3.6358
398.19
81.04
-367.71
-184.71
314.52
184.2
-501.77
-237.48
155.74
623.85
25.483
-218.2
-18.498
198.26
-23.743
-394.39
109.98
115.17
-85.87
-7.9829
91.651
-11.67
-108.27
7.756
-44.587
-0.09871
-84.095
-454.29
311.08
130.59
84.55
124.26
13.573
-25.403
-21.589
-12.464
-47.346
43.722
70.675
42.635
85.116
-91.292
-391.45
-62.292
35.974
471.96
-106.33
-333.14
232.04
469.44
-128.61
-316.24
-354.42
136.87
523.37
-74.708
-84.226
-55.375
-63.426
-3.4124
-12.467
265.19
-23.771
-225.63
-299.67
143.69
202.48
312.75
143.23
-90.065
-594.2
-425.92
-36.409
305.95
190.85
86.31
57.247
-175.38
-105.1
36.79
140.28
159.74
5.4677
30.445
1.126
-39.081
-11.626
-8.7397
-4.9409
-69.744
8.1331
68.89
-1.4735
-0.85081
-10.862
6.6516
3.082
6.8115
63.814
-26.87
-118.86
38.543
33.262
-9.0528
-24.757
28.456
-0.67118
-6.1847
-12.293
-24.703
-15.206
-56.149
-20.782
124.5
121.74
8.8543
-58.601
146.1
126.91
-221.67
-372.63
-86.405
407.56
-30.063
129.27
43.201
-34.755
-357.75
-282.38
276.81
111.47
174.11
-22.647
64.233
148.74
51.34
-22.362
-55.592
-9.5368
-248.31
-300.93
22.935
49.095
208.91
-47.376
-140.46
-38.109
31.594
-14.375
33.36
89.804
48.743
-177.06
-80.419
229.47
227.55
1.5323
-417.1
104.18
-22.178
123.14
-11.314
-221.89
271.79
425.1
-30.55
-190.21
-90.422
-258.51
82.752
263.42
195.09
-400.22
-462.47
-184.22
104.79
521.52
312.66
-193.43
253.18
-330.23
-491.41
196.2
332.45
170.07
62.918
-138.03
-183.81
179.03
-98.28
274.78
-105.31
-133.26
241.16
132.34
7.6041
-152.37
-70.854
-467.74
-434.04
-22.813
-79.841
61.544
149.15
291.24
-123.2
516.55
758.26
-730.85
14.301
-104.69
4.4495
-42.962
-233.13
-62.83
185.58
102.47
-0.51609
93.475
93.028
53.198
-81.191
-53.081
-31.384
-465.35
14.491
528.77
22.333
-100.92
7.0752
-123.75
268.85
289.67
-378.39
-726.44
-42.447
494.37
-537.97
-156.75
265.54
169.56
49.248
85.47
99.523
10.451
97.46
329.3
104.74
-33.147
-15.94
-24.297
-17.556
-26.852
-28.533
-17.544
-31.612
-3.1212
-37.031
28.755
-27.028
268.08
274.86
-515.21
-88.919
-127.14
162.14
-166.54
82.936
154.37
-441.47
118.09
23.574
-19.522
-94.751
308.44
55.969
152.74
-131.71
-187.09
205.71
-207.58
-344.21
58.948
397.46
-139.64
-11.848
6.353
-28.404
34.188
-4.7942
-16.022
-249.98
13.716
62.597
179.3
475.15
-323.97
-376.9
245.9
300.66
-108.93
187.89
-281.8
166.28
-34.598
-294.93
212.49
-292.21
21.763
271.83
38.638
-201.98
-50.836
-52.733
211.85
21.237
11.389
-4.5169
257.61
-363.21
-233.69
89.457
-179.03
-189.01
349.93
473.33
-109.94
-202.84
39.399
99.701
-3.5355
-61.853
196.5
69.578
-341.48
-361.55
382.46
169.75
-16.619
-206.15
-237.08
144.8
124.43
-2.4673
96.963
24.215
40.107
77.39
-158.02
60.275
30.104
-68.022
-85.465
21.174
-138.12
-55.862
136.86
-50.985
145.34
14.407
107.86
-218.18
-234.44
225.9
33.724
254.03
-154.81
-284.16
-31.075
205.93
35.441
33.635
-46.76
-23.651
-73.653
154.59
-2.3393
4.7819
-38.006
-4.7038
25.956
122.39
-390.91
168.18
273.45
-209.81
-4.2016
-156.08
-10.971
290.55
155.17
89.136
244.36
-559.98
-199.14
461.01
-17.356
-334.67
-551.35
-383.75
607.55
294.81
-11.129
-33.165
64.394
-228.57
-59.926
179.87
377.64
323.76
-326.99
-358.56
-217.23
758.7
-96.79
-344.98
283.51
-32.093
-404.61
72.382
-110.57
345.6
76.094
-76.622
-194.96
-66.778
-47.933
369.35
-175.14
132.82
223.68
-582.55
13.601
395.04
-246.04
-177
-2.3244
-12.412
-176.15
27.97
-16.135
189.52
251.41
1248.8
-51.892
-913.68
-462.65
65.434
-57.62
-103.93
264.57
67.931
60.404
-169.43
154.6
-214.05
71.94
161.11
-44.612
102.81
58.883
4.0057
-696.49
108.17
339.4
-129.8
104.08
-294.27
336.09
259.72
-102.31
-50.16
-71.77
-146.52
-33.805
163.64
217.59
-227.97
-63.924
-25.359
140.28
-188.47
-85.198
-30.246
-91.031
51.582
247.32
426.86
24.17
-332.83
-162.44
112.39
-44.69
-49.854
-40.005
26.991
133.51
-0.76551
-11.447
105.49
-144.55
18.114
355.94
-76.554
-145.42
-423.9
-23.363
-224.4
82.437
703.92
-125.27
-361.53
-239.62
121.9
234.58
109.35
-33.666
-52.931
-42.13
3.4679
-44.437
778.39
-238.57
-584.2
232.35
104.97
48.78
-423.55
74.692
15.967
4.2508
123.57
62.483
504.17
240.06
-536.43
-612.78
-292.04
-15.606
116.38
-75.505
366.28
670.7
118.79
-277.64
-17.087
-62.241
98.827
-492.07
47.948
181.82
-248.71
-186.84
-203.92
420.49
-62.345
-36.635
43.919
123.18
134.47
369.04
185.46
-589.66
-394.7
687.27
193.46
-476.95
30.589
135.12
-104.88
145.1
121.06
-12.133
-77.616
-88.106
-82.057
-17.367
16.01
-39.872
-32.458
-178.28
369.22
2.618
-88.962
298.09
-211.54
58.506
-56.573
-438.19
20.246
-305.1
149.66
-36.273
318.68
375.29
253.28
-218.24
-626.87
-64.747
289.28
289.39
26.243
-61.65
-72.328
-154.14
153.45
-216.93
-95.058
600.22
248.97
-506.59
-265.29
289.96
227.76
-153.97
-144.83
-221.59
66.291
213.88
-137.52
-10.584
210.32
-381.19
219.95
-167.19
4.9608
276.03
22.276
-550.13
275.9
148.79
61.041
88.117
-115.02
19.277
-234.94
-99.753
335.79
188.56
-316.71
-19.627
212.16
7.4165
-31.494
-24.62
-177.35
-88.475
-21.842
218.59
23.459
0.67827
-128.21
-101.1
90.173
11.254
-13.467
44.579
50.511
19.048
-23.924
43.008
-21.816
58.595
95.333
133.95
101.75
-232.04
-309
-77.17
115.07
86.145
143.57
-68.181
77.726
203.96
-906.09
356.73
-175.64
18.326
434.52
-27.23
-180.94
379.91
278.23
-275.13
-15.242
-499.94
22.389
534.54
-195.98
-617.96
10.445
597.64
185.88
206.13
-368.15
-170.67
13.056
70.715
106.67
-182.48
200.13
83.596
-658.35
-125.44
169.29
126.64
275.96
93.471
67.478
391.43
-240.03
-176.52
-439.37
298.37
167.37
-512.54
-195.1
119.9
335.27
254.73
192.64
197.93
-333.9
-248.75
113.54
-93.555
53.527
-58.687
-42.655
27.202
-29.008
67.701
-56.457
-99.886
87.009
158.23
-92.938
-4.8953
-23.154
56.613
37.671
240.9
55.201
-193.15
200.37
-84.567
-443.99
-163.4
-787.09
546.86
258.2
443.45
-271.35
-19.569
-0.014784
-185.01
227.84
258.95
130.7
-286.88
16.817
88.273
168.75
-65.802
-46.301
-213.93
21.697
-336.23
312.5
107.75
-234.39
-169.45
274.36
111.6
-86.588
12.046
4.8717
-41.667
-43.148
16.942
20.889
34.725
27.89
32.012
-14.034
8.116
48.54
-7.9701
-41.852
6.9149
40.921
-31.923
411.35
-109.63
87.9
-60.582
-586.04
30.179
-309.17
294.15
558.27
66.848
-180.76
-663.38
-68.038
-55.02
377.9
-10.991
667.82
65.937
-600.97
79.687
-440.84
-7.9855
69.814
348.28
1.936
91.286
2.6183
-190
-49.3
83.828
86.035
6.3064
30.687
-5.2009
19.833
26.699
-8.4585
-30.972
-4.2321
19.816
-3.0674
-14.512
1.791
27.345
20.845
67.628
-71.065
-124.28
112.32
-47.634
270.47
170.58
-99.143
-143.55
-561.04
-303.5
181.6
503.86
-85.999
-51.997
-10.865
-0.72096
25.582
58.05
58.981
252.32
-202.78
-253.07
334.47
9.9528
-556.75
244.98
36.095
-58.505
197.05
264.21
-594.15
524.66
-173.68
-470.65
123.51
-181.83
33.565
-24.835
198.89
435.63
83.275
163.86
27.262
-429.07
-14.357
-230.96
318.31
109.23
-270.08
17.062
126.81
150.17
-377.39
-19.414
406.71
-85.005
-455.97
73.144
-269.29
182.83
258.58
114.55
-76.937
3.1075
-31.3
21.985
4.6194
1.3459
16.225
13.876
-14.218
2.7831
32.146
8.8607
21.517
149.15
189.76
93.226
-340.14
-416.4
-108.93
84.083
290.05
41.939
10.893
-32.804
-22.097
-12.56
13.203
-5.6717
-8.9157
16.74
20.685
-82.198
-31.41
164.99
-200
31.964
-13.384
72.507
75.276
14.433
22.189
-63.468
-88.323
-62.284
33.76
23.254
18.996
13.131
-35.681
3.2143
33.909
-19.971
26.117
27.334
3.283
-51.809
48.371
6.2693
-123.26
139.54
-33.989
48.069
107.49
-125.56
-163.08
89.51
-15.991
-10.866
31.586
54.535
1.8985
-19.374
-8.9982
-23.72
7.6859
13.017
59.621
422.45
-297.99
-462.56
-103.35
77.434
285.97
74.533
44.674
-8.7807
-23.575
-41.3
-55.646
-27.893
24.428
-30.181
-12.956
26.624
25.094
-3.0407
26.467
29.363
3.838
96.984
256.61
-244.34
132.25
-129.8
-298.83
366.77
-44.037
-166.75
-418.35
-188.5
139.65
122.03
634.09
215.04
-203.5
-106.17
-310.37
126.79
-81.217
-15.728
141.71
22.951
-126.58
88.575
-81.532
95.524
28.356
-119.84
14.559
9.4191
176.74
-29.941
-291.6
71.916
-81.805
-39.562
267.98
189.08
-203.85
-49.582
67.747
303.63
-140.86
-81.715
-40.71
-358.44
-265.29
260.37
205.01
122.21
-78.124
-68.486
117.82
87.63
-190.15
-95.854
256.52
31.036
-221.38
94.758
-38.415
-127.93
-105.61
-63.632
134.21
247.12
10.699
37.594
27.649
-16.991
3.506
78.52
-56.626
-63.154
335.64
-31.937
-4.5363
-477.37
83.47
-269.15
-118.88
34.568
-93.96
235.89
823.52
-130.37
-555.61
-120.18
176.82
296.47
3.4522
-19.946
73.832
203.57
-98.539
-220.02
-216.77
76.605
-143.23
-530.36
89.328
402.08
-220.49
226.05
36.141
-49.05
-220.56
-14.099
597.29
92.529
-155.25
43.352
-149.58
-145.49
-94.051
-17.366
491.86
-427.71
-324.36
119.54
111.32
420.38
541.38
-349.82
-346.62
12.218
-123.56
-6.9811
152.75
-24.567
-31.073
-85.111
3.0317
-72.42
252
122.89
-227.94
-121.12
41.211
243.52
-20.786
-120.07
-0.81152
-31.611
-28.654
-208.2
211.13
-107.54
-38.641
251.1
198.55
-186.74
-212.84
134.62
126.51
-64.51
-130.77
60.934
-188.31
-5.0445
194.48
7.1792
-111.11
71.233
87
300.03
-61.396
-516.76
24.058
374.13
172.7
-390.19
-168.68
100.21
167.29
354.94
-320.25
-375.57
-214.28
-59.269
146.11
-35.413
-24.616
422.96
200.12
-108.61
364.56
-154.04
139.25
-133.23
-64.004
79.311
-605.12
389.06
107.7
206.16
-66.185
-309
141.13
-257.01
25.07
181.04
28.373
-156.77
-293.67
223.94
87.47
-137.84
12.006
225.54
-185.77
381.05
121.16
-415.06
-371.07
271.71
313.76
-44.948
13.423
-62.37
-13.781
-64.383
-75.563
29.958
213.44
167.89
0.57779
41.526
-313.85
-569.81
-273.74
41.455
13.47
150.09
446.87
406.01
225.12
108.67
-563.76
-37.915
428.46
-808.89
-299.42
165.53
96.727
155.88
98.665
-17.147
221.53
254.14
32.361
-514.01
-179.03
334.09
149.3
227.27
192.14
-65.816
-242.16
-494.79
-184.11
179.33
-34.24
100.12
927.9
-470.67
-211.11
-110.31
60.692
8.3137
-14.748
20.245
44.77
225.21
-222.68
-303.7
219.38
-220.73
48.385
153.82
-27.766
-30.068
233.33
-264.19
-299.46
30.232
237.2
92.742
-29.09
231.55
202.89
-2.4281
-328.67
-83.683
4.7376
453.19
-175.02
-590.7
70.735
548.16
-55.545
115.4
-20.696
-693.69
-122.67
49.998
389.24
583.81
-333.09
-60.544
-120.6
0.77964
-96.398
-17.474
306.78
193.2
-97.985
28.516
76.761
-691.86
-524.77
966.98
139.71
-271.2
-388.6
309.16
-197.36
-54.635
294.02
-54.33
347.36
-89.947
-91.584
-233.46
138.72
-90.74
-76.369
147.9
-93.761
235.04
56.959
-10.633
-97.512
-94.803
-79.959
231.2
-7.7991
-143.14
66.937
-314.57
244.55
23.844
294.76
47.537
-366.58
-188.46
114.26
75.823
113.89
-85.64
1.9246
216.1
68.02
-129.33
-519.26
157.74
3.6601
65.108
222.2
-152.19
239.4
97.241
11.636
-75.364
232.26
145.97
-42.037
-429.06
-588.11
-230.44
-13.338
156.41
46.003
400
551.65
103.76
-264.22
-98.545
161.2
8.8984
-422.58
-378.88
224.43
290.38
-59.532
-149.16
100.18
103.71
2.543
-34.545
10.866
43.387
72.276
114.35
-114.51
-279.88
-92.742
137.32
84.189
-168.12
-219.23
-34.439
300.77
167.69
-73.562
-51.559
150.19
-48.23
-54.338
76.8
101.31
33.838
75.364
51.751
-0.5155
120.74
77.775
-572.39
-190.19
115.26
-281.53
-95.993
94.62
357.38
533.76
-216.65
-276.88
-137.33
101.17
232.62
174.02
72.14
166.11
-365.29
-279.26
-92.455
165.12
72.385
-253.16
98.396
434.84
-314.96
38.288
-191.4
-258.93
118.91
499.26
-79.655
-211.42
-38.584
-227.92
22.417
157.76
222.64
146.14
-51.423
-75.335
209.87
8.4756
-69.561
-229.36
-214.39
3.5333
145.56
87.566
-166.83
-32.807
-63.071
-384.61
610.07
320.42
-219.3
-150.38
148.58
28.796
62.137
-121.79
76.756
-151.05
70.611
157.22
-90.492
-14.545
178.14
-234.48
-525.49
222.93
466.27
251.68
-186.43
-575.34
1.6501
81.648
-234.67
242.6
58.641
77.668
62.147
-7.8835
-33.986
22.604
10.684
-25.65
15.6
54.306
-6.3139
-19.86
38.497
-42.165
12.227
82.093
279.93
161.09
-27.444
115.83
-427.88
-600.85
83.773
-308.03
-12.3
240.19
167.25
135.23
14.419
111.34
192.84
19.326
-229.75
-130.6
80.735
-81.287
240.13
-145.84
189.62
-242.54
-138.06
190.47
24.04
-32.479
26.339
3.8245
-152.99
-41.05
10.968
199.53
56.845
66.937
320.74
-265.77
-401.01
-538.22
469.66
745.01
-315.26
-89.393
-15.701
-160.76
221.11
-122.78
-94.13
125.84
76.939
100.06
-184.12
228.59
-343.9
-305.49
148.45
361.74
-50.307
-171.5
6.4402
14.622
-125.76
259.62
-242.96
-65.486
-0.29632
560.94
499.83
-387.12
-257.69
-140.35
202.7
-171.24
-169.61
36.995
108.77
-19.315
-57.569
-225.05
83.595
267.5
-374.61
61.386
201.99
369.85
128.13
-617.25
-148.97
180.09
55.059
105.27
174.57
30.745
-105.92
-121.41
-41.582
5.0136
-40.624
37.549
223.61
35.206
-328.87
-96.01
329.1
-77.766
283.34
34.466
-303.76
-269.26
52.481
-42.633
-202.77
-105.04
88.237
164.4
217.31
12.573
70.464
209.49
132.94
-23.996
-200.6
-83.941
-204.22
27.337
0.95983
58.753
196.34
29.769
-40.202
-91.866
-92.551
6.4292
40.525
-115.25
-33.465
-61.646
107.96
-8.9729
398.3
86.157
-604.35
-24.926
3.4273
213.3
-11.469
139.74
20.545
-14.608
-38.957
-55.22
-23.99
32.41
18.908
8.8685
48.93
26.315
-61.962
-33.339
-17.513
-14.211
10.425
0.12479
-31.816
-8.9866
12.424
3.3111
88.722
286.94
-15.344
78.5
-397.02
-627.67
-96.006
-12.291
235.72
133.61
461.95
638.82
-415.7
-390.5
136.49
-54.418
-96.542
-105.98
94.878
306.77
-209.46
-392.94
258.95
233.01
-67.472
-94.155
327.88
-119.82
-454.11
-147.22
240.14
222.2
145.48
5.5495
-172.32
59.269
-78.928
96.903
-84.361
-175.31
204.05
260.47
-214.74
-67.818
-215.8
166.37
61.78
4.9947
-13.127
1.1784
-27.266
17.879
-13.486
128.57
30.776
-383.76
268.8
-73.894
-76.997
161.89
49.279
-125.98
-18.5
84.445
-148.2
-52.78
156.19
51.154
81.138
-28.198
-75.338
36.742
-19.296
-24.12
-1.3303
18.119
-36.78
-54.156
-60.464
92.387
72.269
19.684
66.289
-52.97
-67.439
39.04
34.463
-309.65
-63.626
186.23
75.641
22.338
-65.994
20.772
13.938
-77.044
21.287
173.91
-18.117
-28.198
-18.091
48.955
-21.007
-51.309
-32.284
-3.5027
9.8885
10.456
0.69665
-0.20304
4.545
8.1773
5.3842
-6.7519
-3.4244
19.063
-17.623
-59.506
14.002
-0.1064
26.336
55.488
9.608
9.4233
19.337
25.698
85.874
178.95
-429.46
-252.73
207.43
24.56
26.342
-6.6993
108.51
284.35
-167.94
-147.81
24.169
15.313
-7.4314
53.04
27.185
27.019
-74.121
-113.03
-33.003
109.66
183.76
132.42
-276.49
-467.08
-35.738
200.58
-54.773
65.158
245.86
73.658
62.513
-60.424
-64.507
-39.095
-0.39233
-27.942
-21.395
25.596
8.4354
-12.794
-21.418
53.395
-6.0993
130.68
-143.66
-6.3016
151.64
-151.38
-41.777
139.03
93.572
166.98
39.198
-77.624
4.178
-384.11
-198.27
78.575
-138.73
-79.283
-117.58
37.494
75.189
1.4196
-41.76
-7.8064
47.481
21.941
-12.173
55.614
82.458
283.34
284.81
39.058
5.7273
-63.675
6.5688
0.19202
941.77
845.99
-1238
-497.14
-247.43
-417.12
312.2
-125.43
8.5724
92.54
-231.47
101.15
200.31
-148.23
323.02
290.79
-69.497
-172.35
44.68
-407.96
92.919
-584.23
172.32
199.65
-42.777
144.89
-109.65
-228.45
-1.7714
222.33
999.92
703.56
-1399
306.78
-389.89
-15.125
44.055
62.743
-138.75
63.822
220.14
138.1
-54.792
-121.49
94.405
-36.015
-204.12
-143.59
-28.11
-15.236
79.312
88.357
240.88
320.57
-89.132
-166.77
-732.72
-493.09
43.394
144.01
33.111
195.4
320.92
2.8797
32.795
69.164
-59.98
85.598
178.62
-21.324
-39.45
-42.374
53.246
84.083
-34.827
-31.397
25.182
-28.137
-50.346
7.9238
52.263
13.943
-150.31
26.087
100.8
59.329
138.41
140.84
196.24
-107.44
-153.25
7.8387
-428.02
-628.11
15.655
-23.819
87.565
58.183
371.94
178.64
-6.5518
-2.0257
31.773
-41.445
25.637
75.146
0.17737
13.488
-21.809
-7.7442
11.763
-17.054
-9.8961
18.666
-13.301
-24.15
14.619
-5.0076
-18.11
0.30821
13.128
-14.139
-6.9062
7.0102
12.205
36.445
174.36
158.75
-1.0917
106.04
-220.96
136.1
-362.19
-177.63
330.73
-566.52
106.96
224.8
71.785
-213.41
-476.67
-61.452
-43.035
221.79
326.83
141.54
11.83
-25.107
51.847
12.999
9.7744
15.202
-91.724
-93.235
315.96
387.94
-386.06
27.982
-251.33
-265.6
0.40197
260.78
127.59
-22.967
159.26
-171.4
-204.85
280.16
-24.478
-202.43
222.69
159.99
-220.45
-9.543
-313.94
-112.39
-1.5383
165.82
388.89
167.33
-96.766
-90.228
-34.756
9.9813
56.759
105.66
-122.57
-116.32
-138.99
132.06
74.606
-112.26
3.9905
-60.093
98.641
274.19
9.1891
-426.01
-280.4
-34.773
-42.346
28.567
-8.4926
20.953
43.382
18.794
342.28
-110.86
-68.023
150.26
29.446
167.44
-11.295
1.1589
167.02
125.39
293.15
755.27
-667.38
-599.42
-251.77
-231.58
80.209
237.48
-6.4042
64.176
-29.505
-45.641
62.162
-101.64
101.58
381.64
-123.17
-355.48
120.61
475.37
-103.39
-296.37
-699.57
-283.21
78.04
53.088
481.13
292.96
-52.313
-278.78
134.74
-76.301
-34.134
-171
-78.449
35.143
24.68
133.72
-132.8
141.46
650.61
1305.4
-825.59
-619.99
-150.34
-480.08
329.78
-274.1
232.44
509.6
-341.77
38.014
-319.35
-219.25
560.32
230.61
-407.24
279.13
-424.65
355.5
-360.29
81.248
-19.097
107.1
71.901
-53.671
72.838
-64.938
9.9138
-49.317
-27.18
-11.188
31.523
17.154
26.226
-161.55
96.218
101.05
0.095131
40.774
-19.57
-140.48
-68.502
153.53
-10.212
-135.61
130.95
34.279
16.134
-53.13
-66.853
5.2937
-13.563
-31.211
335.06
245.23
-276.43
-330.91
-257.9
249.19
151.47
71.734
-114.95
0.030036
7.2253
-14.132
-28.479
8.6903
111.71
-24.916
-130.14
120.34
23.141
-54.484
58.577
-84.568
4.7756
23.433
-34.672
-76.413
51.99
173.44
168.97
-362.89
28.763
9.7027
71.102
242.77
-317.41
-128.34
300.86
-121.84
-88.656
166.7
-83.568
-67.578
22.761
31.271
37.868
-75.455
3.0197
43.476
-49.359
43.675
137
22.042
-7.5165
-113.62
-10.024
3.3277
-38.634
-18.739
-21.348
-2.089
34.465
-38.176
-4.5014
45.942
15.589
38.59
-9.5345
-28.226
6.2092
25.725
-17.164
-20.857
39.775
12.998
-18.696
-20.138
27.224
12.785
-28.644
-19.025
29.269
6.0822
-26.668
-14.982
23.589
13.652
-24.846
-6.6146
25.314
4.2483
-42.728
38.996
16.031
43.68
-55.901
262.2
-164.85
-252.36
-32.952
-78.426
207.66
4.6555
49.529
-16.895
2.5942
43.86
24.995
-70.916
14.884
54.527
-37.986
-38.326
-31.942
54.78
-35.845
-42.47
10.711
25.311
54.306
40.407
121.36
17.231
-215.34
49.318
-44.594
-132.09
65.991
14.056
-70.704
-20.379
23.172
132.97
72.464
-13.234
-19.627
22.051
-7.3506
-86.827
-5.814
6.9746
18.236
4.945
-21.374
52.82
91.506
-134.98
15.296
26.921
58.332
-43.318
-175
-49.571
219.83
19.648
-54.42
22.644
-53.514
7.6662
78.366
-43.696
-30.901
-1.0006
7.6919
0.62028
-12.453
26.589
1.1141
-38.482
12.727
35.412
3.3587
-53.434
-2.8911
38.067
-11.811
-11.263
12.113
24.776
-4.9083
-40.848
14.017
28.164
-12.947
-40.296
18.903
42.251
-36.329
-26.806
7.9978
88.573
-34.827
272.2
-349.43
-88.265
186.33
-148.62
89.982
92.876
-13.439
70.056
185.84
58.108
-5.181
-115.24
-224.14
98.08
56.227
-171.61
-31.203
-132.27
-112.91
-97.43
-46.691
168.87
63.033
-98.081
40.946
231.71
20.365
-45.025
179.36
338.5
83.865
-707.82
-390.46
765.96
-628.92
122.23
709.39
-597.87
-580.49
84.084
356.84
167.16
15.979
-58.011
7.7749
129.69
109.22
-107.6
86.865
28.217
76.353
86.546
-45.935
-80.524
-16.328
-95.157
-41.141
41.348
170.61
110.97
-22.417
465.91
-204.54
-820.03
-282.25
-35.193
217.8
398.76
-104.29
2.8363
131.4
-89.874
-252.56
690.47
89.452
-260.74
-509.12
-439.32
697.91
145.38
-57.141
271.8
-131.64
149.89
-395.06
-263.21
-84.475
-65.112
410.15
220.6
-412.65
-257.22
564.89
258.65
-64.22
-93.448
-283.22
132.88
41.124
51.157
-40.667
-2.986
119.16
40.331
-41.373
-389.21
-475.63
158.59
351.58
148.92
-78.063
118.8
75.377
-96.956
74.009
37.883
0.25231
-164.39
-32.756
75.076
7.8764
77.072
26.762
8.375
-49.985
12.505
72.645
-88.413
-62.103
27.119
10.359
-47.513
69.982
32.655
-8.1033
-44.496
-57.31
44.611
-3.9784
15.182
46.197
80.047
87.862
-205.11
13.179
-363.92
-47.363
206.75
267.22
32.313
-31.004
-36.014
-126.82
-83.384
98.881
103.66
-56.437
-55.411
68.054
1.9712
20.758
54.414
-36.415
-42.158
31.126
3.8057
-73.732
60.501
160.38
342.52
-810.24
-58.675
139.86
-190.45
288.65
157.71
46.096
22.836
-58.122
-32.926
6.5574
-15.965
29.697
-6.2888
-95.356
-22.528
112.5
-45.036
-9.4151
43.514
244.19
-361.32
83.603
244.05
-441.6
-260.32
129.35
516.85
-14.08
-369.31
-107.6
-18.871
256.97
126.49
40.55
-138.5
231.2
7.7497
234.69
-131.36
-59.321
-555.36
-276.61
188.19
-106.19
187.12
-15.106
167.2
228.67
762.07
-75.379
-501.03
-131.6
-503.74
-120.52
101.17
264.9
318.67
-90.201
38.847
-51.215
21.546
37.244
-117.59
14.504
-19.622
-5.6412
-33.909
-98.998
46.114
65.768
-5.9173
-61.346
49.163
53.164
47.406
-37.836
271.17
-160.32
136.89
110.54
-173.41
-319.07
-604.7
247.34
447.1
148.93
-208.16
-55.152
131.11
-9.069
-170.05
124.98
-14.005
-129.95
376.93
348.61
-249.47
94.57
78.613
-278
-752.7
392.34
31.56
-548.5
521.75
13.419
0.64644
-213.68
-87.811
66.736
1.8949
58.866
245.95
823.63
317.5
-859.28
-419.72
-22.65
253.58
115.83
-1.561
40.968
-94.283
75.265
-40.289
-114.47
-75.402
54.64
-28.508
44.931
41.446
-125.99
21.044
79.546
0.51821
-58.89
86.839
-88.667
-3.9304
147.88
-64.796
-8.3841
57.683
130.36
315.79
-187.68
-627.64
-367.7
534.59
-130.63
441.54
-77.102
-35.487
-55.633
-104.79
-166.65
-163.55
168.26
157.4
287.43
127.97
-12.669
-179.81
-41.502
-165.9
167.96
12.381
-316.94
45.951
340.22
8.3382
-344.64
473.38
-155.11
-165.94
87.881
-199.09
-155.77
401.94
-148.6
-159.27
215.09
145.83
-278.07
37.406
152.4
-50.949
-144.07
121.31
-62.376
173.69
-297.19
122.42
136.59
-288.92
98.895
203.81
229.85
-292.12
-428.67
108.12
363.48
94.871
81.156
-259.45
146.51
-326.75
36.139
8.7728
91.224
163.41
157.07
-175.19
-219.05
-130.4
18.853
302.22
109.6
36.473
-459.84
-140.04
392.36
70.495
17.371
-148.13
-37.538
67.854
-277.6
46.564
418.33
-138.74
8.3897
-70.153
-119.8
203.77
14.991
265.19
-13.992
-524.74
367.18
-15.253
-289.01
-19.326
377.38
-166.33
-154.23
234.85
-56.569
-116.89
-13.153
8.6156
-60.025
-65.308
-28.926
155.03
15.972
206.09
-147.71
116.42
-107.74
351.57
-517.31
-83.394
148.73
127.71
253.96
-391.36
-243.3
274.17
176.69
43.756
-194.41
-147.33
283.21
-67.431
-3.7046
-45.084
168.27
-463.24
145.23
137.63
-81.271
-3.2709
153.38
25.69
84.222
-126.49
-97.85
25.414
30.605
-14.028
19.289
25.711
128.69
-108.6
59.798
94.266
-302.4
-329.67
510.55
-97.256
-222.99
286.57
-115.12
32.839
98.562
-45.731
51.181
92.765
77.224
-32.805
-28.779
-115.22
-103.44
-158.32
-7.2879
74.624
-48.023
7.4172
33.026
-140.12
19.074
150.75
-25.894
3.5645
118.34
-15.775
8.9716
40.191
28.314
-113.35
54.606
64.002
-12.503
-10.545
22.488
11.882
-19.388
-5.3495
13.072
-4.6654
-28.89
14.217
9.7772
-19.382
-9.9463
25.998
25.907
-12.327
-2.9257
12.766
-3.557
-31.751
-5.5897
3.5463
-20.34
-8.9562
-1.7733
-10.479
8.2316
38.143
28.782
-64.981
-71.241
66.478
20.051
85.298
-12.679
217.02
-298.08
-179.42
299.75
-154.92
70.838
-16.184
-100.49
1.0931
-4.0377
33.055
117.18
-84.371
196.1
150.83
-334.01
-80.547
94.753
-190.45
-59.055
411.35
75.491
-317.6
-55.752
-343.72
32.217
414.02
166.25
-326.36
-314.38
105.36
-66.751
-383.79
1048.3
1719.5
-1259.2
-826.33
494.56
-266.27
-189.46
79.387
104.54
38.984
187.82
69.136
-115.84
-94.777
-58.57
-0.82825
84.767
29.939
57.335
-141.66
-106.06
-10.454
-12.308
-81.119
86.136
291.03
505.55
-558.56
-870.95
67.614
-254.52
48.488
-432.38
504.2
280.43
-13.785
17.975
493.12
392.14
46.818
-177.84
-301.01
-75.462
-77.764
131.53
-54.219
-29.988
212.35
89.231
-188.42
-453.37
197.85
-30.149
370.49
321.5
-489.41
96.997
19.925
-208.16
343.4
42.404
-264.11
-322.68
-53.845
434.99
124.01
-308.34
43.898
222.87
-36.373
-4.2805
-133.68
81.231
-70.369
-76.852
107.66
-152.89
305.11
-14.423
-46.668
-277.81
187.94
285.73
-302.74
-256.88
116.75
243.05
-278.75
67.814
377.12
-131.4
-42.668
-273.89
182.28
113.19
-25.4
-82.856
165.84
-142.12
-361.08
109.19
184.55
154.6
-126.42
227.1
-112.87
-87.994
-121.4
30.794
167.01
-121.61
105.42
-66.462
73.543
53.22
-254.3
-341.83
141.28
388.97
366.52
-114.5
-505.69
209.31
83.402
139.59
-58.178
-7.4986
-2.4053
-212.31
80.777
-316.7
-321.21
256.16
-15.947
125.38
33.724
415.15
-295.2
71.076
470
-188.57
-272.27
29.636
248.6
-147.93
-159.9
186.47
-187.15
-111.79
184.66
-104.82
-116.19
468.45
-78.971
-229.12
103.04
-207.44
144.88
285.51
-185.03
-32.916
-306.24
-181.38
288.79
94.734
64.131
62.472
-183.37
2.108
103.6
-21.744
-164.78
-222.81
244.43
-0.36356
219.62
221.35
-135.47
-158.45
-283.61
257.94
217.92
-102.28
87.013
-260.04
109.47
81.557
138.71
-38.744
-311.26
-406.17
109.21
-14.977
398.48
241.85
-132.97
-182.43
331.28
-174.16
-295.84
174.34
3.7268
16.182
23.425
58.506
-11.833
15.331
73.298
-47.781
-109.44
85.577
137.26
-331.15
-197.75
417.85
-218.55
76.134
-129.27
-69.101
-38.588
-14.908
237.1
43.143
81.457
-86.167
341.29
161.74
-451.2
-63.445
-81.668
-146.69
264.83
38.182
167.16
0.9615
29.923
-195.92
0.91287
-99.711
105.87
84.568
-208.53
164.34
-157.51
78.997
94.48
46.696
69.19
-72.43
-221.34
281.75
-229.87
-173.64
78.258
190.44
-188.3
-160.95
186.37
128.73
41.211
209.91
-288.1
-315.94
697.13
-541.66
-204.51
61.926
-255.61
395.91
509.16
-33.367
-239.77
39.702
131.49
-242.89
-117.49
150.68
124.55
-288.36
4.041
-217.53
337
198.84
-59.11
-49.696
-30.894
-49.426
-12.45
10.025
21.961
32.312
74.786
63.006
-182.96
35.925
407.28
-185.82
-709.46
56.448
140.51
-143.36
86.006
178.09
230.61
30.488
29.972
-138.36
-85.002
-61.828
101.46
-105.7
250
-169.33
84.56
-20.462
-86.356
268.64
84.381
41.314
-536.7
-10.796
290.84
-42.368
-129.5
118.97
-89.907
-24.061
156.27
-24.647
-15.334
-119.33
92.534
79.411
-39.924
-96.041
98.715
2.5775
31.693
269.83
-94.739
37.37
99.63
-126.97
-399.68
-885.88
313.12
477.65
167.61
108.24
-220.63
-86.216
115.95
631.06
-144.83
-54.252
236.11
-331.84
-71.96
-219.9
-450.56
-23.22
127.62
60.508
308.33
263.94
25.744
160.65
-61.84
-352.23
-44.941
171.5
63.269
54.131
99.604
-124.63
-380.75
-43.247
-147.17
372.08
337.28
-151.84
-392.95
-291.33
288.58
309.32
417.52
-236.18
-481.02
524.11
-292.41
-312.56
-15.399
192.55
241.43
-129.08
132.93
156.7
-281.29
-164.63
50.081
290.81
-305.33
-177.09
-42.737
216.5
62.02
-210.12
145.97
320.07
-46.163
-114.66
-30.028
70.43
84.35
101.93
171.64
-68.964
-188.19
76.211
10.059
-129.48
-393.75
77.334
88.18
-8.7166
-91.197
-60.103
465.74
-78.083
-59.892
-180.82
81.892
383.13
-150.18
-64.159
-137.9
-315.11
-220.11
-3.3745
128.27
815.86
442.86
-721.17
98.619
153.67
45.941
-576.76
-219.18
75.116
134.99
352.52
-214.11
85.561
-232.89
282.91
283.47
-284.5
-20.585
-200.31
-140.29
90.76
-41.695
-72.163
-347.2
399.54
660.31
-243.03
-219.04
818.9
-219.93
-327.59
-33.954
-338.79
-410.27
127.93
353.25
436.98
207.89
-320.67
-18.274
-79.469
-508.41
148.43
-79.485
-128.2
-103.52
503.99
145.21
-96.535
-99.429
46.069
192.43
82.676
-94.181
-428.44
-188.55
-11.215
236.26
521.24
217.24
24.419
-160.15
-219.29
-358.19
-307.97
112.99
20.822
329.57
180.35
-159.77
194.97
42.353
-368.76
218.17
-333.14
85.957
441.96
-154.64
-215.11
165.12
126.01
-104.06
93.318
-287.93
67.199
-9.1616
18.841
290.61
-564.28
-241.72
264.11
241.66
90.298
-29.177
-4.9872
30.974
2.7123
-48.841
-61.91
7.1013
44.272
27.012
32.076
23.082
-6.0903
49.064
6.8857
-27.751
-0.60762
-15.915
-27.301
-34.351
26.695
-12.121
-8.723
24.982
23.714
-1.4711
-16.104
9.958
-22.662
4.9609
3.8103
-5.9775
-4.7507
51.911
66.377
-16.165
8.5315
53.953
29.937
-5.2294
37.881
-67.157
-82.075
-62.781
-11.392
-28.661
-32.702
-16.367
-26.614
20.797
66.797
-74.154
242.86
92.455
-96.375
-350.77
-628.81
-25.559
134.09
521.94
93.661
-26.549
-227.96
-78.82
92.148
405
280.78
-8.5774
173.19
-586.45
100.37
168.84
149.59
-143.73
-394.68
188.99
105.96
-47.221
-431.49
-194.66
224.83
350.45
43.738
210.09
47.177
-146.02
-138.41
-353.21
-100.08
40.917
504.86
-257.96
139.4
368.21
-303.78
-155.98
70.936
-23.432
44.859
201.59
148.69
-311.81
-224.67
170.73
-2.3046
92.633
97.44
8.9256
33.808
-291.95
-43.818
106.95
240.22
215.71
-69.592
-804.01
-707.6
432.03
228.88
185.55
531.78
203.01
-465.61
-176.63
-101.19
64.361
457.86
324.93
-129.48
-345.6
-20.912
93.368
-80.085
205.98
-100.65
-67.307
3.9134
-249.19
-392.7
174.44
309.53
228.11
-44.902
-115.46
-127.63
-184.18
291.51
-101.95
39.161
-10.199
55.324
213.96
-157.4
129.13
-107.95
-31.542
-198.38
-100.02
-180.27
86.164
473.51
309.81
-128.05
-138.4
-304.95
241.88
-79.909
-230.45
1.3408
85.636
204.65
22.415
-88.377
-68.921
20.213
81.38
50.553
-39.289
-5.1831
-56.004
-18.213
-102.29
-102.44
183.49
129.23
204.04
-488
134.99
-61.488
129.37
105.31
-155.36
103.83
-85.255
75.575
-125.85
13.569
130.35
-150.77
-51.554
119.29
104.47
-17.419
-118.77
203.06
-92.805
119.85
-5.7951
71.599
-239.99
96.161
-407.68
15.514
122.19
5.862
-27.392
258.08
187.51
-382.56
35.336
181.85
-183.86
97.94
311.03
86.794
-317.2
-99.303
-151.83
-9.6831
23.205
-32.686
274.88
-21.45
57.935
-57.364
-170.61
-54.346
177.13
77.773
-375.37
112.22
57.578
-10.994
35.009
-27.186
71.304
-73.682
30.341
251.66
0.51821
32.894
-65.722
-62.417
141.61
-263.79
198.48
29.455
49.599
22.853
-600.77
125.83
409.04
-109.56
-339.98
103.13
147.37
165.68
-123.29
57.169
38.937
-228.24
-275.64
40.811
113.89
273.47
118.19
-136.28
30.057
8.8142
-35.859
-59.8
51.789
-8.8078
-38.439
62.72
78.555
-35.912
-95.441
50.817
-1.6017
20.131
405.27
-115.49
-223.66
-440.79
-241.93
38.549
-6.9635
447.75
305.93
78.326
-207.01
-69.092
-23.772
136.87
-79.739
-148.44
25.608
-39.661
51.46
-195.85
232.04
124.76
-240.3
165.66
-116.06
8.5391
196.87
67.047
61.15
-232.5
7.4979
74.587
-68.071
75.441
-169.59
-338.54
421.5
200.99
-176.59
-293.63
-18.119
171.99
72.074
171.92
-197.41
31.33
139.56
-68.247
-191.79
-37.391
444.63
-115.4
-148.27
253.41
-98.026
-378.19
180.96
230.35
-348.56
156
-209.69
-29.197
-23.465
224.94
216.79
-38.673
74.617
-161.22
-360.59
127.83
55.279
-9.1936
-11.921
-85.258
50.095
31.312
156.59
-41.575
-27.626
4.1897
148.67
86.828
380.7
-89.966
-157.47
-141.11
-307.84
194.28
313.38
-14.292
-107.87
-116.36
-541.09
-250.15
68.305
217.24
170.3
42.139
306.53
-11.8
-251.15
122.35
62.656
7.6565
-121.12
79.222
-76.997
105.08
-80.065
23.375
-36.04
-35.696
-27.897
-77.442
-271.97
256.16
223.06
-184.63
85.785
36.369
132.56
178.59
-141.64
-257.66
-62.49
230.86
77.661
-287.14
128.64
-143.44
-237.16
136.65
138.98
-20.017
221.58
1099.3
-136.99
-527.89
-174.6
-269.61
60.454
-5.3101
-345.09
-239.25
183.45
-131.01
199.44
82.943
119.56
86.985
-93.047
-43.033
-29.03
89.186
105.7
-74.681
6.0267
-59.786
51.803
1.8842
-101.45
12.147
-3.6564
-5.9235
33.23
-51.379
-161.69
150.08
389.32
-112.02
-155.38
-297.83
-2.3675
497.07
16.079
-217.25
11.466
-19.536
86.94
-134.36
266.26
-342.16
-118.5
-28.851
120.88
442.29
-278.75
24.067
-64.426
1.0719
-38.008
-22.999
97.974
-26.393
-10.56
32.441
2.0135
-56.451
-62.007
78.458
76.134
-72.155
12.24
0.34868
22.686
-15.257
-204.65
-46.258
479.82
-110.73
-78.384
27.563
-113.43
41.236
-50.925
-101.9
171.33
34.739
-163.45
120.6
17.466
-4.8753
-50.306
81.031
-83.333
-11.704
-40.008
119.83
-128.73
67.504
79.802
-35.638
7.7391
-93.468
-20.958
163.7
-27.051
-10.659
19.143
249.46
-395.47
-224.32
368.18
-85.878
180.23
-310.81
186.33
3.4551
-277.61
98.079
-73.7
78.315
-150.2
-78.021
10.472
10.582
45.639
1201.6
53.915
-793.83
14.496
-158.36
21.638
-32.279
59.178
-81.168
-38.255
-9.1445
-29.654
-126.72
-36.201
110.87
320.27
169.82
3.6834
-245.82
-290.18
-93.551
47.967
359.15
-93.956
116.82
-249.14
282.61
-73.629
-278.18
-152.57
-197.68
-70.134
142.07
194.88
368.25
500.09
-74.832
118.34
-13.255
-83.816
-425.75
-573.88
236.62
23.534
-298.81
-22.393
191.36
218.75
28.46
136.7
596.77
55.634
-365.01
2.7901
-437.52
-349.87
190.01
-106.28
-26.49
72.396
327.77
266.78
132.36
27.963
-233.42
-54.501
-101.33
23.588
58.827
-274.13
-6.0929
-61.397
-392.25
559.73
-48.976
-366.83
46.42
52.797
57.936
346.69
13.568
-6.4884
40.04
-64.259
162.04
-186.12
-101.01
274.06
-6.8836
54.266
-312.26
74.393
65.625
62.707
186.49
-11.064
-147.14
25.167
13.867
-298.48
-360.5
72.301
-61.084
-141.39
160.42
106.7
-161.6
46.269
41.441
513.02
439.72
21.5
-133.79
-362.24
-362.11
412.68
734.78
-527.17
-261.25
-112.52
-25.293
23.544
144.31
34.354
44.52
-289.89
-237.11
105.92
295.68
104.89
47.034
134.03
-387.52
-313.18
274.73
165.53
-61.695
-61.421
99.537
-53.748
-64.887
-154.32
16.946
167.38
-96.021
-56.046
198.24
6.9577
-40.571
-38.45
-228.94
-77.683
248.6
513.92
-349.76
-6.7844
167.86
112.17
-112.41
2.2624
99.218
49.449
-102.96
-200.07
-243.28
9.227
-34.679
-15.628
283.35
58.152
-180.2
-162.58
-0.69134
-57.777
14.848
275.22
331.29
30.062
-473.59
-539.77
324.44
407.72
40.739
-186.43
-25.271
-222.13
-129.5
76.781
56.413
189.37
65.858
-67.285
-55.464
102.39
77.132
-60.343
-89.712
89.634
47.466
-103.01
192.57
-84.728
-8.0267
44.121
-85.047
-69.287
-48.239
209.11
-56.751
-24.902
136.78
59.983
-256.52
2.4049
251.61
-216.38
-549.22
-55.814
145.75
43.459
-107.79
-53.592
9.6869
181.16
138.78
80.222
56.74
-61.976
14.252
86.642
242.57
393.9
2.2881
-24.317
74.856
-141.55
-62.496
8.8382
16.499
-85.032
-76.429
67.136
-44.487
28.55
-9.0728
10.53
-44.017
-21.391
-27.458
30.606
-14.165
-64.422
29.485
26.571
-40.461
-19.311
-28.71
-4.1609
-13.739
-5.7776
-28.578
56.907
-4.055
-26.555
0.26753
-31.486
-9.0955
33.228
21.656
31.944
-29.251
63.526
298.93
-351.78
-111.92
59.131
-86.8
-3.3939
67.593
-45.179
-15.967
-83.439
-110.87
2.5036
293.62
115.45
63.528
-403.96
403.36
-351.13
-35.06
77.571
-162.68
388.36
-230.84
-112.32
268.1
131.48
14.423
-332.25
138.02
99.371
126.33
96.164
24.513
-22.21
-134.01
-408.2
-307.17
-71.109
504.31
184.85
-257.48
11.932
-699.63
563.02
212.78
-25.151
19.518
-1.2903
-53.278
184.6
-75.313
5.0509
16.171
-10.563
90.184
-357.22
98.524
205.56
-17.773
17.092
-133.04
-57.79
57.753
201.57
27.839
246.99
-526.65
92.052
104.76
182.28
-118.53
-240.61
-151.97
85.562
-49.872
82.019
31.984
-28.992
38
-78.851
-320.92
13.094
420.12
355.96
20.414
60.115
-165.22
-278.94
-257.05
-225.61
173.63
562.62
128.55
-113.12
-152.52
-318.71
-168.98
-43.323
-97.573
489.56
770.23
-91.134
-364.28
41.943
241.57
-342.28
-487.89
-173.98
-157.95
306.71
705.44
-20.79
-312.59
-5.9485
359.17
-227.87
8.2689
-174.34
396.03
-131.02
-333.58
305.96
-73.895
-18.094
-149.2
-44.852
220.19
-7.8869
-93.892
21.422
-267.32
-19.721
165.41
-43.528
-47.892
77.9
-0.28691
144.66
7.2218
-99.92
-101.34
-201.82
-35.004
450.77
355.41
23.931
-301
-279.08
-67.442
-249.11
7.705
328.18
86.465
-9.6924
-190.92
-52.535
234.02
121.9
32.23
13.749
-189.57
-26.816
0.28424
55.706
-213.62
547.59
88.311
-700.16
-72.873
124.44
360.92
18.6
60.52
-69.564
-183.22
-81.697
72.799
-6.5369
79.336
23.296
52.901
0.27849
-63.047
-21.582
37.573
-6.1631
-19.904
18.081
-2.2754
21.712
-33.414
50.44
-120.37
-104.46
152.59
11.369
-9.4494
-4.7504
68.787
-30.482
-41.368
-17.551
19.975
-31.539
-20.333
-100.46
70.537
65.291
31.681
59.305
-74.068
-49.823
35.167
163.14
-72.942
34.723
137.81
225.18
-122.12
-523.53
-505.61
306
404.91
-173.26
-182.47
251.18
314.47
-125.8
-135.97
7.0141
43.287
-4.7636
-32.281
80.471
59.579
23.057
36.762
-94.154
-279.97
-116.3
75.143
48.164
31.098
84.548
-158.39
157.68
32.168
16.017
-21.715
10.853
-44.062
71.471
26.091
59.154
-86.243
-39.601
133.49
-40.532
-18.731
-257.27
13.077
218.28
47.792
17.446
-16.433
111.17
-189.87
82.353
-106.41
-64.056
58.52
-33.1
43.213
10.811
-14.855
-9.8261
86.559
291.17
127.64
-322.88
-171.89
-60.473
-34.465
2.3603
19.962
62.249
19.793
-8.7255
-78.595
-91.214
88.735
29.964
30.076
31.153
26.063
4.3268
-5.3577
2.4631
-22.466
-1.0738
36.418
14.413
-9.9853
-38.046
-19.612
49.691
-17.343
14.495
1.4526
-42.813
1.4121
18.465
-8.8415
-37
-43.854
22.114
42.817
-52.346
27.171
9.9232
78.312
1.2647
-33.697
-6.3385
-16.846
-24.073
28.677
4.7491
-7.8378
-18.875
14.506
-3.5152
-22.909
-37.545
9.6485
19.337
-22.68
-23.246
84.046
85.711
16.85
-59.314
-3.9856
35.231
72.486
-89.717
-48.498
45.893
-272.11
281.16
221.48
85.42
-147.04
-292.24
-18.387
18.272
20.593
-24.819
4.7819
7.5357
-8.9609
7.3965
19.571
1.1044
5.4078
17.819
9.2513
-9.5909
10.911
10.482
-1.9349
-1.4321
15.416
13.294
-7.3948
-9.1562
12.896
9.8072
-6.9418
-5.6779
18.02
1.8003
4.5371
22.921
93.986
175.95
-46.67
-263.18
-246.32
76.028
87.078
43.036
-10.264
0.66745
11.487
55.731
88.681
-147.97
-60.684
25.742
-14.809
79.197
50.481
-56.278
-22.976
-48.442
-63.376
-94.464
204.84
156.75
-27.043
30.468
-150.69
-187.07
158.26
80.836
108.04
-71.763
-180.63
27.262
263.56
162.1
-209.49
-159.92
-63.661
-22.275
-2.244
43.399
-0.51738
39.642
207.14
230.28
-162.98
-771.82
365.55
424.22
-129.84
41.96
147.38
-135.37
-431.65
-463.28
244.21
169.99
313.13
-61.093
-666.37
-31.389
798.95
36.636
121.67
141.31
-115.97
-195.36
164.45
859.85
-930.11
-187.27
192.71
-579.5
178.78
-152.87
581.5
332
-188.85
-294.01
-80.618
97.327
99.34
-182.97
26.108
-90.214
82.34
71.676
-49.411
-255.62
74.484
543.77
-647.55
-212.83
-12.315
1100.8
226.73
-764.9
92.309
-120.69
-6.1647
-289.47
431.83
-137.61
-44.603
440.49
-57.704
-80.84
-738.49
-56.224
365.44
-109.77
-38.76
532.62
266.78
-213.53
-201.77
-331.39
248.97
-15.828
-17.08
35.569
-65.792
-86.641
-160.85
114.59
399.93
93.233
-514.78
-33.686
61.583
545.12
-87.67
-60.573
-47.164
-327.75
-203.5
124
630.61
109.09
-429.08
-28.475
9.5508
200.62
130.16
56.315
-23.987
-62.407
-107.43
-387.63
-244.04
127.46
72.613
0.53988
50.062
35.452
430.12
303.82
22.929
-1437.7
-334.08
568.56
43.538
244.84
-53.972
-41.475
-38.729
-5.1143
-58.061
180.05
394.52
138.4
-10.693
-9.4778
34.822
79.515
-41.2
-439.54
-50.969
265.1
43.796
-37.952
36.747
61.24
-3.6926
-25.798
2.9459
-85.659
39.943
-50.524
22.185
-18.643
-32.398
-7.3524
54.396
10.02
-39.568
18.316
-12.926
-11.932
17.847
-4.5963
-22.481
-6.2446
17.619
2.4434
3.1054
-20.597
6.9976
6.8366
2.4411
-6.2023
-12.584
11.684
-1.1961
-2.4363
-18.438
0.060932
-48.069
17.917
93.651
35.209
-6.661
-25.677
-62.245
157.61
-136.87
-169.31
277.03
-137.85
-46.423
-114.13
101.39
-3.4562
102.54
-32.305
68.09
-41.932
-114.78
-166.73
86.717
410.69
92.197
-247.55
-462.07
130.77
163.34
37.52
-11.083
-29.979
43.966
21.725
12.337
22.685
-58.81
108.38
97.216
-257.31
127.89
86.031
-64.26
35.416
-25.647
-10.36
-0.0015396
4.5574
9.0097
-36.27
-0.57903
-0.117
-21.752
-61.07
128.16
94.891
-455.85
299.08
-166.51
-57.761
70.636
136.75
-114.23
356.4
245.04
-130.03
-162.49
-63.114
-130.84
-147.38
13.813
-26.359
-0.43617
-8.2342
36.503
-68.958
16.359
61.851
24.059
29.12
-1.8566
8.1712
9.6664
-0.47546
-0.39181
5.2032
-4.4366
0.88826
22.693
10.888
28.96
-3.9484
-69.342
49.203
3.5434
6.6632
4.6391
11.977
14.215
-13.12
-27.68
5.5084
17.671
4.595
-1.357
14.841
6.4219
-15.103
-9.1432
4.5738
7.443
-10.152
3.4576
11.099
2.2438
-20.61
-9.8941
3.32
18.662
32.869
-42.301
-15.954
150.59
6.809
195.61
-624.5
-120.39
638.61
-167.37
-220.58
309.9
-412.89
-63.087
403.92
-118.99
10.907
-84.85
-8.065
1.8191
181.36
-104.35
44.154
67.964
-298.14
193.6
-98.516
-277.93
199.29
868.56
-666.41
-263.98
-96.417
15.219
-100.01
27.574
56.586
52.121
238.86
152.11
38.002
23.197
55.65
-32.574
-47.138
25.218
-1.3769
-13.994
-13.11
-5.0311
15.793
-9.7274
-31.067
163.79
48.803
406.71
-22.614
-494.69
-211.7
-109
247.79
-124.09
50.061
26.64
183.68
107.99
-55.053
-1.6191
-88.712
56.981
-126.56
-41.331
-1003.2
-492.64
973.21
44.521
79.181
58.2
283.49
407.43
55.403
-102.17
92.591
-96.223
-1120.8
97.331
359.72
-54.409
188.63
-103.16
-90.011
-32.206
-70.914
96.916
234.7
122.15
173.62
-271.31
-161.51
35.489
186.68
181.38
-22.642
69.329
-76.956
-28.694
30.991
-2.7727
-3.181
-48.673
70.009
-20.64
908.71
-90.466
-927.71
34.82
-92.547
92.197
128.26
-302.94
-89.049
252.25
-274.71
416.6
37.359
-69.067
1.2615
-56.616
-159.62
-40.369
34.48
-54.312
177.76
-219.66
-264.34
762.01
25.573
9.4448
-552.75
-389.52
92.532
376.17
-183.78
93.959
131.14
142.74
-199.98
89.989
41.27
-3.9183
-12.736
69.066
-329.21
256.04
-85.107
211.46
-83.401
82.184
-150.4
-63.253
30.825
-150.56
113.88
180.86
2.1653
32.929
-163.03
51.159
11.4
-635.86
231.4
329.73
279.24
50.537
-124.26
-58.355
23.443
392.64
-55.873
-288.87
-485.32
-145.61
187.09
250.18
152.18
-444.6
117.51
68.029
202.39
186.84
280
-648.12
-376.28
549.26
-202.24
156.76
-161
52.494
145.54
34.625
-18.767
-76.723
-6.6992
255.29
116.95
-431.76
-198.48
339.56
-295.39
-202.42
463.03
-157.27
44.881
111.58
-6.8506
-51.135
-143.54
68.849
394.64
-126.6
-245.98
164.64
-43.895
-99.814
-76.74
181.61
-170.08
84.147
106.55
60.194
95.754
-513.67
89.142
51.255
175.52
-101.01
-8.1864
523.95
-327.34
-129.48
158.84
-218.68
169.56
-29.235
-108.47
201.33
151.86
-568.11
-419.77
61.027
131.06
221.85
261.18
438.41
437.76
-757.09
-338.49
-94.094
83.087
246.86
128.56
-254.01
-147.57
123.16
445.12
182.27
-151.39
-234.96
-353.38
-45.471
-307.43
17.39
444.43
302.02
253.29
336.22
-754.03
51.22
177.25
-214.06
4.2893
220.08
52.463
55.467
-23.485
-488.91
-78.878
56.591
216.9
150.58
-454.39
-381.22
311.17
149.83
248.29
49.904
-134.12
101.24
-31.098
-90.483
16.466
-54.498
68.376
29.636
-58.915
-65.096
150.64
48.276
195.15
-156.38
-208.48
254.79
-361.73
0.35391
137.81
-30.636
23.086
-107.13
117.91
32.675
1.3744
161.61
-81.675
-9.626
15.449
-21.805
139.63
-186.19
-146.77
22.394
-159.93
172.69
120.87
-67.205
-242.62
-239.01
64.307
52.522
16.275
187.07
1168.8
712
-1463.2
-71.352
-179.91
36.505
107.02
-204.11
203.34
-136.42
-20.801
33.373
87.402
-28.196
-2.2035
-101.35
12.034
85.723
-24.768
37.687
-55.339
88.474
-87.93
30.733
-13.778
-0.07074
-11.66
-36.609
17.079
70.884
7.6279
-4.6354
272.17
-13.148
-172.72
119.26
-369.64
-407.73
-31.092
169.49
221.76
137.4
339.66
-129.77
-59.507
30.882
82.34
-544.81
81.987
191.91
-133.39
99.437
-272.53
-141.76
38.355
103.58
474.13
180.51
-6.0026
-140.39
356.19
199.98
-487.69
-214.62
-77.172
109.79
-109.99
63.388
29.861
-40.698
59.46
67.792
-149.37
-55.382
31.336
94.941
-132.38
-12.479
25.644
-70.86
-124.54
-27.133
215.31
197.35
-64.462
45.939
-13.284
-23.577
-12.406
15.768
231.84
-3.8548
-196.43
133.19
-284.12
-169.28
383.88
278.44
-31.681
60.408
-260.03
-140.84
-1030.6
-34.166
929.85
-155.39
-80.95
-190.72
89.736
405.71
1076.6
-379.5
-754.39
-119.66
-76.52
408.47
-93.024
-197.58
160.61
15.2
-9.0618
-24.94
76.643
-2.3894
-80.427
228.07
-404.68
-33.691
173.89
-5.2957
47.692
16.133
32.356
-30.191
-2.1382
35.412
113.89
44.079
-127.04
-132.06
-57.294
-75.893
80.632
112.75
59.571
5.0546
131.55
-24.687
-264.66
-206.25
212.95
39.508
-28.851
83.295
-11.966
26.245
138.8
277.13
-254.92
-364.89
-232.57
239.14
257.07
-52.728
155.46
179.8
-19.819
-622.92
-384.17
264.48
207.63
466.37
-157.19
-305.63
137.03
165.1
-59.495
-18.45
36.616
217.66
-171.48
-417.68
66.914
155.83
91.617
42.608
8.5828
196.12
-55.913
-384.42
-170.64
251.52
317.52
169.87
11.163
-149.71
-260.52
-760.17
199.35
231.71
-0.49138
-60.07
50.746
318.86
289.97
205.7
37.062
-202.79
-260.6
-268.15
82.34
499.13
103.45
-90.453
-158.2
-364.65
-136.35
-121.35
-129.29
136.73
73.078
264.36
180.79
277.89
88.086
-110.89
40.971
-849.32
-184.62
367.93
333.52
159.65
-184.92
-19.165
-74.023
-57.257
323.27
96.937
-262.29
-422.06
493.3
194.82
-199.38
-396.18
-170.28
225.08
120.74
-28.423
51.635
51.951
-63.172
-1.4641
303.92
-296.35
-225.39
236.7
219.72
116.62
-180.88
9.7251
-87.154
-43.024
-72.602
3.8782
133.79
-34.947
-54.074
90.314
33.066
-139
-22.307
-88.09
-91.762
-119.08
21.995
-4.1716
42.604
313.52
245.9
991.26
-614.33
-573.16
133.97
124.05
-375.52
-351.67
356.52
35.17
-45.982
116.77
78.012
-6.9519
-4.5722
-38.688
-441.86
204.58
223.66
42.327
-30.203
-96.313
49.095
-2.2831
77.769
-100.04
5.733
-44.692
-8.8446
-44.921
36.564
165.15
-75.782
1.3764
-96.035
55.988
91.616
97.556
-81.984
-254.78
73.597
52.812
177.68
-244.66
-402.2
64.599
154.18
222.5
295.36
-159.58
-51.411
433.68
2.7231
-345.22
-74.322
-42.923
36.757
20.011
35.53
96.869
-33.842
14.044
-454.67
-102.25
400.87
2.7359
-47.785
28.589
-39.737
6.1686
46.143
-4.6456
-7.0071
-32.742
22.237
69.82
-69.409
154.65
-30.774
3.1023
139.3
-13.958
-204.15
-188.73
-28.151
341.22
-174.56
-589.79
459.98
42.479
-29.714
-116.59
-72.034
-19.896
-17.48
-2.2264
9.9136
90.758
320.2
218.77
52.56
51.196
-32.139
-80.542
507.15
-192.32
-389.31
-214.95
-9.2243
-22.85
257.44
181.68
-259.3
-69.921
-530.85
175.35
106.39
-95.22
66.916
340.8
79.278
-138.73
-219.09
-48.772
-105.6
-144.16
51.564
337.08
409.28
244.67
231.53
-475.62
-232.72
-178.21
-42.763
-6.3179
117.93
100.98
-88.191
-4.5916
-28.446
37.165
29.585
-79.646
47.834
-4.3922
-19.991
-34.129
71.426
18.671
2.5419
-108.62
-44.135
53.302
125.86
-34.222
33.576
-103.08
-30.382
18.099
15.579
35.518
46.86
-67.062
52.004
-49.368
-56.217
18.337
50.636
14.86
8.7027
21.184
17.212
-196.8
62.785
151.1
-79.647
-32.652
-53.217
145.03
28.876
-99.812
-10.421
38.14
33.884
-86.441
24.684
39.357
-64.86
-27.466
-95.98
-83.646
-28.414
605.4
-280.7
139.07
-96.192
-148.3
-124.55
186.64
41.762
-39.534
-1.6658
-23.588
-7.9561
21.664
125.1
91.058
-385.57
-84.684
154.18
63.524
40.678
-5.5777
-3.4242
3.1802
26.321
-19.382
-18.899
-32.651
63.136
10.559
118.43
-14.362
66.389
-98.675
-21.684
140.05
-26.848
113.78
11.442
100.49
-207.8
-571.84
166
56.113
-71.639
-295.72
64.017
11.199
123.2
-76.612
-32.818
-6.9832
106.08
388.79
-11.607
104.09
-85.804
-153.24
119.79
-116.75
-14.037
-75.079
282.44
282.66
120.11
610.89
-693.64
-391.64
-8.2757
-12.811
20.028
-64.879
-82.358
142.81
-187.93
22.812
149.24
-7.0126
85.362
110.55
46.887
-442.68
41.829
92.869
50.298
-76.169
-78.934
-26.64
-25.683
-93.015
652.36
65.389
-445.03
-56.424
-255.49
308.77
402
-335.35
-66.689
-65.361
133.01
58.8
-40.232
-48.181
-51.008
91.581
-15.453
-76.183
-97.453
11.045
-40.127
-27.16
460.43
74.909
28.389
-136.17
-567.79
-126.04
-27.666
-27.876
86.862
-52.997
132.64
439.35
1022
266.63
-777.17
-267.2
-451.11
-267.36
73.435
430.5
229.03
-375.37
-293.29
-124.97
17.357
250.37
345.41
-144.94
163.32
178.39
-98.631
-449.07
-414.79
-35.239
24.769
100.98
338.14
320.47
72.872
-6.0064
331.29
675.01
-698.29
-460.17
-216.26
-65.916
249.86
-69.197
-20.465
17.198
191.3
187.23
-6.6847
-242.02
-446.68
69.115
359.21
-84.183
-175.22
153.28
-46.134
106.29
-47.098
-15.034
85.329
-36.14
27.326
-51.341
25.458
42.317
-92.468
8.3222
-19.234
-8.7878
100.8
-68.993
-26.762
50.002
23.722
-113.24
69.472
111.19
-22.511
-77.2
-34.958
51.124
-31.024
8.7125
-31.544
38.509
-32.398
-7.5116
27.025
56.695
39.825
-48.475
-79.124
-163.16
355.13
117.77
-305.65
154.71
-221.39
118.36
264.19
-129.92
-384.24
-179.86
230.98
309.99
40.692
21.073
-88.279
-297.15
69.131
35.21
159.73
-5.4624
-84.434
18.901
-10.798
48.342
-44.73
12.702
66.145
-63.247
-74.998
46.755
107.36
-58.49
-1.4569
-34.285
21.702
-61.243
69.938
40.18
-99.322
36.657
-46.979
95.375
18.142
-31.031
38.121
-60.87
-38.705
-7.8247
-39.256
11.511
166.92
-37.617
114.89
93.86
-6.0073
-334.08
-480.78
313.33
236.12
80.542
-77.167
4.1711
-100.55
54.2
108.95
41.327
-63.771
1.1697
139.82
-35.629
-48.842
24.722
-292.28
126.79
108.9
-512.47
39.318
372.4
268.15
-113.99
255.52
-406.63
-357.08
-21.588
204.34
277.6
156.93
-34.896
-96.115
-111.44
-182.02
-15.83
25.939
114.83
142.47
60.688
-16.058
21.513
-65.944
-151.33
25.121
-25.076
-1.7614
83.976
51.205
-34.674
1.3181
14.471
61.111
-36.859
-58.933
-15.191
14.372
-3.3403
-7.2863
-25.933
88.023
54.251
-86.483
-35.044
-61.274
42.356
17.963
-7.7443
-33.14
33.74
100.57
209
-216.43
-7.6526
-134.33
-72.039
62.444
-185.35
135.09
169
-248.29
404.68
275.22
-271.86
-151.17
30.917
-7.202
-165.97
-0.36832
38.862
140.64
-40.555
-34.672
-19.38
-7.419
-65.954
113.09
32.511
-74.477
33.416
-13.437
-58.761
74.621
64.929
-112.77
-16.95
46.128
18.482
-36.165
-15.674
-14.509
-27.986
160.47
39.097
-28.928
19.117
-220.61
-126.98
95.471
158.24
71.786
-51.368
23.848
-31.317
33.229
41.706
109.48
-521.48
-0.62774
186.28
112.39
51.284
-219.82
394.79
-219.55
69.845
-108.94
29.574
107.16
37.479
-133.23
-173.16
80.391
95.848
127.52
-151.3
-262.69
-60.489
538.49
0.21124
-170.74
135.53
-35.28
-175.61
50.114
-53.678
-97.744
119.41
36.512
-44.953
-76.507
199.28
-90.258
40.262
88.328
-87.656
-148.88
27.383
142.17
-22.419
-39.741
15.746
-77.48
75.047
15.521
-62.037
63.452
34.287
-18.163
-79.429
20.045
-35.712
74.521
-0.48635
-27.475
3.7863
8.8153
-2.2713
-8.9334
22.902
89.812
-84.243
-28.436
142.29
-278.76
89.276
82.54
-80.025
-37.064
25.518
-15.446
-102.43
-84.816
52.36
80.252
696.16
-206.44
-366.44
-25.771
61.534
41.345
-98.179
8.863
82.657
-44.463
2.9923
-79.242
-4.913
97.362
-68.137
90.739
-100.37
70.7
-19.306
-28.984
25.663
22.943
0.30016
-20.491
-86.894
112.33
-35.857
22.005
-27.413
49.826
40.384
-127.68
-52.284
115.19
1.8226
-30.225
51.246
-58.371
-38.392
65.458
-14.818
-5.6773
-41.324
18.682
56.425
-7.0447
-8.0537
2.6383
-12.972
42.464
-33.445
-37.972
37.923
43.955
-41.848
-50.818
2.2529
85.436
-55.448
16.807
12.772
-43.804
87.794
-54.634
-57.416
56.715
21.355
-32.225
37.767
-17.642
-18.798
-34.822
167.58
-277.07
-168.06
139.45
137.3
430.65
-96.38
-323.14
-218.34
204.56
-8.8388
122.65
-113.33
-13.417
-138.17
266.66
182.51
-191.04
-77.394
-57.207
22.211
22.073
112.11
-47.222
-35.114
-45.218
-10.441
102.43
-21.477
-24.938
-19.399
10.973
88.961
-68.688
-55.921
14.999
43.557
-10.626
-25.417
15.605
-5.9529
-7.75
-7.1367
-22.05
-17.737
120.89
23.74
-34.349
14.767
-280.85
83.864
305.4
-282.55
28.639
161.11
-40.711
-2.3536
-58.903
40.662
26.196
-45.702
-45.801
67.317
-64.114
-70.227
155.72
-34.818
-82.29
27.989
115.12
18.939
-22.164
-62.633
-71.112
14.737
1.0431
69.386
30.341
4.3649
-60.063
-19.727
21.95
-2.1744
-56.077
67.454
83.167
-47.196
-100.4
91.107
-49.41
-53.922
122.33
-72.159
45.21
23.718
-95.858
81.929
-83.313
5.9804
-53.012
34.955
242.34
-138.15
60.97
-29.426
-124.94
-26.239
129.47
53.6
-260.96
10.028
228.79
-146.55
248.37
191.55
-562.12
12.281
220.4
-71.91
3.1446
-44.538
-76.308
33.731
256.89
-211.24
-35.628
168.22
23.909
-123.2
53.78
15.069
59.269
-78.501
-20.76
-1.9703
33.14
4.794
-63.806
-72.635
18.744
-21.841
4.0977
283.86
-99.631
13.972
-95.961
-4.2856
40.731
-13.231
8.1319
-68.566
26.809
-5.0973
-2.0886
-37.809
9.2875
70.093
-31.183
-2.6959
56.791
-42.624
-16.649
22.624
45.566
-31.352
-46.535
8.0347
-9.9549
18.39
63.966
-51.721
23.789
-40.155
-57.841
9.446
58.898
15.734
-16.646
10.753
-6.4705
11.804
-25.532
41.994
5.9031
-44.203
32.264
-66.436
5.6071
-1.3857
-10.774
81.792
-28.919
33.729
-39.967
-35.315
40.563
24.836
-37.913
32.921
7.2985
-25.612
-82.573
-2.3097
106.19
27.798
-32.156
-49.008
36.011
-24.462
46.993
9.4396
-71.375
-73.348
52.851
123.76
-18.122
-61.974
99.165
35.701
-106.6
57.722
-56.885
-208.66
-28.15
-453.42
46.569
393.69
1.1186
501.09
937.97
-913.69
-201.76
-79.214
15.404
-29.992
-36.044
3.0244
53.707
-80.275
95.303
-10.271
-33.874
-36.843
64.453
-3.4975
-30.763
52.968
-115.98
42.516
36.615
72.103
-77.596
-25.679
6.6088
53.432
-8.4102
-30.283
45.849
-70.903
-0.0171
-48.548
101.2
23.769
-46.256
76.613
-76.378
-56.983
-22.166
6.4233
67.182
102.83
-7.493
-190.97
14.092
128.5
-73.267
90.739
-30.222
-70.235
-5.7076
30.145
34.009
8.4753
-16.954
-23.412
13.789
94.975
-54.444
-27.632
-63.256
50.877
-74.607
3.0628
175.13
-49.774
-101.13
-79.116
108.88
46.527
-11.822
-11.353
10.096
-18.462
-22.783
124
-72.55
-76.901
46.092
30.4
19.924
126.26
84.165
68.93
58.849
-11.287
18.032
-20.928
-121.23
-274.65
-299.45
-52.422
156.3
251.14
269.84
-354.52
-202.69
-82.814
-240.79
158.41
332.25
284.39
-145.36
-150.01
-28.761
-176.47
-92.719
-45.904
86.284
327.04
140.97
-177.29
66.982
6.7571
-91.192
46.23
26.332
9.9882
-105.7
169.71
-57.474
-73.119
-116.96
-268.46
248.99
103.8
400.34
429.87
-429.28
-329.81
-88.088
-89.777
169.2
162.69
38.927
-18.455
-134.99
-24.1
-48.376
-44.158
180.26
-11.295
1.0853
-31.111
49.437
-74.318
-90.27
-100.74
-82.731
355.94
171.88
-262.06
84.945
-135.33
31.849
-27.234
161.5
-141.77
76.896
-3.8612
-24.179
34.081
-178.36
67.557
79.514
-0.86253
21.28
-21.013
-55.707
-61.317
-3.7862
111.78
58.054
7.033
-42.52
-2.3618
8.667
-50.189
-57.981
-34.404
63.112
44.599
71.712
-140.51
14.437
-5.867
39.821
24.869
-50.795
67
-18.268
30.947
-7.9174
75.198
-127.45
-19.188
74.369
-11.512
-73.913
21.05
22.628
-4.7898
62.015
5.2253
-71.528
-17.051
-41.823
67.216
1.3161
48.17
21.583
-26.519
-142.38
158.04
-13.671
-301.95
229.02
426.07
-267.62
-282.1
29.104
-7.4817
93.618
89.572
32.19
-67.763
7.7268
8.8974
-97.483
39.222
0.75526
-2.8364
77.044
-8.9911
-7.4091
8.2452
-52.624
-9.1297
35.193
-53.443
36.839
17.825
30.239
-0.44885
-66.938
43.239
-30.878
-28.206
77.795
-23.774
-104.21
92.866
79.554
-100.79
41.186
-29.595
37.296
8.4913
-75.15
-26.211
-25.398
-102.48
-113.09
-62.282
93.423
70.397
790.4
59.277
-498.85
-26.06
-32.784
-75.424
-49.021
19.496
-4.6575
42.175
-28.454
-75.837
194.42
-67.693
1.2474
-78.947
-25.066
-2.5677
14.816
90.554
-38.477
29.056
-15.144
0.69646
15.599
-36.284
-87.738
116.1
-38.092
-57.298
151
-35.985
-94.883
-6.4495
-23.001
94.746
73.137
-58.593
-31.091
-93.766
-98.15
-70.217
-28.023
60.362
717.3
20.729
-444.95
-4.9242
-47.807
-65.616
7.5339
45.179
-22.224
32.256
6.4177
36.526
-0.77487
-48.698
-6.088
-45.646
-36.436
131.51
12.064
-16.09
-14.916
-38.245
-52.329
3.5059
38.623
-31.674
60.509
36.277
-35.749
-1.5721
1.9984
30.083
-58.086
4.8738
17.87
18.524
22.142
-25.796
-18.882
-68.186
21.677
38.22
46.377
-43.406
42.547
-10.686
-13.761
-21.668
-11.273
-27.317
45.839
63.614
-47.285
4.7691
-19.353
-35.246
69.988
-54.123
1.4663
-44.514
56.518
-43.474
-1.41
113.4
67.378
-73.461
-3.3238
-95.799
6.7093
-5.5559
-74.269
112.96
115.72
-84.039
-224.72
16.081
251.65
-66.801
115.18
2.9126
-41.889
-61.857
-60.239
-38.639
45.991
5.0942
-18.474
103.76
-7.6278
-61.132
-5.6032
81.563
-126.52
2.8245
77.573
9.3752
21.587
-40.869
-6.8101
-4.129
12.502
-11.214
-16.425
-21.995
11.89
150.69
-108.37
-27.332
47.986
17.575
-107.6
-4.4044
95.99
-20.231
-76.29
-26.923
87.685
39.623
14.724
-91.542
19.224
18.41
22.967
4.4528
-26.629
-42.879
40.338
22.587
-59.451
38.987
13.265
22.839
-29.114
-34.673
22.239
34.736
-13.061
3.3765
-93.853
31.319
98.331
-28.707
-69.853
-24.525
30.822
61.972
-4.6716
22.974
22.199
-0.6322
64.661
-160.83
-220.58
163.54
210.45
-63.579
-75.555
-74.706
145.68
33.169
-174.01
-57.66
122.92
37.708
109.27
-120.54
-108.57
119.65
17.721
-46.242
21.969
21.378
-40.609
50.926
-16.069
-110.09
27.575
88.131
-28.779
-47.089
66.834
-13.153
-41.804
52.111
13.675
15.364
-18.954
-31.869
-37.741
46.778
-104.12
75.177
-43.838
132.04
157.14
-186.3
-35.697
-32.473
-10.799
6.2153
120.31
-125.76
-93.61
95.492
30.266
-10.724
63.758
-66.153
72.494
-28.315
-109.89
87.712
23.368
-1.8675
-19.507
48.099
-46.428
-12.514
47.004
-77.762
-35.681
47.055
72.597
86.144
107.32
-111.43
-337.27
208.52
-265.79
155.13
145.18
-89.655
41.286
34.422
11.793
-16.45
-25.394
65.046
-40.319
2.7079
-14.995
-24.837
3.9842
74.676
-25.602
-39.97
-15.023
49.273
8.6635
-54.506
13.207
26.73
26.07
-38.264
-69.249
-10.967
36.472
58.232
-6.6356
-27.391
32.284
33.14
-23.431
3.4746
-53.848
-41.982
81.862
5.7116
-19.476
34.242
-71.066
-75.962
109.03
2.8646
43.176
-38.062
14.518
-7.395
-16.558
54.391
-72.312
44.621
-9.7847
-95.733
20.239
43.024
43.04
0.10702
-13.673
-27.071
58.908
2.2855
-85.585
36.461
-10.53
-16.154
69.939
35.608
45.651
-188.13
-132.81
29.212
13.962
462.74
-146.17
-319.07
98.518
89.01
93.02
42.925
-77.626
-34.877
-115.23
-75.793
23.102
127.13
10.684
-26.074
-4.6889
-52.219
52.531
