-38.239
133.88
99.179
-7.4832
-45.358
-87.774
-60.489
21.477
38.773
-10.131
-71.82
-78.169
43.184
101.57
35.748
33.991
-48.278
-112.41
-73.185
17.05
114.76
126.53
27.652
-24.703
108.34
99.352
-74.329
-82.567
-83.663
-87.578
20.024
27.484
-15.73
-11.14
-10.464
60.038
84.782
-7.3126
-0.11283
-32.829
-73.033
-48.139
55.704
41.619
-47.625
-52.754
-41.07
8.2137
147.73
77.716
-11.229
-87.478
-166.77
-46.204
109.4
80.161
70.13
-30.751
-104.86
42.649
115.67
-37.482
-97.685
-89.155
-93.417
-9.4516
70.383
76.249
55.597
-22.051
62.816
179.29
54.151
-85.341
-109.75
-152.93
-119.26
48.02
118.77
61.259
-22.318
-77.546
60.787
153.03
3.391
-63.681
-132.26
-153.45
7.6711
109.62
20.992
-27.33
-41.118
13.828
227.99
231.14
69.409
-59.128
-147.35
-108.68
-1.5887
48.492
7.6472
-26.809
-98.593
-47.34
56.779
40.134
16.241
-81.452
-149.4
-30.024
71.435
35.766
-3.4617
-60.553
-88.692
77.795
176.83
80.769
5.3465
-33.796
-82.949
-64.698
34.481
87.373
62.202
-61.628
-97.943
112.34
99.556
-86.974
-79.841
-84.1
-88.019
61.547
90.02
6.6112
-31.778
-112.88
-107.5
137.71
252.46
69.434
-32.324
-42.273
-113.29
-96.493
-8.1256
18.862
21.073
-28.93
-38.079
51.05
184.82
158.1
10.207
-75.249
16.754
43.316
-37.331
-70.582
-73.214
-109.28
-123.76
22.99
132.22
9.1187
-94.197
-82.063
-52.343
29.108
164.72
182.94
77.593
-52.271
6.1773
148.8
157.04
30.231
-141.3
-219.87
-260.98
-232.72
-69.443
55.523
29.581
-42.651
-25.704
113.58
133.58
28.231
-53.408
-128.76
-116.25
5.7854
157.08
83.849
-2.1962
5.4342
120.85
358.72
205.93
-89.237
-135.57
-164.99
-103.65
11.666
73.801
36.632
-49.062
-69.547
58.134
121.25
72.984
-18.526
-128.64
-157.38
-64.717
42.642
35.845
-16.225
-92.84
-91.412
88.73
103.93
-20.077
-34.496
-83.507
-153.37
-49.238
108.35
125.54
23.917
-42.592
34.522
196.61
211.08
-8.01
-92.355
-133.04
-96.452
60.653
147.22
38.781
-75.038
-103.64
41.704
127.41
22.248
-49.152
-51.642
-79.279
-71.397
32.95
65.817
17.491
-48.946
-96.311
-40.144
4.2953
-54.402
-52.549
-1.0389
-28.38
8.7782
68.414
39.065
-29.432
-63.052
63.807
133
9.7469
-108.77
-134.71
-180.54
-57.714
126.53
140.29
108.64
39.255
87.4
153.97
134.37
-53.477
-162.53
-135.08
-144
-6.4233
177.37
100.2
-20.511
-34.486
27.173
170.57
49.783
-162.46
-155.78
-132.11
-145.58
-28.458
53.582
-11.649
-69.357
-167.87
-144.16
22.634
-54.756
-59.126
-15.019
-90.885
0.37382
317.76
400.88
182.4
-63.827
-102.82
54.656
215.66
213.4
150.97
91.734
56.236
130.85
139.98
37.838
-105.92
-214.66
-195.84
64.86
330.76
81.025
-211.07
-238.09
-205.7
-116.21
-6.4182
0.33542
-81.448
-94.326
-76.604
0.53927
177.11
106.79
-89.598
-95.941
-94.394
-78.999
50.748
71.701
21.673
-12.664
-14.512
61.435
100.2
29.905
-51.67
-84.198
-103.07
-50.032
67.578
92.116
48.539
-5.0479
4.178
57.534
-32.157
-55.785
-12.169
-65.688
-105.32
39.272
174.09
121.65
-50.438
-89.983
67.097
188.03
66.798
-104.55
-99.335
-116.99
-111.28
-2.5885
88.784
83.39
17.986
-8.8924
92.539
101.32
-33.907
-106.41
-144.11
-172.88
-87.018
7.0955
53.438
11.695
-35.53
74.911
175.34
85.744
-72.952
-160.05
-197.63
-156
-19.937
58.449
23.062
18.122
63.822
134.52
172.9
102.56
-10.475
-107.96
-110.68
-67.827
-2.3893
56.148
30.442
35.388
51.14
239.5
441.43
103.55
-212.22
-227.74
-170.02
-123.43
-17.434
-18.848
-38.557
1.0838
16.761
195.65
171.65
-64.273
-87.675
-65.758
-51.44
15.784
30.875
-42.055
-80.397
-90.274
43.927
98.281
22.328
-20.364
-52.658
-84.239
-41.028
41.236
55.385
72.334
35.033
-59.134
35.347
118.85
-27.061
-92.328
-77.104
-25.219
12.926
15.201
28.504
33.813
-27.639
-38.46
97.405
85.717
-27.458
-78.81
-81.988
-43.039
11.568
55.357
72.326
34.15
-35.162
-9.221
62.821
35.886
-54.515
-78.304
-58.439
-24.805
25.732
32.583
4.6906
1.7005
-2.2743
16.102
94.02
98.373
-10.488
-58.973
-73.058
-30.355
17.621
12.03
29.086
21.047
-39.811
-85.236
-35.409
2.1574
-3.4243
-30.498
-101.08
-83.608
-1.3381
70.462
103.86
38.206
-0.47241
65.172
146.64
90.255
-25.406
-92.562
-89.649
-50.806
-33.672
-21.033
-14.396
-45.083
-70.201
-2.8078
115.95
172.22
59.674
-20.699
-64.797
-94.533
31.002
59.727
-26.23
-48.86
-64.232
16.366
152.26
120.6
54.352
-61.953
-108.14
8.9639
17.123
20.383
21.459
-48.913
-108.2
-72.258
81.242
52.151
-61.574
-89.804
-36.047
20.603
34.571
20.164
-18.353
-36.49
-43.733
28.545
84.358
89.999
-38.975
-98.661
42.414
90.553
118.63
104.89
-33.245
-100.89
-48.75
61.325
74.971
-45.281
-112.63
-79.75
-14.809
10.172
33.559
15.576
-17.142
19.273
42.721
55.983
56.737
-49.053
-126.52
-67.747
-18.949
13.026
16.405
-19.718
-42.401
5.6422
46.923
48.516
-8.6818
-76.776
-56.832
4.6759
86.466
70.815
10.057
-11.86
-0.20573
96.878
66.393
-30.12
-77.342
-105.31
-88.456
-34.775
32.72
46.904
13.227
-70.285
-48.877
77.565
126.74
85.564
55.825
9.7996
-46.068
3.2904
56.096
-4.8144
-35.997
-16.5
-6.1349
24.249
-13.743
-34.03
-38.285
-78.524
-77.506
-20.101
52.555
57.823
8.118
-18.863
12.199
77.521
54.005
-59.33
-87.638
-90.933
-103.59
-7.3551
120.52
105.17
39.653
20.438
71.315
92.002
-10.891
-80.54
-94.666
-114.22
-64.168
22.805
82.883
36.962
-21.401
7.5119
102.22
90.921
-17.241
-63.126
-124.65
-128.39
-26.345
65.707
127.65
88.986
13.179
21.456
49.438
23.637
-27.336
-66.463
-101.78
-105.03
-33.728
85.344
69.071
-26.902
-43.074
47.831
103.31
3.7623
-81.706
-93.436
-92.964
-65.595
26.858
88.303
46.725
-27.916
18.709
132.87
143.94
1.9479
-119.71
-167.32
-140.67
-36.778
78.174
112.22
43.019
3.7826
53.574
166.31
129.21
-93.901
-176.73
-180.88
-149.71
-59.408
84.247
112.57
33.977
9.0905
139.84
250.47
142.48
-49.99
-172.65
-214.63
-109.91
-5.4561
34.256
21.829
-50.624
-12.763
132.05
199.47
115.13
-52.665
-161.65
-177.34
-78.165
37.705
98.507
11.038
-78.318
34.902
201.38
129.66
-43.594
-147.17
-221.37
-151.09
3.3848
125.29
119.22
29.308
-34.299
83.28
240.6
172.13
10.186
-131.7
-212.95
-177.42
-67.335
-3.1064
-33.438
-119.95
-93.555
73.261
241.54
237.23
11.977
-156.51
-163.8
-97.582
20.637
70.129
20.203
-71.442
6.3323
225.69
257.72
69.229
-66.907
-116.78
-171.3
-114.77
90.911
63.21
-82.728
-93.147
70.978
172.09
34.625
-87.81
-80.991
-85.004
-4.2511
101.55
62.083
-25.997
-100.26
-47.881
132.67
136.27
-7.1216
-102.47
-120.52
-117.9
55.009
216.68
52.392
-51.371
-106.16
-17.15
163.75
44.719
-97.997
-122.13
-145.25
-3.3506
134.92
91.965
-18.553
-86.853
26.312
139.42
-14.602
-109.81
-138.22
-192.5
-71.246
133.48
171.94
71.425
-20.641
-95.959
-0.50818
137.28
57.615
-17.199
-63.285
-54.557
112.22
166.13
91.174
22.601
-36.97
-37.28
109.67
122.97
-81.239
-157.27
-137.26
-100.1
-7.4698
31.792
-41.968
-120.36
-129.04
84.309
202.33
80.501
9.7478
-7.5178
-112.8
-42.176
53.53
57.742
60.206
-7.0247
-44.128
45.829
152.62
37.162
-118.13
-112.29
-95.929
-56.857
20.234
73.529
6.8165
-103.16
-45.604
163.77
190.2
42.779
-37.316
-125.76
-134.45
-6.8494
63.897
28.024
-67.81
-81.532
-4.0438
104.59
170.28
70.373
-47.847
-118.18
-73.921
-8.1053
-16.082
-13.896
-23.52
-52.004
41.888
160.44
114.95
-30.85
-91.533
-78.67
-80.688
-10.973
68.108
79.328
-25.363
-90.074
65.733
187.85
162.47
-42.741
-149.69
-104.75
-79.808
-56.129
25.407
64.23
-22.787
-37.87
78.897
120.22
-32.316
-127.53
-103.35
-106.85
-60.061
61.211
97.604
54.653
-28.226
-15.28
154.2
202.43
54.652
-71.945
-124.45
-134.18
-21.629
160.63
111.24
-77.745
-113.49
39.945
182.27
54.975
-112.84
-161.13
-205.62
-109.84
99.059
107.46
64.468
-31.721
-34.945
131.29
116.98
-7.6621
-21.503
-42.036
-96.232
-16.615
53.77
54.828
80.161
81.005
161.48
178.46
129.78
99.4
-5.1695
-221.49
-305.86
-244.05
-166.17
-160.96
-120.09
-148.75
-201.18
-50.526
118.06
162.97
79.539
35.384
68.531
1.8431
21.469
16.122
-74.299
-60.158
124.32
288.72
173.31
60.665
3.3782
-51.349
70.39
48.055
-65.033
-67.39
-69.339
-41.519
106.44
131.35
8.3362
-53.512
-149.59
-224.99
-17.738
202.13
211.19
77.11
-72.953
-115.47
8.0106
129.76
-40.397
-143.72
-90.982
-86.453
-37.331
85.732
35.504
4.1055
-32.039
-79.069
-9.0584
261.32
169.23
-37.125
-54.848
-82.74
32.179
24.681
-20.925
36.658
-43.826
-157.65
-40.2
-36.991
-75.229
12.04
-31.349
-7.2074
129.45
60.044
21.419
74.889
13.369
-69.244
70.855
92.293
-59.371
-123.59
-207.05
-126.61
55.105
59.053
4.1118
-4.7652
-43.757
61.743
284.66
175.9
-14.859
-105.14
-181.68
-44.756
116.24
100.47
23.051
-78.326
-124.57
41.543
125
46.176
-3.7993
-79.313
-159.09
-83.98
-19.323
21.769
84.031
16.548
-92.521
14.899
161.53
129.44
60.004
-31.171
-45.31
-105.08
-99.606
40.187
64.522
61.353
59.063
51.556
21.415
-8.6629
-88.969
-111.74
22.47
137.89
101.2
7.8966
-174
-373.84
-224.6
-89.302
-30.798
89.059
116.5
96.495
87.116
93.914
74.895
-9.4762
-99.501
-90.315
-9.4423
81.94
6.1072
-100.86
-126.05
-156.06
-5.1942
183.9
125.84
-2.9044
-105.57
-51.726
87.891
192.72
225.4
159.84
221.34
217.87
-57.432
-111.43
-78.754
-97.634
-85.948
-43.962
-61.945
-55.798
-119.87
-181.82
-154.27
-98.479
-101.06
-1.5614
93.889
-69.725
-142.35
-15.465
126.49
111.5
69.808
54.198
29.887
57.4
134.32
204.31
184.36
120.84
129.55
420.57
306.18
-180.32
-302.3
-305.93
-199.11
-23.824
20.042
-46.109
-114.99
-175.24
-75.737
111.27
70.152
-41.397
-73.76
-73.02
12.919
-4.2746
-26.735
-6.541
3.8297
37.399
138.7
152.06
34.377
-65.091
-124.46
-7.4724
88.885
5.8342
-33.433
-70.88
-88.982
-63.214
136.32
97.499
-27.292
-48.71
-86.471
58.254
125.51
16.889
-80.107
-70.844
-90.417
6.3785
148.9
16.881
-26.944
-54.611
15.546
46.286
-43.615
-48.857
-26.024
-61.461
-32.257
141.38
135.7
37.964
-0.13427
-30.503
37.176
111.32
48.621
-42.862
-105.32
-123.39
-79.418
46.709
45.034
-47.229
-87.852
-130.6
-79.346
87.968
83.712
-50.928
1.8767
21.229
-71.524
58.326
113.91
7.7836
-75.352
-87.956
63.59
84.805
47.838
25.014
-18.741
-23.718
75.793
128.65
50.246
-61.839
-63.25
-14.278
69.999
145.96
29.265
-175.12
-227.18
-160.86
35.621
142.83
12.557
-4.6671
-13.81
-40.24
107.75
54.788
-30.719
-7.2269
-63.606
-141.13
-18.357
199.16
164.56
23.924
-102.36
-95.245
88.742
121.51
24.759
-92.214
-116.87
-87.698
-28.782
-56.095
10.1
9.7001
-49.068
97.962
97.916
17.77
-1.6307
-48.257
-128.65
-13.114
144.08
138.48
63.956
-83.657
-85.216
14.532
-5.0861
16.448
-9.0254
-75.02
-89.634
44.765
139.05
99.178
3.3732
-87.722
-54.296
-3.6082
61.038
62.084
-32.703
-164.41
-161.95
57.337
117.46
1.2035
-27.223
-57.789
-15.965
82.614
114.15
26.645
-109.03
-160.02
-8.904
147.68
62.019
-13.855
-88.443
-151.33
10.802
108
99.14
-6.3024
-133.44
-166.5
-23.653
154.81
137.21
34.002
-56.939
-192.82
-42.326
253.04
231.71
82.883
4.7814
2.6237
195.4
168.6
-30.386
-146.98
-168.22
-115.08
-63.302
-29.617
-46.202
-145.1
-184.67
8.0038
222.34
235.33
73.499
-70.204
-141.27
-105.38
26.799
71.535
-3.7646
-86.683
-146.05
14.029
208.01
117.18
21.756
-91.502
-64.599
87.274
37.245
4.3214
-76.35
-129.78
-49.982
182.01
144.14
-0.25887
-65.221
-168.17
-24.809
119.4
141.61
11.26
-138.87
-192.98
-52.151
158.56
63.672
-50.947
-86.588
-5.0771
89.795
35.191
36.223
-22.534
-116.32
-70.18
175.16
117.84
-15.47
-61.698
-117.99
-72.994
37.479
73.219
29.162
-78.173
-143.02
-13.892
191.16
137.75
30.342
-63.434
-119.15
-20.423
-15.221
-48.087
-39.594
-48.008
-14.256
165.11
358.84
258.56
9.4741
-145.74
-160.53
-42.748
25.339
-6.707
-67.083
-141.2
-102.24
135
173.44
38.955
-44.453
-99.249
-72.37
-20.804
7.0298
-21.489
-74.161
-136.01
-94.734
143.96
45.41
-121.13
3.2033
51.788
16.837
48.762
-5.8221
-78.108
-8.5108
4.2391
126.04
229.17
68.499
-60.594
-76.556
-78.443
11.44
30.502
6.8351
1.9717
-83.379
-121.41
89.579
161.65
-35.575
-106.73
-81.531
-92.271
21.325
63.613
14.354
49.384
36.48
9.5286
161.51
156.72
-3.2089
-54.631
-116.91
-121.79
-22.077
58.745
72.161
-1.0148
-41.65
-61.839
19.528
89.006
-4.6436
-102.92
-116.57
-62.39
5.6347
78.54
35.437
-36.094
-59.479
100.63
224.36
118.47
-32.894
-138.38
-141.48
-134.3
-36.053
58.731
-29.532
-24.46
113.48
109.14
31.401
8.918
-70.796
-87.626
-6.8424
52.427
86.471
18.699
-15.585
119.92
166.06
9.4732
-107.75
-167.59
-239.92
-182.97
-82.347
-0.94697
142.63
115.29
-22.871
86.869
169.72
0.81054
-43.028
-89.071
-81.16
33.174
71.144
65.82
31.456
-82.093
-47.973
139.44
111.93
14.614
-56.256
-149.75
-128.51
-34.21
101.21
141.21
19.724
-46.075
14.805
56.935
23.051
49.909
-48.328
-139.46
-14.279
101.12
85.721
24.994
-96.316
-60.113
136.34
149.42
46.951
-40.367
-102.2
-154.44
-74.874
38.354
-18.429
-65.636
-92.942
-84.898
69.972
130.18
59.627
-41.13
-84.156
-59.994
42.012
67.617
23.228
-61.302
-85.839
68.607
152.85
93.191
-7.0855
-79.703
-97.585
-27.356
71.872
39.053
-117.69
-150.03
86.751
108.92
-20.925
-8.2531
-73.624
-126.5
-79.527
18.885
166.92
145.94
6.9231
-54.485
170.5
181.11
-42.278
-100.79
-103.73
-79.954
3.9632
64.895
18.555
-109.84
-205.33
-63.216
166.16
133.37
6.6537
-67.354
-144.91
-35.973
87.237
77.321
28.015
-79.334
-149.25
-0.74812
148.22
118.82
17.941
-139.94
-107.55
91.703
177.27
98.537
-59.127
-134.46
34.648
231.02
122.99
-18.054
-107.02
-176.95
-61.055
83.725
109.33
44.377
-92.349
-110.61
134.72
213
27.081
-124.74
-225.24
-95.489
50.145
95.768
66.079
-59.339
-133.15
-9.4665
208.95
116.24
-39.922
-108.62
-167.77
-31.278
10.396
-15.861
-4.7052
-94.996
-50.08
184.31
174.25
59.497
-36.642
-195.59
-43.498
105.78
55.156
76.213
33.773
-81.66
41.587
222.09
9.3671
-91.746
-144.52
-110.37
23.37
66.653
62.963
-63.947
-172.33
-94.846
113.69
145.18
33.774
-96.793
-140.69
56.692
150.44
97.573
20.776
-122.89
-182.6
25.387
166.57
44.611
-19.26
-112.85
-88.692
64.722
84.437
61.791
2.2553
-92.494
-43.786
154.22
183.57
56.127
-71.692
-128.37
-92.677
38.531
121.73
57.276
-92.032
-69.835
94.453
146.86
59.307
-80.729
-152.91
-141.78
-108.35
-51.052
-20.708
-37.592
-56.729
-36.002
124.08
208.15
43.453
-102.08
-105.8
-122.79
-62.754
51.521
20.006
-27.459
-42.852
-74
88.432
167.91
-10.471
-83.44
-102.63
-62.358
15.614
52.048
55.221
-26.915
-61.538
118.82
108.86
-63.106
-32.611
-27.421
-71.263
44.092
117.81
48.152
-6.6602
-72.987
8.0396
194.84
56.554
-51.105
-32.809
-115.13
-36.364
65.876
94.062
52.559
-25.759
-4.5243
80.746
133.55
4.8051
-106.15
-142.71
-154.78
-71.76
24.305
60.663
16.659
-63.857
-7.9146
129.28
59.902
-15.615
-46.491
-144.75
-87.075
1.0494
52.72
117.27
72.231
79.434
177.74
125.19
-23.465
-77.572
-98.415
-138.33
-85.554
17.822
51.507
-5.3667
-85.919
55.835
201.02
126.64
8.5631
-73.099
-179.65
-187.52
-50.846
51.93
80.559
-3.534
-89.653
13.75
115.42
63.838
-5.1274
-27.255
-78.965
-86.955
42.426
133.49
62.723
-54.265
-108.69
46.694
126.17
5.1831
-57.094
-126.19
-151.36
19.491
156.49
103.82
13.499
-82.494
-27.175
150.73
58.19
-79.465
-109.37
-125.97
-54.108
61.897
96.671
0.72254
-117.21
-72.424
173.8
155.73
-20.175
-106.39
-181.61
-75.57
111.24
123.83
80.347
12.105
-59.505
75.911
267.64
66.656
-102.91
-175.38
-170.93
-9.1695
87.081
102.79
39.026
-126.09
-117.85
127.21
110.25
-53.69
-83.677
-121.69
-24.552
103.41
47.223
1.8171
-21.681
-112.74
5.224
221.91
93.301
-63.491
-104.88
-61.414
50.821
5.7872
10.416
-2.2353
-122.48
-108.31
139.24
214.71
33.409
-74.194
-127.67
-56.659
37.73
-15.181
-36.336
-27.409
-63.705
21.901
216.51
86.633
-64.544
-70.77
-56.505
25.064
24.123
-31.66
-46.475
-46.698
-12.258
147.02
189.66
23.763
-89.757
-133.19
-115.72
-56.594
-32.667
-24.785
14.88
-9.2409
12.409
91.541
127.38
110.49
-51.219
-125.41
32.693
5.5257
-33.996
2.6228
22.339
24.573
116.46
194.2
25.56
-119.76
-137.26
-93.576
-26.67
35.533
-36.34
-78.87
-86.859
-33.292
126.61
129.96
83.013
-11.305
-76.313
-1.3243
40.085
46.362
23.218
38.988
-34.891
-60.703
73.32
38.73
-21.718
-9.5591
-29.803
-154.82
-92.729
14.56
19.75
-42.282
-35.76
110.85
135.43
41.621
-32.615
-130.15
-126.13
-85.544
-35.16
112.84
163.87
-12.006
-42.196
124.52
115.97
23.751
-82.95
-157.32
-185.52
-157.94
42.387
192.78
113.93
13.406
63.048
133.17
88.124
-54.135
-147.2
-129.49
-94.457
2.7211
152.14
125.25
-53.821
-62.448
77.614
68.666
-24.64
-77.464
-127.08
-99.73
16.125
118.23
128.78
45.934
-42.455
-53.184
94.683
107.45
-44.609
-142.36
-204.57
-124.13
18.979
86.652
141.68
76.073
-56.54
36.618
165.22
16.153
-87.082
-131.11
-115.17
-2.5437
57.172
24.783
13.355
-27.704
-13.512
125.53
84.846
-18.812
-12.768
-48.337
-70.56
-18.516
-17.359
5.8892
36.783
-65.326
-38.603
149.18
135.11
25.32
-83.497
-128.67
-32.109
78.681
123.88
6.6454
-134.86
-115.06
39.8
185.84
122.07
-21.429
-138.8
-146.33
-22.882
32.554
61.331
33.776
-85.298
-120.78
9.2736
121.13
51.941
-66.933
-119.82
-135.12
-65.465
0.92041
46.49
101.25
80.004
15.4
132.08
227.63
24.819
-87.475
-89.571
-104.31
-50.768
-5.2971
-67.261
18.57
68.111
44.368
188.18
169.78
-60.071
-117.48
-64.188
-46.132
10.998
7.8877
-74.274
-55.509
-90.516
19.585
123.56
29.558
11.323
-69.046
-74.542
-28.05
-5.0047
81.384
73.709
13.058
-60.46
21.04
78.778
-22.81
-60.99
-107.26
-109.74
-64.553
31.574
126.58
112.14
47.79
-17.349
65.562
123.41
26.756
-59.725
-97.366
-79.616
-55.933
26.191
57.7
3.9359
-41.933
-81.455
42.256
147.61
26.668
-62.241
-137.36
-136.37
22.359
98.852
83.471
34.131
-62.391
-45.71
126.98
127.47
-10.48
-133.05
-233.56
-138.86
100.27
190.49
95.916
8.7174
-68.314
20.306
186.5
30.957
-116.46
-168.32
-144.22
3.3275
78.582
115.61
101.85
-26.47
-110.47
32.993
198.14
53.728
-116.2
-204.81
-132.17
33.343
116.57
64.04
-10.929
-114.58
-82.123
188.86
259.87
85.113
-91.3
-178.51
-148.17
-40.429
46.416
55.621
-36.425
-99.375
70.676
273.62
162.71
-68.838
-143.04
-117.2
-78.008
-13.172
37.045
-3.4851
-78.875
-67.683
109.1
220.87
116.54
-36.218
-97.851
-82.818
-58.928
-14.086
1.8123
43.217
28.069
-51.127
75.691
149.4
-17.001
-81.246
-104.5
-97.271
-64.641
-1.2828
35.541
36.107
33.587
13.778
97.553
65.86
-61.331
-59.193
-75.025
-50.49
-29.234
-31.85
55.101
75.48
42.305
64.958
73.933
110.87
-9.4396
-132.82
-120.44
-119.27
-12.939
103.95
7.3026
-64.016
-12.408
121.8
167.21
17.519
-107.38
-140.04
-121.12
-89.703
51.916
170.72
83.427
-41.56
40.603
187.87
136.45
22.459
-125.83
-161.65
-142.12
-101.68
32.003
101.22
35.269
-35.834
23.343
95.404
-41.109
-143.45
-134.37
-150.76
-106.75
58.561
177.07
151.98
27.978
45.686
152.12
213.16
48.842
-168.32
-208.84
-202.87
-77.686
119.2
133.28
-45.466
-101.67
79.091
228.27
192.2
-5.2743
-186.38
-174.2
-81.65
8.4754
88.935
92.195
12.33
-61.21
17.411
130.11
-11.139
-141.6
-134.21
-73.007
61.625
140.53
20.244
-107.86
-124.87
-3.7967
240.54
216.12
-79.23
-213.08
-249.1
-98.461
139.92
189.05
86.622
-32.668
-70.767
148.5
273.01
-17.02
-204.81
-247.1
-128.1
45.944
125.23
72.819
-43.659
-145.03
28.019
242.9
174.27
28.006
-137.44
-153.46
-3.7905
29.155
-37.473
-47.508
-129.42
-109.01
191.25
262.64
121.81
50.735
-97.137
-61.117
-30.51
-46.47
-32.336
-79.217
-164.85
-39.492
170.64
169.74
-29.826
-139.28
-75.558
63.152
30.868
22.479
50.802
-18.501
-66.631
99.037
117.16
-95.872
-148.56
-98.16
-6.6806
72.578
153.59
1.093
-120.12
-129.67
77.849
221.43
88.846
-103.44
-143.21
-85.201
-6.6171
90.165
128.14
-28.496
-145.22
-51.029
149.74
173.44
28.884
-102.35
-110.99
-55.062
-16.899
80.172
73.451
-83.635
-166.2
-7.0087
210.47
187.8
0.017669
-117.23
-72.984
-18.351
-20.771
7.1883
-53.09
-77.757
-14.13
107.45
204.53
87.234
-91.384
-125.43
-46.891
-58.632
-37.931
71.332
15.058
-119.58
-78.372
107.65
221.93
113.63
-11.698
-42.266
-109.57
-168.97
-88.601
36.391
58.871
12.865
27.61
139.81
151.62
14.169
-99.496
-132.26
-113.73
-69.611
9.8778
80.941
48.48
15.481
28.34
116.24
120.72
-51.955
-125.82
-118.51
-116.53
-65.879
45.697
152.63
121.66
26.577
31.537
111.7
42.202
-82.547
-92.185
-120.02
-110.05
-25.003
33.59
70.223
29.732
-1.0428
52.549
85.835
111.72
29.337
-130.86
-193.33
-141.99
-32.877
136.6
163.31
72.976
32.533
48.746
101.78
59.499
-72.242
-166.32
-216.02
-226.74
-71.323
96.632
112.42
88.152
-25.383
-27.73
115.75
45.393
-44.787
-89.408
-76.588
-33.391
57.103
133.59
71.615
-73.838
-152.68
-48.046
137.56
115.64
-11.697
-97.027
-183.71
-24.498
174.44
119.45
10.626
-60.274
-85.479
82.065
205.44
72.752
-64.166
-168.48
-212.31
-14.114
206.86
172.36
-29.146
-144.76
-42.784
143.04
155.44
12.904
-130.34
-222.31
-115.95
96.123
162.7
33.87
-112.68
-172
-45.518
164.28
144.45
2.2858
-155.6
-224.84
-10.271
198.83
176.88
-29.745
-125.94
17.398
257.33
256.97
40.26
-152.06
-276.46
-181.04
57.68
132.28
67.379
-58.439
-148.23
-12.841
223.17
199.87
7.1358
-182.29
-222.73
-67.047
28.22
83.333
35.749
-156.04
-192.41
61.893
219.32
159.95
22.795
-167.88
-169.85
16.697
122.21
133.64
-16.849
-127.4
53.353
254.92
180.76
-30.91
-219.94
-264.42
-80.192
29.025
107.42
136.44
21.092
-18.239
75.445
184.86
105.76
-83.25
-249.2
-228.46
-99.93
33.579
130.58
105.47
-43.996
2.2818
156.04
170.93
67.773
-105.33
-206.6
-129.87
-70.546
6.6412
43.404
-65.273
-65.934
75.891
136.46
114.79
-9.329
-168.99
-195.36
-100.97
-34.536
36.273
90.154
63.374
54.889
83.356
214.68
185.26
-45.488
-142.61
-101.26
-22.777
-26.717
28.356
30.457
1.743
-38.578
33.358
41.325
-79.804
-90.248
-47.109
-39.864
-13.738
100.39
67.016
-2.3086
50.815
26.866
53.184
141.61
3.7201
-137.08
-98.615
-71.699
-71.73
40.984
92.915
51.81
-15.351
-35.985
130.76
155.27
-61.023
-104.34
-66.734
-123.84
-84.116
-27.898
-5.0164
13.113
13.69
65.582
142.27
68.849
-78.293
-129.99
-129.98
-96.252
1.7818
49.201
83.734
57.298
26.803
191.49
186.6
25.252
-67.421
-128.8
-155.61
-160.35
-50.945
93.522
68.849
-30.289
31.661
96.72
0.3541
-47.057
-73.204
-142.18
-173.48
-86.548
76.455
113.34
94.262
85.882
66.191
96.544
89.04
51.705
-53.242
-39.021
-50.926
-2.2916
107.57
31.382
-79.493
-6.9204
30.319
-8.4802
-28.644
-90.518
-108.55
-73.224
40.87
147.31
71.676
-9.36
-30.531
-14.03
37.869
12.317
-55.504
-111.45
-130.31
-115.14
101.59
298.74
135.47
-63.616
-17.208
29.832
-50.022
-36.77
-83.999
-98.853
-41.73
5.288
48.472
125.34
86.704
-8.2417
14.74
82.608
91.077
23.691
-44.695
-95.971
-177.4
-97.557
101.77
214.13
75.422
42.993
203.55
177.61
38.395
-117.64
-195.13
-237.03
-368.37
-341.76
-12.292
147.68
-2.5915
-79.19
-9.1784
144.61
170.34
11.304
-118.9
-182.99
-25.8
178.85
140.26
108.16
88.213
54.407
10.732
27.335
85.665
74.192
-24.856
-135.94
-172.03
-108.02
-108.73
-116.06
-99.757
-12.143
188.25
293.53
87.467
-80.935
-132.09
-40.157
133.52
149.91
7.3867
-171.59
-249.33
-42.236
204.29
231.86
182.44
-40.365
-179.25
-105.69
25.923
88.422
50.897
-34.027
-73.362
112.9
95.409
-104
-32.343
-82.36
-91.807
-15.742
36.854
42.251
-56.021
-66.501
9.6178
184.34
146
-30.332
-68.021
-75.335
-32.938
13.402
12.116
-33.473
-128.36
-144.43
16.179
228.46
216.78
49.552
-58.182
-26.904
10.083
-4.9534
-57.781
-149.22
-123.37
-41.622
-6.0082
146.49
144.38
-13.35
-23.772
71.733
93.158
49.622
-13.688
-66.05
-90.374
-102.96
-64.956
61.263
46.721
37.075
72.852
-81.311
19.11
126.85
-28.366
-31.241
-11.296
-61.575
-34.474
28.016
31.398
22.236
-47.425
-3.5299
11.365
-42.229
23.865
27.651
-53.881
-125.61
-65.727
13.696
79.793
85.824
-46.681
-40.111
62.836
120.41
148.29
5.0699
-115.13
-118.38
-47.198
21.969
13.457
-45.754
-87.293
-91.115
82.458
179.02
18.426
-92.403
-107.82
-56.039
101.9
99.794
9.2941
-53.826
-32.526
22.508
111.17
165.51
34.655
-125.36
-228.38
-75.76
165.07
71.786
-53.463
-130.11
-187.46
4.1676
162.78
147.8
49.118
-59.347
-114.25
110.51
206.96
-6.3799
-96.819
-170.8
-94.908
85.63
19.534
49.401
48.578
-120.92
-35.195
233.12
112.06
-10.516
-75.738
-151.23
-3.5328
150.43
89.113
-26.503
-129.24
-134.58
-23.813
52.445
61.106
50.318
-88.303
-140.14
85.221
116.09
89.935
-51.51
-200.25
-80.236
91.854
86.022
45.51
0.84809
-67.429
64.323
61.8
12.205
6.3548
-97.478
-116.01
-27.386
118.37
41.711
-52.48
-49.444
-54.432
10.819
82.006
69.274
4.0264
-62.031
-29.306
70.015
110.66
13.428
-44.709
-60.341
-43.715
-12.824
-4.3503
34.779
40.357
17.589
-25.449
-40.299
89.588
63.941
-40.71
-68.136
-112.58
-14.222
32.877
0.17055
60.151
32.379
-49.252
-39.221
66.521
48.108
-30.997
-98.121
-84.139
-54.075
31.028
186.59
124.77
-5.3376
-39.053
13.615
-24.34
7.9168
-16.876
-49.458
-9.2448
-45.989
35.594
113.67
25.453
-85.573
-104.19
-15.5
27.429
-0.46945
-44.7
1.8232
-6.967
31.722
140.46
30.493
-55.017
-58.822
-55.599
39.137
56.826
-49.937
-55.237
-61.106
13.902
121
74.376
-29.088
-96.861
-155.41
-32.809
188.65
175.34
-10.195
-107.94
-87.544
94.881
155.73
-34.101
-98.498
-84.311
-121.77
18.721
174.29
19.051
-86.005
-84.248
40.855
176.27
89.866
-39.723
-78.234
-4.3769
147.45
119.32
-17.27
-127
-204.08
-211.57
-146.08
-82.104
-13.511
-5.971
5.7797
109.05
286.3
265.92
25.737
-44.114
-102.85
-115.89
7.2863
28.013
21.184
-31.641
-108.35
-21.615
241.44
191.79
-8.6881
-108.62
-149.46
-71.632
3.2361
100.49
73.141
-44.16
-23.676
6.1962
67.025
22.084
-80.092
-96.879
-48.293
31.633
-3.3358
19.452
57.822
-21.537
-79.97
-41.169
108.52
49.081
-64.125
-25.528
-21.355
61.027
120.86
-18.796
-89.464
-14.053
21.05
67.709
67.374
-57.772
-129.93
-73.532
13.936
31.202
48.182
25.755
-49.494
-85.022
-115.07
10.513
155.85
138.02
34.974
-52.33
-94.316
-87.086
68.258
167.76
35.311
-76.204
-21.021
43.198
52.906
-15.918
-85.088
-82.34
-64.026
-15.369
92.536
90.055
-41.447
-113.06
-47.801
120.9
192.99
20.629
-121.04
-195
-165.52
41.187
228.36
156.83
-11.485
-105.41
-49.559
107.96
42.722
-119.7
-147.34
-129.83
-50.754
123.21
159.07
64.721
-72.318
-143.21
28.233
280.76
230.23
3.3931
-170.62
-209.52
-80.006
67.842
16.085
29.234
-30.56
-99.12
73.649
248.61
173.66
-28.449
-153.43
-83.502
16.457
1.1759
-8.061
-58.329
-195.05
-108.95
147.38
190.51
25.339
-83.63
-90.6
-12.01
62.962
39.111
13.673
-52.815
-66.872
19.881
123.92
88.082
-30.447
-98.022
-28.442
25.858
-53.848
-23.679
56.969
42.696
18.078
-19.535
-57.445
49.156
114.65
42.843
-49.652
-99.129
-88.278
-53.784
49.575
114.71
32.439
-79.004
-134.74
-81.624
117.7
254.34
153.88
11.245
-171.74
-219.06
-24.344
62.411
39.153
-27.64
-119.32
-68.774
149.84
142.38
13.239
-63.454
-144.73
-78.774
86.78
99.885
-36.925
-128.32
-106.39
84.012
219.83
187.68
48.878
-120.33
-150.41
2.8703
89.498
13.104
-111.74
-176.74
-77.642
122.46
160.49
89.697
-33.816
-136.19
-57.479
55.419
57.659
-49.935
-189.83
-129.55
99.751
191.13
164.33
72.325
-79.383
-129.31
-35.051
29.522
37.29
-87.443
-173.74
29.034
215.1
180.36
127.93
-64.767
-152.49
-59.493
7.4924
38.529
-3.2433
-130.68
-97.566
96.405
176.71
53.675
-77.747
-81.736
16.981
31.772
-4.3843
-8.0279
-101.1
-83.787
29.348
89.095
129.43
82.334
6.0165
-51.296
-30.556
-40.136
-24.608
-26.788
-41.458
6.8885
14.501
-20.322
37.566
121.99
139.35
80.846
-17.103
-101.98
-151.05
-111.61
46.232
19.726
-51.805
-62.083
-64.174
54.671
188.6
136.2
-13.084
-168.43
-143.23
21.027
25.944
-47.143
-55.304
-94.694
-15.585
163.42
185.81
96.6
-28.729
-185.11
-128.47
131.5
134.75
-41.076
-136.09
-156.72
23.489
170.2
109.65
-5.3334
-112.73
-103.25
74.442
142.72
37.062
-96.434
-195.29
-102.7
139.49
151.64
40.341
-58.414
-128.64
-20.034
143.85
110.41
-56.129
-181.43
-145.04
76.685
196.4
123.35
29.691
-114.78
-115.98
59.659
78.981
17.548
-64.145
-139.1
-52.051
130.04
176.3
59.789
-27.32
28.211
79.626
4.9466
-8.1773
-38.486
-135.99
-115.22
-22.31
42.46
90.779
26.521
-42.942
9.6772
31.355
-45.849
-32.884
-27.797
-47.231
-3.8554
-28.15
-75.129
-20.7
10.902
133.83
186.63
39.472
-71.779
-64.971
-1.1828
-12.816
-59.047
-109.82
-126.2
13.874
176.75
226.42
103.8
-48.344
-134.22
-27.492
136.45
81.069
-48.731
-150.68
-230.14
-73.109
129.49
138.75
39.095
-109.49
-115.61
91.027
128.47
-11.809
-105.65
-174.34
-72.105
172.63
163.95
82.505
15.322
-112.73
-55.092
84.479
69.551
-18.601
-136.1
-238.97
-90.476
119.12
216.89
143.15
-91.504
-90.592
97.119
125.32
26.769
-99.475
-169.01
-82.603
145.16
176.41
107.11
-30.678
-209.58
-135.3
27.146
65.762
-58.446
-213.68
-164.65
136.78
224.3
121.94
12.459
-143.68
-76.255
97.529
151.74
47.839
-110.19
-190.19
-50.483
130.11
166.83
111.53
-96.974
-142.71
34.21
79.116
34.538
-56.351
-145.74
-86.039
52.639
113.53
105.35
44.092
-79.958
-36.197
87.127
56.794
-9.9653
-94.846
-130.6
-62.709
44.376
101.71
59.211
-31.391
-26.747
34.758
52.419
41.546
-53.263
-106.17
-37.693
32.761
95.297
93.003
17.049
-8.7484
16.388
-1.8669
11.448
12.668
-94.18
-102.54
-17.296
38.959
75.41
44.678
-23.567
-29.938
-49.563
-52.359
-34.559
-16.008
1.2064
-22.139
-39.356
46.607
85.183
23.949
36.183
77.748
61.893
-16.524
-46.651
-30.353
-25.351
-87.781
-62.614
110.68
88.788
-3.834
-17.119
-76.858
-29.15
25
1.7195
84.28
66.106
-65.244
-45.812
42.973
123.77
181.01
43.327
-106.87
-140.43
-85.435
20.715
18.617
-111.42
-183.74
-67.451
72.779
125.66
29.972
-76.802
-99.388
-36.675
87.436
67.795
-28.714
-135.61
-155.19
46.064
215.42
171.79
56.653
-99.012
-147.3
44.716
155.36
42.878
-74.485
-159.02
-53.44
137.47
119.45
18.685
-103.89
-163.83
16.153
157.41
93.132
-33.024
-148.63
-161.81
71.119
107.89
5.7257
13.038
-112.17
-88.994
151.92
130.84
-51.769
-147.98
-145.34
67.4
314.79
242.84
75.352
-141.37
-235.77
-58.006
17.472
6.3442
-100.12
-244.43
-86.323
244.93
279.99
165.21
-34.784
-205.74
-101.92
-1.4015
-21.095
-38.452
-123.1
-64.604
111.24
169.67
79.527
-14.094
-82.187
-48.392
2.8221
10.519
38.413
-32.109
-71.854
99.029
217.63
133.09
-60.783
-132.61
-82.387
-38.833
-35.029
15.726
-4.9801
-27.207
37.093
123.89
151.01
12.128
-56.431
-28.517
-79.075
-77.837
-47.552
-70.479
-41.982
49.791
19.749
68.996
149.84
5.0156
-55.682
-34.999
-67.42
-45.131
-5.5645
107.35
180.46
49.014
-82.937
-146.41
-73.331
114.26
115.15
-14.63
-146.26
-213.99
-25.272
135.52
89.651
-31.489
-142.68
-144.78
34.829
159.32
125.5
-31.024
-178.6
-54.066
178.16
157.85
51.128
-86.712
-159
22.98
188.74
52.423
-59.596
-129.45
-13.517
151.33
51.209
-50.486
-76.511
-160.72
-69.031
137.77
154.46
71.49
-39.482
-155.49
-87.258
-9.1166
20.746
-11.871
-147.42
-37.92
235.02
247.31
195.17
105.59
-98.285
-112.7
-46.353
-55.568
-32.471
-85.507
-97.732
-42.142
77.918
103.16
17.442
-58.38
-77.036
-13.079
-9.5839
-76.009
-65.489
20.442
40.318
-6.9651
61.915
19.188
0.64584
31.208
12.477
1.3601
-15.194
6.1599
36.748
28.719
-76.911
-28.027
27.605
6.5307
1.0382
-44.895
-94.04
-151.68
6.647
166.73
141.04
79.388
5.5138
103.24
160.54
70.442
-59.4
-190.48
-179.77
-32.455
74
54.756
-26.734
-133.56
-111.82
80.43
67.169
-32.24
-39.823
-151.74
-82.142
134.52
55.336
-14.021
-67.318
-125.33
28.156
245.31
261.23
136.2
-112.62
-140.5
61.694
83.711
10.273
-118.64
-200.04
-125.18
79.397
151.98
91.749
9.4883
-55.504
-25.264
20.375
53.726
29.222
-85.968
-48.915
48.023
104.99
73.156
-13.802
-47.84
-23.073
-26.073
-32.912
-17.346
-23.706
-23.511
-20.655
-67.772
14.458
45.272
29.163
50.13
2.829
-33.312
-50.575
-10.51
70.549
61.146
-50.433
-75.628
34.749
142.36
119.04
-61.568
-177.67
-153.76
-55.599
47.757
-19.199
-221.11
-245.35
-115.84
81.868
239.94
241.41
272.3
184.25
108.34
130.98
-15.118
-132.34
-232.84
-192.76
2.1965
114.95
59.755
-67.489
-117.42
61.161
178.18
129.89
22.327
-168.4
-243.11
-62.225
65.47
33.26
-5.2794
-94.909
-97.852
-26.239
81.982
26.759
-112.2
97.268
275.76
121.96
60.355
46.845
-46.467
-132.82
-177.06
-136.46
-24.231
-8.369
9.3768
31.49
88.694
190.06
57.803
-71.182
1.4607
32.065
-2.2344
-45.456
-95.89
-39.392
14.896
-46.607
-96.71
-1.7561
103.88
118.52
48.657
-64.503
-169.01
-169.59
3.7509
68.349
-23.081
-106.63
-16.804
231.52
312.29
156.35
45.104
-80.601
-206.52
-35.871
122.63
27.125
-92.333
-152.73
-3.328
125.43
14.828
-53.412
-120.84
-72.061
91.136
81.229
-10.254
-95.225
-128.65
-24.549
177.17
225.33
134.07
-18.745
-99.424
-27.905
39.812
-33.609
-128.96
-124.03
-38.747
17.641
91.061
121.74
-68.451
-133.13
26.63
28.615
-32.681
-45.109
-30.086
16.588
-32.586
-129.9
-117.17
42.183
224.23
191.21
36.253
-30.509
-18.124
24.873
45.887
12.317
-71.325
-165.49
-114
118.78
220.19
132.88
9.9573
-127.67
-43.753
141.27
115.09
-6.7574
-167.66
-223.57
-5.3283
197.81
149.62
14.681
-121.79
-83.216
56.682
18.086
-69.33
-127.37
-166.24
-99.567
90.913
128.8
23.295
-59.461
10.725
185.39
170.86
-31.971
-151.7
-131.99
-25.142
-35.261
19.752
116.38
76.059
92.548
53.463
-5.8982
-33.253
-82.574
-44.154
6.9076
-23.927
-80.721
-32.166
5.3267
55.885
74.172
14.229
-68.058
-46.042
45.898
68.972
-27.594
-129.94
-42.27
96.614
93.434
52.837
-64.133
-153.43
-20.338
96.143
60.345
-49.464
-128.32
-161.21
5.2338
126.54
80.39
51.012
-78.718
-45.797
130.92
64.297
-53.64
-110.26
-114.21
-17.295
124.02
135.6
87.762
-28.654
-66.424
5.9663
-5.8454
-15.285
-126.03
-216.07
-162.42
4.1394
225.66
284.94
199.02
146.98
97.815
48.489
30.713
-83.54
-171.6
-146.94
-163.21
-59.555
147.86
169.94
164.59
89.759
-34.769
-67.569
-78.847
-104.51
-105.07
-121.26
-149.34
-2.5948
133.5
134.28
122.24
42.591
-68.607
-82.432
2.1906
1.8715
-111.91
-181.93
-170.9
31.847
194.57
231.67
93.871
-89.628
4.691
137.42
94.73
-69.521
-214.97
-244.53
-45.556
155.43
132.89
8.3903
-105.1
-0.74085
93.618
13.841
-55.994
-153.66
-141.25
-69.842
46.401
196.95
154.7
19.573
0.09513
31.44
2.3839
-19.652
-39.513
-50.111
-71.673
-26.091
67.027
68.05
64.428
80.468
27.101
-52.015
-78.781
-15.818
-14.614
-61.398
-144.09
-120.38
43.353
103.95
104.13
58.723
-67.751
-86.716
35.072
82.167
27.873
-46.85
-150.63
-84.118
122.54
132.5
34.471
-73.544
-111.14
21.708
77.739
51.96
-16.289
-146.92
-103.81
148.94
211.39
148.67
52.991
-101.95
-17.304
70.734
-37.323
-49.298
-102.89
-112.64
-61.674
57.324
155.67
83.764
15.53
47.829
43.621
-38.417
-92.591
-67.04
-37.363
-43.922
-18.686
29.293
50.512
41.122
64.385
8.2627
-131.73
-146.49
-6.8695
90.181
5.418
-94.897
-79.118
64.446
154.69
124.22
52.979
-72.608
-119.99
10.263
117.2
52.297
-59.998
-145.8
-78.251
120.47
113.14
48.796
-75.421
-117.9
27.572
24.585
-72.663
-149.75
-166.09
-60.34
186.04
188.82
108.97
22.493
-65.107
27.628
108.73
106.37
-29.564
-215.63
-173.08
39.486
154.1
96.296
-17.689
-39.918
51.067
33.476
-6.5695
-8.1591
-30.295
-54.39
-47.269
21.504
38.661
-16.824
-44.285
-36.106
-43.663
-91.817
-80.391
94.664
151.54
21.968
43.052
44.703
0.36768
5.8419
-41.419
-55.627
-54.41
-7.5613
139.69
120.62
-26.975
-99.199
-153.14
-23.504
107.94
42.268
-6.4
-133.11
-115.99
94.399
83.851
-19.319
-79.406
-93.002
80.298
199.78
95.559
-17.244
-105.56
-17.401
114.85
74.185
-33.788
-141.33
-146
7.1891
129.84
102.68
-5.3203
-62.107
-3.4883
79.18
73.202
-50.28
-154.69
-85.841
-9.2853
69.387
148.94
6.5653
-106.33
-47.252
24.22
-6.4322
-30.939
-28.645
-18.613
-28.336
-51.52
9.0161
58.43
51.627
58.743
14.999
-10.019
-36.455
-11.882
49.866
-10.902
-68.267
-73.297
15.197
133.15
89.754
18.146
-88.397
-123.9
30.367
88.448
10.761
-84.554
-162.16
-79.751
129.91
154.24
53.615
-59.249
-90.818
29.755
91.912
35.973
-74.369
-180.63
-86.807
126.1
127.86
89.141
13.446
-69.16
53.415
53.802
-36.252
-107.13
-191.84
3.3809
218.28
117.85
53.315
-13.827
-56.606
7.6578
-12.285
-24.151
-63.728
-164.03
-140.84
-22.485
155.29
129.84
3.7419
20.91
84.899
55.823
-9.7779
-75.315
-74.387
-19.681
-30.799
29.045
91.958
88.478
66.161
54.017
0.91974
-75.66
-17.939
-11.693
-77.786
-128.34
-108.29
2.393
55.559
77.862
66.927
-29.292
-102.24
14.497
94.369
19.068
-79.516
-143.3
-98.712
75.206
111.86
89.243
2.5557
-111.32
14.978
118.83
32.872
-67.108
-156.78
-116.1
113.39
165.16
77.774
-12.462
-102.16
-1.5364
83.003
98.06
-3.6841
-142.81
-145.93
24.186
171.29
107.15
-16.039
-65.673
13.822
30.276
-11.653
6.3857
-83.084
-89.436
-17.032
-19.614
81.275
106.08
26.384
30.953
1.5314
-111.34
-123.81
0.10765
57.969
-26.792
-94.613
-114.78
-39.042
114.44
197.74
80.292
-72.44
-95.663
40.733
149.09
50.208
-85.825
-147.22
-56.281
129.26
144.64
59.535
-66.213
-203.1
-65.782
130.4
87.811
-82.921
-171.18
-42.345
175.78
189.92
88.293
-60.353
-126.5
0.41237
61.803
21.837
-60.259
-173.85
-137.93
39.024
175.84
165.14
24.854
-43.471
19.907
-19.37
-58.664
-76.827
-106.46
-62.013
-1.0403
77.239
163.32
99.798
39.997
73.499
23.673
-50.626
-69.752
-59.678
-75.036
-66.545
-92.976
-87.556
75.382
179.04
94.246
-38.711
-140.59
-52.534
80.081
-7.2489
-73.915
-108.66
-133.19
33.122
225.53
196.94
143.58
39.271
-68.666
24.276
107.69
29.989
-157.06
-274.38
-120.41
149.12
188.64
40.974
-116.8
-96.863
-8.9969
-27.087
-13.648
-84.461
-195.4
-121.27
44.472
135.09
116.94
6.3265
3.5625
62.171
20.174
-0.69812
-90.93
-106.54
-15.518
37.159
116.59
167.42
174.42
172.1
44.782
-91.744
-71.946
-43.27
-76.133
-94.857
-95.596
-41.777
81.509
140.79
50.169
-53.78
-97.332
-187.79
-147.12
59.86
94.271
-69.975
-149.99
-40.701
170.22
212.12
98.763
-5.3967
-143.8
-108.66
107.12
127.33
-53.127
-186.74
-110.38
148.26
266.85
95.194
-94.287
-141.04
32.948
25.493
-8.1348
-5.1448
2.9819
-13.482
-5.7215
-44.127
-66.386
-88.735
-72.206
-15.497
2.2506
106.84
144.53
-102.39
-238.1
-114.55
106.89
328.87
255.36
29.002
-128.61
-218.7
-310.66
-272.81
-86.73
118.24
206.56
203.3
205.7
158.68
151.06
269.66
279.68
59.65
-130.12
-109.23
-107.24
-143.6
-145.44
-59.033
41.767
72.075
-57.732
-162.37
-275.44
-386.25
-268.46
69.543
258.68
157.81
98.854
203.57
378.15
247.49
-34.488
-239.01
-233.55
-24.501
130.63
87.523
-53.901
-13.862
47.133
8.7244
2.9538
18.548
38.629
59.967
66.269
65.396
-55.568
-171.57
-410.21
-567.25
-95.703
146.5
103.86
93.452
92.128
41.912
59.173
50.304
48.542
67.023
31.546
19.222
59.596
128.84
56.545
-77.362
-58.309
-87.881
-176.25
-127.79
-2.0369
52.517
35.783
-22.724
-9.4102
122.18
185.83
65.193
-19.145
-109.28
-151
-9.9105
66.106
50.691
6.78
-53.979
60.993
217.85
174.09
23.39
-139.96
-130.45
8.4812
44.748
22.393
-25.184
-58.31
48.18
314.3
211.82
-78.974
-176.01
-176.95
-107.47
-39.314
-39.418
-139.82
-147.12
6.3243
106.32
165.37
135
-43.822
-71.534
17.991
-6.5149
-30.107
-63.53
-43.612
45.254
39.073
-10.71
57.439
71.188
17.47
-4.7572
-45.213
-140.73
-103.45
22.317
40.536
-8.4112
-70.934
-93.007
53.473
183.66
106.85
-13.744
-121.75
-85.446
83.112
112.73
75.456
-6.808
-124.42
-23.017
212.78
189.1
57.233
-86.913
-137.22
10.238
89.153
-14.44
-135.7
-198.55
-103.65
49.004
104.67
80.355
-5.7496
-40.009
20.795
46.876
35.628
-18.926
-98.552
-24.64
51.221
60.033
94.769
17.584
-71.936
8.673
0.59085
17.462
16.378
-74.141
-41.216
-45.37
-101.41
-28.078
39.752
55.299
82.842
55.87
-91.679
-89.201
82.184
68.839
-16.279
-77.842
-75.82
62.195
101.83
1.7621
-48.337
-83.905
-81.197
48.81
23.726
-49.646
-89.206
-154.39
-61.403
165.97
175.39
31.621
-59.153
-103.77
-32.355
-9.0668
-70.999
-113.43
-198.49
9.8839
299.11
159.06
26.501
-66.316
-51.97
36.95
37.407
-5.7583
12.153
-27.962
18.517
129.44
141.29
96.02
-24.175
-52.63
-0.27353
-43.947
-77.039
-57.356
-94.529
-56.43
4.5231
76.6
169.72
152.81
90.343
-21.997
-53.936
-30.904
-12.734
-51.986
-109.17
-119.63
-124.1
-138.18
-54.065
131.21
163.99
98.246
16.035
-56.722
-2.0027
80.514
73.133
-17.403
-102.64
-29.313
174.12
99.162
-37.377
-92.52
-117.93
-45.821
6.3803
-18.268
-77.987
-139.81
-69.672
171.14
226.62
115.68
-2.8598
-106.52
-12.465
70.928
-11.789
-79.449
-149.78
-87.838
93.054
163.39
114.02
-36.426
-140.3
-20.264
58.233
20.02
-48.503
-113.81
-25.333
83.405
133.88
170.98
67.767
-95.606
-49.525
32.006
3.5048
-34.499
-99.121
-93.008
-40.245
-36.663
15.267
84.975
64.223
16.554
-14.823
-38.241
-62.962
-12.035
80.154
74.23
-11.448
-43.621
57.299
131.22
9.4863
-95.681
-122.03
-134.06
-18.167
97.097
62.742
-21.659
-112.7
-94.954
127.93
224.6
96.199
-48.828
-134.18
-39.162
59.856
46.839
-0.061459
-89.769
-130.59
56.855
213.97
66.191
-89.186
-100.75
-24.047
3.8494
-1.428
-41.334
-108.63
-110.39
45.077
159.72
189.19
84.711
-60.533
-21.29
10.3
-53.496
-86.152
-88.496
-10.002
49.076
63.292
104.33
67.652
-13.519
-66.635
-71.858
-47.589
-80.23
-135.96
-72.024
-10.557
55.073
128.4
65.936
5.9737
5.2418
-29.035
-26.175
-5.1947
23.324
41.435
44.337
-0.38904
11.385
146.5
215.26
143.02
107.47
42.851
48.785
-41.919
-206.03
-202.92
-282.93
-316.09
-155.33
-82.353
-0.11986
124.23
72.35
-17.831
44.762
74.983
10.85
-40.785
-126.69
-56.241
133.27
385.36
342.84
-16.78
-165.94
-107.57
54.696
59.304
-29.943
-83.77
-120.82
-98.008
72.599
213.88
162.72
-11.849
-68.399
-37.406
-122.19
-143.42
-96.087
-103.58
-70.012
-38.717
-7.3591
117.1
110.29
59.96
102.51
75.695
-32.211
-31.065
5.3663
21.304
-45.257
-102.9
-117.23
-8.1696
176.63
97.633
-83.571
-175.17
-154.02
24.294
99.057
35.815
-45.081
-83.502
30.796
270.23
242.08
69.766
-64.475
-77.237
124.57
102.36
-39.37
-67.106
-139.92
37.762
271.24
83.298
-99.025
-177.28
-153.07
2.533
58.41
-28.938
-77.923
-146.03
-48.242
58.26
83.845
123.67
47.05
-29.832
-5.6766
-9.4443
-55.865
-89.188
-89.534
8.2868
75.546
24.062
58.56
40.929
-29.409
20.84
-4.023
-86.325
-90.19
-32.386
35.497
44.131
33.108
47.627
78.912
57.844
-47.457
-88.242
-121.61
-119.99
10.881
55.601
17.455
-34.708
-77.023
20.156
184.18
135.33
16.785
-92.876
-176.17
-56.031
65.336
44.681
-6.6352
-80.677
-25.241
191.01
189.24
71.176
-89.413
-175.57
13.019
40.109
-13.981
-16.121
-17.045
41.933
36.837
-49.877
-34.058
-19.637
-25.661
28.492
6.7406
35.835
75.295
41.289
90.747
143.96
-12.786
-362.96
-325
-2.3832
79.295
53.185
-27.156
-59.783
-96.272
-28.4
75.201
156.1
206.15
147.17
9.327
54.763
76.971
27.387
-38.35
-53.7
-18.804
-19.786
-13.909
-21.884
-67.307
-76.515
-40.121
-94.535
-105.03
-10.477
-91.36
-29.432
136.05
132.7
194.57
132.75
30.684
39.05
-84.387
-171.4
-129.74
-44.872
34.669
17.961
-92.022
-142.9
-102.11
60.308
213.07
113.99
-84.363
-190.85
-70.682
116.42
48.708
-79.543
-202.84
-171.52
25.967
285.46
342.36
151.5
-93.241
-162.16
38.088
165.65
72.898
-134.21
-205.76
-74.122
189.81
286.58
160.82
-49.12
-113.75
63.894
108.28
6.7093
-89.376
-165.47
-76.443
159.42
300.55
154.21
-135.19
-169.55
-51.648
-49.266
-57.901
-94.919
-128.56
-12.755
30.888
-23.48
15.488
58.638
68.786
130.66
102.19
-35.058
-126.36
-110.79
-105.01
-118.75
-131
-118.86
23.017
163.98
121.44
58.133
20.477
-44.499
17.048
84.175
-16.02
-76.119
-140.69
-118.04
126.39
213.4
67.944
-21.855
-107.81
-11.079
97.772
11.99
-107.63
-163.75
-82.335
185.17
299.12
153.39
-4.4494
-144.9
-132.75
-5.958
-14.436
-25.68
-71.746
-91.52
37.316
104.68
98.011
58.936
-88.195
-72.783
46.944
-26.142
-29.39
-40.615
-127.24
-49.048
116.36
222
162.82
32.807
-60.501
-38.062
-24.374
-40.381
-108.99
-82.273
14.323
41.948
108.29
120.13
19.17
-21.995
-33.717
-93.674
-180
-109.93
-25.566
-10.872
50.791
15.156
-22.539
99.387
109.03
28.109
48.358
-63.489
-187.93
-15.389
-4.6735
-162.44
-181.9
-126.36
-5.5359
218.36
233.19
74.846
-21.385
-129.64
-9.4634
77.971
-52.856
-131.87
-145.43
-69.504
176.7
234.09
114.76
11.427
-82.363
26.892
135.2
55.461
-56.138
-142.66
-152.45
-7.2055
163.49
224.44
87.596
-59.777
-27.244
-77.594
-75.474
-73.887
-140.6
-51.036
96.782
106.41
162.02
182.12
55.168
15.576
23.129
-64.481
-142.37
-120.67
-73.704
-81.67
-125.61
-131.93
-47.2
199.08
259.38
170.17
30.676
-165.3
-138.04
46.097
69.928
-19.308
-68.025
-81.193
65.118
179.17
51.142
-67.622
-221.68
-209.74
33.139
80.593
2.1003
-56.335
-66.45
16.133
166.12
211.14
148.46
30.261
-78.449
-31.84
16.36
0.8792
-115.28
-189.76
-94.837
12.194
77.899
109.29
69.37
77.576
114.88
62.238
-31.018
-174.66
-217.11
-93.935
2.9954
112.11
187.67
153.42
50.376
21.807
-13.933
-75.245
-117.83
-108.73
-25.144
-11.981
-106.42
0.18489
145.49
114.14
78.492
26.074
-79.184
-104.71
-3.3144
-3.5218
-64.178
-94.128
-91.375
72.914
254.67
157.43
81.426
-22.024
-136.25
-21.013
49.134
-61.583
-154.2
-190.82
-76.314
174.56
195.59
63.265
-58.877
-179.46
-66.411
57.893
36.102
-48.96
-136.36
-101.83
70.889
245.25
240.68
48.365
-117.11
11.8
75.511
-2.3887
-33.386
-148.85
-135.36
54.13
169.11
136.35
18.367
-78.129
-7.6303
-6.9021
-42.098
-53.018
-133.65
-94.611
26.441
84.985
122.81
90.665
-30.918
-60.354
-45.035
-90.087
-117.03
-72.433
8.8045
38.8
28.004
20.743
61.489
113.67
103.84
39.332
-64.146
-184.2
-70.459
83.034
25.885
-65.5
-126.53
-66.665
150.2
227.48
154.94
35.402
-136.6
-87.939
118.89
105.93
-66.659
-156.37
-154.98
30.231
280.12
233.71
36.505
-148.72
-231.54
-14.756
168.87
73.067
-138.21
-183.12
-16.402
174.08
183.2
-26.056
-262.01
-222.38
-93.587
-20.051
29.155
-108.65
-236.99
-110.18
39.094
182.67
237.44
83.815
29.338
36.232
-117.71
-139.63
-103.1
-49.091
111.3
141.73
64.691
175.58
196.53
107.73
98.819
77.375
-37.085
-89.79
-27.102
-17.423
-67.709
-110.77
-121.48
6.037
73.968
-19.243
-77.48
-179.02
-217.67
-26.503
52.448
-26.29
-74.276
10.22
207.23
273.62
128.42
-17.503
-147.02
-191.51
-5.6021
127.58
44.676
-53.748
-130.23
-34.461
216.17
316.1
169.8
-41.09
-197.31
-87.94
38.507
22.719
-62.921
-171.09
-126.86
9.6237
137.7
203.79
77.691
-126.49
-43.806
98.446
21.299
-72.063
-178.14
-144.36
-18.051
-24.631
108.85
240.45
157.73
111.43
78.169
-23.222
-109.7
-160.23
-91.721
24.776
19.011
-33.378
27.532
51.018
61.099
74.312
-17.153
-123.06
-138.38
-79.966
-64.291
-52.378
-69.943
-71.826
80.523
154.77
72.719
10.314
-77.709
-128.69
35.161
106.58
9.816
-71.104
-24.121
199.86
258.01
141.81
-13.578
-187.77
-247.24
-94.937
-39.24
-120.99
-208.7
-239.49
-69.663
285.47
418.86
290.78
55.382
-107.97
8.2776
46.669
5.1959
-105.37
-181.74
-70.866
88.197
185.08
129.09
-49.253
-121.83
-37.121
15.629
2.7577
42.295
84.736
141.16
66.482
-50.849
-85.34
-142.42
-111.12
8.5659
-42.413
-55.715
-156.07
-182.54
17.156
155.06
342.58
337.13
-26.717
-136.8
3.6949
-43.591
-168.06
-145.61
-35.234
42.994
38.759
-15.668
-72.81
-13.553
93.913
8.0915
-130.95
-150.65
-161.58
-20.343
173.23
173.12
80.886
-34.097
-95.595
85.191
303.33
245.18
133.15
-32.298
-206.91
-175.12
-60.903
-69.043
-202.57
-266.96
-157.53
99.153
281.3
204.41
9.2889
-79.601
41.312
91.699
86.593
-2.8821
-134.81
-66.705
-5.1199
48.942
271.27
298.8
35.693
-88.084
-125.75
-105.37
-29.862
-36.63
-77.989
-72.213
-21.069
11.413
25.641
46.969
42.189
-65.349
-89.449
14.33
68.05
24.682
-65.613
-65.925
-53.659
23.025
63.747
-9.0262
-45.746
-35.18
-41.235
57.679
97.824
-39.269
-78.915
-93.008
-52.783
161.65
214.08
116.71
11.159
-145.49
-145.23
18.684
39.139
-75.901
-179.17
-192.64
36.226
315.15
254.79
88.995
-103.86
-156.02
56.722
61.711
-78.544
-185.6
-190.33
-21.712
231.03
292.6
153.07
-13.239
-107.63
-38.11
-3.6183
-4.8114
-83.346
-187.39
-76.825
48.986
133.34
144.56
6.6201
-37.68
45.12
13.184
-54.936
-54.588
-128.04
-116.77
-72.722
-158.11
-0.27128
156.67
134
119.51
100.25
43.469
-34.841
-52.461
-29.651
-74.606
-126.37
25.632
221.57
219.64
140.25
23.799
-105.66
-193.83
-89.976
48.12
-13.564
-131.13
-147.52
7.9274
183.06
155.82
19.63
-37.478
-108.71
-80.296
91.23
105.77
-31.973
-128.81
-211.14
-46.907
209
164.07
48.194
-111.49
-131.96
103.11
111.09
-33.558
-149.29
-212.99
-87.784
201.89
253.73
84.547
-51.29
-142.35
-5.1719
146.3
69.802
-141.22
-238.32
-93.457
167.57
302.27
169.33
-51.42
-171.5
-72.826
25.142
33.417
-17.121
-191.28
-220.43
-23.639
56.079
13.479
-31.033
-10.248
72.586
58.583
3.4473
-11.991
-11.023
-27.633
9.6899
-68.467
-92.783
61.782
155.05
186.81
102.67
-6.9671
-77.139
-110.27
33.471
130.94
94.686
60.081
38.836
52.141
104.53
99.357
-5.2946
-154.95
-162.55
-44.92
-25.391
-70.222
-121.09
-177.28
-59.8
136.86
158.43
63.929
-132.38
-180.42
39.102
95.764
-35.524
-135.99
-223.25
-166.5
113.29
273.94
193.13
-6.1447
-160.07
26.993
168.78
103.81
-17.107
-119.1
-16.343
174.81
183.34
114.82
33.61
-122.22
-153.8
-81.128
-59.224
-85.5
-203.56
-108.72
63.765
51.46
62.591
57.395
-39.466
13.053
89.024
-24.832
-65.873
-15.066
2.1229
95.555
137.31
163.88
119.24
20.868
22.552
-44.621
-105.26
-68.625
-115.95
-52.668
110.64
101.6
76.993
59.062
-114.31
-128.07
-64.853
-36.338
-23.543
6.4215
115.5
91.413
15.603
3.2794
-15.458
-35.875
6.8444
-0.77701
8.9825
64.828
77.026
-1.8671
-117.51
-336.71
-479.9
-146.47
92.222
79.053
44.456
52.021
23.241
31.274
-0.50793
43.71
138.32
30.56
-5.7077
140.62
286.98
318.74
225.53
69.819
15.591
-7.7383
-88.776
-149.57
-197.65
-190.38
-143.8
-8.6088
-48.824
-90.795
-137.56
-229.56
-101.43
85.622
146.33
133.81
75.729
85.307
150.94
126.57
3.5583
-161.37
-203.98
-107.25
39.779
21.307
14.391
19.384
49.825
217.58
254.71
91.048
-76.013
-208.97
-105.18
89.727
-19.066
-145.43
-175.53
-85.521
87.014
115.35
102.98
112.8
-51.637
-88.55
4.4312
9.4372
-27.699
-113.11
-114
-5.4711
42.623
114.37
172.24
34.698
-12.844
28.158
-6.9511
-69.926
-95.633
-5.8659
54.463
12.763
-40.343
-2.0745
55.641
85.212
15.756
-63.48
-114.49
-109.5
45.064
100.16
22.754
-44.322
-80.032
43.038
191.07
148.98
6.8192
-75.005
-131.37
-30.393
90.485
-24.153
-99.346
-126.25
8.4538
238.99
116.44
-98.558
-149.42
-178.75
-6.1938
174.44
119.32
-20.229
-105.4
-124.37
72.999
190.34
50.081
-127.54
-268.4
-184.82
68.114
76.149
-72.949
-155.8
-114.76
141.3
355.61
287.45
139.69
-68.798
-142.19
-50.047
-18.461
-71.612
-213.08
-216.26
14.295
283.74
341.43
227.79
16.969
-61.56
10.415
-4.3344
-78.506
-171.97
-243.23
-110.56
89.559
98.39
28.508
-63.306
-22.611
80.574
89.036
19.016
-92.819
-101.05
21.71
80.962
130.79
170.54
40.526
-32.636
25.693
-51.459
-115.16
-110.92
-127.11
-40.254
36.195
113.6
189.1
55.677
-23.516
0.12929
-32.426
-139.87
-176.77
-38.904
82.036
5.0659
-67.638
-91.992
6.7083
145.73
112.08
58.16
-20.309
-179.36
-92.601
122.15
81.077
-16.606
-94.956
-124.82
116.39
248.07
127.4
2.113
-176.38
-197.79
-0.095766
21.529
-83.07
-135.64
-35.684
174.28
223.6
105.93
-25.57
-156.94
-139.51
43.887
54.432
-8.4916
-115.06
-204.33
-47.608
212.64
246.72
138.56
-22.855
-94.938
0.14398
8.8735
-25.11
-105.86
-172.69
-16.9
122.71
162.78
164.41
24.776
-53.877
7.5156
-7.3036
-30.313
-65.974
-150.9
-96.958
81.519
260.54
141.79
-132.86
-167.24
-67.789
-101.18
-82.589
-72.498
-66.094
39.03
63.649
77.963
340.37
377.17
138.6
40.677
12.161
-56.98
-170.74
-146.92
-17.946
-46.917
-79.527
-148.93
-147.38
51.857
72.259
-46.237
-133.88
-180.55
-24.349
162.68
108.86
1.0997
-59.853
-120.43
56.046
213.25
133.32
17.529
-165.27
-237.03
-15.791
108.11
1.8894
-86.348
-101.7
70.567
257.33
146.37
12.619
-129.45
-189.97
-27.785
71.057
42.598
-39.003
-109.13
-11.675
170.94
202.42
96.381
-62.03
-103.6
5.3086
28.789
-8.4603
-93.146
-165.74
-6.6571
154.87
167.34
167.35
59.887
-50.408
-3.7314
14.372
-5.0729
-19.727
-85.235
-54.578
65.682
16.273
5.1382
-16.304
-169.24
-117.41
-46.667
-79.028
-70.491
-33.916
4.1927
14.033
-11.734
-3.0572
82.479
147.92
69.115
3.547
-78.05
-192.49
-59.795
89.279
54.482
-3.1042
-29.057
45.19
258.39
257.09
81.457
-73.405
-246.84
-184.09
20.074
17.822
-64.804
-110.75
-151.42
2.6802
202.22
131.33
-12.072
-137.7
-93.347
103.82
119.81
-27.691
-145.03
-130.12
90.432
301.02
182.09
-5.0416
-171.79
-179.21
1.9739
53.037
-2.0116
-131.64
-161.83
89.884
274.9
205.46
42.52
-158.77
-158.83
-23.882
22.265
2.1132
-59.738
-133.03
46.94
273.31
242.69
133.75
3.1698
-43.424
-7.5644
-91.915
-122.26
-125.84
-143.57
-28.335
54.542
31.16
74.382
23.509
-42.731
35.107
35.461
-14.659
-33.249
-6.7544
4.2056
-19.507
-57.954
-84.821
39.479
195.49
150.02
49.807
-86.005
-233.94
-93.886
70.721
-3.0772
-69.155
-122.71
-65.028
147.18
123.46
-44.536
-148.08
-104.64
100.07
133.92
56.616
75.485
37.331
-5.8355
58.97
-18.161
-71.825
-70.985
-58.225
-9.3789
19.543
31.583
35.613
-20.715
3.0596
76.417
72.125
-2.7147
-66
-77.015
-17.652
49.021
13.972
8.9708
-7.4124
-87.161
-32.83
2.2601
-17.834
48.134
47.628
48.834
52.645
-22.032
-45.107
-81.344
-77.156
41.055
38.762
35.905
120.73
35.801
-74.74
-61.15
-80.759
-109.4
-43.536
18.71
8.9236
-14.191
-34.714
-40.734
65.194
175.63
112.43
28.675
-69.11
-135.94
-4.5611
90.917
12.459
-96.182
-170.44
-39.412
252.07
317.25
207.16
103.55
-103.36
-184.52
-41.991
-30.265
-149.94
-216.14
-183
22.594
277.26
273.77
126.14
-69.299
-193.51
-26.455
74.993
11.623
-144.55
-257.17
-124.38
148.48
259.04
149.52
-33.32
-76.513
6.7926
3.5555
-21.403
-139.94
-252.52
-177.32
-15.798
181.49
274.26
164.18
45.819
63.054
59.206
0.72088
-61.346
-78.006
19.461
103.56
77.273
50.528
47.312
-19.355
9.3251
46.595
-65.693
-184.11
-121.28
-7.1859
18.294
-24.698
-192.45
-316.47
-114.59
129.33
132.68
73.837
32.686
67.062
110.87
39.927
-1.5724
-20.85
-6.1023
91.762
89.931
-60.741
-51.682
-47.944
-32.374
39.579
-23.21
-60.809
-48.863
-40.293
22.27
87.663
51.506
-55.324
-74.191
-59.374
62.613
85.612
55.877
38.131
-7.4631
31.498
59.724
31.949
28.158
-93.946
-126.87
-20.533
0.76363
-50.818
-14.1
-51.089
2.5147
83.87
79.697
90.622
57.825
-62.152
-60.901
21.236
43.528
-20.237
-154.49
-170.23
-7.7791
48.793
89.606
187.65
144.98
51.576
17.026
-91.164
-116.35
-131.38
-184.69
-87.821
-13.1
28.949
179.53
144.19
82.072
136.56
91.508
-35.979
-104.34
-104.81
-75.777
-75.065
-122.33
-93.399
44.069
120.06
63.923
-11.056
-141.37
-216.94
-14.896
120.81
65.509
-30.728
-78.337
47.512
287.22
306.28
194.1
78.906
-113.43
-104.01
28.206
-0.67481
-137.86
-225.75
-252.35
-95.686
164.76
182.83
58.001
-88.113
-107.64
103.45
157.52
18.459
-125.58
-230.06
-166.72
115.44
221.95
190.81
39.766
-122.84
-53.52
10.491
-23.246
-143.69
-206.79
-66.131
126.61
245.16
231.87
50.41
-99.734
-73.91
-36.671
29.243
-30.97
-179.56
-65.807
51.913
54.623
118.96
14.418
-111.03
-12.416
73.19
51.265
18.861
-63.892
-38.029
80.933
44.018
34.397
38.414
-28.473
-20.612
-2.3099
-41.123
-69.74
-96.645
18.931
131.14
16.612
-37.704
35.13
5.3293
3.4569
28.099
-18.423
-48.581
-5.2059
75.001
113.14
28.858
-70.336
-64.037
20.354
107.99
70.155
6.5386
-154.89
-256.34
-107.56
2.0442
-6.9565
-55.176
-128.13
4.1569
228.62
217.58
110.7
-73.938
-160.43
26.95
106.38
-31.385
-109.92
-133.02
-3.0265
240.29
255.89
153.5
-10.511
-183.97
-85.068
38.565
-61.137
-192.47
-184.08
-51.662
133.82
214.29
150.83
25.778
-104.87
-23.465
19.499
-27.773
-125.35
-217.78
-74.18
122.83
171.65
172.78
33.979
-84.456
3.74
13.668
-60.511
-93.521
-157.13
-31.601
161.79
175.47
160.37
70.706
-60.476
-48.391
-81.209
-93.987
-70.479
-148.18
-47.429
130.92
132.34
122.3
124.61
39.293
38.858
8.4865
-105.27
-116.05
-104.23
-97.304
3.7654
4.9073
-107.28
-18.871
76.36
83.265
48.825
-25.395
-139.39
-131.53
-12.238
-25.998
-77.768
27.307
60.687
75.494
125.99
28.091
-54.682
-82.838
-66.361
118.47
215.99
-4.8003
-62.967
85.995
157.26
87.933
-45.103
-104.2
-197.81
-129.19
148.72
190.86
43.829
-158.41
-215.69
39.137
82.88
-4.6381
-42.104
-118.57
-80.04
64.384
77.06
10.365
28.546
86.375
123.5
17.669
-70.844
-13.649
-28.182
-94.397
6.619
39.647
3.7696
-84.274
-41.638
39.482
53.686
49.429
-21.881
-121.73
-63.721
27.938
-4.8911
-20.657
-75.406
-153.21
25.611
142.46
123.46
222.68
101.89
-71.911
-53.189
-26.295
-48.891
12.227
-27.896
-46.013
46.036
1.8624
-22.939
69.542
100.1
181.23
39.785
-84.327
-27.883
4.5529
-22.072
-31.949
31.564
-38.861
-118.08
23.38
49.113
-130.81
-106.69
-47.997
-1.6124
130.24
35.268
-5.5646
110.78
4.7823
-71.854
68.943
17.007
-105.89
-153.48
-66.858
28.473
60.554
30.66
-50.077
2.0449
68.834
91.33
-0.088153
-114.77
-152.99
-92.275
65.541
158.41
39.496
-204.72
-263.13
-64.99
228.82
412.99
267.5
7.9071
-150.54
-98.984
78.461
85.754
-77.054
-226.47
-150.16
37.295
168.3
175.33
11.28
-129.03
-63.658
-29.653
10.08
12.88
-108.26
-86.673
30.829
92.672
222.62
268.04
102.38
28.3
3.0254
-101.91
-132.28
-30.19
81.881
75.026
-31.829
-131.12
-76.141
49.551
19.244
-64.995
-109.1
-224.6
-161.64
62.711
54.26
-60.857
-149.05
-138.55
73.187
344.76
304.55
139.12
-56.793
-254.15
-131.15
87.851
27.498
-133.72
-182.68
-79.917
176.84
252.72
85.974
-78.966
-247.19
-169.89
82.412
75.053
-104.79
-183.32
-90.84
198.28
353.94
221.65
88.762
2.685
-21.122
37.092
3.5352
-166.91
-229.9
-136.05
103.21
176.98
83.37
-65.3
-123.81
62.979
103.89
-0.67895
-22.289
12.303
67.627
42.021
-31.318
-57.424
-109.73
-95.278
-49.041
-72.393
52.066
50.099
-7.8968
117.58
155.74
63.933
-50.263
4.4467
-43.969
-22.509
-36.008
-54.923
-57.939
25.678
75.823
50.237
-46.61
-141.17
-57.692
105.24
107.53
-8.0989
-32.252
-128.6
-102.03
136.77
177.67
4.4898
-133.76
-163.42
-17.176
206.95
168.9
24.906
-95.949
-191.17
-33.939
171.31
87.318
-159.78
-267.94
-175.4
59.36
209.86
130.43
-11.949
-110
-26.521
139.68
146.24
-21.272
-178.37
-101.98
120.05
234.55
105.92
-149.34
-159.92
-43.462
-99.216
24.97
33.661
-181.69
-175.11
45.948
183.41
255.08
87.984
-60.737
-0.82789
-18.534
19.878
15.537
-112.86
-41.537
79.545
72.207
176.84
154.39
-34.248
-6.0249
-23.015
-104.78
-39.573
-95.784
-145.46
-91.475
-37.412
116.71
198.78
73.142
23.635
48.767
10.58
-28.787
39.74
115
71.526
-20.933
-65.312
-103.08
-13.886
50.441
-28.918
-88.771
-180.83
-208.32
21.945
151.42
44.074
-51.858
-162.11
-131.68
119.7
224.26
140.66
12.385
-143.98
5.7038
167.87
72.514
-68.203
-191.84
-197.73
18.889
90.646
-32.926
-99.766
-14.201
193.87
165.84
-5.9366
-51.499
-67.3
70.595
288.02
138.31
-50.537
-123.94
-205.28
-132.28
-36.931
37.606
-33.036
-136
-52.039
16.278
58.657
163.93
98.227
-45.032
-4.6232
-91.689
-126.46
-54.912
-135.85
-13.287
107.69
80.078
150.43
112.84
-7.4319
91.402
76.192
14.097
-28.88
-114.29
-82.365
-0.37015
82.571
136.29
70.351
-14.205
-65.062
-81.71
-185.54
-270.74
-63.705
150.27
117.53
93.51
58.668
-45.055
67.625
163.15
60.045
-49.196
-174.28
-124.35
97.906
74.322
-90.538
-126.27
-47.659
150.17
206.45
1.7667
-82.443
-126.91
-175.25
25.9
135.24
-10.499
-160.79
-212.07
-110.11
82.288
151.1
61.797
-56.25
-70.182
84.1
177.77
85.126
-99.537
-197.43
-84.648
218.61
426.52
274.75
-61.173
-127.46
-55.715
-121.47
-66.052
-75.355
-210.99
-127.91
-21.958
78.16
197.2
49.519
-66.085
-18.401
-58.659
5.0281
-6.6283
-91.658
-10.801
138.32
122.9
121.68
191.81
115.16
100.71
27.525
-147.85
-216.71
-119.98
-44.423
-32.638
-80.897
-78.238
54.039
98.805
74.819
92.374
-42.5
-115.96
49.237
124.08
12.1
-35.534
-85.418
-53.303
130.66
74.39
-39.58
-135.06
-178.27
88.335
167.06
44.194
-80.525
-265.93
-285.91
-20.578
186.42
136.95
70.865
-24.711
-8.4754
142.6
161.12
-0.2626
-162.88
-159.54
15.892
168.52
105.31
-34.286
-109.47
-53.6
103.1
106.64
4.7744
-137.09
-171.45
4.5449
160.14
133.01
-6.813
-180.12
-84.464
44.393
18.413
22.897
-118.55
-155.99
31.703
98.834
104.74
127.19
-3.6925
-51.776
54.737
38.976
-42.141
-43.371
-21.391
-22.617
49.109
35.86
-37.287
-53.374
-32.744
7.1924
59.486
-0.29041
-158.25
-101.62
28.934
85.049
186.97
97.807
-2.2337
108.39
106.74
-41.346
-46.674
-26.187
-25.682
-52.046
-69.715
-161.85
-288.99
-129.37
55.606
204.57
252.99
-9.276
-85.425
22.404
-0.055463
7.0538
-7.0164
-92.125
-8.7348
44.432
78.608
172.04
85.534
-114.22
-20.13
177.51
106.49
-124.99
-326.2
-286.45
-99.079
134.54
201.74
-4.7217
-139.56
7.4218
140.09
122.21
6.9776
-184.32
-194.67
-76.796
45.371
207.83
130.18
-16.11
33.107
44.386
21.442
13.638
-81.646
-14.247
124.04
134.82
188.88
152.15
-26.487
-27.817
-56.318
-163.23
-115.65
-68.457
-9.5295
45.978
-11.896
6.4761
78.642
59.939
104.35
113.15
-61.847
-356.75
-306.79
-30.995
56.174
-65.306
-114.48
26.369
200.18
235.53
127.98
-3.4093
-148.11
-114.17
104.58
122.36
0.79761
-89.977
-146.22
9.3593
116.4
-23.643
-82.731
-99.044
-37.782
180.78
196.9
-8.4893
-152.27
-192.39
-29.953
220.34
170.64
-61.012
-193.54
-144.2
117.62
204.88
91.65
-116.02
-213.72
-99.685
184.42
300.27
118.43
-78.964
-73.593
-3.77
24.566
-13.655
-167.93
-181.88
-20.43
42.045
51.588
39.157
-96.424
-128.12
26.583
76.096
119.71
27.847
-102.52
-0.75553
104.96
134.76
150.99
-19.558
-94.207
-10.938
-83.816
-141.63
-79.3
-42.078
41.6
110.4
48.025
72.265
91.477
-11.432
-34.937
-45.016
-190.93
-210.57
-13.449
90.567
68.699
37.438
-22.684
65.695
188.86
132.43
83.107
-12.734
-117.09
4.7927
116.82
-35.694
-153.26
-214.86
-182.24
86.409
160.93
27.852
-93.626
-217.03
-86.407
188.73
184.6
2.4583
-146.62
-181.68
50.063
216.66
134.21
55.011
-73.858
3.4383
152.84
122.76
-35.558
-201.19
-130.35
12.118
85.851
86.033
-75.552
-231.26
-133.79
-23.466
47.622
42.155
-98.114
-34.37
124.64
176.09
208.03
42.653
-138.53
-37.632
3.8054
-16.303
5.1156
-76.163
-76.182
55.248
61.326
136
172.4
8.5793
-21.413
-38.617
-145.6
-131.63
-113.95
-23.667
76.812
15.079
-48.427
41.912
89.486
134.8
107.24
-10.898
-75.633
-3.4872
93.8
18.404
-34.634
-97.456
-245.69
-71.888
68.678
56.487
21.74
-54.509
24.902
110.51
13.879
-56.495
18.13
88.094
38.98
-12.257
-54.319
-47.251
-100.74
-29.635
164.15
200.5
-41.064
-207.61
-136.26
26.74
59.856
56.913
73.761
-34.062
20.034
152
66.59
-2.8961
-90.424
-189.05
-35.809
132.9
70.581
-44.809
-152.44
-131.85
-105.18
10.749
73.118
-55.232
-140.39
33.857
109.15
108.67
53.101
-131.2
-64.249
56.765
5.5935
74.655
35.06
-38.609
39.289
55.467
20.369
81.75
21.806
58.393
172.83
-10.323
-137.91
-95.53
-69.574
-37.022
-36.113
-108.79
-23.902
78.964
75.616
111.13
42.528
-122.53
-44.865
110.83
73.217
-21.193
-103.89
-90.651
44.984
55.788
4.0934
-64.183
-211.88
-178.93
74.592
199.88
101.52
-12.902
-31.958
151.07
337.63
232.69
62.555
-153.66
-305.13
-130.43
67.3
-20.718
-177.27
-260.01
-172.18
89.585
159.91
73.565
-19.317
-79.583
120.68
229.69
78.731
-100.4
-208.45
-151.66
94.677
227.67
108.96
-75.376
-167.08
-23.749
118.87
85.643
-88.93
-163.92
-36.119
96.865
186.83
132.97
-54.634
-94.414
55.36
122.76
141.57
28.378
-114.37
-27.841
28.077
60.446
87.342
-86.735
-136.13
-13.987
-95.847
-156.58
-63.321
-22.312
58.849
48.854
39.685
151.71
145.44
7.6818
-43.876
-80.883
-223.27
-195.1
55.683
123.04
13.191
-101.24
-95.938
115.44
292.5
179.38
23.882
-67.436
-232.63
-187.57
76.951
78.426
-84.968
-188.56
-129.61
117.58
258.92
130
-28.263
-147.91
-41.153
141.57
119.11
-38.366
-184.95
-143.3
88.348
208.05
118.59
-78.155
-163.75
-65.726
-44.373
13.701
-12.857
-136.16
-77.546
77.738
159.37
225.71
112.62
-32.957
27.54
-42.132
-157.85
-125.75
-119.14
-37.565
28.09
42.373
131.74
184.27
119.09
119.3
87.292
-117.75
-201.92
-68.366
-18.953
-72.596
-111.97
-136.28
-11.678
180.59
133.78
7.4489
-110.91
-234.04
-107.25
103.2
14.092
-121.33
-150.09
-48.819
231.66
315.53
187.3
37.756
-200.2
-203.86
26.08
87.333
-4.1735
-82.609
-57.491
156.83
260.85
158.07
17.838
-118.4
-36.226
66.577
73.467
17.762
-137.84
-139.79
8.1031
138.48
200.83
55.971
-68.253
-0.46386
-37.27
-31.581
14.287
-30.492
48.588
34.244
-124.11
-88.783
-20.769
-93.85
-57.793
-65.258
-186.76
-126.71
16.068
93.915
86.136
18.091
-65.033
42.551
167.98
133.53
68.443
-57.192
-225.23
-104.56
119.67
47.367
-53.202
-99.832
-59.634
173.1
196.6
38.722
-79.001
-220.71
-114.99
121.4
84.767
-78.087
-168.85
-100.31
168.21
278.98
129.5
12.481
-122.48
-67.923
94.58
55.622
-100.38
-231.79
-167.51
56.864
196.86
142.77
-9.3288
-37.47
102.39
161.6
107.15
4.3012
-158.91
-139.07
-75.22
-98.919
-32.097
-39.573
6.0985
168.78
132.51
-10.526
-5.6414
129.9
150.86
35.159
-107.51
-75.106
8.5641
-10.149
8.7947
7.5068
-130.25
-168.32
18.844
82.571
-40.53
-165.97
-292.78
-155.14
92.625
133.84
142.63
57.242
-111.69
18.197
229.96
107.07
-88.744
-209.13
-166.57
86.904
165.25
84.666
-43.779
-178.41
-78.972
158.41
155.76
-60.114
-183.08
-98.367
164.79
251.57
156.13
18.982
-68.891
59.953
107.55
-33.471
-176.07
-249.66
-166.01
102.5
221.49
114.24
-21.603
-49.013
36.023
45.248
11.823
-133.5
-228.61
-71.305
112.47
180.36
163.4
37.229
20.263
129.55
-31.996
-218.48
-200.26
-199.46
-123.07
-53.757
70.386
156.59
113.7
155.24
227.13
36.864
-129.99
7.9997
130.39
17.582
-132.13
-190.96
-125.47
28.495
107.31
94.705
18.927
-194.18
-225.12
27.892
112.38
25.87
-39.805
-102.91
34.952
225.89
179.44
90.689
-54.125
-106.33
88.227
118.27
-58.058
-218.34
-327.91
-175.06
108.51
183.02
106.2
-19.562
-26.866
156.55
186
11.791
-177.12
-203.58
-38.444
69.947
51.872
-49.601
-43.123
40.649
36.287
30.01
-25.484
-109.99
-86.366
47.41
147.47
233.71
123.38
-34.635
53.279
45.172
-87.469
-53.174
42.495
105.8
41.506
-135.86
-154.25
-103.05
-121.51
-72.706
-70.672
-33.566
-7.3714
8.9577
135.05
69.334
-100.59
-111.62
-42.617
110.44
211.92
114.51
-44.956
-158.92
-72.344
159.62
180.7
-16.259
-169.91
-191.8
23.304
166.28
54.324
-117.96
-220.34
-61.72
170.15
188.92
32.434
-118.67
-55.908
135.46
218.72
174.38
0.75453
-81.361
27.929
72.878
72.585
-25.669
-175.52
-158.26
-110.69
-77.233
44.318
30.348
-24.46
51.41
52.523
-57.707
-103.96
-4.5994
31.06
-11.337
35.347
16.928
-12.376
-12.315
-13.645
-18.075
-20.533
4.7865
59.129
2.0669
-14.224
37.045
53.503
-4.944
21.871
35.946
-14.062
-40.703
-58.035
7.0374
68.721
59.301
-24.474
-23.208
113.84
130.55
-115.55
-265.38
-48.835
-32.671
20.846
78.509
15.714
-79.692
-56.554
15.092
11.568
30.495
95.841
-8.8924
-33.14
3.5766
-32.576
-28.627
-57.184
16.677
125.59
155.39
163.8
147.49
177.09
162.42
52.587
-110.74
-290.45
-406.32
-160.08
13.551
-66.052
-172.11
-276.21
-40.623
250.54
206.08
7.4295
-114.23
-196.81
-6.8537
195.2
105
-55.905
-123.7
-36.405
195.11
242.04
82.898
-78.002
-162.9
-43.776
112.96
62.004
-85.326
-69.354
126.56
251.39
251.85
115.61
-36.328
-86.529
-130.57
-105.15
-1.2503
-71.295
-136.22
-61.803
-56.655
38.203
92.422
-47.477
-60.532
-7.33
-69.74
-62.022
-4.084
103.24
186.98
103.14
-54.142
23.538
75.932
44.852
6.732
-71.108
-174.31
-120.44
86.351
113.52
80.099
60.018
101.04
62.083
-33.817
-15.912
-33.921
-107.25
-211.67
-122.71
117.05
196.48
-14.625
-171.77
-24.991
153.42
76.133
-34.586
-137.73
-78.35
66.98
-3.2978
-63.187
-96.411
-24.321
56.059
24.576
98.336
41.492
-98.45
-0.32164
29.916
-65.083
-39.433
-86.849
-61.227
8.2897
-65.504
-4.384
188.16
221.4
242.81
205.51
23.919
-95.786
-98.247
-67.21
-19.129
-91.349
-158.92
-91.531
21.957
83.331
51.446
-12.416
-185.95
-195.62
64.599
102.24
-10.634
-77.716
-55.319
165.76
247.4
52.021
-30.531
-108.76
-112.26
95.779
114.51
-61.118
-195.02
-203.69
-12.564
166.49
110.86
9.9832
-71.632
-35.85
114.98
124.17
-31.513
-205.98
-195
6.9497
190.52
198.31
54.538
-24.1
34.498
46.832
70.426
32.147
-113.22
-112.86
-32.389
-73.841
58.487
178.64
98.39
55.821
11.401
-185.9
-224.33
-91.965
-16.209
44.966
6.7275
-17.629
158.26
276.59
178.42
77.592
-58.73
-274.51
-166.6
39.939
-20.099
-91.362
-147.64
-94.406
174.95
256.15
125.82
-15.546
-171.39
-60.344
108.17
29.03
-79.077
-79.076
23.796
145.56
72.015
-94.878
-153.85
-112.07
77.897
181.92
110.22
-48.708
-197.05
-174.68
-19.364
105.59
113.53
-19.982
-4.7903
91.427
-64.117
-53.725
-31.184
-92.838
-27.895
130.85
96.672
-33.977
-42.459
28.475
98.018
14.462
-181.06
-133.31
32.746
65.785
-31.425
-89.933
0.11827
215.56
251.9
113.3
39.334
-118.62
-223.55
-26.571
117.58
-41.69
-219.79
-256.32
-176.93
46.956
208.65
118.59
-73.53
-110.48
31.026
145.84
21.354
-195.08
-208.55
32.287
310.09
359.48
158.58
-81.074
-98.382
-1.6828
55.807
87.884
41.793
45.915
30.646
-28.266
-15.355
-53.36
-226.31
-40.771
116.99
-109.05
-112.9
-96.522
-41.115
-29.616
-77.233
66.213
173.83
71.598
128.53
200.07
0.14854
-202.33
-98.761
23.131
-40.004
-150.14
-94.564
12.612
59.401
64.191
88.059
-17.423
-152.25
9.7244
144.84
21.286
-121
-160.59
57.48
376.13
372.91
150.16
-70.101
-254.37
-148.9
70.39
31.392
-146.86
-260.83
-202.22
46.001
245.7
179.39
-14.415
-118.92
51.078
201.68
107.57
-101.33
-279.51
-199.29
62.022
201.73
135.58
-13.968
-61.33
16.415
63.044
68.733
-9.1152
-136.05
-57.575
55.334
93.823
152.86
2.6069
-160.84
-85.088
-80.454
-136.61
-76.717
0.042617
57.562
41.084
-48.371
-53.9
133.7
250.36
157.12
71.938
-69.649
-262.13
-80.34
66.766
-59.56
-156.27
-155.31
-40.056
199.71
268.09
100.95
-43.143
-200.63
-182.5
51.052
81.881
-110.53
-218.28
-115.47
98.706
256.05
210.13
38.375
-139.92
-39.098
73.059
47.212
-118.72
-239.47
-7.4538
190.8
296.5
243.38
0.9414
-124.66
-13.632
-20.875
-70.396
-66.78
-173.38
-108.38
38.671
29.496
149.76
189.88
65.426
52.302
-35.05
-163.95
-173.46
-52.893
11.43
-28.856
-30.158
117.98
177.54
17.008
-61.275
-87.241
-166.03
-87.324
146.44
170.86
19.7
-119.57
-194.84
-50.817
118.27
67.376
-8.4533
-68.152
-5.7068
177.9
151.55
-51.178
-214.43
-201.21
-22.683
192.19
250.95
55.905
-127.07
-162.71
-9.5602
107.28
20.845
-140.71
-189.96
-20.471
206.36
267.77
96.85
-63.879
-56.178
9.0183
29.592
-26.567
-205.89
-177.72
-14.008
61.696
160.22
102.63
-46.577
-19.454
-15.794
-29.623
39.44
-45.027
-37.105
37.41
-28.973
33.003
103.76
41.822
142.47
132.58
-9.1219
-50.862
-14.117
35.45
-8.3887
-104.59
-219.04
-263.74
-111.65
16.193
16.254
-52.147
-41.335
148.85
253.1
84.036
-66.041
-146.45
-77.709
167.2
246.05
135.46
-55.569
-181.06
-48.245
57.37
-88.166
-216.21
-194.94
-34.748
209.22
297.47
142.28
-52.262
-160.25
28.401
169.32
83.543
-92.932
-224.11
-92.009
126.99
178.41
87.647
-103.9
-92.001
55.46
36.887
9.9386
-91.762
-184.38
-40.465
11.974
48.368
72.073
-24.583
56.32
133.8
-13.855
-69.085
-22.571
28.19
33.705
-73.173
-111.21
16.469
63.668
28.528
47.18
-36.91
-183.36
-66.294
59.343
15.879
-71.928
-156.81
-105.15
122.13
266.26
188.25
17.274
-102.49
-19.74
151.01
42.282
-151.83
-233.01
-195.07
65.602
264.76
178.61
-10.715
-113.6
63.304
182.79
32.468
-207.51
-315.55
-125.62
92.586
223.24
258.81
54.654
-78.297
93.479
95.142
-43.2
-140.2
-275.41
-159.57
-40.485
3.7882
189.32
124.18
-25.035
43.684
125.97
36.581
-108.98
-94.561
-26.444
-74.866
-131.62
94.87
92.057
-55.317
-64.57
-5.1119
-4.6875
-11.266
169.18
224.36
60.253
-69.999
41.676
125.42
87.327
-41.721
-137.95
-173.5
10.086
162.08
36.9
-132.49
-247.35
-258.16
-48.32
191.9
164.78
19.508
-115.21
-36.078
153.9
71.222
-139.18
-238.91
-202.76
20.293
248.63
214.22
62.481
-87.468
-4.0846
191.09
137.95
-88.005
-267.14
-148.76
49.033
75.95
83.953
38.674
9.5666
127.99
154.9
96.417
-44.428
-205.7
-119.78
-96.575
-118.75
93.971
127.52
58.523
115.28
52.138
-74.289
-69.313
0.69537
4.1427
-79.727
-165.85
-181.64
4.4552
125.69
84.14
33.917
-51.703
-60.961
125.18
162.64
-43.601
-204.38
-232.15
-50.59
186.76
175.96
23.941
-119.99
-173.56
45.538
203.98
87.481
-120.57
-197.99
-30.737
218.43
218.92
53.035
-56.032
71.159
227.75
128.94
-74.001
-291.99
-328.53
-149.51
-26.622
99.774
124.54
10.455
51.669
75.982
15.938
-44.693
-14.181
17.17
-60.953
-65.78
-20.348
13.993
127.77
172.95
107.19
-95.744
-199.38
-19.588
131.77
31.611
-112.36
-214.38
-163.85
82.458
209.71
113.38
-12.007
-57.215
58.044
121.93
7.1149
-161.55
-283.24
-204.35
63.292
256.8
272.37
92.589
-39.791
125.07
137.39
-46.97
-210.84
-274.32
-118.06
54.5
118.6
49.891
-55.885
-10.009
45.52
-1.7368
20.039
-32.553
-62.294
27.495
-13.691
6.4939
111.89
51.379
66.773
151.03
9.8846
-205.59
-116.82
45.89
15.353
-101.54
-181.42
-111.94
124.45
229.42
139.24
21.286
-98.848
-113.33
79.138
88.197
-100.45
-209.75
-189.15
38.02
232.73
166.92
35.474
-85.384
-17.357
117.16
20.984
-194.49
-299.52
-172.02
125.76
286.16
180.21
36.166
-77.374
27.601
153.71
88.952
-26.931
-211.92
-139.74
100.47
108.15
123.65
-11.505
-102.8
67.739
64.442
-14.126
-93.653
-145.65
-128.54
-59.339
-19.557
71.759
163.63
73.052
5.3624
-46.15
-112.36
-32.773
131.44
25.297
-116.19
-153.06
-199.49
-72.726
182.91
267.87
116.87
-39.835
33.958
195.14
103.66
-121.93
-276.67
-290.89
-84.164
132.57
235.3
102.4
-80.508
14.255
169.97
8.8424
-183.31
-282.87
-195.77
79.608
259.83
195.45
81.687
-3.3523
76.28
125.35
51.992
-121.48
-194.18
-27.573
177.85
261.1
119.59
-163.9
-203.81
-13.514
-63.04
-100.89
-98.109
-87.106
-75.598
-117.8
-67.263
62.727
59.861
104.95
110
-55.741
-152.04
-101.19
11.607
12.026
-112.09
75.136
183.42
195.7
250.22
105.04
-77.104
-251.38
-105.82
64.398
-12.381
-127.77
-113.89
18.737
162.76
100.2
-51.77
-130.11
-166.1
23.09
205.17
121.8
-106.66
-182.82
-28.039
185.14
195.85
66.504
-67.781
-22.062
144.22
152.78
22.478
-180.36
-205.21
-87.54
-70.78
15.581
16.807
-84.679
40.332
192.17
74.147
-30.399
-32.303
1.35
-20.012
-94.256
-78.474
3.996
15.119
14.592
7.4195
-79.207
-95.37
109.15
189.37
21.79
-128.73
-170.56
-18.488
193.62
190.21
2.2064
-136.91
-169.75
8.4352
190.49
71.692
-138.82
-203.03
-81.204
157.78
227.76
73.351
-96.734
-62.382
149.68
167.8
-55.303
-258.01
-194.97
43.979
261.35
234.79
45.358
-35.437
22.959
47.814
-6.4567
-130.87
-232.86
-144.06
-53.973
19.788
55.547
-73.423
1.4339
148.45
18.176
-108.6
-42.275
62.475
80.702
1.4426
-88.098
8.5768
110.99
81.211
64.554
-39.968
-183.61
-62.086
154.14
113.8
-46.325
-133.57
-118.27
84.797
201.56
86.126
-68.227
-221.15
-122.21
126.82
131.72
-11.573
-105.03
-52.131
153.68
221.1
69.997
-93.855
-81.08
36.113
64.027
18.998
-134.15
-185.83
-39.63
82.892
118.04
47.703
-56.279
-17.055
-48.496
-121.55
-101.84
-164.8
-144.34
-76.897
-104.47
116.85
281.55
231.94
275.91
221
50.111
-11.85
-23.055
-53.306
-131.44
-224.08
-203.83
34.48
211.11
130.92
38.529
-119.44
-150.15
33.134
41.117
-103.31
-205.03
-241.06
-95.037
176.61
217.93
136.63
-31.02
-115.53
38.168
8.8282
-120.65
-153.11
-6.0199
151.18
236.17
160.14
28.482
49.012
78.648
5.825
-8.4759
-90.125
-192.85
-117.72
15.618
105.26
123.06
-35.642
-26.023
70.918
-41.236
-167.6
-157.04
-107
-38.616
-45.336
-75.852
33.682
151.95
187.41
181.69
17.995
-153.52
-13.411
231.68
118.11
-52.576
-106.68
-32.524
70.597
130.95
98.435
-42.276
-24.069
47.79
87.842
61.533
66.459
-6.6673
-107.36
-237.81
-434.22
-337.18
-107.04
-6.4138
119.14
143.42
85.823
-10.847
-116.62
-66.765
28.137
-0.14808
4.0194
-53.897
-57.18
111.86
265.28
397.24
356.79
39.393
-68.266
-68.957
-39.93
17.77
21.904
-34.754
-89.737
-232.11
-232.62
-37.559
26.499
-57.714
-162.67
-196.55
-52.502
179.35
250.93
157.57
-36.305
-105.88
79.854
131.43
5.8248
-118.75
-140.93
2.7821
215.89
284.89
227.67
-33.838
-96.595
62.13
-3.607
-162.11
-318.81
-255.89
-5.0163
119.04
170.88
82.055
-33.129
51.172
87.846
-6.6864
-74.616
-81.311
15.511
92.513
29.249
-13.791
64.375
64.564
-19.834
-37.234
-105.52
-139.72
43.253
58.013
-32.442
-88.599
-91.443
112.09
271.04
128.15
-4.435
-119.12
-206.05
-32.546
22.721
-101.5
-220.82
-190.87
52.855
267.51
239.87
36.86
-58.298
51.005
111.44
76.389
-28.914
-151.32
-73.33
51.423
28.614
21.678
55.897
-12.256
-45.016
-24.522
-91.366
-159.15
-54.796
35.575
51.481
4.7421
-85.277
-19.526
184.97
143.11
78.338
-26.08
-165.57
-28.938
47.749
-77.953
-223.44
-239.3
-43.378
188.06
186.37
49.924
-37.464
35.819
90.918
-19.577
-95.984
-187.84
-111.05
60.842
73.392
148.02
117.68
31
70.83
76.674
11.768
-68.643
-81.262
-21.985
12.256
-36.016
-64.82
51.805
100.59
17.403
-31.896
-123.07
-119.59
84.921
119.24
23.312
-101.37
-155.43
-29.421
175.95
187.15
70.8
-63.166
-110.95
42.499
97.099
-19.657
-211.83
-192.06
-23
102.17
163.7
35.826
-8.7577
121.62
136.89
21.961
-121.42
-118.45
44.113
99.992
-5.9289
15.766
41.379
24.353
102.29
21.362
-88.626
-77.385
-6.386
-15.111
-94.147
-162.18
-125.09
89.045
176.14
79.741
3.0332
-101.21
-37.739
113.97
26.28
-114.05
-172.41
-97.361
109.2
216.25
136.36
21.326
-67.179
-4.3548
60.469
18.703
-100.44
-199.73
-38.151
73.817
95.701
105.35
4.6216
13.638
92.828
72.115
-42.522
-164.48
-238.69
-181.87
-129.72
-38.88
110.78
134.98
89.187
93.962
17.507
-56.352
5.3016
49.502
-48.934
-106.63
-107.38
-4.8899
203.99
178.04
58.032
-48.704
-135.16
5.8066
91.515
-76.438
-222.15
-221.32
-43.378
205.71
220.99
49.981
-40.642
17.018
139.82
104.93
-33.175
-202.8
-192.38
-11.137
110.58
194.02
88.677
0.45001
42.295
33.548
8.6507
-110.82
-202.99
-102.43
-2.7189
9.8861
114.6
122.81
87.946
104.54
-17.493
-95.858
-89.064
-26.409
-49.816
-77.44
22.17
161.99
201.84
50.238
-61.9
-171.27
-248.01
-63.631
83.818
16.101
-153.85
-143.85
73.726
248.22
240.94
59.578
-109.54
-200.48
81.03
203.01
12.114
-214.34
-253.19
0.86626
117.46
179.8
236.4
76.856
-45.943
-38.363
12.576
-94.463
-230.15
-291.07
-90.846
95.772
131.59
201.57
122.53
36.796
-26.551
-106.39
-157.96
-44.648
6.2184
-65.82
-67.805
7.1014
172.14
292.56
134.3
-30.44
-157.52
-161.81
33.346
79.967
-158.18
-302.51
-239.02
5.709
299.15
324.88
151.48
-28.534
26.484
181.8
41.043
-129.26
-284.17
-148.41
82.388
46.684
139.06
69.582
-63.523
-9.8614
25.845
-79.564
-122.62
-109.66
-27.167
41.758
-4.9615
105.5
149.71
-39.344
-81.198
-48.669
-8.3504
81.77
118.63
13.755
-79.57
-119.5
-6.6824
222.34
134.32
-117.59
-157.37
-141.38
72.116
140.84
-22.233
-164.76
-209.38
-115.11
100.85
262.65
188.52
-38.02
-56.592
45.136
41.704
21.834
-45.748
-76.544
-26.009
134.57
204.33
3.4488
-93.155
-84.588
21.697
50.553
-25.628
-36.214
80.744
46.73
60.693
76.465
-22.017
-68.307
-227.2
-391.21
-78.107
158.62
106.38
4.4344
55.386
72.445
93.232
164.19
126.78
25.494
-26.762
-90.792
-99.827
-24.486
-129.64
-329.43
-375.06
-182.66
65.449
197.57
146.64
108.21
100.96
101.09
156.6
64.637
-155.49
-260.52
-154.4
-54.02
110.22
277.13
114.88
20.942
53.038
39.065
-8.9121
-61.36
11.816
72.003
8.7879
-98.208
-69.315
51.822
101.17
82.567
-16.933
-178.32
-174.92
1.3922
2.2733
-52.451
-68.182
66.987
319.54
340.15
226.73
6.3407
-151.83
-54.902
-19.685
-55.303
-63.024
-92.667
-2.8952
-2.2264
-81.854
-113.13
-147.35
-101.68
-31.478
47.669
82.066
-21.032
-30.6
131.38
75.738
80.606
121.67
8.9369
23.526
-13.163
-109.62
-134.52
-67.057
32.123
36.216
-22.119
-117.34
-99.836
119.4
205.44
126.19
-14.797
-113.83
10.213
80.619
-37.979
-199.91
-238.84
-117.88
116.86
236.38
123.37
-64.294
-9.0222
121.06
72.345
35.721
-85.878
-94.432
37.541
-18.167
-15.742
-101.6
-174.39
-53.93
67.043
34.911
58.328
76.124
72.006
36.791
-76.146
-11.257
47.107
75.267
127.96
48.406
-34.975
-42.224
-52.899
-84.314
-59.115
-144.47
-189.02
24.565
179.27
139.87
0.94508
-128.94
-13.851
129.74
27.644
-78.962
-139.03
-102.63
98.644
145.62
32.586
-90.657
-124.23
65.349
108.78
-44.815
-197.28
-184.9
-24.209
135.51
261.77
161.59
-12.392
-25.745
1.7671
22.026
42.585
-63.922
-112.26
-24.288
-54.881
92.837
199.23
152.02
184.69
78.758
-122.36
-196.04
-69.984
64.022
61.485
-10.905
-137.22
-20.909
346.24
211.96
-117.62
-245.62
-190.68
-41.632
-41.561
-92.146
-113.07
-101.3
86.175
298.49
194.99
66.629
-78.317
-42.683
65.642
19.29
-115.47
-173.57
-89.259
-23.042
91.572
138.49
10.684
-22.507
72.759
-140.43
-269.36
-111.22
-52.661
92.046
62.169
-46.401
104.34
122.33
85.024
126.73
-19.162
-227.88
-134.37
25.567
75.694
60.001
2.5234
107.84
171.09
47.124
-22.982
-138.47
-228.93
-111.72
-5.2582
-16.412
-65.932
-97.466
83.794
333.78
291.83
152.49
26.122
-54.152
-52.042
-67.85
-173.66
-275.02
-148.23
8.4375
63.576
211.27
187.06
52.751
78.885
26.327
-145.47
-164.92
-161.76
-57.869
51.163
-7.1544
12.672
97.204
40.54
37.312
3.8889
-166.68
-141.01
-1.6679
-6.2911
-21.568
-52.621
-1.869
247.88
290.04
131.2
24.614
-178.86
-228.73
-75.636
-56.249
-140.97
-203.87
-92.853
180.18
323.33
223.8
60.146
6.6407
27.461
-76.304
-92.091
-115.33
-80.089
80.454
99.037
131.17
146.93
-6.9407
-30.35
-13.659
-136.25
-216.94
-88.475
126.73
181.88
74.062
-88.718
-107.21
127.79
145.8
25.674
-58.634
-146.53
-33.92
71.747
-3.0335
-86.912
-148.6
-74.606
141.77
151.17
10.52
-45.375
24.949
62.35
17.913
-51.819
-139.84
-81.109
59.51
33.788
61.287
-20.876
-41.733
39.558
4.9694
-0.43156
-37.086
11.788
103.97
18.181
-75.619
-8.6209
3.9349
-24.553
128.02
83.262
6.6619
37.818
-26.243
-17.85
-15.139
-122.74
-335.46
-188.44
90.14
59.425
38.452
73.876
54.734
62.841
-4.5309
-75.104
-70.098
78.057
128.09
33.64
1.1743
-29.599
-20.821
34.665
50.985
-36.464
-119.41
-24.417
57.148
58.143
35.688
33.181
-24.282
-30.384
-66.361
-63.461
-68.543
-133.18
-64.206
-13.01
-27.82
65.889
224.34
367.08
273.58
-41.275
-171.62
-130.52
-51.367
-102.51
-137.08
-138.83
-118.25
74.682
243.04
161.9
57.212
-112.49
-58.974
116.88
3.7452
-154.17
-166.74
-76.541
118.16
255.61
226.06
92.089
-83.078
-56.099
-28.994
-116.95
-184.14
-181.97
0.2769
138.75
101.09
36.522
-8.1808
48.552
43.03
-31.236
-12.94
83.943
145.2
60.828
-62.671
-180.5
-124.75
47.185
59.205
2.2257
-96.632
-144.21
11.08
97.568
8.011
-54.98
-73.61
56.851
263.11
165.62
-34.853
-138.48
-125.69
-59.696
-76.218
-88.361
-82.315
61.405
202.39
73.418
11.92
-19.94
-9.2359
69.131
-56.475
-42.024
-1.6008
-53.908
4.1157
11.474
-27.83
8.6793
30.846
9.4179
12.738
-7.0965
-9.0058
-26.151
-47.623
-14.614
29.442
1.5487
25.045
210.97
172.5
-14.075
-195.96
-300.34
-143.53
28.569
68.686
20.674
-46.945
9.9725
51.61
15.185
105.67
51.97
-35.227
65.413
-47.308
-162.68
-156.84
-49.768
77.24
248.42
212.3
17.409
-51.35
-15.291
-19.713
-64.536
-191.13
-308.39
-115.41
27.835
-23.645
172.78
302.52
358.41
318.33
185.15
13.471
-165.26
-180.57
-123.02
-128.91
-191.37
-56.927
136.66
167.51
91.091
-63.534
-190.58
-66.683
35.476
-13.25
-51.482
-141.4
-64.857
181.28
277.06
114.63
-109.81
-125.86
-7.5127
-43.439
-108.85
-134.51
-66.833
48.611
167.92
221.24
77.151
-3.0422
14.545
-27.737
-83.697
-128.54
-180.21
-61.452
28.955
22.711
174.69
212.98
156.11
137.11
50.135
-123.51
-182.52
-100.65
-64.608
-64.902
-99.565
-72.353
151.09
229.66
108.09
-3.4079
-108.59
-75.5
-22.488
-107.31
-134.74
-125.18
-80.606
79.562
234.87
236.08
129.54
-0.049709
-31.949
-56.719
-116.26
-179.54
-156.18
-23.117
22.518
81.367
152.36
96.492
87.983
95.186
0.17316
-102.15
-125.53
-114.25
-63.603
-31.908
-100.49
-45.468
152.35
153.16
65.953
-38.59
-155.03
-109.03
-10.863
-15.257
-11.619
-41.358
-17.73
55.669
92.722
48.066
-68.993
-105.36
-42.17
-50.904
-50.391
-83.116
-29.551
105.51
159.1
241.62
221.09
47.111
-31.651
-21.088
-67.109
-138.69
-164.37
-113.5
-21.483
-22.878
13.443
167.02
169.2
51.322
-5.1861
-68.962
-99.81
2.3844
52.192
20.613
-22.295
-96.296
18.886
202.82
111.92
-68.224
-174.86
-110.82
29.038
29.959
-56.647
-71.284
26.475
121.91
195.6
179.67
13.787
-124.08
-86.96
-19.106
-58.481
-88.502
-95.633
23.059
116.72
62.581
81.508
70.22
22.236
-5.7339
-70.896
-154.27
-180.43
-47.827
66.327
91.789
18.124
2.2454
128.58
116.3
-29.12
-88.658
-173.64
-108.72
41.177
19.946
-9.4973
16.317
78.458
230.22
257.95
99.707
-107.46
-227.18
-140.7
-99.01
-44.238
-55.727
-37.2
110.82
142.19
176.86
133.62
2.7499
-2.5927
12.021
-40.497
-121.7
-143.92
-76.028
42.179
43.098
-33.375
32.383
97.857
13.463
-43.062
-109.28
-142.89
-13.516
51.421
23.702
35.318
-6.9717
67.741
202.99
84.061
-51.505
-130.43
-145.47
-44.745
-30.408
-122.01
-192.14
-58.426
96.826
141.24
107.54
35.716
-16.04
54.842
79.012
-136.72
-155.85
-126.7
12.601
129.11
103.1
149.89
94.559
-63.213
-87.794
-55.802
-149.37
-170.21
-84.792
36.039
90.545
66.42
201.3
338.34
217.57
-7.3575
-127.35
-249.76
-196.75
-73.876
-70.179
-55.863
-31.054
79.144
179.23
221.44
175.25
-17.259
-75.748
29.908
-12.315
-73.508
-51.05
-45.135
-11.347
13.949
-43.541
-70.317
-69.729
-1.3609
64.498
12.525
-99.359
-162.84
-3.6316
86.32
216.54
202.48
7.7558
67.933
-1.0086
-58.086
-108.32
-167.93
-39.712
7.7283
-72.913
-92.009
-120.27
-5.5918
225.55
274.64
157.56
-5.1486
-48.682
57.383
-3.0184
-118.6
-231.05
-112.07
93.034
72.687
76.199
32.069
-37.497
64.958
55.478
-37.572
-89.542
-107.45
-37.121
43.464
135.76
124.73
17.986
-101.34
-170.31
-85.504
-7.1759
19.528
76.758
42.704
-3.1104
-17.363
-20.203
23.283
-36.339
-96.911
-48.767
-82.255
36.368
163.74
27.852
-36.668
6.8462
80.349
121.2
176.5
111.45
-76.398
-177.59
-120.51
-50.356
-19.432
-38.966
-24.997
64.494
44.847
-32.03
46.343
100.53
35.859
-47.357
-105.04
-113.26
-14.035
35.31
-10.472
-26.997
-65.665
-16.328
151.53
145.36
64.489
-39.12
-99.025
-7.4728
-20.066
-134.83
-183.63
-148.24
25.35
235.88
184.55
-12.624
-124.04
2.4137
113.34
78.245
9.4811
-71.274
19.841
135.57
115.94
127.34
-25.249
-153.96
-91.541
-54.293
-52.474
-49.754
81.612
374.98
237.14
-47.548
-68.865
-85.45
-77.628
-25.488
-58.478
-144.22
-163.65
-132.72
-126.64
-108.16
-113.97
-54.116
172.39
234.27
103.48
-47.108
-137.84
15.565
141.25
90.122
25.393
-73.529
-99.281
142.3
237.95
120.26
32.116
-69.958
-36.066
7.4834
-43.348
-144.96
-122.49
-6.2028
23.254
115.17
82.72
-21.823
1.8527
1.6911
-57.319
-77.449
-82.665
26.496
128.91
19.577
-1.295
68.562
5.0241
-34.066
-67.954
-161.73
-195.01
-66.947
28.095
72.141
35.12
-59.838
78.219
209.09
128.34
6.2002
-129.47
-107.63
64.043
106.1
12.982
-31.556
-66.195
14.961
172.04
137.44
-28.92
-170.59
-130.94
-81.963
-51.141
-38.495
-48.681
77.39
151.19
155.84
163.84
7.8997
-83.855
-30.213
5.4026
-38.015
-85.435
-42.102
29.209
82.863
-1.3577
-189.56
-132.56
-87.592
-119.63
-110.15
-99.057
-2.7784
217.15
216.99
135.92
34.198
-50.118
106.87
156.47
14.558
-107.77
-223.43
-124.88
22.936
34.63
-56.845
-110.61
-29.815
98.749
168.45
72.417
-98.106
-119.09
17.348
73.504
84.134
45.583
-42.612
23.998
30.592
16.133
90.102
18.026
-10.456
3.3059
-56.425
-125.57
-93.552
31.328
94.404
80.014
-35.994
-68.156
97.202
102.38
-3.4701
-109.18
-209.45
-102.42
50.603
9.774
-51.818
-106.07
-17.918
202.16
201.49
67.449
-47.756
-63.107
40.244
34.074
6.239
-47.802
-67.892
101.76
-10.442
-152.11
-20.68
-22.899
-17.53
42.674
-4.8746
-75.562
-76.344
26.799
166.52
115.43
122.35
117.28
-12.206
-40.828
-30.862
-90.536
-144.11
-39.312
16.835
9.6314
-18.285
-70.769
68.236
151.57
42.317
-46.717
-149.05
-142.64
12.077
29.158
-34.576
-51.28
-110.38
37.079
206.2
120.93
19.865
-122.92
-62.095
75.705
3.3742
-130.85
-143.41
-7.6117
145.16
221.57
176.79
52.141
-9.2074
45.134
14.618
-23.087
-83.351
-129.79
5.3546
77.029
99.793
124.63
20.436
17.02
30.131
-98.643
-232.88
-152.09
-6.0272
72.609
63.657
21.651
52.589
85.131
36.232
7.837
-71.021
-179.77
-83.576
13.36
-31.05
-44.162
-89.309
-31.735
204.04
218.73
40.387
-130.25
-107.75
3.7442
12.638
-34.92
-87.535
-62.272
59.518
178.87
161.92
6.1021
-80.997
-29.741
-26.447
-45.607
-75.185
-106.96
37.376
143.68
135.45
168.39
77.699
7.2672
64.321
0.7506
-123.34
-117.5
-85.692
-68.155
-10.064
-75.58
-110.24
64.124
132.07
88.778
12.371
-133.69
-156.56
-9.8791
-0.49935
10.026
-2.3966
-15.85
134.19
127.72
65.979
8.1211
-174.16
-175.47
-57.905
-73.374
-130.19
-108.48
74.063
260.22
269.02
110.95
-16.743
6.8468
-5.4619
-112.17
-130.58
-151.53
-76.214
107.75
147.07
177.61
114.79
-14.33
3.0296
2.905
-131.61
-211.73
-147.68
-14.457
83.142
55.766
35.921
128.41
125.03
62.034
21.209
-113.03
-220.89
-58.086
53.056
-5.5616
-72.119
-135.74
-33.998
201.06
178.67
39.481
-74.163
-77.59
-37.873
-23.22
-51.157
-104.89
-70.18
35.412
175.66
233.39
98.027
-18.993
-4.4535
-85.281
-161.58
-107.96
-59.286
74.502
104.15
5.9699
51.855
105.47
84.021
91.468
7.6975
-205.37
-241.9
-69.622
13.148
63.812
27.87
14.792
193.75
182.33
12.238
-125.44
-264.66
-214.14
-43.246
-11.989
-23.63
-53.728
11.295
268.37
397.36
229.11
4.2763
-121.61
-120.37
-123.23
-92.03
-103.24
-105.85
51.458
114.13
124.92
151.85
13.542
-32.497
4.2512
-72.968
-129.53
-62.219
36.448
134.63
125.93
92.055
116.01
77.763
15.591
-6.758
-120.73
-258.99
-134.99
4.571
-4.1482
-21.504
-104.98
-29.371
207.5
182.79
22.524
-151.26
-198.6
-48.302
32.756
-35.566
-114.27
-82.907
107.01
282.02
216.67
32.118
-98.64
-66.111
-19.166
-48.19
-17.822
-69.338
-28.042
78.228
-15.135
-7.6783
-16.703
-71.179
-8.0932
-33.368
-186.42
-185.54
-2.7724
155.44
194.39
95.955
41.978
127.84
119.37
32.401
-32.347
-165.36
-208.11
-20.976
16.648
-32.313
-89.853
-84.787
136.75
233.68
74.813
-114.19
-171.8
-42.05
58.651
54.557
-14.828
-73.598
15.843
190.38
264.41
131.29
-80.417
-129.04
-70.255
-104.88
-102.38
-99.598
-41.121
112.34
119.13
86.122
126.67
64.484
46.222
64.552
-40.356
-187.95
-162.7
-80.861
-27.776
9.3093
-34.293
45.972
190.68
131.78
52.787
-49.893
-176.94
-81.597
39.002
-14.666
-36.428
-71.068
3.2262
207.6
178.84
37.28
-89.089
-121.35
-57.716
-80.337
-142.79
-161.14
-33.839
158.83
240.23
238.48
135.25
6.2979
5.4377
0.51547
-106.22
-189.83
-255.96
-151.19
3.9246
42.77
129.3
133.58
72.773
94.593
65.682
-132.27
-247.32
-98.402
24.264
71.975
52.768
-5.5089
140.27
205.94
66.516
-49.023
-161.11
-161.82
-54.956
-14.001
-55.082
-94.251
-52.341
113.13
231.79
181.66
58.602
-29.138
-48.255
-68.698
-104.99
-134.99
-176.21
-45.33
72.937
121.41
159.19
33.017
-0.23338
78.122
56.395
-43.908
-100.69
-94.155
34.685
121.88
38.788
-6.1043
21.128
4.4935
1.2014
-53.049
-205.42
-162.49
38.08
52.936
40.776
-89.094
-212.72
13.497
51.427
-4.8556
41.889
-70.81
-21.714
71.687
-29.786
-79.531
-50.518
33.685
190.07
276.27
168.5
-4.5498
28.928
130.12
26.061
-82.128
-210.55
-190.87
11.992
58.858
71.234
28.144
-35.648
37.528
45.902
-30.596
-96.333
-50.751
12.342
19.085
-61.253
-40.282
111.93
192.03
168.02
48.724
-143.76
-248.63
-59.404
-27.773
-135.09
-165.52
-135.01
89.346
325.11
267.83
102.74
-86.327
27.875
151.8
-43.674
-196.84
-264.76
-166.72
30.599
169.18
148.48
25.104
-10.235
83.53
67.597
8.6955
-56.95
-56.662
74.022
37.85
19.475
77.343
-24.401
-59.285
-51.116
-134.41
-185.19
-130.32
-52.391
10.801
-8.9449
-110.72
47.604
260.94
215.66
86.902
-49.267
-104.44
71.031
151.09
-26.348
-127.96
-196.54
-107.62
143.64
138.67
-7.054
-122.06
-104.08
63.034
66.931
-37.916
-94.598
-36.626
93.001
175.31
178.31
57.695
-48.541
8.6622
41.309
10.482
-28.052
-57.272
-34.267
-21.25
-117.19
-76.457
123.05
148.86
98.068
17.281
-151.32
-180.59
-8.1686
26.877
-23.452
-112.33
-152.76
79.435
212.44
57.715
-38.219
-133.37
-113.3
49.074
99.872
4.544
-78.571
-8.1034
102.15
186.54
153.09
-7.6482
-23.792
46.23
-55.25
-110.99
-145.55
-99.563
49.53
20.602
-24.789
83.83
91.195
61.742
62.322
-7.5749
-112.78
-70.899
16.399
10.385
-39.893
-139.4
-227.66
-61.507
88.496
51.092
-43.141
-9.1312
104.72
66.93
-49.681
-157.03
-150.96
-5.7495
186.78
263.71
140.96
0.70602
-29.639
-5.0732
7.7853
-50.308
-137.59
-23.561
104.15
54.266
75.07
115.52
88.258
94.013
35.39
-111.74
-165.63
-62.439
-7.9174
-30.675
-92.705
-223.95
-125.96
108.21
71.559
-23.581
-98.151
-64.724
110.81
121.78
-4.0192
-93.737
-115.09
22.729
238.95
204.57
-24.114
-115.07
-4.7832
-35.035
-50.299
-17.533
-29.601
88.516
139.26
53.395
121.83
55.39
-60.626
-34.138
-54.617
-158.75
-112.49
39.478
87.257
93.311
-14.516
-74.159
151.96
203.39
26.356
-130.87
-299.3
-243.59
7.3309
105
50.538
-36.704
-31.58
156.66
243.17
108.07
-16.118
-4.2724
52.296
-0.43798
-39.892
-133.16
-142.36
-3.0797
-5.9599
57.96
90.69
-37.115
-1.0218
9.3812
-111.52
-159.33
-40.319
98.017
110.31
24.89
-84.217
42.04
163.84
100.74
59.445
-114.09
-186.56
-27.099
-24.402
-72.544
-71.33
-62.127
118.22
276.62
168.65
22.682
-96.948
-50.492
10.947
-62.79
-158.88
-236.04
-115.6
73.149
157.12
236.77
147.22
64.355
99.926
27.514
-166.27
-251.17
-142.87
-0.064396
62.491
18.413
-7.8293
115.57
106.69
27.465
-20.101
-151.47
-190.11
-27.394
21.362
-14.793
-80.905
-104.64
107.07
212.21
47.748
-61.086
-108.76
-55.367
27.436
38.613
-35.2
-92.136
3.0443
104.86
197.55
187.72
-3.9664
-86.065
-75.154
-139.67
-166.17
-158.36
-73.933
75.109
100.61
85.651
177.21
176.85
140.14
117.91
-39.319
-147.66
-43.222
-26.267
-124.15
-115.94
-107.17
-12.399
226.5
198.99
38.434
-116.85
-178.98
-29.399
75.154
3.5716
-106.15
-158.15
-57.006
189.65
224.05
20.459
-111.01
-91.652
-80.182
-94.164
-80.362
-76.134
68.02
201.77
183.72
250.1
183.39
33.279
4.3823
-36.85
-187.21
-233.34
-99.129
-3.3581
17.322
-58.534
-31.409
163.72
166.69
71.654
-22.93
-129.67
-103.08
103.76
92.625
-32.983
-60.609
-138.61
11.347
207.06
80.641
-57.762
-88.684
7.0368
57.163
-22.024
-163.04
-197.84
-82.14
34.647
124.96
122.9
15.403
21.276
48.88
8.3545
-73.937
-130.22
-61.255
101.54
97.076
73.34
117.44
49.178
29.84
47.974
-30.24
-206.56
-198.83
-64.494
-44.553
-34.868
-84.745
-68.265
120.08
100.76
-28.655
-68.97
-22.246
96.049
110.22
-27.154
-102.57
-85.672
58.036
298.41
293.4
52.162
-94.991
-85.125
-111.44
-121.59
-117.8
-154.22
-27.079
91.581
121.5
236.15
187.32
47.597
-13.644
-101.76
-191.52
-178.99
-65.03
7.0407
-0.5588
-59.003
-34.053
115.12
135.83
58.537
-27.399
-98.974
-15.39
167.44
63.272
-53.201
-97.617
-87.464
103.33
111.79
-72.219
-195.95
-216.61
-64.469
43.858
46.879
-26.867
-34.361
104.57
216.98
255.14
120.84
-86.091
-116.55
-72.518
-69.421
6.391
-2.0639
10.907
120.49
89.103
83.898
120.62
46.733
12.184
-39.939
-177.81
-258.59
-71.821
44.786
8.369
-3.2155
-52.662
54.738
224.34
88.957
-108.39
-223.36
-183.1
-55.031
43.651
45.89
-16.406
11.388
167.41
278.09
237.13
48.267
-95.713
-68.369
-88.434
-150.15
-138.39
-137.41
-27.269
52.701
-12.737
44.023
82.728
52.652
74.85
-0.69069
-168.77
-174.36
18.369
110.4
106.61
74.301
25.207
-10.659
-9.8284
-28.992
-21.311
-27.698
-41.025
26.148
97.104
52.147
-110.71
10.304
86.013
15.839
86.633
33.038
5.3521
40.63
67.74
92.151
92.686
42.514
-60.96
-193.87
-292.98
-406.06
-311.8
-36.654
1.2828
80.311
212.35
76.772
69.338
98.255
-13.665
50.4
99.553
19.241
12.867
49.81
-103.42
-90.691
50.676
14.585
-26.338
-66.037
-113.86
-55.109
34.48
126.53
111.29
-48.882
-71.8
96.129
127.2
3.1013
-201.23
-194.75
-64.606
38.608
237.73
217.05
126.86
184.73
195.93
20.544
-140.86
-136.3
-9.0399
14.52
-46.401
8.0767
45.605
21.848
2.4838
-53.03
-246.24
-249.42
20.269
69.676
25.621
-39.077
-67.359
117.18
206.54
52.899
-104.06
-159.47
-52.452
42.077
18.815
-61.937
-95.551
-23.224
191.55
274.25
113.12
-75.847
-103.67
-37.13
-52.092
-80.1
-141.66
-75.812
85.572
109.64
173.21
165.09
30.282
13.751
20.228
-84.069
-165.19
-129.57
-98.988
-53.229
-40.744
-96.34
77.923
176.31
49.71
-42.568
-90.881
-37.582
109.82
97.807
-20.309
-71.965
-98.984
62.617
247.65
141.04
-37.234
-137.49
-94.616
-39.601
-29.975
-63.707
-106.47
-3.0466
92.862
171.46
206.52
52.761
-54.192
-25.263
-60.477
-113.68
-74.789
-38.487
15.212
47.452
11.415
74.383
148.66
80.842
3.7094
-57.38
-114.51
-41.439
78.192
14.324
-103.7
-209.38
-202.93
73.137
189.77
40.65
-95.115
-152.06
-44.569
11.958
-13.011
-33.239
-5.0136
78.658
187.75
240.37
113.83
-66.799
-91.177
-41.144
-87.217
-79.812
-82.962
-6.2132
133.82
111.71
87.396
108.27
66.058
27.093
-43.396
-163.92
-272.95
-145.49
3.1016
56.255
56.985
-45.35
63.817
201.49
94.56
-14.049
-154.87
-152.53
5.8381
31.554
-38.729
-60.505
-67.676
95.606
233.3
138.12
25.06
-85.077
-63.168
36.502
37.749
-26.25
-103.46
9.2806
117.66
120.03
65.374
-72.999
-95.714
-25.619
-82.113
-164.64
-148.43
-105.29
18.555
81.087
84.41
188.42
200.98
94.385
-18.052
-153.93
-280.26
-159.2
74.083
111.2
70.611
-29.47
-52.563
150.79
145.52
-6.5834
-126.78
-187.05
-30.741
84.769
63.414
-38.456
-50.633
46.05
108.95
187.59
98.548
-63.862
-56.419
-37.027
-136.32
-109.16
-60.202
3.0449
129.97
74.545
33.916
53.85
-7.7866
-16.865
-20.782
-109.2
-187.27
-51.367
59.202
63.613
8.7966
-54.772
81.312
220.71
88.106
-57.871
-188.97
-192.14
-13.771
63.154
-18.981
-102.28
-66.48
134.98
295.23
189.95
-42.003
-149.7
-60.453
-23.15
-32.949
-40.533
-78.224
49.752
155.45
157.93
178.03
56.52
-62.095
-85.343
-134.2
-218.95
-150.15
6.6692
75.41
61.356
33.376
140.74
239.69
140
-20.017
-135.09
-238.43
-154.14
17.035
6.7858
-54.961
-114.47
-11.685
216.96
234.1
57.033
-134.67
-128.81
-63.95
-79.219
-69.828
-97.497
1.1646
167.7
209.73
222.85
104.77
-69.502
-86.217
-84.423
-124.92
-78.062
-38.417
-9.016
60.332
38.921
9.093
128.71
149.63
45.69
-73.493
-178.19
-215.53
-31.843
63.411
42.467
6.674
-25.426
132.14
242.85
105.57
-48.386
-178.76
-155.84
-37.449
15.671
-37.146
-106.24
-25.514
91.839
171.34
153.67
1.9079
-58.768
-1.373
-43.336
-130.37
-109.07
-77.906
51.868
147.19
109.09
115.1
62.983
-46.402
-117.61
-149.9
-198.1
-119.24
49.281
69.221
51.758
-8.6032
16.995
216.15
227.42
67.546
-85.045
-169.12
-99.918
-0.42841
43.595
-29.992
-71.951
54.527
-37.205
-56.477
25.491
-89.706
-99.446
-0.0875
-18.087
12.897
17.353
25.291
138.64
113.54
58.341
101.96
23.595
-88.88
-145.92
-157.07
-187.75
-78.898
82.451
115.42
69.769
-55.832
-0.064802
217.82
193.4
5.57
-164.19
-212.96
-107.61
27.068
26.939
-46.753
-52.665
49.596
200.02
192.48
-13.395
-169.29
-54.655
44.411
3.8099
19.95
-14.664
54.396
156.7
48.774
31.687
47.705
-64.564
-82.329
-76.208
-143
-173.45
-12.179
147.67
196.17
83.051
-59.51
78.328
148.21
5.6862
-107.76
-184.1
-155.06
13.529
43.913
-24.266
-83.935
-50.707
186.44
261.56
64.682
-142.22
-167.54
-0.79643
49.6
35.387
-21.12
-42.443
122.02
158.26
74.207
60.12
-66.96
-124.85
-56.92
-51.328
-109.39
-108.16
18.417
198.33
150.95
22.275
47.639
31.632
-20.804
-64.13
-89.133
-174.03
-106.61
37.125
10.429
11.153
-91.51
-110.16
101.58
88.529
-46.958
-149.32
-131.61
28.914
90.006
44.433
21.847
88.83
178.55
169.86
122.59
12.633
-130.23
-118.57
-85.611
-122.52
-83.738
-130.58
-40.132
138.42
42.219
25.645
73.105
9.4547
-9.1601
-6.7673
-40.822
-48.063
108.81
136.58
115.86
80.32
-28.647
22.865
31.844
-140.22
-231.52
-248.8
-165.01
55.505
127.75
60.606
-2.4745
-21.987
141.16
216.52
119.44
-20.629
-136.9
-116.21
-52.07
-0.18782
-29.391
-114.57
65.565
199.57
101.04
86.21
1.1355
-68.577
-40.394
-44.331
-118.39
-101.24
28.212
120.55
151.54
55.298
-41.823
34.778
12.725
-86.341
-158.29
-239.36
-133.08
68.819
82.269
47.328
3.0855
32.142
188.89
168.01
-9.0022
-164.33
-241.59
-70.816
69.247
98.983
8.8203
-16.807
149.15
165.69
126.98
42.759
-114.69
-93.876
-14.427
-70.682
-106.88
-88.139
-40.363
102.41
140.41
74.147
101.12
115.02
12.761
-78.365
-166.02
-233.43
-94.386
48.808
52.467
40.794
-65.891
47.954
278.18
128.99
-93.386
-221.37
-207.05
38.647
159.86
68.88
-56.861
-52.202
84.911
156.13
115.14
-59.59
-191.59
-77.636
12.214
-13.312
-11.639
-50.265
91.176
222.18
84.98
17.89
-9.7707
-106.11
-87.607
-50.286
-74.902
-62.301
16.819
20.852
37.372
-11.428
-46.415
121.87
151.96
-9.8288
-124.07
-238.45
-182.71
57.063
92.5
37.022
-28.111
-20.536
186.47
209.35
29.02
-167.07
-231.41
-59.311
66.998
87.724
-2.5257
-63.288
103.23
181.25
68.391
9.0142
-96.582
-155.88
-113.89
-72.772
-24.579
22.137
86.331
208.58
201.74
19.602
-38.624
13.935
9.3569
-53.044
-124.21
-217.83
-165.95
65.459
76.526
47.755
-35.487
-118.9
75.661
144.19
11.666
-152.65
-162.19
101.36
182.92
113.13
2.8376
-20.488
130.99
154.82
96.565
13.117
-183.4
-201.56
-76.776
-93.751
-102.87
2.1198
25.051
94.486
108
-64.73
-63.144
112.33
91.532
-0.31886
-85.522
-215.52
-209.74
14.68
130.49
95.371
-9.3195
-26.132
185.59
251.2
114.82
-33.424
-173.01
-85.533
14.456
-34.649
-108.25
-93.681
58.645
143.75
200.75
130.25
-75.852
-75.639
23.046
-96.211
-126.73
-49.635
17.549
157.76
116.08
-74.221
-31.755
32.283
-51.859
-116.9
-128.17
-179.39
-33.991
159.65
163
104.05
-71.492
-152.46
94.3
191.71
18.646
-122.65
-221.12
-131.91
84.682
126.49
2.0786
-52.481
25.94
110.36
166.31
64.259
-91.806
-39.977
18.51
-79.232
-49.257
-98.412
-125.65
60.252
30.325
38.515
115.06
2.6121
71.366
72.492
-167.43
-171.78
40.75
52.428
5.6088
-12.199
-133.24
-32.813
231.03
120.17
-45.892
-32.24
-57.205
29.674
71.085
-31.318
-1.6881
38.328
42.65
20.358
35.09
-23.636
-110.14
-39.276
-10.595
-19.197
-10.42
-45.786
40.023
82.807
3.553
16.235
-1.5049
-32.557
25.692
-18.399
-71.682
-37.103
-19.192
6.4271
75.607
60.956
-90.015
-51.607
145.59
136.05
46.173
-71.854
-181.38
-22.03
124.03
-5.528
-41.979
-95.284
-97.774
113.96
71.687
-73.892
-201.24
-196.18
62.761
147.41
42.03
-47.108
7.6055
153.22
169.75
106.01
61.834
-52.127
-68.055
45.56
-8.6703
-39.955
-131.56
-133.45
78.438
60.185
1.9758
45.253
19.904
68.788
75.61
-29.603
-169.4
-81.061
42.757
72.238
104.02
-8.4892
-16.081
123.75
48.075
-82.97
-204.14
-243.12
-58.745
61.687
-18.584
-60.313
-75.503
105.46
288.32
191.26
38.066
-99.324
-130.16
35.085
64.008
-13.235
-159.32
-118.42
102.6
106.92
119.15
79.44
-55.172
-22.909
46.238
-16.081
-74.578
-99.78
-56.158
101.76
104.84
-33.445
9.0439
34.222
-50.214
-100.68
-126.18
-149.66
29.289
155.21
78.731
36.354
-75.546
-73.895
173.39
191.94
46.742
-110.79
-219.8
-60.807
119.61
56.152
-133.51
-147
28.923
126.21
129.32
19.646
-137.19
-58.892
86.222
53.964
19.55
-71.59
-42.143
140.48
139.08
74.743
86.253
-9.5504
-66.714
-95.279
-176.93
-203.64
-88.647
43.291
96.005
71.275
-69.603
9.9264
182.29
119.57
15.673
-121.13
-250.81
-76.463
123.9
50.904
-53.766
-105.8
58.176
239.63
133.99
-32.764
-183.74
-144.99
20.877
54.084
22.81
-96.433
-101.42
116.66
170.37
150.96
88.164
-80.794
-62.618
8.763
-66.236
-103.02
-121.94
-37.908
118.65
103.92
8.1707
35.912
43.042
13.508
-17.457
-87.524
-151.63
-7.9223
125.1
32.585
-63.539
-152.6
-114.47
137.43
194.56
26.507
-69.359
-81.403
66.609
140.88
-6.1465
-111.07
-116.75
11.652
186.44
162.78
10.745
-170
-194.5
-40.284
8.5038
3.3864
-46.529
-24.367
186.97
170.06
31.334
65.804
-22.483
-110.71
-91.768
-102.27
-99.833
-10.214
54.923
106.07
108.16
-53.673
-32.949
144.31
109.97
-8.7488
-67.525
-202.17
-150
122.58
97.505
-14.189
-75.582
-102.51
106.37
180.91
10.112
-150.14
-238.72
-50.127
123.21
69.609
-61.436
-102.08
64.724
200.11
155.55
76.682
-55.788
-173.39
-72.274
8.1451
13.358
-0.73231
-40.722
114.39
178.89
16.24
-15.996
41.431
36.335
13.277
-35.755
-168.63
-184.14
-35.054
-9.2096
-18.365
-31.784
-83.19
112.18
272.03
168.65
24.416
-158.73
-143.37
78.832
69.495
-93.985
-145.41
-117.6
62.446
163.47
78.128
-81.814
-192.04
-76.946
37.043
28.898
-4.8352
-65.394
97.293
256.63
139.4
71.722
14.705
-104.97
-73.941
-28.488
-74.321
-102.44
-94.847
-44.678
53.291
41.134
-59.632
40.053
189.93
180.24
93.33
-41.094
-198.15
-72.867
87.689
16.725
-53.315
-136.26
-85.619
111
75.123
-23.334
-141.37
-131.05
81.886
127.4
19.927
-128.19
-83.638
137.95
130.06
68.431
49.629
-69.286
-48.619
13.82
-60.687
-44.1
-107.87
-98.927
88.41
80.151
-0.09507
54.897
62.463
96.389
97.08
-11.199
-177.1
-95.476
74.335
116.01
117.01
-24.135
-115.08
24.1
-5.4616
-30.946
-82.724
-259.65
-135.47
118.1
99.214
-19.396
-74.173
25.194
209.04
209.56
118.12
5.9586
-108.59
-48.361
19.101
-29.498
-149.39
-213.03
21.824
144.35
120.5
117.15
14.068
19.613
95.837
-35.47
-144.2
-100.47
-53.219
10.418
68.44
-8.2549
-59.342
37.828
69.634
28.156
-25.197
-179.66
-197.11
60.553
127.35
79.168
11.336
-98.469
72.292
188.42
67.756
-45.477
-230.85
-239.18
-37.813
-30.407
-144.48
-184.26
-12.685
296.02
393.18
277.54
75.925
-48.582
57.061
67.045
2.9288
-62.446
-161.01
-37.122
91.307
-5.4386
-6.2136
-59.851
-116.47
-44.75
-46.752
-125.27
-88.441
60.184
168.24
155.35
-6.8663
-57.371
74.307
76.914
-0.82645
-78.195
-215.73
-232.34
23.52
111.71
10.763
-60.192
-121
55.552
228.04
83.27
-88.322
-226.92
-144.26
109.64
175.72
53.714
-77.15
-80.162
100.31
218.91
157.28
-7.2689
-164.78
-66.447
29.953
16.96
-7.9489
-81.743
49.105
172.42
102.6
110.84
28.095
-124.97
-65.314
-45.718
-97.111
-59.817
-17.609
0.43194
50.891
9.2214
-71.973
35.649
84.523
22.744
-47.686
-130.07
-177.18
4.6266
161.36
67.668
-35.478
-134
-10.695
191.75
109.75
-55.078
-201.72
-193.78
39.129
179.17
51.69
-84.559
-71.087
79.976
144.84
82.417
-31.948
-205.32
-134.9
123.11
160.39
75.693
-105.74
-21.776
172.43
148.46
121.96
-6.1662
-142.53
-54.729
1.7967
-70.957
-89.615
-108.8
-22.689
135.11
66.216
-1.1599
51.453
-6.0438
-49.699
-58.791
-156.51
-183.52
61.92
169.65
75.127
-8.462
-102.61
46.954
278.67
166.2
-6.5006
-129.57
-234.12
-62.799
117
8.083
-147
-206.05
-51.268
178.56
208.66
68.886
-105.15
-63.174
118.95
82.268
40.702
-78.726
-132.14
119.16
112.84
-7.139
27.112
-115.04
-154.07
-62.378
-58.764
-77.1
-7.5737
95.83
128.12
70.165
-97.918
-157.15
70.274
175.48
63.852
-55.052
-164.31
-140.79
80.873
128.54
3.8625
-113.04
-134.18
98.058
198.04
2.531
-189.26
-253.32
-83.086
165.75
205.41
28.495
-123.1
-21.431
165.05
198.76
93.679
-103.68
-88.549
121.66
123.09
74.098
-22.258
-169.09
-23.875
59.141
-88.163
-41.962
-116.87
-183.19
-81.235
-14.399
2.1334
27.492
128.72
181.77
107.25
-27.049
36.845
154.87
111.25
15.988
-71.617
-210.4
-187.89
75.646
91.523
-55.062
-144.27
-184.07
-13.317
198.45
157.49
-41.816
-49.914
131.85
73.272
-44.958
-51.669
-61.26
-21.091
97.573
-16.514
-108.26
-69.366
-80.458
46.433
173.58
11.085
-29.933
65.042
62.161
3.8241
-15.633
-35.377
-129.32
-74.325
31.581
23.331
-9.2806
-19.732
-38.063
47.322
21.879
-53.371
20.134
74.942
112.99
137.89
-3.9142
-216.11
-104.83
33.671
1.9717
-6.4631
-86.754
-48.911
135.67
124.44
18.962
-62.958
-72.409
78.026
206.8
13.219
-115.33
-141.41
-127.06
103.61
143.54
-40.193
-100.89
-114.39
-13.762
153.69
106.81
-98.245
-230.9
-134.88
165.89
301.16
144.17
-68.073
-152.39
16.303
111.17
54.499
-84.496
-211.71
-139.56
9.8705
118.94
150.18
11.987
-36.67
54.666
32.556
4.254
-64.39
-78.2
77.431
63.904
16.495
91.114
7.3379
-90.998
-43.991
-75.925
-111.46
-93.459
-8.1887
58.425
30.415
-74.692
-75.571
43.441
120.25
87.937
-11.475
34.316
160.19
177.14
3.0865
-111.46
-143.43
-201.6
-18.144
155
54.141
-104.74
-205.94
-134.9
78.933
168.37
-10.551
-163.02
-157.58
116.88
256.21
128.34
-13.847
-120.54
53.357
216.45
34.172
-162.11
-237.88
-116.56
53.21
105.22
81.022
-42.869
-80.53
57.751
84.388
39.22
-23.6
-61.249
72.155
82.427
-25.72
6.3997
8.3347
10.04
72.133
-13.631
-123.86
-79.603
11.49
-0.0036738
-77.249
-63.74
31.673
78.439
141.98
117.76
-9.4706
-67.537
-141.25
9.4767
188.8
92.122
-104.51
-128.87
88.694
114.63
-10.185
-166.56
-254.07
-70.753
107.87
125.37
-49.157
-64.132
73.402
171.9
191.46
35.006
-185.22
-274.57
-67.06
96.737
23.608
-93.341
-16.008
108.3
58.287
98.595
102.35
22.573
85.432
124.67
-39.643
-133.02
-137.81
-142.06
-43.324
-59.15
-71.734
32.318
24.226
19.49
16.287
-91.292
-123.2
89.295
188.96
77.088
-39.387
-156.61
-38.88
196.64
146.32
29.01
-73.314
-118.43
59.715
143.98
-45.762
-208.24
-147.18
-1.1493
130.5
184.47
30.358
-83.924
-76.582
95.712
-2.7517
-20.998
59.805
-0.063746
43.256
43.359
-16.955
26.788
-23.46
-99.179
-80.583
-24.896
-28.737
7.524
14.69
13.569
-33.248
-17.571
100.18
66.7
-23.262
-56.964
-118.67
-103.14
96.158
170.09
7.5211
-109.83
-170.22
-56.859
205.2
227.86
39.632
-121.12
-53.097
144.48
107.44
-95.088
-202.81
-169.93
34.875
185.08
131.28
-1.0812
-126.95
-36.979
104.27
100.01
-30.863
-154.58
-42.278
-10.69
-35.425
87.618
30.566
-15.999
67.376
7.4953
-40.426
-31.708
-7.1067
8.0493
-5.463
-43.205
8.22
97.275
55.713
-33.026
-70.639
-119.29
-73.03
48.803
42.81
71.869
64.391
73.79
130.74
124.93
-20.112
-224.72
-273.99
-72.852
97.158
105.56
-14.979
-16.145
155.76
228.84
74.691
-67.442
-162.79
-258.7
-218.87
-42.814
37.614
-58.961
-62.242
102.39
40.304
22.614
138.66
111.35
124.87
135.79
26.6
-114.44
-2.2581
48.945
-84.427
-157.58
-106.83
-12.577
35.309
32.838
-9.3222
-26.326
-34.209
-8.7726
54.103
145.21
20.655
-154.51
-57.537
84.661
30.003
58.083
18.082
-108.26
-48.07
127.56
134.76
17.549
14.149
-31.64
-116.39
15.072
-34.26
-80.823
66.103
-14.652
-21.385
69.277
-15.356
-8.6519
44.045
-69.165
-179.98
17.24
134.9
42.93
-88.519
-218.6
-257.13
-16.64
168.36
121.7
59.553
-56.371
49.795
275.34
153.26
-105.83
-264.57
-129.68
89.106
138.43
107.31
49.921
228.44
456.48
166.38
-160.99
-197.84
-226.93
-145.3
-61.889
-73.482
-57.472
-42.553
39.876
94.716
6.6765
16.626
48.289
6.4323
-61.842
-138.97
-251.31
-167
101.15
172.76
165.33
70.565
-13.358
157.85
125.56
-96.122
-279.76
-353.27
-152.45
83.011
121.28
66.458
29.801
127.19
242.39
238.33
75.872
-134.65
-189.98
-80.74
-49.13
22.131
20.184
-50.803
88.681
102.86
14.326
13.52
-94.36
-94.872
-26.318
-61.991
-139.73
-37.825
114.07
126.99
78.431
-29.087
-29.247
100.57
27.145
-56.483
-79.719
-28.277
79.352
53.297
-89.03
-150.19
-159.91
-42.745
156.5
238.9
120.2
-75.331
-99.827
87.705
50.275
-92.294
-177.28
-104.47
66.636
74.984
138.02
83.497
-38.095
1.0452
41.519
-58.843
-108.85
-82.709
23.362
109.97
21.267
-37.054
35.772
20.281
-4.0358
-58.696
-163.26
-131.62
88.546
166.84
54.439
-44.096
-143.73
31.372
258.04
217.06
74.978
-121.87
-166.48
9.0198
7.0001
-159.33
-214.45
-126.65
113.81
284.06
173.25
-31.891
-126.93
14.015
72.172
19.883
-62.822
-156.77
-14.07
84.081
68.897
96.271
-26.223
-108.47
-66.665
-62.677
-60.862
-46.788
29.738
94.667
56.458
-14.381
71.139
154.01
161.05
97.851
-32.262
-223.97
-212.42
36.069
27.777
-112.71
-169.48
-164.74
38.88
173.32
75.241
-83.567
-163.79
41.859
209.64
98.716
-53.491
-121.57
-6.9488
191.37
207.12
36.774
-145.83
-107.54
45.294
71.784
22.322
-83.595
-23.321
136.18
79.801
63.14
25.547
-93.905
-21.185
20.781
-70.891
-95.925
-44.385
-2.4447
25.396
-19.447
-125.88
3.8412
102.84
61.101
-1.9699
-88.383
-41.382
166.96
181.43
-19.658
-120.87
-205.39
-109.27
109.18
77.205
-52.383
-93.346
82.177
204.09
100.14
-46.732
-175.54
-91.283
60.684
113.69
103.37
23.436
-71.601
-50.751
-52.843
-119.83
-69.642
-44.959
44.951
118.86
-49.723
-57.181
113.89
125.08
127.59
62.942
-109.82
-125.93
-6.9073
-76.708
-126.24
-162.33
-190.6
42.138
258.66
179.7
18.995
-86.542
-13.956
117.6
11.944
-134.46
-162.68
-129.68
121.93
250.88
168.77
34.083
-85.036
83.134
168.43
-14.793
-207.35
-228.12
-20.406
92.717
105.52
83.442
-30.053
-44.113
32.775
-22.188
-48.601
-105.78
-151.14
-64.488
-52.737
12.71
109.8
91.887
148.51
80.849
-50.964
-59.305
121.68
153.97
-79.226
-141.62
-137.82
-70.801
133.82
111.23
-54.963
-157.6
-153.19
62.916
190.93
69.162
-109.78
-118.45
12.711
131.59
144.83
53.149
-43.402
-24.191
65.554
85.514
24.807
-148.23
-87.348
81.728
5.5132
38.93
12.607
-107.33
-35.868
0.36382
-105.85
-136.53
-54.777
23.372
44.062
19.138
28.566
147.85
199.42
67.856
-62.619
-173.96
-217.53
-13.49
77.683
-67.77
-105.26
-80.388
123.43
312.1
190.14
39.964
-115.07
-120.23
73.74
110.14
-76.962
-222.79
-105.48
19.532
80.113
92.455
-34.462
-116.98
-21.139
-4.0781
-5.2303
-39.845
-100.24
18.142
104.65
36.766
62.778
117.26
150.08
115.32
5.8971
-172.92
-120.59
55.668
-10.444
-63.552
-102.63
-88.467
104.02
99.033
-22.153
-118.26
-170.96
24.183
237.44
129.91
-59.984
-146.63
-29.303
172
101.37
-33.639
-132.37
-181.09
8.496
120.43
53.307
-85.478
-67.656
132.68
134.66
103.8
50.618
-11.03
66.966
67.711
-48.303
-86.854
-49.712
-39.906
-10.696
-12.56
-150.38
-86.291
39.914
-21.148
-83.271
-69.795
-29.144
149.36
233.49
62.095
-74.823
-176.24
-114.93
121.44
144.72
2.6461
-95.931
-117.22
68.196
190.26
62.892
-151.99
-108.39
85.92
117.53
130.49
46.315
-101.85
-13.695
78.591
-30.003
-65.928
-89.598
-71.999
14.06
-36.66
-134.76
24.224
94.591
25.993
-30.024
-98.97
-147.75
35.145
166.13
100.1
13.643
-128.72
-94.196
154.04
187.95
45.203
-114.97
-199.32
-16.128
106.38
-45.711
-160.18
-54.428
165.57
281.35
185.24
-18.384
-89.872
53.739
43.023
-45.608
-93.636
-180.97
-71.019
52.195
-65.253
-47.391
-47.653
-56.03
34.731
9.7377
-101.94
-25.988
158.54
168.86
98.815
-36.473
-152.7
31.06
154.75
29.689
-100.73
-201.24
-130.22
104.35
139.65
-35.474
-131.32
-26.326
233.19
250.13
81.492
-106.5
-99.805
52.207
4.0142
-11.151
-95.024
-80.638
72.057
46.618
-11.953
-21.235
-111.49
-64.617
15.847
9.0228
-25.054
20.295
77.554
46.396
-56.442
-35.375
-24.2
-45.12
-41.514
-102.66
-57.32
17.025
202.17
328.96
154.31
-21.001
-79.007
-44.047
-37.459
62.39
87.869
-109.88
-306.1
-114.58
92.377
123.16
23.363
-166.7
-69.407
85.182
75.331
53.157
-24.005
-22.367
-53.863
-23.939
21.239
-12.088
0.95244
-0.89157
-67.837
-81.579
72.091
195.55
177.24
68.023
-139.32
-162.51
5.14
10.772
-130.42
-137.58
-102.86
55.026
288.67
235.56
33.326
-140.7
-124.94
89.811
138.4
-21.148
-176.41
-189.89
-33.315
106.24
127.01
-13.055
-87.462
18.883
72.661
52.779
71.651
35.052
25.557
14.564
-77.618
16.748
39.513
-66.688
-54.266
-65.099
-178.41
-125.62
85.743
191.98
110
-1.9854
-135.77
-36.597
196.39
150.15
22.285
-99.528
-212.86
-72.893
45.87
-71.522
-157.95
-77.988
147.28
267.68
165.01
-24.114
-92.355
-1.1819
25.542
4.3629
-72.148
-136.97
32.431
103.9
78.234
103.25
-30.139
-81.88
-25.669
-65.707
-107.38
-58.08
59.02
77.092
30.619
-47.112
0.82614
141.82
124.42
22.532
-73.281
-212.44
-168.58
59.022
62.605
-66.59
-129.25
-14.447
243.66
250.69
84.774
-128.42
-194.84
0.25511
105.87
32.997
-133.35
-162.28
13.557
119.97
134.19
22.804
-112.32
-5.4316
97.451
12.614
-18.615
-42.568
-34.191
58.992
23.93
-96.205
-2.4129
28.736
-35.55
-65.288
-171.82
-204.04
36.312
215.22
144.16
10.112
-130.71
-62.62
159.76
139.57
24.88
-65.325
-115.43
35.342
89.24
-68.779
-173.27
-108.78
97.219
237.4
177.24
-42.747
-147.92
3.3795
39.548
0.99713
-4.1237
-59.757
35.249
145.93
46.202
68.966
74.774
-5.1964
15.241
-60.472
-187.3
-170.1
-5.337
92.799
-10.014
-135.6
-169.32
41.732
242.82
167.36
23.583
-138.25
-196.06
-1.4441
102.68
-40.729
-133.93
-166.68
10.12
187.46
124.09
-52.277
-149.66
26.432
148.47
94.372
-73.448
-122.93
81.032
152.43
126.42
66.577
-94.549
-95.888
56.591
32.969
-39.029
-58.072
-33.138
-63.31
1.8837
93.811
65.174
79.03
24.121
-41.031
-13.551
17.589
1.9958
-5.3157
7.6824
-20.895
-12.33
-103.35
-168.98
50.579
82.618
-76.974
-171.89
-122.67
-0.82903
37.931
-102.64
-90.871
79.779
127.21
53.37
92.151
198.2
75.991
48.507
121.43
164.6
-13.66
-64.537
-1.261
-113.84
-75.366
8.0701
-73.484
-54.45
-4.7869
-120.98
-79.129
46.073
41.688
-25.482
-71.65
15.562
130.78
185.67
116.54
28.865
-122.46
-202.89
-2.1782
67.386
-63.858
-114.41
-160.12
-82.161
133.15
158.47
30.426
-51.476
69.378
173.74
93.302
-53.467
-185.27
-107.29
72.041
144.9
77.494
-34.641
-105.39
-60.481
3.7854
18.153
-46.174
-132.28
26.8
143.04
131.7
136.76
29.247
23.204
78.272
-1.0357
-211.53
-193.3
-34.606
-4.6525
-0.49801
-68.167
-179.06
-9.2528
88.633
-50.231
-68.02
-73.79
7.4692
215.33
182.36
26.683
-57.515
-66.227
124.56
202.26
89.032
-23.293
-133.88
-86.149
30.993
9.4713
-140.53
-157.86
77.205
128.03
92.804
67.891
-13.663
40.146
82.588
-27.069
-86.672
-53.126
-44.094
-18.619
12.994
-62.723
-11.229
66.267
25.383
-5.9056
-83.568
-203.86
-51.805
139.9
40.649
-55.022
-121.71
-100.45
143.17
156.65
16.496
-59.994
-127.27
5.5972
123.01
11.398
-114.48
-60.22
106.93
147.12
88.891
-47.342
-130.78
30.298
134.22
71.729
-3.4111
-136.69
-41.468
131.32
22.521
10.71
9.1859
-121.31
-121.17
-88.106
-93.771
-31.833
128.84
199.52
129.35
3.2386
-144.93
-13.601
145.49
65.478
-43.678
-130.72
-104.54
53.923
23.664
-150.44
-218.01
-102.07
177.14
336.72
186.97
-53.704
-134.19
15.679
76.893
46.854
-63.393
-140.4
19.005
113.44
-31.122
-50.513
44.914
135.01
70.904
-43.558
-163.55
-115.33
22.623
24.814
-52.319
-128.37
-146.31
130.94
272.82
127.63
-61.208
-139.7
5.6137
123.23
54.283
-87.385
-7.4626
92.085
49.747
-93.008
-13.917
-13.157
-73.395
-30.196
-81.462
-121.09
-52.16
15.928
68.904
78.495
-5.2458
-52.049
128.92
200.16
110.02
5.316
-158.09
-278.36
-26.161
103.73
-5.766
-67.343
-127.55
14.35
201.19
88.082
-53.938
-171.53
-47.346
141.79
111.72
-13.615
-82.095
11.194
106.66
127.64
85.286
-24.43
-68.219
10.724
16.964
-24.362
-103.43
-114.65
8.9004
52.567
-41.992
-33.476
14.954
43.201
32.518
-52.435
-131.62
-84.241
125
141.21
29.36
-36.212
-142.96
-11.13
151.63
69.814
-72.903
-182.34
-50.535
130.36
82.608
-63.275
-89.392
25.194
103.83
149.28
64.405
-81.275
-67.127
21.895
16.771
42.399
12.463
26.091
29.863
20.513
-45.529
-42.011
-72.416
-5.0066
114.12
-41.393
-184.41
-82.661
98.661
131.98
-18.457
-81.268
41.69
146.99
77.779
-91.255
-221.39
-209.73
0.80592
69.528
-20.411
-62.216
-52.084
75.342
211.43
121.88
-6.3794
-98.991
-58.426
97.49
101.61
-63.851
-172.43
-25.855
119.9
153.06
99.606
-36.571
-34.944
37.327
-50.392
-109.92
-69.34
-37.896
31.376
43.549
-60.782
-4.501
115.96
127.89
76.538
-3.8402
-186.78
-144.68
57.684
12.789
-52.927
-119.16
-97.295
139.02
157.42
-0.70436
-96.833
-78.883
117.92
216.5
44.539
-137.38
-127.36
64.18
171.92
140.2
13.578
-121.2
-61.629
8.7593
-48.608
-66.33
-132.94
-57.601
89.4
26.02
-2.0389
39.106
46.596
103.37
65.013
-119.93
-163.05
23.839
41.551
-0.87221
-45.515
-139.94
-0.91109
108.38
-10.734
-58.555
-86.018
-0.48128
167.07
74.793
-92.542
-144.06
-47.592
181.53
205.02
43.341
-92.588
-83.831
96.293
111.16
-9.9688
-142.77
-109.49
72.581
23.051
27.402
73.23
-23.254
39.887
92.458
-25.123
-96.064
-98.466
-86.96
3.7399
13.254
-14.155
93.017
79.465
9.5397
-13.29
-121.54
-217.53
-53.285
105.64
34.437
-69.729
-115.27
58.672
267.03
177.73
32.367
-120.34
-185.37
9.9659
96.483
-69.196
-198.99
-103.09
164.54
274.3
136.81
-14.49
-25.671
80.046
72.283
-1.9571
-164.79
-189.43
0.9655
16.071
22.817
31.749
-41.076
59.31
60.904
-109.48
-129.77
-37.491
40.096
93.559
6.6094
-40.618
84.489
132.6
118.8
39.144
-159.42
-192.91
24.107
14.179
-92.879
-113.1
-103.67
100.51
227.98
103.59
-30.626
-88.329
69.723
170.02
27.499
-164.29
-176.21
-17.487
102.18
144.92
42.703
-75.52
-10.307
47.287
5.2637
-16.842
-99.303
-25.673
101.48
32.557
-24.965
-62.37
-125.17
-51.601
-7.8857
-36.268
-14.216
43.026
-3.9884
-22.572
-45.268
-126.55
61.352
193.93
95.529
-11.564
-65.327
72.295
171.89
-17.808
-142.32
-139.68
-74.182
100.95
147.23
40.122
-39.753
-30.3
61.117
60.765
-21.98
-164.33
-100.29
93.439
107.78
109.07
44.264
-43.21
38.319
27.137
-70.933
-78.086
-85.492
-59.964
-14.441
-69.604
-67.481
71.062
84.378
65.902
-4.2474
-173.6
-188.15
39.253
110.59
-15.028
-121.62
-104.44
132.5
252.98
140.57
1.6517
-101.09
13.333
151.91
87.132
-128.67
-199.15
-24.564
76.805
123.08
61.583
-63.577
15.742
44.935
-35.312
-70.875
-84.556
6.9794
58.448
-41.205
-34.746
63.456
75.928
124.72
64.228
-161.34
-167.22
21.751
8.1355
-55.242
-87.544
-128.32
57.116
238.35
134.32
-25.67
-131.86
-5.6421
120.02
-1.3439
-110.26
-145.3
-36.973
155.6
141.31
18.757
-38.833
-34.549
23.38
35.063
-65.454
-162.8
-44.909
101.91
79.547
91.08
37.414
-4.4894
74.199
54.782
-137.49
-202
-51.507
-35.091
-58.786
-43.511
-57.811
107.35
251.44
126.69
-7.654
-113.77
-54.442
84.493
17.851
-108.31
-177.62
-89.776
153.02
244.99
104.52
-39.676
-12.899
40.092
-54.054
-105.36
-147.07
-76.026
73.796
38.686
58.28
67.172
-3.8477
62.334
89.496
-44.424
-128.25
-58.33
-19.65
7.847
-31.541
-101.86
51.298
114.33
49.691
-9.226
-24.112
60.16
45.697
-99.619
-174.35
-194.8
-110.61
131.77
297.87
185.15
43.911
-78.487
-40.932
73.663
13.141
-157.51
-166.4
21.951
48.538
36.604
61.544
-33.121
48.101
97.147
-54.924
-166.33
-69.175
84.399
103.51
25.977
-106.6
-18.122
184.16
173.29
97.502
-65.548
-219.25
-98.758
17.634
-71.6
-139.37
-125.77
62.447
255.1
172.06
-31.622
-141.25
-13.364
84.571
63.684
-19.08
-146.74
-51.201
87.721
119.94
103.61
-37.642
-20.443
50.451
-26.776
-67.799
-98.63
-76.036
37.3
12.521
-34.102
3.9632
-18.652
3.3657
6.5672
-35.243
-34.559
78.949
100.93
0.1993
-21.931
-33.531
-21.604
40.002
90.382
22.687
-59.591
-27.348
-21.689
-42.117
24.296
79.978
19
0.32906
81.955
203.1
286.37
289.23
166.57
107.76
39.687
-68.563
-182
-222.98
-244.08
-212.75
-254.04
-278.57
-141.88
-233.55
-394.65
-565.23
-660.84
-114.89
361.53
407.41
427.6
484.82
325.26
78.549
11.132
54.273
136.94
189.22
147.67
-58.588
-194.55
-154.2
-7.8756
140.33
199.46
93.527
-76.053
-135.14
-35.59
-44.46
-124.92
-134.46
8.2434
89.505
116.58
107.8
34.592
82.528
37.838
-64.868
-121.97
-87.434
-20.303
27.337
-6.3702
-107.92
-26.819
122.88
121.26
68.947
-31.863
-178.13
-93.349
71.15
9.6536
-91.148
-151.73
-64.324
217.26
221.7
83.648
-7.5466
-87.046
-1.3439
25.869
-94.552
-171.95
-17.541
83.093
129.63
127
-7.1762
25.931
59.299
-5.8046
-71.037
-116.46
-100.34
47.297
76.713
-45.218
-29.058
45.783
54.106
36.829
-87.319
-222.24
-61.781
74.257
9.0004
-33.857
-83.863
28.636
219.97
140.99
34.301
-86.158
-127.04
46.04
77.15
-55.016
-157.47
-77.856
96.865
198.16
121.39
-13.236
-28.094
60.16
39.455
-39.026
-134.78
-169.7
-16.329
46.787
37.712
73.28
25.004
38.099
17.783
-88.901
-170.28
-51.143
88.685
56.493
2.1117
-113.04
-16.971
156.84
112.85
48.801
-90.676
-189.24
-33.257
21.62
-100.91
-165.71
-63.267
184.07
275
157.63
19.578
-0.60764
91.948
55.817
-33.195
-147.71
-174.01
-2.1899
53.782
75.499
61.798
-36.589
21.933
42.411
-85.207
-155.64
-46.722
51.127
55.606
-5.5909
-33.209
115.9
162.25
99.808
35.501
-163.68
-219.51
-19.759
1.4094
-110.38
-183.63
-102.27
175.95
266.1
121.24
12.545
-39.528
-3.0793
41.435
10.272
-114.32
-133.49
10.255
5.3751
78.515
81.103
0.7842
54.757
53.186
-73.014
-144.02
-57.92
2.3255
12.774
-11.989
19.666
175.93
159.99
56.439
-29.309
-209.44
-190.76
5.215
-13.246
-118.95
-144.88
-7.9846
285.27
285.83
68.029
-77.936
-148.41
-88.481
-10.933
-9.4925
-117.18
-99.349
35.345
109.51
168.31
40.293
-34.569
38.942
-1.859
-135.98
-138.66
-4.376
84.221
98.703
28.119
38.508
127.25
99.908
72.419
-27.36
-252.56
-216.44
-24.848
-35.771
-115.61
-161.24
-37.631
210.95
254.13
95.578
-33.37
-21.829
19.075
-11.723
-87.962
-194.4
-94.699
84.97
156.59
202.39
68.814
-30.254
20.188
-4.9971
-111.79
-105.38
13.366
79.98
93.465
3.3081
-43.721
120
141.45
100.83
-20.886
-204.01
-141.14
12.803
-57.263
-145.74
-163.41
-44.753
169.57
244.48
126.63
37.302
29.842
22.037
-58.05
-132.3
-191.59
-99.818
74.703
117.29
191.43
154.49
31.385
28.444
-17.35
-193.97
-203.48
-32.138
3.3055
-5.4313
-26.359
13.402
202.75
175.11
71.868
-23.807
-175.21
-117.54
17.364
-35.802
-129.18
-110.68
28.852
185.5
202.98
75.591
-21.711
7.2389
4.9414
-77.279
-105.46
-163.4
-77.058
56.698
21.949
28.539
45.42
34.203
50.437
-22.419
-178.05
-184.03
-37.108
19.249
58.971
17.18
72.351
198.13
131.81
74.117
-49.48
-217.64
-138.59
-38.919
-113.21
-176.54
-115.26
96.379
307.54
251.9
45.686
-49.77
9.0053
-38.974
-99.887
-89.589
-107.37
42.592
170.25
111.18
106.42
22.745
-33.019
-14.643
-78.332
-205.9
-132.45
47.323
47.105
-4.0323
-40.473
25.496
248.02
202.53
66.803
-26.886
-195.42
-132.27
64.968
13.964
-147.26
-150.92
38.619
220.97
188.88
-8.2254
-67.763
58.481
51.401
-76.839
-133.16
-143.88
34.2
179.07
112.99
109.37
51.535
-14.345
2.9572
-70.844
-229.17
-145.8
31.829
47.756
41.42
-11.952
66.751
201.72
120.22
36.629
-68.007
-188.34
-133.25
-69.973
-141.11
-195.66
-47.664
186.22
317.22
205.25
26.691
-14.515
42.299
-33.249
-139.04
-179.4
-193.62
-23.146
105.29
111.58
156.91
89.147
19.573
14.959
-83.874
-261.52
-159.07
-24.504
-29.771
2.5342
18.066
137.25
257.47
141.03
53.89
-73.557
-229.74
-131.8
-12.972
-66.82
-138.87
-23.593
192.51
274.01
142.94
-24.1
-33.487
-6.1439
-83.037
-103.82
-110.09
-93.473
39.49
87.549
81.739
132.67
78.094
63.558
28.711
-120.98
-260.97
-104.04
12.067
-6.3338
38.151
-5.7439
81.202
197.79
72.19
-58.257
-173.27
-161.12
-53.338
31.308
-25.195
-105.04
31.921
164.05
201.32
166.51
26.333
-2.235
20.002
-102.05
-152.97
-126.33
-56.564
49.717
75.555
105.82
157.23
118.2
90.9
36.185
-151.95
-324.61
-162.56
6.7395
17.976
20.504
-16.541
103.79
208.96
87.825
-48.097
-151.94
-115.89
-26.838
-8.5446
-96.305
-107.79
63.394
209.2
245.95
121.07
-16.41
6.4667
34.439
-60.565
-136.49
-205.28
-121.92
46.556
72.95
97.014
113.16
69.917
89.744
39.837
-161.38
-242.79
-90.14
-41.67
-42.017
-36.315
0.23948
197.9
205.06
47.711
-51.937
-151.74
-148.08
-60.709
-65.329
-132.76
-90.807
78.98
236.65
281.71
133.68
-42.13
-67.997
-74.238
-120.37
-101.7
-67.104
52.055
147.5
91.005
105.81
148.47
85.762
83.466
24.739
-157.82
-267.3
-185.67
-141.51
-121.48
-74.066
-12.906
180.4
233.28
106.69
-23.236
-66.769
1.9622
4.3429
-55.282
-127.28
-54.576
105.34
117.29
171.25
86.633
-76.22
-77.064
-62.245
-169.68
-210.9
-40.718
145.45
173.78
104.1
73.457
192.03
192.65
47.898
-72.161
-225.21
-294.19
-131.28
-19.046
-33.557
-76.705
7.1498
225.69
320.75
126.8
-70.681
-79.646
-65.448
-122.81
-72.09
-74.687
-77.241
42.053
86.141
131.36
139.78
34.33
55.235
55.272
-106.38
-249.14
-100.13
37.607
32.127
34.827
-16.4
0.15168
148.71
70.994
-78.998
-197.17
-146.03
-24.247
46.525
25.109
-33.248
101.86
