-18.844
-20.823
10.313
2.8528
-9.6769
-13.606
-6.4832
-11.223
20.16
-6.0497
11.235
-37.676
112.67
-138.89
-67.019
57.753
-4.3043
34.439
6.7196
31.142
26.874
22.71
-64.275
-198.53
86.992
134.94
14.181
-100.86
34.458
91.445
-31.515
-37.467
-65.476
32.508
59.523
-66.839
-9.4766
42.346
28.265
-84.33
-8.6316
29.366
32.131
43.448
-17.209
-22.257
0.56666
24.247
22.987
-51.474
-5.1204
4.5196
57.22
-12.566
-10.559
-6.8196
-15.173
-8.4875
-3.5388
3.9006
-10.269
10.129
2.3328
-16.453
-16.667
70.783
-26.478
-18.417
55.6
12.654
-2.9588
-2.7118
-12.659
-10.899
-3.2417
-38.978
9.8341
14.646
-0.63715
-5.3344
4.639
5.8348
-5.3199
-16.056
-2.0116
3.9053
-5.9546
-6.4854
3.4965
1.0868
-14.395
-1.4975
9.841
0.30862
-14.111
-0.10087
12.404
-0.50535
-14.068
0.4276
10.969
-8.2068
-7.1615
10.744
1.8197
-12.989
5.9767
13.984
-11.262
-7.2428
15.267
10.008
-7.5426
-8.1589
15.5
6.2425
-12.647
-1.1369
14.449
-5.0276
-11.307
13.168
10.308
-4.9789
-12.143
10.164
11.388
-4.817
-12.97
5.3746
9.3381
-8.0152
-4.9078
8.3733
5.0509
-11.927
-2.1385
11.703
2.5221
-13.609
-2.8233
11.576
-1.1508
-11.917
4.8256
7.4562
-10.45
-1.8956
11.102
-2.4148
-12.751
8.7678
11.069
1.0577
-16.715
1.4507
12.042
-3.9324
-6.2539
9.9052
1.8311
-8.0269
4.9264
10.031
-6.4611
-8.8473
11.364
6.6939
-3.3151
-12.778
4.47
6.3195
-7.9582
-4.9211
7.356
-0.14345
-10.017
3.789
6.9263
-5.1961
-10.22
6.7258
6.3685
-7.7672
-7.1415
8.1986
-4.4158
-8.6033
7.831
5.8735
-14.033
2.4879
22.477
-3.0316
-18.019
0.013857
17.952
5.8762
-7.1589
-16.427
13.288
-7.7598
-0.62024
-28.602
30.334
-9.3457
57.875
9.8719
-100.05
64.906
-94.476
192.63
52.902
-237.74
-235.1
196.53
144.27
115.71
-76.075
-293.07
78.467
158.33
-44.211
26.809
-13.487
46.508
36.463
-80.23
30.172
55.041
-62.052
-3.9594
-25.665
-82.341
76.153
43.419
-33.397
11.639
127.98
-69.27
-40.085
-22.499
16.273
-3.6432
-145.41
251.32
-150.45
35.466
34.16
38.016
-42.99
-105.34
75.529
45.004
-106.74
16.844
28.273
-2.6741
25.166
11.787
76.283
-30.825
-78.436
-77.114
-140.61
242.35
70.02
-124.61
115.31
-2.0005
-57.93
4.5916
10.87
-14.729
-4.6798
1.5346
-20.649
1.4858
26.518
4.7977
10.75
-9.8165
119.45
-71.359
-75.54
-19.592
-22.817
29.37
-12.409
-25.768
25.843
28.331
42.323
-128.12
40.421
117.2
-84.844
22.077
-13.011
7.6388
-74.035
60.46
81.059
-67.551
-6.0268
21.978
-6.5366
-25.092
-15.697
4.3337
31.218
30.989
32.261
-66.255
-26.872
26.616
-61.317
80.247
135.77
-130.01
-58.971
28.9
35.724
13.562
-53.954
-35.648
47.299
13.442
52.088
-17.856
-106.58
-35.719
62.397
-34.974
66.962
104.06
-100.24
-3.2919
10.301
-4.7049
-29.291
-9.4027
16.828
-12.418
-68.432
107.79
76.088
-45.489
-39.859
-9.633
-27.457
11.03
74.253
-25.096
-11.94
-1.3836
-16.186
-54.94
70.751
36.465
-43.66
6.3912
-4.3884
-25.482
17.444
32.046
-4.416
-24.522
-29.719
20.684
7.3639
-6.7755
2.759
12.057
5.769
-14.929
1.4434
-1.7031
-15.779
-3.66
23.992
20.193
-48.333
13.778
9.4497
-6.404
55.05
-7.9518
-81.665
-16.226
31.271
2.7803
2.3424
46.517
-38.989
12.08
33.798
-38.127
3.0001
6.8049
-0.15434
40.264
-78.103
-1.0342
20.899
13.397
-20.259
5.2492
-8.5336
-15.537
54.334
33.32
-43.389
-11.2
16.397
-20.184
26.794
-42.922
51.906
-16.642
-6.2553
-12.447
9.7816
-26.016
30.842
11.644
-27.359
14.851
-25.306
14.878
22.909
-13.786
-9.7104
19.381
-1.6569
-18.294
0.42887
4.1151
-3.6026
-3.3596
3.381
1.1155
-7.9975
4.4264
-7.0801
0.93852
6.7813
6.7164
8.7623
-1.6629
-32.132
-68.505
71.358
64.212
3.6494
-13.778
34.212
-32.575
-47.53
25.001
-0.10434
10.565
-13.692
-1.3882
-15.89
-2.8483
4.5369
-2.0387
9.5128
13.975
3.8788
-10.047
9.5762
-5.0721
12.935
-38.217
-8.055
5.0769
37.855
24.91
-27.187
-78.668
44.601
30.166
-52.523
48.033
-25.94
48.941
-47.065
-7.1982
49.193
-58.406
37.456
48.073
-39.785
-29.465
-33.036
115.04
-5.0699
-98.849
77.73
-69.177
-40.12
-3.9243
9.6406
14.011
-12.722
58.091
13.259
-10.156
-12.425
-32.271
3.0674
-2.9346
66.136
15.06
-74.29
91.297
22.006
-67.132
-6.0259
10.687
20.482
0.3575
-1.1984
-2.5552
-17.563
7.1512
40.425
-24.227
-25.535
-20.98
2.2221
-9.7018
-10.535
21.611
8.51
-3.6611
10.767
-10.145
-18.475
3.3257
17.49
27.218
-18.149
-18.844
-26.501
26.302
-22.023
-12.825
20.359
6.7753
20.845
-25.884
-39.444
19.136
22.785
21.265
-57.791
102.43
-36.654
-6.7619
5.7878
-21.969
36.757
24.27
60.677
-82.002
-68.463
43.147
29.504
-7.4636
-16.206
1.6439
-48.356
8.5314
27.902
18.728
48.68
-55.735
-11.019
-24.687
18.301
-18.149
23.902
-7.1618
-44.437
14.024
52.759
8.5454
-20.167
-17.46
-15.429
54.023
8.7359
-47.335
52.535
-17.2
-55.699
108.7
-27.714
23.528
-32.366
-4.2154
-5.9999
8.4388
-4.2581
0.16692
-9.822
-6.1105
1.9608
-5.983
-0.25877
-1.9617
-8.0154
2.8303
-5.7786
-13.707
21.341
12.114
-6.6823
-5.4064
6.4505
-8.9923
15.467
-22.038
-14.969
4.9286
-28.019
20.477
38.259
-91.826
93.421
-32.986
22.026
56.937
-104.28
-39.138
75.689
6.9757
-38.841
80.125
-33.973
-1.7268
-83.235
125.45
-77.041
44.205
20.845
-84.778
-8.7439
-172.1
190.29
131.61
-73.69
-114.56
38.901
117.27
-3.7413
5.4251
-92.586
5.0238
14.144
-26.221
25.058
-1.5177
-26.668
1.1517
151.9
-14.578
-87.875
-44.851
-7.2505
33.145
-5.6001
22.831
-33.689
59.431
-47.032
-76.495
76.929
0.0085287
11.919
-21.301
-14.937
70.874
2.3846
-48.59
-4.914
23.706
-40.315
23.236
18.525
-46.93
-27.358
107.43
-28.18
-17.468
19.266
0.44541
-23.278
-5.7169
11.89
-37.283
-11.822
82.363
21.047
-38.999
-25.923
-2.2587
-4.483
-6.2251
10.764
-6.5651
14.535
-10.95
17.627
20.248
-32.643
3.6584
13.908
-5.7286
-15.175
5.244
15.997
-14.331
-6.1298
14.456
9.6457
-15.726
-3.6671
28.3
-30.515
16.516
24.368
-46.927
46.22
-37.412
41.335
-27.505
-7.5245
16.268
20.547
2.3251
-42.959
14.097
-20.771
81.562
19.399
-98.001
-48.56
90.832
-33.475
-64.107
29.571
61.249
26.837
-26.276
-97.774
22.306
158.19
-41.761
-77.692
16.57
10.781
-62.712
6.1211
-164.03
157.29
164.35
-87.873
-28.014
-31.455
57.837
-46.054
-0.66566
13.315
-23.506
-48.222
107.31
52.573
-61.319
-33.682
-46.893
86.482
-16.959
1.976
-13.743
45.232
19.479
-46.499
-44.13
-102.97
125.6
55.359
7.5668
-17.995
-1.0468
31.925
-20.248
-36.24
0.2247
-14.343
-8.774
-22.985
-27.362
8.3443
20.526
59.612
-46.859
-19.381
45.285
27.561
-21.474
-39.564
13.673
-17.607
21.721
13.478
-55.793
35.08
-65.096
74.378
94.216
-79.831
7.0861
4.4012
-30.15
-20.599
59.294
-22.689
-27.986
-4.5967
21.09
15.702
-3.8934
1.0874
-13.479
-75.617
105.38
17.68
-43.115
5.5633
21.809
65.74
-65.743
-120.6
67.791
-13.578
-0.86828
37.595
-29.726
29.712
2.5802
-18.924
-2.2605
-7.2326
25.382
78.091
-31.38
-106.69
37.268
30.071
-0.30721
35.455
-11.453
3.1707
-26.375
-53.711
5.3777
-12.78
56.012
26.388
-44.343
29.909
52.173
-17.798
-16.06
-16.7
-16.309
-4.54
-51.436
77.175
63.741
-46.493
-119.03
-11.103
156.85
-128.21
-89.806
208.9
34.191
-48.203
-35.792
-37.207
29.99
18.679
-32.263
27.764
-25.827
-54.724
89.486
5.9823
-31.226
24.568
-14.615
-24.782
18.97
9.3492
22.339
-12.768
4.0797
-22.074
-27.317
22.47
-9.8853
-35.204
-8.4979
135.92
-6.6622
-66.146
-10.07
14.6
13.644
6.6907
-13.073
-17.553
21.986
-6.9963
-17.009
46.321
-23.705
-1.59
-22.096
-10.322
-12.867
-32.772
54.484
-11.703
-45.705
28.627
37.852
-18.936
20.938
6.3126
-38.785
-88.825
97.636
92.726
10.584
-67.688
-31.262
-3.3754
-41.968
33.154
62.206
-14.8
-19.661
-11.11
20.8
-29.613
18.783
-49.187
32.407
80.112
7.0404
0.23332
-69.149
4.4331
1.9956
-58.133
46.887
62.065
-36.306
-27.908
-8.8534
41.125
4.4544
22.297
11.673
-134.09
37.692
37.863
-23.882
2.8594
-10.268
12.188
16.933
30.41
-30.731
1.7519
-35.756
20.547
32.853
-43.52
-7.6206
17.082
-31.424
20.37
31.141
-4.1459
-6.3963
-0.11006
-9.601
-8.5151
5.1685
18.588
10.291
-3.1926
17.317
-8.4838
-49.494
-27.519
32.581
21.723
12.67
15.893
-6.9792
-11.255
-6.5529
-9.3796
-13.586
-64.464
85.284
90.174
-44.744
54.688
-85.656
-17.435
-9.2103
-3.8509
-10.774
-10.714
21.467
8.9897
13.184
-18.161
5.9881
12.831
-52.647
-50.339
154.34
9.2643
-85.69
4.8434
22.235
-26.594
11.098
52.396
-55.009
-35.927
80.19
64.693
-112.28
-1.621
23.523
20.082
-53.825
-15.154
-17.058
-4.5064
35.109
23.027
4.9625
-27.749
38.093
25.126
-6.8995
-1.0477
-33.622
-44.896
-32.941
-24.295
164.09
15.536
-84.079
25.105
-23.723
13.117
-11.741
22.14
-14.72
0.82726
14.692
-12.63
5.6501
3.3428
-12.113
6.8831
-0.052019
-19.513
-3.8893
21.219
-2.9593
18.588
-26.644
-21.477
42.914
12.849
11.645
-21.311
-66.094
10.578
0.61219
69.395
-69.708
60.612
2.9094
-43.436
12.65
41.577
-27.001
-22.217
54.62
7.3914
43.822
-57.321
-79.326
12.042
27.778
19.753
-8.9153
-20.82
25.907
87.233
-88.322
-30.278
2.1666
-53.367
57.831
40.081
14.702
-35.957
14.075
-19.158
-29.673
10.627
31.093
-42.475
46.658
74.901
-40.316
-58.725
22.774
-6.8061
2.9473
-69.765
8.0803
89.482
-32.401
-65.216
60.323
-31.908
-1.3934
34.467
-27.138
-2.394
19.769
4.0234
8.357
25.204
-24.033
7.2571
-11.123
-20.23
-64.969
-44.623
161.61
47.879
-41.326
-32.074
-9.9051
-8.5996
35.301
17.967
40.369
-82.097
-74.119
44.916
-5.5893
13.401
7.5831
34.475
-2.2292
-8.2162
-21.004
-19.882
-19.138
-10.604
134.06
-46.314
-38.995
-4.6741
-17.253
62.597
15.984
-40.042
-30.921
5.5778
18.27
-7.8999
-9.6246
14.051
-25.769
32.381
-1.6955
-9.9845
11.803
-9.6736
-10.055
22.203
41.709
17.263
-186.38
106.06
69.581
-42.21
0.114
2.6754
-3.9412
-8.3521
2.5694
-10.022
-45.314
30.358
23.865
-12.771
17.172
-9.6275
-8.5698
7.7808
3.9658
-10.675
-10.042
21.689
0.059044
-4.197
7.1288
0.58081
-5.6396
4.1455
12.716
-8.1732
-0.42184
6.209
-6.4498
-4.5941
24.635
-33.045
0.1711
28.54
-44.941
62.564
-87.967
21.452
64.905
-139.81
116.91
2.896
11.276
-26.053
-3.5771
-5.9379
2.1598
-5.36
6.296
1.1241
-16.177
5.882
1.0643
-10.457
2.4948
5.3086
-11.572
-1.1189
11.532
-9.2915
-3.0073
9.4087
3.8258
-2.5988
6.3891
8.4225
-10.441
-1.83
9.3294
-1.7525
-13.334
10.35
13.061
-0.70453
-10.462
5.9739
5.9058
-7.3307
-6.3341
4.9479
-5.1918
-19.577
-1.3173
21.088
5.4625
-3.6399
17.017
5.1326
-45.518
-0.8992
98.552
-37.247
-2.5665
-61.558
0.33124
-23.204
-18.026
111.01
-0.59703
-21.154
-42.592
-56.714
42.552
34.281
34.271
-0.81219
-54.737
-1.2836
44.893
-20.479
29.469
-19.793
35.624
-20.134
9.192
-33.095
43.586
-43.44
-13.706
90.442
-47.094
-61.235
41.546
44.823
-63.403
-3.3157
30.484
-5.2246
17.038
-11.365
-0.52074
-3.1999
-11.563
29.297
-37.168
-41.903
22.024
28.584
-11.752
52.101
32.846
-62.88
-26.647
5.1868
-11.93
32.823
-37.762
-87.628
121.38
59.216
55.024
-87.788
-113.01
7.2508
63.922
-58.553
8.7324
46.279
18.904
32.625
10.829
-5.3624
16.245
0.030143
-54.502
-30.821
-8.5699
56.414
-13.923
-35.581
-73.276
96.933
60.986
4.332
-9.8733
-25.72
-58.502
39.648
40.648
-41.306
-20.35
-15.313
20.885
103.26
-157.57
-74.347
94.507
2.641
58.447
-23.37
32.024
19.474
-25.865
-82.122
-0.29434
52.911
23.572
-46.109
114.91
-80.75
63.482
-13.685
-71.034
18.788
47.964
-7.4217
-29.586
-2.8995
31.602
18.435
-4.0266
-53.816
-36.831
61.987
-23.279
3.7656
-24.043
21.914
11.311
-40.232
7.2894
20.844
-12.225
-12.185
-0.23244
22.773
-2.8917
-55.679
-3.3698
18.956
76.317
20.723
-52.064
1.9983
38.448
-84.608
-34.329
45.745
38.708
-7.4716
24.754
-46.668
-34.124
7.3801
-32.074
68.703
18.481
-37.366
31.721
54.635
-37.806
-92.295
94.602
-16.736
-17.629
-6.6425
-58.391
16.047
74.182
23.224
19.222
-20.975
-14.631
14.24
-21.518
-33.672
-18.595
-22.166
10.563
-10.316
29.033
16.829
-22.909
15.096
27.464
26.343
24.189
-29.449
-35.879
30.959
-29.334
1.9105
-48.543
-29.454
-0.44254
-15.113
47.627
-6.763
32.834
-100.58
87.491
43.767
-13.619
-33.036
48.167
24.344
-5.2908
12.822
-33.262
22.565
13.772
-29.986
28.64
-58.067
66.247
-12.253
-23.088
-16.466
13.032
52.419
-5.3683
2.4051
-1.1751
-52.582
-9.6354
-17
36.812
24.319
17.016
-5.3752
-3.7236
35.286
-34.28
-8.5366
1.5508
-49.641
18.688
-5.9247
-2.452
2.214
-32.024
69.665
-29.472
-84.014
-22.073
8.2922
40.577
-24.313
37.33
-2.5907
-6.5471
35.444
-28.539
45.913
15.822
-7.1049
0.05811
2.9477
11.312
-8.1675
-23.128
-33.66
-3.1576
81.066
8.5384
-45.024
-30.942
49.939
37.137
13.642
-57.217
-15.886
9.9722
42.293
-18.574
-38.588
-20.956
18.034
6.6013
-10.077
2.2078
-9.4523
4.2945
-1.2741
-10.806
2.3203
-19.122
28.817
8.5551
14.057
-14.146
-33.946
11.071
-16.981
6.5323
52.067
-14.562
-60.362
7.4684
-23.242
54.262
13.594
9.3054
-2.8437
4.2246
16.407
0.098562
-14.817
-20.081
0.10093
-13.448
21.24
-18.095
14.471
30.988
-15.998
20.322
-11.834
-9.6346
-3.9994
-6.4219
-19.602
5.659
31.374
-6.4633
-9.0563
3.5714
0.085469
-9.1162
0.70236
-26.963
7.8818
4.6241
-1.2554
34.533
4.5167
-23.765
-6.1898
-34.08
42.332
-25.518
-35.832
3.5603
13.868
47.136
11.566
-24.211
-45.163
28.407
16.407
14.85
68.829
-65.794
-27.82
25.448
21.331
35.137
-30.357
21.861
-17.396
-5.5161
-35.255
-32.357
65.215
-7.5205
-32.437
21.778
-6.4852
13.527
8.7508
-15.002
17.934
25.673
-37.63
-32.929
-59.36
25.268
65.95
-11.414
-46.361
-11.405
-24.819
15.519
39.078
-1.5623
1.3304
1.8632
1.0136
33.679
29.21
22.052
-1.9373
-0.27614
-30.448
-71.908
45.38
30.421
-32.131
15.636
57.766
-29.16
-81.87
7.7044
36.398
-31.906
8.3486
12.971
6.7855
-6.7996
6.1651
-16.279
-20.911
73.068
-19.353
-0.80107
-11.356
-45.147
-21.497
89.682
1.9539
-31.543
-26.78
0.724
45.256
16.866
8.9855
-11.766
-6.4484
-11.288
-126.88
107.17
39.161
-91.389
81.057
3.4634
-30.662
-22.53
25.622
-7.6842
6.5139
-16.137
-1.441
16.679
-3.5733
-77.211
7.3564
75.388
-34.673
19.85
-6.3645
-8.3794
12.952
-17.099
1.6192
22.107
15.215
-12.704
9.5155
4.2886
1.7978
34.637
68.376
-23.133
-17.347
-39.777
-14.614
33.444
3.7376
-31.759
-21.93
6.3538
51.175
14.94
12.82
-4.7085
-58.592
11.702
38.012
-36.732
-33.36
-3.5515
-34.985
18.047
-24.552
-27.117
10.83
-6.7844
21.282
0.87897
-11.213
-13.806
28.362
-12.105
-59.399
98.389
42.736
12.94
4.0958
-53.919
13.707
2.0644
4.9412
19.07
5.5392
-9.2588
-3.8933
1.3008
-15.123
-16.217
16.049
5.3702
-8.6104
-34.257
19.444
-28.132
-13.04
31.825
-3.4141
6.3632
4.4244
4.5108
-8.9121
23.132
16.779
-27.597
-34.531
28.771
3.0191
38.001
-30.444
23.318
13.438
-44.657
16.447
-14.064
-4.2847
11.744
-2.955
-7.2596
15.007
5.3202
-31.491
12.289
60.274
-0.51812
5.7052
23.593
-75.866
-16.051
-12.978
64.356
-13.76
-38.106
-18.092
3.574
20.042
-6.5846
-10.283
27.395
-59.591
-44.191
38.461
5.6618
34.143
5.5568
-16.725
-1.8327
38.709
26.755
-94.3
43.256
47.849
18.071
-32.235
13.991
-12.022
-62.902
-65.993
29.31
85.039
-4.6235
-5.4103
28.567
8.8375
1.6212
22.139
-38.229
-63.978
21.541
9.798
-49.619
82.535
39.283
12.412
-43.161
-10.516
-40.427
24.82
29.321
-17.157
-14.333
27.828
19.469
-32.089
-14.444
-4.0068
-10.778
-1.5334
5.1485
-8.074
-11.925
17.418
-5.4198
4.1148
15.1
38.495
-27.018
-31.368
-10.405
-11.242
-9.3093
47.96
-30.904
42.29
4.6028
22.479
-7.3873
-32.523
33.886
-1.9419
-52.854
-35.32
75.08
39.257
-63.358
3.2319
-27.114
12.895
-34.721
7.5381
80.471
-4.1879
0.78249
-54.133
-19.948
27.745
-17.52
31.07
22.201
-21.729
52.806
-7.2036
15.09
-36.503
-78.769
21.104
131.53
-36.777
-33.732
-6.991
1.9627
9.0547
-11.883
-7.416
-3.4032
-10.335
0.59045
-3.5233
-8.833
7.2805
1.3154
5.6414
15.282
-5.3234
2.6232
0.31854
-13.039
-1.3571
-4.8172
-5.1893
5.5372
-10.132
3.0394
3.3445
-6.3131
4.6633
-0.939
-5.6855
8.5995
3.9833
-5.3765
10.061
-1.8569
-14.298
-16.529
-17.569
47.41
52.086
-36.845
3.3425
-7.1072
-25.878
-3.003
13.197
25.05
-38.064
-15.091
44.07
16.051
20.137
0.1996
-56.224
-0.32056
-7.9161
5.3211
57.551
-114.81
32.359
58.77
-2.5831
-12.61
28.861
9.8854
-1.1806
-30.339
57.441
5.1458
-124.28
38.313
12.795
-11.595
8.7484
44.76
2.7535
-85.262
-34.62
49.345
14.33
65.992
-19.394
-73.787
61.595
-73.187
27.681
46.775
16.548
7.3904
-51.113
-2.9579
-9.5762
-10.141
7.846
7.6499
-15.08
1.0969
26.763
4.9447
-38.683
4.8111
18.27
-9.0711
3.8656
6.9895
7.4951
-13.397
-0.97643
30.323
-29.275
7.2649
15.978
-23.682
6.6
16.4
-1.1854
-42.286
-2.2972
39.018
-1.8936
4.8884
21.522
19.01
-6.7287
-2.9842
0.74669
-30.217
-1.4093
35.47
1.3991
-26.134
7.4569
-1.5252
-5.4366
-2.4983
22.673
-1.7697
-10.635
-15.015
0.70514
2.2924
-10.372
-3.2867
6.7531
-1.6912
-14.402
2.9563
8.6647
-5.7539
-12.788
5.7966
2.0962
-15.991
-7.2488
9.0921
4.5816
-11.281
7.8851
8.5589
-6.3277
-11.485
10.601
15.416
-10.577
-0.5295
28.646
2.0993
-14.213
-0.62916
12.139
-17.431
12.824
12.857
-14.948
-27.706
-9.8085
35.113
-15.387
11.931
17.358
-9.8201
14.308
36.978
-28.67
14.105
17.763
-12.368
-41.491
-25.778
11.441
23.885
-19.824
-13.536
10.134
-12.032
14.053
13.724
-2.7315
-14.152
27.258
-19.494
-7.0436
-36.277
52.962
30.441
-44.784
20.751
-20.655
20.212
-3.4042
-11.448
-12.101
-36.977
25.95
-1.0675
-8.4402
21.106
-9.0858
19.723
-7.3076
-23.694
14.243
-25.132
-20.316
70.677
-46.981
42.962
-69.754
75.662
60.813
-74.354
-3.7864
6.4147
39.678
24.229
-37.481
-33.64
-22.624
16.865
54.253
31.81
-77.743
-47.051
37.512
-5.3108
8.063
13.632
29.933
26.911
-36.75
-23.162
-0.80721
34.113
0.40824
-16.629
-7.5888
-15.587
-5.6145
7.4081
9.8788
-45.868
76.21
15.237
15.789
12.817
-56.516
-27.119
7.0808
22.825
-67.817
13.283
83.397
-15.735
-5.5094
12.677
-23.163
-37.178
37.057
-12.561
-15.986
-6.2059
17.367
32.564
-30.733
-69.835
-5.8377
24.051
41.117
29.272
-11.278
36.814
-37.258
-6.0932
5.1079
-13.459
34.376
-35.986
-45.174
23.232
42.934
-61.794
6.637
-8.0197
8.5407
-35.963
10.762
66.742
41.054
-38.909
-5.6872
-7.6593
-49.546
-15.337
40.921
77.323
4.526
-33.818
-10.101
13.644
21.933
-0.44186
-20.215
-40.643
30.23
-13.729
-26.64
-3.2754
16.105
10.622
-20.956
0.32929
15.145
-2.2583
-6.3997
14.081
14.742
-4.7233
-15.023
0.58247
12.433
0.30574
-9.7905
16.153
-8.4213
-1.2716
2.5472
-7.7788
-1.9694
6.7552
-5.4091
8.9297
-5.6478
-10.707
8.9486
-10.782
-8.5165
5.0862
29.176
-16.272
31.951
66.219
-67.584
-22.755
14.526
39.634
-112.29
-1.5747
33.944
18.994
-28.197
69.798
6.9129
-39.067
-14.179
10.719
8.2336
9.4603
-26.616
-9.0647
2.3504
3.4634
1.887
18.105
-27.951
39.423
49.564
-85.136
27.046
-10.639
-2.8613
-4.1079
16.455
23.743
-45.547
15.791
-16.535
-19.094
-8.8401
20.461
14.498
0.95608
-3.8086
-18.723
57.322
15.131
-38.294
3.2461
-7.5667
-0.97175
17.798
-4.1351
-18.195
28.56
-7.9639
-7.6183
3.3936
-30.015
18.519
1.0246
-5.5701
-1.3259
-0.82874
-27.068
-6.756
27.249
-9.3078
-15.006
42.814
1.0352
-30.617
-5.6886
47.287
-20.942
8.1066
32.371
-22.354
-25.065
10.093
-38.406
-7.2224
9.6565
69.298
-12.656
-46.836
2.3787
6.9197
13.802
2.8241
-2.8852
-3.5599
5.4537
-1.2779
5.7468
-0.90889
45.89
-6.3453
-49.976
12.288
3.4585
-48.261
21.662
21.526
-16.984
-1.8203
4.4994
11.043
23.422
-39.808
-21.783
-8.1982
14.935
9.0997
1.1733
-6.5952
-18.442
33.918
-1.807
-2.8194
-7.9336
46.529
10.259
-0.9117
-45.357
3.5099
-2.8071
18.148
-16.325
-6.3252
-10.757
-2.6237
26.363
2.8168
-13.991
7.6426
21.066
-2.842
-11.036
17.11
11.583
-20.868
-20.939
25.931
7.3997
-12.956
-16.299
18.942
2.2263
4.434
-1.5994
6.4896
-7.1341
-13.252
5.9777
67.83
-18.092
-36.211
-31.287
-13.831
0.62191
-0.086091
15.487
8.8821
-13.159
2.5509
18.554
84.818
-55.343
-35.772
17.73
-35.107
-18.974
12.903
20.632
-8.4273
14.383
24.544
-35.676
-4.7116
-22.106
20.815
12.515
57.909
-45.099
-7.6028
17.895
-57.462
-22.654
90.865
-125.51
-27.848
99.295
20.009
22.661
0.52093
-10.497
7.3332
-4.3816
3.5122
14.039
0.56138
-25.784
0.0090235
19.615
-7.4869
-21.567
9.0461
6.806
-15.312
-3.8542
10.755
5.2933
-16.809
-0.58831
16.234
6.2361
-16.741
-9.2835
3.537
2.4189
-0.74543
-0.31576
4.1903
-5.2511
1.1218
6.983
6.7441
4.8451
-15.536
-1.0768
4.4131
10.681
1.0889
16.525
-19.262
11.473
-13.209
4.7088
-33.872
10.667
42.994
-10.787
-16.144
-35.506
-14.285
15.98
29.036
24.358
48.932
-56.773
-38.394
6.5342
39.47
70.807
-115.93
-48.151
-15.447
52.405
99.445
-61.771
-25.905
40.298
-48.296
-27.414
14.148
18.471
7.5881
-3.8626
-2.7719
-19.883
46.926
2.9544
9.9079
27.85
-16.18
-37.936
-10.667
9.5131
106.91
-12.258
-118.76
-47.988
5.4021
-59.203
11.095
47.385
-41.004
144.06
11.156
-15.399
37.497
-90.37
-58.031
53.823
-14.159
-28.138
101.8
5.4779
25.404
-37.131
-61.993
106.53
-49.083
-25.905
24.234
-16.382
-69.448
39.633
16.148
-20.55
13.406
-3.5778
37.077
12.397
-9.5846
-7.7615
-2.2823
17.883
-15.997
-26.231
12.996
11.226
-10.996
10.651
13.295
9.4875
-7.2592
-2.3748
-9.7873
-12.08
14.017
-10.416
105.37
-17.286
-51.658
-47.625
-12.548
-44.683
42.915
83.159
32.318
-60.626
-51.916
-7.0478
6.227
27.179
-11.148
5.8817
-4.6858
-4.1673
-9.2925
-1.572
12.171
4.6046
-13.864
-3.9624
15.217
19.621
-4.0941
-4.0159
7.7069
6.7595
-6.2759
11.486
-8.6843
4.4688
-6.7663
-3.0865
11.39
-5.8513
-23.466
20.082
11.95
-18.374
33.593
-16.227
-7.2842
-38.677
19.193
9.5512
-21.587
-2.643
36.016
3.4094
-10.617
1.5077
10.264
14.602
-12.867
-6.3284
-4.5871
4.2234
-20.515
8.5742
1.5874
-1.1049
38.366
14.989
-7.0013
-70.01
16.295
-6.004
-1.7613
12.426
-0.77833
-73.422
117.99
26.322
-156.26
57.688
14.889
5.7895
33.97
-11.077
-16.443
1.318
-30.917
4.0879
-30.07
-28.542
82.944
18.641
43.001
3.6041
-17.425
-13.295
-13.599
-7.7207
12.355
-13.942
-10.407
-2.7971
6.5098
-3.0552
-5.123
8.5149
-6.5429
-4.2819
7.4972
1.0493
-10.102
2.3145
7.1983
-2.7201
-9.2319
3.1406
3.5965
-6.7063
-8.4456
9.9761
1.1938
-7.1587
14.173
3.3444
-16.232
-3.6178
6.373
-1.0104
-10.364
4.6701
5.8903
-9.6388
-0.4865
9.198
-0.50834
-2.9365
10.935
-16.205
3.5977
6.9976
9.4999
-28.366
-2.364
26.372
-10.338
-6.8569
18.708
-7.6338
10.255
11.05
3.9549
0.70065
-7.4464
13.824
-9.7811
-6.2048
-6.7396
-7.0918
6.0413
5.8277
5.7264
-27.062
-1.7053
42.676
-0.77629
23.297
-15.85
-96.617
64.645
59.274
-51.212
1.4314
6.8749
-2.969
-27.452
-1.5592
6.2586
-46.724
71.772
31.753
-82.298
8.0331
50.239
-14.936
-13.992
-4.6958
9.5187
-12.661
-27.234
3.3148
24.249
10.176
-48.711
70.555
40.668
-137.68
-9.7107
84.722
50.105
-31.719
3.9678
18.578
-8.8022
-18.887
3.4966
18.048
-19.463
-6.6777
7.4176
5.1432
-8.3654
-3.9373
7.6298
-5.0357
-2.9208
-3.0923
5.4771
6.1457
-7.5562
-5.7877
10.655
3.231
-15.644
-1.8177
9.051
-5.095
-7.1667
7.2257
12.431
-9.2945
-19.679
15.04
9.1232
-23.072
-5.0429
20.222
4.1032
-10.952
0.14817
-8.9842
10.984
-12.022
23.707
-0.74172
-10.7
1.4203
-1.578
-6.7797
-3.936
22.752
22.56
-3.6894
-32.945
45.935
-40.777
9.8047
-59.678
-1.1169
5.7564
36.496
18.346
43.51
-30.531
-24.778
14.82
3.1787
-27.185
-12.414
32.54
-29.839
13.399
28.456
4.3806
-4.5971
-9.1875
-15.975
11.543
13.672
-25.666
15.333
22.8
-14.631
-27.096
2.1676
29.765
14.242
1.9684
60.505
21.851
-108.44
33.22
-31.115
-40.262
39.305
-15.015
-34.279
37.521
-4.4252
-41.321
39.792
8.4157
-42.129
28.506
20.764
-16.435
-10.082
-19.437
-32.548
18.575
202.96
-68.648
-173.76
84.153
-100
80.041
124.4
10.782
-96.527
9.4835
10.73
-63.029
-19.317
35.874
-27.178
-18.575
9.8064
62.087
-5.2249
-21.646
-1.2715
12.384
35.109
-22.478
-19.897
3.4984
25.662
5.6926
-7.6522
-51.095
-47.45
131.89
9.7266
-15.972
4.7011
-10.592
-21.985
-5.5678
-6.1762
-0.39624
-3.8326
-6.729
13.999
26.344
-38.597
-50.051
26.266
16.249
22.847
17.926
21.773
-13.77
-15.002
9.8495
0.5052
5.9972
-15.384
-9.7255
-0.98324
6.6339
1.3633
-8.9805
-5.4064
-5.3231
5.3884
-2.0366
-10.215
8.4372
10.863
-15.164
-6.9435
23.09
-3.8267
-0.34569
-16.571
9.2025
22.154
-55.953
59.154
-25.838
-3.7043
6.5174
-23.773
9.1816
13.15
-33.737
20.082
35.787
-29.437
-36.053
74.83
33.801
65.105
5.1107
-197.88
-82.568
-11.702
-0.48026
215.79
50.597
-115.33
-51.237
47.32
43.258
-94.771
-24.877
45.052
-31.529
-52.615
123.35
73.248
11.294
23.678
-124.59
-143.01
220.95
-7.5449
-12.795
-16.257
-98.537
48.8
-27.482
-16.54
100.8
43.583
-102.57
-73.336
37.965
-23.977
133.51
7.83
26.567
-61.593
-68.885
86.792
41.101
-1.1537
-216.12
48.085
150.79
27.808
-59.079
14.75
-32.72
-32.533
-34.856
26.838
32.381
30.263
-2.3291
-47.208
33.714
-13.909
13.956
8.6562
-17.335
-59.393
30.386
-0.64053
20.838
7.9616
0.43266
-0.39027
-29.997
39.449
-17.848
-28.5
37.109
105.91
-108.92
-80.016
104.38
-20.274
-45.836
6.7585
35.278
24.7
-25.607
-18.87
38.257
-16.152
9.9539
-66.147
131.58
58.749
-95.373
-105.58
-26.963
-12.876
148.78
22.41
25.939
-19.657
-82.16
-22.892
30.994
-22.935
11.48
-37.191
48.466
-14.619
8.8285
-23.268
6.6931
93.041
-11.365
-37.847
36.794
-58.803
-3.8762
-30.642
-16.458
111.84
-34.207
-17.848
-28.249
-1.1314
-27.891
19.567
-4.1227
-0.089336
36.45
-26.302
-32.376
10.87
21.508
-9.1922
21.143
12.733
-29.279
-17.562
-14.205
25.963
59.149
-27.516
22.915
-20.586
-10.048
20.734
22.626
-4.951
0.28941
16.03
-9.3541
-27.797
0.94025
-3.54
-3.6591
15.981
3.9123
-19.438
-12.282
6.2375
1.3569
-8.4987
-1.5075
8.664
-4.3856
-5.1831
6.302
2.633
-11.594
2.7839
-0.6888
-5.4306
-2.2522
2.4052
6.2695
-4.5239
-8.491
8.5619
11.469
9.0766
-0.38452
-9.1356
-3.7616
-8.9792
44.708
35.572
-95.814
-1.364
1.1639
-80.755
80.202
52.643
29.169
42.676
-0.00029599
-43.799
-29.156
-174.82
3.0382
177.15
-38.745
70.329
-81.922
68.832
-25.86
-35.226
64.578
-40.755
-83.525
7.1797
180.13
-3.234
-61.09
-46.923
-149.34
73.574
-1.7102
81.559
45.972
32.273
-27.527
-81.645
44.411
-7.6229
-119.06
-20.155
135.6
-10.172
-20.279
-36.473
3.7053
175.13
-61.907
-82.179
9.9788
-120.81
47.449
164.89
29.094
-25.908
-51.528
-32.907
-83.484
-2.6877
10.452
27.33
-37.753
136.28
79.398
-80.389
25.235
-0.09797
-53.719
-73.514
52.382
5.0777
-6.3062
-29.993
-16.865
29.214
-16.642
113.36
38.743
-58.47
-12.923
-5.4206
-23.534
-13.011
-3.1041
25.702
-17.387
31.358
23.3
-66.986
12.013
8.765
13.954
-83.296
2.3924
26.379
20.673
-67.228
45.69
16.518
-18.102
84.795
-20.858
-10.454
-78.434
5.2469
-2.7029
26.229
104.3
-15.29
-50.164
-15.246
26.154
-9.4919
-3.6811
-1.0387
10.379
-0.66411
-8.0126
7.3762
14.958
-5.8185
-14.598
6.1397
-0.9143
-5.9059
8.3312
5.0764
-11.289
-8.7581
6.3835
0.78782
-1.0091
15.264
-3.3704
-9.9264
9.5208
7.3697
-19.462
-2.3638
8.8716
-6.0635
-11.591
3.5361
8.1105
-11.858
-11.972
11.713
-0.20269
-6.8897
0.99597
11.199
-2.8589
-8.0768
3.9889
8.7703
-3.9087
-6.948
10.752
2.8487
-13.996
-4.5282
7.5765
-1.6585
-9.7629
6.0176
10.795
-3.3165
-10.726
5.7825
6.4018
-10.278
-8.2329
9.3632
5.0264
-14.191
0.14774
19.001
4.0581
-8.8605
6.7129
12.4
-52.964
55.113
-2.3105
104.86
55.908
-270.48
-169.12
297.7
28.999
-155.52
96.712
36.49
28.432
14.949
-103.02
-53.855
183.65
102.35
46.388
-124.55
-426.37
-34.214
113.84
368.76
75.067
-186.94
-112.64
-65.642
121.96
105.47
-110.32
-172.61
25.435
170.28
49.009
-39.905
-8.2176
-151.81
-28.912
238.36
5.5609
-25.804
-75.198
16.332
90.594
79.461
-60.728
-121.91
-23.346
5.739
-26.762
45.293
8.3633
-128.64
92.89
157.81
-88.401
-3.0227
90.752
81.481
-138.19
-136.12
125.17
-56.856
-73.672
-19.222
111.33
6.8743
-55.514
-38.488
127.33
10.224
-87.482
122.73
-128.97
36.873
-50.518
88.88
56.664
-196.53
-18.808
58.104
157.43
-28.874
18.059
11.799
-40.756
-9.3506
71.511
-47.584
-85.342
6.1863
40.317
-80.001
-34.88
76.691
-5.538
60.35
-33.049
-34.244
37.289
9.0009
-38.932
6.5527
-46.481
206.4
-126.88
-27.82
28.459
18.949
26.865
-64.996
-95.718
38.086
84.183
-7.8213
31.028
-99.726
97.566
-33.065
-24.096
-18.516
25.064
-9.6168
-15.607
59.714
-35.777
-60.889
61.983
102.22
-28.236
-86.39
44.316
-3.2831
-118.02
-20.485
19.087
101.4
-9.0059
14.534
4.7999
13.35
13.076
-1.1162
-25.113
-23.77
19.784
11.97
-15.22
1.5902
5.2179
26.13
-53.195
45.302
-16.824
-81.25
49.016
45.711
1.9674
0.45974
19.842
-121.27
38.938
23.509
17.684
24.815
0.70535
-15.141
-7.7401
-2.0787
-0.45254
0.40097
-2.2743
-1.9507
-6.062
-1.0242
-2.9371
-9.5149
4.6814
6.2541
3.7164
18.941
-19.953
-18.001
13.936
-5.337
0.12328
0.41831
-8.9675
0.62101
1.9713
-0.035079
-3.5831
0.38333
-4.3796
3.5069
0.67046
2.1015
4.5999
-6.3614
8.4573
8.8968
-0.52046
-7.8349
5.9311
11.2
-2.9306
-3.09
4.5845
10.834
-8.48
4.1842
18.806
-4.828
-17.099
-5.5925
3.3183
-2.0001
-1.2892
3.7237
6.1037
4.9159
-24.115
6.6738
-1.3028
-3.0812
-18.845
5.2918
15.118
-9.7017
7.5696
1.7274
1.3841
-9.7314
-12.083
6.349
-1.6112
-4.6098
11.993
3.6686
-15.426
1.3584
11.842
-12.989
18.283
5.2273
-14.327
-7.5198
10.69
-9.2169
1.5426
7.736
-4.906
4.6569
-3.5875
-6.2152
5.7821
-0.0048359
-4.8843
20.8
20.737
-20.927
-10.87
-7.3927
4.1105
-0.41759
12.684
-1.193
-9.6356
22.524
18.963
-26.386
-5.5495
16.9
8.9813
15.959
98.733
-70.196
-87.663
-37.498
5.7447
21.775
-14.91
-12.239
135.52
-82.146
-60.613
138.08
1.07
-45.128
-88.312
21.102
88.775
144.88
-233.8
103.09
-24.132
-123.14
-4.6715
-45.873
37.8
23.155
53.308
9.6839
0.58031
19.152
4.926
-10.171
11.393
6.0871
-10.823
6.5237
10.099
-11.085
-7.6687
10.57
4.6776
-11.694
1.5483
8.6832
-1.7557
-13.41
0.7275
8.1902
-1.8665
-16.338
0.12851
9.5156
-2.4553
-14.506
-0.15145
9.3466
-2.1136
-13.222
7.8616
12.063
-3.3506
-12.879
7.158
10.299
-7.8317
-16.792
8.8682
8.3902
-12.542
-4.4957
12.873
-4.075
-10.006
9.6316
6.1683
-14.992
2.3879
15.878
-10.193
-9.3494
17.402
3.8926
-7.8233
1.4074
68.513
-0.78636
-76.199
31.827
14.282
-12.079
-35.494
-9.3205
6.4556
10.116
-2.2667
15.563
0.32111
-3.3099
-8.0869
8.7435
8.7434
-7.9011
-6.8862
6.4544
-0.78581
-10.327
5.8823
5.2949
-6.184
-7.7877
29.468
17.655
-47.775
33.237
3.7442
8.7026
-12.833
-57.934
-51.081
39.435
76.229
-6.5468
5.9665
146.89
-104.03
-159.56
-85.845
-12.206
430.2
285.41
16.258
-37.194
-153.21
-252.27
-658.65
-155.28
-18.29
422.96
381.64
146.32
-76.107
-615.97
-35.662
461.8
122.57
-196.32
-266.59
237.53
337.22
-439.07
112.13
184.99
-45.646
-22.013
65.482
62.246
99.698
253.49
79.199
-24.334
-194.35
-601.69
-411.89
34.516
360.38
513.32
-327.91
-110.84
309.77
-203.29
-37.402
-94.42
246.7
189.51
247.85
-416.34
-87.086
197.63
9.9938
-240.99
-289.03
233.24
126.25
116.8
58.791
-351.4
-118.91
-22.775
258.06
-39.498
363.5
215.93
-401.08
-584.3
-58.576
281.2
630.21
100.32
-551.73
-152.65
-104.8
244.44
405.57
-349.49
400.52
259.14
-14.406
-288.16
-556.24
85.632
569.68
135.85
-100.69
-495.94
-332.87
-121.48
395.57
106.47
-420.37
292.1
336.36
-94.556
22.68
-388.07
-230.86
273.59
453.57
-108.46
-77.775
250.16
-308.31
61.835
77.755
181.64
120.31
-156.35
-142.94
-257.72
-164.74
-202.03
149.2
478.13
369.02
-30.437
-289.61
-410.19
-36.565
276.68
-28.339
173.78
-86.611
-300.49
67.992
-96.63
-84.304
348.25
427.78
-84.038
-214.29
-82.871
-321.5
-136.35
243.05
207.44
101.95
22.494
-52.598
-19.476
-3.445
-13.566
-25.227
23.84
4.4965
-13.84
-0.52915
5.7548
-8.9973
-2.5667
8.9715
0.0668
-10.454
6.0664
10.059
-1.6512
-12.991
3.866
7.0956
-0.28803
-12.853
-0.40485
7.6383
-0.49658
-8.054
0.48167
5.9531
-6.1237
-11.685
2.4301
3.4099
-9.837
-3.8794
7.1887
3.5038
-9.6045
-2.5902
8.6373
-7.9385
20.259
-1.8214
179.46
152.31
-378.61
-254.35
365.64
-24.994
-115.98
19.003
-16.914
-15.409
-206.47
222.04
404.2
-255.59
-206.46
77.002
60.19
-26.553
-208.33
136.39
110.72
89.94
-92.965
1.2674
100.44
-191.77
77.964
47.724
-110.4
-77.645
87.436
-57.924
-104.45
78.938
133.7
34.222
84.012
-192.37
-75.388
151.71
106.25
15.044
-86.883
-37.144
-69.568
91.592
7.0043
-179.42
-38.264
68.739
-121.65
190.21
37.413
-143.33
127.01
10.58
47.344
-71.792
40.119
-10.035
-6.1578
-3.3499
4.0426
-42.65
0.5005
37.185
-15.682
-63.215
23.222
30.725
56.761
-13.882
-52.017
-191.54
226.19
278.16
-205.89
7.2565
15.278
-88.665
-138.45
5.843
-66.407
80.198
350
-126.24
-97.565
-61.553
50.177
85.343
-86.881
-258.4
46.72
429.03
71.962
-91.356
139.09
-276.11
-197.11
48.117
-238.21
402.97
148.7
-210.05
-59.734
-133.3
-206.34
407.38
153.58
-272.31
-65.059
-237.01
271.23
290.04
45.783
-67.576
23.407
-225.85
74.856
103.68
-520.82
96.795
337.53
-7.8925
-152.29
57.394
59.687
4.5146
64.787
5.8293
-1.7794
-9.4264
-18.074
-8.4239
-1.6013
-7.5759
8.2488
-6.3799
7.5794
-3.1917
-12.815
6.4186
10.582
-6.1649
-12.687
7.9613
8.4388
-6.4961
-9.4768
5.2675
4.7399
-6.2803
-4.5653
9.1243
-3.1204
-8.6365
10.774
0.63861
-7.7553
0.95841
0.43711
3.2477
-1.2965
-21.224
26.966
-16.956
-25.976
48.373
104.54
148.34
-109.78
-349.05
-296.43
386.52
256.29
-174.74
89.278
215.13
-187.44
42.514
-118.71
-115.64
281.6
-90.91
-155.82
-82.523
5.1284
120.7
181.74
-198.95
-48.393
22.48
-36.013
-24.426
-227.23
132.02
361.6
119.79
0.45162
-264.6
-242.68
-97.418
229.16
-20.508
-153.77
231.09
343.35
-333.32
-82.785
271.81
-455.75
223.33
486.14
23.194
-489.53
-419.13
182.59
234.21
362.48
13.453
-412.92
-236.72
232.46
47.511
-261.15
-88.681
379.19
195.98
40.068
-5.8242
-4.4327
17.082
-166.75
-53.084
130.24
-327.19
-38.055
-126.02
258.29
506.62
55.813
-74.476
-358.92
14.386
91.098
-336.4
-198.47
36.307
112.4
238.96
230.88
-344.57
-235.39
-27.29
546.08
-10.837
-127.56
136.55
-174.8
-38.187
-103.28
-242.89
381.37
261.43
-357.54
294.16
-5.5098
36.531
164.85
-337.08
-337.76
37.061
324.54
310.66
-233.94
-112.93
-155.12
-187.07
177.12
-123.75
49.195
-195.71
225.72
271.85
72.327
-63.261
-9.4445
-19.418
-3.5418
9.7524
-9.3399
-11.116
4.7572
-18.989
-5.8978
31.468
-7.923
-13.613
-5.4681
5.6861
-3.2358
-7.5189
1.6565
23.545
-39.524
-19.214
18.521
26.806
-31.589
-2.4226
13.335
-10.829
6.5963
1.7118
14.65
-19.361
-4.4432
3.1918
5.197
14.255
-2.768
-13.784
9.8774
2.6447
-9.9182
-5.0219
9.6328
3.2694
-11.475
6.7388
-3.9058
7.639
-2.4936
-0.20546
2.5372
-50.591
25.117
50.593
-1.5207
4.0684
-16.863
-40.886
-19.346
3.5331
5.5152
6.8623
-0.13601
13.459
-14.131
18.253
-70.558
10.162
75.099
15.27
11.267
-11.605
-2.941
-6.6148
-3.5306
2.235
-7.141
-10.097
10.558
-1.6634
-5.6388
3.8523
1.9643
-10.72
1.6737
14.258
3.7563
-7.3033
1.5419
-8.6104
3.4401
-1.4
-28.245
19.579
-3.2619
-10.57
-2.5938
6.7225
-14.53
6.2394
4.8632
12.401
-47.106
13.144
15.579
-14.26
48.919
15.42
-108.25
-3.5741
44.175
7.4031
4.2511
-7.9268
14.086
3.7087
36.882
293.56
-107.72
-190.39
-114.68
-120.04
-195.15
131.05
252.31
32.04
14.311
-25.526
22.813
13.798
-9.0389
-2.5301
-3.7597
16.316
-11.48
-15.884
4.1158
7.6644
-2.0527
1.2176
1.7127
-15.642
1.638
7.2877
-6.6376
-4.8642
3.6405
2.0842
-2.5795
-16.315
16.748
-6.0582
-15.048
9.4601
10.736
-6.7938
-7.3228
15.737
5.2944
6.4832
-8.5239
77.618
25.839
-129.74
-197.3
228.67
-9.71
37.439
37.855
-46.919
-24.326
-43.804
7.1002
27.571
1.1294
-178.21
86.437
480.58
91.466
-289.07
-604.5
-103.29
344.58
483.7
173.11
-7.987
-349.03
-222.74
-10.611
-57.568
158.2
-23.783
-298.17
-32.153
91.124
284.51
187.44
15.809
-3.8375
-61.655
-76.359
-264.82
-191.56
222.05
101.29
-233.76
278.82
313.94
-260.76
-100.11
-205.94
9.1134
1.462
263.78
105.21
-58.277
-1.0319
-235.6
-241.91
311
359.49
-226.38
20.473
-26.314
-22.989
-22.848
13.244
145.22
102.62
-76.757
-170.49
-138.93
56.562
-2.8514
0.08031
88.041
118.9
-127.59
-9.4129
230.82
-158.33
-24.454
-83.873
-154.51
212.47
-129.83
70.719
344.6
-174.34
-69.474
-117.42
128.03
9.7699
-74.631
47.754
20.185
-86.403
-49.776
-232.15
247.02
319.92
-447.3
22.49
311.07
222.58
42.126
-284.67
-145.44
-218.9
174.83
-80.351
-195.85
455.85
-3.1174
-338.5
429.28
-182
48.887
153.69
-201.34
-83.865
53.545
261.08
-87.097
-211.7
-71.134
205.84
-81.366
-295.79
42.323
187.87
46.24
289.17
-55.406
-129.16
-195.61
114.22
379.38
-247.82
-227.75
-219.61
-180.6
434.25
306.96
-85.981
-59.708
-32.445
14.576
-164.2
-220.16
-0.5024
390.57
-18.022
-130.19
-272.95
65.26
259.91
66.856
-36.347
-42.476
-43.323
138.54
40.918
2.0304
-83.279
-153.52
72.655
78.851
-5.6793
-16.456
-4.9982
-2.1216
-5.5959
-64.9
52.891
68.431
89.668
-70.548
-31.942
5.1258
-64.41
-5.8962
31.764
8.3475
-2.4568
13.571
-2.4139
7.2271
-9.8427
-7.0043
7.1624
-0.83562
-2.7732
1.6747
-6.1751
0.43592
3.3714
-8.0472
0.82089
-11.104
-39.041
-66.55
146.11
133.51
-52.261
-128.54
0.93827
46.366
-7.0248
-15.254
-18.686
-1.9001
-16.665
-0.86227
11.443
3.7691
5.7566
5.2662
-10.881
14.721
-4.1112
-10.52
-19.546
93.201
-1.2998
-51.986
-5.7096
-20.124
-14.029
37.647
25.405
-9.3421
-35.512
-34.483
34.154
25.63
-11.856
5.8403
-10.892
4.1367
-4.5032
-4.6351
-0.12353
5.6063
-5.8596
-8.165
6.779
6.6495
-8.9264
1.2711
1.193
0.8514
-11.395
9.5479
10.763
-27.19
3.4828
-13.572
53.296
31.877
14.62
12.089
-55.118
-59.391
42.298
29.815
-15.613
24.94
-9.3653
-7.4169
-105.21
45.195
74.302
-38.264
6.063
-17.38
-10.606
23.235
27.09
-32.26
82.731
-111.2
10.323
47.126
-61.779
22.178
28.541
-42.749
-25.596
16.142
23.526
-4.4365
-17.004
-28.889
114.81
28.823
-9.4228
-66.396
-27.198
-24.67
-30.957
13.101
39.666
36.854
-24.756
16.162
-47.408
18.092
30.845
4.0412
0.88699
-10.365
-30.374
58.474
28.895
-60.948
-5.1031
-17.907
1.3903
-44.369
39.178
114.78
-63.168
-27.89
-0.62918
0.16522
-10.382
-16.649
1.2899
22.219
-6.1388
-5.0241
-11.487
4.5342
16.274
-4.2349
-0.45933
1.6962
4.6593
-1.6825
-21.769
7.7305
4.3366
-44.026
79.663
22.982
-55.669
13.534
-28.495
-10.705
-6.3493
47.879
25.332
-23.02
19.344
-10.836
-15.825
3.1465
-6.3403
5.5573
20.178
-47.149
-54.524
71.389
144.25
-33.626
-93.892
-35.943
-51.621
164.78
36.221
-175.74
161.78
-43.932
-76.473
-13.441
-11.125
-63.662
109.77
103.54
-131.57
54.17
-1.1716
-30.988
-18.06
28.545
13.78
-48.47
-25.242
13.243
24.224
-20.833
-11.065
16.938
11.382
3.9035
-9.6219
-0.096521
0.43036
-2.6335
54.974
20.555
-48.142
-19.037
-35.886
21.97
55.936
2.3534
-7.0315
-34.727
8.0428
18.601
-7.29
-14.988
-8.1858
27.049
27.771
-65.363
11.353
27.19
-4.89
0.24806
18.518
16.992
-16.605
-32.975
-3.724
0.087676
-4.1861
3.2939
12.708
-6.4952
-2.1664
3.3327
0.17523
-9.0997
14.316
45.37
14.594
-58.608
-16.517
-6.5248
-31.722
22.519
45.874
2.5497
-40.699
12.859
16.02
13.408
-28.393
-27.563
17.908
5.3962
0.52769
16.815
-0.70017
-6.0554
-21.397
82.644
33.528
-66.003
-11.518
-14.566
-11.193
-6.6042
4.9983
-55.828
-2.943
117.04
-30.95
-34.771
78.539
-2.3584
-42.802
-21.955
5.2456
-3.1376
-25.112
36.055
83.347
-18.587
-71.103
8.9024
-14.674
-49.548
9.9074
3.0302
-13.571
28.432
134.53
3.341
-133.99
-41.422
17.48
11.525
-3.6164
2.0968
32.537
8.8046
24.837
2.7919
-14.261
-39.581
10.481
34.484
-36.79
-27.457
2.7295
43.101
47.755
-19.775
-18.017
-5.5163
-25.204
-0.43008
2.0961
-4.0854
35.513
23.868
-29.674
-42.575
14.319
18.167
-25.77
-15.646
79.322
15.279
29.16
-20.122
-68.731
-23.038
12.544
17.138
10.877
-13.276
-9.3346
3.934
-23.158
-5.6957
4.3439
27.2
29.502
16.477
-6.3534
14.938
-63.351
-52.471
24.586
-5.2411
-3.9861
-19.987
9.4761
46.913
13.477
-7.3912
14.461
-3.2462
-31.068
-10.444
21.574
27.035
-0.62471
21.199
20.116
-22.746
-2.1546
-39.054
36.276
-22.308
-36.345
38.391
22.186
-26.643
-1.4214
31.239
23.7
-5.0293
-6.5195
3.6603
-24.552
-14.46
-25.201
-24.306
5.4988
-13.898
104.87
-35.719
-28.202
29.22
-13.564
-35.582
-7.1317
17.668
12.329
26.968
-5.7533
-14.609
-13.778
-3.3704
55.234
-22.567
23.89
-36.203
-1.3696
-3.6011
12.159
25.876
-10.822
11.542
-32.187
14.591
38.461
-27.381
-44.693
-44.863
11.628
34.67
21.536
-56.655
17.268
11.139
-31.336
54.52
19.924
0.89043
29.541
-44.736
1.4766
29.17
19.557
-61.878
-25.566
84.399
-76.406
-72.182
43.654
66.916
-43.169
35.282
48.421
-34.626
-36.751
-15.407
39.609
-35.157
-25.772
52.253
18.357
11.276
13.791
-22.426
-7.2286
4.7117
-9.9565
-7.895
0.2669
7.0195
-14.003
-5.8448
-2.2575
27.909
2.8657
-37.572
-10.022
20.94
24.866
10.004
14.399
-35.373
16.547
20.94
-61.871
12.475
127.44
-41.038
20.62
-32.814
-59.997
2.8434
-13.191
-31.663
-22.105
-53.691
90.016
-113.39
71.508
107.58
-12.898
-91.346
2.3039
22.144
43.083
-156.33
73.686
110.87
-4.5496
19.061
81.485
51.193
-187.67
-311.18
-137.03
157.94
34.258
-88.139
-29.675
10.416
23.817
13.113
34.273
70.839
326.13
245.18
-9.7817
-35.873
-29.421
-20.848
6.2311
-44.492
6.1725
31.484
-84.963
-15.532
-22.869
8.82
1.6866
-27.537
20.953
-37.53
16.734
-23.483
-1.7912
22.542
-33.633
-9.4231
3.9055
11.535
-40.912
41.683
22.265
-48.274
-37.407
29.706
17.476
-44.503
-4.7157
86.909
138.18
-230.69
90.859
75.546
-51.672
152.01
28.335
18.294
-139.56
-13.232
-0.067362
16.051
112.24
-162.05
-127.22
-146.37
-52.173
-55.71
16.28
8.5674
21.781
-30.896
76.387
115.34
-121.82
-115.04
129.83
89.339
14.232
-35.292
-31.752
0.90187
27.909
-19.14
-41.246
61.651
51.314
-59.232
29.113
-26.375
-44.4
51.122
-43.602
-47.6
99.17
33.081
33.642
8.4124
-2.1132
-17.212
36.058
-31.846
20.421
30.225
-22.408
-16.73
14.672
0.93791
-18.314
9.7193
-15.586
17.317
-21.236
-14.659
30.649
-5.0028
-19.764
9.8743
17.212
-21.161
-8.0691
19.465
-2.7775
-15.401
2.8966
22.256
-6.5015
-15.771
1.7647
-73.468
-119.73
210.13
133.58
37.126
-255.42
123.32
-35.066
-76.918
66.985
-7.3224
-40.784
135.95
-65.023
-54.853
184.58
-92.895
-120.58
42.332
60.781
-50.013
-84.891
-49.886
160.55
179.87
-188.13
-104.06
137.09
54.152
-106.14
-57.078
96.245
0.41049
-27.788
-29.465
48.034
-27.474
5.0798
-12.429
15.757
21.497
-20.456
24.267
-21.382
37.921
-23.416
-4.3414
11.36
-27.025
7.1418
3.4625
-8.8526
-5.3814
8.2496
-23.06
4.819
21.648
-11.679
-12.22
20.604
1.8272
-22.766
3.0523
15.13
-5.7617
-7.5617
-8.4808
-85.656
-82.618
214.41
-4.6415
-38.339
118.63
65.366
-95.396
-78.128
-44.923
28.133
2.0023
92.346
-13.479
-81.126
13.362
16.758
-130.4
-53.608
131.76
37.889
18.897
66.371
81.8
-49.891
-126.25
37.624
-152.05
-42.948
