6.001
12.423
-1.0156
-16.065
14.489
14.433
8.2258
-15.843
9.9236
6.2451
-25.002
-1.5481
0.61038
-8.3224
29.497
-24.846
-10.31
25.487
10.824
-0.32253
7.0081
-21.092
-23.633
27.078
2.5497
1.3046
-29.677
-3.9091
8.6192
23.477
20.131
3.5409
1.9451
31.792
59.567
17.488
-46.047
-102.83
-3.393
-7.9865
47.191
-8.8894
-39.729
20.668
-33.658
-13.235
10.345
34.836
64.351
8.4563
-40.242
-44.12
-80.602
18.619
80.436
-43.618
-18.866
24.85
8.4736
-18.389
51.628
-9.7759
-32.453
-34.258
20.048
28.058
44.28
-26.104
-7.2419
11.349
-43.985
-4.1655
4.4373
-22
27.084
-26.563
-44.757
-23.55
35.045
30.622
15.632
28.802
4.5818
-9.0653
11.554
-7.1796
-34.823
14.443
43.595
5.6429
-19.33
-10.289
89.776
-71.356
-15.456
53.43
-24.055
-14.072
23.982
18.33
-16.058
-4.4123
-15.066
-5.7628
-12.567
15.166
52.71
-26.509
-22.838
-20.09
-14.483
32.852
-8.2361
-42.412
27.789
-14.021
29.985
1.5424
-0.89462
-8.5367
-7.45
2.7352
-3.6808
17.978
33.626
-27.242
-22.332
22.397
-8.5685
-4.317
-16.304
-67.876
53.565
11.323
12.891
-19.206
22.783
-12.233
4.1518
9.9819
-0.073823
-39.367
22.693
2.3335
-16.89
12.132
9.0742
25.193
-19.921
61.158
29.243
7.9124
66.966
-45.567
-191.07
52.676
23.51
-33.206
14.125
-15.31
-4.399
1.3556
10.961
11.441
48.666
2.856
35.525
-50.28
-24.087
-91.096
46.312
18.623
-55.531
-0.40301
26.453
-10.827
5.4116
10.11
22.37
-14.394
-43.724
63.383
-12.864
43.127
4.0903
-0.81002
22.41
-0.23111
-13.984
-19.426
17.033
21.772
6.3151
-31.942
-4.048
0.45339
-18.216
20.492
47.826
34.994
-45.379
-16.461
1.9238
-8.6668
-8.5769
-19.345
-9.6295
3.3844
-8.2794
31.595
25.072
-16.116
-27.607
-11.305
-3.9916
5.5578
-4.3435
23.329
37.027
-25.484
-14.037
-6.1699
-1.5594
0.64335
-1.4068
-2.2692
8.7306
0.88684
-5.0337
-0.66721
9.3898
-14.972
12.304
-5.1611
53.807
-30.146
-13.468
8.0274
50.969
72.846
55.549
-200.47
-40.241
58.514
-27.378
34.995
27.432
-42.281
-53.845
40.689
-31.961
10.703
-8.1513
32.155
49.119
26.464
-114.61
-15.345
26.461
-15.942
61.122
53.37
-20.456
-157.99
85.218
6.5046
-52.199
31.136
9.1408
40.781
54.174
-53.518
-101.8
70.258
-0.22247
-19.033
-17.345
26.701
9.8121
-14.887
20.355
47.874
-20.049
-43.783
13.503
30.216
18.805
37.055
91.853
-106.15
-71.015
61.563
-42.005
-6.2671
-7.1459
11.961
7.2351
-3.7333
58.217
67.352
-29.2
-106.41
-10.502
82.308
-72.138
-13.456
-8.2687
6.9624
-0.89438
5.5612
43.878
99.578
-117.55
-20.075
-5.492
26.101
3.6919
-43.241
-5.2952
17.926
113.74
117.49
-56.213
-260.81
8.8273
39.921
-3.7892
13.48
57.331
21.771
-63.817
-29.229
65.016
-47.025
-5.0436
-4.9201
18.642
6.2371
4.7728
17.463
-20.125
12.291
34.352
21.484
-37.608
-19.712
29.799
20.381
13.733
-23.454
0.12209
-14.38
9.9832
79.824
24.543
-119.05
-104.07
97.789
-15.696
-41.915
-1.5426
37.237
68.981
97.24
-170.08
-4.7004
50.959
-61.622
-1.9238
-26.991
9.3561
26.072
68.049
101.63
-52.235
-162.92
66.779
-26.597
21.022
17.292
14.594
4.3352
-6.3304
-1.7749
-53.336
6.562
75.073
83.8
-19.147
-161.99
6.8996
190.19
57.5
-210.02
-161.8
121.71
28.82
-0.26727
-11.884
-15.043
25.958
55.486
136.7
-47.662
-171.7
-87.872
118.41
12.317
-21.341
-12.574
-3.4539
16.211
1.1399
7.6651
-11.875
73.503
123.75
-75.597
-131.21
-2.9928
86.102
-86.456
53.758
-0.35969
-25.541
-31.411
82.049
79.518
79.579
-18.619
-205.69
-145.64
130.42
25.616
-8.8533
-18.191
-10.316
28.364
-0.83887
53.857
102.76
-92.815
-138.14
40.198
66.505
-37.335
-0.11352
56.204
84.111
-137.93
-3.1639
23.59
41.52
-56.738
24.197
-5.8336
110.23
-107.91
11.018
52.338
-17.253
48.884
-33.311
-37.973
-36.652
114.45
-128.13
51.8
-6.0416
29.968
40.623
-27.627
34.091
-40.247
-91.924
36.057
-108.22
32.037
71.923
-41.014
3.6059
-1.8491
37.378
41.217
-116.95
75.899
18.077
56.523
-82.508
2.4445
13.503
-47.567
15.613
34.313
-89.195
28.815
47.309
2.4343
-5.5779
27.786
50.887
-51.41
9.1401
-8.0302
9.7057
-15.372
-7.8612
21.452
22.357
124.7
-85.712
-29.3
97.981
-132.01
-66.098
31.276
25.456
16.442
-8.5878
-80.214
98.333
1.0972
-41.717
49.692
-15.213
-59.845
21.499
26.025
4.1018
-18.038
42.389
-16.369
-14.785
14.524
21.109
-48.177
-9.9381
-8.6439
2.738
-2.9576
6.1945
1.973
3.074
-5.6781
-5.1614
18.845
22.602
12.072
16.747
-21.22
39.964
-1.3508
-43.05
27.606
-33.394
-23.884
10.663
0.87271
-19.073
22.918
22.622
-43.486
12.926
-0.21148
2.1206
33.993
34.574
-0.54647
-26.193
20.347
-57.912
-33.117
31.375
-21.798
2.9892
92.613
-33.608
-71.14
-2.8917
-20.603
-4.1544
46.403
11.324
84.16
38.193
-121.27
-32.197
52.671
-57.841
-16.387
21.171
15.888
-20.708
35.707
44.77
32.222
2.1434
-64.513
-68.919
-30.353
32.552
-22.282
-16.842
36.63
3.4947
3.1669
53.846
19.691
-52.013
-9.1352
23.199
4.7817
0.65575
48.632
55.843
-15.498
-93.466
3.306
27.426
7.6646
-11.271
6.1427
-6.0421
40.349
-64.206
6.4369
87.445
-102.66
41.698
-31.353
-25.763
11.749
-11.672
-9.9531
8.8354
13.508
12.216
0.57246
-5.2805
61.308
-45.512
-21.487
22.322
-47.011
7.8061
-3.2383
-13.521
0.81246
-17.936
42.345
27.505
-38.835
10.765
-55.326
12.551
-7.1267
-1.776
63.525
19.305
6.1805
-51.859
52.342
71.929
-37.698
-62.712
-53.767
52.522
20.821
15.569
-4.7437
-13.003
-0.85402
3.7531
10.95
6.2997
16.558
6.3312
0.22063
-15.929
-30.166
3.8061
24.136
17.233
1.0723
-28.406
-13.082
9.1134
22.096
-2.1999
1.3238
-7.4756
-13.213
-12.543
-8.068
0.44511
5.7772
13.586
8.238
-4.3843
5.0078
-0.35648
-16.109
20.731
-85.673
13.545
17.327
37.865
30.082
21.163
19.566
-62.393
-48.046
-5.6019
17.302
29.736
-27.158
-0.045694
22.97
-4.4184
-2.9548
19.56
69.596
-70.377
-15.439
46.528
-29.407
-31.993
18.207
11.42
-11.011
1.0649
31.227
56.69
-5.2558
-22.923
-52.256
-18.414
33.681
2.7124
-11.097
-1.2927
3.912
-7.931
-1.111
6.4463
-38.856
9.8952
14.483
-7.0863
2.6242
4.5037
8.152
-24.752
4.8721
8.2881
-15.581
12.03
12.711
-9.1224
-1.4156
-0.51691
-4.1015
0.027711
6.2364
-9.8583
-10.877
24.029
-5.5642
11.505
7.248
-35.801
18.067
22.987
-11.327
-32.066
23.123
0.98027
-1.4363
-8.3677
-10.869
42.567
-4.5648
23.811
-12.4
-47.302
-8.4334
10.468
-20.276
16.482
12.143
-1.0611
-8.6915
-0.076187
-4.5529
6.4837
3.1654
4.4919
2.3108
8.1613
30.865
-33.438
-23.95
1.443
6.6667
-3.8439
-4.5584
5.7591
-2.2257
-4.7195
6.1174
7.5421
-1.8508
-1.1385
7.7258
-1.7577
-5.1682
0.73314
4.0877
-6.0176
0.58424
6.7334
-5.8977
-8.0135
-14.211
3.7645
23.738
21.813
13.557
-28.87
9.5364
-109.55
34.566
104.43
52.411
57.858
-203.17
-31.749
4.387
19.003
43.177
-3.8571
-8.8996
103.61
57.946
-225.42
37.36
58.379
10.998
106.64
-15.699
-169.91
-1.3242
46.844
14.977
-8.173
30.904
26.162
-87.428
31.338
9.185
-1.8343
35.752
93.349
-38.413
-179.14
39.539
47.727
-8.8065
7.1539
-6.524
-4.2288
22.107
-8.0877
36.352
128.56
-56.614
-186.57
14.736
68.543
25.754
64.853
33.926
-187.55
1.113
36.484
17.528
41.186
14.256
-54.222
-19.766
23.541
-11.87
49.55
-35.196
-64.128
41.394
31.858
-46.682
-18.285
61.502
-16.222
23.074
4.9374
7.7409
-15.197
25.861
-12.942
17.31
71.335
-117.55
-72.162
44.95
52.215
86.208
-98.357
-24.806
28.687
-3.7086
26.798
-32.361
-46.206
26.486
67.671
117.66
-81.219
-31.859
-111.27
-51.083
86.536
78.169
-47.517
-38.735
44.187
-24.267
-12.223
-1.9773
-13.922
-48.125
48.654
-4.8559
17.64
2.477
-7.0743
50.64
-26.738
-0.8508
-12.494
4.023
-67.013
-2.3498
86.219
26.897
7.6529
-29.8
28.97
-89.236
6.1456
72.395
19.512
61.049
-47.259
-95.788
2.8447
77.361
6.0192
-40.056
-1.4368
-4.8559
-7.1528
2.2778
5.7063
-0.96294
-3.485
5.1124
5.4288
-3.6338
-8.5048
27.935
14.198
-32.533
3.7154
18.708
-16.959
-50.178
36.271
2.8027
0.46092
-2.9062
30.223
-0.03812
-33.727
16.284
-27.033
63.84
44.322
-127.81
7.3788
20.24
22.37
-2.7926
-15.958
-3.5225
-0.3921
7.2765
-10.403
16.35
-6.0857
4.1824
23.824
-43.13
11.44
-1.3464
-16.04
31.367
13.147
-29.033
-3.7056
-8.1826
-6.4347
25.336
12.062
-16.014
5.1271
12.605
1.0881
-10.466
1.0251
14.11
-34.551
-22.218
37.348
-1.4423
-28.367
4.1659
20.779
2.2413
111.01
-40.263
-118.33
-6.99
34.493
11.494
-16.495
36.211
-9.1607
-3.6313
52.082
24.273
-98.282
-19.645
22.417
2.8889
32.232
-22.818
14.765
59.05
-35.627
-1.7747
12.959
-5.3308
12.712
1.7483
-0.3744
-13.275
-35.469
-2.6594
-0.94262
2.9153
-1.3832
4.0644
-0.62252
-10.932
-0.53064
7.3015
-4.386
-2.9466
4.576
-1.5493
-3.0678
3.6012
-1.4817
-5.813
4.6526
-10.867
-7.6006
8.0023
4.3945
3.0322
16.27
-17.377
-20.334
-87.143
145.97
16.028
-32.288
17.122
-31.194
29.527
5.8161
-27.646
4.808
-16.252
-3.1294
6.7288
8.1422
-9.6978
-12.312
5.7088
3.0878
-4.7498
22.462
3.1108
10.802
-13.03
-20.768
6.5615
-17.571
6.9437
10.811
-5.4924
35.873
-10.34
23.755
13.574
-53.36
9.459
-21.331
-15.51
3.6462
10.562
42.357
-6.5472
-24.522
-13.675
7.8729
10.793
-55.237
-32.907
41.215
-22.357
29.585
-13.292
-9.0421
52.92
-24.344
22.973
16.779
2.9342
-7.8353
0.97257
22.422
-5.7468
-13.98
1.7858
-0.85415
14.566
-5.6687
-65.209
-18.536
28.546
15.113
-27.501
54.044
-60.959
151.84
101.06
-55.349
-113.51
-127.8
54.002
37.909
-12.767
-12.24
-8.351
7.5905
34.681
26.491
59.754
-84.129
-37.913
16.425
0.32381
5.5975
-14.261
48.386
-15.077
38.143
18.597
18.394
-78.516
-11.647
30.495
-12.575
-10.676
8.2095
-10.657
0.094206
8.867
14.298
-36.353
15.667
25.152
-9.0718
-34.774
7.5594
10.755
-12.042
17.748
-13.039
3.6863
19.603
4.7256
-13.831
8.8871
9.5661
-31.038
47.469
1.7257
-37.958
-16.9
1.6969
1.3765
18.047
24.333
-9.0874
-29.739
8.6122
29.704
-4.5899
-28.6
28.319
21.253
9.6127
-44.839
-16.428
46.753
-23.144
-16.791
22.947
78.636
-91.268
-51.877
30.979
-20.429
20.615
0.59095
51.751
-33.374
-64.745
19.489
-3.9959
50.234
10.445
-10.398
-20.241
-3.7752
-20.15
20.506
13.185
-21.056
12.157
34.609
-9.3568
-32.073
2.9228
4.0747
-0.65697
13.47
0.73623
-15.308
20.058
37.253
-50.853
2.6435
-0.52432
20.018
-47.419
20.848
87.11
-43.974
-1.7107
-57.728
7.9315
58.815
-21.242
-3.4755
8.8625
0.072652
-6.9928
-0.63221
-7.1884
-20.661
-23.19
-5.4187
22.509
30.784
0.43698
-23.535
-5.2868
38.728
52.347
-8.4665
-147.68
71.457
-82.377
120.61
94.056
-58.858
-137.5
70.679
31.296
-12.726
-17.918
-15.395
-24.844
23.259
68.413
-64.865
13.99
30.54
24.582
11.507
-32.55
-36.855
18.721
-46.192
22.174
26.597
-6.6647
-12.809
-12.382
7.214
-1.2241
-5.1097
2.2623
0.22555
-2.8828
0.78935
-7.6206
-4.2847
7.3727
-4.5305
3.154
1.9856
-4.9045
28.907
-7.3643
-27.675
13.832
-1.2513
-6.3535
8.2233
3.3349
3.025
-3.4178
7.2097
4.5295
2.8049
-4.9304
5.5145
11.226
-4.4453
-10.702
-4.2639
-5.4068
-12.575
-9.8008
2.8684
2.1191
0.96687
17.102
-14.174
-20.151
9.6438
3.5519
-9.7605
-0.43688
12.337
-2.5615
-2.6934
13.838
4.8497
-10.039
3.8899
10.146
-7.6698
-2.164
12.623
-3.8458
-6.7575
10.402
11.499
-10.868
3.0888
20.129
11.813
-0.29258
-5.9917
6.7023
-1.5816
-3.1692
6.0767
-0.77931
2.6322
9.9756
15.449
-6.7613
-11.628
-1.2054
-21.096
-23.263
-13.103
3.9095
0.95134
-9.5592
-0.96716
2.2045
-9.4099
-9.04
12.021
14.577
16.202
18.644
-10.146
-30.851
-22.622
19.067
14.632
-20.939
-1.7189
11.97
8.5777
-34.377
0.92921
-11.242
-5.0185
40.629
-19.302
26.628
48.508
-17.912
-60.38
-7.3447
-30.438
3.1341
112.69
47.721
-22.751
-126.9
-50.113
143.43
14.94
10.808
-5.6538
-4.1699
-5.714
5.1792
11.489
-18.07
-10.549
-21.54
18.844
21.999
-31.072
17.755
-25.495
-18.413
6.7916
7.2839
-2.3836
7.72
9.624
-24.366
-16.674
19.355
21.249
-9.6605
-11.526
-8.41
18.316
-8.3987
6.6481
4.7224
-17.779
-22.451
4.7487
-4.8967
-12.871
-8.7557
15.625
26.731
9.2612
-11.121
7.4149
-10.845
-3.8472
-3.5226
13.439
15.967
-14.883
-26.489
31.444
24.95
-66.382
8.2215
71.166
-7.5075
-14.824
-18.589
7.5871
8.4812
-20.055
-15.252
8.5615
0.33248
-7.2553
11.43
-3.3501
0.44811
11.441
6.4159
10.024
-11.528
2.146
3.5097
-28.709
-31.426
24.413
243.69
-264.87
-196.07
196.43
6.1443
42.804
-1.841
0.40016
29.19
-10.146
-18.291
-2.7835
11.613
-2.4017
-2.3649
1.9996
20.154
-10.027
26.002
-53.907
31.142
71.996
-27.348
-8.994
-3.7347
9.8994
-0.84973
48.537
29.197
-42.129
-19.451
-25.057
-25.318
-26.273
6.5253
22.377
-9.7569
-9.7696
-8.4066
8.7155
15.871
-21.347
-1.1755
-7.6982
-19.03
0.091993
7.5867
-11.037
14.139
18.967
-22.633
-10.821
5.6769
2.5512
-16.574
5.203
18.708
-0.53364
-13.138
-6.2985
-5.9165
29.364
0.98359
18.51
20.441
-0.21562
-24.662
-4.0526
4.3218
-7.4109
5.6389
7.9301
-1.8578
-10.616
6.9062
5.2006
-10.263
0.85107
9.0179
-5.8252
-8.0016
8.1272
3.1662
-11.161
2.9456
11.964
-4.4166
-11.667
4.3331
1.3362
-9.9523
0.30486
7.7935
-9.9026
-7.0106
15.08
8.2873
-9.4535
-11.826
0.87179
-6.0094
16.386
19.136
1.7167
-17.403
-3.197
13.168
-11.859
-6.1238
15.648
-2.3032
-9.9017
-1.2763
-3.4883
-46.246
82.038
2.201
-36.525
3.3296
-1.3669
-1.5823
-6.0678
12.1
-3.0783
0.69338
13.587
0.82231
-8.1882
11.917
3.7477
-7.3111
-0.74177
-8.9356
13.447
-55.835
59.087
25.311
-25.201
0.4237
12.617
28.945
-15.353
21.533
-6.7729
-24.089
-63.413
23.619
14.74
3.1363
19.642
-15.871
27.917
-27.337
-4.5812
-0.29779
-9.6238
-13.634
4.5267
5.0695
-34.235
11.335
-40.957
8.9712
10.654
34.844
21.786
-62.44
-18.586
-43.512
103.94
18.38
-6.8048
8.9253
25.155
-19.15
-21.945
2.6939
18.422
-2.8745
-8.3461
-5.6262
-22.795
28.057
28.94
-24.753
-23.348
55.256
-4.4509
-208.69
70.462
140.88
26.477
-53.644
0.28295
17.079
-23.495
54.257
53.074
-104.59
-33.383
41.042
-46.077
12.903
-63.55
-76.335
146.09
3.5023
-20.735
65.767
-25.355
-8.9162
-0.59727
75.987
-120.01
-64.937
97.418
9.0821
14.12
-9.2835
-2.0574
4.7535
-6.8035
22.062
4.2101
-17.083
-2.6681
-6.9866
15.494
23.14
-12.845
-8.7383
-9.2521
-6.5928
25.748
3.4366
-12.809
-11.866
-5.4568
9.441
23.738
-30.51
53.957
17.029
-80.911
22.381
57.511
-106.2
20.97
24.803
-7.1221
-20.232
22.812
47.036
33.652
-25.515
-34.718
-18.068
22.858
53.093
-32.332
-69.508
-19.497
55.026
-9.016
-18.698
-22.753
10.793
44.736
-15.539
-49.559
-6.2707
28.784
-1.2883
-2.4256
28.81
-4.1163
49.774
11.087
-79.037
-10.939
-7.2965
0.070642
48.623
20.07
-2.0594
-68.172
30.279
-6.8599
-15.403
19.575
-38.12
16.733
45.608
-28.374
27.073
22.573
-33.484
-6.3973
33.638
0.4649
-3.6285
0.71346
15.548
24.904
22.67
-12.992
-56.479
-21.73
1.3931
24.302
13.979
-10.314
27.721
-3.9346
-55.769
13.908
10.55
46.721
-3.1377
-59.837
55.315
-41.45
-13.325
4.6104
-11.898
-17.074
-0.36232
-13.988
-7.682
-3.8279
-16.729
16.366
33.04
-24.906
14.919
11.081
-10.419
9.7184
6.6667
-9.0573
6.4944
2.7426
8.7267
19.972
-9.4776
-29.818
20.758
31.703
-2.7227
-12.018
-33.562
25.074
12.171
12.563
54.179
-61.947
-34.217
-8.5242
-2.5377
3.8836
-3.4101
4.6315
19.013
-19.5
14.68
-2.2833
-2.4139
0.29554
2.1375
3.38
26.085
-16.873
-16.47
3.1653
11.903
-10.06
8.4859
-48.592
16.252
-8.7668
10.803
-2.725
50.849
-19.77
-45.143
36.584
-21.653
-15.055
-4.3848
2.1819
28.321
8.4049
17.853
7.2096
-18.736
-3.5057
14.228
-12.821
-2.4464
-19.921
-19.794
22.792
12.627
6.6988
-11.303
11.655
-5.0517
16.2
-8.7472
7.4745
-7.0662
8.9859
13.796
-38.13
-3.9017
16.647
5.3096
7.559
-3.5276
-3.542
-8.694
11.543
7.0331
-6.4112
6.4615
-1.2181
38.035
-0.94881
-48.98
17.807
3.9229
-31.998
-10.448
0.82456
-16.655
-8.733
37.689
-5.8662
-29.783
13.396
-0.31106
41.667
12.059
-36.421
28.241
34.25
-40.743
-7.9213
8.8003
-3.2857
40.814
-30.883
-24.087
3.8973
-28.375
-14.85
4.7006
-13.114
8.5628
20.407
-7.1014
-17.938
13.022
10.409
-5.5203
-1.588
-11.868
-1.6095
2.656
11.013
12.021
7.6717
-16.73
18.356
-2.7069
-8.4893
18.34
1.6719
-1.1325
-7.1239
-17.035
7.8095
27.827
-10.935
26.842
-2.3058
2.349
-11.384
-17.492
-0.46665
16.683
13.575
-21.688
-14.065
12.707
-10.469
9.6268
5.3573
8.4882
-3.0867
24.602
-14.483
7.3023
1.8189
-12.496
-22.804
-20.291
10.932
-14.505
-7.3918
22.71
10.291
-1.6168
-3.981
3.5172
-5.3793
-24.64
-2.4879
29.355
13.77
-18.123
-9.2306
32.53
-7.6666
1.0051
12.778
-43.012
25.447
23.178
-15.126
7.3226
-0.68991
-34.735
14.277
18.756
25.302
44.184
-50.091
11.166
-17.317
11.296
-32.941
-26.42
2.8908
2.7448
-10.244
-1.9993
35.969
24.336
-6.7391
-35.58
-29.099
47.485
59.73
-48.259
-5.5064
-25.107
-39.313
32.695
-19.095
-1.4304
49.679
22.697
-29.716
-8.809
-25.101
29.273
-8.4492
-96.422
18.882
82.859
-3.7799
-18.149
23.689
12.91
-42.747
18.126
12.48
-28.066
18.281
26.846
34.44
-8.7019
4.3678
6.0498
-53.809
-5.8327
-19.124
14.075
-15.346
24.84
-7.9555
-28.652
10.215
6.2958
8.5323
43.335
-58.309
-45.613
70.034
-23.326
-4.8549
37.003
-2.0636
-18.113
10.957
-10.208
-7.252
10.37
10.175
7.5133
-8.5755
10.233
19.818
-38.217
-26.829
11.432
21.991
19.593
-1.1258
-22.676
7.6043
3.5443
17.025
21.527
-23.494
-60.034
47.11
5.7088
9.419
-43.331
10.16
10.249
-60.896
56.118
45.634
-25.375
31.36
-48.744
9.4012
49.474
-17.115
-7.9192
-14.073
-2.4853
4.7531
-1.4674
-17.449
0.78942
2.7784
-9.7344
-3.7035
-1.4592
-7.6198
7.721
4.3556
8.5631
-7.8045
-16.875
0.79157
2.7109
8.812
-7.6689
-0.47009
6.2174
-1.2927
-3.6987
-0.85724
-19.552
23.617
27.37
2.156
-28.131
9.381
-6.2829
-27.948
-21.423
18.449
32.705
-17.507
-6.6143
-14.332
-35.108
8.7665
-5.5042
63.546
35.47
-74.559
-23.577
47.573
21.912
11.432
-17.626
12.88
16.566
-19.635
8.6879
7.5662
21.14
-2.7977
-25.38
-5.363
1.9305
36.424
-42.283
-4.9822
22.843
-16.473
-2.9908
11.945
-10.795
-0.71552
1.6171
11.459
11.057
-38.394
7.4367
21.374
14.954
7.8381
-44.991
31.247
5.0041
-71.111
9.2926
31.046
-11.853
16.56
14.713
15.584
4.6362
-7.0666
-52.251
30.169
36.615
-22.228
20.321
-17.143
-19.835
-29.25
-23.27
23.548
71.196
-6.2587
40.922
-56.756
-26.503
13.873
46.502
-18.893
-96.04
-18.217
51.804
18.377
10.882
15.642
-1.4389
7.413
8.6531
-9.7801
-11.963
-9.8344
12.855
16.997
-36.234
-8.7028
14.954
-14.251
17.074
4.0014
-14.213
14.221
32.903
11.024
-13.437
-70.923
-9.9249
15.767
6.7544
1.7856
7.507
3.8297
-35.92
-4.5281
6.8883
10.658
22.585
-2.8076
-26.934
5.0388
12.213
15.375
13.151
-0.024296
-16.483
13.265
6.4521
-2.9873
-8.459
4.1913
0.90039
-7.7434
-4.7899
-24.647
36.639
4.369
3.5075
2.8789
44.779
-82.425
-47.564
125.71
13.141
-18.251
-23.604
-3.3128
-15.091
-7.716
3.2452
9.7356
-8.1402
-8.2027
0.53054
-10.287
3.2973
-2.2923
-11.49
1.0366
-11.254
9.1871
15.33
-2.1893
-13.05
-9.3384
13.827
4.5299
2.28
-11.944
6.6797
0.32575
-2.4942
7.8934
-4.809
-20.405
-6.7468
35.486
-88.737
78.639
54.973
-44.332
-57.803
129.32
-146.57
75.209
63.948
-65.119
-36.052
48.775
59.327
-157.54
85.442
3.9558
-2.5504
24.726
1.7798
-51.358
3.0862
60.022
3.3849
-24.158
19.288
-9.5839
-5.3705
-33.984
1.5906
35.184
-20.764
12.519
-4.1514
-52.923
11.862
44.497
23.996
-26.38
1.9171
0.95033
-23.497
72.522
5.4754
-90.27
4.0603
89.23
-77.117
-39.783
-10.637
49.883
49.202
-31.73
9.7643
-50.922
26.033
67.62
-26.599
2.0833
6.0169
-38.991
-31.703
6.7661
15.65
20.74
-30.503
1.6943
28.091
-73.67
-15.974
37.493
53.017
15.139
4.2622
-7.8168
-61.252
10.721
56.208
-25.623
32.082
-64.917
61.677
4.3802
-82.733
36.138
17.834
18.156
0.71582
-29.804
-12.348
15.272
16.22
-29.847
11.11
-47.858
61.722
-72.297
-66.139
138.01
-32.103
-52.206
-61.103
197.9
37.495
-95.267
-37.076
22.371
-6.4313
-18.277
-36.956
112.61
39.468
-77.711
19.313
-58.815
34.868
86.373
-67.155
-18.601
10.464
33.102
3.5123
-40.338
-39.157
1.8789
15.357
3.1492
36.405
-30.847
-7.852
27.528
15.554
-35.107
-55.016
-1.1645
60.207
-3.5196
14.02
22.344
49.816
-58.302
-32.808
47.719
-63.82
-25.784
67.078
-17.785
-50.459
45.17
27.296
-4.8146
-4.1017
5.0407
-10.247
2.0372
6.3755
-29.339
31.566
-10.134
32.672
12.001
11.009
-35.142
-44.141
-5.0717
-5.6224
-45.775
-2.1584
183.8
-68.801
-56.922
1.2915
-34.776
153.78
-31.965
-71.07
-52.038
9.8074
16.501
-12.274
29.123
-17.092
6.4351
0.63466
-7.0442
-1.6542
8.0718
-1.6182
4.1179
-4.3339
33.581
12.537
-29.063
-52.099
111.44
-41.069
-37.778
-52.929
15.083
53.089
32.009
55.452
-47.522
-25.87
-12.143
-3.3664
7.5766
-6.5534
-1.55
-5.161
15.133
8.8242
-2.5393
-0.6088
20.259
-17.751
-15.994
31.452
3.3481
-26.873
17.319
21.754
-34.974
-11.719
31.256
-20.137
-29.713
54.193
-1.0311
-77.194
21.127
-3.807
54.097
25.091
-42.768
-21.907
12.219
17.521
-48.354
-18.632
38.648
10.935
4.989
7.6069
-1.3515
-31.08
31.448
-60.081
76.49
43.944
-62.205
-7.3979
-6.0748
39.664
-21.426
-19.819
-15.786
1.8792
29.493
11.947
27.298
-32.48
-8.4107
29.82
-33.708
-20.918
7.384
21.602
-12.634
-7.289
27.075
2.9956
9.9331
-19.945
-38.509
14.653
3.6902
35.617
-0.17094
0.23238
-27.48
-15.036
23.101
-6.5424
-4.1376
14.604
-20.328
-0.13839
9.7287
-5.5685
16.607
-2.4664
6.3007
5.2139
-15.805
13.756
-8.5139
-2.7601
9.7795
8.8091
-2.9669
-34.659
-10.568
-7.5954
48.319
11.812
-24.803
-12.899
12.686
10.234
18.033
-27.099
21.762
-54.256
-52.125
160.16
-58.307
-33.028
1.6258
3.83
26.442
-14.797
-0.088557
-9.5922
-4.2647
-6.7929
-21.577
18.477
20.347
-28.387
7.674
-14.657
9.4421
9.8839
-6.0864
73.46
-21.433
-49.981
11.306
31.681
-15.445
-8.938
-11.078
1.5266
-12.289
-0.55843
49.851
-6.7065
-18.149
-16.147
9.2195
5.1005
-9.9793
0.70603
51.209
6.8459
-17.91
-28.231
-16.876
18.07
-16.637
-9.6602
3.3329
6.3495
-5.3786
-5.5036
22.79
15.183
-5.1714
-16.502
6.0763
34.648
17.153
-33.835
9.4611
3.1878
-12.927
-24.48
9.5063
-1.0059
-3.6998
-13.672
11.618
5.9887
-8.7552
-0.32509
-7.9153
2.3169
11.429
0.9744
-12.215
-5.8309
19.671
0.53511
22.408
-12.655
-6.1517
29.026
7.7889
-31.02
-46.726
6.0562
-8.8712
41.732
0.80481
-9.0985
14.513
9.6625
-25.864
29.883
-70.476
-15.784
120.84
10.145
8.6075
-5.0113
-10.538
-19.874
-8.0988
-6.1399
-19.23
8.019
3.2009
-7.814
-1.2531
-2.6099
-11.868
4.817
5.545
-8.5165
-9.9634
5.588
6.5272
-7.0339
-1.569
6.5791
-3.03
-7.8355
2.9084
4.5834
-9.417
0.029546
7.693
-6.9416
-17.422
14.039
10.972
-12.249
1.2567
10.947
-6.6814
-9.6513
9.3965
-0.33725
-10.433
5.9091
4.461
-11.892
3.1548
8.8051
-10.24
-1.6064
14.547
-2.8564
-6.5541
10.473
1.0073
-9.5125
8.1844
7.3469
-10.576
3.9388
12.456
-5.0081
-8.4066
14.206
-15.109
4.0045
20.21
8.8066
-4.5597
-9.3272
8.2672
-4.5384
-13.933
-4.2804
12.026
2.9635
4.134
5.3552
-7.2724
-7.3099
5.0285
-2.2915
-6.5265
8.462
-0.3998
-5.7338
6.1624
9.7291
-29.723
16.984
24.812
-23.218
2.1841
7.5094
-6.0537
0.23222
2.0814
-7.979
-3.0124
6.885
-4.6336
-3.1321
4.1067
-8.7319
-10.311
2.1485
-11.174
-2.2408
17.814
10.156
2.0526
25.896
-1.3578
-32.434
-3.8862
-0.10215
-11.31
5.8109
6.5971
-3.0368
7.2129
4.9705
-11.854
-4.7803
12.885
8.7723
-7.9692
-2.3215
9.1795
-1.2337
-7.5571
5.7325
7.6009
-5.7448
-0.88434
13.474
3.226
9.3173
0.22176
-10.202
-11.252
-12.761
6.1381
2.4824
-4.9399
3.4748
26.144
-1.4212
-23.89
-0.99718
-9.7
-8.1498
7.8711
11.128
-2.3745
-6.7612
-2.6187
-11.766
-8.1169
-0.74362
-6.1394
-0.30837
20.597
4.7144
6.3994
11.201
-5.2368
-6.8577
3.2563
-5.8319
14.324
2.3084
0.65057
0.54956
3.12
19.916
-21.142
-12.237
14.913
-5.697
3.1552
0.041514
-6.8056
-2.6078
7.7353
-2.4399
26.979
-14.731
-21.308
9.7139
-4.2407
-0.66089
5.5732
0.60486
-4.9238
4.0359
-2.8559
-5.2512
2.1358
18.578
-9.7795
-27.64
8.3429
-4.4857
1.2282
4.4356
-5.504
-0.43471
4.7084
-8.282
2.0327
3.0968
-7.8114
-2.4776
0.42997
6.6764
5.004
6.6573
-9.8962
-0.054697
9.5534
-4.1688
-5.0733
8.8064
-1.0412
-2.0454
9.4239
-1.3512
-4.6721
10.136
0.80903
-7.7802
9.6531
5.4883
4.6914
-14.72
4.7809
0.075809
5.8943
8.2394
-14.283
4.9003
-2.0076
12.646
2.7571
-6.4
-5.2417
1.1001
-8.3104
-11.337
3.5035
-6.6641
-1.9405
4.1311
-1.9564
-10.326
-0.117
2.1221
7.0974
10.52
-11.086
3.2965
8.8187
-5.1484
1.9645
0.15626
-6.9124
3.6491
9.6687
-22.236
-16.039
12.607
1.4891
22.351
8.5456
-44.236
42.547
19.291
-12.957
-12.059
-6.4126
18.088
-28.582
0.95718
-4.0828
18.894
-2.2414
-30.265
19.37
2.8844
-14.359
-6.5864
29.499
-2.4401
-3.7536
35.007
-21.24
2.4665
-2.9916
3.0802
-13.563
7.1536
19.52
-40.384
27.739
-7.8624
-5.4444
24.586
-7.8707
-30.939
18.673
-0.93507
-21.824
-6.4107
4.1642
-3.0009
-0.33404
5.5693
-0.0090066
-6.1048
7.4686
3.781
-10.188
2.4486
3.8732
-7.5368
5.7783
7.7468
-6.1572
3.005
7.0346
-6.9614
5.9329
5.5164
-3.4463
13.111
1.6795
-8.8333
6.2129
5.9946
-9.1896
1.3986
12.905
-2.0566
-7.5964
6.2649
2.2394
-4.077
-13.108
10.574
6.6032
-6.4221
2.8841
11.54
4.5526
-37.867
20.132
13.212
-5.389
-23.823
-29.213
-23.815
-120.32
121.34
109.06
-45.428
-23.563
12.884
26.551
-6.6504
-91.195
89.288
15.073
-109.99
18.148
51.299
-53.304
37.113
47.816
110.81
-101.49
-1.6137
-88.189
-11.749
121.05
70.283
-42.635
5.6563
17.511
-95.084
-39.921
86.157
-44.571
35.103
-54.426
-73.126
71.405
34.105
24.292
9.9302
-16.092
-23.446
-18.682
-7.7662
14.888
-12.507
-1.3421
-4.0315
-8.4815
6.1261
54.035
-6.0796
-83.447
80.158
-14.57
-59.327
27.979
13.196
-102.21
89.745
42.724
23.893
-24.875
-32.801
-1.2004
12.765
3.7719
17.634
20.817
-10.053
-34.939
-4.3313
14.22
6.7198
0.49137
-7.4695
-29.19
24.357
11.814
-6.8664
-17.779
-12.853
6.5201
20.694
-33.832
29.391
43.591
-14.699
-19.517
-33.53
-0.44589
28.549
-17.017
1.3273
1.8391
-32.855
-29.412
113.9
-25.225
-57.723
8.8529
10.844
3.8816
14.09
0.084154
8.3673
-18.332
-10.911
2.1668
26.163
9.4094
-2.5482
7.7722
-20.077
-30.81
23.983
20.912
-7.955
-13.71
6.2265
11.91
-9.9631
-21.563
23.865
-11.759
-1.5537
-53.048
11.882
93.08
-33.631
14.74
9.1921
4.414
-0.72521
-39.373
-7.5053
-35.953
41.848
36.614
-24.013
1.9236
-4.0657
-7.6662
-9.5799
-18.07
15.485
1.756
1.1379
-20.762
-6.0674
133.49
-46.739
-77.194
2.9437
9.0518
-18.829
12.111
30.74
-12.021
25.183
-36.388
24.989
-9.0142
-1.2045
-43.672
42.872
121.75
-77.021
-61.299
-8.8618
28.235
11.03
2.6659
-9.7925
-8.3065
-3.4816
32.084
18.58
-25.414
1.0112
17.512
-19.537
5.2654
6.1612
9.3828
-11.169
-50.701
-0.65882
-2.2734
-3.708
-2.8067
-3.1608
10.951
4.377
-12.287
11.421
5.1983
10.213
-12.815
-2.7107
19.75
-19.458
11.53
-8.9803
36.224
-9.5811
-2.8812
15.635
-40.581
-11.468
10.356
10.157
-6.9953
19.442
0.14596
15.325
33.357
-2.8857
-9.9616
-14.925
-20.268
19.108
31.931
-53.11
-34.737
34.833
13.546
11.879
14.786
-15.868
-19.772
24.245
-19.315
-14.34
10.47
-15.221
-20.601
3.8998
23.421
-7.4198
-13.232
18.883
5.1542
-15.807
12.627
-12.386
-2.6319
4.932
1.6065
-4.152
-3.9742
13.341
11.899
-15.41
-0.19347
4.4705
-6.9391
-8.0037
13.68
-5.6561
-21.969
12.279
-11.115
27.862
-4.3975
-16.316
1.573
23.105
-17.876
-7.1315
18.362
5.2541
-6.485
11.757
-1.1399
-7.2456
-0.34555
13.988
-23.944
-15.75
19.692
-86.656
18.947
52.851
22.343
67.387
-16.424
-9.827
-15.061
-6.038
24.353
-45.791
36.608
37.972
-92.003
27.873
21.007
-35.426
-3.8025
22.078
-30.978
-27.518
13.823
52.664
-19.203
2.4724
-20.585
19.43
10.282
-23.714
-9.3258
3.3173
6.5789
-13.265
4.5168
8.2639
-6.1136
13.905
5.5326
9.5139
33.285
-30.682
0.01597
-25.148
37.189
-9.2705
-19.75
-0.27294
-22.256
-30.002
-8.2624
65.056
13.017
-33.447
93.177
16.511
-100.44
38.816
-48.188
-34.987
-15.138
103.36
-22.396
-44.99
106.44
9.2553
-31.6
-6.8046
-17.004
-6.3029
-17.107
-15.643
4.4251
20.66
22.188
-7.7263
-11.531
-50.073
20.344
49.328
-49.553
50.71
5.709
-13.162
-11.002
6.9928
-45.969
-34.433
51.452
19.271
-34.534
-5.4997
44.073
-10.857
-4.2586
-18.736
-37.435
-18.167
22.193
6.1735
49.324
4.115
-15.516
-16.286
-14.053
80.31
28.607
-39.022
23.343
30.981
4.1494
-101.01
-57.556
22.26
106.75
-73.764
-25.809
25.093
-2.8786
-27.412
-26.919
49.289
12.734
8.3809
78.218
-20.913
-119.31
15.983
74.739
66.995
-72.745
-2.4938
-37.18
-2.1963
18.487
9.7582
-13.809
3.6091
8.6557
-29.634
27.884
-15.65
5.8312
24.284
-22.733
1.139
3.3097
-10.115
15.265
3.343
-19.844
-2.5263
30.902
-9.4169
3.063
13.803
-16.817
-12.522
-21.564
2.0896
14.307
8.5579
-9.0206
6.584
2.998
3.6179
9.3193
-5.6132
-14.872
-12.618
-28.765
4.7073
49.315
6.8641
1.902
-31.823
6.0118
52.748
-23.976
-34.777
-24.382
0.80027
5.7428
28.481
-19.449
-22.59
106.16
10.391
-23.155
-6.9698
-6.5382
5.8589
-9.2526
-38.504
9.5881
10.444
6.5333
5.067
3.8578
7.5999
-24.788
2.3502
-0.06756
-11.783
2.6586
4.6165
-6.5021
-6.5123
4.6069
-2.284
-4.9622
-0.10568
0.25444
-7.1617
-3.6361
5.0154
-2.0629
-5.6076
3.1685
5.486
-6.611
-5.5361
8.044
-6.0818
-14.514
-15.233
22.281
15.67
-2.9555
10.906
-23.045
-15.189
33.561
2.126
-11.233
3.5097
8.8599
-10.146
-5.9449
5.5414
-21.276
5.7601
-4.3955
-4.9227
-6.2595
122.18
188.59
-79.704
204.73
-482.69
-459.21
90.414
178.53
325.96
-0.19281
-23.696
-33.767
39.789
46.769
-69.248
16.909
-4.4694
-24.114
85.444
-37.903
44.151
37.234
-115.42
20.016
73.343
-51.611
-7.6825
24.38
-17.798
-40.573
2.5581
-37.481
-14.953
22.143
5.3387
23.162
20.215
47.466
-214.06
-134.77
204.39
36.233
51.669
60.041
1.9822
29.491
-29.836
-7.6479
-39.637
-1.9271
40.523
-9.3619
-20.073
-58.187
-3.0985
56.501
-32.797
-2.294
10.519
15.735
21.849
2.7195
-26.833
-3.9369
-10.432
17.22
-14.638
-19.061
7.7349
32.485
-5.2208
-31.05
9.4795
-4.7253
18.289
-1.2116
15.474
-31.988
-21.901
-22.866
71.356
18.894
-60.337
5.5606
9.912
-1.9668
-6.4396
1.5168
12.014
19.452
-27.284
-48.935
-31.404
49.688
27.755
-30.227
2.4446
41.172
11.581
-39.129
48.884
-25.247
-45.09
39.838
40.816
6.2704
-84.397
58.822
26.69
4.8525
12.666
20.736
-32.622
-31.34
-13.179
23.071
1.6513
-16.169
-4.8349
-7.6509
17.599
4.3753
-25.847
6.6335
13.049
10.126
-15.691
-22.676
-3.5259
12.782
-5.1965
-4.4006
9.2075
7.974
-9.4672
-4.0318
-22.462
6.1979
35.885
-6.9625
-88.425
63.069
54.146
36.616
23.643
-75.98
-8.9202
-2.3307
1.4742
-42.969
38.034
-2.5682
25.395
11.144
-49.581
-17.956
34.02
-24.389
-6.5686
18.878
14.343
-0.18878
-15.554
-2.1855
2.1249
10.516
12.936
-7.4707
-14.117
2.9578
27.298
-14.987
-17.592
24.19
9.7286
-21.446
-1.5118
-17.392
11.03
-8.6906
21.178
27.735
-25.363
-21.514
-46.756
-57.266
178.61
-0.44642
-87.349
-39.022
66.189
133.73
-107.98
-30.816
-7.6156
4.0263
6.1325
-6.2047
7.1884
5.1142
-7.282
-18.392
10.32
7.8707
-10.708
10.329
0.74199
-9.6767
7.0774
-1.4543
-11.899
12.119
0.39887
-6.1268
-7.7302
13.425
-28.703
-0.39752
106.8
-37.507
-27.338
-19.276
8.0229
2.3636
4.865
1.799
-7.1686
15.642
-4.4429
6.4658
0.3553
-51.124
35.082
-48.145
1.3168
69.647
-47.232
-6.1508
-32.051
21.753
44.778
31.367
9.6417
-28.137
-16.568
11.564
-16.208
-20.066
7.6255
25.824
-41.63
58.02
26.756
-3.8629
-9.2385
-2.5572
-7.6193
-4.0278
0.85408
0.05266
-18.013
-8.9183
2.374
-1.9388
-7.908
3.5065
1.164
-4.9903
3.1539
-5.7591
-3.1
-5.1776
-10.52
-11.183
26.675
4.9323
-48.192
36.39
2.7225
35.214
-50.992
8.8793
-62.136
50.552
30.776
7.9637
4.1356
36.011
-38.681
6.3741
72.915
-52.96
-1.1146
-45.258
10.908
12.842
2.3951
-8.9626
0.56554
-6.4376
-5.3958
7.7872
0.037621
-9.9158
-8.2225
54.245
-5.1175
-13.305
-21.156
11.09
-17.763
-41.529
10.063
54.917
33.135
35.854
-22.623
-40.673
-21.279
11.91
6.5168
4.3011
-8.6445
1.1424
-8.7703
-18.413
-8.3719
-5.1894
-6.5735
6.0662
-6.7253
-0.94953
-7.2437
-1.0622
-0.37528
0.2009
2.9361
0.45893
3.7732
-0.75914
16.288
5.8666
14.535
-9.9939
0.98023
-3.9703
5.669
1.6823
-6.635
23.548
11.845
-8.4947
-14.356
12.774
30.197
37.51
-49.755
-56.142
-40.218
62.834
-12.774
-60.21
36.909
95.791
-48.772
-6.0573
68.421
-74.978
-9.3442
-19.434
30.977
-11.494
14.359
57.326
-95.644
56.147
9.3795
16.278
-17.892
-14.44
-7.2803
-5.0287
17.619
23.833
10.583
6.359
-73.874
17.752
-5.761
-32.122
57.212
-7.6798
-40.026
18.144
28.358
-6.5374
23.589
-35.572
0.82991
-4.1234
-2.5886
16.494
6.8771
13.819
-0.59216
-8.071
-18.221
-2.716
40.884
-6.0409
-29.794
-0.57946
52.625
-38.733
-22.567
21.186
3.1203
-6.0212
15.178
5.1085
-22.089
1.1154
20.102
-67.131
21.355
26.345
200.43
2.0904
-142.13
-93.883
-42.849
-100.28
85.665
16.638
86.209
-14.337
4.6601
38.597
-23.317
-23.175
30.872
-14.854
-76.292
16.209
39.1
3.1503
11.871
-27.699
21.151
22.276
-57.827
16.287
-10.068
0.97781
14.628
48.664
-21.785
-32.684
-14.867
0.94649
12.494
-6.9536
14.482
8.4688
2.8128
5.5881
-41.221
2.0416
-57.696
61.846
64.168
-14.656
-33.838
-12.641
16.881
-5.8035
-6.5045
-12.297
-14.25
-15.392
14.103
17.218
-4.6551
-5.3981
10.224
-2.5757
-10.732
-3.1522
10.538
35.474
13.651
2.7529
-16.897
37.718
-18.441
-11.389
3.9361
1.8021
-3.2419
-3.6181
17.534
-0.17825
-69.078
24.461
6.8942
4.3188
20.817
-35.784
3.4671
7.8166
0.037044
6.2414
4.1977
-12.142
3.8716
0.2596
-9.0921
3.9661
8.8183
12.228
5.9042
9.1806
4.885
19.91
-22.908
-48.363
-19.314
34.235
6.9365
29.724
-15.908
-33.435
-3.1287
-30.166
4.5087
119.61
-8.4496
-107.98
42.928
-50.21
-125.53
80.577
107.3
28.584
-73.004
24.238
-11.588
3.0856
3.4236
-31.361
16.978
32.466
-7.1063
-20.362
24.877
-5.9525
6.801
31.478
-155.12
76.325
107.73
-38.883
-35.642
10.675
47.587
-13.042
-16.947
1.5844
-0.094271
31.376
31.313
-103.56
-26.141
52.656
-25.62
33.009
20.274
-1.5306
15.929
-72.759
0.3124
13.863
-48.154
24.501
190.86
-128.33
-45.426
-14.144
18.657
67.601
-51.911
-10.154
2.655
-64.952
11.161
68.414
-43.024
23.239
20.784
-24.854
96.553
21.452
-36.921
-141.52
-2.0165
74.6
17.847
-13.224
1.2203
6.9016
-31.566
61.906
-150.06
67.852
121.83
-63.114
-34.358
6.5917
2.6842
-15.188
28.427
57.246
-15.082
-46.522
-15.412
21.57
-10.307
-36.367
-10.457
93.917
-16.089
-67.536
41.223
4.8358
-27.688
-23.795
33.312
29.562
39.074
29.018
9.9368
-59.251
-38.439
5.5443
-7.335
-7.5039
-62.913
28.017
58.834
-2.0163
2.0324
23.669
15.887
-66.791
13.29
6.6143
30.007
-4.4746
-20.139
14.233
-40.3
-17.642
-11.04
11.355
28.356
31.645
3.3041
-34.809
-6.4255
-1.2834
-21.491
15.84
44.923
-59.063
-22.8
17.896
4.8085
-20.885
-0.61085
7.0335
27.667
55.282
-7.7022
7.4023
-3.9255
-17.569
1.6798
-2.9824
5.7636
8.3223
-41.19
13.351
18.074
-85.262
-3.5031
32.863
32.136
-25.046
56.212
3.8018
-11.105
6.8868
-13.833
11.369
-0.41341
2.1188
-12.024
5.4278
-24.861
14.136
76.546
-51.089
-11.348
-25.003
25.409
-28.264
8.0795
37.521
-16.378
19.135
15.757
-29.375
-17.373
-21.94
-1.2525
-12.563
1.0423
29.576
16.658
10.698
-12.127
3.0863
-34.3
7.3032
7.5747
-8.0992
26.755
24.63
-30.065
-19.951
24.75
44.15
-43.479
-12.131
-13.494
11.169
64.317
-19.562
-19.154
-55.765
54.812
10.936
-34.972
15.21
4.9201
-10.955
-42.72
-1.8998
-0.43825
8.9442
5.4605
-8.3858
-11.896
16.453
-6.9319
-8.8796
8.6552
2.7531
-6.6977
2.9271
2.4742
-5.6346
6.6806
2.0404
-11.808
7.5153
5.8461
-8.1721
9.0353
7.3271
-1.8303
6.0921
1.118
-1.7922
7.7652
-0.58049
-2.5255
6.5373
2.8609
-4.9311
4.1364
6.8315
-3.9508
0.16913
4.7585
-0.57777
-3.0099
6.5248
2.913
14.443
-8.7269
-11.792
17.965
9.0475
18.468
-50.341
-1.686
9.6684
-17.854
2.2609
2.4075
-1.5707
-3.5242
1.7861
-4.939
3.9086
-9.1295
15.089
9.1065
-9.1648
-5.0907
-5.7354
5.8276
17.443
13.862
82.501
-23.85
-108.42
11.067
50.797
-30.021
5.2679
12.859
15.236
-1.5143
-18.304
-42.903
-22.58
-34.5
87.659
48.186
-71.761
-5.2573
33.648
14.775
-26.065
-2.6704
12.328
-60.78
-15.688
64.561
-36.004
-3.1964
-12.186
3.6087
42.273
7.323
19.982
-4.6868
-39.056
-19.194
19.249
-14.423
-5.9362
23.044
-10.447
25.275
-15.472
-18.529
100.03
-93.118
-16.371
42.418
25.26
-45.452
-37.5
49.158
-53.304
-0.55062
-18.622
-51.389
117.59
31.506
29.732
-35.15
-42.669
40.468
1.447
-62.281
-3.7019
13.568
29.638
59.649
-7.5745
-32.979
-55.114
-19.89
70.238
-12.353
6.8436
-2.2503
-14.898
24.053
2.3892
-4.6005
0.49007
-0.55957
5.9972
-5.0194
-4.3855
2.1219
-5.3288
-1.7123
3.2103
-12.903
5.7098
5.512
-1.1786
6.7706
3.5464
-8.8898
17.787
39.927
3.2155
-14.798
-31.288
-60.294
-4.6217
86.145
57.421
-35.69
-54.066
61.505
3.2048
-87.371
20.125
18.257
-34.776
21.803
10.17
-21.034
-15.192
-20.995
84.895
-68.716
24.296
53.2
-45.387
-59.005
34.003
34.851
-1.9713
-10.418
-14.358
4.7932
10.825
4.2918
38.563
21.343
-39.923
-28.247
-41.034
-8.2375
31.853
6.096
30.417
-21.857
-25.4
-5.9821
24.483
26.617
17.793
18.155
-46.067
-4.5212
-90.873
-21.521
117.61
-8.2987
27.734
-8.006
-31.501
18.515
-32.103
17.863
15.874
-18.364
23.149
-21.044
-11.214
-36.021
0.74392
36.928
-7.2659
70.635
38.849
-48.01
-54.665
42.523
-7.5056
-79.15
-1.4335
113.61
-31.847
4.6759
28.259
35.693
-92.041
-43.2
41.269
-18.211
-7.5845
-39.517
83.446
14.838
21.187
-36.005
-58.552
21.808
-8.0753
-21.243
3.4415
80.929
50.899
-5.2864
-66.573
-60.822
4.5697
49.936
17.687
-15.316
7.8563
-2.5278
-29.054
7.1204
6.2457
-28.037
-51.468
-23.263
79.503
108.88
-98.05
-39.829
75.266
-47.089
93.534
88.02
-51.898
-13.311
-43.489
8.6557
-22.024
-12.518
-14.122
42.581
-19.934
-0.56753
8.2758
14.335
0.74584
-50.879
1.6838
36.916
42.28
-36.245
-52.032
-14.557
-31.53
32.377
-44.503
-6.8646
118.1
-20.387
54.108
-5.5727
-82.787
-7.4122
0.83574
-31.299
-49.004
54.943
113.74
-67.013
-48.491
-27.51
29.295
89.016
66.484
-30.95
-38.191
-45.018
-6.2932
-41.998
-41.366
55.456
48.313
-1.6331
54.555
29.78
-71.205
-12.386
59.633
-14.783
-55.987
5.8919
-7.2693
76.431
32.796
-78.781
-57.612
37.102
-10.899
-31.102
14.538
8.5565
-13.125
-0.9283
13.323
-1.4251
-2.6046
-2.5011
0.5554
17.875
-5.9401
7.5302
25.108
-44.393
-2.1141
23.862
3.4736
-7.7105
3.0987
-18.782
14.901
7.5282
-13.268
27.847
0.29659
34.635
24.256
-38.062
-60.586
-0.55093
36.887
-34.146
-5.2071
-2.4705
12.739
-11.513
1.6099
11.936
-0.29542
-28.7
-15.883
55.181
19.255
-24.855
-25.912
-1.616
44.101
-21.94
-2.0567
13.614
-10.945
6.7534
44.233
23.986
-26.363
1.7695
-10.305
-91.453
28.925
62.403
4.5251
-17.574
8.7584
-67.29
5.1765
123.89
-28.537
4.5078
-34.327
-1.6895
19.191
-10.233
-27.26
-21.886
18.742
0.32254
-26.882
20.696
-19.16
6.6237
16.826
-13.798
-23.493
13.224
2.8125
-10.183
4.4676
3.7604
-18.508
-3.06
6.8377
2.3535
-6.8153
7.1044
1.9967
-7.527
5.5609
14.877
-13.412
-4.5489
9.4905
1.4808
-2.448
7.6863
0.51351
-6.2126
11.425
-9.5951
-7.6711
21.016
6.5656
-5.2444
2.6953
13.334
-5.4466
-4.6096
5.4364
7.3987
-0.33492
4.803
11.822
-8.752
-4.1221
0.06808
-4.1256
-6.9822
3.9535
7.1798
-12.753
-11.317
10.537
2.1557
-4.8714
-0.69469
-8.1947
-4.1674
-5.2743
12.721
-0.26339
-8.1399
5.2172
18.691
-18.836
-4.4563
-19.668
-20.401
38.787
29.509
-5.0583
-14.209
40.68
-54.165
-40.587
67.974
-11.283
0.87583
42.093
-27.564
-18.166
-20.557
-0.059346
5.0125
-40.927
53.363
-0.56304
-7.011
-20.136
18.851
49.356
-18.11
2.341
22.401
-42.992
-14.947
50.087
-4.4747
-47.072
-19.574
31.096
-7.9398
-5.832
66.51
-28.455
-10.559
10.306
-10.054
-6.2873
-5.3635
-13.555
41.227
7.2712
-63.72
4.8985
1.6605
25.719
31.623
-9.8002
-20.914
-0.53265
6.9442
-29.16
-9.642
6.6911
19.385
19.974
-10.874
65.165
-31.878
-24.969
53.842
-40.936
-47.839
14.399
8.6204
-17.424
-2.7818
-19.333
-0.079374
34.852
23.898
0.64195
39.555
13.26
-28.654
-35.927
-3.3548
-23.116
-25.624
26.063
11.079
14.922
4.7586
27.477
-4.7086
-13.638
-45.997
-0.29165
39.649
-13.34
-18.503
19.891
5.7401
0.23006
9.251
-42.08
24.448
0.94442
-9.0309
13.634
-52.951
32.278
62.679
23.039
-14.065
-68.256
-6.7883
26.201
-6.8284
15.899
-2.3631
-3.3864
1.6232
-1.5856
-30.491
108.58
-37.073
-54.613
19.644
-9.1576
-32.466
9.6401
0.94396
9.1497
2.7586
8.2731
-2.3092
-10.81
11.496
14.553
5.0103
-31.422
4.8627
18.654
-34.729
18.794
38.076
25.89
-18.674
-53.974
-9.2907
51.362
36.84
-4.9063
-87.892
-12.023
42.243
29.159
21.717
-33.313
-39.971
-4.8549
-12
-40
49.922
60.458
-74.877
24.575
27.748
-10.52
-1.9793
3.6147
-37.335
18.116
-41.081
42.359
-12.776
-20.089
45.972
6.2264
4.5055
6.3367
55.647
-45.499
-18.078
-18.778
-7.8793
-12.57
29.292
18.155
1.3948
44.971
-26.304
-13.446
-55.612
-42.173
96.245
4.8674
0.696
-15.963
-33.829
6.292
-23.893
53.435
37.091
-12.945
-38.683
46.706
-48.585
-33.579
34.319
29.231
-54.129
-0.53657
22.782
-0.084
8.2313
25.32
-18.812
-2.7985
26.914
15.676
-78.084
-13.384
35.419
-25.098
20.796
0.21955
-14.577
45.108
23.727
-17.817
16.286
-66.138
3.4838
41.51
-53.619
-28.808
60.047
0.5657
23.333
-8.3436
-21.334
-45.971
21.982
71.403
47.136
-35.016
-8.5245
-24.229
-29.108
11.908
2.2677
-17.85
17.165
-1.2988
4.8612
53.667
-44.071
-47.349
13.399
33.312
-22.449
-38.003
14.088
100.49
-24.951
-76.017
50.493
-48.772
0.45461
-0.2247
-10.246
-12.608
28.355
-20.089
3.8765
1.639
10.966
18.691
4.7005
-17.536
6.0326
0.71718
-23.331
39.607
15.308
-4.851
-8.7431
-2.0945
-0.54518
-1.6539
11.365
-2.2874
-8.8608
10.406
11.299
-0.8371
-16.668
15.041
-0.35557
30.036
-20.735
-13.83
-9.4297
-10.384
-0.95291
0.64663
15.019
-47.196
8.2312
7.088
10.861
6.5558
-2.0022
11.795
-23.466
-1.0495
11.073
5.1698
23.675
-42.376
25.254
-18.952
34.734
-6.4676
-22.354
-9.8734
12.153
-2.362
-16.264
28.835
43.763
-12.997
-19.801
-26.78
87.818
-25.261
-40.615
-29.567
-2.282
-33.322
37.193
-11.939
-2.8682
30.69
9.5854
-15.147
-5.438
-11.821
20.523
-26.795
42.996
26.257
-36.439
-4.9185
-12.131
9.0921
8.4112
-0.61518
-0.51551
1.0057
63.139
-30.586
-43.05
-30.486
12.726
14.475
3.0345
57.432
-35.092
-24.801
-14.235
22.016
-7.8218
76.256
-35.771
-51.583
4.0833
-29.096
28.718
-16.744
59.098
-19.843
-42.834
10.598
19.173
6.7812
-4.1387
52.315
-24.872
-49.167
9.0206
20.551
3.7181
-33.313
23.901
-15.795
54.499
-34.24
-19.35
9.8059
22.048
-21.345
43.038
-24.038
-13.083
13.201
16.536
48.182
-79.858
-2.5554
21.949
-8.6895
1.4556
9.522
-10.516
-19.412
-2.6617
49.528
-13.408
-47.59
1.1511
16.355
0.13694
46.056
6.1471
-50.94
-14.247
24.102
-30.895
8.5906
11.049
30.637
-15.608
-34.448
22.479
-7.7885
6.9994
-8.6649
53.065
-35.575
-46.065
13.765
31.549
38.961
-26.802
-26.385
4.1376
3.214
0.60909
-9.4466
5.1072
3.3605
3.4139
10.635
2.2808
14.628
35.657
-38.491
-51.076
12.059
0.90961
15.8
14.043
15.324
-17.243
89.894
-33.49
-46.613
0.68807
-13.357
-14.847
12.851
-0.3423
-42.979
-3.4845
9.3024
32.945
5.4048
-26.409
-10.732
27.212
-28.218
-2.9337
54.319
-10.764
-39.548
15.918
-13.771
4.9627
22.866
-17.641
-17.698
81.988
-46.638
-57.845
3.5112
57.387
-4.0634
-39.031
37.24
-9.3846
9.8031
-31.197
71.618
-30.021
-31.947
18.96
24.11
-32.083
66.438
-4.5615
-56.402
-8.5688
49.959
-23.072
-2.3457
2.2562
-8.3909
53.185
-31.751
-34.563
-8.4048
33.918
-8.271
62.518
-54.676
-34.975
-17.906
27.037
31.428
-29.142
19.521
-28.761
57.548
-16.73
-56.689
0.90524
8.6353
16.871
-2.5676
22.432
-16.986
54.303
-37.163
4.0767
-35.033
-10.507
40.887
-10.018
-9.6307
9.6216
22.129
-12.162
1.0523
-6.8851
-11.136
47.506
-51.145
-14.741
17.038
8.4031
5.1935
18.546
-36.986
15.129
-5.4999
-22.329
-9.5627
67.925
-52.218
13.281
21.329
-15.837
12.768
-16.073
12.968
-30.327
65.965
-7.3658
-28.333
2.1195
0.081069
-4.491
-11.892
-4.4516
9.9864
-10.801
-11.806
1.9054
2.609
1.0451
13.69
15.286
-7.2158
12.575
14.525
-39.652
-18.608
29.967
3.9235
-26.541
15.745
-4.8357
6.7019
-7.383
51.654
-45.16
-26.477
4.8298
24.474
-2.9593
-14.713
80.419
-56.203
-53.212
7.2632
20.268
18.371
-20.395
57
-9.2414
-61.732
15.852
-9.1942
4.8114
-9.0242
-18.074
75.75
28.598
-46.57
-35.787
17.832
-5.6346
11.238
-2.1972
2.9001
22.648
5.3998
-19.917
-24.99
22.635
6.2689
23.57
-40.235
39.762
54.587
-46.225
-7.7572
-17.927
-15.548
-11.473
0.087707
-15.269
19.977
10.827
-44.604
32.43
36.143
-29.159
-27.701
7.7883
2.7368
25.306
-21.116
43.478
-32.52
-35.754
15.938
21.211
-21.054
16.513
-17.326
44.593
4.952
-30.42
-14.409
31.858
17.704
-18.121
19.898
-40.688
1.6365
-33.838
44.21
-22.338
21.987
8.1223
-16.205
2.714
-21.11
30.806
-38.385
21.205
5.4341
14.659
-9.7853
-49.124
26.871
15.489
18.6
-22.986
4.7734
6.8894
41.837
-38.399
6.2162
34.061
-17.997
-41.796
-4.6365
26.293
-14.845
24.982
-7.9408
-3.6145
50.696
-59.694
-2.6299
34.42
-65.987
83.326
41.505
-98.744
12.476
-13.96
29.455
-33.181
27.134
40.233
-45.241
-42.982
20.974
19.019
10.268
20.281
-62.745
-8.7411
7.9205
43.487
3.6077
13.36
-25.938
6.6906
-15.86
-13.627
-3.9012
7.2298
21.436
-1.7496
5.6472
-10.978
28.435
-22.453
23.034
41.76
-69.212
-22.696
-18.575
53.669
-9.758
16.58
36.129
-76.998
-11.336
9.0738
47.047
-19.711
8.2894
-24.33
14.907
-18.005
9.6848
54.874
-47.913
-30.283
31.032
25.404
-59.319
69.282
-20.705
-42.005
4.597
-6.3362
21.682
-15.898
10.659
-20.462
15.126
18.683
2.5017
-4.2211
27.978
-28.133
-45.701
32.249
26.276
10.568
-27.344
-15.341
40.653
-7.0411
3.6847
-6.8735
-14.292
-14.482
7.6079
9.7428
-12.388
9.711
-11.044
25.519
-17.242
12.154
-5.2189
4.0859
12.941
-11.991
-8.2536
26.288
-13.537
-9.3297
61.178
-25.857
-39.412
-9.2893
34.391
-23.042
46.601
-23.443
-36.894
9.1297
35.157
-7.9562
-40.756
8.4346
-2.8341
1.7116
-4.8873
13.798
-14.151
-2.4957
1.8167
13.541
0.96612
-17.07
13.273
29.078
4.5891
-13.535
12.646
-15.488
34.988
27.815
-36.216
-28.86
17.795
12.918
-42.233
-38.594
6.3879
11.659
-2.1685
24.621
-9.0285
-1.5734
3.3057
-9.0567
51.31
-28.644
-3.2529
-4.1354
-16.106
19.964
-23.92
59.222
-35.902
-1.1998
-22.061
-17.417
-29.583
26.553
-2.5671
22.956
30.139
-16.382
-7.9005
-24.931
29.797
10.361
40.1
-58.487
6.7664
11.249
-56.459
72.107
-11.569
15.073
2.4696
-41.828
-0.48893
21.924
4.7198
2.5085
-14.358
20.494
-19.907
86.375
-56.289
-52.255
3.2862
50.477
-42.465
42.8
-1.7478
-30.917
-14.116
11.743
5.1767
-13.081
82.924
-19.855
-53.172
-32.015
39.985
-6.4001
8.186
1.8001
-15.239
-18.275
26.988
-8.1153
26.432
-18.235
42.525
-25.225
-37.04
-9.7513
17.702
28.529
-16.249
20.414
-20.43
-4.2394
9.3946
-42.776
99.23
-12.507
-58.435
-7.8694
13.154
-8.4318
-12.86
46.751
-39.484
47.613
-27.556
-38.802
-12.167
66.856
-7.4648
47.376
-45.11
-41.71
5.1218
6.5495
38.536
-26.293
51.118
-37.714
-25.577
6.8206
19.708
-9.1015
76.791
-45.116
-33.109
17.649
4.3384
-16.089
8.0276
13.904
-23.477
10.765
-14.212
23.511
-33.895
45.826
9.7611
-4.5539
7.5017
-53.689
-1.0158
-31.335
12.629
-7.0254
15.757
-53.14
47.659
22.897
-23.277
13.147
41.306
-12.079
-54.891
18.617
-31.507
15.71
113.96
-99.151
0.50402
28.286
4.8807
44.345
-70.891
-3.5966
-24.723
40.041
7.8469
0.14897
8.0177
-9.0251
36.847
-39.871
-19.076
-3.7889
30.811
10.894
25.609
-59.583
-14.895
-3.1661
42.865
-14.815
39.395
-1.7931
-38.671
-23.182
15.476
15.96
31.87
26.794
-86.336
-7.67
33.178
7.6241
-20.682
38.254
1.0262
-45.07
23.7
-1.0817
-18.226
0.68096
28.205
-16.164
-21.564
13.91
-18.189
48.544
15.19
-62.32
1.9102
29.695
4.8959
-35.543
7.6016
31.047
-29.436
17.967
-2.3061
29.349
-20.225
1.1169
-25.756
23.551
3.3102
-26.437
47.356
-19.075
-47.419
28.019
2.3541
-12.846
75.438
-59.72
15.296
83.325
-115.15
-34.29
22.73
25.574
-17.521
54.814
-46.628
23.421
-6.03
11.925
15.246
-38.43
-56.168
23.553
55.63
-9.3843
25.484
-87.367
-30.533
70.157
16.841
-28.98
30.099
-35.024
59.824
-13.224
-20.268
-32.999
37.084
2.5033
-21.834
87.932
-51.778
-35.599
3.1143
34.097
-29.283
26.877
28.468
-35.148
48.052
-35.151
-14.84
5.5419
-12.654
24.404
-24.975
78.028
-29.166
-49.05
-5.5502
23.805
-10.32
-11.72
-0.81463
16.649
-32.545
-7.5605
33.206
-3.7025
-7.6821
-13.801
2.783
33.721
-25.224
-2.0487
99.376
-62.49
-24.977
22.216
-68.799
-5.0611
28.398
17.033
-14.119
-12.862
32.56
-9.5347
-40.075
63.302
11.563
-5.2911
3.0188
-31.377
9.0113
47.607
-69.97
39.696
-19.483
42.763
-2.9702
-71.402
63.388
-73.46
-2.0629
52.361
16.895
-29.091
-0.40346
-36.485
39.352
-16.274
46.991
18.628
-86.14
-27.842
78.048
-27.406
-8.7066
33.148
-38.05
44.118
-8.8281
-2.4393
-44.966
50.745
-26.158
25.675
20.846
1.7361
-81.47
9.6205
82.523
-46.972
55.275
-48.194
4.7783
-53.206
60.099
33.054
-53.467
15.742
-17.078
33.286
-19.989
82.142
-43.258
-69.16
31.759
-46.389
55.796
12.214
4.0426
-35.528
13.897
-49.262
28.107
49.881
-57.892
78.454
-67.675
-37.543
-12.382
73.361
-19.799
27.641
-39.597
11.421
-61.105
67.526
17.007
-2.8166
29.857
-86.325
-19.691
43.315
43.785
-24.056
43.099
-77.603
27.4
-37.093
48.538
8.9905
-31.919
64.98
-38.056
10.08
-24.96
8.4177
-24.674
-10.185
109.01
-36.321
-43.979
-19.364
41.019
2.816
-3.8967
2.2089
-28.189
-6.1011
10.346
-21.234
45.366
-19.551
-24.199
95.413
-57.707
-27.695
23.279
13.768
-35.306
-9.4601
10.556
-18.916
-23.758
17.04
14.753
16.127
-23.607
-7.9979
29.344
10.38
-5.7153
-5.4227
7.0043
-4.505
18.269
5.0552
-2.7744
-1.0588
36.275
-50.747
-40.708
69.768
-39.644
11.836
-16.313
-1.9991
37.862
7.3204
25.799
-55.022
9.396
-41.911
-15.595
84.427
-77.269
36.846
-32.114
-6.7943
44.458
-29.338
13.635
-11.789
52.081
-49.537
65.841
-28.116
-18.001
-1.0026
-28.202
56.132
-8.1761
26.118
-21.61
-51.686
42.643
-21.343
-4.1508
72.977
-71.395
66.527
-35.135
-3.2231
-49.984
56.904
5.7116
14.419
-2.6684
-80.618
27.964
27.131
12.664
-15.876
-64.725
53.354
71.081
-69.785
-14.771
6.4992
4.4899
-17.5
13.457
-23.751
18.892
16.818
-59.218
30.676
67.244
-13.15
-63.059
-15.082
51.02
44.088
-31.659
0.98265
38.065
-93.405
12.921
49.244
-56.411
84.789
-51.587
15.421
11.998
-23.452
-38.582
22.371
34.768
-22.342
85.011
-105.34
-37.997
27.479
57.124
-5.0419
-37.633
-21.28
96.316
-89.715
53.963
-11.381
-27.207
-24.23
66.76
-15.284
48.781
-61.946
-18.767
-13.904
26.039
12.278
-20.624
66.837
-56.652
6.0589
-27.931
43.652
-25.202
60.674
5.7892
-77.923
8.6258
38.827
-30.411
-4.3375
-7.5636
13.965
5.2419
-1.6854
5.274
9.3719
16.967
45.947
-48.645
-11.33
-4.4086
-14.498
-9.6452
2.7875
-5.9727
36.76
-4.967
-49.564
43.951
-28.552
64.233
-53.201
-49.227
-10.806
28.563
29.179
-1.4406
45.377
-71.431
-21.858
24.749
-19.028
-33
11.584
20.845
16.082
12.146
26.754
26.606
-39.655
-3.3076
5.1491
-28.238
75
-1.4339
-56.443
85.13
-43.832
-55.452
16.749
62.377
-32.812
32.726
20.646
-1.9715
-64.27
-25.057
98.317
-20.939
30.505
-30.045
-61.238
-164.5
181.35
50.369
-54.277
-5.1452
30.548
13.487
-39.844
-13.319
-14.239
22.541
-20.584
-9.5794
14.081
-13.238
-0.15838
12.745
-1.4909
0.39397
10.625
4.5564
-4.9653
7.4323
0.15687
-20.087
-74.923
24.997
83.228
-0.34687
-2.6092
-6.9798
-3.209
-3.1835
5.1298
-6.3484
-8.4069
14.291
4.5296
-6.3936
-6.5253
-5.6731
6.667
-4.5743
-8.7272
10.911
1.1941
0.29615
-5.9592
1.7303
4.437
-7.6579
2.9061
4.4413
-3.0699
10.779
11.495
-8.0752
-8.8165
4.4094
-3.6346
-5.3516
7.2951
10.761
-1.9757
-26.723
25.173
30.984
-27.213
-2.1797
-3.6898
-5.2119
1.4157
7.2621
-4.3322
10.793
-5.1693
5.7866
-9.9126
2.2248
49.32
-11.391
-13.591
5.1518
-14.204
-50.259
0.03917
18.447
11.086
43.49
-18.107
8.2542
4.0329
-7.3632
-8.6092
-11.731
-8.6735
-3.6604
-26.013
-1.9615
21.415
11.21
-10.956
-11.435
-18.514
93.165
22.432
-101.57
-25.44
7.6643
-11.061
0.25717
26.942
-19.89
15.975
7.4375
47.859
-5.544
-28.869
-18.5
-11.993
7.2544
22.012
19.911
-5.9697
12.914
-39.612
-25.005
67.08
7.9796
11.63
-13.626
-11.468
42.344
-35.63
-30.063
40.481
10.743
45.566
-0.40167
-74.845
1.2875
-22.724
36.623
-179.44
114.44
110.37
-62.377
-15.895
-16.184
31.466
-20.228
-27.906
-5.9019
-28.624
74.924
32.304
-55.74
20.535
-30.356
-3.7586
15.918
1.4946
26.032
-12.574
28.177
-23.938
95.153
-46.261
-48.364
46.067
-10.659
22.01
-15.791
-0.49915
-47.789
-4.4501
17.435
-18.603
-5.0746
-0.79702
20.789
-0.4186
22.857
19.659
-14.064
-14.286
16.111
35.217
-94.512
-32.258
25.892
25.206
21.823
-23.925
-0.95099
-13.326
8.2053
-3.3294
-14.803
23.82
-11.977
-19.178
27.265
22.726
-44.256
36.533
-29.429
1.7237
36.792
46.676
-31.1
-38.054
3.638
8.7698
-0.21691
-9.2824
0.29826
-3.3528
8.0433
5.6077
-6.1506
5.6804
9.4353
2.9122
10.987
12.492
-53.134
-4.7835
35.617
3.0586
-10.727
11.927
47.94
-87.398
38.012
-13.386
3.4754
-13.572
27.744
12.619
-57.644
17.951
13.563
25.354
29.474
-66.428
29.02
-24.299
-23.707
-43.118
100.77
-45.359
17.764
47.623
-36.029
-38.227
1.9525
23.424
4.0903
-10.64
70.168
-36.789
-42.544
-33.24
30.314
7.8975
-21.496
26.058
20.924
-23.522
-28
2.1904
29.077
-20.338
64.088
-52.131
-11.004
3.4813
-6.2563
-27.597
30.607
-11.955
38.803
10.19
-28.733
7.0922
-23.019
18.071
2.3918
-5.0659
-7.979
20.544
-10.011
27.848
19.362
-12.443
15.85
-71.745
48.241
-15.439
38.936
-11.598
-13.283
-52.368
41.334
-2.4713
15.248
2.6743
-26.848
-3.4111
9.5741
0.12477
-24.704
23.543
3.0812
50.958
-42.939
-45.197
38.493
-10.406
-30.608
46.753
-15.984
51.319
-50.87
-8.1747
-25.508
36.588
-1.9357
19.096
62.318
-50.355
-54.855
24.631
-46.128
43.969
-5.1548
56.085
-32.956
-19.516
-9.0034
3.1406
-1.1723
16.129
59.42
-40.89
-54.252
26.704
24.052
-28.535
16.563
-1.5106
24.838
-44.948
27.487
14.292
-29.271
32.375
-43.971
47.134
36.432
-65.828
2.1383
4.3487
11.948
-36.909
14.016
31.641
-16.416
-67.913
8.2533
11.452
16.532
-24.222
35.993
1.535
-37.459
24.82
-19.285
23.986
48.198
-15.904
-72.935
30.362
62.341
-58.894
23.439
-40.833
66.353
46.358
-53.148
-41.952
12.038
13.724
-55.855
18.702
-1.0891
60.504
-43.468
-14.831
14.308
-3.7883
-4.8602
14.081
21.468
-27.607
40.438
-18.941
48.948
-22.779
-30.867
-25.06
0.13675
25.071
8.3814
51.43
-64.272
-24.908
56.798
-42.224
27.279
-24.816
26.292
3.6358
-6.7166
-0.50972
7.5262
51.991
-72.472
-23.73
-26.631
31.1
16.274
6.7503
-4.362
-3.2377
10.054
-0.73217
39.355
-57.491
-15.695
21.384
4.3282
-44.529
70.098
-25.199
16.191
-8.2302
33.324
19.863
-73.803
-30.645
42.48
34.478
-8.5819
7.1626
-30.546
2.5168
-22.595
32.814
-13.271
22.808
31.5
-55.833
18.528
48.552
-61.747
-21.768
3.8728
46.468
-28.226
38.307
-9.086
-32.88
-38.465
7.9597
57.03
-27.673
-14.557
20.523
-19.85
-5.0658
10.967
10.698
-2.0031
-18.029
7.9532
42.581
-37.436
3.892
8.4119
-18.999
15.987
5.2728
-12.704
20.882
20.414
-32.382
-22.864
56.549
-45.958
61.441
-27.043
-8.0115
-31.863
62.896
-11.702
-29.685
-10.862
35.434
-35.442
-4.9445
77.348
-56.693
1.1891
-38.646
-7.4129
75.699
-64.029
39.272
-10.152
36.121
12.159
-79.174
-26.345
44.59
6.8817
-38.237
56.913
-55.801
32.076
18.219
-52.075
-19.327
70.379
-8.3309
-54.352
52.819
-29.519
64.252
-48.861
-18.288
43.982
16.709
-44.533
12.123
-14.847
0.61221
4.1003
-1.8498
-1.8545
15.123
-9.2853
-15.628
11.763
25.413
-17.168
-1.6993
15.098
24.167
-14.098
-10.458
53.888
-14.255
13.255
-27.638
-12.144
-8.5516
-26.469
-5.6939
-0.040353
12.155
7.9962
-6.9009
-17.977
21.995
-24.496
16.407
22.695
43.869
-54.276
-65.491
78.744
-16.996
5.4804
-8.1099
62.975
-17.627
-66.309
42.165
-47.537
38.1
-27.767
41.576
2.2929
-37.123
11.346
-3.4646
-3.8323
33.578
37.331
-82.084
2.8502
54.599
-58.034
5.1077
-17.587
29.632
0.12707
-28.961
28.205
-8.7449
14.45
-23.878
36.759
46.124
-57.902
-24.385
22.808
-14.597
12.409
-2.5107
8.3481
-13.501
14.188
-12.224
75.464
-52.831
-30.92
7.4894
30.093
-50.053
27.809
0.42428
34.748
-39.541
-20.356
18.731
-1.655
17.425
0.070693
-17.947
14.252
-9.0108
14.764
-32.909
60.951
6.9618
-63.37
-6.7866
-5.4853
34.116
-32.78
53.27
-26.733
-42.201
2.9985
29.886
29.365
32.924
-52.792
-32.475
-3.6187
16.863
17.803
19.948
-49.388
-0.13038
47.51
1.6151
-18.444
-8.4781
17.761
-10.828
23.37
-5.8315
-10.139
29.549
-22.931
-6.3371
12.439
-10.389
18.654
36.073
-69.352
20.645
-47.495
46.815
-9.0735
-16.028
44.884
-10.677
-32.39
-19.914
26.769
-9.2107
34.933
-30.775
-23.081
34.972
-34.865
4.495
5.435
10.213
-11.956
7.5139
-7.8946
0.67876
24.022
16.757
-7.3127
-31.441
26.335
11.814
-7.2662
-14.092
-18.857
27.621
-0.18216
27.206
-5.4718
10.631
18.911
17.634
9.1348
-49.159
-36.606
10.009
-28.624
5.23
1.8453
14.774
-5.1765
-11.925
17.657
-24.212
31.319
43.896
-30.394
-39.006
-7.6307
12.274
5.2612
-31.79
52.343
-27.65
7.8863
-1.2792
-6.7573
0.85355
-1.3801
5.1415
9.1429
63.575
-51.963
-35.125
-0.91303
60.785
-35.856
-21.577
42.532
-40.144
19.131
-6.8602
5.9971
-1.5851
-0.80187
2.0105
-0.88473
-0.83522
2.5011
-3.6966
46.65
-9.4384
-43.137
-8.7211
22.409
11.453
40.524
-44.776
-26.045
-18.24
37.312
3.9906
3.4793
-40.677
24.965
24.911
-27.145
33.545
-24.838
-39.052
27.709
-2.0366
65.513
-4.7607
-59.297
-27.834
39.945
5.5749
19.852
-21.35
-28.012
4.2589
3.4407
35.757
45.856
-88.285
16.353
6.0441
-18.464
17.14
11.557
27.22
-46.067
-34.778
23.664
9.935
61.954
-20.029
-38.76
-21.107
-0.017663
14.914
17.805
5.0652
-49.301
7.8494
9.3371
-12.867
84.248
-30.502
-48.253
18.557
-12.441
39.904
-8.3306
-29.106
19.081
45.266
-43.437
-31.201
20.087
10.326
10.722
45.381
-42.101
-22.295
5.7948
35.319
-23.328
-2.397
24.529
6.9458
-16.816
-6.0466
-44.095
24.883
37.757
-3.657
-26.193
-34.408
65.212
54.046
-19.798
-59.562
19.938
-13.636
-42.101
-10.201
9.2801
7.7613
-14.665
-12.502
20.675
-17.317
29.129
-26.475
23.12
43.21
-44.155
3.2895
-10.707
19.681
5.2165
49.671
-45.053
-24.085
47.291
-21.493
11.657
-7.6108
-21.753
19.409
-29.814
54.326
-21.455
-3.2133
2.2696
-12.991
-17.004
27.786
6.1314
-4.699
3.201
-29.219
31.896
-23.381
59.899
-14.878
-51.401
-32.941
73.668
-50.353
7.4151
33.184
-49.127
18.331
-3.2158
41.851
-30.128
13.334
-45.567
34.39
21.464
-14.15
33.373
-48.627
23.487
-2.6054
-9.5621
-31.889
99.238
-10.245
-74.37
12.26
0.54516
18.381
27.312
-47.791
-16.389
11.985
-4.8535
6.1434
5.8245
-11.781
7.5594
1.2218
0.45916
0.76927
40.084
-11.508
28.881
-27.057
-36.858
26.743
11.309
-46.078
52.538
-13.205
-53.131
-26.267
56.453
19.812
-38.487
-23.499
30.538
-17.202
50.755
34.262
-24.265
-40.176
-15.782
14.455
-5.658
-4.573
14.571
64.152
-25.72
-14.815
-43.772
-11.094
101.47
9.9186
-91.002
14.538
29.418
40.05
32.144
-210.94
70.246
34.884
-54.631
-22.007
118.23
63.92
-37.258
-74.706
3.5934
100.19
-85.978
-106.06
84.881
4.931
9.0483
15.744
-9.8961
97.074
-93.949
-8.9309
13.993
8.2734
-30.57
9.2693
-14.489
-56.322
69.817
19.346
-16.389
-12.517
-10.218
-7.2936
7.4512
-5.4695
13.429
-7.0185
19.01
9.1843
95.182
-46.413
-119.27
47.224
66.485
133.29
-77.292
-131.62
-157.35
54.023
104.41
51.73
57.491
-34.852
-17.137
-10.752
-2.5958
-6.6035
6.3455
18.973
-4.0477
2.624
-40.971
-2.7487
-23.573
36.365
56.686
-23.493
-32.423
19.464
-8.1346
-5.8086
-41.687
40.523
42.947
-74.723
12.88
28.277
-2.3512
12.952
-12.298
4.93
3.4241
26.716
2.8313
-11.247
-19.282
11.758
-9.4063
-18.296
15.985
14.605
-9.2074
5.7296
12.932
39.428
58.672
-37.163
-75.775
-28.842
7.7878
25.774
-12.129
-30.646
-55.326
3.6845
-61.91
-223.76
267.04
21.719
36.12
27.175
-46.335
35.549
1.3945
2.0679
0.53062
9.7018
47.903
0.19997
-140.07
45.475
11.727
24.578
-16.816
-8.9155
67.956
3.0476
-43.058
72.366
-56.897
76.712
-25.371
-58.54
16.948
-56.689
-9.1712
0.75099
10.964
-19.898
22.177
75.136
33.991
-57.197
11.638
-23.557
-132.48
99.245
43.466
12.743
-6.2801
-64.859
-5.846
26.367
7.7946
-35.022
48.464
-27.897
-4.0171
-18.076
9.497
28.95
-15.837
8.7345
11.683
8.03
-0.73198
13.201
6.5677
-6.7506
-13.117
-25.581
8.0554
7.458
-7.4455
23.795
-17.937
0.73923
58.402
-53.607
-27.444
51.11
-13.585
9.1139
-26.079
-2.5015
12.804
-58.332
8.1754
20.063
3.5025
-18.075
15.047
-1.1387
-23.101
-13.325
-12.269
33.912
-30.581
12.326
58.235
97.174
-62.898
-21.569
4.7169
-14.447
-2.3149
-22.705
16.974
-38.635
24.571
42.507
2.3995
-17.873
-1.0604
2.9694
-9.1423
-2.0655
-36.595
24.718
-18.416
1.856
26.352
2.0966
-1.7291
-6.9995
-1.6157
10.168
6.2641
57.494
0.49922
-63.576
-19.424
-6.8349
28.741
-14.691
-0.81815
-14.438
14.388
1.2447
72.806
-29.878
-77.175
30.619
22.298
-3.1442
-26.18
47.695
22.848
-80.258
42.473
-29.683
13.78
47.844
-39.993
-18.281
33.97
15.258
-81.297
43.232
29.981
-18.664
25.571
-11.011
-19.61
19.327
7.4633
-29.763
-13.028
10.989
-21.02
3.8626
34.372
-9.0681
-17.478
60.081
-18.665
-46.924
7.6517
12.136
-3.3437
7.1686
63.068
-56.347
-66.627
18.727
13.217
-16.371
9.2127
18.462
-10.846
48.782
25.753
-83.62
-18.391
34.319
-2.1418
7.5306
9.2016
76.244
-26.677
-73.891
29.89
12.207
1.4919
-8.9214
2.7317
-12.038
28.097
-34.48
-35.985
31.538
7.0926
8.1891
4.5347
10.361
-52.667
3.1643
-14.469
34.014
15.905
41.391
-2.0034
-47.607
-23.181
-2.306
28.152
-10.816
-11.645
-1.2043
0.16409
2.0036
35.682
-26.954
-35.384
39.77
25.104
-2.5154
8.8935
8.4697
-2.3628
-10.613
-13.98
-42.24
14.738
12.602
-8.4071
16.785
24.492
30.114
-47.161
-6.367
17.182
-5.7387
13.336
-11.592
-41.42
25.601
10.307
-0.76177
30.426
-36.507
-25.081
11.761
-4.659
4.017
9.4523
2.8949
37.492
-3.7805
-53.491
82.798
-22.887
-81.821
25.478
10.908
-21.888
21.857
50.332
-81.021
0.13856
27.771
-6.4012
35.601
-0.9949
-55.241
19.987
-4.3223
1.2141
-7.2495
5.0823
17.461
24.801
75.639
-68.797
-38.747
10.391
0.1621
-8.083
7.4764
14.554
59.365
5.6791
-74.717
-4.8087
5.131
-9.3456
14.989
65.514
-50.488
-51.458
4.1714
20.718
7.637
59.677
-28.163
-62.435
6.6822
7.8931
2.2802
49.161
-44
-67.215
17.541
17.958
43.823
31.394
-60.043
-11.703
2.953
16.469
26.173
-13.918
-42.386
15.91
5.8294
-14.022
60.651
-6.1082
-16.834
-44.204
18.991
23.837
7.6774
-43.277
12.919
17.477
1.0486
-3.2501
10.292
26.3
-15.069
-21.8
-10.506
91.074
55.547
-66.967
-77.543
53.929
-72.878
-12.927
28.659
10.709
-5.7425
0.145
9.219
-3.0307
4.0368
0.053522
-2.2492
2.4963
-2.6153
-1.4019
1.3448
-1.2715
-0.89599
-2.2346
-5.3892
6.2109
-6.4302
-1.4473
-3.3667
38.316
13.168
-67.815
-10.97
16.464
4.8726
12.779
2.0677
-3.5658
-0.41694
14.193
13.144
-40.126
-5.6724
40.259
47.742
-32.156
-17.18
4.3361
-8.3435
2.1784
-2.0905
-0.96
13.477
11.605
-19.979
3.842
0.62873
9.007
2.0957
2.2815
-10.285
35.402
0.2529
-22.161
-14.357
24.206
6.2281
1.136
-4.0357
-11.756
-29.142
25.757
4.3054
1.3098
23.859
-1.3556
60.774
-25.131
-87.69
24.593
-23.871
3.1835
38.216
21.061
-35.563
5.2419
-22.78
-31.742
13.41
17.248
-9.6075
-32.718
21.53
2.0385
-10.323
0.1202
-5.1881
4.4411
5.0331
-24.561
-22.895
6.2526
74.812
57.268
-18.469
-6.2347
-1.0901
62.207
60.193
-273.29
-36.532
134.43
-22.242
29.945
-9.9847
26.918
6.5261
-37.098
-24.672
80.996
-92.009
-37.419
37.317
1.9511
-6.8613
19.973
91.817
14.591
-28.102
-15.948
-18.953
-13.337
27.69
-17.998
-13.862
10.101
-16.134
-11.829
9.8825
11.841
-11.935
-89.314
38.321
108.96
8.0719
-8.8759
-53.257
-18.421
12.982
50.432
-5.1252
-42.465
2.2422
2.3431
7.5282
-4.7659
34.11
-25.791
-8.4972
9.11
-42.871
-42.275
24.599
3.3768
12.213
-32.216
-25.784
-26.565
24.039
6.3983
-18.036
41.562
10.074
-19.34
38.139
-11.195
74.853
-73.994
32.327
26.896
6.8912
18.956
16.744
-9.21
14.557
-16.728
-54.977
-18.525
-77.129
95.208
71.413
-95.426
27.959
-27.208
55.784
-13.453
34.14
37.119
