1.7105
-2.1462
9.3127
16.089
111.52
120.2
-466.33
9.0336
170.96
21.564
12.742
-6.868
6.2783
-0.77187
20.908
3.7573
-16.437
-5.1577
-3.1606
-42.549
-24.651
29.2
30.194
16.131
-11.008
-4.8594
2.9477
9.2645
-8.1249
41.8
-41.124
3.6949
-31.129
17.638
21.108
-32.618
2.0105
10.588
5.9874
-10.511
18.018
12.352
-6.3333
-10.484
7.5038
2.2973
-8.0382
1.7243
5.7151
-12.047
-9.9115
15.79
14.358
-4.3505
49.32
-30.177
-9.787
-47.506
5.5836
8.0642
-15.395
-6.3594
12.522
0.98242
-3.8411
83.164
2.4602
-61.837
-43.088
40.552
12.035
-22.64
16.529
7.6807
-20.145
-20.662
31.857
8.797
78.212
-13.661
-30.843
-153.78
-26.388
107.97
30.942
40.06
52.081
7.5808
-16.847
-29.341
-29.272
-50.862
-78.255
97.044
-65.362
-35.313
78.996
-5.7799
27.456
5.7157
-14.156
-1.324
28.366
8.5548
32.016
26.817
-25.656
-12.863
-51.032
6.0188
23.92
-28.057
-1.2237
13.333
5.4388
-9.1145
4.8467
43.053
59.792
-54.979
-72.826
-47.155
-17.648
20.173
31.766
4.4916
-8.4877
26.391
19.059
6.7043
48.718
-21.53
-57.624
-43.116
0.46997
23.582
9.0524
16.112
4.6177
5.8477
-44.269
29.025
13.04
-25.631
-10.013
23.558
50.304
28.045
-24.58
1.6894
-8.5148
-15.977
-8.2805
38.36
-38.542
-30.012
36.929
-16.76
-21.423
6.7024
30.255
37.59
22.16
-61.449
-70.942
23.176
24.748
37.442
-25.212
-17.381
27.145
0.91007
-16.577
-17.776
9.6886
24.274
-77.28
13.227
35.976
-8.8912
18.919
-29.232
-2.1237
-22.686
7.8197
15.557
-3.4781
23.021
-10.526
7.3359
18.13
22.299
-4.9302
-4.0941
-19.417
-4.6354
3.436
7.2744
34.241
-10.203
-19.926
13.683
-10.338
-29.165
26.36
10.679
44.779
-15.407
-124.76
-7.5646
19.565
15.083
4.9599
-81.469
29.187
103.08
33.707
64.082
-47.172
-50.833
9.6552
-7.9793
8.1785
-8.3852
-7.8156
20.228
-10.119
-34.641
-9.0808
73.116
-57.381
-63.195
91.332
-5.2261
-46.016
9.8644
42.388
4.5566
-12.801
6.316
20.509
-0.69046
51.606
100.91
-128.09
-74.843
32.421
10.512
1.7367
-13.64
-13.139
53.445
14.363
-6.8457
-23.646
-38.246
-1.9444
32.638
-11.172
-14.585
17.134
2.4359
-21.419
5.3838
8.267
83.829
-10.215
-99.461
-5.5571
-29.339
47.186
23.684
9.5902
-43.219
-13.049
-6.3346
-8.2764
4.228
1.9339
-63.162
-11.94
101.32
10.155
-14.657
10.853
4.9033
57.863
50.877
-76.363
-58.375
-10.887
38.228
-11.977
18.382
30.617
35.054
-25.066
5.4694
-19.575
-27.724
12.125
44.163
-62.215
-60.206
51.267
111.57
-55.51
-78.421
-14.672
42.531
-59.418
-41.707
45.015
-0.67942
-3.9439
41.549
-2.3157
93.835
48.005
-105.83
-95.448
-77.132
81.64
4.9621
-10.475
6.4602
33.709
-8.9827
45.576
71.477
-19.116
-145.81
10.616
74.829
-1.8268
39.175
64.67
40.835
-101.89
-35.937
-8.2643
-27.692
-11.226
17.517
36.458
-84.209
25.545
72.543
4.1069
-18.763
14.398
33.043
-6.3719
-8.3207
19.309
26.88
-19.766
-41.971
20.936
-7.5757
-1.9141
-7.6106
5.9977
4.6691
67.817
68.61
-1.9474
3.908
-93.514
-169.02
6.051
67.315
-9.373
1.7469
7.5997
69.579
-40.451
-60.474
49.54
-2.081
-14.05
1.7162
10.231
-11.81
-4.4178
46.468
36.089
-40.094
-57.485
-12.443
8.9597
21.401
9.711
0.74499
16.495
22.288
2.5134
-10.41
-35.341
1.116
10.189
35.712
49.654
22.02
-21.933
34.886
35.949
-167.46
-100.67
-2.6492
44.416
32.71
-32.609
22.745
30.852
-4.5972
12.652
-1.6063
-15.089
21.494
0.8224
-3.5083
-5.998
13.786
-4.6324
69.809
44.245
-67.899
-121.63
19.423
43.333
7.7357
-1.523
-31.37
-14
18.365
-38.939
-18.244
38.279
28.376
1.1687
-17.754
23.908
-7.5654
1.1203
22.591
19.948
15.123
7.4708
62.607
27.317
-9.32
-46.346
-10.738
-39.64
-13.818
3.4928
-6.4537
26.42
103.89
-55.372
-75.519
-10.327
14.287
-13.756
13.928
38.8
17.548
30.581
-6.5884
-36.98
-10.812
-24.297
-41.301
-24.11
-29.727
-29.5
42.254
29.022
-6.4157
4.2014
-9.0502
-1.9072
16.543
-12.029
0.75304
4.4863
-37.313
54.364
8.4718
65.482
10.289
-39.61
67.259
-61.114
-101.86
-12.931
126.15
14.438
-53.201
19.811
-0.55818
2.2919
0.45353
-7.0966
-1.8556
10.833
9.9237
4.3125
-25.439
6.8698
-24.739
-2.0779
-60.078
-4.9522
58.395
16.63
31.07
-38.068
-23.945
63.999
-10.306
-47.185
-28.575
14.819
15.8
22.359
-19.244
82.614
20.39
-78.774
-17.463
16.208
114.28
21.72
-75.308
-97.137
-86.554
20.553
23.702
7.9532
-42.204
19.171
39.065
69.151
20.9
-82.728
-10.554
15.84
6.35
-24.947
-2.7333
12.286
-13.969
92.327
22.414
-71.811
9.0183
-25.468
-12.108
4.4111
-0.91001
21.098
-0.12253
-12.079
18.631
3.3283
-13.936
10.765
9.695
-15.506
12.715
15.822
-13.286
5.532
21.303
-11.535
-11.107
20.254
12.527
-19.186
-6.6047
18.973
-3.736
-19.84
5.6339
19.892
-26.92
9.7074
23.15
55.595
-109.34
12.4
-39.444
67.392
46.29
-80.074
6.546
-31.386
30.352
-20.256
13.908
-8.1072
48.539
95.041
-13.968
-146.43
27.794
69.563
26.228
-29.521
-29.964
-69.618
51.715
23.255
-40.884
46.091
-3.7302
-77.288
15.114
8.6737
-22.949
27.482
32.856
-6.4577
9.8766
31.472
6.22
8.548
65.8
-44.832
3.1359
-69.263
-5.9117
78.557
-103.23
-58.231
29.873
-5.0854
-3.1347
10.769
12.432
-1.9515
-3.2973
34.128
-14.974
27.988
61.763
88.352
-50.701
-110.73
4.2001
-84.978
19.199
149.34
79.704
-197.03
-25.396
71.389
-3.4557
4.9456
-48.84
-17.653
-0.42209
-3.957
25.293
28.852
-23.433
-3.5003
0.60759
6.9523
-5.4872
18.601
46.027
-38.503
-40.467
15.699
6.7479
-4.2715
2.0132
136.9
62.631
-116.32
-51.543
-101.39
-13.289
0.48241
41.237
65.812
-21.724
-4.9292
111.22
1.1468
-15.762
-104.1
-59.545
5.7028
-15.88
26.158
33.281
19.062
-14.022
114.99
53.683
-191.87
-52.958
29.812
25.639
-6.6367
24.868
19.353
59.392
6.6553
-45.122
45.195
-72.692
-6.3448
70.756
-0.14758
-51.895
21.945
7.1322
-15.87
-7.8031
39.09
-11.451
-32.847
3.4049
-7.2273
5.8719
6.6372
-24.765
14.68
27.241
44.433
-14.65
19.903
-32.707
-21.812
19.092
-26.455
-28.515
-16.302
36.861
41.407
-17.675
-29.169
11.068
0.30841
10.211
32.312
-6.6609
-35.923
-74.695
-43.298
-75.892
-29.279
102.69
20.763
-49.497
-16.405
80.812
69.153
-21.683
-5.7881
14.502
-11.602
95.139
61.923
-88.598
-111.61
-29.297
54.384
-9.0133
87.738
182.11
-57.959
-104.47
-56.265
-36.495
36.794
3.6338
15.079
-30.855
-13.759
40.539
82.135
115.05
-79.16
-73.519
-25.542
-17.788
60.44
15.796
-15.002
6.4519
-24.481
-67.016
36.915
-29.357
-54.623
122.44
108.24
-130.29
-214.16
-9.2478
80.174
7.7523
2.598
16.859
-13.143
2.5692
22.956
-10.966
7.496
32.508
-14.951
14.228
42.667
13.137
-31.763
11.601
35.176
-13.139
-11.944
31.592
15.658
-23.834
8.6275
24.917
-6.923
-27.242
18.173
15.993
-2.627
0.34478
3.7292
1.5222
-22.219
-4.3041
9.8853
-7.2282
-19.663
-1.1405
-2.0911
-8.6878
-1.9241
0.21441
-8.5608
1.3374
3.4886
-10.994
5.8104
-0.064555
-13.335
10.466
-6.2558
-13.641
12.154
14.263
-5.9942
-22.022
14.535
20.518
-0.49462
-17.212
2.3855
7.8885
-4.7738
-14.364
19.389
15.815
12.823
29.602
106.37
-51.16
-151.2
55.198
-71.712
62.644
14.313
-37.579
-35.666
21.931
88.061
-8.7826
89.861
8.5801
-185.85
40.371
-61.438
-73.971
33.158
15.898
14.55
-15.26
16.016
9.4677
-4.7892
7.0423
20.413
1.2171
-2.4835
9.5152
78.918
3.1471
-59.919
25.349
6.8973
-51.774
21.69
-11.967
2.4173
-6.7032
-58.653
20.822
-26.359
14.218
59.064
-1.0885
-25.52
34.26
20.233
72.354
-16.415
-44.739
-68.501
-41.431
62.548
-25.211
-9.2336
8.0427
40.977
9.6275
-2.6165
10.994
50.342
-47.099
-53.936
53.269
23.863
-48.767
40.85
131.1
-124.78
-137.09
46.127
219.28
-155.94
-174.43
222.75
-13.944
-85.364
-4.7842
86.981
36.341
-22.755
-228.08
-48.092
100.99
61.252
-4.2207
14.434
36.618
93.91
-12.072
-42.494
-90.743
-20.695
14.286
73.271
62.906
72.364
-91.066
-61.042
-1.2379
53.229
107.01
-143.12
-154.15
126.5
8.639
-32.573
66.746
42.384
-68.296
-39.067
6.6895
6.0034
-15.16
-6.7571
15.002
-2.6782
-2.6084
18.717
4.1835
-17.494
11.439
21.007
-5.8085
-15.308
15.045
16.756
-8.1081
-7.9559
16.596
0.95342
-9.6564
10.555
11.793
-14.03
-3.2675
14.621
5.6818
-17.535
-0.23288
18.366
1.2939
-13.075
3.1594
8.6243
-8.1496
-1.9341
12.757
-1.3298
-13.189
5.853
25.308
10.375
-26.218
-5.904
-0.87405
-11.536
-2.1566
7.5816
-14.737
2.0057
30.36
61.975
-31.316
38.345
59.492
-7.9664
-4.6177
-158.93
-100.4
2.5432
8.7869
21.896
3.6926
36.547
80.436
13.469
-96.403
-46.154
38.337
37.634
29.058
9.3099
63.502
-28.211
-68.441
-27.728
-47.649
-12.814
27.549
7.7762
31.376
76.991
59.227
-36.504
-68.341
-0.45427
-53.78
52.09
29.256
-70.554
-86.683
31.366
103.51
16.727
-74.819
4.6105
4.9703
32.358
52.688
-70.6
53.189
67.218
-103.26
-43.198
-67.907
80.144
66.506
11.701
23.359
-208.27
-10.583
117.28
23.417
-0.51788
5.1891
-35.382
-28.844
52.9
44.565
-9.1987
-27.243
79.284
62.919
-101.39
-38.046
16.699
124.66
-50.812
-261.15
73.784
74.404
54.689
-28.302
-7.8011
-13.699
-7.4158
18.226
-27.146
20.992
33.808
9.6123
-6.7247
39.445
53.215
-8.7946
-87.45
-19.044
-13.816
7.74
41.659
86.767
-70.019
-20.451
53.947
20.968
-76.399
-111.57
80.636
-28.665
-71.434
14.266
72.939
114.54
-114.18
-55.58
31.377
-25.8
29.88
45.427
33.336
-13.569
23.746
-38.577
-64.867
75.703
52.814
-129.84
-96.088
72.18
32.676
-6.9631
59.41
122.2
-43.47
-163.76
3.7454
66.338
17.462
50.96
100.19
-115.22
-209.09
102.98
104.67
-1.8902
-51.484
21.488
7.2605
67.598
64.536
-14.334
-124.51
-55.291
22.36
36.739
-10.463
22.292
39.123
21.691
-48.87
-52.784
-16.934
-2.3241
19.609
-30.817
-15.592
27.796
-1.7322
-11.269
71.078
16.573
-52.143
-0.72836
-2.871
62.438
-27.682
-26.132
10.107
143.7
43.774
-100.08
-150.93
17.204
48.432
69.784
-34.571
-33.418
-18.726
-88.193
-20.03
16.593
61.248
131.56
38.461
-62.553
-164.17
10.547
106.48
65.856
-129.81
-51.137
22.951
7.1089
10.091
31.938
1.2252
61.803
44.518
-108.46
23.78
96.753
-73.013
-83.722
107.47
40.436
-76.76
-13.016
4.4463
96.738
-71.556
-39.526
-26.895
-120.47
35.045
34.803
98.886
30.585
-95.428
57.471
-11.702
33.023
43.409
-110.94
-73.516
55.11
-55.845
34.075
6.7405
92.538
56.214
-73.296
-33.033
-18.67
35.533
69.047
9.1937
56.97
38.127
-95.352
-121.35
127.37
-60.246
-73.44
16.728
69.584
48.408
-33.238
-23.602
-24.281
65.095
-23.843
81.446
-39.715
-84.692
-5.7397
-42.583
25.736
39.969
-23.232
56.823
-8.0785
-29.495
-24.304
-8.3496
38.004
41.515
-51.94
-26.791
6.6717
58.691
35.742
19.183
-6.6607
-96.706
-17.962
-43.295
-6.3761
59.321
-9.2877
13.278
9.3333
-9.0129
36.069
79.739
-6.851
-85.466
-0.66099
-13.375
-21.785
-30.492
30.198
44.953
134.57
19.702
-162.36
-25.263
35.891
38.302
-9.7901
-64.303
-1.1991
-14.065
-82.395
26.848
80.883
1.0589
-13.481
72.172
20.568
-17.87
25.043
3.9607
-61.442
-22.926
17.471
-81.62
-40.415
18.523
41.824
63.875
12.241
78.808
-3.2963
-140.19
-51.169
-50.981
14.375
41.137
67.074
43.972
-20.466
0.66299
-23.369
-1.7164
36.004
-13.377
-8.9926
61.633
63.148
-48.708
-52.036
-18.436
3.6337
-41.302
18.94
16.989
-11.44
0.94285
11.459
65.927
121.22
-109.97
-82.865
7.1761
10.57
115.94
-20.989
-91.368
-124.47
49.011
-12.842
24.883
34.305
69.954
38.023
-32.163
-89.443
-44.578
24.365
53.631
17.982
-67.372
-0.35328
4.0013
67.39
68.051
22.965
-187.81
-53.099
99.444
71.122
-52.081
-38.651
23.12
63.757
-19.058
18.755
56.728
-28.315
-33.536
-14.566
-49.008
-29.776
71.196
-29.478
-16.106
-14.397
99.402
-39.291
-54.63
35.273
7.3069
28.892
-121.74
41.078
26.25
-25.806
25.109
43.095
-9.4884
20.404
-70.864
18.053
27.952
-80.524
65.158
11.168
-48.495
36.202
-111.86
-68.436
23.62
63.664
3.9255
30.351
25.72
-16.742
12.048
35.536
7.1645
17.323
48.719
-0.25538
33.982
-58.305
39.706
-21.971
-21.788
24.139
-9.8979
1.3809
16.931
8.3794
68.041
0.19279
-37.186
-51.11
-16.341
-34.792
56.474
105.53
-111.96
-32.929
-38.338
-22.035
28.353
49.611
6.9349
-45.916
4.2069
13.317
12.98
-6.8973
-81.313
-82.922
-4.9635
43.853
2.6063
-17.996
3.34
35.966
-7.3989
3.6276
33.771
-8.7261
6.6465
35.584
-1.1932
-22.89
32.728
33.302
-10.006
-11.933
30.875
16.216
-19.063
-1.7262
19.605
-10.13
-7.1909
18.16
1.6782
-15.87
8.8757
12.119
-10.809
-12.375
8.8949
-1.5758
-12.538
0.58867
4.7902
-10.606
-2.0588
8.5155
-2.2767
-6.0255
24.508
0.58353
-29.832
-8.1151
7.1916
-4.0243
-11.065
6.4521
4.1357
-12.499
2.1615
10.791
-1.7781
-9.9805
9.7324
4.1058
-21.524
1.4612
16.794
30.029
118.45
50
-112.35
-72.936
-62.261
46.73
4.5215
-90.211
19.738
8.7281
0.51075
-4.2529
29.887
87.125
37.471
-24.25
58.617
-112.22
-101.56
20.993
10.401
46.595
9.0512
2.3637
-42.541
15.476
53.248
-53.889
-5.6787
16.535
-10.401
-27.547
-21.03
18.249
2.6847
-32.653
7.4296
2.2085
-33.766
-14.2
-26.226
82.624
2.1161
14.298
33.196
11.243
27.428
-68.468
-33.497
2.2228
-19.623
46.229
64.235
37.948
-11.625
-95.012
58.99
53.492
-36.669
-92.204
48.366
67.337
-4.7963
7.3781
-50.878
-8.0331
29.445
42.294
-11.34
-62.79
8.4
22.677
-4.9802
-63.484
-41.619
59.278
15.298
10.522
-11.266
48.427
-37.891
-4.5084
49.148
-18.952
-70.01
-13.165
19.291
-32.588
95.648
25.133
-48.852
-23.59
-46.998
49.691
13.763
-0.49931
49.707
-13.873
15.991
-58.493
-68.233
27.849
23.934
15.874
42.943
31.755
21.183
2.8587
-59.044
-58.526
-37.485
37.156
121.5
16.392
-32.458
37.228
-43.257
-61.367
-63.711
-15.226
9.8341
16.765
22.877
-5.3859
16.364
35.154
-1.191
59.547
-72.35
-53.79
17.269
15.773
-32.594
45.594
85.907
-181.76
-38.958
57.989
0.84589
94.189
-9.2591
5.7709
79.557
-80.006
27.42
-46.322
-33.51
52.16
1.3552
-25.753
-4.1691
24.638
-6.1936
-25.933
22.885
-5.4841
1.2563
75.298
66.174
-77.221
-29.864
89.181
66.047
-163.18
-71.292
10.408
-73.729
44.418
68.407
47.389
-39.102
5.6405
81.33
-2.3852
-63.455
-49.438
-11.103
24.392
-13.511
6.9567
-40.865
-70.341
65.85
-20.105
-26.631
35.269
34.105
98.814
-19.545
-39.984
52.923
-87.896
18.362
-7.0898
-39.024
39.81
6.6577
-47.412
-41.018
-7.2981
48.094
104.96
3.5335
-94.327
46.547
-50.827
-25.714
98.82
29.681
-45.659
33.003
70.065
-121.47
-17.662
99.044
1.4241
-26.758
13.84
35.186
-37.627
-72.93
32.819
78.035
-66.567
4.8649
77.756
3.5219
-131.68
0.27828
10.669
-10.357
-34.289
51.921
-26.191
10.726
-19.931
90.635
-14.684
-6.9386
-28.435
-27.318
8.0746
-45.248
62.068
-41.336
-54.283
-43.525
74.882
119.52
-34.46
-45.924
33.292
8.0153
-59.888
-34.826
78.228
14.138
-20.067
-2.5209
-23.797
-30.014
57.292
43.872
-62.839
5.9689
7.7748
32.622
-4.9529
-17.498
10.826
-66.568
46.195
59.423
33.885
-43.778
-37.533
2.4818
13.076
-48.116
-16.158
38.206
12.975
-10.532
-10.303
30.994
40.015
70.384
-36.599
-58.032
-50.675
-2.8883
77.824
-63.48
19.779
49.497
-106.77
-47.049
19.095
42.957
15.376
-47.769
13.268
49.141
0.95673
-38.091
-7.4622
79.368
59.885
-99.382
-1.1561
12.256
76.976
-131.62
-6.4004
25.094
69.746
91.114
-151.55
-13.925
-0.24375
43.053
57.433
-20.202
-33.894
-21.054
59.398
30.084
-115.51
-10.41
39.992
53.499
38.184
-53.093
-76.677
-24.245
58.503
-9.6971
-26.875
-17.368
2.0268
20.708
-4.5019
10.528
1.456
-8.2207
9.7686
3.0299
-8.8412
11.89
0.41529
-7.8557
15.844
15.153
-9.487
-9.3649
20.399
9.2539
-11.847
-1.366
19.343
1.0403
-9.3394
5.6874
7.1199
-12.578
-1.2382
12.411
0.52312
-3.0763
35.003
115.49
-86.998
-58.337
61.66
-3.7299
-15.745
-40.01
1.7757
-24.167
-15.18
-14.399
-6.4523
3.6705
-3.939
-2.8028
23.436
-10.393
-6.3198
20.177
-34.256
72.682
154.8
-93.455
-176.82
20.111
94.752
-19.052
-30.162
117.52
18.948
-158.67
5.8413
9.2155
1.6495
-8.314
10.254
9.4894
-9.0347
4.6134
-8.5893
6.4649
6.8755
-0.63335
-7.9923
15.502
16.699
-31.631
-4.7993
4.028
-1.7376
-12.527
8.3
17.095
-7.1597
-19.822
-0.59753
15.213
-6.9409
-19.817
17.674
12.543
-13.944
7.1889
12.611
-4.8456
-6.6761
61.813
44.186
246.44
-73.561
-191.07
-41.65
-36.234
-47.399
55.328
-24.589
53.457
64.891
46.778
-63.449
-105.57
4.4414
11.965
-34.901
42.311
61.502
11.902
-96.152
-17.131
21.807
-25.53
-16.768
5.0911
23.145
130.68
0.26654
-177.13
35.005
-18.498
55.779
33.67
-41.855
-46.125
59.444
32.139
-53.99
29.662
38.917
-55.912
-9.2448
-6.4333
15.809
0.43721
21.877
8.5971
-39.435
26.977
17.147
4.9017
-11.829
6.6145
-40.29
1.8308
33.444
2.3308
21.815
28.156
-40.702
65.613
8.3725
-19.173
-41.738
-50.919
23.041
50.613
154.16
-2.0161
-103.13
-27.16
-69.186
-59.374
-5.7984
4.8717
3.0061
25.083
40.205
0.085348
2.481
52.212
24.626
-56.862
-101.77
45.128
52.075
-87.108
-84.647
24.379
21.956
16.862
1.2462
-14.946
-22.871
73.899
48.523
-13.127
90.449
-4.7217
-120.96
66.979
-12.819
-47.856
-30.331
27.929
-16.072
55.634
139.48
-59.42
-131.9
33.027
93.197
-33.266
-43.576
48.695
-25.634
-74.366
27.889
80.331
-44.665
-0.40049
45.713
-108.47
54.418
95.795
-55.184
-87.119
12.088
31.819
-48.815
-35.78
36.79
-46.517
4.7893
80.19
-19.713
58.172
29.708
-56.633
-13.882
-43.071
-38.388
46.693
64.888
-27.683
-1.3693
-30.815
68.025
-17.999
-46.987
-67.397
-10.768
55.915
-3.1751
25.142
-15.708
25.296
35.864
17.027
40.203
30.362
23.85
11.304
-44.05
-87.74
-19.056
-25.089
119.29
-87.972
-6.9361
27.097
-30.296
-11.557
52.133
45.858
-86.742
-18.411
2.9217
14.495
-16.306
-11.742
15.031
0.78767
3.5847
10.734
-5.1729
7.0005
56.301
45.615
10.74
-37.36
-22.712
-19.885
43.814
-26.038
-62.935
0.62182
4.7411
-13.531
6.884
13.9
7.6764
-0.62253
11.328
26.049
-25.618
-1.9225
0.67614
-16.356
4.5929
6.9861
53.315
41.981
-66.446
-33.914
-48.436
-39.652
35.534
29.929
18.632
-6.7947
-4.3771
-16.949
-12.294
45.156
41.826
22.001
32.215
-52.273
-72.136
-21.293
31.575
12.786
80.858
-30.328
-18.362
11.899
154.79
-25.929
-127.2
-120.21
152.56
60.674
-173.78
-43.845
31.989
33.337
23.003
12.244
-28.369
-4.8246
16.82
-14.702
4.7636
-25.258
-81.019
12.124
97.789
46.333
7.7268
-1.6419
-13.374
-25.379
-48.092
-30.952
40.783
7.5317
15.829
44.454
30.249
-1.3005
-36.83
26.362
-1.4754
-48.499
-17.373
-23.933
31.628
33.98
-5.8531
-13.716
-72.621
14.625
80.991
-45.541
68.533
50.398
-5.63
-24.961
-82.736
-5.1758
67.211
4.5325
-75.286
26.289
13.669
-16.484
-1.5342
10.376
-5.804
11.502
9.3213
-28.94
3.4715
46.036
10.108
-53.24
7.6216
-20.486
8.2703
-7.1463
-16.09
-0.44118
13.585
10.665
2.2925
-11.248
-17.231
21.463
1.5939
-4.032
10.381
-10.353
25.059
27.137
37.675
17.152
-101.29
-10.639
8.3286
19.233
-4.7268
-6.2827
-23.157
26.268
83.955
32.361
-87.625
-63.017
-5.3841
66.119
-26.935
-132.8
61.054
-14.92
77.342
62.563
-108.9
56.346
77.214
-113.75
-50.152
-13.014
82.315
49.76
-65.022
-5.5524
8.5869
-0.44277
0.31939
33.569
-10.709
-2.0856
39.477
22.675
0.83256
-19.845
-25.836
-11.635
0.2025
12.699
11.015
-1.999
28.776
-16.417
-26.857
-15.658
14.289
-29.545
23.675
48.116
-3.6443
-83.837
36.461
112.34
-5.4732
-80.485
-50.084
17.027
113.66
-105.11
-24.147
27.492
-75.929
54.338
60.145
-9.6728
0.7147
-12.764
-73.889
-17.017
49.404
-12.526
20.329
-9.497
17.221
9.0877
-23.948
-10.281
18.499
1.6046
23.504
10.561
2.1043
30.188
106.67
7.2093
-97.311
13.307
-86.617
-43.014
-20.488
-12.647
-17.812
63.136
12.947
-10.533
14.413
51.306
0.83155
-28.762
-10.99
-33.459
20.295
7.81
5.6356
-3.6667
43.009
20.947
-59.243
-5.4816
6.5869
-3.8775
18.51
4.3243
-51.475
-20.938
30.15
10.421
-1.535
24.672
-9.0027
-42.249
18.336
11.79
-5.2609
8.2936
41.792
-12.993
-39.187
57.225
0.08703
64.936
-42.476
-56.61
0.60081
-29.822
18.119
9.8783
-3.0406
28.868
67.162
-35.84
27.828
81.115
-20.623
-74.786
-63.221
-15.305
-53.609
-45.503
-15.985
-26.74
14.882
53.775
33.488
-16.158
3.1424
2.502
-0.39998
5.8144
23.5
-6.418
-4.1417
11.472
-9.9795
7.7735
17.788
-17.65
8.0946
13.973
-19.186
-1.576
5.4497
-2.5981
33.675
8.957
-25.65
14.975
16.396
-5.7808
10.622
25.549
28.102
107.6
48.291
-114.3
-72.858
-38.971
6.2644
-1.8864
-35.175
5.2751
7.8703
32.881
13.621
13.321
19.676
-7.4378
2.8562
0.507
-22.749
-10.14
-6.5077
19.675
5.1848
-20.185
-14.808
-9.511
14.476
-12.683
-22.002
3.3471
-23.377
0.78381
8.1313
-55.736
-88.843
9.7566
81.414
8.6528
7.0709
19.351
17.163
82.551
-6.7537
-93.228
-6.0938
-68.977
63.619
42.475
-45.49
32.656
45.346
-7.1879
35.82
0.3511
-100.51
8.5352
16.305
-11.615
26.468
-22.043
5.4319
29.761
12.513
1.9745
18.582
2.7857
-13.173
1.4059
39.852
104.47
-86.045
-42.253
35.953
-8.5318
-9.826
-55.302
-64.288
24.545
24.495
-28.429
-4.0502
19.092
-0.46499
-4.7755
46.27
116.53
-38.298
-167.91
15.344
23.903
23.745
12.982
-59.354
-29.151
-11.224
-25.225
100.94
92.315
-143.34
-3.9266
83.087
9.4764
-59.728
-31.35
39.985
18.396
5.0307
7.1927
25.588
51.306
8.7734
-1.2997
-25.267
-53.065
-26.15
9.1905
-38.781
38.661
7.1587
-9.5888
4.9963
29.296
-30.783
-21.54
88.951
74.082
95.867
-41.916
-105.6
-73.957
-74.376
-13.402
-22.681
-16.479
5.9122
50.732
59.892
-26.484
-33.652
-4.0653
4.8032
-11.567
20.827
-11.208
-9.4724
35.624
-23.124
7.9429
39.22
-22.244
3.4982
10.267
-31.542
28.495
49.45
3.8331
-28.117
13.628
32.721
21.301
104.37
-36.39
-96.667
18.512
98.044
48.473
-210.57
-57.959
55.828
44.171
123.03
-15.496
-133.23
-34.352
2.6103
-20.405
-1.6559
24.633
39.196
12.529
-38.679
52.542
69.56
-24.972
-142.4
27.616
-18.994
-26.071
-24.688
-28.562
16.205
22.994
22.281
17.225
45.608
91.633
-64.68
-80.739
-16.413
-112.64
-21.994
73.425
1.8126
42.672
24.227
24.042
32.433
1.45
-18.477
50.122
56.572
56.373
-18.563
-22.246
74.905
42.482
-60.763
-89.834
-68.007
3.4406
15.601
17.283
16.782
-23.866
101.91
-37.519
-140.97
18.948
18.31
54.134
-23.458
-79.901
-50.856
64.041
47.319
47.982
-35.321
-62.017
14.728
-11.862
44.426
16.27
73.865
76.747
-127.13
-38.998
14.519
44.971
54.851
-23.675
-57.589
22.717
100.16
-128.3
-190.34
-30.163
154.78
6.6562
12.364
-41.535
76.896
73.321
-25.129
-29.851
-82.913
-51.234
13.243
56.733
21.392
-34.973
33.737
-56.806
-47.753
14.18
-1.6525
-2.1011
67.838
65.66
-55.804
-93.813
33.699
45.364
-15.365
20.905
8.7374
-3.1435
2.2272
2.1631
22.219
56.19
-47.501
-6.4471
107.62
-27.386
-29.041
59.491
11.917
-47.753
-18.626
42.187
45.396
-29.215
-65.414
-88.688
-22.577
87.213
64.405
-57.886
-0.040965
8.5276
-36.002
-77.391
-43.859
82.605
106.33
-26.008
-96.585
-63.515
-32.571
21.608
-1.4594
-5.9606
34.416
7.9283
15.443
19.907
-17.654
16.562
19.856
-13.485
33.474
42.86
-51.705
21.873
134.96
2.6358
-91.648
-0.21349
62.141
-40.47
-66.714
47.37
-25.912
32.309
33.891
49.078
70.661
-10.449
-39.284
-59.337
-20.686
-32.686
-21.899
-31.123
-1.0532
-4.2024
17.452
25.566
-55.84
25.366
12.448
-22.266
-30.267
-108.5
-21.786
93.28
-12.866
75.889
-5.001
22.332
11.08
43.359
22.101
-65.25
9.1577
-74.264
-5.7549
-125.93
41.776
34.443
-21.656
98.45
17.714
18.261
110.45
-70.412
-23.508
33.714
-13.774
-48.309
15.362
33.278
14.357
46.479
-38.773
-40.76
119.73
41.655
-139.18
-61.589
67.015
10.873
-30.646
-36.222
4.12
27.55
44.192
-40.369
-64.783
35.638
70.36
-10.415
-64.165
11.189
35.552
51.825
-73.935
-111.73
48.328
-5.3407
5.4084
-59.12
27.196
104.3
-63.24
4.6732
18.564
-42.277
-12.04
98.076
38.799
-43.885
-30.409
-40.293
44.89
10.903
-52.688
9.7838
34.313
-26.067
73.131
-26.162
-65.515
39.187
-47.112
-32.083
95.724
0.6662
5.1864
10.866
-103.41
42.685
15.515
22.256
-18.4
5.0942
30.07
-8.518
-31.192
-50.163
8.7533
8.309
-2.1479
-23.153
90.617
-1.2841
5.0073
16.555
-91.991
36.589
34.356
38.746
-90.04
13.542
24.559
45.965
-21.307
11.364
100.15
-83.296
-44.553
23.958
13.99
-105.61
61.442
39.159
-21.696
5.1102
-4.7615
-29.7
14.241
7.1489
0.4317
2.6768
-8.792
-2.5343
2.9922
-6.2525
-0.3512
3.8469
-10.973
5.3975
-2.5401
-12.072
8.0209
-8.2095
-8.8181
15.99
1.1791
-11.115
9.5869
0.025832
-14.039
15.302
8.1537
-19.864
29.256
156.91
-23.327
-158.37
-3.6413
-32.827
-44.386
65.458
47.215
-8.7613
14.446
51.672
-2.6257
-46.762
-17.033
-6.1756
22.017
1.3991
-37.354
-5.7325
34.706
4.8845
-0.81226
0.69642
-14.853
7.1274
5.6253
-8.6693
2.9945
18.172
64.524
0.79276
-57.888
-14.794
-2.6335
-1.6103
13.368
-2.8119
2.5613
-10.868
-25.385
-2.6291
2.4405
-9.7149
-3.4482
2.1507
-10.715
1.7831
12.608
-1.724
-2.6929
12.254
-6.5793
-2.6591
9.7779
-1.8612
1.3158
10.744
-4.7143
-10.355
3.8903
1.4327
-13.724
-1.1803
10.791
-7.02
0.40008
10.606
-7.812
-2.3623
12.685
-3.5192
-8.1653
11.782
4.4898
-9.5586
4.9564
7.7988
-8.2513
3.2933
10.937
-9.3817
-0.56597
5.8942
-10.26
-0.59856
11.482
-6.7942
7.1259
34.16
-19.237
-24.486
5.1213
3.5837
6.9498
11.489
40.48
110.03
58.256
-32.583
-97.078
-34.382
-30.623
-26.214
-29.095
-10.747
-24.255
-33.733
-31.868
90.951
7.5395
-13.605
-19.861
-34.329
-31.828
-101.03
-63.635
89.702
67.972
-11.982
4.9104
-6.9992
6.9429
42.168
6.5368
20.07
21.626
-10.376
19.823
10.611
-1.9058
27.936
-3.5682
4.6707
25.876
-7.2738
6.2204
13.631
-11.082
4.2261
1.9582
-9.4636
11.241
2.6998
-4.4433
7.6066
2.3874
-1.4477
-7.3183
-12.89
-5.2789
1.7125
-10.722
-5.014
3.104
-4.5503
21.203
-19.963
-13.119
13.55
11.001
70.822
34.93
-71.489
-24.415
47.614
-17.337
-74.836
-102.18
22.172
177.34
116.29
-26.672
-11.381
14.801
-87.409
-81.257
-152.92
-102.4
136.78
61.446
-44.066
13.271
33.408
83.254
31.452
-105.08
-35.436
-48.502
28.494
40.886
39.338
43.639
4.6263
68.288
-19.572
-24.973
3.6915
-96.024
23.507
6.539
-53.416
-95.71
43.855
95.546
2.6992
10.51
-63.309
-46.575
-11.309
57.935
27.279
30.07
-24.392
-99.861
45.684
57.483
-33.392
38.199
81.724
-115.98
-38.321
38.512
26.485
-11.072
7.5304
-4.9298
2.5491
46.617
-40.292
32.259
60.94
-28.342
20.396
30.747
-78.03
-137.54
-2.7137
89.149
7.1749
18.271
-21.668
-24.7
1.0618
-5.7629
19.88
-0.37095
6.0425
6.2823
-14.101
21.877
-6.9253
2.9338
12.825
-8.9416
25.721
-6.4388
-0.67673
26.479
-11.412
4.4756
22.457
-12.003
3.7738
25.689
-9.6683
-1.3304
20.917
-9.1533
-7.036
19.384
-4.0446
-8.5656
16.647
-0.44768
-12.083
6.5003
7.7636
-11.426
55.998
78.489
-64.762
6.8697
-3.2905
-112.31
-34.411
72.76
-78.385
-35.063
74.206
70.853
74.637
-29.553
-104.94
-23.759
42.328
-108.69
27.14
22.917
17.507
-8.3568
-65.798
43.887
27.491
-13.142
87.45
-14.133
-154.2
65.874
25.878
118.76
-31.942
-94.746
8.9668
-19.343
59.687
24.559
57.936
-25.545
-164.8
-98.628
-25.635
118.21
-8.8327
1.0751
-237
-31.651
202.36
72.085
-38.232
2.124
31.165
-16.658
-26.803
82.208
0.93531
63.587
12.705
-92.624
17.071
137.87
-61.83
-61.084
85.53
64.016
73.849
-70.212
-96.281
73.808
20.517
-87.909
-122.46
53.818
80.551
27.496
-43.666
5.377
-24.065
11.787
-33.813
28.602
-5.656
-17.267
-10.608
-18.367
-14.577
-60.024
58.485
68.81
-45.503
0.10144
-8.0394
-4.7717
79.041
73.375
-40.447
-51.602
45.691
5.9557
-94.685
-51.992
7.2674
-1.3786
-8.9133
10.21
-14.119
74.907
55.572
10.784
-3.168
-40.219
-46.69
-41.993
72.219
-41.152
-28.043
-2.4198
38.592
53.094
-7.744
-14.507
-10.927
-24.359
7.9937
-79.594
-43.726
26.725
76.395
4.2086
-26.124
-2.7865
51.469
-1.0809
-65.843
7.8386
59.146
14.961
-40.85
62.8
-1.8767
93.042
-32.001
-167.72
-17.05
6.5092
69.183
41.517
83.351
19.113
-115.08
-70.357
26.92
144.53
19.428
-122.3
-29.372
35.286
-4.5209
5.8562
13.736
14.43
6.9001
-25.61
9.6328
-3.1858
46.683
54.969
39.493
7.7036
-76.601
-38.56
-124.39
-32.1
50.751
4.3673
-6.6589
11.578
32.623
-36.774
7.558
45.18
40.61
125.53
-40.983
-106.74
-87.201
10.243
78.174
-39.146
-66.378
0.95512
147.14
-52.98
-58.369
71.222
-70.327
-89.334
101.44
67.797
-88.794
-97.39
4.6578
59.576
65.887
145.34
-37.745
-132.75
-49.493
66.965
16.59
-11.215
77.838
77.842
-74.416
-58.754
-19.015
-11.327
15.392
56.621
-22.074
-65.47
5.8159
74.485
71.375
-100.88
-19.904
-19.748
31.996
66.547
-63.346
-11.619
-1.8268
20.754
44.83
-0.54843
28.159
-36.298
-59.48
115.73
-40.899
-112.62
-17.329
-65.163
30.513
46.32
-6.2104
21.992
41.094
-3.1698
-3.3591
35.989
5.2765
15.952
-79.359
-79.946
-20.937
25.467
63.724
1.3581
75.21
36.072
-59.505
-42.52
77.418
145.15
-72.865
-108.59
-35.755
-1.3193
22.092
-13.076
-0.94959
-3.2267
101.24
-30.238
-87.836
104.53
6.267
-114.81
7.5047
-11.256
19.79
91.038
-12.78
-149.62
-10.929
35.993
16.115
12.738
-25.824
10.254
15.195
30.114
32.314
-37.453
-17.949
3.6842
13.408
7.3085
-12.234
11.112
136.77
8.4918
-178.49
-33.117
42.213
60.057
96.004
-43.128
-77.976
-11.94
-28.492
-7.3414
0.58967
42.993
43.975
28.004
-48.333
-31.432
-17.313
-10.301
-39.642
22.151
21.334
10.885
-11.921
17.396
5.4033
-14.293
13.56
9.5152
-13.251
8.1248
15.597
-14.066
0.96541
20.271
8.2633
-20.901
-3.8629
22.715
5.5626
-15.712
1.5771
15.429
-6.1517
-7.1863
14.898
11.628
-16.539
-9.2871
9.3747
11.666
-13.844
50.376
65.376
-109.34
-5.5181
72.576
-24.014
-40.031
21.798
84.188
-76.613
-102.09
-12.415
-16.538
32.81
11.104
39.58
-5.9709
-48.63
23.484
23.606
22.855
108.9
-40.654
-93.749
14.871
-32.456
40.23
-19.851
0.35374
-26.081
-46.334
9.8821
-20.62
-8.1832
12.625
17.479
19.086
-7.1347
1.1763
26.693
74.848
33.157
-48.566
-20.592
3.934
-1.9993
-96.611
-90.416
113.34
39.169
1.2587
-6.2647
22.292
-0.59872
-30.796
40.569
75.871
-83.575
-57.134
2.5002
-10.232
7.0667
69.048
95.508
-88.625
-179.11
108.15
89.188
-7.8431
-115.71
34.398
91.387
-75.457
-53.945
28.567
-73.689
-34.98
93.417
44.439
-11.928
63.959
56.202
-125.31
-2.538
-4.9905
42.749
167.9
-191
-24.826
59.062
26.105
70.494
16.605
-115.49
-1.0695
9.7485
-43.566
20.573
23.26
24.133
127.92
-71.85
-82.889
-18.411
121.37
112.94
-90.663
-76.747
-27.206
-32.696
-57.018
9.4656
20.879
8.9743
-2.293
117.52
44.097
-109.17
-65.829
-30.357
5.8237
-14.028
-0.39325
54.153
41.87
-21.877
6.8683
-4.349
1.3364
-37.411
11.791
39.611
-23.382
-14.73
24.953
11.597
-7.6929
19.974
48.103
9.7447
-62.564
3.8058
-6.2013
-79.622
2.1439
18.712
32.531
39.595
114.08
-50.132
-97.029
-44.739
44.826
111.29
-93.03
-155.97
90.576
57.249
27.383
69.721
-166.72
3.5399
11.363
-24.693
1.5266
45.313
-30.766
3.6171
61.185
27.869
48.499
0.26922
-86.601
-34.486
-61.712
11.797
17.467
-31.014
77.957
50.662
91.297
-25.919
-163.81
47.917
84.024
-30.488
-96.668
6.8766
-16.703
22.37
42.186
71.235
14.749
-72.023
-44.623
-35.115
41.173
17.65
23.758
40.281
-8.5721
-55.919
-68.115
16.824
108.29
66.482
-136.35
-49.925
21.514
-18.149
38.886
27.647
-8.6246
-24.337
21.314
20.987
-8.6159
0.28849
50.249
42.392
100.89
47.072
-114.68
-175.16
-39.032
32.641
23.134
20.046
114.86
43.13
-160.55
27.76
-46.404
-114.18
8.8508
138.93
27.382
28.578
35.582
-140.51
-41.519
7.3672
55.022
76.298
40.065
-83.898
64.687
-64.417
-57.015
-33.393
93.119
-64.21
-10.417
53.313
-18.426
-17.393
51.364
30.715
-38.799
-82.203
46.494
24.258
-24.783
32.631
58.72
98.326
46.305
-108.68
-43.346
-120.14
-12.316
82.21
-8.9623
87.077
53.617
-83.472
-84.667
3.5908
20.465
-2.599
38.715
24.705
50.357
2.2775
-59.57
85.026
-8.3731
-52.331
-24.908
-66.503
50.319
8.2674
-7.6842
-119.45
25.344
-1.324
-23.562
75.811
-18.795
-49.307
15.74
-3.2362
26.932
40.054
-18.756
-12.437
50.005
-7.1508
77.441
74.274
-109.55
-135.96
34.265
92.417
33.442
-123.62
88.603
25.5
-58.595
7.3729
8.5356
7.9267
-40.401
-5.1627
25.545
26.529
-11.806
-5.5702
163.74
-12.633
-167.79
102.87
-25.349
-3.6236
10.871
-102.49
-5.6547
11.595
-19.26
-31.638
28.144
55.747
-29.942
-14.724
14.527
-8.0231
94.285
85.647
-122.68
-98.305
15.423
39.111
-26.804
-10.693
36.516
76.585
20.032
-90.402
-38.28
-15.89
16.833
36.77
2.3293
52.217
-50.277
13.67
60.146
41.733
-62.974
-46.066
1.5697
-4.9936
-65.105
79.677
-0.96197
73.71
-5.7332
-24.462
-61.091
-10.72
133.53
-63.058
-109.99
-10.362
74.544
-24.22
33.167
18.118
-109.11
-27.323
100.53
-21.925
-75.656
87.431
25.923
-86.878
11.29
25.853
-45.605
-11.21
55.153
112.82
10.383
-51.887
-15.539
45.854
-12.785
-115.36
67.911
-18.424
-26.634
13.913
80.718
-6.0103
-21.91
-64.252
40.108
16.105
-38.419
31.41
28.784
-13.351
15.742
2.3533
-90.789
117.25
-74.601
-39.902
65.709
17.263
-88.948
-32.429
49.084
47.257
85.512
26.242
-127.34
-49.487
56.627
74.115
-43.227
-105.41
132.53
-61.564
-82.91
36.464
27.825
79.24
22.236
-34.795
-66.883
-3.7294
-17.663
-14.14
-2.8998
33.664
89.718
-85.443
-52.76
16.258
24.327
33.506
-24.329
0.32587
-11.698
109.18
3.7984
-105.14
52.119
48.108
22.857
-58.55
-27.55
-79.86
9.1479
77.425
9.4703
-57.034
-21.694
80.96
-6.1778
-37.818
1.0717
-29.765
13.908
48.745
-17.503
-10.539
-2.909
22.247
-0.52698
24.614
50.637
70.965
-41.3
-131.05
-50.302
-49.278
23.568
72.885
-18.705
-24.258
22.253
25.247
-11.95
-2.3677
25.633
-6.8751
-2.8895
26.811
-6.3935
-7.093
14.173
-16.887
-0.25122
18.62
-9.1339
6.7561
16.462
-15.689
-0.48904
23.097
-0.5227
-16.199
9.8735
12.737
-11.476
-6.4543
12.083
-6.5081
-7.2457
11.577
-1.5474
-8.1897
8.7533
2.7018
-14.158
0.11969
11.898
4.5359
3.1925
54.269
1.3533
-67.542
-29.425
-16.961
-21.034
27.349
27.606
-12.621
-30.358
-4.7577
13.971
-8.6727
-14.721
14.861
13.173
-8.1637
-6.4699
22.606
11.599
-14.955
7.4693
15.647
-19.021
-15.025
13.35
13.549
-12.202
1.2914
25.864
7.5406
-25.489
-12.411
19.708
4.808
-21.778
12.653
19.544
-18.663
-7.8235
14.228
6.3222
-17.891
-5.2184
14.267
-0.16483
-16.575
2.4402
9.3811
-9.8454
-1.6979
13.28
-6.0849
-13.578
12.597
9.576
-10.323
-7.4846
48.836
16.967
-49.689
-28.667
19.634
106.16
39.801
-81.989
6.309
-42.424
-60.745
44.297
22.907
-28.399
36.111
30.972
-50.995
-37.388
-20.918
-26.273
-74.697
-17.731
67.782
13.925
-5.8953
-24.888
-7.2141
-2.2754
-5.183
41.84
43.629
139.44
-26.619
-160.81
-20.036
49.819
100.78
65.018
-41.339
-15.303
-124.57
65.178
56.868
-63.71
-132.81
-3.6097
169.26
122.02
-86.781
-105.5
-5.0308
-48.091
-11.053
62.176
30.722
129.7
-55.284
-123.85
-1.6133
26.564
83.678
-15.933
-19.26
-29.815
150.61
-129.79
-114.76
102.31
16.036
6.5758
2.4446
6.8018
-23.084
-77.482
78.582
43.643
-33.057
-9.6981
-61.618
34.854
-20.748
-17.649
112.89
6.5978
-15.103
-48.783
-15.606
49.623
36.124
-62.501
76.981
82.679
-54.066
-126.25
-57.786
38.129
73.534
53.127
-89.232
-25.909
2.8686
55.455
-35.396
-7.7589
-1.1254
-0.44361
3.2345
-4.7879
6.821
-3.1312
7.4212
2.4051
0.073522
-4.523
-2.9296
1.2054
-3.2105
6.1638
-6.4721
5.6721
5.3475
-11.221
1.4824
6.693
-5.2333
7.4403
7.431
-10.545
3.2311
5.1294
-7.9886
7.353
0.68628
-10.205
9.5537
9.3279
-12.431
-3.6252
13.975
-2.4433
-17.408
10.36
15.992
-9.3805
-10.63
19.98
1.9627
2.4575
-17.874
-1.801
-14.936
-3.6679
40.879
-9.4937
-13.87
13.221
0.18019
-11.159
11.962
-10
-1.5741
8.0735
-15.395
11.51
-9.2825
-1.9615
16.224
-7.8185
21.43
7.6272
-14.537
15.137
8.4045
-13.691
8.6401
1.7918
-7.8213
20.211
6.4222
-10.793
20.254
0.030216
-11.84
-9.5971
-4.5082
-9.1383
-5.7169
9.6794
-7.5291
-0.46609
3.9365
-9.9317
-0.025945
3.9828
-13.282
-0.45219
7.6847
-9.1525
-6.3317
7.473
-2.6672
-9.5695
6.1495
1.2903
-8.3611
4.0835
3.0071
-11.879
-0.10556
11.641
-8.517
-5.7441
3.6804
-3.0306
-26.291
33.336
77.691
171.26
41.598
-260.19
-89.405
-46.028
29.889
79.938
44.565
-3.8651
23.488
-20.369
-91.089
-24.795
48.84
75.692
-76.196
-42.71
56.009
37.296
3.5778
-7.0629
103.59
-33.143
-60.882
-104.51
-20.926
103.16
-3.6272
-96.029
-8.5989
-6.434
10.529
13.577
35.382
28.494
-19.276
118.4
38.112
-174.35
-102.82
77.681
-4.591
79.087
37.513
-75.861
-41.274
4.28
-30.974
-52.713
27.623
89.182
-4.9646
-45.889
58.295
87.668
117.78
1.6584
-225.58
-24.508
58.686
54.159
-0.60432
-29.526
20.575
132.82
22.148
-78.639
-38.684
21.99
-9.7571
-76.97
-37.619
23.622
27.686
14.795
2.7377
22.125
17.631
-39.312
61.676
-134
-48.197
145.89
-89.087
-45.256
1.283
47.726
73.794
-170.98
-25.58
33.184
26.627
53.335
7.0046
-29.541
14.303
43.148
23.459
-21.777
5.1259
55.611
84.331
61.036
-138.21
-36.76
3.8397
18.521
107.77
-105.48
8.4278
-16.662
45.411
-107.38
-29.214
64.875
35.56
-81.276
-23.229
43.191
41.482
39.204
-46.938
-16.82
17.214
-17.908
73.174
-59.173
-135.2
50.778
24.729
4.5894
8.2021
-7.1132
-13.116
-48.344
-4.7478
24.051
1.3586
-11.188
54.933
112.01
0.011395
-71.087
-35.199
-47.525
71.457
8.9348
53.425
26.666
-77.001
38.459
-15.156
23.229
-97.237
-114.5
118.39
154.92
-84.798
-167.12
61.414
71.429
83.787
-26.384
14.44
-94.03
-25.08
2.7183
14.291
21.922
2.465
37.722
16.495
102.98
-100.5
-145.07
130.19
-7.4617
-24.923
122.35
-25.391
-155.54
90.819
30.183
-134.85
-66.896
82.96
3.06
87.045
-18.703
-46.556
78.194
-58.142
-68.976
48.304
7.0713
-1.4694
5.4454
-17.595
45.483
67.56
-42.618
-2.0133
72.404
-125.03
-12.915
20.673
50.465
29.274
-51.912
23.281
2.4807
29.211
-48.065
-16.171
19.314
-45.554
7.4597
-66.473
78.196
-17.573
-32.13
6.8856
15.285
37.37
12.563
55.778
16.879
-144.24
12.872
-0.31414
73.979
-28.831
-21.905
42.647
46.518
-69.756
-46.327
78.043
-54.48
28.949
69.778
-129.32
-30.463
26.429
72.619
42.492
-44.551
-10.977
-24.154
17.716
-44.173
-24.81
25.54
5.3703
62.117
-3.7061
-52.045
-29.32
50.099
1.189
33.559
132.89
-2.6766
-73.703
-74.831
21.758
-28.956
-31.302
7.3147
-20.509
6.5246
12.655
-4.2349
19.517
21.076
-11.393
-21.943
10.364
10.498
-11.894
-3.7037
10.145
-1.2199
-33.939
24.344
37.297
-41.436
7.1146
13.713
-2.2287
-29.575
-18.874
51.141
2.5757
-11.718
2.4063
-9.6214
-17.133
12.939
6.3306
-18.036
7.6182
18.999
-22.66
-4.888
38.761
9.8217
-24.271
0.028081
26.377
5.0827
-22.821
2.3627
21.529
-15.106
-9.3719
24.937
-0.025964
-15.622
5.3164
19.819
7.7979
-26.86
-2.3899
22.6
-0.73073
-19.713
7.5485
10.495
-18.427
-1.2392
21.416
-0.25474
-31.779
1.8596
22.235
-1.2289
-24.569
5.2806
17.01
-9.5868
-15.276
13.397
2.088
-21.363
4.3953
16.311
-17.271
-15.872
17.918
11.516
-20.583
-4.6269
22.695
-4.2606
-16.389
15.192
11.634
-20.307
2.0997
21.743
1.0804
-33.791
12.591
41.415
-3.9758
-24.509
4.9757
10.83
-20.917
-0.24661
19.325
0.082062
-22.242
7.9243
17.01
-3.5106
-20.517
9.5711
19.475
-17.895
-13.082
13.609
-2.0756
5.7788
2.412
-5.8312
-23.443
-4.6193
28.53
5.81
-58.455
0.37432
36.029
9.1224
4.4732
2.1952
-14.325
-25.22
9.954
14.826
-11.165
-8.6464
34.092
-3.361
-31.21
28.767
-34.145
41.992
-11.005
2.5257
22.184
-40.645
-3.9298
22.064
-0.68055
-20.512
27.099
16.385
-11.994
40.182
102.19
-83.898
-44.938
-34.456
-32.265
7.0933
4.5088
18.896
-2.0482
-20.399
2.2675
9.7088
-15.37
-3.1766
20.235
-7.9279
3.2694
24.84
30.23
-1.1539
-26.518
-71.879
-9.8476
67.604
33.664
57.128
13.036
-21.827
0.79848
26.456
-215.72
10.023
124.7
-109.68
-9.8752
48.976
-5.6845
38.857
32.246
83.571
-41.386
-139.3
-8.2665
145.27
-90.077
-60.585
88.921
-22.778
24.857
12.884
2.7461
-2.5683
132.35
-36.311
-133.83
37.026
-11.64
-9.7627
-5.9197
12.452
-8.4822
-1.1584
20.043
-0.47914
-1.3651
11.035
15.108
-28.387
-26.934
15.733
7.6327
13.471
6.055
13.777
-17.932
-26.429
4.0319
11.989
-18.226
-3.3971
9.3961
25.896
-11.358
126.97
-7.6974
-83.983
6.2559
-75.921
12.24
35.444
53.758
-77.166
-21.309
-74.742
21.49
37.782
65.497
-34.932
49.309
-9.5383
-146.45
64.758
139.38
80.033
-131.79
-35.055
7.4946
-31.476
64.481
-39.514
-59.373
-4.794
30.264
59.785
-56.99
12.424
29.583
-1.4704
31.26
61.231
-42.691
-80.888
-47.505
175.38
48.513
-57.432
-74.586
5.2201
-13.954
0.47208
19.751
-53.645
-55.701
18.291
33.097
-4.4363
-4.3119
8.6464
3.9484
-8.5532
-7.0578
9.3952
-4.4546
-16.748
8.478
21.55
-15.608
-15.129
19.244
21.995
-14.548
6.8593
20.12
-13.619
-13.168
3.1636
27.901
-5.5596
-15.769
9.8919
5.4175
-27.002
4.1911
24.09
-3.2036
-24.493
17.661
20.351
25.684
-14.31
-1.661
9.0391
-71.131
-12.233
14.19
-33.809
-17.994
110.96
-9.6256
-8.9777
-25.026
-16.749
19.914
-9.2614
20.671
77.75
-7.8806
-44.837
-11.472
-4.2068
-35.648
-31.174
36.644
24.062
-12.024
26.627
30.959
10.208
-45.396
56.457
-8.5264
-58.582
93.706
-9.985
-43.193
-53.658
0.84367
10.044
5.691
0.011853
9.6392
-21.596
13.883
40.277
-4.6081
9.7011
-15.124
9.6451
-17.84
43.358
-64.464
-38.348
5.0822
-18.708
28.032
25.138
-8.1739
-66.218
64.742
40.742
55.414
-30.93
-4.8629
-35.998
10.876
-22.721
-69.141
-86.977
76.277
54.144
-21.053
56.184
-8.0952
-39.166
9.7694
38.518
128.41
-32.365
-95.461
2.3664
-67.347
-39.052
61.888
35.525
22.106
-16.078
-10.516
-28.818
8.7361
21.888
25.468
-27.629
37.346
-21.186
2.7946
17.981
-44.408
-47.225
2.2068
79.188
-13.098
49.093
-13.635
-68.206
19.199
73.905
15.313
-161.81
-49.261
68.946
60.99
-18.57
-25.484
15.522
79.445
8.3559
-49.923
-20.274
-3.2978
-93.944
40.595
18.496
46.388
25.832
59.077
-35.437
-163.66
49.803
107.98
51.056
-23.146
4.3636
2.0267
-86.48
-109.12
-20.494
132.63
18.525
-10.828
60.71
-84.505
-139.53
46.77
73.92
41.889
-59.783
-6.7919
22.801
11.29
10.337
38.325
67.606
-12.77
-81.644
-96.878
27.292
61.783
68.964
-27.968
-37.305
-3.8066
-14.102
-24.736
-23.633
49.621
70.966
41.4
-4.083
-67.82
-241.08
70.583
133.08
8.156
-9.9074
-33.701
-10.086
22.018
18.326
-20.775
27.814
12.279
23.103
-21.652
-12.256
-4.1895
3.2818
25.737
31.4
-14.333
9.1827
114.15
-7.3142
-72.665
6.87
30.126
-44.077
-168.52
59.162
13.096
51.571
19.291
-17.407
-5.4526
-66.333
-2.9416
24.639
-8.3981
24.769
-14.915
29.012
-85.795
-40.63
52.847
34.632
74.069
0.10604
-82.791
-29.13
58.168
53.349
-11.573
-47.461
0.11763
54.64
49.793
-96.781
-62.859
8.0108
69.665
97.839
-103.49
-54.551
35.571
-15.157
29.211
1.2124
20.642
14.96
96.134
63.687
-104.81
-152.34
67.805
11.887
-30.007
69.613
-74.815
-31.507
3.644
18.066
40.068
-27.217
-7.7522
20.979
2.7213
9.2508
15.99
2.0303
-4.5058
8.2338
6.2827
72.859
54.78
-33.478
-71.325
-28.228
-65.052
-23.683
61.374
151.04
-164.76
-89.527
97.191
29.636
12.477
-4.9119
-19.054
-20.22
20.633
-12.046
19.965
-22.385
-52.725
61.801
-2.3539
-38.929
22.953
66.256
6.0026
-106.35
-19.394
48.972
8.4826
11.579
-4.5792
23.544
-58.006
105.22
6.5132
-167.9
-58.823
20.559
55.214
55.333
4.2546
-61.058
26.893
52.663
31.605
-53.731
-95.112
2.2347
46.043
0.70491
13.912
-2.0086
12.094
3.6187
150.56
-2.3893
-156.18
53.039
37.598
-17.357
-29.049
63.182
76.256
-17.928
-80.225
6.7142
56.192
-54.233
-53.219
56.908
65.875
-3.8523
-60.934
-46.375
-26.608
-22.845
45.025
22.763
-23.74
-42.741
7.3297
32.859
-27.432
-3.3019
6.1225
2.707
23.65
3.1097
-63.602
14.61
5.585
22.384
-10.017
-30.841
77.333
175.21
-84.557
-151.21
-14.563
16.325
55.842
36.59
31.749
-112.91
32.425
39.721
-29.522
-84.698
34.328
19.125
7.2554
17.425
55.307
-68.921
-3.4909
53.024
38.878
33.142
-2.8741
-142.38
-60.473
47.143
2.9307
82.933
-50.042
-49.136
23.015
18.535
84.043
80.742
-78.803
-126.75
-45.671
68.807
94.186
-69.876
19.409
23.725
-18.609
-22.243
-44.601
1.4113
33.811
15.614
103.77
-69.046
-89.395
99.292
-8.0353
-57.827
-15.875
-5.7628
-5.1656
10.596
16.35
61.185
36.655
-62.038
-49.816
0.78841
-25.198
-7.7467
23.279
51.185
-14.735
15.499
-5.4013
24.202
14.129
-69.518
-1.586
-23.711
65.976
43.693
-95.824
10.221
54.047
-51.305
66.848
-23.732
-67.002
14.551
0.53254
38.419
-8.7332
26.673
-7.1732
-2.8124
9.0162
48.152
37.628
-56.8
-52.543
46.296
-90.358
-14.186
10.7
68.314
46.091
-33.35
-78.443
2.5222
52.382
-17.925
9.7018
-1.2008
-74.001
27.552
123.04
-3.6954
-36.726
-92.202
-11.277
20.268
33.899
-0.43702
0.25317
5.0645
-16.958
22.799
21.556
59.943
-37.308
-37.733
100.12
-60.937
2.0879
-24.745
-82.733
72.798
38.821
-82.591
-16.305
2.745
-14.789
16.267
23.743
23.418
57.626
-72.134
-65.173
8.3886
53.552
15.508
4.4052
-7.6839
38.824
8.1613
44.354
62.4
-121.93
-125.5
15.556
62.745
26.382
-2.1732
82.32
10.543
-3.7913
-116.51
-30.381
1.4486
76.701
49.146
-15.855
-38.524
-9.2019
63.996
-114.14
-45.794
82.352
9.9235
-6.1416
-27.18
-26.09
17.409
-65.973
14.656
34.262
97.748
-67.137
-20.638
59.622
-4.8519
4.2639
-33.886
-27.581
16.915
16.74
16.376
8.2626
-10.804
16.751
-33.339
33.287
79.784
18.622
-71.122
-52.746
107.68
-101.1
-89.633
47.437
-1.1201
7.3559
25.611
95.17
4.8635
-60.523
-12.926
-19.05
-11.709
7.462
65.593
-40.73
3.9067
50.975
-43.631
-41.874
-10.637
11.001
-40.847
17.635
65.81
-12.39
-18.398
15.811
-32.398
-34.976
58.788
4.9107
82.578
-50.216
-70.099
89.239
-39.351
22.2
4.2635
-50.475
19.391
20.958
7.0925
-32.675
-44.206
17.613
-5.1794
-5.211
-4.5981
18.015
69.54
149.76
49.247
-281.45
23.803
-68.486
-30.718
43.394
43.325
-94.673
-12.18
35.908
28.975
-1.0748
23.17
-19.287
-13.348
11.819
-49.785
22.993
-51.902
69.443
26.099
-31.954
-7.063
49.851
39.955
-55.166
0.16708
80.93
-1.7533
14.229
8.2577
-35.305
32.961
20.418
-10.05
120.5
132.82
-125.39
-213.56
73.61
54.346
-201.91
-9.4613
85.213
16.835
-19.136
23.224
-30.111
-63.225
31.047
50.398
7.4782
-14.394
0.57173
3.9275
75.993
126.89
-24.336
-165.61
-89.345
8.5154
4.222
16.181
113.33
-8.4379
-44.742
-54.005
19.552
-34.054
-82.893
6.1843
36.943
-18.98
66.249
56.321
-41.393
0.23022
83.534
-13.88
-18.12
130.69
38.664
-100.62
-152.78
43.804
72.007
-29.441
-25.034
37.36
24.183
-16.171
15.845
-10.875
25.502
175.06
-56.23
-106.68
6.2047
-31.679
-96.925
-61.567
18.234
-85.605
78.784
56.429
27.153
-13.304
44.58
12.224
3.6215
80.209
-215.99
27.459
7.5657
-36.558
12.895
113.44
93.922
1.1833
-88.308
-175.21
90.508
-20.32
-3.2553
108.32
-19.881
-22.781
109.35
-43.136
-27.578
80.532
9.4445
-56.878
-153.07
33.264
34.091
-47.3
-38.221
38.314
68.969
50.045
-25.237
95.723
-21.024
-21.033
20.749
-61.972
-31.352
10.982
74.473
22.371
-95.953
-71.426
85.491
13.874
-29.785
-104.8
-65.688
111.6
-24.414
16.123
-7.2723
-21.08
21.881
45.384
5.5794
4.2009
211.87
37.371
-133.78
-176.31
-33.091
164.16
-153.87
-21.362
64.443
37.348
-12.118
-22.34
58.904
41.825
-21.34
-31.54
12.516
9.1931
-0.048707
-15.883
6.6789
-10.057
108.66
6.4341
10.035
16.789
-224.88
-4.4062
45.837
15.284
110.45
15.307
-197.89
20.132
58.626
-23.506
14.3
1.4991
-8.3681
56.78
87.608
-62.865
-78.876
-4.9035
-50.775
69.137
60.846
-72.443
68.608
99.13
-15.849
-214.65
-70.307
108.12
-13.386
63.416
25.447
-27.366
-54.093
160.06
-2.7386
-24.555
42.715
-38.424
-78.35
-96.724
108.61
-35.333
-19.121
134.5
-66.142
-116.42
42.208
-52.053
-21.104
159.43
11.637
-47.666
-31.815
182.24
-45.908
-73.975
-43.394
-24.076
32.831
28.806
17.643
-94.206
35.194
73.241
-211.82
-23.904
140.54
40.452
-33.156
0.16537
-12.93
-11.559
93.154
-2.9701
-29.976
15.595
-102.74
63.25
-69.042
-26.559
173.15
-68.771
74.845
74.692
-88.797
-217.58
76.394
67.114
2.9504
-6.7311
43.978
17.709
-61.76
-21.306
55.958
2.7604
-20.194
15.752
-4.1789
-17.832
-4.4857
51.949
11.499
45.705
191.88
-38.963
-89.75
-247.45
-72.463
110.9
1.7381
85.619
19.148
-66.381
-67.499
109.75
117.97
-108.7
-79.744
20.661
76.944
-177.72
-67.473
150.1
37.254
-24.284
-65.809
4.2544
55.168
-11.04
2.5497
13.255
8.5168
-3.4055
13.689
52.351
-12.179
-20.597
144.37
93.616
-76.56
-46.566
-69.12
-96.41
53.046
-151.82
11.203
119.62
17.334
24.144
55.976
-63.045
-97.766
66.633
8.3776
-27.429
-14.899
21.962
49.742
43.38
-70.206
-81.608
24.408
189.63
-31.767
-183.52
55.055
63.868
-81.213
-14.487
76.822
-100.75
42.79
138.86
-181.96
-42.064
32.73
1.4019
30.577
4.5386
33.887
-17.601
21.96
40.087
-47.961
-18.57
12.235
30.325
16.46
39.961
44.063
33.823
-19.446
71.756
-2.9663
-188.77
5.7017
6.9566
4.3809
42.567
-11.489
-4.9912
-4.3436
-78.084
-3.9201
67.587
-4.6186
-76.399
19.496
-58.441
15.355
-6.216
59.05
0.80759
-32.48
16.578
138.15
149.06
-185.6
-210.75
98.279
-4.1619
28.891
86.532
-16.95
-158.74
5.7918
10.225
51.591
66.395
-28.151
130.17
78.515
-109.18
-88.476
11.208
-146.22
33.433
125.84
-43.247
0.61974
78.272
-8.5951
-48.759
-10.942
-34.748
-134.06
157.24
33.559
-71.572
18.199
10.735
88.957
41.128
-65.386
52.23
-88.21
-27.496
28.557
-114.92
47.203
55.698
107.9
66.801
-74.18
-189.32
-58.217
119.78
42.084
-27.38
-6.619
-14.883
62.466
-0.88131
-53.613
195.12
-4.7417
-185.24
-36.512
92.054
-130.62
14.279
97.971
36.251
-55.517
-49.485
38.308
10.608
10.897
30.838
41.802
-5.2434
130.48
85.49
-153.55
-121.42
88.12
-177.05
-114.79
166.32
7.043
14.272
46.171
23.754
-80.023
-42.376
66.726
107.13
107.33
-148.72
-102.43
58.967
-143.06
113.72
26.001
91.876
51.242
-69.875
-286.8
68.541
80.808
22.058
93.874
9.7792
-203.63
20.351
83.329
13.719
53.079
-22.262
-93.905
56.755
197.38
31.804
-143.84
-55.376
-35.172
-51.215
112.79
-62.676
-180.24
137.22
63.09
28.98
95.155
-65.245
22.408
-124.06
-194.49
161
27.327
-11.789
13.407
75.161
9.981
80.773
40.276
-67.064
-257.53
-4.1817
140.63
-24.042
0.0055536
79.298
-40.685
-51.647
190.43
-0.02753
-94.994
-89.918
96.061
18.542
-200.57
117.45
66.366
33.498
76.394
-34.521
-90.963
8.5747
-209.82
70.67
45.759
-36.635
38.051
-36.719
43.003
68.432
4.3806
-54.701
9.7244
0.71252
21.753
37.218
-10.655
-58.979
-10.144
14.692
128.21
-47.051
-44.169
32.088
48.663
-4.2704
-15.459
66.832
-61.444
-13.104
-57.102
-28.334
133.36
51.193
-96.599
35.172
6.4471
64.659
30.71
-85.438
-90.521
-45.221
-79.709
-141.14
198.32
12.184
-36.592
-34.358
-4.4836
-6.4536
33.635
-27.599
46.734
4.9385
15.917
7.9108
-17.822
18.908
10.612
1.479
10.303
11.088
15.131
13.539
50.916
20.782
-27.474
-81.401
56.139
-14.724
-46.619
23.083
57.564
-24.769
21.019
76.208
-23.317
-169.57
-23.17
55.839
-1.0654
72.229
30.558
-145.01
75.022
-20.529
-20.463
-55.2
-2.4673
-17.713
12.661
96.053
-4.0241
48.45
-46.914
-1.751
49.791
-122.48
49.6
52.597
22.13
-47.678
-52.694
27.666
-5.4363
6.6047
15.028
43.685
30.014
27.085
10.262
-158.52
58.26
64.988
-57.45
68.749
-39.65
-27.655
-68.633
-7.6639
41.066
5.4838
-25.964
-14.927
-40.762
-1.0342
-20.397
9.1574
4.0673
-25.848
70
-48.478
10.485
109.63
44.125
-172.65
-5.2588
87.31
34.328
87.164
-76.989
10.17
-31.535
63.014
65.019
1.2407
-60.738
-39.459
2.739
1.6102
42.849
-19.415
-25.385
16.118
6.327
-8.859
22.403
42.887
-4.6833
-75.083
-15.681
0.71292
3.3238
-7.977
9.1298
-7.0101
-2.7587
3.2408
-15.728
-1.0756
7.0614
-5.2561
9.5758
-0.48272
-6.6984
8.3665
-5.836
-6.2687
13.888
4.9703
-13.436
9.8122
18.682
-6.0064
-9.5154
16.452
3.5086
-11.888
21.659
9.0768
-17.404
-0.43332
1.1379
-23.616
-3.8893
19.668
-11.45
-11.648
13.073
-5.3212
-7.4881
11.903
-10.097
-16.347
-15.805
-19.887
22.51
37.121
1.0925
5.3352
41.52
44.708
-28.112
-10.236
-10.585
-14.574
6.3149
-13.701
-20.097
10.871
12.643
-17.362
-3.7945
9.336
-23.103
-8.0124
9.2937
-3.058
7.557
10.668
-15.616
-3.8888
9.5628
-14.501
-15.616
14.603
3.049
2.3971
6.4465
-15.062
-7.9056
-5.1339
-20.432
11.228
22.849
-3.6118
14.094
-3.2693
-4.6567
17.213
-6.3053
-1.6891
7.0783
-12.576
6.3138
7.4261
-14.65
14.83
19.61
-2.4685
-11.493
16.906
8.8713
-18.059
0.34523
16.684
-2.4268
-17.917
6.3644
13.259
-8.4268
-15.911
9.5406
4.6033
-10.227
3.7097
11.749
-21.19
-19.847
-23.333
-22.82
32.167
18.854
-14.156
-14.242
-4.3047
-15.662
26.472
12.226
-2.5159
36.236
36.546
-24.724
3.1321
7.0266
-41.557
-20.346
4.0226
-2.5799
8.2985
31.596
3.7439
12.12
18.272
44.935
-38.461
-40.199
5.3123
6.7453
-6.5385
-29.741
6.7836
18.482
-0.0057308
2.4636
20.902
14.761
-15.372
-13.354
-1.9764
-12.233
-3.8127
2.1029
-1.5532
-11.17
5.4271
1.0549
-12.692
1.0433
1.1878
-10.262
2.7389
-1.6371
-10.542
6.9013
-5.104
-5.2034
5.7618
-9.9033
1.2786
9.812
-12.985
6.6465
-2.3169
-11.918
13.063
-7.1591
1.3924
9.4797
-11.243
13.851
5.3389
-14.208
16.808
35.352
-18.42
-108.31
10.15
85.004
87.486
17.704
57.885
83.68
-0.27656
-162.77
-142.95
5.1452
117.8
60.56
25.232
-22.986
-28.034
-66.202
4.6473
-83.643
62.607
51.656
-149.28
25.351
24.136
9.9564
-66.201
-134
27.144
154.29
85.959
-13.532
-58.228
-14.857
63.613
74.66
-106.44
-66.629
-3.9636
19.912
32.494
48.206
-26.818
-48.649
63.618
68.643
-110.06
-39.084
17.077
-33.161
161.67
12.819
-7.6272
-113.14
-14.365
55.175
-0.22983
9.5145
78.346
37.535
-152.23
31.041
5.3142
-12.483
10.589
51.634
4.1615
-4.5365
-33.298
15.545
-2.5165
-54.504
-6.9788
-11.385
10.334
8.4181
-6.8697
-1.1689
13.371
-8.5117
12.026
18.646
-38.498
27.347
23.599
-72.245
39.695
24.932
46.658
86.605
128.42
-46.43
-143.4
-159.08
-118.85
88.711
0.6058
-54.483
75.783
58.042
61.752
-27.297
-22.559
116.54
-115.25
-61.613
102.43
63.711
-45.533
-6.2669
38.016
-33.028
-58.238
-14.319
40.815
9.2111
-0.039256
-2.4834
-37.629
4.07
-11.31
13.149
18.629
13.567
-6.6021
-10.737
8.5881
114.03
85.2
-88.406
-76.451
-33.503
-17.246
-33.752
-13.905
0.076665
-12.355
-41.162
-7.4789
-9.2338
-49.255
112.37
110.55
17.163
28.271
-61.342
-37.943
-103.94
54.6
136.82
-121.25
83.08
61.131
-44.51
-78.891
-14.813
27.989
8.3727
-0.028319
156.78
62.908
-192.54
-233.22
148.89
140.47
-105.62
-20.808
7.8886
-23.078
-3.7378
51.193
-63.77
-13.872
50.869
159.9
47.545
-26.632
-129.52
-109.39
98.485
-41.202
-101.77
111.63
34.499
-39.819
-29.71
34.496
-36.608
0.25327
22.953
34.73
1.7449
-2.3073
14.669
11.78
-38.96
61.212
89.6
-173.08
21.807
268.27
142.83
-263.34
-112.02
44.437
-106.63
50.565
59.363
-68.351
-106.77
-40.628
54.496
39.155
55.209
37.08
-10.714
-51.361
-15.181
20.854
-76.382
-1.2538
59.803
-34.929
2.0412
39.984
150.87
-20.004
-97.145
-73.186
22.142
116.93
-1.9238
-193.13
-43.454
126.87
50.249
77.821
21.062
-196.76
-53.753
22.485
96.242
72.461
22.277
-0.44101
-211.35
25.296
49.984
17.13
34.216
55.048
144.23
31.636
-33.914
-213.35
-57.176
41.514
-27.931
89.038
15.176
30.568
-71.432
47.334
154.8
-50.426
-38.375
-96.657
-64.113
79.497
28.686
-93.842
0.37045
59.445
-18.621
-57.571
43.691
-123.05
50.217
7.4004
51.544
75.311
19.799
-17.018
-42.265
20.645
-199.49
-12.272
81.796
60.12
81.5
-28.151
-46.928
-8.685
100.24
52.306
-77.323
-10.784
-42.18
32.86
178.1
-28.032
-77.316
-81.608
-15.355
-46.028
-81.212
95.442
60.854
-11.345
-1.9671
61.232
-8.4685
-43.162
-40.954
-38.818
25.59
35.015
-8.9449
1.6341
14.758
12.461
14.992
38.172
-23.18
-39.743
-19.655
163.85
157.31
-134.7
-50.168
-97.966
-226.36
93.753
85.478
11.597
101.87
79.442
-285.79
-50.217
126.01
50.213
37.854
-96.968
135.93
77.447
-207.71
-46.798
42.739
87.183
-49.149
78.32
-24.765
-171.06
24.749
71.278
69.539
-42.887
46.099
57.574
-135.18
-10.384
33.355
54.14
89.883
45.16
-94.987
-226.8
-98.577
129.36
46.292
9.3919
-9.4911
46.348
-19.838
-3.2306
43.942
-57.008
67.959
67.443
-98.691
-12.338
54.832
54.601
30.774
107.91
-174.78
-181.14
110.68
-1.8505
67.34
-20.114
7.1926
59.439
-85.385
-17.992
-7.6289
79.634
-69.789
-3.7655
12.034
18.409
14.708
106.61
-59.882
-62.849
-17.096
-1.9501
65.605
6.5825
103.41
-68.226
-94.199
46.401
-109.21
-137.9
158.59
10.083
22.268
-74.246
57.61
24.971
-58.313
117.73
-40.516
-21.416
-1.4014
-29.466
93.403
-76.055
3.5627
-4.8787
-9.3474
-5.4532
13.971
20.141
16.253
30.503
5.2684
-52.983
-21.973
-16.176
13.268
99.22
15.59
52.516
-51.456
-85.641
24.763
78.992
19.616
-42.37
-56.609
11.083
-43.469
29.38
68.018
-55.978
-26.138
82.164
-111.91
-109.79
70.512
-12.563
4.7924
30.912
33.323
-59.641
112.74
58.539
-182.58
23.288
-45.88
53.167
43.278
15.017
4.593
5.7705
-214.02
61.438
68.704
49.243
-11.218
6.5646
78.64
-106.2
-9.8135
91.888
18.478
77.448
-31.888
-54.377
-142.7
-68.636
118.66
82.492
-49.824
41.028
-4.2193
-92.006
52.474
105.92
34.334
10.111
-11.405
-230.04
-79.944
144.35
-4.0806
38.39
-10.983
6.0787
-7.4538
-6.9449
24.149
45.151
-71.644
-16.172
107.17
88.701
-78.048
-126.07
-5.3369
83.81
-22.49
11.85
78.68
18.23
-158.99
-88.369
93.072
55.863
-23.988
-49.174
211
-123.1
-138.79
86.282
63.162
-10.982
142.38
-52.096
-278.45
37.211
90.471
57.169
-118.19
41.667
79.379
-73.618
1.5755
148.01
-72.157
55.587
96.431
-132.44
-29.361
-25.553
13.39
-175.13
86.763
69.926
-7.8988
51.75
-37.652
-30.735
-21.281
102.43
-48.34
-29.142
24.663
57.352
-75.782
-13.586
-3.9213
9.2134
20.463
-7.4158
-2.6472
15.984
9.254
6.2761
-5.055
-16.158
166.29
-65.579
-54.34
93.64
-163.66
-45.277
107.76
11.98
64.565
-0.65902
-99.321
-4.9289
167.27
-26.647
-188.7
24.234
-88.434
-5.6334
92.836
1.2967
-3.875
-59.91
90.893
168.64
-52.258
-197.9
-19.402
2.9828
72.047
46.491
-67.084
106.52
-42.558
68.667
-215.04
-36.237
75.63
35.279
32.821
-89.07
78.021
-8.1898
-26.416
2.8501
94.163
28.854
73.429
15.667
-242.19
-43.652
66.706
64.907
-26.136
18.361
23.402
-43.386
26.141
92.598
-47.644
25.066
-0.15335
34.37
-130.65
-11.811
54.963
29.217
-60.844
83.339
-67.217
-33.307
74.551
80.617
-69.848
93.295
-88.625
-144.26
67.657
68.005
-5.4107
-119.73
67.004
28.72
-74.076
-16.31
113.8
39.215
-79.11
112.39
-97.515
-126.75
57.556
35.224
11.944
-54.449
123.72
-56.054
-71.414
-9.3876
79.015
114.96
-103.13
-87.093
22.468
106.29
166.23
-47.818
-144.75
121.89
-163.14
-118.18
119.48
29.229
-68.766
-15.985
143.57
-90.198
-20.865
-18.012
98.666
-17.192
-84.478
2.2412
2.4763
46.57
-23.735
26.503
38.606
-35.08
-5.7039
-18.777
-2.1292
17.871
133.93
-67.693
-6.2177
72.434
-6.9015
-126.1
-47.658
11.822
43.186
101.24
-18.436
-76.607
-43.837
47.623
58.049
-80.596
-76.937
16.415
14.645
49.02
-91.596
-60.572
104.55
26.085
-46.098
-19.806
96.884
-41.142
-5.8672
65.017
-77.576
35.638
138.07
-70.558
-96.496
-8.4528
77.181
-32.971
111.01
90.204
-229.32
-145.43
164.06
-7.3769
2.1341
-2.2458
147.41
-123.57
-53.994
125.31
-26.368
50.335
115.64
-270.2
-92.7
151.86
34.112
-49.339
100.7
-57.555
-75.892
62.653
126.32
-75.948
115.12
-55.374
-244.94
46.071
67.719
-8.3186
-15.368
93.01
-105.19
-2.1572
135.01
-75.824
56.143
116.76
-36.56
-240.29
-97.078
92.741
97.943
-43.38
-6.2498
168.14
-172.27
-23.235
101.82
-24.535
-17.384
172.82
-144.33
-108.2
74.482
-16.018
27.465
20.602
-46.03
10.365
-27.37
62.756
64.59
-33.558
-57.61
39.711
56.743
81.341
85.91
-186.81
-135.79
83.032
-37.761
68.647
-35.438
-64.324
191.31
1.4848
-191.94
33.058
-28.713
53.131
-5.6835
141.22
-71.514
-245
86.584
39.804
0.79034
-87.484
126.03
36.544
-119.2
61.067
-23.076
47.301
65.046
11.351
-18.553
-83.503
15.278
20.544
-3.0986
-13.997
-7.6195
45.228
54.043
69.576
-138.63
79.256
103.56
3.9944
-50.351
-96.852
-8.4499
-37.28
-40.545
146.82
28.562
-49.92
78.339
-55.388
-169.54
17.399
-8.7374
-71.008
34.472
38.026
-2.3709
-28.326
49.85
-48.346
45.61
31.146
-14.153
8.1948
135.38
-131.18
-64.537
-0.20513
-43.868
145.19
-12.043
68.996
71.813
-53.384
-293.87
-18.037
169.71
-14.118
47.616
-38.861
111.08
2.825
-109.18
56.54
16.265
133.4
41.332
-107.45
-161.97
38.382
92.089
66.019
-42.828
12.33
-49.64
-58.122
25.747
-77.707
-37.405
82.987
182.08
-56.324
-154.03
-19.309
-3.8733
113.36
-45.534
-15.994
-82.158
-23.019
81.204
71.208
109.86
29.504
-162.29
-222.53
64.51
127.16
-29.039
32.712
-54.925
86.038
110.48
41.257
-200.98
-148.41
104.27
69.283
48.86
-129.73
121.05
72.655
-153.95
-17.887
90.016
111.14
-65.919
-21.373
184.48
-50.349
-289.62
29.981
57.946
49.946
-26.774
-70.488
159.37
-29.341
-87.507
20.714
105.67
-96.705
76.545
-8.8754
-74.197
123.29
-105.69
-34.325
78.727
-160.21
-65.624
93.401
58.489
9.4493
-46.093
11.78
-21.783
-17.783
0.27497
65.213
3.448
-14.831
42.86
37
21.944
-43.75
23.611
80.309
-64.639
-15.091
-36.191
139.51
-12.63
-169.74
63.087
20.745
24.943
185.23
-121.48
-321.52
29.897
87.742
42.485
-51.233
132.75
131.36
13.606
-22.973
-212.02
-98.07
39.211
-20.502
-53.554
-39.069
61.296
34.946
-18.148
113.88
94.382
-171.41
-88.738
36.976
-41.996
90.036
87.578
26.464
7.4046
95.911
-46.08
-129.13
-12.375
101.88
19.186
44.58
158.78
-195.5
-272.46
87.38
91.448
54.511
-147.71
145.54
41.559
-122.21
-4.006
113.35
-75.14
-52.792
54.245
-3.8309
11.824
19.948
4.5775
-21.08
-12.287
-16.365
-0.98543
0.87269
-18.114
65.958
80.073
89.344
79.957
-153.28
-119.28
22.122
71.587
9.9529
-93.712
55.32
-26.782
-56.854
25.392
-30.707
-0.53503
53.853
-32.141
-118.87
25.03
-37.82
99.192
39.303
-68.892
-34.88
171.77
-73.188
-49.961
29.179
62.893
-11.462
165.85
-73.807
-69.208
-181.44
-82.823
106.05
39.301
16.207
45.596
43.4
-77.947
37.541
94.668
-43.62
135.52
-64.41
-264.3
54.138
95.258
-8.3101
0.77646
47.227
-68.907
0.98726
119.8
8.6927
133.56
-125.73
-260.04
76.581
57.094
-30.801
31.775
0.95538
-73.17
124.72
38.494
76.914
34.928
-283.81
-41.667
71.978
45.222
-26.313
66.122
-79.463
9.9957
111.05
-43.946
54.771
-18.484
-46.447
77.533
-91.882
-22.82
-59.82
-4.7788
86.615
-6.7373
61.377
-110.29
76.872
13.843
-67.115
-32.413
72.094
148.34
-54.151
128.08
-83.358
-274.22
38.847
66.289
-36.198
19.505
36.54
7.3726
33.219
-100.15
59.467
5.0752
-10.357
-2.5
31.006
-1.4038
-27.154
7.1422
-14.312
7.3008
23.322
15.696
-33.5
5.8847
32.771
117.57
38.293
54.359
-119.79
-99.813
-31.455
-29.581
14.052
17.793
92.408
53.304
-88.298
-139.78
87.739
-28.655
16.08
48.553
-78.11
76.418
-14.501
61.53
-0.99706
-44.136
-183.04
-55.64
127.73
110.46
-33.463
-9.6586
29.984
-54.083
-47.151
-33.451
5.0871
137.91
59.25
-88.662
36.602
-155.63
130.22
-109.92
-47.316
60.35
116.88
-54.583
-39.353
42.513
57.113
11.251
168.86
-101.53
4.0908
-92.423
-215.13
65.888
106.29
-7.5848
61.581
45.658
-93.797
1.9337
118.44
-36.399
50.637
38.709
-260.12
21.868
36.018
30.663
-5.7916
128.83
-32.91
-18.996
-40.314
-78.241
81.956
59.284
35.804
102.51
-271.62
-138.49
123.81
2.2879
73.467
-18.609
-67.039
97.303
-39.801
-49.472
167.61
-50.668
-38.773
15.286
103.43
-53.478
-184.27
48.898
23.755
64.078
-97.656
50.434
83.375
-87.862
-17.682
-8.7283
66.801
121.91
-38.043
178.57
-142.47
-274.74
53.71
18.155
71.475
-83.329
4.529
34.291
37.367
165.07
-120.81
-17.953
-15.145
36.859
-53.597
-50.677
76.115
27.087
1.1689
-34.835
-44.983
-2.9019
0.21379
-14.214
70.376
55.152
-64.826
-31.518
-9.16
-2.2791
7.5579
120.05
-32.158
-16.229
20.662
65.415
6.8113
-182.2
21.64
114.15
17.305
-94.055
-23.495
0.23194
1.6478
47.468
-63.237
-109.58
58.336
-74.337
33.275
50.828
-51.365
122.95
59.186
-63.181
-32.382
-41.55
61.756
134.33
-24.924
-48.232
-128.52
-112.4
90.927
-16.784
40.975
26.985
176.01
-111.83
-49.169
72.474
-1.286
-79.742
4.9748
70.532
77.67
134.08
39.677
-308.08
-174.76
90.987
-21.418
43.735
15.393
16.473
22.571
-11.423
-11.842
32.665
46.606
-10.882
-16.111
237.28
-136.49
-112.02
107.16
-154.06
-26.683
-2.7651
69.075
54.372
124.45
114.29
-266.58
-284.28
105.29
117.23
-35.775
32.926
68.49
-73.047
6.3472
91.238
36.551
65.191
54.322
-201.45
-141.56
54.565
88.476
28.677
47.149
-70.954
64.835
48.5
-181
