-6.09
-3.88
-1.79
-0.39
-0.1
-1.03
-2.84
-4.95
-6.7
-7.62
-7.5
-6.42
-4.61
-2.31
0.19
2.59
4.51
5.55
5.38
3.93
1.42
-1.61
-4.48
-6.55
-7.4
-6.86
-5.04
-2.3
0.93
4.21
7.21
9.74
11.78
13.36
14.56
15.35
15.61
15.2
13.97
11.97
9.45
6.78
4.36
2.5
1.35
0.9
1.04
1.7
2.79
4.23
5.91
7.58
8.98
9.89
10.25
10.25
10.23
10.53
11.34
12.53
13.75
14.49
14.41
13.41
11.72
9.73
7.84
6.21
4.74
3.17
1.24
-1.12
-3.69
-6.04
-7.68
-8.25
-7.66
-6.14
-4.11
-2.08
-0.5
0.34
0.31
-0.58
-2.17
-4.26
-6.54
-8.72
-10.55
-11.89
-12.76
-13.3
-13.75
-14.32
-15.15
-16.28
-17.65
-19.12
-20.56
-21.89
-23.08
-24.2
-25.34
-26.54
-27.8
-28.98
-29.94
-30.51
-30.57
-30.07
-29.01
-27.42
-25.35
-22.89
-20.15
-17.26
-14.37
-11.65
-9.23
-7.23
-5.75
-4.84
-4.46
-4.47
-4.54
-4.22
-3.08
-0.81
2.59
6.75
11.02
14.71
17.33
18.75
19.22
19.15
18.97
18.88
18.86
18.77
18.46
17.94
17.31
16.7
16.17
15.61
14.84
13.68
12.06
10.11
8.1
6.35
5.07
4.28
3.78
3.22
2.27
0.76
-1.25
-3.51
-5.67
-7.45
-8.73
-9.58
-10.2
-10.79
-11.5
-12.44
-13.66
-15.21
-17.11
-19.2
-21.13
-22.36
-22.29
-20.54
-17.08
-12.38
-7.2
-2.34
1.6
4.44
6.35
7.64
8.62
9.41
9.96
10.19
10.04
9.6
9.01
8.45
8.03
7.73
7.45
7.08
6.53
5.79
4.96
4.13
3.4
2.77
2.12
1.31
0.2
-1.21
-2.83
-4.46
-5.91
-7.04
-7.87
-8.59
-9.44
-10.63
-12.27
-14.3
-16.57
-18.91
-21.1
-22.9
-24.02
-24.09
-22.82
-20.14
-16.28
-11.75
-7.17
-3.06
0.33
3.06
5.34
7.42
9.38
11.19
12.66
13.64
14.07
14.01
13.68
13.33
13.15
13.18
13.33
13.38
13.18
12.67
11.97
11.27
10.72
10.36
10.1
9.75
9.13
8.12
6.7
4.94
3
1.07
-0.62
-1.93
-2.78
-3.26
-3.54
-3.92
-4.64
-5.86
-7.61
-9.72
-11.87
-13.58
-14.31
-13.59
-11.2
-7.29
-2.36
2.8
7.45
11.06
13.48
14.9
15.71
16.26
16.77
17.26
17.6
17.61
17.14
16.16
14.74
13.03
11.25
9.58
8.19
7.15
6.5
6.07
5.57
4.48
2.25
-1.48
-6.63
-12.52
-18.02
-21.91
-23.37
-22.38
-19.66
-16.39
-13.67
-12.09
-11.59
-11.63
-11.62
-11.2
-10.44
-9.67
-9.26
-9.38
-9.89
-10.4
-10.39
-9.38
-7.08
-3.49
1.08
6.07
10.81
14.71
17.42
18.98
19.75
20.26
20.98
22.16
23.69
25.25
26.37
26.7
26.02
24.37
22.01
19.36
16.89
14.99
13.92
13.65
13.92
14.29
14.29
13.63
12.23
10.26
8.02
5.86
4.06
2.76
1.96
1.53
1.24
0.81
-0.06
-1.52
-3.54
-5.88
-8.13
-9.88
-10.84
-11.01
-10.58
-9.91
-9.39
-9.33
-9.91
-11.12
-12.75
-14.39
-15.48
-15.47
-14.01
-11.14
-7.25
-2.99
1.05
4.56
7.63
10.58
13.8
17.42
21.36
25.28
28.86
31.98
34.71
37.24
39.7
42.01
43.93
45.17
45.56
45.06
43.74
41.62
38.58
34.42
28.97
22.31
14.85
7.26
0.27
-5.57
-10.02
-13.17
-15.36
-17.01
-18.51
-20.06
-21.75
-23.56
-25.45
-27.45
-29.63
-32.08
-34.85
-37.88
-41.05
-44.26
-47.47
-50.63
-53.53
-55.73
-56.53
-55.18
-51.22
-44.74
-36.45
-27.51
-19.11
-12.11
-6.83
-3.09
-0.42
1.61
3.27
4.64
5.71
6.51
7.16
7.83
8.67
9.7
10.83
11.86
12.58
12.88
12.78
12.5
12.26
12.2
12.26
12.22
11.79
10.87
9.58
8.2
6.99
5.96
4.85
3.22
0.71
-2.79
-7.03
-11.57
-15.95
-19.85
-23.17
-26
-28.5
-30.83
-33.1
-35.37
-37.66
-39.85
-41.69
-42.69
-42.23
-39.72
-34.84
-27.73
-19.01
-9.68
-0.77
6.96
13.2
18.07
21.91
25.06
27.72
29.9
31.53
32.59
33.17
33.42
33.53
33.56
33.46
33.04
32.05
30.25
27.5
23.84
19.46
14.71
9.94
5.43
1.32
-2.43
-5.91
-9.22
-12.37
-15.31
-18.03
-20.57
-23.11
-25.83
-28.81
-31.94
-34.94
-37.46
-39.27
-40.37
-40.97
-41.47
-42.22
-43.41
-44.92
-46.37
-47.16
-46.6
-44.2
-39.72
-33.4
-25.86
-18.02
-10.89
-5.29
-1.65
0.18
0.87
1.48
3.09
6.4
11.43
17.43
23.19
27.58
30.01
30.73
30.7
31.11
32.86
36.26
40.91
46.01
50.69
54.17
55.93
55.65
53.37
49.59
45.47
42.57
42.28
44.97
49.48
53.27
53.44
48.03
36.98
22.3
7.14
-5.51
-14
-18.34
-19.79
-19.97
-20.1
-20.72
-21.76
-22.92
-23.8
-23.96
-22.96
-20.35
-15.84
-9.43
-1.59
6.81
14.68
20.99
25.07
26.81
26.64
25.35
23.86
22.85
22.71
23.46
24.85
26.5
28.04
29.1
29.41
28.74
27.02
24.37
21.1
17.68
14.58
12.11
10.33
9.1
8.14
7.21
6.23
5.18
4.12
3.06
1.93
0.64
-0.9
-2.63
-4.43
-6.11
-7.55
-8.69
-9.59
-10.38
-11.18
-12.09
-13.16
-14.36
-15.59
-16.72
-17.56
-18.03
-18.17
-18.16
-18.27
-18.7
-19.49
-20.52
-21.52
-22.26
-22.59
-22.5
-22.06
-21.36
-20.46
-19.4
-18.19
-16.96
-15.88
-15.17
-15.02
-15.49
-16.47
-17.76
-19.13
-20.46
-21.79
-23.25
-25
-27.06
-29.28
-31.4
-33.1
-34.18
-34.6
-34.52
-34.28
-34.32
-35.06
-36.82
-39.66
-43.42
-47.74
-52.17
-56.34
-59.96
-62.83
-64.78
-65.69
-65.51
-64.37
-62.48
-59.97
-56.64
-51.9
-44.95
-35.22
-22.76
-8.42
6.3
19.73
30.61
38.4
43.31
46.07
47.51
48.3
48.8
49.18
49.47
49.74
50.03
50.3
50.43
50.18
49.35
47.9
46.05
44.25
42.94
42.35
42.34
42.4
41.9
40.39
37.76
34.35
30.75
27.55
25.12
23.54
22.67
22.3
22.24
22.41
22.75
23.12
23.34
23.17
22.44
21.07
18.97
15.96
11.86
6.67
0.76
-5.04
-9.61
-11.99
-11.78
-9.44
-6.05
-2.87
-0.86
-0.35
-1.13
-2.74
-4.82
-7.28
-10.2
-13.71
-17.79
-22.24
-26.76
-31.06
-34.99
-38.58
-41.94
-45.22
-48.5
-51.71
-54.72
-57.32
-59.37
-60.79
-61.49
-61.29
-59.83
-56.64
-51.23
-43.45
-33.62
-22.57
-11.44
-1.38
6.76
12.58
16.17
17.93
18.38
18.01
17.19
16.13
14.9
13.41
11.41
8.64
4.91
0.33
-4.62
-9.16
-12.48
-14.09
-13.99
-12.72
-11.09
-9.83
-9.28
-9.28
-9.37
-9.04
-8.02
-6.31
-4.15
-1.81
0.54
2.86
5.21
7.66
10.21
12.78
15.22
17.36
19.08
20.3
20.99
21.12
20.68
19.72
18.29
16.56
14.73
12.97
11.38
9.93
8.53
7.06
5.5
3.9
2.38
0.96
-0.38
-1.74
-3.21
-4.87
-6.77
-8.93
-11.31
-13.75
-15.89
-17.19
-17.09
-15.2
-11.52
-6.43
-0.62
5.16
10.35
14.68
18.19
21.06
23.51
25.66
27.54
29.08
30.25
31.04
31.52
31.78
31.94
32.04
32.08
32
31.73
31.22
30.49
29.62
28.65
27.54
26.07
23.93
20.83
16.66
11.59
5.99
0.29
-5.16
-10.22
-14.9
-19.24
-23.26
-26.9
-30.14
-33
-35.63
-38.22
-40.96
-43.86
-46.71
-48.99
-49.97
-48.92
-45.33
-39.13
-30.76
-21.02
-10.86
-1.09
7.79
15.54
22.08
27.37
31.31
33.81
34.92
34.83
33.9
32.54
31.07
29.71
28.52
27.54
26.78
26.26
25.96
25.79
25.52
24.9
23.77
22.15
20.25
18.44
17.07
16.33
16.21
16.46
16.72
16.68
16.21
15.43
14.64
14.2
14.26
14.76
15.36
15.64
15.22
13.93
11.84
9.18
6.3
3.57
1.34
-0.13
-0.74
-0.61
-0.12
0.22
-0.02
-0.96
-2.36
-3.68
-4.34
-3.93
-2.37
0.13
3.13
6.23
9.09
11.56
13.56
15.09
16.17
16.8
17.02
16.87
16.42
15.79
15.09
14.44
13.9
13.48
13.04
12.45
11.56
10.32
8.82
7.22
5.72
4.4
3.25
2.13
0.87
-0.57
-2.13
-3.64
-4.98
-6.17
-7.38
-8.86
-10.78
-13.08
-15.45
-17.44
-18.59
-18.58
-17.33
-15
-11.93
-8.51
-5.11
-2
0.69
2.96
4.9
6.55
7.88
8.82
9.26
9.23
8.88
8.48
8.27
8.37
8.71
9.07
9.22
9
8.4
7.53
6.52
5.41
4.18
2.75
1.11
-0.68
-2.44
-4
-5.25
-6.2
-7.06
-8.09
-9.54
-11.5
-13.84
-16.26
-18.41
-19.97
-20.83
-21.08
-20.97
-20.85
-20.98
-21.45
-22.09
-22.47
-21.98
-19.98
-16.01
-10.01
-2.39
6.02
14.05
20.52
24.48
25.5
23.7
19.81
14.88
10.03
6.21
4.01
3.65
4.99
7.65
11.07
14.54
17.39
19.08
19.42
18.52
16.79
14.71
12.62
10.61
8.58
6.34
3.77
0.91
-2.06
-4.87
-7.24
-8.94
-9.85
-9.99
-9.5
-8.66
-7.84
-7.36
-7.44
-8.12
-9.25
-10.61
-11.96
-13.17
-14.26
-15.34
-16.54
-17.84
-19.1
-19.99
-20.15
-19.23
-17.07
-13.78
-9.63
-4.95
-0.12
4.51
8.62
11.91
14.17
15.26
15.11
13.87
11.89
9.66
7.72
6.43
5.96
6.26
7
7.71
8.02
7.88
7.51
7.21
7.14
7.26
7.59
7.88
7.77
7.13
6.19
5.36
5
5.15
5.63
6.62
7.79
8.45
8.12
6.96
5.72
5.23
6.03
8.18
12.04
16.85
21
23.29
23.76
23.67
24.64
27.95
34.13
43.84
55.79
66.88
73.62
73.54
65.84
51.26
31.9
4.33
-27.13
-53.59
-68.65
-72.64
-69.79
-64.15
-57.69
-51.11
-44.82
-38.36
-32.26
-27.79
-25.51
-25.53
-26.5
-27.07
-26.72
-25.74
-24.13
-22.51
-21.82
-22.46
-23.88
-24.85
-24.36
-22.03
-18.12
-12.94
-7.45
-3.12
-1.29
-2.54
-6.44
-11.88
-17.48
-21.96
-24.26
-23.88
-20.89
-15.86
-9.37
-1.78
6.83
16.56
27.43
37.83
45.28
47.76
44.76
37.27
27.16
16.53
7.11
-0.1
-5.11
-8.74
-11.57
-13.86
-15.66
-16.8
-17.04
-16.17
-14.26
-11.77
-9.19
-5.97
-2.15
1.96
5.85
9.1
11.31
12.33
11.77
8.87
3.55
-3.45
-11.16
-18.76
-25.54
-31.14
-35.66
-39.59
-43.36
-47
-50.19
-52.39
-53.22
-52.23
-49.21
-44.39
-38.57
-32.89
-28.35
-25.53
-22.76
-18.99
-13.55
-6.37
2.17
11.3
20.11
27.8
34.28
39.73
43.99
46.99
48.83
49.73
50.03
50.16
49.5
48.09
46.03
43.22
39.71
35.62
31.07
26.08
20.61
14.57
8.06
1.06
-6.54
-14.72
-23.22
-31.53
-39.02
-45.06
-49.15
-50.92
-50.29
-47.46
-42.67
-36.16
-28.23
-19.31
-9.97
-0.9
7.41
14.6
20.53
25.25
28.86
31.4
32.78
32.85
31.55
29.07
25.8
22.27
18.99
16.29
14.22
12.61
11.2
9.81
8.43
7.17
6.2
5.58
5.18
4.77
4.14
3.21
2.12
1.1
0.39
0.05
-0.04
-0.19
-0.73
-1.91
-3.85
-6.52
-9.84
-13.59
-17.47
-21.02
-23.67
-24.9
-24.39
-22.19
-18.67
-14.43
-10
-5.72
-1.69
2.21
6.1
10.01
13.79
17.18
19.89
21.79
22.95
23.65
24.26
25.13
26.4
27.96
29.5
30.55
30.65
29.5
26.96
23.16
18.4
13.16
7.97
3.32
-0.39
-2.97
-4.41
-4.92
-4.86
-4.69
-4.9
-5.86
-7.74
-10.44
-13.61
-16.73
-19.3
-20.89
-21.26
-20.38
-18.4
-15.65
-12.56
-9.55
-6.99
-5.01
-3.64
-2.79
-2.4
-2.46
-3.06
-4.21
-5.87
-7.86
-9.93
-11.84
-13.38
-14.42
-14.85
-14.59
-13.62
-12.01
-9.98
-7.84
-5.96
-4.58
-3.8
-3.56
-3.73
-4.13
-4.67
-5.29
-5.93
-6.5
-6.99
-7.4
-7.85
-8.48
-9.31
-10.22
-10.97
-11.38
-11.51
-11.74
-12.65
-14.7
-18
-22.15
-26.37
-29.74
-31.47
-31.15
-28.64
-24.07
-17.7
-9.88
-1.05
8.19
17.06
24.75
30.53
33.97
35.14
34.52
32.95
31.32
30.29
30.15
30.79
31.81
32.69
32.97
32.36
30.79
28.42
25.52
22.46
19.51
16.8
14.35
12.06
9.97
8.18
6.88
6.15
5.86
5.64
5
3.53
1.11
-2.07
-5.68
-9.41
-13.05
-16.47
-19.47
-21.74
-22.86
-22.64
-21.22
-19.18
-17.34
-16.37
-16.51
-17.52
-18.87
-20.06
-20.89
-21.5
-22.18
-23.1
-24.15
-24.93
-24.95
-23.9
-21.74
-18.77
-15.4
-11.99
-8.75
-5.7
-2.77
0.1
2.88
5.43
7.55
9.06
9.85
9.96
9.58
8.94
8.27
7.7
7.17
6.52
5.5
3.98
1.95
-0.47
-3.12
-5.88
-8.76
-11.8
-14.89
-17.71
-19.78
-20.53
-19.61
-17.05
-13.29
-9.05
-5.05
-1.67
1.04
3.34
5.52
7.72
9.84
11.6
12.63
12.72
11.95
10.56
8.86
7.1
5.42
3.89
2.49
0.99
-0.73
-2.57
-4.34
-5.98
-7.54
-9.14
-10.9
-12.91
-15.53
-18.74
-22.04
-24.78
-26.61
-27.56
-27.94
-28.12
-28.49
-29.82
-32.21
-34.95
-37.08
-38.09
-37.98
-37.05
-35.71
-34.38
-34.15
-35.39
-37.38
-38.84
-38.62
-35.71
-29.11
-17.87
2.82
32.07
63.3
88.69
103.95
108.48
103.89
93.01
78.99
64.63
51.09
39.04
29.1
21.72
16.81
13.85
12.23
11.29
10.28
8.01
4.12
-0.98
-5.9
-9.58
-11.6
-11.96
-11.03
-9.35
-7.78
-6.68
-5.79
-4.63
-2.71
-0.57
1.16
1.97
1.64
0.05
-2.5
-5.31
-7.56
-8.53
-7.84
-5.28
-1.07
4.14
9.32
13.64
16.74
18.8
20.28
21.52
22.67
23.53
23.94
23.58
22.51
21.01
19.43
17.95
16.45
14.73
12.55
9.89
6.92
4.06
1.72
0.2
-0.48
-0.67
-0.82
-1.36
-2.42
-3.82
-5.07
-5.68
-5.32
-3.99
-2.06
-0.03
1.61
2.5
2.52
1.72
0.23
-1.91
-4.31
-6.75
-9.04
-10.96
-12.32
-12.96
-12.8
-11.93
-10.62
-9.2
-8.09
-7.57
-7.75
-8.56
-9.73
-10.84
-11.29
-10.42
-7.68
-2.91
3.53
10.82
17.88
23.77
27.99
30.56
31.91
32.5
32.56
32.04
30.71
28.43
25.33
21.82
18.48
15.78
13.9
12.74
11.99
11.32
10.56
9.72
8.88
8.14
7.47
6.78
5.88
4.63
3
1.09
-0.92
-2.83
-4.59
-6.27
-8.09
-10.28
-12.99
-16.17
-19.6
-22.98
-26.09
-28.83
-31.3
-33.69
-36.25
-39.13
-42.35
-45.67
-48.55
-50.23
-49.91
-47.08
-41.71
-34.43
-26.25
-18.32
-11.46
-6.01
-1.8
1.55
4.43
7.06
9.46
11.56
13.31
14.71
15.83
16.7
17.34
17.73
17.92
17.98
18.03
18.13
18.28
18.41
18.37
18.05
17.4
16.43
15.25
14.05
12.99
12.15
11.48
10.74
9.52
7.42
4.16
-0.25
-5.52
-11.13
-16.61
-21.61
-26.09
-30.18
-34.08
-37.82
-41.17
-43.59
-44.36
-42.85
-38.75
-32.23
-23.99
-15.02
-6.34
1.33
7.68
12.79
16.96
20.46
23.41
25.73
27.32
28.07
28.02
27.34
26.21
24.78
23.12
21.18
18.86
16.05
12.62
8.5
3.61
-2.09
-8.55
-15.62
-23.03
-30.41
-37.39
-43.65
-48.96
-53.17
-56.14
-57.68
-57.61
-55.84
-52.51
-47.98
-42.76
-37.42
-32.44
-28.23
-25.12
-23.27
-22.52
-22.21
-21.21
-18.17
-12.03
-2.52
9.56
22.47
33.91
41.68
44.17
40.76
32.01
19.55
5.86
-6.28
-14.38
-16.9
-13.64
-5.75
4.73
15.51
24.65
31.04
34.47
35.48
35.01
34.01
33.2
32.9
33.04
33.25
33.08
32.16
30.3
27.6
24.37
21.07
18.15
15.92
14.5
13.73
13.28
12.69
11.55
9.64
6.98
3.81
0.53
-2.48
-5
-7
-8.67
-10.26
-12.02
-14.12
-16.53
-19.06
-21.36
-22.97
-23.44
-22.48
-20.01
-16.3
-11.91
-7.46
-3.54
-0.45
1.8
3.44
4.72
5.86
6.92
7.83
8.5
8.88
8.98
8.91
8.82
8.88
9.25
10.01
11.16
12.59
14.1
15.45
16.44
16.97
17.07
16.92
16.88
17.4
18.92
21.65
25.34
29.22
32.14
32.91
30.8
25.75
18.4
9.83
1.13
-6.91
-13.89
-19.67
-24.11
-26.92
-27.73
-26.28
-22.73
-17.67
-12.05
-6.82
-2.64
0.29
2.2
3.56
4.82
6.17
7.54
8.68
9.39
9.56
9.27
8.76
8.42
8.52
9.15
10.1
10.97
11.4
11.17
10.3
9.05
8
7.7
8.31
9.63
11.18
12.47
13.04
12.56
10.92
8.7
6.57
4.83
3.37
1.79
-0.33
-3.33
-7.45
-12.76
-18.39
-23.51
-27.72
-31.05
-33.38
-34.24
-32.91
-28.95
-22.46
-13.11
-1.24
11.98
24.98
36.67
46.89
56.2
65.3
69.6
66.52
57.2
45.48
34.36
24.59
15.6
6.52
-2.63
-13.1
-24.34
-35.16
-44.51
-51.79
-56.74
-59.5
-59.27
-56.36
-51.81
-45.95
-39.18
-32.22
-26.06
-21.55
-19.09
-18.57
-19.62
-21.62
-23.25
-23.49
-22.2
-20.05
-18.04
-17.01
-17.3
-18.79
-20.96
-22.71
-23.13
-21.85
-19.09
-15.37
-11.2
-6.91
-2.74
1.2
4.95
8.52
11.79
14.61
16.93
18.77
20.31
21.61
22.67
23.39
23.57
23.02
21.65
19.56
17.01
14.34
11.88
9.85
8.33
7.24
6.46
5.84
5.29
4.75
4.18
3.57
2.87
2.06
1.14
0.11
-1.02
-2.28
-3.66
-5.14
-6.66
-8.17
-9.62
-11.06
-12.54
-14.08
-15.5
-16.44
-16.44
-15.15
-12.54
-8.96
-4.95
-1.09
2.28
5.11
7.54
9.77
11.87
13.74
15.21
16.15
16.56
16.58
16.44
16.29
16.26
16.29
16.3
16.16
15.82
15.3
14.66
14.02
13.41
12.8
12.11
11.25
10.19
9.01
7.82
6.77
5.89
5.12
4.29
3.24
1.89
0.26
-1.45
-3.01
-4.23
-5.05
-5.6
-6.13
-6.92
-8.15
-9.84
-11.81
-13.76
-15.29
-16.04
-15.75
-14.33
-11.91
-8.8
-5.39
-2.05
0.96
3.57
5.81
7.74
9.41
10.76
11.76
12.41
12.8
13.05
13.28
13.53
13.76
13.91
13.93
13.8
13.57
13.32
13.09
12.91
12.78
12.69
12.65
12.69
12.79
12.93
13.08
13.2
13.29
13.33
13.3
13.17
12.93
12.57
12.13
11.69
11.35
11.17
11.12
11.06
10.83
10.24
9.16
7.62
5.79
4
2.7
2.33
3.22
5.48
8.88
13.02
17.37
21.48
25.07
28
30.21
31.59
32.02
31.37
29.62
26.96
23.75
20.45
17.45
14.98
13.1
11.68
10.54
9.47
8.31
6.94
5.24
3.13
0.55
-2.47
-5.84
-9.38
-12.9
-16.22
-19.26
-22.05
-24.69
-27.37
-30.19
-33.22
-36.36
-39.38
-41.99
-43.92
-44.95
-45.06
-44.39
-43.26
-42.06
-41.24
-41.1
-41.73
-42.91
-44.09
-44.5
-43.35
-40.11
-34.7
-27.55
-19.47
-11.48
-4.43
1.13
5.04
7.45
8.69
9.09
8.91
8.28
7.3
6.04
4.65
3.28
2.03
0.96
0.02
-0.84
-1.69
-2.55
-3.41
-4.26
-5.12
-6.01
-6.95
-7.94
-8.94
-9.93
-10.88
-11.82
-12.76
-13.72
-14.66
-15.55
-16.32
-16.93
-17.33
-17.54
-17.58
-17.53
-17.47
-17.54
-17.85
-18.51
-19.52
-20.71
-21.77
-22.22
-21.59
-19.54
-16.07
-11.51
-6.49
-1.69
2.34
5.37
7.48
8.94
10.08
11.08
11.99
12.72
13.18
13.32
13.24
13.06
12.95
12.95
13.01
12.95
12.57
11.77
10.64
9.44
8.5
8.09
8.26
8.84
9.52
9.96
9.88
9.09
7.55
5.31
2.62
-0.05
-1.98
-2.45
-1.03
2.08
5.99
9.37
11.01
10.37
7.82
4.51
1.84
0.92
2.22
5.5
10.15
15.39
20.55
25.1
28.61
30.82
31.62
31.18
29.86
28.08
26.12
24
21.55
18.47
14.61
10
4.86
-0.47
-5.61
-10.19
-13.84
-16.26
-17.33
-17.17
-16.11
-14.58
-12.89
-11.12
-9.17
-6.85
-4.16
-1.35
1.11
2.74
3.2
2.4
0.46
-2.43
-6.02
-10.05
-14.2
-18.11
-21.43
-23.93
-25.6
-26.65
-27.46
-28.37
-29.64
-31.26
-32.89
-33.96
-33.73
-31.53
-27.06
-20.57
-12.84
-4.91
2.23
8.04
12.47
15.88
18.64
20.9
22.52
23.22
22.82
21.47
19.61
17.77
16.39
15.67
15.56
15.89
16.43
17.08
17.81
18.66
19.69
20.92
22.25
23.56
24.68
25.52
26.03
26.19
25.9
24.95
23.08
20.08
16
11.14
6.06
1.3
-2.86
-6.45
-9.79
-13.24
-16.98
-20.91
-24.67
-27.82
-29.95
-30.75
-30.02
-27.64
-23.73
-18.69
-13.26
-8.38
-4.92
-3.41
-3.86
-5.84
-8.73
-11.97
-15.23
-18.44
-21.66
-24.9
-28.1
-31.09
-33.64
-35.6
-36.85
-37.38
-37.26
-36.63
-35.66
-34.53
-33.36
-32.18
-30.95
-29.64
-28.19
-26.64
-25.01
-23.38
-21.78
-20.26
-18.81
-17.45
-16.24
-15.24
-14.53
-14.12
-13.94
-13.86
-13.75
-13.6
-13.51
-13.63
-14.04
-14.58
-14.83
-14.23
-12.34
-9.02
-4.52
0.57
5.58
10.02
13.66
16.54
18.82
20.67
22.13
23.17
23.76
23.92
23.78
23.51
23.25
23.08
22.99
22.92
22.8
22.55
22.15
21.58
20.82
19.89
18.84
17.76
16.7
15.71
14.71
13.59
12.21
10.55
8.67
6.76
5.04
3.61
2.45
1.36
0.09
-1.56
-3.63
-5.98
-8.28
-10.15
-11.23
-11.28
-10.2
-8.07
-5.08
-1.53
2.23
5.84
9.04
11.65
13.63
15.07
16.03
16.52
16.39
15.47
13.64
11
7.89
4.79
2.16
0.23
-0.97
-1.67
-2.1
-2.43
-2.75
-3.08
-3.48
-4.07
-5
-6.33
-7.97
-9.63
-10.94
-11.57
-11.37
-10.44
-9.13
-7.87
-7.01
-6.65
-6.66
-6.69
-6.34
-5.18
-2.82
1.02
6.45
13.23
20.64
27.55
32.65
34.96
34.19
30.96
26.54
22.37
19.56
18.58
19.27
21.13
23.54
26.02
28.14
29.53
29.86
28.9
26.7
23.59
20.17
17.09
14.76
13.15
11.69
9.55
5.92
0.45
-6.56
-14.11
-20.86
-25.58
-27.54
-26.8
-24
-20.11
-16.03
-12.3
-9.09
-6.32
-3.83
-1.56
0.39
1.82
2.47
2.12
0.67
-1.85
-5.24
-9.02
-12.53
-14.98
-15.68
-14.29
-10.94
-6.24
-1.12
3.59
7.35
10.1
12.09
13.66
14.92
15.75
15.88
15.13
13.56
11.49
9.3
7.27
5.49
3.93
2.56
1.49
0.9
0.95
1.6
2.54
3.31
3.49
2.86
1.48
-0.39
-2.41
-4.36
-6.2
-8.07
-10.11
-12.39
-14.73
-16.77
-18.07
-18.29
-17.41
-15.74
-13.91
-12.67
-12.67
-14.17
-16.93
-20.17
-22.8
-23.7
-22.14
-18.03
-11.95
-5.03
1.57
6.97
10.76
12.99
13.89
13.72
12.67
11.01
9.13
7.61
7.05
7.87
10.17
13.69
17.92
22.29
26.24
29.33
31.29
32
31.55
30.28
28.64
27.15
26.14
25.71
25.7
25.77
25.66
25.25
24.66
24.17
24.07
24.5
25.35
26.24
26.63
25.96
23.8
19.99
14.67
8.28
1.47
-5.08
-10.82
-15.42
-18.81
-21.06
-22.29
-22.61
-22.06
-20.72
-18.69
-16.12
-13.17
-9.9
-6.36
-2.58
1.34
5.14
8.46
10.93
12.28
12.44
11.6
10.17
8.62
7.37
6.61
6.24
5.98
5.48
4.51
3.03
1.2
-0.74
-2.58
-4.28
-5.88
-7.5
-9.21
-11.02
-12.85
-14.62
-16.25
-17.67
-18.75
-19.32
-19.15
-18.06
-16.03
-13.22
-10
-6.81
-4.01
-1.82
-0.21
0.99
2.01
3.01
4.05
5.03
5.8
6.19
6.15
5.74
5.1
4.39
3.73
3.15
2.63
2.12
1.57
0.97
0.29
-0.47
-1.34
-2.32
-3.42
-4.59
-5.78
-6.95
-8.02
-8.92
-9.54
-9.82
-9.76
-9.47
-9.14
-8.94
-9.03
-9.51
-10.37
-11.53
-12.85
-14.06
-14.83
-14.81
-13.76
-11.63
-8.67
-5.31
-2.06
0.71
2.88
4.64
6.36
8.36
10.78
13.44
15.94
17.85
18.88
19
18.45
17.57
16.71
16.09
15.77
15.69
15.71
15.68
15.41
14.72
13.42
11.39
8.66
5.4
1.86
-1.68
-5.08
-8.31
-11.49
-14.71
-18.01
-21.26
-24.28
-26.86
-28.89
-30.38
-31.44
-32.21
-32.85
-33.49
-34.23
-35.06
-35.74
-35.89
-35.02
-32.73
-28.94
-23.96
-18.36
-12.79
-7.74
-3.43
0.18
3.22
5.77
7.86
9.42
10.43
10.89
10.89
10.58
10.08
9.49
8.88
8.26
7.57
6.77
5.86
4.91
4.06
3.44
3.13
3.11
3.24
3.38
3.37
3.1
2.53
1.67
0.54
-0.74
-2.05
-3.24
-4.21
-4.98
-5.68
-6.51
-7.67
-9.28
-11.29
-13.48
-15.47
-16.86
-17.27
-16.54
-14.71
-12.07
-9.03
-6
-3.23
-0.81
1.28
3.13
4.74
6.05
6.96
7.41
7.48
7.32
7.12
7.03
7.03
7.03
6.86
6.45
5.82
5.11
4.48
4.02
3.73
3.51
3.21
2.68
1.86
0.77
-0.49
-1.76
-2.89
-3.77
-4.43
-4.95
-5.49
-6.2
-7.21
-8.58
-10.31
-12.28
-14.26
-15.9
-16.82
-16.7
-15.45
-13.26
-10.52
-7.69
-5.1
-2.86
-0.89
0.99
2.9
4.9
6.95
8.99
10.95
12.73
14.25
15.39
16.02
16.07
15.51
14.45
13.06
11.58
10.27
9.26
8.54
7.97
7.37
6.59
5.62
4.57
3.52
2.51
1.46
0.26
-1.15
-2.69
-4.2
-5.52
-6.58
-7.46
-8.33
-9.34
-10.55
-11.88
-13.12
-14.01
-14.3
-13.83
-12.57
-10.63
-8.21
-5.58
-2.97
-0.55
1.64
3.59
5.33
6.88
8.21
9.27
10.02
10.44
10.54
10.38
10.03
9.59
9.11
8.66
8.25
7.89
7.61
7.47
7.53
7.83
8.3
8.78
9.03
8.85
8.18
7.06
5.67
4.2
2.8
1.55
0.46
-0.43
-1.1
-1.53
-1.8
-2.11
-2.7
-3.77
-5.37
-7.28
-9.05
-10.17
-10.24
-9.13
-7.02
-4.38
-1.75
0.41
1.92
2.87
3.55
4.28
5.28
6.57
7.95
9.15
9.92
10.17
10.01
9.66
9.36
9.24
9.3
9.41
9.41
9.19
8.74
8.13
7.46
6.81
6.2
5.58
4.85
3.96
2.93
1.81
0.72
-0.27
-1.13
-1.89
-2.62
-3.42
-4.38
-5.51
-6.84
-8.33
-9.91
-11.51
-12.97
-14.09
-14.67
-14.55
-13.72
-12.31
-10.57
-8.77
-7.11
-5.63
-4.26
-2.92
-1.61
-0.42
0.48
0.97
1.07
0.9
0.65
0.45
0.3
0.11
-0.21
-0.74
-1.46
-2.28
-3.09
-3.76
-4.21
-4.41
-4.36
-4.18
-4.02
-4.05
-4.42
-5.2
-6.33
-7.66
-8.94
-9.94
-10.52
-10.68
-10.62
-10.66
-11.07
-11.87
-12.81
-13.46
-13.37
-12.35
-10.48
-8.06
-5.46
-2.91
-0.36
2.36
5.42
8.82
12.51
16.35
20.16
23.8
27.13
30.23
33.22
36.11
38.77
41.06
42.81
43.79
43.73
42.42
40.26
37.75
35.26
32.87
30.5
27.95
24.98
21.35
16.95
12.67
9.5
8.04
8.29
9.9
12.37
15.14
17.72
19.7
21.74
24.43
27.82
31.54
35.47
40.11
46.41
55.29
60.87
58.81
48.21
31.83
13.27
-4.85
-21.1
-34.8
-45.96
-55.23
-62.57
-67.89
-71.25
-73.42
-74.57
-74.74
-74.05
-72.73
-71.23
-69.34
-66.75
-63.4
-59.47
-55.15
-50.64
-46.19
-41.4
-35.87
-29.66
-23.52
-18.54
-15.34
-13.65
-12.17
-9.7
-5.45
0.67
8.38
17.2
25.59
32.27
36.36
37.48
35.79
31.92
26.75
21.33
16.7
13.59
12.34
12.71
14.03
15.39
16.18
16.19
15.72
15.48
16.2
18.47
22.44
27.84
34.09
40.6
46.78
52.05
55.79
57.24
55.76
51
43.19
33.2
22.33
11.83
2.36
-6.2
-14.57
-23.45
-32.96
-42.41
-50.48
-55.86
-57.8
-56.47
-52.84
-48.18
-43.56
-39.48
-35.83
-32.22
-28.28
-23.94
-19.38
-14.97
-11.05
-7.75
-4.95
-2.41
-0.1
1.75
2.85
3.04
2.49
1.54
0.71
0.54
1.33
2.8
4.31
5.26
5.31
4.6
3.23
1.51
0
-0.66
-0.29
0.95
2.72
4.72
6.86
8.58
9.56
9.73
9.21
7.57
4.12
-1.6
-9.49
-18.71
-28.8
-39.2
-49.23
-55.43
-54.74
-46.97
-35.06
-24.53
-15.49
-7.4
0.33
8.46
17.04
25.55
33.24
39.58
44.44
48.15
50.44
51.15
50.45
48.71
46.11
42.66
38.46
33.79
29.29
25.01
20.98
17.22
13.73
10.29
6.68
2.92
-0.6
-3.22
-4.69
-5.05
-4.61
-3.82
-3.25
-3.32
-4.16
-5.6
-7.25
-8.88
-10.36
-11.62
-12.68
-13.61
-14.5
-15.31
-15.9
-15.97
-15.34
-13.98
-12.13
-10.16
-8.5
-7.47
-7.2
-7.6
-8.43
-9.37
-10.07
-10.21
-9.52
-7.86
-5.29
-2.04
1.49
4.87
7.7
9.7
10.69
10.73
10.08
9.21
8.65
8.77
9.64
11.05
12.63
14.12
15.49
16.87
18.38
19.92
21.16
21.66
21.02
18.85
14.68
7.94
-1.83
-14.51
-29.02
-43.28
-54.74
-61.2
-61.63
-56.34
-46.76
-34.77
-22.12
-10.25
-0.19
7.29
11.82
13.55
13.18
11.67
9.81
7.83
5.41
1.92
-3.1
-9.54
-16.6
-23.07
-27.69
-29.49
-28.02
-23.4
-16.32
-7.95
0.28
6.99
11.23
12.68
11.62
8.83
5.24
1.64
-1.47
-3.92
-5.65
-6.64
-6.95
-6.84
-6.72
-6.96
-7.76
-8.98
-10.19
-10.64
-9.64
-7.02
-3.46
-0.15
1.72
1.35
-1.29
-5.59
-10.26
-13.77
-15.12
-14.31
-11.99
-9.06
-6.31
-4.2
-2.96
-2.28
-1.46
0.1
2.61
6.27
11.37
18.04
26.91
36.05
42.06
42.67
38.94
32.56
24.79
16.17
7
-2.4
-11.84
-20.81
-28.36
-33.52
-35.86
-35.45
-33.08
-30.04
-27.67
-26.84
-27.59
-28.9
-29.16
-26.92
-21.31
-12.66
-2.3
8.15
17.43
24.9
30.76
35.84
40.86
46.04
50.33
51.88
49.04
41.21
28.68
12.84
-4.16
-20.16
-31.01
-33.63
-28.44
-19.68
-9.46
1.33
12.39
22.91
31.79
38.26
41.71
42.16
40.51
38.43
37.01
36.6
36.73
36.56
35.26
31.98
26.4
19.02
11.19
4.13
-1.23
-4.42
-5.38
-4.47
-2.56
-0.68
0.42
0.65
0.14
-0.68
-1.34
-1.36
-0.53
1
2.76
4.34
5.49
6.11
6.2
5.89
5.29
4.51
3.55
2.39
1.07
-0.24
-1.42
-2.4
-3.24
-4.05
-4.93
-5.93
-7.04
-8.22
-9.42
-10.6
-11.7
-12.69
-13.5
-14.1
-14.46
-14.58
-14.51
-14.31
-14.16
-14.26
-14.79
-15.76
-16.89
-17.63
-17.32
-15.47
-12
-7.32
-2.2
2.51
6.23
8.75
10.24
11.02
11.42
11.6
11.61
11.46
11.15
10.81
10.56
10.49
10.62
10.87
11.09
11.15
10.92
10.33
9.31
7.78
5.68
2.95
-0.39
-4.24
-8.45
-12.78
-17.01
-20.9
-24.27
-27
-29.05
-30.44
-31.23
-31.51
-31.37
-30.87
-30.03
-28.85
-27.35
-25.62
-23.81
-22.18
-21.04
-20.64
-21.09
-22.21
-23.56
-24.49
-24.34
-22.68
-19.46
-15.01
-9.92
-4.87
-0.37
3.27
6.02
8.04
9.52
10.63
11.45
11.98
12.22
12.2
11.99
11.73
11.52
11.41
11.35
11.22
10.89
10.28
9.42
8.39
7.33
6.38
5.55
4.81
4.04
3.11
1.95
0.55
-1.02
-2.63
-4.16
-5.56
-6.85
-8.14
-9.54
-11.12
-12.89
-14.77
-16.65
-18.42
-20.04
-21.59
-23.23
-25.16
-27.55
-30.39
-33.44
-36.24
-38.2
-38.79
-37.73
-35.07
-31.23
-26.76
-22.23
-18
-14.12
-10.43
-6.62
-2.47
2.07
6.75
11.19
14.99
17.94
20.04
21.46
22.45
23.16
23.69
24.06
24.33
24.65
25.14
25.77
26.34
26.46
25.76
24.02
21.38
18.22
15.07
12.33
10.19
8.53
7.07
5.49
3.61
1.41
-0.94
-3.18
-5.04
-6.3
-6.89
-6.85
-6.39
-5.85
-5.69
-6.36
-8.15
-11.09
-14.78
-18.43
-21.02
-21.62
-19.75
-15.68
-10.38
-5.31
-1.82
-0.62
-1.57
-3.73
-5.83
-6.77
-5.96
-3.42
0.46
5.17
10.29
15.52
20.54
24.93
28.21
29.96
30.07
28.84
26.92
25.15
24.17
24.24
25.11
26.14
26.6
25.96
24.11
21.43
18.66
16.7
16.3
17.79
20.9
24.76
28.07
29.57
28.38
24.38
18.24
11.23
4.77
-0.03
-2.74
-3.57
-3.21
-2.49
-2.14
-2.54
-3.82
-5.85
-8.32
-10.75
-12.54
-13.04
-11.69
-8.3
-3.08
3.4
10.37
17.18
23.4
28.9
33.73
38.01
41.8
45.06
47.72
49.68
50.83
51.11
50.51
49.15
47.31
45.37
43.7
42.47
41.62
40.86
39.87
38.43
36.56
34.48
32.41
30.43
28.36
25.88
22.68
18.6
13.69
8.14
2.13
-4.24
-10.88
-17.72
-24.5
-30.83
-36.22
-40.2
-42.54
-43.34
-43.06
-42.38
-41.97
-42.3
-43.39
-44.89
-46.14
-46.43
-45.12
-41.83
-36.47
-29.35
-21.08
-12.61
-4.97
0.9
4.49
5.86
5.67
4.92
4.62
5.32
7.03
9.2
11.04
11.9
11.56
10.25
8.46
6.66
5.08
3.63
2.09
0.29
-1.79
-4.06
-6.47
-9.12
-12.2
-15.83
-19.88
-23.9
-27.24
-29.32
-29.87
-29.11
-27.69
-26.47
-26.26
-27.61
-30.6
-34.91
-39.92
-44.94
-49.43
-53.08
-55.82
-57.75
-59.03
-59.79
-60.15
-60.19
-59.92
-59.22
-57.66
-54.53
-49.01
-40.55
-29.21
-15.9
-2.18
10.2
19.93
26.52
30.33
32.21
33.01
33.13
32.49
30.78
27.82
23.75
19.08
14.43
10.25
6.66
3.49
0.46
-2.59
-5.64
-8.46
-10.76
-12.35
-13.22
-13.52
-13.5
-13.45
-13.58
-14.02
-14.73
-15.58
-16.32
-16.74
-16.7
-16.22
-15.5
-14.75
-14.2
-13.88
-13.65
-13.17
-11.99
-9.66
-5.87
-0.53
6.08
13.32
20.18
25.48
28.23
27.85
24.47
18.86
12.26
5.98
1.05
-1.91
-2.73
-1.53
1.37
5.53
10.36
15.16
19.21
21.98
23.27
23.27
22.45
21.36
20.4
19.73
19.24
18.69
17.9
16.83
15.63
14.57
13.87
13.61
13.64
13.65
13.36
12.63
11.54
10.33
9.22
8.28
7.5
6.75
5.96
5.14
4.35
3.64
2.97
2.2
1.16
-0.26
-2.1
-4.3
-6.74
-9.31
-11.88
-14.32
-16.45
-18.01
-18.73
-18.37
-16.88
-14.38
-11.25
-7.92
-4.8
-2.07
0.26
2.29
4.11
5.71
7
7.88
8.34
8.52
8.66
8.97
9.49
10.06
10.39
10.24
9.57
8.62
7.85
7.77
8.75
10.82
13.72
16.97
20.02
22.39
23.87
24.47
24.43
24.15
24.02
24.26
24.89
25.71
26.42
26.8
26.77
26.38
25.74
24.9
23.75
22.11
19.76
16.64
12.86
8.69
4.54
0.89
-1.83
-3.25
-3.11
-1.29
2.13
6.84
12.32
17.85
22.68
26.21
28.09
28.26
26.85
24.06
19.96
14.56
7.91
0.3
-7.69
-15.29
-21.74
-26.58
-29.71
-31.4
-32.07
-32.2
-32.19
-32.37
-33
-34.26
-36.26
-38.89
-41.92
-45.02
-47.93
-50.4
-52.29
-53.49
-53.91
-53.45
-51.86
-48.91
-44.57
-39.09
-32.91
-26.59
-20.73
-15.91
-12.57
-10.64
-9.7
-9.12
-8.15
-6.1
-2.66
1.82
6.29
9.32
10.23
9.14
6.84
4.45
3.03
3.26
5.2
8.39
12.17
16.69
22.32
29.2
36.96
44.94
52.69
60.26
68.23
73.7
74.57
70.86
64.42
56.61
47.3
35.97
22.79
8.77
-4.69
-15.72
-23.17
-27.31
-29.02
-29.54
-29.89
-30.63
-31.99
-33.9
-35.7
-36.7
-36.84
-36.09
-35.37
-35.94
-38.79
-44.24
-51.75
-59.38
-64.51
-64.65
-58.33
-45.76
-28.6
-9.1
10.11
26.48
38.22
44.56
45.6
41.98
34.47
24.09
12.75
2.53
-4.87
-8.29
-7.25
-2.08
6.05
15.28
23.99
32.02
40.01
48.65
58.24
68.73
79.69
90.48
100.2
102.64
94.02
75.33
51.62
27.99
7.34
-9.44
-22.04
-32.09
-40.51
-46.88
-50.77
-52.33
-52.48
-51.53
-50.08
-48.65
-47.74
-47.38
-46.72
-44.92
-41.75
-37.79
-34.01
-31.49
-30.91
-32.47
-35.58
-38.78
-40.53
-39.7
-35.8
-28.87
-19.49
-8.64
2.35
12.2
20.07
25.59
28.83
30.26
30.59
30.35
29.74
28.69
27.13
25.26
23.45
22.09
21.41
21.51
22.05
22.39
21.9
20.35
18.04
15.61
13.86
13.49
15.06
18.42
22.65
26.48
28.85
29.27
27.82
24.99
21.61
18.71
16.9
16.13
15.89
15.45
13.84
9.73
1.68
-12.27
-30.99
-49.99
-63.94
-69.8
-67.47
-58.83
-46.5
-32.93
-19.61
-7.05
4.43
14.21
21.48
25.82
27.4
27.47
26.66
25.77
25.54
26.16
27.2
27.99
28.15
27.61
26.34
24.16
20.87
16.42
10.79
3.99
-3.86
-12.17
-19.83
-25.77
-29.38
-30.39
-28.96
-25.66
-21.39
-17.16
-13.73
-11.53
-10.62
-10.76
-11.34
-11.55
-10.63
-8.14
-4.14
0.63
4.75
6.44
4.2
-2.54
-13.06
-25.62
-38.05
-48.46
-55.72
-59.55
-60.24
-58.27
-54.09
-48.14
-40.99
-33.28
-25.34
-17.04
-7.82
2.75
14.42
26.02
35.76
41.97
43.88
42.12
38.26
34.06
30.74
28.76
28.28
29.64
33.49
39.34
45.78
50.4
50.99
46.59
37.76
26.41
14.87
5.06
-2.24
-7.17
-10.56
-13.09
-15.01
-16.66
-17.76
-18.31
-18.61
-19.03
-19.65
-20.43
-20.99
-20.95
-20.19
-18.84
-17.38
-16.41
-16.56
-16.92
-17.2
-17.28
-17.18
-16.83
-15.94
-14.21
-11.49
-7.97
-4.05
-0.39
2.61
4.9
6.68
8.28
9.94
11.78
13.75
15.73
17.33
18.43
18.66
17.78
15.68
12.5
8.62
4.53
0.7
-2.68
-5.44
-7.57
-9.07
-10.04
-10.53
-10.59
-10.25
-9.64
-8.88
-7.94
-6.66
-4.7
-1.95
1.56
5.72
10.35
15.37
20.01
23.82
26.81
29.32
31.3
32.27
31.62
29.05
24.8
19.56
14.17
9.13
4.43
-0.36
-5.48
-10.84
-16
-20.39
-23.87
-26.18
-27.26
-27.25
-26.47
-25.16
-23.52
-21.78
-20.19
-18.89
-17.87
-16.92
-15.18
-12.41
-8.43
-3.39
2.22
8.02
13.64
18.77
23.25
27.04
30.13
32.56
34.34
35.48
35.09
32.84
28.72
23.05
16.39
9.4
2.86
-2.68
-6.96
-10.15
-12.6
-14.79
-16.99
-19.09
-20.66
-21.01
-19.61
-16.26
-11.17
-4.8
2.2
9.12
15.34
20.26
23.42
24.44
23.21
19.94
15.29
10.12
5.33
1.57
-0.92
-2.28
-2.85
-2.93
-2.71
-2.19
-1.33
-0.18
1.1
2.25
3.05
3.37
3.23
2.68
1.84
0.87
-0.06
-0.8
-1.28
-1.55
-1.72
-1.86
-1.97
-1.9
-1.49
-0.73
0.18
0.73
0.23
-1.94
-6.14
-12.19
-19.32
-26.21
-31.3
-33.43
-32.26
-28.54
-23.8
-19.78
-17.74
-18.05
-20.05
-22.44
-24
-24.1
-22.81
-20.58
-17.97
-15.37
-13.03
-10.77
-8.26
-5.3
-2.06
1.16
4.11
6.71
8.96
10.62
11.6
11.83
10.97
8.43
3.81
-2.71
-10.35
-18.06
-25.06
-30.52
-33.57
-33.69
-30.63
-24.05
-13.55
0.78
19.35
38.15
51.15
55.12
51.61
44.79
38.53
34.72
32.95
31.29
27.59
21.22
13.33
5.77
-0.09
-3.79
-5.64
-6.37
-7.11
-8.32
-9.85
-11.13
-11.7
-11.58
-11.02
-10.24
-9.36
-8.35
-7.18
-5.75
-3.93
-1.83
0.01
0.86
0.26
-1.99
-5.55
-9.65
-13.34
-15.71
-16.19
-14.72
-11.59
-7.33
-2.59
1.99
5.89
8.84
10.88
12.3
13.46
14.57
15.69
16.81
17.55
17.57
16.7
14.95
12.48
9.55
6.53
3.79
1.7
0.45
0.08
0.37
0.96
1.47
1.61
1.3
0.65
-0.15
-0.85
-1.23
-1.14
-0.49
0.73
2.33
4.01
5.37
6.05
5.82
4.68
2.83
0.64
-1.52
-3.33
-4.62
-5.35
-5.64
-5.65
-5.48
-5.21
-4.87
-4.52
-4.26
-4.19
-4.39
-4.86
-5.51
-6.16
-6.64
-6.81
-6.57
-5.91
-4.84
-3.45
-1.9
-0.4
0.77
1.38
1.26
0.35
-1.22
-3.08
-4.65
-5.27
-4.44
-2.01
1.71
6.11
10.57
14.69
18.48
22.19
26.12
30.29
34.42
37.97
40.42
41.46
41.07
39.46
36.97
33.91
30.54
27.06
23.64
20.42
17.51
14.96
12.77
10.8
8.86
6.75
4.27
1.39
-1.85
-5.28
-8.72
-12.06
-15.3
-18.56
-21.99
-25.7
-29.6
-33.46
-36.97
-39.8
-41.74
-42.77
-42.98
-42.6
-41.83
-40.85
-39.77
-38.63
-37.4
-35.96
-34.1
-31.6
-28.25
-23.95
-18.76
-12.95
-6.93
-1.14
4.07
8.43
11.81
14.15
15.41
15.57
14.65
12.83
10.38
7.69
5.11
2.88
1.06
-0.4
-1.57
-2.45
-2.93
-2.85
-2.08
-0.58
1.56
4.17
7.03
9.93
12.67
15.06
16.98
18.38
19.25
19.62
19.49
18.8
17.5
15.58
13.12
10.27
7.21
3.99
0.57
-3.16
-7.28
-11.8
-16.55
-21.28
-25.66
-29.35
-32.06
-33.62
-33.97
-33.23
-31.62
-29.44
-26.94
-24.28
-21.48
-18.53
-15.36
-11.99
-8.47
-4.95
-1.63
1.24
3.4
4.71
5.15
4.89
4.19
3.43
2.96
3.15
4.29
6.55
9.97
14.29
19.07
23.71
27.62
30.36
31.68
31.56
30.12
27.61
24.34
20.67
16.93
13.4
10.24
7.5
5.17
3.15
1.3
-0.57
-2.68
-5.24
-8.37
-12.07
-16.13
-20.22
-23.88
-26.66
-28.21
-28.38
-27.26
-25.12
-22.32
-19.19
-16
-12.9
-9.96
-7.17
-4.48
-1.82
0.9
3.62
6.16
8.21
9.45
9.74
9.15
7.98
6.6
5.29
4.16
3.24
2.56
2.27
2.61
3.78
5.84
8.62
11.73
14.69
17.11
18.72
19.42
19.23
18.23
16.47
14.03
11.02
7.69
4.36
1.39
-0.97
-2.67
-3.88
-4.93
-6.21
-7.93
-10.17
-12.78
-15.53
-18.18
-20.52
-22.38
-23.68
-24.32
-24.23
-23.32
-21.54
-18.84
-15.25
-10.91
-6.02
-0.85
4.36
9.44
14.3
18.94
23.44
27.86
32.2
36.37
40.13
43.18
45.17
45.91
45.36
43.7
41.22
38.2
34.86
31.28
27.51
23.61
19.73
16.01
12.48
9.01
5.32
1.13
-3.65
-8.81
-13.82
-18.05
-20.97
-22.35
-22.35
-21.43
-20.16
-18.98
-18.01
-17.08
-15.81
-13.85
-11.09
-7.7
-4.03
-0.47
2.76
5.65
8.34
10.97
13.56
15.97
17.93
19.22
19.73
19.49
18.66
17.47
16.09
14.64
13.16
11.68
10.25
8.96
7.9
7.16
6.72
6.46
6.24
5.9
5.39
4.72
3.95
3.19
2.51
1.95
1.48
1.01
0.45
-0.27
-1.19
-2.3
-3.57
-4.95
-6.4
-7.92
-9.55
-11.35
-13.4
-15.71
-18.13
-20.31
-21.76
-22.02
-20.84
-18.35
-15.03
-11.51
-8.34
-5.79
-3.77
-2.02
-0.26
1.56
3.29
4.66
5.46
5.68
5.51
5.25
5.09
5.11
5.17
5.08
4.68
3.97
3.05
2.07
1.16
0.36
-0.42
-1.25
-2.23
-3.38
-4.65
-5.93
-7.12
-8.16
-9.04
-9.8
-10.51
-11.25
-12.05
-12.91
-13.79
-14.62
-15.37
-16.05
-16.74
-17.59
-18.78
-20.33
-22.11
-23.71
-24.62
-24.37
-22.75
-19.9
-16.23
-12.27
-8.47
-5.1
-2.25
0.13
2.07
3.59
4.69
5.41
5.84
6.11
6.29
6.39
6.32
6
5.36
4.44
3.34
2.22
1.2
0.36
-0.33
-0.91
-1.47
-2.08
-2.81
-3.7
-4.71
-5.81
-6.9
-7.92
-8.87
-9.81
-10.84
-12.08
-13.59
-15.3
-17.06
-18.64
-19.83
-20.56
-20.9
-21.05
-21.25
-21.63
-22.13
-22.46
-22.21
-20.98
-18.54
-14.89
-10.33
-5.26
-0.12
4.78
9.27
13.33
17.03
20.42
23.5
26.29
28.84
31.21
33.53
35.86
38.17
40.32
42.06
43.16
43.5
43.03
41.86
40.16
38.16
36.06
34.03
32.15
30.42
28.71
26.82
24.57
21.85
18.75
15.46
12.28
9.41
6.84
4.4
1.75
-1.33
-4.87
-8.66
-12.35
-15.66
-18.52
-21.06
-23.58
-26.31
-29.39
-32.75
-36.23
-39.6
-42.61
-45.02
-46.58
-47.06
-46.36
-44.49
-41.68
-38.21
-34.41
-30.56
-26.8
-23.21
-19.85
-16.79
-14.16
-12.07
-10.62
-9.75
-9.34
-9.18
-9.11
-9.01
-8.87
-8.66
-8.35
-7.86
-7.08
-5.94
-4.44
-2.71
-0.92
0.76
2.26
3.61
4.95
6.45
8.18
10.13
12.16
14.08
15.65
16.67
17.02
16.7
15.81
14.57
13.28
12.17
11.42
10.99
10.69
10.26
9.42
8.02
6.07
3.76
1.39
-0.69
-2.11
-2.6
-2.03
-0.5
1.72
4.27
6.75
8.91
10.66
12.05
13.18
14.15
14.96
15.55
15.82
15.72
15.26
14.55
13.74
12.97
12.31
11.76
11.27
10.8
10.36
9.97
9.68
9.45
9.21
8.86
8.37
7.73
6.98
6.14
5.21
4.19
3.1
1.96
0.79
-0.43
-1.75
-3.21
-4.77
-6.32
-7.72
-8.88
-9.81
-10.6
-11.38
-12.26
-13.34
-14.62
-16.1
-17.66
-19.02
-19.8
-19.55
-18.01
-15.17
-11.41
-7.3
-3.41
-0.1
2.56
4.77
6.83
8.95
11.19
13.46
15.62
17.48
18.93
19.88
20.29
20.17
19.59
18.67
17.55
16.37
15.22
14.16
13.22
12.45
11.88
11.53
11.33
11.13
10.72
9.95
8.78
7.29
5.65
4
2.45
1
-0.42
-1.83
-3.25
-4.61
-5.86
-6.91
-7.72
-8.31
-8.72
-9.08
-9.54
-10.32
-11.55
-13.27
-15.36
-17.57
-19.55
-20.97
-21.51
-20.98
-19.34
-16.75
-13.57
-10.25
-7.21
-4.68
-2.61
-0.77
1.13
3.17
5.26
7.17
8.7
9.81
10.59
11.21
11.8
12.33
12.71
12.85
12.78
12.61
12.47
12.41
12.38
12.24
11.86
11.22
10.39
9.53
8.8
8.28
7.93
7.6
7.06
6.14
4.79
3.11
1.3
-0.42
-1.96
-3.33
-4.62
-5.93
-7.26
-8.55
-9.72
-10.75
-11.74
-12.84
-14.24
-16.06
-18.29
-20.81
-23.29
-25.33
-26.49
-26.44
-25.07
-22.55
-19.24
-15.58
-11.94
-8.54
-5.47
-2.74
-0.35
1.67
3.29
4.53
5.48
6.27
7.04
7.89
8.86
9.91
11
12.12
13.28
14.5
15.76
16.95
17.93
18.59
18.83
18.69
18.23
17.57
16.74
15.78
14.7
13.54
12.34
11.2
10.21
9.39
8.7
7.99
7.09
5.85
4.2
2.18
-0.01
-2.16
-4.03
-5.51
-6.63
-7.53
-8.47
-9.65
-11.22
-13.17
-15.31
-17.3
-18.73
-19.22
-18.57
-16.76
-14.07
-10.9
-7.67
-4.69
-2.09
0.14
2.05
3.66
4.91
5.72
6.08
6.04
5.78
5.49
5.3
5.28
5.38
5.53
5.69
5.82
5.95
6.12
6.3
6.4
6.25
5.72
4.79
3.58
2.3
1.2
0.45
0.06
-0.11
-0.22
-0.42
-0.74
-1.12
-1.5
-1.83
-2.14
-2.49
-2.99
-3.71
-4.7
-5.94
-7.34
-8.8
-10.2
-11.51
-12.8
-14.27
-16.05
-18.1
-20.03
-21.16
-20.76
-18.39
-14.27
-9.3
-4.82
-2.12
-1.91
-4.05
-7.64
-11.3
-13.64
-13.46
-9.97
-3.05
6.46
16.61
24.6
27.56
23.71
13.23
-1.58
-17.19
-30.22
-38.63
-42.1
-41.48
-37.88
-31.83
-23.35
-12.43
0.31
13.36
24.72
32.69
36.47
36.32
33.34
29
24.92
22.76
23.93
29.33
38.71
50.28
60.86
66.81
65.25
55.3
38.48
18.09
-2.03
-18.89
-30.99
-38.28
-41.44
-41.21
-38.07
-32.47
-25.21
-17.69
-11.65
-8.54
-8.79
-11.48
-14.73
-16.51
-15.58
-12.05
-7.2
-2.86
-0.5
-0.64
-2.8
-5.82
-8.52
-10.13
-10.57
-10.38
-10.39
-11.37
-13.62
-16.78
-19.82
-21.41
-20.33
-16.02
-8.79
0.12
8.94
15.76
19.09
18.19
13.37
5.98
-1.82
-7.7
-9.87
-7.74
-2.16
4.95
11.41
15.75
17.72
18.15
18.3
19.09
20.53
21.81
21.81
19.88
16.27
12.13
9.03
8.39
10.86
16.14
23.07
30.02
35.3
37.68
36.67
32.62
26.56
19.85
13.79
9.31
6.83
6.37
7.65
10.25
13.64
17.23
20.36
22.46
23.21
22.64
21.17
19.37
17.72
16.42
15.29
13.96
12.06
9.42
6.2
2.75
-0.49
-3.17
-5.14
-6.42
-7.19
-7.62
-7.91
-8.2
-8.6
-9.2
-10.08
-11.25
-12.62
-14.04
-15.33
-16.35
-17.11
-17.75
-18.5
-19.56
-20.9
-22.24
-23.12
-23.01
-21.58
-18.86
-15.29
-11.57
-8.51
-6.74
-6.6
-8.05
-10.77
-14.32
-18.23
-22.12
-25.74
-28.94
-31.65
-33.81
-35.3
-36
-35.76
-34.52
-32.38
-29.63
-26.66
-23.88
-21.52
-19.61
-17.99
-16.4
-14.55
-12.26
-9.38
-5.84
-1.65
3.03
7.83
12.24
15.67
17.62
17.76
16.05
12.69
8.09
2.77
-2.72
-7.87
-12.29
-15.83
-18.54
-20.65
-22.34
-23.65
-24.41
-24.37
-23.3
-21.15
-18.04
-14.23
-10.03
-5.74
-1.67
1.93
4.82
6.88
8.15
8.81
9.16
9.48
9.92
10.49
11.12
11.71
12.23
12.66
12.96
13.05
12.82
12.24
11.42
10.54
9.82
9.41
9.28
9.27
9.22
9.03
8.76
8.58
8.58
8.74
8.87
8.7
7.99
6.68
4.88
2.82
0.8
-0.97
-2.42
-3.62
-4.71
-5.9
-7.36
-9.18
-11.38
-13.81
-16.14
-17.92
-18.67
-18.01
-15.84
-12.44
-8.39
-4.43
-1.13
1.28
2.93
4.23
5.55
7.03
8.54
9.79
10.54
10.78
10.73
10.65
10.76
11.03
11.3
11.41
11.29
11.05
10.89
10.93
11.11
11.26
11.16
10.71
9.98
9.21
8.7
8.73
9.38
10.55
11.94
13.15
13.85
13.87
13.25
12.15
10.77
9.14
7.2
4.75
1.68
-2.01
-6.09
-10.25
-14.11
-17.36
-19.8
-21.29
-21.85
-21.56
-20.62
-19.22
-17.48
-15.41
-12.9
-9.81
-6.03
-1.62
3.18
7.97
12.24
15.5
17.37
17.73
16.78
14.95
12.83
10.95
9.64
9.03
9.05
9.56
10.37
11.34
12.31
13.12
13.62
13.69
13.29
12.49
11.42
10.26
9.15
8.16
7.29
6.49
5.66
4.74
3.7
2.55
1.32
0.11
-0.98
-1.84
-2.38
-2.67
-2.89
-3.3
-4.1
-5.3
-6.68
-7.86
-8.47
-8.25
-7.2
-5.58
-3.74
-2.05
-0.78
-0.05
0.13
-0.18
-0.91
-2.01
-3.43
-5.11
-6.93
-8.74
-10.41
-11.85
-13.01
-13.9
-14.54
-14.89
-14.94
-14.68
-14.17
-13.55
-13.01
-12.7
-12.66
-12.86
-13.14
-13.34
-13.32
-13.03
-12.51
-11.9
-11.39
-11.19
-11.37
-11.88
-12.49
-12.92
-13
-12.73
-12.31
-12.06
-12.22
-12.86
-13.82
-14.74
-15.13
-14.49
-12.48
-8.95
-4.04
1.96
8.68
15.81
23.09
30.29
36.99
42.61
46.41
47.75
46.37
42.47
36.75
30.17
23.73
18.24
14.24
11.96
11.35
12.08
13.63
15.32
16.42
16.3
14.56
11.16
6.44
1.06
-4.2
-8.67
-11.91
-13.81
-14.52
-14.3
-13.49
-12.39
-11.34
-10.67
-10.71
-11.65
-13.53
-16.14
-19.17
-22.24
-25.01
-27.18
-28.49
-28.7
-27.66
-25.4
-22.17
-18.48
-14.91
-11.91
-9.66
-8.04
-6.71
-5.42
-4.09
-2.89
-2.09
-1.81
-1.96
-2.2
-2.19
-1.75
-0.98
-0.24
0.08
-0.24
-1.18
-2.47
-3.75
-4.74
-5.33
-5.67
-6
-6.57
-7.52
-8.8
-10.2
-11.49
-12.52
-13.25
-13.69
-13.84
-13.58
-12.77
-11.29
-9.2
-6.7
-3.97
-1.03
2.35
6.44
11.4
17.02
22.8
28.13
32.59
36.11
38.98
41.59
44.22
46.9
49.44
51.53
52.95
53.55
53.29
52.17
50.15
47.22
43.41
38.84
33.7
28.27
22.84
17.69
12.97
8.72
4.83
1.11
-2.62
-6.48
-10.45
-14.41
-18.17
-21.6
-24.64
-27.33
-29.75
-31.91
-33.75
-35.2
-36.22
-36.87
-37.27
-37.59
-37.9
-38.13
-38.06
-37.41
-35.91
-33.44
-30.03
-25.89
-21.35
-16.78
-12.51
-8.77
-5.6
-2.93
-0.56
1.67
3.84
5.85
7.53
8.76
9.48
9.85
10.11
10.51
11.18
12.08
13.08
14
14.74
15.29
15.69
15.94
16.02
15.88
15.47
14.77
13.78
12.56
11.16
9.65
8.1
6.53
4.94
3.31
1.61
-0.16
-1.99
-3.88
-5.88
-8.05
-10.49
-13.19
-15.99
-18.57
-20.46
-21.22
-20.61
-18.66
-15.7
-12.23
-8.73
-5.54
-2.74
-0.26
2.04
4.26
6.39
8.37
10.13
11.64
12.92
13.95
14.69
15.07
15.01
14.51
13.65
12.59
11.55
10.71
10.16
9.9
9.81
9.7
9.41
8.83
7.97
6.95
5.9
4.91
4.04
3.26
2.52
1.76
0.94
0.05
-0.89
-1.85
-2.79
-3.68
-4.51
-5.31
-6.16
-7.17
-8.44
-9.97
-11.64
-13.18
-14.22
-14.47
-13.77
-12.18
-9.91
-7.26
-4.48
-1.72
0.97
3.59
6.1
8.42
10.42
12.03
13.2
13.98
14.44
14.64
14.61
14.39
14.04
13.64
13.31
13.13
13.12
13.21
13.32
13.34
13.23
12.98
12.59
12.06
11.38
10.53
9.55
8.52
7.55
6.75
6.12
5.58
4.98
4.19
3.16
1.97
0.76
-0.32
-1.22
-2.02
-2.93
-4.18
-5.91
-8.12
-10.6
-13.06
-15.18
-16.71
-17.52
-17.58
-16.92
-15.59
-13.69
-11.33
-8.7
-5.98
-3.33
-0.84
1.47
3.63
5.67
7.53
9.12
10.33
11.13
11.56
11.77
11.92
12.12
12.38
12.62
12.74
12.67
12.42
12.07
11.72
11.44
11.23
11.01
10.7
10.21
9.52
8.64
7.65
6.63
5.67
4.79
3.96
3.1
2.13
1
-0.21
-1.4
-2.45
-3.32
-4.09
-4.88
-5.84
-7.01
-8.37
-9.85
-11.41
-13.02
-14.66
-16.2
-17.39
-17.97
-17.73
-16.63
-14.84
-12.64
-10.28
-7.93
-5.63
-3.38
-1.19
0.88
2.76
4.39
5.73
6.81
7.62
8.12
8.29
8.13
7.71
7.17
6.65
6.22
5.86
5.52
5.13
4.67
4.2
3.8
3.54
3.42
3.39
3.37
3.29
3.1
2.77
2.26
1.55
0.66
-0.34
-1.29
-2.04
-2.49
-2.66
-2.7
-2.78
-3.07
-3.64
-4.46
-5.43
-6.49
-7.57
-8.68
-9.83
-11.03
-12.29
-13.58
-14.85
-15.99
-16.85
-17.26
-17.1
-16.35
-15.08
-13.49
-11.74
-9.97
-8.25
-6.59
-5.02
-3.55
-2.23
-1.04
0.07
1.24
2.55
4.06
5.67
7.23
8.49
9.29
9.56
9.4
8.95
8.41
7.88
7.38
6.85
6.25
5.6
4.97
4.48
4.23
4.22
4.39
4.59
4.69
4.58
4.23
3.61
2.78
1.76
0.63
-0.54
-1.67
-2.73
-3.74
-4.75
-5.79
-6.85
-7.84
-8.67
-9.31
-9.85
-10.51
-11.51
-12.98
-14.87
-16.9
-18.64
-19.69
-19.78
-18.89
-17.19
-15
-12.63
-10.29
-8.1
-6.05
-4.12
-2.29
-0.61
0.9
2.2
3.35
4.41
5.44
6.45
7.38
8.13
8.65
8.93
9.07
9.19
9.38
9.64
9.9
10.06
10.04
9.84
9.5
9.08
8.6
8.06
7.43
6.72
6
5.34
4.76
4.21
3.58
2.74
1.64
0.34
-1.01
-2.26
-3.3
-4.13
-4.84
-5.51
-6.24
-7.05
-7.97
-9
-10.13
-11.31
-12.44
-13.34
-13.79
-13.62
-12.73
-11.15
-9.04
-6.66
-4.29
-2.14
-0.32
1.2
2.5
3.69
4.8
5.76
6.46
6.78
6.69
6.25
5.64
5.04
4.58
4.29
4.1
3.88
3.51
2.98
2.39
1.89
1.6
1.53
1.57
1.5
1.14
0.38
-0.74
-2.09
-3.52
-4.94
-6.34
-7.75
-9.22
-10.7
-12.14
-13.39
-14.35
-14.96
-15.21
-15.15
-14.88
-14.46
-13.95
-13.38
-12.75
-12.08
-11.33
-10.41
-9.14
-7.25
-4.51
-0.84
3.57
8.24
12.55
15.91
17.92
18.53
17.88
16.3
14.12
11.67
9.22
7.02
5.23
3.93
3.02
2.31
1.59
0.74
-0.21
-1.12
-1.81
-2.17
-2.17
-1.9
-1.46
-0.91
-0.25
0.53
1.4
2.28
3.08
3.69
4.09
4.35
4.57
4.84
5.2
5.59
5.93
6.1
6
5.58
4.77
3.52
1.77
-0.52
-3.31
-6.52
-9.98
-13.52
-16.93
-19.99
-22.47
-24.08
-24.57
-23.77
-21.71
-18.65
-15.07
-11.51
-8.46
-6.17
-4.58
-3.4
-2.22
-0.68
1.44
4.13
7.26
10.66
14.18
17.78
21.43
25.12
28.67
31.85
34.31
35.7
35.75
34.33
31.44
27.32
22.39
17.2
12.38
8.4
5.5
3.59
2.41
1.64
1.07
0.63
0.41
0.45
0.75
1.2
1.68
2.1
2.49
2.9
3.37
3.9
4.37
4.65
4.65
4.34
3.83
3.32
3.15
3.68
5.28
8.17
12.38
17.65
23.53
29.43
34.73
38.87
41.37
41.94
40.56
37.57
33.61
29.54
26.18
24.09
23.47
24.14
25.58
27.11
28.05
27.86
26.21
23.15
18.97
14.16
9.22
4.44
-0.05
-4.27
-8.25
-11.99
-15.43
-18.55
-21.36
-23.97
-26.45
-28.89
-31.3
-33.67
-35.98
-38.17
-40.16
-41.86
-43.17
-44.02
-44.44
-44.57
-44.67
-44.98
-45.6
-46.4
-46.93
-46.58
-44.75
-41.1
-35.71
-29.08
-21.99
-15.21
-9.3
-4.52
-0.85
1.89
3.9
5.31
6.18
6.54
6.46
6.04
5.41
4.71
4.01
3.35
2.68
1.96
1.1
0.04
-1.32
-3.06
-5.19
-7.67
-10.39
-13.25
-16.21
-19.3
-22.61
-26.18
-29.97
-33.78
-37.34
-40.37
-42.66
-44.02
-44.36
-43.59
-41.72
-38.87
-35.33
-31.5
-27.82
-24.5
-21.42
-18.03
-13.59
-7.49
0.39
9.5
18.81
27.19
33.89
38.72
41.96
43.96
44.79
44.2
41.83
37.64
32.08
25.97
20.11
14.88
10.16
5.56
0.81
-3.93
-8.08
-10.91
-11.94
-11.08
-8.72
-5.43
-1.82
1.66
4.65
6.88
8.12
8.2
7.1
5
2.25
-0.71
-3.45
-5.66
-7.24
-8.27
-9
-9.67
-10.44
-11.26
-11.88
-11.95
-11.19
-9.46
-6.85
-3.63
-0.13
3.31
6.48
9.22
11.49
13.26
14.6
15.58
16.3
16.83
17.18
17.33
17.26
16.96
16.49
15.96
15.5
15.18
14.98
14.82
14.59
14.2
13.62
12.92
12.2
11.51
10.86
10.2
9.45
8.6
7.68
6.75
5.89
5.12
4.41
3.77
3.18
2.66
2.23
1.81
1.27
0.46
-0.66
-1.89
-2.77
-2.72
-1.23
1.93
6.61
12.32
18.39
24.2
29.35
33.69
37.33
40.44
43.16
45.53
47.46
48.76
49.27
48.88
47.58
45.44
42.56
39.01
34.81
29.95
24.39
18.17
11.39
4.25
-3.01
-10.1
-16.71
-22.54
-27.33
-30.84
-32.93
-33.6
-33.02
-31.56
-29.71
-28.03
-26.95
-26.66
-27.14
-28.17
-29.52
-31.08
-32.86
-35.01
-37.66
-40.84
-44.44
-48.15
-51.56
-54.13
-55.32
-54.68
-52.04
-47.59
-41.83
-35.41
-28.92
-22.74
-17.03
-11.81
-7.12
-3.09
0.11
2.39
3.81
4.56
4.86
4.91
4.78
4.47
3.93
3.14
2.15
1.06
0.1
-0.52
-0.58
-0.03
1.06
2.46
3.85
4.96
5.62
5.8
5.61
5.29
5.14
5.5
6.73
9.1
12.78
17.69
23.42
29.26
34.22
37.31
37.74
35.2
29.95
22.77
14.75
7.12
0.91
-3.18
-4.85
-4.33
-2.25
0.55
3.19
5.05
5.88
5.87
5.43
5.02
4.94
5.27
5.89
6.61
7.29
7.81
8.15
8.27
8.14
7.69
6.95
6.06
5.29
4.93
5.17
5.99
7.12
8.2
8.92
9.22
9.33
9.66
10.57
12.19
14.31
16.4
17.76
17.79
16.13
12.78
8.14
2.8
-2.57
-7.51
-11.87
-15.82
-19.74
-24
-28.75
-33.78
-38.55
-42.26
-44.1
-43.44
-40.07
-34.26
-26.75
-18.52
-10.59
-3.69
1.83
6.04
9.23
11.73
13.82
15.62
17.21
18.66
20
21.19
22.14
22.63
22.48
21.56
19.9
17.68
15.23
12.82
10.65
8.67
6.65
4.22
1.07
-2.87
-7.37
-11.96
-16.13
-19.55
-22.22
-24.42
-26.55
-28.84
-31.29
-33.66
-35.62
-36.94
-37.63
-37.91
-38.12
-38.61
-39.63
-41.26
-43.35
-45.51
-47.1
-47.33
-45.47
-41.08
-34.24
-25.49
-15.7
-5.73
3.83
12.75
21.03
28.76
35.86
42.12
47.28
51.17
53.9
55.74
57.08
58.23
59.32
60.28
60.96
61.19
60.89
60.14
59.07
57.79
56.25
54.25
51.45
47.57
42.51
36.45
29.87
23.36
17.51
12.67
8.85
5.78
2.97
-0.07
-3.7
-8.07
-13.08
-18.49
-23.93
-29.06
-33.61
-37.55
-41.08
-44.64
-48.75
-53.78
-59.73
-66.17
-72.35
-77.42
-80.75
-82.09
-81.59
-79.64
-76.74
-73.31
-69.69
-66.12
-62.82
-59.99
-57.75
-56.08
-54.71
-53.19
-51.03
-47.82
-43.47
-38.2
-32.4
-26.46
-20.57
-14.72
-8.78
-2.76
3.15
8.61
13.32
17.14
20.18
22.62
24.63
26.21
27.25
27.57
27.14
26.08
24.71
23.44
22.56
22.21
22.25
22.37
22.17
21.36
19.76
17.34
14.14
10.27
5.85
1.15
-3.44
-7.37
-10.06
-11.05
-10.18
-7.57
-3.64
1.07
5.98
10.64
14.76
18.23
21.07
23.38
25.26
26.73
27.83
28.56
28.98
29.18
29.21
29.09
28.74
28.13
27.28
26.31
25.4
24.69
24.18
23.77
23.27
22.52
21.5
20.26
18.9
17.55
16.31
15.26
14.41
13.8
13.41
13.21
13.13
13.15
13.27
13.51
13.9
14.41
14.97
15.5
15.96
16.39
16.93
17.71
18.84
20.37
22.28
24.51
27.06
29.92
33.12
36.68
40.53
44.55
48.5
52.08
54.91
56.62
56.86
55.43
52.27
47.57
41.78
35.46
29.12
23.06
17.3
11.63
5.85
-0.1
-6.04
-11.63
-16.53
-20.58
-23.83
-26.41
-28.41
-29.82
-30.51
-30.41
-29.59
-28.31
-26.87
-25.59
-24.64
-24.11
-23.99
-24.29
-25.03
-26.27
-28.05
-30.3
-32.8
-35.13
-36.72
-37.03
-35.69
-32.66
-28.28
-23.18
-18.05
-13.45
-9.65
-6.64
-4.23
-2.25
-0.62
0.59
1.26
1.32
0.83
-0.08
-1.26
-2.67
-4.36
-6.41
-8.8
-11.37
-13.83
-15.9
-17.41
-18.43
-19.24
-20.23
-21.76
-24.05
-27.09
-30.58
-34
-36.77
-38.36
-38.55
-37.57
-36.06
-34.85
-34.6
-35.45
-36.92
-38.13
-38.14
-36.44
-33.22
-29.3
-25.84
-23.89
-23.99
-25.99
-29.01
-31.74
-32.72
-30.76
-25.23
-16.28
-4.78
7.95
20.48
31.69
40.92
47.97
52.97
56.18
57.93
58.56
58.54
58.32
58.29
58.6
59.11
59.42
59.09
57.77
55.37
52.03
48.06
43.77
39.43
35.15
30.97
26.86
22.83
18.91
15.24
12.02
9.43
7.6
6.51
5.94
5.49
4.63
2.88
-0.01
-4.01
-8.75
-13.7
-18.42
-22.77
-26.91
-31.24
-36.09
-41.52
-47.26
-52.86
-57.85
-61.9
-64.75
-66.11
-65.49
-62.37
-56.47
-48.05
-37.94
-27.33
-17.25
-8.27
-0.33
6.99
14.1
21.04
27.58
33.37
38.28
42.47
46.21
49.65
52.58
54.54
55.08
53.98
51.42
47.89
43.98
40.16
36.67
33.47
30.33
26.9
22.84
17.91
12.02
5.35
-1.73
-8.72
-15.12
-20.63
-25.14
-28.79
-31.86
-34.68
-37.54
-40.59
-43.9
-47.4
-51.01
-54.66
-58.31
-61.97
-65.67
-69.39
-73.12
-76.72
-80.01
-82.71
-84.42
-84.73
-83.29
-79.94
-74.82
-68.29
-60.78
-52.69
-44.36
-36.08
-28.13
-20.94
-14.94
-10.5
-7.71
-6.28
-5.66
-5.33
-4.89
-4.2
-3.24
-2.04
-0.55
1.43
4.26
8.13
12.94
18.52
24.87
32.21
40.7
50.17
59.92
69.11
76.58
81.19
82.35
80.27
75.77
69.69
62.7
55.34
48.87
44.58
43.51
46.21
52.58
61.59
71.16
78.78
82.44
82.11
78.75
73.5
67.2
60.15
52.04
42.05
29.52
10.54
-13.66
-37.03
-52.81
-58.31
-55.25
-47.55
-39.19
-32.94
-29.25
-26.75
-24.33
-21.82
-19.76
-18.74
-18.94
-20.04
-21.13
-22.07
-21.78
-19.84
-16.82
-13.89
-11.98
-11.46
-12.03
-12.96
-13.36
-12.08
-8.6
-3.15
3.48
10.39
16.72
21.66
24.51
24.71
22.31
17.63
11.2
3.69
-4.1
-11.36
-17.33
-21.35
-22.93
-21.74
-17.96
-12.34
-6
-0.24
3.83
5.48
4.44
0.92
-4.43
-10.61
-16.44
-20.78
-22.89
-22.68
-20.76
-18.09
-15.52
-13.36
-11.32
-8.73
-5.03
-0.16
5.33
10.51
14.47
16.67
17.11
16.32
15.04
14.01
13.63
13.76
13.82
12.91
10.29
5.76
-0.21
-6.58
-12.21
-16.21
-18.16
-18.1
-16.25
-12.92
-8.47
-3.38
1.72
6.14
9.42
11.49
12.72
13.73
15.1
17.15
19.83
22.75
25.42
27.35
28.24
28.04
26.94
25.28
23.45
21.75
20.32
19.2
18.31
17.49
16.6
15.47
14.05
12.35
10.51
8.7
7.15
6.06
5.47
5.25
5.12
4.73
3.82
2.24
0.04
-2.48
-4.94
-7.03
-8.64
-9.8
-10.68
-11.46
-12.39
-13.69
-15.19
-16.57
-17.56
-17.98
-17.76
-17.05
-15.9
-14.57
-13.35
-11.83
-9.44
-5.87
-1.3
3.81
8.56
12.46
14.95
15.62
15.42
15.62
17.1
19.88
23.5
26.87
29.61
31.31
31.72
32.17
34.18
38.52
45.14
53.83
64.28
77.37
93.47
104.05
101.98
85.74
60.01
30.93
6.37
-14.61
-32.46
-47.42
-60.05
-69.42
-74.66
-75.94
-74.4
-71.21
-67.55
-63.27
-58.39
-53.4
-48.03
-42.07
-35.61
-29.15
-23.14
-18.26
-14.39
-11.46
-9.49
-7.74
-5.37
-1.97
2.29
6.93
11.18
14.78
17.5
19.12
19.92
20.31
20.76
21.57
22.92
24.62
26.5
28.13
29.05
29.04
28.12
26.39
23.89
20.56
16.25
10.94
4.77
-1.89
-8.63
-15.12
-21.26
-27.18
-33.14
-39.21
-45.14
-50.33
-54.03
-55.62
-54.92
-52.25
-48.2
-43.44
-38.43
-33.31
-28.06
-22.63
-17.02
-11.41
-5.97
-0.9
3.67
7.66
10.98
13.48
15.05
15.59
15.17
14.01
12.35
10.49
8.62
6.84
5.16
3.6
2.15
0.83
-0.33
-1.35
-2.29
-3.25
-4.3
-5.5
-6.84
-8.29
-9.77
-11.2
-12.48
-13.52
-14.3
-14.84
-15.22
-15.62
-16.22
-17.17
-18.47
-19.92
-21.14
-21.67
-21.11
-19.31
-16.37
-12.71
-8.81
-5.14
-1.98
0.61
2.73
4.55
6.19
7.72
9.08
10.23
11.08
11.58
11.74
11.59
11.19
10.66
10.1
9.63
9.31
9.14
9.03
8.87
8.5
7.87
6.98
5.94
4.88
3.93
3.17
2.56
2.01
1.38
0.59
-0.38
-1.48
-2.57
-3.52
-4.21
-4.63
-4.89
-5.2
-5.78
-6.82
-8.38
-10.28
-12.12
-13.4
-13.68
-12.69
-10.48
-7.34
-3.74
-0.13
3.21
6.17
8.79
11.15
13.34
15.45
17.55
19.66
21.72
23.59
25.07
25.95
26.08
25.52
24.44
23.16
21.87
20.67
19.7
19.04
18.74
18.77
18.95
19
18.67
17.62
15.74
13.29
10.75
8.51
6.72
5.17
3.59
1.9
0.04
-1.68
-2.59
-2.08
-0.1
2.84
5.7
7.53
7.75
5.95
2.24
-2.65
-7.74
-12.17
-15.36
-17.18
-17.69
-14.85
-7.91
1.78
11.86
20.91
28.23
34.86
41.3
47.55
53.29
57.64
59.83
59.64
57.49
53.98
49.73
45.02
39.98
34.61
28.6
21.83
14.54
7.19
0.15
-6.36
-12.39
-17.98
-23.09
-27.88
-32.47
-36.87
-41.02
-44.88
-48.34
-51.36
-53.9
-56.02
-57.96
-60.04
-62.39
-64.89
-67.24
-69.07
-70.12
-70.38
-70.05
-69.61
-69.62
-70.62
-72.94
-76.6
-81.12
-85.52
-88.35
-88.02
-83.22
-73.42
-59.12
-41.81
-23.55
-6.38
8.29
19.94
28.86
35.79
41.45
46.31
50.44
53.71
55.93
56.96
56.8
55.48
53.12
49.89
46.09
42.17
38.65
36.05
34.7
34.57
35.28
36.17
36.58
36.03
34.41
31.89
28.87
25.69
22.59
19.63
16.77
13.97
11.22
8.48
5.65
2.58
-0.91
-4.93
-9.54
-14.69
-20.24
-25.96
-31.47
-36.29
-39.94
-42.06
-42.58
-41.74
-39.98
-37.79
-35.5
-33.2
-30.88
-28.55
-26.39
-24.76
-24.01
-24.31
-25.43
-26.86
-27.99
-28.35
-27.82
-26.61
-25.08
-23.55
-22.1
-20.66
-19.09
-17.31
-15.42
-13.62
-12.14
-11.1
-10.45
-10.04
-9.66
-9.17
-8.53
-7.88
-7.41
-7.34
-7.74
-8.58
-9.62
-10.54
-11.03
-10.83
-9.91
-8.4
-6.64
-5.08
-4.18
-4.32
-5.63
-7.96
-10.83
-13.51
-15.29
-15.6
-14.26
-11.46
-7.68
-3.48
0.71
4.61
8.14
11.28
14.04
16.38
18.28
19.8
21.06
22.19
23.3
24.4
25.4
26.21
26.75
27.04
27.16
27.22
27.25
27.25
27.14
26.87
26.41
25.78
25
24.09
23.01
21.77
20.4
18.98
17.59
16.29
15.02
13.69
12.11
10.16
7.8
5.11
2.25
-0.58
-3.22
-5.59
-7.76
-9.8
-11.78
-13.58
-14.94
-15.47
-14.86
-13.04
-10.22
-6.85
-3.42
-0.22
2.7
5.52
8.4
11.4
14.38
17.04
19.13
20.54
21.36
21.82
22.15
22.5
22.87
23.2
23.38
23.39
23.24
23
22.72
22.43
22.09
21.63
21.01
20.16
19.11
17.9
16.6
15.24
13.83
12.33
10.7
8.89
6.94
4.92
2.95
1.11
-0.51
-1.92
-3.2
-4.47
-5.91
-7.64
-9.72
-12
-14.21
-15.93
-16.76
-16.42
-14.85
-12.22
-8.86
-5.14
-1.46
1.93
4.87
7.34
9.41
11.19
12.78
14.22
15.49
16.55
17.37
17.95
18.29
18.4
18.28
17.94
17.43
16.86
16.35
16
15.8
15.65
15.4
14.92
14.14
13.11
11.91
10.65
9.41
8.23
7.15
6.19
5.32
4.51
3.7
2.86
1.98
1.07
0.19
-0.64
-1.46
-2.4
-3.62
-5.25
-7.32
-9.7
-12.1
-14.14
-15.47
-15.85
-15.22
-13.72
-11.62
-9.22
-6.81
-4.53
-2.39
-0.33
1.71
3.74
5.68
7.36
8.65
9.47
9.89
10.07
10.22
10.49
10.91
11.39
11.79
11.99
12
11.91
11.82
11.79
11.77
11.63
11.26
10.66
9.92
9.17
8.52
7.92
7.25
6.37
5.24
3.92
2.58
1.39
0.45
-0.25
-0.79
-1.27
-1.75
-2.29
-2.91
-3.64
-4.52
-5.53
-6.58
-7.46
-7.87
-7.51
-6.15
-3.75
-0.46
3.38
7.39
11.27
14.9
18.32
21.68
25.09
28.49
31.65
34.25
36.06
37.06
37.51
37.78
38.19
38.77
39.23
39.05
37.77
35.23
31.62
27.41
23.1
18.98
15.12
11.44
7.96
4.87
2.5
1.18
1.01
1.9
3.53
5.6
7.88
10.2
12.42
14.28
15.5
15.82
15.22
13.91
12.36
11.05
10.28
10.06
9.99
9.44
7.71
4.28
-0.97
-7.74
-15.32
-22.84
-29.48
-34.71
-38.34
-40.51
-41.5
-41.67
-41.29
-40.59
-39.78
-39.02
-38.48
-38.22
-38.22
-38.33
-38.33
-38.07
-37.53
-36.85
-36.33
-36.17
-36.36
-36.64
-36.48
-35.34
-32.86
-29.02
-24.12
-18.69
-13.3
-8.44
-4.49
-1.7
-0.2
-0.01
-1.02
-3.01
-5.76
-9.08
-12.85
-16.96
-21.21
-25.33
-28.93
-31.72
-33.58
-34.64
-35.27
-35.92
-36.98
-38.61
-40.61
-42.42
-43.22
-42.19
-38.9
-33.46
-26.55
-19.19
-12.32
-6.51
-1.85
1.89
5.01
7.66
9.79
11.26
12.03
12.24
12.16
12.07
12.13
12.35
12.59
12.7
12.61
12.36
12.13
12.1
12.39
12.98
13.69
14.26
14.49
14.3
13.79
13.19
12.73
12.6
12.83
13.29
13.81
14.16
14.17
13.82
13.17
12.37
11.57
10.88
10.29
9.71
8.99
7.99
6.62
4.98
3.32
2.09
1.77
2.74
5.08
8.53
12.52
16.46
19.89
22.67
24.99
27.18
29.53
32.15
34.9
37.53
39.77
41.48
42.69
43.56
44.34
45.28
46.54
48.16
49.94
51.51
52.32
51.79
49.5
45.31
39.47
32.55
25.27
18.3
12.1
6.86
2.5
-1.16
-4.35
-7.23
-9.91
-12.48
-15.02
-17.68
-20.58
-23.81
-27.37
-31.15
-35.05
-39.02
-43.09
-47.34
-51.8
-56.32
-60.53
-63.93
-65.99
-66.26
-64.5
-60.57
-54.46
-46.35
-36.66
-26.1
-15.6
-6.05
1.97
8.41
13.66
18.26
22.52
26.25
28.79
29.29
27.12
22.16
14.86
6.02
-3.48
-12.95
-21.96
-30.25
-37.61
-43.8
-48.49
-51.47
-52.67
-52.27
-50.63
-48.13
-45.09
-41.68
-37.96
-33.97
-29.79
-25.63
-21.76
-18.5
-16.08
-14.57
-13.92
-13.93
-14.36
-15.03
-15.82
-16.72
-17.76
-18.97
-20.38
-21.97
-23.77
-25.87
-28.4
-31.46
-35.1
-39.18
-43.43
-47.4
-50.61
-52.58
-52.91
-51.4
-47.97
-42.73
-35.93
-27.98
-19.43
-10.91
-3.08
3.58
8.81
12.6
15.18
16.87
17.99
18.76
19.27
19.58
19.73
19.79
19.85
20.01
20.29
20.63
20.85
20.72
20.05
18.77
16.97
14.92
12.89
11.12
9.69
8.62
7.82
7.2
6.68
6.13
5.44
4.53
3.36
1.98
0.5
-0.98
-2.46
-4.05
-5.88
-8.04
-10.46
-12.87
-14.86
-15.99
-15.89
-14.41
-11.65
-7.95
-3.74
0.55
4.58
8.22
11.42
14.17
16.46
18.24
19.42
20
20.08
19.84
19.55
19.39
19.42
19.59
19.74
19.72
19.46
19.02
18.51
18.05
17.64
17.22
16.63
15.8
14.7
13.44
12.13
10.9
9.77
8.71
7.63
6.48
5.23
3.89
2.51
1.13
-0.24
-1.6
-3
-4.47
-6.01
-7.65
-9.39
-11.32
-13.48
-15.86
-18.21
-20.1
-21.04
-20.61
-18.73
-15.61
-11.74
-7.66
-3.79
-0.33
2.72
5.44
7.95
10.3
12.49
14.49
16.21
17.6
18.61
19.28
19.7
19.99
20.27
20.59
20.96
21.38
21.83
22.28
22.7
23
23.11
22.96
22.54
21.9
21.17
20.44
19.8
19.24
18.67
17.97
16.98
15.64
13.92
11.89
9.66
7.38
5.16
3.09
1.19
-0.57
-2.28
-4.09
-6.14
-8.53
-11.29
-14.33
-17.41
-20.15
-22.07
-22.76
-21.93
-19.61
-16.05
-11.75
-7.28
-3.09
0.51
3.48
5.93
8.07
10.11
12.12
14.06
15.76
17.03
17.73
17.9
17.73
17.47
17.32
17.36
17.5
17.58
17.49
17.17
16.71
16.19
15.66
15.08
14.38
13.47
12.35
11.1
9.86
8.77
7.87
7.12
6.36
5.42
4.21
2.72
1.06
-0.61
-2.17
-3.57
-4.87
-6.14
-7.45
-8.83
-10.31
-11.95
-13.81
-15.97
-18.37
-20.77
-22.71
-23.63
-23.1
-20.95
-17.43
-13.09
-8.58
-4.44
-0.93
1.98
4.46
6.69
8.73
10.52
11.94
12.89
13.39
13.53
13.46
13.31
13.12
12.9
12.64
12.36
12.11
11.98
11.97
11.97
11.85
11.42
10.62
9.47
8.1
6.67
5.31
4.12
3.13
2.34
1.71
1.17
0.63
-0.04
-0.93
-2.06
-3.39
-4.8
-6.14
-7.32
-8.3
-9.14
-9.92
-10.75
-11.73
-12.9
-14.3
-15.89
-17.57
-19.12
-20.22
-20.49
-19.63
-17.54
-14.41
-10.67
-6.83
-3.32
-0.35
2.05
4.02
5.75
7.34
8.76
9.91
10.67
10.96
10.87
10.53
10.15
9.86
9.72
9.74
9.83
9.96
10.04
10.03
9.82
9.36
8.63
7.71
6.73
5.83
5.07
4.41
3.75
3.01
2.18
1.32
0.52
-0.18
-0.83
-1.53
-2.39
-3.44
-4.57
-5.68
-6.62
-7.37
-8.01
-8.67
-9.46
-10.44
-11.57
-12.84
-14.19
-15.58
-16.89
-17.87
-18.22
-17.62
-15.92
-13.21
-9.8
-6.15
-2.7
0.31
2.8
4.84
6.52
7.88
8.91
9.62
10.03
10.23
10.3
10.29
10.22
10.08
9.87
9.65
9.46
9.37
9.34
9.31
9.2
8.94
8.55
8.04
7.44
6.74
5.95
5.07
4.18
3.34
2.59
1.92
1.29
0.59
-0.22
-1.17
-2.24
-3.36
-4.47
-5.49
-6.34
-6.97
-7.42
-7.78
-8.23
-8.95
-10.04
-11.53
-13.28
-15.05
-16.51
-17.31
-17.16
-15.93
-13.69
-10.71
-7.4
-4.18
-1.36
0.94
2.76
4.24
5.5
6.57
7.43
8
8.24
8.17
7.9
7.59
7.4
7.4
7.58
7.81
7.94
7.84
7.52
7.09
6.7
6.45
6.31
6.15
5.79
5.12
4.18
3.11
2.1
1.29
0.7
0.25
-0.19
-0.74
-1.47
-2.41
-3.51
-4.69
-5.87
-6.96
-7.92
-8.74
-9.48
-10.17
-10.87
-11.64
-12.58
-13.76
-15.19
-16.73
-18.03
-18.65
-18.17
-16.43
-13.64
-10.27
-6.91
-3.98
-1.66
0.17
1.7
3.12
4.45
5.61
6.46
6.94
7.05
6.85
6.43
5.87
5.26
4.67
4.19
3.9
3.83
3.96
4.21
4.47
4.61
4.57
4.32
3.92
3.44
2.95
2.47
2
1.51
1
0.5
0.03
-0.45
-0.99
-1.65
-2.44
-3.29
-4.11
-4.78
-5.27
-5.61
-5.92
-6.3
-6.88
-7.69
-8.69
-9.73
-10.54
-10.76
-10.1
-8.4
-5.74
-2.39
1.25
4.79
7.99
10.78
13.15
15.15
16.79
18.02
18.78
19.08
18.97
18.55
17.92
17.16
16.26
15.19
13.92
12.42
10.72
8.88
6.99
5.15
3.5
2.12
0.99
0.03
-0.92
-1.98
-3.2
-4.47
-5.63
-6.51
-7.1
-7.52
-7.97
-8.63
-9.53
-10.56
-11.51
-12.21
-12.61
-12.8
-12.97
-13.3
-13.93
-14.87
-16.12
-17.61
-19.21
-20.7
-21.74
-21.95
-21.03
-18.89
-15.73
-11.98
-8.18
-4.79
-2.02
0.14
1.88
3.39
4.77
5.95
6.82
7.29
7.41
7.38
7.42
7.67
8.1
8.55
8.75
8.56
8
7.26
6.59
6.14
5.94
5.86
5.72
5.4
4.86
4.16
3.39
2.64
1.98
1.43
1
0.66
0.34
-0.11
-0.77
-1.72
-2.93
-4.28
-5.6
-6.78
-7.76
-8.56
-9.28
-10.04
-10.99
-12.2
-13.68
-15.31
-16.82
-17.87
-18.09
-17.26
-15.33
-12.5
-9.18
-5.79
-2.71
-0.1
2.04
3.86
5.48
6.93
8.12
8.94
9.34
9.4
9.33
9.35
9.58
9.97
10.4
10.69
10.77
10.65
10.41
10.11
9.77
9.38
8.92
8.39
7.81
7.19
6.56
5.9
5.27
4.71
4.22
3.79
3.31
2.66
1.75
0.6
-0.72
-2.05
-3.3
-4.39
-5.35
-6.22
-7.06
-7.9
-8.8
-9.78
-10.9
-12.18
-13.58
-14.98
-16.17
-16.85
-16.75
-15.72
-13.76
-11.09
-8.04
-4.96
-2.13
0.31
2.36
4.11
5.65
7.04
8.26
9.23
9.9
10.25
10.35
10.29
10.2
10.14
10.08
9.97
9.77
9.51
9.26
9.12
9.1
9.16
9.13
8.89
8.4
7.69
6.9
6.14
5.44
4.79
4.08
3.27
2.36
1.42
0.53
-0.27
-1.01
-1.75
-2.53
-3.39
-4.32
-5.29
-6.29
-7.26
-8.19
-9.06
-9.91
-10.84
-12
-13.48
-15.2
-16.87
-18.04
-18.23
-17.11
-14.7
-11.3
-7.44
-3.67
-0.38
2.24
4.22
5.7
6.88
7.88
8.74
9.42
9.86
10.05
10.06
10.04
10.1
10.32
10.65
10.96
11.09
10.97
10.62
10.12
9.59
9.13
8.75
8.41
8.05
7.62
7.07
6.38
5.57
4.69
3.79
2.94
2.15
1.42
0.73
0.05
-0.67
-1.51
-2.51
-3.72
-5.09
-6.47
-7.7
-8.62
-9.2
-9.55
-9.94
-10.63
-11.81
-13.48
-15.37
-17.01
-17.88
-17.6
-16.07
-13.5
-10.32
-7.01
-3.9
-1.11
1.39
3.69
5.77
7.52
8.79
9.53
9.77
9.68
9.44
9.18
8.93
8.71
8.5
8.31
8.15
8.04
7.97
7.92
7.86
7.81
7.73
7.57
7.27
6.77
6.06
5.15
4.13
3.06
2.03
1.09
0.27
-0.41
-1
-1.63
-2.39
-3.41
-4.65
-6.01
-7.3
-8.34
-9.09
-9.66
-10.28
-11.18
-12.47
-14.12
-15.96
-17.68
-18.94
-19.39
-18.78
-17.02
-14.23
-10.76
-7.04
-3.54
-0.53
1.88
3.81
5.44
6.9
8.24
9.37
10.18
10.63
10.76
10.72
10.67
10.7
10.8
10.86
10.77
10.45
9.95
9.38
8.92
8.66
8.61
8.62
8.51
8.09
7.29
6.11
4.71
3.3
2.04
1.08
0.42
-0.01
-0.37
-0.85
-1.58
-2.6
-3.89
-5.36
-6.91
-8.46
-9.92
-11.21
-12.31
-13.28
-14.25
-15.42
-16.88
-18.57
-20.17
-21.19
-21.13
-19.69
-16.93
-13.2
-9.08
-5.17
-1.85
0.74
2.67
4.19
5.5
6.73
7.91
8.96
9.79
10.37
10.72
10.92
11.02
11.04
10.95
10.74
10.42
10.07
9.79
9.65
9.64
9.66
9.54
9.15
8.47
7.57
6.6
5.68
4.92
4.32
3.84
3.42
2.97
2.43
1.75
0.89
-0.17
-1.43
-2.85
-4.33
-5.73
-6.94
-7.92
-8.72
-9.47
-10.35
-11.49
-12.94
-14.63
-16.35
-17.83
-18.71
-18.72
-17.66
-15.5
-12.43
-8.8
-5.04
-1.54
1.44
3.81
5.66
7.1
8.26
9.2
9.93
10.47
10.83
11.03
11.08
10.99
10.78
10.48
10.14
9.83
9.6
9.44
9.32
9.17
8.93
8.57
8.1
7.52
6.87
6.13
5.31
4.41
3.47
2.52
1.62
0.8
0.04
-0.7
-1.51
-2.44
-3.51
-4.61
-5.61
-6.39
-6.89
-7.18
-7.45
-7.91
-8.75
-10.01
-11.6
-13.36
-15.05
-16.45
-17.33
-17.47
-16.7
-14.92
-12.2
-8.79
-5.09
-1.57
1.37
3.55
5.01
5.95
6.64
7.3
7.98
8.65
9.25
9.71
10
10.11
10.02
9.71
9.21
8.62
8.05
7.62
7.39
7.3
7.25
7.13
6.87
6.46
5.93
5.32
4.63
3.85
3
2.1
1.22
0.4
-0.34
-1.05
-1.81
-2.67
-3.69
-4.83
-6.02
-7.16
-8.14
-8.91
-9.48
-9.94
-10.41
-11.07
-12.02
-13.28
-14.77
-16.22
-17.28
-17.57
-16.8
-14.87
-11.94
-8.37
-4.7
-1.38
1.28
3.25
4.69
5.86
6.96
8.04
9.06
9.88
10.47
10.83
11.04
11.22
11.42
11.64
11.84
11.98
12.01
11.92
11.72
11.38
10.92
10.35
9.67
8.89
8
7.04
6.06
5.15
4.34
3.63
2.97
2.28
1.49
0.57
-0.44
-1.5
-2.54
-3.52
-4.4
-5.19
-5.92
-6.71
-7.71
-9.04
-10.7
-12.53
-14.14
-15.08
-14.98
-13.67
-11.29
-8.21
-4.9
-1.76
0.94
3.12
4.83
6.18
7.29
8.29
9.25
10.17
10.99
11.54
11.72
11.5
10.97
10.33
9.73
9.26
8.89
8.55
8.2
7.89
7.72
7.71
7.83
7.88
7.69
7.12
6.23
5.21
4.33
3.82
3.72
3.89
4.04
3.91
3.33
2.36
1.18
0.05
-0.88
-1.62
-2.31
-3.13
-4.25
-5.74
-7.64
-9.9
-12.45
-15.1
-17.56
-19.45
-20.44
-20.37
-19.33
-17.63
-15.67
-13.76
-12.04
-10.48
-9.02
-7.63
-6.41
-5.49
-4.97
-4.81
-4.82
-4.76
-4.45
-3.86
-3.09
-2.32
-1.71
-1.29
-0.98
-0.64
-0.18
0.38
0.94
1.33
1.44
1.24
0.8
0.25
-0.26
-0.65
-0.86
-0.92
-0.88
-0.81
-0.79
-0.94
-1.35
-2.07
-3.06
-4.13
-5.08
-5.71
-6.02
-6.13
-6.32
-6.85
-7.83
-9.18
-10.63
-11.82
-12.41
-12.2
-11.17
-9.48
-7.38
-5.15
-2.99
-0.95
1.01
2.95
4.82
6.41
7.43
7.63
6.97
5.71
4.33
3.28
2.87
3.07
3.56
3.91
3.79
3.17
2.34
1.72
1.72
2.47
3.85
5.55
7.22
8.64
9.71
10.42
10.85
11.24
12.13
14.28
18.44
24.89
33.09
41.63
48.63
52.3
51.59
46.32
37.05
24.72
10.25
-5.46
-21.41
-36.39
-48.97
-57.84
-62.19
-61.96
-57.88
-51.22
-43.39
-35.55
-28.36
-21.8
-15.45
-8.65
-0.87
8.05
17.86
27.94
37.51
45.67
51.48
54.05
52.67
47.14
37.94
26.32
14.04
2.88
-5.85
-11.59
-14.5
-15.12
-14.1
-11.89
-8.8
-5.05
-0.82
3.74
8.58
13.73
19.23
24.9
30.3
34.73
37.47
38.06
36.54
33.47
29.77
26.37
23.96
22.79
22.77
23.63
25.11
27.04
29.26
31.57
33.67
35.31
36.43
37.26
38.31
40.12
42.96
46.63
50.43
53.26
53.97
51.69
46.03
37.22
26.03
13.52
0.85
-10.93
-20.98
-28.69
-33.76
-36.28
-36.74
-36.08
-35.42
-35.78
-37.69
-41.13
-45.58
-50.31
-54.76
-58.71
-62.27
-65.79
-69.7
-74.39
-80.12
-86.88
-94.21
-100.99
-105.52
-105.84
-100.41
-88.77
-71.92
-52.12
-32.21
-14.75
-1.33
7.66
12.79
15.11
15.78
15.81
16.05
17.15
19.52
23.22
27.89
32.86
37.41
41.08
43.84
46.07
48.36
51.13
54.26
57.02
58.15
56.24
50.29
40.03
26.13
10
-6.65
-22.27
-35.81
-46.85
-55.42
-61.8
-66.27
-69.01
-70.11
-69.6
-67.52
-63.93
-58.99
-52.98
-46.39
-39.98
-34.74
-31.78
-31.98
-35.74
-42.64
-51.41
-60.1
-66.64
-69.45
-68.03
-63.05
-56.08
-48.88
-42.65
-37.59
-32.93
-27.43
-20.04
-10.45
0.81
12.56
23.37
31.98
37.6
40
39.53
37.05
33.72
30.74
29.12
29.45
31.75
35.53
39.94
44.03
46.93
48.1
47.35
44.92
41.22
36.74
31.8
26.58
21.1
15.38
9.52
3.73
-1.67
-6.4
-10.21
-12.96
-14.57
-14.98
-14.18
-12.24
-9.4
-6.07
-2.87
-0.46
0.68
0.4
-1.05
-3.17
-5.39
-7.42
-9.28
-11.22
-13.48
-16.03
-18.49
-20.28
-20.84
-19.86
-17.37
-13.67
-9.24
-4.53
0.12
4.47
8.38
11.75
14.53
16.68
18.29
19.49
20.55
21.71
23.18
25.01
27.1
29.21
31.06
32.45
33.31
33.69
33.73
33.54
33.24
32.87
32.39
31.73
30.77
29.41
27.62
25.5
23.24
21.14
19.5
18.52
18.24
18.59
19.35
20.3
21.28
22.18
22.93
23.44
23.57
23.2
22.37
21.34
20.66
20.94
22.67
25.96
30.48
35.57
40.47
44.59
47.65
49.67
50.84
51.39
51.52
51.41
51.29
51.34
51.53
51.39
49.94
45.93
38.32
26.79
11.98
-4.66
-21.38
-36.72
-49.9
-60.86
-69.9
-77.31
-83.1
-87.04
-88.88
-88.59
-86.49
-83.15
-79.16
-74.93
-70.54
-65.78
-60.4
-54.31
-47.74
-41.13
-34.97
-29.57
-24.85
-20.46
-15.97
-11.08
-5.81
-0.46
4.55
8.89
12.48
15.46
18.07
20.53
22.91
25.09
26.93
28.33
29.33
30.16
31.11
32.39
34
35.69
37.02
37.5
36.74
34.5
30.78
25.76
19.72
13
5.98
-0.96
-7.42
-13.03
-17.47
-20.57
-22.33
-22.94
-22.77
-22.25
-21.78
-21.61
-21.8
-22.26
-22.82
-23.37
-23.91
-24.51
-25.29
-26.34
-27.69
-29.26
-30.86
-32.09
-32.46
-31.44
-28.72
-24.38
-18.92
-13.15
-7.8
-3.32
0.28
3.34
6.26
9.29
12.38
15.26
17.61
19.24
20.19
20.7
21.08
21.55
22.2
22.93
23.53
23.84
23.76
23.36
22.82
22.31
21.96
21.81
21.83
21.95
22.09
22.18
22.14
21.86
21.2
19.99
18.19
15.88
13.36
10.98
9.08
7.79
7
6.43
5.77
4.81
3.53
2.02
0.42
-1.15
-2.57
-3.56
-3.64
-2.15
1.58
7.95
16.79
27.35
38.42
48.6
56.57
61.25
61.92
58.22
50.23
38.47
23.85
7.5
-9.38
-25.79
-40.93
-54.19
-65.11
-73.27
-78.47
-80.83
-80.89
-79.54
-77.75
-76.27
-75.34
-74.78
-74.05
-72.53
-69.79
-65.7
-60.4
-54.19
-47.39
-40.34
-33.38
-26.9
-21.21
-16.5
-12.66
-9.29
-5.93
-2.27
1.66
5.42
8.38
9.97
9.94
8.43
5.86
2.74
-0.42
-3.19
-5.17
-5.94
-5.15
-2.62
1.5
6.71
12.16
16.92
20.25
21.85
21.76
20.25
17.51
13.53
8.23
1.75
-5.35
-12.01
-17.02
-19.36
-18.51
-14.51
-7.81
0.9
10.79
20.79
29.69
36.32
39.89
40.24
37.91
33.85
29.06
24.31
20.05
16.53
13.9
12.25
11.54
11.55
12
12.63
13.38
14.37
15.74
17.49
19.34
20.81
21.4
20.84
19.25
17.15
15.28
14.35
14.79
16.63
19.56
23.07
26.66
30
32.81
34.86
35.85
35.52
33.8
30.96
27.63
24.62
22.72
22.43
23.9
26.97
31.3
36.45
41.89
46.98
50.86
52.63
51.51
47.19
39.96
30.66
20.4
10.13
0.43
-8.68
-17.52
-26.4
-35.45
-44.46
-53.13
-61.28
-68.86
-75.99
-82.74
-89.02
-94.48
-98.61
-101.01
-101.64
-100.94
-99.55
-98.04
-96.54
-94.57
-91.14
-85.11
-75.75
-63.06
-47.83
-31.33
-14.93
0.28
13.65
25
34.59
43.03
51.31
59.74
67.81
74.71
79.64
81.69
79.94
73.98
64.26
52.13
39.38
27.85
17.24
6.73
-4.28
-15.84
-27.33
-37.58
-44.97
-47.85
-45.43
-36.21
-20.75
-0.92
20.73
41.62
58.17
66.45
65.15
56.19
42.98
28.4
14.45
2.44
-6.84
-13.13
-16.94
-18.66
-19.06
-19.06
-19.44
-20.33
-21.29
-21.66
-20.97
-19.09
-15.45
-10.5
-5.19
-0.65
2.39
3.71
3.48
2.11
0.2
-1.56
-2.75
-3.22
-2.9
-1.89
-0.5
0.84
1.74
1.94
1.37
0.01
-1.93
-4.03
-5.67
-6.25
-5.4
-3.16
-0.04
3.1
5.37
6.29
5.93
4.9
3.92
3.52
3.76
4.18
4.1
3.01
0.98
-1.36
-3.09
-3.25
-0.97
4.67
14.2
27.19
41.55
53.66
59.97
58.67
50.36
37.51
23.33
10.4
-0.09
-8.19
-14.52
-19.43
-22.82
-24.3
-24.09
-22.36
-19.85
-17.48
-15.92
-15.24
-14.97
-14.42
-13.11
-11
-8.4
-5.94
-4.21
-3.57
-4.01
-4.92
-5.81
-6.36
-6.61
-6.78
-7.22
-8.16
-9.54
-11.01
-12.03
-12.25
-11.57
-10.2
-8.53
-6.93
-5.65
-4.7
-3.99
-3.38
-2.86
-2.49
-2.36
-2.53
-2.97
-3.53
-3.98
-4.1
-3.7
-2.73
-1.2
0.77
3
5.32
7.54
9.54
11.26
12.67
13.76
14.52
14.95
15.08
14.95
14.67
14.34
14.01
13.6
12.95
12
10.83
9.62
8.61
7.93
7.64
7.62
7.58
7.22
6.49
5.52
4.58
3.84
3.36
3.1
2.97
2.64
1.86
0.62
-0.84
-2.3
-3.7
-5.18
-6.86
-8.83
-11.42
-14.88
-19.27
-24.36
-29.79
-35.17
-40.12
-44.24
-45.3
-41.99
-34.96
-26.42
-18.36
-11.38
-5.21
0.6
6.23
11.53
15.92
19.36
22.06
24.35
26.55
28.65
30.51
32.07
33.39
34.52
35.7
37.46
39.17
40.48
41
40.58
39.35
37.53
35.16
32.15
28.37
23.3
16.51
7.77
-2.67
-14.4
-27.25
-41.54
-57.69
-73.02
-83.83
-87.27
-83.24
-73.65
-60.89
-47.11
-33.87
-21.98
-11.65
-3.16
3.12
6.89
8.3
7.95
6.67
5.28
4.66
5.37
7.21
9.5
11.35
12.06
11.16
8.32
3.69
-2.06
-7.8
-12.4
-14.9
-14.65
-11.38
-4.57
5.02
15.79
25.72
33.01
36.54
36.16
32.76
27.92
23.27
19.91
18.33
18.42
19.64
21.22
22.34
22.35
20.93
18.21
14.69
11.16
8.44
7.07
7.1
8.03
9.06
9.35
8.26
5.58
1.55
-3.14
-7.64
-11.14
-13.1
-13.41
-12.39
-10.71
-9.14
-8.33
-8.57
-9.76
-11.51
-13.3
-14.71
-15.45
-15.4
-14.57
-13.04
-10.92
-8.39
-5.62
-2.84
-0.24
2.01
3.78
5.01
5.68
5.84
5.58
4.98
4.15
3.12
1.97
0.76
-0.48
-1.7
-2.9
-4.11
-5.36
-6.58
-7.7
-8.64
-9.35
-9.88
-10.34
-10.82
-11.37
-11.97
-12.58
-13.17
-13.75
-14.27
-14.59
-14.44
-13.54
-11.7
-8.93
-5.45
-1.66
2
5.17
7.66
9.47
10.73
11.59
12.14
12.4
12.34
11.96
11.37
10.73
10.26
10.04
10
9.94
9.61
8.9
7.88
6.83
6.04
5.73
5.95
6.53
7.22
7.81
8.2
8.45
8.74
9.22
9.93
10.78
11.54
11.99
12
11.56
10.75
9.75
8.73
7.93
7.63
8.12
9.65
12.35
16.15
20.82
26.03
31.47
36.89
42.1
46.97
51.28
54.74
56.98
57.67
56.6
53.82
49.69
44.82
39.88
35.39
31.46
27.71
23.45
17.97
10.87
2.3
-7.07
-16.32
-24.56
-31.29
-36.5
-40.61
-44.24
-47.93
-51.96
-56.28
-60.63
-64.67
-68.21
-71.25
-73.91
-76.3
-78.39
-80.05
-81.04
-81.06
-79.8
-76.8
-71.46
-63.24
-51.91
-37.9
-22.39
-7.01
6.59
17.35
25.06
30.19
33.48
35.4
35.93
34.61
30.92
24.64
16.13
6.25
-3.83
-13.06
-20.72
-26.57
-30.7
-33.33
-34.62
-34.58
-33.17
-30.41
-26.59
-22.22
-17.94
-14.39
-11.95
-10.7
-10.36
-10.42
-10.33
-9.71
-8.49
-6.96
-5.63
-4.99
-5.27
-6.34
-7.73
-8.83
-9.01
-7.79
-4.86
-0.19
5.9
12.67
18.95
23.37
24.71
22.28
16.16
7.17
-3.46
-14.49
-25.04
-34.66
-43.25
-50.77
-56.97
-61.39
-63.48
-62.88
-59.65
-54.29
-47.56
-40.2
-32.66
-25.09
-17.45
-9.68
-1.86
5.94
13.75
21.89
30.81
40.72
51.18
60.96
68.32
71.64
70.13
64.22
55.31
45.1
34.76
24.54
13.99
2.64
-9.3
-20.67
-29.72
-34.88
-35.44
-31.88
-25.57
-18.1
-10.69
-3.9
2.18
7.65
12.39
16.09
18.4
19.22
18.85
17.96
17.27
17.26
17.87
18.61
18.72
17.63
15.21
11.87
8.31
5.2
2.87
1.23
-0.12
-1.58
-3.37
-5.5
-7.8
-10.24
-12.95
-16.18
-20.21
-25.13
-30.76
-36.59
-41.91
-45.84
-47.58
-46.62
-42.89
-36.93
-29.73
-22.47
-16.12
-11.17
-7.53
-4.71
-2.11
0.68
3.66
6.53
8.83
10.21
10.59
10.23
9.71
9.73
10.93
13.62
17.73
22.75
27.88
32.26
35.22
36.52
36.31
35.1
33.51
32.02
30.76
29.54
27.98
25.8
22.98
19.89
17.15
15.39
15.05
16.13
18.2
20.48
22.09
22.36
21.11
18.73
16.13
14.41
14.42
16.41
20.01
24.34
28.5
31.81
34.09
35.53
36.57
37.67
39.24
41.61
44.9
48.85
52.71
55.33
55.46
52.35
46.1
37.85
29.38
22.43
18.05
16.27
16.3
16.99
17.37
16.95
15.66
13.62
10.82
7.15
2.42
-3.38
-10.02
-17.05
-24
-30.53
-36.57
-42.15
-47.27
-51.75
-55.2
-57.23
-57.65
-56.67
-54.8
-52.69
-50.8
-49.2
-47.64
-45.71
-43.13
-39.87
-36.11
-32.13
-28.05
-23.87
-19.47
-14.84
-10.14
-5.64
-1.74
1.32
3.52
5.11
6.62
8.62
11.62
15.81
21.01
26.69
32.14
36.68
39.83
41.36
41.22
39.42
35.98
30.96
24.53
17.04
9.06
1.31
-5.48
-10.7
-13.96
-15.12
-14.35
-12.11
-9.05
-5.92
-3.35
-1.71
-0.97
-0.72
-0.36
0.72
2.91
6.3
10.66
15.6
20.76
25.89
30.92
35.88
40.71
45.24
49.11
51.91
53.35
53.32
51.89
49.15
45.03
39.32
31.73
22.1
10.63
-2.09
-15.12
-27.39
-37.97
-46.19
-51.79
-54.82
-55.57
-54.45
-51.86
-48.18
-43.71
-38.74
-33.45
-28.04
-22.66
-17.5
-12.74
-8.55
-5.04
-2.16
0.26
2.45
4.57
6.62
8.44
9.83
10.63
10.87
10.73
10.48
10.34
10.37
10.5
10.52
10.17
9.31
7.94
6.3
4.72
3.56
3.02
3.06
3.44
3.84
3.96
3.67
3.01
2.12
1.14
0.21
-0.64
-1.4
-2.12
-2.89
-3.84
-5.08
-6.66
-8.5
-10.35
-11.82
-12.54
-12.24
-10.87
-8.56
-5.64
-2.53
0.35
2.67
4.27
5.14
5.44
5.34
5
4.5
3.81
2.92
1.86
0.72
-0.34
-1.21
-1.86
-2.28
-2.51
-2.59
-2.48
-2.16
-1.61
-0.81
0.22
1.42
2.67
3.83
4.73
5.28
5.48
5.4
5.17
4.87
4.43
3.68
2.39
0.43
-2.21
-5.28
-8.41
-11.11
-12.95
-13.68
-13.24
-11.85
-9.92
-7.96
-6.45
-5.64
-5.54
-5.91
-6.43
-6.75
-6.69
-6.26
-5.73
-5.57
-6.33
-8.48
-12.2
-17.19
-22.68
-27.58
-30.81
-31.6
-29.75
-25.6
-19.94
-13.72
-7.81
-2.81
0.96
3.47
4.87
5.39
5.3
4.94
4.66
4.86
5.87
7.81
10.47
13.3
15.63
16.85
16.69
15.31
13.17
10.83
8.72
7.02
5.7
4.68
3.89
3.41
3.36
3.84
4.82
6.2
7.77
9.42
11.07
12.72
14.38
16.02
17.52
18.72
19.47
19.68
19.32
18.43
17.13
15.56
13.87
12.21
10.69
9.35
8.13
6.91
5.59
4.09
2.44
0.74
-0.91
-2.4
-3.67
-4.75
-5.71
-6.68
-7.76
-8.95
-10.19
-11.34
-12.24
-12.82
-13.11
-13.23
-13.31
-13.45
-13.61
-13.8
-13.9
-13.81
-13.37
-12.44
-10.99
-9.07
-6.75
-4.12
-1.44
1.04
3.1
4.61
5.49
5.73
5.47
5
4.72
4.71
4.84
4.86
4.53
3.65
2.16
0.18
-2
-4.05
-6.06
-8.31
-11.05
-14.3
-17.99
-22.06
-26.63
-31.98
-36.32
-38.04
-36.35
-31.55
-24.3
-15.24
-5.12
4.91
13.64
20.24
24.23
25.77
25.51
24.22
22.36
20.11
17.38
14.37
11.62
9.6
8.75
9.28
11.11
13.84
16.87
19.65
21.85
23.4
24.19
24.06
23.06
21.22
18.71
15.82
12.95
10.56
9.02
8.4
8.48
8.85
9.11
8.96
8.3
7.21
5.84
4.39
2.94
1.54
0.2
-1.1
-2.35
-3.56
-4.7
-5.74
-6.62
-7.32
-7.9
-8.48
-9.23
-10.29
-11.66
-13.22
-14.75
-16.01
-16.83
-17.17
-17.09
-16.66
-15.96
-15.06
-14.06
-13.14
-12.54
-12.39
-12.64
-12.93
-12.78
-11.74
-9.72
-7.03
-4.32
-2.3
-1.54
-2.3
-4.55
-8.12
-12.73
-18
-23.36
-28.05
-31.27
-32.42
-31.41
-28.66
-24.99
-21.25
-17.97
-15.22
-12.65
-9.81
-6.41
-2.51
1.47
4.96
7.42
8.49
7.99
5.89
2.24
-2.78
-8.82
-15.32
-21.56
-26.82
-30.57
-32.66
-33.33
-33.06
-32.37
-31.59
-30.78
-29.72
-28.12
-25.77
-22.61
-18.81
-14.64
-10.44
-6.42
-2.69
0.81
4.18
7.55
10.91
14.12
16.92
19.05
20.43
21.19
21.74
22.57
24.07
26.35
29.22
32.23
34.85
36.67
37.42
37.08
35.81
33.9
31.71
29.6
27.84
26.61
25.96
25.83
26.19
27.01
28.28
29.92
31.81
33.76
35.56
37.11
38.37
39.38
40.15
40.58
40.49
39.62
37.83
35.18
32.04
29.04
26.9
26.22
27.18
29.49
32.33
34.68
35.6
34.63
31.89
28.04
23.96
20.39
17.64
15.61
13.83
11.79
9.12
5.69
1.58
-3.01
-7.94
-13.11
-18.43
-23.74
-28.82
-33.48
-37.73
-41.79
-46.12
-51.15
-57.06
-63.65
-70.33
-76.4
-81.26
-84.66
-86.7
-87.71
-88.07
-88.05
-87.82
-87.52
-87.29
-87.31
-87.78
-88.78
-90.15
-91.44
-91.9
-90.56
-86.43
-78.81
-67.61
-53.46
-37.72
-22.07
-8.05
3.35
11.97
18.22
22.83
26.36
29.07
30.9
31.74
31.68
31.02
30.22
29.67
29.48
29.52
29.47
29.09
28.32
27.3
26.37
25.81
25.8
26.32
27.18
28.13
28.9
29.33
29.35
28.97
28.25
27.25
26.03
24.6
22.98
21.19
19.26
17.22
15.13
12.97
10.73
8.4
6.05
3.88
2.21
1.32
1.39
2.33
3.84
5.53
7.08
8.36
9.39
10.28
10.99
11.37
11.18
10.3
8.79
6.96
5.21
3.88
3.12
2.85
2.86
2.95
2.97
2.87
2.65
2.33
1.91
1.37
0.67
-0.16
-1.08
-1.99
-2.78
-3.38
-3.79
-4.06
-4.32
-4.67
-5.17
-5.78
-6.5
-7.35
-8.45
-9.91
-11.75
-13.76
-15.49
-16.39
-15.99
-14.15
-11.08
-7.34
-3.57
-0.31
2.17
3.84
4.76
5.03
4.66
3.57
1.75
-0.73
-3.66
-6.72
-9.54
-11.87
-13.6
-14.82
-15.72
-16.5
-17.27
-17.91
-18.17
-17.71
-16.27
-13.77
-10.35
-6.36
-2.25
1.47
4.39
6.25
7.02
6.91
6.29
5.56
4.97
4.56
4.14
3.47
2.37
0.84
-0.97
-2.75
-4.17
-4.88
-4.55
-2.93
0.13
4.54
10.04
16.18
22.46
28.49
34.01
38.94
43.27
47.03
50.19
52.75
54.7
56.09
56.99
57.52
57.79
57.93
58.04
58.16
58.28
58.28
57.98
57.19
55.75
53.55
50.58
46.87
42.48
37.5
32.06
26.34
20.55
14.88
9.46
4.27
-0.8
-5.94
-11.24
-16.69
-22.14
-27.32
-31.95
-35.8
-38.7
-40.51
-41.05
-40.16
-37.71
-33.81
-28.83
-23.43
-18.37
-14.32
-11.62
-10.23
-9.81
-9.87
-10.03
-10.14
-10.28
-10.59
-11.18
-11.97
-12.66
-12.9
-12.39
-11.02
-8.93
-6.44
-3.94
-1.81
-0.29
0.56
0.84
0.75
0.52
0.33
0.26
0.27
0.23
-0.03
-0.68
-1.87
-3.69
-6.2
-9.39
-13.16
-17.36
-21.74
-26.07
-30.11
-33.66
-36.49
-38.25
-38.44
-36.57
-32.3
-25.72
-17.47
-8.56
-0.14
6.96
12.47
16.64
20.02
23.01
25.65
27.65
28.54
28.09
26.47
24.2
22
20.46
19.86
20.11
20.86
21.68
22.17
22.1
21.37
20.01
18.19
16.18
14.34
13
12.43
12.71
13.73
15.17
16.62
17.63
17.86
17.11
15.4
12.93
10
6.93
3.96
1.2
-1.41
-3.98
-6.59
-9.24
-11.89
-14.5
-17.09
-19.67
-22.25
-24.72
-26.86
-28.49
-29.54
-30.14
-30.48
-30.67
-30.65
-30.1
-28.67
-26.15
-22.62
-18.42
-14.01
-9.81
-6.03
-2.75
0.1
2.56
4.68
6.51
8.17
9.76
11.42
13.15
14.89
16.45
17.66
18.37
18.52
18.05
16.95
15.14
12.55
9.21
5.3
1.25
-2.44
-5.33
-7.22
-8.2
-8.54
-8.62
-8.7
-8.93
-9.38
-10.05
-11
-12.26
-13.86
-15.78
-18.06
-20.79
-24
-27.53
-30.9
-33.32
-34.02
-32.57
-29.17
-24.65
-20.07
-16.36
-13.94
-12.64
-11.94
-11.35
-10.67
-10.11
-10.13
-11.24
-13.8
-17.95
-23.6
-30.42
-37.82
-44.9
-50.5
-53.45
-52.92
-48.83
-42
-34.01
-26.57
-20.93
-17.38
-15.31
-13.66
-11.58
-8.91
-6.17
-4.19
-3.57
-4.35
-6.06
-7.98
-9.59
-10.7
-11.38
-11.72
-11.67
-10.98
-9.44
-7.05
-4.2
-1.52
0.31
0.81
-0.16
-2.36
-5.23
-8.01
-9.95
-10.46
-9.3
-6.64
-2.93
1.31
5.74
10.35
15.41
21.18
27.61
34.27
40.35
45.06
47.92
48.95
48.58
47.35
45.64
43.58
41.14
38.34
35.43
32.87
31.01
29.97
29.45
28.9
27.74
25.67
22.77
19.46
16.31
13.85
12.38
11.93
12.29
13.05
13.74
13.95
13.42
12.14
10.27
8.1
5.94
3.99
2.39
1.14
0.19
-0.59
-1.36
-2.28
-3.43
-4.72
-5.84
-6.3
-5.6
-3.34
0.49
5.57
11.27
16.93
22.05
26.37
29.91
32.77
35.08
36.87
38.2
39.18
40.04
41.03
42.33
43.83
45.16
45.8
45.24
43.21
39.75
35.2
29.98
24.44
18.74
12.88
6.81
0.62
-5.4
-10.85
-15.3
-18.5
-20.46
-21.43
-21.79
-21.99
-22.34
-23.07
-24.22
-25.7
-27.3
-28.74
-29.77
-30.28
-30.38
-30.46
-31.06
-32.73
-35.86
-40.51
-46.36
-52.76
-58.84
-63.75
-66.85
-67.97
-67.41
-65.84
-63.92
-61.98
-59.83
-56.85
-52.37
-46.02
-38.06
-29.29
-20.72
-13.22
-7.19
-2.52
1.2
4.42
7.46
10.39
13.11
15.48
17.36
18.72
19.55
19.87
19.67
18.92
17.6
15.79
13.65
11.39
9.23
7.35
5.84
4.73
3.97
3.5
3.26
3.12
2.97
2.68
2.15
1.29
0.1
-1.38
-2.98
-4.52
-5.78
-6.7
-7.43
-8.34
-9.93
-12.53
-16.13
-20.28
-24.21
-27.11
-28.37
-27.83
-25.66
-22.32
-18.26
-13.9
-9.56
-5.54
-2.13
0.44
2.13
3.18
4.07
5.35
7.38
10.18
13.45
16.66
19.3
21.09
22.07
22.48
22.65
22.83
23.16
23.65
24.3
25.09
26.03
26.99
27.77
28.03
27.47
25.96
23.6
20.71
17.73
14.96
12.57
10.51
8.7
7.07
5.65
4.49
3.64
2.98
2.29
1.32
-0.12
-2.1
-4.44
-6.82
-8.78
-9.88
-9.79
-8.41
-5.92
-2.73
0.66
3.78
6.39
8.47
10.22
11.88
13.57
15.22
16.6
17.48
17.73
17.42
16.77
16.11
15.68
15.6
15.83
16.19
16.46
16.44
16.07
15.35
14.4
13.34
12.31
11.36
10.49
9.7
8.99
8.4
7.97
7.68
7.4
6.98
6.23
5.1
3.68
2.12
0.62
-0.71
-1.88
-2.96
-4.01
-5.07
-6.14
-7.21
-8.35
-9.64
-11.12
-12.64
-13.9
-14.51
-14.12
-12.65
-10.27
-7.34
-4.32
-1.52
0.94
3.06
4.92
6.52
7.77
8.54
8.76
8.48
7.89
7.24
6.75
6.51
6.52
6.68
6.9
7.13
7.43
7.81
8.24
8.55
8.56
8.06
6.99
5.48
3.81
2.34
1.36
1
1.17
1.58
1.87
1.7
0.88
-0.55
-2.39
-4.3
-5.98
-7.2
-7.94
-8.36
-8.73
-9.34
-10.39
-11.91
-13.7
-15.41
-16.58
-16.86
-16.05
-14.22
-11.66
-8.8
-6.05
-3.73
-1.93
-0.58
0.45
1.27
1.88
2.17
2.01
1.39
0.39
-0.81
-2.06
-3.27
-4.4
-5.39
-6.17
-6.6
-6.6
-6.19
-5.48
-4.63
-3.7
-2.68
-1.53
-0.2
1.26
2.76
4.2
5.53
6.75
7.88
8.87
9.66
10.18
10.41
10.39
10.21
9.96
9.66
9.24
8.56
7.47
5.84
3.67
1.12
-1.5
-3.69
-5.02
-5.19
-4.19
-2.35
-0.17
1.8
3.23
4.07
4.5
4.82
5.23
5.79
6.41
6.96
7.38
7.67
7.88
8.05
8.15
8.1
7.84
7.33
6.67
6.01
5.53
5.3
5.28
5.29
5.06
4.33
2.99
1.14
-0.95
-2.93
-4.53
-5.63
-6.31
-6.73
-7.08
-7.44
-7.82
-8.17
-8.46
-8.73
-9.08
-9.59
-10.31
-11.19
-12.16
-13.17
-14.23
-15.38
-16.6
-17.72
-18.42
-18.31
-17.15
-14.93
-11.94
-8.67
-5.61
-3.03
-0.99
0.63
1.99
3.15
4.08
4.71
4.99
4.99
4.81
4.58
4.38
4.23
4.08
3.89
3.64
3.31
2.97
2.67
2.49
2.43
2.45
2.43
2.24
1.79
1.12
0.32
-0.45
-1.06
-1.48
-1.78
-2.11
-2.6
-3.29
-4.1
-4.87
-5.43
-5.73
-5.87
-6.03
-6.43
-7.2
-8.35
-9.75
-11.2
-12.45
-13.24
-13.36
-12.67
-11.19
-9.11
-6.71
-4.32
-2.15
-0.25
1.39
2.85
4.14
5.19
5.9
6.19
6.09
5.72
5.27
4.92
4.8
4.96
5.32
5.76
6.14
6.34
6.31
6.1
5.81
5.53
5.36
5.26
5.17
5.01
4.73
4.38
4.07
3.93
4.02
4.31
4.63
4.82
4.76
4.47
4.08
3.77
3.62
3.57
3.49
3.16
2.42
1.26
-0.21
-1.75
-3.01
-3.65
-3.46
-2.36
-0.51
1.77
4.06
5.98
7.29
7.95
8.11
7.99
7.83
7.71
7.6
7.33
6.72
5.66
4.2
2.54
0.93
-0.42
-1.41
-2.09
-2.61
-3.11
-3.69
-4.36
-5.13
-5.98
-6.86
-7.72
-8.42
-8.8
-8.69
-8.01
-6.81
-5.25
-3.57
-1.98
-0.62
0.5
1.47
2.41
3.45
4.64
5.94
7.22
8.24
8.74
8.56
7.69
6.37
4.98
4.01
3.78
4.4
5.71
7.37
9
10.26
11.01
11.2
10.9
10.17
9.06
7.58
5.71
3.5
1.05
-1.44
-3.73
-5.57
-6.8
-7.39
-7.42
-7.11
-6.69
-6.38
-6.4
-6.85
-7.77
-9.05
-10.46
-11.66
-12.38
-12.47
-11.99
-11.17
-10.33
-9.75
-9.61
-9.92
-10.59
-11.43
-12.26
-12.96
-13.51
-13.98
-14.55
-15.35
-16.42
-17.64
-18.82
-19.78
-20.38
-20.55
-20.21
-19.25
-17.52
-15
-11.88
-8.54
-5.42
-2.82
-0.7
1.28
3.5
6.09
8.81
11.05
12.23
12.07
10.74
8.85
7.1
5.97
5.61
5.84
6.36
6.95
7.52
8.04
8.49
8.72
8.55
7.86
6.66
5.12
3.57
2.35
1.73
1.83
2.54
3.62
4.76
5.68
6.3
6.72
7.13
7.76
8.73
9.96
11.29
12.51
13.53
14.35
15.07
15.86
16.86
18.23
20.1
22.62
25.87
29.76
34.06
38.36
42.21
45.17
46.87
47.1
45.74
42.76
38.19
32.12
24.78
16.51
7.78
-0.91
-9.09
-16.36
-22.5
-27.54
-31.68
-35.24
-38.5
-41.64
-44.78
-47.92
-51.12
-54.46
-58.09
-62.09
-66.24
-70.11
-73.19
-75.29
-76.48
-77.21
-78.1
-79.71
-82.41
-85.95
-89.66
-92.82
-94.97
-95.9
-95.5
-93.7
-90.52
-86.1
-80.29
-72.79
-63.48
-52.56
-40.35
-27.11
-13.11
1.15
14.97
28.07
40.66
53.1
65.56
78.19
91.34
105.37
120.46
133.43
139.87
137.48
127.75
113.76
97.98
82.04
67.05
53.72
42.31
33.08
26.23
21.44
17.84
14.34
10.19
5.14
-0.6
-6.58
-11.9
-15.54
-17.24
-17.05
-15.55
-13.4
-11.18
-9.33
-8.2
-7.76
-7.59
-7.25
-6.48
-5.31
-3.89
-2.51
-1.6
-1.67
-2.94
-5.1
-7.56
-9.65
-10.86
-10.87
-9.58
-7.22
-4.36
-1.62
0.7
2.55
4.04
5.36
6.79
8.62
10.96
13.69
15.37
14.96
12.15
7.58
2.43
-2.09
-4.93
-5.35
-3.09
1.89
9.03
17.25
25.09
31.05
33.97
33.57
30.53
26.35
21.42
17.19
14.87
14.84
16.71
19.43
21.99
23.73
24.27
23.31
20.77
16.5
10.44
2.85
-5.91
-15.05
-23.6
-30.67
-35.74
-38.54
-39.23
-38.26
-34.97
-29.62
-23.23
-16.89
-11.23
-6.57
-3.24
-1.53
-1.4
-2.12
-2.69
-2.04
0.37
4.33
8.94
13.08
15.99
17.51
18.07
18.13
18.11
18.21
18.38
18.39
17.71
16.19
13.89
11.04
7.8
4.32
0.76
-2.69
-5.79
-8.33
-10.08
-10.95
-11.05
-10.72
-10.4
-10.46
-11.09
-12.27
-13.75
-15.09
-15.81
-15.51
-14.01
-11.39
-7.96
-4.14
-0.38
3.03
5.98
8.54
10.81
12.83
14.5
15.65
16.13
15.86
14.91
13.48
11.76
9.95
8.17
6.52
5.09
3.94
3.13
2.69
2.66
3.02
3.74
4.72
5.79
6.76
7.43
7.69
7.44
6.67
5.39
3.67
1.61
-0.7
-3.24
-6.17
-9.74
-14.25
-19.75
-25.85
-31.75
-36.4
-38.85
-38.65
-35.98
-31.58
-26.42
-21.41
-17.07
-13.46
-10.3
-7.14
-3.56
0.7
5.65
11.08
16.57
21.65
25.79
28.66
30.1
30.23
29.39
28.04
26.62
25.45
24.72
24.43
24.46
24.6
24.58
24.17
23.17
21.57
19.46
17.09
14.72
12.52
10.54
8.71
6.96
5.27
3.73
2.52
1.91
2.15
3.44
5.87
9.29
13.35
17.41
20.76
22.7
22.87
21.33
18.47
14.87
10.96
6.9
2.55
-2.34
-7.87
-13.84
-19.78
-25.06
-29.16
-31.82
-33.09
-33.27
-32.8
-32.14
-31.69
-31.77
-32.56
-34.07
-36.08
-38.19
-39.88
-40.64
-40.12
-38.25
-35.22
-31.48
-27.55
-23.89
-20.82
-18.44
-16.68
-15.33
-14.21
-13.18
-12.22
-11.4
-10.89
-10.89
-11.62
-13.19
-15.58
-18.52
-21.47
-23.78
-24.84
-24.34
-22.36
-19.34
-15.89
-12.54
-9.61
-7.13
-5.01
-3.13
-1.51
-0.24
0.56
0.84
0.67
0.18
-0.41
-0.92
-1.23
-1.31
-1.24
-1.15
-1.19
-1.44
-1.88
-2.41
-2.92
-3.29
-3.41
-3.19
-2.51
-1.3
0.35
2.16
3.68
4.51
4.46
3.71
2.74
2.04
1.91
2.22
2.64
2.8
2.55
1.97
1.17
0.11
-1.46
-3.77
-6.67
-9.49
-11.15
-10.65
-7.67
-2.82
2.55
6.98
9.57
10.29
9.9
9.33
9.26
9.86
10.85
11.94
12.98
14.09
15.56
17.59
20.24
23.4
26.97
30.85
34.96
39.14
43.11
46.44
48.65
49.32
48.17
45.2
40.66
34.98
28.72
22.41
16.38
10.83
5.81
1.36
-2.44
-5.44
-7.56
-8.83
-9.39
-9.51
-9.44
-9.33
-9.31
-9.4
-9.72
-10.35
-11.41
-12.87
-14.57
-16.23
-17.57
-18.43
-18.86
-19.05
-19.32
-19.91
-20.85
-21.93
-22.72
-22.72
-21.6
-19.29
-16.07
-12.4
-8.8
-5.64
-3.04
-0.97
0.69
2.05
3.14
3.95
4.47
4.76
4.9
4.97
5
4.96
4.77
4.37
3.75
3.02
2.37
2.02
2.13
2.78
3.89
5.25
6.56
7.56
8.08
8.1
7.74
7.17
6.5
5.75
4.89
3.86
2.69
1.49
0.42
-0.42
-1.07
-1.7
-2.51
-3.61
-4.95
-6.34
-7.54
-8.47
-9.19
-9.91
-10.85
-12.1
-13.48
-14.69
-15.28
-14.95
-13.58
-11.32
-8.49
-5.49
-2.65
-0.15
1.98
3.84
5.57
7.23
8.85
10.41
11.9
13.28
14.5
15.47
16.05
16.13
15.68
14.78
13.61
12.37
11.23
10.31
9.66
9.33
9.31
9.54
9.86
10.08
10.09
9.85
9.51
9.23
9.16
9.28
9.46
9.55
9.48
9.35
9.32
9.48
9.74
9.83
9.47
8.53
7.13
5.62
4.35
3.55
3.13
2.82
2.26
1.25
-0.28
-2.21
-4.41
-6.73
-9.03
-11.08
-12.55
-13.08
-12.42
-10.58
-7.84
-4.68
-1.61
1.01
3.04
4.55
5.67
6.49
7.02
7.16
6.81
5.95
4.68
3.24
1.94
1.05
0.73
0.95
1.51
2.16
2.67
2.9
2.87
2.66
2.44
2.37
2.57
3.07
3.81
4.63
5.27
5.51
5.21
4.37
3.15
1.82
0.65
-0.18
-0.66
-0.98
-1.47
-2.55
-4.58
-7.73
-11.91
-16.8
-21.92
-26.73
-30.77
-33.65
-35.13
-35.04
-33.29
-29.94
-25.22
-19.53
-13.37
-7.2
-1.3
4.19
9.32
14.13
18.69
23
27.06
30.91
34.62
38.19
41.49
44.25
46.1
46.72
45.93
43.73
40.31
35.95
31.01
25.92
21.13
17.12
14.28
12.78
12.54
13.18
14.09
14.64
14.35
12.98
10.59
7.39
3.65
-0.5
-5.02
-9.87
-14.95
-20.06
-24.97
-29.43
-33.16
-35.89
-37.38
-37.46
-36.12
-33.53
-30.09
-26.45
-23.14
-20.49
-18.53
-17.22
-16.52
-16.37
-16.78
-17.72
-19.47
-22.06
-25.14
-28.18
-30.75
-32.66
-33.98
-34.93
-35.82
-37.57
-40.66
-44.75
-48.98
-52.59
-55.11
-56.36
-56.35
-55.34
-54.76
-55.51
-57.4
-59.45
-60.83
-61.06
-60.01
-57.7
-54.3
-51.52
-50.34
-50.48
-50.95
-51.05
-50.49
-48.93
-45.6
-31.1
-2.59
34.46
70.66
99.5
118.6
127.91
128.52
122.22
111.29
96.78
80.24
63.96
50.15
39.96
33.4
29.88
28.67
29.03
29.17
27.86
24.99
21.24
17.35
13.76
10.69
8.25
6.38
4.18
1.48
-1.22
-3.08
-3.61
-2.91
-1.48
0.07
1.33
1.86
1.8
1.63
1.95
3.03
4.81
6.91
8.84
9.91
9.08
5.63
-0.44
-8.08
-15.34
-19.97
-20.38
-16.41
-9.51
-2.09
3.65
6.62
7.18
6.63
6.23
6.57
7.37
7.93
7.77
7.02
6.33
6.36
7.51
9.38
11.3
12.7
13.36
13.47
13.41
13.4
13.37
12.98
11.85
9.86
7.2
4.35
1.79
-0.11
-1.21
-1.71
-1.89
-2.06
-2.41
-2.99
-3.78
-4.66
-5.47
-5.93
-5.76
-4.75
-2.89
-0.4
2.22
4.37
5.24
4.34
1.74
-2.01
-6.01
-9.41
-11.61
-12.45
-12.12
-11.05
-9.67
-8.4
-7.53
-7.25
-7.61
-8.52
-9.76
-11.15
-12.52
-13.73
-14.69
-15.34
-15.72
-15.95
-16.2
-16.64
-17.22
-17.58
-17.11
-15.18
-11.52
-6.44
-0.78
4.36
8.02
9.77
9.74
8.54
6.94
5.58
4.85
4.84
5.42
6.38
7.49
8.65
9.84
11.05
12.28
13.41
14.27
14.68
14.53
13.84
12.71
11.36
10.04
8.95
8.2
7.74
7.3
6.44
4.76
2.05
-1.48
-5.25
-8.5
-10.56
-11.15
-10.4
-8.77
-6.84
-5.13
-3.95
-3.46
-3.58
-4
-4.19
-3.5
-1.36
2.4
7.28
12.22
15.81
16.8
14.58
9.39
2.24
-5.46
-12.32
-17.25
-19.59
-18.97
-15.11
-7.81
2.96
16.69
32.17
47.5
60.51
69.43
73.34
72.38
67.46
59.74
50.27
39.74
28.74
17.94
8.2
0.37
-5.01
-7.93
-8.93
-8.78
-8.22
-7.69
-7.36
-7.24
-7.32
-7.64
-8.26
-9.23
-10.48
-11.9
-13.34
-14.75
-16.17
-17.67
-19.29
-20.99
-22.65
-24.13
-25.34
-26.19
-26.55
-26.22
-24.98
-22.66
-19.33
-15.29
-11.03
-7.01
-3.52
-0.65
1.7
3.63
5.12
6.13
6.59
6.55
6.2
5.79
5.52
5.45
5.46
5.4
5.08
4.49
3.68
2.81
1.96
1.14
0.27
-0.75
-1.97
-3.31
-4.62
-5.77
-6.64
-7.21
-7.46
-7.42
-7.08
-6.46
-5.61
-4.68
-3.88
-3.4
-3.39
-3.9
-4.84
-6.03
-7.24
-8.25
-8.84
-8.84
-8.11
-6.61
-4.42
-1.75
1.06
3.63
5.68
7.12
8.09
8.91
9.94
11.44
13.51
16.05
18.86
21.67
24.27
26.46
28.09
29.05
29.31
28.96
28.26
27.58
27.26
27.51
28.28
29.24
29.93
29.84
28.65
26.32
23.07
19.31
15.54
12.15
9.38
7.26
5.6
4.14
2.59
0.81
-1.17
-3.17
-4.9
-6.13
-6.77
-6.88
-6.72
-6.55
-6.54
-6.75
-7.03
-7.16
-6.87
-6.02
-4.7
-3.31
-2.41
-2.64
-4.43
-7.8
-12.38
-17.53
-22.58
-27.09
-30.94
-34.21
-37.07
-39.59
-41.74
-43.45
-44.66
-45.43
-45.86
-46.01
-45.89
-45.48
-44.72
-43.64
-42.36
-41.04
-39.83
-38.8
-37.91
-37
-35.9
-34.46
-32.65
-30.56
-28.37
-26.28
-24.38
-22.65
-20.85
-18.63
-15.61
-11.46
-6.15
0.01
6.27
11.63
15.1
16.06
14.53
11.21
7.28
3.99
2.24
2.31
3.93
6.4
8.96
11.01
12.31
12.89
12.99
12.88
12.75
12.67
12.63
12.59
12.58
12.6
12.57
12.33
11.6
10.18
7.98
5.17
2.14
-0.63
-2.74
-3.92
-4.06
-3.18
-1.35
1.28
4.47
7.89
11.08
13.63
15.2
15.63
14.95
13.32
11
8.3
5.57
3.09
1.15
-0.13
-0.83
-1.21
-1.67
-2.57
-4.08
-6.13
-8.35
-10.17
-11.02
-10.5
-8.56
-5.55
-2.05
1.32
4.1
6.21
7.91
9.67
11.75
14.06
16.19
17.7
18.34
18.14
17.39
16.58
16.15
16.13
16.17
15.89
15.09
13.83
12.21
10.26
8.03
5.62
2.95
-0.17
-3.88
-8.18
-12.9
-17.85
-22.44
-25.55
-25.74
-21.93
-13.94
-2.38
11.65
27.04
42.69
55.8
62.71
61.78
54.46
43.32
30.41
17.11
5.18
-5.34
-14.12
-20.61
-24.39
-25.67
-25.42
-24.06
-22.21
-20.26
-18.48
-16.81
-14.92
-12.39
-9.04
-5.12
-1.08
2.53
5.24
6.66
6.74
5.74
4.19
2.61
1.27
0.25
-0.54
-1.24
-2.09
-3.22
-4.68
-6.39
-8.11
-9.5
-10.15
-9.74
-8.17
-5.69
-2.76
0.05
2.31
3.8
4.52
4.59
4.17
3.45
2.62
1.86
1.28
0.89
0.52
-0.03
-0.92
-2.16
-3.65
-5.29
-7.02
-8.87
-10.88
-12.91
-14.63
-15.56
-15.32
-13.78
-11.1
-7.64
-3.76
0.36
4.67
9.15
13.68
17.93
21.51
24.1
25.63
26.27
26.33
26.01
25.3
23.99
21.85
18.86
15.26
11.53
8.16
5.44
3.45
2.06
1.05
0.31
-0.17
-0.32
-0.07
0.62
1.68
3.03
4.48
5.82
6.77
7.11
6.75
5.83
4.75
4.01
3.96
4.65
5.74
6.67
6.93
6.25
4.72
2.68
0.55
-1.31
-2.65
-3.29
-3.15
-2.22
-0.67
1.21
3.01
4.39
5.14
5.28
4.95
4.26
3.22
1.69
-0.5
-3.4
-6.9
-10.71
-14.46
-17.86
-20.8
-23.42
-25.97
-28.73
-31.87
-35.37
-39.07
-42.65
-45.73
-47.95
-48.99
-48.62
-46.8
-43.76
-39.98
-36.1
-32.61
-29.53
-26.23
-21.62
-14.62
-4.79
7.28
20.02
31.4
39.7
44.05
44.67
42.6
39.23
35.79
33.08
31.36
30.42
29.78
28.9
27.4
25.23
22.63
20.02
17.75
15.96
14.58
13.44
12.41
11.45
10.6
9.84
9.12
8.37
7.6
6.9
6.45
6.37
6.66
7.13
7.52
7.54
7.04
6.03
4.68
3.31
2.22
1.67
1.75
2.38
3.33
4.32
5.17
5.81
6.32
6.87
7.6
8.53
9.54
10.33
10.52
9.83
8.17
5.72
2.81
-0.21
-3.22
-6.33
-9.8
-13.85
-18.45
-23.28
-27.9
-31.86
-34.83
-36.63
-37.16
-36.36
-34.26
-31.06
-27.12
-22.9
-18.8
-15.06
-11.76
-8.84
-6.32
-4.3
-2.94
-2.36
-2.44
-2.87
-3.17
-2.91
-1.88
-0.17
1.87
3.78
5.17
5.83
5.77
5.14
4.15
2.97
1.78
0.68
-0.19
-0.78
-1.09
-1.18
-1.17
-1.11
-1.02
-0.82
-0.4
0.27
1.24
2.42
3.71
4.94
5.9
6.37
6.22
5.43
4.19
2.82
1.65
0.87
0.46
0.25
0.05
-0.19
-0.39
-0.31
0.22
1.27
2.71
4.35
6.03
7.68
9.3
10.93
12.54
14.07
15.4
16.47
17.29
17.97
18.72
19.69
20.93
22.38
23.79
24.91
25.5
25.48
24.94
24.09
23.16
22.3
21.51
20.72
19.8
18.73
17.58
16.44
15.39
14.37
13.22
11.74
9.78
7.31
4.43
1.34
-1.84
-5.03
-8.31
-11.75
-15.42
-19.26
-23.11
-26.71
-29.82
-32.2
-33.64
-33.96
-33.09
-31.13
-28.38
-25.39
-22.7
-20.72
-19.54
-18.86
-18.19
-17.02
-15.05
-12.23
-8.78
-4.96
-1.07
2.71
6.19
9.24
11.65
13.25
13.84
13.31
11.69
9.17
6.12
2.97
0.04
-2.49
-4.7
-6.8
-9
-11.34
-13.69
-15.79
-17.38
-18.35
-18.8
-18.94
-19.05
-19.33
-19.84
-20.54
-21.31
-22.04
-22.63
-23.06
-23.29
-23.35
-23.29
-23.24
-23.36
-23.79
-24.53
-25.34
-25.83
-25.49
-23.94
-21.11
-17.32
-13.17
-9.35
-6.38
-4.45
-3.45
-3.09
-3.1
-3.38
-4.01
-5.08
-6.64
-8.51
-10.38
-11.87
-12.74
-12.93
-12.57
-11.88
-11.03
-10.05
-8.87
-7.41
-5.64
-3.71
-1.82
-0.12
1.4
3.02
5.1
7.92
11.5
15.53
19.62
23.45
26.98
30.38
33.77
37.01
39.58
40.66
39.49
35.7
29.48
21.61
13.2
5.39
-0.95
-5.39
-7.89
-8.69
-8.13
-6.54
-4.3
-1.85
0.25
1.44
1.48
0.61
-0.5
-0.98
-0.27
1.54
3.78
5.51
6.03
5.2
3.48
1.52
-0.17
-1.47
-2.56
-3.64
-4.64
-5.21
-4.94
-3.64
-1.59
0.58
2.11
2.51
1.75
0.23
-1.45
-2.8
-3.59
-3.91
-4
-4.1
-4.44
-5.18
-6.44
-8.24
-10.37
-12.34
-13.42
-12.91
-10.43
-6.09
-0.53
5.35
10.67
14.82
17.56
18.95
19.26
18.97
18.68
19.09
20.8
24.05
28.55
33.45
37.59
39.81
39.36
36.09
30.45
23.36
15.92
9.26
4.28
1.55
1.17
2.83
5.87
9.52
13.13
16.28
18.86
20.91
22.56
23.87
24.89
25.59
26
26.18
26.22
26.2
26.16
26.04
25.74
25.14
24.15
22.77
21.15
19.43
17.71
15.98
14.05
11.72
8.84
5.44
1.7
-2.04
-5.44
-8.13
-9.8
-10.21
-9.28
-7.17
-4.33
-1.41
0.96
2.32
2.55
1.83
0.51
-1.02
-2.49
-3.78
-4.93
-6.07
-7.4
-9.11
-11.32
-14
-16.97
-19.87
-22.28
-23.82
-24.26
-23.61
-22.12
-20.23
-18.48
-17.34
-17.08
-17.73
-19.04
-20.7
-22.43
-24.11
-25.86
-27.86
-30.27
-33.06
-36
-38.73
-40.88
-42.24
-42.89
-43.18
-43.66
-44.98
-47.58
-51.5
-56.14
-60.27
-62.28
-60.67
-54.6
-44.22
-30.72
-15.85
-1.4
11.32
21.78
30.14
36.91
42.68
47.86
52.59
56.8
60.3
62.77
63.86
63.26
60.83
56.71
51.35
45.42
39.68
34.72
30.79
27.69
24.86
21.6
17.34
11.89
5.46
-1.41
-8.14
-14.27
-19.58
-24.05
-27.8
-30.98
-33.72
-36.17
-38.43
-40.55
-42.44
-43.84
-44.46
-44.14
-42.99
-41.44
-40.05
-39.32
-39.39
-40.09
-40.94
-41.35
-40.77
-38.82
-35.27
-30.21
-23.93
-16.96
-9.96
-3.51
2.08
6.8
10.94
14.82
18.59
22.08
24.84
26.36
26.36
25
22.88
20.88
19.96
20.77
23.58
28.15
33.8
39.62
44.58
47.82
48.81
47.51
44.34
40.08
35.57
31.54
28.37
26.09
24.47
23.18
21.88
20.32
18.4
16.13
13.66
11.14
8.69
6.3
3.82
0.94
-2.68
-7.31
-13.07
-19.86
-27.35
-35.02
-42.15
-47.95
-51.59
-52.45
-50.22
-45.04
-37.47
-28.4
-18.76
-9.29
-0.39
7.81
15.33
22.15
28.01
32.52
35.22
35.86
34.47
31.42
27.25
22.58
17.91
13.61
9.88
6.86
4.62
3.2
2.49
2.28
2.23
1.96
1.22
-0.06
-1.72
-3.46
-5.01
-6.24
-7.19
-8.12
-9.28
-10.82
-12.68
-14.61
-16.25
-17.34
-17.81
-17.81
-17.65
-17.63
-17.98
-18.79
-20.08
-21.74
-23.57
-25.19
-26.04
-25.56
-23.38
-19.48
-14.3
-8.51
-2.83
2.26
6.57
10.16
13.19
15.76
17.87
19.47
20.56
21.16
21.38
21.35
21.18
20.93
20.62
20.24
19.81
19.35
18.94
18.61
18.32
17.91
17.2
16
14.27
12.15
9.91
7.83
6.06
4.56
3.09
1.41
-0.62
-2.97
-5.43
-7.74
-9.72
-11.4
-12.97
-14.71
-16.83
-19.41
-22.28
-25.08
-27.34
-28.56
-28.41
-26.76
-23.75
-19.76
-15.27
-10.74
-6.49
-2.68
0.7
3.75
6.56
9.18
11.62
13.82
15.71
17.18
18.17
18.62
18.56
18.03
17.11
15.88
14.44
12.93
11.44
10.09
8.91
7.89
6.97
6.1
5.25
4.45
3.75
3.15
2.59
1.94
1.04
-0.15
-1.56
-3.07
-4.48
-5.69
-6.71
-7.68
-8.8
-10.26
-12.16
-14.41
-16.81
-18.98
-20.47
-20.87
-19.93
-17.65
-14.34
-10.49
-6.64
-3.23
-0.42
1.85
3.8
5.64
7.46
9.19
10.64
11.61
11.96
11.68
10.85
9.62
8.18
6.64
5.11
3.67
2.4
1.39
0.72
0.36
0.2
0.06
-0.27
-0.9
-1.84
-2.96
-4.07
-5
-5.63
-5.94
-5.99
-5.85
-5.58
-5.2
-4.71
-4.14
-3.6
-3.29
-3.42
-4.19
-5.6
-7.51
-9.62
-11.58
-13.07
-13.85
-13.72
-12.54
-10.27
-7.05
-3.21
0.81
4.54
7.73
10.4
12.75
15.13
17.71
20.47
23.14
25.33
26.72
27.15
26.63
25.25
23.12
20.21
16.47
11.83
6.38
0.44
-5.51
-10.95
-15.49
-19.01
-21.62
-23.47
-24.68
-25.17
-24.75
-23.24
-20.6
-16.93
-12.45
-7.37
-1.89
3.76
9.26
14.13
17.84
19.93
20.18
18.7
15.85
12.09
7.83
3.33
-1.21
-5.65
-9.76
-13.24
-15.84
-17.38
-17.85
-17.42
-16.32
-14.84
-13.21
-11.61
-10.21
-9.16
-8.63
-8.66
-9.15
-9.79
-10.15
-9.89
-8.91
-7.41
-5.87
-4.8
-4.49
-4.84
-5.36
-5.41
-4.37
-1.97
1.67
6.07
10.62
14.72
17.97
20.2
21.36
21.46
20.47
18.4
15.3
11.4
7
2.44
-1.98
-6.06
-9.66
-12.63
-14.78
-15.98
-16.19
-15.51
-14.19
-12.42
-10.36
-8.04
-5.45
-2.66
0.18
2.85
5.19
7.14
8.77
10.18
11.46
12.6
13.55
14.3
14.86
15.31
15.74
16.21
16.71
17.15
17.39
17.29
16.75
15.79
14.53
13.16
11.88
10.76
9.82
8.96
8.09
7.18
6.22
5.24
4.3
3.42
2.59
1.84
1.13
0.43
-0.34
-1.21
-2.2
-3.25
-4.32
-5.38
-6.49
-7.72
-9.08
-10.45
-11.63
-12.34
-12.36
-11.64
-10.26
-8.46
-6.52
-4.62
-2.87
-1.22
0.39
1.97
3.44
4.64
5.44
5.8
5.86
5.82
5.83
5.92
5.95
5.76
5.29
4.64
4
3.58
3.4
3.36
3.28
3.01
2.56
2.02
1.5
1.06
0.66
0.19
-0.38
-1.06
-1.76
-2.41
-2.98
-3.51
-4.06
-4.69
-5.4
-6.15
-6.9
-7.64
-8.41
-9.27
-10.19
-11.06
-11.63
-11.68
-11.03
-9.71
-7.92
-5.96
-4.09
-2.48
-1.21
-0.25
0.43
0.86
1.07
1.12
1.08
1.04
1.05
1.09
1.13
1.12
1
0.8
0.56
0.38
0.41
0.73
1.38
2.31
3.34
4.31
5.05
5.55
5.85
6.03
6.18
6.34
6.46
6.5
6.42
6.18
5.79
5.26
4.59
3.78
2.83
1.77
0.63
-0.52
-1.55
-2.27
-2.44
-1.85
-0.41
1.84
4.64
7.63
10.46
12.81
14.55
15.71
16.44
16.92
17.31
17.72
18.17
18.64
19.09
19.42
19.44
18.97
17.78
15.78
13.05
9.83
6.51
3.45
0.89
-1.09
-2.58
-3.75
-4.79
-5.82
-6.93
-8.14
-9.43
-10.81
-12.25
-13.73
-15.18
-16.57
-17.86
-19.03
-20.09
-21.03
-21.81
-22.31
-22.35
-21.77
-20.46
-18.48
-16.02
-13.35
-10.73
-8.39
-6.43
-4.92
-3.82
-3.09
-2.59
-2.18
-1.72
-1.17
-0.53
0.1
0.58
0.87
1
1.05
1.12
1.2
1.27
1.24
1.09
0.86
0.63
0.46
0.35
0.2
-0.09
-0.56
-1.17
-1.78
-2.25
-2.51
-2.6
-2.68
-2.89
-3.35
-4.05
-4.86
-5.65
-6.27
-6.6
-6.6
-6.26
-5.6
-4.63
-3.37
-1.9
-0.33
1.19
2.54
3.65
4.49
5.15
5.69
6.15
6.51
6.73
6.7
6.42
5.92
5.33
4.75
4.28
3.93
3.65
3.39
3.12
2.79
2.4
1.97
1.52
1.09
0.68
0.28
-0.2
-0.79
-1.53
-2.34
-3.1
-3.65
-3.9
-3.88
-3.72
-3.62
-3.77
-4.24
-4.98
-5.8
-6.43
-6.64
-6.3
-5.44
-4.21
-2.8
-1.39
-0.05
1.16
2.22
3.05
3.59
3.82
3.81
3.73
3.71
3.81
3.99
4.1
4.03
3.74
3.29
2.76
2.22
1.69
1.16
0.68
0.3
0.11
0.15
0.38
0.67
0.87
0.87
0.62
0.15
-0.44
-1.06
-1.63
-2.09
-2.39
-2.55
-2.61
-2.65
-2.79
-3.14
-3.75
-4.57
-5.49
-6.33
-6.91
-7.08
-6.72
-5.84
-4.51
-2.91
-1.23
0.36
1.72
2.81
3.6
4.14
4.46
4.62
4.66
4.61
4.53
4.47
4.44
4.45
4.48
4.49
4.43
4.33
4.2
4.08
4
3.98
3.96
3.87
3.64
3.25
2.74
2.18
1.64
1.16
0.71
0.28
-0.17
-0.63
-1.11
-1.57
-2.01
-2.45
-2.91
-3.45
-4.09
-4.86
-5.72
-6.59
-7.32
-7.77
-7.81
-7.37
-6.45
-5.16
-3.64
-2.06
-0.58
0.69
1.71
2.47
3.02
3.41
3.66
3.75
3.67
3.41
3.03
2.66
2.4
2.3
2.28
2.2
1.96
1.53
1.04
0.63
0.43
0.4
0.44
0.39
0.15
-0.25
-0.74
-1.22
-1.65
-2.03
-2.39
-2.73
-3.04
-3.33
-3.64
-4.04
-4.58
-5.26
-6.02
-6.77
-7.44
-7.97
-8.31
-8.39
-8.14
-7.5
-6.46
-5.1
-3.57
-2.05
-0.7
0.42
1.31
2
2.54
2.91
3.06
2.97
2.65
2.22
1.84
1.69
1.82
2.19
2.65
3.05
3.27
3.32
3.28
3.25
3.28
3.32
3.28
3.02
2.47
1.65
0.67
-0.3
-1.14
-1.75
-2.16
-2.45
-2.74
-3.11
-3.59
-4.14
-4.75
-5.43
-6.21
-7.12
-8.11
-9
-9.53
-9.46
-8.62
-7.05
-5.02
-2.89
-1.02
0.36
1.27
1.86
2.37
3.01
3.83
4.72
5.52
6.09
6.34
6.31
6.07
5.69
5.21
4.69
4.21
3.87
3.75
3.84
3.99
4.04
3.81
3.3
2.6
1.91
1.42
1.17
1.07
0.97
0.72
0.29
-0.29
-0.93
-1.58
-2.24
-2.94
-3.71
-4.51
-5.26
-5.92
-6.5
-7.1
-7.76
-8.47
-9.02
-9.15
-8.59
-7.3
-5.43
-3.31
-1.28
0.45
1.86
3.03
4.09
5.09
5.99
6.68
7.1
7.24
7.18
7.02
6.81
6.57
6.29
5.96
5.59
5.24
4.96
4.83
4.86
5.03
5.19
5.22
4.99
4.48
3.78
3.04
2.4
1.93
1.57
1.17
0.63
-0.11
-0.98
-1.85
-2.62
-3.22
-3.71
-4.17
-4.69
-5.31
-6.06
-6.88
-7.68
-8.33
-8.66
-8.54
-7.88
-6.67
-5.03
-3.15
-1.24
0.52
2.04
3.28
4.29
5.09
5.7
6.12
6.35
6.39
6.27
6.07
5.83
5.61
5.45
5.32
5.23
5.16
5.12
5.12
5.17
5.23
5.21
5.01
4.55
3.79
2.81
1.8
0.94
0.37
0.1
0.03
-0.01
-0.15
-0.45
-0.87
-1.36
-1.87
-2.43
-3.13
-4.01
-5.07
-6.19
-7.24
-8.09
-8.66
-8.88
-8.7
-8.04
-6.88
-5.25
-3.31
-1.3
0.54
2.03
3.1
3.81
4.26
4.55
4.76
4.91
4.98
4.95
4.79
4.54
4.25
4.04
4.04
4.27
4.7
5.15
5.45
5.47
5.23
4.84
4.44
4.09
3.78
3.4
2.87
2.22
1.54
0.93
0.44
-0.01
-0.52
-1.18
-1.97
-2.81
-3.54
-4.1
-4.48
-4.77
-5.11
-5.56
-6.14
-6.75
-7.21
-7.37
-7.12
-6.46
-5.49
-4.33
-3.11
-1.88
-0.66
0.52
1.61
2.54
3.25
3.73
4.02
4.2
4.3
4.35
4.33
4.27
4.19
4.14
4.11
4.07
3.98
3.82
3.59
3.36
3.18
3.04
2.87
2.54
1.99
1.2
0.3
-0.55
-1.21
-1.68
-2.03
-2.41
-2.93
-3.58
-4.29
-4.96
-5.54
-6.12
-6.82
-7.81
-9.15
-10.74
-12.35
-13.7
-14.57
-14.9
-14.84
-14.63
-14.58
-14.89
-15.67
-16.88
-18.41
-20.06
-21.59
-22.71
-23.12
-22.63
-21.18
-18.86
-15.73
-11.81
-7.02
-1.31
5.19
12.14
18.99
25.2
30.39
34.62
38.1
41.03
43.4
44.99
45.52
44.79
42.79
39.76
36.25
32.82
29.89
27.59
25.78
24.18
22.39
20.14
17.33
14.31
11.52
9.25
7.53
6.24
5.35
4.92
5.05
4.37
1.95
-2.39
-7.77
-12.86
-16.39
-17.57
-16.36
-13.59
-10.6
-8.54
-8.02
-9.08
-11.33
-14.17
-16.88
-18.76
-19.16
-17.64
-13.96
-8.57
-2.08
4.4
9.72
13.13
14.46
14.01
12.3
9.99
7.59
5.49
3.89
2.81
2.26
2.18
2.34
2.38
1.96
0.76
-1.4
-4.06
-6.87
-9.54
-11.84
-13.7
-15.04
-15.73
-15.56
-14.32
-11.94
-8.67
-4.95
-1.32
1.76
4.03
5.45
6.18
6.42
6.37
6.16
5.87
5.59
5.41
5.34
5.37
5.48
5.64
5.85
6.04
6.15
6.11
5.89
5.54
5.11
4.72
4.36
3.94
3.3
2.29
0.92
-0.65
-2.16
-3.33
-4
-4.14
-3.88
-3.43
-3.04
-2.97
-3.46
-4.67
-6.58
-8.95
-11.36
-13.3
-14.32
-14.21
-13.05
-11.15
-8.9
-6.66
-4.63
-2.87
-1.31
0.15
1.6
3.07
4.51
5.82
6.89
7.58
7.82
7.61
7.03
6.19
5.23
4.25
3.37
2.7
2.36
2.46
3.01
3.95
5.13
6.48
8.03
9.95
12.41
15.45
18.81
21.95
24.17
24.88
23.75
20.81
16.31
10.6
4.07
-2.9
-9.79
-15.94
-20.61
-23.18
-23.38
-21.4
-17.89
-13.73
-9.74
-6.44
-3.95
-2.05
-0.35
1.46
3.43
5.39
6.97
7.82
7.71
6.63
4.73
2.22
-0.73
-3.98
-7.4
-10.78
-13.82
-16.21
-17.7
-18.3
-18.24
-17.9
-17.61
-17.58
-17.83
-18.25
-18.71
-19.17
-19.66
-20.26
-20.99
-21.75
-22.4
-22.78
-22.86
-22.73
-22.6
-22.69
-23.12
-23.88
-24.76
-25.45
-25.55
-24.65
-22.45
-18.8
-13.8
-7.84
-1.52
4.49
9.65
13.65
16.53
18.51
19.89
20.88
21.51
21.71
21.36
20.4
18.91
17.06
15.07
13.13
11.36
9.8
8.45
7.31
6.37
5.67
5.13
4.66
4.09
3.27
2.14
0.77
-0.63
-1.89
-2.86
-3.55
-4.1
-4.69
-5.45
-6.42
-7.55
-8.7
-9.76
-10.61
-11.24
-11.73
-12.25
-13.03
-14.2
-15.72
-17.26
-18.26
-18.14
-16.51
-13.4
-9.23
-4.68
-0.42
3.12
5.84
7.91
9.59
11.08
12.48
13.73
14.76
15.5
15.95
16.09
15.9
15.33
14.39
13.14
11.73
10.37
9.25
8.45
7.94
7.56
7.12
6.42
5.37
4
2.42
0.86
-0.5
-1.48
-2.07
-2.4
-2.69
-3.17
-3.99
-5.15
-6.49
-7.76
-8.74
-9.32
-9.55
-9.6
-9.76
-10.28
-11.33
-12.88
-14.69
-16.29
-17.11
-16.65
-14.62
-11.16
-6.81
-2.33
1.54
4.35
6.07
7.03
7.67
8.32
9.08
9.83
10.34
10.45
10.18
9.65
9.01
8.34
7.64
6.85
5.94
4.98
4.09
3.4
2.98
2.76
2.6
2.31
1.78
1
0.05
-0.91
-1.72
-2.27
-2.57
-2.73
-2.93
-3.37
-4.15
-5.25
-6.54
-7.81
-8.88
-9.63
-10.09
-10.4
-10.75
-11.38
-12.44
-13.99
-15.87
-17.74
-19.06
-19.26
-17.92
-14.97
-10.72
-5.87
-1.21
2.63
5.4
7.25
8.59
9.84
11.26
12.78
14.2
15.28
15.89
16.07
15.92
15.57
15.03
14.29
13.33
12.18
10.97
9.81
8.83
8.11
7.6
7.19
6.69
5.94
4.82
3.35
1.69
0.09
-1.24
-2.19
-2.83
-3.35
-3.96
-4.79
-5.86
-7.04
-8.2
-9.21
-10.01
-10.63
-11.16
-11.77
-12.59
-13.74
-15.21
-16.84
-18.27
-19.02
-18.62
-16.74
-13.35
-8.81
-3.71
1.24
5.44
8.6
10.72
12.13
13.16
14.08
14.96
15.66
16.02
15.92
15.43
14.75
14.08
13.55
13.11
12.6
11.86
10.87
9.71
8.59
7.68
7.05
6.62
6.19
5.55
4.55
3.21
1.7
0.27
-0.84
-1.57
-2.05
-2.54
-3.29
-4.41
-5.79
-7.17
-8.29
-9.04
-9.5
-9.89
-10.45
-11.34
-12.63
-14.26
-16.07
-17.84
-19.21
-19.79
-19.19
-17.21
-13.97
-9.92
-5.72
-2.02
0.77
2.57
3.6
4.22
4.7
5.11
5.36
5.31
4.89
4.18
3.34
2.52
1.71
0.8
-0.42
-2.04
-4
-6.06
-7.95
-9.44
-10.51
-11.31
-12.11
-13.17
-14.61
-16.41
-18.43
-20.41
-22.14
-23.44
-24.27
-24.67
-24.79
-24.78
-24.81
-25.03
-25.51
-26.23
-27.07
-27.77
-27.96
-27.27
-25.41
-22.28
-18.07
-13.21
-8.21
-3.56
0.4
3.5
5.67
6.95
7.44
7.3
6.87
6.54
6.67
7.43
8.71
10.17
11.39
12.04
12.05
11.62
11.15
11.13
11.97
13.88
16.73
20
22.92
24.69
24.77
23.11
20.12
16.54
13.13
10.44
8.72
7.94
7.93
8.48
9.37
10.37
11.22
11.63
11.33
10.25
8.5
6.38
4.27
2.49
1.12
0
-1.18
-2.72
-4.77
-7.26
-9.94
-12.49
-14.54
-15.77
-15.87
-14.68
-12.21
-8.73
-4.76
-0.87
2.46
5.03
6.93
8.38
9.56
10.49
11.07
11.16
10.74
9.93
8.99
8.14
7.47
6.92
6.31
5.46
4.29
2.92
1.59
0.56
0.01
-0.07
0.14
0.41
0.55
0.53
0.45
0.41
0.45
0.47
0.32
-0.08
-0.68
-1.28
-1.66
-1.68
-1.37
-0.91
-0.5
-0.27
-0.28
-0.5
-0.89
-1.44
-2.13
-2.82
-3.25
-3.01
-1.71
0.89
4.75
9.57
14.91
20.36
25.67
30.72
35.46
39.84
43.69
46.83
49.11
50.52
51.19
51.37
51.34
51.29
51.3
51.24
50.85
49.69
47.36
43.58
38.4
32.22
25.69
19.53
14.28
10.1
6.81
4.01
1.27
-1.69
-4.99
-8.67
-12.74
-17.16
-21.79
-26.27
-30.09
-32.67
-33.64
-32.98
-31.03
-28.36
-25.5
-22.8
-20.33
-17.95
-15.43
-12.58
-9.28
-5.53
-1.51
2.53
6.31
9.59
12.28
14.42
16.14
17.52
18.59
19.32
19.72
19.85
19.86
19.85
19.77
19.46
18.71
17.39
15.55
13.45
11.37
9.55
8.05
6.75
5.42
3.83
1.82
-0.63
-3.46
-6.5
-9.55
-12.39
-14.81
-16.68
-17.99
-18.86
-19.52
-20.23
-21.2
-22.5
-24.02
-25.56
-26.83
-27.58
-27.63
-26.85
-25.25
-22.86
-19.86
-16.49
-13.03
-9.74
-6.8
-4.24
-2.04
-0.19
1.28
2.27
2.71
2.69
2.41
2.17
2.2
2.6
3.28
4.09
4.87
5.53
6.05
6.37
6.42
6.07
5.27
4.07
2.69
1.39
0.42
-0.1
-0.26
-0.29
-0.46
-0.96
-1.88
-3.13
-4.52
-5.82
-6.81
-7.26
-7.06
-6.12
-4.52
-2.44
-0.14
2.1
4.07
5.71
7.06
8.2
9.15
9.81
10.03
9.73
8.97
7.94
6.95
6.21
5.76
5.49
5.22
4.83
4.31
3.78
3.38
3.19
3.17
3.19
3.08
2.69
1.97
0.98
-0.18
-1.32
-2.34
-3.18
-3.92
-4.7
-5.71
-7.02
-8.65
-10.49
-12.4
-14.22
-15.82
-17.04
-17.68
-17.56
-16.62
-14.93
-12.77
-10.52
-8.52
-6.98
-5.9
-5.14
-4.55
-4.02
-3.57
-3.27
-3.15
-3.18
-3.24
-3.2
-2.97
-2.58
-2.16
-1.89
-1.93
-2.26
-2.79
-3.32
-3.69
-3.83
-3.81
-3.74
-3.71
-3.75
-3.8
-3.84
-3.9
-4.08
-4.52
-5.31
-6.4
-7.6
-8.66
-9.38
-9.71
-9.75
-9.69
-9.79
-10.21
-11.03
-12.16
-13.37
-14.36
-14.85
-14.63
-13.66
-12.06
-10.03
-7.79
-5.53
-3.39
-1.42
0.4
2.08
3.64
5.01
6.09
6.77
7.01
6.89
6.57
6.28
6.2
6.33
6.58
6.79
6.83
6.7
6.49
6.31
6.22
6.2
6.14
5.95
5.56
5.01
4.34
3.66
3.04
2.46
1.89
1.27
0.56
-0.23
-1
-1.65
-2.1
-2.33
-2.41
-2.42
-2.48
-2.66
-3.02
-3.6
-4.46
-5.59
-6.95
-8.38
-9.65
-10.55
-10.85
-10.48
-9.46
-7.91
-6.01
-3.94
-1.87
0.09
1.86
3.39
4.65
5.64
6.4
6.98
7.44
7.84
8.23
8.63
9.02
9.38
9.66
9.82
9.83
9.68
9.4
9.1
8.86
8.75
8.73
8.7
8.51
8.08
7.42
6.65
5.93
5.38
5
4.68
4.27
3.68
2.92
2.11
1.42
0.92
0.59
0.35
0.08
-0.28
-0.75
-1.32
-2.02
-2.88
-3.9
-5.05
-6.19
-7.12
-7.64
-7.61
-6.99
-5.86
-4.38
-2.74
-1.11
0.41
1.8
3.1
4.34
5.52
6.55
7.3
7.65
7.58
7.18
6.59
5.99
5.51
5.18
4.98
4.87
4.81
4.79
4.79
4.76
4.62
4.31
3.8
3.13
2.42
1.76
1.24
0.87
0.63
0.45
0.29
0.08
-0.22
-0.64
-1.18
-1.83
-2.5
-3.12
-3.63
-4.03
-4.4
-4.84
-5.43
-6.21
-7.15
-8.12
-8.95
-9.45
-9.45
-8.84
-7.68
-6.13
-4.44
-2.9
-1.7
-0.93
-0.54
-0.38
-0.28
-0.13
0.12
0.44
0.79
1.11
1.37
1.55
1.66
1.68
1.61
1.47
1.28
1.15
1.16
1.37
1.76
2.23
2.67
2.95
3.07
3.09
3.13
3.29
3.59
3.95
4.21
4.28
4.15
3.93
3.8
3.91
4.32
4.97
5.68
6.25
6.52
6.39
5.88
5.05
4.06
3.1
2.41
2.16
2.38
2.91
3.44
3.65
3.35
2.57
1.58
0.67
0.11
-0.01
0.27
0.9
1.84
3.08
4.63
6.42
8.34
10.23
11.97
13.45
14.6
15.39
15.85
16.07
16.2
16.36
16.57
16.69
16.46
15.6
13.89
11.28
7.88
3.95
-0.19
-4.22
-7.89
-11.03
-13.63
-15.76
-17.57
-19.26
-21.01
-22.88
-24.85
-26.71
-28.21
-29.06
-29.09
-28.28
-26.75
-24.68
-22.16
-19.15
-15.51
-11.23
-6.47
-1.69
2.56
5.83
7.96
9.15
9.82
10.38
11.07
11.89
12.68
13.29
13.7
14.05
14.53
15.26
16.19
17.14
17.95
18.51
18.87
19.2
19.67
20.38
21.29
22.24
23
23.34
23.15
22.43
21.34
20.09
18.84
17.66
16.5
15.19
13.61
11.67
9.4
6.89
4.26
1.56
-1.15
-3.88
-6.58
-9.21
-11.67
-13.83
-15.57
-16.82
-17.54
-17.78
-17.61
-17.11
-16.34
-15.3
-14.01
-12.54
-10.98
-9.43
-7.97
-6.57
-5.17
-3.71
-2.2
-0.78
0.39
1.16
1.49
1.47
1.24
0.88
0.4
-0.31
-1.37
-2.87
-4.78
-6.96
-9.2
-11.29
-13.05
-14.37
-15.2
-15.56
-15.49
-15.06
-14.37
-13.51
-12.61
-11.79
-11.15
-10.7
-10.37
-10.04
-9.6
-9.03
-8.41
-7.88
-7.62
-7.71
-8.11
-8.71
-9.36
-9.9
-10.22
-10.25
-9.91
-9.17
-8.04
-6.6
-5.05
-3.61
-2.48
-1.75
-1.36
-1.16
-0.92
-0.52
0.05
0.72
1.36
1.88
2.26
2.51
2.7
2.84
2.95
3.02
3.06
3.04
2.92
2.62
2.09
1.32
0.39
-0.58
-1.47
-2.22
-2.87
-3.48
-4.11
-4.8
-5.51
-6.19
-6.8
-7.31
-7.72
-8.03
-8.2
-8.26
-8.25
-8.26
-8.36
-8.59
-8.84
-8.92
-8.66
-7.94
-6.83
-5.51
-4.18
-3.02
-2.09
-1.37
-0.81
-0.34
0.06
0.42
0.72
0.92
1.02
0.99
0.88
0.77
0.77
0.96
1.34
1.84
2.34
2.75
3.06
3.28
3.46
3.58
3.59
3.41
3.01
2.37
1.56
0.65
-0.34
-1.34
-2.34
-3.31
-4.23
-5.07
-5.84
-6.55
-7.25
-7.97
-8.71
-9.44
-10.07
-10.49
-10.59
-10.28
-9.51
-8.28
-6.68
-4.81
-2.84
-0.92
0.81
2.25
3.36
4.2
4.86
5.44
6.01
6.56
7.02
7.31
7.4
7.31
7.12
6.92
6.73
6.56
6.35
6.03
5.6
5.07
4.49
3.9
3.33
2.76
2.15
1.45
0.64
-0.28
-1.25
-2.2
-3.04
-3.73
-4.29
-4.79
-5.34
-6.02
-6.82
-7.64
-8.28
-8.47
-8.04
-6.94
-5.31
-3.4
-1.48
0.22
1.68
2.95
4.15
5.31
6.43
7.41
8.16
8.67
8.93
8.97
8.81
8.48
8.03
7.54
7.12
6.85
6.72
6.66
6.57
6.37
6.05
5.67
5.31
4.99
4.71
4.41
4.07
3.67
3.21
2.68
2.08
1.4
0.68
-0.01
-0.59
-1.02
-1.38
-1.78
-2.41
-3.36
-4.66
-6.19
-7.74
-9.03
-9.8
-9.87
-9.19
-7.9
-6.27
-4.63
-3.23
-2.16
-1.32
-0.56
0.27
1.15
1.96
2.49
2.6
2.28
1.7
1.05
0.52
0.27
0.37
0.93
2.03
3.69
5.8
8.11
10.24
11.85
12.78
13.06
12.9
12.5
11.99
11.3
10.24
8.55
6.07
2.79
-1.16
-5.53
-10.11
-14.68
-19.15
-23.41
-27.29
-30.52
-32.78
-33.83
-33.59
-32.22
-30
-27.22
-23.99
-20.25
-15.93
-11.07
-6
-1.26
2.57
5.09
6.16
5.85
4.31
1.7
-1.82
-6.02
-10.41
-14.44
-17.59
-19.63
-20.66
-20.98
-20.82
-20.08
-18.31
-15.01
-9.88
-3.1
4.68
12.63
20.04
26.55
32.16
37.11
41.65
45.93
49.94
53.61
56.86
59.63
61.88
63.54
64.45
64.36
62.97
60.07
55.62
49.82
43.05
35.79
28.44
21.26
14.37
7.83
1.72
-3.82
-8.6
-12.52
-15.57
-17.87
-19.62
-21.04
-22.31
-23.46
-24.46
-25.19
-25.51
-25.39
-24.87
-24.11
-23.34
-22.74
-22.43
-22.39
-22.48
-22.54
-22.42
-22.05
-21.43
-20.64
-19.82
-19.12
-18.65
-18.49
-18.66
-19.09
-19.76
-20.61
-21.63
-22.8
-24.11
-25.49
-26.86
-28.08
-28.96
-29.19
-28.41
-26.27
-22.6
-17.51
-11.42
-5
1.12
6.46
10.85
14.41
17.43
20.21
23.02
26.02
29.25
32.62
35.94
38.95
41.41
43.27
44.63
45.76
46.97
48.37
49.9
51.24
51.94
51.6
49.95
46.98
42.86
37.99
32.82
27.76
23.03
18.56
13.96
8.73
2.53
-4.57
-11.93
-18.46
-22.99
-24.71
-23.49
-19.97
-15.29
-10.7
-7.19
-5.31
-5.14
-6.41
-8.64
-11.3
-13.85
-15.88
-17.13
-17.62
-17.55
-17.17
-16.64
-15.84
-14.46
-12.12
-8.52
-3.61
2.34
8.78
15.08
20.63
24.99
27.85
28.96
28.21
25.69
21.56
16.02
9.44
2.38
-4.55
-10.67
-15.68
-19.45
-21.85
-22.93
-22.89
-21.9
-20.08
-17.58
-14.42
-10.93
-7.38
-3.9
-0.82
1.19
1.49
-0.31
-4.24
-9.87
-17.12
-25.99
-34.85
-41.33
-43.75
-41.91
-36.55
-30.39
-23.05
-14.42
-4.97
4.55
13.7
21.31
26.51
29.03
29.01
27.17
23.96
19.92
15.75
11.97
8.65
5.78
3.22
0.86
-1.12
-2.76
-3.96
-4.47
-4.2
-3.33
-2.05
-0.44
1.56
4.23
7.61
11.63
16.1
20.68
24.97
28.71
31.8
34.16
35.63
35.7
33.81
29.67
23.6
16.58
10.11
5.65
4.1
5.5
9.01
13.36
17.23
19.64
20.06
18.37
14.83
10.06
5
0.73
-1.84
-2.29
-0.91
1.38
3.44
4.3
3.56
1.42
-1.57
-4.77
-7.72
-10.24
-12.34
-14.03
-15.23
-15.72
-15.22
-13.54
-10.74
-7.15
-3.34
0.06
2.61
4.15
4.85
5.05
5.04
4.92
4.54
3.62
1.96
-0.44
-3.33
-6.28
-8.89
-10.95
-12.49
-13.78
-15.13
-16.69
-18.44
-20.13
-21.49
-22.3
-22.57
-22.45
-22.21
-22.14
-22.41
-23.08
-24.04
-25.04
-25.75
-25.82
-25
-23.21
-20.59
-17.41
-14.03
-10.76
-7.84
-5.4
-3.47
-2.03
-1.03
-0.39
-0.05
0.04
-0.12
-0.53
-1.2
-2.11
-3.18
-4.31
-5.4
-6.38
-7.22
-7.97
-8.72
-9.58
-10.63
-11.95
-13.53
-15.28
-17.07
-18.73
-20.13
-21.22
-22.09
-22.86
-23.67
-24.63
-25.73
-26.9
-28.05
-29.09
-29.95
-30.58
-30.85
-30.55
-29.41
-27.18
-23.7
-18.98
-13.18
-6.59
0.37
7.32
13.86
19.69
24.56
28.31
30.86
32.22
32.44
31.63
29.93
27.48
24.4
20.83
16.88
12.68
8.44
4.42
1.03
-1.28
-2.13
-1.33
1.04
4.56
8.66
12.69
16.1
18.56
19.94
20.3
19.82
18.72
17.29
15.8
14.48
13.48
12.78
12.23
11.6
10.66
9.24
7.3
4.92
2.34
-0.13
-2.08
-3.17
-3.15
-2.05
-0.08
2.34
4.78
6.95
8.71
10.08
11.09
11.71
11.91
11.7
11.16
10.48
9.78
9.05
8.09
6.62
4.46
1.61
-1.62
-4.81
-7.57
-9.69
-11.21
-12.36
-13.5
-14.89
-16.64
-18.7
-20.87
-22.94
-24.77
-26.37
-27.83
-29.22
-30.49
-31.46
-31.89
-31.63
-30.71
-29.34
-27.84
-26.55
-25.76
-25.72
-26.59
-28.36
-30.76
-33.1
-34.43
-33.71
-30.23
-23.95
-15.52
-6.1
3
10.78
16.7
20.75
23.22
24.5
24.93
24.78
24.26
23.62
23.11
22.95
23.27
24.03
25.09
26.21
27.17
27.82
28.13
28.14
27.95
27.64
27.26
26.8
26.21
25.46
24.54
23.49
22.34
21.13
19.79
18.22
16.22
13.62
10.36
6.47
2.16
-2.32
-6.73
-10.92
-14.74
-18.1
-20.8
-22.56
-23.02
-21.91
-19.18
-15.06
-10.11
-5.02
-0.44
3.19
5.72
7.23
7.96
8.14
8
7.65
7.17
6.56
5.84
5.03
4.2
3.51
3.07
2.98
3.2
3.57
3.83
3.72
3.1
2
0.6
-0.88
-2.21
-3.3
-4.16
-4.93
-5.74
-6.71
-7.85
-9.06
-10.21
-11.2
-12
-12.62
-13.11
-13.52
-13.9
-14.31
-14.89
-15.78
-17.07
-18.63
-20.09
-20.83
-20.24
-17.93
-13.95
-8.79
-3.15
2.24
6.92
10.76
13.83
16.29
18.22
19.58
20.23
20.11
19.22
17.73
15.93
14.07
12.41
11.05
10
9.2
8.56
8.03
7.6
7.3
7.14
7.05
6.88
6.4
5.41
3.84
1.77
-0.53
-2.75
-4.68
-6.28
-7.71
-9.21
-10.96
-12.95
-15.02
-16.93
-18.5
-19.73
-20.7
-21.59
-22.54
-23.63
-24.87
-26.26
-27.74
-29.17
-30.32
-30.81
-30.29
-28.48
-25.36
-21.19
-16.46
-11.73
-7.48
-3.99
-1.35
0.51
1.69
2.32
2.53
2.56
2.68
3.18
4.27
5.97
8.12
10.42
12.61
14.51
16.1
17.5
18.81
20.03
21.09
21.8
22.04
21.8
21.23
20.61
20.21
20.18
20.49
20.95
21.27
21.16
20.44
19.06
17.09
14.64
11.87
8.92
5.94
3.05
0.31
-2.22
-4.51
-6.56
-8.4
-10.08
-11.63
-13.01
-14.01
-14.29
-13.55
-11.61
-8.6
-4.96
-1.27
1.93
4.27
5.7
6.34
6.42
6.12
5.53
4.74
3.78
2.74
1.7
0.7
-0.26
-1.23
-2.23
-3.31
-4.45
-5.6
-6.69
-7.65
-8.4
-8.93
-9.23
-9.35
-9.37
-9.35
-9.35
-9.37
-9.37
-9.32
-9.21
-9.06
-8.95
-8.98
-9.27
-9.85
-10.72
-11.77
-12.87
-13.88
-14.74
-15.48
-16.2
-17
-17.93
-19.04
-20.3
-21.63
-22.9
-23.83
-24.03
-23.11
-20.79
-17.07
-12.27
-6.93
-1.63
3.18
7.29
10.67
13.4
15.54
17.13
18.25
19.02
19.62
20.23
20.95
21.7
22.28
22.39
21.77
20.34
18.25
15.83
13.48
11.51
10.06
9.05
8.25
7.41
6.38
5.17
3.93
2.87
2.12
1.64
1.23
0.6
-0.47
-2.04
-3.95
-5.96
-7.81
-9.42
-10.87
-12.39
-14.21
-16.53
-19.38
-22.63
-26.01
-29.08
-31.31
-32.2
-31.4
-28.78
-24.52
-19.09
-13.1
-7.11
-1.56
3.34
7.54
11.08
14
16.33
18.05
19.16
19.77
20.02
20.06
20.06
20.07
20.11
20.18
20.23
20.3
20.43
20.65
20.94
21.2
21.28
21.01
20.28
19.05
17.42
15.59
13.8
12.26
11.04
10.07
9.2
8.23
7
5.47
3.67
1.68
-0.37
-2.37
-4.25
-5.95
-7.47
-8.83
-10.09
-11.35
-12.7
-14.12
-15.47
-16.46
-16.68
-15.81
-13.74
-10.63
-6.93
-3.14
0.31
3.24
5.69
7.8
9.63
11.08
11.95
12.02
11.22
9.69
7.66
5.43
3.28
1.46
0.19
-0.3
0.15
1.53
3.63
6.02
8.17
9.64
10.13
9.62
8.23
6.16
3.52
0.3
-3.59
-8.31
-13.82
-19.89
-25.96
-31.34
-35.37
-37.67
-38.26
-37.45
-35.73
-33.47
-30.84
-27.87
-24.57
-21.08
-17.67
-14.7
-12.46
-11.04
-10.3
-9.93
-9.55
-8.7
-7
-4.16
-0.02
5.41
11.92
19.17
26.67
33.87
40.11
44.72
47.09
46.81
43.86
38.7
32.28
25.82
20.49
17.14
16.05
16.94
19.21
22.17
25.3
28.31
31.06
33.44
35.3
36.45
36.81
36.45
35.63
34.69
33.88
33.26
32.69
31.93
30.8
29.25
27.37
25.35
23.32
21.38
19.54
17.77
16.08
14.48
12.97
11.51
9.97
8.22
6.13
3.66
0.91
-1.87
-4.3
-6.01
-6.65
-6.1
-4.45
-2.04
0.65
3.15
5.12
6.43
7.12
7.37
7.35
7.14
6.72
6.03
5.03
3.77
2.38
1.01
-0.19
-1.15
-1.9
-2.51
-3.07
-3.63
-4.26
-4.98
-5.85
-6.93
-8.27
-9.85
-11.65
-13.6
-15.61
-17.54
-19.31
-20.88
-22.31
-23.74
-25.32
-27.13
-29.14
-31.28
-33.47
-35.71
-38.04
-40.45
-42.76
-44.59
-45.46
-44.98
-43.05
-39.96
-36.22
-32.37
-28.77
-25.53
-22.53
-19.61
-16.66
-13.65
-10.61
-7.57
-4.54
-1.53
1.35
3.91
5.95
7.3
7.94
7.99
7.68
7.27
6.98
6.95
7.21
7.69
8.27
8.78
9.08
9.06
8.73
8.14
7.38
6.56
5.8
5.15
4.67
4.35
4.15
3.98
3.69
3.19
2.41
1.38
0.19
-1.04
-2.19
-3.18
-3.97
-4.58
-5.06
-5.49
-6.02
-6.85
-8.15
-9.97
-12.16
-14.36
-16.04
-16.71
-16.09
-14.25
-11.51
-8.36
-5.22
-2.29
0.38
2.87
5.16
7.15
8.66
9.59
10.02
10.17
10.31
10.64
11.16
11.76
12.29
12.63
12.78
12.82
12.82
12.8
12.72
12.52
12.13
11.56
10.83
10.01
9.14
8.24
7.29
6.29
5.33
4.52
4.04
3.98
4.3
4.8
5.16
5.09
4.44
3.24
1.66
-0.06
-1.84
-3.68
-5.78
-8.37
-11.68
-15.81
-20.68
-26.02
-31.33
-35.91
-39.04
-40.04
-38.5
-34.42
-28.24
-20.79
-13.03
-5.8
0.37
5.3
9.12
12.01
14.15
15.61
16.44
16.69
16.51
16.09
15.6
15.16
14.76
14.38
13.96
13.52
13.11
12.87
12.87
13.14
13.56
13.91
13.91
13.4
12.37
11.01
9.57
8.33
7.38
6.64
5.94
5.07
3.93
2.61
1.32
0.38
0.07
0.57
1.84
3.63
5.56
7.23
8.37
8.98
9.3
9.67
10.41
11.57
12.86
13.7
13.44
11.6
8.1
3.36
-1.81
-6.27
-8.85
-8.65
-5.25
1.01
9
16.99
23.11
25.9
24.79
20.17
13.03
4.4
-5.03
-15.02
-25.49
-36.13
-46.18
-54.5
-60.01
-62.14
-60.97
-57.12
-51.35
-44.33
-36.44
-27.8
-18.34
-8.28
1.66
10.38
16.76
20.07
20.23
17.84
14.11
10.71
8.77
8.38
8.74
8.77
7.7
5.38
2.25
-0.63
-1.66
0.27
5.25
12.48
20.84
29.2
36.36
41.17
43.06
42.71
41.12
39.17
37.34
35.96
34.99
33.62
30.48
19.84
-0.53
-27.15
-53.17
-73.61
-86.96
-94.02
-96.48
-97.29
-96.55
-92.77
-84.99
-73.46
-59.28
-43.47
-26.5
-9.12
7.28
21.46
33.06
41.58
46.65
48.63
48.96
49.67
52.34
57.55
64.83
73.28
80.58
83.75
80.52
70.24
54.2
35.41
18.11
3.58
-3.23
1.49
16.83
37.32
56.02
67.21
67.87
58.08
40.65
20.39
1.37
-13.87
-24.46
-30.76
-33.94
-35.25
-35.62
-35.42
-34.4
-33.03
-32.3
-33.03
-35.29
-38.6
-41.6
-43.05
-42.09
-38.46
-32.99
-27.09
-22.07
-18.86
-17.96
-19.34
-23.12
-28.81
-35.08
-40.29
-42.71
-41.11
-35.21
-25.92
-15
-4.51
4.01
9.86
13.05
14.04
13.54
12.34
11.22
10.9
11.81
14.05
17.33
20.82
23.59
24.9
24.48
22.52
19.54
16.12
12.85
10.09
7.99
6.49
5.4
4.41
3.27
1.88
0.36
-1.01
-1.92
-2.21
-1.87
-1.12
-0.24
0.52
1.03
1.31
1.46
1.61
1.8
1.99
2.11
2.03
1.67
1.01
0.11
-0.85
-1.68
-2.34
-2.95
-3.73
-4.93
-6.69
-9.02
-11.87
-15.16
-18.86
-22.85
-26.8
-30.12
-32.04
-31.89
-29.31
-24.43
-17.82
-10.25
-2.52
4.73
11.1
16.32
20.26
22.87
24.25
24.55
24.02
22.93
21.44
19.61
17.41
14.7
11.37
7.35
2.73
-2.25
-7.19
-11.6
-15.04
-17.21
-18.11
-17.96
-17.19
-16.21
-15.27
-14.34
-13.26
-11.84
-10.07
-8.19
-6.61
-5.68
-5.56
-6.19
-7.31
-8.64
-9.92
-10.91
-11.33
-10.91
-9.41
-6.77
-3.2
0.87
4.92
8.57
11.71
14.46
17.08
19.75
22.42
24.86
26.71
27.73
27.8
27.03
25.6
23.68
21.4
18.8
15.93
12.92
10.01
7.52
5.73
4.81
4.8
5.53
6.72
8.03
9.17
9.94
10.29
10.32
10.21
10.12
10.13
10.2
10.17
9.85
9.08
7.78
5.99
3.91
1.8
-0.01
-1.19
-1.54
-0.98
0.34
2.11
3.97
5.53
6.6
7.16
7.34
7.39
7.48
7.69
7.96
8.17
8.21
8
7.53
6.82
5.88
4.71
3.33
1.82
0.3
-1.12
-2.32
-3.31
-4.17
-5.05
-6.12
-7.55
-9.38
-11.53
-13.76
-15.76
-17.18
-17.81
-17.62
-16.78
-15.59
-14.37
-13.37
-12.76
-12.55
-12.69
-13.1
-13.7
-14.44
-15.35
-16.44
-17.67
-18.88
-19.74
-19.83
-18.81
-16.55
-13.27
-9.45
-5.72
-2.58
-0.28
1.23
2.22
3.03
3.9
4.94
6.07
7.12
7.89
8.26
8.2
7.83
7.31
6.8
6.38
6.07
5.82
5.58
5.29
4.96
4.57
4.15
3.68
3.13
2.45
1.59
0.48
-0.89
-2.46
-4.14
-5.75
-7.13
-8.17
-8.84
-9.12
-9.03
-8.52
-7.55
-6.12
-4.28
-2.17
0.08
2.38
4.75
7.23
9.88
12.7
15.62
18.51
21.25
23.75
25.88
27.45
28.23
28.01
26.64
24.1
20.42
15.64
9.82
3.09
-4.3
-11.87
-19.03
-25.14
-29.71
-32.45
-33.32
-32.44
-30.02
-26.29
-21.5
-15.93
-9.89
-3.68
2.4
8.06
13.02
17.04
19.93
21.66
22.36
22.32
21.9
21.47
21.28
21.37
21.57
21.52
20.75
18.87
15.72
11.42
6.39
1.27
-3.22
-6.54
-8.4
-8.88
-8.37
-7.41
-6.5
-5.9
-5.58
-5.25
-4.61
-3.51
-2.04
-0.53
0.69
1.38
1.5
1.14
0.43
-0.54
-1.76
-3.18
-4.74
-6.31
-7.81
-9.26
-10.79
-12.56
-14.68
-17.1
-19.64
-22.02
-24.01
-25.47
-26.39
-26.89
-27.11
-27.2
-27.19
-26.98
-26.32
-24.9
-22.48
-19.08
-15.04
-11.02
-7.81
-6.06
-6.11
-7.88
-10.93
-14.67
-18.5
-22.03
-25.07
-27.6
-29.66
-31.26
-32.36
-32.82
-32.42
-30.96
-28.22
-24.15
-18.87
-12.78
-6.49
-0.74
3.86
6.96
8.59
9.12
9.04
8.8
8.68
8.73
8.88
8.98
8.91
8.61
8.12
7.53
7.05
6.84
7.06
7.72
8.67
9.69
10.52
10.97
10.89
10.26
9.06
7.39
5.41
3.4
1.73
0.75
0.65
1.37
2.62
3.95
4.94
5.35
5.18
4.66
4.08
3.68
3.51
3.42
3.12
2.39
1.1
-0.64
-2.6
-4.52
-6.16
-7.4
-8.21
-8.62
-8.68
-8.47
-8.06
-7.54
-7.02
-6.58
-6.32
-6.32
-6.66
-7.39
-8.46
-9.74
-11
-12.01
-12.58
-12.69
-12.38
-11.72
-10.78
-9.54
-7.94
-5.87
-3.2
0.22
4.46
9.49
14.99
20.38
24.88
27.8
28.81
28.12
26.44
24.76
23.93
24.37
25.95
28.02
29.75
30.38
29.53
27.24
23.89
19.98
15.98
12.2
8.78
5.78
3.27
1.37
0.19
-0.12
0.53
2.28
5.29
9.68
15.36
21.93
28.56
34.23
37.9
38.89
37.1
33.04
27.62
21.87
16.63
12.38
9.2
6.85
4.93
3.02
0.74
-2.1
-5.5
-9.26
-13.05
-16.55
-19.6
-22.26
-24.78
-27.52
-30.73
-34.47
-38.48
-42.24
-45.1
-46.5
-46.13
-44.13
-40.99
-37.44
-34.14
-31.53
-29.71
-28.52
-27.7
-27.01
-26.37
-25.8
-25.38
-25.21
-25.34
-25.72
-26.23
-26.66
-26.74
-26.24
-25.01
-23.01
-20.3
-17.03
-13.34
-9.4
-5.4
-1.51
2.12
5.34
8.06
10.25
11.9
13.1
13.95
14.57
15.1
15.66
16.35
17.25
18.38
19.69
21.05
22.2
22.84
22.64
21.4
19.08
15.86
12.01
7.89
3.79
-0.07
-3.58
-6.68
-9.39
-11.67
-13.48
-14.78
-15.57
-15.97
-16.18
-16.35
-16.56
-16.8
-16.97
-16.89
-16.35
-15.25
-13.58
-11.42
-8.75
-5.64
-2.28
1.01
3.83
5.91
7.1
7.45
7.09
6.45
5.86
5.36
4.87
4.35
3.87
3.5
3.26
3
3.21
4.13
5.52
6.89
7.89
8.46
8.7
8.62
8.16
8.64
10.93
14.78
19.06
22.75
25.39
27.03
27.96
28.62
31.69
38.89
49.75
62.19
74.27
85.17
94.89
103.72
111.78
121.74
135.03
150.54
165.84
179.33
191.08
202.14
213.47
207.36
175.25
122.81
64.78
12.77
-29.14
-61.37
-85.72
-104.03
-117.99
-126.18
-128.23
-126.08
-122.66
-120.16
-119.33
-119.98
-121.68
-124.02
-124.44
-119.01
-107.66
-92.71
-76.79
-61.68
-48.37
-37.49
-29.53
-22.94
-16.66
-10.86
-6.2
-3
-0.99
0.3
1.16
1.73
2.82
4.18
5.39
6.01
5.78
4.64
2.61
-0.21
-3.51
-6.4
-7.98
-7.7
-5.49
-1.77
2.76
7.37
11.52
14.98
17.7
19.6
20.61
20.7
19.95
18.54
16.63
14.26
11.32
7.66
3.25
-1.62
-6.4
-10.53
-13.67
-15.8
-17.26
-18.47
-19.83
-21.51
-23.41
-25.22
-26.54
-26.98
-26.31
-24.5
-21.75
-18.37
-14.7
-10.94
-7.22
-3.59
-0.15
2.91
5.36
7.05
7.98
8.37
8.57
8.94
9.69
10.82
12.12
13.31
14.15
14.67
15.11
15.89
17.43
19.94
23.38
27.41
31.46
34.82
36.78
36.74
34.36
29.63
22.94
15
6.76
-0.86
-7.13
-11.65
-14.4
-15.68
-15.96
-15.75
-15.45
-15.33
-15.56
-16.2
-17.23
-18.42
-19.34
-19.42
-18.13
-15.21
-10.9
-5.9
-1.16
2.5
4.63
5.27
4.85
3.93
2.91
2.02
1.3
0.72
0.26
-0.06
-0.23
-0.29
-0.27
-0.19
-0
0.38
0.98
1.79
2.66
3.44
4.01
4.39
4.63
4.84
5.02
5.11
5.02
4.7
4.19
3.57
2.95
2.38
1.83
1.23
0.57
-0.14
-0.81
-1.33
-1.65
-1.82
-1.94
-2.14
-2.47
-2.9
-3.26
-3.38
-3.09
-2.37
-1.32
-0.14
1
2
2.89
3.69
4.36
4.79
4.86
4.53
3.89
3.19
2.69
2.58
2.9
3.56
4.46
5.5
6.64
7.89
9.27
10.76
12.35
13.98
15.61
17.17
18.59
19.79
20.72
21.38
21.78
21.94
21.88
21.64
21.29
20.94
20.72
20.69
20.88
21.21
21.6
21.92
22.04
21.83
21.11
19.67
17.27
13.75
9.16
3.84
-1.61
-6.45
-10.07
-12.16
-12.85
-12.6
-12
-11.57
-11.6
-12.06
-12.76
-13.44
-13.96
-14.26
-14.46
-14.72
-15.26
-16.24
-17.73
-19.64
-21.77
-23.8
-25.43
-26.49
-26.93
-26.84
-26.42
-25.86
-25.38
-25.21
-25.56
-26.6
-28.41
-30.74
-33.1
-34.8
-35.15
-33.74
-30.53
-25.89
-20.38
-14.57
-8.84
-3.41
1.66
6.28
10.31
13.56
15.94
17.5
18.43
19.03
19.48
19.81
19.83
19.31
18.06
16.07
13.48
10.52
7.33
3.99
0.5
-3.13
-6.82
-10.44
-13.85
-16.9
-19.54
-21.68
-23.27
-24.22
-24.45
-23.94
-22.7
-20.78
-18.29
-15.37
-12.23
-9.13
-6.35
-4.07
-2.31
-0.93
0.26
1.46
2.68
3.77
4.43
4.42
3.68
2.41
1.01
-0.11
-0.66
-0.59
-0.09
0.54
1.06
1.39
1.63
2.02
2.75
3.97
5.63
7.63
9.76
11.81
13.6
15.02
16.09
17.01
18.13
19.9
22.7
26.65
31.46
36.43
40.53
42.74
42.3
39.01
33.23
25.82
17.83
10.25
3.77
-1.26
-4.79
-6.91
-7.79
-7.68
-6.87
-5.78
-4.85
-4.44
-4.74
-5.63
-6.79
-7.85
-8.56
-8.96
-9.27
-9.77
-10.63
-11.77
-12.97
-13.95
-14.54
-14.74
-14.73
-14.67
-14.62
-14.52
-14.18
-13.43
-12.17
-10.48
-8.54
-6.57
-4.77
-3.23
-1.98
-0.99
-0.23
0.3
0.56
0.59
0.46
0.33
0.35
0.61
1.14
1.85
2.64
3.42
4.12
4.74
5.25
5.65
5.97
6.28
6.68
7.22
7.87
8.48
8.84
8.76
8.19
7.19
5.98
4.77
3.74
2.99
2.48
2.13
1.81
1.34
0.53
-0.78
-2.71
-5.29
-8.43
-12.03
-15.9
-19.93
-23.99
-27.99
-31.87
-35.58
-39.1
-42.41
-45.48
-48.2
-50.42
-51.94
-52.61
-52.38
-51.3
-49.53
-47.3
-44.85
-42.36
-39.96
-37.76
-35.81
-34.16
-32.75
-31.42
-29.91
-27.93
-25.24
-21.75
-17.48
-12.53
-6.92
-0.69
6.06
13.04
19.69
25.31
29.32
31.45
31.85
31.06
29.73
28.38
27.25
26.32
25.46
24.56
23.64
22.85
22.33
22.07
21.9
21.56
20.81
19.59
17.99
16.3
14.78
13.62
12.87
12.4
11.98
11.39
10.48
9.23
7.78
6.32
5
3.86
2.84
1.77
0.52
-0.98
-2.69
-4.48
-6.16
-7.49
-8.14
-7.76
-6.09
-3.08
1.03
5.69
10.28
14.3
17.48
19.9
21.79
23.36
24.61
25.31
25.18
24.02
21.99
19.49
17.05
15.02
13.52
12.42
11.48
10.52
9.5
8.52
7.66
6.94
6.32
5.74
5.19
4.72
4.38
4.15
3.93
3.5
2.68
1.38
-0.34
-2.27
-4.1
-5.64
-6.83
-7.75
-8.59
-9.46
-10.33
-11.08
-11.56
-11.77
-11.82
-11.95
-12.34
-13.04
-13.99
-15.04
-16.03
-16.86
-17.38
-17.42
-16.71
-15.04
-12.36
-8.87
-5.03
-1.32
1.85
4.33
6.18
7.58
8.67
9.51
10.06
10.23
10.05
9.66
9.23
8.94
8.82
8.8
8.71
8.42
7.88
7.15
6.37
5.7
5.21
4.83
4.41
3.74
2.67
1.24
-0.37
-1.89
-3.1
-3.93
-4.52
-5.12
-5.96
-7.09
-8.4
-9.67
-10.69
-11.39
-11.86
-12.26
-12.79
-13.55
-14.57
-15.82
-17.23
-18.74
-20.29
-21.74
-22.84
-23.27
-22.68
-20.82
-17.7
-13.59
-8.96
-4.37
-0.25
3.16
5.85
7.96
9.62
10.92
11.87
12.48
12.74
12.72
12.45
11.96
11.21
10.11
8.55
6.55
4.23
1.84
-0.34
-2.12
-3.42
-4.33
-4.98
-5.46
-5.79
-5.92
-5.79
-5.38
-4.72
-3.97
-3.24
-2.68
-2.35
-2.25
-2.36
-2.64
-3.03
-3.5
-3.98
-4.38
-4.63
-4.69
-4.62
-4.57
-4.79
-5.55
-7.03
-9.33
-12.38
-15.96
-19.74
-23.3
-26.25
-28.25
-29.14
-28.94
-27.84
-26.11
-23.98
-21.53
-18.73
-15.44
-11.6
-7.28
-2.68
1.87
6.15
10
13.43
16.47
19.14
21.42
23.23
24.6
25.65
26.57
27.51
28.46
29.25
29.55
29.11
27.8
25.71
23.06
20.13
17.15
14.25
11.43
8.63
5.76
2.76
-0.36
-3.51
-6.51
-9.18
-11.44
-13.34
-15.09
-17
-19.33
-22.15
-25.32
-28.45
-30.94
-32.14
-31.49
-28.69
-23.82
-17.38
-10.16
-3.01
3.38
8.64
12.8
16.1
18.84
21.23
23.35
25.22
26.85
28.29
29.6
30.85
32.04
33.14
34.08
34.82
35.36
35.73
36
36.16
36.16
35.9
35.25
34.12
32.54
30.63
28.52
26.29
23.94
21.41
18.62
15.58
12.4
9.24
6.29
3.66
1.4
-0.51
-2.1
-3.44
-4.62
-5.75
-6.95
-8.33
-9.98
-11.92
-14.08
-16.28
-18.21
-19.5
-19.83
-19.04
-17.23
-14.74
-11.99
-9.35
-7.02
-4.99
-3.08
-1.13
0.91
2.9
4.66
6.01
6.87
7.32
7.5
7.56
7.55
7.55
7.57
7.73
8.11
8.75
9.58
10.41
10.99
11.15
10.84
10.13
9.16
8.1
7.06
6.1
5.23
4.4
3.54
2.56
1.44
0.2
-1.09
-2.37
-3.68
-5.22
-7.35
-10.46
-14.85
-20.52
-27.08
-33.89
-40.24
-45.54
-49.47
-52.03
-53.36
-53.67
-53.18
-52.07
-50.58
-48.97
-47.43
-46
-44.47
-42.44
-39.43
-35.05
-29.19
-22.07
-14.21
-6.3
1.01
7.29
12.39
16.44
19.73
22.55
25.15
27.77
30.68
34.17
38.33
42.88
47.09
49.92
50.38
47.99
43.03
36.52
29.83
24.2
20.32
18.2
17.27
