3.1509
-4.3349
13.53
12.416
129.51
86.355
-472.39
48.832
155.54
22.178
9.5433
-5.7317
6.9132
-2.2127
25.834
-14.645
1.8659
39.857
108.18
-14.169
-230.29
17.226
-1.6615
80.67
87.564
-11.464
-100.71
-26.482
11.809
5.609
6.1484
0.75688
-18.25
14.549
19.477
17.027
39.33
42.816
-82.684
-93.52
-129.86
52.706
15.298
19.003
36.091
36.468
89.75
46.736
-149.68
-107.97
188.66
199.06
34.281
-183.12
-53.073
-80.297
-0.23897
67
17.613
-22.787
-33.296
-15.082
11.076
-19.366
-44.008
54.375
42.317
-1.0893
-38.33
-14.552
42.877
-6.8587
-20.31
8.778
-26.473
16.047
49.725
29.489
25.649
-67.328
-52.077
1.538
89.648
12.022
-38.943
-3.5926
-72.238
-48.689
6.3977
87.229
48.525
-9.8535
-15.532
14.993
18.756
-87.361
-23.467
41.424
12.362
13.981
-35.24
78.933
54.445
-29.7
-50.215
34.679
25.257
-82.151
32.995
-27.615
4.73
98.431
-113.81
-20.008
21.164
-2.9178
2.0523
26.072
58.565
47.778
-33.3
208.89
-196.56
-457.35
-29.448
128.93
116.27
147.1
51.398
-100.56
23.54
81.211
95.686
96.63
-235.74
28.133
106.89
89.571
-152.32
-275.66
27.193
54.476
198.9
18.761
-85.283
-46.006
-14.059
33.603
10.179
-24.666
6.3409
53.482
-36.547
74.094
-18.041
-97.918
-6.0797
20.251
-8.1974
-31.939
-13.54
-26.359
55.714
14.821
-2.213
4.0772
95.521
17.884
-36.384
0.44508
-36.677
-9.3965
15.942
-9.4469
-16.017
16.396
-9.1952
-15.461
16.769
18.4
-20.872
22.376
4.1368
46.449
-75.594
-13.482
5.8365
-27.697
34.591
-13.852
-7.0702
2.5139
-19.615
15.122
18.281
-3.8802
3.8146
10.071
-10.259
8.1394
13.614
-16.974
9.5525
15.174
-13.198
7.7375
11.277
-16.187
11.011
4.9072
-13.613
16.078
1.067
-13.594
15.648
0.94954
-17.176
6.7247
1.6667
-14.873
7.9493
6.9084
-11.223
8.0606
1.2151
-18.222
-2.219
9.4235
-8.2918
-3.8823
11.702
-7.1796
-6.8188
10.653
-4.8183
-10.157
8.5017
-1.7219
-8.3976
7.3871
-7.7164
11.311
8.8923
-9.6054
-6.3501
8.7041
-7.0707
-5.9058
8.9873
-8.5038
6.4714
12.833
-5.9927
-9.0581
4.9553
-13.015
-1.6846
29.032
-3.0351
-2.7412
15.703
-6.82
-10.309
5.7526
-0.2314
-5.1996
10.757
-3.0339
-14.096
4.0919
-4.1519
-14.954
7.0359
11.453
-15.624
5.7101
10.697
-19.224
9.5797
8.982
-13.357
9.662
3.8924
-13.608
6.3525
9.9452
-10.092
4.3915
1.4986
-15.706
5.6044
6.9484
-13.929
7.8838
13.676
-11.732
10.113
11.353
-12.475
3.601
13.053
-17.616
3.4981
11.317
-10.218
6.856
12.566
-13.545
-8.4134
11.054
-9.1731
-9.7288
12.24
-4.2507
-15.019
10.695
4.0609
-10.715
12.086
3.3584
-14.812
7.8248
0.61653
-16.62
6.8155
4.0109
-13.492
7.9651
8.9137
-12.043
2.4778
8.4589
-11.464
7.2328
4.8668
-18.804
6.9928
10.37
-17.466
7.8266
15.345
-12.948
1.9649
13.043
-9.955
-3.2273
19.117
-5.1791
-13.792
13.647
4.9641
-15.666
7.5512
12.938
-18.089
-1.3859
17.606
-9.3691
-6.2598
17.522
-9.0752
-5.8369
15.867
-12.663
-12.867
14.918
-3.5906
-11.572
15.368
-1.3452
-14.014
18.786
1.8362
-14.958
11.772
-2.9274
-16.787
17.494
7.0793
-10.214
25.254
10.593
-24.739
-8.6118
30.23
45.481
-69.17
-34.47
-26.063
5.7761
33.011
16.359
20.052
-1.6585
-22.524
15.935
23.222
-39.586
9.1739
-65.349
-14.359
38.075
-48.261
-110.67
86.163
288.6
144.5
-136.4
-127.42
-67.056
-82.695
-2.4829
12.172
-0.71205
31.181
28.426
59.147
-31.346
-138.12
55.169
53.178
6.6882
-31.16
79.651
68.961
-39.033
-18.261
-36.533
-5.4253
-15.379
-1.9667
1.307
-4.1913
8.6885
-13.763
3.8598
-12.911
5.6137
-3.7476
28.962
18.079
26.721
1.308
-50.617
-56.001
-30.922
10.854
19.031
0.51024
20.29
2.2592
10.889
0.36121
3.3252
15.69
-5.8183
15.793
-1.0861
-18.188
12.534
-0.83665
-8.5089
20.246
35.778
-69.897
-23.371
16.647
4.1587
-86.637
35.175
81.115
27.396
3.7727
-13.914
2.3048
0.43267
-18.517
7.0165
3.3305
-19.999
14.918
18.148
-23.599
-3.9279
15.384
-8.2024
-4.2067
13.575
-10.685
-14.555
18.344
0.64356
-17.227
13.666
3.7196
-17.531
9.6002
10.14
-16.111
4.1279
22.1
-13.447
-5.5865
15.395
-18.106
-9.4066
21.674
-7.5116
-17.329
24.944
-0.44845
-17.241
23.046
-19.888
-25.329
31.143
2.3999
-22.458
22.272
12.902
-6.0483
11.855
-1.4267
-22.431
21.212
14.626
-28.327
19.949
9.7159
-24.011
-2.051
30.796
-12.245
5.2557
6.5119
-25.063
8.7141
-4.1911
-31.635
16.806
0.84864
-12.265
27.847
-9.8846
-9.3532
19.48
1.2371
-13.404
15.41
-11.802
21.56
-29.411
-27.408
-4.8868
23.528
-1.3927
-7.962
29.417
-10.075
-4.3735
18.174
-9.1053
-16.175
8.7017
-16.059
-18.34
21.127
4.1017
-9.0304
22.935
-1.3692
-27.406
16.889
3.9281
-20.809
13.183
5.7787
-21.519
8.6065
3.038
-17.785
5.3777
21.176
-12.518
60.852
-45.56
-68.292
22.851
34.711
-0.39122
-10.997
31.911
-5.937
-14.239
17.597
5.7897
-19.829
6.8707
15.034
-17.689
-6.9656
15.073
-10.255
-3.463
15.876
-20.661
-34.986
71.666
39.631
18.856
-35.743
-73.671
-143.59
-77.492
204.77
58.516
10.032
48.702
53.101
-41.791
-35.653
-61.82
-24.415
-0.25667
-12.301
16.951
-0.86796
-0.70046
21.788
-14.527
2.2735
24.237
12.774
-6.5519
108
-74.344
-85.842
-6.5908
50.882
-29.202
-11.417
128.69
2.0441
-34.789
-60.655
-26.255
-12.852
3.7008
-9.0701
-2.8199
27.193
0.5832
-5.7808
23.18
-3.5559
2.479
34.287
-20.854
-26.722
27.038
-19.894
-6.8058
21.269
-25.223
-18.896
1.9026
-56.451
128.28
87.621
-69.479
-12.152
-41.541
-15.555
17.121
6.0096
-7.3933
9.9943
-0.70605
-14.628
21.124
-0.51569
-19.212
15.135
1.728
-17.912
25.791
25.429
16.427
-13.697
-67.907
-42.065
36.361
48.443
-20.626
30.059
-14.439
-19.616
17.06
-11.692
6.6926
4.8831
-17.721
12.232
-2.8028
5.273
-1.5197
-17.814
13.899
24.236
-38.317
-16.323
5.9119
3.36
-4.2986
-58.131
-169.22
240.9
189.88
-26.527
17.073
-13.499
123.95
225.73
-277.39
-194.11
6.8034
0.2551
-37.68
-43.341
12.266
53.767
29.559
-34.69
-123.44
-252.62
-581.86
364.13
198.42
85.415
323.42
183.99
10.694
6.5832
-254.08
114.73
122.87
-133.46
-230.29
17.785
78.554
-10.581
29.724
31.366
-6.2572
9.8931
12.377
-4.0482
5.1617
72.124
-117.04
-9.6757
71.507
72.416
60.302
-158.03
-177.47
62.096
232.03
-86.654
-38.742
9.6041
-13.241
-29.385
19.307
-23.819
-31.296
23.493
5.7079
-12.932
23.813
-0.030061
-9.8672
-9.303
-25.206
-97.756
514.14
30.678
-186.27
14.4
-189.2
56.967
24.991
-98.046
-97.177
-82.147
47.722
-1.1254
-25.914
52.809
-4.2496
42.917
129.8
-22.808
39.237
89.785
-18.096
-87.06
-138.38
88.803
-9.1497
-36.771
11.146
-21.833
13.777
19.582
-27.201
10.488
31.266
-19.252
63.873
56.936
-60.901
-1.8601
33.127
2.9187
-27.239
-11.932
-37.148
-17.119
10.935
-23.232
-3.2306
17.545
-21.256
-2.7205
17.544
-13.188
-2.3778
25.542
-17.204
0.035775
23.352
-21.961
3.5798
22.509
-39.067
-8.255
31.483
-1.9411
-9.9143
20.467
-13.261
-6.5001
18.052
-12.49
4.5338
21.643
-18.28
2.4109
12.392
-19.179
10.174
158.27
29.946
-242.51
-2.4844
165.52
38.51
-74.485
-6.9064
5.9125
38.555
-127.52
-120.69
45.135
269
-90.585
-489.99
142.75
134.34
164.25
282.74
-4.6554
-265.25
-154.99
24.087
85.153
91.46
26.768
31.085
-110.53
-32.885
-164.51
-340.9
205.69
201.14
76.853
221.93
-147.4
-177.51
94.043
351.1
-161.74
-70.75
-155.35
-24.345
4.0719
5.7458
34.979
10.71
-10.427
17.763
-23.008
2.1288
19.977
-21.344
26.471
13.353
-10.75
32.057
-5.7044
-16.08
23.361
-18.522
-0.088996
24.807
-25.02
9.1246
20.003
-29.668
2.4624
16.81
-73.417
-13.656
39.486
70.71
151.53
176.57
-99.225
-144.11
74.388
-160.64
-131.89
1.9863
37.076
74.467
-112.71
49.741
123
-7.5802
-55.919
-37.712
49.652
-37.515
40.873
-14.651
-49.456
-37.748
37.002
7.8241
67.996
-86.261
-11.598
-7.2536
-56.404
-8.6829
-3.0369
-12.219
61.914
54.531
17.056
32.506
-44.708
-29.18
5.0956
14.631
-15.65
14.436
28.082
3.2213
122.03
71.191
-50.304
1.7257
-47.661
-38.769
-173.61
-23.919
167.1
123.79
36.272
-142.25
-97.481
-103.15
19.584
-33.429
-8.2356
273.14
-69.583
-167.43
-26.651
-0.02987
161.73
82.193
-60.32
-14.54
-22.328
-156.39
9.4576
353.65
25.143
26.486
-126.55
-207.21
267.66
60
-101.49
50.695
-78.283
25.196
-113.84
-147.63
121.8
-38.938
-121.37
106.86
-30.153
156.56
4.4311
-78.408
-122.79
66.186
174.66
4.3889
-64.976
45.951
-64.221
-97.382
12.415
48.654
205.04
4.0646
-227.45
-148.29
-52.062
158.96
49.304
134.5
44.427
-95.506
-189.49
-253.63
190.21
191.47
13.685
8.1369
5.6248
-13.693
5.5492
-8.7386
-15.393
5.9346
-10.786
3.6
3.4195
-4.8581
6.4831
-13.696
-3.2257
2.1482
-7.4943
18.881
-11.009
-0.94084
17.654
-11.354
12.275
4.3565
-8.7943
14.894
-13.263
1.6737
14.419
-15.716
-8.9283
19.119
10.141
-24.596
23.201
-0.21534
62.184
6.1175
-130.31
-0.87099
20.935
29.743
-14.098
45.482
78.053
-78.482
13.97
85.261
-5.0636
-159.23
-43.069
90.741
-1.6442
2.099
43.158
92.107
-140.41
-75.914
34.608
11.227
40.274
3.1035
-9.3229
-10.669
1.7944
-9.2699
-2.6991
20.859
-18.066
-44.522
-61.858
-35.637
79.947
94.056
90.372
-114.15
31.47
1.9466
-33.213
-10.641
6.3732
-1.9359
6.9853
3.6883
2.0563
-3.7601
-3.6506
0.36066
6.4025
4.9253
-14.584
-8.14
10.155
2.2598
-5.6629
6.6047
-2.4885
-10.5
1.9973
0.088444
-11.689
7.4725
4.1413
-5.0495
3.2801
14.961
-26.752
0.15374
41.643
-3.6384
-0.52251
10.23
-3.7215
-24.906
-2.0096
-16.804
-7.692
10.42
-2.4965
-4.0967
5.5356
-3.8541
6.0255
17.097
-30.52
-61.857
85.458
46.867
-33.452
-4.3141
-4.0621
3.3873
4.8017
2.1311
-6.6988
-1.1399
-15.389
-6.0783
19.317
6.0856
-0.094108
8.8026
-11.286
-9.7707
8.3142
-4.4562
-2.4537
2.8964
-3.1886
6.2936
-2.6819
-8.8558
6.8148
3.5529
-3.2189
4.4041
5.2002
-8.0384
-3.3457
0.25593
-1.7796
6.9397
-3.0863
-4.1992
8.1321
-4.9225
-5.0281
6.6391
-5.0536
-7.4693
7.1273
0.46843
-6.6315
8.0955
3.981
-9.8461
4.5899
-4.4492
-8.1182
0.53163
5.8011
-0.45263
0.23942
7.7767
-1.7283
3.0846
0.99366
-11.439
0.28104
14.264
-5.9396
10.421
21.796
-18.309
-13.127
2.483
-9.5921
7.2956
-5.5521
-5.6746
-8.634
0.97622
9.0564
-34.416
15.88
-24.912
143.94
38.518
-176.43
59.477
59.13
-8.2169
32.998
-40.842
-39.083
-257.8
-83.161
353.66
23.93
-8.8117
-15.424
45.889
-37.032
-16.543
121.71
-217.17
63.175
-27.762
-30.927
84.42
-0.26629
0.84197
-37.324
-8.8422
20.022
-0.6206
-0.81843
-17.582
-29.595
34.539
21.459
19.77
-0.3152
-3.1944
-3.6086
35.659
-102.68
40.515
46.314
100.29
119.86
-445.25
49.471
32.681
-14.769
53.929
27.137
99.317
-38.76
-79.231
-21.609
187.27
188.47
1.2874
-229.97
-158.66
-19.173
43.449
2.5221
14.697
-25.577
22.704
42.228
-3.2769
-12.966
27.916
24.644
-7.6422
-1.8757
-2.4641
-11.033
2.8838
26.703
2.6983
-13.698
2.6146
1.5677
-18.879
2.9488
23.939
24.235
-15.425
-43.315
-51.847
-83.723
2.1298
152.78
60.742
-221.85
-48.169
-123.85
207.6
470.7
-230.97
-116.73
52.65
-50.69
-55.148
42.29
11.116
-0.66784
9.1345
-6.1246
2.2393
23.657
1.0702
-24.142
-44.556
38.254
-69.02
96.264
83.485
17.238
101.8
-128.75
-121.8
-200.83
-206.41
303.63
410.78
-192.38
-160.14
35.079
0.62727
20.086
26.394
11.386
-0.84356
4.4364
-26.95
-9.456
7.3497
-6.1908
4.5415
1.3364
-13.673
7.8171
13.649
-22.815
5.9309
-1.1449
27.31
17.658
-40.554
-1.3826
-17.971
-0.38441
15.385
48.882
-27.635
-133.32
91.009
15.764
-44.121
55.285
32.892
3.9931
13.983
-0.73356
-20.378
-8.9989
49.371
-58.172
-67.421
-6.8554
57.262
33.74
-32.974
1.2355
-31.776
-12.483
10.147
-23.854
34.237
24.486
-5.6677
-4.9445
-44.016
6.9223
70.144
-26.439
1.5688
-21.452
37.046
9.679
-54.258
-14.931
81.088
-46.972
62.681
-12.937
-58.592
-8.4542
52.456
-12.678
-18.165
14.931
2.3095
7.3759
34.741
-17.358
-36.391
58.346
5.0141
-125.57
-2.0754
17.981
61.931
-72.459
98.516
-70.218
-16.041
43.203
18.673
51.652
-14.462
60.563
27.501
-127.77
54.55
21.918
-93.299
38.879
-66.104
-35.41
-43.07
-5.3754
-254.89
133.9
271.35
-132.33
28.472
220.32
245.37
-313.92
-337.73
44.624
92.883
126.3
2.5432
-13.366
-7.0009
9.2254
7.2069
-2.9606
-17.572
-28.779
27.028
-14.938
62.496
-72.861
-93.625
224.65
-108.64
54.772
37.156
-134.84
6.0108
-52.187
79.256
-135.25
-4.8006
341.85
-127.48
2.4248
-68.608
-30.502
29.864
9.8434
-92.55
243.22
67.078
-257.89
53.502
-62.02
36.02
-17.86
106.32
-184.44
110.78
146.54
-204.58
-320.5
182.78
215.7
-115.18
-29.275
174.7
76.08
14.509
-31.998
20.037
-47.759
-22.168
25.501
-10.34
34.271
-13.292
-14.848
11.69
-10.55
46.609
32.245
-272.85
-83.123
-21.761
139.79
131.56
-3.4597
0.050637
-5.7549
-26.47
6.311
-16.54
2.1006
37.561
43.196
221.22
-240.32
-206.81
86.504
141.91
-68.573
-43.519
-2.4151
-4.9701
26.853
24.629
-31.957
-7.6068
33.917
-15.806
-3.1083
0.2107
-53.077
-16.734
88.927
-25.809
-18.835
45.989
-24.871
-8.0281
14.992
231.19
-280.44
-150.32
125.67
18.911
168.47
4.8951
-48.511
-208.47
143.82
26.442
-17.088
-71.288
92.466
135.43
-169.32
22.555
-0.051328
-0.088889
-85.934
16.828
51.709
32.433
-47.698
-24.318
84.552
9.7756
18.384
-33.581
-47.785
-14.807
61.252
110.16
-70.649
6.1335
-107.32
-85.789
129.13
-0.7707
-21.612
3.0207
-23.483
-69.224
-22.887
28.451
77.538
0.68009
11.437
-8.0422
-29.11
49.001
-48.964
-7.7524
33.545
6.1382
-38.859
36.331
-31.57
-36.077
22.01
85.574
-20.552
-38.959
2.2812
-15.405
-5.3445
-1.0262
68.602
29.668
0.014032
-105.69
-97.596
186.23
17.912
-102.62
37.406
21.208
14.385
-49.29
-41.692
38.458
72.468
28.231
-144.42
7.9102
99.576
-35.338
-75.417
11.905
103.4
-3.0218
-42.514
17.423
-45.733
58.216
13.782
-55.292
100.48
71.191
-298.12
65.102
56.355
51.661
-69.36
-26.331
133.48
34.708
-56.783
-79.92
17.19
-57.243
40.088
-25.399
-10.319
-13.477
37.356
85.708
-80.611
34.416
11.609
-52.259
2.2276
58.808
41.176
-4.3831
-80.833
-24.877
47.08
-0.12289
-43.493
-5.5962
57.331
29.696
-164.09
-6.527
190.04
-133.12
-18.455
234.36
-54.157
-60.483
1.7087
-94.811
0.65825
86.714
19.983
-62.871
-31.82
106.67
-36.105
-65.635
93.892
-10.139
5.8384
5.2176
-45.423
24.075
-48.837
-22.217
9.4944
3.2055
94.568
17.494
-57.179
-60.103
14.09
57.513
-98.983
32.539
31.644
49.683
-9.9633
-86.377
70.785
54.393
-100.74
7.0161
5.5942
10.042
25.629
-90.057
-42.513
24.544
99.151
0.64578
-44.184
135.63
-61.187
-61.238
5.7317
-16.155
-16.169
29.991
111.27
18.945
-182.9
-60.216
129.28
90.099
39.048
-123
-97.532
40.743
74.322
-20.356
32.011
-51.071
-38.892
101.78
-4.4761
-99.707
36.515
150.58
-86.463
-174.96
162.7
12.518
-153.59
66.954
82.62
-6.7462
34.257
-40.304
-151.98
43.471
134.44
63.21
58.92
55.739
-141.4
-269.23
-76.352
48.837
135.95
82.306
29.845
-43.075
-0.99132
17.58
-72.103
7.4835
53.841
101.57
-135.39
35.664
-19.74
-103.08
128.01
66.957
-14.499
-27.06
-44.627
-31.302
84.552
16.054
-37.177
-13.451
-90.117
9.0773
97.162
27.146
-35.789
-42.334
42.008
-39.233
20.028
-26.473
33.63
39.802
-151.42
81.6
-4.9168
-40.904
70.67
87.774
-80.209
-17.239
-23.259
27.119
102.57
-109.21
-109.37
91.008
63.685
-24.142
-3.1156
-24.895
-13.9
55.904
41.943
-70.306
-72.956
69.388
78.169
-44.857
-10.868
-13.491
-10.628
16.958
47.77
-33.136
15.258
-141.86
-16.1
58.905
58.608
53.642
2.3175
-111.96
36.888
-3.1567
24.092
-70.832
50.72
-5.304
-104.88
133.72
83.838
-99.199
-97.472
-16.343
110.7
75.053
15.016
-39.387
31.009
-16.731
-81.304
27.317
-84.154
-42.794
165.41
-22.593
18.85
69.258
-111.96
-41.994
-13.985
95.623
75.554
15.37
-89.818
-31.957
17.031
-46.717
-51.963
46.702
36.638
77.237
-55.883
-92.132
65.868
-20.97
79.982
15.025
-206.41
161.62
155.04
-94.98
-35.147
-8.5289
-52.195
6.44
-47.469
64.34
24.929
-87.094
71.576
31.148
-55.41
-20.578
129.01
19.531
-121.78
-98.572
-75.248
187.29
74.154
-34.406
-23.738
6.6155
9.5083
-14.857
-25.62
-21.851
2.0802
28.942
12.406
-34.223
-68.656
46.331
-34.493
-100.99
198.37
135.48
-117.23
-74.56
-70.804
119.92
-13.221
-10.133
42.088
-9.7932
7.4006
-57.941
-60.715
45.775
14.243
-26.851
25.912
48.862
4.5977
0.47283
-11.099
-56.203
-41.976
108.17
-20.638
52.105
-20.353
-116.35
41.943
73.895
-35.235
-32.259
-28.285
-50.989
111.93
-31.719
-11.787
74.5
66.098
-31.659
-159.83
46.606
93.762
-59.389
3.5303
22.366
-60.656
86.92
2.8325
-53.314
3.8005
41.968
6.2298
-53.168
-23.038
21.323
-26.473
35.787
-18.285
-58.117
29.189
-19.868
59.811
18.021
81.884
-158.35
-14.232
85.352
-71.176
22.478
93.433
-37.428
-22.961
-25.082
99.778
-98.467
53.378
97.866
-156.88
-83.402
135.97
-7.2512
-54.938
93.953
-22.279
-57.806
-0.93423
1.8116
50.977
86.847
-65.452
-46.268
-22.302
41.22
-112.91
-7.2804
86.089
-43.441
26.594
99.227
-22.634
-81.334
33.663
65.866
-120.33
58.845
61.191
-18.617
-0.56543
-39.677
-24.309
23.137
-13.194
-75.638
60.447
22.021
9.7627
76.175
-73.689
24.12
-22.744
-47.96
4.4116
39.475
-5.9931
48.493
-22.049
-76.88
61.523
97.476
-87.658
-81.885
66.696
-57.173
17.987
57.967
-31.314
-46.906
49.045
39.328
-47.001
61.548
-98.024
0.49956
46.939
13.332
38.061
-9.1545
-77.282
58.809
9.6442
-52.268
-5.713
9.7452
-74.381
-70.289
140
69.761
-51.806
42.241
12.548
-51.235
14.151
50.796
-26.003
-37.753
22.41
-60.676
-26.821
47.098
-33.761
28.112
53.287
9.7447
28.691
34.256
-54.912
-53.862
4.6744
-31.821
-110.2
18.486
43.375
54.382
108.89
-75.706
-58.743
106.83
-64.139
-42.544
82.197
31.69
42.939
-171.57
-77.931
157.54
36.958
-87.847
-1.6158
55.364
44.592
2.3576
-1.1297
-0.86254
-49.493
-109.02
-16.892
130.96
97.546
-32.816
-38.136
-50.751
-41.327
40.77
49.682
-27.585
-35.799
61.643
-8.0119
-31.668
-6.7541
-29.353
46.665
-68.745
26.179
60.52
-41.589
-25.398
-11.171
14.623
8.3417
13.017
13.016
56.543
-7.0428
-26.974
-10.098
1.6917
-65.217
20.419
65.483
-46.594
19.661
13.798
57.814
-97.6
-15.616
82.08
-36.856
54.671
-9.3811
-32.425
-18.821
-51.051
-59.623
59.282
142.35
-11.896
-87.246
-91.744
99.169
77.778
48.023
-211.16
-98.484
165.75
-38.654
11.452
66.953
-43.061
-0.011617
9.7629
3.4224
-30.591
-41.625
70.167
3.6885
24.252
17.075
-49.671
-35.007
82.952
-10.097
25.109
27.383
-64.059
-47.928
24.878
-44.449
9.0306
51.393
-0.15359
45.464
-42.891
-10.39
46.453
-25.08
-51.996
2.0989
12.039
82.148
-8.4582
-70.023
-52.851
-25.054
104.48
-58.963
46.057
20.113
62.664
-71.215
-6.8788
2.4762
-94.034
98.699
24.681
27.296
-28.266
-120.13
11.626
71.997
42.396
-39.725
17.264
-11.397
-4.6028
-10.987
-8.9238
19.463
18.077
-26.954
-30.902
24.238
43.235
83.155
-188.9
69.01
-69.493
-75.047
87.955
0.56937
31.285
55.889
17.053
-20.247
31.068
63.195
-23.688
-69.852
-22.563
-52.486
17.376
89.39
-13.566
-65.883
-54.3
64.688
-32.582
4.4757
-74.543
68.808
52.829
-18.412
5.8904
14.19
7.1561
14.984
29.091
-49.753
-38.46
39.941
6.7845
-19.987
16.68
6.0454
-18.977
0.796
16.965
-14.752
-28.461
11.303
10.341
-8.2322
-27.072
49.343
-19.023
2.4603
9.4953
-21.983
-37.99
15.808
66.426
-4.6951
23.238
-133.72
87.772
115.41
-18.573
-80.596
-24.93
87.674
-33.976
-48.869
-61.181
74.276
-50.67
37.608
47.782
12.756
-133.5
10.369
46.937
71.815
145.72
-134.88
-55.806
-92.741
103.82
73.404
-108.22
-52.664
-4.7825
74.522
126.5
-97.015
1.8563
-109.88
107.85
-7.4726
-12.654
29.142
-47.75
-23.999
-14.403
26.655
-38.392
67.414
-57.908
-40.881
78.629
94.569
-75.328
-50.748
-15.994
122.41
90.916
-120.38
-43.412
-5.7911
33.021
-46.731
9.9512
3.7809
-46.303
142.94
-54.656
-59.397
71.281
-1.4923
-76.53
-31.714
25.021
31.711
37.071
-48.001
-47.287
103.94
44.981
-63.648
-3.0897
21.706
11.96
-21.45
18.598
-4.573
-38.404
14.345
-35.775
-21.755
97.918
95.444
-128.83
-105.58
-33.327
93.88
105.44
-26.644
-82.465
89.117
26.253
-39.391
-41.832
-93.607
94.262
-91.664
54.29
105.93
-2.6039
88.549
-76.606
-214.5
62.534
95.09
-192.16
-26.816
207.27
-55.285
-1.9687
20.492
-7.5701
61.472
-12.962
7.0003
-22.362
-17.375
-54.707
21.253
87.921
0.6587
-19.702
48.171
-56.435
19.264
17.019
10.559
79.014
-84.511
-36.749
40.561
32.212
-154.08
-59.323
116.84
63.228
-127.02
92.928
94.1
-140.36
68.711
34.52
-102.92
37.443
102.19
-110.13
-108.41
35.167
56.765
-46.324
88.479
64.838
-46.113
-78.995
24.804
27.868
22.032
-42.445
-82.622
65.039
63.122
-30.909
8.4792
-36.859
-7.5505
63.927
79.417
-9.2313
-104.61
8.5332
-60.046
-14.433
-31.024
37.403
144.4
19.398
-194.56
-4.442
132.64
-47.415
-66.17
141.97
-235.42
-10.498
113.97
81.936
35.023
-56.945
-39.913
-107.88
-9.0839
113.43
64.478
5.4425
-0.44127
-7.4194
-36.586
77.769
-53.659
-15.291
72.074
-49.8
-57.107
4.3188
90.979
-14.267
-28.88
3.1445
53.566
37.253
-56.513
-1.5846
-31.355
23.535
-24.518
58.281
16.355
-97.584
9.5347
-8.5185
-28.982
-6.4072
38.176
68.828
-41.334
-72.865
-47.74
55.556
38.439
-25.444
-17.407
61.235
-31.782
-26.446
-20.796
7.6179
-47.508
2.8747
60.452
32.093
-8.7378
13.097
-51.903
-3.3575
122.44
-22.911
-63.242
29.097
-65.501
35.63
102.89
-53.962
-76.908
-7.1746
125.2
2.5172
-30.054
-37.067
90.368
-30.527
-13.025
-12.473
-40.181
-55.956
11.946
47.307
44.61
-1.0172
-11.962
45.254
-33.23
-24.57
-44.535
8.6221
10.592
-26.359
18.399
76.271
-5.3171
-14.497
-90.513
31.934
-25.67
56.982
-72.615
25.946
61.02
19.692
9.8766
-19.394
-91.381
-33.999
88.583
4.4048
-34.289
28.648
42.95
-63.528
-17.334
-13.54
76.896
-18.28
-60.779
73.446
7.9551
23.195
-15.835
-28.923
-62.749
66.922
-25.352
37.488
11.051
-53.843
53.019
11.795
-74.706
49.372
-25.219
-19.452
72.633
-8.2367
-120.56
-4.0654
103.99
-51.584
-27.506
69.047
-1.5906
-23.67
9.5913
19.837
-40.166
-44.593
99.205
44.503
-27.948
-68.818
-72.678
72.38
-29.36
49.37
14.588
-15.727
67.924
-89.449
6.3408
67.379
-11.84
-70.579
18.756
23.271
26.573
44.672
-27.61
-57.536
23.181
-12.493
-21.962
-54.362
128.23
41.859
-125.56
-10.066
-88.507
30.36
133.96
-36.734
31.332
10.623
-39.452
-47.797
75.644
-107.37
21.667
82.779
-49.375
18.247
7.3006
-6.2616
61.223
41.648
-38.213
10.057
-38.322
-19.134
-15.338
-1.2105
22.883
-11.017
-14.749
13.582
0.45785
8.2764
-37.582
-29.293
34.795
9.5345
37.23
-42.122
11.207
12.021
2.7522
-39.147
-11.55
38.946
-52.039
-128.58
117.65
45.001
16.493
51.14
-81.794
-43.102
74.694
7.9985
-47.644
29.178
4.0235
17.264
-7.4311
-40.482
42.534
36.089
-47.608
12.92
51.892
-109.39
-17.618
95.197
7.1121
-62.596
14.635
89.709
-21.013
-13.764
-16.421
-25.652
-2.7591
-24.033
-30.173
32.914
-34.275
19.81
29.284
49.822
-8.4931
21.319
-33.232
-64.109
13.764
60.223
-9.5883
-97.904
-25.734
71.407
22.891
-68.685
-0.30759
99.611
3.9644
-28.949
-36.429
-18.318
107.17
-41.082
-23.373
84.319
-52.293
-37.441
54.442
48.282
-32.562
-36.941
-105.96
95.093
137.74
-55.083
-78.559
-5.9929
-30.957
-24.089
76.763
10.742
-117.35
42.121
99.329
-73.355
27.98
-7.6273
20.341
-25.305
24.426
51.206
-60.28
-19.651
-48.779
-67.404
108.24
110.71
-103.55
2.3692
-91.963
-7.3423
57.549
45.147
9.5868
50.456
-26.792
-59.914
20.542
-48.61
28.88
63.74
-80.285
7.2694
68.495
-25.766
-13.242
34.597
79.264
-108.05
-44.745
30.318
-28.017
144.39
-26.602
-36.458
3.3011
-36.01
-40.567
-16.476
77.814
50.7
-37.121
-70.286
-52.292
-2.3048
29.609
151.89
-62.383
-149.03
88.429
51.686
-17.267
10.077
8.3724
-39.88
1.694
-73.155
15.344
1.8576
64.986
12.051
91.857
-27.758
-23.395
38.14
-27.754
-35.394
-64.168
-108.7
95.893
44.378
50.568
-3.5615
-3.5334
57.092
-116.23
-4.9937
-6.1596
0.19487
133.55
-70.588
-54.509
43.361
-13.455
27.504
-13.455
-0.70188
9.2147
-15.297
-61.573
5.2081
39.28
-25.211
-51.818
80.78
53.983
-77.453
-19.36
-88.485
-29.192
134.45
69.162
-61.415
10.784
5.5851
-12.204
-0.96036
18.079
-18.743
13.174
33.967
14.962
-70.745
-0.42104
41.325
-4.357
0.91361
-15.254
2.7083
-29.407
64.231
-28.142
-42.178
-27.021
-62.824
82.468
106.67
-92.871
-15.169
20.424
63.687
-28.902
7.1338
43.664
-48.221
9.0838
84.909
-107.2
-68.862
198.52
-118.19
-81.056
85.563
-32.178
0.7848
26.58
14.368
-31.046
4.4133
46.397
-70.9
-59.928
57.636
189.39
-178.19
-94.809
4.6568
40.055
136.83
-101.36
-33.189
127.56
-9.9753
-4.2576
20.564
-58.671
3.3684
-24.697
-70.96
1.6616
39.424
39.591
15.97
-41.295
20.247
15.672
-11.092
47.198
-41.343
-32.522
45.759
5.1689
-33.886
-28.008
70.866
8.3686
12.547
31.933
-112.86
2.7345
-56.315
110.67
17.354
0.76295
70.851
-59.437
-112.33
-46.726
78.906
60.84
48.112
-64.611
-4.9794
-28.169
11.371
27.613
13.719
-174.72
60.295
91.783
-17.97
-0.14881
-22.685
-3.2063
28.273
45.453
-48.522
-8.3961
-1.9949
24.474
35.917
-41.579
-2.3208
-11.442
26.76
-13.276
-48.548
92.452
-38.647
-31.649
12.173
-7.3918
47.987
-16.758
-2.6839
-16.947
-73.205
-38.871
53.872
31.382
-7.5525
10.874
14.606
-37.195
35.159
21.102
-27.95
-19.49
22.468
-1.4612
-7.3053
9.9791
6.0172
21.789
26.88
12.254
-4.0394
11.825
0.23686
-24.227
7.8242
5.3208
-20.241
-1.7734
-24.282
-41.516
-67.444
-28.503
94.177
10.158
20.516
20.736
53.458
-39.075
-14.329
-10.897
-59.239
37.425
137.28
-31.466
-115.26
-17.335
-6.8994
142.27
81.665
-37.631
-111.78
-104.64
-84.144
103.24
89
-59.323
-45.683
-44.771
56.745
79.025
-75.033
-30.192
125.02
155.2
-8.4234
-60.844
-217.78
-20.341
117.85
-79.84
75.325
5.0902
-6.4811
-53.627
-1.4154
25.766
-4.7274
45.587
-17.534
32.363
-24.339
15.39
10.365
9.5045
10.752
-16.371
15.166
-14.791
25.649
-1.4741
-27.908
-32.829
-64.501
68.875
-18.123
-18.095
173.95
62.049
-32.194
-36.84
-131.52
-93.4
133.49
-102.98
12.627
45.244
23.11
-0.47617
-61.475
-53.89
45.822
1.8268
-42.682
50.954
76.994
76.899
-41.104
-59.376
-27.646
-9.4156
-45.872
3.6558
31.349
-13.266
-6.3326
48.297
30.412
-11.102
24.539
-46.405
44.739
144.44
-69.215
-123.88
-6.4079
1.6193
45.839
102.2
-63.644
-39.678
27.568
-11.755
-80.219
44.78
20.517
-70.552
58.279
17.181
-12.734
6.1026
25.225
25.938
100.37
-0.73464
150.7
-123.97
-287.77
29.138
109.6
-8.7029
-30.034
-25.905
-53.664
107.37
52.361
-11.925
-31.183
-106.09
39.68
160.45
19.612
-142.52
-61.678
-66.329
21.756
-127.14
45.258
119.4
-105.11
-9.6314
21.436
74.405
43.953
56.126
17.843
0.53141
42.13
-2.146
-106.98
11.307
76.821
8.4677
34.229
11.105
46.85
-27.505
-113.13
-103.54
43.819
33.696
-11.732
-60.947
-28.078
-5.2436
-27.565
104.61
6.2406
-89.374
5.6654
67.788
10.365
27.606
-13.599
-58.477
32.124
-47.747
47.457
45.494
-45.359
16.09
-1.2361
-5.9908
30.719
-12.761
184.83
128.99
-301.48
-29.91
-20.143
63.326
7.0263
-23.123
39.222
-26.318
28.281
-47.919
13.969
56.257
-20.376
3.8226
25.482
-43.829
10.828
-8.5839
-22.289
-32.683
21.859
4.6204
-8.7892
15.346
54.569
-0.013239
-54.112
-9.8162
-122.98
87.549
60.083
33.522
120.41
-69.878
-89.258
48.079
-104.44
-136.28
136.02
160.16
-193.96
-19.847
29.464
-59.906
51.468
20.102
-10.831
53.613
48.32
-44.59
-9.6261
-29.353
21.286
29.885
-15.59
21.451
-3.8777
-5.1474
15.87
-12.441
5.9118
-1.4778
-1.2069
22.905
-11.647
-10.289
2.2004
-13.397
28.512
6.2318
-10.432
-4.7539
9.9845
-62.448
61.531
103.69
-18.202
-22.905
-60.867
13.107
-127.83
0.14799
114.22
-19.042
-49.348
198.58
-27.776
-135.28
27.392
-29.861
-15.918
108.62
70.494
-94.413
-47.412
-56.373
-54.235
109.53
-43.181
-56.221
153.75
53.273
-116.57
5.5607
-9.5241
12.221
8.0247
-53.85
4.0766
34.332
-38.34
12.936
24.907
18.686
-35.287
25.819
-20.648
7.4437
16.497
-5.1671
-23.662
13.705
40.312
-6.5101
-46.193
-9.0519
52.166
-20.64
3.4642
51.014
-51.567
-78.817
15.262
40.736
41.997
-24.608
-36.297
-78.847
109.39
35.692
-25.401
-7.6918
14.527
-31.548
-6.9837
-59.039
36.112
192.06
-52.68
-144.52
-12.189
131.05
-72.692
-6.0158
41.646
-19.967
-55.091
40.149
-25.116
-42.726
-5.299
9.9059
13.618
68.455
-63.124
84.516
46.394
-127.8
-19.628
72.725
-1.2829
-124.62
149.25
-17.807
-50.355
48.169
-1.2065
-6.4534
20.044
-22.032
-20.423
-4.0958
44.96
-25.484
12.003
6.108
28.734
-5.5902
14.92
-144.63
-48.385
105.33
22.039
-13.444
-52.188
-8.67
102.1
8.4136
-47.054
34.278
-5.5875
-34.679
47.392
-6.5983
-32.704
-42.355
63.333
88.674
-84.777
-0.85021
-85.928
20.373
55.977
-4.8432
10.715
33.551
46.547
-47.592
-9.4328
-33.706
-94.596
179.06
96.313
-118.57
-52.715
0.039294
66.317
-47.144
-18.15
10.486
63.523
-15.564
-16.153
13.926
-35.759
-59.885
33.915
-0.20602
27.967
-28.724
-35.828
45.489
-34.402
-13.571
45.594
15.809
-15.06
-41.048
3.2888
64.951
-35.111
-43.963
-37.823
89.522
18.841
-37.384
-49.878
13.893
35.317
50.241
6.5132
-2.8996
-45.06
-36.411
24.164
31.533
13.313
-9.1227
35.825
-30.647
-111.98
69.194
98.431
-123.29
118.22
61.82
-92.62
-76.589
39.15
18.03
-23.62
-55.891
-20.784
3.0953
35.983
-81.283
63.4
138.81
19.936
-30.674
-121.48
48.133
79.056
32.484
-63.032
-40.058
-140.81
60.987
126.35
-10.104
-1.0688
-22.086
-51.056
18.818
-35.913
-7.0174
-51.801
61.054
-28.352
6.3491
87.953
17.763
-111.39
-58.528
121.2
77.778
-86.311
10.974
92.927
-21.365
-34.482
48.025
17.053
-35.514
-21.292
-1.7272
-46.9
-43.644
58.581
27.944
-63.197
59.226
17.462
17.865
-10.824
-36.302
-19.903
69.027
-6.1397
-52.553
-34.466
90.349
14.767
-89.126
67.414
73.571
-135.94
-93.419
-6.9066
42.529
168.15
-77.217
-70.853
-37.988
89.489
32.558
-20.256
48.483
-59.888
-42.618
75.193
-10.516
-22.324
-33.017
55.557
-49.647
21.205
19.382
-41.669
0.77019
-1.0224
19.277
8.0239
22.873
-41.922
37.873
29.663
-65.919
41.655
9.9502
2.333
-7.2372
18.166
-32.751
-67.751
-5.0006
57.628
25.859
17.293
-48.586
-18.287
-23.623
44.397
-66.082
44.068
43.892
14.005
14.593
-109.62
0.13853
78.145
-15.383
-7.0954
-11.685
-68.015
10.834
24.859
78.846
54.811
-12.797
-18.794
-50.952
-31.032
-6.5575
55.556
-15.874
-18.891
-32.367
57.053
-2.0939
36.813
13.586
-41.852
-27.969
11.19
54.728
-20.8
6.3707
-71.278
-46.513
38.97
-9.9968
31.167
3.5774
63.261
6.5311
-78.736
-15.562
-10.786
-136.4
43.381
135.48
117.11
-1.2289
-137.65
-35.619
0.22272
71.48
65.748
-76.884
7.7007
45.317
-49.56
-47.733
58.661
-23.668
77.863
25.031
-156.7
1.7125
41.997
-101.98
38.11
91.03
25.438
44.61
-41.917
-134.84
54.378
71.872
18.423
25.383
-27.092
18.648
-39.398
-28.768
-27.932
-20.848
-2.4369
37.489
92.78
16.383
-36.575
24.419
-2.0992
-60.656
-31.749
-3.3969
-85.271
57.212
33.26
51.18
-33.905
-8.3008
44.337
-71.388
65.806
-38.9
-118.69
111.63
6.9742
34.308
32.199
-28.868
-111.42
-30.559
128.78
21.021
49.3
-20.672
-29.687
2.2906
-15.641
-26.962
-10.53
49.881
38.374
-27.803
-6.3048
-0.32074
-28.573
-23.9
19.177
15.32
-39.059
38.794
33.816
-18.224
-26.771
-12.342
6.5406
-36.978
9.9552
6.4424
-82.174
-31.216
46.382
69.905
-24.934
-88.669
28.892
100.62
19.044
-72.235
7.9391
63.625
11.17
1.6896
37.797
-107.48
-37.142
16.371
99.045
28.108
-89.595
2.4613
56.822
-8.6296
-67.76
134.62
-44.411
-61.27
-12.251
8.555
60.969
-23.023
52.332
-16.116
-85.087
-49.38
21.346
-15.242
7.9533
52.549
-17.557
7.2812
-82.234
99.656
112.93
-12.812
-55.337
-89.489
-28.957
18.678
86.265
50.612
-64.953
-30.654
1.5443
-22.362
-6.7362
106.37
-117.96
-71.313
60.655
71.513
7.3824
51.704
-45.356
-115.91
14.084
48.399
-17.142
35.905
88.357
-34.286
-36.209
-30.075
72.29
-38.477
0.11947
86.679
-25.523
-168.12
49.997
91.025
-26.133
7.1037
9.54
-41.085
-32.39
70.546
-15.156
46.082
-0.89823
-39.126
-43.655
-19.018
-3.5561
99.27
63.536
-71.746
-160.58
71.208
41.158
15.178
39.32
-13.368
-2.5414
9.8392
-39.924
-47.382
-42.549
33.035
9.8272
89.535
-64.802
-149.42
38.766
124.92
8.0222
-40.155
-29.954
-16.348
3.6227
26.078
90.324
-49.653
-50.003
145.33
-22.399
0.66327
3.1729
-13.651
-75.136
-89.889
53.113
15.782
-1.8022
11.68
54.701
-35.142
-67.096
99.018
10.139
61.154
-90.743
-34.286
81.123
9.892
-32.04
-21.106
-73.924
56.093
60.869
-21.81
-26.353
19.569
2.8665
40.219
-103.11
56.414
12.789
-16.941
2.5077
-1.2224
1.8346
-20.688
0.75669
-23.754
69.886
-30.162
-140.03
33.563
65.768
-0.89696
36.594
7.8603
-7.7234
-59.688
74.546
24.653
-149.07
-1.5892
55.288
85.154
-23.821
-76.345
0.57602
59.291
54.338
33.022
3.2149
8.6312
-1.2935
-28.524
-87.121
-49.916
22.971
36.786
-14.593
58.014
-53.28
67.514
-16.14
-72.129
13.95
-14.671
-26.31
3.3251
76.699
14.389
14.618
-66.542
10.678
75.987
-57.908
-23.206
90.07
12.913
-55.823
-25.729
-55.231
-3.0766
79.959
95.164
-24.308
-105.42
9.881
1.2133
27.136
42.129
-97.931
-15.162
121.76
-28.586
-100.05
-74.207
78.322
-20.891
-52.722
161
-23.137
-14.33
50.77
-64.458
45.545
65.867
-116.41
6.9042
-7.4144
1.0032
-18.458
-10.472
83.882
60.678
-55.961
-105.24
23.007
46.266
27.734
-30.808
-20.955
35.991
-19.699
-26.108
43.028
44.204
-55.842
-39.734
83.786
12.192
-56.146
45.572
18.305
-53.654
-28.434
21.432
-18.746
67.338
-21.036
-55.35
21.768
44.889
-7.164
-34.645
-45.33
5.9295
9.7597
22.508
34.961
-28.662
0.095415
-0.35966
-70.663
7.0305
21.741
-40.394
22.835
33.498
-28.954
1.9449
33.145
-4.9113
-79.491
57.556
136.71
37.613
-80.396
17.497
-66.922
-124.45
96.268
40.157
-97.532
37.457
87.315
-18.853
-7.023
39.294
36.175
2.8994
-58.283
-116.25
30.326
49.565
14.642
29.352
-98.135
40.993
84.744
-47.128
-16.1
5.0778
-41.907
21.521
38.386
-1.0355
-9.1724
28.41
-54.43
-7.4341
36.11
-35.764
-1.2308
-3.2752
-13.951
18.435
-1.3188
-45.513
27.365
37.845
-19.774
10.404
-52.004
9.5982
22.289
-29.321
33.844
35.804
7.0129
-13.449
26.615
9.4514
-95.908
5.3367
23.206
8.9601
23.564
66.736
-38.922
-50.092
28.341
-21.63
-5.525
36.571
-22.55
-28.644
24.365
7.5146
15.663
-24.664
-42.86
1.3965
109.5
-25.904
-47.323
16.055
-22.513
12.065
66.825
-22.236
-24.327
-33.572
-48.458
-2.3742
82.128
5.3094
-117.6
3.4387
104.29
41.855
-48.773
-24.325
-40.748
91.02
-4.2969
6.1045
17.318
-83.135
-25.993
33.652
39.332
8.5302
12.254
-17.33
-122.06
98.923
63.158
30.786
7.7317
-33.145
-73.073
-59.485
62.474
57.199
-17.807
13.348
36.384
-51.54
-11.223
15.849
-50.891
42.223
81.769
-57.62
-18.549
-81.411
7.3315
29.973
-14.48
15.463
-15.279
-27.159
-29.839
-28.487
61.42
18.905
32.152
-14.013
-21.015
-48.138
22.753
72.977
-8.4808
-16.045
-2.0052
27.647
90.157
-64.044
-13.836
46
-43.605
-46.123
39.852
-3.6019
-64.587
110.25
25.725
-175.41
-21.186
106.74
-23.659
-25.592
80.349
34.078
-52.806
-3.747
-11.545
17.258
28.032
13.038
-83.852
15.385
74.198
-43.355
-78.393
9.7143
23.931
23.24
49.058
-74.624
59.379
16.625
-70.267
16.657
-5.2046
-12.954
44.439
-8.3224
-7.2675
-10.605
45.012
-7.7532
-65.158
20.492
23.281
-7.7544
2.4909
-22.306
4.3564
84.92
-13.84
-52.319
-23.74
36.077
-10.939
4.3113
12.107
-37.061
-28.325
22.495
46.105
-29.969
-41.153
20.313
-25.83
-0.31005
29.084
33.275
2.8982
-39.757
-23.323
23.101
12.59
20.952
-55.365
-42.613
62.079
11.679
-50.546
62.363
25.294
-14.457
-19.84
45.879
-143.92
55.401
93.489
-46.444
14.44
-2.9412
10.324
3.7578
-58.076
-79.757
88.407
74.375
-11.381
9.8832
4.2536
6.4809
-2.1514
22.873
36.22
-63.681
17.4
-30.014
-27.13
63.46
-9.5056
4.417
7.4966
-37.059
-36.475
82.589
9.9844
-47.835
-14.051
-35.87
25.801
-12.55
-11.332
-16.959
-16.203
16.572
17.922
8.4644
-30.64
-0.9457
2.661
-16.422
-0.83324
70.983
-0.7056
12.955
-147.77
-2.7788
76.302
-3.3867
-4.4657
24.486
4.8332
-13.913
42.665
-20.166
-15.776
33.926
-11.773
-7.1932
17.291
1.4819
-17.883
17
17.32
-21.19
-6.9506
27.891
-34.112
-20.218
40.028
32.436
-41.367
-5.0091
-63.933
11.68
5.8538
34.618
81.021
-18.886
-83.394
31.233
54.645
-117.89
72.282
-107.73
49.63
195.88
-58.302
-134.59
-4.2229
31.42
37.062
-21.216
49.354
-19.248
-29.488
73.302
3.9592
-81.531
30.714
-62.823
25.001
40.53
-19.065
36.365
-63.285
-78.893
122.36
43.253
-7.67
-96.643
6.0591
-10.261
58.583
54.505
-52.422
0.33795
-9.4044
1.3395
-13.122
13.866
0.56577
-43.054
20.557
11.286
-8.0404
1.0159
32.823
-34.28
-9.778
35.745
14.805
-11.253
-45.797
-63.455
24.022
-11.995
85.391
-23.545
19.686
-1.8102
-33.052
44.049
-9.7629
-28.967
95.958
8.1649
-86.47
-30.897
11.251
-2.9544
25.847
12.24
-35.484
-6.9589
-1.2426
13.622
20.504
-3.7396
-21.196
3.481
22.672
-14.794
-54.077
56.904
38.98
-4.4543
38.409
-4.4333
-58.42
-23.579
-45.133
88.636
60.891
-18.477
-42.941
0.22101
-43.496
-16.153
-41.314
-14.991
126.31
45.133
-24.77
0.52715
-36.708
-41.383
-78.164
57.405
62.928
27.21
3.4631
-46.421
-32.129
49.375
35.631
-20.219
19.72
-45.474
-65.252
23.215
118.6
25.067
-42.749
-15.134
-89.676
-89.761
68.47
71.399
-41.132
8.104
28.552
-35.341
-35.477
23.312
17.243
48.002
-55.28
16.878
47.402
-37.328
12.727
3.1576
-35.29
95.312
3.2527
-25.583
-37.502
-31.792
-50.726
76.471
36.943
42.786
-17.095
-106.94
62.543
-29.575
-42.588
22.259
12.39
85.088
25.272
-24.987
-41.208
0.99522
-27.415
-71.556
-7.293
31.858
-8.8829
3.8834
20.932
-25.469
-1.1942
47.442
-13.373
36.278
24.032
-13.151
-6.5063
-50.436
72.987
15.854
8.7353
-37.095
-48.935
19.55
-49.303
-7.8435
13.757
52.777
-4.3796
-10.403
-5.0885
-47.074
19.682
-49.435
24.195
35.122
-68.706
83.85
113.55
-35.557
-12.01
2.0981
-30.273
-74.415
31.625
86.495
-41.412
-15.785
9.736
52.611
64.125
-14.095
-48.808
-65.012
26.914
-32.149
-24.971
23.891
16.406
-12.088
-0.5516
-10.904
-32.251
-14.943
-28.539
1.4391
0.11124
-11.409
31.962
-59.771
70.166
33.014
-114
17.92
117.16
-13.893
6.7258
-32.961
-25.489
28.416
44.065
-3.295
-15.865
52.884
-2.5455
-12.345
0.85143
-50.643
-35.38
47.061
60.633
-27.278
-49.025
57.699
17.496
-69.595
-38.089
75.312
-40.967
46.617
-6.5411
-47.827
83.886
8.7578
-48.18
2.4946
13.946
-9.3757
-15.049
19.111
-10.964
-106.93
41.631
17.89
10.801
20.112
5.7073
46.373
-2.3711
-4.4002
-70.961
22.275
54.095
-60.613
-15.517
-14.126
48.896
-21.947
54.701
62.892
16.121
-64.565
-117.23
22.953
23.252
-26.419
25.164
-10.747
27.09
-12.42
31.86
86.077
-73.642
-35.205
17.788
-0.46995
-24.914
-13.64
17.363
-5.1083
-54.877
25.503
-6.1502
18.091
17.741
14.652
-21.62
-64.249
11.946
4.4819
-26.937
34.221
3.0465
75.588
54.588
-67.736
-18.429
-66.098
57.383
68.753
-37.641
-48.407
24.449
33.896
57.311
60.258
-37.872
-102.96
-23.738
32.171
0.0027916
10.344
28.931
-88.732
8.2927
47.399
-6.6248
-8.0517
4.9341
-25.73
-67.358
58.371
68.944
-30.043
-11.556
-5.7067
-16.649
80.285
10.919
-118.18
33.649
14.711
3.6187
-22.052
19.009
21.165
-8.8784
-41.16
-32.556
10.252
56.399
-22.694
-41.425
76.635
-55.763
-19.612
70.096
15.777
-45.186
16.098
-3.5517
-10.955
13.31
-3.4351
-4.6087
63.9
2.6823
-48.805
22.118
18.372
-33.331
20.674
82.473
-17.519
-2.3051
1.151
-37.902
-194.66
0.37933
32.708
18.741
164.2
25.949
-42.614
-4.5221
-3.6984
-41.281
-15.228
-53.781
-33.074
18.204
37.091
102.05
-14.776
-108.47
-76.19
100.59
61.323
-43.741
67.04
22.37
-30.134
-36.89
-30.758
30.709
-17.707
37.477
-46.541
7.1029
-11.249
-69.984
70.769
79.324
-44.911
-35.258
14.93
66.465
-26.195
-50.908
46.84
9.1895
4.1959
-26.768
-8.3239
19.964
8.7591
14.101
-10.623
10.204
-35.163
-65.791
23.81
-1.4774
31.357
-6.6991
-58.458
23.206
58.898
-16.46
14.195
-14.349
-15.713
-11.257
10.507
29.72
-10.175
-26.621
-89.925
63.951
113.9
-42.572
-11.349
3.661
1.2399
-37.064
-7.4222
-25.288
-96.371
74.912
45.145
-42.047
94.32
5.6243
-8.1263
-72.32
-41.457
96.418
-35.276
47.171
6.8356
-28.791
14.542
9.1843
31.683
12.168
-69.538
18.287
10.951
19.91
12.181
-36.694
10.187
17.91
39.077
-17.413
-105.64
53.691
-30.639
24.464
68.883
-79.886
-23.027
11.198
1.9517
-57.762
-39.168
154.62
7.5999
-88.911
16.573
59.796
-90.417
36.039
23.854
-31.286
16.242
9.2545
-47.098
37.449
-7.4479
16.145
1.7273
24.54
10.17
-45.881
-50.333
42.349
31.128
-14.004
-10.923
34.968
10.212
-88.798
21.07
73.049
-5.6556
8.8212
-35.689
-32.408
83.703
20.759
-31.915
-41.161
-20.719
-37.781
24.196
-50.004
35.217
51.497
31.107
-2.3186
-10.069
34.438
-37.379
-63.743
-44.047
5.2255
35.81
11.351
4.0334
-13.071
41.14
53.855
-79.424
-17.192
66.146
-9.9806
-65.519
-39.869
43.038
28.449
46.136
16.637
12.418
-12.354
-32.316
-27.974
2.5417
-41.009
37.944
21.657
-80.59
112.57
-15.092
-50.553
-8.5724
25.931
42.683
-44.644
-41.032
60.339
54.127
2.5169
-28.836
-76.847
-42.366
-17.828
-13.731
35.584
20.605
79.443
33.341
-32.688
-57.695
-55.54
80.87
43.779
6.1719
-18.643
10.347
-10.378
28.146
17.859
-59.995
-19.647
67.258
-11.631
-47.617
-48.86
37.776
32.633
36.633
-25.227
-72.035
68.322
-2.9618
-13.53
-36.196
-13.879
-3.3807
65.489
35.559
-35.516
18.32
17.758
-54.739
7.7334
-21.774
-27.636
41.472
11.236
23.615
-39.575
2.6106
9.5884
-19.744
-65.007
-32.648
115.7
-1.3177
-125.65
23.785
107.82
62.309
-41.572
-11.422
12.83
-18.274
31.123
6.708
-76.259
11.346
112.77
-54.658
-36.09
19.015
-4.3607
22.273
-23.374
15.933
8.8034
-20.585
-41.413
-26.835
17.516
-25.715
25.272
-14.636
61.412
-4.0049
-64.124
38.521
25.812
-38.076
-136.01
-15.475
120.27
48.126
-92.536
53.364
74.991
-100.19
68.076
50.55
-39.845
-38.685
19.531
-23.276
10.302
54.276
-20.394
-55.923
67.851
24.994
-16.343
-33.317
33.072
3.0277
8.8723
15.283
-51.198
15.041
-24.792
-9.9106
-32.015
63.961
27.519
-33.567
22.035
-4.0197
-20.801
-23.851
16.721
19.497
-24.259
11.4
-0.90237
-30.077
-41.919
-2.8494
69.454
59.643
-98.312
8.2555
53.079
-13.109
-37.097
5.5797
19.402
-10.196
-3.7281
-13.109
-9.3771
12.508
-21.699
21.683
54.438
1.0412
-0.87623
9.561
-56.129
-37.55
88.186
8.3731
-23.227
-8.4508
-37.56
15.44
14.193
-99.079
23.024
67.519
6.9757
-31.469
54.245
-10.906
-31.306
67.135
-11.686
-59.824
16.337
-41.126
48.965
50.22
-19.612
-10.458
18.166
-2.7819
-29.761
7.2651
-13.201
-9.6442
21.631
-1.6868
-30.752
20.975
36.993
-0.83732
19.545
-34.622
1.8609
-12.915
-33.864
-27.381
16.342
-3.9128
7.9637
-5.1291
-51.353
-24.842
-54.613
59.76
50.537
57.664
46.868
-35.985
-28.009
14.074
3.5919
17.134
9.0466
-42.247
2.3489
-18.182
1.29
23.056
6.27
-31.379
37.433
15.226
-2.4317
29.118
-3.3401
-23.955
-9.3199
-25.758
-45.153
-37.881
28.125
15.923
-8.4832
27.422
-9.1062
-1.3
-12.045
-17.642
29.632
17.811
-7.197
21.495
-59.847
-43.652
164.58
39.045
51.952
140.1
-277.68
-176.33
158.11
33.256
38.556
24.303
-45.264
4.9591
-4.8741
-53.558
-2.2521
17.402
18.528
27.517
-8.3962
16.102
-3.6762
-58.876
-8.8952
60.408
-76.362
-62.907
-145.36
119.18
194.29
14.899
-77.252
-145.87
101.99
32.703
-91.428
6.6762
44.143
18.582
-62.359
-69.837
62.86
105.53
-33.53
-35.171
12.269
-20.748
34.185
5.7054
26.021
-10.637
9.8349
-4.454
-1.3557
6.0348
-24.727
14.492
16.038
0.69894
39.712
-62.588
-35.734
101.14
46.131
-30.358
-30.246
63.298
30.43
-34.889
-5.3082
-49.568
-59.51
-59.772
50.246
50.71
76.4
-24.995
-84.315
-15.598
-48.119
-9.972
23.363
-10.163
-7.1445
65.736
21.532
-23.607
-7.603
-14.934
-2.4028
39.626
11.732
3.8788
5.6595
-34.608
16.871
10.483
-17.77
13.77
29.973
-19.075
5.6753
93.54
34.545
5.1081
-20.317
-48.668
-4.0246
-0.32803
-14.093
6.9517
-0.26985
-40.932
-0.67791
-61.535
16.718
55.502
-32.785
-26.934
-25.461
30.982
-56.131
56.403
-12.428
-103.98
87.694
13.394
63.915
-105.72
18.234
118.55
35.624
-48.372
56.472
-63.989
-106.78
156.48
51.367
-170.23
-421.01
86.636
244.6
17.499
66.457
-5.4184
-27.54
18.938
18.08
46.348
-25.892
-8.5123
21.901
-37.804
-7.2869
19.957
25.708
9.6318
14.908
-70.437
15.712
72.977
-7.6485
-34.172
54.877
17.535
-45.081
45.621
6.8266
-41.324
147.65
71.016
-4.2441
-5.0394
-187.95
-148.85
40.193
-9.9087
-97.322
-84.405
-381.63
175.01
282.17
10.084
26.156
52.059
-5.1086
-7.8451
61.283
-2.2248
-10.92
7.0685
-43.923
25.895
19.789
-18.276
29.727
-7.8648
0.58996
3.5487
4.4918
38.663
-24.235
74.516
69.459
-55.255
-63.755
-14.974
30.151
33.71
0.909
19.638
-4.6923
-9.1986
-4.1565
-9.669
48.062
97.272
-66.788
-137.67
-54.962
14.795
16.598
-39.7
19.411
21.036
-1.8185
11.739
-4.9676
-18.941
16.428
28.655
-6.6529
6.512
14.483
-11.599
-2.488
7.0228
-13.425
-10.031
7.087
-3.1872
-12.722
-5.3119
-6.967
5.5133
-2.0172
9.6754
3.9303
-1.8399
8.3665
-27.016
-68.14
91.15
52.183
-31.789
10.96
-40.316
-83.064
2.7068
67.185
21.104
26.311
11.676
-68.54
-19.511
100.08
-32.176
-51.666
5.3336
48.379
18.741
-17.312
-28.11
6.6723
13.602
-13.717
-58.972
36.551
28.818
-44.776
3.805
4.7644
10.404
-4.1668
-22.407
14.555
60.583
-32.766
-74.487
8.5259
56.384
26.089
-5.927
48.122
-15.709
-83.339
-32.875
1.8189
25.853
-25.823
12.83
58.565
-57.136
-6.2267
46.376
4.2792
-12.988
51.853
-22.753
-2.8378
33.828
37.463
-68.794
-28.967
32.327
29.873
-70.461
-16.259
75.804
-53.955
-34.142
76.645
-16.731
55.116
-48.669
-26.15
-30.314
56.612
-13.171
-3.697
42.322
-46.61
0.21076
44.704
-12.862
-9.5622
17.318
-12.586
-25.684
62.907
-4.1486
-63.137
1.7271
3.7603
-49.74
-5.2089
0.10821
-159.74
173.15
98.429
-64.486
-29.194
13.793
51.973
-17.622
-56.429
9.3131
14.341
12.748
2.5128
-22.796
48.172
29.612
-26.167
11.46
-21.468
3.7936
-25.989
16.805
13.516
28.257
-30.447
-2.9747
32.742
4.1551
-1.5382
-11.97
-52.911
-10.772
-8.1141
-5.0614
45.656
55.701
6.4682
-81.642
-21.623
9.7331
19.072
-30.97
-22.818
40.065
44.424
20.908
-32.863
-34.937
-2.6517
63.013
37.618
18.256
-40.875
-44.3
-64.296
-17.585
50.449
-22.306
58.591
-18.143
-24.744
15.526
19.076
-17.169
-4.1399
38
30.312
1.8905
-26.805
-49.263
0.92777
47.338
-22.753
-13.164
8.0148
-3.5058
17.088
106.65
14.813
-96.493
-37.171
-46.718
-26.053
54.058
-33.959
101.98
-46.588
-4.1479
36.379
-47.669
-2.2783
23.493
-35.828
8.3241
13.267
3.0757
5.333
-3.7905
-30.052
-23.107
11.875
16.519
-4.8279
2.4315
-40.517
21.425
101.56
16.36
-31.14
-14.35
69.514
26.849
-77.146
-12.47
-68.006
-21.123
77.791
48.809
-35.241
-52.343
-33.785
7.4619
-28.499
37.589
70.103
-25.558
-71.781
-24.604
102.74
-28.264
42.839
-3.7297
-80.587
-1.3772
25.848
24.027
-15.738
109.86
45.329
13.08
-29.899
-106.13
-54.343
54.93
-70.569
-26.718
132.54
-39.475
-58.515
-22.152
42.717
-21.41
18.933
54.799
-38.543
69.272
-26.777
-54.612
13.551
6.0491
129.09
-28.672
-85.803
5.3291
-88.344
37.783
42.903
-1.7478
51.15
-25.884
-47.688
-12.737
33.399
-3.3374
-18.19
87.137
2.0253
-70.941
16.889
27.759
-53.51
9.6248
61.08
0.91537
-41.774
-23.309
0.64715
15.388
6.1972
-23.834
-18.025
47.98
46.117
-34.894
-39.29
37.549
-5.2951
-6.3158
16.766
-23.961
-1.3756
-5.779
29.279
31.133
-55.384
-33.326
-17.798
-27.601
43.317
45.221
-56.48
11.9
33.983
-12.308
-7.166
57.517
15.065
-10.154
-21.825
-58.851
9.2569
58.617
2.2392
-57.756
20.96
15.952
23.516
42.611
-37.083
-50.264
-35.264
3.5217
4.3474
-8.5204
60.394
-7.1205
-109.91
-36.166
19.359
6.8234
53.212
28.237
57.645
-1.2727
-5.1589
-39.626
-31.774
-6.8135
49.091
10.806
-33.406
60.243
-75.244
19.094
-1.8904
54.351
55.465
-51.714
-22.733
-49.484
15.142
51.98
-6.7896
-82.859
20.911
49.726
-58.031
10.196
32.893
-19.957
71.05
-3.0823
-87.819
-12.706
76.974
26.571
9.7312
-18.737
22.679
14.534
-94.683
54.536
48.931
-55.143
-30.397
54.693
-49.557
-1.1701
108.75
20.988
-90.523
-24.936
-33.775
-121.93
54.382
96.148
-40.019
-29.071
-3.0479
18.765
38.724
11.897
11.976
-30.034
-40.163
-7.6005
-3.2375
26.926
29.458
-38.196
89.073
34.625
-26.19
-12.189
5.8508
4.6338
-36.858
9.3809
-3.5813
-6.3244
-9.4631
-55.448
-129.52
70.35
107.62
24.249
30.202
-7.3051
-58.532
77.397
96.612
-42.789
-53.51
-79.281
-26.637
-21.541
-19.056
-4.1916
-51.478
50.492
127.93
-8.0752
-76.625
21.426
31.886
-83.596
-38.735
42.034
-5.8674
88.978
75.355
-82.92
-45.691
32.281
15.944
-6.9458
-8.1838
26.253
-29.542
39.654
-60.652
30.108
50.022
-31.295
-71.321
60.894
71.39
-101.57
33.191
60.735
-34.555
15.323
23.946
-64.015
-23.42
7.0251
43.233
-42.49
-62.602
31.238
117.1
-57.057
-59.328
20.03
-5.137
-3.0666
18.092
5.1465
-8.0342
35.095
-64.484
-38.718
78.213
76.976
-81.985
-23.468
36.268
-92.039
-47.788
77.819
-8.2493
56.07
-24.981
54.232
-16.33
-31.124
50.151
23.135
-12.542
-19.673
-35.414
-11.738
21.275
61.908
21.114
40.871
-79.157
-4.7093
44.219
-64.22
-5.4215
-37.751
-9.3377
20.713
48.208
11.471
-58.797
-42.197
32.566
-24.021
21.889
49.937
50.578
-7.3469
-53.56
-101.6
35.506
15.665
50.82
49.913
2.2816
3.3978
-52.824
-6.8349
13.449
9.27
-28.068
15.386
29.338
0.44507
72.766
-21.05
-118.88
16.852
-18.522
17.972
16.69
-15.036
-13.581
0.48023
3.597
36.726
30.592
-49.386
-42.283
-77.776
-46.362
148.6
58.029
-77.766
4.1167
31.407
-11.529
-28.811
-18.299
5.7534
47.097
-4.3373
-63.627
57.644
26.041
-14.275
-26.199
81.076
10.466
-60.089
37.327
48.779
-65.527
-33.298
43.649
-31.759
-32.243
23.842
5.6794
18.345
-10.178
-37.449
-0.30241
35.41
-2.6504
-46.599
-62.164
32.045
24.788
38.873
4.1671
-7.9458
42.083
23.909
-35.682
-75.452
30.202
67.241
10.311
-22.342
52.727
-33.993
-67.557
-29.105
7.3055
66.312
-3.4052
-71.616
-30.025
52.443
43.194
5.6663
19.649
-86.184
-9.9027
30.662
-44.809
-27.183
124.41
34.908
-35.556
-1.9464
-45.467
-19.231
56.311
28.728
9.6331
5.3329
-25.304
-36.71
-29.188
36.728
15.883
-12.695
-9.5038
-98.054
81.122
38.884
9.0696
2.9442
-12.415
-7.9227
-26.397
12.335
22.594
-23.102
20.77
-17.764
41.599
-48.953
-21.396
15.87
-34.899
40.509
11.468
-6.2127
-1.2279
-0.31534
-22.543
57.022
0.76751
-36.476
17.271
25.815
-57.589
55.616
30.739
-69.611
-13.454
29.011
0.89345
-0.21138
11.477
-52.283
7.9361
29
-45.825
50.755
51.361
89.114
-157.77
-159.52
77.712
94.828
10.447
-35.187
-56.738
-9.3257
84.777
60.505
-21.331
-53.708
-6.9325
-136.84
87.159
89.116
-65.59
-2.5007
-33.425
-50.022
22.771
88.262
26.015
44.643
2.2777
-30.358
46.621
-9.7267
10.48
-8.4658
-16.384
-18.611
-19.843
11.252
37.357
17.025
-40.41
-17.629
3.0107
7.9358
-39.788
34.268
20.248
-1.7107
13.707
-46.169
-44.063
-46.905
33.891
71.011
-24.572
11.426
13.536
-26.032
-24.882
-4.824
-1.0971
18.513
-9.0444
-1.7812
39.412
-7.1079
-103.56
-78.103
174.65
52.531
-38.973
8.9016
8.4969
-112.27
-10.731
50.051
21.17
32.35
16.172
-28.461
38.098
-77.171
-47.156
109.08
10.528
-4.5828
23.584
2.1092
-10.834
-15.536
4.5623
-8.2696
8.9549
-14.607
54.288
17.509
2.84
4.1055
-61.201
-79.473
45.709
24.21
-106.36
15.567
60.636
41.52
-50.716
23.723
-12.479
14.138
40.681
-34.82
-31.04
23.711
9.2582
-30.094
-19.564
26.182
20.051
56.743
-19.106
-93.812
2.6926
23.135
-34.225
-1.0108
-24.573
72.239
14.939
-40.657
57.13
14.119
-1.4173
-27.851
19.304
34.381
-34.287
-35.615
-28.683
-6.5505
16.389
19.819
36.217
-77.9
44.147
54.863
-18.188
-31.837
-5.4328
-36.312
-34.216
-4.4808
52.231
-1.616
5.7125
21.842
-15.802
-32.023
7.2648
13.897
1.4251
-13.733
-35.419
45.771
27.086
56.016
20.377
40.879
-27.773
-127.06
-3.6879
53.728
-17.203
-10.545
6.4238
11.334
56.241
-4.3397
0.90023
-1.1765
-24.298
-32.994
12.494
28.543
-9.6848
-6.4371
-17.104
-5.66
18.738
5.5438
5.5101
-10.13
-47.987
-36.55
7.6704
70.208
-7.4208
10.13
-49.385
-53.927
6.9456
57.601
-4.4621
9.852
51.043
-23.846
1.9163
-70.015
-55.505
58.862
26.4
35.127
-3.8106
27.495
-44.413
18.2
-12.9
24.053
17.827
-40.55
38.106
5.6263
22.504
36.427
-19.56
-29.205
6.4347
-52.557
-68.083
50.87
22.704
44.125
-15.862
-10.208
-80.654
1.6283
13.566
2.1756
19.933
-32.662
-23.453
-15.714
7.7573
-4.2935
67.32
42.638
-28.182
-12.138
6.6859
-12.462
-2.3435
-11.373
30.56
3.4061
5.5954
-43.713
-17.392
-15.692
51.446
76.797
-58.413
56.512
42.861
-37.361
3.0782
-28.714
-113.46
3.4738
82.394
-14.765
-34.573
5.5669
4.0148
48.324
14.306
-15.343
-99.201
49.288
63.227
-66.868
-5.423
71.919
13.89
18.087
-25.105
-48.082
-6.4555
90.431
0.056594
-5.3606
-0.77819
-41.269
-35.663
15.933
58.34
-31.018
0.096241
4.4359
-23.888
47.964
17.941
-60.198
15.058
-60.196
-6.1944
24.793
19.185
-13.588
11.846
135.28
-102.67
-82.817
-8.1881
-65.204
90.592
60.833
44.82
-29.825
-15.67
-22.636
-48.067
61.44
33.625
-64.377
28.821
17.086
-23.502
-8.3423
46.837
-67.187
-66.677
51.016
3.6599
4.4314
37.476
11
-32.298
6.4271
29.254
33.404
-12.782
-55.406
-17.063
-22.423
0.027027
9.0476
-3.5937
7.6963
29.115
-28.305
-24.88
-25.841
37.141
-16.289
67.099
2.6299
-37.8
13.626
-6.8311
-7.9884
23.227
-6.5742
-18.614
33.244
34.38
-40.152
-0.95308
39.095
-48.193
45.526
51.93
-63.798
-52.376
16.885
10.437
7.6158
33.947
-1.5907
-72.497
1.8662
42.553
7.2665
13.109
-20.75
3.0381
20.104
16.246
-4.2517
-9.0174
8.5314
-10.235
-20.67
3.2139
13.784
-13.006
-10.993
16.224
-5.9018
-23.339
1.5819
3.1732
-23.978
-9.4127
11.6
1.8744
-21.309
50.172
51.648
5.444
5.2988
-138.39
-157.51
179.1
9.3684
-41.38
85.416
17.751
-53.688
56.112
89.803
-33.713
-13.771
12.43
-1.2117
-88.795
-55.729
36.78
45.713
53.485
35.144
-50.806
-48.404
27.122
25.536
15.494
-79.044
49.09
91.76
-97.708
-14.891
46.712
-84.013
-2.8241
-1.1318
-14.739
0.78072
10.206
1.8419
-51.292
24.842
10.211
-13.734
60.635
39.119
-70.12
-10.717
103.9
-1.5348
-46.987
-11.39
-20.951
-15.811
11.7
-7.4928
-43.541
98.997
-27.99
-91.654
-26.963
69.816
9.4587
-27.713
23.533
-35.257
-33.027
15.782
21.359
-21.587
-69.793
15.107
75.501
86.531
59.323
-29.034
-77.758
9.1743
-29.678
-31.621
68.23
71.702
-37.169
5.3446
18.789
28.445
-17.191
-70.99
-43.273
77.828
42.805
-0.30917
-19.714
-6.9417
33.436
-28.979
1.6338
-37.285
75.441
4.4528
-48.515
-9.8222
-48.244
4.0275
9.3851
-16.278
40.271
26.673
-56.617
32.944
92.235
-10.154
-91.912
-37.083
-26.488
54.421
41.665
-49.075
-0.31313
29.546
-48.516
21.474
62.099
-47.454
-27.554
-3.8824
3.6085
19.185
12.063
-129.93
81.543
60.447
8.0275
69.068
73.555
-69.817
-46.37
-37.552
-42.426
-10.019
-13.071
-16.065
-33.972
-40.884
87.785
6.0593
-6.5651
20.109
14.954
45.19
-8.5124
-6.5343
-22.336
14.755
42.557
-43.665
1.7595
11.304
24.571
15.122
-21.468
-15.239
60.436
0.59583
-54.227
-59.398
-8.7049
-1.2495
-51.931
34.025
85.321
13.031
-45.066
12.596
-18.743
-50.145
33.967
4.7199
-11.292
49.681
14.576
-25.594
20.197
-20.186
-49.61
6.4292
62.572
36.63
-37.995
-60.299
-6.8681
16.392
-4.059
-21.265
-32.82
78.119
62.312
20.533
85.173
-115.19
-149.87
56.134
19.508
30.106
31.276
19.211
-53.657
7.5132
16.366
-23.12
-11.648
-12.451
47.483
20.983
2.3379
-21.817
-83.524
44.007
8.4871
-9.3533
35.183
16.206
-13.215
-5.712
-40.566
9.2918
4.8189
-8.6739
24.809
-0.98704
-19.561
-26.549
49.482
-55.645
58.093
43.822
-162.65
35.094
71.524
17.089
27.533
53.816
-40.518
-40.733
-0.89924
-10.494
9.3808
23.217
-21.812
-56.593
51.76
16.915
3.6646
22.415
-15.807
-0.24632
12.816
-26.096
-42.634
-2.704
-17.694
0.62771
40.579
-11.736
10.236
5.6656
-25.188
4.584
27.208
-11.129
-48.98
7.328
-11.12
-11.23
35.446
-7.5164
6.3965
10.031
-39.582
22.711
32.698
20.176
-36.563
-1.6529
-3.8389
13.461
17.378
-7.5446
12.493
-3.582
74.76
43.07
-140.48
-46.197
86.148
75.352
-50.185
-25.809
-14.773
-8.3645
-46.219
18.585
49.614
7.646
-36.731
-6.9376
2.4041
7.4859
-5.6686
-12.277
-32.871
-12.852
63.428
14.449
-45.402
34.705
42.536
-1.8545
-7.1501
-7.4629
-35.667
-4.62
23.683
89.669
42.683
-28.984
-67.198
-95.074
3.2399
-36.741
4.9755
39.791
-17.197
-16.346
45.929
-38.181
5.5819
-4.8493
-37.117
20.172
89.764
48.589
-42.712
-21.652
-53.633
-31.146
56.681
88.562
49.26
-105.91
-2.1279
19.916
-9.9574
-46.627
26.58
73.6
33.954
-112.44
30.89
-7.1461
-50.145
36.786
98.575
-39.684
-37.823
-9.9744
-4.1216
51.218
-23.463
15.466
-18.032
-101.38
75.688
27.767
-21.443
-2.1982
59.267
33.522
-16.392
-82.052
-58.691
54.812
21.221
-24.2
-18.471
-10.487
23.66
12.274
4.8256
-31.54
-15.593
29.519
-83.981
16.916
58.688
-32.17
15.365
-31.589
52.875
25.199
-5.066
-2.9659
27.778
23.169
-45.265
-7.8531
-44.552
-13.233
45.759
23.967
16.286
-14.133
11.754
1.0333
-56.27
20.652
17.079
74.657
14.693
-90.963
0.51768
33.283
-32.043
-5.6063
27.272
-22.471
78.781
0.50474
-50.506
-16.703
-37.052
-12.95
8.0726
11.254
-49.028
-23.611
1.228
-4.2245
56.14
32.112
-41.96
6.0607
35.152
-18.081
27.497
-14.366
-3.9692
48.594
-5.3428
-15.597
25.544
-0.062691
-45.141
-15.695
0.16011
-5.3535
-39.508
121.59
9.4859
-28.95
-4.6414
-0.99959
-36.466
4.8626
35.583
37.915
46.615
-71.467
-49.671
19.661
51.953
-48.928
-50.663
-26.907
35.12
-14.186
-23.596
28.931
53.791
-3.6253
-38.38
-36.178
-35.342
59.108
3.0063
25.666
-44.602
0.1458
49.617
-14.225
2.0681
54.385
34.05
-70.938
-37.833
6.693
-59.957
76.644
13.117
-32.757
42.249
21.921
59.658
68.759
-30.334
-75.157
-66.84
-12.68
-20.764
-0.13744
9.0243
-27.092
-6.3413
47.093
30.344
15.157
14.591
-28.017
-72.142
2.248
26.262
-28.595
31.801
83.64
-42.754
3.0866
14.385
-50.005
-24.705
29.391
-7.1343
-6.7794
53.844
-46.66
33.327
26.117
-82.735
12.739
2.4061
42.687
0.054513
-9.853
1.594
-1.874
58.067
-12.882
-54.384
17.351
24.472
-43.105
8.0854
25.185
-51.215
6.9968
23.154
-0.76647
-22.156
6.6213
50.934
-30.674
-14.144
44.715
-58.868
-24.146
100.72
15.779
-46.937
-56.753
47.16
-46.682
-157.89
102.28
65.523
-0.48978
52.039
-6.2065
8.4584
-39.351
8.5321
-5.7622
-23.846
19.016
-48.873
24.365
55.076
17.046
-22.56
-16.263
6.234
-53.029
35.464
2.202
-56.048
37.213
5.114
18.842
59.987
-17.146
-60.253
40.108
6.0011
-18.054
-0.31147
16.969
9.5421
-33.049
-3.407
50.453
-23.973
13.974
-11.565
-65.372
-99.094
56.339
67.979
5.0601
-11.17
-6.149
28.142
14.402
-45.317
-32.331
78.762
27.29
-63.916
-12.228
9.5622
-8.9702
77.661
-27.776
-26.44
-38.297
12.366
20.691
30.066
53.091
-48.618
-31.434
34.164
11.614
17.276
-18.582
-30.846
-23.418
0.2226
44.733
-15.03
48.556
-19
-31.498
-29.835
11.51
-5.4408
14.369
14.428
-47.998
28.53
57.011
0.07789
-95.786
-54.298
90.769
-2.3449
-49.489
20.671
-13.879
3.1223
27.818
51.835
-37.356
6.3934
47.784
-31.692
-69.292
-28.378
57.32
47.672
-23.884
-16.841
-62.176
73.035
15.263
-26.892
-19.771
9.0905
-4.3529
30.084
68.515
-45.406
-19.859
22.691
44.684
-7.3368
-31.675
-5.6155
17.837
26.641
-36.203
-25.388
-16.216
-50.117
25.54
16.846
67.212
38.762
-62.758
-19.783
37.586
-16.772
-7.0652
-17.141
-43.288
-20.364
12.812
21.54
42.288
57.843
-94.14
-33.105
44.71
-12.217
-11.935
45.574
32.565
-37.915
-12.165
-12.854
-34.944
31.217
36.583
-11.852
39.444
7.5026
-47.591
9.9695
0.4995
-24.035
70.156
37.014
-27.694
-68.498
-11.036
-4.8009
-42.591
18.487
8.2356
-3.6143
-28.778
21.171
-38.882
-91.522
151.8
29.268
10.147
33.396
5.638
-52.062
-6.7431
-12.153
-63.847
-6.234
67.095
40.575
-23.257
-1.4722
-25.63
-45.619
24.793
5.1985
-9.1002
-7.8973
-0.66509
2.5802
31.732
31.69
-0.36599
30.409
-0.75982
-37.006
41.846
18.813
-71.01
-20.152
15.492
10.905
65.499
-42.924
-12.005
-24.608
38.343
7.3817
4.5512
5.8391
42.811
-32.607
-41.864
2.028
4.5495
-3.1087
-3.1257
-16.048
-2.008
34.983
18.434
11.521
28.428
-32.988
-108.31
20.145
73.892
62.326
-58.308
-66.679
-51.757
27.077
130.48
-13.594
-84.819
-32.322
-41.934
64.902
29.626
-60.107
7.5481
42.966
-11.954
22.012
12.393
52.706
-58.577
3.2449
-40.259
30.539
30.877
-43.213
41.979
14.64
-50.917
-11.845
26.237
7.3734
-35.005
-0.85525
5.9548
47.386
34.103
-3.7585
-48.49
-2.0733
-23.936
-102.24
122.25
60.372
-44.061
-22.708
40.334
-50.243
-89.9
32.924
98.822
-59.041
-14.779
55.844
-26.786
7.3219
16.146
56.848
7.7434
-13.113
-54.043
-38.866
-7.0554
-16.182
70.594
17.968
-75.083
-22.751
3.4354
12.999
16.747
32.011
-35.04
8.3038
-7.5469
-41.877
41.727
29.175
16.791
-8.8215
-2.6038
81.392
-29.898
-26.326
-75.202
10.918
-15.309
71.828
26.097
-45.37
35.778
-6.7709
24.515
-24.132
-23.079
21.435
1.6958
-13.856
43.102
-43.162
-71.921
50.346
-72.625
6.3379
125.75
-50.944
1.6881
-8.2964
-40.718
-43.25
-19.683
72.635
26.209
-37.441
-19.951
49.059
13.571
-14.152
47.353
-33.041
26.116
49.196
-9.8866
28.314
-54.015
-26.262
2.7336
91.468
-74.087
-69.061
42.274
-9.9522
-23.325
16.365
6.3429
-0.33459
24.654
3.8615
-29.406
11.012
0.5815
-22.767
22.206
2.9158
-26.412
11.207
-1.1683
-20.543
17.138
-4.1249
-20.599
11.729
4.5334
-40.784
35.032
34.815
-27.428
26.616
33.078
21.062
-25.525
-37.665
4.7899
-11.694
-4.2906
32.346
-21.006
-6.2323
10.655
-9.9303
23.456
-11.123
-21.645
8.2861
26.96
25.136
-12.832
-4.2547
84.588
-46.631
35.345
10.623
-62.675
-47.974
3.9822
30.257
-17.161
-101.49
-90.221
63.053
37.196
83.832
111.72
-88.614
167.95
91.593
-158.03
-22.583
-26.721
52.358
21.162
-86.241
-136.16
-232.02
-12.012
-84.204
65.553
152.17
17.835
-17.363
131.46
136.18
-114.52
-36.402
84.202
59.293
193.36
-86.387
-256.29
6.3765
85.815
-9.1641
40.194
23.745
-58.676
80.867
41.236
-85.422
170.52
-155.54
-182.56
44.686
-8.4266
-7.9704
14.827
9.2934
29.189
-1.5285
-34.098
3.7421
-0.99975
-22.952
10.018
-33.442
13.574
90.724
-33.622
-41.709
37.925
-26.929
2.1265
42.407
-4.1694
32.676
25.823
-10.369
-14.915
-1.1148
-18.286
6.0128
6.7089
7.0949
36.981
53.322
4.1695
-40.001
26.932
-38.641
-15.827
25.175
-5.5081
-21.692
-3.1835
0.46201
-14.503
-6.2881
9.3184
-1.2368
2.2508
6.5412
-14.636
-26.865
-13.404
-0.79371
-2.4097
3.028
7.6457
-10.816
-6.5138
26.616
0.87925
-15.475
19.128
14.006
-0.90057
4.2472
-0.42771
-6.4202
5.0019
10.119
0.46017
-9.2169
17.052
2.8848
-19.965
14.89
8.5561
-20.12
8.8419
0.68574
-6.3029
19.921
-6.9024
-15.729
13.776
12.024
-25.549
16.956
-16.494
4.4814
-11.905
-3.763
0.48879
-34.361
10.53
34.35
-33.612
-7.853
15.073
-1.7588
-11.727
16.204
14.529
-2.2614
4.8474
-35.273
-9.78
5.646
37.23
-9.951
-26.2
10.876
7.6756
-17.733
15.189
25.35
-12.703
5.9506
29.28
-6.437
-22.252
8.1912
13.037
-20.378
28.683
2.193
-55.379
6.1482
31.262
22.01
-71.849
4.9715
10.754
-5.379
10.38
20.393
-16.854
-1.8543
9.8006
-7.4343
-8.5314
13.714
3.5257
0.13502
-1.1231
-12.388
-0.96915
13.378
-6.0123
-8.0755
16.9
11.157
-25.287
-34.244
12.323
25.631
-5.0766
161.95
-20.038
-93.215
-51.653
-29.602
5.2848
9.4633
3.7397
-12.35
62.748
-14.878
0.60075
-18.471
-38.992
35.828
-7.2648
-12.915
11.412
-8.1207
13.459
16.767
-3.257
7.8418
19.948
-9.8181
-23.911
6.2084
-25.904
25.954
21.114
-3.9116
-18.908
-14.386
6.4684
-22.041
-10.225
19.78
11.213
-19.716
13.036
13.408
-23.544
44.578
3.9113
-34.894
-40.659
9.386
-20.378
21.178
43.645
66.942
125.61
-62.432
-96.464
-44.093
-48.929
12.002
42.204
-30.322
14.069
2.296
-35.255
13.358
-37.789
12.369
20.607
95.29
173.2
-46.155
-148.76
-106.9
-4.9734
-83.478
10.118
-24.547
158.46
109.49
43.705
-176.18
-120.83
177.88
202.12
41.502
-458.9
47.273
247.2
-164.2
-54.077
90.105
24.491
126.22
45.659
-154.01
-99.549
34.17
193.39
-80.255
-216.66
-26.155
42.179
33.425
128.09
82.387
29.279
-88.926
-10.866
-37.153
153.1
-4.6318
71.498
-25.988
-198.66
105.67
-42.024
-53.83
-123.3
44.208
69.542
-25.565
32.872
-0.69257
-103.57
55.393
222.98
-19.779
-136.3
-65.479
-67.313
39.734
10.421
9.292
-59.436
22.449
7.039
32.937
50.789
17.911
-3.5071
-43.408
-14.945
40.3
72.537
2.0292
-10.857
-26.141
-68.226
-19.967
53.43
45.87
36.481
10.693
-20.14
-24.166
64.069
-14.495
-70.359
7.1698
15.502
-16.086
26.903
-3.0054
38.189
11.391
-66.447
-20.938
65.71
51.562
-71.238
-12.117
-14.755
-46.034
-2.4322
-6.5501
-23.929
24.104
21.921
-41.034
-16.812
-0.99627
-25.441
6.7633
36.811
-11.403
6.9561
32.46
-32.736
-11.759
47.144
0.20099
-25.4
24.747
4.4138
-24.087
19.847
33.506
-19.248
-21.917
32.732
11.561
-31.165
10.736
42.522
-1.3957
-23.9
19.722
2.8046
-38.533
-8.9385
25.56
-17.03
-20.68
33.466
11.854
-28.387
14.075
29.078
-20.906
-35.248
21.747
7.0635
-28.791
14.321
11.777
-28.414
4.6532
23.641
-27.271
-6.2693
30.286
-19.354
-12.743
31.874
-12.158
-9.7867
34.74
-5.6546
-26.113
27.324
7.8514
-28.355
20.556
19.442
-28.012
7.2262
26.507
-23.121
-13.37
24.714
-11.345
-15.364
25.252
0.9542
-26.746
14.402
18.736
-23.169
-6.6036
20.924
-16.345
-23.489
15.825
-0.52881
-33.693
8.9705
17.938
-28.768
-2.4576
31.907
-15.923
-21.343
30.731
12.094
-28.884
14.925
26.382
-33.45
5.2219
63.18
-24.99
-21.728
11.882
-31.534
-10.299
38.784
-1.1897
-7.2414
28.756
-10.756
-31.756
26.606
25.45
-27.835
-12.316
14.661
-22.841
-11.295
39.448
1.8039
-23.038
24.558
-0.39709
-26.785
18.875
8.3964
-34.422
6.3851
36.716
-0.086017
-24.948
33.886
70.134
-65.455
3.8252
10.022
-108.78
-79.145
129.02
-155.64
-183.45
138.4
175.92
188.22
7.951
-175.62
-95.084
113.12
47.529
100.69
-126.84
-101.6
7.3399
77.86
-47.809
-92.147
79.245
58.999
5.2655
50.145
-56.339
-47.145
67.549
-8.2644
-27.361
68.425
24.197
-132.65
15.239
53.203
-11.257
26.337
37.143
-9.228
-55.345
27.244
-16.829
-31.109
37.397
3.101
14.922
-30.371
-50.378
25.686
-57.436
-16.898
55.659
6.7187
-2.5661
12.265
48.01
-55.371
11.61
67.565
-36.137
-47.343
48.457
-18.681
-21.712
21.712
9.4793
21.141
-60.995
19.233
31.253
-58.733
21.542
-21.72
-8.422
5.3289
-28.004
-16.46
19.211
-25.545
-7.9129
47.399
-30.765
14.304
20.964
0.40271
-23.205
