1553958876.00
64.000000
-0.00
-0.00
-0.00
-0.00
-0.00
-0.00
-0.00
-0.00
-0.00
-0.00
0.00
0.01
0.01
-0.00
-0.03
-0.05
-0.05
0.00
0.13
0.36
0.66
1.01
1.37
1.72
2.06
2.40
2.79
3.24
3.80
4.42
5.06
5.66
6.20
6.68
7.15
7.68
8.31
9.14
10.09
11.04
11.88
12.56
13.14
13.76
14.65
15.96
17.91
20.32
22.90
25.38
27.58
29.57
31.68
34.32
37.81
42.54
48.15
54.10
59.83
64.97
69.58
74.14
79.34
85.71
93.76
103.00
112.62
121.73
129.77
136.75
143.30
150.75
157.77
166.64
177.95
191.79
206.97
220.57
228.25
225.36
208.53
176.87
132.76
80.05
23.07
-34.94
-92.44
-149.16
-205.23
-260.37
-313.74
-363.87
-409.83
-450.91
-486.50
-515.74
-537.23
-549.22
-549.96
-538.37
-514.21
-478.67
-433.88
-382.45
-327.02
-269.84
-212.63
-156.66
-102.95
-52.37
-5.90
35.58
71.43
101.35
125.50
144.38
158.69
169.15
176.37
180.75
182.57
182.07
179.51
175.23
169.65
163.18
156.15
148.81
141.30
133.69
126.02
118.33
110.69
103.16
95.80
88.68
81.83
75.25
68.95
62.95
57.25
51.85
46.78
42.03
37.59
33.47
29.64
26.10
22.81
19.77
16.98
14.45
12.19
10.20
8.48
7.00
5.72
4.60
3.62
2.75
2.02
1.41
0.95
0.60
0.33
0.09
-0.16
-0.46
-0.78
-1.06
-1.26
-1.32
-1.26
-1.16
-1.14
-1.30
-1.69
-2.26
-2.88
-3.37
-3.61
-3.60
-3.48
-3.47
-3.79
-4.54
-5.63
-6.79
-7.71
-8.16
-8.13
-7.88
-7.82
-8.33
-9.56
-11.33
-13.21
-14.69
-15.43
-15.43
-15.00
-14.66
-14.86
-15.93
-18.00
-20.96
-24.36
-27.33
-28.62
-26.88
-21.28
-11.95
-0.16
12.10
22.77
30.56
35.23
37.49
38.36
38.62
38.53
37.93
36.65
34.82
33.05
32.19
33.06
35.87
39.94
43.69
45.03
42.22
34.60
22.95
9.19
-4.21
-15.04
-21.76
-23.67
-20.87
-14.16
-4.96
4.85
13.20
18.36
19.46
16.67
11.06
4.16
-2.58
-8.04
-11.55
-12.93
-12.45
-10.80
-8.93
-7.69
-7.36
-7.48
-7.07
-5.16
-1.49
3.25
7.58
9.92
9.38
6.19
1.71
-2.20
-3.93
-2.69
1.29
7.14
13.83
20.33
25.75
29.16
29.70
26.85
20.89
12.94
4.99
-0.79
-2.78
-0.56
4.99
12.23
19.31
25.01
28.70
30.61
31.41
31.89
32.57
33.58
34.61
35.08
34.48
32.26
28.35
23.17
17.28
11.15
4.86
-1.96
-10.16
-18.75
-27.37
-35.68
-43.33
-50.14
-56.20
-61.71
-66.80
-71.35
-74.84
-76.84
-76.89
-74.72
-70.37
-64.16
-56.48
-47.66
-37.92
-27.49
-17.04
-7.42
0.48
5.98
8.92
9.73
9.25
8.35
7.54
6.55
4.69
1.15
-4.63
-12.63
-22.25
-32.53
-42.61
-52.04
-61.05
-70.15
-79.74
-89.87
-100.18
-110.41
-121.13
-134.21
-152.37
-177.86
-210.75
-247.69
-282.25
-306.78
-315.18
-305.26
-279.57
-244.18
-206.53
-172.75
-145.93
-125.75
-109.17
-91.55
-67.92
-34.32
10.67
64.55
120.44
167.99
196.18
196.76
167.41
113.04
44.75
-23.27
-77.36
-107.45
-108.71
-81.73
-31.61
33.60
104.51
172.08
229.25
271.79
298.14
308.56
304.09
286.89
260.42
229.80
201.28
180.70
171.81
174.70
185.97
200.22
212.80
221.29
225.61
226.86
226.01
223.58
219.13
211.74
200.04
184.02
164.55
142.87
119.80
95.88
72.55
51.38
33.57
18.39
5.96
-3.54
-10.06
-14.52
-18.35
-21.20
-22.49
-21.99
-22.06
-22.94
-23.80
-23.17
-20.91
-18.21
-14.82
-10.64
-5.59
-1.62
3.65
14.55
35.48
67.28
92.93
98.60
79.77
60.33
48.38
48.14
55.92
72.31
97.37
129.90
169.25
212.61
254.26
283.86
294.74
284.70
256.72
216.33
170.14
125.83
88.92
61.66
41.36
26.16
14.78
6.89
1.46
-2.87
-6.30
-8.69
-9.89
-11.16
-12.40
-13.09
-12.50
-10.74
-8.46
-5.89
-3.13
-0.24
2.00
3.45
4.12
4.17
3.35
1.30
-2.16
-7.00
-13.15
-20.77
-29.75
-39.89
-50.93
-62.74
-75.30
-88.72
-103.21
-119.02
-136.44
-155.71
-177.04
-200.66
-226.82
-255.72
-287.13
-320.05
-352.73
-382.80
-407.96
-426.54
-437.88
-442.31
-440.70
-434.06
-423.16
-408.62
-390.99
-370.93
-349.06
-325.77
-301.06
-274.65
-246.28
-216.14
-185.19
-155.00
-127.42
-104.02
-85.53
-71.61
-60.94
-51.74
-42.41
-32.13
-21.11
-10.50
-1.82
3.57
4.96
2.60
-2.41
-8.42
-13.71
-16.96
-17.68
-16.27
-13.69
-11.06
-8.98
-7.37
-5.59
-2.92
0.92
5.53
10.09
13.79
16.41
18.40
20.56
23.67
28.00
33.34
39.28
45.46
51.81
58.28
64.67
70.36
74.40
75.85
74.29
70.08
64.45
59.05
55.31
53.98
54.88
57.09
59.54
61.47
62.87
64.41
67.08
71.71
78.53
87.06
96.22
104.61
110.92
114.12
113.73
109.81
103.00
94.37
85.18
76.67
69.74
64.79
61.57
59.39
57.29
54.47
50.58
45.82
40.82
36.27
32.57
29.59
26.80
23.46
19.13
13.82
8.06
2.63
-1.82
-4.94
-6.91
-8.19
-9.36
-10.89
-13.04
-15.86
-19.20
-22.83
-26.34
-29.16
-30.61
-30.07
-27.18
-22.07
-15.34
-7.95
-0.93
4.99
9.51
12.84
15.44
17.86
20.41
23.10
25.70
27.86
29.31
29.97
29.95
29.47
28.79
28.09
27.45
26.95
26.61
26.49
26.50
26.51
26.27
25.54
24.17
22.19
19.79
17.24
14.81
12.63
10.72
9.05
7.58
6.30
5.19
4.24
3.35
2.42
1.36
0.07
-1.57
-3.72
-6.57
-10.21
-14.50
-19.00
-23.01
-25.73
-26.54
-25.16
-21.74
-16.77
-10.92
-4.81
1.08
6.46
11.17
15.17
18.46
21.03
22.91
24.20
24.99
25.45
25.66
25.67
25.48
25.01
24.27
23.33
22.37
21.61
21.24
21.33
21.82
22.47
22.95
22.93
22.22
20.82
18.89
16.75
14.72
13.05
11.75
10.70
9.67
8.43
6.81
4.75
2.27
-0.51
-3.37
-6.07
-8.33
-9.98
-11.04
-11.63
-12.05
-12.52
-13.13
-13.72
-13.97
-13.52
-12.17
-9.92
-6.91
-3.34
0.68
5.04
9.61
14.08
18.05
21.07
22.86
23.47
23.16
22.27
21.05
19.63
18.07
16.55
15.48
15.35
16.58
19.22
22.81
26.48
29.26
30.40
29.61
27.08
23.31
18.90
14.38
10.17
6.54
3.71
1.76
0.61
0.00
-0.47
-1.16
-2.28
-3.80
-5.60
-7.53
-9.48
-11.43
-13.37
-15.33
-17.35
-19.51
-21.87
-24.36
-26.70
-28.40
-28.89
-27.74
-24.87
-20.55
-15.32
-9.75
-4.21
1.16
6.41
11.53
16.40
20.66
23.89
25.79
26.40
26.09
25.48
25.12
25.31
25.96
26.66
26.97
26.64
25.76
24.69
23.88
23.60
23.86
24.38
24.72
24.55
23.79
22.75
21.98
22.07
23.28
25.34
27.46
28.64
28.12
25.78
22.34
19.07
17.27
17.63
19.95
23.18
25.87
26.79
25.41
21.96
17.22
12.32
8.61
7.48
10.29
17.44
27.26
35.50
36.28
24.39
-2.07
-40.49
-84.57
-126.98
-162.42
-189.17
-208.62
-223.43
-235.65
-246.10
-254.91
-262.51
-269.83
-277.51
-284.78
-289.00
-286.49
-274.21
-251.16
-218.94
-180.97
-141.17
-102.71
-67.18
-34.56
-3.95
25.62
54.68
83.02
109.87
134.11
154.53
170.25
181.24
189.11
197.46
211.07
233.73
265.74
302.56
335.76
356.20
358.08
341.31
311.22
275.50
240.46
208.57
178.51
147.18
111.97
72.01
27.89
-18.92
-66.34
-111.35
-149.69
-176.60
-188.51
-184.85
-168.66
-145.81
-122.62
-103.70
-90.79
-83.07
-78.51
-75.22
-72.04
-68.43
-64.05
-58.57
-51.82
-44.06
-36.06
-28.75
-22.79
-18.15
-14.11
-9.55
-3.48
4.61
14.47
25.19
35.41
43.64
48.80
50.42
48.91
45.37
41.17
37.53
35.04
33.59
32.52
31.07
28.69
25.29
21.08
16.41
11.66
7.16
3.31
0.61
-0.42
0.57
3.57
8.10
13.37
18.52
22.89
26.22
28.51
29.90
30.50
30.38
29.64
28.42
26.97
25.52
24.23
23.13
22.23
21.52
21.10
21.08
21.55
22.45
23.58
24.65
25.33
25.33
24.45
22.66
20.05
16.86
13.45
10.11
7.07
4.42
2.11
0.03
-1.97
-3.97
-6.01
-7.99
-9.78
-11.20
-12.13
-12.54
-12.51
-12.17
-11.72
-11.34
-11.20
-11.40
-11.94
-12.70
-13.43
-13.78
-13.46
-12.22
-10.02
-6.94
-3.21
0.90
5.07
9.03
12.53
15.34
17.32
18.36
18.44
17.64
16.24
14.63
13.29
12.62
12.71
13.35
14.08
14.44
14.22
13.53
12.71
12.05
11.61
11.16
10.32
8.80
6.67
4.27
2.13
0.60
-0.23
-0.66
-1.15
-2.16
-3.90
-6.28
-8.98
-11.53
-13.55
-14.88
-15.56
-15.87
-16.15
-16.69
-17.66
-19.03
-20.58
-21.93
-22.66
-22.44
-21.10
-18.77
-15.78
-12.56
-9.49
-6.71
-4.13
-1.56
1.12
3.75
5.97
7.33
7.59
6.85
5.56
4.35
3.75
3.99
4.95
6.30
7.72
9.03
10.28
11.55
12.90
14.23
15.32
16.00
16.25
16.25
16.25
16.48
16.95
17.50
17.87
17.83
17.38
16.70
16.07
15.77
16.01
16.86
18.30
20.26
22.59
25.09
27.54
29.72
31.53
33.13
34.89
37.43
41.37
47.13
54.74
63.82
73.72
83.82
93.78
103.68
113.91
124.97
137.16
150.43
164.37
178.35
191.79
204.39
216.32
228.31
241.48
257.12
275.94
297.31
318.63
335.51
342.76
336.12
313.86
277.63
231.80
182.03
133.32
88.65
48.77
12.68
-21.51
-55.94
-92.41
-131.64
-172.23
-210.09
-238.97
-252.41
-246.46
-221.71
-183.59
-140.53
-101.15
-71.77
-55.37
-52.16
-60.81
-79.52
-106.24
-138.64
-174.24
-210.83
-246.87
-281.19
-312.07
-336.23
-348.90
-344.99
-321.15
-277.68
-219.02
-152.82
-87.71
-30.98
13.24
44.55
65.94
82.28
98.40
117.13
137.96
157.07
168.57
166.61
147.30
109.93
57.41
-3.75
-63.98
-111.98
-137.18
-132.98
-99.82
-46.14
13.56
63.30
90.98
91.90
68.97
29.90
-16.94
-65.81
-114.86
-164.98
-217.33
-270.84
-321.01
-360.54
-381.46
-378.24
-349.86
-300.30
-236.78
-167.04
-97.05
-30.51
30.06
81.64
119.92
140.15
139.08
116.57
75.88
22.36
-38.39
-101.56
-163.06
-218.77
-264.02
-293.90
-304.69
-295.24
-267.74
-227.25
-180.23
-132.88
-89.92
-54.08
-26.23
-5.92
8.19
17.88
25.07
31.43
38.12
45.53
53.39
60.93
67.38
72.34
76.00
79.05
82.27
86.11
90.34
94.01
95.89
94.93
90.77
83.83
75.10
65.65
56.20
46.81
37.03
26.31
14.38
1.61
-11.04
-22.36
-31.28
-37.16
-39.88
-39.74
-37.20
-32.74
-26.86
-20.01
-12.71
-5.46
1.38
7.66
13.44
18.88
24.08
28.98
33.40
37.19
40.32
42.94
45.26
47.41
49.32
50.74
51.41
51.27
50.53
49.57
48.67
47.78
46.50
44.27
40.72
35.93
30.44
24.97
20.05
15.78
11.78
7.51
2.61
-2.89
-8.53
-13.64
-17.54
-19.80
-20.19
-18.68
-15.47
-10.90
-5.54
-0.02
5.08
9.36
12.70
15.18
16.93
18.05
18.56
18.50
18.03
17.43
16.99
16.90
17.11
17.33
17.16
16.20
14.25
11.36
7.86
4.17
0.71
-2.30
-4.88
-7.33
-10.06
-13.44
-17.63
-22.43
-27.38
-31.92
-35.70
-38.77
-41.64
-45.08
-49.79
-56.07
-63.65
-71.70
-79.10
-84.83
-88.41
-90.24
-91.71
-94.91
-101.65
-112.47
-125.76
-137.72
-143.41
-138.33
-119.96
-88.36
-45.98
3.04
53.44
99.53
136.17
160.14
171.43
173.59
172.51
173.99
181.15
193.33
206.95
217.87
223.60
224.11
220.88
215.30
207.51
196.60
181.75
163.40
143.45
124.47
108.62
96.71
88.28
81.98
76.34
70.43
63.93
57.09
50.56
45.21
41.92
41.46
44.20
49.97
58.08
67.34
76.39
83.99
89.18
91.52
91.14
88.70
85.22
81.80
79.27
78.10
78.50
80.67
84.88
91.32
99.70
109.07
118.04
125.44
131.01
135.47
139.81
144.35
147.96
148.18
142.21
128.10
105.41
74.97
38.37
-2.35
-44.23
-82.87
-112.68
-128.23
-126.70
-109.93
-84.91
-61.84
-50.51
-56.53
-79.23
-112.12
-145.65
-170.87
-182.24
-178.47
-161.61
-135.09
-102.16
-65.55
-27.95
7.20
35.57
53.01
57.59
51.13
39.49
30.99
33.41
51.04
82.83
122.77
162.10
192.61
209.33
211.73
202.99
187.86
170.47
152.91
135.23
116.47
95.86
73.42
49.87
26.02
2.22
-21.75
-46.44
-72.40
-99.80
-128.53
-158.37
-189.14
-221.04
-254.80
-291.69
-332.82
-377.77
-423.57
-464.58
-494.13
-507.18
-502.57
-483.46
-455.54
-423.96
-390.68
-353.99
-310.45
-257.99
-198.18
-136.21
-78.75
-30.84
6.06
34.14
57.26
78.53
98.74
116.49
129.63
137.13
140.06
141.19
143.42
148.02
153.82
157.95
157.67
152.38
144.26
137.24
134.60
136.87
141.31
143.41
139.37
127.84
110.02
87.94
62.30
31.71
-6.23
-52.68
-105.74
-160.71
-212.17
-256.62
-293.76
-325.65
-354.33
-379.45
-397.68
-404.11
-394.90
-369.62
-331.77
-287.71
-244.18
-205.94
-174.38
-147.64
-121.82
-92.60
-56.80
-13.29
36.53
88.72
137.43
176.01
199.08
204.46
194.53
175.71
156.41
143.87
141.46
147.64
156.83
162.01
157.62
141.56
115.68
84.85
55.10
31.81
18.33
15.22
20.57
30.88
42.40
52.16
58.59
61.34
60.76
57.46
52.10
45.78
40.44
38.68
42.96
54.43
71.69
90.72
106.11
113.36
110.93
100.92
87.89
76.54
69.44
66.12
63.81
59.40
51.39
40.73
30.21
22.95
20.75
23.23
28.07
32.02
32.25
27.36
17.88
5.89
-5.69
-14.28
-18.56
-18.79
-16.30
-12.69
-8.97
-5.22
-0.89
4.59
11.25
18.46
25.15
30.23
32.85
32.47
28.86
22.32
14.08
6.81
4.34
10.49
27.25
53.25
83.51
111.05
129.64
136.46
133.22
125.17
118.51
117.64
123.42
133.15
142.02
144.99
138.31
120.36
91.68
54.49
12.07
-32.18
-75.59
-116.73
-155.59
-193.07
-230.03
-266.38
-300.39
-328.87
-348.00
-354.34
-345.85
-322.40
-285.81
-239.36
-187.21
-133.54
-81.83
-34.42
7.56
43.55
73.00
94.86
107.88
111.24
105.38
92.30
75.06
56.77
39.56
24.43
11.71
1.91
-3.85
-4.23
1.49
12.67
27.23
42.30
55.19
64.02
67.88
66.69
60.80
50.98
38.45
24.95
12.50
2.92
-2.65
-3.99
-1.59
3.66
10.89
19.34
28.31
36.99
44.59
50.59
54.99
58.29
61.01
63.15
63.90
61.93
56.09
46.18
33.18
18.67
3.77
-11.79
-29.57
-51.38
-77.94
-107.99
-138.70
-166.90
-190.45
-208.92
-223.02
-233.48
-240.13
-241.88
-237.43
-226.19
-208.56
-185.59
-158.27
-127.23
-93.05
-56.79
-20.26
14.40
45.40
71.70
92.89
108.53
117.52
118.18
108.90
89.16
60.35
25.76
-9.85
-41.13
-63.01
-71.65
-65.26
-44.72
-13.40
23.65
61.12
94.80
122.32
143.08
157.64
167.08
172.60
175.51
177.10
178.41
179.88
181.29
182.02
181.61
180.29
178.90
178.44
179.32
181.02
182.22
181.34
177.31
169.93
159.81
147.76
134.10
118.24
98.81
74.17
43.30
6.41
-34.76
-77.24
-117.54
-152.65
-180.77
-201.87
-217.48
-229.95
-241.44
-252.96
-263.88
-272.11
-274.95
-270.07
-256.49
-235.05
-208.19
-179.34
-152.17
-129.81
-114.35
-106.59
-106.03
-111.16
-119.94
-130.17
-139.95
-147.68
-152.24
-152.88
-149.38
-142.03
-131.52
-118.69
-104.18
-88.31
-71.16
-52.90
-33.89
-14.60
4.74
24.38
44.80
66.16
87.50
106.67
121.17
129.72
133.64
136.93
144.90
161.94
189.69
226.81
270.13
316.40
363.27
408.86
450.55
484.39
505.37
509.29
494.63
463.42
420.12
369.81
316.15
260.30
201.87
140.56
78.22
19.32
-30.07
-64.48
-81.37
-82.37
-72.66
-58.68
-45.76
-36.42
-30.58
-27.23
-26.23
-29.17
-38.88
-57.82
-86.54
-122.94
-162.53
-199.68
-229.17
-247.37
-253.26
-248.56
-237.05
-222.94
-209.78
-199.56
-192.59
-188.60
-187.38
-189.12
-193.99
-201.55
-210.63
-219.91
-228.56
-236.54
-244.23
-251.60
-257.78
-261.20
-260.51
-255.18
-245.59
-232.34
-215.52
-194.70
-169.63
-141.40
-112.69
-86.92
-66.56
-51.72
-39.92
-27.26
-10.45
11.87
38.78
67.92
96.68
122.71
143.81
157.49
161.15
153.04
133.62
106.36
77.31
53.39
39.99
39.09
48.59
63.15
76.12
81.74
76.72
60.76
36.27
7.34
-21.18
-44.65
-59.26
-62.52
-53.50
-32.88
-2.42
35.89
80.42
129.85
182.08
232.88
275.41
301.56
305.02
284.50
245.29
197.88
154.03
122.14
104.39
96.89
92.62
85.34
72.31
54.51
34.71
14.97
-4.97
-27.27
-54.24
-86.37
-121.23
-154.00
-179.40
-193.71
-196.08
-188.60
-175.00
-158.95
-142.55
-125.95
-108.18
-88.57
-68.05
-49.37
-35.85
-29.53
-29.72
-33.03
-35.08
-32.73
-25.70
-16.18
-7.02
0.39
7.07
15.48
27.60
43.32
60.39
75.65
86.87
93.62
96.97
98.21
97.62
94.15
86.08
72.32
53.52
32.51
13.68
1.41
-1.88
2.69
10.01
12.11
0.86
-29.08
-78.08
-141.36
-210.55
-276.41
-331.11
-369.51
-389.40
-390.94
-376.12
-348.38
-312.02
-271.49
-230.35
-190.44
-151.52
-111.84
-69.23
-22.48
27.62
77.92
123.81
160.66
185.69
199.27
205.10
208.94
216.63
232.02
255.79
285.94
319.21
352.91
385.56
417.01
447.41
476.11
501.17
519.46
527.20
520.97
499.23
463.67
419.68
375.14
337.81
312.15
297.42
288.25
277.26
258.87
231.54
197.70
161.43
125.55
90.13
53.11
12.36
-32.29
-78.31
-121.42
-157.68
-185.28
-205.16
-220.25
-234.20
-249.50
-266.47
-283.45
-297.84
-307.70
-312.83
-315.03
-317.18
-321.80
-329.86
-340.59
-352.28
-363.41
-373.76
-384.52
-397.77
-415.15
-436.71
-460.07
-480.77
-493.44
-493.56
-479.06
-450.94
-412.89
-369.74
-325.85
-283.89
-244.69
-207.98
-173.28
-140.72
-110.90
-84.43
-61.31
-40.79
-21.60
-2.58
16.76
36.24
55.09
72.58
88.37
102.68
116.22
129.75
143.77
158.21
172.57
186.08
198.21
208.84
218.37
227.66
237.74
249.60
263.83
280.39
298.44
316.40
332.14
343.49
348.71
346.87
337.91
322.56
301.97
277.56
250.78
223.26
196.59
172.36
151.78
135.44
123.24
114.33
107.40
100.91
93.46
83.97
72.07
57.97
42.48
26.73
11.63
-2.33
-15.31
-27.89
-40.60
-53.41
-65.55
-75.58
-81.91
-83.46
-80.09
-72.75
-63.10
-52.94
-43.60
-35.51
-28.34
-21.31
-13.94
-6.42
0.25
4.61
5.48
2.56
-3.18
-9.78
-14.84
-16.37
-13.38
-6.27
3.07
11.52
15.39
11.82
0.21
-16.74
-33.32
-42.43
-38.36
-19.11
12.72
50.91
87.99
117.66
136.33
143.27
139.84
128.52
112.04
93.09
73.90
56.06
40.19
26.11
13.14
0.60
-11.89
-24.38
-36.61
-48.17
-58.51
-66.94
-72.79
-75.64
-75.59
-73.33
-69.97
-66.45
-63.21
-59.93
-55.94
-50.80
-44.81
-39.05
-34.89
-33.07
-33.08
-33.22
-31.34
-25.87
-16.64
-4.90
7.37
18.34
26.96
33.02
36.61
37.70
35.92
30.94
22.85
12.44
1.05
-9.94
-19.49
-27.32
-33.72
-39.25
-44.38
-49.31
-54.01
-58.35
-62.35
-66.10
-69.73
-73.17
-76.19
-78.39
-79.48
-79.37
-78.37
-76.99
-75.76
-74.94
-74.49
-74.23
-74.13
-74.52
-76.08
-79.36
-84.46
-90.43
-95.26
-95.94
-88.84
-70.52
-38.71
6.41
61.16
118.08
167.15
198.05
203.00
179.05
129.11
61.44
-12.11
-78.66
-127.06
-150.19
-146.41
-119.70
-78.33
-32.57
8.19
37.54
52.99
55.57
48.57
36.05
21.87
9.10
-0.26
-5.28
-6.17
-3.93
0.01
4.26
7.80
10.27
11.97
13.73
16.49
20.92
27.04
34.09
40.77
45.75
48.12
47.79
45.45
42.26
39.34
37.45
36.79
37.05
37.72
38.30
38.52
38.34
37.96
37.67
37.72
38.26
39.21
40.39
41.49
42.22
42.44
42.12
41.39
40.38
39.28
38.22
37.35
36.77
36.55
36.59
36.60
36.10
34.57
31.65
27.33
21.99
16.39
11.40
7.84
6.16
6.40
8.18
10.95
14.14
17.30
20.16
22.49
23.98
24.19
22.81
19.82
15.64
11.01
6.70
3.13
0.26
-2.20
-4.56
-6.70
-8.14
-8.28
-6.77
-3.88
-0.39
2.68
4.64
5.33
5.22
5.10
5.69
7.33
9.93
13.10
16.36
19.35
21.91
24.00
25.61
26.67
27.07
26.66
25.28
22.90
19.66
15.92
12.31
9.57
8.35
9.11
11.86
16.32
21.94
28.10
34.11
39.24
42.68
43.61
41.45
36.13
28.24
18.95
9.69
1.66
-4.52
-8.92
-12.19
-15.16
-18.57
-22.77
-27.68
-32.82
-37.45
-40.82
-42.38
-41.89
-39.48
-35.51
-30.39
-24.44
-17.86
-10.71
-3.04
5.07
13.48
22.01
30.33
37.89
43.90
47.54
48.26
46.15
42.04
37.32
33.47
31.58
31.92
34.07
37.11
40.08
42.35
43.68
44.23
44.32
44.30
44.44
44.90
45.75
46.89
48.07
48.89
48.91
47.75
45.25
41.49
36.72
31.16
24.96
18.17
10.95
3.68
-2.98
-8.26
-11.60
-12.98
-13.03
-12.83
-13.52
-15.73
-19.33
-23.39
-26.61
-27.89
-26.91
-24.31
-21.47
-19.95
-20.76
-23.92
-28.50
-32.99
-35.98
-36.73
-35.57
-33.86
-33.68
-37.26
-46.23
-60.90
-79.82
-99.79
-116.48
-125.69
-124.56
-112.54
-91.50
-65.00
-37.08
-11.01
11.25
29.10
42.65
52.18
57.72
59.21
56.82
51.24
43.64
35.39
27.56
20.57
14.07
7.24
-0.78
-10.38
-21.23
-32.31
-42.36
-50.31
-55.77
-59.11
-61.15
-62.73
-64.34
-66.00
-67.38
-68.17
-68.24
-67.78
-67.13
-66.66
-66.57
-66.84
-67.19
-67.06
-65.79
-62.82
-57.93
-51.47
-44.27
-37.34
-31.51
-27.13
-24.11
-22.11
-20.83
-20.18
-20.24
-21.07
-22.60
-24.49
-26.31
-27.69
-28.51
-28.91
-29.20
-29.63
-30.32
-31.09
-31.65
-31.82
-31.62
-31.49
-32.04
-33.88
-37.29
-42.03
-47.46
-52.79
-57.37
-60.95
-63.73
-66.21
-68.83
-71.88
-75.32
-78.83
-82.01
-84.54
-86.30
-87.42
-88.29
-89.46
-91.69
-95.68
-101.85
-109.94
-118.73
-126.03
-129.12
-125.31
-112.76
-90.97
-60.96
-25.06
13.59
51.61
86.04
114.79
136.93
152.67
163.03
169.37
172.95
174.63
175.00
174.44
173.28
171.78
170.03
167.92
165.31
162.24
158.98
155.97
153.53
151.56
149.52
146.57
141.82
134.68
124.96
112.79
98.63
83.02
66.61
49.91
33.27
16.85
0.67
-15.07
-29.89
-42.92
-53.23
-60.13
-63.57
-64.18
-63.09
-61.48
-60.11
-59.16
-58.16
-56.39
-53.22
-48.49
-42.58
-36.34
-30.72
-26.42
-23.70
-22.28
-21.54
-20.68
-18.94
-15.62
-10.32
-3.15
4.80
11.46
14.11
10.43
-0.40
-17.00
-36.06
-53.45
-65.81
-71.65
-71.59
-67.72
-62.59
-58.27
-56.05
-56.52
-59.91
-66.15
-74.79
-84.75
-94.39
-101.82
-105.34
-103.98
-97.73
-87.46
-74.65
-60.97
-47.85
-36.30
-26.86
-19.63
-14.47
-11.09
-9.16
-8.45
-8.75
-10.00
-12.15
-15.08
-18.61
-22.43
-26.24
-29.89
-33.51
-37.48
-42.28
-48.33
-55.83
-64.63
-74.33
-84.30
-93.85
-102.45
-110.05
-117.33
-125.64
-136.54
-150.95
-168.52
-187.50
-205.32
-219.52
-228.32
-230.71
-225.96
-213.04
-190.66
-157.80
-114.51
-62.55
-5.39
52.35
105.96
151.68
187.59
214.03
233.38
249.18
264.87
282.74
303.42
326.19
349.78
372.98
394.89
414.55
430.70
441.82
446.64
444.64
436.11
421.79
402.30
377.69
347.64
312.04
271.42
227.36
182.07
138.04
97.31
61.04
29.38
1.52
-23.79
-47.75
-70.92
-92.94
-112.54
-128.25
-138.97
-144.61
-146.16
-145.30
-143.74
-142.60
-142.21
-142.19
-141.86
-140.58
-137.97
-133.88
-128.35
-121.57
-113.83
-105.68
-97.81
-90.94
-85.59
-81.80
-79.05
-76.37
-72.76
-67.55
-60.82
-53.36
-46.39
-41.03
-37.79
-36.36
-35.79
-34.99
-33.14
-30.08
-26.17
-22.01
-18.12
-14.63
-11.38
-7.99
-4.19
0.14
4.84
9.60
14.06
17.92
21.08
23.55
25.52
27.11
28.37
29.14
29.10
27.96
25.57
22.09
17.88
13.38
8.93
4.67
0.61
-3.34
-7.15
-10.82
-14.35
-17.90
-21.73
-26.08
-31.01
-36.34
-41.64
-46.37
-50.12
-52.59
-53.73
-53.51
-51.93
-49.02
-44.88
-39.80
-34.24
-28.73
-23.75
-19.64
-16.54
-14.42
-13.13
-12.40
-11.92
-11.39
-10.69
-9.98
-9.76
-10.65
-13.08
-17.01
-21.80
-26.52
-30.36
-33.08
-35.09
-37.27
-40.38
-44.78
-50.19
-56.00
-61.62
-66.70
-71.17
-75.10
-78.74
-82.71
-88.13
-96.29
-107.73
-121.27
-133.49
-139.51
-134.69
-116.57
-86.19
-47.64
-6.60
31.83
64.52
90.56
110.57
125.62
136.66
144.43
149.68
153.34
156.29
158.93
161.00
161.51
159.15
152.80
141.99
127.13
109.44
90.69
72.73
57.00
44.19
34.08
25.76
18.03
9.86
0.77
-9.10
-19.07
-28.27
-35.89
-41.35
-44.29
-44.48
-41.79
-36.12
-27.62
-16.81
-4.70
7.36
18.02
26.26
31.64
34.28
34.57
32.82
29.15
23.65
16.72
9.23
2.47
-2.44
-5.08
-5.98
-6.43
-7.78
-10.62
-14.41
-17.59
-18.25
-14.94
-7.28
3.79
16.32
27.73
35.37
36.98
31.25
18.22
-0.26
-20.72
-38.66
-49.87
-51.79
-44.48
-30.68
-14.81
-1.26
7.19
10.27
9.85
8.53
8.23
9.21
10.34
10.14
7.96
4.46
1.17
-0.61
-0.88
-1.07
-3.25
-8.90
-17.91
-28.57
-38.49
-45.82
-50.12
-52.31
-54.03
-56.56
-60.21
-64.21
-67.28
-68.26
-66.66
-62.79
-57.50
-51.73
-46.16
-41.06
-36.25
-31.48
-26.54
-21.48
-16.51
-11.92
-7.80
-4.01
-0.20
3.97
8.60
13.40
17.73
20.82
22.05
21.24
18.72
15.26
11.88
9.56
8.96
10.22
12.85
15.86
18.02
18.24
16.00
11.52
5.71
-0.22
-5.24
-8.96
-11.68
-14.14
-17.00
-20.42
-24.00
-27.01
-28.93
-29.81
-30.40
-31.92
-35.48
-41.54
-49.54
-58.05
-65.04
-68.61
-67.55
-61.69
-52.18
-41.19
-31.58
-26.13
-26.76
-33.80
-45.67
-59.16
-70.33
-75.72
-73.52
-64.07
-49.47
-32.56
-15.61
0.57
16.49
33.15
50.82
68.49
84.05
94.90
98.56
93.36
78.86
56.40
29.59
4.08
-13.52
-17.71
-6.12
19.39
53.36
88.77
119.42
141.51
153.75
156.40
150.20
135.99
115.15
90.19
64.62
42.29
26.11
17.34
15.21
17.47
21.40
24.73
26.32
26.19
25.15
24.25
24.21
25.16
26.73
28.31
29.42
29.94
30.14
30.55
31.69
33.81
36.76
40.02
42.89
44.79
45.45
44.95
43.58
41.62
39.18
36.20
32.54
28.21
23.31
18.05
12.44
6.35
-0.56
-8.57
-17.69
-27.49
-37.20
-46.02
-53.39
-59.18
-63.64
-67.28
-70.52
-73.63
-76.60
-79.27
-81.42
-82.83
-83.40
-83.10
-81.97
-80.08
-77.51
-74.37
-70.96
-67.75
-65.32
-64.23
-64.74
-66.61
-69.16
-71.48
-72.92
-73.36
-73.21
-73.09
-73.62
-75.23
-78.20
-82.70
-88.54
-94.78
-99.49
-100.07
-94.16
-80.65
-60.29
-35.31
-8.38
18.48
44.24
68.13
88.80
103.79
110.07
104.97
87.16
57.06
16.99
-28.76
-73.98
-111.16
-133.04
-134.72
-115.57
-79.83
-35.19
9.92
49.11
79.48
101.16
115.68
124.47
128.22
127.39
122.82
115.97
108.46
101.41
95.03
88.65
81.32
72.44
62.19
51.58
42.09
35.01
30.95
29.50
29.39
29.04
27.21
23.58
18.79
14.05
10.55
8.86
8.71
9.24
9.45
8.62
6.56
3.52
-0.02
-3.55
-6.67
-9.15
-10.97
-12.27
-13.34
-14.50
-15.91
-17.51
-18.96
-19.67
-19.08
-16.79
-12.77
-7.31
-0.97
5.65
12.12
18.27
24.12
29.81
35.40
40.88
46.19
51.27
56.23
61.14
66.16
71.32
76.62
81.97
87.23
92.20
96.67
100.48
103.47
105.59
106.75
106.84
105.77
103.59
100.59
97.26
94.21
91.77
89.86
87.97
85.43
81.76
76.90
71.19
65.17
59.17
53.07
46.31
37.96
27.07
13.03
-4.16
-23.67
-44.03
-63.40
-80.20
-93.39
-102.73
-108.74
-112.52
-115.62
-119.68
-126.07
-135.08
-145.25
-153.22
-154.47
-145.07
-123.47
-91.66
-54.69
-18.82
10.79
31.65
44.06
49.94
51.23
49.01
43.52
35.03
24.39
13.15
2.96
-5.18
-11.21
-15.73
-19.27
-21.92
-23.16
-22.46
-19.82
-16.03
-12.47
-10.58
-11.31
-14.79
-20.51
-27.59
-35.14
-42.46
-48.95
-54.09
-57.29
-58.04
-56.05
-51.46
-44.80
-36.86
-28.47
-20.24
-12.55
-5.60
0.56
5.86
10.23
13.57
15.75
16.67
16.33
14.83
12.49
9.71
6.91
4.46
2.51
1.03
-0.08
-0.99
-1.80
-2.61
-3.56
-4.79
-6.47
-8.65
-11.18
-13.80
-16.11
-17.87
-18.99
-19.64
-20.12
-20.69
-21.55
-22.74
-24.19
-25.77
-27.28
-28.49
-29.11
-29.04
-28.39
-27.58
-27.14
-27.45
-28.30
-28.89
-28.06
-24.77
-18.61
-9.97
0.14
10.49
20.08
28.43
35.48
41.44
46.57
51.03
54.93
58.37
61.50
64.45
67.24
69.72
71.49
72.03
70.85
67.71
62.76
56.52
49.71
43.01
36.84
31.28
26.27
21.66
17.34
13.23
9.18
5.06
0.72
-3.79
-8.20
-12.13
-15.25
-17.50
-19.15
-20.69
-22.58
-24.99
-27.84
-30.83
-33.66
-36.09
-37.95
-39.02
-39.04
-37.72
-34.96
-30.93
-26.10
-21.08
-16.45
-12.54
-9.36
-6.71
-4.28
-1.84
0.71
3.28
5.65
7.57
8.84
9.40
9.32
8.77
7.99
7.21
6.59
6.20
5.98
5.75
5.26
4.27
2.59
0.16
-2.88
-6.30
-9.80
-13.11
-16.00
-18.39
-20.25
-21.64
-22.58
-23.08
-23.09
-22.59
-21.63
-20.46
-19.41
-18.86
-19.05
-19.97
-21.40
-23.02
-24.52
-25.74
-26.63
-27.16
-27.25
-26.73
-25.40
-23.18
-20.16
-16.63
-12.99
-9.62
-6.71
-4.30
-2.23
-0.35
1.45
3.10
4.47
5.45
6.01
6.23
6.28
6.33
6.43
6.55
6.62
6.56
6.40
6.21
6.08
5.98
5.82
5.47
4.83
3.98
3.14
2.64
2.75
3.53
4.80
6.14
7.10
7.24
6.36
4.48
1.83
-1.23
-4.25
-6.84
-8.71
-9.79
-10.17
-10.06
-9.71
-9.30
-8.88
-8.38
-7.69
-6.70
-5.37
-3.76
-1.93
0.03
2.08
4.15
6.17
7.97
9.37
10.19
10.38
9.99
9.16
8.06
6.78
5.34
3.82
2.29
0.88
-0.35
-1.46
-2.60
-3.86
-5.29
-6.72
-7.90
-8.61
-8.83
-8.73
-8.56
-8.50
-8.55
-8.53
-8.28
-7.87
-7.67
-8.19
-9.91
-12.95
-16.98
-21.36
-25.37
-28.56
-30.90
-32.85
-35.06
-38.08
-42.14
-47.06
-52.31
-57.29
-61.47
-64.45
-65.97
-65.95
-64.80
-63.54
-63.79
-67.08
-74.00
-83.43
-92.54
-97.64
-95.63
-85.24
-67.32
-44.25
-18.63
7.70
33.89
59.63
84.40
107.06
126.17
140.55
149.89
154.84
156.66
156.61
155.51
153.57
150.59
146.30
140.52
133.29
124.74
114.96
103.90
91.50
77.84
63.32
48.77
35.26
23.80
14.96
8.63
4.01
-0.03
-4.54
-10.06
-16.41
-22.83
-28.35
-32.15
-33.83
-33.44
-31.34
-28.02
-23.99
-19.70
-15.59
-12.00
-9.19
-7.21
-5.87
-4.84
-3.73
-2.27
-0.43
1.61
3.48
4.78
5.23
4.77
3.52
1.80
0.02
-1.45
-2.38
-2.74
-2.73
-2.69
-2.96
-3.72
-4.87
-6.12
-7.10
-7.64
-7.82
-8.01
-8.64
-9.92
-11.72
-13.60
-15.10
-15.91
-16.07
-15.84
-15.53
-15.25
-14.97
-14.59
-14.13
-13.80
-13.88
-14.53
-15.58
-16.59
-16.97
-16.27
-14.36
-11.46
-8.01
-4.54
-1.46
0.95
2.56
3.33
3.37
2.85
2.08
1.43
1.19
1.55
2.45
3.67
4.88
5.78
6.24
6.33
6.29
6.39
6.77
7.39
8.02
8.35
8.11
7.17
5.66
3.84
2.08
0.76
0.15
0.34
1.22
2.49
3.74
4.59
4.84
4.47
3.67
2.65
1.62
0.64
-0.27
-1.15
-1.98
-2.73
-3.29
-3.53
-3.33
-2.56
-1.11
1.03
3.74
6.78
9.86
12.69
15.13
17.15
18.82
20.19
21.24
21.89
22.07
21.79
21.09
20.05
18.68
16.93
14.73
12.04
8.94
5.60
2.28
-0.78
-3.48
-5.85
-8.00
-10.11
-12.20
-14.27
-16.18
-17.81
-19.13
-20.17
-21.08
-22.00
-23.02
-24.12
-25.16
-25.97
-26.33
-26.16
-25.46
-24.37
-23.15
-22.03
-21.16
-20.49
-19.81
-18.76
-16.97
-14.27
-10.72
-6.67
-2.61
0.97
3.77
5.73
6.93
7.49
7.45
6.74
5.29
3.25
0.98
-0.99
-2.26
-2.67
-2.43
-1.96
-1.64
-1.70
-2.09
-2.62
-3.03
-3.07
-2.56
-1.35
0.55
2.93
5.36
7.27
8.17
7.87
6.49
4.41
2.04
-0.32
-2.53
-4.56
-6.30
-7.58
-8.20
-8.11
-7.54
-7.00
-7.04
-8.03
-9.95
-12.37
-14.55
-15.75
-15.50
-13.73
-10.69
-6.82
-2.52
1.96
6.51
11.03
15.41
19.40
22.76
25.30
27.01
27.98
28.42
28.52
28.46
28.33
28.18
28.01
27.76
27.34
26.63
25.60
24.23
22.57
20.65
18.51
16.22
13.99
12.21
11.34
11.70
13.18
15.13
16.46
16.11
13.47
8.72
2.74
-3.32
-8.52
-12.52
-15.59
-18.28
-21.05
-23.96
-26.68
-28.71
-29.70
-29.56
-28.53
-26.98
-25.27
-23.57
-21.85
-19.97
-17.71
-15.02
-11.94
-8.69
-5.62
-3.09
-1.41
-0.67
-0.77
-1.41
-2.23
-2.93
-3.33
-3.41
-3.32
-3.24
-3.38
-3.93
-4.94
-6.41
-8.17
-9.96
-11.50
-12.55
-13.09
-13.38
-13.89
-15.20
-17.77
-21.83
-27.29
-33.79
-40.79
-47.73
-54.16
-59.89
-64.92
-69.52
-74.02
-78.74
-83.90
-89.53
-95.58
-101.89
-108.23
-114.27
-119.59
-123.66
-125.94
-125.94
-123.25
-117.55
-108.55
-96.12
-80.35
-61.75
-41.24
-19.98
0.86
20.60
39.10
56.74
74.09
91.53
108.98
125.84
141.18
153.97
163.47
169.22
171.19
169.57
164.59
156.45
145.30
131.39
115.17
97.46
79.27
61.57
45.07
29.97
16.04
2.90
-9.74
-21.86
-33.19
-43.39
-52.33
-60.16
-67.20
-73.76
-79.86
-85.30
-89.64
-92.43
-93.39
-92.39
-89.49
-84.88
-78.82
-71.69
-63.90
-55.91
-47.96
-40.08
-32.08
-23.78
-15.19
-6.62
1.37
8.21
13.61
17.66
20.82
23.62
26.45
29.34
32.09
34.35
35.90
36.75
37.04
36.93
36.49
35.71
34.48
32.80
30.69
28.29
25.75
23.15
20.49
17.65
14.55
11.12
7.42
3.70
0.29
-2.46
-4.31
-5.26
-5.51
-5.45
-5.52
-6.16
-7.63
-9.96
-12.92
-16.02
-18.64
-20.16
-20.14
-18.50
-15.50
-11.66
-7.54
-3.51
0.27
3.86
7.34
10.74
13.92
16.67
18.80
20.22
20.99
21.32
21.39
21.33
21.20
21.00
20.75
20.56
20.53
20.71
21.02
21.26
21.18
20.60
19.49
17.96
16.25
14.53
12.91
11.41
9.97
8.59
7.38
6.49
6.09
6.22
6.68
7.04
6.74
5.35
2.78
-0.69
-4.57
-8.37
-11.76
-14.58
-16.58
-17.38
-16.50
-13.60
-8.80
-2.80
3.36
8.71
12.73
15.51
17.48
19.05
20.25
20.75
20.12
18.14
15.04
11.39
7.88
4.97
2.73
0.81
-1.25
-3.82
-6.92
-10.19
-13.03
-14.91
-15.56
-15.10
-13.90
-12.44
-11.13
-10.16
-9.52
-9.10
-8.81
-8.67
-8.79
-9.33
-10.38
-11.83
-13.45
-14.96
-16.19
-17.23
-18.39
-20.09
-22.63
-26.05
-30.08
-34.31
-38.20
-41.31
-43.27
-43.88
-43.08
-41.13
-38.54
-35.92
-33.82
-32.46
-31.68
-31.08
-30.33
-29.38
-28.57
-28.45
-29.45
-31.65
-34.72
-38.20
-41.72
-45.24
-49.02
-53.43
-58.66
-64.52
-70.46
-75.80
-79.94
-82.54
-83.55
-83.02
-80.90
-76.86
-70.33
-60.71
-47.70
-31.63
-13.58
4.79
21.62
35.44
45.61
52.55
57.70
63.24
71.49
84.46
103.41
128.35
157.55
187.27
212.30
227.26
228.28
214.28
187.09
150.34
107.97
63.23
18.69
-22.98
-58.29
-83.28
-94.81
-92.31
-78.45
-58.39
-37.73
-20.37
-7.45
2.10
10.28
18.60
27.60
36.97
46.12
54.73
62.74
70.07
76.36
80.97
83.25
82.91
80.26
76.04
71.13
66.22
61.56
57.09
52.60
47.92
42.93
37.53
31.66
25.30
18.63
12.01
5.80
0.16
-5.07
-10.35
-16.08
-22.30
-28.44
-33.46
-36.20
-35.87
-32.40
-26.47
-19.23
-11.85
-5.22
0.33
4.90
8.93
12.90
17.20
21.92
26.90
31.73
35.99
39.37
41.83
43.63
45.22
47.08
49.61
52.95
56.97
61.29
65.39
68.74
70.97
71.95
71.89
71.16
70.11
68.87
67.26
64.84
61.16
55.97
49.40
41.89
33.99
26.24
18.99
12.35
6.20
0.17
-6.25
-13.49
-21.70
-30.46
-38.78
-45.32
-48.89
-48.87
-45.51
-39.68
-32.57
-25.19
-18.13
-11.60
-5.69
-0.61
3.38
6.06
7.63
8.61
9.78
11.75
14.63
18.01
21.06
22.93
23.00
21.11
17.52
12.88
8.03
3.83
0.98
-0.32
-0.28
0.40
0.96
0.84
-0.09
-1.59
-3.30
-5.02
-6.81
-8.85
-11.29
-13.98
-16.57
-18.69
-20.24
-21.47
-22.96
-25.35
-29.05
-33.98
-39.55
-44.70
-48.24
-49.13
-46.82
-41.38
-33.55
-24.43
-15.25
-6.98
-0.08
5.50
10.19
14.53
18.84
23.15
27.18
30.48
32.71
33.79
33.94
33.64
33.42
33.66
34.50
35.81
37.25
38.38
38.79
38.13
36.27
33.30
29.54
25.53
21.96
19.41
18.17
18.07
18.35
17.94
15.74
11.08
3.93
-5.10
-15.01
-24.81
-33.69
-41.25
-47.26
-51.60
-54.15
-54.83
-53.67
-50.84
-46.63
-41.35
-35.43
-29.17
-22.89
-16.78
-10.95
-5.49
-0.56
3.54
6.37
7.53
6.99
5.11
2.67
0.56
-0.59
-0.65
-0.05
0.53
0.45
-0.55
-2.24
-4.13
-5.71
-6.76
-7.44
-8.17
-9.40
-11.40
-14.07
-17.08
-20.10
-22.93
-25.68
-28.60
-31.92
-35.57
-39.14
-41.97
-43.43
-43.25
-41.68
-39.40
-37.20
-35.63
-34.68
-33.95
-32.81
-30.83
-27.99
-24.62
-21.25
-18.36
-16.19
-14.75
-13.95
-13.61
-13.47
-13.29
-12.80
-11.91
-10.82
-9.99
-9.93
-10.94
-12.94
-15.37
-17.50
-18.72
-18.81
-18.04
-17.06
-16.71
-17.67
-20.26
-24.24
-28.93
-33.35
-36.66
-38.53
-39.35
-40.09
-41.90
-45.57
-51.13
-57.87
-64.52
-69.70
-72.36
-72.09
-69.49
-66.34
-65.37
-69.53
-80.63
-98.13
-118.53
-136.17
-144.96
-140.55
-121.67
-90.38
-50.85
-7.89
34.35
72.95
105.97
132.14
150.60
161.00
163.57
159.23
149.39
135.80
120.27
104.43
89.57
76.47
65.39
56.23
48.87
43.31
39.67
37.98
37.79
38.08
37.47
34.68
29.08
20.96
11.45
2.00
-6.16
-12.45
-16.95
-20.23
-22.98
-25.72
-28.60
-31.50
-34.13
-36.27
-37.87
-39.01
-39.78
-40.09
-39.59
-37.73
-33.96
-28.04
-20.25
-11.39
-2.54
5.30
11.46
15.82
18.62
20.25
21.05
21.17
20.63
19.48
17.88
16.10
14.47
13.23
12.41
11.86
11.35
10.68
9.79
8.72
7.58
6.40
5.05
3.34
1.09
-1.78
-5.18
-8.84
-12.42
-15.66
-18.46
-20.94
-23.41
-26.25
-29.69
-33.72
-38.01
-42.04
-45.38
-47.84
-49.64
-51.21
-52.90
-54.65
-55.94
-55.92
-53.83
-49.35
-42.74
-34.75
-26.28
-18.10
-10.69
-4.24
1.22
5.73
9.39
12.34
14.77
16.92
18.91
20.78
22.43
23.64
24.16
23.83
22.62
20.70
18.38
15.97
13.73
11.82
10.31
9.32
8.95
9.32
10.35
11.73
12.90
13.28
12.55
10.79
8.49
6.31
4.75
3.91
3.46
2.79
1.34
-1.24
-5.00
-9.63
-14.68
-19.51
-23.46
-25.89
-26.31
-24.56
-20.82
-15.70
-9.94
-4.26
0.91
5.45
9.48
13.09
16.24
18.76
20.48
21.40
21.72
21.76
21.76
21.77
21.71
21.42
20.93
20.42
20.14
20.21
20.54
20.79
20.64
19.89
18.61
17.01
15.32
13.63
11.81
9.67
7.04
3.87
0.29
-3.46
-7.16
-10.59
-13.66
-16.43
-19.06
-21.84
-25.03
-28.80
-33.09
-37.62
-41.86
-45.15
-46.76
-46.09
-42.79
-36.90
-28.95
-19.91
-10.95
-3.10
3.13
7.89
11.84
15.77
20.06
24.53
28.49
31.20
32.29
32.01
31.07
30.25
30.02
30.28
30.51
30.17
28.97
27.15
25.23
23.85
23.32
23.62
24.30
24.82
24.70
23.71
21.90
19.42
16.49
13.20
9.46
5.11
0.03
-5.74
-11.89
-17.94
-23.45
-28.15
-32.11
-35.61
-38.95
-42.28
-45.45
-48.04
-49.50
-49.35
-47.33
-43.43
-37.87
-31.00
-23.18
-14.67
-5.68
3.62
12.90
21.67
29.22
34.79
37.88
38.43
36.94
34.31
31.60
29.66
28.98
29.57
31.09
33.00
34.70
35.76
35.93
35.31
34.21
33.13
32.54
32.61
33.26
34.07
34.58
34.46
33.70
32.59
31.61
31.13
31.32
32.12
33.25
34.44
35.52
36.39
36.99
37.13
36.44
34.48
30.94
25.85
19.70
13.34
7.77
3.85
2.07
2.46
4.60
7.82
11.33
14.32
16.20
16.57
15.36
12.73
9.02
4.63
-0.06
-4.74
-9.17
-13.10
-16.30
-18.54
-19.70
-19.86
-19.32
-18.55
-18.01
-18.00
-18.58
-19.64
-20.92
-22.26
-23.63
-25.14
-26.97
-29.26
-32.03
-35.19
-38.51
-41.72
-44.57
-46.91
-48.71
-50.12
-51.32
-52.51
-53.78
-55.05
-56.05
-56.39
-55.65
-53.46
-49.66
-44.34
-37.83
-30.60
-23.13
-15.84
-9.04
-2.97
2.14
6.03
8.54
9.67
9.68
9.07
8.41
8.08
8.21
8.52
8.50
7.77
6.22
4.20
2.32
1.17
0.84
0.91
0.51
-1.27
-4.93
-10.33
-16.76
-23.25
-28.96
-33.39
-36.36
-38.12
-39.55
-42.12
-47.95
-58.98
-76.09
-98.24
-122.39
-144.44
-160.55
-168.55
-168.21
-160.81
-147.98
-130.97
-110.47
-87.09
-61.90
-36.49
-12.68
8.16
25.38
38.99
49.28
56.42
60.35
60.86
57.90
51.77
43.22
33.32
23.25
14.06
6.44
0.66
-3.47
-6.46
-8.92
-11.26
-13.63
-15.75
-17.08
-17.03
-15.29
-12.01
-7.74
-3.28
0.77
4.22
7.26
10.30
13.59
16.94
19.85
21.65
21.90
20.57
18.08
15.08
12.29
10.22
9.22
9.46
11.03
14.03
18.46
24.17
30.61
36.99
42.16
44.99
44.70
41.25
35.40
28.50
22.09
17.37
14.93
14.46
14.99
15.29
14.41
11.92
8.09
3.66
-0.51
-3.50
-4.77
-4.33
-2.96
-2.12
-3.73
-9.60
-20.27
-34.30
-47.43
-54.32
-50.34
-33.34
-4.41
32.44
71.06
105.35
130.24
143.86
145.81
136.08
114.73
82.57
42.20
-2.17
-44.20
-77.55
-95.42
-94.60
-76.72
-47.46
-14.01
17.58
42.91
61.01
72.12
79.72
86.51
93.24
99.17
103.56
107.14
110.85
117.16
108.89
74.63
13.83
-62.49
-140.06
-209.10
-259.28
-294.66
-318.59
-333.31
-337.07
-327.42
-305.27
-272.39
-231.53
-185.39
-137.41
-89.30
-42.64
3.44
49.96
97.23
145.11
193.32
241.70
288.87
333.18
371.08
399.29
414.65
415.02
400.23
372.50
336.22
296.67
259.82
230.23
210.73
201.48
200.24
203.24
206.43
206.46
201.41
191.41
177.65
162.13
147.04
134.19
124.10
115.29
103.97
85.72
56.96
15.74
-37.97
-102.21
-173.09
-245.18
-311.84
-366.47
-402.64
-415.71
-404.80
-373.27
-327.58
-275.00
-221.78
-171.78
-129.86
-101.16
-87.59
-86.13
-91.11
-97.56
-102.66
-105.80
-105.09
-102.75
-100.09
-96.87
-91.97
-84.17
-72.39
-55.41
-34.61
-10.50
15.55
41.93
66.34
85.74
97.44
100.55
96.86
89.99
83.72
79.22
75.42
69.94
60.99
49.03
36.99
28.86
27.34
32.47
41.13
49.17
53.39
52.62
47.87
41.59
36.48
34.47
36.33
41.38
48.18
55.01
60.46
63.79
64.96
64.30
62.09
58.30
52.63
45.00
36.02
27.04
19.86
15.89
15.42
17.43
19.87
20.58
18.16
12.65
5.50
-1.01
-4.69
-4.25
0.35
8.03
17.15
26.09
33.76
39.77
44.21
47.42
49.65
50.98
51.31
50.56
48.86
46.51
43.87
41.22
38.54
35.58
32.03
27.76
22.97
18.20
14.09
11.10
9.28
8.24
7.24
5.51
2.50
-1.88
-7.31
-13.10
-18.50
-22.94
-26.18
-28.31
-29.58
-30.27
-30.53
-30.53
-30.62
-31.36
-33.41
-37.22
-42.67
-48.90
-54.58
-58.39
-59.61
-58.31
-55.39
-51.94
-48.93
-46.81
-45.46
-44.31
-42.67
-39.89
-35.66
-30.28
-24.78
-20.86
-20.29
-24.12
-31.77
-40.91
-47.98
-49.60
-43.90
-31.39
-14.62
2.79
17.51
27.36
31.50
30.15
24.14
14.69
3.40
-7.75
-16.70
-21.80
-22.47
-19.31
-13.91
-8.16
-3.58
-0.84
0.20
0.19
-0.17
-0.45
-0.63
-0.93
-1.67
-2.98
-4.73
-6.41
-7.36
-6.92
-4.73
-0.84
4.24
9.79
15.07
19.54
22.96
25.29
26.55
26.77
25.92
24.05
21.33
18.02
14.47
10.98
7.77
4.95
2.49
0.25
-1.87
-3.94
-5.89
-7.58
-8.86
-9.67
-10.05
-10.16
-10.15
-10.14
-10.18
-10.33
-10.66
-11.24
-12.05
-12.98
-13.81
-14.28
-14.24
-13.69
-12.78
-11.73
-10.76
-10.02
-9.58
-9.46
-9.65
-10.07
-10.54
-10.78
-10.46
-9.30
-7.23
-4.49
-1.52
1.03
2.60
2.88
1.96
0.25
-1.70
-3.48
-5.04
-6.64
-8.70
-11.49
-14.85
-18.26
-21.07
-22.83
-23.52
-23.60
-23.75
-24.49
-25.94
-27.82
-29.59
-30.81
-31.43
-31.78
-32.52
-34.32
-37.62
-42.38
-48.08
-53.88
-58.92
-62.72
-65.38
-67.57
-70.23
-74.17
-79.75
-86.76
-94.59
-102.50
-109.93
-116.43
-121.70
-125.64
-128.63
-131.67
-136.28
-143.72
-153.97
-164.92
-172.51
-171.86
-159.05
-132.72
-94.58
-48.73
-0.17
46.68
88.75
124.31
152.43
172.57
184.56
188.84
186.76
180.32
171.70
162.54
153.46
144.08
133.50
121.05
106.89
92.04
77.99
66.10
56.94
50.16
44.69
39.28
32.92
25.23
16.33
6.67
-3.19
-12.78
-21.75
-29.86
-36.97
-42.98
-47.86
-51.61
-54.21
-55.61
-55.72
-54.49
-52.00
-48.54
-44.67
-41.06
-38.25
-36.42
-35.27
-34.13
-32.38
-29.69
-26.24
-22.61
-19.49
-17.23
-15.78
-14.68
-13.37
-11.46
-8.86
-5.74
-2.37
1.06
4.47
7.87
11.30
14.70
17.94
20.83
23.14
24.74
25.60
25.82
25.56
25.01
24.31
23.67
23.35
23.61
24.71
26.74
29.51
32.64
35.62
38.07
39.79
40.84
41.48
42.03
42.89
44.37
46.72
49.98
53.98
58.33
62.53
66.17
69.03
71.02
72.07
72.02
70.61
67.61
62.96
56.85
49.70
42.07
34.44
27.28
20.91
15.51
11.09
7.45
4.22
1.04
-2.31
-5.77
-8.98
-11.55
-13.20
-13.95
-14.17
-14.37
-15.08
-16.68
-19.29
-22.82
-26.99
-31.48
-35.89
-39.90
-43.23
-45.82
-47.87
-49.83
-52.27
-55.70
-60.31
-65.80
-71.45
-76.36
-79.87
-81.95
-83.16
-84.51
-86.93
-90.78
-95.77
-101.04
-105.67
-108.99
-110.83
-111.41
-111.47
-112.15
-114.79
-120.43
-128.92
-138.26
-144.65
-143.55
-131.27
-106.65
-71.44
-29.58
14.37
56.60
94.63
126.95
152.33
169.49
177.34
175.75
165.99
150.62
132.64
114.60
97.99
83.12
69.44
56.23
43.06
30.04
17.82
7.29
-0.86
-6.33
-9.42
-10.84
-11.44
-11.91
-12.57
-13.32
-13.81
-13.68
-12.69
-11.00
-9.12
-7.84
-8.02
-10.17
-14.25
-19.52
-24.76
-28.67
-30.44
-29.98
-27.92
-25.08
-22.00
-18.62
-14.31
-8.46
-0.89
7.87
16.73
24.47
30.10
33.18
33.73
32.17
29.10
25.24
21.33
17.95
15.39
13.50
11.78
9.68
6.83
3.21
-0.93
-5.33
-9.89
-14.64
-19.56
-24.34
-28.43
-31.22
-32.44
-32.37
-31.79
-31.62
-32.49
-34.51
-37.33
-40.50
-43.74
-47.09
-50.80
-55.06
-59.91
-65.14
-70.51
-75.88
-81.28
-86.83
-92.61
-98.49
-104.16
-109.23
-113.49
-117.19
-121.11
-126.42
-134.28
-145.30
-158.94
-173.20
-184.78
-189.63
-183.86
-164.83
-131.94
-87.11
-34.59
19.82
70.08
111.53
142.13
163.06
177.99
191.62
207.63
227.20
248.59
268.09
281.65
286.63
282.86
272.46
258.87
245.59
235.13
228.70
226.32
227.30
230.42
234.00
235.96
234.10
226.68
213.12
194.40
172.78
150.98
131.03
113.51
97.44
80.91
62.24
40.68
16.79
-8.09
-32.63
-56.18
-79.03
-102.05
-126.07
-151.20
-176.58
-200.56
-221.36
-237.64
-249.03
-256.02
-259.49
-260.16
-258.21
-253.40
-245.51
-234.67
-221.40
-206.17
-188.84
-168.49
-143.80
-113.95
-79.44
-42.44
-6.21
26.09
52.48
72.67
87.73
99.18
108.08
114.62
118.23
118.30
114.79
108.48
100.90
93.62
87.63
83.02
79.01
74.49
68.71
61.61
53.86
46.30
39.48
33.34
27.31
20.81
13.68
6.48
0.17
-4.37
-6.86
-7.99
-9.25
-12.38
-18.54
-27.66
-38.30
-48.03
-54.31
-55.39
-50.90
-41.89
-30.24
-17.90
-6.32
3.76
12.13
18.74
23.54
26.48
27.67
27.47
26.37
24.75
22.67
19.93
16.28
11.67
6.32
0.64
-5.06
-10.62
-16.02
-21.16
-25.72
-29.19
-31.25
-31.92
-31.81
-31.76
-32.53
-34.41
-37.15
-40.12
-42.63
-44.35
-45.36
-46.23
-47.81
-51.05
-56.53
-64.08
-72.42
-79.29
-82.01
-78.29
-67.14
-49.16
-26.38
-1.39
23.36
46.02
65.38
80.46
90.34
94.27
92.08
84.50
73.24
60.46
47.98
36.83
27.05
18.19
9.95
2.73
-2.36
-3.91
-0.96
6.54
17.56
30.29
42.77
53.39
61.15
65.59
66.61
64.19
58.48
49.84
39.06
27.30
15.81
5.56
-3.05
-10.23
-16.54
-22.50
-28.27
-33.65
-38.22
-41.69
-44.03
-45.57
-46.80
-48.23
-50.23
-52.87
-55.91
-58.77
-60.60
-60.41
-57.34
-50.97
-41.46
-29.65
-16.83
-4.52
5.90
13.47
17.79
19.08
18.05
15.68
12.88
10.29
8.16
6.36
4.52
2.36
-0.17
-2.70
-4.45
-4.47
-1.89
3.73
12.30
23.10
35.04
46.91
57.69
66.70
73.69
78.65
81.69
82.81
81.81
78.37
72.28
63.66
53.19
42.01
31.51
22.85
16.48
12.07
8.63
5.10
0.77
-4.38
-9.76
-14.49
-17.96
-19.96
-20.71
-20.58
-19.78
-18.15
-15.26
-10.71
-4.51
2.80
10.08
16.07
19.80
20.96
20.01
17.95
15.75
14.01
12.80
11.82
10.85
9.91
9.31
9.42
10.33
11.84
13.49
14.85
15.64
15.73
15.02
13.41
10.78
7.22
3.15
-0.74
-3.72
-5.22
-5.07
-3.53
-1.15
1.36
3.27
4.02
3.34
1.32
-1.62
-4.78
-7.51
-9.39
-10.40
-10.86
-11.23
-11.89
-13.04
-14.62
-16.33
-17.84
-18.68
-18.43
-16.83
-13.90
-10.11
-6.20
-3.07
-1.34
-1.30
-2.74
-5.19
-8.10
-11.07
-13.84
-16.32
-18.49
-20.37
-22.11
-23.79
-25.36
-26.57
-26.95
-26.00
-23.56
-19.89
-15.79
-12.25
-10.08
-9.55
-10.33
-11.60
-12.57
-12.82
-12.41
-11.80
-11.48
-11.72
-12.37
-13.08
-13.52
-13.69
-13.84
-14.39
-15.58
-17.31
-19.19
-20.69
-21.45
-21.38
-20.77
-20.06
-19.66
-19.82
-20.53
-21.70
-23.14
-24.70
-26.21
-27.54
-28.66
-29.73
-31.32
-34.22
-39.25
-46.83
-56.57
-67.20
-76.66
-82.64
-83.10
-76.85
-63.68
-44.31
-20.03
7.62
37.04
66.59
94.50
118.87
137.80
149.88
154.55
152.32
144.63
133.33
120.14
106.20
92.10
78.01
64.19
51.08
39.29
29.20
20.70
13.07
5.31
-3.32
-12.78
-22.12
-29.83
-34.52
-35.60
-33.56
-29.66
-25.33
-21.47
-18.19
-14.94
-11.03
-6.12
-0.40
5.47
10.72
14.68
17.08
17.97
17.69
16.71
15.56
14.81
15.00
16.48
19.35
23.35
27.82
31.95
34.89
36.08
35.34
32.89
29.25
24.93
20.42
15.95
11.55
7.03
2.17
-3.11
-8.70
-14.20
-19.07
-22.79
-25.20
-26.53
-27.34
-28.27
-29.72
-31.75
-34.11
-36.41
-38.33
-39.74
-40.68
-41.33
-41.85
-42.36
-42.85
-43.17
-43.07
-42.37
-41.06
-39.43
-37.96
-37.26
-37.69
-39.27
-41.61
-44.05
-45.98
-47.04
-47.29
-47.13
-47.20
-47.99
-49.67
-51.99
-54.38
-56.35
-57.76
-58.96
-60.73
-63.89
-69.11
-76.65
-86.40
-97.57
-108.61
-116.90
-119.00
-111.37
-91.53
-59.34
-17.52
28.67
72.86
109.27
134.07
145.54
143.45
128.12
100.12
61.10
15.04
-31.11
-68.39
-88.37
-86.31
-63.14
-25.22
18.11
57.95
88.62
108.46
118.77
121.93
119.93
113.90
104.55
92.85
80.30
68.71
59.57
53.64
50.64
49.49
48.68
46.82
43.09
37.57
31.15
25.09
20.52
17.85
16.60
15.64
13.78
10.34
5.49
0.05
-4.85
-8.40
-10.40
-11.22
-11.51
-11.72
-11.98
-12.04
-11.65
-10.89
-10.22
-10.27
-11.50
-13.78
-16.40
-18.35
-18.86
-17.71
-15.31
-12.42
-9.70
-7.43
-5.47
-3.43
-0.93
2.24
6.02
10.17
14.28
17.97
20.91
22.95
24.16
24.74
24.89
24.77
24.42
23.81
22.97
21.99
20.98
20.06
19.16
18.15
16.93
15.50
14.05
12.76
11.72
10.70
9.35
7.25
4.33
0.82
-2.83
-6.23
-9.33
-12.49
-16.42
-21.71
-28.65
-36.93
-45.74
-53.92
-60.23
-63.76
-64.19
-61.83
-57.53
-52.37
-47.24
-42.68
-38.83
-35.68
-33.41
-32.43
-33.21
-35.87
-39.89
-44.14
-47.28
-48.50
-48.07
-47.48
-48.94
-54.45
-64.94
-79.79
-97.21
-115.16
-132.22
-148.15
-163.71
-179.92
-197.50
-216.54
-236.75
-257.60
-278.35
-297.70
-313.32
-322.10
-321.04
-308.45
-284.73
-252.39
-215.00
-175.91
-137.04
-98.62
-59.56
-18.22
26.72
75.62
127.40
179.48
227.99
268.72
298.23
314.80
318.79
312.15
297.41
276.89
252.27
225.02
196.87
170.13
147.34
130.62
120.94
117.78
119.52
123.90
128.66
131.86
132.10
128.75
122.23
114.19
107.46
105.28
109.97
121.36
136.18
148.76
153.17
145.88
127.75
104.20
83.73
75.05
83.93
111.19
151.84
196.18
231.97
247.97
237.36
200.27
143.89
79.97
20.62
-25.94
-57.48
-77.16
-90.60
-102.74
-115.94
-129.98
-143.53
-155.49
-165.53
-173.56
-179.09
-180.87
-177.57
-168.69
-155.36
-140.26
-126.70
-117.43
-113.56
-114.04
-116.14
-116.57
-112.84
-104.13
-91.58
-77.54
-64.58
-54.37
-47.26
-42.45
-38.58
-34.57
-29.93
-24.98
-20.45
-17.10
-15.36
-15.19
-16.19
-17.79
-19.48
-20.83
-21.61
-21.72
-21.27
-20.56
-20.09
-20.30
-21.41
-23.21
-24.94
-25.63
-24.40
-20.85
-15.20
-8.20
-0.76
6.36
12.71
18.17
22.73
26.32
28.81
30.15
30.48
30.17
29.80
29.78
30.30
31.14
31.87
32.08
31.57
30.48
29.18
28.02
27.16
26.52
25.78
24.68
23.08
21.04
18.72
16.20
13.50
10.47
7.03
3.14
-0.95
-4.97
-8.67
-11.98
-15.11
-18.36
-22.02
-26.09
-30.19
-33.57
-35.37
-34.91
-31.90
-26.56
-19.48
-11.37
-2.93
5.34
13.10
20.12
26.24
31.34
35.33
38.17
39.85
40.45
40.18
39.39
38.48
37.89
37.83
38.18
38.63
38.75
38.26
37.13
35.55
33.81
32.12
30.54
28.91
27.05
24.76
21.93
18.60
14.88
11.02
7.25
3.83
0.83
-1.88
-4.65
-7.92
-11.99
-16.87
-22.16
-27.13
-30.86
-32.55
-31.74
-28.47
-23.21
-16.21
-7.81
1.54
11.27
20.72
29.03
35.38
38.95
39.27
37.23
34.61
33.36
34.86
39.31
45.47
51.45
55.17
55.31
52.98
50.25
49.06
50.58
55.40
63.42
74.54
87.22
98.12
105.38
106.19
97.65
78.92
53.65
28.55
12.23
8.93
16.27
32.91
54.16
72.91
82.60
81.20
70.36
58.06
51.17
53.54
76.23
125.46
198.10
282.73
366.52
437.70
494.76
538.78
572.15
611.62
670.58
750.55
840.16
922.95
981.13
1009.57
1007.82
900.03
657.30
314.31
-47.65
-356.50
-558.09
-681.15
-751.98
-787.59
-798.59
-781.69
-734.40
-664.52
-588.61
-522.11
-476.06
-446.58
-427.42
-414.15
-392.42
-352.91
-296.97
-235.30
-179.82
-140.30
-115.46
-101.96
-97.31
-90.32
-72.01
-40.13
1.05
45.65
88.16
128.94
168.54
190.62
187.56
161.14
121.96
81.72
47.64
21.30
2.72
-6.91
-13.34
-17.30
-18.37
-16.66
-13.68
-11.39
-11.89
-17.40
-29.52
-50.41
-78.60
-110.89
-143.15
-171.15
-191.01
-199.70
-195.76
-179.67
-154.24
-121.67
-84.85
-47.44
-13.86
11.65
26.33
30.03
25.83
18.98
16.30
22.67
38.78
60.89
82.90
99.36
107.42
107.30
100.57
88.89
72.74
51.54
24.93
-6.24
-39.68
-72.39
-101.56
-125.32
-142.57
-152.71
-155.59
-151.71
-142.48
-130.37
-118.30
-108.86
-103.61
-102.65
-104.82
-108.30
-111.31
-112.73
-112.56
-111.79
-112.15
-115.48
-122.96
-134.37
-147.81
-159.74
-165.86
-162.45
-147.88
-123.62
-94.25
-66.14
-45.38
-35.62
-37.09
-46.99
-61.16
-75.91
-89.07
-99.94
-108.48
-114.32
-116.41
-113.36
-104.31
-89.87
-72.87
-58.46
-53.34
-63.92
-93.65
-140.77
-197.44
-251.49
-290.29
-305.21
-294.43
-262.68
-218.33
-169.39
-120.71
-73.54
-27.03
19.62
65.96
110.30
150.48
184.43
210.37
226.73
232.47
227.58
213.64
193.74
171.74
151.06
133.87
120.84
111.72
105.98
103.10
102.46
103.11
103.74
102.97
100.06
95.24
89.73
85.11
82.70
82.81
84.59
86.28
85.92
82.15
74.84
65.03
54.61
45.48
38.90
35.18
33.77
33.66
33.96
34.16
34.24
34.44
35.03
36.06
37.23
38.02
37.90
36.58
34.16
31.06
27.97
25.53
24.14
23.83
24.29
25.01
25.52
25.51
24.90
23.85
22.62
21.42
20.41
19.60
18.93
18.33
17.71
17.01
16.15
15.01
13.54
11.74
9.70
7.63
5.71
4.13
2.97
2.27
1.94
1.84
1.77
1.48
0.76
-0.49
-2.23
-4.19
-5.98
-7.13
-7.26
-6.22
-4.12
-1.28
1.85
4.92
7.68
10.08
12.13
13.89
15.34
16.42
17.09
17.35
17.26
16.90
16.35
15.71
15.05
14.45
13.98
13.67
13.51
13.46
13.44
13.33
13.07
12.56
11.75
10.69
9.46
8.13
6.78
5.42
3.97
2.39
0.65
-1.17
-2.91
-4.45
-5.75
-6.86
-7.96
-9.20
-10.65
-12.27
-13.90
-15.28
-16.16
-16.35
-15.76
-14.37
-12.24
-9.49
-6.32
-2.98
0.23
3.07
5.36
7.07
8.23
8.95
9.31
9.38
9.23
8.94
8.60
8.30
8.04
7.78
7.47
7.05
6.60
6.23
6.05
6.09
6.22
6.27
6.07
5.53
4.68
3.63
2.51
1.42
0.41
-0.53
-1.44
-2.40
-3.49
-4.74
-6.17
-7.70
-9.22
-10.66
-11.95
-13.06
-13.98
-14.63
-14.88
-14.60
-13.70
-12.19
-10.16
-7.76
-5.18
-2.56
-0.02
2.35
4.45
6.21
7.57
8.44
8.81
8.75
8.41
7.94
7.53
7.21
6.97
6.72
6.44
6.14
5.94
5.96
6.21
6.63
7.03
7.23
7.10
6.65
5.99
5.25
4.56
3.95
3.36
2.71
1.91
0.97
-0.06
-1.07
-2.05
-3.08
-4.33
-5.91
-7.76
-9.62
-11.04
-11.64
-11.13
-9.51
-6.99
-3.88
-0.51
2.84
5.95
8.65
10.79
12.30
13.12
13.28
12.87
12.01
10.86
9.57
8.36
7.35
6.63
6.12
5.74
5.37
4.94
4.49
4.06
3.68
3.32
2.86
2.12
1.03
-0.41
-2.06
-3.70
-5.12
-6.21
-6.95
-7.45
-7.89
-8.38
-9.04
-9.94
-11.09
-12.51
-14.15
-15.85
-17.27
-18.05
-17.82
-16.49
-14.16
-11.17
-7.96
-4.87
-2.13
0.19
2.10
3.66
4.88
5.73
6.15
6.12
5.72
5.09
4.48
4.05
3.89
3.94
4.07
4.16
4.18
4.21
4.34
4.65
5.04
5.36
5.45
5.18
4.55
3.63
2.52
1.31
0.10
-1.07
-2.13
-3.04
-3.78
-4.41
-5.05
-5.80
-6.80
-8.06
-9.51
-10.93
-12.04
-12.56
-12.28
-11.11
-9.09
-6.42
-3.34
-0.13
2.95
5.72
8.01
9.71
10.73
11.06
10.73
9.92
8.88
7.89
7.19
6.89
6.93
7.14
7.35
7.47
7.56
7.70
7.99
8.41
8.82
9.08
9.07
8.72
8.03
7.00
5.62
3.91
2.00
0.07
-1.63
-2.95
-3.87
-4.53
-5.13
-5.87
-6.87
-8.14
-9.61
-11.06
-12.18
-12.61
-12.04
-10.38
-7.79
-4.63
-1.33
1.80
4.58
6.97
8.96
10.43
11.23
11.23
10.45
9.06
7.38
5.69
4.15
2.85
1.75
0.86
0.22
-0.10
-0.05
0.26
0.67
0.91
0.84
0.42
-0.27
-1.08
-1.87
-2.59
-3.25
-3.89
-4.58
-5.35
-6.25
-7.29
-8.48
-9.79
-11.16
-12.53
-13.80
-14.92
-15.88
-16.67
-17.25
-17.48
-17.15
-16.07
-14.15
-11.48
-8.34
-5.11
-2.15
0.30
2.20
3.60
4.64
5.38
5.83
6.01
5.97
5.89
5.94
6.22
6.70
7.22
7.58
7.67
7.48
7.14
6.83
6.65
6.58
6.50
6.25
5.73
4.95
4.01
3.02
2.08
1.23
0.44
-0.32
-1.07
-1.79
-2.48
-3.16
-3.89
-4.78
-5.93
-7.33
-8.87
-10.35
-11.51
-12.15
-12.15
-11.49
-10.20
-8.31
-5.91
-3.12
-0.15
2.73
5.25
7.26
8.72
9.75
10.53
11.21
11.85
12.45
12.96
13.35
13.65
13.88
14.10
14.35
14.60
14.80
14.83
14.58
14.00
13.10
11.97
10.72
9.50
8.39
7.44
6.66
5.96
5.18
4.14
2.67
0.71
-1.68
-4.34
-7.08
-9.79
-12.50
-15.30
-18.31
-21.49
-24.63
-27.36
-29.26
-29.92
-29.12
-26.84
-23.34
-19.11
-14.73
-10.72
-7.43
-4.93
-3.09
-1.64
-0.42
0.67
1.59
2.27
2.72
3.07
3.52
4.22
5.11
5.97
6.41
6.11
4.97
3.17
1.16
-0.52
-1.45
-1.47
-0.72
0.46
1.71
2.74
3.42
3.73
3.66
3.18
2.26
0.96
-0.56
-2.02
-3.15
-3.81
-4.05
-4.09
-4.18
-4.47
-4.90
-5.23
-5.10
-4.21
-2.48
-0.03
2.89
5.96
9.00
11.97
14.94
17.96
20.94
23.59
25.51
26.38
26.09
24.86
23.10
21.35
20.03
19.41
19.52
20.24
21.21
21.97
22.05
21.11
19.11
16.34
13.31
10.51
8.20
6.36
4.76
3.17
1.52
-0.07
-1.43
-2.44
-3.20
-3.96
-5.02
-6.66
-8.97
-11.94
-15.49
-19.49
-23.83
-28.33
-32.73
-36.61
-39.45
-40.73
-40.11
-37.53
-33.26
-27.88
-22.06
-16.37
-11.19
-6.61
-2.56
1.06
4.36
7.36
9.96
12.01
13.38
13.98
13.86
13.13
12.03
10.83
9.76
8.93
8.38
8.04
7.84
7.73
7.67
7.59
7.44
7.14
6.64
5.95
5.16
4.37
3.66
3.03
2.40
1.62
0.60
-0.68
-2.12
-3.57
-4.89
-5.99
-6.86
-7.54
-8.15
-8.78
-9.48
-10.17
-10.71
-10.87
-10.44
-9.35
-7.69
-5.70
-3.66
-1.78
-0.12
1.32
2.56
3.55
4.16
4.30
3.96
3.32
2.63
2.09
1.82
1.73
1.69
1.56
1.28
0.95
0.66
0.51
0.51
0.59
0.66
0.61
0.38
-0.10
-0.83
-1.79
-2.90
-4.07
-5.21
-6.28
-7.28
-8.23
-9.16
-10.01
-10.74
-11.31
-11.78
-12.34
-13.17
-14.42
-16.06
-17.82
-19.31
-20.19
-20.25
-19.59
-18.54
-17.56
-17.01
-17.03
-17.48
-17.98
-18.01
-17.15
-15.15
-12.05
-8.23
-4.31
-1.00
1.06
1.57
0.63
-1.25
-3.30
-4.73
-5.01
-3.95
-1.71
1.34
4.76
8.16
11.21
13.60
15.05
15.33
14.34
12.20
9.32
6.23
3.52
1.60
0.60
0.42
0.71
1.15
1.48
1.61
1.56
1.42
1.22
0.93
0.47
-0.26
-1.27
-2.45
-3.62
-4.55
-5.01
-4.84
-3.98
-2.46
-0.42
1.92
4.28
6.37
7.98
8.98
9.38
9.27
8.79
8.10
7.30
6.52
5.81
5.20
4.69
4.22
3.75
3.23
2.67
2.11
1.63
1.29
1.08
0.94
0.78
0.58
0.36
0.24
0.32
0.65
1.19
1.74
2.07
1.99
1.39
0.36
-0.86
-1.98
-2.73
-2.98
-2.79
-2.37
-1.98
-1.82
-1.93
-2.21
-2.44
-2.41
-1.99
-1.16
-0.05
1.24
2.62
4.07
5.65
7.36
9.10
10.62
11.58
11.65
10.75
9.11
7.23
5.73
5.03
5.22
5.93
6.47
6.14
4.53
1.88
-0.97
-2.69
-2.02
1.69
8.08
15.68
22.41
26.45
27.10
25.32
23.52
24.57
30.57
41.73
56.13
70.52
81.73
88.01
89.94
90.04
91.74
97.93
109.99
127.42
147.97
168.14
183.78
191.27
188.74
177.19
161.02
147.07
142.13
150.10
170.12
196.54
221.11
236.39
239.12
231.77
221.42
216.36
222.05
238.34
259.50
276.89
283.02
274.81
254.38
227.10
198.25
170.36
142.64
112.67
78.87
42.14
5.70
-26.83
-53.60
-75.42
-95.31
-117.04
-143.38
-174.96
-210.16
-246.09
-279.90
-310.06
-336.82
-361.96
-387.88
-416.53
-449.00
-485.69
-526.65
-571.48
-618.52
-663.84
-701.03
-722.47
-721.76
-696.27
-648.38
-584.54
-512.87
-440.25
-370.72
-305.52
-244.11
-185.31
-127.75
-70.00
-10.93
49.33
108.54
162.24
205.10
232.81
243.82
239.73
224.18
201.25
174.52
147.29
123.10
105.59
97.19
97.49
102.68
107.02
105.76
97.76
85.98
75.32
69.29
67.77
67.08
62.58
51.73
35.74
18.72
5.13
-2.68
-5.36
-5.42
-5.24
-5.67
-5.67
-3.21
3.19
13.51
26.13
38.63
48.87
55.77
59.50
61.08
61.64
61.82
61.51
60.06
56.80
51.57
44.92
38.08
32.55
29.47
29.17
30.99
33.41
34.71
33.52
29.28
22.38
13.88
5.16
-2.51
-8.18
-11.36
-12.00
-10.45
-7.47
-4.06
-1.28
0.07
-0.29
-2.05
-4.33
-6.06
-6.30
-4.61
-1.13
3.47
8.28
12.49
15.66
17.77
19.17
20.33
21.58
23.02
24.45
25.56
26.06
25.86
25.08
24.02
23.00
22.21
21.69
21.34
21.03
20.67
20.24
19.74
19.13
18.34
17.28
15.91
14.24
12.39
10.49
8.75
7.34
6.41
6.03
6.11
6.41
6.57
6.23
5.18
3.39
1.03
-1.54
-3.86
-5.44
-5.88
-4.88
-2.42
1.27
5.74
10.43
14.79
18.42
21.06
22.62
23.15
22.89
22.32
22.15
23.12
25.81
30.28
35.96
41.77
46.60
49.75
51.37
52.44
54.39
58.47
65.21
74.14
83.96
93.04
99.96
103.90
105.08
105.00
106.42
112.67
126.22
147.10
171.97
194.56
207.54
205.10
185.09
149.83
105.17
58.59
17.10
-14.21
-32.83
-38.87
-34.70
-24.50
-13.25
-5.76
-5.33
-13.08
-27.82
-46.71
-66.05
-82.32
-92.88
-96.47
-93.45
-85.64
-75.89
-67.24
-62.06
-61.34
-64.53
-70.00
-75.68
-79.89
-81.90
-82.11
-81.86
-82.85
-86.30
-92.21
-99.08
-104.05
-103.88
-96.32
-81.25
-61.12
-40.33
-23.67
-14.41
-13.10
-17.38
-23.11
-25.92
-22.44
-11.08
8.30
34.63
65.83
98.92
130.70
159.20
185.11
212.15
245.30
287.76
338.03
389.40
432.25
458.29
464.29
452.97
430.79
404.27
376.98
349.13
319.25
286.65
252.65
220.05
191.39
167.39
146.61
126.39
104.24
79.06
51.72
24.31
-0.88
-22.51
-40.85
-57.60
-75.07
-95.28
-118.98
-145.47
-173.03
-199.80
-224.71
-247.87
-270.44
-294.00
-319.68
-347.75
-377.74
-408.97
-441.02
-473.70
-506.46
-537.64
-564.14
-581.98
-587.33
-577.76
-552.77
-513.57
-462.20
-400.89
-331.93
-258.14
-183.39
-112.35
-49.43
2.48
42.64
71.92
91.28
100.52
98.56
84.95
61.58
33.65
8.98
-3.98
1.43
28.04
73.75
132.07
193.71
248.38
286.54
301.71
291.54
257.74
204.67
136.77
58.66
-24.68
-107.40
-182.51
-242.35
-280.07
-291.66
-277.69
-245.48
-204.95
-165.81
-135.70
-119.65
-119.56
-133.78
-157.00
-181.36
-202.39
-215.28
-215.99
-202.92
-179.02
-151.35
-128.55
-117.52
-121.58
-146.80
-193.03
-253.58
-317.25
-373.32
-414.92
-439.43
-447.72
-443.31
-439.04
-442.61
-453.31
-463.06
-463.28
-449.85
-423.74
-389.16
-299.68
-142.48
58.59
256.47
412.96
512.00
554.34
549.78
512.98
460.18
394.55
320.92
246.51
181.57
135.33
113.53
118.29
148.26
198.75
256.41
312.44
359.09
393.51
415.52
425.76
425.58
416.95
402.24
380.13
351.32
318.96
288.69
265.35
250.78
243.33
238.86
232.51
219.32
197.86
170.33
141.54
116.05
96.43
83.14
75.19
71.37
70.98
73.29
77.11
81.53
86.78
94.72
108.11
128.45
154.56
183.64
210.96
232.14
245.19
251.23
253.05
252.76
249.98
236.18
209.03
174.28
143.43
126.09
124.25
132.46
144.44
154.90
160.24
161.81
160.78
157.75
152.08
142.84
129.64
113.08
94.18
74.37
56.15
41.10
29.54
20.45
12.27
3.73
-5.78
-16.57
-28.61
-40.99
-53.07
-64.58
-75.67
-86.45
-96.66
-105.58
-112.55
-117.01
-118.30
-116.29
-111.25
-103.81
-94.69
-84.45
-73.44
-61.99
-50.57
-39.54
-29.41
-20.66
-13.66
-8.56
-5.29
-3.63
-3.41
-4.65
-7.45
-11.88
-17.82
-24.85
-32.33
-39.58
-46.21
-52.28
-58.49
-65.77
-75.00
-86.55
-100.03
-114.46
-128.67
-141.83
-153.95
-165.90
-179.07
-194.71
-213.25
-234.05
-255.65
-276.50
-295.61
-313.08
-330.06
-348.19
-369.31
-395.08
-426.79
-464.85
-507.88
-551.97
-590.69
-616.56
-623.60
-609.85
-578.48
-536.66
-492.68
-452.74
-419.28
-391.32
-366.59
-343.68
-322.96
-305.83
-293.10
-283.73
-274.83
-263.02
-246.13
-224.03
-198.44
-171.60
-144.86
-117.89
-89.21
-57.32
-21.95
15.36
51.71
84.02
110.18
129.65
143.31
152.66
158.93
162.61
163.47
161.15
155.75
148.27
140.46
134.36
131.61
132.95
138.15
146.41
156.85
169.00
183.00
199.47
219.26
243.17
271.67
304.48
340.17
375.84
407.41
430.59
442.22
441.43
430.02
411.67
390.60
370.05
351.64
335.38
320.42
305.81
290.71
274.44
256.40
236.34
214.49
191.81
169.76
149.93
133.74
122.20
115.57
113.29
113.63
113.93
111.22
103.33
90.01
73.30
56.98
45.09
40.33
43.12
51.71
63.22
74.90
84.92
92.52
97.62
100.25
100.16
96.97
90.62
81.81
72.12
63.79
58.94
58.84
63.46
71.59
81.43
91.24
99.87
106.79
111.88
115.38
117.78
119.88
122.59
126.59
131.95
138.05
143.66
147.33
147.70
143.64
134.29
119.14
98.15
71.83
41.42
8.63
-24.75
-57.34
-88.65
-119.17
-150.18
-183.01
-217.84
-252.89
-284.50
-308.33
-321.24
-322.55
-314.23
-299.79
-282.84
-266.15
-251.38
-239.48
-230.50
-223.05
-213.69
-196.98
-166.73
-118.16
-50.12
33.65
124.58
211.17
281.60
326.44
341.07
326.54
288.95
237.30
180.65
125.83
76.43
33.04
-5.61
-41.05
-73.97
-103.46
-126.95
-140.95
-142.45
-130.38
-106.58
-75.55
-43.08
-14.66
5.58
15.12
12.87
-1.24
-26.23
-60.03
-99.86
-143.26
-189.31
-238.99
-293.91
-353.92
-415.03
-469.03
-505.46
-515.13
-493.89
-444.83
-377.86
-306.84
-245.21
-201.86
-178.58
-170.27
-167.36
-159.62
-139.68
-105.17
-58.66
-5.83
46.87
94.33
133.46
162.81
181.93
191.12
191.72
186.47
179.26
174.06
173.61
178.27
185.91
192.99
196.06
193.22
184.68
172.26
158.34
144.79
132.46
121.30
110.86
100.84
91.34
82.87
76.07
71.37
68.83
67.89
67.56
66.73
64.53
60.71
55.63
50.02
44.73
40.37
37.15
34.95
33.53
32.75
32.68
33.78
36.62
41.40
47.35
52.49
54.05
49.32
36.59
15.61
-12.63
-46.24
-82.65
-118.48
-149.46
-170.94
-179.44
-174.15
-157.79
-135.79
-114.33
-97.94
-88.11
-83.44
-81.08
-78.28
-73.40
-65.99
-56.41
-45.37
-33.79
-22.59
-12.57
-4.20
2.57
8.21
13.34
18.63
24.70
32.05
41.10
51.93
64.19
77.01
89.31
99.87
107.77
112.58
114.44
113.97
111.75
107.59
99.80
85.17
59.65
20.13
-33.73
-98.18
-165.48
-225.57
-268.73
-288.32
-282.43
-254.16
-210.34
-159.49
-109.67
-66.70
-33.54
-10.22
5.23
15.86
24.65
33.88
44.70
57.11
70.22
82.63
93.01
100.51
105.06
107.33
108.48
109.66
111.59
114.21
116.70
117.83
116.43
111.96
104.70
95.69
86.14
76.95
68.38
60.09
51.75
43.35
35.52
29.29
25.55
24.64
26.06
28.76
31.51
33.52
34.87
36.49
39.91
46.54
56.89
70.28
85.01
99.09
111.19
121.36
130.87
141.49
154.49
170.12
187.59
205.59
222.71
237.61
248.84
254.61
252.97
242.19
221.41
191.00
152.60
108.79
62.70
17.71
-22.98
-56.71
-81.85
-98.33
-107.81
-113.21
-118.01
-125.47
-138.21
-157.50
-182.52
-209.73
-232.78
-243.93
-236.44
-207.42
-159.50
-100.52
-41.08
8.78
42.39
57.32
54.41
35.82
3.49
-40.94
-94.80
-152.83
-206.58
-245.82
-261.78
-250.83
-216.90
-171.36
-129.54
-105.78
-108.70
-138.67
-188.58
-247.00
-302.13
-344.95
-370.54
-377.74
-367.66
-342.60
-305.31
-258.86
-206.85
-153.13
-100.81
-51.23
-3.39
45.18
96.07
147.56
193.57
225.29
234.87
219.45
182.85
134.34
84.81
42.62
11.40
-9.45
-22.23
-28.31
-27.02
-16.67
3.48
31.74
64.38
97.45
128.55
157.17
183.32
205.06
217.20
212.33
184.32
132.38
63.46
-8.76
-68.02
-100.75
-100.23
-67.80
-11.35
57.47
126.23
183.86
222.16
236.89
228.36
200.84
161.26
117.07
74.16
35.67
1.95
-28.82
-59.79
-94.31
-134.66
-180.69
-228.97
-272.99
-304.82
-317.67
-308.01
-276.56
-227.73
-168.14
-105.10
-45.45
5.02
42.32
64.94
74.18
73.65
68.07
61.71
57.30
55.52
55.16
53.51
46.83
31.53
5.88
-28.27
-64.70
-94.22
-108.24
-102.88
-81.53
-53.82
-31.45
-22.70
-28.41
-41.60
-50.98
-46.66
-25.20
8.43
42.95
65.69
68.11
49.10
14.72
-24.89
-59.82
-83.80
-95.36
-96.64
-91.08
-81.27
-68.17
-51.71
-32.07
-10.81
9.12
24.33
32.32
32.47
26.00
15.15
1.87
-12.78
-28.49
-44.90
-60.70
-73.38
-79.73
-77.02
-64.22
-42.80
-16.62
9.22
30.13
43.82
51.15
55.52
61.09
70.69
84.58
100.81
116.77
130.91
143.43
155.49
167.80
179.55
188.73
193.47
193.54
190.87
188.75
190.13
196.14
205.83
217.05
227.85
237.30
245.39
252.01
256.25
256.37
250.89
240.02
226.30
213.70
205.79
203.65
204.90
204.55
197.21
179.39
151.10
115.61
77.84
42.44
12.11
-13.01
-34.88
-56.66
-81.75
-113.25
-153.26
-202.02
-256.70
-310.80
-354.76
-378.40
-374.86
-344.07
-293.93
-238.00
-190.70
-161.74
-152.95
-158.60
-168.99
-175.09
-171.84
-158.83
-138.58
-114.16
-87.36
-58.59
-27.86
4.08
35.02
61.92
82.05
94.10
98.72
98.35
96.34
95.68
98.07
103.52
110.57
117.24
122.08
124.96
126.96
129.46
132.82
135.53
134.34
125.55
106.70
77.76
41.09
0.29
-41.63
-83.40
-125.55
-169.18
-214.29
-258.70
-298.09
-327.30
-342.22
-341.14
-325.09
-296.88
-259.53
-214.95
-163.85
-107.10
-47.46
9.51
56.41
86.82
98.59
95.42
86.02
80.38
85.35
101.44
122.44
138.19
138.59
117.83
76.76
22.91
-31.65
-73.78
-93.01
-84.80
-52.08
-4.59
44.41
82.84
104.28
110.37
109.67
113.51
130.49
162.38
203.03
241.09
264.63
265.76
243.20
202.22
152.73
105.86
71.05
53.65
54.01
67.81
87.76
105.86
115.33
111.81
93.86
62.94
23.08
-19.54
-57.54
-84.20
-95.66
-92.78
-81.27
-69.88
-66.95
-77.30
-100.34
-130.49
-159.10
-177.10
-177.17
-155.07
-110.42
-46.79
28.47
105.26
172.70
221.55
246.55
247.53
228.87
197.48
160.50
123.39
89.25
59.26
33.32
10.70
-9.93
-30.66
-54.23
-83.45
-120.04
-163.17
-208.73
-249.62
-277.15
-283.61
-265.14
-223.67
-166.66
-104.27
-45.23
6.35
51.08
91.59
128.41
157.74
172.54
166.43
137.94
92.19
38.95
-11.95
-54.93
-90.40
-123.27
-159.52
-202.88
-253.20
-306.57
-356.81
-397.04
-421.35
-426.33
-411.88
-381.04
-338.65
-289.60
-237.35
-183.55
-129.28
-76.64
-30.04
4.27
20.30
14.82
-10.77
-50.46
-95.39
-136.45
-166.71
-182.66
-184.14
-173.04
-151.99
-123.30
-88.67
-49.54
-7.58
34.92
75.23
110.49
138.41
157.70
168.49
172.20
171.02
167.19
162.29
156.95
151.00
144.04
136.01
127.51
119.62
113.44
109.63
108.09
108.01
108.11
107.07
103.90
98.23
90.38
81.13
71.45
62.22
54.10
47.64
43.41
41.93
43.58
48.19
54.94
62.45
69.26
74.35
77.52
79.26
80.35
81.31
82.15
82.52
81.97
80.24
77.26
72.92
66.94
58.96
48.97
37.70
26.71
18.01
13.09
12.17
13.88
15.77
15.37
11.35
4.11
-4.40
-11.57
-15.05
-13.58
-7.13
3.28
15.97
29.09
41.03
50.72
57.76
62.47
65.63
68.08
70.26
72.02
72.76
71.94
69.55
66.48
64.19
64.06
66.56
70.96
75.54
78.39
78.43
75.56
70.43
63.54
54.46
41.79
23.62
-1.36
-33.23
-70.42
-109.84
-147.20
-177.38
-194.94
-195.04
-174.98
-136.14
-85.20
-33.54
5.45
20.70
7.44
-30.72
-82.92
-135.34
-176.60
-201.98
-214.29
-221.20
-230.43
-245.63
-264.85
-281.92
-290.10
-285.24
-267.07
-238.27
-202.34
-161.55
-116.29
-66.09
-11.20
46.13
101.71
150.60
188.70
213.93
226.73
229.37
224.62
214.57
200.19
181.71
159.65
135.63
112.42
93.20
80.12
73.51
71.95
73.34
76.25
80.74
88.00
99.15
113.82
129.27
140.80
142.97
131.10
102.41
56.84
-2.67
-70.03
-136.44
-191.77
-226.80
-235.72
-217.96
-178.47
-126.14
-71.02
-21.34
18.35
47.68
69.18
86.28
101.39
115.00
126.00
132.78
134.67
132.77
129.81
129.07
133.15
142.94
157.43
174.07
189.33
199.50
201.18
192.04
171.26
139.72
99.64
53.72
4.06
-48.49
-104.23
-163.45
-224.96
-285.04
-337.52
-375.21
-392.20
-385.94
-358.00
-313.17
-257.50
-196.20
-132.66
-68.85
-6.61
51.37
101.63
141.13
168.76
186.11
196.90
205.42
215.12
227.57
242.44
257.87
271.01
278.47
277.14
265.26
243.56
215.52
186.04
159.34
136.87
116.84
95.69
70.82
42.92
16.47
-2.04
-7.30
1.82
21.31
43.10
57.98
58.75
42.30
9.76
-34.82
-86.03
-138.01
-184.76
-220.76
-241.88
-247.41
-241.22
-231.47
-227.64
-236.19
-256.99
-282.92
-303.09
-307.93
-293.68
-263.53
-225.40
-187.59
-155.35
-129.69
-108.79
-90.56
-74.42
-61.67
-54.17
-52.52
-54.82
-57.16
-55.36
-46.88
-32.08
-13.80
4.15
18.73
28.82
35.19
39.48
42.95
45.72
46.70
44.33
37.57
26.59
12.93
-1.01
-12.80
-20.80
-24.48
-24.55
-22.46
-19.87
-18.06
-17.56
-18.26
-19.59
-21.07
-22.58
-24.34
-26.39
-28.09
-27.79
-23.22
-12.35
5.94
31.69
64.07
101.36
140.87
178.50
209.21
228.50
234.62
230.17
221.78
217.53
223.40
240.67
265.40
290.39
308.25
313.93
305.97
286.43
260.09
233.24
212.05
200.70
199.86
206.35
214.48
218.55
215.12
203.98
187.37
168.10
147.98
127.58
106.93
86.51
67.57
51.34
38.08
26.39
13.65
-2.82
-24.38
-50.28
-78.05
-104.51
-127.51
-147.14
-166.08
-188.70
-218.91
-257.77
-302.08
-344.92
-378.01
-394.87
-392.96
-373.86
-341.58
-300.60
-254.91
-208.31
-164.78
-128.06
-100.33
-81.07
-67.52
-56.82
-48.57
-45.82
-53.13
-73.01
-102.96
-135.44
-161.00
-172.56
-168.36
-151.82
-128.89
-104.77
-82.08
-61.04
-41.18
-23.03
-8.69
-1.21
-3.13
-15.10
-34.91
-58.07
-79.12
-93.43
-98.74
-95.57
-86.71
-75.73
-65.71
-58.36
-53.90
-51.29
-48.57
-43.48
-34.11
-19.63
-0.71
20.40
40.72
57.51
69.23
76.03
79.47
81.96
85.77
92.28
101.45
111.78
120.83
126.14
126.26
121.24
112.65
102.91
94.38
88.70
86.31
86.45
87.31
86.55
82.05
72.78
59.17
42.99
26.32
10.41
-5.15
-22.12
-42.52
-67.37
-95.98
-126.21
-155.15
-179.88
-197.73
-206.39
-204.12
-190.29
-166.07
-134.42
-99.50
-65.36
-34.63
-8.09
14.90
35.40
54.04
70.92
86.01
99.84
113.48
128.04
143.98
160.79
177.49
193.99
212.14
235.67
268.44
311.64
361.72
410.42
447.40
464.26
457.95
431.84
393.91
353.26
316.78
287.47
264.87
246.73
230.58
214.54
197.30
177.80
155.37
130.11
103.15
76.31
51.26
28.71
7.91
-13.19
-37.23
-66.45
-101.75
-141.86
-183.06
-219.71
-245.90
-257.70
-255.13
-242.72
-228.02
-218.56
-218.53
-227.04
-238.63
-245.96
-243.26
-229.08
-207.04
-184.50
-169.33
-166.55
-176.00
-192.41
-207.62
-214.30
-208.93
-192.78
-170.05
-144.71
-118.22
-89.38
-56.68
-21.26
11.61
33.93
38.17
20.61
-17.01
-68.65
-126.29
-182.32
-230.86
-267.78
-290.15
-296.14
-285.27
-258.97
-220.55
-174.30
-124.05
-71.98
-18.69
35.33
87.85
134.54
170.41
192.26
200.57
198.97
191.86
181.76
168.36
150.00
126.67
101.98
82.53
75.06
82.83
103.63
130.70
155.68
171.53
174.30
162.94
138.10
101.13
53.44
-3.34
-66.84
-133.24
-196.92
-250.87
-287.95
-302.74
-293.00
-260.52
-210.73
-151.17
-89.72
-33.06
14.10
49.00
70.49
78.79
75.36
63.16
46.63
31.10
21.35
19.82
25.17
32.53
35.81
30.75
17.39
0.21
-14.15
-20.49
-17.55
-8.11
3.22
12.90
20.15
26.62
34.32
43.44
51.70
55.62
52.65
43.00
29.75
17.47
10.11
9.30
14.02
21.50
28.75
33.80
36.01
35.69
33.32
29.15
23.13
15.34
6.28
-3.03
-11.30
-17.45
-20.85
-21.61
-20.34
-18.02
-15.64
-13.94
-13.24
-13.28
-13.29
-12.23
-9.10
-3.39
4.66
13.92
22.66
28.87
31.06
28.65
22.35
13.83
5.34
-1.09
-4.09
-3.22
1.04
7.58
14.81
21.02
24.62
24.60
20.90
14.60
7.63
2.15
-0.33
0.50
3.79
7.99
11.67
14.14
15.43
15.92
15.73
14.52
11.72
7.15
1.54
-3.56
-6.35
-5.69
-1.70
4.23
10.22
14.85
17.80
19.81
22.07
25.28
29.13
32.35
33.29
30.71
24.39
15.35
5.64
-2.27
-6.12
-4.75
1.47
10.51
19.43
25.37
26.81
24.12
19.19
14.30
10.75
8.05
4.21
-3.17
-15.46
-32.16
-51.02
-69.08
-83.84
-94.19
-100.61
-104.62
-108.09
-112.74
-119.81
-129.93
-142.88
-157.28
-170.41
-178.61
-178.17
-166.52
-143.36
-110.72
-72.28
-31.97
7.46
45.41
83.41
124.18
169.73
219.34
268.69
310.30
335.58
337.66
313.71
266.12
201.95
130.99
63.44
8.06
-29.05
-44.78
-38.95
-14.40
23.23
65.96
104.59
130.49
137.63
124.14
92.87
50.96
7.50
-29.14
-53.81
-65.89
-68.69
-67.49
-67.32
-70.98
-78.32
-86.89
-93.25
-94.59
-89.77
-79.57
-66.20
-52.27
-39.89
-30.04
-22.57
-16.57
-10.99
-5.26
0.52
5.64
9.29
11.13
11.67
12.05
13.61
17.10
22.41
28.50
34.01
37.88
39.77
40.18
39.88
39.49
39.01
37.91
35.50
31.43
26.22
21.20
18.07
18.07
21.19
25.92
29.75
30.29
26.51
19.36
11.32
5.20
2.61
3.08
4.33
3.46
-1.38
-10.04
-20.31
-29.03
-33.43
-32.16
-25.60
-15.17
-2.59
10.77
23.75
35.11
43.41
47.72
48.73
49.17
53.20
64.37
83.40
107.01
129.05
143.21
146.08
138.60
125.02
110.11
96.36
82.96
66.91
45.51
18.40
-11.91
-41.22
-65.74
-83.94
-97.41
-110.23
-127.47
-153.08
-188.22
-230.34
-273.43
-309.66
-331.59
-334.73
-318.78
-287.39
-246.28
-200.84
-154.42
-108.28
-62.98
-19.90
17.99
47.25
65.67
73.71
74.42
71.55
67.37
61.64
52.46
38.44
20.45
1.91
-12.81
-20.62
-20.99
-15.74
-7.67
0.68
7.59
12.08
13.74
13.01
11.29
10.54
12.03
14.97
16.05
10.62
-4.92
-30.60
-62.11
-91.99
-112.26
-116.98
-103.48
-72.39
-27.04
26.82
81.26
126.69
153.41
154.00
125.70
71.73
0.95
-74.11
-140.29
-186.75
-207.15
-200.43
-170.30
-123.84
-69.64
-15.88
30.94
66.88
90.71
103.47
107.92
107.76
106.53
106.79
109.44
113.58
117.11
117.80
114.25
106.56
96.10
84.76
74.22
65.26
57.82
51.40
45.64
40.60
36.66
34.14
32.97
32.66
32.61
32.48
32.38
32.61
33.27
34.05
34.21
32.90
29.55
24.26
17.84
11.65
7.29
6.00
8.36
13.95
21.44
28.88
34.42
37.06
37.00
35.62
34.77
35.86
39.10
43.25
46.05
45.22
39.44
28.89
15.27
1.08
-11.15
-19.59
-23.42
-22.93
-19.28
-14.24
-9.89
-8.02
-9.61
-14.37
-20.72
-26.27
-28.68
-26.60
-20.18
-11.03
-1.51
6.03
10.00
9.79
5.75
-1.17
-9.69
-18.40
-25.95
-31.25
-33.67
-33.19
-30.27
-25.78
-20.70
-16.03
-12.72
-11.59
-13.22
-17.74
-24.73
-33.15
-41.66
-48.97
-54.13
-56.74
-56.78
-54.53
-50.49
-45.25
-39.35
-33.10
-26.46
-19.13
-10.84
-1.75
7.24
14.65
18.91
19.04
15.10
8.31
0.62
-5.94
-9.71
-9.76
-5.83
1.76
12.19
24.21
36.08
45.66
50.76
49.72
42.20
29.56
14.63
0.79
-9.38
-15.22
-18.37
-22.03
-29.51
-42.55
-60.45
-79.90
-95.94
-103.21
-97.56
-77.25
-43.83
-2.08
40.98
78.01
103.54
115.59
115.96
109.13
100.16
92.70
87.89
84.54
80.26
72.88
61.41
46.37
29.43
12.66
-2.37
-15.04
-25.72
-35.32
-44.46
-53.01
-60.03
-64.46
-65.83
-64.53
-61.33
-56.36
-48.63
-36.54
-19.31
1.89
24.36
45.40
64.05
81.50
99.55
118.05
133.22
138.38
127.08
96.92
51.85
1.30
-43.20
-72.01
-79.90
-66.07
-32.82
15.94
75.00
137.41
194.44
236.60
255.95
248.55
215.74
163.83
101.92
39.48
-15.65
-58.18
-85.52
-97.89
-98.50
-93.33
-90.03
-95.58
-113.69
-143.32
-179.08
-213.73
-241.35
-259.54
-269.63
-275.01
-278.83
-282.48
-285.67
-287.79
-289.20
-291.56
-296.56
-304.15
-311.34
-312.68
-302.29
-276.55
-235.95
-185.12
-131.03
-80.29
-36.73
-0.59
30.70
60.67
92.22
126.67
163.55
200.66
233.98
257.98
266.63
255.76
225.43
181.07
132.34
89.73
60.80
47.61
46.60
50.46
50.92
41.31
18.47
-16.26
-56.91
-94.06
-117.43
-119.72
-99.83
-63.74
-22.49
11.99
31.18
32.29
18.21
-4.59
-28.33
-45.69
-50.84
-40.23
-13.37
26.81
73.95
119.57
154.83
172.64
169.32
145.47
105.93
58.90
14.34
-18.24
-31.97
-24.35
2.40
41.95
85.64
124.68
152.19
164.65
162.47
149.70
132.71
118.22
111.10
112.72
120.56
129.33
133.40
129.23
116.67
98.37
77.95
58.21
40.42
25.23
14.00
9.11
13.05
26.28
45.60
64.31
74.16
68.13
42.69
-1.55
-60.39
-127.16
-193.65
-250.92
-290.12
-304.13
-289.62
-248.84
-190.02
-125.82
-70.20
-34.58
-24.85
-40.06
-73.15
-113.31
-149.11
-171.34
-174.60
-157.51
-121.81
-71.21
-10.84
52.51
110.29
153.34
174.37
170.94
147.11
112.48
78.70
54.86
44.36
44.93
51.40
59.45
67.87
78.18
92.30
110.18
129.08
144.82
153.96
155.47
150.69
142.23
132.51
123.16
115.07
108.86
104.98
103.25
102.43
100.17
93.75
81.24
62.34
38.32
11.07
-18.21
-49.83
-85.49
-127.04
-174.80
-226.42
-276.87
-319.67
-349.07
-361.72
-357.45
-338.86
-309.91
-274.44
-235.14
-193.24
-148.63
-100.51
-48.27
7.23
62.56
111.38
145.83
159.20
149.21
120.09
81.84
47.09
26.83
27.25
48.85
87.53
136.43
187.29
231.28
259.71
265.72
246.32
204.03
146.78
85.73
31.77
-7.52
-29.40
-35.51
-29.98
-17.56
-2.38
12.48
25.16
34.91
42.14
47.99
53.64
59.70
65.68
70.14
71.38
68.48
61.86
53.22
44.75
38.11
34.03
32.66
34.23
39.48
49.08
62.55
77.30
88.87
92.37
84.56
65.06
35.98
0.25
-40.03
-84.01
-130.84
-177.65
-218.91
-247.71
-258.97
-252.17
-232.23
-207.40
-185.51
-170.52
-161.08
-151.61
-134.87
-105.22
-61.15
-6.35
50.72
98.85
127.31
129.18
103.66
56.39
-2.27
-60.04
-105.63
-131.03
-132.72
-112.15
-75.59
-32.75
5.87
32.23
43.40
42.08
34.45
26.57
21.29
17.60
12.39
3.61
-7.46
-16.23
-17.05
-6.44
14.76
41.18
65.16
80.18
83.92
79.17
72.26
69.74
74.72
85.21
94.95
96.23
82.98
53.03
8.46
-45.26
-100.63
-149.36
-183.57
-197.18
-187.47
-156.35
-110.48
-59.93
-15.31
15.41
28.99
27.30
15.79
0.87
-12.40
-21.41
-25.75
-26.13
-23.17
-16.90
-6.81
7.93
28.55
57.01
95.68
145.98
206.24
270.13
326.99
364.61
373.37
349.79
297.86
227.87
153.36
87.72
41.21
18.79
19.27
35.69
57.29
72.95
74.82
60.61
33.49
-0.42
-35.67
-70.02
-104.77
-142.90
-186.19
-232.97
-277.83
-313.25
-332.23
-330.72
-308.86
-270.49
-221.70
-168.96
-117.63
-71.36
-32.19
-0.90
22.57
38.88
49.11
54.49
56.13
54.89
51.45
46.61
41.43
37.03
34.37
33.92
35.52
38.39
41.20
42.25
39.67
31.97
18.66
0.77
-18.96
-36.71
-48.69
-52.51
-47.96
-37.09
-23.30
-10.03
0.38
7.10
10.56
11.74
11.54
10.62
9.59
9.21
10.39
13.77
19.30
26.10
32.85
38.45
42.60
45.83
48.91
52.00
54.17
53.79
49.55
41.56
31.82
23.49
19.44
20.78
26.25
32.76
36.80
35.87
29.25
17.99
4.04
-10.54
-24.28
-36.44
-46.92
-56.06
-64.38
-72.47
-80.69
-88.97
-96.59
-102.24
-104.24
-101.22
-92.76
-79.72
-64.20
-48.82
-35.93
-26.90
-22.00
-20.65
-21.87
-24.59
-27.66
-29.77
-29.60
-26.10
-18.86
-7.90
6.84
25.97
50.72
82.04
119.15
158.55
194.04
218.10
224.25
209.27
174.45
125.43
70.72
19.50
-20.55
-44.68
-51.96
-45.13
-29.64
-11.93
2.72
11.71
15.62
17.05
18.57
20.97
22.69
21.11
14.38
3.15
-9.68
-20.41
-26.57
-28.25
-27.64
-27.39
-28.86
-31.49
-33.57
-33.76
-32.17
-30.47
-30.98
-35.38
-43.77
-54.53
-64.93
-72.09
-73.88
-69.53
-59.54
-45.35
-28.63
-10.93
6.51
22.65
36.36
46.44
51.81
52.01
47.63
40.41
32.71
26.57
22.90
21.15
19.75
17.13
12.69
7.15
2.21
-0.41
0.17
3.46
8.08
12.54
16.24
19.87
25.03
33.41
45.84
61.95
80.43
99.59
117.71
133.01
143.34
146.27
139.87
124.07
101.73
78.58
61.45
55.50
61.81
76.58
92.61
102.15
99.92
84.60
58.24
24.48
-13.57
-54.62
-99.04
-147.74
-200.36
-254.06
-303.37
-341.50
-362.59
-363.90
-346.76
-315.77
-276.74
-234.22
-190.27
-144.91
-97.70
-49.62
-3.65
36.14
66.14
84.45
91.39
89.25
81.65
72.75
66.04
62.83
61.48
57.79
47.29
28.11
2.97
-21.40
-37.35
-40.08
-29.88
-11.34
9.84
30.22
49.91
71.09
94.95
119.52
140.14
152.03
153.40
146.81
138.01
132.88
134.27
140.79
147.79
150.04
144.15
129.75
108.85
84.29
58.02
30.39
0.39
-33.70
-73.53
-119.93
-172.17
-227.45
-280.73
-325.66
-356.34
-369.31
-364.70
-345.90
-317.79
-284.40
-247.41
-206.10
-158.84
-105.02
-46.57
11.87
63.89
102.91
123.87
124.51
106.11
73.48
34.25
-2.72
-29.40
-40.42
-34.20
-12.97
18.48
54.48
90.05
121.73
147.74
167.57
181.37
189.49
192.09
188.91
179.53
163.72
141.78
114.50
82.86
47.92
11.02
-25.60
-58.70
-84.62
-100.79
-107.34
-107.85
-107.94
-112.68
-123.73
-137.87
-147.99
-146.15
-127.39
-92.21
-46.73
-0.46
37.01
59.18
64.40
55.50
37.78
16.09
-7.10
-31.91
-59.20
-88.33
-115.69
-135.56
-142.71
-135.31
-116.39
-92.71
-71.95
-59.44
-56.55
-60.76
-67.43
-71.90
-70.56
-61.24
-43.14
-16.83
15.58
50.51
83.67
111.17
130.60
141.64
145.73
145.24
142.62
139.85
138.17
138.13
139.66
142.03
144.07
144.39
141.85
136.06
127.59
117.70
107.84
99.04
91.19
83.06
72.71
58.53
40.31
19.75
0.07
-15.16
-23.53
-24.78
-20.74
-14.32
-8.10
-3.20
0.80
5.05
10.36
16.47
22.02
25.47
26.15
24.73
23.18
23.79
28.19
36.66
47.91
59.44
68.32
71.76
68.11
57.57
42.76
28.46
20.57
24.25
41.87
71.67
107.68
141.37
164.23
170.53
159.00
132.71
97.55
59.72
23.50
-9.70
-41.15
-73.54
-109.78
-151.98
-200.80
-254.82
-310.18
-360.71
-398.90
-417.77
-413.42
-386.76
-343.58
-292.93
-243.85
-202.42
-170.08
-144.24
-120.43
-95.15
-67.68
-40.19
-15.94
3.19
18.14
32.36
49.45
70.28
91.61
107.49
112.71
106.34
93.06
81.04
77.72
85.56
100.66
115.05
121.12
115.67
101.26
84.21
70.92
64.73
64.75
67.22
68.05
65.06
58.89
52.31
48.72
50.64
58.96
73.10
91.80
113.83
138.22
163.87
188.80
209.66
222.21
222.49
208.51
181.21
144.13
101.64
56.70
9.96
-39.39
-91.10
-141.84
-184.86
-212.06
-217.52
-199.99
-162.91
-112.16
-53.08
11.05
77.99
144.31
203.91
248.71
271.86
271.07
249.97
216.51
179.33
144.66
115.24
91.29
72.07
57.04
45.64
36.55
27.45
15.84
0.22
-18.94
-39.75
-60.06
-78.76
-96.66
-116.26
-140.88
-173.09
-213.20
-258.20
-301.94
-336.67
-355.53
-355.06
-336.29
-303.72
-262.99
-218.80
-173.98
-130.17
-89.07
-53.13
-24.99
-5.96
4.95
11.05
16.38
23.91
34.42
46.52
57.60
64.83
66.16
60.65
48.57
31.09
9.95
-13.05
-36.40
-59.06
-80.24
-98.99
-114.07
-124.08
-127.95
-125.56
-118.17
-108.39
-99.42
-94.11
-93.87
-98.35
-105.51
-112.55
-116.93
-117.25
-113.51
-106.66
-97.72
-87.03
-74.04
-57.60
-36.80
-11.64
16.99
47.49
78.40
109.07
140.04
172.84
209.27
250.43
295.80
342.84
387.04
422.75
444.56
448.67
433.87
401.79
356.39
303.01
247.45
194.92
149.24
112.05
82.47
57.15
31.21
-0.20
-40.12
-88.37
-141.31
-192.63
-235.52
-265.11
-280.17
-283.54
-280.74
-277.34
-276.23
-276.15
-272.15
-258.21
-230.55
-190.21
-143.37
-99.54
-67.93
-53.83
-56.40
-68.75
-80.68
-82.78
-69.92
-42.74
-6.34
32.71
69.30
100.87
126.85
147.34
162.63
173.66
182.47
191.96
203.98
217.31
226.73
224.71
205.16
167.64
119.22
72.44
40.36
30.55
41.61
63.62
83.10
89.27
78.96
56.93
31.99
11.00
-5.58
-23.62
-51.11
-92.03
-142.62
-192.21
-228.03
-241.08
-229.76
-199.59
-159.69
-118.31
-79.79
-43.68
-6.40
35.99
84.88
137.40
186.69
224.20
242.86
239.89
217.41
180.80
135.95
86.92
35.96
-14.17
-57.61
-84.93
-86.18
-56.23
0.62
70.35
133.69
173.81
182.68
163.45
127.29
87.34
52.86
26.51
5.26
-16.42
-43.14
-76.42
-114.27
-152.11
-184.21
-205.20
-210.94
-199.03
-169.24
-123.46
-66.13
-4.08
54.08
99.55
125.59
129.53
113.80
84.84
50.73
18.33
-8.68
-30.19
-48.56
-67.25
-90.00
-119.79
-158.30
-204.81
-255.31
-302.50
-337.36
-352.13
-343.23
-312.98
-268.69
-219.69
-173.53
-133.40
-97.82
-62.48
-23.22
21.68
70.23
117.87
159.01
188.95
204.74
205.68
193.44
171.93
146.27
120.89
97.66
74.98
48.98
16.62
-21.23
-58.52
-85.87
-94.49
-80.30
-45.87
0.46
47.56
84.76
103.93
100.49
73.77
27.36
-31.30
-92.32
-146.24
-186.65
-211.19
-220.69
-216.83
-200.44
-171.29
-129.57
-77.66
-20.80
34.18
81.23
117.03
141.70
157.81
168.57
176.37
182.26
186.09
187.41
185.85
181.24
173.25
161.06
143.21
117.91
83.82
40.96
-8.51
-60.11
-107.66
-144.55
-165.65
-169.03
-156.75
-134.18
-107.98
-83.76
-64.16
-48.47
-33.84
-17.07
4.25
31.52
65.49
106.20
152.01
198.48
237.84
260.27
256.53
221.58
157.10
72.07
-19.28
-101.19
-160.17
-187.85
-182.00
-145.86
-86.93
-15.55
56.59
118.15
160.04
177.20
169.47
140.80
97.26
44.44
-13.81
-74.79
-134.96
-188.36
-226.83
-242.54
-231.10
-193.54
-136.03
-67.83
1.17
62.10
107.60
132.53
134.47
115.08
80.44
40.01
3.85
-20.75
-31.75
-32.60
-30.21
-32.01
-43.09
-64.92
-95.86
-132.43
-170.68
-206.77
-236.74
-256.14
-260.71
-247.95
-219.00
-179.45
-137.83
-102.43
-77.81
-63.27
-53.84
-43.64
-29.06
-10.33
9.47
27.17
42.09
57.34
78.33
109.63
151.71
199.20
242.10
269.27
272.94
251.84
211.57
162.26
114.81
77.74
55.72
49.74
57.88
75.82
97.13
113.95
118.63
106.21
76.47
34.40
-11.56
-52.78
-83.20
-100.96
-107.91
-108.14
-106.19
-105.75
-108.84
-115.41
-123.40
-129.22
-128.73
-118.30
-95.67
-60.42
-13.87
40.83
98.96
154.36
200.00
229.23
237.35
222.95
187.86
136.54
74.74
8.74
-54.80
-108.53
-145.00
-158.54
-148.04
-118.83
-81.83
-49.89
-32.47
-31.72
-41.95
-52.79
-54.41
-41.67
-15.35
19.74
58.34
97.78
138.81
184.03
235.07
289.92
342.62
384.91
409.43
412.59
395.93
365.45
328.75
292.24
259.18
229.79
202.75
176.99
152.54
130.13
109.96
90.87
70.65
47.16
19.57
-11.09
-42.64
-72.83
-100.63
-126.81
-153.75
-184.71
-222.56
-268.33
-320.02
-372.20
-416.88
-445.81
-453.26
-438.01
-403.69
-357.07
-305.18
-252.75
-201.30
-149.81
-96.98
-43.12
8.98
54.45
87.79
104.73
104.08
88.45
63.67
36.64
12.47
-7.15
-23.68
-39.27
-53.80
-63.09
-59.94
-37.57
5.95
65.41
129.27
183.43
216.28
222.02
201.04
157.81
98.27
28.65
-44.13
-111.64
-164.34
-193.77
-196.04
-174.32
-138.38
-101.05
-73.19
-59.78
-59.09
-64.85
-69.88
-69.26
-61.98
-50.72
-40.31
-35.54
-38.90
-48.88
-59.47
-61.71
-47.28
-12.60
38.31
94.03
139.10
159.98
150.32
113.70
62.19
11.72
-23.56
-35.54
-23.13
9.40
55.83
110.58
169.40
228.38
282.37
324.57
348.02
348.40
326.47
288.54
244.61
204.37
173.62
152.35
135.45
115.60
86.68
46.25
-3.83
-58.60
-111.63
-156.18
-186.00
-196.28
-185.26
-155.92
-116.32
-77.53
-49.57
-37.30
-38.74
-46.96
-54.58
-58.08
-59.73
-65.77
-82.65
-113.53
-156.94
-207.62
-258.75
-303.66
-336.63
-353.03
-349.26
-323.25
-275.25
-208.69
-130.84
-52.70
12.84
54.54
67.07
53.92
27.03
2.04
-8.65
-1.62
16.08
30.71
28.40
1.60
-48.19
-111.79
-176.61
-231.23
-268.25
-285.09
-282.96
-265.44
-237.13
-202.69
-166.27
-131.30
-100.49
-75.71
-57.57
-44.74
-33.64
-18.92
4.87
41.29
90.20
147.29
205.34
256.60
295.88
322.18
338.71
350.60
361.83
372.75
379.47
375.49
354.49
313.48
254.75
186.10
119.23
66.79
39.20
41.81
73.11
124.75
183.39
234.14
264.34
266.83
241.75
196.13
141.39
89.60
49.52
24.16
10.50
1.79
-9.15
-27.05
-53.03
-85.95
-124.46
-168.65
-219.87
-278.69
-342.46
-404.02
-453.33
-481.03
-482.47
-459.79
-420.92
-376.30
-334.52
-299.45
-270.00
-242.38
-213.10
-181.26
-148.63
-118.19
-91.91
-69.36
-47.59
-22.29
10.25
51.46
99.25
148.51
192.51
225.20
243.06
245.77
235.69
216.50
192.25
166.99
145.00
130.56
127.11
135.62
153.55
175.06
192.76
200.23
194.36
176.12
149.64
120.27
92.73
69.92
52.81
41.17
34.26
31.17
30.70
30.95
28.92
20.65
2.47
-27.06
-65.48
-105.83
-138.30
-153.55
-145.95
-115.41
-66.75
-7.46
55.00
114.33
165.01
201.85
220.36
218.82
200.33
172.90
146.43
127.93
117.71
109.69
95.84
71.96
41.13
12.40
-4.62
-5.49
6.58
23.13
35.78
41.14
41.82
43.57
50.60
62.68
75.53
83.88
84.90
79.44
70.44
59.87
46.85
28.04
0.02
-37.56
-80.11
-118.54
-142.11
-142.56
-117.84
-73.58
-21.75
23.34
50.09
53.66
37.10
9.13
-20.20
-43.92
-60.42
-72.70
-85.97
-104.98
-132.50
-169.09
-213.27
-261.30
-307.31
-344.09
-364.66
-364.68
-343.99
-306.85
-260.42
-212.34
-168.49
-131.97
-103.22
-80.92
-63.00
-47.10
-30.89
-12.27
10.26
37.28
68.50
103.31
141.14
181.34
222.58
262.09
295.53
317.95
325.44
316.64
293.16
258.29
215.09
165.31
109.97
51.47
-4.27
-47.44
-67.24
-56.62
-16.75
41.80
102.01
146.48
163.67
151.03
113.99
61.73
2.85
-56.77
-113.13
-161.85
-197.09
-212.73
-205.67
-178.62
-140.56
-103.90
-79.60
-72.94
-82.03
-99.63
-116.79
-126.86
-127.51
-120.72
-110.74
-101.65
-95.49
-91.71
-87.96
-81.65
-71.50
-58.07
-43.60
-30.94
-22.55
-19.86
-23.37
-32.99
-47.88
-66.03
-83.75
-96.05
-98.06
-87.29
-65.50
-38.78
-15.34
-1.80
0.02
-5.79
-11.13
-7.63
9.93
41.85
84.02
129.78
172.17
205.63
227.20
236.78
236.71
230.52
220.99
208.49
190.54
163.06
123.27
72.80
18.66
-28.56
-58.16
-63.26
-42.92
-2.08
50.03
102.23
143.56
165.46
163.53
138.63
96.60
46.52
-2.02
-41.47
-67.60
-79.34
-77.60
-64.44
-42.83
-17.28
6.23
21.18
22.49
8.31
-19.18
-54.43
-90.04
-118.95
-136.49
-141.64
-137.62
-130.92
-128.86
-136.24
-152.62
-171.88
-184.87
-184.01
-167.41
-140.13
-111.51
-90.21
-79.68
-76.95
-75.06
-67.53
-51.86
-29.98
-5.97
16.86
37.49
56.35
73.23
85.95
91.24
87.27
76.19
64.69
62.00
76.02
109.48
158.05
210.96
254.23
274.93
265.37
225.70
163.74
92.09
23.44
-33.57
-76.53
-108.23
-133.57
-156.01
-175.98
-191.34
-199.32
-198.61
-189.97
-175.51
-157.41
-137.12
-115.32
-92.70
-70.59
-51.05
-36.35
-28.23
-27.36
-32.81
-41.97
-50.93
-55.39
-51.77
-38.46
-16.19
12.71
45.76
81.91
121.48
164.60
208.84
248.35
275.44
284.13
273.37
247.57
214.35
180.69
150.26
123.34
98.85
76.62
58.18
45.69
39.81
38.72
38.51
34.93
24.99
7.37
-18.08
-50.98
-90.37
-134.39
-179.95
-223.38
-261.22
-290.87
-310.74
-319.77
-317.02
-301.69
-273.75
-234.54
-187.33
-136.91
-88.57
-46.76
-13.74
10.75
28.87
43.32
56.06
67.68
77.89
86.40
93.67
100.98
109.68
120.44
133.00
146.79
161.72
178.71
198.96
222.23
245.68
264.00
271.57
265.24
245.80
217.13
183.26
145.55
102.27
51.13
-6.79
-64.72
-111.46
-136.19
-134.08
-109.17
-72.53
-36.93
-10.93
4.14
12.84
21.60
34.64
52.16
71.24
88.21
100.80
109.09
114.88
120.36
127.15
135.44
143.80
149.56
149.61
140.99
121.77
91.54
51.96
7.24
-35.76
-68.05
-80.56
-67.39
-29.11
25.86
82.92
126.06
143.57
131.90
95.77
44.84
-11.00
-65.10
-114.76
-159.96
-201.07
-237.36
-267.10
-288.52
-300.93
-305.43
-304.19
-299.24
-291.34
-279.44
-261.09
-234.18
-198.60
-157.11
-114.44
-74.83
-39.52
-5.92
30.29
71.59
115.50
154.59
179.91
185.51
171.34
142.76
107.17
70.20
34.14
-1.00
-34.91
-65.14
-87.84
-99.92
-101.52
-96.20
-88.90
-82.96
-78.19
-71.18
-57.73
-35.76
-6.99
23.44
48.95
64.28
67.63
60.91
48.63
35.95
26.54
21.75
20.76
21.67
22.66
22.83
22.49
22.84
25.48
31.65
41.68
54.45
67.74
78.75
85.11
85.64
80.60
71.50
60.49
50.36
43.97
43.99
51.98
67.16
85.66
101.05
106.47
97.72
75.50
45.32
15.27
-7.54
-19.71
-22.04
-17.88
-10.51
-1.31
10.23
25.24
43.99
65.45
88.01
110.45
132.20
152.59
169.81
180.46
180.57
167.45
141.28
105.21
64.56
24.62
-11.04
-41.21
-66.62
-89.10
-110.64
-132.92
-156.64
-181.03
-203.78
-221.65
-232.04
-234.47
-231.19
-226.13
-222.42
-220.41
-217.23
-208.68
-192.09
-168.51
-142.46
-119.20
-101.80
-89.86
-80.83
-72.39
-64.27
-58.07
-55.44
-56.35
-58.55
-58.97
-55.59
-48.46
-39.13
-28.63
-15.98
1.99
29.17
67.96
117.43
172.84
226.70
270.52
297.04
301.69
283.72
246.28
196.23
143.16
97.97
70.46
66.23
84.36
117.01
151.68
175.53
179.94
163.00
129.13
85.97
40.75
-1.97
-40.46
-74.35
-103.27
-126.91
-146.25
-164.63
-187.34
-219.15
-261.05
-308.17
-350.49
-376.40
-377.52
-352.33
-306.48
-249.88
-192.46
-140.85
-97.65
-63.02
-36.83
-19.44
-10.79
-8.85
-9.16
-6.92
-0.01
9.15
14.89
12.03
-0.55
-18.87
-36.53
-49.07
-56.86
-64.38
-76.11
-92.31
-107.61
-113.65
-104.17
-79.15
-45.25
-12.48
10.64
20.60
19.23
11.47
2.27
-5.32
-10.40
-13.13
-13.36
-9.78
-0.54
15.37
36.70
59.81
79.84
92.97
98.47
99.40
101.35
110.04
128.99
158.46
195.92
237.50
279.31
317.81
349.68
371.50
379.86
372.49
349.12
311.91
264.90
212.88
160.55
111.75
68.75
31.39
-3.20
-39.76
-82.51
-132.10
-183.57
-226.92
-251.06
-248.98
-221.94
-179.67
-136.62
-106.05
-95.51
-105.82
-133.10
-171.97
-217.15
-263.32
-303.90
-331.43
-339.31
-324.71
-290.45
-244.26
-195.62
-151.84
-115.49
-84.67
-55.48
-24.96
7.20
38.70
66.16
86.59
98.29
100.68
94.23
80.21
60.69
38.94
18.90
4.07
-4.15
-7.25
-9.34
-15.20
-28.07
-47.96
-71.58
-93.95
-110.42
-118.62
-118.82
-113.18
-104.42
-94.73
-85.42
-77.17
-70.48
-65.77
-63.26
-62.50
-62.19
-60.44
-54.92
-43.35
-23.93
3.64
37.63
74.09
107.95
134.86
153.03
163.99
171.56
179.67
190.24
202.49
213.81
221.52
224.31
222.52
217.34
209.66
199.56
186.59
170.50
151.69
131.11
109.92
89.36
70.79
55.70
45.28
39.81
38.01
37.04
33.11
22.74
4.08
-22.15
-52.50
-81.45
-103.03
-112.71
-109.06
-94.13
-72.68
-50.11
-30.24
-14.01
0.60
17.46
40.68
72.99
114.56
162.47
210.76
251.71
277.85
284.63
272.38
246.45
215.08
186.03
163.36
146.44
131.45
114.36
93.92
72.38
54.00
42.28
37.62
36.84
34.90
27.43
12.88
-6.87
-28.12
-47.56
-63.97
-78.57
-93.79
-111.45
-131.44
-151.69
-169.06
-180.53
-184.06
-178.83
-165.26
-144.97
-120.63
-95.44
-72.11
-51.44
-31.88
-10.05
17.39
51.49
89.88
127.21
157.16
174.72
177.86
167.66
147.31
120.78
91.81
63.63
39.02
20.41
9.79
8.34
15.93
30.80
49.73
68.55
83.30
91.58
93.38
91.14
88.41
88.07
90.67
94.02
94.03
86.42
68.04
37.51
-4.92
-57.29
-115.51
-173.00
-221.03
-250.32
-253.63
-228.33
-177.97
-111.83
-42.76
16.04
54.18
66.22
52.41
17.99
-28.64
-78.45
-123.72
-159.17
-181.99
-191.26
-187.25
-171.30
-146.13
-115.81
-85.14
-58.17
-36.58
-18.94
-1.27
21.19
51.66
89.99
132.11
171.01
198.91
209.73
200.90
174.01
133.99
87.50
41.01
-0.86
-36.25
-65.95
-92.20
-116.68
-138.93
-155.85
-163.24
-158.14
-140.99
-115.88
-88.60
-63.62
-41.90
-20.97
2.69
30.34
59.33
83.83
97.92
98.76
87.95
70.51
52.13
36.67
25.18
16.73
10.17
5.42
3.46
5.01
9.40
14.14
15.85
11.92
1.64
-13.59
-31.35
-49.65
-67.93
-86.68
-106.51
-126.66
-144.25
-154.69
-153.12
-136.69
-106.16
-66.44
-25.29
9.05
30.46
36.46
28.16
8.92
-17.37
-47.24
-77.62
-105.02
-125.20
-133.66
-127.18
-105.54
-72.11
-33.12
4.77
36.91
62.09
82.28
100.73
119.54
138.19
153.62
161.68
159.15
145.15
121.39
91.35
59.06
28.13
1.34
-19.37
-32.84
-38.85
-38.19
-32.54
-24.05
-14.87
-6.69
-0.65
2.86
4.26
4.96
7.08
12.71
23.02
37.48
53.87
69.41
82.20
92.31
101.90
113.91
130.49
151.68
175.40
198.48
217.74
230.94
236.67
233.79
221.06
197.16
161.28
113.68
56.29
-7.01
-70.57
-127.74
-172.26
-200.03
-210.52
-206.99
-195.36
-181.86
-170.98
-164.10
-159.94
-156.01
-150.30
-142.34
-133.02
-123.77
-115.34
-107.01
-96.52
-80.94
-58.17
-28.68
3.29
30.33
44.01
38.31
12.39
-28.72
-75.90
-119.42
-152.22
-171.44
-177.56
-172.64
-158.26
-134.90
-102.64
-62.09
-14.87
36.89
91.23
146.46
200.44
249.63
289.06
313.49
319.55
307.49
281.17
246.35
207.93
167.77
124.40
74.82
17.81
-43.42
-101.09
-145.63
-170.02
-173.23
-160.92
-142.99
-129.64
-127.88
-139.88
-163.79
-195.29
-229.07
-259.46
-280.63
-287.33
-276.09
-246.57
-201.88
-147.79
-90.69
-35.91
12.88
53.38
83.87
103.06
110.43
106.90
95.39
80.71
68.52
63.68
68.61
82.15
99.91
115.86
124.48
122.60
109.72
86.75
54.29
12.00
-40.26
-100.19
-161.32
-213.57
-246.28
-252.41
-231.42
-189.43
-136.17
-80.97
-29.53
16.54
58.05
95.65
128.35
153.84
170.16
177.25
177.22
173.24
167.84
161.72
153.76
141.89
124.70
102.31
76.66
50.98
28.92
13.70
7.43
10.72
22.48
40.19
60.72
81.52
101.72
122.68
147.00
176.90
212.17
248.92
280.31
298.49
297.20
273.65
229.47
170.60
106.44
48.37
7.59
-7.60
5.51
42.56
92.82
142.38
178.69
194.47
189.31
168.21
138.32
105.57
73.05
41.43
10.59
-18.87
-45.25
-66.74
-82.61
-94.19
-104.94
-119.03
-139.92
-169.31
-206.97
-251.23
-299.32
-347.50
-390.94
-424.06
-441.20
-438.12
-413.36
-368.96
-310.32
-244.81
-179.85
-121.03
-71.46
-32.09
-3.32
13.54
16.12
2.70
-24.98
-60.19
-92.39
-111.36
-112.13
-97.92
-78.33
-63.95
-60.37
-64.98
-68.83
-61.73
-37.50
3.74
56.59
113.62
167.96
214.17
247.94
265.56
264.27
243.44
205.33
154.92
98.98
44.66
-1.98
-36.85
-58.60
-68.82
-71.84
-73.38
-78.37
-88.58
-101.37
-110.39
-107.85
-87.61
-47.65
8.77
73.69
136.34
185.63
212.61
212.15
184.05
133.08
68.26
1.00
-57.53
-99.44
-122.14
-128.65
-125.89
-121.64
-121.66
-127.87
-138.30
-148.31
-152.20
-144.64
-121.85
-82.78
-30.25
28.50
82.76
120.96
134.19
118.95
77.99
18.89
-48.68
-115.72
-175.43
-223.61
-258.06
-277.88
-282.99
-273.76
-251.14
-217.04
-174.51
-127.46
-80.10
-36.36
0.45
27.59
42.99
45.83
37.52
22.55
8.35
3.63
15.61
47.33
96.08
153.98
210.46
255.10
280.15
281.76
260.22
219.57
166.75
109.93
56.40
10.60
-26.39
-55.78
-79.31
-97.41
-108.62
-110.47
-100.96
-79.55
-47.01
-4.93
44.52
97.78
148.94
189.80
211.97
210.48
186.77
149.16
109.98
80.65
67.13
68.08
76.22
81.98
77.54
59.51
29.48
-7.49
-45.34
-79.28
-106.83
-127.47
-141.12
-146.64
-142.02
-125.70
-98.50
-64.68
-31.00
-4.40
10.27
10.89
-2.83
-30.86
-73.06
-127.77
-189.87
-250.26
-297.82
-323.39
-323.28
-300.64
-263.64
-221.62
-181.62
-146.82
-117.12
-91.10
-67.36
-44.71
-21.53
4.94
37.90
79.09
126.73
174.85
214.79
238.29
241.03
224.41
194.90
161.29
131.31
109.29
95.89
89.34
87.16
87.31
88.29
88.80
87.66
84.13
78.50
72.38
68.08
67.82
72.64
81.91
93.53
104.83
113.59
118.89
121.43
123.04
125.88
131.45
139.90
150.04
160.02
168.35
174.81
180.76
188.42
199.84
215.94
236.03
258.02
279.00
295.85
305.68
306.25
296.44
276.72
249.44
218.32
187.40
159.51
135.22
112.79
89.13
61.50
28.89
-7.54
-45.09
-80.76
-112.72
-141.04
-167.69
-195.98
-229.63
-271.58
-322.47
-379.58
-436.29
-483.11
-510.06
-510.00
-481.62
-430.65
-368.31
-307.52
-258.31
-224.52
-203.39
-187.71
-169.74
-144.58
-111.65
-74.01
-36.12
-1.60
28.02
53.02
74.20
91.45
103.53
108.89
107.21
100.51
92.81
88.75
91.37
100.66
113.62
125.68
132.98
133.96
129.64
123.00
117.65
116.97
123.29
137.24
157.06
178.32
194.47
198.92
187.55
160.42
121.70
77.54
33.07
-9.96
-53.02
-98.70
-147.88
-198.05
-244.07
-280.29
-302.95
-311.08
-305.72
-288.58
-260.95
-223.71
-178.04
-126.31
-72.19
-20.17
25.41
60.90
83.50
91.07
82.42
57.92
20.27
-25.07
-70.83
-109.36
-134.33
-141.98
-131.69
-105.70
-68.27
-24.94
18.57
57.06
86.45
104.48
110.97
107.95
99.04
88.36
79.22
73.09
69.16
64.94
57.49
44.78
26.75
5.69
-14.24
-28.02
-31.01
-20.24
4.20
38.42
75.16
105.77
123.19
124.48
111.53
89.61
64.34
38.98
13.63
-13.51
-43.63
-75.65
-106.27
-131.86
-150.51
-162.84
-170.97
-176.55
-179.21
-176.76
-166.94
-149.52
-127.16
-104.51
-85.97
-73.43
-65.00
-55.87
-40.49
-14.93
21.92
68.58
122.07
178.75
234.39
283.86
321.09
340.34
337.96
314.05
272.65
220.01
161.97
101.80
40.08
-23.46
-87.31
-146.74
-194.60
-224.05
-231.50
-218.12
-189.13
-151.50
-111.38
-72.59
-36.49
-3.15
27.22
53.51
74.10
87.68
94.29
95.60
94.48
94.04
96.93
104.65
117.14
132.85
148.80
160.91
165.07
158.56
141.55
117.54
92.03
69.57
51.14
33.55
11.69
-17.34
-51.20
-82.18
-100.98
-102.09
-87.56
-66.75
-52.04
-52.71
-70.51
-99.33
-128.87
-150.28
-160.13
-160.64
-156.51
-150.88
-142.90
-129.17
-107.29
-79.02
-50.07
-27.18
-14.03
-9.25
-8.18
-6.99
-6.11
-10.23
-24.85
-51.82
-87.24
-123.23
-152.27
-170.85
-180.15
-183.84
-184.52
-181.81
-172.99
-155.46
-129.29
-97.83
-66.28
-38.97
-17.15
1.60
22.07
49.29
86.60
134.31
189.45
245.97
295.65
329.56
339.90
322.31
277.94
214.41
144.56
82.92
41.21
24.95
33.09
59.86
97.72
139.48
178.46
207.43
218.15
203.08
159.12
91.64
15.47
-48.42
-80.73
-71.88
-26.54
37.76
97.50
132.06
130.97
96.19
39.59
-22.34
-74.31
-105.66
-111.69
-93.20
-55.78
-8.95
35.21
64.33
69.31
47.46
4.45
-46.84
-90.46
-112.83
-107.53
-77.33
-32.46
13.57
49.04
67.28
67.48
53.25
29.82
1.91
-27.57
-57.70
-89.18
-123.51
-161.83
-203.43
-244.84
-280.20
-303.02
-308.79
-296.97
-271.10
-237.06
-200.42
-164.51
-130.25
-97.47
-66.55
-38.98
-16.67
-0.60
10.03
17.45
24.22
31.99
41.00
50.66
60.18
69.50
79.40
91.01
105.20
121.84
139.69
156.58
170.17
178.86
182.55
182.72
181.88
182.33
184.94
188.36
189.07
182.33
163.42
129.30
79.94
18.89
-46.95
-108.66
-157.22
-185.47
-189.25
-167.72
-123.16
-60.95
10.61
81.12
139.90
178.51
193.01
184.68
158.56
121.00
77.60
32.55
-10.65
-48.43
-77.75
-97.94
-112.13
-127.01
-149.91
-185.02
-230.87
-280.74
-326.03
-359.92
-379.62
-386.00
-381.55
-368.29
-346.81
-317.10
-279.65
-236.36
-190.16
-144.20
-100.65
-59.78
-19.99
21.45
66.95
116.92
168.51
216.16
253.84
277.99
289.29
292.02
291.36
290.19
288.04
282.56
272.60
260.24
250.04
245.63
246.42
246.68
238.26
215.29
177.77
131.89
86.83
50.22
25.03
9.26
-1.78
-12.53
-25.06
-38.68
-50.91
-59.22
-62.20
-60.04
-54.38
-47.57
-41.97
-39.25
-40.12
-44.40
-51.26
-59.55
-67.90
-74.89
-79.21
-79.89
-76.58
-70.00
-61.85
-54.35
-49.58
-48.60
-51.19
-56.03
-61.36
-65.77
-68.72
-70.41
-71.17
-70.88
-68.41
-62.00
-49.96
-31.67
-8.22
18.01
44.51
69.83
94.05
118.25
143.14
168.13
191.39
210.96
225.86
236.38
243.06
245.08
239.33
221.36
187.93
139.66
82.03
23.61
-27.57
-67.31
-96.60
-120.22
-143.76
-171.06
-203.39
-240.46
-281.86
-327.32
-375.40
-421.95
-459.61
-479.53
-474.79
-443.46
-389.52
-321.10
-247.27
-175.29
-109.43
-51.40
-1.44
40.83
76.42
107.08
134.98
161.77
187.54
210.36
227.03
234.67
231.74
218.78
197.94
172.06
144.13
117.00
93.33
75.44
64.80
61.37
63.59
68.84
74.47
78.77
81.17
81.74
80.10
74.76
63.23
43.19
14.16
-21.46
-58.45
-90.20
-110.90
-117.52
-110.76
-94.73
-75.26
-57.87
-46.06
-40.60
-40.15
-42.34
-45.14
-47.57
-49.74
-52.21
-55.21
-57.98
-58.57
-54.31
-42.89
-23.52
2.32
31.08
58.40
80.62
95.88
104.25
107.01
105.58
100.75
92.84
82.25
70.08
58.17
48.49
42.22
39.18
37.75
35.53
30.39
21.34
8.99
-4.66
-17.11
-26.39
-31.94
-34.73
-36.60
-39.12
-42.76
-46.67
-49.34
-49.69
-47.65
-44.37
-41.52
-40.45
-41.57
-44.43
-48.01
-51.17
-52.94
-52.43
-49.04
-42.71
-34.39
-26.14
-20.76
-20.60
-26.28
-36.14
-46.65
-54.09
-56.31
-53.66
-48.63
-44.35
-42.87
-44.18
-46.67
-48.20
-47.59
-45.38
-43.59
-44.54
-49.59
-58.07
-67.15
-72.66
-70.26
-56.54
-29.69
10.15
60.45
116.01
168.92
209.57
228.55
219.46
181.24
119.14
43.61
-32.46
-97.25
-142.78
-166.01
-168.35
-153.61
-126.14
-89.32
-45.33
4.06
56.20
106.72
150.00
180.76
196.58
199.32
194.70
189.94
190.30
196.70
205.37
209.97
204.71
187.14
158.81
124.34
89.47
59.02
35.77
20.16
10.46
3.23
-5.95
-21.33
-45.36
-77.08
-111.41
-140.35
-156.36
-156.30
-143.90
-128.50
-120.61
-126.39
-143.77
-162.83
-170.27
-155.39
-115.04
-54.89
13.08
75.07
119.72
140.52
136.18
110.16
69.64
24.46
-14.39
-36.90
-36.43
-11.58
33.35
89.36
145.37
191.36
220.71
230.96
222.81
198.59
161.04
113.54
60.67
8.68
-35.51
-66.16
-80.57
-79.81
-68.02
-50.84
-33.95
-22.18
-18.95
-25.95
-42.56
-65.82
-91.09
-113.37
-128.91
-135.79
-133.84
-123.70
-106.01
-81.33
-50.59
-15.77
20.05
53.02
79.62
97.41
105.60
105.15
98.23
87.48
75.12
62.52
50.32
39.13
30.13
25.08
25.59
32.06
42.85
54.50
62.87
64.63
58.64
46.00
29.18
10.66
-8.40
-28.46
-50.77
-75.90
-102.45
-126.76
-143.98
-150.20
-144.07
-127.54
-104.82
-80.51
-57.99
-38.99
-24.50
-15.79
-14.26
-20.14
-31.11
-42.34
-48.73
-47.91
-42.26
-37.96
-41.32
-54.63
-73.97
-90.89
-96.72
-87.06
-63.81
-33.65
-4.38
18.68
34.07
43.46
49.45
53.82
56.70
56.83
52.52
42.70
27.63
8.89
-11.03
-29.42
-44.23
-54.51
-60.46
-62.91
-62.61
-59.82
-54.49
-46.68
-37.04
-26.68
-16.35
-5.68
7.04
23.89
45.61
69.93
91.35
102.63
97.11
70.95
24.22
-39.04
-111.70
-184.63
-248.03
-293.14
-314.10
-309.52
-282.73
-240.63
-191.23
-141.25
-94.78
-53.33
-16.98
14.53
41.51
64.46
84.38
102.44
119.25
134.26
145.94
152.56
153.11
147.93
138.67
127.68
117.34
109.63
105.98
107.32
113.88
125.19
139.82
155.59
170.15
181.72
189.54
193.79
195.13
194.07
190.98
186.47
181.92
179.64
181.92
189.48
200.24
209.59
212.14
204.16
185.07
157.16
124.22
89.91
57.27
29.02
8.14
-2.58
-1.94
8.14
22.42
33.83
36.11
26.04
3.61
-29.44
-71.28
-120.40
-174.23
-227.13
-269.87
-292.10
-286.64
-254.07
-203.85
-151.32
-111.40
-92.30
-92.74
-103.63
-112.98
-111.07
-93.31
-60.27
-15.97
33.96
83.13
124.58
151.28
157.24
139.18
97.99
39.10
-28.35
-93.16
-144.14
-172.13
-171.72
-142.32
-88.17
-17.50
59.10
130.66
187.72
223.81
236.31
226.72
199.85
162.22
120.26
78.77
40.41
6.38
-22.84
-47.10
-66.96
-84.49
-103.74
-130.14
-168.46
-220.25
-281.80
-344.12
-395.15
-424.00
-425.11
-400.31
-357.79
-308.37
-261.06
-220.08
-184.86
-151.97
-117.88
-80.42
-38.80
6.94
55.62
103.68
144.53
169.90
173.89
157.21
128.62
101.85
88.97
94.25
112.22
131.32
140.43
134.55
116.11
92.08
69.40
52.08
41.31
37.60
42.19
56.34
78.67
103.66
121.84
123.63
103.84
64.95
16.99
-26.26
-53.03
-58.95
-48.50
-32.85
-23.79
-27.47
-40.97
-53.65
-52.48
-28.54
18.20
79.64
142.24
192.85
223.40
232.59
224.55
205.75
181.89
155.66
129.61
104.56
81.50
61.93
47.15
36.96
28.65
17.14
-5.33
-40.63
-88.39
-142.93
-194.46
-232.35
-248.89
-242.01
-215.49
-179.79
-138.69
-96.22
-52.71
-6.95
40.66
86.09
122.29
141.96
137.05
113.01
75.56
32.03
-11.75
-53.67
-95.52
-140.52
-163.81
-193.49
-216.22
-221.98
-204.67
-166.33
-117.53
-73.34
-46.54
-41.71
-57.50
-77.23
-87.81
-81.47
-58.34
-25.22
8.27
33.50
45.05
37.35
13.26
-26.66
-80.61
-145.00
-213.59
-278.01
-328.99
-358.89
-366.00
-349.76
-316.23
-273.74
-229.82
-189.13
-152.86
-119.74
-87.61
-55.83
-22.76
11.29
45.47
78.84
110.62
140.74
170.26
201.07
234.57
271.18
308.00
338.93
356.18
352.78
325.02
273.34
201.74
116.31
24.09
-67.23
-149.12
-212.75
-250.72
-259.60
-241.51
-203.94
-156.95
-109.69
-67.50
-31.32
1.10
33.02
66.89
103.45
141.62
178.86
211.65
236.29
250.03
252.12
244.19
229.59
212.13
194.57
177.90
161.38
143.64
123.83
102.41
81.39
63.82
52.69
49.76
54.60
64.32
74.38
80.23
79.11
71.03
58.69
46.18
37.48
35.59
42.21
58.11
82.79
113.87
146.35
173.08
187.12
185.32
171.24
154.77
148.21
160.20
190.74
230.48
264.76
280.30
270.94
239.47
194.81
146.98
102.60
63.41
27.59
-7.11
-41.31
-73.65
-102.02
-125.43
-145.14
-164.64
-188.15
-218.50
-255.28
-294.29
-329.18
-354.04
-366.04
-366.33
-358.66
-346.40
-329.87
-306.33
-272.58
-228.71
-179.94
-135.13
-102.39
-84.47
-77.24
-72.19
-61.63
-42.99
-19.71
1.83
16.57
23.96
27.54
31.76
38.46
45.51
48.32
43.11
29.68
11.91
-4.13
-13.07
-12.77
-5.02
5.76
14.82
19.13
18.35
14.37
9.91
6.87
5.45
4.35
1.85
-2.87
-9.13
-14.80
-17.43
-15.34
-8.42
1.89
13.11
22.62
28.33
28.98
24.40
15.40
3.67
-8.57
-19.16
-26.53
-30.20
-30.73
-29.35
-27.34
-25.69
-25.10
-26.29
-30.17
-37.78
-49.76
-65.68
-83.90
-101.94
-117.22
-127.90
-133.23
-133.38
-128.93
-120.48
-108.41
-93.08
-75.16
-55.74
-36.07
-17.19
0.64
18.16
36.69
57.39
80.22
103.70
125.28
142.47
153.78
158.90
158.15
151.47
137.98
116.43
86.51
50.10
11.65
-22.68
-46.95
-57.09
-51.91
-32.90
-3.66
30.80
64.68
92.06
108.11
110.35
99.62
79.92
57.27
37.53
24.60
19.56
20.85
25.78
31.97
38.35
44.89
51.38
56.10
55.27
44.42
20.88
-13.58
-52.19
-85.28
-104.33
-105.84
-92.44
-70.78
-47.28
-24.64
-1.05
27.09
61.44
99.10
133.18
156.14
163.62
156.48
139.77
119.53
99.32
78.89
55.41
26.23
-8.53
-45.34
-78.87
-104.68
-121.21
-129.84
-132.81
-130.87
-122.23
-103.80
-73.83
-34.07
10.21
52.35
87.05
112.16
128.18
136.49
137.88
132.26
120.15
103.89
87.94
77.29
75.27
82.06
95.12
110.91
126.46
140.06
150.31
154.97
150.50
133.17
100.86
54.85
0.20
-55.54
-104.12
-138.37
-152.92
-144.50
-112.51
-60.23
4.35
69.16
120.79
148.67
148.38
122.64
79.60
29.55
-17.93
-55.31
-77.14
-79.86
-62.53
-28.18
15.70
58.38
89.16
100.93
92.38
67.38
32.12
-8.11
-51.21
-98.14
-150.70
-208.81
-268.58
-322.48
-361.60
-379.01
-372.39
-344.62
-301.93
-251.12
-197.33
-143.30
-90.40
-40.19
4.74
41.42
67.73
83.61
91.26
94.33
96.47
100.01
105.26
110.23
111.60
106.36
93.96
77.87
65.53
65.71
84.25
120.35
165.41
205.86
228.29
224.73
194.88
144.67
82.77
17.26
-45.34
-99.67
-141.26
-167.88
-181.53
-189.24
-200.77
-223.70
-258.58
-297.50
-327.54
-337.09
-321.50
-284.68
-236.15
-185.69
-139.02
-96.89
-56.97
-16.83
24.37
66.03
106.96
146.23
183.17
216.80
245.40
266.93
279.62
282.74
277.06
264.64
248.23
230.73
214.57
201.38
191.68
184.81
179.03
171.84
160.55
142.85
117.30
83.62
42.74
-3.13
-51.00
-97.57
-140.10
-176.97
-207.88
-233.73
-256.01
-276.04
-294.24
-309.70
-320.12
-322.53
-314.44
-295.07
-266.04
-231.13
-194.86
-160.72
-129.85
-100.72
-70.10
-34.77
6.53
51.98
96.61
133.80
157.55
164.86
157.10
139.62
119.64
103.52
94.86
94.18
100.11
110.95
125.29
141.37
155.82
163.12
156.69
131.36
85.93
24.29
-45.50
-113.53
-170.78
-211.04
-231.66
-233.14
-218.35
-191.45
-156.90
-118.62
-79.45
-40.88
-3.37
33.26
69.15
104.03
136.91
166.11
189.49
205.06
211.78
210.33
203.47
195.49
190.93
192.82
201.45
214.19
226.41
233.02
230.04
215.59
190.02
155.40
114.90
72.00
29.80
-9.45
-45.05
-78.15
-111.76
-149.74
-195.10
-247.85
-303.78
-354.95
-392.04
-407.75
-399.66
-371.00
-329.09
-282.13
-236.12
-193.44
-153.35
-113.67
-72.57
-29.43
15.02
59.12
100.84
138.19
169.55
193.88
210.72
219.77
220.77
213.64
199.31
180.52
161.92
149.23
147.41
158.73
181.55
210.57
238.38
257.62
263.18
253.34
229.98
197.66
161.90
127.31
96.33
68.78
42.29
13.47
-20.97
-62.70
-110.62
-160.16
-203.83
-233.34
-242.78
-231.43
-204.69
-172.46
-145.58
-131.96
-133.99
-148.26
-167.31
-182.47
-186.67
-176.32
-152.08
-118.15
-80.51
-44.45
-12.68
15.44
43.14
74.30
111.73
156.03
205.22
255.03
299.41
331.09
342.94
330.13
292.47
235.91
171.48
111.77
66.21
37.66
22.26
12.28
0.35
-17.49
-41.44
-70.13
-103.20
-142.24
-189.30
-244.06
-301.97
-354.92
-394.24
-414.29
-414.40
-398.01
-369.49
-331.70
-284.90
-228.44
-164.08
-98.25
-41.40
-4.36
6.56
-7.28
-37.57
-72.86
-103.54
-124.91
-137.12
-142.43
-142.00
-134.64
-117.83
-90.16
-53.08
-10.85
31.18
68.75
100.10
126.04
148.97
171.49
195.19
220.19
244.94
266.92
284.00
295.07
300.38
301.03
298.24
292.82
285.33
276.48
267.45
259.60
253.49
248.28
241.64
230.75
213.35
188.84
158.36
124.12
88.42
52.56
16.27
-22.30
-65.70
-115.55
-170.61
-225.66
-272.28
-301.38
-306.84
-288.02
-249.95
-200.94
-149.18
-100.22
-56.72
-20.04
8.08
25.24
29.87
23.19
10.03
-2.51
-7.93
-3.12
10.63
28.74
45.51
56.56
60.00
56.23
47.08
34.68
20.89
7.05
-5.85
-17.06
-25.87
-31.96
-35.52
-37.36
-38.62
-39.95
-40.61
-38.18
-29.47
-12.21
12.89
41.11
64.69
75.25
66.81
37.78
-8.80
-66.65
-128.31
-186.80
-236.62
-273.84
-296.29
-303.63
-297.30
-280.31
-256.06
-227.10
-193.96
-155.52
-110.73
-60.87
-11.17
29.34
50.16
43.04
5.75
-56.05
-129.78
-199.65
-251.73
-277.86
-277.23
-255.21
-220.27
-180.89
-143.33
-111.02
-84.93
-64.43
-47.76
-32.39
-15.23
7.28
38.25
79.22
129.08
183.67
236.46
280.02
308.49
319.48
314.84
300.01
281.85
266.19
256.02
250.99
248.47
245.33
239.69
231.71
223.26
216.73
213.61
213.72
215.27
215.90
213.89
209.17
203.44
199.59
200.45
207.89
222.22
241.66
262.68
280.49
290.18
288.08
273.20
248.04
218.07
190.00
169.15
157.48
152.95
151.02
147.03
138.64
126.66
113.99
103.66
96.90
92.57
88.22
81.83
73.25
64.13
56.63
51.38
46.48
37.72
20.42
-8.44
-48.66
-96.40
-145.78
-190.94
-228.32
-257.76
-282.10
-305.62
-332.37
-365.05
-404.45
-449.22
-495.74
-538.02
-568.12
-577.75
-561.12
-518.21
-456.35
-388.87
-330.48
-291.65
-274.39
-271.99
-272.62
-264.87
-242.20
-204.34
-155.51
-101.00
-44.63
11.70
66.65
117.88
161.41
193.31
212.21
220.89
225.90
234.61
251.37
274.54
296.51
307.20
299.34
272.47
233.51
193.54
162.54
145.08
139.11
138.23
135.61
127.18
112.58
93.70
72.47
49.28
22.71
-9.60
-49.83
-98.60
-153.85
-210.20
-259.55
-293.43
-306.46
-299.42
-279.70
-258.71
-247.06
-250.01
-265.94
-288.16
-309.05
-323.68
-330.95
-331.92
-327.17
-315.11
-292.58
-257.18
-209.30
-152.86
-93.85
-38.24
10.03
49.72
81.73
108.09
131.04
152.46
173.53
194.43
214.00
229.73
238.51
237.84
227.32
209.48
189.33
172.51
163.13
162.02
166.69
172.67
175.64
173.14
164.99
152.58
137.55
121.01
103.39
84.93
66.40
49.25
35.29
26.05
22.27
23.77
29.45
37.58
45.89
51.96
53.64
49.64
39.93
25.81
9.51
-6.37
-19.54
-28.41
-32.28
-31.43
-26.76
-19.59
-11.24
-2.84
4.74
10.83
14.61
15.26
12.12
5.25
-4.26
-14.40
-22.91
-28.31
-30.43
-30.54
-30.51
-31.86
-35.02
-39.18
-42.90
-44.86
-44.61
-42.65
-40.16
-38.24
-37.43
-37.51
-37.78
-37.63
-36.98
-36.40
-36.64
-38.06
-40.13
-41.50
-40.63
-36.65
-29.87
-21.82
-14.45
-9.17
-6.29
-4.87
-3.41
-0.73
3.42
8.29
12.58
15.15
15.61
14.41
12.67
11.59
12.00
14.13
17.46
21.01
23.59
24.19
22.28
18.14
12.83
7.79
4.33
3.03
3.52
4.75
5.62
5.70
5.50
6.06
8.21
11.86
15.69
17.65
15.89
9.81
0.53
-9.29
-16.44
-18.37
-14.24
-5.22
5.96
15.99
22.13
23.12
19.43
13.29
8.30
8.83
19.00
41.25
74.90
115.37
154.84
184.40
196.96
189.61
164.23
126.01
80.71
32.08
-19.20
-74.36
-133.97
-195.53
-252.89
-297.83
-323.28
-326.13
-308.18
-274.95
-232.94
-187.25
-140.59
-94.20
-49.46
-8.94
23.79
45.64
55.48
54.69
46.58
35.43
25.64
21.46
26.63
43.74
73.01
111.49
153.14
190.06
214.84
222.51
211.38
182.55
138.80
83.90
22.72
-38.20
-91.04
-128.20
-144.62
-139.75
-117.52
-84.27
-45.50
-3.59
41.95
91.96
144.30
192.29
225.82
235.29
216.13
171.66
112.95
55.71
15.50
3.04
21.00
63.63
118.91
172.49
211.93
229.97
225.48
202.43
167.28
126.50
84.85
45.25
9.36
-22.07
-49.25
-73.82
-98.87
-128.03
-163.50
-204.30
-245.43
-279.26
-298.43
-299.10
-282.99
-256.78
-229.14
-206.94
-192.62
-184.02
-176.52
-166.16
-151.64
-134.46
-117.21
-101.67
-87.85
-74.55
-60.79
-46.97
-34.94
-26.68
-22.79
-21.55
-19.54
-13.25
-0.96
16.38
35.58
52.95
66.32
75.84
83.61
92.10
102.73
115.15
127.58
137.50
142.11
138.37
123.10
93.75
50.03
-4.25
-60.72
-108.10
-135.94
-138.61
-117.67
-81.19
-40.29
-4.90
19.39
31.95
35.57
33.91
29.72
24.21
17.81
11.33
6.21
4.04
5.50
9.58
13.82
15.59
13.64
8.86
4.09
2.52
5.89
13.31
21.35
25.35
21.42
7.82
-14.72
-43.80
-76.70
-111.27
-146.03
-179.49
-209.51
-233.04
-246.85
-248.63
-237.87
-216.09
-186.04
-150.56
-111.70
-70.66
-28.44
13.35
52.30
85.59
110.85
126.90
134.07
133.88
128.53
120.42
111.69
103.96
98.05
93.93
90.98
88.61
86.97
86.96
89.79
95.88
103.97
111.32
114.84
112.64
105.11
94.78
84.97
78.30
75.50
75.57
76.65
77.13
76.28
74.14
71.17
67.71
64.08
60.67
58.20
57.54
59.21
62.97
67.57
71.34
72.84
71.66
68.52
64.83
62.00
60.70
60.88
62.15
64.44
68.11
73.60
80.58
87.24
90.51
86.90
73.67
49.55
14.81
-29.09
-79.56
-132.61
-182.37
-221.31
-241.67
-237.84
-208.93
-159.97
-101.00
-44.10
0.28
26.24
33.57
26.70
12.40
-2.85
-14.44
-19.93
-18.26
-8.68
9.76
38.02
76.52
124.50
179.88
239.18
297.59
349.18
387.50
406.88
404.27
380.65
341.24
293.96
246.79
205.17
170.90
142.92
119.05
97.65
78.04
60.04
43.07
25.84
6.98
-14.22
-37.08
-59.82
-80.58
-98.76
-115.81
-135.24
-161.59
-198.70
-247.45
-304.60
-362.89
-413.36
-448.68
-465.86
-467.17
-458.30
-445.04
-430.26
-412.61
-387.78
-351.04
-299.98
-236.32
-166.10
-98.64
-44.81
-14.78
-15.35
-47.53
-105.07
-175.08
-241.37
-288.93
-308.20
-296.87
-259.29
-203.80
-139.66
-75.03
-16.03
33.43
71.52
98.54
116.62
128.99
138.97
148.76
159.09
169.54
179.40
188.27
196.09
202.82
208.18
211.67
212.71
210.89
205.84
197.23
185.13
170.44
155.44
143.48
137.89
140.51
150.64
165.18
179.83
190.69
195.24
192.40
181.97
164.07
139.01
107.69
71.73
33.19
-6.09
-45.04
-83.10
-119.40
-152.01
-177.79
-193.55
-197.71
-191.32
-177.99
-162.36
-147.89
-135.58
-124.02
-110.75
-94.20
-74.89
-55.20
-38.26
-26.42
-20.21
-18.43
-19.01
-20.10
-20.69
-20.70
-20.22
-18.72
-15.14
-8.46
1.20
12.12
21.52
27.02
28.06
26.35
24.93
26.20
30.36
35.06
36.68
32.47
22.19
8.55
-3.92
-10.78
-9.38
0.39
16.37
35.14
53.05
67.25
76.24
80.59
82.94
87.68
99.99
124.13
161.58
209.88
262.81
312.27
351.00
374.80
383.25
378.78
364.74
343.76
317.37
286.71
253.62
221.02
192.20
169.42
152.72
139.84
127.29
111.94
92.31
68.84
43.34
17.81
-6.50
-29.58
-52.66
-77.39
-105.11
-136.32
-170.81
-207.91
-246.65
-285.60
-322.58
-354.75
-379.33
-394.91
-402.50
-405.57
-408.81
-416.08
-428.60
-444.36
-459.20
-468.43
-468.60
-458.17
-437.22
-406.83
-368.38
-323.53
-274.07
-221.85
-168.36
-114.50
-60.60
-6.80
46.21
96.82
142.71
181.62
212.27
234.98
251.39
263.77
274.05
283.23
291.12
296.56
297.83
293.11
281.00
260.79
232.85
198.53
159.80
118.67
76.39
32.78
-13.88
-66.13
-125.57
-191.08
-257.80
-317.80
-362.44
-385.42
-385.08
-364.81
-331.19
-291.22
-249.91
-209.58
-170.69
-133.24
-97.42
-63.12
-29.08
7.13
47.85
93.36
140.58
183.82
216.96
236.05
240.79
233.86
219.06
199.67
178.04
156.14
135.96
118.86
104.38
89.66
70.61
44.75
13.99
-14.97
-33.11
-33.61
-15.31
16.41
52.11
82.19
100.18
103.85
94.33
74.51
47.82
18.11
-10.30
-32.60
-44.06
-40.65
-20.01
17.69
69.09
127.35
183.01
225.91
248.24
247.00
224.82
188.46
145.60
101.42
56.84
9.50
-43.18
-100.43
-156.30
-200.89
-224.11
-220.10
-189.98
-141.54
-85.77
-32.41
13.47
52.15
86.80
119.93
150.74
175.05
187.49
184.77
167.48
139.87
107.95
77.02
50.17
28.19
10.76
-2.44
-11.62
-17.66
-23.03
-31.88
-48.79
-76.72
-115.24
-160.08
-204.13
-239.61
-260.28
-262.83
-247.39
-217.15
-177.16
-133.13
-89.94
-50.42
-14.80
18.87
52.96
88.34
123.16
153.82
176.92
191.39
198.87
202.20
202.99
199.97
189.39
167.53
133.19
88.85
39.52
-10.07
-58.01
-105.93
-157.11
-213.41
-272.71
-328.55
-372.25
-396.27
-397.22
-376.98
-341.63
-298.56
-253.51
-208.85
-163.81
-116.44
-66.09
-14.87
32.40
70.00
93.58
101.93
97.35
84.58
68.88
54.18
42.06
32.20
23.54
15.75
9.76
7.37
10.00
17.36
27.01
35.03
37.75
33.82
25.57
18.73
20.45
36.46
68.49
113.24
163.39
209.93
244.73
262.43
261.01
241.56
207.85
165.98
123.90
90.14
71.65
71.20
85.93
107.67
125.89
131.70
121.58
98.93
72.73
53.86
50.51
64.88
92.30
123.28
147.23
156.03
146.02
118.05
76.15
26.11
-25.50
-71.74
-106.13
-124.28
-125.69
-114.63
-98.95
-87.14
-85.05
-93.97
-111.01
-131.23
-150.02
-164.54
-173.78
-177.97
-177.95
-174.95
-170.38
-165.34
-159.73
-151.81
-138.59
-117.31
-87.28
-51.10
-14.15
17.44
39.05
49.35
50.42
46.33
40.95
36.38
32.56
28.20
22.32
15.44
9.54
6.97
8.79
13.75
18.42
18.67
11.53
-3.27
-23.23
-44.19
-62.17
-74.99
-82.55
-85.90
-85.49
-79.95
-66.46
-42.92
-10.59
24.70
53.71
67.24
59.85
31.96
-10.73
-59.82
-107.31
-147.45
-176.75
-193.19
-195.31
-182.32
-154.99
-116.22
-70.53
-22.66
24.04
68.10
109.36
147.83
182.84
212.90
236.34
251.84
258.79
257.25
247.75
231.30
209.65
185.47
162.08
142.90
130.70
126.92
131.42
142.40
156.88
171.40
183.05
190.31
193.36
193.51
191.83
188.02
180.09
165.35
142.28
111.86
77.68
44.43
15.74
-7.16
-25.61
-42.28
-59.63
-79.23
-102.21
-130.12
-165.12
-208.84
-260.50
-315.38
-365.09
-399.89
-411.95
-398.10
-360.61
-305.83
-241.81
-176.07
-114.87
-63.50
-26.86
-8.89
-10.85
-29.46
-56.71
-81.78
-94.84
-90.57
-69.79
-38.47
-4.83
24.09
44.40
55.31
57.86
53.42
43.28
29.20
14.47
3.94
2.89
15.00
40.48
75.38
112.61
144.22
164.08
169.71
162.55
146.82
127.56
108.75
92.44
78.76
66.68
54.82
42.05
27.61
11.18
-7.12
-26.57
-45.78
-62.92
-76.20
-84.40
-87.26
-85.44
-80.21
-73.01
-65.14
-57.71
-51.73
-48.17
-47.82
-51.02
-57.40
-65.96
-75.36
-84.39
-92.30
-98.81
-103.82
-107.15
-108.42
-107.38
-104.15
-99.53
-94.70
-90.98
-89.37
-90.41
-94.15
-100.03
-106.81
-112.27
-113.47
-107.25
-91.36
-65.24
-30.50
9.54
50.97
90.48
126.33
158.30
186.93
212.54
234.80
252.82
265.73
273.27
275.64
273.15
265.54
251.85
230.89
202.03
165.73
123.25
76.13
25.72
-26.54
-78.22
-125.12
-161.60
-182.20
-183.99
-168.06
-139.41
-105.10
-71.47
-42.10
-17.13
5.99
30.79
60.15
95.14
134.71
175.87
214.39
245.83
266.51
274.33
268.98
251.66
224.53
190.06
150.87
109.75
69.54
32.76
0.61
-27.96
-56.56
-90.23
-133.01
-185.28
-242.26
-294.62
-331.29
-343.58
-328.74
-290.94
-239.65
-185.88
-138.49
-102.07
-77.12
-61.77
-53.78
-51.43
-53.20
-57.03
-60.21
-60.05
-55.12
-45.99
-34.64
-23.13
-11.77
1.13
18.00
39.74
64.25
87.21
104.49
115.17
122.52
132.43
149.68
174.46
201.66
223.20
232.11
225.84
206.84
180.46
151.70
122.95
93.81
62.42
27.08
-12.92
-57.10
-103.68
-149.71
-190.92
-222.38
-239.69
-240.38
-224.83
-195.91
-157.86
-115.04
-71.44
-30.84
2.95
26.38
37.33
36.11
25.85
11.48
-2.14
-11.90
-16.91
-17.61
-14.44
-6.81
6.49
25.96
49.88
73.84
91.84
98.49
91.14
71.08
43.09
13.62
-11.24
-27.55
-34.26
-32.95
-26.91
-20.05
-15.87
-16.82
-23.95
-36.72
-53.11
-69.92
-83.34
-89.89
-87.53
-76.39
-58.95
-39.35
-22.17
-11.11
-8.01
-12.49
-21.88
-31.66
-36.31
-30.37
-10.16
24.58
69.76
117.14
156.03
176.28
171.55
141.81
93.81
39.33
-8.69
-40.27
-51.27
-43.91
-24.82
-2.02
17.61
29.35
30.48
19.74
-2.45
-33.24
-66.69
-94.34
-107.16
-98.43
-66.38
-15.30
45.11
102.05
142.69
157.37
142.15
99.83
39.45
-26.00
-82.77
-119.95
-132.06
-120.30
-92.00
-58.50
-32.08
-22.38
-33.58
-63.08
-102.56
-140.92
-168.13
-178.17
-169.99
-146.24
-110.67
-65.93
-13.36
45.47
106.58
162.65
204.47
224.22
218.87
191.09
147.71
96.28
42.47
-10.04
-57.79
-95.21
-114.50
-108.72
-76.26
-23.74
35.00
83.86
110.57
110.35
85.77
43.97
-6.71
-58.32
-103.08
-133.16
-141.76
-125.94
-89.16
-41.25
4.84
38.23
54.63
57.37
54.85
55.74
65.15
82.99
104.88
124.36
135.12
132.92
116.63
88.97
56.11
26.29
7.39
4.16
16.27
38.34
61.95
78.53
81.98
69.87
42.71
2.55
-47.83
-104.68
-162.59
-214.35
-252.33
-270.97
-268.96
-250.06
-221.75
-192.59
-169.07
-153.79
-145.18
-139.02
-130.72
-117.29
-98.52
-76.64
-54.90
-35.63
-18.76
-1.55
20.18
50.05
88.91
133.99
179.65
219.16
246.79
259.36
256.73
241.11
215.74
183.55
145.95
102.89
53.31
-3.49
-66.37
-131.34
-191.74
-239.77
-268.95
-276.40
-263.77
-236.40
-201.17
-163.81
-127.18
-91.05
-53.39
-12.13
32.79
79.23
123.36
160.88
188.47
204.72
210.26
207.49
199.91
190.16
180.44
172.38
167.37
166.86
171.77
181.34
192.54
201.11
201.16
189.25
165.16
131.49
91.79
48.88
4.36
-40.39
-81.92
-117.93
-145.36
-163.28
-173.47
-179.19
-182.66
-183.04
-176.72
-158.04
-126.41
-83.70
-34.61
16.09
66.39
117.57
172.32
222.02
272.70
315.25
341.05
344.19
324.01
285.33
236.08
184.00
134.10
89.41
48.04
9.01
-27.89
-62.14
-93.57
-123.45
-154.77
-191.20
-233.98
-283.33
-334.35
-378.63
-406.74
-411.31
-389.52
-343.92
-281.22
-209.15
-136.13
-67.71
-6.90
45.14
88.34
122.96
149.04
166.24
174.31
172.81
162.89
147.10
128.50
108.87
87.42
61.44
28.80
-8.81
-44.63
-67.77
-67.53
-38.25
17.55
89.14
161.00
217.76
248.66
249.96
224.71
180.63
127.07
72.14
20.91
-25.11
-67.21
-108.25
-151.03
-196.91
-244.74
-290.54
-328.11
-350.63
-352.96
-333.61
-295.47
-244.73
-188.55
-132.60
-79.50
-28.83
21.58
73.87
128.72
184.55
237.66
283.06
315.82
332.67
332.95
318.84
294.41
264.12
231.49
198.12
163.76
126.84
85.41
38.58
-11.92
-61.02
-100.85
-123.51
-125.02
-108.40
-83.99
-66.13
-67.41
-93.35
-140.34
-197.86
-253.64
-298.84
-330.34
-349.45
-358.63
-358.50
-347.26
-322.37
-283.05
-231.52
-172.35
-110.71
-50.78
4.73
54.15
95.89
128.34
150.65
163.73
170.57
175.42
182.07
192.21
204.73
216.16
222.03
218.70
204.82
181.95
154.08
125.89
100.75
79.41
59.75
38.22
12.07
-19.15
-53.32
-86.46
-114.47
-134.57
-146.21
-150.84
-151.17
-150.00
-148.93
-147.63
-143.69
-133.67
-114.61
-85.55
-48.48
-8.29
27.95
52.62
59.61
46.39
15.26
-26.92
-70.77
-107.65
-132.21
-143.51
-143.90
-136.69
-124.50
-109.06
-92.05
-75.85
-63.16
-55.15
-49.94
-42.60
-27.22
0.07
38.81
84.02
128.17
163.80
186.11
193.82
188.81
174.99
157.16
140.20
128.35
124.38
128.47
137.94
148.02
153.81
152.21
143.13
128.88
112.74
97.07
82.43
67.68
50.82
29.95
3.81
-27.90
-64.43
-103.89
-143.29
-178.88
-207.06
-225.19
-231.98
-227.24
-211.40
-185.47
-151.40
-112.26
-71.80
-33.37
1.09
31.25
57.65
80.50
99.03
111.59
116.68
113.78
103.80
88.71
70.78
52.14
34.54
19.42
8.03
1.15
-1.11
0.69
5.52
12.16
19.29
25.55
29.40
29.50
25.17
16.94
6.54
-3.64
-11.56
-16.35
-18.69
-20.33
-23.06
-27.91
-34.74
-42.61
-50.55
-58.25
-66.13
-74.91
-84.90
-95.52
-105.38
-113.12
-118.30
-122.02
-126.42
-133.46
-143.38
-153.98
-161.26
-161.44
-152.89
-137.05
-117.69
-98.69
-81.88
-66.13
-48.41
-26.06
1.05
29.87
55.56
74.13
84.83
90.81
97.50
109.67
128.57
150.85
169.76
178.40
173.09
155.31
131.20
108.60
93.47
87.16
86.43
85.61
80.14
69.13
55.81
45.66
43.57
51.76
69.05
92.07
117.13
141.57
164.11
184.18
200.87
212.53
217.15
213.01
199.47
176.98
146.68
109.78
67.52
21.69
-24.62
-66.86
-99.64
-118.03
-119.03
-102.94
-73.69
-38.48
-6.21
14.70
18.77
5.41
-20.59
-50.52
-74.84
-86.68
-84.16
-70.46
-51.63
-33.54
-19.60
-10.34
-4.70
-1.44
0.25
1.31
3.75
10.79
25.53
48.73
76.98
102.72
116.80
112.68
90.21
56.77
24.73
6.05
6.62
23.25
44.95
57.95
52.07
25.18
-16.03
-59.30
-92.36
-107.92
-106.06
-93.35
-79.26
-71.86
-74.90
-87.29
-104.70
-122.24
-136.71
-147.18
-154.27
-158.64
-160.10
-157.72
-150.84
-139.88
-126.49
-112.82
-100.49
-89.74
-79.56
-68.28
-54.56
-38.16
-20.30
-3.52
8.98
14.53
12.01
2.74
-9.64
-20.35
-25.11
-21.72
-10.70
5.36
23.34
41.10
58.13
75.15
92.79
110.75
127.44
140.72
149.14
152.75
153.16
152.86
154.26
159.08
168.27
182.10
199.90
219.74
238.07
250.12
251.26
238.92
213.69
179.36
141.16
103.22
66.71
29.46
-12.31
-61.13
-115.85
-170.99
-218.10
-248.58
-256.66
-241.13
-205.46
-156.57
-103.09
-53.87
-16.79
2.16
-0.01
-22.60
-60.96
-107.62
-154.11
-192.99
-219.22
-230.26
-225.24
-204.09
-167.28
-116.44
-55.53
8.90
68.54
115.63
145.59
158.53
158.98
153.64
148.31
145.64
144.55
141.75
134.01
119.99
100.60
77.97
53.90
29.08
3.46
-22.46
-46.60
-65.44
-75.33
-74.47
-64.21
-48.99
-34.70
-26.60
-27.52
-37.26
-53.22
-71.76
-89.43
-103.58
-112.54
-115.48
-112.44
-104.55
-93.94
-83.38
-75.45
-71.57
-71.45
-73.13
-73.61
-69.94
-60.42
-45.44
-27.60
-10.83
1.31
7.60
10.35
15.08
27.99
52.55
86.78
122.70
148.80
154.42
134.00
89.60
30.25
-31.26
-82.66
-115.36
-125.99
-116.14
-91.00
-57.64
-23.18
6.95
30.44
48.56
65.21
84.82
109.82
139.13
168.33
191.35
202.76
199.49
180.83
147.19
98.95
36.69
-37.10
-115.95
-189.07
-243.45
-267.65
-255.60
-208.93
-136.46
-51.53
31.57
100.93
149.16
174.05
177.94
166.30
145.66
121.56
97.17
72.79
46.31
14.55
-25.13
-73.42
-128.10
-184.02
-233.99
-270.79
-289.26
-287.82
-268.71
-236.85
-198.29
-158.86
-123.38
-95.12
-75.48
-63.38
-55.05
-44.91
-27.29
1.75
43.32
95.66
154.96
215.89
271.92
315.80
340.78
342.55
321.02
280.69
228.75
171.79
112.89
51.23
-15.46
-87.03
-158.10
-218.35
-256.12
-263.32
-239.06
-190.15
-128.30
-65.80
-11.84
29.14
56.78
72.93
80.02
80.34
76.04
69.30
62.08
55.52
49.40
42.23
32.02
17.41
-1.14
-21.02
-38.22
-48.94
-51.20
-45.69
-35.39
-24.05
-14.59
-8.08
-4.04
-1.37
0.78
2.75
5.02
8.83
16.03
28.05
44.50
62.56
77.62
85.04
82.02
68.69
47.95
24.24
2.24
-14.20
-22.61
-22.12
-13.34
1.87
20.90
41.07
60.29
77.37
91.93
104.11
114.23
122.80
130.42
137.31
142.50
143.26
135.56
115.73
82.93
40.47
-4.47
-43.40
-69.74
-81.08
-79.48
-69.62
-56.45
-43.34
-31.82
-22.51
-16.17
-14.17
-17.68
-26.68
-39.15
-51.32
-58.94
-59.07
-51.47
-38.83
-25.86
-17.14
-15.21
-19.55
-27.18
-34.53
-39.46
-42.23
-44.89
-49.62
-57.04
-65.62
-72.47
-75.03
-72.49
-66.24
-59.11
-53.81
-51.73
-52.48
-54.37
-55.50
-54.57
-51.27
-46.13
-40.04
-33.82
-28.18
-23.69
-20.87
-20.08
-21.40
-24.57
-28.93
-33.65
-37.69
-40.01
-39.92
-37.49
-34.10
-32.27
-35.00
-44.34
-60.23
-80.06
-99.55
-114.66
-123.47
-127.03
-128.67
-132.16
-139.64
-150.62
-162.18
-170.47
-172.42
-166.79
-154.23
-136.47
-115.33
-91.93
-66.89
-40.74
-14.64
9.59
30.04
45.51
56.43
64.83
73.80
86.50
105.27
131.20
163.86
201.35
240.33
276.37
304.74
321.73
325.74
317.72
300.68
278.28
253.51
228.15
202.90
178.21
154.93
134.25
116.97
102.58
88.77
71.90
48.44
16.63
-22.21
-63.59
-101.14
-128.99
-144.01
-147.04
-142.48
-136.42
-134.29
-139.17
-151.11
-167.98
-186.46
-203.21
-215.29
-220.38
-216.81
-203.72
-181.26
-150.75
-114.70
-76.39
-39.36
-6.86
18.81
36.69
47.46
53.17
56.59
60.22
65.45
72.17
79.13
84.74
87.99
88.94
88.66
88.67
90.28
93.99
99.45
105.62
111.19
114.94
116.08
114.38
110.31
104.79
98.86
93.09
87.34
81.00
73.76
66.50
61.53
61.91
69.87
85.10
104.06
120.75
128.90
124.20
105.63
75.24
36.99
-4.69
-45.60
-82.08
-111.20
-131.36
-142.85
-148.05
-150.39
-152.65
-155.48
-156.88
-153.18
-141.06
-119.27
-89.75
-57.17
-27.54
-6.38
2.83
-0.41
-13.65
-32.31
-50.99
-64.57
-69.26
-63.05
-45.85
-19.21
14.29
51.72
90.38
128.22
163.72
195.34
221.15
238.60
245.03
238.48
218.32
185.23
140.90
87.71
28.78
-32.05
-90.34
-141.77
-183.07
-212.47
-229.43
-233.87
-225.36
-203.14
-166.93
-118.24
-61.05
-1.44
53.98
99.86
133.27
153.52
161.24
157.24
142.17
117.14
84.48
48.02
12.91
-15.41
-32.67
-36.95
-29.04
-11.97
10.15
32.95
52.29
64.01
63.93
48.56
16.62
-29.08
-80.97
-128.18
-159.96
-169.41
-155.93
-124.88
-84.79
-43.78
-7.27
22.30
44.01
57.08
60.88
55.80
44.22
30.57
19.73
14.82
15.69
18.97
19.81
14.24
1.04
-17.73
-37.63
-53.67
-62.18
-62.00
-54.50
-42.61
-29.19
-15.65
-1.49
15.09
35.45
59.00
82.68
101.72
111.32
108.45
92.34
63.84
24.15
-25.69
-83.93
-146.66
-206.78
-255.10
-283.01
-285.92
-265.11
-227.16
-181.02
-134.19
-90.50
-49.87
-10.34
29.45
68.78
105.09
135.50
158.39
174.17
184.83
192.91
200.57
209.18
219.27
230.99
244.23
258.64
273.66
288.53
302.51
314.80
324.39
329.93
329.78
322.47
307.32
284.88
256.80
225.15
191.71
157.35
122.28
86.47
50.31
14.64
-19.66
-52.37
-84.29
-117.10
-152.80
-192.68
-236.56
-282.39
-326.60
-365.05
-394.00
-411.00
-415.04
-406.22
-385.20
-352.62
-308.69
-253.22
-186.40
-110.05
-28.90
49.24
114.71
158.93
177.47
171.94
149.23
118.71
88.35
61.86
38.62
15.40
-11.12
-42.84
-79.96
-121.20
-164.04
-204.83
-239.27
-263.69
-276.75
-280.29
-278.27
-274.71
-271.34
-266.89
-258.35
-243.30
-221.51
-194.88
-165.76
-135.11
-102.17
-65.48
-24.62
18.93
62.35
103.13
140.19
174.29
206.91
238.94
269.63
296.60
316.50
325.90
321.94
302.91
269.15
223.98
173.79
126.71
89.72
65.29
49.70
34.13
8.88
-31.40
-84.59
-141.75
-191.16
-223.50
-235.29
-228.67
-208.62
-179.42
-142.49
-96.80
-40.77
25.37
98.49
172.44
239.60
292.43
325.43
336.67
328.10
304.68
272.49
236.40
198.56
159.79
120.06
80.53
44.17
14.63
-5.95
-18.79
-28.76
-43.50
-68.84
-108.74
-162.97
-226.85
-292.22
-349.39
-389.32
-405.59
-396.67
-363.35
-312.59
-254.95
-202.21
-164.15
-145.59
-144.83
-154.66
-166.44
-169.54
-159.10
-134.51
-97.68
-50.59
5.71
69.97
145.92
211.70
257.68
274.69
261.79
228.52
191.57
167.03
162.52
173.62
185.11
182.82
156.30
104.92
37.08
-34.06
-95.60
-138.16
-157.01
-152.68
-127.00
-86.27
-38.51
8.13
47.61
77.43
98.45
113.51
124.93
135.14
143.55
148.05
146.40
137.56
122.27
102.67
81.14
58.85
36.57
14.03
-8.93
-31.85
-54.02
-74.90
-94.48
-112.94
-129.80
-142.62
-147.57
-140.59
-119.66
-86.87
-49.04
-16.04
2.64
1.52
-18.22
-48.88
-79.05
-97.90
-98.98
-81.74
-50.43
-11.49
28.83
65.62
95.21
114.83
122.58
117.85
101.11
73.18
34.54
-14.69
-73.34
-137.31
-198.75
-247.64
-274.55
-273.95
-246.11
-197.04
-136.71
-77.09
