-0
-0
-0
-0
-0
-0
-0
-0
-0
-0
0
0.01
0.01
-0
-0.03
-0.05
-0.05
0
0.13
0.36
0.66
1.01
1.37
1.72
2.06
2.4
2.79
3.24
3.8
4.42
5.06
5.66
6.2
6.68
7.15
7.68
8.31
9.14
10.09
11.04
11.88
12.56
13.14
13.76
14.65
15.96
17.91
20.32
22.9
25.38
27.58
29.57
31.68
34.32
37.81
42.54
48.15
54.1
59.83
64.97
69.58
74.14
79.34
85.71
93.76
103
112.62
121.73
129.77
136.75
143.3
150.75
157.77
166.64
177.95
191.79
206.97
220.57
228.25
225.36
208.53
176.87
132.76
80.05
23.07
-34.94
-92.44
-149.16
-205.23
-260.37
-313.74
-363.88
-409.84
-450.91
-486.5
-515.74
-537.22
-549.21
-549.94
-538.33
-514.15
-478.6
-433.77
-382.31
-326.83
-269.6
-212.34
-156.31
-102.55
-51.9
-5.37
36.18
72.09
102.09
126.31
145.27
159.66
170.21
177.52
182.01
183.94
183.56
181.14
177.02
171.62
165.33
158.52
151.43
144.19
136.89
129.55
122.23
114.99
107.91
101.05
94.47
88.2
82.25
76.64
71.37
66.46
61.92
57.76
53.97
50.56
47.52
44.85
42.52
40.54
38.92
37.64
36.73
36.15
35.91
35.96
36.25
36.68
37.13
37.46
37.49
37.04
35.93
34.04
31.28
27.63
23.15
17.92
12.13
6.02
-0.14
-6.07
-11.51
-16.24
-20.09
-22.98
-24.86
-25.77
-25.8
-25.08
-23.75
-21.95
-19.84
-17.52
-15.09
-12.61
-10.11
-7.63
-5.2
-2.82
-0.5
1.79
4.06
6.35
8.69
11.13
13.66
16.27
18.97
21.77
24.7
27.77
31.02
34.51
38.29
42.28
46.43
50.72
55.13
59.68
64.37
69.24
74.34
79.75
85.31
90.94
96.58
102.22
107.85
113.49
119.18
124.96
130.91
136.75
142.23
147.16
151.27
154.26
155.71
155.1
151.65
146.76
140.92
134.44
127.53
120.36
113.07
105.8
98.67
91.86
85.53
79.54
73.82
68.35
63.11
58.11
53.36
48.87
44.71
40.94
37.4
33.98
30.64
27.36
24.14
21.02
18.05
15.32
12.92
10.79
8.92
7.28
5.88
4.72
3.77
3.03
2.49
2.13
1.86
1.61
1.33
0.99
0.54
-0
-0.65
-1.36
-2.11
-2.88
-3.64
-4.36
-5
-5.54
-5.98
-6.3
-6.52
-6.65
-6.72
-6.76
-6.8
-6.85
-6.92
-7
-7.07
-7.13
-7.2
-7.3
-7.43
-7.62
-7.84
-8.07
-8.29
-8.5
-8.72
-8.99
-9.35
-9.84
-10.45
-11.16
-11.87
-12.56
-13.16
-13.73
-14.33
-15.09
-16.13
-17.47
-19.09
-20.86
-22.66
-24.37
-26.02
-27.76
-29.79
-32.27
-35.23
-38.47
-41.68
-44.54
-46.9
-48.9
-51.01
-53.82
-57.84
-63.27
-69.88
-77.11
-84.32
-91.13
-97.62
-104.37
-112.21
-121.81
-133.35
-146.41
-160.17
-173.69
-186.41
-198.34
-209.99
-222.17
-235.93
-252.38
-272.44
-296.33
-322.9
-349.18
-370.72
-382.77
-382.08
-368.16
-343.53
-312.68
-280.19
-249.19
-220.78
-194.62
-170.03
-146.89
-125.72
-107.19
-91.43
-77.83
-65.29
-52.92
-40.43
-28.21
-17.12
-7.89
-0.77
4.54
8.82
12.93
17.43
22.41
27.36
31.55
34.15
34.77
33.53
31.08
28.3
25.94
24.32
23.24
22.06
20.09
16.78
12.05
6.17
-0.2
-6.4
-11.9
-16.55
-20.58
-24.52
-29.06
-34.87
-42.42
-51.77
-62.46
-73.35
-82.75
-88.67
-89.4
-84.09
-73.13
-58.11
-41.22
-24.64
-9.73
3.1
14.24
24.43
34.27
43.99
53.43
62.19
69.89
76.19
80.92
84.01
85.54
85.73
84.97
83.8
82.74
82.22
82.41
83.2
84.23
85.02
85.12
84.2
82.14
79.12
75.44
71.47
67.56
63.89
60.56
57.5
54.57
51.58
48.4
44.89
41.03
36.84
32.42
27.95
23.61
19.6
15.98
12.77
9.81
6.98
4.15
1.33
-1.39
-3.89
-6.09
-8.08
-10.07
-12.48
-15.77
-20.29
-26.16
-33.16
-40.78
-48.32
-55.19
-61.04
-66
-70.67
-75.9
-82.58
-91.2
-101.48
-112.27
-121.65
-127.32
-127.39
-120.92
-108.35
-91.38
-72.32
-53.47
-36.3
-21.24
-7.89
4.53
16.68
28.82
40.78
52.11
62.34
71.04
77.92
82.84
85.76
86.74
86.12
84.4
82.27
80.37
79.13
78.6
78.53
78.45
77.93
76.71
74.78
72.33
69.66
67.08
64.75
62.77
61.13
59.73
58.31
56.64
54.51
51.81
48.59
45
41.25
37.5
33.91
30.5
27.33
24.4
21.76
19.31
16.91
14.27
11.11
7.28
2.83
-1.98
-6.84
-11.51
-16
-20.53
-25.41
-30.88
-36.89
-43.17
-49.32
-55
-60.03
-64.5
-68.72
-73.15
-78.34
-84.83
-92.96
-102.63
-113.01
-122.51
-128.98
-130.33
-125.2
-113.51
-96.58
-76.75
-56.58
-38.06
-22.2
-8.95
2.4
12.77
22.72
32.44
41.72
50.18
57.46
63.24
67.4
69.97
71.1
71.08
70.33
69.35
68.65
68.64
69.46
70.94
72.59
73.76
73.87
72.63
70.12
66.73
63.01
59.34
55.94
52.8
49.75
46.65
43.42
40.02
36.53
33.05
29.66
26.49
23.6
21
18.58
16.14
13.41
10.19
6.42
2.15
-2.41
-7.02
-11.55
-15.96
-20.41
-25.19
-30.58
-36.72
-43.47
-50.44
-57.04
-62.79
-67.47
-71.28
-74.84
-78.96
-84.41
-91.63
-100.44
-109.99
-118.79
-125
-126.87
-123.31
-114.17
-100.49
-84.05
-66.87
-50.56
-36.02
-23.25
-11.67
-0.5
10.83
22.46
34.07
45.01
54.56
62.19
67.69
71.21
73.17
74.11
74.54
74.88
75.41
76.25
77.35
78.46
79.1
78.72
76.96
73.78
69.67
65.32
61.47
58.53
56.47
54.88
53.23
51.12
48.44
45.39
42.25
39.34
36.7
34.14
31.27
27.67
23.07
17.51
11.37
5.17
-0.65
-6
-11.12
-16.53
-22.69
-29.77
-37.54
-45.46
-52.94
-59.58
-65.28
-70.22
-74.78
-79.48
-84.88
-91.51
-99.68
-109.21
-119.14
-127.7
-132.7
-132.16
-125.11
-111.93
-94.32
-74.67
-55.3
-37.76
-22.62
-9.68
1.74
12.33
22.59
32.76
42.78
52.36
61.07
68.48
74.25
78.27
80.67
81.76
82.01
81.87
81.84
82.31
83.43
85.1
86.9
88.22
88.52
87.48
85.1
81.67
77.64
73.47
69.5
65.87
62.55
59.42
56.4
53.38
50.43
47.65
45.17
43.02
41.16
39.44
37.63
35.52
33.05
30.27
27.31
24.33
21.34
18.27
14.88
10.94
6.38
1.36
-3.83
-8.87
-13.59
-18.13
-22.87
-28.25
-34.51
-41.59
-49.1
-56.46
-63.27
-69.38
-75.05
-80.79
-87.26
-95.04
-104.45
-115.38
-127
-137.69
-145.31
-147.73
-143.52
-132.63
-116.46
-97.4
-77.98
-60.1
-44.49
-30.95
-18.7
-6.95
4.73
16.4
27.88
38.84
48.87
57.49
64.29
68.92
71.32
71.72
70.67
68.91
67.18
66.05
65.74
66.2
67.05
67.85
68.18
67.84
66.79
65.19
63.27
61.15
58.89
56.46
53.88
51.2
48.5
45.81
43.07
40.16
37
33.6
30.15
26.85
23.89
21.21
18.59
15.7
12.29
8.27
3.74
-1.1
-5.94
-10.44
-14.4
-17.75
-20.61
-23.3
-26.31
-30.03
-34.76
-40.49
-46.96
-53.67
-60.1
-65.98
-71.28
-76.36
-81.85
-88.39
-96.34
-105.43
-114.58
-122.01
-125.67
-123.84
-115.75
-101.87
-83.85
-63.94
-44.35
-26.64
-11.46
1.34
12.39
22.42
32
41.34
50.38
58.77
66.04
71.78
75.79
78.12
79.08
79.19
78.99
78.9
79.18
79.84
80.76
81.64
82.16
82
80.92
78.89
76.08
72.82
69.51
66.53
64.05
62.05
60.35
58.74
56.97
54.88
52.39
49.44
46.09
42.45
38.71
35.12
31.86
28.96
26.37
23.83
21.12
18.04
14.45
10.41
6.09
1.67
-2.7
-7.02
-11.46
-16.25
-21.62
-27.65
-34.24
-41.11
-47.93
-54.39
-60.42
-66.18
-72.12
-78.93
-87.26
-97.44
-109.17
-121.27
-131.82
-138.52
-139.38
-133.4
-120.99
-103.82
-84.27
-64.69
-46.71
-30.93
-17.09
-4.51
7.4
18.93
30.04
40.5
50.04
58.32
65.04
69.88
72.69
73.57
72.99
71.68
70.48
70.08
70.76
72.34
74.23
75.72
76.21
75.41
73.38
70.47
67.12
63.7
60.4
57.24
54.11
51.02
48.01
45.15
42.55
40.24
38.11
36.03
33.84
31.51
29.02
26.46
23.95
21.52
19.14
16.69
13.99
10.84
7.15
2.94
-1.64
-6.31
-10.84
-15.2
-19.53
-24.13
-29.33
-35.28
-41.81
-48.59
-55.18
-61.25
-66.8
-72.01
-77.28
-83.09
-89.95
-98.23
-107.99
-118.74
-129.25
-137.6
-141.63
-139.72
-131.36
-117.4
-99.9
-81.3
-63.68
-48.15
-34.78
-22.95
-11.85
-0.89
10.18
21.26
32.15
42.57
52.17
60.53
67.18
71.75
74.07
74.39
73.31
71.67
70.28
69.65
69.91
70.79
71.69
71.98
71.18
69.11
65.94
62.09
58.05
54.28
50.93
47.99
45.25
42.53
39.72
37
34.58
32.69
31.41
30.49
29.53
28.08
25.86
22.79
19.08
14.99
10.77
6.53
2.18
-2.46
-7.59
-13.31
-19.58
-26.12
-32.6
-38.64
-43.99
-48.72
-53.09
-57.59
-62.84
-69.38
-77.49
-86.91
-96.65
-104.99
-109.93
-109.64
-103.3
-91.43
-75.72
-58.55
-42.08
-27.68
-15.64
-5.47
3.64
12.3
20.74
28.8
36.12
42.4
47.52
51.49
54.45
56.6
58.08
59.07
59.72
60.22
60.67
61.13
61.59
61.95
62.03
61.68
60.76
59.2
57.02
54.34
51.34
48.17
44.93
41.55
37.94
33.98
29.71
25.24
20.78
16.53
12.52
8.64
4.75
0.65
-3.71
-8.23
-12.72
-16.98
-20.9
-24.57
-28.26
-32.31
-37.02
-42.48
-48.57
-54.96
-61.26
-67.16
-72.62
-77.85
-83.34
-89.73
-97.56
-106.94
-117.27
-127.11
-134.41
-137.13
-133.85
-124.39
-109.9
-92.38
-74.03
-56.54
-40.72
-26.54
-13.58
-1.3
10.67
22.48
34.08
45.33
55.84
65.15
72.71
78.19
81.56
83.15
83.48
83.2
82.82
82.7
82.93
83.41
83.83
83.81
82.97
81.11
78.28
74.71
70.69
66.39
61.69
56.42
50.43
43.79
36.81
30
23.69
17.91
12.36
6.56
0.05
-7.33
-15.39
-23.71
-31.77
-39.23
-46.01
-52.35
-58.74
-65.8
-74.14
-84.08
-95.49
-107.58
-118.85
-127.29
-130.85
-128.11
-118.84
-104.16
-86.25
-67.61
-50.26
-35.21
-22.33
-10.75
0.55
12.2
24.24
36.2
47.31
56.86
64.31
69.53
72.69
74.21
74.66
74.52
74.25
74.19
74.5
75.32
76.56
77.93
79.07
79.55
79.05
77.49
74.99
71.8
68.21
64.46
60.66
56.9
53.16
49.43
45.71
42.03
38.41
34.96
31.7
28.65
25.74
22.92
20.09
17.24
14.35
11.4
8.34
5.05
1.4
-2.68
-7.13
-11.81
-16.49
-21.01
-25.31
-29.51
-33.87
-38.74
-44.37
-50.78
-57.75
-64.85
-71.66
-77.86
-83.47
-88.81
-94.5
-101.19
-109.44
-119.34
-130.3
-140.92
-149.22
-153.07
-150.87
-142.24
-128.1
-110.52
-91.88
-74.18
-58.42
-44.63
-32.16
-20.26
-8.42
3.51
15.31
26.62
37.02
46.15
53.71
59.61
64
67.18
69.57
71.51
73.25
74.92
76.6
78.34
80.09
81.68
82.76
82.96
82.03
79.94
76.96
73.5
69.96
66.57
63.35
60.19
56.87
53.18
48.96
44.11
38.69
32.93
27.16
21.7
16.76
12.31
8.08
3.65
-1.3
-6.94
-13.16
-19.68
-26.11
-32.13
-37.61
-42.64
-47.57
-52.96
-59.38
-67.27
-76.63
-86.8
-96.33
-103.33
-105.92
-102.86
-94.08
-80.69
-64.66
-48.19
-32.95
-19.73
-8.42
1.7
11.42
21.28
31.38
41.42
50.93
59.41
66.49
72.03
76.13
79
80.94
82.26
83.27
84.25
85.49
87.19
89.38
91.88
94.3
96.13
96.94
96.54
95.08
93
90.89
89.22
88.31
88.12
88.41
88.72
88.6
87.55
85.24
81.42
76.02
69.15
61
51.9
42.24
32.41
22.76
13.51
4.75
-3.58
-11.6
-19.38
-26.89
-33.9
-40.21
-45.73
-50.62
-55.25
-60.01
-65.1
-70.39
-75.47
-79.86
-83.26
-85.67
-87.44
-89.12
-91.35
-94.67
-99.42
-105.64
-112.83
-119.99
-125.65
-128.32
-127.02
-121.72
-113.37
-103.64
-94.21
-86.17
-79.83
-74.77
-70.39
-66.29
-62.5
-59.34
-57.2
-56.23
-56.35
-57.18
-58.22
-58.9
-58.65
-57
-53.64
-48.47
-41.63
-33.43
-24.32
-14.78
-5.22
4.07
12.9
21.2
28.9
35.94
42.27
47.86
52.74
57
60.66
63.71
66.04
67.51
68.05
67.78
66.95
65.89
64.83
63.85
62.84
61.51
59.59
56.89
53.37
49.2
44.63
39.95
35.32
30.74
25.99
20.86
15.18
8.99
2.43
-4.23
-10.8
-17.19
-23.49
-29.87
-36.61
-44.07
-52.67
-62.68
-73.93
-85.52
-95.73
-102.45
-103.74
-98.62
-87.48
-71.98
-54.4
-36.93
-21.05
-7.3
4.61
15.25
25.16
34.57
43.38
51.27
57.88
62.94
66.38
68.38
69.32
69.65
69.8
70.09
70.77
71.95
73.7
75.9
78.26
80.36
81.68
81.9
81
79.32
77.35
75.55
74.06
72.68
71.02
68.69
65.49
61.47
56.84
51.98
47.19
42.68
38.51
34.58
30.7
26.71
22.54
18.28
14.13
10.27
6.7
3.2
-0.62
-5.13
-10.51
-16.69
-23.38
-30.16
-36.65
-42.62
-48
-52.98
-57.96
-63.49
-70.14
-78.3
-87.89
-98.14
-107.62
-114.44
-116.85
-113.77
-105.22
-92.33
-77
-61.29
-46.78
-34.25
-23.71
-14.58
-6.13
2.2
10.67
19.23
27.55
35.12
41.41
46
48.71
49.65
49.21
47.94
46.39
45.09
44.46
44.69
45.75
47.38
49.12
50.44
50.92
50.42
49.04
47.08
44.9
42.74
40.69
38.7
36.69
34.57
32.31
29.95
27.62
25.44
23.5
21.73
19.86
17.58
14.66
11.16
7.43
3.96
1.11
-1.13
-3.08
-5.26
-8.01
-11.3
-14.77
-17.93
-20.51
-22.53
-24.42
-26.76
-29.98
-34.3
-39.48
-45.02
-50.28
-54.78
-58.37
-61.37
-64.5
-68.64
-74.64
-82.84
-92.86
-103.51
-112.86
-118.82
-119.7
-114.84
-104.82
-91.34
-76.6
-62.58
-50.5
-40.58
-32.25
-24.56
-16.67
-8.06
1.26
10.95
20.45
29.12
36.48
42.18
46.03
48.07
48.52
47.79
46.44
45.17
44.47
44.58
45.32
46.2
46.65
46.26
44.98
43.03
40.86
38.8
37.11
35.77
34.66
33.5
32.01
29.93
27.11
23.67
20.01
16.84
14.86
14.51
15.62
17.52
19.13
19.55
18.3
15.54
11.85
7.95
4.32
0.98
-2.34
-6.07
-10.42
-15.27
-20.24
-24.9
-28.97
-32.46
-35.63
-38.94
-42.79
-47.56
-53.47
-60.51
-68.31
-76.03
-82.32
-85.59
-84.52
-78.52
-68.07
-54.61
-40.06
-26.13
-13.87
-3.54
5.21
12.9
19.96
26.53
32.59
37.96
42.54
46.24
49.03
50.91
51.97
52.27
51.94
51.15
50.06
48.89
47.82
47.02
46.55
46.27
45.93
45.23
43.96
42.14
39.9
37.54
35.38
33.57
32.13
30.89
29.65
28.25
26.55
24.53
22.17
19.46
16.46
13.23
9.91
6.6
3.31
-0.03
-3.6
-7.55
-11.9
-16.5
-21.04
-25.28
-29.15
-32.87
-36.78
-41.22
-46.27
-51.75
-57.21
-62.16
-66.29
-69.61
-72.38
-75.1
-78.34
-82.65
-88.47
-95.89
-104.41
-112.76
-119.05
-121.22
-117.83
-108.57
-94.48
-77.61
-60.21
-44.03
-29.97
-18.03
-7.79
1.27
9.52
17.17
24.36
31.19
37.58
43.31
47.97
51.21
52.83
52.96
52.03
50.64
49.46
48.98
49.48
50.9
52.84
54.65
55.7
55.57
54.23
52.01
49.42
46.92
44.76
42.93
41.28
39.6
37.73
35.59
33.12
30.38
27.53
24.83
22.51
20.73
19.39
18.23
16.92
15.2
13.01
10.41
7.48
4.23
0.52
-3.75
-8.57
-13.69
-18.67
-23.1
-26.8
-29.94
-32.94
-36.25
-40.18
-44.69
-49.52
-54.28
-58.67
-62.57
-66.07
-69.39
-72.93
-77.21
-82.77
-90.03
-98.91
-108.52
-117.2
-122.8
-123.35
-117.84
-106.55
-91
-73.44
-56.02
-40.24
-26.74
-15.39
-5.64
3.17
11.52
19.77
28.03
36.11
43.65
50.13
55.14
58.5
60.26
60.68
60.22
59.34
58.53
58.21
58.52
59.35
60.29
60.83
60.57
59.46
57.7
55.65
53.63
51.74
49.95
48.12
46.08
43.7
40.91
37.65
34.01
30.2
26.54
23.31
20.61
18.31
16.14
13.73
10.86
7.45
3.63
-0.39
-4.43
-8.43
-12.56
-17.1
-22.27
-28.17
-34.62
-41.19
-47.35
-52.72
-57.2
-60.99
-64.63
-68.79
-74.06
-80.71
-88.45
-96.24
-102.48
-105.32
-103.28
-95.82
-83.59
-68.24
-51.84
-36.17
-22.28
-10.43
-0.26
8.72
16.92
24.66
32.13
39.45
46.57
53.16
58.75
62.87
65.27
66.17
66.11
65.77
65.65
65.95
66.55
67.24
67.75
67.84
67.35
66.12
64.05
61.17
57.65
53.78
49.92
46.34
43.12
40.19
37.36
34.52
31.62
28.83
26.33
24.34
22.91
21.84
20.85
19.66
18.18
16.48
14.75
13.15
11.66
10.09
8.13
5.48
2.03
-2.15
-6.85
-11.79
-16.74
-21.55
-26.27
-31.03
-36.01
-41.35
-47.05
-52.91
-58.6
-63.78
-68.31
-72.29
-76.16
-80.55
-86.2
-93.59
-102.66
-112.52
-121.51
-127.53
-128.59
-123.56
-112.57
-97.06
-79.24
-61.41
-45.17
-31.22
-19.27
-8.54
1.76
12.17
22.81
33.48
43.82
53.3
61.4
67.63
71.66
73.38
73.03
71.25
68.93
66.92
65.81
65.67
66.06
66.31
65.77
64.13
61.48
58.2
54.73
51.39
48.32
45.52
42.94
40.56
38.35
36.24
34.07
31.65
28.86
25.7
22.34
19.02
15.98
13.44
11.41
9.78
8.23
6.41
4.03
1.07
-2.22
-5.46
-8.23
-10.34
-11.92
-13.44
-15.47
-18.49
-22.7
-28.01
-34.06
-40.35
-46.4
-51.9
-56.82
-61.4
-66.15
-71.63
-78.34
-86.35
-95.17
-103.53
-109.68
-111.73
-108.38
-99.35
-85.6
-68.97
-51.66
-35.43
-21.24
-9.2
1.2
10.64
19.64
28.42
36.93
44.92
52.04
57.95
62.37
65.19
66.47
66.5
65.71
64.59
63.65
63.29
63.67
64.73
66.18
67.55
68.32
68.16
66.93
64.7
61.76
58.45
55.1
51.89
48.92
46.13
43.34
40.44
37.37
34.22
31.14
28.25
25.6
23.18
20.86
18.58
16.28
13.83
11.12
7.99
4.4
0.42
-3.67
-7.51
-10.82
-13.61
-16.23
-19.23
-23.16
-28.3
-34.48
-41.19
-47.82
-53.87
-59.16
-63.87
-68.44
-73.43
-79.39
-86.75
-95.57
-105.46
-115.32
-123.46
-127.93
-127.08
-120.21
-107.85
-91.69
-74
-56.89
-41.65
-28.63
-17.35
-6.95
3.31
13.79
24.43
34.97
45.02
54.21
62.14
68.49
72.93
75.27
75.62
74.48
72.56
70.63
69.29
68.83
69.1
69.68
69.99
69.54
68.09
65.78
62.95
60.1
57.58
55.46
53.57
51.51
49.02
45.98
42.57
39.1
35.96
33.3
31.1
29.19
27.28
25.21
22.89
20.35
17.72
15.09
12.49
9.9
7.19
4.22
0.9
-2.79
-6.67
-10.5
-14.07
-17.29
-20.28
-23.35
-26.86
-31.07
-36.11
-41.85
-47.97
-54.06
-59.79
-64.98
-69.73
-74.39
-79.53
-85.78
-93.6
-102.95
-113.06
-122.36
-128.83
-130.58
-126.53
-116.81
-102.79
-86.53
-70.11
-55.03
-41.85
-30.38
-19.94
-9.81
0.46
11.06
21.83
32.35
41.99
50.12
56.26
60.17
62.02
62.28
61.61
60.73
60.26
60.56
61.67
63.31
65.11
66.62
67.5
67.56
66.83
65.38
63.36
60.86
57.99
54.86
51.7
48.66
45.87
43.24
40.56
37.62
34.25
30.45
26.37
22.28
18.47
15.15
12.49
10.45
8.88
7.54
6.15
4.52
2.52
0.2
-2.46
-5.5
-9.12
-13.55
-18.87
-24.92
-31.31
-37.51
-43.11
-47.98
-52.36
-56.78
-61.88
-68.19
-76.04
-85.32
-95.39
-105.04
-112.63
-116.38
-114.92
-107.77
-95.51
-79.76
-62.56
-45.85
-30.88
-18.01
-6.89
3.2
12.89
22.5
31.9
40.74
48.58
55.06
60
63.44
65.57
66.71
67.27
67.65
68.16
69.03
70.25
71.68
73.01
73.85
73.84
72.71
70.47
67.38
63.85
60.25
56.87
53.75
50.78
47.77
44.59
41.27
37.94
34.81
32.05
29.74
27.78
25.96
23.99
21.65
18.83
15.67
12.43
9.37
6.59
3.98
1.3
-1.69
-5.08
-8.78
-12.56
-16.27
-19.87
-23.47
-27.33
-31.62
-36.44
-41.75
-47.45
-53.4
-59.49
-65.63
-71.77
-78.03
-84.61
-91.97
-100.54
-110.5
-121.47
-132.2
-140.69
-144.72
-142.52
-133.55
-118.73
-100.12
-80.33
-61.53
-44.93
-30.66
-18.11
-6.46
4.92
16.27
27.53
38.44
48.62
57.65
65.08
70.52
73.82
75.18
75.12
74.35
73.67
73.64
74.54
76.27
78.4
80.3
81.39
81.15
79.49
76.56
72.81
68.72
64.71
61.02
57.65
54.49
51.46
48.45
45.53
42.71
40.1
37.72
35.61
33.7
31.89
30.04
27.96
25.52
22.59
19.22
15.57
11.88
8.42
5.36
2.77
0.44
-1.85
-4.41
-7.4
-10.89
-14.72
-18.63
-22.33
-25.69
-28.83
-32.06
-35.78
-40.31
-45.63
-51.51
-57.53
-63.24
-68.38
-72.96
-77.3
-81.94
-87.56
-94.74
-103.77
-114.28
-125.09
-134.33
-139.81
-139.68
-133.15
-120.81
-104.4
-86.28
-68.56
-52.53
-38.46
-25.86
-13.93
-2.08
9.88
21.73
33.01
43.17
51.74
58.43
63.08
65.82
66.93
66.78
65.83
64.59
63.52
63.03
63.4
64.65
66.53
68.59
70.31
71.35
71.65
71.42
70.93
70.38
69.7
68.64
66.93
64.41
61.15
57.38
53.42
49.46
45.65
42
38.42
34.85
31.25
27.68
24.32
21.28
18.57
15.98
13.2
9.88
5.87
1.29
-3.52
-8.15
-12.41
-16.36
-20.35
-24.8
-29.94
-35.69
-41.7
-47.51
-52.77
-57.5
-61.94
-66.69
-72.39
-79.63
-88.67
-99.26
-110.57
-121.07
-128.85
-132.02
-129.28
-120.46
-106.59
-89.57
-71.55
-54.28
-38.62
-24.61
-11.8
0.36
12.19
23.62
34.36
44.12
52.58
59.58
65
68.75
70.87
71.64
71.49
71.03
70.86
71.38
72.69
74.53
76.4
77.71
77.98
77.01
74.89
71.93
68.54
65.17
62.15
59.65
57.59
55.74
53.8
51.54
48.88
45.86
42.7
39.55
36.52
33.65
30.93
28.39
26.02
23.8
21.61
19.43
17.17
14.9
12.8
10.99
9.5
8.12
6.45
4.06
0.65
-3.83
-9.1
-14.63
-19.92
-24.65
-28.87
-32.89
-37.19
-42.08
-47.6
-53.55
-59.51
-65.2
-70.36
-75.01
-79.28
-83.49
-88.1
-93.63
-100.62
-109.24
-119.03
-128.55
-135.65
-138.07
-134.21
-123.73
-107.83
-88.71
-68.88
-50.4
-34.35
-20.85
-9.36
0.86
10.47
19.91
29.39
38.89
48.09
56.53
63.6
68.71
71.59
72.36
71.57
70.05
68.67
68.09
68.54
69.87
71.56
73.03
73.7
73.3
71.73
69.22
66.01
62.49
58.94
55.57
52.53
49.81
47.35
44.99
42.53
39.84
36.91
33.87
30.95
28.39
26.19
24.15
21.95
19.27
16.08
12.56
9.12
6.07
3.49
1.1
-1.48
-4.63
-8.47
-12.79
-17.15
-21.11
-24.47
-27.29
-29.92
-32.89
-36.63
-41.37
-47
-53.15
-59.27
-64.92
-69.85
-74.16
-78.27
-82.77
-88.34
-95.44
-104.01
-113.29
-121.8
-127.5
-128.46
-123.42
-112.24
-96.07
-76.95
-57.27
-38.99
-23.27
-10.3
0.42
9.72
18.43
27.03
35.55
43.64
50.76
56.4
60.33
62.65
63.74
64.14
64.37
64.84
65.8
67.39
69.54
72.06
74.56
76.53
77.52
77.25
75.75
73.22
70.05
66.49
62.77
58.93
54.99
51.02
47.07
43.26
39.61
36.13
32.75
29.4
26.04
22.66
19.35
16.25
13.45
10.94
8.56
6
2.95
-0.72
-4.89
-9.19
-13.15
-16.54
-19.47
-22.38
-25.87
-30.42
-36.05
-42.45
-49.01
-55.1
-60.37
-64.85
-68.94
-73.29
-78.72
-85.87
-95.06
-105.86
-117.04
-126.62
-132.33
-132.28
-125.64
-113.02
-96.24
-77.74
-59.78
-43.74
-30
-18.09
-7.23
3.27
13.76
24.29
34.58
44.25
52.83
59.87
65.04
68.2
69.54
69.54
68.91
68.33
68.32
69.17
70.74
72.65
74.35
75.26
75
73.41
70.66
67.14
63.37
59.79
56.64
53.96
51.61
49.31
46.92
44.42
41.95
39.76
38
36.7
35.67
34.67
33.39
31.65
29.36
26.58
23.43
20.01
16.48
12.98
9.61
6.43
3.35
0.17
-3.37
-7.39
-11.95
-16.84
-21.75
-26.35
-30.44
-33.97
-37.16
-40.37
-43.97
-48.23
-53.17
-58.62
-64.2
-69.48
-74.26
-78.56
-82.83
-87.82
-94.37
-103.07
-113.83
-125.62
-136.39
-143.69
-145.24
-139.85
-127.74
-110.63
-91.02
-71.42
-53.59
-38.21
-25.09
-13.46
-2.58
8.15
18.95
29.82
40.52
50.61
59.5
66.54
71.24
73.46
73.55
72.28
70.6
69.42
69.29
70.3
72.09
74.02
75.42
75.79
74.96
73.02
70.33
67.25
64.09
61.02
58.06
55.11
52.06
48.79
45.25
41.46
37.51
33.58
29.9
26.6
23.67
20.97
18.35
15.64
12.86
10.09
7.49
5.1
2.79
0.3
-2.67
-6.29
-10.49
-14.95
-19.28
-23.15
-26.5
-29.59
-32.79
-36.46
-40.69
-45.31
-49.97
-54.3
-58.15
-61.54
-64.77
-68.2
-72.25
-77.34
-83.83
-91.75
-100.63
-109.24
-115.75
-118.09
-114.69
-105.1
-90.27
-72.21
-53.33
-35.68
-20.34
-7.43
3.53
13.24
22.26
30.91
39.22
47.08
54.18
60.18
64.76
67.71
69.11
69.28
68.73
68.01
67.63
67.92
68.95
70.59
72.43
74
74.81
74.54
73.13
70.71
67.57
64.08
60.57
57.2
54.04
51.07
48.17
45.2
42.05
38.72
35.28
31.94
28.85
26.07
23.51
21.03
18.48
15.75
12.89
10.02
7.27
4.63
2.01
-0.76
-3.77
-7.01
-10.31
-13.47
-16.4
-19.13
-21.9
-25.01
-28.75
-33.22
-38.3
-43.71
-49.14
-54.35
-59.27
-63.99
-68.73
-73.93
-80.18
-88.13
-98.06
-109.62
-121.52
-131.58
-137.32
-136.7
-128.96
-114.86
-96.53
-76.6
-57.39
-40.27
-25.46
-12.42
-0.31
11.57
23.55
35.56
47.16
57.84
66.95
74
78.63
80.81
80.82
79.18
76.64
73.97
71.83
70.65
70.56
71.32
72.45
73.37
73.59
72.85
71.12
68.63
65.67
62.57
59.54
56.61
53.73
50.78
47.72
44.58
41.51
38.63
35.99
33.6
31.34
29.2
27.21
25.41
23.81
22.35
20.85
19.13
17.15
15.01
12.91
10.84
8.6
5.79
1.97
-3.05
-9.02
-15.35
-21.38
-26.6
-30.95
-34.75
-38.55
-42.79
-47.7
-53.14
-58.77
-64.22
-69.2
-73.64
-77.68
-81.7
-86.26
-92.02
-99.59
-109.14
-120.17
-131.2
-139.96
-143.98
-141.36
-131.6
-115.74
-96.19
-75.79
-56.97
-41.01
-28.07
-17.44
-8.13
0.71
9.68
19.05
28.87
38.9
48.59
57.14
63.73
67.79
69.26
68.67
66.93
65.01
63.65
63.21
63.57
64.35
65.03
65.12
64.35
62.7
60.42
57.87
55.38
53.1
51.01
48.92
46.6
43.98
41.14
38.27
35.52
32.93
30.39
27.74
24.91
21.87
18.77
15.74
12.83
9.84
6.6
2.89
-1.23
-5.49
-9.55
-13.12
-16.11
-18.63
-20.92
-23.27
-25.88
-28.86
-32.22
-35.9
-39.79
-43.68
-47.48
-51.1
-54.66
-58.43
-62.91
-68.64
-76.04
-85.18
-95.41
-105.31
-112.84
-115.96
-113.25
-104.59
-91.11
-74.86
-58.08
-42.52
-29.13
-17.99
-8.65
-0.44
7.25
14.78
22.21
29.23
35.23
39.48
41.51
41.32
39.54
37.16
35.23
34.38
34.62
35.34
35.61
34.57
31.76
27.26
21.59
15.45
9.48
3.94
-1.33
-6.95
-13.79
-22.82
-34.89
-50.46
-69.12
-89.33
-108.16
-122.02
-127.6
-123.23
-109.68
-89.88
-67.66
-46.03
-26.3
-8.23
8.42
22.32
30.15
27.53
10.88
-20.9
-66.03
-120.4
-178.79
-235.77
-286.22
-325.43
-349.49
-355.85
-344.05
-316.16
-276.4
-230.4
-184.26
-143.58
-112.69
-93.76
-86.06
-86.02
-88.09
-86.5
-77.07
-58.2
-30.63
3.63
42.41
83.93
126.61
168.54
207.26
240.04
264.77
280.79
289.03
291.44
289.83
285.03
276.57
263.52
245.37
223.12
199.26
176.91
158.56
144.97
135.01
126.47
117.34
106.85
95.61
85
76.08
68.92
62.69
56.16
48.51
39.61
29.96
20.36
11.39
3.34
-3.8
-10.22
-16.28
-22.57
-30.05
-39.68
-51.9
-65.95
-79.45
-88.92
-90.94
-83.71
-68.17
-47.93
-27.98
-12.75
-4.45
-2.55
-4.7
-8.14
-11.15
-13.39
-15.39
-17.79
-20.75
-24.1
-27.78
-32.15
-37.9
-45.53
-54.91
-65.19
-75.22
-84.1
-91.77
-98.9
-106.58
-115.53
-125.57
-135.26
-142.1
-143.12
-135.83
-119.1
-93.76
-62.57
-29.56
1.11
26.42
45.32
58.62
68.43
76.98
85.55
94.25
102.15
108.18
111.85
113.46
113.88
113.87
113.69
113.07
111.83
110.4
110.04
112.48
118.99
129.71
143.34
157.66
170.33
179.76
185.58
188.52
189.71
189.82
188.4
183.89
174.21
158.06
135.93
110.27
84.74
62.71
45.98
34.29
25.84
18.66
11.6
4.74
-1.06
-5.07
-7.22
-8.08
-8.45
-8.89
-9.55
-10.32
-11.14
-12.17
-13.91
-16.9
-21.57
-27.98
-35.76
-44.07
-51.9
-58.4
-63.11
-66.19
-68.26
-70.03
-71.95
-73.99
-75.63
-76.2
-75.22
-72.55
-68.56
-63.81
-58.8
-53.81
-48.86
-43.89
-38.77
-33.58
-28.43
-23.41
-18.5
-13.65
-8.85
-4.21
0.02
3.65
6.76
9.8
13.36
17.92
23.47
29.52
35.39
40.58
45.21
49.87
55.22
61.24
67
71.09
72.61
72.27
72.66
77.44
89.8
111.1
140.19
173.91
208.17
238.87
262.41
275.61
275.92
262.07
235.2
199.57
162.17
130.96
112.22
108.49
117.82
134.84
153.06
167.27
174.85
175.67
170.82
160.93
145.3
122.21
90.5
51.29
8.78
-30.57
-60.27
-76.59
-80.22
-76.08
-71.19
-71.9
-81.73
-100.7
-126.21
-154.62
-182.64
-207.88
-228.77
-244.12
-252.95
-254.69
-249.54
-238.67
-224.23
-208.96
-195.49
-185.7
-180.22
-178.39
-178.55
-178.79
-177.69
-174.83
-170.75
-166.3
-161.79
-156.6
-148.97
-136.67
-117.94
-92.24
-60.63
-25.44
10.52
44.84
75.98
103.32
126.59
145.44
159.09
166.37
166.26
158.26
142.82
121.37
96.12
69.67
44.52
22.78
5.73
-6.25
-13.61
-17.49
-19.25
-20.08
-20.79
-21.8
-23.11
-24.59
-25.91
-26.65
-26.35
-24.61
-21.19
-16.04
-9.48
-2.13
4.93
10.18
11.8
8.11
-1.81
-17.45
-36.7
-56.4
-73.22
-84.83
-90.36
-90.24
-85.41
-76.62
-64.11
-48.19
-29.99
-11.88
2.63
9.85
7.26
-5.73
-27.42
-54.46
-82.73
-108.25
-127.74
-138.92
-140.63
-132.99
-117.55
-97.05
-74.92
-54.21
-36.7
-22.22
-8.69
7.05
27.92
55.42
89
126.35
164.19
199.25
229.01
252.04
268.08
277.97
283.31
285.98
287.21
287.04
283.97
275.53
259.4
234.43
201.2
161.72
118.56
74.2
30.89
-8.94
-42.4
-66.49
-79.24
-80.88
-74.36
-64.66
-56.7
-53.32
-53.91
-54.91
-51.65
-41
-22.99
-0.78
20.85
37.98
49.12
55.45
59.4
62.59
64.45
62.24
52.47
32.9
3.87
-31.71
-69.66
-105.98
-137.77
-162.92
-179.47
-185.08
-177.75
-157.17
-126.17
-90.89
-59.26
-38.27
-31.34
-37.13
-50.55
-65.15
-75.8
-80.45
-80.08
-77.46
-75.38
-75.48
-77.91
-81.69
-85.46
-88
-88.44
-86.2
-81.05
-73.15
-63.21
-52.39
-41.82
-31.87
-21.79
-9.99
4.92
22.83
41.47
56.92
65.03
63.31
52.15
34.98
17.14
4.16
0.28
7.56
25.58
51.42
80.08
105.3
121.15
124.05
114.15
95.5
74.49
57.42
48
46.31
49.4
53.16
54.4
52.17
47.82
44.08
43.57
47.48
54.91
62.78
66.79
62.81
48.33
23.23
-10.36
-49.09
-89.42
-128.42
-163.76
-193.48
-215.72
-228.87
-231.98
-225.24
-210.05
-188.83
-164.51
-140.08
-118.17
-100.58
-88.12
-80.58
-77.12
-76.71
-78.6
-82.29
-87.08
-91.5
-93.22
-89.8
-79.67
-63.12
-42.36
-20.73
-1.39
13.58
23.59
29.35
32.61
35.64
40.85
50.03
63.56
79.81
95.26
105.57
107.15
98.49
80.56
56.15
28.76
1.55
-22.96
-42.66
-55.44
-59.25
-52.71
-35.89
-11.04
17.62
44.66
64.8
74.27
71.67
58.04
36.19
9.81
-17.52
-42.77
-63.85
-79.63
-89.89
-95.39
-97.58
-98.31
-99.25
-101.52
-105.5
-111.05
-117.72
-125.02
-132.48
-139.54
-145.44
-149.44
-150.9
-149.72
-146.25
-141.15
-134.96
-127.79
-119.28
-108.92
-96.54
-82.64
-68.45
-55.37
-44.34
-35.41
-27.75
-20.07
-11.37
-1.35
9.51
20.29
30.06
38.21
44.54
49.12
52.08
53.59
53.86
53.32
52.55
52.12
52.37
53.28
54.52
55.66
56.47
57.1
58.08
60.07
63.54
68.42
74.1
79.64
84.11
87.02
88.4
88.59
88.14
87.36
86.41
85.32
84
82.33
80.1
77.06
72.99
67.88
62.02
55.91
50.08
44.8
40.06
35.59
31.12
26.5
21.64
16.46
10.83
4.67
-1.9
-8.44
-14.36
-19.15
-22.54
-24.56
-25.48
-25.6
-25.15
-24.22
-22.69
-20.38
-17.05
-12.51
-6.81
-0.31
6.29
12.22
16.88
20.17
22.41
24.26
26.31
28.86
31.89
35.1
38.18
40.98
43.45
45.61
47.43
48.85
49.77
50.22
50.35
50.32
50.27
50.18
49.93
49.43
48.65
47.58
46.24
44.52
42.24
39.26
35.52
31.13
26.23
20.97
15.37
9.34
2.82
-4.16
-11.39
-18.63
-25.62
-32.23
-38.53
-44.77
-51.24
-58.19
-65.75
-73.73
-81.63
-88.73
-94.2
-97.15
-96.89
-92.95
-85.22
-74.08
-60.44
-45.67
-31.37
-18.97
-9.36
-2.58
2.07
5.73
9.55
14.34
20.42
27.63
35.57
43.68
51.32
57.89
62.87
66
67.31
67.12
65.91
64.21
62.35
60.44
58.48
56.43
54.28
52.08
49.84
47.49
44.82
41.58
37.67
33.2
28.52
24.07
20.15
16.77
13.56
9.92
5.33
-0.48
-7.41
-15.09
-22.92
-30.07
-35.62
-38.69
-38.9
-36.69
-33.5
-31.45
-32.61
-38.02
-47.38
-59.13
-71.35
-82.61
-92.55
-101.63
-110.34
-118.28
-123.8
-124.47
-118.05
-103.75
-82.81
-58.44
-34.96
-16.43
-5.55
-2.94
-7.09
-14.89
-22.38
-25.8
-22.52
-11.86
4.64
23.54
40.65
52.44
57.25
55.64
49.95
43.09
37.48
34.38
33.89
35.38
38.1
41.36
44.56
47.13
48.44
48.02
45.75
41.95
37.33
32.8
29.06
26.44
24.85
23.85
23.01
21.99
20.87
20.05
20.1
21.47
24.27
28.09
32.07
35.16
36.55
35.88
33.48
30.11
26.75
24.12
22.49
21.63
21.08
20.22
18.61
16.14
13.05
10
7.76
6.93
7.38
8.24
8.05
5.3
-0.85
-10.24
-21.73
-33.86
-45.43
-56.03
-65.98
-76.04
-86.91
-99.05
-112.45
-126.76
-141.08
-153.94
-163.24
-166.55
-161.75
-147.83
-125.51
-97.24
-66.6
-37.19
-11.63
9.08
25.27
37.98
48.15
56.17
61.88
64.99
65.57
64.22
61.92
59.56
57.52
55.46
52.58
48.1
41.83
34.49
27.82
24.06
25.2
32.3
45.05
61.81
80.06
97.23
111.34
121.52
127.98
131.68
133.86
135.48
136.83
137.55
136.79
133.55
127.08
117.16
104.28
89.65
74.94
61.92
52.14
46.48
45.07
47.21
51.68
56.97
61.61
64.37
64.48
61.65
56.16
48.8
40.61
32.6
25.24
18.21
10.4
0.44
-12.63
-28.86
-47.03
-65.12
-80.89
-92.77
-100.2
-103.73
-104.56
-104.1
-103.64
-103.96
-105.39
-107.36
-108.5
-106.74
-100.03
-87.23
-68.97
-47.76
-27.22
-10.68
0.11
5.56
7.8
9.43
12.35
17.1
22.95
28.74
33.54
37.07
39.67
41.9
44.23
46.84
49.76
52.91
56.22
59.6
62.76
65.28
66.54
65.87
62.72
56.91
48.75
39.18
29.57
21.54
16.39
14.82
16.6
20.71
25.66
29.94
32.54
33.08
31.78
29.17
25.78
21.87
17.46
12.56
7.19
1.63
-3.77
-8.73
-13.2
-17.46
-21.96
-27.13
-33.14
-39.91
-47.01
-53.95
-60.23
-65.51
-69.59
-72.32
-73.61
-73.34
-71.44
-67.9
-62.82
-56.33
-48.6
-39.7
-29.72
-18.96
-8.04
2.09
10.38
16.02
18.73
18.82
16.99
13.89
9.95
5.36
0.26
-4.95
-9.42
-12.15
-12.28
-9.59
-4.64
1.36
7.09
11.59
14.56
16.35
17.66
19.04
20.55
21.75
21.89
20.36
17.04
12.43
7.66
3.99
2.49
3.63
7.19
12.38
18.14
23.5
27.78
30.71
32.39
33.06
33.04
32.58
31.85
30.96
29.92
28.63
26.94
24.6
21.43
17.36
12.49
7.06
1.34
-4.47
-10.36
-16.46
-22.9
-29.7
-36.58
-43.04
-48.45
-52.26
-54.08
-53.86
-51.82
-48.39
-44.13
-39.52
-35.06
-31.01
-27.46
-24.24
-20.95
-17.12
-12.36
-6.59
-0.09
6.4
12.06
16.19
18.57
19.57
20.06
21.06
23.4
27.39
32.75
38.77
44.63
49.69
53.71
56.94
60.06
63.82
68.75
74.73
80.72
84.9
85.08
79.64
68.13
51.67
32.61
13.91
-1.75
-12.42
-17.2
-16.22
-10.53
-2.11
6.34
11.84
11.97
5.53
-6.95
-23.37
-40.74
-56.04
-66.95
-72.26
-71.99
-67.25
-59.99
-52.6
-47.28
-45.63
-48.24
-54.74
-64.1
-74.95
-86.05
-96.25
-104.56
-110.1
-112.3
-111.04
-106.89
-100.81
-93.85
-86.82
-80.05
-73.45
-66.68
-59.47
-51.67
-43.22
-34.2
-24.91
-15.91
-8.04
-2.14
1.36
2.79
3.31
4.48
7.55
12.94
20.02
27.45
33.86
38.46
41.23
42.68
43.45
43.86
43.98
43.69
43.01
42.18
41.53
41.35
41.68
42.28
42.72
42.57
41.62
39.88
37.61
35.07
32.43
29.63
26.41
22.55
18.09
13.24
8.35
3.71
-0.63
-4.85
-9.16
-13.8
-18.82
-24.15
-29.65
-35.18
-40.65
-46.01
-51.19
-56.04
-60.47
-64.47
-68.03
-71.24
-74.06
-76.33
-77.62
-77.35
-74.86
-69.74
-62.03
-52.31
-41.52
-30.65
-20.41
-11.04
-2.38
5.91
14.08
22.02
29.46
35.98
41.41
45.86
49.73
53.48
57.47
61.73
66.04
70.05
73.41
75.93
77.55
78.43
78.89
79.31
79.98
80.87
81.53
81.26
79.32
75.43
69.91
63.68
57.88
53.43
50.66
49.39
49.14
49.32
49.35
48.53
45.96
40.71
32.22
20.88
8.13
-3.71
-12.42
-16.91
-17.71
-16.86
-16.93
-19.86
-26.34
-35.73
-46.76
-58.21
-69.35
-79.86
-89.48
-97.76
-104.15
-108.32
-110.57
-111.81
-113.27
-115.98
-120.44
-126.52
-133.67
-141.11
-148.03
-153.6
-157.07
-157.78
-155.48
-150.35
-143.05
-134.52
-125.63
-116.89
-108.41
-99.89
-90.84
-80.73
-69.17
-55.93
-41.22
-25.62
-10.07
4.3
16.5
26
32.78
37.39
40.68
43.54
46.69
50.53
55.07
59.97
64.66
68.62
71.51
73.35
74.36
74.82
74.83
74.26
72.87
70.49
67
62.42
56.94
50.76
44.27
37.95
32.22
27.19
22.5
17.42
11.19
3.57
-4.85
-12.78
-18.67
-21.45
-20.95
-17.99
-14
-10.35
-7.93
-6.95
-7.07
-7.74
-8.55
-9.28
-9.91
-10.62
-11.71
-13.6
-16.72
-21.3
-27.16
-33.67
-39.85
-44.79
-48
-49.54
-49.89
-49.58
-48.81
-47.31
-44.53
-39.9
-33.07
-24.11
-13.37
-1.41
11.07
23.32
34.54
44.12
51.71
57.31
61.16
63.62
64.91
65.16
64.5
63.19
61.7
60.56
60.18
60.63
61.68
62.95
64.05
64.81
65.18
65.17
64.75
63.81
62.17
59.74
56.5
52.56
48.17
43.61
39.21
35.18
31.61
28.31
24.95
21.03
16.28
10.7
4.65
-1.25
-6.44
-10.59
-13.74
-16.34
-18.94
-22.11
-26.14
-31.05
-36.58
-42.23
-47.49
-51.89
-55.24
-57.68
-59.73
-62.14
-65.57
-70.24
-75.66
-80.66
-83.58
-82.87
-77.55
-67.62
-54.02
-38.42
-22.71
-8.62
2.77
11.43
18.44
25.9
36.24
51.42
72
96.69
122.68
146.41
164.63
175.38
178.22
174.08
164.72
152.2
138.53
125.41
114.2
105.67
100.03
96.87
95.38
94.62
93.7
92
89.3
85.74
81.72
77.78
74.23
71.03
67.75
63.76
58.56
51.99
44.36
36.27
28.38
21.17
14.82
9.36
4.73
0.95
-2
-4.16
-5.82
-7.49
-9.75
-13
-17.29
-22.24
-27.2
-31.57
-35.07
-37.88
-40.53
-43.63
-47.6
-52.53
-58.18
-64.18
-70.12
-75.59
-80.15
-83.24
-84.3
-82.86
-78.87
-72.69
-65.08
-56.98
-49.23
-42.37
-36.6
-31.83
-27.93
-24.73
-22.17
-20.17
-18.61
-17.21
-15.61
-13.54
-10.81
-7.49
-3.7
0.43
4.91
9.86
15.4
21.38
27.32
32.57
36.53
39.06
40.69
42.52
45.81
51.47
59.68
69.76
80.51
90.63
99.25
106.06
111.27
115.29
118.42
120.69
121.89
121.77
120.2
117.26
113.22
108.41
103.16
97.63
91.86
85.77
79.25
72.24
64.78
56.98
48.97
40.86
32.65
24.29
15.59
6.41
-3.38
-13.71
-24.27
-34.57
-44
-52.18
-59.14
-65.35
-71.65
-78.88
-87.49
-97.36
-107.86
-118.02
-126.83
-133.42
-137.2
-137.85
-135.4
-130.36
-123.57
-115.98
-108.35
-100.82
-92.94
-83.85
-72.84
-59.61
-44.59
-28.75
-13.19
1.13
13.7
24.39
33.41
41.09
47.79
53.81
59.37
64.58
69.41
73.67
77.12
79.51
80.59
80.18
78.26
74.88
70.15
64.09
56.61
47.38
36.06
22.45
6.58
-11.05
-29.56
-47.74
-64.28
-77.98
-87.99
-94.07
-96.64
-96.64
-95.34
-93.86
-92.92
-92.65
-92.76
-92.81
-92.53
-91.86
-91.01
-90.25
-89.89
-90.23
-91.51
-93.99
-97.72
-102.33
-106.92
-109.98
-109.77
-104.85
-94.58
-79.52
-61.28
-42.05
-23.92
-8.33
4.14
13.78
21.29
27.49
33
38.12
42.89
47.19
50.93
54.03
56.57
58.69
60.56
62.42
64.41
66.66
69.24
72.07
74.98
77.66
79.72
80.88
81.03
80.31
79.09
77.73
76.48
75.36
74.15
72.57
70.47
68.05
65.86
64.66
65.04
66.88
69.13
69.85
66.74
57.97
42.97
22.76
-0.29
-23.31
-43.86
-60.59
-73.38
-82.96
-90.41
-96.57
-101.77
-105.79
-108.05
-107.81
-104.49
-97.94
-88.68
-77.77
-66.6
-56.44
-48.04
-41.5
-36.43
-32.34
-28.91
-26.12
-24.04
-22.57
-21.34
-19.74
-17.17
-13.28
-8.21
-2.4
3.54
9.18
14.46
19.6
24.95
30.58
36.23
41.26
44.97
46.91
47.21
46.51
45.63
45.06
44.74
44.28
43.25
41.53
39.14
35.77
30.5
21.86
8.67
-9.25
-30.7
-53.58
-75.93
-96.96
-117.17
-137.66
-159.02
-180.34
-199.28
-212.86
-218.75
-216.07
-205.63
-189.41
-169.75
-148.59
-127.1
-105.79
-84.83
-64.35
-44.81
-26.98
-11.63
0.75
10.29
17.55
23.39
28.45
32.89
36.41
38.44
38.41
35.92
30.7
22.65
11.8
-1.39
-15.92
-30.2
-42.38
-50.87
-54.75
-54.04
-49.47
-42.13
-33.03
-22.96
-12.46
-1.85
8.68
19.12
29.56
40.01
50.16
59.32
66.52
70.9
72.11
70.29
66.09
60.23
53.39
46.04
38.67
31.86
26.27
22.33
20
18.66
17.32
15.09
11.61
7.26
2.93
-0.39
-2.11
-2.2
-1.23
0.08
1.12
1.64
1.81
1.97
2.45
3.35
4.59
5.93
7.23
8.39
9.43
10.37
11.28
12.2
13.16
14.17
15.22
16.23
17.03
17.31
16.65
14.61
10.86
5.31
-1.87
-10.35
-19.69
-29.34
-38.79
-47.61
-55.47
-62.18
-67.5
-70.96
-71.83
-69.14
-61.91
-49.57
-32.23
-10.8
13.26
38.37
63.21
86.85
108.69
128.4
145.65
160.3
172.44
182.27
190.11
196.09
200.28
202.72
203.75
204.29
205.97
210.8
220.67
236.72
258.68
284.57
310.71
332.44
345.33
346.57
335.99
315.88
290.09
262.26
234.56
207.2
179.23
149.69
118.59
87
56.37
27.71
0.96
-24.8
-50.72
-77.57
-105.52
-134.28
-163.35
-192.26
-220.65
-248.32
-274.95
-299.89
-321.98
-339.6
-350.89
-354.49
-350.09
-338.69
-322.53
-304.47
-287.21
-273.01
-263.41
-259.4
-261.48
-269.4
-281.69
-295.44
-306.61
-311
-305.58
-289.41
-263.99
-232.63
-199.23
-167.07
-138.13
-113.05
-91.68
-73.7
-58.93
-47.28
-38.36
-31.2
-24.28
-16.07
-5.71
6.4
18.5
28.15
33.31
33.54
30.59
28.01
30.05
40.23
60.24
89.57
125.76
165.1
203.3
236.31
261.13
276.76
284.6
288.21
291.91
298.91
309.65
321.37
329.2
328.16
315.18
290
254.68
212.04
164.21
111.96
55.52
-4.11
-64.05
-119.41
-164.9
-196.84
-214.81
-221.91
-223.24
-223.7
-226.22
-231.26
-237.76
-244.64
-251.79
-260.05
-270.36
-282.88
-296.63
-310.06
-321.79
-331.18
-338.2
-342.89
-344.7
-342.33
-334.2
-319.1
-296.91
-268.7
-236.43
-202.15
-167.42
-132.84
-98.25
-62.91
-25.98
13.03
53.82
95
134.09
168.03
194.08
210.8
218.7
219.94
217.51
214
210.94
208.64
206.94
205.82
205.76
207.51
211.37
216.71
221.94
225.21
225.09
221.4
215.14
208.06
201.66
196.64
192.62
188.5
183.09
175.64
166.06
154.8
142.6
130.3
118.74
108.72
100.66
94.31
88.52
81.48
71.25
56.72
38.08
17.09
-3.52
-20.81
-32.42
-37.27
-35.81
-30.05
-23.08
-18.41
-18.89
-25.91
-38.9
-55.64
-73.22
-89
-101.51
-110.35
-116.04
-119.4
-121.31
-122.64
-124.39
-127.72
-133.52
-142.02
-152.35
-162.52
-169.89
-171.95
-167.23
-155.66
-138.72
-118.76
-98.5
-80.26
-65.72
-55.86
-50.96
-50.51
-52.8
-54.97
-53.3
-44.21
-25.43
3.27
40.07
82.11
126.69
172.08
217.27
261.09
301.01
332.98
352.32
355.36
341.07
311.67
272.1
228.35
185.87
148.33
117.23
92.36
72.5
56.15
41.94
28.89
16.65
5.99
-0.9
-0.52
11.03
36.21
74.24
120.11
165.27
199.95
216.52
212.03
189.3
155.67
120.17
90.46
70.52
60.15
55.97
53.43
48.87
40.76
29.94
18.83
10.3
6.37
7.41
12.15
18.11
22.44
22.86
18.37
9.63
-1.15
-11.06
-17.59
-19.78
-18.74
-17.37
-19.3
-27.61
-44.2
-69.66
-103.88
-146.22
-195.26
-248.03
-299.36
-342.52
-370.71
-379.45
-368.2
-340.69
-303.56
-264.02
-227.82
-198.03
-175.13
-158.08
-145.53
-136.47
-130.53
-127.5
-126.85
-127.57
-128.26
-127.53
-124.51
-118.96
-111.11
-101.27
-89.63
-76.21
-61.22
-45.25
-29.39
-14.89
-2.72
6.76
13.92
19.5
24.34
28.98
33.59
37.95
41.49
43.63
43.86
42.11
39.06
36.35
36.31
41.49
53.52
72.24
95.27
118.54
137.44
148.3
149.43
141.39
126.45
107.68
88.04
70.05
55.59
46
41.72
42.1
45.34
48.85
50.19
47.93
42.26
34.81
27.83
23.24
21.68
22.49
24.11
24.95
24.15
21.94
19.38
17.86
18.44
21.32
25.9
31.01
35.39
38.05
38.49
36.67
32.84
27.48
21.16
14.63
8.66
4.08
1.6
1.52
3.58
7.07
10.95
14.19
16.13
16.6
15.9
14.68
13.48
12.49
11.41
9.54
6.22
1.35
-4.37
-9.47
-12.21
-11.13
-5.65
3.87
16.45
30.93
46.36
62
77.1
90.59
101.1
107.47
109.32
107.33
103.02
98.04
93.1
87.58
79.63
67.19
49.11
25.89
-0.39
-26.76
-50.46
-69.83
-84.6
-95.75
-104.75
-112.69
-119.78
-125.17
-127.3
-124.78
-117.16
-105.25
-91.02
-76.87
-64.77
-55.72
-49.6
-45.4
-41.75
-37.34
-31.12
-22.62
-12.13
-0.71
9.81
17.6
21.46
21.3
18.16
13.52
8.36
2.71
-4.17
-13.05
-23.68
-34.46
-42.99
-47.21
-46.39
-41.49
-34.55
-27.51
-21.76
-18.14
-17.62
-21.56
-30.62
-43.43
-55.83
-61.65
-55.37
-35.03
-3.61
32.11
64.79
90.02
107.65
120.4
130.82
138.55
140.05
130.79
108.46
74.95
36
-1.38
-31.76
-52.88
-65.33
-70.77
-70.28
-63.86
-51.24
-33.01
-11.31
10.5
28.9
41.16
45.91
43.16
33.88
19.68
2.5
-15.77
-33.74
-50.71
-66.57
-81.41
-94.71
-104.86
-109.33
-105.6
-92.31
-70.11
-41.72
-11.02
18.31
43.77
64.49
80.69
92.52
99.47
100.3
94.01
80.79
62.46
42.01
22.43
5.65
-7.59
-17.34
-23.59
-26.12
-24.79
-20.3
-14.53
-10.23
-10.09
-15.73
-27.12
-42.67
-59.74
-75.25
-86.27
-90.51
-86.69
-74.97
-57.22
-36.68
-17.46
-3.72
1.23
-4.28
-19.6
-41.32
-63.69
-79.95
-84.75
-76.27
-57.34
-34.74
-16.63
-9.47
-15.38
-31.66
-51.94
-68.84
-76.67
-72.99
-58.9
-37.99
-14.74
6.95
24.51
36.9
44.15
46.87
46.17
43.69
41.63
42.36
47.89
59.27
76.6
99.06
125.07
152.48
178.49
200.12
214.54
219.78
214.83
199.5
174.13
139.64
98.21
53.63
11.29
-23.22
-45.9
-55.69
-54.78
-47.88
-40.94
-39.44
-47.03
-64.06
-86.97
-109.3
-123.94
-126.37
-116.92
-101.03
-86.75
-81.35
-88.15
-105.83
-129.87
-154.84
-176.31
-191.36
-198.47
-197.35
-189.43
-178.07
-168.09
-164
-167.85
-177.75
-187.84
-190.48
-179.44
-152.99
-115.02
-73.95
-39.44
-18.58
-13.32
-20.1
-31.8
-40.82
-41.83
-33.04
-15.85
6.52
30.6
53.49
73.29
88.89
99.8
105.93
107.6
105.42
100.19
92.87
84.37
75.45
66.61
58.13
50.16
42.79
36.25
31
27.7
26.81
28.17
30.66
32.44
31.77
28.05
22.15
15.98
11.13
7.42
2.61
-6.8
-23.54
-47.78
-76.49
-104.39
-126.08
-138.14
-140.13
-134.16
-123.51
-110.87
-97.47
-82.85
-65.69
-44.89
-20.5
5.83
31.29
52.72
67.48
74
72.12
63.2
50.44
38.9
34.74
43.49
67.61
104.52
146.64
184
208.41
217.13
213.86
206.47
202.69
205.97
214.22
221.49
221.51
210.8
189.74
161.55
130.33
99.58
71.72
48.59
31.76
22.34
20.41
24.7
33.11
43.38
53.85
63.44
71.17
75.74
75.57
69.54
57.46
40.18
18.85
-5.8
-33.71
-64.87
-98.1
-130.33
-156.85
-173.07
-176.46
-168.13
-152.58
-136.04
-123.95
-118.79
-119.4
-121.83
-121.26
-114.11
-99.33
-78.48
-54.83
-32.1
-13.2
0.3
8.29
11.81
12.53
12.07
11.33
10.1
6.97
0.04
-12.01
-28.59
-46.7
-61.47
-67.87
-62.73
-46.17
-21.68
5.22
29.09
46.53
56.94
62.01
64.29
65.43
65.41
62.63
54.97
40.92
20.48
-4.87
-32.71
-60.6
-86.61
-109.46
-128.26
-142.21
-150.61
-153.2
-150.61
-144.54
-137.47
-131.93
-129.74
-131.52
-136.58
-143.29
-149.73
-154.26
-156.08
-155.31
-152.98
-150.54
-149.47
-150.88
-155
-161.16
-167.74
-172.61
-173.56
-168.97
-158.24
-141.93
-121.42
-98.54
-74.93
-51.66
-29.1
-7.1
14.72
36.58
58.57
80.62
102.67
124.76
146.83
168.7
189.86
209.7
227.6
243.29
256.86
268.56
278.44
286.03
290.52
291.36
288.91
284.71
280.88
278.93
278.6
277.74
273.43
263.68
248.61
230.19
210.75
191.23
170.64
147.09
119.69
89.81
60.88
36.81
20.21
11.56
9.8
13.48
21.63
33.54
47.59
60.47
67.57
64.48
49.18
23.23
-8.67
-40.57
-67.63
-87.72
-101.54
-111.3
-119.08
-125.53
-129.89
-130.64
-126.87
-118.88
-107.99
-95.84
-83.58
-71.6
-59.6
-47.06
-33.66
-19.6
-5.88
5.81
13.45
15.44
11.13
1.25
-12.27
-27.18
-41.4
-53.47
-62.47
-67.68
-68.42
-64.23
-55.24
-42.55
-28.21
-14.52
-3.37
4.4
9.07
11.78
13.94
16.68
20.4
24.68
28.56
30.99
31.42
30.04
27.75
25.72
24.81
25.13
25.94
26.07
24.43
20.74
15.93
12.04
11.55
16.42
27.23
42.81
60.71
78.06
92.64
103.26
109.83
112.82
112.85
110.43
105.73
98.45
87.69
72.03
50.14
21.72
-11.57
-45.74
-75.37
-95.36
-102.79
-98.08
-84.76
-68.02
-52.8
-42.21
-37.15
-36.79
-39.69
-44.8
-51.7
-60.36
-70.35
-80.28
-87.86
-90.5
-86.3
-74.71
-56.92
-35.49
-13.61
5.81
20.71
30.25
34.88
36.16
36.27
37.23
40.24
45.29
51.38
57.04
60.97
62.57
61.71
58.55
53.22
46.06
38.24
32.15
31.35
39.2
57.31
83.95
114.06
140.42
155.87
155.29
136.85
102.13
55.35
2.51
-49.43
-93.27
-122.61
-133.5
-125.92
-104.73
-78.84
-58.84
-53.85
-68.53
-101.45
-145.19
-188.34
-218.59
-226.27
-207.35
-164.89
-108.41
-50.88
-4.76
21.9
27.4
16.02
-4.53
-26.24
-43.16
-52.52
-54.61
-52.1
-49.13
-50.15
-58.3
-73.9
-93.73
-111.79
-121.7
-119.4
-104.9
-82.03
-56.3
-32.5
-13.06
1.76
12.56
19.6
22.59
21.52
17.76
14.15
14.19
20.33
32.71
49.1
65.95
79.76
88.01
89.2
82.5
67.5
44.6
15.62
-16.03
-46.1
-70.92
-88.69
-99.94
-106.76
-111.46
-115.38
-118.71
-121.09
-122.55
-123.82
-125.78
-128.61
-131.2
-131.34
-126.7
-115.98
-99.49
-79.11
-57.39
-36.5
-17.48
0.07
17.56
36.63
58.33
82.56
108.06
132.94
155.65
175.55
193
208.68
222.6
233.6
239.59
238.81
230.81
217.04
200.08
182.58
166.24
151.63
138.8
128.13
120.34
115.82
113.49
110.52
103.26
89.29
69.3
47.36
29.45
20.81
23.49
35.75
53.09
70.44
83.91
91.51
92.69
87.48
75.81
57.66
33.52
4.68
-26.89
-59.05
-90.03
-118.56
-143.59
-163.87
-177.45
-181.91
-175.24
-156.77
-128.24
-94.15
-61.14
-36.77
-27.44
-36.46
-62.82
-101.1
-142.92
-179.33
-203.52
-212.71
-208.43
-195.2
-178.29
-161.6
-146.66
-133.12
-119.92
-106.35
-92.36
-78.18
-63.8
-48.85
-33.08
-16.79
-1.07
12.54
22.89
29.72
33.87
36.79
39.92
43.97
48.68
52.87
54.7
52.39
44.94
33.02
19.27
7.97
3.6
9.12
24.44
46.18
68.92
87.23
97.8
100.14
96.13
88.47
79.42
70.21
61.29
53.01
45.88
40.5
37.11
35.37
34.43
33.19
30.66
26.15
19.33
10.21
-0.87
-13.43
-27.22
-42.56
-60.22
-80.96
-104.67
-129.79
-153.39
-171.97
-182.73
-184.53
-178.13
-165.64
-149.4
-131.26
-112.18
-92.52
-72.62
-53.08
-34.87
-19.05
-6.3
3.32
10.37
15.77
20.41
24.77
28.9
32.49
35.24
37.06
38.12
38.8
39.5
40.65
42.58
45.62
50.15
56.64
65.75
78.23
94.87
116.23
142.17
171.65
202.67
232.45
257.97
276.53
286.28
286.58
278.08
262.52
242.38
220.25
198.38
178.15
160.13
144.16
129.67
115.94
102.31
88.23
73.49
58.39
43.73
30.58
19.85
11.75
5.61
0.05
-6.32
-14.28
-23.57
-33
-41.07
-46.66
-49.4
-49.69
-48.32
-46.02
-43.23
-40.05
-36.39
-32.21
-27.5
-22.4
-17.09
-11.81
-6.78
-2.16
2.11
6.22
10.39
14.65
18.68
21.8
23.32
22.83
20.41
16.69
12.59
9.1
7.23
8
12.29
20.4
31.39
42.73
50.8
52.17
45.05
30.22
10.71
-9.61
-27.5
-41.52
-51.92
-59.88
-66.73
-73.44
-80.75
-89.28
-99.4
-110.81
-122.39
-132.45
-139.48
-143.07
-144.12
-144.32
-145.28
-147.74
-151.29
-154.92
-157.66
-159.22
-160.15
-161.65
-165.09
-171.48
-181.06
-192.98
-205.31
-215.45
-220.7
-219.14
-210.2
-194.92
-175.55
-154.97
-135.94
-120.34
-108.56
-99.18
-88.95
-73.49
-48.68
-12.11
35.57
90.35
145.79
194.94
232.41
255.7
265.53
264.87
257.57
247.03
235.6
224.52
214.32
205.15
196.92
189.16
180.87
170.58
156.74
138.5
116.2
91.52
67.06
45.56
29.02
18
11.78
8.71
6.98
5.31
3.21
1
-0.57
-0.84
0.26
2.17
3.81
4
2.03
-2.08
-7.66
-13.5
-17.93
-18.83
-13.73
-0.46
21.77
51.19
83.07
110.59
126.64
126.18
107.66
73.24
27.34
-25.09
-80.04
-134.77
-187.16
-234.86
-275
-304.82
-322.81
-329.46
-327.33
-319.81
-309.6
-297.28
-281.3
-259.2
-229.64
-193.86
-155.95
-121.33
-94.36
-76.4
-65.3
-56.62
-45.93
-30.92
-12.2
7.38
24.47
36.97
44.85
49.76
53.8
58.42
63.71
68.8
72.62
74.66
75.3
75.56
76.49
78.63
81.81
85.21
87.87
89.07
88.54
86.59
83.87
81.08
78.7
76.71
74.69
71.99
68.08
62.83
56.7
50.5
45.09
40.95
37.9
35.22
31.89
27.12
20.54
12.37
3.22
-6.21
-15.28
-23.44
-30.14
-34.65
-36.1
-33.77
-27.39
-17.37
-4.7
9.53
24.53
39.98
55.66
71
84.48
93.63
95.67
88.48
71.44
45.89
14.81
-17.86
-48.08
-72.14
-86.89
-89.7
-78.6
-52.91
-13.82
34.9
87.01
134.67
170.16
187.94
186.27
167.66
138.06
105.02
75.6
54.75
44.62
44.97
54.1
69.83
90.01
112.44
134.54
153.12
164.74
166.52
157.14
137.47
110.42
80.19
50.97
25.88
6.36
-7.68
-17.24
-23.57
-27.67
-30.19
-31.58
-32.35
-33.08
-34.35
-36.53
-39.44
-42.34
-43.95
-42.81
-37.8
-28.62
-16.05
-1.68
12.46
24.66
33.78
39.33
41.06
38.71
31.77
19.95
3.88
-14.13
-29.93
-38.45
-35.38
-19.06
8.47
41.74
73.52
97.02
107.89
105.31
91.73
71.55
49.44
28.86
11.26
-3.77
-17.59
-31.37
-45.33
-58.42
-68.75
-74.23
-73.42
-66
-52.77
-35.41
-16.21
2.27
17.24
25.86
25.86
16.29
-1.69
-24.67
-47.85
-66.56
-77.95
-81.88
-80.75
-77.79
-75.24
-73.18
-69.95
-63.9
-55.17
-46.14
-40.36
-40.55
-46.9
-56.99
-67.06
-73.89
-76.27
-75.08
-72.21
-69.24
-66.5
-63.14
-58.05
-50.61
-41.04
-30.09
-18.4
-6.14
6.83
20.51
34.27
46.69
55.82
60.1
59.08
54.28
49.37
49.72
60.77
85.84
124.04
169.43
212.3
242.04
250.76
235.8
199.91
149.54
92.22
34.4
-19.23
-65.26
-100.97
-124.16
-133.91
-131.4
-120.03
-104.73
-90.52
-81.1
-77.96
-79.92
-83.16
-81.92
-70.07
-43.44
-2.24
47.96
97.19
134.32
150.81
143.48
114.91
71.52
20.68
-31.7
-82.11
-128.79
-170.5
-205.69
-232.61
-250.17
-258.38
-258.57
-252.51
-241.65
-226.28
-205.72
-178.89
-145.82
-108.89
-73.11
-45.1
-30.88
-33.13
-49.43
-72.41
-92.02
-99.18
-89.23
-63.97
-31.14
-1.64
14.79
13.38
-3.62
-27.68
-47.16
-51.31
-34.04
4.19
56.93
114.22
165.88
204.53
227.04
234.59
231.53
223.74
217.02
215.62
221.38
232.98
246.22
254.89
252.25
233.06
195.32
141.28
77.31
12.27
-44.94
-87.97
-114.78
-127.84
-132.79
-136.09
-142.59
-153.81
-167.61
-179.07
-182.2
-172.22
-147.58
-111.13
-69.8
-32.62
-7.65
0.94
-5.67
-21.85
-40.27
-55.01
-63.48
-66.26
-65.48
-62.79
-58.47
-51.82
-42.26
-30.45
-18.21
-7.85
-1.05
1.9
1.98
0.73
-0.72
-2.18
-4.37
-8.31
-14.43
-22.11
-29.7
-35.11
-36.64
-33.58
-26.19
-15.35
-1.76
14.38
33.14
54.23
76.28
96.56
111.49
117.84
113.93
100.4
80.05
56.94
35.15
17.7
6.03
0.08
-1.47
-0.71
-0.13
-2.18
-8.64
-20.03
-35.19
-51.36
-64.87
-72.22
-71.2
-61.3
-43.62
-20.09
7.14
35.87
63.68
87.76
105.34
114.6
115.88
111.94
107.03
105.04
107.56
113.32
119.04
121.5
119.29
113.28
105.82
99.06
93.64
88.5
81.52
70.52
53.94
30.98
1.6
-33.51
-72.62
-112.78
-150.1
-180.53
-201.03
-210.5
-210.06
-202.59
-191.66
-180.28
-169.91
-160.27
-149.82
-137.05
-121.56
-104.65
-88.89
-77
-70.48
-69.05
-70.69
-72.7
-72.83
-69.97
-64.22
-56.31
-46.99
-36.68
-25.57
-13.99
-2.41
8.61
18.71
28.02
37.03
46.42
56.43
66.61
75.94
83.55
89.61
95.5
103.45
115.21
130.88
148.3
163.58
172.49
171.92
160.92
140.77
114.34
85.3
57.37
33.99
17.8
10.29
11.15
18.2
27.79
36.04
40.1
38.94
33.3
24.68
14.3
2.41
-11.42
-27.39
-44.5
-60.49
-72.51
-78.19
-76.58
-68.55
-56.67
-45.03
-38.56
-42.11
-58.8
-88.48
-126.79
-165.82
-196.51
-211.97
-210.13
-194.44
-172.17
-151.25
-137.11
-131.14
-131.1
-133.17
-133.95
-131.71
-126.12
-117.25
-104.47
-86.47
-62.19
-31.89
2.51
38.49
74.17
108.86
142.13
172.4
195.94
207.92
204.99
187.78
161.73
135.18
115.93
108.03
110.68
119.55
129.52
136.94
140.35
139.66
134.83
125.24
109.99
88.91
63.46
36.64
12.22
-6.53
-17.79
-21.37
-18.03
-8.91
4.68
20.95
37.16
49.7
55.11
51.54
39.68
22.65
4.57
-11.11
-22.84
-30.85
-36.06
-39.12
-40.01
-38.83
-36.77
-36.45
-41.16
-53.36
-73.1
-97.45
-121.34
-139.42
-147.99
-146.3
-136.42
-121.97
-106.37
-91.51
-77.35
-62.6
-45.85
-26.67
-5.98
14.27
31.98
45.63
54.54
58.91
59.35
56.9
52.93
49.08
47.27
49.29
56.3
68.38
84.47
102.38
119.19
131.54
136.05
129.97
112.07
83.43
47.6
9.94
-23.76
-48.96
-63.39
-67.59
-64.67
-59.35
-56.58
-59.85
-69.61
-82.79
-93.78
-96.86
-88.86
-70.62
-46.35
-21.18
1.64
21.77
40.67
59.09
75.15
84.52
82.67
67.79
42.39
12.61
-14.59
-34.41
-45.46
-49.37
-49.03
-47.01
-44.77
-43.42
-44.46
-50.39
-63.81
-85.53
-112.81
-138.67
-153.79
-150.14
-124.88
-82.36
-32.98
10.9
39.85
50.59
46.16
33.06
17.46
2.79
-10.06
-20.57
-26.44
-23.25
-6.39
25.86
70.24
118.66
161.15
189.71
201.07
197.05
182.61
162.62
139.66
113.54
82.8
46.83
7.38
-31.37
-64.25
-86.62
-95.54
-89.94
-70.46
-39.51
-1.53
36.94
68.6
87.45
90.96
81
62.8
42.31
23.49
6.98
-8.95
-26.04
-43.86
-59.4
-68.52
-68.53
-59.77
-45.69
-31.24
-20.91
-16.98
-19.34
-25.94
-33.77
-39.42
-39.62
-31.94
-15.83
5.95
27.17
39.64
36.47
15.69
-18.09
-55.11
-84.62
-99.63
-99.69
-90.21
-79.05
-72.28
-71.73
-75.16
-78.59
-78.77
-74.54
-66.64
-56.71
-46.59
-37.91
-32.25
-31.09
-35.3
-44.68
-57.79
-72.17
-84.83
-92.94
-94.28
-87.63
-73.19
-52.78
-29.72
-8.1
8.49
18.31
22.11
22.67
23.53
27.24
34.27
43
50.66
54.94
55.09
52.13
48.28
45.75
45.68
47.97
51.39
54.15
54.38
50.46
41.38
27.19
9.48
-8.71
-23.63
-32.38
-34.5
-32.53
-31.3
-35.97
-49.73
-72.44
-100.7
-129.2
-152.66
-167.52
-172.46
-168.18
-156.58
-139.83
-119.8
-97.77
-74.52
-50.53
-26.18
-1.92
21.63
43.7
63.4
79.91
92.69
101.77
107.88
112.34
116.71
122.19
129.09
136.55
142.67
145.28
142.94
136.04
127.3
121.64
124.68
140.8
170.92
211.31
253.93
288.51
305.62
299.64
270.41
223.15
166.44
109.47
59.32
19.49
-10.22
-32.45
-50.52
-66.7
-81.56
-94.16
-103
-107.09
-106.5
-102.27
-95.87
-88.61
-81.46
-75.13
-70.36
-67.75
-67.5
-69.14
-71.58
-73.57
-74.36
-74.14
-73.74
-73.81
-74
-72.63
-67.33
-56.21
-39.06
-17.96
3.12
19.43
26.86
23.31
9.45
-11.21
-33.05
-49.8
-55.81
-47.35
-23.17
15.16
63.31
114.65
161.12
194.77
209.66
203.48
178.26
139.72
95.23
51.58
13.36
-17.28
-39.85
-54.34
-60.78
-59.41
-51.42
-39.19
-25.96
-14.9
-8.2
-6.49
-9.02
-14.22
-20.36
-26.09
-30.48
-32.84
-32.22
-27.31
-16.7
-0.01
20.94
41.77
56.58
60.26
51.2
32.58
11.32
-4.83
-10.85
-6.57
3.89
14.85
22.44
26.46
29.74
35.89
46.7
61.12
75.83
86.98
91.78
89.09
78.85
61.12
35.63
2.46
-36.23
-75.24
-106.78
-123.03
-119.63
-98.3
-66.75
-35.96
-15.99
-12.56
-25.8
-51.42
-83.33
-115.9
-144.92
-167.43
-181.19
-184.73
-178.04
-163.08
-143.57
-123.75
-106.81
-93.85
-83.77
-74.39
-63.73
-51.08
-37.18
-23.73
-12.52
-4.62
0.04
2.67
5.35
10.52
20.37
36.02
56.71
79.18
98.1
107.54
103.18
84.36
54.58
20.42
-11
-34.55
-48.41
-53.62
-52.38
-46.43
-36.29
-22.1
-4.82
12.92
27.29
35.07
35.52
31.18
26.93
27.79
36.54
52.51
72.19
91.06
105.53
114.02
116.48
113.43
105.32
92.64
76.75
60.19
46.05
36.57
31.84
29.59
26.35
19.19
7.13
-8.6
-25.33
-40.18
-50.8
-55.55
-53.47
-44.23
-28.5
-8.22
13.66
34.02
50.74
63.55
74.1
84.97
98.45
115.08
132.98
147.94
154.47
147.64
125.03
88.1
42.26
-4.63
-44.85
-73.42
-89.54
-96.08
-97.66
-98.12
-99.02
-99.52
-97.7
-92.36
-83.97
-74.5
-66.26
-60.59
-57.15
-54.3
-50.2
-44.02
-36.67
-30.34
-27.46
-29.38
-35.52
-43.46
-50.05
-52.82
-51.18
-46.62
-42.14
-40.75
-44.27
-52.6
-64.06
-76.23
-86.83
-93.99
-96.23
-92.1
-80.48
-61.32
-36.58
-10.52
11.28
23.95
25.53
18.01
6.67
-2.12
-3.59
3.75
18.01
35.3
51.76
64.98
74.36
80.56
84.56
87
88.16
88.46
88.83
90.57
94.53
100.2
105.3
106.55
101.28
89.14
72.7
56.44
44.48
38.48
36.85
35.86
31.96
23.91
13.65
5.02
1.84
6.17
17.85
35.23
56.4
79.59
102.93
123.76
138.47
143.58
137.31
120.84
98.37
75.83
58.77
50.36
50.41
55.45
60.11
58.73
46.93
22.8
-12.7
-55.74
-100.52
-140.54
-170.1
-185.58
-186.17
-173.81
-152.74
-128.81
-108.11
-95.51
-93.19
-100.05
-112.45
-126.2
-138.43
-148.65
-158.29
-168.79
-180
-189.56
-193.86
-189.93
-177.05
-156.89
-132.53
-106.81
-81.31
-56.62
-33.11
-11.46
7.38
22.7
34.23
41.87
45.11
43
34.63
20.25
2.08
-15.93
-29.4
-35.21
-32.59
-23.05
-9.11
7.1
24.68
43.7
64.21
85.4
105.68
123.34
137.45
148.36
157.34
165.7
173.81
180.93
185.69
186.88
184.11
177.65
168.12
155.99
141.33
123.93
103.51
79.96
53.35
24.11
-6.82
-37.7
-66.18
-89.84
-107.05
-117.81
-123.63
-126.89
-129.57
-132.43
-134.93
-135.94
-134.66
-131.12
-125.97
-119.6
-111.24
-98.57
-78.32
-47.3
-4.06
49.92
109.89
168.29
216.3
246
252.53
235.37
198.71
150.18
98.67
51.99
15.33
-9.06
-20.99
-21.1
-10.09
11.3
41.7
78.64
118.5
156.87
189.22
211.43
220.29
214.03
193.02
160.21
120.8
81.18
47.01
21.52
4.77
-5.92
-14.35
-23.8
-35.99
-50.93
-67.53
-84.52
-100.94
-116.19
-129.94
-141.79
-151.32
-158.19
-162.38
-164.27
-164.51
-163.68
-162.07
-159.48
-155.45
-149.75
-142.74
-135.46
-129.36
-125.82
-125.64
-128.77
-134.33
-140.73
-146.04
-148.22
-145.57
-137.03
-122.42
-102.44
-78.33
-51.35
-22.37
8.13
39.61
70.86
99.59
122.53
136.22
137.95
126.84
104.29
73.77
40.12
8.33
-17.58
-35.12
-43.54
-43.33
-35.81
-22.69
-5.98
12.05
28.82
41.9
49.55
51.39
48.45
42.85
36.91
32.31
29.66
28.57
28.09
27.42
26.19
24.58
23.13
22.28
22.29
23.14
24.55
25.96
26.55
25.15
20.47
11.76
-0.51
-14.26
-26.23
-32.97
-32.3
-24.02
-9.93
7.11
24.49
40.5
54.46
66.08
75.05
80.96
83.71
84.02
83.54
84.32
87.99
95.04
104.57
114.63
122.85
127.21
126.57
120.94
111.32
99.21
86.08
73.02
60.81
50.08
41.76
36.99
36.61
40.57
47.56
55.25
61.11
63.38
61.6
56.35
48.69
39.4
28.82
17.03
4.36
-8.49
-20.48
-30.79
-39.14
-45.94
-52.07
-58.42
-65.51
-73.36
-81.73
-90.27
-98.76
-106.93
-114.33
-120.17
-123.34
-122.83
-118.15
-109.69
-98.71
-87.05
-76.5
-68.24
-62.65
-59.33
-57.47
-56.07
-54.31
-51.51
-47.21
-41.25
-33.82
-25.57
-17.45
-10.54
-5.58
-2.81
-1.93
-2.31
-3.36
-4.74
-6.4
-8.47
-11.14
-14.62
-19.2
-25.24
-32.91
-41.92
-51.19
-58.93
-63.05
-61.91
-54.85
-42.49
-26.56
-9.44
6.42
19.09
27.62
32.27
34.41
36.16
39.62
46.19
56.02
67.97
80.13
90.39
97.1
99.3
96.91
90.67
82.42
74.9
71.03
72.77
79.87
89.58
97.65
100.43
96.61
87.78
77.3
67.97
60.59
53.75
45.45
34.99
23.88
14.85
9.9
8.7
8.53
5.88
-1.44
-13.18
-27.07
-40.39
-51.53
-60.59
-68.72
-76.91
-85.04
-91.95
-96.1
-96.56
-93.39
-87.41
-79.57
-70.31
-59.61
-47.38
-33.87
-19.87
-6.25
6.42
18.04
28.4
36.49
40.09
36.34
22.98
-0.16
-30.48
-63.22
-93.17
-116.34
-130.78
-136.41
-134.16
-125.46
-112.22
-97.23
-84.16
-76.92
-78.39
-89.16
-107.27
-128.73
-148.9
-163.91
-171.52
-171.3
-164.22
-152.03
-136.72
-120.16
-103.89
-88.92
-75.66
-63.87
-52.72
-40.9
-27.04
-10.06
10.36
33.8
59.08
84.83
109.9
133.51
155.3
175.03
192.42
207
218.34
226.33
231.41
234.38
235.79
235.42
231.98
223.76
209.48
189.2
164.65
138.6
113.94
92.68
75.75
63.26
55.24
51.81
53.18
59
67.95
77.72
85.32
87.74
82.29
66.93
40.6
3.61
-41.94
-92.1
-141.47
-184.29
-215.66
-232.67
-234.91
-224.19
-203.91
-178.17
-151.18
-126.73
-107.82
-96.08
-91.02
-89.57
-86.42
-75.42
-51.88
-14.74
32.47
82.38
126.07
156.01
168.29
163.5
146.01
122.15
98.33
79.29
67.25
61.57
59.28
56.22
48.68
35.08
17.01
-1.09
-13.3
-14.44
-1.82
23.81
58.49
96.13
129.85
153.14
160.81
149.73
119.32
71.93
12.88
-50.02
-107.17
-148.58
-165.88
-154.76
-117.1
-61.57
-1.86
47.41
75.96
81.44
69.64
50.98
35.06
26.73
25.34
27.31
29.75
32.56
37.73
46.9
59.3
71.42
78.93
79.22
72.74
62.31
51.13
40.56
29.12
13.36
-9.93
-41.38
-77.66
-111.98
-136.37
-145.16
-137.84
-119.82
-100.06
-87.02
-84.62
-90.83
-99.81
-105.89
-107.13
-106.25
-108.4
-117.38
-132.56
-148.18
-155.43
-146.06
-115.87
-66.94
-7.78
48.88
89.96
106.1
94.88
61.65
17.43
-24.99
-55.5
-69.4
-67.71
-55.4
-38.71
-23.33
-13.31
-11.01
-16.69
-28.35
-41.48
-49.86
-47.31
-30.03
1.76
43.59
88.14
127.75
156.73
172.79
176.83
171.76
160.94
147.24
132.54
117.79
103.23
88.52
73.04
56.24
38.33
20.79
6.11
-3.08
-5.21
-0.62
8.69
19.96
30.55
38.42
42.09
40.17
31.69
16.42
-4.31
-27.71
-50.28
-69.09
-82.93
-92.39
-99.1
-104.34
-108.31
-109.99
-107.79
-100.04
-85.56
-64.33
-38.2
-11.32
10.38
20.79
16.2
-2.55
-29.53
-55.45
-71.31
-72.22
-59.7
-41.06
-26.28
-23.6
-36.13
-60.61
-88.65
-109.81
-115.42
-101.45
-69.95
-27.99
14.77
49.35
69.83
74.43
64.75
44.27
16.97
-13.19
-42.12
-65.32
-78.25
-77.63
-62.86
-36.83
-5.42
24.54
47.49
60.81
65.39
64.97
64.61
68.95
80.57
99.01
120.74
140.01
150.7
148.18
130.75
100.12
60.67
18.19
-21.67
-54.44
-77.32
-89.24
-90.63
-83.06
-68.99
-51.43
-33.58
-18.64
-9.54
-8.48
-16.32
-32.11
-52.87
-74.28
-91.99
-103.08
-107.15
-106.23
-103.79
-103.2
-106.52
-114.07
-124.69
-136.51
-147.58
-156.2
-160.97
-161.13
-156.79
-149.19
-140.58
-133.69
-130.84
-133.25
-140.63
-151.35
-163.02
-173
-179.05
-179.61
-174.09
-163.1
-148.3
-132.12
-117.03
-104.91
-96.43
-91.02
-87.34
-84.05
-80.51
-77.04
-74.78
-75.07
-78.95
-86.67
-97.86
-111.81
-127.7
-144.7
-161.64
-176.88
-188.37
-194.2
-193.2
-185.53
-172.6
-156.44
-138.97
-121.29
-103.56
-85.4
-66.36
-46.23
-25.12
-3.3
18.9
41
62.12
81.09
96.63
107.95
115.08
118.94
120.94
122.52
124.57
127.4
130.91
134.82
138.99
143.45
148.35
153.9
160.31
167.62
175.63
183.83
191.38
197.38
201.1
202.28
201.13
198.2
194.09
189.1
183.23
176.33
168.37
159.59
150.51
141.72
133.59
126.09
118.89
111.58
103.91
95.98
88.08
80.42
72.87
65.04
56.41
46.74
36.19
25.3
14.69
4.73
-4.63
-13.73
-23.02
-32.78
-43.03
-53.46
-63.52
-72.42
-79.25
-83.12
-83.42
-80.06
-73.48
-64.49
-53.96
-42.41
-29.84
-15.9
-0.24
17.04
35.09
52.48
67.6
79.25
87.08
91.74
94.52
96.78
99.5
102.85
106.54
110.08
113.16
115.83
118.34
120.85
123.29
125.38
126.77
127.35
127.21
126.6
125.8
124.89
123.78
122.27
120.16
117.34
113.85
109.87
105.74
101.96
99.02
97.24
96.58
96.56
96.46
95.57
93.59
90.64
87.33
84.32
82.02
80.44
79.19
77.69
75.41
72.05
67.51
61.9
55.52
48.89
43.03
39.33
39.19
43.2
50.52
58.71
64.4
64.46
57.22
42.91
23.27
0.61
-23.14
-46.61
-68.74
-88.13
-102.86
-110.94
-111.06
-103.27
-89.09
-70.99
-51.68
-33.48
-18.2
-7.16
-1.18
-0.45
-4.27
-10.97
-18.01
-22.86
-23.84
-20.93
-15.84
-11.31
-9.89
-12.59
-18.32
-24.2
-26.89
-23.99
-15
-1.44
14.02
28.72
40.96
50.31
57.19
62.18
65.58
67.31
67.21
65.33
62.11
58.19
54.13
50.19
46.22
41.81
36.59
30.28
23
15.08
7.04
-0.56
-7.28
-12.86
-17.31
-20.86
-24.13
-28.1
-33.99
-43.03
-56
-72.95
-93.02
-114.76
-136.35
-156.06
-172.44
-184.46
-191.54
-193.6
-191.12
-185.12
-177.05
-168.44
-160.6
-154.21
-149.37
-145.67
-142.36
-138.62
-133.39
-125.53
-113.8
-97.28
-75.78
-50.2
-22.49
4.92
29.95
51.66
70.51
87.81
104.79
121.6
137.1
149.19
155.84
155.97
149.97
139.46
126.75
114.1
103.23
95.09
89.91
87.43
86.77
86.76
86.05
83.55
78.83
72.36
65.48
59.94
57.38
58.7
63.97
72.29
82
90.97
96.81
97.21
90.4
75.52
52.99
24.36
-7.94
-41.15
-72.66
-100.29
-122.55
-138.77
-149.15
-154.86
-157.66
-159.6
-162.46
-167.36
-174.6
-183.6
-193.08
-201.24
-206.11
-205.92
-199.59
-186.96
-168.86
-146.91
-122.95
-98.64
-75.25
-53.59
-33.96
-16.19
0.44
16.99
34.53
53.56
73.72
93.81
112.27
127.97
140.73
151.47
161.75
173.24
187.32
204.96
226.55
251.59
278.27
303.15
321.66
329.15
322.48
301.29
268.08
227.4
184.1
141.66
101.29
62.29
23.44
-15.18
-51.26
-80.5
-98.37
-102.16
-92.32
-72.24
-46.58
-19.32
7.09
31.22
51.16
63.59
64.23
49.79
20.18
-20.49
-65.08
-106.18
-139
-162.83
-180.39
-195.74
-211.58
-227.79
-241.38
-248.08
-244.45
-229.7
-206.38
-179.76
-156.11
-140.49
-134.87
-137.16
-141.78
-141.49
-129.86
-103.82
-65.14
-20.31
21.13
49.29
57.11
42.52
9.1
-34.81
-78.33
-110.84
-124.67
-117
-90.62
-53.07
-14.43
15.59
30.69
29.84
17.23
0.33
-13.49
-19.92
-18.91
-13.52
-7.37
-2.42
1.62
6.19
12.12
18.7
24.27
27.68
29.43
31.46
35.66
41.99
47.94
49.48
43.36
29.36
11.09
-4.73
-10.32
0.76
31.49
80.18
140.25
201.34
251.56
280.41
281.58
254.59
204.75
141.46
75.54
16.42
-29.71
-60.69
-78.09
-86.02
-89.78
-94.48
-103.88
-119.45
-139.84
-160.87
-176.28
-179.04
-163.2
-126.31
-71.06
-5.66
57.79
106.64
131.69
130.04
105.42
65.99
20.45
-25.3
-69.34
-112.36
-154.93
-195.29
-228.92
-250.47
-256.42
-247.11
-226.66
-201.02
-175.24
-151.47
-128.47
-103.13
-72.9
-37.81
-1.05
32.04
56.42
69.63
73.08
71.34
69.94
72.72
80.2
89.71
97.01
98.77
94.07
84.71
73.98
64.97
59.24
56.44
54.96
52.95
49.24
43.68
37.04
30.43
24.97
21.63
21.67
26.94
39.62
61.07
90.26
122.76
151.32
168.09
167.5
148.43
114.28
70.98
23.93
-24.19
-73.61
-125.58
-179.86
-233.09
-279.21
-311.44
-324.99
-318.69
-295.01
-258.95
-216.11
-171.23
-127.48
-86.66
-49.58
-16.49
12.79
38.9
62.77
85.25
106.63
126.31
142.89
154.62
159.89
157.82
148.57
133.56
115.37
97.45
83.5
76.41
77.5
86.11
100.11
117.19
136.22
157.73
183.26
213.58
247.1
279.32
303.97
315.21
309.74
287.87
252.75
208.63
159.2
106.79
53.11
0.32
-48.37
-89.35
-120.11
-140.4
-152.27
-158.7
-161.86
-161.81
-156.83
-145.05
-126.28
-102.9
-79.09
-59.08
-45.15
-36.74
-30.97
-24.3
-14.23
-0.27
16.32
33.6
50.17
65.63
80
92.75
101.89
104.19
96.35
76.53
45.07
4.22
-42.83
-92.89
-142.7
-188.14
-223.59
-242.41
-239.2
-212.52
-166.67
-111.27
-58.54
-19.47
-0.34
-1.57
-18.35
-43.13
-68.17
-87.49
-97.63
-97.48
-87.71
-70.12
-47.11
-21.29
4.94
29.84
52.76
74.14
94.93
115.66
135.38
151.09
158.53
153.79
135.19
104.39
66.05
26.2
-9.67
-37.99
-57.26
-67.42
-68.97
-62.44
-48.28
-27.15
-0.39
29.83
60.55
88.15
109.08
120.56
121.5
112.92
97.61
79.25
61.24
45.84
33.95
25.52
20.08
17.05
15.82
15.73
16.11
16.57
16.85
16.58
14.73
9.42
-2.02
-22.16
-52.3
-91.49
-136.46
-182.37
-224.3
-258.55
-283.21
-297.95
-303.21
-299.62
-287.84
-268.89
-244.11
-214.89
-181.97
-145.25
-104.15
-58.61
-10.09
38.21
82.05
117.57
142.67
157.64
164.89
167.93
170.14
173.85
179.71
186.7
192.49
194.21
189.6
178.03
160.86
140.92
121.24
103.93
89.71
78.14
68.59
60.8
54.88
50.84
47.9
44.53
39.03
30.58
19.94
9.41
1.66
-1.39
0.58
6.53
14.95
24.98
36.9
51.6
69.48
89.29
107.71
120.17
122.39
111.99
89.29
57.01
18.89
-21.78
-63.31
-105.43
-148.43
-191.82
-233.48
-269.82
-296.79
-311.36
-312.65
-302.13
-282.75
-257.48
-228.01
-194.45
-156.37
-114.49
-72.01
-34.31
-7.16
5.86
5.04
-5.56
-20.29
-34.49
-46.27
-56.25
-65.79
-74.95
-81.67
-82.56
-74.76
-57.81
-33.97
-7.4
17.45
37.43
51.64
61.46
69.9
80.73
97.16
120.91
151.57
186.39
220.98
250.19
269.19
274.48
264.54
240.25
205.01
163.77
121.38
80.99
42.83
4.83
-35.48
-78.43
-120.77
-156.12
-177.45
-180.47
-165.74
-139.04
-109.28
-85.38
-73.53
-76
-91.44
-116.32
-146.49
-178.03
-207.84
-233.4
-252.68
-264.2
-267.1
-261.43
-248.39
-229.93
-208.41
-185.91
-163.71
-142.03
-120.47
-98.55
-76.28
-54.1
-32.36
-10.49
12.92
39.35
69.06
99.79
127.02
145.49
151.79
146.52
134.84
124.97
125.21
140.99
172.71
215.73
261.83
301.54
326.66
331.92
315.77
280.34
230.75
174.26
119.08
72.96
41.53
26.74
26.42
35.03
45.61
52.41
52.84
47.95
41.2
36.17
34.53
35.06
34.44
29
16.74
-1.53
-22.61
-42.43
-57.76
-67.53
-73.03
-77.04
-82.6
-92.06
-106.65
-126.48
-150.73
-177.58
-204.29
-227.65
-244.75
-254.11
-256.18
-253.13
-247.52
-240.97
-233.41
-223.33
-209.04
-189.89
-166.7
-141.2
-114.76
-87.28
-57.02
-21.59
20.47
68.47
119.13
167.34
207.83
236.75
252.72
256.96
252.29
241.79
227.5
209.96
188.49
162.47
132.43
100.79
71.39
48.12
33.48
27.53
27.96
30.88
32.2
28.78
19.27
4.46
-12.93
-29.04
-40.04
-43.47
-39.17
-29.18
-16.83
-5.2
4.13
11.17
16.92
22.25
27.29
31.62
34.93
37.51
40.28
44.3
49.96
56.84
63.82
69.44
72.41
71.91
67.67
60.16
50.5
40.18
30.65
22.68
16.06
9.83
3.04
-4.53
-11.9
-17.53
-20.48
-21.49
-23.36
-29.75
-43.24
-63.42
-86.45
-106.55
-118.62
-120.77
-114.96
-105.74
-97.64
-92.97
-91.34
-90.76
-89.28
-86.17
-81.79
-76.72
-70.91
-63.74
-54.64
-43.79
-32.21
-21.25
-11.69
-3.46
4.05
11.14
17.48
22.28
24.98
25.87
25.98
26.6
28.46
31.37
34.36
36.25
36.24
34.05
30.06
25.34
21.94
22.67
30.32
46.31
69.47
95.68
119.05
134.09
137.74
130.26
114.35
93.59
70.89
47.8
24.92
2.91
-17.13
-33.78
-45.84
-52.88
-55.26
-53.69
-48.94
-41.42
-31.44
-19.56
-7.11
3.64
9.71
8.06
-3.39
-25.14
-55.76
-92.11
-130.12
-165.63
-195.05
-215.75
-226.32
-226.48
-216.99
-199.13
-174.27
-143.46
-107.5
-67.43
-25.38
15.1
49.37
72.81
82.4
77.92
62.18
40.2
17.68
-0.63
-11.96
-15.59
-12.3
-3.62
8.53
21.71
32.99
39.29
38.58
31.05
19.77
9.75
6.07
11.41
24.85
42.33
58.7
70.06
75.18
75.36
72.96
69.87
66.79
63.46
59.55
55.21
51.05
47.58
44.85
42.15
38.41
32.86
25.5
17.14
8.98
2.04
-3.39
-7.73
-11.88
-16.64
-22.28
-28.53
-34.69
-40.18
-44.61
-47.97
-50.5
-52.66
-54.99
-58.12
-62.57
-68.29
-74.34
-78.58
-78.17
-70.5
-54.46
-31
-2.85
26.51
54.21
78.53
98.62
113.66
122.36
123.25
115.74
101.43
84.22
69.31
61.18
61.85
70.29
83.26
96.89
107.93
114.36
115.4
111.49
104.04
95.23
87.39
82.04
79.41
78.17
76.17
71.39
62.97
51.39
38.2
25.46
15.02
8.14
4.95
4.28
3.97
1.77
-3.44
-10.75
-17.42
-20.29
-17.54
-9.76
0.42
9.71
15.95
18.89
19.86
20.47
21.43
22.32
22.18
20.48
17.72
15.29
14.6
16.22
19.69
23.76
27.19
29.14
29.44
28.48
27.15
26.66
28.06
31.64
36.42
40.13
39.77
32.76
17.91
-3.91
-29.98
-56.46
-79.35
-95.37
-102.51
-100.47
-90.67
-76.16
-60.99
-49.09
-43.1
-43.64
-49.33
-57.4
-64.65
-68.22
-66.38
-58.83
-46.73
-32.34
-18.26
-6.41
2.66
9.9
17.21
26.34
37.87
50.86
63.16
72.54
77.43
77.19
71.87
61.66
46.75
27.86
6.79
-13.6
-30.22
-41
-45.7
-45.58
-42.1
-35.7
-25.46
-10.21
9.71
31.46
50.28
61.7
63.74
57.84
47.87
38
31
27.78
28.21
31.92
38.46
46.58
53.69
56.45
52.41
41.54
26.86
13.09
4.23
1.65
3.63
6.59
7.11
3.49
-4.08
-14.15
-24.7
-33.43
-37.58
-33.97
-20.17
3.87
34.45
64.24
84.38
87.75
71.91
40.1
0.04
-39.34
-71.2
-92.67
-104.53
-109.23
-108.71
-103.51
-93.38
-78.71
-61.42
-44.58
-30.99
-21.82
-16.27
-12.7
-10.24
-9.76
-13.34
-22.59
-36.73
-52.14
-63.76
-67.58
-62.78
-52.16
-40.54
-32.3
-29.34
-30.64
-33.34
-34.71
-33.5
-30.14
-26
-22.32
-19.44
-16.77
-12.95
-6.34
4.5
20.36
40.69
63.4
84.89
100.92
107.72
103.27
88.01
64.8
38.17
13.06
-6.35
-17.68
-20.78
-17.86
-12.86
-10.48
-14.79
-27.94
-49.37
-75.75
-101.74
-121.25
-128.98
-121.91
-100.42
-68.59
-33.32
-2.51
17.49
23.63
16.87
1.22
-18.29
-37.64
-54.91
-69.84
-82.57
-92.41
-97.57
-96
-86.67
-70.47
-49.93
-28.15
-7.6
10.58
26.54
41.12
55.42
70.51
87.44
107.02
129.22
152.32
172.62
185.18
185.7
172.75
148.97
120.58
94.89
77.51
70.08
70
71.94
70.31
61.65
45.66
24.86
3.33
-14.84
-26.8
-31.8
-31.24
-28.18
-26.3
-28.58
-36.54
-49.78
-66.65
-85
-102.89
-118.61
-130.44
-136.55
-135.45
-126.97
-112.84
-96.67
-82.62
-73.79
-70.9
-72.38
-75.46
-77.73
-78.1
-76.48
-73.17
-68.05
-60.56
-50.3
-37.62
-23.44
-8.49
7.29
24.71
44.36
65.6
86.2
103.01
113.27
115.85
111.57
102.46
91.13
80.65
74.53
76.58
89.55
113.41
143.92
173.26
192.49
194.86
178.23
145.3
101.86
54.32
8.09
-32.82
-65.02
-85.28
-90.88
-80.69
-56.44
-22.78
13.31
44.43
64.47
70.17
61.78
42.71
18.19
-6.56
-27.78
-43.87
-54.87
-61.36
-63.38
-60.26
-51.37
-37.11
-19.48
-1.64
13.06
21.98
23.54
16.96
1.96
-21.4
-52.3
-89
-128.84
-168.65
-205.42
-236.63
-260.47
-275.62
-281.42
-278.15
-267.25
-251.28
-233.22
-215.43
-198.85
-182.96
-166.39
-147.92
-126.99
-103.87
-79.19
-53.42
-26.51
2.37
34.59
71.51
113.43
158.41
201.73
236.48
255.76
255.38
236.14
203.96
167.79
136.2
114.25
102.32
97.15
94.28
90.34
83.99
75.39
65.03
52.98
39.16
24.11
9.57
-1.73
-7.35
-6.5
-0.77
6.33
10.97
10.64
5.24
-3.22
-11.63
-17.35
-19.07
-17.04
-12.51
-6.98
-1.7
2.55
5.44
6.89
7.01
6.1
4.73
3.83
4.66
8.53
16.43
28.41
43.45
59.56
74.49
86.55
95.24
101.01
104.65
106.74
107.41
106.95
106.72
109.23
117.16
131.39
149.82
167.67
179.66
182.51
176.54
164.71
150.44
135.32
118.67
99.1
76.78
54.58
37.05
27.86
27.32
31.9
35.7
33.09
20.65
-2.48
-35.4
-76.38
-123
-171.93
-218.58
-257.57
-284.19
-295.92
-293.36
-279.83
-260.04
-238.59
-218.77
-202.15
-188.84
-178.18
-169.25
-161.3
-153.95
-147.16
-140.82
-134.46
-126.88
-116.21
-100.64
-79.16
-52.36
-22.7
6.03
29.57
44.63
49.86
46.38
37.36
26.86
18.32
13.57
12.58
14.39
18.18
24.13
33.34
46.84
64.46
84.16
102.33
114.91
118.6
111.68
94.08
67.05
32.73
-6.27
-47.29
-87.94
-126.4
-161.48
-192.44
-218.16
-236.8
-245.83
-242.94
-227.2
-200.11
-165.42
-128.13
-92.83
-62.38
-37.36
-16.72
1.28
17.99
33.92
48.91
62.56
74.67
85.46
95.43
105.18
115.21
125.72
136.65
147.66
158.42
168.7
178.55
188.26
198.09
207.91
216.87
223.52
226.15
223.22
213.76
197.74
176.11
150.84
124.77
101.05
82.54
71.17
67.57
70.87
78.83
88.28
95.76
98.56
95.67
88.25
79.12
71.36
66.75
64.81
63.16
58.97
50.66
38.68
25
11.55
-1.04
-13.65
-27.72
-43.64
-59.99
-73.65
-81.22
-80.36
-70.83
-54.37
-34.07
-13.58
3.78
15.51
20.43
19.08
13.61
7.05
2.1
-0.16
-0.43
-0.29
-0.72
-1.05
0.6
5.65
13.35
20.39
22.29
15.69
0.34
-20.99
-44.16
-65.94
-85.31
-102.97
-119.52
-133.92
-143.27
-143.97
-133.76
-113.14
-85.37
-55.26
-27.29
-4.35
12.34
22.56
26.19
22.93
12.9
-2.41
-19.82
-35.24
-45.25
-48.71
-47.1
-43.57
-41.08
-40.84
-41.91
-42.26
-40.29
-36.11
-31.55
-29.07
-30.31
-35.22
-42.1
-48.54
-52.69
-53.95
-53.09
-51.48
-50.42
-50.44
-51.28
-52.43
-53.38
-54.06
-54.31
-53.77
-51.65
-47.26
-40.85
-33.97
-29.18
-28.96
-34.62
-45.64
-60.09
-75.64
-90.51
-103.99
-116.2
-127.44
-137.56
-145.77
-150.79
-151.22
-145.74
-133.16
-112.47
-82.83
-44.31
1.36
50.06
95.33
129.57
146.1
141.7
117.99
81.28
40.35
3.65
-23.24
-38.44
-42.93
-38.81
-27.77
-10.79
11.44
37.43
64.55
89.63
110.22
125.65
137.01
146.14
153.99
159.79
161.48
157.31
147.51
134.56
121.92
112.02
104.76
97.87
88.83
76.97
64.21
53.91
48.41
47.22
46.91
43
32.39
15.18
-5.45
-24.78
-38.68
-45.28
-45.15
-40.65
-34.75
-29.99
-28.06
-29.82
-35.47
-44.45
-54.86
-63.28
-65.08
-56.06
-34.48
-2.61
33.42
65.55
86.8
93.66
86.68
69.27
45.45
18.2
-10.84
-40.57
-69.4
-94.82
-114.2
-125.85
-129.63
-126.86
-119.42
-108.88
-96.03
-81.22
-64.81
-47.69
-31.17
-16.58
-4.73
4.56
12.56
21.31
32.94
48.99
69.62
92.98
115.28
131.67
137.62
130.68
111.5
83.58
52
21.46
-5.18
-27.18
-45.02
-59.16
-69.08
-73.42
-71.03
-62.02
-48.08
-31.65
-14.69
1.85
17.8
32.66
45.04
52.79
54.48
50.67
44
37.88
34.35
32.65
29.61
21.77
7.56
-11.63
-32.43
-51.3
-65.91
-74.96
-77.23
-70.88
-54.04
-26.43
9.3
47.21
79.76
100.46
106.15
97.91
80.17
58.68
38.49
22.55
11.31
3.5
-2.79
-9.06
-15.76
-22.39
-28.17
-32.71
-36.04
-38.26
-38.74
-36.07
-28.68
-15.85
1.57
21.3
40.45
56.6
68.33
75.16
77.14
74.52
67.83
58
46.5
35.06
25.13
17.42
11.9
8.12
5.64
4.6
5.7
9.91
17.69
28.58
40.89
52.17
60
62.91
60.8
54.72
46.3
37.37
29.96
26.58
29.82
41.4
60.68
83.77
104.17
114.77
110.39
89.63
55.02
11.65
-34.74
-79.4
-119.1
-151.93
-176.69
-192.59
-199.18
-196.63
-185.78
-167.9
-144.46
-116.88
-86.74
-56.15
-28.13
-6.26
6.31
8.37
1.7
-8.9
-17.22
-18.02
-9.1
7.98
29
49.39
66.59
81.11
95.78
113.92
137.36
165.47
195.44
223.27
245.08
257.79
259.4
248.99
226.99
195.55
158.67
121.3
87.65
59.41
34.95
10.73
-16.44
-46.99
-78.1
-105.37
-125.62
-138.87
-148.22
-157.65
-169.15
-181.23
-189.65
-190.21
-181.34
-165.28
-146.82
-130.73
-119.5
-112.53
-107.25
-101.12
-93.23
-84.55
-77.05
-72.15
-69.76
-68.38
-65.94
-61.02
-53.61
-44.96
-36.88
-30.78
-26.98
-24.55
-21.8
-17.28
-10.75
-3.78
0.68
-0.4
-8.59
-22.65
-38.48
-50.36
-52.97
-43.37
-22.12
6.81
37.12
61.78
74.83
72.83
56.03
28.5
-2.84
-30.51
-49.1
-57
-56.36
-51.26
-45.13
-39.02
-31.65
-21.06
-6.7
9.68
24.73
35.47
41
42.97
44.56
48.64
56.19
66.11
76.07
83.78
87.74
87.28
82
71.59
56.2
37.24
17.91
3.03
-2.4
4.85
24.6
52.7
82.04
104.73
114.46
108.2
86.69
53.85
15.42
-22.3
-53.9
-75.81
-86.88
-88.48
-84.02
-78.08
-75.19
-78.67
-89.8
-107.31
-127.48
-144.69
-152.8
-146.84
-124.77
-88.57
-44.1
0.41
36.65
58.57
63.75
53.45
31.42
2.42
-29.21
-60.21
-88.49
-112.9
-132.83
-147.98
-158.22
-163.53
-163.89
-159.48
-150.81
-138.87
-125.16
-111.61
-100.17
-92.21
-88.08
-86.76
-86.23
-83.92
-77.64
-66.26
-50.1
-30.83
-10.94
7.03
21.22
30.75
35.84
37.48
37.03
35.93
35.62
37.5
42.7
51.56
63.3
75.81
86.11
91.32
89.52
80.32
64.88
45.45
24.92
6.4
-6.96
-12.19
-6.77
10.93
40.94
81.14
127.01
172.07
209.23
232.43
238.35
227.05
201.7
167.35
129.39
92.45
59.97
34.24
16.47
6.78
4.17
6.64
11.9
18.08
24.28
30.37
36.58
42.83
48.77
53.83
57.59
59.78
59.91
57.07
50
37.66
19.93
-2.01
-25.93
-49.47
-70.74
-88.8
-103.11
-112.97
-117
-113.52
-101.35
-80.87
-54.42
-25.84
0.84
22.67
38.61
49.53
57.45
64.57
72.69
82.79
95.13
109.11
123.36
135.72
143.7
145.5
140.92
132.09
123.04
118.25
120.66
130.28
143.99
156.9
164.39
163.62
154.22
137.73
116.73
93.98
72.26
54.1
41.56
35.39
34.53
36.11
36.18
31.17
18.89
-1.03
-27.64
-59.65
-96.28
-137.62
-184.12
-235.61
-290.09
-343.25
-388.81
-420.18
-432.31
-423.32
-394.8
-350.7
-295.93
-235.19
-172.89
-113.5
-61.77
-21.92
3.86
16.44
19.76
19.32
20.1
25.04
34.6
47.46
61.39
74.21
84.16
90.2
92.15
91.01
88.69
87.58
89.5
95.1
103.4
112.27
119.16
122.07
120.33
114.71
106.93
99
92.44
87.92
85.59
85.43
87.53
91.91
97.98
104.15
108.03
107.12
99.77
85.9
67.04
45.82
25.2
7.63
-5.41
-13.71
-18.33
-21.12
-24.25
-29.6
-38.54
-51.91
-70.24
-93.84
-122.48
-155.02
-189.03
-221.05
-247.4
-265.22
-273.16
-271.52
-261.62
-244.99
-222.93
-196.44
-166.68
-135.19
-103.86
-74.44
-47.9
-24.08
-1.87
20.25
43.48
67.99
92.87
116.41
136.77
152.69
163.87
171
175.19
177.49
178.52
178.65
178.36
178.52
180.4
185.03
192.56
202.06
211.94
220.75
227.92
233.73
238.67
242.7
244.88
243.73
237.9
226.96
211.45
192.56
171.38
148.56
124.38
99.16
73.69
49.16
26.82
7.51
-8.45
-21.16
-30.72
-36.86
-39.3
-38.03
-33.87
-28.74
-25.4
-26.46
-33.32
-45.27
-59.33
-71.07
-76.03
-71.54
-58.02
-39.2
-21.07
-9.93
-10.24
-23.35
-47.3
-77.87
-110.05
-139.46
-163.17
-179.85
-189.58
-193.36
-192.8
-189.69
-185.44
-180.86
-175.94
-169.98
-162.06
-151.5
-138.16
-122.36
-104.74
-86.07
-67.04
-48.2
-29.98
-12.44
4.65
21.93
39.9
58.58
76.88
92.62
102.94
105.18
97.97
81.87
59.48
34.78
12.02
-5.16
-14.29
-14.2
-4.9
12.49
35.54
60.31
81.52
93.6
92.49
77.49
52.16
23.47
-0.65
-14.45
-16.49
-9.67
0.55
8.82
11.8
8.83
1.08
-9.53
-21.08
-31.86
-40.29
-44.92
-44.83
-40.12
-31.92
-21.89
-11.66
-2.52
4.61
8.83
9.21
5.13
-3.2
-14.43
-26.3
-36.32
-42.5
-43.94
-40.98
-34.96
-27.58
-20.22
-13.37
-6.55
1.29
11.11
23.09
36.42
49.58
61.09
69.85
75.15
76.11
71.4
59.73
41.07
17.78
-5.21
-21.93
-27.8
-21.76
-6.76
11.7
28.08
38.63
41.67
36.59
22.56
-1.62
-36.31
-79.33
-125.33
-166.89
-196.96
-211.46
-210.32
-196.92
-176.08
-152.15
-128.13
-106.05
-87.74
-75.21
-70.09
-72.35
-79.6
-87.47
-91.34
-88.75
-80.64
-70.85
-63.86
-62.24
-65.31
-70.08
-73.33
-73.88
-73.16
-74
-78.53
-86.61
-96.02
-104
-109.17
-112.59
-117.04
-125.38
-138.57
-154.72
-169.58
-178.06
-176.09
-162.09
-137.4
-105.38
-69.98
-33.88
2.37
40.16
81.3
126.12
172.3
215.03
248.68
268.79
273.65
264.49
244.59
217.77
187.36
155.94
125.65
98.64
77.04
62.58
56.1
57.23
64.3
74.56
84.69
91.6
93.44
90.36
84.61
79.44
77.41
79.31
83.87
89.1
93.65
97.6
101.88
107.12
112.85
117.5
119.44
117.63
111.85
102.06
87.87
68.53
43.77
14.64
-16.17
-45
-68.53
-84.8
-93.64
-96.39
-95.17
-92.18
-89.49
-88.72
-90.94
-96.62
-105.45
-116.38
-127.57
-136.38
-139.74
-134.8
-119.78
-94.82
-62.29
-26.26
8.83
39.43
63.8
81.75
93.66
99.44
98.2
88.9
71.8
49.2
25.18
3.99
-12.02
-23.4
-33.14
-44.79
-60.42
-79.51
-99.25
-115.83
-125.59
-125.69
-114.51
-91.95
-60.03
-23.04
13.3
43.26
62.93
71.27
69.88
61.99
51.12
40.37
32.39
29.42
32.82
42.17
54.68
65.36
68.97
62.38
46.29
25.28
6.13
-4.61
-2.69
12.75
39.33
72.23
105.37
132.4
147.71
147.09
128.63
93.21
44.51
-11.66
-68.49
-119.4
-158.62
-181.52
-184.85
-167.47
-131.53
-83.27
-32.43
10.18
36.13
42.29
31.82
11.99
-9.54
-28.33
-44.38
-60.81
-80.8
-105.2
-132.18
-158.6
-181.95
-201.26
-216.53
-227.25
-231.54
-226.61
-210.34
-182.82
-147.07
-107.96
-70.19
-36.62
-7.4
19.61
47.78
80.21
118.32
160.86
203.77
241.17
267.07
277.49
271.92
253.31
226.58
196.27
164.64
131.27
94.24
52.34
6.63
-39.5
-81.52
-115.82
-140.97
-157.7
-167.89
-173.14
-174.07
-170.3
-161.5
-148.23
-132.21
-115.7
-100.59
-87.65
-76.67
-67.06
-58.67
-52.24
-49
-49.93
-55.14
-63.51
-73.24
-82.56
-90.56
-97.33
-103.51
-109.26
-113.61
-114.29
-108.31
-93.06
-66.93
-29.92
16.33
68.25
120.54
166.38
198.53
211.3
202.9
177.22
143.52
114.19
100.82
110.4
142.92
191.56
245.1
291.32
320.3
326.46
309.18
272.26
222.68
169.37
121.71
88.1
74.22
81.37
105.59
138.58
170.4
193.09
203.49
203.68
198.77
193.29
188.44
181.75
169.13
147.73
117.68
81.69
42.96
3.34
-36.74
-76.73
-114.08
-143.93
-160.93
-162.32
-150.18
-131.32
-114.83
-108.43
-115.33
-133.32
-155.99
-175.53
-185.59
-183.17
-169.26
-148.23
-126.48
-110.65
-105.87
-114.35
-134.8
-162.64
-191.23
-213.73
-224.96
-222.7
-207.89
-183.69
-153.99
-122
-89.75
-58.51
-29.74
-5.55
11.53
19.72
18.88
10.87
-1.15
-14.16
-26.16
-36.46
-44.88
-50.87
-53.14
-50.02
-40.35
-24.4
-4.07
17.5
37.16
53.09
65.6
76.88
89.58
105.1
122.39
138.29
149.36
153.76
152.43
148.26
144.2
141.08
137.12
129.23
115.06
94.54
69.73
43.43
17.56
-7.29
-30.88
-51.91
-67.47
-74.14
-69.95
-56.13
-36.91
-17.81
-3.07
6.02
10.78
13.62
16.12
18.11
18.04
14.3
6.25
-5.44
-19.42
-34.48
-50.23
-67.08
-85.34
-104.38
-121.76
-133.51
-135.37
-124.83
-102.93
-74.58
-46.98
-26.61
-16.63
-15.78
-19.95
-24.76
-27.88
-29.21
-29.32
-27.45
-20.86
-6.11
18.51
50.92
85.32
113.99
130.14
130.16
114.52
87.09
53.57
20.13
-8.02
-27.42
-37.1
-38.37
-34.14
-27.7
-21.67
-17.65
-16.51
-18.95
-25.69
-37.18
-52.96
-71.25
-89.19
-103.57
-111.81
-112.41
-104.92
-89.38
-65.92
-34.85
2.72
44.11
85.03
120.24
144.91
155.97
153.04
138.35
115.69
88.98
61.18
34.05
8.62
-14.01
-32.36
-44.9
-50.8
-50.59
-46.09
-39.96
-35.01
-33.84
-38.51
-50.19
-68.75
-92.36
-117.66
-140.34
-156.32
-163.07
-160.13
-149.07
-132.42
-112.67
-91.35
-69
-45.39
-19.93
8.13
39.64
75.57
116.61
162.58
211.71
260.25
302.89
333.96
349.03
346.43
327.65
296.68
258.31
216.45
173.19
129.1
84.52
40.86
1.36
-29.64
-48.24
-52.9
-45.41
-30.46
-13.79
0.09
9.46
15.58
21.39
29.55
40.78
53.55
65.02
72.66
75.56
74.62
71.47
66.75
58.92
44.5
19.57
-18.01
-67.02
-122.71
-178.18
-226.62
-263.42
-287.01
-298.5
-300.4
-295.34
-285.49
-272.45
-257.52
-242
-227.3
-214.73
-205.44
-200.21
-199.42
-202.94
-210.04
-219.44
-229.22
-237.06
-240.47
-237.4
-226.7
-208.43
-183.88
-155.13
-124.39
-93.3
-62.51
-32.03
-1.67
28.31
56.9
82.58
103.99
120.45
132.21
140.23
145.68
149.39
151.79
153.01
153.2
152.64
151.86
151.75
153.71
159.6
171.31
189.87
214.61
242.72
269.86
291.39
303.78
305.37
296.21
277.27
249.8
215.4
176.76
138.23
105.16
82.01
70.16
66.78
65.81
60.76
47.71
26.96
2.86
-18.45
-31.82
-35.05
-29.75
-20.58
-13.97
-16.26
-32.16
-63.17
-106.67
-156.2
-202.65
-236.96
-252.49
-246.64
-220.7
-178.71
-125.53
-65.64
-2.96
58.82
115.41
161.9
193.38
206.37
200.2
177.59
143.94
105.73
68.88
37.53
14.24
0.69
-1.62
8.36
30.19
60.88
94.82
124.98
144.99
151.26
143.79
125.62
101.16
74.77
49.78
28.77
13.92
7.3
10.18
22
39.47
56.7
66.67
63.56
45.06
13.26
-26.01
-65.59
-99.62
-125.46
-143.65
-156.62
-166.56
-173.94
-177.49
-175.16
-165.74
-149.72
-129.35
-107.7
-87.48
-70.13
-55.94
-44.6
-35.81
-29.29
-24.27
-18.97
-10.91
1.89
19.47
39.17
56.15
65.06
62.13
46.21
18.63
-17.86
-60.22
-105.47
-150.52
-191.75
-225.13
-246.93
-254.57
-247.03
-224.66
-188.93
-142.62
-90.37
-38.9
3.72
30.16
36.35
23.33
-2.87
-33.49
-60.22
-77.6
-83.9
-79.87
-66.9
-45.87
-17.25
18.01
57.53
97.73
134.92
166.19
189.78
204.46
208.87
201.51
181.49
149.6
109.07
64.94
22.77
-13.04
-40.24
-58.68
-69.69
-75.1
-76.73
-76.01
-74.03
-71.4
-68.12
-63.72
-57.29
-47.83
-34.65
-17.8
1.82
22.51
42.3
59.73
74.36
87.04
99.51
113.47
129.5
146.34
160.89
169.23
168.12
156.34
135.48
109.65
84.26
64.33
53.02
50.82
55.79
64.57
73.72
80.95
85.51
88.07
89.79
91.27
91.95
90.01
83.06
69.25
48.1
21.01
-8.83
-37.03
-58.85
-70.12
-68.16
-52.24
-23.86
13.33
53.79
90.73
117.07
127.01
117.81
91.12
52.79
10.88
-27.39
-58.54
-83.25
-104.66
-124.88
-142.58
-153.15
-151.46
-135.37
-107.58
-74.32
-41.81
-12.88
14
42.53
74.93
109.29
139.67
158.88
162.1
149.13
124.02
92.97
61.41
32.35
6.4
-17.04
-38.13
-55.94
-68.64
-74.58
-73.29
-65.91
-55
-43.49
-33.87
-27.35
-23.94
-22.71
-22.69
-23.25
-24.36
-26.33
-29.52
-34.05
-39.78
-46.46
-53.66
-60.65
-66.24
-68.8
-66.8
-59.44
-47.31
-32.34
-17.22
-4.32
5.25
11.83
16.82
21.6
26.81
32.13
36.65
39.56
40.53
39.72
37.53
34.39
31.06
29.09
30.93
39.2
55.19
77.35
100.88
119.11
126.16
119.48
101.06
76.37
51.69
31.44
16.82
6.45
-1.6
-7.79
-10.55
-7.47
2.64
17.98
33.8
44.19
44.75
34.63
16.67
-4.28
-23.94
-40.39
-54.41
-68.16
-83.5
-100.71
-118.54
-135.05
-148.66
-158.75
-165.47
-169.33
-170.57
-169.11
-164.47
-156.05
-143.57
-127.14
-107.52
-85.97
-64.15
-43.57
-25.35
-10.17
1.52
9.07
11.49
7.72
-2.66
-18.68
-37.37
-54.22
-64.36
-64.21
-53.04
-33.21
-9.31
13.66
32.03
44.31
51.07
54.14
55.77
58.09
62.81
70.79
81.46
92.58
100.45
100.9
90.94
69.9
39.79
4.45
-31.82
-65.5
-94.3
-116.69
-131.47
-137.58
-134.51
-123.05
-105.53
-85.32
-65.54
-47.79
-31.48
-14.31
6.31
31.68
60.89
90.93
117.73
137.59
148.18
148.92
140.7
125.49
105.87
84.86
65.77
51.86
45.69
48.39
59.21
75.58
93.86
110.17
121.36
125.52
122
111.24
94.47
73.24
49.25
23.88
-2.06
-28.62
-56.49
-86.67
-119.84
-155.84
-193.44
-230.49
-264.14
-291.37
-309.5
-316.69
-312.53
-298.16
-276.13
-249.74
-222.18
-195.79
-171.48
-148.96
-127.26
-105.42
-82.97
-60.15
-37.63
-16.15
3.8
22.05
38.77
54.23
68.62
82.12
94.85
106.99
118.82
130.61
142.59
154.69
166.57
177.52
186.57
192.71
195.1
193.42
187.87
179.19
168.18
155.54
141.6
126.51
110.41
93.8
77.54
62.73
50.54
41.85
37.06
36.05
38.39
43.63
51.68
62.79
77.04
93.84
111.45
127.32
138.86
144.2
142.46
133.31
116.25
90.44
55.44
12.29
-35.6
-82.84
-123.86
-154.77
-174.69
-185.19
-188.87
-187.61
-182.1
-172.25
-158.26
-141.61
-125.21
-112.92
-108.58
-114.81
-131.82
-156.83
-184.06
-206.12
-216.1
-209.71
-186.5
-149.43
-103.27
-52.49
-0.16
51.94
102.3
148.81
188.86
219.82
239.97
248.88
247.16
236.07
217.16
192.24
163.52
133.68
105.51
81.41
62.95
50.86
45.16
45.59
51.54
61.78
74.15
85.22
91.05
88.32
75.88
55.57
31.88
10.2
-5.26
-12.95
-14.06
-11.26
-7.02
-2.65
1.54
5.34
8.11
9.06
8.21
6.96
7.71
12.37
20.78
30.21
36.31
35.02
24.54
5.79
-18.23
-43.92
-68.15
-88.62
-103.38
-110.72
-109.55
-100.54
-86.75
-73.21
-65.14
-65.69
-74.49
-87.86
-100.61
-108.51
-110.05
-106.58
-101.1
-96.48
-94.12
-93.71
-93.73
-92.37
-88.22
-80.54
-69.39
-55.41
-39.82
-24.23
-10.61
-0.92
3.47
2.55
-1.48
-3.9
1.85
22.06
59.85
112.68
171.98
225.32
260.51
269.8
252.26
213.25
161.58
106.1
53.39
7.36
-29.93
-57.13
-73.08
-77.43
-71.39
-58.32
-43.25
-31.57
-27.42
-32.49
-45.78
-64.1
-83.63
-101.23
-115.48
-126.65
-135.94
-144.46
-152.56
-159.79
-165.36
-168.61
-169.14
-166.85
-161.71
-153.88
-143.72
-131.66
-117.71
-100.87
-79.03
-49.66
-11.45
34.27
83.19
129.19
166.45
191.58
204.46
207.32
203.12
193.77
179.7
160.75
137.81
114.09
95.04
86.52
91.99
110.43
136.03
160.23
174.86
174.94
159.77
132.03
95.96
56
16.67
-16.89
-39.47
-47.51
-41.55
-27.34
-14.4
-11.93
-24.54
-50.04
-80.73
-107.13
-122.08
-122.82
-110.65
-88.98
-61.5
-31.59
-2.66
21.35
36.24
38.78
27.76
4.58
-27.44
-64.35
-102.85
-141.09
-178.43
-214.51
-248.28
-277.46
-298.96
-309.88
-308.8
-296.43
-275.52
-249.92
-223.44
-199
-178.22
-161.7
-149.36
-140.87
-135.79
-133.64
-133.88
-135.87
-138.83
-141.86
-143.84
-143.48
-139.6
-131.36
-118.54
-101.55
-81.32
-59.09
-36.09
-13.38
8.18
27.89
45.32
60.33
73.04
83.89
93.48
102.45
111.24
119.94
128.25
135.61
141.51
145.69
148.14
149.02
148.61
147.07
144.54
141.07
136.72
131.43
125.23
118.24
110.81
103.62
97.39
92.58
89.19
86.61
83.93
80.37
75.63
69.89
63.54
56.91
50.09
43.09
36.05
29.42
23.89
20.02
18.04
17.65
18.18
18.76
18.62
17.26
14.6
11.14
7.8
5.8
6.24
9.6
15.5
22.85
30.16
36.13
39.89
40.98
39.19
34.36
26.5
16.06
4.25
-7.05
-15.74
-20.25
-20.09
-16
-9.54
-2.36
4.54
11.05
17.74
25.37
34.4
44.58
55.13
64.95
73.11
79.09
82.96
85.18
86.44
87.32
88.05
88.52
88.5
87.91
86.98
86.29
86.44
87.72
89.82
91.9
92.74
91.29
86.97
79.99
71.3
62.39
54.84
49.85
47.74
47.84
48.6
48.22
45.43
40.11
33.5
27.77
25.11
26.68
31.82
37.93
41.22
38
26.09
5.74
-20.32
-47.47
-70.56
-85.17
-88.68
-80.87
-64.02
-42.39
-21.21
-5.29
2.3
0.86
-8.06
-21.73
-37.47
-53.44
-68.82
-83.18
-95.99
-106.45
-113.76
-117.67
-118.72
-117.91
-116.1
-113.49
-109.39
-102.69
-92.43
-78.4
-61.32
-42.67
-24.17
-7.3
7.15
19.16
29.28
38.18
46.34
53.77
60.19
65.19
68.67
70.79
72.12
73.26
74.74
76.8
79.31
81.9
84.01
85.24
85.37
84.58
83.32
82.12
81.32
80.96
80.71
80.04
78.54
76.06
72.79
69.06
65.28
61.7
58.36
55.14
51.86
48.29
44.21
39.36
33.57
26.82
19.34
11.54
3.84
-3.61
-11.22
-19.85
-30.35
-43.09
-57.56
-72.47
-86.16
-97.3
-105.35
-110.62
-114.11
-116.9
-119.83
-123.29
-127.02
-130.3
-132.01
-130.97
-126.29
-117.76
-105.94
-92.03
-77.41
-63.11
-49.61
-36.8
-24.31
-11.78
0.87
13.58
26.14
38.4
50.22
61.35
71.35
79.7
85.88
89.66
91.24
91.18
90.28
89.24
88.49
88.09
87.81
87.24
85.97
83.75
80.56
76.67
72.61
68.92
65.84
63.11
60
55.66
49.49
41.26
31.08
19.23
6
-8.22
-22.72
-36.45
-48.28
-57.36
-63.64
-67.83
-71.02
-74.04
-76.93
-78.9
-78.74
-75.43
-68.63
-58.83
-47.12
-34.85
-23.31
-13.41
-5.61
0.07
3.91
6.28
7.55
7.98
7.76
6.98
5.78
4.24
2.5
0.67
-1.05
-2.38
-2.89
-2.15
0.21
4.25
9.71
15.98
22.28
28.04
33.05
37.61
42.34
47.76
53.86
59.82
64.2
65.43
62.38
54.66
42.69
27.31
9.68
-8.92
-27.13
-43.57
-57.13
-67.32
-74.42
-79.34
-83.08
-86.05
-87.82
-87.23
-83.06
-74.72
-62.61
-48.03
-32.69
-18.14
-5.43
4.91
12.79
18.28
21.53
22.77
22.32
20.74
18.69
16.77
15.34
14.42
13.75
12.94
11.75
10.12
8.26
6.46
4.93
3.72
2.68
1.57
0.18
-1.59
-3.83
-6.5
-9.62
-13.23
-17.36
-22.07
-27.38
-33.19
-39.28
-45.24
-50.57
-54.7
-57.2
-57.75
-56.25
-52.72
-47.45
-40.85
-33.51
-26.01
-18.8
-12.03
-5.53
1.03
8.03
15.58
23.54
31.39
38.39
43.64
46.31
45.87
42.13
35.36
26.15
15.1
2.6
-11.21
-26.27
-42.27
-58.32
-73
-84.56
-91.39
-92.43
-87.36
-76.5
-60.67
-40.89
-18.35
5.63
29.7
52.4
72.46
88.94
101.35
109.69
114.22
115.4
113.7
109.7
104.02
97.25
89.88
82.06
73.71
64.64
54.93
44.89
35.04
25.69
16.74
7.66
-2.13
-12.75
-23.75
-34.24
-43.39
-50.86
-56.99
-62.5
-68.06
-74.02
-80.23
-86.4
-92.23
-97.61
-102.37
-106.11
-108.02
-107.01
-102.04
-92.44
-78.26
-60.21
-39.51
-17.54
4.41
25.45
45.1
63.25
80.01
95.51
109.77
122.59
133.32
140.78
143.31
139.19
127.29
107.85
82.85
55.95
31.58
13.7
4.76
4.99
12.61
24.55
37.52
48.81
56.81
60.99
61.75
60.23
58.02
56.88
58.35
63.4
71.97
82.8
93.68
101.92
105.16
102.29
94.09
83.59
75.6
75.45
87.19
111.75
145.97
183.02
214.35
232.44
233.2
216.92
187.47
150.45
111.04
72.61
36.5
2.52
-30.25
-62.9
-96.22
-130.39
-164.6
-196.81
-224.02
-242.85
-250.61
-246.34
-231.26
-208.47
-182.03
-155.67
-131.98
-112.01
-95.54
-81.73
-69.72
-59.16
-50.64
-45.87
-47.51
-58.34
-79.94
-111.32
-148.46
-185
-214.14
-230.98
-234.13
-225.82
-210.6
-193.28
-177.24
-163.75
-152.23
-141.11
-128.64
-113.46
-94.86
-72.92
-48.71
-24.04
-1.23
17.47
30.52
37.37
38.56
35.43
29.79
23.43
17.73
13.37
10.27
7.61
4.3
-0.52
-7.06
-14.78
-22.67
-29.58
-34.52
-36.5
-34.49
-27.6
-15.73
-0.23
16.01
29.44
37.31
38.79
35.19
28.79
21.21
12.34
0.46
-16.64
-40.06
-69.21
-102.19
-136.98
-172.32
-207.89
-243.41
-277.68
-308.05
-330.88
-342.79
-341.85
-328.4
-304.9
-274.92
-241.97
-208.51
-175.61
-143.12
-110.41
-76.97
-42.93
-9.24
22.52
50.54
73.34
90.28
101.78
109.19
114.27
118.56
122.94
127.59
132.23
136.56
140.49
144.1
147.47
150.41
152.48
153.16
152.1
149.4
145.5
141.17
137.1
133.75
131.17
129.08
126.96
124.34
121
117.05
113.05
109.84
108.31
109.13
112.4
117.69
124.14
130.82
137.15
143.02
148.72
154.59
160.78
167.07
173.09
178.6
183.69
188.54
193.11
196.83
198.68
197.6
192.85
184.1
171.23
153.87
131.11
101.7
64.75
20.69
-27.98
-76.7
-119.71
-151.53
-168.63
-170.39
-159.19
-139.46
-116.21
-93.67
-74.67
-60.72
-52.6
-50.62
-54.28
-61.67
-69.19
-72.03
-65.74
-47.85
-19.08
17.02
55.48
91.97
124.07
151.44
174.63
193.61
206.88
211.59
204.57
183.61
148.52
101.43
46.57
-10.32
-62.7
-104.09
-129.19
-135.02
-122.14
-95.14
-62.18
-33.07
-16.62
-17.81
-36.27
-66.78
-101.39
-132.68
-156.2
-171.23
-179.68
-183.85
-184.53
-180.61
-170.35
-152.99
-130.07
-105.3
-83.23
-67.38
-59.12
-57.55
-60.32
-64.85
-68.9
-70.69
-68.5
-60.56
-45.71
-24.58
-0.49
20.76
32.59
30.12
12.18
-18.15
-54.73
-90.6
-120.1
-139.85
-148.66
-146.71
-134.9
-114.68
-88.17
-58.17
-27.82
0.12
23.97
43.4
59.17
72.65
85.03
96.94
108.3
118.5
126.84
132.86
136.58
138.51
139.57
140.8
143.13
147.11
152.72
159.4
166.27
172.49
177.68
181.98
185.81
189.36
192.26
193.63
192.35
187.48
178.35
164.79
146.96
125.62
102.15
78.62
57.44
40.71
29.61
23.87
21.72
20.31
16.56
8.3
-4.87
-21.22
-37.42
-49.95
-56.7
-57.98
-56.27
-54.79
-56
-60.88
-69.47
-82.16
-100.48
-126.47
-161.13
-202.7
-246.34
-285.54
-314.6
-330.65
-334.14
-327.6
-313.7
-293.8
-267.56
-233.81
-191.59
-140.98
-83.62
-22.98
35.55
85.03
118.16
129.45
117.4
85.65
42.27
-2.8
-40.98
-67.3
-80.71
-82.77
-75.67
-60.9
-39.3
-11.86
19.37
51.35
80.88
105.73
125.29
140.46
152.85
163.86
174.15
183.65
191.96
198.97
205.15
211.58
219.6
230.09
242.77
255.72
265.48
268
260.06
240.59
211.29
175.94
139.07
104.33
73.79
48.06
27
10.41
-1.91
-10.18
-14.95
-17.03
-17.24
-16.35
-15.16
-14.9
-17.38
-24.64
-38.02
-57.33
-80.46
-103.8
-123.38
-135.87
-139.42
-133.93
-121.05
-103.97
-86.95
-74.31
-69.18
-72.4
-82.02
-93.9
-102.99
-104.96
-97.55
-81.12
-58.46
-33.96
-12.45
1.81
6.03
-0.57
-16.6
-38.84
-62.99
-84.71
-100.57
-108.64
-108.55
-101.23
-88.43
-72.16
-54.23
-36.04
-18.47
-1.93
13.49
28.1
42.65
58.11
75.17
93.63
112.18
128.69
141.17
148.91
153.21
157
163.38
173.64
186
195.72
196.81
184.41
156.6
114.97
63.78
8.38
-46.25
-96.28
-139.14
-173.33
-198.21
-214.09
-222.47
-225.96
-227.71
-230.33
-234.82
-240.25
-244.11
-243.27
-235.36
-219.62
-196.99
-169.59
-139.88
-109.87
-81.08
-54.63
-31.56
-12.53
2.91
17.02
33.78
57.56
90.89
132.61
177.57
217.9
245.74
255.89
247.21
222.42
186.81
146.63
107.87
75.21
51.08
34.89
22.96
9.63
-10.49
-40.13
-78.04
-119.56
-158.68
-190.31
-211.67
-222.29
-223.1
-215.45
-200.72
-180.35
-156.02
-129.51
-102.36
-75.7
-50.22
-26.39
-4.49
15.41
33.66
50.96
68.12
85.8
104.25
123.24
142.21
160.43
177.03
191.13
201.99
209.37
213.67
215.73
216.01
213.96
207.62
193.92
169.9
134
87.22
33.36
-21.58
-70.92
-109.16
-133.48
-144.55
-146.04
-143.21
-141
-142.41
-147.66
-154.49
-158.85
-156.32
-143.34
-118.4
-82.95
-41.45
-0.52
32.94
53.75
59.99
53.13
36.89
15.66
-6.58
-26.51
-41.12
-47.96
-45.86
-35.88
-21.35
-6.63
5.05
13.06
19.28
26.3
35.18
44.38
50.93
52.93
51.64
51.52
57.61
72.11
92.26
111.34
122.13
120.71
108.2
89.49
70.01
52.45
35.69
16.26
-8.77
-39.33
-71.81
-100.56
-120.4
-128.74
-126.34
-116.47
-103.49
-91.35
-82.73
-78.96
-80.23
-86.02
-95.25
-106.36
-117.23
-125.42
-128.82
-126.29
-118.11
-105.9
-92.07
-79.16
-69.28
-63.82
-63.19
-66.54
-71.75
-75.99
-76.57
-71.91
-62.19
-49.47
-36.99
-28.32
-26.13
-31.2
-41.71
-53.17
-59.38
-54.08
-33.17
3.54
52.03
105.15
154.91
194.66
220.61
232.18
231.41
221.81
207.41
191.93
177.96
166.61
157.45
148.89
138.88
125.71
108.54
87.65
64.37
40.87
19.76
3.5
-6.13
-8.57
-4.55
4.16
15.13
25.67
33.17
35.4
31.04
19.97
3.57
-15.62
-34.57
-50.52
-61.43
-66.05
-63.93
-55.49
-42.22
-26.73
-12.27
-1.95
2.14
-0.78
-10.52
-26.7
-49.08
-77.2
-109.36
-141.73
-168.57
-183.87
-183.62
-167.45
-138.79
-103.44
-67.51
-35.73
-10.82
6.28
15.72
18.22
15.03
8.27
0.85
-4.09
-4.45
-0.05
7.16
14.03
17.68
16.82
11.97
4.86
-2.59
-9.12
-14.03
-16.74
-16.01
-9.88
3.52
24.79
52.32
82.5
110.75
133.04
146.92
151.66
147.67
135.69
116.51
91.06
60.91
28.32
-3.96
-33.37
-58.08
-77.34
-91.49
-101.61
-109.15
-115.74
-122.8
-131.22
-140.99
-151.05
-159.67
-165.12
-166.32
-163.24
-156.68
-147.8
-137.57
-126.51
-114.83
-102.68
-90.48
-79.11
-69.84
-63.92
-61.89
-63.11
-65.54
-66.18
-61.8
-50.01
-29.8
-1.76
32.15
69.29
106.81
142.31
174.09
201.03
222.18
236.51
242.8
240.09
228.48
209.47
185.83
160.77
136.84
115.3
96.26
79.65
66.13
57.54
56.16
63.74
80.35
103.81
130.02
153.77
169.93
174.45
165.4
143.47
111.95
76.12
41.93
14.55
-3.08
-10.94
-11.83
-10.26
-10.93
-16.92
-28.83
-44.68
-60.76
-73.38
-80.29
-81.25
-77.67
-71.71
-65.46
-60.55
-58.16
-58.8
-62.27
-67.48
-72.86
-77.09
-79.83
-81.85
-84.5
-88.9
-95.3
-103.16
-111.63
-120.08
-128.16
-135.58
-141.86
-146.55
-149.72
-152.35
-155.94
-161.41
-168.24
-174.48
-177.62
-176.1
-170.03
-160.94
-150.32
-138.43
-123.96
-104.65
-78.67
-45.7
-7.21
34.24
75.88
115.54
151.97
184.53
212.84
236.62
255.69
270.17
280.19
285.39
284.42
274.87
254.18
221.07
176.91
126.14
75.47
31.84
0.21
-17.96
-24.93
-25.51
-25
-27.2
-33.01
-40.61
-46.59
-47.95
-43.71
-35.64
-27.51
-23.15
-24.46
-30.57
-38.34
-44.29
-46.24
-44.17
-39.6
-34.38
-29.83
-26.72
-25.96
-29.08
-37.94
-53.53
-74.88
-98.96
-121.62
-139.42
-151.23
-158.74
-165.57
-175.85
-192.51
-216.51
-246.48
-278.99
-309.33
-332.47
-344.11
-341.72
-325.19
-296.7
-259.93
-219.04
-177.52
-137.79
-101.02
-67.47
-36.69
-7.78
20.47
49.52
80.74
115.44
154.25
196.62
240.32
281.28
314.2
334
337.49
324.51
298.01
262.77
223.68
184.39
147.06
113.17
84.6
63.91
53.54
54.46
64.99
80.84
96.53
107.28
110.73
107.43
100.16
92.45
87.15
85.59
87.56
91.89
97.11
102.17
106.69
110.99
115.94
122.58
131.61
142.93
155.54
167.82
178
184.48
185.9
180.88
168.03
146.58
117.36
83.42
49.7
21.39
1.78
-9.26
-15.05
-20.31
-28.6
-40.48
-53.53
-63.88
-68.52
-67.06
-61.89
-57.15
-57.09
-64.44
-79.61
-100.7
-123.92
-144.24
-156.12
-154.38
-135.36
-98.51
-47.59
9.11
60.12
93.87
102.44
84.55
46.28
-0.85
-43.61
-71.21
-78.16
-65.04
-37.29
-2.9
29.85
54.15
65.47
62.02
44.73
17
-15.97
-48.14
-74
-89.69
-93.75
-87.35
-73.71
-56.97
-40.85
-27.85
-18.81
-13.4
-10.97
-11.11
-13.83
-19.17
-26.58
-34.39
-39.76
-39.23
-29.78
-9.58
21.11
59.96
102.88
144.89
181.26
208.32
223.94
227.37
218.88
199.32
170.23
134.14
94.52
55.36
19.91
-10.57
-37.5
-64.18
-94.24
-129.48
-168.71
-207.87
-241.56
-264.96
-275.3
-272.22
-257.36
-233.62
-204.51
-173.68
-144.64
-120.08
-101.15
-87.19
-76.05
-65.12
-52.55
-38.02
-22.73
-8.6
2.66
10.38
15.09
18.19
21.31
25.75
32.07
40.07
49.03
58.11
66.79
74.81
81.92
87.42
90.12
88.94
83.59
75.3
66.73
61.35
62.11
70.44
85.36
103.53
120.2
130.63
131.82
123.57
108.48
90.7
74.04
60.51
49.76
40.09
29.96
19.25
9.37
2.22
-1.21
-1.49
-0.62
-1.01
-4.54
-12.04
-23.3
-37.49
-53.56
-70.56
-87.68
-104.38
-120.36
-135.29
-148.61
-159.28
-165.87
-167.09
-162.16
-151.23
-135.43
-116.45
-96.19
-76.35
-58.22
-42.44
-28.96
-17.02
-5.38
7.17
21.45
37.44
54.41
71.2
86.77
100.28
111.19
118.92
122.79
122.2
117.12
108.55
98.61
89.93
84.57
83.11
84.29
85.61
84.63
80.04
72.31
63.27
55
48.74
44.43
40.87
36.55
30.29
21.52
10.27
-2.79
-16.19
-27.2
-32.08
-27.16
-10.75
15.29
45.15
70.58
83.87
80.65
61.3
29.87
-8.44
-49.63
-91.91
-134.75
-177.18
-216.68
-249.6
-272.68
-284.83
-287.61
-284.46
-279.11
-274.15
-270.6
-268.45
-267.42
-267.39
-268.25
-269.35
-269.17
-265.49
-256.08
-239.39
-214.99
-183.59
-146.66
-105.91
-62.83
-18.71
25.17
67.64
107.8
145.39
180.9
215.14
248.49
280.11
307.88
329.08
341.74
345.43
341.38
331.56
317.54
299.9
278.77
254.73
229.62
206.03
186.03
169.85
155.5
139.76
119.75
94.49
65.19
34.6
5.75
-19.16
-39
-53.48
-62.56
-66.36
-65.22
-60.03
-52.1
-42.78
-32.96
-22.88
-12.66
-2.83
5.14
9.12
7.03
-2.28
-18.62
-40.6
-66.02
-92.37
-117
-137.31
-151.13
-157.46
-157.14
-153.04
-149.32
-150
-157.62
-172.53
-193.41
-218.13
-244.63
-271.2
-295.87
-315.97
-328.25
-329.7
-318.72
-295.97
-264.32
-227.73
-189.8
-152.69
-116.85
-81.67
-46.43
-11.02
23.84
57.12
87.89
115.78
140.97
163.93
185.18
205.19
224.35
243.01
261.49
280
298.37
315.99
331.67
343.84
350.81
351.08
343.7
328.5
306.3
278.66
247.73
215.71
184.44
155.2
128.86
106.17
87.89
74.41
65.3
59.09
53.69
47.55
40.51
34.06
30.43
31.13
35.84
42.31
47.36
48.25
43.6
33.59
19.33
2.19
-16.53
-35.49
-53.34
-68.92
-81.71
-92.02
-100.65
-108.46
-115.91
-123
-129.54
-135.34
-140.14
-143.33
-143.92
-140.79
-133.17
-120.9
-104.36
-83.95
-60.01
-32.84
-3.35
26.45
53.43
74.01
85.08
85.04
74.13
54.35
28.88
1.36
-24.9
-47.49
-65.23
-78.01
-86.32
-90.63
-90.98
-86.87
-77.71
-63.26
-43.95
-20.8
4.69
30.67
54.98
75.12
88.64
93.67
89.59
77.32
59.06
37.7
16.01
-3.87
-20.5
-32.84
-40.07
-41.5
-37.11
-27.77
-15.44
-2.63
8.45
16.56
21.56
24.03
24.69
23.95
22.05
19.27
16.13
13.15
10.54
7.97
4.84
0.79
-3.96
-8.68
-12.71
-16.06
-19.51
-24.03
-29.85
-36.02
-40.66
-42.11
-39.84
-34.74
-28.42
-22.11
-16.04
-9.6
-2.19
6
13.93
20.29
24.23
25.65
24.97
22.44
17.98
11.36
2.64
-7.22
-16.21
-21.64
-20.94
-12.57
3.2
23.94
45.45
62.87
72.22
71.74
62.5
47.82
31.85
17.86
7.36
0.26
-4.41
-7.61
-10.09
-12.61
-16.2
-22.06
-31.04
-43.11
-57.17
-71.39
-83.77
-92.74
-97.36
-97.07
-91.68
-81.37
-67.04
-50.48
-34.05
-19.99
-9.44
-2.01
3.95
10.55
19.5
31.43
45.64
60.15
71.89
77.25
72.85
56.5
28.12
-10.06
-53.85
-98.18
-138.32
-170.7
-193.14
-204.73
-205.64
-196.89
-180.33
-158.43
-133.7
-107.97
-82.21
-56.47
-30.29
-3.17
25.34
55.46
87.08
119.51
151.11
179.14
200.1
210.47
207.74
191.33
162.84
125.76
84.74
44.77
10.51
-14.28
-27.14
-27.28
-15.73
4.88
30.73
57.55
81.35
98.99
108.66
109.81
102.94
89.26
70.38
48.11
24.47
1.75
-17.67
-31.58
-38.72
-39.16
-34.6
-27.81
-21.69
-18.21
-17.73
-19.17
-20.71
-20.78
-18.69
-14.67
-9.48
-4.1
0.55
3.67
4.47
2.38
-2.68
-10.04
-18.3
-25.62
-30.32
-31.41
-28.99
-24.18
-18.84
-14.97
-13.95
-16.17
-21.03
-27.38
-34.34
-41.87
-50.93
-62.96
-78.97
-98.98
-121.92
-146.22
-170.5
-193.96
-216.15
-236.22
-252.36
-261.76
-261.24
-248.44
-222.87
-186.39
-143.03
-98.09
-56.92
-23.67
-0.67
11.77
14.94
11.23
3.88
-3.1
-5.11
2.32
22.25
55.07
97.86
145.12
190.59
229.24
258.44
278.03
288.96
292.16
287.7
275.07
254.14
225.96
193.11
159.28
128.62
104.7
89.95
85.13
89.19
99.33
111.46
120.93
123.53
116.52
99.34
73.86
43.92
14.25
-10.93
-29.2
-40.49
-46.6
-50.2
-53.67
-58.55
-65.56
-75.17
-87.7
-103.37
-121.68
-141.17
-159.73
-175.37
-186.91
-194.38
-198.58
-200.04
-198.39
-192.08
-179.15
-158.32
-130.1
-97.08
-63.65
-34.78
-14.51
-4.66
-4.42
-10.88
-20.23
-29.09
-35.19
-37.39
-35.04
-27.56
-14.55
3.56
24.87
45.97
62.89
72.51
73.9
68.7
60.41
52.99
49.49
51.42
59.05
72.48
92.44
120.2
156.39
199.32
244.03
282.83
307.71
313.23
298.87
269.27
232.42
196.55
167.37
146.76
133.26
123.59
114.34
102.96
88.11
69.65
48.68
27.42
9.02
-3.08
-5.96
1.78
19.32
43.62
69.76
92.12
105.69
107.5
97.53
78.56
55.22
32.2
12.56
-3.32
-17.5
-33.52
-54.85
-83.69
-120.46
-163.85
-211.25
-259.17
-303.78
-341.27
-368.29
-382.55
-383.09
-370.37
-345.83
-311.37
-268.78
-219.52
-164.82
-106.16
-45.79
13.13
66.88
112.11
146.57
169.48
181.37
183.3
176.58
162.64
143.3
121.06
98.91
79.52
64.57
54.65
50.02
51.46
60.33
77.34
100.64
124.86
142.05
144.69
129.09
97.2
55.79
13.44
-22.84
-49.67
-66.89
-75.85
-77.64
-72.52
-60.65
-42.93
-21.57
0.29
19.48
33.52
40.91
41.33
35.6
25.44
12.91
-0.36
-13.72
-27.19
-40.62
-52.65
-60.55
-61.34
-53.61
-38.9
-21.7
-7.75
-1.69
-5.48
-18
-36.14
-56.18
-74.75
-89.05
-96.62
-95.45
-84.47
-64.5
-38.57
-11.8
9.44
19.11
12.98
-10.04
-47.47
-93.69
-141.01
-181.61
-208.96
-218.92
-210.01
-183.19
-141.57
-90.19
-35.83
13.58
50.42
69.27
68.78
52.57
28.35
5.58
-7.35
-5.7
10.58
37.32
68.2
97.11
120.19
136.75
148.79
159.85
173.11
190.05
209.54
227.91
239.91
240.34
226.03
197.29
158.28
115.84
76.89
45.94
23.48
6.42
-9.95
-29.35
-52.71
-77.9
-100.92
-117.66
-125.33
-123.36
-113.53
-99.65
-86.73
-79.96
-83.29
-98.49
-124.81
-159.63
-199.49
-240.89
-280.48
-314.71
-339.63
-351.51
-347.94
-328.95
-297.3
-257.62
-214.82
-172.62
-132.99
-96.51
-63.27
-33.39
-7.16
15.24
34.03
49.76
62.9
73.46
80.83
84.25
83.61
80.06
76.3
75.88
82.03
96.48
118.87
147.03
177.8
207.93
234.48
254.77
266.18
266.19
253.07
226.65
188.94
143.95
96.8
52.59
15.54
-11.23
-25.67
-26.9
-15.78
4.55
28.51
49.05
59.66
56.5
39.93
14.41
-13.01
-35.15
-46.84
-46.35
-35.46
-18.68
-2.09
8.29
7.84
-5.34
-29.82
-61.24
-93.66
-121.42
-140.79
-150.47
-151.29
-145.15
-133.99
-119.16
-101.28
-80.23
-55.41
-26.37
6.44
41.02
73.73
100.23
116.74
121.34
114.28
97.36
72.81
42.49
7.82
-29.46
-66.55
-99.59
-124.59
-138.86
-142.18
-136.78
-126.55
-115.41
-106.04
-99.09
-93.73
-88.4
-81.92
-74.03
-65.16
-55.75
-45.6
-33.76
-19
-0.66
20.7
43.37
65.12
84.11
99.65
112.2
122.94
133.03
143.02
152.63
161.03
167.3
170.94
171.95
170.83
168.28
164.9
161.15
157.35
153.85
151.08
149.47
149.1
149.37
149.09
146.86
141.62
133.06
121.46
107.12
89.84
68.56
41.78
8.23
-32.2
-77.96
-125.9
-171.96
-212.23
-243.89
-265.74
-278.07
-282.05
-279.05
-270.14
-256.01
-237.32
-214.88
-189.62
-162.16
-132.71
-101.23
-68.04
-34.39
-2.17
26.95
52.38
75.18
97.32
120.55
145.26
169.78
190.64
203.42
203.78
188.6
157.04
111.33
56.88
1.48
-46.61
-80.74
-97.52
-97.23
-82.81
-58.38
-27.9
5.13
37.42
65.3
84.96
93.41
89.83
76.39
57.73
39.03
23.79
12.71
3.91
-5.15
-15.73
-26.83
-35.68
-39.57
-37.63
-31.59
-25.13
-22.18
-25.37
-35.19
-50.31
-68.43
-87.25
-105.02
-120.56
-133.09
-141.81
-145.8
-144.11
-136.41
-123.44
-107.22
-90.55
-75.96
-64.44
-54.66
-43.38
-26.73
-2.26
29.66
65.41
99.21
125.18
139.31
140.72
131.6
116
98.39
82.3
69.65
60.66
54.29
48.66
41.83
32.66
21.66
11.43
6.29
10.83
28.31
59.06
99.84
144.45
185.19
215.13
229.75
228.03
212.07
185.87
153.66
118.67
82.77
47.06
12.78
-17.83
-41.46
-54.59
-54.82
-42.34
-20.15
6.98
34.54
59.94
83.05
105.17
127.18
147.87
163.68
170.08
163.62
143.73
113.05
76.39
38.94
5.07
-22.1
-40.48
-49.03
-48.26
-40.97
-32.38
-29.23
-37.86
-62.15
-101.92
-152.88
-207.71
-258.06
-296.72
-319.17
-324.44
-314.94
-295.52
-271.94
-249.38
-231.47
-219.81
-214.03
-212.34
-211.81
-209.12
-201.09
-185.4
-161.15
-128.92
-90.07
-45.84
3.29
57.21
114.85
172.76
224.66
262.79
280.86
276.8
254.07
220.57
185.48
155.75
133.79
117.54
102.5
84.64
62.3
36.87
11.82
-8.81
-21.92
-26.41
-23.33
-15.65
-7.13
-1.39
-0.87
-6.25
-16.33
-28.5
-39.29
-45.05
-42.59
-29.99
-7.15
23.8
58.61
91.78
117.73
132.13
132.79
119.67
94.52
60.21
20.49
-19.97
-55.37
-79.22
-85.92
-72.89
-42.45
-2.08
37.46
65.53
75.14
65.02
39.18
4.52
-32.23
-66.6
-96.8
-122.58
-143.93
-160.35
-170.85
-174.47
-170.47
-157.94
-135.56
-101.84
-56.35
-1.38
57.45
111.8
153.1
175.3
176.58
159.43
128.76
89.92
47.19
4.05
-35.83
-67.88
-87.37
-91.12
-79.26
-55.68
-26.67
1.45
24.36
40.25
49.07
51.43
47.91
39.66
29.23
20.9
19.42
27.83
45.53
67.94
88.24
99.96
99.67
87.83
67.92
44.71
22.34
3.31
-11.49
-22.17
-29.35
-33.87
-36.74
-39.11
-42.12
-46.41
-51.65
-56.08
-56.59
-49.84
-33.78
-9.4
18.53
42.51
54.83
50.56
29.46
-3.87
-42.07
-77.96
-107.02
-128.35
-143.92
-156.85
-169.78
-183.68
-197.79
-209.92
-217.13
-216.59
-206.34
-185.61
-155.07
-116.7
-73.6
-29.5
11.67
46.28
71.34
84.86
86.19
76.39
58.25
36.28
16.21
3.91
4.19
19.54
49.42
89.97
134.75
175.88
205.86
219.3
214.45
193.86
163.61
131.44
103.85
83.89
70.27
58.81
44.87
25.75
1.75
-24.58
-50.17
-72.73
-91.17
-104.77
-112.27
-111.61
-100.79
-78.94
-47.55
-10.47
26.94
59.15
81.84
92.8
92.34
82.92
68.45
53.1
40.1
30.81
24.52
19.15
12.33
2.69
-9.78
-23.88
-38.17
-51.7
-64.34
-76.52
-88.56
-100.23
-110.51
-118.01
-121.49
-120.26
-114.31
-104.03
-90
-72.86
-53.74
-34.48
-17.69
-6.22
-2.38
-6.9
-18.56
-34.48
-51.05
-65.11
-74.7
-79.23
-79.03
-74.68
-66.86
-56.12
-43.18
-28.84
-14.01
0.67
14.72
27.8
39.65
50.35
60.45
70.89
82.31
94.43
105.64
113.59
116.22
112.82
104.38
92.86
80.02
66.57
52.05
35.55
16.76
-3.48
-23.28
-40.31
-52.53
-58.66
-58.42
-52.52
-42.56
-30.68
-18.84
-8.27
0.72
8.66
16.36
24.46
33.12
42.08
50.65
57.87
62.55
63.68
60.55
52.95
40.95
24.62
4
-20.83
-49.32
-80.23
-111.57
-141.12
-166.75
-186.64
-199.04
-202.27
-195.34
-178.91
-155.93
-131.18
-109.64
-94.31
-84.88
-78.32
-71.06
-61.37
-50.38
-40.88
-34.86
-31.39
-26.34
-14.19
9.15
44.37
88.35
135.53
179.7
215.43
238.7
247
239.5
217.34
184.15
145.69
108.79
79.51
61.38
54.58
56.18
61.51
65.79
65.57
59.52
48.6
35.4
23.29
15.45
14.28
20.8
34.65
54.11
76.27
97.59
114.7
125.35
128.98
126.67
120.43
111.97
101.88
89.4
73.02
51.39
23.93
-8.97
-46.32
-86.91
-129.43
-172.21
-213.05
-249.37
-278.83
-300.04
-313.01
-319.13
-320.66
-320.13
-319.66
-320.57
-322.86
-325.18
-325.12
-319.89
-307.38
-287.05
-260.22
-229.54
-197.98
-167.75
-139.75
-113.69
-88.67
-63.84
-38.74
-13.36
12.11
37.26
61.61
84.4
104.79
122.01
135.82
146.57
155.31
163.29
171.52
180.46
189.87
199.07
207.26
213.87
218.7
222
224.36
226.74
230.31
236.14
244.74
255.58
267.06
276.95
283.19
284.5
280.54
271.61
258.04
239.91
217.19
190.15
159.82
128.04
97.08
69.25
46.43
29.82
19.59
14.65
12.53
9.78
3
-9.85
-28.48
-50.11
-70.56
-85.92
-94.15
-95.77
-93.52
-91.22
-92.45
-99.67
-113.82
-134.3
-159.22
-185.61
-209.82
-228.2
-237.78
-237.02
-226.04
-206.44
-180.5
-150.32
-117.22
-81.61
-43.53
-3.26
37.99
78.09
114.24
143.7
164.46
175.73
178.18
173.75
165.21
155.14
145.18
135.62
125.59
113.74
99.01
81.2
61.04
40.32
21.68
8.33
3.57
9.85
27.79
55.42
88.15
119.65
143.68
155.69
153.94
139.39
114.79
83.51
48.7
13.26
-20.02
-48.11
-67.79
-76.3
-72.3
-56.6
-32.21
-3.56
25.02
50.6
72.14
90.05
105.13
117.8
127.91
134.9
138.02
136.18
127.68
110.35
82.28
43.09
-4.85
-56.15
-103.22
-138.2
-155.4
-153.37
-135.66
-110.13
-86.75
-74.52
-79.05
-101.28
-137.77
-182.15
-227.16
-265.94
-292.69
-303.12
-294.9
-268.33
-226.69
-175.66
-121.6
-69.81
-23.37
16.52
49.41
74.38
89.67
93.55
85.52
67.09
41.59
13.22
-14.19
-37.94
-56.47
-69.06
-75.35
-75.32
-69.44
-58.86
-45.28
-30.77
-17.33
-6.44
1.17
5.48
7.09
6.9
5.81
4.54
3.52
2.91
2.74
3
3.8
5.32
7.86
11.8
17.57
25.59
36.18
49.31
64.64
81.52
99.38
117.94
137.11
156.58
175.29
191.25
201.97
205.34
200.44
187.78
168.88
145.37
118.27
87.87
54.23
18
-19.26
-55.23
-87.59
-114.79
-136.32
-152.56
-164.24
-172.23
-177.54
-181.54
-185.93
-192.16
-200.37
-208.72
-213.26
-209.33
-193.47
-165.01
-126.49
-82.67
-38.9
0.03
30.34
49.06
54.2
45.36
24.78
-2.34
-28.93
-48.26
-56.25
-52.8
-41.18
-25.99
-10.93
2.52
15.05
28.27
43.41
60.55
78.74
96.56
112.5
125.06
132.71
134.09
128.83
118.3
105.93
96.28
93.2
97.97
108.46
120.23
128.9
132.62
132.89
133.3
136.84
143.51
149.87
150.86
142.91
126.2
104.74
84.26
69.21
60.51
55.71
50.9
43.2
32.24
19.74
8.06
-1.58
-9.81
-18.86
-31.29
-48.96
-72.39
-100.67
-131.7
-162.53
-189.51
-208.83
-216.87
-210.77
-189.22
-153.27
-107.18
-58.55
-17.31
6.75
7.03
-17.4
-61.23
-114.73
-166.98
-209.19
-236.57
-248.27
-245.88
-231.77
-207.92
-176.04
-138.03
-96.53
-54.78
-16.09
16.96
42.94
61.67
74.08
81.8
86.72
90.78
95.52
101.84
109.89
119.05
128.21
136.27
142.74
148
153.47
160.96
171.77
185.51
199.62
209.63
210.34
197.47
169.24
126.9
74.55
17.92
-36.95
-84.94
-122.42
-147.58
-160.21
-161.48
-153.58
-139.27
-121.47
-102.87
-85.65
-71.41
-61.17
-55.45
-54.26
-57.17
-63.22
-70.98
-78.57
-84.02
-85.61
-82.27
-73.78
-60.68
-43.94
-24.59
-3.44
18.9
41.99
65.31
88.3
110.32
130.67
148.53
162.87
172.4
175.74
171.64
159.21
138.38
110.19
77
42.52
11.31
-11.86
-23.01
-19.98
-3.03
24.83
58.37
91.18
117.33
132.93
136.95
131.08
118.82
103.9
89.09
75.75
64.18
54.32
46.14
39.57
34.13
28.76
22
12.53
-0.51
-17.35
-37.73
-60.96
-85.61
-109.19
-128.27
-139.3
-140.05
-130.53
-113.03
-90.76
-66.23
-40.25
-12.54
16.6
44.68
67.18
79.25
78.29
65.78
46.66
27.05
11.4
0.97
-5.79
-11.53
-18.38
-27.43
-39.34
-54.63
-73.48
-94.59
-114.27
-126.89
-126.61
-109.81
-76.82
-32.16
16.89
62.48
98.18
120.15
127.41
121.54
105.85
84.27
60.27
36.15
12.73
-10.01
-32.26
-53.56
-72.68
-87.89
-97.56
-100.57
-96.46
-85.61
-69.18
-49.19
-28.38
-9.72
4.33
12.36
14.13
10.07
0.81
-13.03
-30.61
-50.39
-70.08
-87.16
-99.82
-107.69
-111.86
-114.03
-115.25
-115.27
-112.81
-106.48
-95.65
-80.58
-61.91
-40.06
-15.33
11.33
37.35
58.5
70.21
69.61
57.24
37.09
14.93
-4.21
-18.07
-27.56
-35.45
-44.44
-55.52
-67.4
-77.01
-80.7
-75.55
-60.42
-36.51
-7.06
23.38
50.19
69.62
79.42
78.78
68.07
48.65
22.83
-5.83
-32.74
-52.79
-61.45
-56
-36.19
-4.29
35.46
77.65
116.82
148.6
170.79
183.69
189.61
191.69
192.38
192.51
191.23
186.81
177.76
163.65
145.43
125.24
106.32
92.45
87.13
92.23
106.67
126.09
144.05
154.61
154.9
146.43
133.96
122.73
115.61
111.65
106.73
96.1
76.66
48.12
12.42
-27.47
-68.63
-108.47
-144.33
-173.32
-192.84
-201.56
-200.33
-192.2
-181.42
-171.79
-165.61
-163.3
-164.06
-166.75
-170.35
-173.72
-175.21
-172.65
-163.95
-148.19
-126.36
-101.43
-77.53
-58.8
-48.16
-46.73
-53.68
-66.54
-81.86
-95.99
-105.96
-110.03
-107.87
-100.47
-89.75
-78.13
-67.98
-61.15
-58.65
-60.41
-65.44
-71.84
-77.19
-78.77
-74.01
-60.92
-38.7
-8.17
28.16
66.69
103.59
135.68
160.9
178.05
186.51
186
176.92
160.89
140.88
120.77
104.23
93.46
88.51
87.33
86.64
83.16
74.77
61.08
43.48
24.59
7.5
-5.04
-11.08
-9.78
-1.72
10.79
23.5
30.83
27.24
9.31
-22.55
-63.74
-106.86
-144.47
-171.62
-187.12
-192.85
-191.95
-186.86
-178.47
-166.57
-150.75
-131.25
-109.11
-85.81
-63.21
-43.78
-30.86
-28.34
-39.51
-65.3
-103.13
-147.15
-189.79
-224.17
-245.79
-253.2
-247.1
-229.29
-201.62
-165.87
-123.97
-78.23
-30.93
16.38
63.13
109.25
153.87
194.28
226
244.33
246.61
234.02
211.81
187.83
169.91
163.29
169.11
184.15
202.05
215.23
217.21
204.37
177.01
139
96.66
56.95
25.72
6.51
0.1
4.62
16.2
30.01
41.75
49.19
52.97
55.83
60.8
68.9
78.21
84.84
85.28
78.56
66.64
52.85
39.59
26.98
13.24
-3.17
-21.85
-40.24
-55.06
-64.6
-70.01
-74.63
-81.78
-92.7
-105.62
-116.53
-121.05
-116.33
-102.27
-81.54
-58.78
-39
-26.19
-22.12
-25.88
-34.48
-43.9
-50.53
-51.99
-47.51
-37.54
-23.14
-5.26
15.56
39.06
64.78
91.3
115.79
134.22
142.51
138.1
121.55
96.85
70.3
48.3
35.16
31.85
36.11
43.7
49.97
51.21
45.61
33.38
16.81
-0.63
-15.23
-24.43
-27.54
-26.08
-23.01
-21.76
-25.15
-34.64
-50.14
-69.92
-90.78
-108.49
-118.79
-118.67
-107.74
-88.85
-67.34
-49.34
-39.5
-39.36
-47.22
-59.42
-72.36
-83.95
-93.99
-103.29
-112.36
-120.57
-126.22
-127.26
-122.07
-109.93
-91.01
-66.33
-37.66
-7.35
22.22
49.48
74.43
98.66
124.18
151.56
178.54
200.15
210.47
205.38
184.77
152.63
115.45
79.41
48.28
22.91
2.45
-13.8
-25.12
-29.55
-25.08
-11.41
9.08
31.51
49.81
58.45
53.91
35.51
5.3
-32.58
-72.95
-110.61
-141.14
-161.36
-169.58
-165.65
-150.58
-126.3
-95.33
-60.74
-25.97
5.3
29.8
45.26
50.97
47.96
38.46
25.09
10.05
-5.17
-19.43
-31.64
-40.44
-44.65
-43.83
-38.81
-31.53
-24.16
-18.13
-13.54
-9.34
-4.19
2.68
10.99
19.43
26.34
30.25
30.47
27.06
20.75
12.68
3.96
-4.66
-13.05
-21.58
-30.75
-40.82
-51.5
-62.24
-73.01
-84.67
-98.96
-117.71
-141.56
-169.23
-197.59
-222.74
-241.49
-252.45
-256.15
-254.18
-248.06
-238.16
-223.71
-203.56
-177.1
-145.2
-110.18
-75.21
-43.3
-16.48
4.39
19.45
29.3
34.8
36.82
36.42
34.76
33
32.01
32.21
33.46
35.12
36.18
35.41
31.79
24.87
15.15
4.22
-5.52
-11.47
-11.47
-4.27
10.2
30.93
56.17
83.69
111.2
136.82
159.39
178.6
194.81
208.61
220.37
230
236.83
239.83
238.05
231.29
220.71
209.13
200.49
198.49
204.98
218.77
235.79
250.41
257.62
254.89
242.72
224.03
202.58
181.64
163.2
148.25
137.21
130.3
127.45
127.99
130.48
133.03
134
132.76
130.12
128.01
128.47
132.57
139.48
146.47
149.63
145.2
130.99
107.29
77.2
45.9
19.38
2.72
-1.52
5.74
20.1
34.83
42.87
39.13
22.08
-5.8
-39.21
-72.23
-100.46
-122.3
-138.72
-151.85
-163.15
-172.48
-178.34
-179.36
-175.5
-168.36
-159.71
-149.69
-135.72
-113.6
-80.08
-36.02
12.66
56.63
86.94
99.06
94.51
79.56
61.63
45.97
34.33
26.07
20.43
17.88
19.63
25.77
33.65
38.19
33.99
18.26
-7.26
-36.82
-63.04
-80.08
-85.76
-81.88
-72.65
-62.69
-55.46
-52.53
-54.06
-59.38
-67.5
-77.32
-87.88
-98.3
-108.01
-116.8
-124.65
-131.74
-138.41
-145.22
-152.67
-160.82
-168.75
-174.42
-175.03
-168.05
-152.39
-129.3
-102.19
-75.81
-54.65
-41.64
-37.56
-41.17
-49.65
-59.2
-65.49
-64.33
-52.83
-30.78
-1.48
28.63
51.74
61.48
55.42
36.19
10.77
-11.77
-23.03
-17.33
7.18
48.48
101.11
157.11
207.33
243.3
259.44
254.51
231.97
198.6
162.16
128.74
101.31
79.64
61.48
43.93
24.64
2.08
-24.57
-55.39
-89.57
-124.81
-157.29
-182.23
-195.31
-194.33
-180.07
-156.13
-127.48
-98.57
-72.01
-48.66
-28.58
-12.33
-1.64
1.22
-5.62
-22.34
-47.17
-76.87
-107.69
-136.41
-160.64
-178.9
-190.27
-194.36
-191.25
-181.65
-166.61
-147.26
-124.57
-99.31
-72.37
-45.13
-19.44
2.72
19.73
31.04
37.41
40.82
43.93
49.21
58.37
71.86
88.97
108.01
126.77
142.88
154.2
159.2
157.27
148.77
134.8
116.75
95.98
73.7
51.15
29.87
11.86
-0.63
-5.36
-0.66
14
37.43
66.63
97.13
124.12
143.68
153.54
153.34
143.86
126.16
101.19
70.08
34.87
-0.98
-32.9
-56.43
-68.44
-68.08
-56.68
-37.1
-12.94
12.2
35.15
53.7
66.95
75.37
80.12
81.98
80.16
72.08
54.17
23.85
-18.59
-69.02
-120.16
-163.71
-193.02
-205
-200.91
-185.46
-164.98
-145.28
-130.14
-120.76
-116.19
-114.28
-112.74
-109.58
-103.13
-91.83
-74.29
-49.97
-20.01
12.29
42.04
64.36
76.32
78.02
72.39
63.55
55.02
48.74
45.16
44.05
45.22
48.5
53.18
58.03
61.58
63.11
63.34
64.18
67.54
73.94
81.91
88.36
90.18
85.57
74.82
60.09
44.46
31.11
22.45
19.88
23.46
31.82
42.32
51.57
56.12
53.28
41.72
21.82
-4.47
-33.92
-62.92
-88.33
-108.36
-123.02
-134.16
-144.47
-156.5
-171.69
-189.99
-210.17
-230.23
-248.03
-261.52
-269.03
-269.08
-260.81
-243.96
-218.9
-186.62
-148.39
-105.58
-59.26
-10.02
41.94
96.31
151.94
206.43
256.12
297.35
327.93
348.13
360.63
368.78
374.45
376.54
371.22
353.85
321.5
275.08
219.42
161.65
108.46
63.95
28.71
0.71
-22.96
-44.34
-63.68
-79.89
-91.61
-98.5
-101.77
-103.72
-106.57
-111.2
-116.81
-121.24
-122.28
-118.64
-110.4
-98.72
-85.18
-71.26
-58.34
-48.18
-43.12
-45.9
-58.83
-82.54
-115.38
-153.45
-191.61
-224.92
-249.89
-264.87
-269.87
-265.85
-254.1
-236.25
-214.56
-192.52
-174.64
-165.51
-168.09
-181.92
-202.5
-222.16
-232.76
-228.59
-208.63
-176.51
-138.65
-101.29
-68.25
-40.28
-16.09
5.74
25.49
42.23
54.73
62.59
66.82
69.58
73.32
79.96
90.4
104.53
121.28
139.04
155.88
170.03
180.31
186.52
189.33
189.97
189.52
188.39
186.35
182.88
177.76
171.4
164.76
158.88
154.47
151.59
149.66
147.78
145.06
140.97
135.59
129.62
124.26
120.89
120.74
124.72
133.28
146.34
163.03
181.48
198.83
211.66
216.78
212.41
198.66
177.53
151.9
124.28
95.93
66.69
35.53
1.49
-35.63
-75.01
-115.12
-154.25
-191.03
-224.54
-254.25
-279.84
-301.03
-317.49
-328.85
-334.78
-334.96
-329.16
-317.28
-299.58
-276.98
-251.06
-224.1
-198.56
-176.42
-158.55
-144.43
-132.34
-120.02
-105.39
-87
-64.23
-37.07
-5.94
28.32
64.49
100.73
134.83
164.68
188.96
207.39
220.52
229.16
233.49
232.64
224.91
208.56
182.82
148.75
109.24
68.39
30.43
-1.51
-26.03
-43.47
-55.3
-63.22
-68.37
-71.12
-71.29
-68.79
-64.16
-58.45
-53.02
-48.84
-46.28
-45.06
-44.62
-44.45
-44.41
-44.81
-46.05
-48.33
-51.38
-54.5
-56.78
-57.69
-57.34
-56.56
-56.7
-59.04
-64.55
-73.63
-86.14
-101.64
-119.26
-137.53
-154.22
-166.59
-171.92
-168.6
-156.74
-138.45
-117.22
-96.91
-80.6
-69.95
-65.11
-65.14
-68.69
-74.52
-81.77
-89.85
-98.23
-106.16
-112.51
-115.82
-114.51
-107.12
-92.64
-70.53
-40.84
-4.01
39.09
87.11
138.23
190.16
240.36
286.5
326.84
360.44
387.15
407.31
421.46
430.09
433.55
432.19
426.53
417.25
405.28
391.6
377.26
363.06
349.43
336.18
322.4
306.53
286.82
261.94
231.71
197.53
162.3
129.75
103.37
85.2
75.32
71.75
71.09
69.45
63.41
50.79
31.17
5.78
-22.88
-51.91
-78.84
-102.38
-122.51
-140.06
-155.7
-169.11
-178.74
-182.44
-178.62
-167.15
-149.7
-129.13
-108.38
-89.74
-74.46
-62.83
-54.42
-48.23
-42.6
-35.52
-25.12
-10.53
7.51
26.66
43.78
56.1
62.32
62.92
59.85
55.55
52.14
50.79
51.76
54.65
58.89
63.85
68.86
72.89
74.37
71.52
62.87
48.08
28.31
5.95
-16.26
-36.2
-52.99
-66.88
-78.59
-88.61
-96.92
-103.23
-107.45
-110.03
-111.82
-113.81
-116.58
-120.25
-124.48
-128.76
-132.53
-135.23
-136.19
-134.75
-130.34
-122.78
-112.51
-100.56
-88.24
-76.66
-66.37
-57.24
-48.79
-40.61
-32.76
-25.87
-20.79
-18.08
-17.74
-19.2
-21.66
-24.51
-27.48
-30.44
-33.15
-34.97
-34.97
-32.34
-26.8
-18.79
-9.28
0.69
10.46
19.96
29.57
39.74
50.65
61.99
73.1
83.33
92.33
100.35
108.06
116.2
125.1
134.28
142.54
148.37
150.57
148.7
143.04
134.22
122.83
109.44
94.94
80.99
69.71
62.85
60.54
60.67
59.47
53.23
40.21
21.66
1.35
-16.26
-27.96
-32.73
-31.15
-24.2
-12.39
3.97
23.43
42.59
56.36
60
51.53
33.13
10.56
-9.4
-21.93
-26.08
-24.42
-21.08
-19.14
-19.26
-19.86
-18.58
-13.98
-6.52
1.66
7.83
10.04
7.91
2.7
-3.4
-8.23
-10.46
-9.86
-7.06
-3.18
0.53
2.84
2.71
-0.28
-5.51
-11.22
-14.99
-15.04
-11.39
-6.25
-3.24
-5.61
-14.48
-28.19
-43.18
-55.63
-63.12
-65.23
-63
-58.08
-52.17
-46.9
-44.15
-46.08
-54.75
-71.42
-95.85
-126.19
-159.1
-190.61
-216.77
-234.47
-242
-239.3
-227.79
-209.9
-188.26
-165.03
-141.64
-118.92
-97.55
-78.34
-61.96
-48.76
-38.32
-29.52
-20.91
-11.34
-0.41
11.51
23.66
35.36
46.43
57.09
67.73
78.55
89.29
99.42
108.4
115.79
121.24
124.33
124.52
121.4
115.02
105.99
95.34
83.81
71.35
56.97
39.3
17.76
-6.38
-29.79
-48.23
-58.5
-60.24
-56.32
-51.53
-50.14
-53.82
-61
-68.09
-71.64
-70.34
-65.44
-59.75
-55.9
-55.11
-57.04
-60.63
-65.14
-70.64
-77.62
-86.24
-95.67
-104.04
-109.05
-108.78
-102.3
-90
-73.38
-54.51
-35.51
-18.09
-3.28
8.54
17.56
24.35
29.67
34.35
39.11
44.5
50.74
57.66
64.67
71.04
76.12
79.81
82.66
85.69
89.9
95.78
102.99
110.5
116.99
121.46
123.57
123.72
122.94
122.4
123.12
125.51
129.07
132.08
131.86
125.54
110.89
87.3
55.98
19.33
-20.02
-60.26
-101.13
-143.73
-189.85
-240.79
-296.24
-353.38
-407.07
-450.69
-478.02
-485.19
-471.94
-441.65
-400.09
-353.37
-306.28
-261.52
-220.06
-181.93
-146.99
-114.96
-85.11
-55.94
-25.33
8.62
46.45
86.7
125.86
159.49
183.96
197.76
202.04
199.93
195
189.82
185.28
180.87
175.65
169.19
161.87
154.52
147.88
141.98
136.21
129.68
121.74
112.3
101.94
91.69
82.74
76.16
72.57
72.01
73.88
77.16
80.67
83.42
84.82
84.66
83.11
80.43
76.92
72.78
68.11
62.98
57.42
51.45
45.2
38.92
32.94
27.59
23.03
19.09
15.29
10.77
4.5
-4.55
-17.05
-33.01
-51.47
-70.71
-88.56
-103.16
-113.37
-119.06
-120.83
-119.65
-116.39
-111.64
-105.77
-99.02
-91.71
-84.04
-76.23
-68.48
-61.11
-54.55
-49.22
-45.24
-42.18
-39.05
-34.57
-27.64
-17.67
-4.8
10.32
26.71
43.32
59.22
73.65
86.03
95.98
103.44
108.58
111.79
113.47
113.94
113.36
111.78
109.25
105.93
102.14
98.28
94.53
90.77
86.49
80.96
73.62
64.45
54.22
44.35
36.5
31.9
30.88
32.72
35.89
38.62
39.5
37.87
33.82
27.96
21.08
13.84
6.66
-0.36
-7.33
-14.47
-21.96
-29.76
-37.52
-44.57
-50.2
-54
-56.15
-57.34
-58.43
-59.91
-61.4
-61.66
-58.87
-51.36
-38.36
-20.53
-0.4
17.94
29.69
30.7
18.79
-5.13
-36.99
-70.37
-98.05
-113.89
-114.46
-99.98
-74.13
-42.94
-12.96
10.62
25.27
31.32
31.21
28.15
24.88
23.18
23.84
27.11
32.94
40.97
50.33
59.67
67.54
72.85
75.35
75.57
74.59
73.49
73.11
73.89
75.93
79.01
82.64
86.17
88.88
90.22
90.05
88.63
86.47
83.98
81.21
77.79
73.22
67.26
60.21
52.84
46.1
40.54
36.06
31.91
26.99
20.46
12.11
2.43
-7.63
-17.03
-25.09
-31.7
-37.15
-42
-46.75
-51.71
-56.96
-62.39
-67.84
-73.15
-78.13
-82.67
-86.71
-90.25
-93.35
-96.07
-98.39
-100.07
-100.71
-99.75
-96.67
-91.23
-83.63
-74.55
-64.96
-55.88
-47.98
-41.47
-36.03
-31
-25.69
-19.5
-12.08
-3.37
6.5
17.26
28.48
39.73
50.55
60.39
68.8
75.38
80
82.88
84.53
85.65
86.73
87.92
88.92
89.18
88.22
85.88
82.4
78.31
74.02
69.74
65.4
60.77
55.67
50.1
44.22
38.3
32.57
27.18
22.14
17.34
12.65
7.98
3.33
-1.22
-5.56
-9.72
-13.97
-18.87
-25.16
-33.48
-44.19
-57.24
-72.19
-88.35
-104.84
-120.6
-134.31
-144.51
-149.84
-149.5
-143.59
-133.16
-119.85
-105.27
-90.44
-75.7
-60.87
-45.8
-30.59
-15.75
-1.82
10.8
21.98
31.79
40.21
47.08
52.14
55.28
56.75
57.18
57.32
57.77
58.66
59.66
60.21
59.78
58.22
55.69
52.62
49.41
46.37
43.61
41.14
39.01
37.21
35.74
34.44
33.01
31.15
28.7
25.67
22.22
18.55
14.6
10.25
5.23
-0.61
-7.32
-14.87
-23.29
-32.67
-42.98
-53.92
-64.79
-74.66
-82.67
-88.33
-91.83
-93.78
-95.05
-96.37
-98.15
-100.41
-102.84
-104.94
-106.22
-106.51
-106.14
-106.06
-107.63
-112.07
-119.98
-131
-143.87
-156.79
-168.02
-176.09
-180.02
-179.14
-172.96
-161.14
-143.7
-121.2
-94.78
-66.08
-36.85
-8.75
16.84
38.93
56.95
70.75
80.66
87.46
92.2
95.99
99.66
103.52
107.43
110.97
113.73
115.6
116.81
117.69
118.57
119.48
120.19
120.29
119.39
117.37
114.33
110.68
106.8
103.06
99.64
96.52
93.54
90.48
87.21
83.7
80.12
76.67
73.55
70.78
68.12
65.13
61.27
56.1
49.46
41.62
33.34
25.77
20.22
17.78
18.76
22.32
26.48
28.63
26.46
18.83
6.32
-8.86
-23.55
-34.68
-40.25
-40.02
-35.71
-30.65
-28.8
-33.48
-46.19
-65.96
-89.69
-113.28
-133.32
-148.09
-157.73
-163.37
-165.81
-164.75
-158.87
-146.68
-127.41
-101.5
-70.41
-36.18
-1.04
32.85
63.33
88.58
107.57
120.53
129.03
135.4
141.68
148.63
155.25
159.08
157.21
147.34
128.57
101.61
68.64
32.87
-1.92
-31.97
-54.14
-66.58
-69.15
-63.64
-53.4
-42.43
-34.28
-30.95
-32.36
-36.63
-41.05
-43.16
-41.75
-37.03
-30.26
-22.9
-16.05
-10.09
-4.9
-0.17
4.4
9.19
14.78
22.08
31.73
43.21
54.37
61.66
61.39
51.59
33.15
9.58
-14.6
-35.85
-52.52
-64.41
-71.21
-71.55
-63.4
-45.79
-20.61
7.08
30.65
44.52
46.54
38.45
24.61
10.01
-1.5
-7.79
-8.31
-3.63
4.95
15.36
24.96
31.03
31.48
25.37
13.28
-2.81
-20.03
-35.34
-46.28
-51.69
-52.06
-49.41
-46.62
-46.45
-50.6
-59.15
-70.68
-82.84
-93.19
-100.08
-102.99
-102.53
-99.99
-96.6
-93.01
-89.1
-84.26
-77.82
-69.6
-59.96
-49.43
-38.45
-27
-14.84
-1.88
11.52
24.69
36.95
48.1
58.35
68
76.81
83.66
86.8
84.6
76.45
63.22
47.06
30.68
16.33
5.24
-2.6
-8.12
-12.74
-17.98
-25.26
-35.63
-49.65
-67.06
-86.55
-105.76
-121.66
-131.23
-132.43
-124.88
-110.09
-90.98
-70.9
-52.51
-37.12
-24.5
-13.43
-2.43
9.6
22.91
36.87
50.24
61.58
69.83
74.66
76.73
77.42
78.35
80.73
84.88
90.16
95.43
99.52
101.85
102.55
102.5
103.36
107.42
117.11
134.15
158.44
187.3
215.89
238.6
251.25
252.83
245.88
235.21
225.7
220.26
218.95
219.58
219.32
216.22
210.01
201.88
193.65
186.88
182.31
179.56
177.44
174.31
168.58
159.3
146.53
131.5
116.42
103.76
95.17
90.72
88.63
85.94
79.84
68.8
52.99
33.83
12.67
-10.17
-35.64
-65.03
-98.66
-134.7
-169.42
-198.4
-218.32
-228.31
-230.24
-227.83
-225.23
-225.57
-230
-237.63
-246.13
-252.78
-255.6
-254.08
-249.45
-244.31
-241.39
-241.99
-244.79
-245.34
-236.98
-212.88
-168.77
-105.49
-30.13
45
105.65
140
142.77
116.86
72.1
21.42
-23.65
-56.05
-74.12
-80.16
-78.12
-71.5
-62.65
-52.88
-43.17
-34.51
-27.6
-22.73
-19.67
-18.04
-17.61
-18.68
-21.9
-27.63
-35.49
-44.19
-51.79
-56.44
-57.14
-54.05
-48.49
-42.22
-36.69
-32.55
-29.58
-27.26
-25.22
-23.71
-23.46
-25.16
-28.82
-33.42
-37.19
-38.21
-35.3
-28.51
-19.17
-9.23
-0.45
6.29
11.34
16.07
22.65
33.62
51.54
78.24
113.86
155.94
199.05
235.81
258.8
263.01
247.33
214.53
169.56
117.32
60.96
1.91
-58.73
-118.43
-172.32
-214.1
-238.25
-242.39
-228.57
-202.59
-171.69
-141.93
-116.43
-95.18
-76.46
-58.59
-41.2
-25.15
-11.67
-1.06
7.79
17.08
29.11
45.29
65.57
88.75
112.97
136.29
156.99
173.57
184.62
188.98
185.69
174.1
153.85
124.73
86.98
41.7
-8.55
-59.53
-105.82
-142.22
-165.33
-174.56
-172.12
-161.86
-147.63
-132.05
-116.12
-99.76
-82.83
-65.87
-50.33
-38.21
-31.36
-30.99
-37.5
-50.61
-69.43
-92.46
-117.4
-140.99
-159.29
-168.29
-164.96
-148.13
-118.93
-80.5
-36.86
8.29
52.53
94.76
134.84
172.79
208.29
240.37
267.6
288.33
301.02
304.47
297.91
281.19
254.77
219.73
177.54
129.95
78.75
25.81
-26.76
-76.58
-121.05
-157.74
-184.79
-201.22
-207.05
-203.04
-190.45
-170.74
-145.54
-116.71
-86.48
-57.33
-31.79
-11.98
0.86
6.63
6.46
2.4
-3.05
-7.72
-10.24
-10.36
-8.74
-6.38
-4.09
-2.11
-0.24
1.78
3.93
5.77
6.67
6.28
4.8
3.02
2.03
2.71
5.16
8.44
10.71
9.97
5.05
-3.35
