-34.08
-13.54
10.97
34.85
52.49
58.87
51.3
30.7
1.65
-28.85
-53.8
-68.49
-72.03
-67.3
-59.42
-53.54
-52.93
-58.1
-67.01
-75.98
-80.82
-77.9
-65.02
-42.08
-11.46
22.1
52.43
73.47
80.99
73.89
54.87
29.9
6.98
-5.88
-3.03
17.02
50.91
91.29
129.16
156.69
169.45
167.19
153.07
131.89
108.24
85.19
63.94
44.14
24.78
5.07
-14.73
-32.86
-46.17
-50.76
-43.23
-22.17
10.61
49.69
86.82
112.86
120.3
105.55
70.12
20.12
-35.68
-88.46
-131.46
-160.89
-175.48
-175.34
-161.27
-134.71
-98.62
-58.17
-20.43
7.1
18.62
11.84
-11.31
-45.41
-82.99
-116.29
-138.58
-145.25
-134.78
-109.42
-75.21
-40.81
-15.11
-4.41
-10.2
-28.52
-51.31
-69.2
-74.6
-64.01
-38.65
-3.48
34.97
70.86
100.66
123.5
140.25
152.31
160.52
165.05
165.92
163.76
160.17
157.07
155.57
155.12
153.59
148.15
136.83
119.46
97.66
74.14
51.84
33.72
22.69
21.29
30.47
48.17
68.66
83.78
86.01
71.74
43.12
6.94
-28.75
-58.47
-81.2
-99.57
-116.89
-134.31
-149.96
-160.16
-161.92
-154.88
-141.63
-126.28
-112.65
-102.91
-97.13
-94.27
-93.26
-93.81
-96.55
-102.45
-112.03
-124.83
-139.36
-153.63
-165.81
-174.78
-180.1
-181.72
-179.47
-172.93
-161.79
-146.59
-129.09
-112.19
-98.94
-91.46
-89.99
-92.82
-96.86
-98.51
-94.54
-82.77
-62.75
-36.34
-7.79
16.96
31.8
32.47
18.08
-8.68
-42.64
-78.11
-110.46
-136.61
-154.65
-163.06
-160.39
-145.69
-119.27
-83.24
-41.18
2.6
44.15
80.47
109.63
130.58
142.95
147.02
143.9
135.57
124.63
113.73
104.87
98.93
95.68
94.2
93.56
93.26
93.45
94.64
97.28
101.25
105.69
109.2
110.39
108.45
103.55
96.9
90.53
86.94
88.53
96.95
112.05
131.28
149.64
160.85
159.35
142.36
111.03
69.94
25.31
-17.18
-53.79
-82.86
-103.88
-116.46
-119.96
-113.9
-98.77
-76.43
-49.78
-22.03
4.2
27.19
46.15
60.86
71.47
78.38
82.21
83.76
83.83
83.05
81.67
79.35
75.16
67.57
54.82
35.57
9.73
-20.78
-51.95
-78.4
-94.97
-98.6
-89.61
-71.78
-51.15
-33.87
-24.31
-24
-31.79
-45
-60.77
-76.91
-92.11
-105.45
-115.88
-121.99
-122.25
-115.57
-101.81
-82.07
-58.54
-34.14
-12.01
5.08
15.25
17.86
13.63
4.33
-7.76
-20.39
-31.87
-41.09
-47.36
-50.25
-49.51
-45.28
-38.22
-29.54
-20.72
-13
-7.01
-2.57
1.03
4.6
8.69
13.34
18.2
22.7
26.37
28.96
30.52
31.31
31.69
32.02
32.53
33.27
34.12
34.89
35.39
35.56
35.39
35.03
34.56
34.03
33.42
32.69
31.79
30.6
29
26.83
23.9
20.02
14.89
8.18
-0.41
-10.98
-23.21
-36.25
-48.93
-59.94
-68.22
-72.93
-73.37
-68.58
-57.45
-39.31
-14.71
13.72
41.39
62.8
73.24
70.47
55.6
32.79
7.97
-12.74
-24.48
-24.38
-11.8
11.72
42.79
76.64
108.05
132.53
147.44
152.68
150.59
145
139.74
137.32
137.99
139.88
139.93
135.32
124.71
108.99
91.03
74.77
63.84
60.4
64.56
74.44
87.03
99.09
108.07
112.58
112.55
108.91
103.1
96.45
89.68
82.65
74.41
63.46
48.29
28.03
3.08
-24.56
-51.46
-73.61
-87.68
-92.11
-87.57
-76.55
-62.2
-47.21
-33.24
-21.28
-12.35
-7.99
-10.06
-19.8
-36.75
-58.44
-80.9
-99.85
-112.14
-116.5
-113.49
-104.76
-92.14
-77.03
-60.26
-42.45
-24.43
-7.56
6.34
15.61
19.47
18.57
14.96
11.37
9.99
11.49
14.71
17.39
17.41
13.93
7.78
0.98
-4.33
-6.64
-5.39
-0.69
7.03
17.17
28.88
40.84
51.53
59.49
63.82
64.41
61.75
56.67
50.11
43.15
37.06
33.43
33.83
39.38
50.39
66.12
84.91
104.32
121.43
133.06
136.22
128.84
110.45
82.6
48.69
13.12
-19.8
-46.94
-66.95
-80.28
-88.69
-94.59
-100.38
-107.83
-117.61
-129.11
-140.36
-148.49
-150.5
-144.56
-131.03
-113.07
-96.15
-86.5
-88.78
-104.15
-129.54
-158.62
-184.13
-200.29
-204.58
-197.86
-183.3
-164.78
-145.61
-127.92
-112.64
-99.94
-89.88
-83.05
-80.95
-85.79
-99.61
-122.81
-153.14
-185.62
-213.84
-232.04
-237.12
-229.32
-211.54
-187.87
-161.94
-136.31
-112.49
-91.47
-74.06
-60.69
-51.12
-44.24
-38.23
-31.06
-21.11
-7.65
8.97
27.54
46.39
63.91
79.01
91.45
101.73
110.87
119.97
129.86
140.91
153.09
166.1
179.51
192.76
205.08
215.46
222.7
225.78
224.12
218.01
208.54
197.38
185.98
175.06
164.09
151.49
135.17
113.4
85.54
52.54
16.91
-17.62
-46.87
-67.04
-75.59
-71.82
-57.13
-34.6
-8.32
17.75
40.57
58.55
71.54
80.31
85.96
89.34
90.79
90.17
87.13
81.4
73.19
63.39
53.69
46.47
44.17
48.51
59.38
74.44
89.47
99.85
102.43
97.04
86.72
76.48
71.27
74
84.61
100.13
115.77
126.14
126.45
113.68
87.31
49.81
6.26
-36.89
-73.75
-100.53
-116.43
-123.26
-124.08
-121.85
-118.55
-115.12
-111.83
-108.79
-106.26
-104.73
-105.15
-108.89
-117.58
-132.43
-153.39
-178.47
-203.95
-225.49
-239.64
-245.07
-242.57
-234
-220.81
-203.22
-180.49
-151.98
-118.29
-81.49
-44.69
-10.96
17.34
38.75
52.36
57.7
54.83
44.74
29.64
12.74
-2.49
-13.24
-18.02
-16.81
-10.73
-1.62
8.45
17.63
24.63
29.06
31.54
33.56
36.95
43.24
53.12
66.03
80.23
93.13
101.93
104.36
99.29
87.02
69.07
47.4
23.54
-2
-29.57
-59.47
-91
-121.66
-147.7
-165.38
-172.61
-169.96
-160.53
-148.6
-137.81
-129.68
-123.37
-116.39
-106.25
-91.77
-73.73
-54.44
-36.68
-22.4
-11.84
-3.4
5.84
19.06
38.64
65.36
98.06
133.74
168.23
197.05
216.79
226.21
226.8
222.35
217.53
216.02
218.82
223.85
226.9
223.64
211.74
192.11
168.66
146.71
131.05
124.25
126.13
134.01
143.59
149.86
147.95
134.14
106.77
67.09
19.33
-30
-74.04
-107.51
-128.2
-137.11
-137.34
-132.52
-125.54
-117.97
-110.35
-102.69
-94.97
-87.14
-79.11
-70.72
-61.9
-52.94
-44.57
-37.81
-33.6
-32.38
-33.76
-36.56
-39.01
-39.28
-35.94
-28.55
-17.93
-6.3
3.09
6.81
2.21
-11.64
-33.54
-60.45
-88.54
-114.29
-135.4
-150.88
-160.48
-163.8
-159.85
-147.19
-124.87
-93.41
-55.41
-15.32
21.8
51.84
72.82
85.13
90.83
92.2
90.53
85.9
77.7
65.65
50.78
35.48
23.24
17.95
23.34
42.45
76.57
124.05
179.34
233.28
275.06
295.36
289.25
257.27
204.46
137.95
64.72
-9.26
-78.43
-136.76
-177.77
-195.97
-189.25
-160.62
-118.38
-74.31
-40.32
-25.15
-32.08
-58.32
-96.29
-136.11
-168.35
-186.25
-186.73
-170.16
-139.36
-98.33
-51.49
-3.27
42
80.52
109.87
129.98
143.45
154.59
167.57
184.39
203.71
221.3
231.8
230.96
217.05
191.14
156.14
115.76
73.61
33.04
-3.1
-32.76
-55.17
-71.21
-83.04
-93.19
-103.34
-113.71
-123.06
-129.68
-132.36
-131.06
-126.96
-121.77
-116.92
-112.82
-108.76
-103.3
-95.1
-83.63
-69.38
-53.57
-37.36
-21.42
-5.85
9.31
23.43
35.1
42.53
44.5
41.13
34.13
26.12
19.5
15.44
13.45
11.83
8.62
2.46
-7.01
-19.24
-33.16
-47.5
-60.68
-70.56
-74.48
-69.76
-55.02
-31.3
-2.59
24.96
44.89
52.59
46.73
29.54
5.74
-19.01
-39.61
-52.31
-54.93
-46.88
-29.06
-3.87
25.1
53.7
78.38
97.17
110.33
119.98
129.07
140.02
153.71
169.24
184.37
196.38
202.87
202
192.42
173.15
143.82
105.12
59.36
10.67
-35.5
-73.48
-98.56
-107.9
-101.11
-80.42
-50.54
-18.25
8.7
23.27
20.99
1.4
-31.72
-71.54
-110.42
-142.08
-163.2
-173.42
-174.42
-168.74
-158.66
-145.81
-131.27
-115.97
-100.89
-87.39
-77.12
-71.71
-72.23
-78.73
-90.05
-104.06
-118.31
-130.61
-139.37
-143.42
-141.83
-133.84
-119.23
-98.82
-74.82
-50.48
-29.1
-12.98
-2.52
3.61
7.62
11.41
15.69
19.82
22.41
22.2
18.87
13.27
7.03
1.83
-1.27
-2.08
-1.03
1.35
4.9
9.89
16.77
25.76
36.54
48.2
59.43
68.88
75.35
78.12
76.85
71.79
63.61
53.44
42.69
32.82
24.99
19.92
17.69
17.72
18.86
19.44
17.37
10.45
-3.11
-24.14
-52.03
-84.76
-119.35
-152.52
-181.3
-203.11
-215.72
-217.15
-206.06
-182.52
-148.63
-108.6
-67.7
-30.66
-0.09
23.98
43.44
60.56
76.75
92.19
106.22
118.23
127.91
134.86
138.03
135.6
125.8
108.4
85.72
62.58
44.66
36.37
39.3
52.2
72.4
97.49
126.02
156.72
186.95
211.86
225.13
221.24
198.08
158.16
107.82
54.71
5.15
-37.45
-72.21
-99.31
-118.64
-129.5
-131.33
-124.73
-111.7
-94.92
-76.56
-57.63
-38.26
-18.79
-0.46
14.82
25.5
31.61
34.92
38.08
43.11
50.44
59.05
67.44
74.56
80
83.57
84.58
81.85
74.36
62.17
46.93
31.39
18.19
8.73
2.6
-2.08
-7.9
-17.32
-31.73
-50.92
-72.76
-93.55
-109
-115.89
-113.45
-103.85
-91.34
-80.58
-74.73
-74.45
-78.31
-83.99
-89.57
-93.86
-95.72
-93.27
-83.68
-64.12
-33.41
6.62
51.05
93.2
126.73
147.41
153.79
146.81
128.83
102.81
72.15
40.78
13.12
-6.4
-14.39
-9.57
6.73
30.75
57.23
80.82
97.41
105
103.82
95.71
83.26
68.9
54.33
40.45
27.51
15.29
3.21
-9.51
-23.49
-38.84
-54.78
-69.72
-81.71
-89.32
-92.32
-91.9
-90.35
-90
-92.3
-97.04
-102.42
-105.73
-104.35
-96.7
-82.56
-62.9
-39.54
-14.92
8.08
26.3
37.03
38.92
32.78
21.62
9.47
-0.46
-7.4
-13.28
-21.57
-34.82
-52.73
-71.56
-85.49
-89.16
-80.03
-59.44
-31.92
-3.18
21.85
40.23
50.97
54.26
50.76
41.59
28.77
15.45
5.45
1.92
5.79
14.95
24.87
30.33
27.65
16.13
-1.83
-21.89
-39.5
-51.3
-55.86
-53.45
-45.37
-33.13
-18
-0.98
17.19
35.73
53.84
70.76
85.81
98.5
108.36
114.95
117.83
116.75
111.8
103.67
93.57
83.02
73.44
65.81
60.37
56.72
53.92
50.86
46.71
41.21
34.78
28.29
22.69
18.38
15.02
11.35
5.73
-3.15
-15.6
-30.65
-46.28
-59.97
-69.38
-72.73
-68.99
-57.92
-40.33
-18.36
4.41
23.36
33.77
32.18
17.33
-9.41
-44.32
-82.11
-116.88
-142.98
-155.97
-153.65
-136.91
-109.91
-79.17
-51.67
-32.52
-23.45
-22.53
-25.52
-27.85
-26.34
-19.85
-8.8
5.87
23.62
44.43
68.41
94.93
122.13
146.9
165.52
174.71
172.62
159.35
136.93
108.68
78.28
48.78
22.1
-1.11
-21.08
-38.32
-53.02
-64.92
-73.39
-77.91
-78.41
-75.37
-69.52
-61.42
-51.15
-38.3
-22.45
-3.75
16.57
36.21
52.27
62.04
63.7
56.84
42.51
22.92
0.87
-20.9
-40.32
-56.22
-68.33
-76.88
-82.21
-84.44
-83.48
-79.34
-72.49
-63.97
-55.31
-48.06
-43.27
-41.28
-41.73
-43.86
-47.05
-50.98
-55.67
-61.24
-67.62
-74.32
-80.61
-85.72
-89.27
-91.39
-92.82
-94.55
-97.38
-101.46
-106
-109.36
-109.5
-104.57
-93.72
-77.37
-57.2
-35.53
-14.56
4.36
21.09
36.53
52.19
69.57
89.59
112.21
136.28
159.66
179.72
194.08
201.49
202.26
198.22
192.09
186.47
182.9
181.35
180.37
177.66
171.05
159.13
141.79
120.19
96.44
73.07
52.43
36.16
24.83
17.79
13.5
10.09
6.06
0.85
-4.9
-9.76
-12.18
-11.33
-7.45
-1.75
4.27
9.34
12.88
14.95
15.9
16.03
15.37
13.77
11
7.02
2.08
-3.21
-8.09
-11.88
-14.09
-14.62
-13.74
-12.08
-10.63
-10.59
-13.13
-19.03
-28.21
-39.54
-50.97
-60.08
-64.7
-63.52
-56.45
-44.53
-29.74
-14.54
-1.3
8.15
12.83
12.74
8.41
0.42
-11
-25.88
-43.93
-63.92
-83.43
-99.33
-108.89
-111.05
-106.85
-98.77
-89.31
-79.46
-68.2
-53.06
-31.58
-2.72
32.54
71.55
110.82
146.73
175.86
195.12
201.97
194.88
173.93
140.92
98.91
51.27
0.97
-49.53
-97.83
-140.93
-175.24
-197.25
-204.76
-197.66
-178.13
-150
-117.59
-84.85
-54.81
-29.67
-10.88
0.66
4.83
2.5
-4.33
-12.83
-20.01
-23.58
-22.67
-18.07
-12.04
-7.38
-6.47
-10.36
-18.28
-27.77
-35.34
-37.63
-32.36
-19.04
1.09
25.65
52.07
78.4
103.65
127.54
150.02
170.75
188.96
203.78
214.64
221.65
225.4
226.45
224.68
218.93
207.22
187.5
158.56
120.84
76.6
29.61
-15.67
-54.86
-84.44
-102.3
-108.05
-103
-89.98
-72.88
-56.07
-43.72
-39.03
-43.69
-57.39
-77.72
-100.69
-121.79
-137.1
-144.35
-143.3
-135.46
-123.31
-109.41
-95.76
-83.54
-73.18
-64.67
-57.97
-53.18
-50.57
-50.03
-50.49
-49.69
-44.86
-34.2
-18.33
-0.82
13.13
18.96
15.07
3.52
-11.17
-24.39
-33.5
-38.32
-40.21
-40.45
-39.31
-36.47
-32.17
-28.14
-27.31
-32.3
-43.57
-58.44
-71.62
-77.18
-70.89
-51.94
-23.16
10.15
42.22
68.58
87.05
97.62
101.61
100.61
95.9
88.33
78.6
67.48
55.86
44.58
34.05
24.23
14.71
5.07
-4.77
-14.45
-23.25
-30.64
-36.78
-42.68
-49.97
-60.1
-73.57
-89.39
-105.17
-117.86
-124.67
-123.93
-115.32
-99.59
-77.96
-51.81
-22.51
8.74
40.88
73.32
105.87
138.41
170.09
198.72
220.81
232.61
231.69
218.25
195.44
168.26
141.68
118.89
100.54
85.16
70.52
54.84
37.51
18.78
-0.82
-20.96
-41.58
-62.48
-82.82
-101.16
-115.82
-125.51
-129.83
-129.23
-124.52
-116.45
-105.32
-91.23
-74.46
-55.8
-36.58
-18.28
-2.24
10.62
19.82
25.32
27.47
26.97
24.7
21.48
17.82
13.85
9.37
4.17
-1.63
-7.48
-12.36
-15.1
-14.63
-10.28
-2.04
9.43
22.86
36.67
49.5
60.52
69.47
76.43
81.38
83.95
83.4
78.74
68.92
52.86
29.63
-1.4
-40.01
-84.7
-132.6
-179.94
-223.14
-259.52
-287.57
-306.29
-314.36
-309.99
-291.67
-259.59
-216.66
-168.26
-120.55
-78.2
-42.63
-11.84
18.05
50.2
85.05
119.91
150.09
171.34
181.71
182.18
175.68
165.31
153
139.27
124.28
108.92
95.3
86.03
82.96
86.07
93.41
101.85
108.14
109.76
105.15
93.81
76.29
54.27
30.38
7.61
-11.62
-26.34
-37.07
-45.1
-51.45
-56.15
-58.21
-56.35
-49.76
-38.52
-23.38
-5.3
14.65
35.08
53.98
68.65
76.42
75.65
66.56
51.36
33.43
16.03
1.14
-10.94
-21.33
-31.71
-43.51
-57.35
-72.89
-88.93
-103.79
-115.8
-123.7
-127.02
-126.22
-122.33
-116.66
-110.45
-104.67
-100.12
-97.59
-97.95
-101.96
-109.86
-120.89
-133
-143.06
-147.45
-143.12
-128.48
-103.97
-71.88
-35.62
1.35
36.34
67.71
94.65
116.64
133.03
143.06
146.35
143.41
135.98
126.56
117.46
109.74
102.63
93.96
81.51
64.45
43.95
22.62
3.1
-13.47
-27.73
-41.21
-54.67
-66.99
-75.32
-76.59
-69.48
-55.44
-38.3
-22.57
-11.74
-7.41
-9.43
-16.74
-27.94
-41.31
-54.48
-64.4
-67.94
-62.85
-48.76
-27.23
-1.14
26.52
53.57
79
102.6
124.32
143.84
160.46
173.49
182.5
187.58
189.27
188.37
185.68
181.65
176.26
168.71
157.53
140.68
116.26
83.33
42.64
-2.99
-49.21
-91.21
-125.07
-148.65
-161.83
-165.89
-162.68
-154.05
-141.73
-127.66
-114.31
-104.52
-100.95
-105.14
-116.82
-133.62
-151.58
-165.94
-172.28
-167.42
-150.03
-120.8
-82.18
-37.75
8.6
53.45
94.55
131.1
163.55
192.87
219.77
243.98
264.1
277.98
283.33
278.31
261.65
232.81
192
140.63
81.72
19.98
-38.63
-88.31
-124.83
-146.66
-154.95
-152.62
-143.1
-129.11
-112.31
-93.24
-71.86
-47.98
-21.89
5.05
30.15
49.61
59.41
56.67
40.82
13.86
-20.29
-57.16
-92.96
-125.15
-152.07
-172.23
-183.91
-185.4
-175.88
-156.25
-129.22
-98.81
-69.17
-43.52
-23.52
-9.35
-0.16
5.37
8.4
9.82
10.06
9.19
6.97
3.2
-2.14
-8.64
-15.43
-21.26
-24.77
-24.89
-20.97
-12.95
-1.26
13.34
30.02
48.04
66.78
85.78
104.63
122.93
140.12
155.49
168.03
176.64
180.41
179.08
173.3
164.55
154.5
144.25
133.78
122.11
108.09
91.33
72.71
53.98
36.85
22.12
9.6
-1.2
-10.12
-15.99
-17.18
-12.93
-4.44
4.96
10.84
9.41
-1.1
-19.96
-44.48
-71.09
-96.38
-117.91
-134.53
-146.32
-154.29
-159.71
-163.57
-165.99
-166.33
-163.56
-156.99
-146.73
-133.83
-119.73
-105.73
-92.59
-80.41
-68.98
-58.04
-47.45
-37.12
-27.09
-17.47
-8.52
-0.53
6.34
12.09
17.01
21.46
25.74
29.91
33.78
37.11
39.82
42.03
44.04
46.14
48.43
50.7
52.58
53.79
54.28
54.16
53.59
52.34
49.86
45.58
39.57
32.99
28.04
27.08
31.57
41.23
53.98
66.69
76.24
80.39
77.92
68.42
52.04
29.64
3.02
-24.79
-49.96
-68.84
-79.08
-80.47
-74.93
-65.74
-56.26
-48.78
-43.7
-39.43
-32.87
-20.59
-0.3
27.83
60.57
92.33
116.76
128.99
127.17
112.77
89.6
62.15
34.19
8.09
-14.8
-33.52
-47.04
-54.2
-54.29
-47.49
-35.09
-19.28
-2.57
12.69
24.77
32.74
36.43
36.27
32.97
27.29
19.88
11.36
2.47
-5.89
-12.7
-17.17
-19.12
-19.14
-18.6
-19.19
-22.28
-28.47
-37.19
-46.77
-54.94
-59.52
-59.27
-54.43
-46.71
-38.58
-32.26
-28.75
-27.51
-26.98
-25.48
-22.18
-17.46
-12.5
-8.37
-5.17
-1.86
3.42
12.39
25.9
43.48
63.44
83.51
101.33
115.09
123.98
128.59
131.18
135.7
147.13
170
206.4
254.34
307.36
355.99
390.6
404.42
395.48
366.57
323.39
272.08
217.32
161.8
106.71
52.85
1.32
-46.55
-89.65
-127.63
-160.97
-190.38
-215.9
-236.29
-248.97
-250.78
-239.3
-214.02
-177.16
-133.4
-88.84
-49.36
-19
0.99
12.07
17.39
20.32
23.05
25.98
28.01
27.52
23.59
16.6
8.1
0.02
-6.25
-10.6
-14.28
-19.35
-27.8
-40.53
-56.72
-73.75
-87.88
-95.57
-95.01
-87.05
-75.19
-64.3
-58.77
-60.75
-69.34
-81.07
-91.29
-95.88
-92.54
-81.47
-65.17
-47.62
-33.15
-25.24
-25.75
-34.66
-50.26
-69.85
-90.3
-108.65
-122.2
-128.81
-127.11
-116.87
-99.4
-77.37
-54.26
-33.42
-17.24
-6.73
-1.76
-1.45
-4.53
-9.44
-14.44
-17.76
-17.94
-14.2
-6.51
4.76
19.25
36.82
57.05
78.53
98.46
113.08
119.03
114.82
101.72
83.29
63.94
47.14
34.44
25.4
18.52
12.34
6.2
0.34
-4.41
-6.91
-6.11
-1.28
7.44
18.58
29.28
35.68
34.02
21.79
-1.35
-33.5
-70.92
-108.89
-142.51
-167.24
-179.42
-176.8
-159.17
-128.71
-89.99
-49.15
-12.51
15.07
31.58
38.25
38.92
38.42
40.44
46.06
53.28
57.88
55.14
41.73
16.96
-16.98
-55.62
-93.34
-124.38
-143.72
-147.73
-134.87
-106.33
-66.21
-20.99
21.91
55.9
76.91
84.07
79.4
66.73
50.24
33.33
17.98
4.69
-7.02
-17.8
-27.72
-35.79
-40.04
-38.33
-29.44
-13.97
5.67
26.03
44
57.86
67.54
74.01
78.36
81.04
81.63
79.11
72.41
60.82
44.4
24.11
1.65
-21.05
-42.4
-61.72
-79.21
-95.46
-110.77
-124.68
-136.05
-143.69
-146.89
-145.86
-141.5
-135
-127.62
-120.59
-115.32
-113.28
-115.53
-122.21
-132.29
-143.87
-154.88
-163.89
-170.33
-174.14
-175.12
-172.57
-165.38
-152.71
-134.64
-112.46
-88.34
-64.41
-41.9
-20.75
0.13
22.1
45.87
71.05
96.07
118.64
136.33
147.28
150.59
146.58
136.71
123.23
108.68
95.32
84.71
77.59
74.13
74.15
77.33
83.18
90.95
99.52
107.63
114.24
119.04
122.61
126.21
131.26
138.68
148.33
158.91
168.38
174.47
175.42
170.47
159.88
144.92
127.45
109.67
93.72
81.36
73.67
70.75
71.72
74.83
77.89
78.76
75.8
68.14
55.84
39.9
21.98
4.14
-11.86
-25.03
-35.47
-44.14
-52.4
-61.14
-70.38
-79.13
-85.85
-89.13
-88.29
-83.83
-77.43
-71.8
-70.11
-75.26
-88.9
-110.52
-137.02
-163.06
-182.33
-189.37
-181.24
-158.42
-124.68
-86
-48.91
-18.89
0.79
9.43
8.54
1.11
-9.29
-19.07
-25.02
-24.46
-15.5
2.61
28.95
60.88
94.33
124.85
148.6
163.28
168.42
165.25
156.3
144.96
134.86
129.08
129.11
134.14
141.15
146.01
145.21
137.37
123.51
106.26
88.2
70.53
52.81
33.76
12.58
-10.02
-31.64
-48.93
-58.84
-59.83
-52.55
-39.66
-25.06
-12.75
-5.81
-5.86
-13.2
-27.29
-47.34
-72.42
-101.06
-130.81
-158.05
-178.66
-189.42
-189.48
-180.97
-168.46
-157.12
-150.69
-150.12
-153.51
-157.41
-158.68
-155.84
-149.51
-141.62
-134.24
-128.7
-125.42
-124.27
-125.16
-128.21
-133.44
-140.24
-147.03
-151.5
-151.41
-145.44
-133.78
-118.08
-100.68
-83.72
-68.34
-54.51
-41.29
-27.52
-12.36
4.4
22.36
40.8
59
76.24
91.88
105.35
116.24
124.45
130.37
134.8
138.75
143.06
148.04
153.43
158.5
162.52
165.19
166.77
167.99
169.74
172.57
176.5
181.01
185.24
188.4
190.07
190.46
190.34
191.01
193.95
200.19
209.75
221.18
231.72
238.12
237.9
230.39
217.04
200.94
185.52
173.19
164.35
157.24
148.5
134.5
112.72
82.87
47.29
10.52
-22.02
-45.78
-58.57
-61.36
-57.84
-52.98
-51.24
-55.21
-64.92
-78.19
-91.56
-101.34
-104.69
-100.39
-89.28
-74.11
-58.84
-47.46
-42.63
-44.89
-52.38
-61.72
-69.24
-72.31
-70.03
-63.24
-53.87
-44.22
-36.39
-31.96
-31.89
-36.26
-44.23
-54.02
-63.11
-68.92
-69.71
-65.41
-58.05
-51.29
-49.07
-53.82
-65.18
-79.87
-93.02
-100.29
-99.65
-91.98
-80.19
-67.58
-56.28
-46.93
-39.23
-32.87
-28.05
-24.9
-22.56
-18.63
-9.64
7.38
33.14
65
97.39
123.52
137.68
137.01
122.31
97.43
67.82
39.06
15.49
-0.33
-7.66
-7.29
-1.21
7.85
16.91
23.42
26.12
25.6
24.14
24.65
28.97
36.23
42.4
41.47
28.06
0.15
-39.44
-83.81
-124.57
-155.05
-172.29
-177.21
-173.02
-163.25
-150.49
-136.02
-120.15
-102.36
-81.04
-53.39
-16.56
30.4
84.41
137.63
179.14
198.4
189.32
152.64
95.99
31.35
-28.44
-72.91
-96.04
-97.21
-81.17
-56.9
-35.25
-25.51
-32.09
-52.85
-80.01
-103.44
-114.65
-109.45
-88.24
-54.62
-13.47
30.16
71.08
103.91
123.66
127.27
114.96
90.44
59.39
27.1
-3.31
-31.04
-56.36
-78.97
-97.19
-108.42
-110.39
-102.4
-85.61
-62.66
-36.83
-11.4
10.85
27.97
39.15
44.74
46.01
44.64
42.16
39.55
37.29
35.71
35.14
35.89
37.94
40.74
43.46
45.37
46.51
47.78
50.68
56.65
66.41
79.67
95.16
110.79
123.79
130.87
128.67
114.65
88.18
51.23
8.19
-35.44
-74.84
-107.43
-133.22
-153.95
-171.6
-186.91
-198.95
-205.64
-205.04
-196.41
-180.82
-160.72
-139.15
-118.8
-101.3
-87.2
-76.11
-67.12
-59.03
-50.45
-39.86
-25.97
-8.12
13.25
36.49
59.15
78.77
93.76
103.71
109.17
111.13
110.62
108.62
106.28
104.86
105.37
107.85
110.79
111.39
106.54
94.71
77.74
61.33
53.84
63.03
92.44
138.79
192.14
238.93
266.7
268.57
245.44
204.98
157.85
113.24
75.71
44.65
16.23
-13.65
-46.97
-82.76
-117.92
-148.75
-172.15
-186.25
-190.14
-183.66
-167.06
-141.22
-107.66
-68.49
-26.28
15.87
54.1
83.81
100.46
101.01
85.21
56.12
19.15
-19.69
-55.47
-84.97
-106.29
-118.02
-119.04
-109.19
-90.46
-67.45
-46.44
-33.48
-32.29
-43.19
-63.33
-87.9
-111.49
-129.28
-137.89
-136.31
-126.26
-111.94
-98.69
-91.02
-90.74
-96.49
-104.78
-112
-116.06
-116.7
-114.37
-108.81
-98.58
-82.11
-59.57
-34.12
-11.43
2.49
4.03
-6.39
-24.69
-45.18
-62.94
-75.33
-81.86
-83.08
-79.36
-70.19
-54.66
-32.31
-4.01
27.85
59.62
87.27
107.34
117.54
117.35
108.25
93.79
79.12
70.41
73.69
93.3
130.24
180.86
236.95
287.36
321.28
331.61
317.27
283.07
237.33
188.53
142.64
102.28
67.79
38.86
15.49
-2.28
-15.23
-25.57
-36.33
-49.88
-66.58
-84.46
-100.27
-111.02
-115.35
-114.04
-109.32
-103.83
-99.55
-97.09
-95.49
-92.67
-86.14
-74.15
-56.56
-35.27
-13.76
3.96
14.81
17.59
13.25
4.39
-5.66
-13.7
-17.57
-16.69
-12.4
-7.71
-6.45
-12.08
-26.6
-49.89
-79.75
-112.34
-142.74
-165.64
-176.19
-171.21
-150.28
-116.54
-76.13
-36.56
-4.41
16.65
26.58
28.19
25.52
22.22
20.48
20.8
22.28
23.1
21.09
14.61
3.35
-11.01
-24.93
-33.82
-33.59
-22.18
-0.53
27.62
56.82
81.76
98.89
107.35
108.82
106.6
104.26
104.42
108.25
115.48
125
135.65
146.68
157.68
168.03
176.18
179.5
174.81
159.57
133.29
98.07
58.08
17.97
-18.91
-51.45
-80.41
-107.05
-131.67
-152.98
-168.7
-176.72
-176.13
-167.53
-152.77
-134.35
-115.13
-97.97
-85.3
-78.24
-75.99
-75.69
-73.41
-66.01
-52.77
-35.85
-19.08
-5.84
2.76
8.37
14.25
23.38
36.78
52.94
68.56
79.93
84.37
81.12
71.48
58.35
45.44
36.41
33.93
38.87
49.95
63.84
76.15
82.75
81.1
71.01
54.81
36.56
20.97
12.04
12.15
21.38
37.38
55.81
71.34
79.06
75.98
61.99
40.15
15.75
-5.34
-18.69
-22.67
-18.83
-11.13
-4.42
-2.79
-8.44
-21.4
-39.91
-61.15
-81.96
-99.25
-110.43
-113.99
-109.95
-100.27
-88.42
-78.1
-71.74
-69.38
-68.72
-66.48
-60.4
-50.57
-39.62
-31.56
-29.9
-36.17
-49.37
-66.52
-83.63
-96.79
-103.04
-100.89
-90.66
-74.4
-55.24
-36.58
-21.12
-10.48
-5.18
-5.05
-9.52
-17.65
-27.87
-38.07
-45.88
-49.59
-48.76
-44.23
-37.49
-29.71
-21.06
-10.85
1.77
16.85
33.25
49.02
62.33
72.39
79.94
86.85
95.28
106.55
120.38
134.77
146.47
152.05
148.88
136.06
114.65
87.77
60.04
37.02
23.98
24.53
39.28
65.11
95.81
123.73
142.27
147.74
140.1
122.2
98.13
71.55
44.79
18.72
-6.64
-31.44
-55.5
-78.14
-98.17
-114.03
-124.14
-127.36
-123.58
-113.91
-100.51
-85.89
-72.12
-60.22
-50.03
-40.72
-31.31
-21.22
-10.64
-0.38
8.48
15.03
18.92
20.49
20.69
20.84
22.26
25.99
32.22
39.95
46.78
49.42
44.74
31.07
9.23
-17.42
-44.05
-66.12
-81.03
-88.82
-91.55
-91.61
-90.16
-86.41
-78.37
-64.42
-44.58
-20.72
4.23
27.45
47.04
61.85
70.99
73.4
68.01
54.36
33.23
6.65
-22.76
-52.5
-80.53
-105.17
-124.49
-136.22
-138.07
-128.67
-108.3
-79
-44.13
-7.67
26.34
54.4
73.98
84.05
85.46
80.9
74.16
69.03
68.12
72.33
80.95
92.34
104.68
116.52
126.9
135.22
141.19
144.85
146.56
146.75
145.35
141.19
132.08
115.52
89.9
55.63
15.42
-26.49
-65.83
-99.7
-127.25
-149.18
-166.66
-180.12
-188.84
-191.33
-186.36
-173.75
-154.76
-131.93
-108.48
-87.61
-71.96
-63.33
-62.62
-69.79
-83.79
-102.4
-122.24
-138.98
-148.22
-146.61
-133.01
-108.99
-78.35
-45.54
-13.87
15.54
43.62
71.81
100.27
126.85
147.47
157.84
155.58
141.51
119.48
94.8
72.09
53.72
39.45
27.25
14.83
0.94
-13.95
-27.95
-38.29
-42.08
-36.94
-21.44
4.16
37.46
73.73
106.84
130.98
142.7
142.15
132.81
119.83
107.85
99.42
94.64
91.92
89.19
84.71
77.28
65.97
50
29.04
3.88
-23.31
-48.97
-69.06
-80.31
-81.38
-73.57
-60.49
-47.07
-38.06
-36.77
-44.15
-58.78
-77.37
-95.43
-108.26
-111.64
-102.73
-80.98
-48.74
-11.16
24.7
51.6
64.04
59.75
40.17
9.88
-24.91
-58.15
-85.4
-104.65
-116.05
-120.88
-120.44
-115.21
-105.01
-89.68
-70.05
-48.18
-26.65
-7.17
10.71
29.39
51.75
78.8
108.07
133.99
149.99
151.62
138.44
114.16
84.51
54.66
27.3
2.71
-19.84
-40.24
-56.7
-66.18
-65.89
-54.77
-34.01
-6.8
22.74
50.56
73.63
90.35
100.84
106.89
111.7
118.96
131.49
149.88
171.68
191.93
204.56
204.44
188.9
158.29
115.52
65.05
11.97
-38.49
-81.27
-111.98
-127.67
-127.89
-115.09
-94.17
-71.02
-50.76
-36.32
-28.11
-24.57
-23.42
-22.83
-22.09
-21.46
-21.48
-22.24
-23.14
-23.2
-21.8
-19.49
-18.33
-21.45
-31.99
-51.74
-80.08
-113.67
-147.12
-174.2
-189.38
-188.9
-171.46
-138.22
-92.5
-39.19
15.8
66.52
107.94
136.99
153.25
158.88
157.77
154.17
151.4
150.99
152.66
154.73
154.64
149.47
136.55
114.19
82.44
43.65
2.28
-36.13
-66.54
-86
-94.39
-94.15
-89.1
-82.92
-78.02
-75.11
-73.69
-72.99
-72.93
-74.64
-79.94
-90.25
-105.27
-122.25
-136.34
-142.02
-134.9
-113.18
-78.26
-34.5
11.89
54.18
86.73
106.39
113.37
110.96
103.96
96.34
89.28
80.79
67.19
45.76
16.89
-15.59
-46.2
-70.41
-86.4
-95.12
-98.77
-99.01
-96.12
-89.45
-78.65
-64.39
-48.25
-31.89
-16.19
-1.11
13.71
27.92
39.95
47.25
47.36
39.16
23.57
3.23
-18.58
-39.45
-58.66
-77.2
-96.6
-117.56
-138.8
-157.16
-168.66
-170.13
-160.35
-140.32
-112.58
-80.19
-46.08
-12.99
16.3
38.93
52.45
55.62
48.93
34.48
15.18
-6.22
-27.55
-47.12
-63.1
-73.06
-74.22
-64.25
-42.14
-8.68
33.71
81.6
131.11
178.23
219.07
250.31
269.86
277.67
276.12
269.25
261.36
255.3
251.59
248.51
243.28
233.41
217.59
195.73
168.47
136.82
101.97
65.55
29.64
-3.46
-31.94
-54.99
-72.89
-86.59
-96.94
-104.39
-109.1
-111.51
-112.77
-114.62
-118.89
-126.59
-137.39
-149.64
-161.01
-169.37
-173.49
-173.13
-168.71
-160.71
-149.39
-134.9
-117.81
-99.48
-82.02
-67.71
-58.09
-53.24
-51.67
-50.89
-48.36
-42.43
-32.8
-20.62
-7.93
2.92
10.04
12.66
11.5
8.66
6.98
9.05
16.08
27.35
40.54
52.64
61.29
65.69
66.72
66.13
65.53
65.64
66.47
67.98
70.89
76.65
86.57
100.45
115.82
128.56
134.7
132.5
123.41
111.48
101.31
95.84
95.11
96.58
96.52
91.66
80.33
62.78
41.12
18.69
-0.58
-13.05
-16.39
-10.08
4.5
24.62
46.91
67.89
84.1
92.25
89.7
75.21
49.63
15.97
-21.43
-58.02
-90.18
-115.54
-132.82
-141.65
-142.59
-137.39
-128.97
-120.85
-115.88
-115.34
-118.62
-124.02
-130.04
-136.41
-144
-153.92
-166.21
-179.02
-189.14
-193.29
-189.77
-179.51
-165.92
-153.73
-147.16
-148.46
-157.11
-170.19
-183.45
-192.64
-194.68
-188.08
-173.01
-150.66
-122.76
-91.22
-58
-25.21
4.99
30.68
50.79
65.45
76.15
85.17
94.74
106.27
119.91
134.78
149.49
162.84
174.2
183.48
191.05
197.38
202.99
208.12
212.65
215.83
216.34
212.66
203.82
190.04
172.95
155.11
139
126.32
117.51
112.01
108.68
106.2
103.23
98.46
90.74
79.16
63.15
42.33
16.29
-15.26
-52.06
-92.47
-133.07
-168.93
-194.93
-207.47
-205.71
-191.65
-169.04
-141.81
-112.79
-83.41
-54.33
-26.34
-1.12
18.81
30.72
32.55
23.6
4.83
-21.14
-50.52
-78.82
-101.61
-115.39
-118.38
-110.98
-95.43
-74.8
-51.71
-27.51
-2.31
24.19
51.65
78.58
102.5
120.85
131.89
135.26
131.96
123.98
113.64
103
93.31
84.62
75.83
65.12
50.92
32.84
12.29
-7.77
-23.73
-32.53
-32.62
-24.4
-10.11
6.91
23.06
35.42
42.29
43.34
39.07
30.09
16.58
-1.54
-23.86
-48.52
-72.11
-90.47
-100.44
-101.28
-95.16
-86.15
-78.31
-73.94
-72.84
-72.95
-71.7
-67.41
-59.91
-50.18
-39.57
-29.07
-19.22
-10.38
-3
2.28
5.06
5.66
5.23
5.33
7.17
10.97
16.09
21.56
26.86
32.25
38.55
46.43
55.87
65.87
74.81
80.92
82.72
79.23
70.01
55.38
36.8
17.16
0.62
-8.51
-7.24
4.66
24.41
47.14
67.78
82.77
90.82
92.27
87.71
76.8
58.27
31.15
-3.56
-42.1
-78.69
-107.61
-125.46
-132.33
-131.23
-126.26
-120.5
-114.85
-108.3
-99.17
-86.45
-70.55
-52.99
-35.49
-19.13
-3.98
10.53
24.87
38.88
51.73
62.33
70.03
75.12
78.83
82.95
89.12
98.03
109.05
120.43
130.04
136.3
138.95
139.11
138.71
139.58
142.48
146.68
150.04
149.57
142.3
125.98
99.79
64.71
23.68
-18.94
-58.43
-91.08
-115.38
-132.24
-144.19
-153.96
-163.25
-172.35
-180.56
-187.03
-191.23
-192.72
-190.57
-183.15
-168.65
-146.44
-118.21
-88.06
-61.19
-41.76
-31.19
-27.74
-27.73
-27.49
-24.87
-19.68
-12.83
-5.34
2.17
9.26
15.08
18.27
17.48
12.4
4.14
-5.24
-13.97
-21.69
-29.57
-39.35
-51.79
-65.73
-78.26
-86.04
-86.75
-79.96
-67
-50.02
-31.15
-12.07
5.95
21.76
34.25
42.44
45.91
44.96
40.62
34.34
27.52
21.11
15.47
10.42
5.52
0.49
-4.62
-9.31
-12.84
-14.49
-13.94
-11.4
-7.56
-3.34
0.52
3.64
6.15
8.52
11.25
14.59
18.35
22.02
25
26.99
28.1
28.79
29.63
30.83
31.99
32.03
29.45
22.83
11.44
-4.25
-22.4
-39.87
-52.76
-57.19
-50.28
-31.04
-1.17
34.95
70.98
100.14
117.12
119.64
109.1
90.07
68.81
51.43
42.48
44.3
57.01
79.09
107.77
139.58
170.66
197.31
216.68
227.49
230.17
226.58
219.11
209.61
198.83
186.62
172.68
157.35
142.01
128.63
118.86
113.48
112.24
114.59
120.28
129.57
142.44
157.85
173.19
184.76
188.95
183.49
167.99
143.79
113.14
78.56
42.52
7.33
-25.02
-53.22
-77.09
-97.52
-116.11
-134.18
-151.97
-168.33
-181.01
-187.2
-184.19
-170.1
-144.77
-110.64
-73.19
-40.07
-19.15
-15.79
-30.77
-59.93
-95.69
-130.01
-156.86
-173.51
-180.14
-178.64
-171.34
-160.57
-148.6
-137.65
-129.37
-124
-120.08
-115.05
-106.6
-93.87
-77.95
-61.21
-45.92
-33.13
-22.56
-13.34
-5.07
1.75
5.96
6.59
3.26
-3.66
-13.49
-25.39
-38.31
-50.8
-61.02
-67.33
-69.16
-67.56
-64.95
-64.32
-67.95
-76.64
-89.38
-103.6
-115.72
-121.97
-119.29
-106.29
-84.03
-55.87
-26.64
-1.01
18
29.74
35.34
36.49
34.2
28.42
18.64
4.92
-11.35
-27.49
-40.4
-47.72
-48.71
-44.37
-36.72
-27.77
-18.62
-9.38
0.27
10.2
19.38
26.23
29.54
29.4
27.55
26.63
28.99
35.49
45.2
56.05
66.09
74.48
81.51
87.89
93.57
97.14
96.16
88.24
72.31
49.56
23.43
-1.28
-19.7
-28.3
-25.92
-13.89
4.39
24.48
42.07
53.92
58.3
54.94
44.74
29.29
10.72
-8.59
-26.03
-39.24
-46.55
-47.63
-43.64
-36.9
-30.16
-25.52
-23.68
-23.68
-23.44
-20.61
-13.64
-2.38
11.69
25.86
36.98
42.52
41.38
34.24
23.29
11.35
0.85
-6.92
-11.93
-15.08
-17.42
-19.66
-21.87
-23.49
-23.46
-20.31
-12.31
2.17
24.05
52.82
86.07
119.45
147.43
164.48
166.61
152.54
124.08
85.61
42.75
0.99
-35.49
-64.16
-84.15
-95.9
-101
-102.11
-102.76
-106.53
-115.66
-129.94
-146.33
-159.89
-165.87
-161.68
-147.94
-128.09
-106.77
-88.05
-74.48
-67.1
-66.15
-71.74
-83.94
-102.38
-125.74
-151.66
-177.34
-200.28
-218.93
-232.65
-241.24
-244.24
-240.51
-228.47
-206.76
-175.22
-135.5
-91
-46.2
-5.63
27.27
50.8
65.07
71.69
73.1
72.11
71.48
73.67
80.44
92.55
109.48
129.45
149.99
168.66
183.91
195.48
204.29
211.88
219.44
227.2
234.22
238.77
239.18
234.43
224.56
210.36
192.9
173.25
152.55
132.14
113.45
97.3
83.09
68.33
49.38
23.28
-10.03
-46.39
-77.97
-96.14
-95.19
-75.34
-43.02
-8.18
19.97
36.63
42.36
41.23
37.32
31.99
23.47
8.96
-12.48
-38.1
-62.1
-78.26
-82.99
-76.9
-64.32
-51.23
-42.72
-41.33
-46.72
-56.36
-66.79
-74.89
-78.76
-77.9
-73.15
-66.09
-58.41
-51.52
-46.36
-43.68
-44.28
-49.05
-58.66
-73.02
-90.86
-109.6
-125.97
-136.87
-140.4
-136.55
-127.18
-115.13
-103.04
-91.95
-80.89
-67.44
-49.24
-25.66
1.38
27.79
48.84
60.89
62.68
55.29
41.49
24.75
8.5
-4.13
-10.59
-9.24
0.14
16.13
36.17
57.69
79.19
100.3
120.84
139.32
152.17
154.56
142.55
115.58
77.86
37.74
5.14
-11.5
-7.87
14.89
50.53
89.39
121.04
137.12
133.75
112.63
80.29
45.66
16.95
-0.8
-6.44
-1.68
10.9
29.33
52.58
79.56
107.93
133.63
151.76
158.27
151.57
133.02
106.15
74.97
42.39
9.57
-23.49
-56.75
-89.25
-119.1
-144.42
-164.49
-180.34
-194.34
-209.14
-226.35
-245.55
-264.18
-277.86
-281.35
-269.7
-239.7
-191.33
-128.73
-59.97
4.67
55.39
85.83
94.8
86.13
66.99
45.39
28.23
20.17
23.62
39.02
65.3
100.05
139.76
180.11
216.53
244.83
261.77
265.4
255.33
232.91
201.08
163.87
125.68
90.41
61.03
39.5
26.98
24.04
30.41
44.67
64.03
84.7
102.75
115.17
120.59
119.37
113.11
103.95
93.97
84.87
77.79
72.98
69.7
66.38
61.35
53.69
43.72
32.68
21.89
11.81
1.67
-9.83
-23.49
-38.79
-54.01
-67.13
-76.9
-83.43
-87.81
-91.36
-94.82
-98.16
-101.1
-103.59
-106.08
-109.26
-113.56
-118.87
-124.47
-129.36
-132.97
-135.65
-138.85
-144.77
-155.44
-171.82
-193.04
-216.44
-238.09
-253.91
-260.59
-256.25
-240.81
-215.89
-184.67
-151.29
-120
-94.31
-76.06
-65.12
-59.58
-56.47
-52.7
-45.78
-34.35
-18.45
0.5
20.13
37.81
51.5
60.44
65.44
68.46
71.67
76.66
83.9
93
103.26
114.26
126.01
138.43
150.66
160.64
165.63
163.34
153.19
136.87
117.59
98.49
81.09
64.95
48.59
31.33
14.51
1.35
-4.52
-0.94
11.89
31.86
56.37
83.61
112.76
143.27
173.83
202.06
224.87
239.65
245.16
241.68
230.61
213.63
192.3
168.07
142.55
117.69
95.68
78.35
66.49
59.49
55.6
52.47
47.88
40.29
28.64
12.15
-9.97
-38.16
-71.84
-108.62
-144.36
-174.06
-193.47
-200.63
-196.4
-183.98
-167.69
-151.61
-138.82
-131.32
-130.03
-134.9
-144.62
-156.38
-166.05
-169.04
-161.8
-143.25
-115.58
-83.8
-54.15
-32.01
-20.24
-18.66
-24.87
-35.79
-49.01
-63.39
-78.34
-92.85
-104.7
-110.71
-107.81
-94.43
-71.33
-41.33
-8.37
23.71
52.01
74.83
91.35
101.32
104.94
103.01
97.13
89.57
82.95
79.55
80.75
86.82
97.09
110.41
125.4
140.68
154.76
165.97
172.4
172.05
163.19
144.78
116.95
81.17
40.36
-1.7
-41.11
-74.89
-101.73
-121.95
-136.94
-148.13
-156.14
-160.47
-160
-153.91
-142.4
-127.03
-110.25
-94.81
-82.97
-76.17
-74.81
-78.27
-84.91
-92.24
-97.48
-98.43
-94.37
-86.62
-78.11
-72.28
-71.41
-75.47
-82
-87.09
-87.07
-80.08
-66.61
-49.03
-30.35
-13.01
1.77
13.85
23.58
31.35
37.33
41.71
45.02
48.08
51.81
56.69
62.57
68.72
74.2
78.21
80.27
80.03
77.19
71.47
62.84
51.73
39.14
26.35
14.56
4.51
-3.53
-9.59
-13.61
-15.31
-14.27
-10.32
-3.76
4.46
13.05
20.74
26.76
31.02
34.02
36.55
39.38
43.01
47.56
52.92
58.94
65.42
72.2
79.04
85.64
91.64
96.76
100.79
103.42
104.06
101.67
94.98
82.98
65.56
43.94
20.73
-0.7
-17.08
-26.04
-26.73
-19.79
-7.07
8.78
24.81
38.2
46.67
48.89
44.69
35.08
21.93
7.3
-7.1
-20.26
-31.95
-42.42
-51.91
-60.41
-67.67
-73.43
-77.69
-80.86
-83.51
-86.28
-89.62
-93.66
-98.23
-102.75
-106.2
-107.13
-104
-95.68
-82.06
-64.3
-44.82
-26.61
-12.37
-3.51
0.43
1.79
4.26
11.82
27.44
51.82
82.64
114.94
142.48
159.75
163.75
154.77
135.71
110.66
83.39
56.57
32.17
12.21
-0.7
-3.59
5.85
28.16
61.3
100.78
140.48
173.99
195.83
202.59
193.57
170.87
138.81
102.75
67.69
37.17
12.8
-5.52
-18.89
-28.66
-36.05
-42.08
-47.58
-53.27
-59.61
-66.59
-73.59
-79.46
-82.88
-82.98
-79.83
-74.49
-68.7
-64.3
-62.63
-64.1
-68.22
-73.86
-79.8
-85.08
-89.28
-92.48
-95.26
-98.43
-102.67
-107.95
-113.17
-115.89
-112.92
-101.42
-80.42
-51.83
-20.47
7.24
25.7
32.49
29.56
22.44
17.6
19.17
26.61
34.65
35.68
23.37
-4.08
-42.73
-84.3
-119.6
-142.12
-150.23
-146.98
-137.91
-128.16
-120.37
-114.15
-107.01
-95.95
-78.71
-54.57
-24.47
8.95
41.53
67.81
81.98
79.6
59.53
25.2
-15.94
-54.57
-82.84
-96.88
-97.52
-88.6
-73.95
-54.96
-30.05
3.56
46.98
97.43
148.04
189.82
214.79
218.74
202.37
170.78
131.75
93.65
63.5
45.56
40.62
46.24
57.88
70.57
80.64
86.48
88.22
86.56
81.81
73.7
62.09
48.04
34.28
24.84
23.98
34.89
59.05
95.97
143.32
197.2
252.46
303.4
344.63
372.12
383.74
379.27
359.98
328.03
286.35
238.64
189.34
143
103.13
71.04
45.35
22.63
-1.24
-29.42
-62.92
-100.3
-138.09
-171.56
-195.96
-207.67
-205.38
-190.92
-169.08
-146.45
-129.44
-122.16
-125.38
-136.73
-152.27
-168.35
-183.03
-195.96
-207.52
-217.47
-224.28
-225.6
-219.49
-205.68
-186.13
-164.45
-144.54
-129.2
-119.3
-113.78
-110.49
-107.3
-102.93
-97.2
-90.7
-84.24
-78.41
-73.55
-69.83
-67.57
-67.2
-69.04
-72.87
-77.74
-82.18
-84.83
-85.1
-83.53
-81.55
-80.62
-81.32
-82.83
-83.24
-80.58
-74.03
-64.61
-55.11
-49.1
-49.63
-58.27
-74.82
-97.48
-123.13
-147.7
-166.4
-174.49
-168.54
-147.8
-115.07
-75.89
-36.5
-1.25
29
56.57
84.74
115.23
146.69
175.18
196.33
207.49
208.84
202.57
191.26
176.35
157.99
136.07
111.43
86.28
63.44
44.73
29.98
17.06
3.05
-14.12
-34.52
-56.21
-76.11
-91.3
-99.85
-100.95
-94.6
-81.32
-62.34
-39.89
-17.33
1.47
13.27
16.68
12.86
5.16
-2.21
-5.7
-3.49
4.17
15.58
28.59
41.4
52.93
62.79
70.86
77.1
81.4
83.66
84.08
83.3
82.33
82.1
82.92
84.03
83.77
80.41
73.15
62.73
51.09
40.11
30.24
19.8
5.63
-15.34
-44.37
-80.05
-118.75
-156.16
-188.8
-215.04
-234.86
-248.94
-257.71
-261
-258.52
-250.57
-238.44
-224.05
-209.08
-194.15
-178.5
-160.54
-138.92
-113.43
-85.23
-56.22
-28.07
-1.48
23.71
47.85
70.71
91.12
107.44
118.56
124.69
127.6
129.92
134
140.84
149.53
157.69
162.52
162.06
155.88
145.12
131.91
118.5
106.78
98.05
93.19
92.69
96.34
102.87
109.86
114.16
112.99
104.97
90.79
72.89
54.58
38.92
27.95
22.63
22.97
28.41
37.85
49.64
61.55
71.1
76.35
76.7
73.38
69.21
67.71
71.69
81.98
97.09
113.63
127.77
136.57
138.99
135.86
129.09
120.53
111.17
100.97
89.45
76.52
62.93
50.32
40.55
34.88
33.33
34.63
36.83
38.01
37.1
33.85
28.46
21.06
11.45
-0.48
-14.21
-28.3
-41.03
-51.44
-60.25
-69.77
-82.6
-99.8
-119.82
-138.92
-153.1
-160.18
-160.77
-157.6
-153.38
-149.05
-143.27
-133.72
-119.11
-100.67
-81.96
-67.3
-59.69
-59.36
-63.8
-69.04
-71.37
-68.72
-61.07
-49.96
-37.47
-25.2
-13.76
-3
7.47
17.72
27.48
36.49
44.94
53.51
62.81
72.65
81.49
86.79
86.04
78.09
63.88
46.23
28.66
14.08
3.9
-2.11
-5.12
-6.38
-6.62
-5.91
-3.9
-0.21
5.26
12.08
19.36
25.79
30
30.93
28.31
22.97
16.72
11.88
10.43
13.31
19.99
28.65
36.64
41.13
39.83
31.41
15.85
-5.65
-30.92
-57.4
-82.59
-104.45
-121.44
-132.45
-136.67
-133.65
-123.66
-107.87
-88.29
-67.42
-47.64
-30.74
-17.72
-8.81
-3.64
-1.47
-1.53
-3.19
-6.18
-10.47
-16.04
-22.44
-28.69
-33.36
-35.12
-33.21
-27.72
-19.56
-10.01
-0.32
8.62
16.39
22.88
28.15
32.31
35.39
37.43
38.56
39.17
39.9
41.58
44.87
50.01
56.6
63.71
70.1
74.48
75.7
72.91
65.67
54.32
40.12
25.33
12.78
5.14
4.03
9.34
19.22
30.62
40.34
45.94
46.33
41.68
33.16
22.49
11.74
3.2
-0.93
1
9.18
21.65
34.32
41.86
39.58
25.28
0.33
-30.62
-61.32
-86.12
-101.8
-108.16
-107.56
-103.5
-99.12
-96.09
-94.31
-92.45
-88.91
-82.77
-74.24
-64.33
-54.04
-43.45
-31.44
-16.25
3.29
26.46
50.11
69.3
78.7
74.35
55.07
23.2
-15.61
-53.11
-79.99
-87.97
-72.21
-33.54
20.84
78.8
126.73
153.9
156.04
136.53
104.78
72.73
51.08
46.64
61.31
92.49
134.02
177.36
213.14
232.82
230.8
205.93
162.17
107.64
52.5
6.38
-23.88
-35.55
-30.42
-13.98
6.23
22.97
31.68
31.96
27.48
24.01
26.59
36.9
52.41
67.35
75.19
71.31
54.64
27.72
-4.7
-37.52
-66.84
-90.46
-107.48
-117.65
-121.03
-118.27
-111.18
-102.78
-96.54
-94.95
-98.2
-104.02
-108.92
-110.51
-109.12
-107.84
-110.59
-119.55
-133.33
-147.43
-156.26
-155.93
-145.74
-127.88
-105.65
-81.66
-57.05
-31.87
-6
20.25
46.18
71.13
94.51
115.39
131.79
140.66
138.81
124.5
98.72
65.36
30.16
-1.27
-25.06
-39.81
-46.26
-46.28
-41.99
-35.23
-27.53
-20.2
-14.22
-10.1
-7.6
-5.74
-3.14
1.49
8.68
17.97
27.95
36.77
42.87
45.62
45.68
44.69
44.56
46.59
50.74
55.55
58.83
58.76
54.92
48.69
42.88
40.55
43.87
53.18
66.77
81.24
92.23
95.48
87.77
67.85
37
-0.83
-39.79
-73.79
-98.46
-112.77
-119.31
-123.03
-129.03
-140.41
-157.23
-176.77
-194.87
-207.3
-210.5
-201.84
-179.37
-142.25
-91.47
-30.86
32.58
89.59
131.1
151.06
148.75
129.29
101.99
76.94
61.35
57.13
60.95
66.55
68.12
63.06
52.8
41.38
32.98
29.82
31.48
35.62
39.55
41.49
41
38.76
35.81
32.9
30.27
27.67
24.68
21.12
17.3
14.07
12.58
13.69
17.48
22.99
28.33
31.22
29.57
22.08
8.56
-9.74
-30.13
-48.86
-61.87
-66.22
-61.09
-48.25
-31.39
-14.63
-1.05
8.19
13.43
15.47
14.5
9.81
0.46
-13.51
-30.29
-46.37
-57.63
-60.95
-55.32
-42.1
-24.25
-5.08
12.9
28.54
41.9
53.55
63.96
73.24
81.23
88
94.15
100.74
108.88
119.08
130.77
142.16
150.55
152.82
146.12
128.53
99.79
61.71
18.2
-25.43
-64
-94.22
-115.86
-131.59
-145.21
-159.27
-173.26
-183.74
-186.46
-179.21
-163.67
-145.09
-129.89
-122.58
-123.83
-130.64
-138.34
-142.93
-142.36
-136.07
-123.87
-105.34
-80.56
-51.45
-22.31
1.17
14.58
17.33
13.26
8.87
9.85
18.05
30.55
41.43
45.01
39.04
25.9
11.67
3.52
6.92
23.61
51.19
84.16
115.79
140.28
154.27
157.16
150.36
136.09
116.29
92.36
65.6
37.81
11.62
-9.99
-24.68
-31.7
-32.44
-30.14
-28.79
-31.93
-41.53
-57.52
-77.83
-98.88
-116.22
-125.26
-122.13
-104.76
-73.88
-33.64
8.9
45.53
69.34
77.09
70.1
53.37
33.35
15.7
3.91
-0.78
1.33
9.06
20.55
33.09
43.31
47.83
44.44
32.95
15.26
-5.52
-26.46
-45.94
-64.02
-81.87
-100.74
-120.79
-140.62
-157.37
-167.68
-168.79
-159.52
-140.66
-114.54
-84.24
-52.76
-22.64
3.87
24.63
37.87
43.07
41.7
37.42
34.99
38.36
48.92
64.83
81.96
96.02
104.6
108.14
109.54
112.58
120.14
133.18
150.43
168.69
183.66
190.95
187.38
172.24
147.81
118.71
90.01
64.78
42.72
20.73
-4.96
-35.97
-70.32
-103.06
-128.64
-143.35
-146.62
-140.54
-128.31
-112.9
-96.59
-81.15
-68.22
-58.99
-53.52
-50.31
-46.69
-39.99
-28.93
-14.23
1.99
17.42
30.64
41.18
48.85
52.85
51.58
43.29
27.27
4.62
-21.88
-48.54
-71.76
-88.77
-98.04
-99.31
-93.58
-82.78
-69.31
-55.34
-42.2
-30.19
-18.95
-8.19
1.88
10.46
16.86
21.24
24.71
28.74
34.15
40.27
45.02
45.7
40.11
27.33
7.86
-16.94
-45.49
-76.32
-107.84
-137.54
-161.74
-175.89
-176.09
-160.84
-132.25
-95.8
-58.68
-27.27
-5.11
7.62
13.21
14.64
13.99
12.04
8.92
5.16
2.25
2.34
7.11
16.68
29.18
41.13
48.84
49.74
43.4
31.65
17.76
5.19
-3.55
-7.51
-7.18
-3.8
1.38
7.55
14.36
21.79
30.11
40.12
53.59
73.15
101.37
139.13
184.33
231.61
273.59
303.07
314.92
307.09
280.17
236.59
180.06
115.4
48.81
-12.6
-62.09
-95.11
-110.83
-112.23
-104.76
-94.1
-84.19
-76.58
-71.13
-67.27
-64.94
-64.81
-67.62
-73.19
-79.97
-85.36
-86.74
-82.45
-72.47
-58.25
-42.02
-26.01
-11.97
-0.93
6.81
11.67
14.67
17.05
19.84
23.2
26.28
27.62
25.76
19.88
10.05
-3.13
-19.13
-37.76
-59.04
-82.76
-108.04
-133.37
-157.08
-177.99
-195.78
-210.99
-224.4
-236.28
-245.89
-251.37
-250.38
-241.08
-223.13
-198.07
-169.01
-139.52
-112.32
-88.55
-67.64
-48.08
-28.44
-8.17
12.24
31.64
48.95
63.71
76.17
87.11
97.25
106.98
116.16
124.31
130.96
135.99
139.66
142.56
145.24
147.93
150.5
152.55
153.64
153.54
152.29
150.13
147.39
144.31
140.99
137.41
133.45
128.94
123.79
117.93
111.41
104.34
96.9
89.27
81.57
73.84
65.98
57.87
49.37
40.46
31.24
21.9
12.63
3.55
-5.18
-13.27
-20.01
-24.25
-24.74
-20.57
-11.82
0.25
13.42
25.2
33.57
37.51
37.08
33.19
27.07
19.96
12.8
6.19
0.31
-5.03
-10.31
-16.08
-22.64
-29.66
-36.15
-40.56
-41.35
-37.5
-28.95
-16.53
-1.45
15.34
33.75
54.44
78.35
105.94
136.6
168.75
200.42
230.06
256.79
280.25
299.8
313.84
319.77
314.57
295.72
262.01
214.15
155.07
90.24
27.38
-24.42
-56.55
-63.38
-44.3
-4.34
47.04
98.63
140.55
166.32
173.59
163.3
138.42
102.72
59.95
13.46
-34.13
-81.24
-127.73
-174.66
-223.44
-274.53
-326.1
-373.64
-411.02
-432.71
-436.06
-422.58
-397.28
-366.46
-335.21
-305.88
-278.34
-251.43
-224.63
-198.64
-174.83
-154.07
-135.85
-118.47
-100.04
-79.55
-57.36
-34.87
-13.61
5.57
22.84
38.94
54.51
69.54
83.24
94.57
102.81
108.06
111.3
113.87
116.93
120.97
125.88
131.18
136.5
141.8
147.18
152.46
156.84
158.95
157.5
152
143.2
132.65
121.82
111.25
100.2
87.36
71.7
53.3
33.14
12.34
-8.72
-30.58
-54.09
-79.43
-105.46
-130.03
-150.94
-167.11
-178.95
-187.88
-195.27
-201.36
-204.81
-203.25
-194.32
-176.81
-151.41
-120.66
-88.2
-57.73
-32.01
-12.32
1.62
11.24
18.54
25.47
33.53
43.52
55.6
69.43
84.4
99.77
114.68
128.18
139.29
147.16
151.38
152.12
150.11
146.23
141.1
134.71
126.5
115.68
101.87
85.4
67.34
49.1
31.89
16.29
2.2
-11.05
-24.17
-37.55
-50.98
-63.67
-74.55
-82.68
-87.65
-89.66
-89.41
-87.74
-85.23
-82.04
-77.98
-72.71
-66.02
-57.9
-48.46
-37.82
-26.14
-13.73
-1.25
10.31
19.84
26.44
29.82
30.36
28.99
26.86
24.9
23.5
22.47
21.22
19.03
15.5
10.76
5.49
0.65
-2.89
-4.72
-5.03
-4.42
-3.66
-3.36
-3.79
-4.88
-6.43
-8.26
-10.32
-12.71
-15.57
-19.02
-23.1
-27.8
-33.02
-38.59
-44.17
-49.22
-53.1
-55.16
-55.11
-53.06
-49.7
-46.06
-43.19
-41.85
-42.28
-44.19
-46.94
-49.76
-52.03
-53.44
-54.07
-54.33
-54.74
-55.71
-57.35
-59.24
-60.57
-60.27
-57.47
-51.8
-43.58
-33.77
-23.62
-14.28
-6.4
0.02
5.55
11.04
17.2
24.28
31.85
38.92
44.29
46.94
46.44
43.14
38.14
32.99
29.2
27.89
29.42
33.28
38.27
42.85
45.64
45.8
43.29
38.8
33.46
28.48
24.84
23.08
23.25
24.95
27.4
29.67
30.84
30.37
28.17
24.72
20.82
17.35
14.99
14.01
14.33
15.59
17.36
19.12
20.44
20.94
20.39
18.78
16.28
13.32
10.37
7.93
6.31
5.6
5.66
6.17
6.71
6.83
6.18
4.57
2.02
-1.22
-4.78
-8.18
-11.13
-13.58
-15.87
-18.63
-22.6
-28.29
-35.76
-44.43
-53.23
-60.76
-65.73
-67.36
-65.73
-61.78
-57.19
-53.77
-52.86
-54.75
-58.54
-62.3
-63.86
-61.55
-54.79
-44.33
-31.77
-19.04
-7.82
0.78
6.28
8.74
8.59
6.62
3.93
1.78
1.33
3.26
7.5
13.27
19.38
24.63
28.28
30.18
30.72
30.48
30.03
29.7
29.55
29.47
29.19
28.48
27.18
25.3
23.05
20.76
18.79
17.37
16.56
16.12
15.72
15.01
13.76
11.9
9.51
6.78
3.98
1.36
-0.9
-2.73
-4.25
-5.69
-7.32
-9.36
-11.81
-14.53
-17.27
-19.85
-22.24
-24.7
-27.71
-31.9
-37.85
-45.82
-55.61
-66.55
-77.62
-87.8
-96.3
-102.8
-107.45
-110.77
-113.37
-115.8
-118.24
-120.51
-122.01
-121.9
-119.19
-113.19
-103.73
-91.37
-77.38
-63.35
-50.68
-40.17
-31.76
-24.64
-17.54
-9.26
0.98
13.42
27.76
43.4
59.63
75.71
90.97
104.82
116.81
126.7
134.48
140.36
144.68
147.69
149.63
150.59
150.7
150.21
149.41
148.58
147.81
146.97
145.74
143.94
141.75
139.71
138.64
139.17
141.49
145.12
149.11
152.5
154.8
156.25
157.7
160.12
163.92
168.64
172.94
174.92
172.77
164.99
150.55
128.84
99.88
64.9
27.02
-8.94
-37.45
-54.26
-58.28
-52.22
-41.55
-32.17
-28.13
-30.38
-37.21
-45.85
-54.03
-60.94
-66.93
-72.75
-78.79
-84.88
-90.62
-95.87
-101.03
-106.94
-114.48
-123.87
-134.19
-143.37
-148.81
-148.49
-141.97
-130.73
-117.58
-105.46
-96.2
-89.98
-85.68
-81.68
-76.7
-70.07
-61.56
-51.01
-38.21
-22.92
-5.16
14.68
35.9
57.6
78.65
97.63
112.8
122.4
125.19
120.86
110.24
94.83
76.01
54.45
29.85
1.55
-30.59
-65.53
-101.01
-134.22
-162.56
-184.07
-197.24
-200.61
-192.57
-171.92
-138.88
-95.91
-47.81
-0.63
40
70.42
89.59
98.78
100.44
97.12
90.86
83.03
74.68
66.64
59.61
53.9
49.34
45.32
41.03
35.87
29.62
22.34
14.1
4.6
-6.88
-21.19
-38.86
-59.6
-82.19
-104.8
-125.46
-142.26
-153.4
-156.95
-151.03
-134.61
-108.65
-76.81
-45.09
-19.85
-5.15
-0.66
-1.44
-0
10.25
31.87
62.11
94.15
120.01
133.72
133.2
120.28
99.49
76.14
54.84
38.45
27.87
22.05
18.59
14.52
7.23
-4.79
-21.55
-41.64
-62.7
-81.82
-95.97
-102.42
-99.19
-85.66
-62.93
-33.77
-2.07
27.87
52.04
66.96
70.09
60.35
38.84
9.41
-21.79
-47.7
-62.61
-64.21
-54.37
-38.21
-21.71
-9.23
-2.04
1.61
4.88
10.49
19.49
31.2
44.21
57.68
72
88.61
108.84
132.74
158.35
181.91
198.94
205.55
199.42
180.15
148.78
107.07
57.05
1.1
-57.63
-114.98
-166.34
-207.93
-238.16
-257.95
-269.71
-275.36
-274.56
-264.64
-242.26
-206.16
-159.16
-108.15
-61.9
-27.78
-9.43
-6.15
-14.19
-28.84
-45.95
-62.36
-75.52
-82.93
-82.28
-72.15
-52.81
-26.39
3.78
34.45
63.63
90.88
116.66
141.12
163.17
180.32
189.45
188.07
175.29
152.08
120.78
84.38
45.8
7.76
-27.22
-56.72
-78.56
-91.02
-93.4
-86.32
-71.76
-52.77
-32.79
-14.82
-0.82
8.48
13.23
13.78
10.15
2.01
-10.8
-27.48
-45.71
-62.02
-72.97
-76.68
-73.92
-68.01
-63.48
-64.13
-71.55
-84.7
-100.86
-116.95
-130.8
-141.32
-148.14
-150.97
-149.39
-143.33
-133.67
-122.56
-112.76
-106.54
-104.43
-104.81
-104.5
-100.05
-89.06
-71.05
-47.45
-20.9
5.73
30.4
52.36
72.07
90.62
108.84
126.64
142.79
155.26
162.01
161.81
154.92
143.11
129.28
116.71
108.23
105.63
109.2
117.72
128.75
139.21
146.33
148.44
145.28
137.78
127.23
114.51
99.66
82.19
62.03
40.44
20.45
6.43
2.78
12.35
35.11
67.69
103.83
135.86
156.65
161.47
149.06
121.61
83.41
39.23
-6.98
-52.44
-94.8
-131.33
-158.58
-173.14
-172.97
-158.55
-133.26
-102.33
-71.36
-44.71
-24.74
-11.83
-5.1
-3
-3.68
-5.08
-4.89
-0.74
9.05
24.54
43.43
61.22
72.44
72.55
59.8
36.03
6.13
-23.57
-47.05
-59.94
-59.91
-46.54
-21.23
12.82
50.69
86.38
114.04
129.38
130.57
118.07
93.58
59.07
16.48
-31.68
-81.49
-127.51
-164
-186.95
-195.82
-193.72
-185.65
-175.82
-165.66
-153.56
-136.62
-113.12
-84.31
-54.05
-27.09
-6.74
6.5
14.59
20.39
25.96
31.71
36.85
40.49
42.58
44.18
46.78
51.28
57.15
62.39
64.3
60.78
51.41
37.78
22.96
10.27
2
-1.28
-0.51
2.65
6.8
11.36
16.49
22.56
29.52
36.66
42.76
46.53
46.79
42.68
33.66
19.68
1.52
-18.92
-38.79
-54.9
-64.9
-68.17
-66.23
-62.07
-58.89
-58.83
-62.31
-68.25
-74.97
-81.32
-87.24
-93.67
-101.89
-112.52
-124.96
-137.27
-146.81
-151.12
-148.82
-139.94
-125.75
-108.1
-88.63
-68.39
-47.81
-26.96
-5.81
15.74
37.99
61.48
86.71
113.71
141.6
168.55
192.35
211.24
224.7
233.69
240.26
246.54
253.96
262.6
271.32
278.17
281.11
278.54
269.71
254.85
234.95
211.5
185.87
158.79
129.92
97.92
61.23
19.11
-27.13
-73.66
-114.51
-143.33
-155.58
-150.33
-130.63
-102.29
-71.58
-42.95
-18.04
3.8
23.89
42.52
58.31
68.9
72.43
68.75
59.75
48.55
38.09
30.05
24.4
19.85
14.61
7.26
-2.8
-15.15
-28.71
-42.05
-53.92
-63.56
-70.94
-76.75
-82.12
-88.36
-96.57
-107.58
-121.88
-139.51
-159.88
-181.45
-201.78
-217.94
-227.21
-227.83
-219.35
-202.56
-178.86
-149.82
-116.88
-81.36
-44.73
-8.48
26.02
58.01
87.35
114.55
140.2
164.64
187.84
209.34
228.25
243.11
251.72
251.48
240.26
217.5
185.02
146.83
107.91
72.47
42.47
17.4
-4.76
-25.87
-46.27
-64.49
-78.03
-84.86
-84.53
-78.6
-69.96
-61.72
-55.92
-53.17
-52.71
-53.29
-53.97
-54.33
-54.08
-52.41
-47.91
-39.25
-26.62
-12.6
-1.82
1.02
-6.24
-21.67
-39.71
-53.79
-59.52
-56.84
-49.63
-43.39
-42.07
-46
-52.09
-55.56
-52.55
-41.75
-24.69
-4.75
14.42
29.98
40.52
45.6
45.05
38.51
25.42
5.65
-19.68
-47.74
-74.27
-94.71
-105.75
-106.49
-98.89
-87.1
-76
-69.46
-69.14
-74.12
-81.41
-87.04
-87.2
-79.12
-61.56
-34.94
-1.41
35.28
70.23
98.26
115.23
119.46
112.46
98.83
84.94
76.84
78.13
88.79
105.38
122.66
135.77
141.79
140.07
131.48
117.2
98.14
75.32
50.8
27.97
10.93
2.84
4.29
12.87
24.35
34.74
42.06
46.82
50.96
56.23
62.91
69.66
74.23
74.52
69.17
57.62
39.76
15.96
-12.79
-44.36
-75.41
-101.76
-119.57
-126.59
-123.27
-112.74
-99.9
-89.57
-84.78
-85.72
-89.91
-93.49
-93.02
-86.63
-74.42
-57.78
-38.26
-16.78
6.25
30.12
52.83
70.77
79.54
75.53
57.57
27.68
-9.42
-47.64
-81.25
-105.86
-118.75
-118.6
-105.28
-79.84
-44.76
-3.98
37.39
73.93
100.83
114.67
113.99
99.7
75.16
45.76
17.85
-3
-13.79
-15.18
-11.35
-8.35
-11.75
-24.49
-45.7
-70.79
-92.65
-103.55
-97.41
-71.92
-30.04
19.99
66.32
96.98
103.65
84.51
44.49
-6.82
-58.96
-103.94
-137.99
-161.01
-174.74
-181
-180.91
-175.31
-165.63
-154.24
-144.03
-137.2
-134.2
-133.34
-131.51
-125.44
-112.99
-93.89
-69.67
-42.77
-15.49
11.01
37.07
64.24
94.44
128.88
167.39
208.29
248.9
286.43
318.72
344.48
363.19
374.68
378.89
375.88
365.89
349.29
326.44
297.47
262.35
221.32
175.49
127.34
80.37
38.26
3.6
-22.92
-42.31
-56.29
-66.01
-71.53
-72.16
-67.45
-57.9
-45.03
-30.63
-15.85
-0.86
14.8
31.24
47.49
61.5
70.79
73.35
68.36
56.29
38.63
17.68
-3.74
-22.75
-37.06
-46.06
-51.33
-56.52
-66.03
-83.35
-109.43
-142.31
-177.95
-211.88
-240.64
-262.26
-275.59
-279.38
-272.08
-252.66
-222.15
-184.59
-146.43
-114.49
-93.36
-83.77
-82.77
-85.48
-87.51
-86.59
-82.87
-77.9
-73.36
-70.07
-67.77
-65.55
-62.29
-57.16
-49.84
-40.68
-30.56
-20.74
-12.39
-6.17
-2.06
0.62
2.8
5.23
8.15
11.29
13.93
15.13
13.81
9.15
0.88
-10.18
-21.83
-30.85
-33.96
-29.46
-18.61
-6.12
0.97
-4.05
-24.69
-59.15
-100.45
-138.54
-163.73
-169.82
-155.7
-124.98
-84.13
-40.31
0.36
33.56
56.86
69.47
72.17
67.15
57.64
47.26
39.11
35.15
35.81
40.35
47.28
55
62.28
68.43
73.38
77.62
82.02
87.45
94.47
103.03
112.34
121.18
128.31
132.91
134.93
135.05
134.58
135.11
138.03
144
152.39
161.09
166.83
166.02
155.87
135.47
106.32
72.14
37.99
9.08
-10.64
-19.52
-18.74
-11.94
-4.15
0.04
-1.95
-9.68
-20.02
-28.66
-31.97
-28.55
-19.64
-8.37
1.59
7.38
7.77
3.22
-4.47
-12.68
-18.58
-19.88
-15.5
-6.09
6.05
17.58
25.26
26.98
22.46
13.22
1.98
-8.25
-14.95
-16.73
-13.56
-6.77
1.37
8.2
11.5
9.98
3.5
-7.09
-20.23
-33.79
-45.24
-51.97
-52.24
-46.36
-37.31
-30.09
-29.8
-39.18
-57.09
-79.08
-99.53
-114.28
-121.91
-123.08
-118.74
-108.83
-92.52
-69.79
-43.21
-18
-0.3
5.68
-0.31
-14.5
-31.04
-44.65
-52.46
-54.2
-51.04
-44.28
-34.52
-22.03
-7.47
7.54
20.62
29.52
33.09
31.88
27.91
23.81
21.73
22.45
25.01
27.12
26.01
19.45
6.64
-11.46
-32.43
-53.13
-70.67
-83.26
-90.49
-93.18
-92.88
-91.12
-89.02
-87.04
-85.03
-82.36
-78.28
-72.22
-64.14
-54.68
-44.99
-36.33
-29.71
-25.49
-23.59
-23.65
-25.37
-28.64
-33.33
-39
-44.71
-49.03
-50.4
-47.56
-39.91
-27.64
-11.57
6.94
26.3
44.76
60.67
72.6
79.56
81.13
77.67
70.37
61.16
52.49
46.98
46.96
54.36
70.38
95.42
128.64
167.65
208.53
246.59
277.43
298.29
308.6
309.76
304.05
293.51
279.47
262.81
244.78
227.49
213.67
205.69
204.37
208.28
213.89
216.6
212.09
197.63
172.84
139.67
101.6
62.51
25.66
-6.86
-33.96
-55.14
-70.1
-78.76
-81.76
-80.98
-79.62
-81.61
-90.49
-108.15
-133.99
-164.81
-195.66
-221.26
-237.48
-242.49
-237.05
-223.83
-206.2
-186.94
-167.53
-148.38
-129.71
-112.46
-98.63
-90.62
-90.18
-97.41
-110.63
-127.12
-144.37
-160.97
-176.55
-191.02
-203.66
-212.8
-216.52
-213.85
-205.72
-194.84
-184.54
-177
-172.22
-167.94
-160.93
-148.68
-130.56
-107.97
-83.41
-59.21
-36.51
-15.15
5.67
26.45
46.75
65.26
80.43
91.41
98.47
102.94
106.56
110.68
115.67
120.79
124.66
125.88
123.64
117.97
109.7
100
90.02
80.62
72.29
65.23
59.46
54.92
51.44
48.8
46.68
44.75
42.76
40.48
37.8
34.65
31.04
27.14
23.26
19.79
17.04
15.12
13.82
12.74
11.42
9.5
6.79
3.27
-0.97
-5.82
-11.04
-16.32
-21.29
-25.56
-28.87
-31.16
-32.55
-33.33
-33.76
-34
-34.01
-33.44
-31.62
-27.72
-21
-11.02
2.17
18.12
36.14
55.5
75.51
95.4
114.15
130.47
143.01
150.79
153.61
152.09
147.44
140.94
133.43
125.14
115.85
105.26
93.36
80.57
67.71
55.68
45.15
36.31
28.76
21.79
14.51
6.21
-3.39
-14.02
-24.85
-34.7
-42.23
-46.33
-46.49
-43.2
-38.11
-33.72
-32.75
-37.19
-47.49
-62.35
-79.09
-94.62
-106.39
-113.07
-114.7
-112.28
-107.32
-101.31
-95.38
-90.24
-86.07
-82.57
-79.09
-74.85
-69.28
-62.23
-54.06
-45.35
-36.56
-27.68
-18.2
-7.31
5.57
20.38
36.14
51.06
63.04
70.25
71.72
67.58
58.9
47.34
34.66
22.3
11.13
1.41
-7.14
-15.17
-23.46
-32.69
-43.19
-54.85
-67.01
-78.75
-89.25
-98.21
-106.11
-114.13
-123.73
-136.06
-151.41
-168.94
-186.85
-202.84
-214.57
-220.07
-217.98
-207.73
-189.71
-165.41
-137.27
-108.01
-79.94
-54.26
-30.97
-9.36
11.07
29.87
45.45
55.45
57.69
50.97
35.56
13.24
-12.97
-39.37
-62.16
-78.13
-85.14
-82.47
-70.78
-51.86
-28.06
-1.92
24.23
48.51
69.61
86.98
100.76
111.68
120.56
127.93
133.69
137.01
136.65
131.38
120.45
103.94
82.97
59.71
37.07
18.2
5.7
1.04
4.06
13.08
25.49
38.59
50.39
60
67.5
73.52
78.64
83.05
86.46
88.33
88.13
85.81
81.79
77.05
72.91
70.61
70.93
73.66
77.47
79.97
78.32
70.13
54.31
31.66
4.92
-21.93
-44.7
-60.19
-67.17
-66.6
-61.36
-55.35
-52.29
-54.7
-63.16
-76.24
-91
-104.07
-112.57
-114.99
-111.23
-102.33
-89.81
-75.11
-59.34
-43.25
-27.38
-11.93
3.32
19.23
37.18
58.57
84.13
113.34
144.33
174.2
199.8
218.38
228.08
228.21
219.1
201.87
177.99
148.81
115.29
78.1
38.05
-3.14
-42.47
-75.75
-98.51
-107.4
-101.52
-83.02
-56.53
-27.71
-1.44
19.63
35.37
47.68
59.2
71.99
86.76
102.74
118.26
131.31
140.12
143.25
139.64
128.78
111.03
88.05
62.81
39.11
20.48
9.12
5.29
7.42
12.97
19.48
25.2
29.19
30.83
29.26
23.24
11.51
-6.67
-30.92
-59.65
-90.31
-120.13
-146.8
-168.99
-186.46
-199.72
-209.59
-216.7
-221.3
-223.42
-223.04
-220.36
-215.7
-209.42
-201.65
-192.39
-181.66
-169.87
-158.12
-147.98
-140.97
-137.73
-137.41
-137.59
-134.95
-126.26
-109.59
-84.78
-53.32
-17.61
20.02
57.87
94.75
129.54
160.51
185.26
201.15
206.42
201.07
187.28
168.88
150.04
133.76
120.88
110.22
99.88
89.17
79.98
76.61
83.9
104.41
136.24
172.95
205.63
226.39
231.2
220.92
199.92
173.49
145.55
118
91.47
66.92
46.43
32.81
28.41
33.85
47.63
66.68
87.48
107.01
123.18
134.72
140.68
140.06
131.59
114.03
86.6
49.54
4.53
-45.31
-95.88
-142.98
-183.2
-214.48
-236.22
-248.92
-253.55
-251.3
-243.47
-231.55
-217.12
-201.44
-185.08
-167.73
-148.8
-128.17
-106.97
-87.74
-73.49
-66.32
-66.2
-70.48
-74.99
-75.62
-70.1
-58.66
-43.56
-27.69
-13.08
-0.2
12.04
25.33
40.97
59.03
78.08
95.49
108.26
113.89
111.18
100.65
84.27
64.76
44.48
24.75
5.72
-12.98
-31.45
-48.83
-63.25
-72.42
-74.54
-68.98
-56.51
-39.14
-19.49
-0.27
16.18
28.26
35.15
36.9
34.37
28.93
22.23
15.81
10.83
7.95
7.41
9.1
12.8
18.37
25.85
35.56
48.04
63.74
82.68
104.01
125.98
146.16
162.15
172.11
175.14
171.15
160.43
143.19
119.6
90.08
55.83
19.03
-17.34
-50.01
-75.96
-92.8
-98.92
-93.77
-78.28
-55.28
-29.43
-6.38
8.74
12.72
5.07
-12.2
-35.48
-60.44
-82.84
-98.77
-105.25
-100.86
-86.42
-65.02
-41.03
-18.51
0.26
15.26
27.96
39.77
50.98
60.54
66.92
69.06
66.88
60.91
51.6
38.97
22.83
3.77
-16.22
-33.64
-44.58
-46.06
-37.35
-20.38
0.83
21.51
37.61
47.18
50.78
51.19
52.28
57.58
69.04
86.4
107.4
128.6
146.53
158.62
163.65
161.57
152.91
138.13
117.4
90.83
58.96
23.13
-14.6
-52.1
-87.75
-120.91
-151.67
-180.04
-205.23
-225.37
-238.03
-241.13
-233.77
-216.64
-191.83
-162.41
-132.05
-104.68
-84
-72.79
-72.11
-80.72
-95.35
-111.55
-125.01
-132.62
-133.03
-126.58
-114.86
-100.26
-85.64
-74.01
-67.94
-68.87
-76.42
-88.17
-100.09
-107.72
-107.56
-98.26
-80.97
-58.7
-35.12
-13.16
5.75
21.74
35.86
49.19
62.22
74.6
85.19
92.64
95.9
94.82
90.34
84.46
79.65
78.2
81.52
89.8
102.04
116.5
131.13
143.92
153.11
157.29
155.54
147.62
134.09
116.43
96.86
77.95
62.24
51.57
46.67
47.07
51.27
57.37
63.83
69.85
75.2
79.71
82.62
82.34
77.13
66.09
50.2
32.59
17.67
9.51
10.13
18.45
30.7
41.88
47.65
45.75
36.31
21.16
2.66
-17.17
-37.13
-56.71
-75.75
-94.23
-112.01
-128.74
-143.75
-155.99
-164.18
-167.29
-164.98
-157.84
-147.27
-135.03
-122.7
-111.62
-102.84
-97.36
-96.07
-99.42
-106.92
-116.82
-126.32
-132.11
-131.38
-122.57
-105.86
-83.14
-57.49
-32.48
-11.34
3.8
12.44
15.75
16.17
16.54
19.12
25.02
34.12
45.63
58.78
73.17
88.76
105.32
122.01
137.36
149.55
157.08
159.15
155.9
148.08
136.79
123.2
108.31
92.96
77.66
62.6
47.6
32.26
16.23
-0.47
-17.18
-32.63
-45.15
-53.23
-55.94
-53.28
-46.23
-36.6
-26.72
-19.09
-15.98
-18.79
-27.55
-40.42
-53.71
-62.6
-62.44
-50.44
-26.7
5.37
40.1
71.03
92.64
101.36
96.08
78.19
51.49
21.9
-3.35
-17.16
-14.93
3.36
32.17
61.66
81.28
83.88
68.63
40.79
8.74
-20.38
-43.64
-62.54
-80.51
-99.37
-117.3
-129.42
-130.73
-119.07
-96.46
-67.77
-38
-9.94
16.13
40.96
64.36
84.19
97.17
100.66
94.41
80.87
64.09
48.02
35.15
26.29
21.33
20.09
22.66
29
38.27
48.51
57.21
62.11
62.24
58.21
51.98
46.03
42.46
42.41
45.83
51.59
57.67
61.48
60.39
52.38
36.84
15.12
-9.63
-33.27
-51.85
-62.67
-64.7
-58.63
-46.48
-31.36
-17.17
-8.14
-7.91
-18.04
-36.87
-59.15
-77.48
-85.02
-78.47
-59.65
-34.91
-12.42
1.27
3.56
-3.76
-16.12
-28.58
-37.74
-42.49
-43.5
-42.35
-40.68
-39.89
-40.95
-44.32
-49.73
-56.03
-61.29
-63.28
-60.27
-51.7
-38.73
-24.25
-12.22
-6.57
-9.8
-21.95
-40.41
-60.71
-78.03
-88.85
-91.96
-88.45
-80.81
-71.79
-63.47
-56.98
-52.65
-50.26
-49.06
-47.64
-44.03
-36.41
-24.06
-8.21
8.09
20.92
27.26
26.21
19.36
9.76
0.21
-8.05
-15.6
-23.89
-33.83
-44.68
-54.05
-58.78
-56.15
-44.64
-24.05
4.75
40.03
79
117.36
149.32
168.63
170.58
154.12
123
84.88
48.82
22.11
8.06
5.66
11.14
20.33
30.36
40.13
49.54
58.42
65.84
70.19
69.92
64.17
53.08
37.64
19.25
-0.68
-21.06
-41.02
-59.83
-76.71
-90.76
-101.12
-107.29
-109.53
-109.07
-107.87
-108.08
-111.34
-118.31
-128.5
-140.51
-152.45
-162.38
-168.61
-170.07
-166.41
-158.09
-146.07
-131.4
-114.61
-95.54
-73.55
-48.27
-20.31
8.41
35.18
57.45
73.98
85.61
95.08
106.24
122.89
147.86
182.39
226.11
276.89
330.98
383.42
428.77
462.39
481.76
487.2
481.89
470.7
458.5
448.48
441.09
434.16
423.88
406.43
379.24
341.78
295.4
242.36
184.93
124.82
63.28
1.79
-57.54
-112.06
-159.34
-197.97
-227.99
-250.5
-266.88
-278.16
-285.01
-288.25
-289.33
-290.1
-292.16
-296.06
-301.17
-306.36
-310.95
-315.37
-320.84
-328.38
-337.81
-347.39
-354.25
-355.46
-348.96
-334.07
-311.37
-282.4
-249.28
-214.43
-180.36
-149.27
-122.75
-101.65
-86.08
-75.51
-68.88
-64.58
-60.63
-55.2
-47.36
-37.58
-27.61
-19.6
-15.02
-13.92
-15.27
-17.82
-21.01
-25.18
-30.86
-37.82
-44.44
-48.06
-45.98
-36.74
-20.82
-0.59
20.55
39.3
53.38
62.11
66.21
67.29
67.07
66.69
66.55
66.52
66.44
66.35
66.55
67.27
68.38
69.43
69.88
69.25
67.02
62.35
53.9
40.33
21.29
-1.76
-25.37
-44.87
-55.93
-56.07
-45.47
-26.82
-4.21
18.14
37.12
51.37
61.24
68.41
75.04
83.05
93.45
106.2
120.4
134.86
148.56
160.91
171.72
180.88
188.1
192.61
193.19
188.36
176.79
157.87
132.18
101.5
68.62
36.62
8.24
-14.44
-30.08
-37.95
-37.97
-31.06
-19.42
-6.46
3.97
8.77
6.64
-1.5
-12.72
-22.99
-28.46
-26.51
-16.59
-0.51
18.07
34.85
46.28
50.73
48.95
43.32
36.67
31.04
27.36
25.88
26.81
30.66
37.92
48.35
60.48
71.71
79.06
80.18
74.15
61.65
44.48
24.55
3.15
-19.16
-42.02
-64.51
-84.85
-100.96
-111.55
-117.21
-120.49
-124.8
-132.56
-143.54
-154.53
-160.59
-157.27
-142.55
-117.52
-85.77
-51.74
-19.27
9.24
32.66
50.45
62.03
66.62
63.82
54.47
41.2
28.09
19.43
18.07
24.47
36.63
51.27
65.3
76.83
85.19
90.04
90.55
85.18
72.66
53.09
28.78
3.97
-16.58
-29.1
-31.91
-25.57
-12.24
5.06
23.03
38.33
47.8
48.72
39.52
20.28
-7.01
-38.77
-70.58
-98.25
-118.76
-130.78
-134.9
-133.15
-128.24
-122.6
-117.66
-113.5
-109.28
-103.75
-95.99
-85.81
-73.71
-60.75
-48.28
-37.73
-30.36
-27.02
-27.95
-32.65
-40.02
-48.49
-56.39
-62.14
-64.32
-61.85
-54.05
-40.86
-22.89
-1.43
21.71
44.4
64.44
79.9
89.63
93.66
93.44
91.61
91.07
93.97
100.86
110.77
121.89
132.66
142.42
151.26
159.25
165.71
169
167.07
158.45
142.93
121.74
97.17
72.01
49.07
31
20.01
17.28
22.23
31.92
41.44
45.12
38.36
19.12
-11.71
-50.93
-94.5
-138.72
-180.67
-217.82
-247.39
-266.18
-271.2
-260.84
-236.01
-200.38
-159.68
-120.17
-87.1
-63.71
-51.17
-49.12
-56.41
-71.6
-92.85
-117.53
-142.17
-162.75
-175.62
-178.63
-171.69
-156.75
-136.95
-115.48
-94.55
-74.94
-56.22
-37.22
-16.82
5.6
29.74
54.35
77.53
97.22
111.94
121.33
126.39
129.17
132.23
137.8
147.13
160.22
175.72
191.34
204.46
212.78
215.03
211.39
203.32
192.92
181.97
171.1
159.61
146.17
129.9
111.34
92.71
77.4
69.05
70.56
83.17
105.87
135.02
164.62
187.15
195.3
184.03
152.09
102.49
41.19
-24.89
-89.87
-149.92
-202.93
-247.39
-281.48
-302.99
-310.19
-303.07
-284.04
-257.6
-229.09
-202.94
-181.39
-164.24
-149.76
-136.04
-122.22
-108.79
-97.07
-88.12
-82.1
-78.26
-75.56
-73.4
-71.74
-70.71
-69.91
-67.99
-62.94
-52.87
-36.89
-15.59
9.05
34.33
57.6
76.93
91.56
102.01
109.89
117.34
126.16
136.98
148.87
159.46
165.79
165.28
156.59
139.85
116.51
88.97
60.02
32.66
9.83
-6.01
-13.43
-12.53
-5.12
5.64
15.96
22.26
22.11
14.73
1.15
-16.04
-33.4
-47.64
-56.29
-58.31
-53.91
-44.11
-30.1
-12.91
6.62
27.55
48.64
68.5
85.91
100.18
111.28
119.48
124.96
127.63
127.4
124.47
119.57
113.58
106.94
99.19
88.95
74.68
55.6
32.33
6.79
-18.55
-41.58
-61.19
-77.21
-89.99
-99.89
-107.03
-111.3
-112.55
-110.72
-105.91
-98.4
-88.86
-78.51
-69.06
-62.53
-60.55
-63.62
-70.52
-78.28
-82.95
-80.88
-70.13
-51.33
-27.58
-3.54
16.11
28.08
31.66
29.11
25.29
26.49
38.4
63.74
100.47
141.57
176.9
196.77
195.51
173.51
136.75
93.86
52.57
17.1
-12.18
-37.26
-60.16
-81.29
-99.25
-111.83
-117.34
-115.5
-107.33
-94.5
-78.45
-60.06
-39.74
-17.87
4.69
26.49
45.75
60.97
71.43
77.46
80.36
81.9
83.77
87.02
91.88
97.92
104.51
111.3
118.36
126.04
134.4
142.9
150.39
155.65
157.88
157.26
154.91
152.35
150.67
149.81
148.16
143.01
131.48
111.58
82.81
46.25
3.79
-42.41
-90.28
-137.43
-180.66
-215.76
-238.07
-243.66
-230.34
-198.1
-148.78
-85.74
-13.71
60.77
129.52
183.7
215.81
221.96
202.84
163.05
108.77
45.77
-21.24
-87.61
-147.18
-192.11
-214.9
-211.78
-185.58
-145.98
-106.53
-79.74
-72.63
-85.01
-110.9
-142.13
-172.09
-197.44
-217.65
-232.89
-242.08
-242.41
-230.43
-204.08
-164.42
-116.18
-66.59
-23.05
9.15
28.32
36.36
37.51
36.45
36.83
40.49
47.52
56.76
66.29
73.84
77.28
75.22
67.78
57.02
46.79
41.59
44.89
57.46
76.79
97.88
115.04
123.94
123.05
113.61
98.57
80.99
62.92
45.2
27.87
10.93
-5.43
-20.97
-35.77
-50.26
-64.76
-78.92
-91.35
-100.03
-103.25
-100.71
-93.85
-85.49
-78.75
-75.86
-77.67
-83.78
-93.23
-105.12
-118.76
-133.47
-148.14
-160.92
-169.41
-171.28
-165
-150.5
-129.37
-104.5
-79.34
-56.89
-38.84
-25.17
-14.3
-3.78
8.6
23.88
41.57
59.93
76.94
91.27
102.88
112.81
122.54
133.1
144.52
155.67
164.48
168.52
165.55
154.15
134.1
106.62
74.17
40.06
7.83
-19.46
-39.61
-51.61
-55.61
-52.86
-45.5
-36.15
-27.41
-21.17
-18.09
-17.51
-17.81
-17.23
-14.63
-9.9
-3.84
2.35
7.78
12.23
16.26
20.81
26.75
34.54
44.14
55.09
66.69
78
87.85
94.89
97.76
95.45
87.64
74.92
58.66
40.67
22.86
6.78
-6.5
-16.46
-23.07
-26.59
-27.43
-26.07
-23.09
-19.22
-15.49
-13.26
-14.01
-19.05
-29.04
-43.68
-61.64
-80.7
-98.28
-111.82
-119.28
-119.35
-111.65
-96.95
-76.95
-54.03
-30.64
-8.69
10.96
28.53
45.04
61.62
78.67
95.37
109.57
118.29
118.71
109.18
89.87
62.9
31.81
0.67
-26.74
-47.56
-60.08
-63.75
-59.04
-47.34
-30.79
-11.92
6.72
23.02
35.46
43.07
45.32
42.04
33.53
20.71
5.2
-10.87
-25.22
-35.83
-41.3
-41.01
-35.08
-24.25
-9.7
7.28
25.51
43.98
61.59
76.73
87.17
90.29
83.91
67.24
41.44
9.6
-24.12
-55.59
-81.71
-100.77
-112.29
-116.49
-113.94
-105.41
-92.11
-75.92
-59.44
-45.64
-37.29
-36.28
-43.19
-56.91
-74.78
-92.93
-106.73
-111.72
-104.76
-85.18
-55.57
-21.48
10.09
32.96
43.89
43.73
36.98
29.94
28.5
36.4
54.11
78.73
104.72
125.36
134.86
130.44
113.51
89.42
65.5
48.29
41.23
43.9
53.11
65.21
78.18
92.26
108.9
128.5
148.6
163.45
165.82
150.19
115.79
67.93
16.63
-27.11
-55.56
-66.8
-64.48
-54.98
-43.87
-33.53
-23.21
-10.8
4.91
23.03
41.04
56.28
67.38
74.62
79.23
82.09
82.82
79.96
71.73
57.28
37.49
14.73
-8.18
-29.32
-48.5
-67.09
-86.86
-108.61
-131.28
-152.11
-167.8
-175.84
-175.52
-167.94
-155.33
-140.21
-124.87
-111.2
-100.83
-95.02
-94.19
-97.32
-101.87
-104.41
-101.93
-93.4
-80.49
-67.3
-58.79
-58.7
-67.75
-83.17
-99.49
-110.48
-111.16
-99.25
-75.58
-43.63
-8.5
24.22
49.41
63.41
64.76
54.81
37.63
19.06
5.01
-0.25
4.65
18.13
36.58
55.76
71.93
82.5
86.15
82.9
74.27
63.22
53.56
48.83
50.72
58.25
67.93
75.11
75.85
68.41
53.69
34.64
14.98
-2.04
-14.51
-22.13
-25.78
-26.58
-24.93
-19.97
-9.88
6.85
29.74
55.42
78.2
92.39
94.78
86.07
70.26
52.41
36.26
23.03
12.03
2.13
-6.95
-14.52
-19.89
-23.39
-26.6
-31.44
-38.77
-47.47
-54.56
-56.5
-50.82
-37.44
-18.88
0.43
15.65
23.17
21.97
14.11
4.33
-1.06
4.22
24.67
61.3
110.68
165.11
214.35
248.55
261.2
250.9
220.93
177.1
124.97
68.37
9.8
-47.8
-99.53
-138.82
-159.61
-159.42
-141.18
-112.51
-82.65
-58.59
-42.35
-30.85
-18.26
0.45
26.66
57.25
86.05
106.69
115.36
112.07
99.96
83.27
65.27
47.12
28.35
8.18
-13.37
-35.31
-56.39
-75.92
-94.02
-110.88
-125.69
-136.22
-139.23
-131.97
-113.57
-85.92
-53.5
-22.26
1.84
14.13
12.36
-2.77
-27.84
-57.63
-86.66
-110.71
-127.68
-137.34
-140.48
-137.79
-129.54
-116.05
-98.66
-80.33
-65.19
-57.22
-58.51
-68.22
-82.73
-97.06
-106.72
-109.04
-103.55
-91.37
-74.21
-54.02
-33.08
-14.39
-1.62
1.99
-4.64
-19.23
-36.42
-49.61
-53.75
-47.49
-33.57
-17.36
-4.33
2.15
1.62
-4.02
-11.98
-19.73
-25.62
-28.73
-28.48
-24.47
-16.73
-5.95
6.53
19.03
30.2
39.59
47.8
56.13
65.86
77.54
90.7
104.34
117.53
130.09
142.64
155.96
170.23
184.46
196.59
204.14
205.13
198.68
185.15
165.86
142.66
117.76
93.79
73.84
60.88
56.8
61.28
71.42
82.47
89.35
88.33
77.88
58.35
30.88
-3.52
-44.01
-88.98
-135.01
-176.89
-208.95
-227.44
-232.21
-226.78
-216.41
-205.44
-195.28
-184.24
-169.13
-147.7
-120.41
-90.75
-63.71
-43.46
-31.15
-24.11
-16.65
-2.53
22.11
56.8
96.39
133.08
159.47
171.49
169.59
157.68
140.63
122.02
103.2
84.13
65.01
47.56
34.94
30.46
35.97
50.66
71.07
92.01
108.05
114.91
110.34
94.55
70.02
41.05
12.86
-9.68
-23.27
-27.14
-23.23
-15.58
-8.94
-7.18
-12.13
-23.12
-37.53
-51.75
-62.41
-67.1
-64.74
-55.5
-40.6
-22.1
-2.55
15.52
30.35
41.39
49.43
56.22
63.65
72.96
84.37
97.22
110.4
122.86
133.85
143.07
150.78
157.93
165.89
175.82
187.76
199.75
207.83
207.02
193.28
165.29
125.17
77.85
29.15
-16.19
-55.68
-89
-117.06
-140.9
-161.05
-177.59
-190.57
-200.37
-207.72
-213.45
-218.04
-221.39
-222.86
-221.55
-216.85
-208.8
-198.11
-185.94
-173.23
-160.4
-147.5
-134.51
-121.7
-109.35
-97.26
-84.37
-69.4
-52.18
-35.17
-23.63
-23.92
-40.44
-72.82
-115.18
-157.85
-191.07
-208.41
-208.22
-192.73
-165.57
-129.79
-87.24
-39.73
9.63
55.88
93.41
118.12
129.4
130.55
127.37
125.69
129.11
138.11
150.76
164.42
177.14
188.24
197.4
203.57
204.39
196.74
178.25
148.61
110.21
67.27
24.47
-14.47
-47.19
-72.35
-88.81
-95.22
-90.53
-75.05
-51.36
-24.42
-0.51
14.57
17.32
7.5
-11.9
-35.73
-58.32
-74.95
-82.77
-80.93
-70.03
-51.48
-27.11
0.91
29.71
55.81
75.66
86.65
88.19
82.04
71.84
61.6
54.24
50.68
49.92
49.94
48.9
45.88
41.05
35.15
28.84
22.23
15.09
7.39
-0.15
-6.02
-8.35
-5.75
1.94
13.55
26.93
39.58
49.33
54.6
54.31
47.76
34.88
16.83
-3.23
-19.86
-26.13
-15.72
14.58
62.65
120.77
177.34
220.36
241.05
236.25
208.31
162.99
106.57
43.77
-22.52
-90.18
-156.35
-216.74
-266.29
-300.6
-317.4
-317.21
-303.14
-279.86
-252.57
-225.99
-203.83
-188.47
-180.88
-180.78
-186.78
-196.63
-207.47
-216.09
-219.24
-214.28
-200.02
-177.2
-148.53
-117.78
-88.44
-62.37
-39.35
-17.6
4.94
29.17
54.24
77.91
97.79
112.57
122.72
130.23
137.76
147.61
160.86
177.1
194.35
209.5
218.95
219.52
209.49
189.33
162.13
133.16
108.71
94.42
93.66
106.41
129.04
155.16
177.22
188.83
186.67
171.64
148.53
124.21
105.14
95.04
93.77
97.81
102.07
102.08
95.79
84.11
70.18
57.87
50.2
48.35
51.38
56.86
61.8
63.7
61.12
53.94
43.03
29.66
14.84
-1.08
-18.39
-37.55
-58.5
-80.29
-101.38
-120.63
-138.36
-156.93
-180.02
-210.95
-250.53
-295.67
-339.59
-373.7
-390.48
-386.11
-361.7
-322.52
-276.09
-229.74
-188.9
-156.37
-132.59
-116.43
-105.83
-98.36
-91.4
-82.45
-69.52
-51.56
-28.86
-3.04
23.29
47.29
66.68
80.42
88.93
93.87
97.46
101.76
107.94
116.07
125.22
133.88
140.36
143.22
141.5
135.15
125.23
113.93
104.2
98.77
99.08
104.67
113.51
123.04
131.53
138.77
145.87
154.17
164.04
174.31
182.65
186.43
183.67
173.43
155.77
131.39
101.47
67.76
32.46
-1.85
-32.77
-58.67
-79.07
-94.71
-107.21
-118.5
-130.27
-143.47
-157.9
-171.97
-182.84
-186.98
-181.17
-163.79
-135.89
-101.39
-66.41
-37.62
-20.26
-16.65
-25.72
-43.74
-65.91
-87.98
-107.34
-122.94
-134.62
-142.23
-145.27
-143.08
-135.57
-123.7
-109.4
-94.92
-81.89
-70.72
-60.5
-49.61
-36.41
-19.96
-0.26
21.89
45.27
68.63
90.95
111.3
128.72
142.02
149.83
151.02
145.39
134.07
119.53
105.01
93.35
86.14
83.3
83.43
84.75
85.96
86.62
87.03
87.65
88.66
89.89
90.78
90.74
89.16
85.42
78.98
69.48
57.1
42.79
28.31
15.83
7.31
3.88
5.47
10.97
18.68
26.97
34.82
42.07
49.19
56.91
65.61
74.97
83.96
91.3
96.08
98.38
99.42
101.21
105.68
113.75
124.46
134.91
140.79
137.69
122.37
93.58
52.46
2.2
-52.51
-106.32
-154.13
-192.12
-218.36
-232.99
-237.75
-235.08
-227.17
-215.37
-200.07
-180.99
-157.75
-130.32
-99.44
-66.69
-34.37
-5.05
18.99
36.3
46.32
49.17
45.28
35.36
21.05
5.62
-6.25
-9.92
-3.1
12.41
30.9
45.07
49.43
42.73
28.3
11.95
-0.84
-6.96
-6.15
0.07
9.78
21.35
33.31
43.99
51.46
54.15
51.63
44.97
36.39
28.31
22.25
18.33
15.38
11.68
5.99
-1.96
-11.47
-21.44
-31.05
-40.13
-49.04
-58.05
-66.9
-74.65
-80.18
-82.86
-83.03
-81.88
-80.84
-80.82
-81.84
-83.18
-83.94
-83.61
-82.34
-80.74
-79.48
-79.01
-79.33
-80.24
-81.64
-83.66
-86.56
-90.29
-94.08
-96.36
-95.27
-89.45
-78.7
-64.21
-47.97
-31.81
-16.65
-2.27
12.13
27.2
42.98
59.08
75.23
91.54
108.38
125.72
142.82
158.45
171.68
182.49
191.43
198.57
202.44
199.94
187.88
165.03
133.66
99.16
67.94
44.77
31
24.53
21.44
17.82
11.26
1.11
-11.94
-26.44
-40.65
-52.63
-60.51
-62.83
-59.11
-50.19
-38.22
-26.17
-17.03
-12.92
-14.45
-20.53
-28.84
-36.62
-41.63
-42.72
-39.96
-34.23
-26.72
-18.4
-9.94
-1.74
5.84
12.4
17.58
21.09
22.8
22.59
20.24
15.47
8.21
-1.08
-11.06
-19.59
-24.38
-23.77
-17.66
-7.69
3.16
11.58
15.09
12.61
4.53
-7.77
-22.54
-38.11
-52.92
-65.34
-73.66
-76.41
-73.05
-64.6
-53.78
-44.27
-39.52
-41.49
-49.98
-63.11
-78.23
-92.96
-105.77
-115.77
-122.01
-123.2
-117.9
-105.24
-85.76
-61.7
-36.55
-13.9
3.6
14.97
20.81
22.69
22.38
21.26
20.09
19.09
18.18
17.14
15.77
13.92
11.51
8.52
5.11
1.58
-1.58
-3.91
-5.03
-4.85
-3.54
-1.41
1.18
4
6.94
10.02
13.29
16.86
20.87
25.49
30.67
35.96
40.47
42.95
42.32
38.16
30.98
22.24
13.9
7.71
4.75
5.17
8.47
13.7
19.7
24.92
27.25
24.19
13.53
-5.66
-32.08
-62.08
-90.5
-112.13
-123.31
-122.82
-111.86
-93.11
-69.75
-44.47
-19.26
4.54
25.98
44.47
59.85
72.6
83.91
95.33
108.26
123.24
139.43
154.58
165.52
168.95
162.55
145.73
120.02
88.93
57.11
29.34
9.17
-2.07
-5.59
-4.41
-1.9
-0.27
0.35
1.61
5.83
14.45
27.15
41.76
55.1
64.12
66.67
61.95
50.34
33.18
12.49
-9.12
-28.78
-43.66
-51.56
-51.39
-43.33
-28.84
-10.29
9.71
28.71
44.77
56.49
63.01
63.94
59.36
49.72
35.6
17.5
-4.36
-29.72
-57.84
-86.78
-113.33
-133.44
-143.38
-141.08
-126.93
-103.68
-75.56
-47
-21.57
-1.47
12.47
20.48
23.35
22.09
17.5
9.89
-1.02
-15.91
-35.21
-58.24
-82.48
-103.55
-116.16
-115.88
-100.88
-73.02
-37.59
-1.69
27.91
46.61
52.8
47.52
33.42
13.8
-8.05
-28.92
-45.78
-56.04
-58.09
-51.85
-38.95
-22.27
-5.11
9.77
20.8
27.77
31.6
33.85
36.22
40.05
46.03
53.97
62.8
70.7
75.31
74.18
65.2
47.26
20.71
-12.38
-48.46
-83.24
-112.71
-134.07
-146.26
-149.76
-146.02
-136.8
-123.91
-108.99
-93.47
-78.4
-64.04
-49.77
-34.15
-15.5
7.47
35.23
67.27
102.22
137.99
171.95
201.32
223.88
238.69
246.48
249.42
249.98
249.92
249.69
248.7
246.35
242.97
240.04
239.64
243.42
251.83
264.03
278.51
293.73
308.36
321.04
329.86
332.3
325.86
309.02
282.23
248
209.93
171.33
133.92
97.67
61.75
26.08
-7.79
-36.84
-58.14
-70.65
-76.11
-78.46
-81.97
-89.29
-100.48
-113.38
-125.15
-133.9
-139.54
-143.53
-147.81
-153.74
-161.52
-170.37
-179.23
-187.33
-194.43
-200.53
-205.47
-208.58
-208.79
-205.19
-197.57
-186.86
-174.96
-164.2
-156.54
-153.03
-153.64
-157.52
-163.41
-170.09
-176.69
-182.65
-187.48
-190.41
-190.28
-185.66
-175.44
-159.45
-138.89
-116.06
-93.59
-73.3
-55.53
-39.21
-22.97
-6.46
8.92
20.39
25.18
22.11
11.97
-3.15
-21.23
-41.49
-64.34
-90.3
-118.69
-146.96
-171.13
-187.16
-192.29
-185.54
-167.6
-140.06
-104.79
-63.82
-19.59
25.03
66.93
103.3
132.12
152.34
163.83
167.01
162.59
151.32
134.07
112.02
86.91
60.97
36.73
16.43
1.41
-8.46
-14.92
-20.84
-29.38
-42.56
-60.22
-79.39
-94.84
-100.74
-92.76
-70
-35.69
3.62
40.27
67.91
83.12
85.74
77.9
62.92
44.44
26.12
11.35
2.73
1.15
5.16
11.28
15.34
14.23
7.13
-4.47
-18.06
-31.58
-44.29
-56.56
-68.9
-81.11
-92.2
-100.92
-106.55
-109.1
-108.99
-106.48
-101.37
-93.42
-83.01
-71.75
-62.31
-57.39
-58.34
-64.29
-72.16
-77.69
-76.9
-67.24
-48.15
-20.89
11.81
46.22
78.13
103.52
119.52
125.25
122.08
113.09
101.89
91.31
82.8
76.57
72.3
69.88
69.59
71.71
76.12
82.06
88.34
93.69
97.15
97.95
95.29
88.22
75.92
58.23
36.23
12.3
-10.39
-28.85
-41.23
-47.18
-47.68
-44.3
-38.59
-31.69
-24.41
-17.61
-12.42
-10.22
-12.27
-19.19
-30.66
-45.24
-60.62
-74.21
-83.81
-88.32
-88.24
-85.69
-84.02
-86.91
-97.14
-115.43
-139.81
-165.64
-186.71
-197.02
-192.7
-173.4
-142.47
-105.85
-70.07
-40.15
-18.27
-3.59
6.67
15.83
26.3
38.95
53.18
67.63
80.88
92.09
101.01
107.82
112.8
116.12
117.85
118.21
117.71
117.25
117.78
119.91
123.49
127.56
130.6
131.09
127.96
120.98
110.76
98.71
86.82
77.43
72.88
75.01
84.53
100.63
121.13
142.99
163.36
180.3
193.08
201.9
207.14
208.85
206.6
199.84
188.36
172.55
153.27
131.58
108.66
85.72
64.13
45.28
30.05
18.25
8.39
-1.89
-14.67
-30.65
-48.65
-66.25
-81.21
-92.85
-102.64
-113.37
-127.49
-145.42
-164.66
-180.38
-186.96
-180.03
-158.04
-122.72
-78.44
-30.86
14.42
52.81
80.9
96.32
97.63
84.67
59.15
25.09
-11.55
-44.35
-68.4
-82.05
-87.4
-89.38
-93.53
-103.83
-121.13
-143.23
-165.97
-185
-197.33
-202.07
-200.39
-194.79
-188.05
-182.46
-179.29
-178.74
-180.01
-181.67
-182.01
-179.43
-172.75
-161.48
-145.85
-126.73
-105.31
-82.8
-60.16
-38.02
-16.61
4.14
24.59
45.33
66.87
89.36
112.3
134.4
153.98
169.57
180.73
188.38
194.66
202.12
212.74
226.95
243.41
259.51
272.39
279.93
281.35
277.21
268.98
258.57
247.9
238.79
232.55
229.4
228.05
225.66
218.76
204.82
183.84
158.84
134.98
117.4
108.92
108.66
112.54
115.08
111.74
100.47
81.88
58.3
32.48
6.65
-17.79
-40.06
-59.7
-76.38
-89.79
-99.54
-105.08
-105.82
-101.4
-92.17
-79.55
-65.96
-54.19
-46.76
-45.51
-51.68
-66.3
-90.22
-123.54
-164.54
-208.95
-250.26
-281.42
-296.93
-294.83
-277.06
-248.33
-214.04
-178.33
-143.19
-109.02
-75.86
-44.6
-17.39
3.02
14.35
15.95
9.34
-2.12
-14.16
-22.88
-25.94
-23.1
-16.17
-7.94
-0.97
3.59
6.18
8.25
11
14.44
17.32
18.24
17.16
16.17
18.94
28.97
47.62
73.04
100.54
124.19
138.89
141.75
132.46
112.98
86.8
58.51
33.21
15.84
10.02
16.81
33.89
56.01
76.64
90.3
94.47
90.21
81.29
72.33
66.87
66.07
68.84
72.88
76.11
77.52
77.24
75.9
73.91
71.08
66.73
60.02
50.19
36.53
18.37
-4.59
-31.82
-61.36
-89.7
-112.59
-126.51
-130.41
-126.33
-118.6
-111.72
-108.06
-106.88
-105.27
-100.44
-91.99
-82.82
-78.05
-82.51
-97.94
-121.66
-147.08
-166.29
-173.06
-165.25
-145.27
-118.75
-92.15
-70.6
-56.85
-51.22
-52.37
-57.73
-63.73
-65.75
-58.63
-37.92
-1.79
47.31
102.35
153.28
189.9
204.85
195.58
164.66
118.54
65.63
14.12
-29.63
-62.14
-82.83
-93.1
-94.71
-88.64
-74.8
-52.84
-23.48
10.53
44.45
72.65
90.23
94.45
85.43
66.11
41.84
19.56
6.5
8.3
27.03
59.79
99.1
135.18
159.51
167.94
161.82
146.72
129.57
115.49
106.21
100.07
93.73
83.99
69.15
49.18
25.03
-2.15
-31.69
-63.24
-96.24
-129.23
-159.58
-183.83
-198.58
-201.63
-192.66
-173.5
-147.47
-118.53
-90.16
-64.65
-42.84
-24.53
-9.22
3.36
12.92
19.04
21.7
21.71
20.55
19.69
19.8
20.56
21.14
21.05
20.77
21.58
24.52
29.52
34.96
38.4
37.87
32.92
24.99
16.87
11.69
11.71
17.55
27.67
38.75
46.48
47.15
39.2
24.06
5.64
-11.67
-25.36
-36.2
-47.64
-63.78
-86.64
-114.51
-142
-161.73
-166.47
-150.86
-112.59
-53.23
21.36
101.31
174.11
227.37
252.18
245.75
212.15
160.77
103.01
48.88
4.77
-27.05
-47.63
-59.77
-66.86
-71.9
-77.2
-84.2
-93.3
-103.82
-114
-121.29
-122.71
-115.81
-99.7
-75.71
-47.57
-20.58
-0.42
8.48
4.07
-12.76
-38.32
-67.02
-92.96
-111.8
-122.19
-126.29
-128.84
-134.89
-147.37
-165.32
-183.96
-196.4
-196.25
-179.62
-145.78
-96.7
-36.37
29.44
93.1
145.74
179.15
188.65
175.63
147.91
117.11
94.14
84.92
88.7
99.62
110.64
117.37
119.74
120.9
124.46
131.96
142.1
151.7
157.55
157.74
152.06
141.21
125.88
106.2
82.3
55.26
27.69
3.35
-14.39
-24.19
-27.7
-29.01
-32.89
-42.66
-58.74
-78.72
-98.55
-114.23
-123.17
-124.74
-119.92
-110.59
-98.78
-86.25
-74.29
-63.59
-54.36
-46.43
-39.65
-34.14
-30.39
-28.94
-29.82
-32.29
-34.84
-35.8
-34.26
-30.64
-26.76
-25.31
-28.85
-38.88
-55.16
-75.55
-96.22
-112.32
-118.95
-112.32
-90.99
-56.76
-14.72
27.69
62.71
84.63
91.64
86.26
74.2
61.79
53.42
49.79
48.01
43.61
33.26
17.02
-1.4
-16.41
-23.57
-21.93
-14.53
-6.45
-1.83
-1.54
-2.95
-2.04
3.48
12.18
19.32
19.45
9.78
-7.76
-27.08
-40.67
-43.06
-33.23
-14.83
5.66
21.67
28.84
26.15
15.38
-0.04
-16.45
-30.73
-40.59
-44.44
-41.45
-31.71
-16.63
0.95
17.25
28.43
31.88
27.02
15.46
0.35
-14.62
-26.35
-33.07
-34.49
-31.59
-26.18
-20.35
-16.11
-15.13
-18.41
-25.89
-36.21
-46.63
-53.64
-53.91
-45.44
-28.26
-4.45
22.43
48.34
69.74
84.35
91.46
92.1
88.57
83.5
78.48
72.9
63.61
46.1
17.01
-23.42
-70.11
-114.4
-147.26
-162.67
-159.67
-141.88
-115.09
-84.43
-52.87
-21.74
7.79
33.37
51.66
59.96
58.01
48.5
35.9
24.13
14.71
6.49
-3.06
-15.79
-31.64
-48.65
-64.01
-75.41
-81.79
-83.15
-80.01
-73.02
-62.82
-50.26
-36.54
-22.94
-10.58
-0.33
7.21
11.47
12.05
9.05
3.42
-3.14
-8.68
-11.75
-11.95
-9.85
-6.43
-2.44
2.21
8.28
16.84
28.45
42.68
57.98
72
82.26
86.78
84.7
76.37
63.19
47.21
30.6
15.37
3.33
-4.22
-6.82
-5.13
-0.95
3.48
6.51
7.84
8.46
10
13.38
18.19
22.81
25.36
24.9
21.88
17.79
14.1
11.34
8.64
4.26
-3.35
-14.52
-27.9
-40.69
-49.6
-52.15
-47.5
-36.8
-22.64
-8.09
4.38
13.64
19.8
23.66
25.63
25.17
20.71
10.62
-5.7
-26.69
-48.68
-66.88
-77.11
-77.54
-69.22
-55.62
-41.08
-29.21
-21.69
-17.84
-14.93
-9.04
3.76
26.03
57.53
94.54
130.33
157
168.26
161.79
140.09
109.28
76.44
46.88
22.66
2.88
-14.73
-32.13
-50.04
-68.19
-86.14
-104.07
-122.7
-142.55
-162.98
-181.87
-196.27
-203.64
-203.13
-196.13
-185.71
-175.24
-166.87
-160.63
-154.62
-146.05
-132.63
-113.58
-89.8
-63.38
-36.58
-11.15
12.02
32.73
51.21
67.7
82.46
95.64
107.45
118.17
128.19
137.94
147.8
157.96
168.3
178.42
187.66
195.35
200.99
204.32
205.34
204.17
200.91
195.55
187.95
177.92
165.41
150.6
133.91
115.99
97.65
79.87
63.73
50.34
40.54
34.65
32.28
32.41
33.86
35.85
38.4
42.24
48.13
55.82
63.44
67.63
64.79
52.85
32.73
8.66
-12.97
-25.92
-26.47
-14.85
4.91
26.64
44.24
53.65
53.55
44.96
30.03
10.99
-10.43
-32.94
-55.34
-76.32
-94.51
-108.67
-117.89
-121.61
-119.45
-111.17
-96.84
-77.12
-53.47
-28.08
-3.34
18.68
36.67
50.33
60.16
67.32
73.46
80.47
90.07
103.28
119.93
138.46
156.35
171
180.77
185.66
187.15
187.3
187.76
188.97
190.15
189.77
186.1
177.6
163.09
141.74
113.23
77.99
37.27
-7.03
-52.7
-97.67
-139.99
-177.59
-208.09
-228.89
-237.9
-234.46
-219.9
-197.28
-170.46
-143.17
-118.31
-98.07
-84.14
-77.87
-79.88
-89.48
-104.43
-121.2
-135.89
-145.34
-147.77
-142.92
-131.62
-115.17
-94.94
-72.3
-48.81
-26.31
-6.96
7.1
14.25
14.04
7.53
-2.82
-13.99
-23.52
-30.41
-35.19
-39.3
-43.9
-48.91
-52.68
-52.53
-45.89
-31.62
-10.95
12.46
33.22
45.79
46.28
34.09
12.61
-11.2
-28.8
-32.84
-19.53
10.23
51.75
98.35
143.3
180.92
206.71
217.26
210.66
187.3
150.53
106.27
61.08
19.79
-16.03
-47.61
-76.79
-103.43
-124.31
-134.33
-129.26
-108.24
-74.69
-34.9
4.45
38.52
65.35
85.46
100.66
112.86
123.22
131.94
138.37
141.45
140.3
134.68
124.97
111.62
94.38
71.92
42.24
4.08
-41.63
-91.01
-137.89
-175.65
-199.51
-208.01
-203.12
-189.15
-171.12
-153.45
-139.24
-130.09
-126.09
-126.1
-128.09
-129.84
-129.64
-126.8
-121.66
-115.08
-107.88
-100.21
-91.41
-80.15
-64.88
-44.38
-18.11
13.41
48.5
84.35
117.36
143.74
160.53
166.63
163.83
156.88
152.5
157.04
173.88
201.61
234.19
263.35
282
287.05
279.96
265.02
246.56
226.76
205.22
180.43
151.78
120.9
91.49
67.94
53.75
50.32
56.66
69.62
84.54
96.14
99.59
91.73
72.06
43
9.17
-24.12
-52.65
-74.32
-89.25
-98.89
-105.04
-109.09
-111.97
-114.59
-117.97
-123.26
-131.25
-142.11
-155.53
-171.02
-188.33
-207.37
-227.81
-248.63
-268.18
-284.77
-297.3
-305.7
-310.46
-311.65
-308
-296.84
-274.83
-239.5
-190.66
-130.9
-65.12
0.88
61.82
113.8
154.45
182.56
197.59
199.56
189.28
168.56
140.19
107.37
72.9
38.56
5.15
-26.93
-56.89
-83.03
-103.16
-115.41
-119.17
-115.42
-106.17
-93.53
-78.86
-62.6
-44.59
-24.84
-4.02
16.63
35.91
53.42
70.16
88.59
111.97
142.98
181.97
225.61
266.97
297.41
309.67
300.99
274.49
238.14
201.64
172.63
154.03
143.75
136.36
125.96
108.65
83.86
54.15
23.78
-3.33
-25.38
-43.64
-61.78
-83.86
-111.87
-144.27
-176.38
-202.65
-219.49
-226.85
-227.79
-226.36
-225.17
-224.2
-221.64
-215.84
-206.96
-197.18
-189.29
-184.69
-182.16
-178.16
-168.36
-149.31
-119.42
-79.08
-30.48
22.46
74.08
117.27
144.82
151.4
135.47
100.13
52.22
0.28
-47.66
-85.22
-107.74
-111.73
-94.85
-57.05
-2.06
61.8
122.6
167.58
186.72
175.56
136.35
77.23
9.49
-55.54
-109.15
-146.66
-167.43
-173.52
-168.1
-153.69
-131.36
-101.04
-62.84
-18.78
26.28
65.43
92.14
103.15
100.19
89.37
78.44
73.48
76.67
86.27
98.71
111.13
122.67
133.98
145.25
154.42
156.95
147.37
121.91
80.61
27.93
-28.65
-81.06
-123.22
-152.4
-169.11
-175.68
-174.49
-167.09
-154.24
-136.85
-116.48
-95.14
-74.18
-53.53
-31.97
-8.68
15.07
35.39
47.05
45.9
30.94
4.71
-28.24
-63.55
-98.47
-131.51
-160.86
-183.15
-193.6
-187.88
-164.46
-126.09
-79.42
-33.12
4.73
28.7
37.12
31.99
18.23
2.26
-9.54
-12.42
-4.37
13.29
36.56
60.15
79.32
91.55
97.28
99.57
102.97
111.87
128.98
154.2
184.09
212.34
231.19
233.77
216.79
181.95
135.75
87.09
43.94
10.49
-13.67
-32.24
-49.68
-68.81
-89.71
-109.99
-125.94
-133.93
-131.65
-119.04
-98.73
-75.73
-56.12
-44.92
-44.25
-52.58
-65.73
-79.12
-89.91
-97.92
-104.87
-112.51
-121.13
-129.3
-134.97
-137.23
-137.28
-138.24
-143.44
-154.31
-169.06
-182.91
-190.07
-186.46
-171.77
-149.83
-126.95
-109.14
-99.48
-97
-97.66
-96.56
-90.41
-78.84
-64
-48.99
-35.96
-25.02
-14.35
-1.44
15.75
37.85
64.25
93.54
123.8
152.61
176.96
193.77
201.27
200.54
196.12
194.82
203.02
223.68
254.74
290.17
322.97
348.72
367.14
381.15
393.77
405.09
411.19
405.82
383.87
344.53
292.53
236.71
186.66
149.25
126.68
116.67
114.43
115.05
115.19
113.29
108.84
101.37
90.12
74.41
54.4
31.51
8.12
-13.26
-30.63
-42.85
-49.69
-51.91
-51.4
-51.15
-54.46
-63.79
-79.54
-99.88
-121.98
-143.87
-165.56
-188.76
-215.07
-243.85
-271.07
-290.23
-294.77
-280.73
-248.2
-201.07
-145.72
-89.03
-36.93
6.41
38.6
58.57
66.32
63.01
51.41
36.08
22.69
16.09
18.32
27.37
38
44.4
43.2
34.66
21.79
7.56
-7.66
-26.73
-53.91
-91.71
-138.56
-188.52
-233.36
-265.35
-279.56
-274.63
-251.88
-213.69
-162.28
-99.54
-28.27
46.31
115.95
170.69
201.89
205.69
184.9
148.21
106.77
70.08
43.2
26.36
16.85
11.57
8.65
7.61
8.29
10.19
12.28
13.72
14.26
14.2
13.83
13.23
12.42
11.79
12.11
14.13
17.89
22.46
26.32
28.2
27.76
25.46
21.77
16.56
8.84
-2.39
-17.13
-33.69
-49.09
-60.42
-66.3
-67.61
-67.05
-67.69
-71.48
-78.35
-86.37
-92.7
-95.04
-92.68
-86.74
-79.37
-72.55
-66.92
-61.47
-54.19
-43.23
-28.19
-10.51
6.74
19.84
25.68
22.88
12.78
-0.28
-9.47
-7.24
11.94
48.82
97.85
148.31
187.79
206.74
201.94
177.01
139.97
99.45
61.47
28.44
0.3
-23.41
-42.19
-54.61
-59.42
-56.84
-48.83
-38.42
-28.34
-19.83
-12.38
-4.31
6.01
18.76
32.09
42.56
46.65
42.45
30.85
15.28
0.43
-9.8
-13.68
-11.97
-6.96
-1.14
3.89
7.81
11.09
14.57
19.02
24.93
32.45
41.13
49.61
55.79
57.36
52.74
41.9
26.56
9.45
-6.75
-20.39
-31.05
-39.11
-45.08
-49.38
-52.49
-55.47
-60.09
-68.4
-81.67
-99.23
-118.09
-133.41
-140.02
-134.41
-116.24
-88.71
-57.63
-29.69
-10.5
-3.26
-8.06
-22.01
-39.82
-54.79
-59.97
-49.5
-20.02
28.01
89.89
157.44
220.89
271.41
303.34
315.37
310.39
294.27
273.97
255.71
243.64
239
240.48
245.07
249.18
249.48
243.36
228.75
203.96
168.12
122.22
70.29
19.64
-20.82
-43.55
-45.62
-29.98
-4.26
22.6
43.87
56.83
62.06
61.11
54.29
40.02
16.01
-18.68
-62.23
-109.97
-155.91
-194.66
-222.96
-240.16
-247.9
-248.91
-245.88
-240.69
-234.39
-227.36
-219.51
-210.01
-196.99
-178.04
-151.57
-118.67
-84.08
-55.16
-38.92
-38.62
-51.8
-71.35
-88.87
-98.63
-99.64
-94.87
-88.46
-82.91
-77.97
-71.72
-62.52
-50.56
-37.86
-27.04
-19.92
-16.71
-16.21
-16.68
-16.81
-16.26
-15.56
-15.58
-16.87
-19.22
-21.7
-23.07
-22.46
-19.8
-15.8
-11.62
-8.14
-5.6
-3.56
-1.32
1.56
4.95
8.29
10.97
12.78
14.07
15.71
18.78
24.38
33.3
45.46
59.29
71.37
76.94
71.37
52.13
20.27
-19.41
-59.73
-93.52
-115.77
-124.72
-121.52
-109.08
-90.71
-69.39
-47.47
-26.71
-8.45
6.41
17.37
24.24
27.08
26.27
22.6
17.35
12.04
7.96
5.72
4.86
4.14
1.98
-2.83
-10.66
-20.96
-32.49
-43.68
-52.77
-57.88
-57.04
-48.61
-32.25
-9.75
14.74
35.74
48.51
51.12
45.34
35.73
27.52
24.26
26.72
33.2
41.1
48.39
54.23
58.56
61.45
62.61
61.57
58.35
53.68
48.94
45.52
44.31
45.45
48.51
52.78
57.6
62.41
66.88
70.97
75.06
79.91
86.4
95.05
105.6
116.89
127.24
135.06
139.35
139.66
135.52
125.88
109.03
83.59
49.95
11.6
-25.03
-52.22
-63.75
-57.27
-35.16
-3.27
31.55
63.66
89.45
106.71
113.84
109.85
95.57
75.11
55.93
46.64
53.12
75.25
106.08
134.29
148.86
143.42
118.18
78.8
33.2
-11.77
-51.91
-85.6
-112.46
-132.33
-144.92
-150.48
-150.39
-147.47
-145.36
-147.39
-155.35
-168.76
-184.87
-199.46
-208.2
-207.98
-197.79
-178.79
-153.73
-125.78
-97.34
-69.35
-41.46
-13.03
15.58
42.4
64.15
77.89
82.84
81.39
78.52
79.61
87.83
102.22
117.78
127.46
125.17
108.43
79.46
44.26
10.16
-16.81
-33.97
-42.45
-46.17
-50.03
-57.9
-71.47
-89.87
-110.15
-128.12
-139.26
-139.63
-126.81
-100.98
-65.58
-27.02
6.89
29.47
37.49
32.2
18.56
2.76
-10.52
-19.79
-26.84
-35.09
-47.42
-64.68
-85.33
-106.32
-124.44
-137.45
-144.49
-145.95
-142.91
-136.77
-128.95
-120.76
-113.38
-107.64
-103.77
-100.99
-97.3
-89.99
-76.8
-57.28
-33.72
-10.78
6.15
13.31
10.67
2.4
-4.53
-3.34
9.5
32.48
59.31
81.27
90.39
82.27
57.15
19.22
-25.07
-69.05
-107.06
-134.76
-148.9
-147.64
-131.6
-105.05
-75.82
-53.37
-45.48
-55.18
-79.56
-111.13
-141.03
-162.22
-171.27
-168.06
-154.17
-131.47
-101.42
-65.45
-25.45
15.99
56.19
93.32
127.04
158.71
190.73
225.65
264.89
307.78
351.3
390.53
419.97
434.88
432.52
412.7
377.76
332.18
281.75
232.81
191.15
161.01
144.11
139.46
143.72
152.22
160.18
163.63
159.91
147.84
127.69
101
70.42
39.41
11.85
-8.54
-19.16
-19.48
-11.96
-2.05
2.61
-5.86
-33.46
-82.27
-149.17
-226.11
-301.5
-362.76
-399.24
-404.98
-380.35
-331.77
-269.6
-204.93
-146.61
-99.62
-65.48
-43.7
-33.3
-33.28
-42.1
-56.92
-73.54
-87.36
-94.74
-94.23
-86.6
-74.08
-59.1
-43.41
-27.81
-12.54
2.22
16.24
29.04
39.87
48.13
53.37
55.68
55.73
54.67
53.73
53.68
54.39
55.06
54.99
54.49
55.41
60.39
71.33
87.89
106.91
123.37
132.46
131.62
121.33
104.59
85.27
66.55
50.2
36.87
26.63
19.51
15.39
13.63
12.99
11.94
9.35
4.84
-1.2
-8.14
-15.56
-23.59
-32.75
-43.41
-55.4
-67.78
-79.17
-88.29
-94.51
-98.18
-100.53
-103.12
-107.1
-112.63
-118.57
-122.76
-122.76
-116.76
-104.33
-86.61
-65.83
-44.46
-24.27
-5.88
11.22
28.15
46.05
65.75
87.39
110.3
132.86
152.59
166.86
173.97
174.33
170.98
168.77
172.39
183.77
200.45
215.99
222.6
214.77
192.01
159.17
124.18
94.37
73.63
61.66
55.44
51.71
48.77
46.76
46.41
47.7
49.35
49.72
48.16
45.95
45.77
50.03
58.96
69.96
78.52
80.54
74.54
62.36
48.04
35.42
25.97
18.01
7.94
-7.57
-29.43
-55.52
-81.71
-103.85
-119.43
-128.24
-131.7
-131.61
-129.07
-124.27
-116.89
-106.95
-95.36
-84.07
-75.36
-70.91
-70.85
-73.67
-76.77
-77.48
-74.14
-66.69
-56.44
-45.51
-36.13
-30.09
-28.4
-31.09
-37.15
-44.76
-51.86
-56.87
-59.44
-60.53
-62.18
-66.83
-76.41
-91.46
-110.57
-130.1
-144.93
-149.76
-141.07
-118.64
-85.82
-48.22
-11.38
21.26
49.07
73.11
94.29
112.3
125.8
133.92
137.71
140.26
145.4
155.55
170.32
186.64
200.45
208.76
210.75
207.31
199.41
186.67
167.12
138.42
99.86
53.84
5.89
-37.02
-69.25
-88.99
-99.02
-105.26
-113.73
-127.28
-143.98
-158
-162.62
-153.69
-131.69
-101.2
-68.17
-36.74
-7.51
21.66
52.91
85.63
115.61
136.68
143.81
135.91
116.56
92.33
69.82
52.91
41.7
33.39
24.53
13.16
0.15
-11.4
-17.75
-16.57
-8.18
4.55
17.52
26.95
30.59
27.78
18.63
3.23
-18.49
-46.14
-77.95
-110.71
-140.95
-166.65
-188.2
-207.84
-227.36
-245.63
-257.64
-256.01
-234.38
-191.03
-130.57
-62.78
0.86
50.97
82.93
97.1
97.28
88.63
76.11
63.91
55.38
52.9
57.34
67.22
78.43
85.18
82.21
67.3
42.98
16.08
-4.72
-12.4
-4.56
15.51
40.06
60
68.54
63.91
50.31
36.73
33.98
50.63
89.47
145.74
208.14
262.48
296.66
304.59
287.44
251.9
206.44
157.8
109.25
61.07
12.11
-38.56
-90.8
-142.97
-191.84
-232.65
-259.68
-267.57
-253.08
-216.65
-162.52
-97.27
-27.84
40.24
103.29
159.03
205.74
241.93
266.72
280.28
284.06
280.25
270.8
256.8
238.32
214.95
186.48
153.54
117.87
81.84
47.71
16.61
-12.04
-40.34
-70.92
-105.25
-142.24
-178.07
-207.21
-224.58
-227.53
-216.94
-196.99
-173.72
-153.03
-139.09
-133.53
-135.64
-143.28
-153.94
-165.5
-176.69
-186.91
-195.91
-203.46
-209.29
-213.46
-216.67
-220.31
-225.86
-233.88
-243.34
-251.56
-255.1
-250.95
-237.4
-214.27
-182.51
-143.74
-100.2
-54.88
-11.71
24.93
51.2
64.9
66.11
57
41.08
22.33
4.67
-8.25
-13.33
-8.49
6.75
30.84
60.37
90.74
117.05
134.88
141.18
135.05
118.1
94.27
68.72
46.12
29.21
18.23
11.54
7.04
3.42
0.48
-1.45
-2.45
-3.52
-6.11
-11.31
-19.04
-28.2
-37.36
-45.73
-53.43
-61.23
-69.65
-78.33
-85.92
-90.72
-91.57
-88.63
-83.44
-78.33
-75.38
-75.51
-77.98
-80.81
-81.57
-78.46
-71.07
-60.64
-49.73
-41.37
-38.15
-41.23
-49.95
-61.72
-72.53
-77.8
-73.4
-56.92
-28.56
8.68
49.83
89.58
124.13
152.49
176.63
200.43
227.51
259.22
293.35
324.53
345.97
351.96
339.9
310.96
269.1
219.1
164.57
107.32
48.2
-11.07
-66.32
-110.96
-137.73
-141.27
-120.24
-77.84
-20.72
43.04
105.78
161.37
205.31
234.21
245.47
237.49
210.59
168.09
116.67
65.33
22.93
-5
-18.59
-23.77
-29.92
-45.92
-76.2
-119.15
-168.04
-214.2
-250.55
-273.78
-284.52
-285.91
-281.73
-275.05
-267.87
-261.36
-256.03
-251.82
-248.02
-243.1
-235.3
-223.2
-206.53
-186.41
-165.02
-144.77
-127.54
-114.02
-103.78
-95.64
-88.11
-79.87
-70.05
-58.32
-44.93
-30.69
-16.82
-4.65
4.73
10.94
14.4
16.29
18.13
21.22
26.23
33.06
40.99
49.11
56.69
63.44
69.44
75
80.43
85.82
91.07
95.9
99.97
103.1
105.19
106.38
106.91
107.04
106.99
106.86
106.62
106.16
105.28
103.79
101.58
98.62
95.04
91.01
86.62
81.83
76.41
70.23
63.41
56.5
50.31
45.57
42.55
40.84
39.58
37.9
35.5
32.78
30.54
29.55
30.16
32.56
37.31
45.69
59.33
79.12
103.92
130.11
152.3
165.16
165.25
152
127.43
94.9
58.1
20.67
-13.55
-40.52
-56.62
-59.86
-51.04
-33.87
-14.02
2.74
12.24
13.05
6.43
-4.53
-16.45
-27.16
-36.64
-46.91
-60.66
-79.3
-101.19
-121.37
-133.18
-131.09
-113.37
-82.97
-46.19
-9.93
20.79
43.72
58.52
64.96
61.7
46.66
18.63
-20.97
-67.31
-113.17
-151.11
-176.16
-187.41
-188.11
-184.04
-181.01
-182.62
-188.74
-195.69
-197.81
-189.84
-169.1
-136.56
-96.44
-54.36
-15.07
18.97
48.02
74.08
99.49
125.85
153.66
182.84
213.12
244.06
274.44
301.34
319.87
324.17
309.45
274.46
223.08
164.14
109.06
68
46.17
41.99
48.04
54.44
53.25
41.6
22.36
2.02
-12.87
-18.81
-16.41
-9.26
-1.26
5.62
12.05
20.23
32.07
47.61
64.64
79.72
89.57
92.37
88.2
78.63
65.71
50.86
33.91
13.22
-13.42
-47.04
-86.04
-125.89
-160.59
-185.21
-197.94
-200.69
-197.14
-189.6
-176.66
-153.24
-113.78
-56.62
12.93
83
139.05
169.47
169.64
142.44
95.67
38.06
-23.13
-82.33
-134.23
-172.52
-190.63
-184.05
-153
-103.27
-44.72
12.21
59.68
93.93
114.67
123.33
121.42
110.1
90.78
65.97
39.51
15.71
-2.14
-13.32
-20.32
-28.15
-42.21
-65.61
-97.18
-131.29
-159.63
-173.96
-168.84
-142.93
-98.88
-42.31
19.31
77.43
123.21
148.99
150.22
127.35
86.32
36.85
-10.84
-49.37
-75.82
-91.19
-98.29
-99.6
-96.55
-90.49
-84.24
-82.92
-92.62
-117.92
-159.12
-211.12
-264.86
-310.4
-340.29
-351.68
-346.56
-330.45
-310.2
-291.78
-278.53
-270.35
-264.03
-254.73
-238.06
-212.05
-177.95
-139.37
-100.23
-62.62
-25.81
12.77
55.54
103.13
153.99
205.33
254.29
298.51
335.89
364.23
381.95
389.45
390.03
389.25
392.33
400.77
410.47
412.97
399.67
366.91
318.4
263.8
213.66
174.13
144.26
117.53
85.92
44.03
-9.1
-70.54
-135.34
-198.08
-253.22
-295
-317.94
-317.96
-293.67
-246.94
-182.26
-105.24
-21.48
63.52
143.71
212.12
261.86
287.85
288.76
267.56
230.25
183.44
132.36
79.96
27.34
-25.04
-76.39
-125.06
-168.77
-204.95
-231.17
-245.46
-246.78
-235.56
-214.09
-186.32
-157.05
-130.38
-108.41
-90.67
-74.68
-57.33
-36.5
-11.98
14.38
39.58
60.84
76.83
88.35
97.85
108.33
121.79
138.02
154.36
166.48
170.14
162.89
145.33
121.19
96.29
76.84
67.46
69.6
80.92
95.92
107.75
110.67
102.06
83.15
58.16
32.19
8.59
-12.32
-32.74
-55.17
-79.56
-101.69
-113.78
-107.5
-78.15
-28.07
32.9
90.02
128.46
138.16
116.75
69.57
7.45
-56.77
-111.21
-146.86
-158.41
-144.73
-108.95
-58.28
-2.79
46.53
80.45
93.91
87.35
66.25
39.28
15.84
3.07
3.76
15.45
31.35
42.82
42.58
27.26
-1.44
-37.56
-73.54
-103.16
-123.75
-136.61
-145.65
-155.14
-167.63
-183.32
-200.53
-217.17
-231.73
-243.23
-250.43
-251.01
-241.74
-219.89
-185.18
-140.71
-92.46
-47.06
-9.42
18.69
38.35
51.86
61.25
67.77
72.53
77.68
86.59
102.88
128.27
160.85
194.64
221.06
231.81
221.77
190.87
144.07
89.74
37.11
-6.08
-35.04
-48.54
-48.24
-37.62
-20.66
-0.92
18.88
36.71
50.94
60.24
63.95
62.66
58.55
55.01
55.37
61.45
72.54
85.73
97.33
104.71
107.42
106.89
105
102.6
99.01
92.89
83.98
74.63
69.93
75.81
96.1
129.85
170.53
207.8
231.03
232.98
211.93
171.69
120.08
66.54
19.89
-13.45
-30.68
-33.39
-27.25
-20.63
-22.11
-37.5
-67.5
-107.12
-147.16
-177.56
-191.22
-186.57
-168.06
-144.15
-123.91
-113.73
-115.38
-126.32
-141.59
-156.48
-168.16
-175.81
-179.8
-180.47
-177.7
-171.13
-160.91
-148.16
-134.73
-122.58
-113
-106.16
-101.14
-96.37
-90.26
-81.84
-71.05
-58.77
-46.4
-35.44
-26.89
-20.99
-17.29
-14.89
-12.81
-10.22
-6.53
-1.3
5.71
14.47
24.38
34.11
41.84
45.7
44.6
38.75
29.67
19.63
10.62
3.56
-2.03
-7.63
-14.96
-25.02
-37.37
-49.78
-58.34
-58.27
-45.32
-17.59
22.93
70.15
115.19
149.1
165.71
163.49
145.38
117.2
85.32
54.9
28.93
8.18
-8.25
-22.1
-34.77
-46.31
-54.9
-57.45
-51.09
-35.06
-11.6
14.85
39.58
59.67
74.78
86.31
95.63
102.6
105.51
102.22
91.8
75.59
57.11
40.99
31.52
31.2
39.89
54.66
70.61
82.29
85.38
77.89
60.35
35.08
5.04
-27.14
-59.31
-89.59
-116.07
-136.92
-150.93
-158.19
-160.15
-158.98
-156.33
-152.26
-145.02
-131.94
-110.86
-81.59
-46.59
-10.55
21.07
43.76
55.38
56.66
50.7
41.81
34.25
31.24
34.27
42.86
54.48
65.02
69.79
65.14
49.96
26.65
0.81
-20.46
-30.86
-27.18
-10.51
13.76
37.56
52.8
54.45
42.65
23
4.44
-4.44
0.92
19.22
44.35
68.68
86.8
97.51
103.44
108.47
115.03
122.66
128.46
128.67
120.54
103.42
79.25
52.03
26.53
6.42
-7.48
-17.91
-30.06
-48.96
-76.61
-110.31
-143.67
-169.73
-184.34
-187.99
-185.02
-180.6
-177.76
-176.04
-172.32
-163.42
-148.31
-128.76
-108.33
-90.58
-77.29
-68.02
-60.91
-53.96
-46.26
-38.29
-31.35
-26.65
-24.51
-24.04
-23.57
-21.41
-16.51
-8.88
0.54
10.23
18.74
25.13
29.27
31.89
34.29
38.01
44.21
53.28
64.72
77.34
89.76
100.77
109.63
116.03
119.97
121.54
120.78
117.65
112.17
104.47
94.98
84.44
73.74
63.65
54.53
46.22
38.19
29.81
20.62
10.35
-1.15
-13.99
-28.16
-43.19
-57.98
-70.82
-79.98
-84.41
-84.22
-80.55
-74.92
-68.57
-62
-55.29
-48.53
-42.34
-37.78
-35.99
-37.59
-42.18
-48.3
-53.5
-54.9
-49.81
-36.77
-16.53
7.43
29.34
42.8
43.12
29.45
5.53
-21.41
-43.17
-53.33
-49.06
-31.16
-2.9
31.88
70.1
109.87
150.14
190
228.02
261.96
288.83
305.24
308.13
295.55
267.36
225.58
174.11
118.08
63.07
14.38
-23.98
-50.06
-64.85
-72.07
-76.76
-82.94
-91.46
-99.52
-102.26
-95.97
-80.63
-60.44
-41.92
-30.43
-27.84
-32.29
-40.2
-48.81
-57.79
-68.55
-82.35
-98.56
-114.27
-125.52
-129.06
-123.81
-111.16
-94.2
-76.4
-60.31
-46.86
-35.38
-24.33
-12.31
1.08
15.09
28.21
39.08
47.29
53.48
58.95
64.9
71.86
79.48
86.9
92.86
95.89
94.26
86.22
70.74
48.5
22.49
-2.37
-20.53
-27.6
-21.58
-2.97
26.05
62.53
103.17
143.91
179.61
204.39
213.01
202.89
175.56
136.74
94.64
57.58
31.52
19.08
19.85
31.48
50.86
74.6
98.67
118.04
127.05
120.83
97.48
59.9
15.88
-23.93
-49.77
-56.25
-44.19
-19.7
8.7
33.48
50.32
58.48
59.64
56.28
50.51
43.63
36.36
29.03
21.63
13.65
3.92
-9.27
-27.71
-52.27
-82.03
-113.77
-142.59
-163.45
-173.11
-171.69
-162.89
-152.47
-145.96
-146.37
-153.28
-163.66
-173.59
-180.32
-183.28
-183.83
-184.02
-185.32
-188.13
-192.01
-196.42
-201.11
-205.66
-208.8
-207.7
-198.02
-174.95
-135.09
-78.18
-7.93
68.61
143
207.46
256.34
286.42
296.45
286.74
259.41
219.14
173.6
132.3
103.76
92.02
94.54
103.14
108.13
103.46
90.15
75.88
70.77
81.9
109.49
146.55
182.01
205.46
210.88
197.71
169.4
130.57
84.56
32.53
-25.6
-89.09
-154.68
-216.2
-266.16
-298.43
-310.86
-306.15
-290.79
-272.22
-255.91
-243.72
-234.46
-226.03
-217.67
-210.88
-208.32
-211.37
-218.34
-224.22
-222.64
-208.9
-182.31
-146.44
-107.14
-69.41
-35.13
-2.96
29.56
63.35
96.32
123.96
141.86
148.07
144.09
133.76
120.97
107.71
93.63
77.26
57.82
36.34
15.4
-2.44
-16.14
-26.76
-36.71
-48.25
-62.11
-77.13
-90.86
-100.79
-105.43
-104.68
-99.5
-91.18
-80.73
-68.66
-55.14
-40.19
-24.01
-6.99
10.32
27.32
43.51
58.64
72.81
86.43
100.02
113.81
127.34
139.47
148.63
153.46
153.52
149.59
143.52
137.61
133.72
132.45
132.75
131.96
126.51
113.19
90.65
60.55
27.62
-1.48
-20.57
-26.41
-20.29
-7.77
3.52
6.91
-0.7
-17.81
-39.22
-58.38
-69.68
-70.16
-59.81
-40.9
-16.88
8.68
32.81
53.44
69.33
79.99
85.38
85.84
82.24
75.97
68.92
62.97
59.25
57.49
55.98
52.35
44.88
33.58
20.42
8.41
0.08
-3.87
-4.8
-5.29
-7.86
-13.66
-22.17
-31.66
-40.1
-46.09
-49.4
-50.87
-51.93
-53.84
-57.17
-61.49
-65.56
-67.81
-66.97
-62.55
-54.82
-44.69
-33.31
-22
-12.18
-5.32
-2.47
-3.65
-7.37
-10.83
-10.99
-6.03
3.47
14.66
23.57
27.11
24.45
17.36
9.12
2.84
0.2
1.17
4.67
9.6
15.45
22.2
29.6
36.62
41.29
41.34
35.21
22.93
6.42
-10.96
-25.34
-33.51
-33.77
-26.3
-12.93
3.58
20.43
35.52
47.74
56.88
63.29
67.73
71.58
76.99
86.54
102.22
124.01
148.78
170.76
183.56
182.79
167.94
142.24
110.41
75.8
39.12
-0.57
-43.15
-85.54
-122.01
-147.02
-158.84
-161.29
-162.46
-170.77
-190.68
-220.35
-252.54
-277.83
-288.54
-281.49
-258.64
-225.84
-190.63
-159.86
-137.91
-126.06
-122.98
-125.87
-131.94
-139.14
-145.92
-150.78
-151.95
-148
-138.79
-126.31
-114.35
-107.06
-107.09
-114.31
-125.99
-137.89
-145.8
-146.46
-137.68
-118.28
-88.21
-49.15
-4.78
39.5
78.1
107
124.79
132.58
132.89
128.39
121.47
114.74
111.1
112.97
120.76
131.51
139.6
139.6
129.9
114.71
102.81
103.23
120.22
150.64
185.07
212.11
223.32
216.28
194.38
164.2
132.21
102.68
77.42
56.73
40.57
29.04
22.31
20.18
21.99
26.73
33.88
44.11
59.2
81.05
109.86
142.65
173.08
193.05
195.5
177.16
139.61
88.13
28.98
-33.29
-96.83
-161.31
-225.43
-285.1
-333.53
-363.68
-371.41
-357.65
-328.23
-291.57
-255.79
-226.43
-205.81
-193.65
-188.07
-186.19
-184.3
-178.15
-163.76
-138.71
-103.11
-59.71
-12.75
33.73
76.95
115.36
147.97
173.76
191.8
201.86
204.96
203.18
198.94
194.25
190.36
188.1
188.37
192.13
199.8
210.45
221.49
229.3
230.42
222.98
207.25
185.51
161.19
137.9
118.56
104.66
95.77
89.66
83.19
73.49
59.19
41.02
21.34
3.02
-11.89
-22.8
-30.41
-35.89
-39.97
-42.56
-42.93
-40.41
-35.1
-28.26
-21.96
-18.4
-18.92
-23.38
-30
-35.92
-38.2
-34.82
-25.38
-11.24
4.78
19.12
28.23
29.62
22.62
9.05
-6.85
-19.39
-23.36
-16.11
0.99
22.63
41.54
51.57
50.55
41.3
30.17
23.87
26.05
35.51
46.75
52.76
48.08
31.22
5.11
-24.14
-49.59
-65.92
-71.22
-67.44
-59.64
-54.06
-55.66
-66.04
-82.49
-98.55
-106.01
-97.63
-69.63
-23.34
34.85
94.99
146.28
179.89
191.17
180.02
149.77
105.11
50.4
-10.49
-73.23
-131.92
-179.3
-208.46
-215.57
-201.86
-173.61
-140.08
-110.27
-90.15
-81.6
-83.01
-91.13
-102.71
-115.34
-127.42
-137.76
-145.24
-148.98
-148.65
-144.65
-137.88
-129.38
-119.68
-108.73
-96.15
-81.81
-66.19
-50.33
-35.33
-21.82
-9.6
2.06
13.81
25.67
36.71
45.42
50.42
51.24
48.5
43.72
38.39
33.36
28.58
23.58
18.47
14.77
15.47
24.09
43.44
74.6
116.5
166.14
218.84
268.56
308.22
330.75
330.71
306.51
262.03
206.63
152.84
112.28
91.42
89.03
97.01
103.95
100.18
81.68
51.55
18.13
-9.06
-23.7
-25.74
-21.19
-19.15
-27.42
-48.82
-79.99
-113.12
-139.73
-154.76
-158.81
-157.55
-158.56
-167.43
-185.13
-208.07
-230.2
-246.1
-252.82
-249.93
-238.31
-218.65
-191.02
-155.56
-113.67
-68.64
-25.3
11.41
38.18
54.3
61.66
63.62
63.6
63.6
63.5
61.16
53.57
38.28
14.91
-14.16
-44.19
-69.57
-85.71
-90.54
-84.95
-72.13
-56.16
-40.62
-27.72
-18.13
-11.39
-6.59
-2.85
0.44
3.56
6.6
9.47
11.92
13.62
14.25
13.66
12.04
9.9
7.94
6.87
7.16
8.93
11.97
15.78
19.69
22.94
24.84
24.93
23.29
20.59
18.04
17.09
18.96
24.19
32.37
42.25
52.03
60.03
65.09
66.9
65.86
62.83
58.78
54.48
50.44
46.95
44.17
42.12
40.69
39.65
38.69
37.5
35.98
34.27
32.71
31.69
31.4
31.74
32.32
32.61
32.19
30.82
28.56
25.66
22.47
19.31
16.37
13.74
11.42
9.39
7.64
6.16
4.93
3.91
3.03
2.16
1.16
-0.09
-1.64
-3.41
-5.26
-7
-8.43
-9.41
-9.92
-10.05
-10.05
-10.22
-10.82
-11.88
-13.19
-14.39
-15.05
-14.98
-14.29
-13.47
-13.21
-14.08
-16.41
-20.01
-24.33
-28.56
-31.99
-34.19
-35.31
-36.02
-37.47
-40.79
-46.61
-54.42
-62.45
-68.02
-68.5
-62.51
-51.02
-37.77
-28.67
-30.15
-47.03
-80.67
-127.99
-182.02
-233.5
-273.28
-294.39
-293.43
-270.75
-230.08
-177.54
-120.82
-68.16
-26.76
-1.06
8.65
6.26
-1.58
-7.9
-7.59
1.61
19.64
45.26
77.02
113.22
151.36
187.83
218.64
240.85
253.96
260.18
263.24
266.42
271.11
276.4
280.14
280.28
275.92
267.78
257.61
247.51
238.95
232.43
227.14
221.25
212.85
200.56
183.92
163.19
139.2
113.46
88.4
67.66
55.44
54.97
66.49
86.02
105.96
117.62
114.73
95.95
65.32
30.22
-1.63
-24.6
-36.01
-35.67
-25.06
-6.97
14.38
33.57
44.82
43.35
26.85
-3.69
-44.34
-89.46
-133.13
-170.34
-197.69
-213.65
-218.52
-214.19
-203.36
-188.67
-171.72
-152.74
-131.12
-106.63
-80.45
-55.03
-32.73
-13.97
3.42
23.09
47.43
75.15
100.56
115.5
112.67
88.85
46.03
-9.98
-71.91
-132.78
-186.3
-226.32
-247.06
-244.68
-219.8
-178.91
-133.45
-96.01
-75.77
-75.43
-90.87
-113.84
-135.87
-151.48
-159.16
-160.45
-158.08
-154.3
-150.36
-146.72
-143.49
-140.74
-138.48
-136.38
-133.68
-129.28
-122.36
-113.06
-102.88
-94.73
-91.96
-96.86
-109.14
-125.17
-138.61
-142.36
-130.95
-102.33
-58.26
-3.33
56.75
116.57
171.68
218.65
254.93
279.04
290.95
292.19
285.49
273.88
259.71
244.23
227.72
210.17
191.83
173.47
156.16
140.84
128.05
117.86
110.01
104.13
99.82
96.74
94.72
93.89
94.62
97.32
101.98
107.71
112.73
114.86
112.6
105.93
96.47
86.71
78.72
73.01
68.26
61.97
51.79
36.57
16.8
-5.76
-28.91
-50.91
-70.99
-89.74
-108.95
-131.22
-159.14
-193.99
-234.51
-276.16
-311.7
-333.31
-335.64
-318.4
-287.25
-252.29
-224.62
-212.55
-219.01
-241.2
-272.26
-303.76
-327.99
-339.08
-333.36
-309.49
-268.58
-214.4
-153.09
-92.09
-38.44
3.01
30.55
45.52
51.48
52.72
53.13
55.39
60.73
69.1
79.51
90.51
100.79
109.63
117.34
125.31
135.59
149.83
168.14
188.19
205.48
214.67
211.74
195.87
170.05
140.02
112.02
90.41
76.29
67.74
61.35
54.01
44.15
32.21
20.44
12.33
11.66
21.17
41.06
68.03
95.47
115.12
119.71
105.39
73.03
27.87
-22.49
-70.21
-109.1
-135.42
-147.82
-146.98
-135.12
-115.61
-92.56
-70.08
-51.42
-38.43
-31.03
-27.45
-24.89
-20.7
-13.49
-3.68
6.73
15.12
19.51
19.42
16.01
11.45
7.95
6.85
8.29
11.39
14.82
17.46
18.83
19.14
19.09
19.4
20.56
22.67
25.52
28.78
32.11
35.38
38.56
41.7
44.86
48.11
51.59
55.49
60.01
65.21
70.82
76.16
80.37
82.74
82.98
81.5
79.17
76.98
75.59
75.2
75.41
75.5
74.7
72.57
69.4
66.38
65.46
68.62
76.85
89.15
102.15
110.75
109.52
94.57
64.75
22
-29.42
-84.18
-137.21
-184.54
-223.56
-252.77
-271.5
-279.6
-277.26
-264.97
-243.65
-214.54
-179.22
-139.43
-96.96
-53.47
-10.65
29.62
65.11
93.16
111.04
116.82
110.17
92.97
69.16
43.73
21.24
4.47
-6.35
-13.02
-18.07
-23.23
-28.39
-31.74
-30.78
-23.86
-11.17
5.15
22.02
36.63
47.7
55.7
62.46
70.43
81.97
99.06
122.82
152.95
186.94
219.66
244.11
253.28
242.57
211.72
165.12
110.43
56.02
8.51
-28.47
-54.18
-69.79
-77.35
-79.06
-76.92
-72.68
-67.57
-62.19
-56.58
-50.51
-43.85
-36.75
-29.81
-23.8
-19.38
-16.7
-15.35
-14.63
-13.97
-13.17
-12.29
-11.53
-11.09
-11.47
-13.83
-20.02
-32.11
-51.32
-76.98
-106.07
-134.06
-156.36
-170.11
-174.9
-172.42
-165.07
-154.62
-141.79
-126.54
-108.98
-89.84
-70.42
-52.02
-35.39
-20.49
-6.71
6.55
19.52
32.04
43.74
54.48
64.55
74.58
85.37
97.47
110.88
125.02
138.94
151.86
163.7
175.01
186.4
197.43
205.73
207.04
196.29
169.46
125.16
65.61
-3.7
-74.95
-139.34
-188.4
-215.15
-215.27
-188.27
-138.13
-72.85
-2.9
61.34
112.08
145.71
162.93
167.45
163.97
156.52
147.93
140.2
135.26
134.99
140.19
149.23
157.42
158.18
145.86
118.71
80.28
38.21
1.02
-25.48
-40.14
-45.92
-47.6
-49.06
-51.83
-55.16
-57.09
-55.68
-49.99
-40.36
-28.44
-16.91
-8.94
-7.34
-13.4
-26
-41.5
-54.76
-61.08
-58.46
-48.93
-38.09
-32.9
-38.56
-56.13
-82.25
-110.92
-136.54
-156.19
-170.09
-179.97
-186.67
-188.63
-182.31
-164.33
-134.03
-94.64
-52.39
-14.18
15.08
33.65
42.59
44.14
40.21
31.96
20.27
6.76
-6
-15.07
-18.51
-16.37
-10.65
-4.38
-0.24
0.45
-2.26
-7.32
-13.23
-18.26
-20.51
-18.41
-11.61
-1.67
8.11
13.96
13.76
8.28
0.91
-4.19
-4.55
-0.76
3.97
5.58
1.56
-7.57
-18.35
-25.67
-24.82
-13.27
8.21
35.44
61.77
79.79
83.42
69.84
40.25
-0.52
-45.5
-87.31
-119.83
-139.41
-145.83
-142.61
-136.3
-134.21
-141.24
-157.35
-176.96
-191.2
-191.98
-175.77
-144.91
-106.01
-66.34
-30.68
-0.17
26.55
51.13
73.91
93.96
110.17
122.47
131.91
139.91
147.23
153.37
156.91
156.59
152.28
145.35
138.34
133.87
133.5
137.07
142.57
146.71
146.03
137.87
121.29
97.19
68.01
36.82
6.39
-21.39
-45.65
-66.12
-82.55
-94.29
-100.45
-100.51
-94.94
-85.51
-74.87
-65.75
-60.11
-58.78
-61.53
-67.46
-75.29
-83.33
-89.47
-91.2
-86.08
-72.44
-50.09
-20.63
12.85
46.41
76.04
98.4
111.41
114.56
109.09
97.65
83.57
69.75
57.71
46.9
34.91
18.23
-6.43
-40.73
-83.75
-131.86
-179.32
-219.55
-246.61
-256.31
-246.87
-219.08
-176.01
-122.67
-65.4
-10.81
35.4
69.72
91.39
101.86
103.46
98.19
87.23
71.85
54.68
40.43
35.2
44.69
72.03
116.56
173.79
236.64
297.15
348.07
384.02
402.15
402.36
387.02
360.11
326.1
288.75
250.46
212.15
173.64
134.24
93.33
50.97
8.23
-32.55
-67.98
-94.45
-109.12
-111.11
-101.75
-84.67
-65.02
-48.57
-40.7
-45.54
-65.26
-99.67
-146.38
-201.2
-258.85
-313.59
-359.79
-392.42
-407.79
-404.39
-383.55
-349.33
-307.4
-263.53
-221.78
-183.61
-148.07
-112.83
-75.24
-32.94
15.76
71.24
131.54
191.6
243.78
280.03
295.08
288.95
266.93
236.84
205.08
173.8
141.34
105.46
67.26
32.8
10.74
7.56
23.03
49.24
74.04
86.99
84.17
69.17
50.2
34.56
24.53
16.45
3.61
-19.07
-51.48
-87.86
-119.51
-138.91
-143.1
-134.37
-118.38
-100.89
-85.02
-70.34
-54.09
-33.7
-9
17.18
40.45
57.34
67.47
74.04
82.13
95.81
115.5
136.97
152.63
154.63
138.3
104.38
58.91
10.96
-30.78
-60.94
-78.63
-86.61
-89.09
-89.39
-88.63
-85.94
-79.8
-69.74
-56.94
-43.93
-33.36
-26.93
-24.88
-26.24
-29.62
-33.86
-38.34
-42.83
-47.19
-51.03
-53.77
-54.97
-54.85
-54.5
-55.66
-60.06
-68.59
-80.84
-95.25
-109.8
-122.88
-133.63
-141.89
-147.44
-149.61
-147.34
-139.86
-127.54
-112.18
-96.71
-84.07
-76.23
-73.69
-75.67
-80.73
-87.46
-94.69
-101.27
-105.88
-106.89
-102.75
-92.55
-76.54
-56.21
-33.83
-11.74
8.33
25.57
40.08
52.34
62.64
70.77
75.95
77.27
74.23
67.14
57.13
45.81
34.53
24.14
15.12
8.15
4.52
6.03
14.05
28.36
46.23
62.73
72.05
69.54
53.34
25.03
-11.04
-49.22
-84.16
-112.01
-130.66
-139.39
-138.17
-127.3
-107.25
-79.1
-45
-8.3
27.02
57.31
80.32
95.69
104.65
109.1
110.41
108.76
103.26
92.77
76.78
56
32.3
8.1
-14.3
-33.24
-47.85
-57.88
-63.51
-65.19
-63.62
-59.77
-54.77
-49.74
-45.54
-42.65
-41.1
-40.63
-40.83
-41.3
-41.75
-42.06
-42.32
-42.86
-44.03
-45.9
-47.91
-48.88
-47.3
-41.97
-32.58
-20
-5.9
7.88
20.12
30.52
39.6
48.24
57.15
66.72
76.9
87.36
97.58
106.86
114.34
119.01
119.84
116.05
107.32
94.15
77.86
60.43
44.08
30.66
21.24
15.96
14.15
14.76
16.76
19.29
21.7
23.4
23.77
22.34
18.9
13.73
7.56
1.5
-3.17
-5.33
-4.23
0.33
7.88
17.46
27.81
37.79
46.66
54.27
60.96
67.38
74.16
81.64
89.68
97.7
104.81
110.12
113.02
113.29
111.07
106.73
100.72
93.42
85.17
76.27
67.05
57.86
49.02
40.76
33.17
26.12
19.24
12.05
3.96
-5.4
-16.03
-27.47
-38.9
-49.53
-59.08
-67.99
-77.5
-89.18
-104.27
-122.99
-144.25
-165.73
-184.52
-198.01
-204.7
-204.64
-199.32
-190.93
-181.44
-171.8
-161.57
-149.25
-132.98
-111.46
-84.57
-53.49
-20.39
12.26
42.31
68.31
89.73
106.71
119.88
130.08
138.12
144.6
149.87
153.82
155.99
155.62
151.94
144.52
133.52
119.77
104.45
88.74
73.39
58.57
43.99
29.28
14.3
-0.71
-15.22
-28.48
-39.6
-47.53
-51.18
-49.49
-41.84
-28.39
-10.24
10.8
32.67
53.64
72.59
88.96
102.6
113.49
121.67
127.47
131.54
134.82
138.18
142.06
146.2
149.87
152.17
152.58
151.1
148.24
144.72
141.13
137.73
134.16
129.46
122.06
110.2
92.52
68.61
39.29
6.38
-27.84
-61.31
-92.26
-119.15
-140.36
-154.21
-159.44
-156.02
-145.45
-130.59
-114.69
-100.24
-88.43
-79.17
-71.8
-65.84
-61.23
-58.21
-56.77
-56.45
-56.38
-55.69
-53.78
-50.39
-45.5
-39.1
-31.26
-22.27
-12.8
-3.82
3.74
9.45
13.62
17.09
20.77
25.24
30.53
36.25
41.82
46.61
49.96
51.19
49.59
44.84
37.36
28.5
20.4
15.24
14.52
18.47
26.03
35.26
44.02
50.48
53.44
52.3
46.97
37.68
24.97
9.61
-7.39
-24.79
-41.23
-55.31
-65.81
-71.76
-72.68
-68.61
-60.03
-47.75
-32.64
-15.64
2.21
19.57
34.78
45.92
51.24
49.65
41.13
26.89
9.14
-9.4
-26.07
-38.78
-46.37
-48.75
-46.88
-42.6
-38.06
-35.16
-34.8
-36.5
-38.53
-38.7
-35.26
-27.83
-17.56
-6.63
2.71
9.17
12.83
14.99
17.43
21.6
28.14
36.73
46.47
56.17
64.65
70.79
73.48
71.78
65.16
53.97
39.64
24.58
11.4
2.02
-3.01
-4.68
-4.94
-5.78
-8.44
-13.06
-18.97
-25.23
-31.18
-36.48
-41
-44.49
-46.57
-46.86
-45.29
-42.21
-38.24
-33.9
-29.35
-24.44
-18.91
-12.72
-6.2
-0
5.28
9.32
12.3
14.83
17.8
22.17
28.58
37.05
46.71
55.86
62.41
64.61
61.71
54.35
44.24
33.53
24.02
16.63
11.46
8.02
5.63
3.53
0.95
-2.97
-9.1
-18.09
-30.01
-44.24
-59.55
-74.39
-87.43
-97.95
-106.05
-112.45
-117.95
-122.83
-126.42
-127.28
-123.86
-115.28
-101.93
-85.35
-67.77
-51.21
-37.01
-25.68
-17.22
-11.43
-8.08
-6.77
-6.72
-6.76
-5.57
-2.07
4.14
12.72
22.7
32.82
41.87
49.03
54
57.04
58.83
60.21
61.91
64.33
67.44
70.83
73.8
75.58
75.39
72.56
66.7
57.91
47.03
35.6
25.65
18.98
16.57
18.07
21.79
25.2
25.64
21.13
10.86
-4.6
-23.43
-42.98
-60.29
-72.53
-77.53
-74.13
-62.5
-44.16
-21.81
1.15
21.33
36.11
44.05
45.18
40.72
32.66
23.17
14.1
6.69
1.46
-1.7
-3.34
-4.27
-5.3
-7.17
-10.42
-15.26
-21.41
-27.99
-33.68
-37.05
-37.19
-34.14
-28.96
-23.44
-19.35
-17.9
-19.28
-22.69
-26.65
-29.49
-29.89
-27.24
-21.79
-14.53
-6.79
0.15
5.45
8.95
11.06
12.54
14.27
16.99
21.14
26.91
34.09
42.11
50.14
57.15
62.18
64.47
63.6
59.46
52.23
42.38
30.56
17.7
4.98
-6.28
-14.83
-19.86
-21.44
-20.78
-20.13
-22.23
-29.4
-42.67
-61.19
-82.37
-102.62
-118.48
-127.68
-129.72
-125.75
-117.95
-108.81
-100.29
-93.26
-87.28
-80.66
-71.14
-56.81
-37.2
-13.67
10.86
33.05
50.39
61.98
68.56
71.59
72.31
71.13
67.85
62.24
54.64
46.14
38.1
31.44
26.23
21.65
16.42
9.32
-0.32
-12.44
-26.36
-41.03
-55.12
-67.3
-76.32
-81.17
-81.4
-77.22
-69.54
-59.79
-49.41
-39.5
-30.58
-22.6
-15.24
-8.15
-1.14
5.93
13.14
20.64
28.46
36.36
43.67
49.51
53.16
54.37
53.65
52
50.64
50.43
51.72
54.31
57.67
61.12
63.95
65.54
65.3
62.94
58.48
52.35
45.25
37.74
29.97
21.57
11.88
0.46
-12.5
-25.99
-38.48
-48.42
-54.82
-57.58
-57.28
-54.94
-51.48
-47.59
-43.71
-40.16
-37.28
-35.41
-34.76
-35.29
-36.72
-38.62
-40.6
-42.44
-44.05
-45.41
-46.51
-47.3
-47.78
-48.03
-48.28
-48.78
-49.75
-51.22
-52.92
-54.17
-53.95
-51.18
-45
-35.22
-22.54
-8.35
5.65
18.09
28.32
36.51
43.27
49.19
54.52
59.05
62.39
64.28
64.78
64.33
63.63
63.31
63.62
64.39
65.04
64.86
63.43
60.84
57.76
55.12
53.65
53.51
54.09
54.27
52.78
48.51
40.77
29.44
14.98
-1.35
-17.73
-32.06
-42.61
-48.53
-50.12
-48.62
-45.57
-42.33
-39.66
-37.82
-36.81
-36.56
-36.9
-37.47
-37.65
-36.71
-34.14
-29.97
-24.81
-19.69
-15.57
-12.94
-11.78
-11.57
-11.75
-12.02
-12.62
-14.2
-17.6
-23.47
-31.91
-42.37
-53.5
-63.32
-69.64
-70.75
-66.11
-56.95
-46.3
-38.29
-36.93
-44.67
-61.5
-84.85
-110.46
-133.73
-151.17
-161.17
-164.11
-161.75
-156.36
-149.82
-143.2
-136.57
-129.43
-121.01
-110.67
-98.06
-83.09
-65.94
-47.02
-27.03
-7.1
11.47
27.45
40.07
49.3
55.84
60.86
65.57
70.85
77.03
84.02
91.39
98.7
105.6
111.92
117.66
122.88
127.67
131.97
135.75
138.94
141.6
143.96
146.31
148.83
151.55
154.3
156.83
159.01
160.91
162.78
164.86
167.29
170.05
173.06
176.27
179.59
182.75
184.99
185.04
181.27
172.12
156.53
134.24
105.64
71.49
32.6
-10.2
-55.73
-102.14
-146.82
-186.85
-219.77
-244.4
-261.01
-270.84
-275.28
-274.94
-269.51
-258.27
-241.08
-219.18
-195.22
-172.49
-153.69
-139.99
-130.69
-123.88
-117.35
-109.57
-100.06
-89.21
-77.76
-66.44
-55.85
-46.47
-38.63
-32.1
-25.67
-16.89
-2.49
20.57
53.87
96.63
145.68
196.1
242.24
278.75
301.16
306.52
293.81
264.5
222.62
174.24
126.11
83.96
51.19
28.34
13.8
4.98
-0.24
-2.8
-2.33
2.29
12.01
26.89
45.67
65.9
84.52
98.74
106.77
108.15
103.58
94.41
82.13
67.94
52.7
36.87
20.5
3.17
-15.85
-37.23
-61.03
-86.27
-110.93
-132.49
-148.75
-158.53
-162.11
-160.96
-157.31
-153.46
-151.2
-151.33
-153.54
-156.5
-158.37
-157.42
-152.62
-143.88
-131.86
-117.51
-101.61
-84.63
-66.81
-48.49
-30.14
-12.37
4.36
19.95
34.68
48.94
62.97
76.59
89.23
100.01
107.92
112.14
112.41
109.28
104.15
99.06
96.05
96.54
100.86
108.22
117.04
125.48
131.85
134.77
133.34
127.07
116.14
101.5
84.82
68.08
52.94
40.16
29.51
20.07
10.77
0.98
-9.41
-20.11
-30.85
-41.57
-52.42
-63.6
-75.17
-87.14
-99.46
-112.15
-125.11
-137.83
-149.2
-157.61
-161.5
-159.95
-153.3
-143.14
-131.85
-121.8
-114.57
-110.56
-109.17
-109.27
-109.8
-110.1
-109.93
-109.31
-108.37
-107.02
-104.82
-100.67
-92.68
-78.46
-55.93
-24.47
14.3
56.39
96.51
129.76
153.5
168.02
176.22
182.07
189.11
199.34
212.98
228.8
244.83
258.8
268.53
272.17
268.39
256.68
237.54
212.54
184.22
155.63
129.78
108.83
93.67
83.76
77.56
73.2
69.11
64.29
58.11
49.99
39.35
25.91
10.21
-6.06
-20.33
-30.1
-33.84
-31.65
-25.16
-16.83
-9.13
-4.08
-3.07
-6.96
-15.83
-28.64
-42.78
-54.19
-58.25
-51.39
-32.8
-5.29
25.1
50.93
65.71
65.91
51.83
26.98
-3.38
-33.92
-60.43
-80.3
-92.51
-97.23
-95.64
-89.61
-81.35
-72.91
-65.74
-60.44
-56.87
-54.48
-52.67
-51.02
-49.33
-47.46
-45.45
-43.59
-42.52
-43.09
-45.91
-50.92
-57.19
-63.17
-67.24
-68.41
-66.6
-62.54
-57.18
-51.28
-45.1
-38.48
-31.05
-22.38
-11.96
0.9
17
36.89
60.41
86.29
112.05
134.58
150.98
159.52
160.43
155.85
149.38
144.88
145.08
150.36
158.28
164.15
162.46
148.61
120.26
77.97
24.87
-34.22
-93.68
-148.11
-192.9
-224.88
-242.72
-247.28
-241.38
-229.07
-214.3
-199.77
-186.38
-173.52
-160.04
-145.29
-129.84
-115.18
-103
-94.28
-88.64
-84.56
-80.13
-74.06
-66.26
-57.77
-50.05
-44.18
-40.2
-37.12
-33.48
-27.96
-20.09
-10.35
0.12
10.04
18.47
25.12
30.47
35.8
43.09
54.65
72.36
96.65
125.58
154.76
178.41
191.38
191.35
179.91
161.99
143.61
129
118.56
108.62
93.23
67.06
28.2
-20.56
-72.23
-117.86
-149.35
-161.81
-154.4
-129.87
-93.13
-49.75
-4.94
36.92
72.58
100.24
119.8
132.74
141.36
147.51
151.61
152.36
147.73
136.34
118.48
96.25
72.44
49.2
27.18
5.81
-15.71
-37.33
-57.71
-74.67
-86.1
-90.86
-89.16
-82.39
-72.49
-61.27
-50.04
-39.61
-30.5
-23.25
-18.5
-16.83
-18.53
-23.25
-29.91
-36.97
-42.75
-46.04
-46.55
-45.13
-43.64
-44.4
-49.42
-59.62
-74.49
-92.24
-110.5
-127.1
-140.77
-151.3
-159.29
-165.58
-170.75
-174.8
-177.25
-177.37
-174.37
-167.61
-156.63
-141.31
-121.99
-99.59
-75.5
-51.27
-28.17
-6.91
12.43
30.19
46.77
62.39
77.09
90.89
104.04
116.96
130.04
143.41
156.71
169.16
179.88
188.32
194.34
198.05
199.54
198.32
193.22
182.81
166.24
144.12
118.71
93.12
70.01
50.46
33.64
17.69
0.96
-17.07
-35.81
-54.32
-72.21
-89.66
-106.79
-122.74
-135.17
-140.84
-137.03
-122.81
-99.73
-71.53
-43.46
-21.51
-11.52
-17.63
-40.57
-76.23
-115.68
-147.36
-161.01
-151.49
-120.63
-76.2
-28.36
14.32
47.47
71.4
89.56
106.16
124.25
144.43
164.49
180.07
186.03
178.61
157.36
125.86
90.54
58.09
32.81
15.45
4.3
-2.46
-4.82
-0.9
11.06
30.09
51.27
67.02
70.44
58.92
35.73
8.65
-13.59
-25.41
-26.48
-21.14
-15.8
-15.91
-24.16
-40.45
-62.76
-88.13
-113.03
-133.54
-145.77
-147.04
-136.99
-118.09
-94.62
-70.66
-48.02
-25.45
0.42
32.91
72.92
117.67
160.98
195.31
214.24
214.68
197.67
167.58
130.08
89.7
48.15
4.15
-45.24
-101.93
-164.21
-225.78
-276.83
-306.99
-308.77
-280.14
-225.33
-153.61
-77.06
-7.85
43.98
71.96
74.06
52.76
14.31
-33.09
-81.49
-125.14
-160.93
-187.59
-204.26
-209.88
-204.22
-189.41
-170.76
-155.37
-149.11
-153.29
-163.47
-171.24
-168.3
-150.27
-118.34
-77.85
-35.33
3.97
36.62
60.07
71.87
70.3
56.21
34.27
12.15
-2.82
-7.31
-3.64
2.23
5
3.85
3.06
8.78
24.36
47.23
69.74
83.17
82.34
67.84
44.77
19.04
-5.85
-29.69
-53.99
-79.08
-102.35
-118.51
-121.76
-108.4
-78.44
-35.3
15.91
70.39
124.8
177.07
225.24
266.56
297.65
315.64
319.85
312.56
298.52
283.05
269.74
258.74
246.69
228.49
200.23
161.92
118.67
79.24
52.54
43.55
50.7
66.14
79.07
80.37
66.15
38.25
1.81
-38.32
-79.94
-123.26
-168.61
-213.95
-254.23
-283.26
-296.95
-295.62
-284.1
-269.41
-257.34
-250.66
-249.49
-253.6
-264.24
-283.88
-313.73
-350.92
-387.7
-413.5
-419.35
-401.78
-364.12
-314.4
-261.34
-210.68
-163.94
-119.83
-76.78
-34.97
3.46
35.78
60.35
77.65
90
100.39
111.21
123.4
136.39
148.9
159.86
169.17
177.75
187
197.98
210.65
223.66
234.74
241.66
243.08
239.29
232.16
224.46
218.84
216.75
218.02
220.92
222.95
221.7
215.68
204.61
189.39
171.64
153.16
135.44
119.34
105.06
92.21
80.22
68.61
57.22
46.23
36.06
27.11
19.47
12.94
6.97
0.8
-6.37
-14.95
-24.62
-34.1
-41.4
-44.55
-42.57
-36.11
-27.48
-19.99
-16.76
-19.62
-28.5
-41.48
-55.42
-66.91
-73.21
-72.81
-65.68
-53.06
-36.94
-19.75
-3.91
8.35
15.27
15.81
10.21
0.23
-11.06
-20.08
-23.95
-21.44
-13.39
-2.15
9.48
19.25
26.07
29.98
31.74
32.31
32.53
32.99
34
35.58
37.53
39.4
40.69
41
40.18
38.37
35.89
33.14
30.45
28.07
26.14
24.63
23.41
22.22
20.81
19.02
16.93
14.78
12.94
11.64
10.91
10.49
9.93
8.8
6.77
3.8
0.14
-3.74
-7.38
-10.52
-13.13
-15.47
-17.82
-20.4
-23.17
-25.88
-28.24
-30.04
-31.37
-32.49
-33.86
-35.86
-38.69
-42.32
-46.48
-50.8
-54.93
-58.69
-62.17
-65.62
-69.38
-73.8
-79.14
-85.43
-92.31
-98.67
-102.69
-102.15
-95.23
-81.3
-61.53
-38.72
-16.37
2.48
16.29
25.38
31.39
36.34
41.79
48.43
56.12
64.31
72.36
79.71
85.88
90.5
93.3
94.28
93.81
92.58
91.39
90.75
90.72
90.86
90.52
89.25
87.16
84.97
83.69
84.13
86.26
89.08
90.88
89.95
85.46
77.91
69.06
61.24
56.38
55.27
57.33
60.98
64.23
65.39
63.43
58.14
50.01
40.02
29.37
19.14
9.95
1.87
-5.65
-13.55
-22.73
-33.59
-45.63
-57.42
-67.01
-72.53
-73.04
-68.92
-61.93
-54.74
-50.02
-49.86
-55.21
-65.75
-80.04
-95.63
-109.52
-118.67
-120.82
-115.13
-102.63
-85.86
-68
-51.8
-38.77
-29.03
-21.77
-15.9
-10.66
-5.85
-1.63
1.75
4.26
6.07
7.54
9.01
10.68
12.57
14.56
16.5
18.32
20
21.56
23.06
24.43
25.55
26.24
26.38
26.03
25.43
24.92
24.82
25.27
26.17
27.22
28.11
28.64
28.86
28.92
29.03
29.33
29.86
30.6
31.66
33.21
35.53
38.81
42.91
47.37
51.54
54.91
57.4
59.46
61.73
64.5
67.27
68.67
66.86
60.41
48.97
33.56
16.13
-1.24
-17.01
-30.42
-41.36
-49.89
-55.92
-59.27
-59.93
-58.05
-53.67
-46.24
-34.49
-16.95
6.9
35.58
65.31
90.82
107.19
111.6
104.32
88.25
67.43
45.22
23.27
1.58
-20.55
-43.29
-65.75
-86.18
-102.93
-115.29
-123.8
-129.92
-135.2
-140.43
-145.41
-149.34
-151.41
-151.37
-149.74
-147.45
-145.43
-144.16
-143.62
-143.19
-142.05
-139.41
-134.89
-128.73
-121.79
-115.27
-110.15
-106.67
-104.08
-100.98
-95.86
-87.91
-77.35
-65.33
-53.43
-43.02
-34.81
-28.79
-24.29
-20.31
-15.63
-9.12
-0.26
10.42
21.14
29.26
32.49
30.06
23.54
16.61
13.75
18.63
32.75
55.01
82.15
109.72
133.1
148.41
153.22
147.36
133.39
116.53
103.84
102.52
117.78
150.87
198.15
251.4
299.76
332.72
343.13
329.3
295.22
248.79
198.81
152.15
112.17
79.12
51.79
29.11
10.93
-2.45
-11.09
-15.85
-18.15
-19.19
-19.34
-18.22
-15.41
-11.22
-6.97
-4.4
-4.83
-8.38
-13.84
-19.32
-23.18
-24.78
-24.58
-23.77
-23.48
-24.18
-25.51
-26.82
-27.85
-29.32
-32.8
-39.95
-51.48
-66.51
-82.62
-96.61
-105.54
-107.53
-102.21
-90.58
-74.87
-58.12
-43.69
-34.6
-32.6
-37.62
-47.65
-59.44
-69.77
-76.92
-81.49
-86.2
-94.89
-110.76
-134.87
-165.19
-196.63
-221.81
-232.67
-222.48
-188.04
-131.38
-60.23
13.13
74.91
113.72
123.96
107.49
72.59
30.78
-7.12
-34.06
-47.92
-50.66
-46.39
-39.41
-32.97
-29.01
-28.51
-31.74
-38.4
-47.5
-57.43
-66.1
-71.69
-73.28
-71.41
-67.99
-65.76
-67.21
-73.61
-84.46
-97.65
-110.42
-120.48
-127
-130.85
-134.03
-138.75
-146.59
-158.03
-172.48
-188.66
-204.66
-217.96
-225.43
-223.74
-210.42
-185.05
-150.06
-110.39
-72.06
-40.11
-16.94
-1.77
8.61
18.25
30.54
47.23
68.46
93.24
120.1
147.44
173.58
196.75
215.23
227.67
233.59
233.55
229.12
222.44
215.57
209.9
205.84
202.82
199.7
195.24
188.69
180
169.89
159.48
149.86
141.67
134.91
129.11
123.53
117.62
111.11
104.1
96.9
89.81
83.01
76.49
70.2
64.04
58.03
52.18
46.53
41.08
35.84
30.9
26.4
22.51
19.33
16.78
14.58
12.39
9.9
7.02
3.9
0.76
-2.22
-5.01
-7.83
-11
-14.89
-19.8
-25.79
-32.65
-39.79
-46.32
-51.1
-53.11
-51.77
-47.18
-40.16
-31.95
-23.86
-16.87
-11.4
-7.41
-4.52
-2.33
-0.56
0.92
2.12
2.98
3.45
3.56
3.37
3
2.54
2.06
1.58
1.15
0.88
0.99
1.69
3.08
5.03
7.2
9.17
10.55
11.19
11.25
11.11
11.15
11.62
12.46
13.36
13.91
13.71
12.64
10.81
8.59
6.39
4.48
2.9
1.4
-0.4
-2.89
-6.31
-10.67
-15.77
-21.29
-26.88
-32.19
-36.95
-41.03
-44.42
-47.24
-49.69
-51.91
-53.88
-55.27
-55.48
-53.74
-49.4
-42.15
-32.16
-20.15
-7.13
5.72
17.43
27.23
34.66
39.5
41.78
41.75
40
37.46
35.27
34.67
36.73
42.18
51.22
63.51
78.08
93.59
108.53
121.55
131.76
138.79
142.73
143.76
141.95
137.34
130.22
121.58
113.16
107.07
104.91
106.89
111.5
115.94
117.33
113.89
105.57
93.9
81.06
68.89
58.27
49.18
41.1
33.64
26.67
20.3
14.49
8.92
3.04
-3.66
-11.42
-20.1
-29.43
-39.14
-49.24
-59.84
-70.92
-82.07
-92.32
-100.35
-105.01
-105.72
-102.87
-97.62
-91.58
-86.1
-81.96
-79.2
-77.4
-75.95
-74.42
-72.61
-70.5
-68.14
-65.58
-62.97
-60.56
-58.68
-57.62
-57.5
-58.16
-59.24
-60.3
-60.96
-61.1
-60.76
-60.07
-59.21
-58.23
-57.12
-55.73
-53.91
-51.51
-48.39
-44.55
-40.1
-35.37
-30.81
-26.93
-24.08
-22.38
-21.61
-21.34
-21.09
-20.53
-19.69
-18.81
-18.31
-18.56
-19.79
-22.03
-25.18
-29.04
-33.34
-37.8
-42.14
-46.2
-49.97
-53.67
-57.69
-62.47
-68.21
-74.61
-80.76
-85.22
-86.4
-83.13
-75.07
-62.91
-48.26
-33.11
-19.36
-8.25
-0.25
4.9
7.91
9.63
10.79
11.91
13.26
14.89
16.74
18.68
20.55
22.16
23.37
24.15
24.6
25.06
25.91
27.45
29.67
32.26
34.6
36.09
36.34
35.29
33.26
30.74
28.23
26.05
24.25
22.65
21.01
19.11
16.87
14.42
11.94
9.61
7.41
5.18
2.64
-0.43
-4.16
-8.5
-13.28
-18.27
-23.2
-27.83
-31.9
-35.3
-38.07
-40.54
-43.19
-46.37
-49.98
-53.25
-54.9
-53.61
