-5763,0.0010422
-5762,0.0015726
-5761,0.00067075
-5760,0.001788
-5759,0.0016629
-5758,-0.00084843
-5757,-0.0014047
-5756,-0.00033552
-5755,-0.00020093
-5754,-0.0012226
-5753,-0.0020119
-5752,-0.0014686
-5751,0.0010701
-5750,0.0006934
-5749,-0.0004948
-5748,0.0009436
-5747,0.00020807
-5746,-0.0022289
-5745,-0.0010797
-5744,0.00031073
-5743,0.00039667
-5742,-0.00019267
-5741,-0.0019133
-5740,-0.00060629
-5739,0.00086692
-5738,0.00156
-5737,0.00034536
-5736,-0.00076728
-5735,-0.00016643
-5734,0.00070976
-5733,0.00076813
-5732,0.0022479
-5731,0.0018263
-5730,-0.0040783
-5729,-0.0044192
-5728,-0.00066054
-5727,0.0030824
-5726,0.0043729
-5725,0.00086611
-5724,-0.00077907
-5723,0.00098757
-5722,0.0019125
-5721,0.00084944
-5720,0.0017718
-5719,0.00014703
-5718,-0.0043805
-5717,-0.0049817
-5716,-0.0034925
-5715,0.0015346
-5714,0.0022372
-5713,0.00096664
-5712,0.0022003
-5711,-0.0021828
-5710,-0.00014879
-5709,0.0048117
-5708,-0.00045844
-5707,-0.002491
-5706,0.00075187
-5705,-0.0041651
-5704,-0.0063269
-5703,0.0017185
-5702,0.0019212
-5701,0.00034545
-5700,0.0060418
-5699,0.0072618
-5698,0.0013666
-5697,-0.0026472
-5696,-0.0039059
-5695,-0.0055302
-5694,-0.0065508
-5693,-0.0038807
-5692,0.0020086
-5691,0.0037994
-5690,0.0042792
-5689,0.0034356
-5688,0.0023791
-5687,0.00083314
-5686,0.00068693
-5685,0.0021006
-5684,0.00052264
-5683,-0.0025852
-5682,-0.0050081
-5681,-0.0033591
-5680,-0.00074363
-5679,0.0033823
-5678,0.0030695
-5677,-0.0025105
-5676,0.00093943
-5675,0.0020581
-5674,-0.0030617
-5673,-0.0037471
-5672,0.00032686
-5671,0.0047011
-5670,0.0026605
-5669,-0.0011572
-5668,-0.0044246
-5667,-0.002903
-5666,-0.00048735
-5665,0.0027152
-5664,0.0058695
-5663,0.0036105
-5662,-3.9238e-05
-5661,-0.0052038
-5660,-0.0045492
-5659,-0.00080229
-5658,5.4192e-05
-5657,0.0015859
-5656,0.0028153
-5655,-0.0017451
-5654,-0.006981
-5653,-0.002239
-5652,0.00099249
-5651,0.0063112
-5650,0.0083059
-5649,-4.4494e-05
-5648,-0.00022754
-5647,0.00072772
-5646,-0.0053741
-5645,-0.005185
-5644,0.003327
-5643,0.0048872
-5642,-0.00014399
-5641,3.7188e-05
-5640,-0.0033937
-5639,-0.0046265
-5638,0.002856
-5637,0.0044159
-5636,1.72e-05
-5635,-0.00097234
-5634,-0.0016679
-5633,-0.0048391
-5632,-0.0021865
-5631,0.00077867
-5630,-0.00027827
-5629,0.0029792
-5628,0.0054664
-5627,0.0049727
-5626,-0.0027137
-5625,-0.0079883
-5624,-0.00082623
-5623,0.0045369
-5622,0.0047835
-5621,0.0036998
-5620,0.0031819
-5619,-0.0026342
-5618,-0.0094807
-5617,-0.0082718
-5616,-0.00068832
-5615,0.0061134
-5614,0.0015318
-5613,-0.0030791
-5612,-0.002192
-5611,-0.0010979
-5610,0.0039203
-5609,0.0064909
-5608,0.0056301
-5607,-0.00074085
-5606,-0.0014331
-5605,0.0027051
-5604,-0.0018473
-5603,-0.001801
-5602,-0.0026648
-5601,-0.0042796
-5600,0.001038
-5599,0.0063047
-5598,0.0033031
-5597,-0.0015905
-5596,-0.0037326
-5595,-0.0040689
-5594,-0.0024598
-5593,-0.0034643
-5592,0.00011778
-5591,0.006311
-5590,0.0018044
-5589,-0.0029344
-5588,-0.00019522
-5587,-0.0019113
-5586,0.0018074
-5585,0.0071144
-5584,-0.0038392
-5583,-0.0054307
-5582,0.00026124
-5581,0.0002201
-5580,0.00087266
-5579,0.0018111
-5578,-0.0018811
-5577,0.0023261
-5576,0.0017588
-5575,-0.0058522
-5574,0.0023045
-5573,0.0027338
-5572,-0.0013268
-5571,0.0056847
-5570,0.0038559
-5569,-0.0026979
-5568,0.0006233
-5567,0.0026053
-5566,-0.0044829
-5565,-0.0048655
-5564,-0.0027113
-5563,-0.0015835
-5562,0.0037125
-5561,0.0021389
-5560,-0.0066803
-5559,-0.0069805
-5558,0.0030405
-5557,0.013174
-5556,0.011492
-5555,0.0020168
-5554,-0.0050678
-5553,-0.0099971
-5552,-0.0088459
-5551,-0.0021212
-5550,0.00060929
-5549,0.0049067
-5548,0.0022839
-5547,-0.0099949
-5546,-0.0019743
-5545,0.0058443
-5544,0.0037639
-5543,0.0080621
-5542,0.00090361
-5541,-0.0086947
-5540,-0.0051921
-5539,0.004074
-5538,0.0075635
-5537,-0.0015428
-5536,-0.0065677
-5535,-0.0066654
-5534,0.003063
-5533,0.01512
-5532,0.010951
-5531,-0.0044399
-5530,-0.015049
-5529,-0.011331
-5528,-0.0016141
-5527,0.0085196
-5526,0.010395
-5525,-0.00092865
-5524,-0.005315
-5523,0.0014671
-5522,-3.5945e-05
-5521,0.00071693
-5520,0.0059288
-5519,0.0088497
-5518,0.0031209
-5517,-0.013087
-5516,-0.015872
-5515,0.0027005
-5514,0.010557
-5513,0.0013353
-5512,-0.0023272
-5511,-0.0012299
-5510,-0.00089114
-5509,-0.0029116
-5508,-0.0026422
-5507,0.00061379
-5506,0.0025598
-5505,0.0043635
-5504,0.0013492
-5503,-0.0006147
-5502,-0.0037333
-5501,-0.00060868
-5500,-0.0038107
-5499,-0.0035
-5498,0.0037437
-5497,-0.0023794
-5496,0.0022819
-5495,0.0099298
-5494,0.0027649
-5493,-0.0047953
-5492,0.0019905
-5491,0.0067398
-5490,0.0042089
-5489,-0.0045699
-5488,-0.0059641
-5487,0.001517
-5486,-0.0038747
-5485,-0.0031633
-5484,-0.0019284
-5483,-0.0076853
-5482,-0.0048319
-5481,0.0023089
-5480,0.00526
-5479,0.0070051
-5478,0.011989
-5477,0.0076599
-5476,-0.0053684
-5475,-0.012628
-5474,-0.014632
-5473,-0.0027615
-5472,0.010968
-5471,0.011117
-5470,0.00357
-5469,-0.0030427
-5468,0.00225
-5467,-0.0033713
-5466,-0.0099608
-5465,-0.0018354
-5464,0.0031869
-5463,0.0047408
-5462,0.00051898
-5461,-0.005987
-5460,-0.0031027
-5459,0.00034242
-5458,-0.00272
-5457,0.0069001
-5456,0.013043
-5455,0.0085326
-5454,0.00018235
-5453,-0.013603
-5452,-0.012492
-5451,-0.0056226
-5450,0.0045772
-5449,0.0049879
-5448,-0.00032733
-5447,0.0064305
-5446,-0.0029699
-5445,-0.0026527
-5444,0.0076105
-5443,0.0023268
-5442,-0.0019429
-5441,-0.001209
-5440,0.00081227
-5439,-0.0064743
-5438,-0.0061121
-5437,0.0017584
-5436,0.0027449
-5435,0.0018743
-5434,0.0040739
-5433,0.0032145
-5432,-0.0069982
-5431,-0.0067781
-5430,0.0045619
-5429,0.003759
-5428,0.00011463
-5427,0.00082592
-5426,0.0053099
-5425,-0.003531
-5424,-0.0036258
-5423,0.0010219
-5422,-0.007471
-5421,0.005219
-5420,0.010409
-5419,-0.0037148
-5418,-0.016471
-5417,-0.0063794
-5416,0.012843
-5415,0.01031
-5414,0.0078873
-5413,-0.0032968
-5412,-0.011716
-5411,-0.0025584
-5410,0.0014327
-5409,0.0075809
-5408,0.007425
-5407,-0.0013754
-5406,0.00087367
-5405,0.00072704
-5404,-0.011248
-5403,-0.013835
-5402,-0.010777
-5401,0.0026921
-5400,0.014856
-5399,0.0035925
-5398,0.0005059
-5397,0.01219
-5396,0.0025529
-5395,-0.014473
-5394,-0.0089906
-5393,0.0046246
-5392,0.0047491
-5391,0.0077492
-5390,-0.00027712
-5389,-0.010194
-5388,-0.0048417
-5387,0.0013069
-5386,0.0053568
-5385,0.0057916
-5384,0.0085446
-5383,0.0004914
-5382,-0.0042315
-5381,-0.0034733
-5380,-0.0058934
-5379,-0.0028983
-5378,0.0092987
-5377,0.011589
-5376,-0.0054413
-5375,-0.012878
-5374,-0.0045638
-5373,0.00076562
-5372,-0.0014161
-5371,-0.0046786
-5370,-0.00054803
-5369,0.0030698
-5368,0.0089093
-5367,0.0025594
-5366,-0.0085806
-5365,-0.0056795
-5364,0.0047148
-5363,0.0094658
-5362,0.013128
-5361,0.0056777
-5360,-0.014253
-5359,-0.012647
-5358,-0.0096731
-5357,-0.0024452
-5356,0.015361
-5355,0.010115
-5354,0.0046423
-5353,0.00043174
-5352,-0.01436
-5351,-0.0072219
-5350,0.010366
-5349,0.0029643
-5348,-0.0059069
-5347,0.0015461
-5346,-0.00024323
-5345,-0.0021205
-5344,0.0012693
-5343,-0.00051779
-5342,0.0011985
-5341,-0.0025871
-5340,-0.0011545
-5339,0.005382
-5338,0.0013176
-5337,0.0021939
-5336,-0.0019466
-5335,-0.0067942
-5334,-0.0041521
-5333,0.0021683
-5332,0.0063916
-5331,-0.0078942
-5330,-0.0025749
-5329,0.0066763
-5328,0.0024279
-5327,0.012005
-5326,0.006693
-5325,-0.01141
-5324,-0.013087
-5323,-0.0055833
-5322,0.005517
-5321,0.011159
-5320,0.010084
-5319,0.0094151
-5318,-0.0038371
-5317,-0.016496
-5316,-0.018026
-5315,-0.0021623
-5314,0.0068051
-5313,0.0064786
-5312,0.0090556
-5311,-0.0054624
-5310,-0.011032
-5309,-1.489e-05
-5308,0.0091775
-5307,0.0043545
-5306,-0.0054384
-5305,0.0037079
-5304,-0.0010104
-5303,-0.0065125
-5302,0.011935
-5301,0.0074385
-5300,-0.0064036
-5299,-0.0068152
-5298,-0.01046
-5297,-0.0062705
-5296,0.0043248
-5295,0.0066685
-5294,0.011024
-5293,0.0044063
-5292,-0.0069158
-5291,-0.0029228
-5290,0.0081316
-5289,-0.0010279
-5288,-0.0065508
-5287,-0.0099435
-5286,3.3972e-05
-5285,0.011586
-5284,0.0073637
-5283,-0.0028313
-5282,-0.0092448
-5281,-0.00088172
-5280,0.00054874
-5279,0.0011843
-5278,0.0038816
-5277,0.0071299
-5276,0.0019668
-5275,-0.0082135
-5274,-0.0036188
-5273,-0.00063359
-5272,-0.0091701
-5271,0.0050476
-5270,0.0044746
-5269,-0.0024822
-5268,0.0034157
-5267,0.0031402
-5266,0.0060026
-5265,-0.0072128
-5264,-0.0069749
-5263,0.0070767
-5262,-0.0011943
-5261,-0.0026529
-5260,-0.0015829
-5259,-0.0050676
-5258,0.0054381
-5257,0.0081363
-5256,-0.0038963
-5255,-0.0056622
-5254,-0.001459
-5253,-0.0027936
-5252,0.0097191
-5251,0.012791
-5250,-0.0050789
-5249,-0.0043429
-5248,-0.004226
-5247,-0.0041902
-5246,-0.00099558
-5245,-0.0076102
-5244,0.0065951
-5243,0.022103
-5242,-0.00051235
-5241,-0.014762
-5240,-0.0045234
-5239,-0.0024614
-5238,0.00015421
-5237,0.0068609
-5236,0.0041816
-5235,-0.0042443
-5234,-0.00054136
-5233,-0.0012563
-5232,-0.0046795
-5231,0.0049846
-5230,0.0050771
-5229,2.1038e-05
-5228,-0.0021782
-5227,-0.012488
-5226,-0.0037105
-5225,0.013576
-5224,0.010052
-5223,-0.0023028
-5222,-0.0065253
-5221,0.0025157
-5220,-0.0007966
-5219,-0.0032734
-5218,-0.0026033
-5217,-0.0056942
-5216,0.0045752
-5215,0.0084355
-5214,0.0017774
-5213,-0.0043681
-5212,-0.0034117
-5211,0.0011003
-5210,-0.0026157
-5209,-0.00059395
-5208,0.0042715
-5207,-0.0022512
-5206,0.0036003
-5205,0.010697
-5204,-6.0295e-06
-5203,-0.014238
-5202,-0.010024
-5201,-0.0015592
-5200,0.00062122
-5199,0.010024
-5198,0.013847
-5197,0.0058842
-5196,-0.0061702
-5195,-0.011557
-5194,-0.0093397
-5193,0.0045694
-5192,0.0030467
-5191,0.0060462
-5190,0.017536
-5189,-0.0085121
-5188,-0.017542
-5187,0.0053722
-5186,0.00010011
-5185,-0.0062658
-5184,0.00031688
-5183,0.00056987
-5182,0.0066151
-5181,-0.007022
-5180,-0.0044452
-5179,0.0096325
-5178,0.0012476
-5177,0.0048458
-5176,0.0050241
-5175,-0.0064824
-5174,-0.0010222
-5173,-0.0010078
-5172,-0.0065086
-5171,-0.0023817
-5170,0.0096613
-5169,-0.003228
-5168,-0.0073824
-5167,-0.0014876
-5166,-0.0033082
-5165,0.0098646
-5164,0.0039178
-5163,-0.0041817
-5162,0.0042886
-5161,0.0049239
-5160,0.00047244
-5159,0.0015573
-5158,-0.0022577
-5157,-0.012957
-5156,-0.0064497
-5155,0.013543
-5154,0.0020434
-5153,-0.0040222
-5152,0.00036295
-5151,0.0027124
-5150,0.00032395
-5149,-0.00091837
-5148,-0.0020688
-5147,-0.0021227
-5146,-0.00066746
-5145,0.0013342
-5144,0.0074084
-5143,0.002825
-5142,-0.007642
-5141,-0.0025216
-5140,0.0016195
-5139,-0.0050982
-5138,0.00090058
-5137,0.0022906
-5136,0.002076
-5135,0.008405
-5134,-0.0027103
-5133,-0.0047797
-5132,0.006488
-5131,-0.0066409
-5130,-0.014312
-5129,0.0023362
-5128,0.014861
-5127,0.0047302
-5126,-0.0039449
-5125,-0.0030623
-5124,-0.0018705
-5123,-0.0048136
-5122,0.0010239
-5121,0.0058514
-5120,0.0039076
-5119,0.004199
-5118,0.0014977
-5117,-0.00099185
-5116,-0.0021275
-5115,-0.010952
-5114,-0.0087297
-5113,0.0095175
-5112,0.0024888
-5111,-0.0032319
-5110,0.0056578
-5109,0.0014673
-5108,0.00053457
-5107,0.004789
-5106,-0.00036317
-5105,-0.0077897
-5104,-0.010313
-5103,0.00057174
-5102,0.009733
-5101,0.0018816
-5100,-0.0043386
-5099,-0.00025255
-5098,0.0018343
-5097,-0.0025252
-5096,-0.0037339
-5095,0.0026757
-5094,0.0064237
-5093,1.3729e-05
-5092,7.7718e-06
-5091,0.0021844
-5090,-0.0062575
-5089,-0.0039519
-5088,0.0016506
-5087,0.0060465
-5086,0.0065537
-5085,-0.0097709
-5084,-0.0031696
-5083,0.0061807
-5082,-0.0015392
-5081,0.003423
-5080,-0.0021915
-5079,-0.0071418
-5078,-0.0015841
-5077,0.0013353
-5076,0.0055432
-5075,0.007967
-5074,0.0024912
-5073,-0.0028824
-5072,0.001808
-5071,-0.0069741
-5070,-0.0090559
-5069,-0.0019499
-5068,0.00080845
-5067,0.0051351
-5066,0.00044413
-5065,0.0022025
-5064,0.0047176
-5063,0.00079365
-5062,-0.00294
-5061,-0.005872
-5060,-0.0036444
-5059,0.00092769
-5058,0.0011116
-5057,0.0047172
-5056,-0.00035201
-5055,-0.0050662
-5054,-0.00069149
-5053,0.00083514
-5052,0.0015838
-5051,0.0018364
-5050,0.0068182
-5049,-0.0015429
-5048,-0.0012396
-5047,0.0038874
-5046,-0.0021747
-5045,-0.0054472
-5044,-0.00019136
-5043,0.0051124
-5042,-0.0022482
-5041,-0.0024697
-5040,0.0070143
-5039,-0.0022211
-5038,-0.0016887
-5037,0.0049693
-5036,-0.0059781
-5035,-0.0070572
-5034,0.0026692
-5033,0.0052972
-5032,-0.00099621
-5031,-0.0024505
-5030,0.0049646
-5029,0.0036706
-5028,-0.0045086
-5027,-0.0056364
-5026,-0.00058988
-5025,0.0047827
-5024,-0.0023032
-5023,-0.0022118
-5022,0.0048536
-5021,-0.0015422
-5020,0.00072433
-5019,-0.0022222
-5018,-0.013103
-5017,-0.00014892
-5016,0.0093909
-5015,0.0031951
-5014,0.0076135
-5013,0.0081932
-5012,-0.0087513
-5011,-0.00097979
-5010,0.0081368
-5009,-0.0048102
-5008,-0.0017261
-5007,-0.0032593
-5006,-0.0091506
-5005,0.007952
-5004,0.0041265
-5003,-0.006819
-5002,0.0027698
-5001,0.0021021
-5000,-0.00071066
-4999,0.0009494
-4998,-0.00024799
-4997,-0.0023062
-4996,-0.0042157
-4995,0.0043186
-4994,0.0043059
-4993,-0.0062908
-4992,-0.0093322
-4991,0.0066295
-4990,0.0097381
-4989,-0.010655
-4988,-0.0034169
-4987,0.010328
-4986,0.004312
-4985,-0.0051073
-4984,-0.003541
-4983,-0.00021289
-4982,-0.00041268
-4981,0.0049142
-4980,0.0012144
-4979,-0.0024406
-4978,-0.00054542
-4977,-0.0021213
-4976,0.0080772
-4975,0.0031987
-4974,-0.0063244
-4973,-0.0034516
-4972,0.0024693
-4971,-0.0035779
-4970,-0.0058606
-4969,0.0105
-4968,-0.0036641
-4967,-0.012752
-4966,0.0081239
-4965,0.0080084
-4964,0.0055573
-4963,0.0047189
-4962,-0.0080551
-4961,-0.0063829
-4960,0.0022425
-4959,-0.0060413
-4958,-0.0040402
-4957,0.010313
-4956,0.00060332
-4955,-0.012009
-4954,-0.0049075
-4953,0.0039835
-4952,0.011977
-4951,0.0066063
-4950,-0.0037624
-4949,0.0033305
-4948,-0.00070112
-4947,-0.0049765
-4946,-0.0019601
-4945,0.00024265
-4944,-0.00076837
-4943,0.0034035
-4942,0.0090926
-4941,-0.005276
-4940,-0.0094825
-4939,0.0040468
-4938,-0.0027865
-4937,-0.0071337
-4936,0.0035787
-4935,0.0063967
-4934,0.00039372
-4933,-0.0017545
-4932,0.0014633
-4931,0.0023658
-4930,-0.0023199
-4929,-0.0031221
-4928,0.0070824
-4927,0.0007411
-4926,-0.0047303
-4925,-0.0019668
-4924,-0.0011369
-4923,0.0050552
-4922,0.0042658
-4921,-0.0086716
-4920,-0.0096384
-4919,-0.00031139
-4918,0.0074535
-4917,0.010689
-4916,0.0013252
-4915,-0.0007758
-4914,-0.0030071
-4913,-0.0052659
-4912,-0.0073187
-4911,-0.0016613
-4910,0.0085257
-4909,0.0038989
-4908,-0.0045507
-4907,-0.0052099
-4906,-0.001399
-4905,0.0078361
-4904,0.0038062
-4903,0.005141
-4902,0.012265
-4901,-0.0055925
-4900,-0.014586
-4899,-0.0025173
-4898,0.0049024
-4897,0.0008628
-4896,0.00044614
-4895,0.0016986
-4894,-0.0052653
-4893,-0.0051511
-4892,-0.0028155
-4891,0.0010334
-4890,0.002305
-4889,0.0032419
-4888,0.010001
-4887,0.00026095
-4886,-0.0070462
-4885,-0.00406
-4884,0.00078746
-4883,0.0026063
-4882,-0.004658
-4881,-0.0025347
-4880,0.0030346
-4879,0.0011116
-4878,-0.0025503
-4877,-0.0025329
-4876,0.0056468
-4875,0.0050565
-4874,-0.0015013
-4873,-0.0038905
-4872,-0.0012343
-4871,0.0029199
-4870,0.0061356
-4869,0.0022504
-4868,-0.0032787
-4867,-0.012945
-4866,-0.0053142
-4865,0.013022
-4864,0.002568
-4863,0.0025702
-4862,0.0031962
-4861,-0.013957
-4860,-0.0083772
-4859,-0.00013508
-4858,0.0067528
-4857,0.014509
-4856,0.00147
-4855,-0.0050021
-4854,0.00034457
-4853,0.0015631
-4852,-0.0066245
-4851,0.0079575
-4850,0.0047264
-4849,-0.0071564
-4848,-0.0043232
-4847,-0.0046944
-4846,0.002679
-4845,0.00083208
-4844,0.001119
-4843,0.0012226
-4842,-0.0025288
-4841,0.0007963
-4840,-0.0033294
-4839,0.0019289
-4838,0.010175
-4837,0.00019743
-4836,-0.0067539
-4835,-0.0035564
-4834,0.0010929
-4833,0.0024806
-4832,0.00059186
-4831,-1.4361e-05
-4830,-0.0034253
-4829,-0.0067405
-4828,-0.0014816
-4827,0.0028468
-4826,0.0042781
-4825,-0.0030624
-4824,0.0030955
-4823,0.0068315
-4822,0.000345
-4821,0.0012341
-4820,-0.0022888
-4819,-0.00735
-4818,-0.0040639
-4817,0.0011059
-4816,0.010826
-4815,0.011842
-4814,0.0011541
-4813,-0.011288
-4812,-0.013548
-4811,-0.0015996
-4810,0.0061481
-4809,0.0060316
-4808,-0.0023919
-4807,-0.0067034
-4806,-0.00099897
-4805,0.0041006
-4804,0.0083651
-4803,0.0024679
-4802,-0.0057444
-4801,-0.0012309
-4800,0.0087903
-4799,0.00010589
-4798,-0.016285
-4797,-0.0071544
-4796,0.0046165
-4795,0.014417
-4794,5.1876e-05
-4793,-0.013512
-4792,0.0069712
-4791,0.011299
-4790,-0.007207
-4789,-0.0085764
-4788,0.005548
-4787,0.0018992
-4786,-0.0072166
-4785,0.0002596
-4784,0.0027865
-4783,0.008477
-4782,-0.0010894
-4781,-0.010507
-4780,-0.0021689
-4779,0.0027734
-4778,0.0064467
-4777,-0.0017845
-4776,-0.0015401
-4775,0.0022715
-4774,-0.0001291
-4773,-0.0020293
-4772,-0.0021863
-4771,-0.0019736
-4770,0.0027645
-4769,0.0027458
-4768,0.0071573
-4767,0.0067251
-4766,-0.007686
-4765,-0.012933
-4764,-0.00077434
-4763,0.0008256
-4762,0.0072489
-4761,0.0078267
-4760,-0.003749
-4759,-0.0027738
-4758,0.0056291
-4757,-0.0063637
-4756,-0.014554
-4755,0.0093035
-4754,0.019255
-4753,0.0067313
-4752,-0.010138
-4751,-0.012138
-4750,-0.0096122
-4749,-0.013356
-4748,-0.0047479
-4747,0.014715
-4746,0.024542
-4745,0.0036514
-4744,-0.015666
-4743,-0.0025652
-4742,0.0071413
-4741,0.0046603
-4740,0.0061971
-4739,0.0017248
-4738,-0.01214
-4737,-0.012005
-4736,-0.0031602
-4735,-0.0040166
-4734,-0.0031823
-4733,0.006962
-4732,0.0077787
-4731,0.010507
-4730,0.0090746
-4729,-0.0074492
-4728,-0.011394
-4727,0.0047078
-4726,0.0031603
-4725,-3.8366e-05
-4724,0.0017118
-4723,-0.0059022
-4722,-0.0014417
-4721,-0.0071173
-4720,-0.00089116
-4719,0.0080032
-4718,-0.005532
-4717,-0.0091085
-4716,0.0070446
-4715,0.0085249
-4714,0.0026482
-4713,0.0087972
-4712,0.0017039
-4711,-0.00069727
-4710,-0.0025351
-4709,-0.0042398
-4708,-0.003628
-4707,-0.0086615
-4706,0.00092957
-4705,0.0043641
-4704,0.007957
-4703,0.0063323
-4702,-0.0094838
-4701,-0.016743
-4700,-0.008202
-4699,0.012863
-4698,0.014611
-4697,-0.00049869
-4696,-0.0037052
-4695,-0.0082605
-4694,0.0010504
-4693,0.0063808
-4692,0.00078673
-4691,-0.0028107
-4690,-0.0034391
-4689,0.0058918
-4688,0.0060987
-4687,-0.0017686
-4686,-0.00641
-4685,-0.0030432
-4684,0.0012402
-4683,0.00028127
-4682,0.0025087
-4681,0.0044085
-4680,0.0008815
-4679,-0.0033991
-4678,0.0003341
-4677,-0.0076017
-4676,-0.011073
-4675,0.007486
-4674,0.011417
-4673,0.0041577
-4672,0.00035999
-4671,-0.0017806
-4670,-0.0029399
-4669,-0.013636
-4668,-0.0090727
-4667,0.016156
-4666,0.023952
-4665,0.0018684
-4664,-0.016752
-4663,-0.015476
-4662,-0.0065143
-4661,0.01577
-4660,0.016056
-4659,-0.0071555
-4658,-0.015378
-4657,0.0038254
-4656,-0.0022432
-4655,-0.012681
-4654,0.0046246
-4653,0.0090726
-4652,0.0085347
-4651,0.015492
-4650,0.0051595
-4649,-0.019062
-4648,-0.021239
-4647,0.0064007
-4646,0.018681
-4645,-0.00698
-4644,-0.018235
-4643,0.0062177
-4642,0.0095285
-4641,-0.0097432
-4640,0.0068391
-4639,0.017135
-4638,0.0021326
-4637,-0.011316
-4636,-0.011284
-4635,-0.0023
-4634,0.0039242
-4633,0.012417
-4632,0.0043955
-4631,-0.0038281
-4630,-0.0098152
-4629,-0.011589
-4628,0.0050297
-4627,0.0099532
-4626,0.00043271
-4625,-0.00028878
-4624,0.0045047
-4623,-0.0029583
-4622,-0.010027
-4621,-0.00097443
-4620,0.00019422
-4619,0.0069646
-4618,0.013085
-4617,-0.0053188
-4616,-0.0079295
-4615,-0.00023865
-4614,0.00035854
-4613,-0.0066861
-4612,-0.0022424
-4611,0.014441
-4610,0.0029601
-4609,-0.0036714
-4608,0.004507
-4607,-0.0013545
-4606,-0.011057
-4605,-0.011463
-4604,0.0041038
-4603,0.011627
-4602,0.0066694
-4601,-0.0041545
-4600,-0.0071959
-4599,-0.0054333
-4598,0.0015959
-4597,0.010224
-4596,0.0098294
-4595,0.0048168
-4594,-0.0045164
-4593,-0.0094171
-4592,-0.0047999
-4591,-0.0077098
-4590,-0.0069722
-4589,0.010611
-4588,0.0048267
-4587,0.001203
-4586,0.0068647
-4585,-0.0046198
-4584,-0.0068541
-4583,0.0075963
-4582,0.01245
-4581,-0.0072851
-4580,-0.012499
-4579,0.0079659
-4578,-0.0017241
-4577,-0.0075252
-4576,0.0049605
-4575,0.0024504
-4574,-0.0020864
-4573,-0.014379
-4572,-0.00749
-4571,0.0097706
-4570,0.017693
-4569,0.011692
-4568,-0.0034583
-4567,-0.013852
-4566,-0.0050954
-4565,0.0092661
-4564,-0.0023828
-4563,-0.012185
-4562,0.0069142
-4561,0.013806
-4560,0.00044998
-4559,-0.003395
-4558,-0.011352
-4557,-0.014859
-4556,-0.0043124
-4555,0.015948
-4554,0.019834
-4553,0.0076764
-4552,-0.010348
-4551,-0.0041146
-4550,-0.0066507
-4549,-0.015328
-4548,0.0023516
-4547,0.019917
-4546,0.007759
-4545,0.00058666
-4544,-0.0027735
-4543,-0.015615
-4542,-0.0076342
-4541,-0.0018648
-4540,0.0022229
-4539,0.015119
-4538,0.013141
-4537,-0.0098838
-4536,-0.011197
-4535,-0.0026955
-4534,-0.014371
-4533,0.0053512
-4532,0.027899
-4531,0.003919
-4530,-0.01605
-4529,-0.0022308
-4528,0.0049591
-4527,-0.010357
-4526,-0.0048245
-4525,0.0070312
-4524,0.0086176
-4523,0.0058053
-4522,-0.0081632
-4521,-0.010099
-4520,0.0068551
-4519,0.0050771
-4518,-0.0024929
-4517,-0.0021692
-4516,0.0022508
-4515,-0.00044226
-4514,0.0067134
-4513,0.0031576
-4512,-0.0059952
-4511,-0.0088697
-4510,0.0032478
-4509,0.0011479
-4508,-0.0029395
-4507,0.00013077
-4506,0.00089186
-4505,0.0015097
-4504,-0.010021
-4503,0.006038
-4502,0.014096
-4501,0.0036132
-4500,-0.005331
-4499,0.0014534
-4498,-0.00098643
-4497,-0.0075938
-4496,0.0014722
-4495,0.010527
-4494,-0.0015855
-4493,0.00088753
-4492,-0.0068667
-4491,-0.0082164
-4490,-0.0021002
-4489,-0.0045336
-4488,0.0022812
-4487,0.0094164
-4486,0.0045186
-4485,-0.0057147
-4484,-0.0056557
-4483,0.00061662
-4482,0.0053883
-4481,0.0036674
-4480,0.0040968
-4479,-0.0071939
-4478,-0.010058
-4477,-0.0041851
-4476,-0.00029734
-4475,0.015482
-4474,0.0059958
-4473,-0.0088373
-4472,0.00098845
-4471,0.0067659
-4470,-0.0049958
-4469,-0.016549
-4468,0.006791
-4467,0.011601
-4466,-0.0067706
-4465,-0.003073
-4464,0.0012176
-4463,-0.0005722
-4462,-0.0027935
-4461,0.004653
-4460,0.0052345
-4459,0.0021605
-4458,-0.002429
-4457,-0.0024847
-4456,-0.0022765
-4455,-0.0087506
-4454,0.0091624
-4453,0.0062004
-4452,0.0058254
-4451,0.013839
-4450,0.0034859
-4449,-0.011113
-4448,-0.017649
-4447,-0.0025832
-4446,0.0012466
-4445,-0.0041847
-4444,0.0024004
-4443,2.5669e-05
-4442,-0.0023783
-4441,0.002481
-4440,0.0055524
-4439,0.0066994
-4438,-0.0065606
-4437,-0.0036623
-4436,0.014438
-4435,0.010214
-4434,-0.0070541
-4433,-0.0081269
-4432,-0.003909
-4431,-0.011415
-4430,-0.010287
-4429,0.0048591
-4428,0.0082028
-4427,0.00049432
-4426,-0.01196
-4425,0.0086198
-4424,0.022491
-4423,0.003925
-4422,0.0017686
-4421,-0.006294
-4420,-0.0076805
-4419,-0.0059059
-4418,-0.0087034
-4417,0.015139
-4416,0.0054238
-4415,-0.012234
-4414,0.00071116
-4413,-0.0018209
-4412,-0.010497
-4411,0.0080553
-4410,0.0058039
-4409,-0.012211
-4408,0.0075929
-4407,-0.0029339
-4406,-0.013561
-4405,0.015251
-4404,0.018685
-4403,0.00043585
-4402,-0.0046662
-4401,-0.0053031
-4400,-0.010671
-4399,-0.001549
-4398,0.013295
-4397,0.0065238
-4396,-0.00029607
-4395,5.2136e-05
-4394,-0.012577
-4393,-0.012431
-4392,-0.0062345
-4391,0.0028997
-4390,0.011257
-4389,-0.0010436
-4388,0.008424
-4387,0.011867
-4386,-0.0030796
-4385,0.0049886
-4384,-0.0033173
-4383,-0.017149
-4382,-0.0096426
-4381,0.00084994
-4380,-0.00050621
-4379,0.01299
-4378,0.014269
-4377,-0.0098531
-4376,-0.011399
-4375,0.0045252
-4374,0.0039199
-4373,-0.0086056
-4372,-0.0019084
-4371,0.0098204
-4370,0.0089183
-4369,0.0019634
-4368,-0.011538
-4367,-0.017627
-4366,-0.0056533
-4365,0.008272
-4364,0.017477
-4363,0.0031213
-4362,-0.0020468
-4361,0.01693
-4360,-0.0018617
-4359,-0.013662
-4358,0.006569
-4357,0.0024333
-4356,0.0012476
-4355,-0.0012938
-4354,-0.022179
-4353,-0.0038203
-4352,0.019414
-4351,0.0024371
-4350,-0.0086425
-4349,-0.0016811
-4348,-0.0028974
-4347,-0.00022772
-4346,0.0045474
-4345,0.0088782
-4344,-0.0059809
-4343,-0.0097761
-4342,0.0094745
-4341,0.00059501
-4340,-0.0051447
-4339,0.0040332
-4338,0.0021454
-4337,0.0052075
-4336,0.0028548
-4335,-0.010344
-4334,-0.0085003
-4333,-0.003506
-4332,-0.0084364
-4331,-0.0072845
-4330,0.0058695
-4329,0.005121
-4328,0.011614
-4327,0.015834
-4326,-0.0070531
-4325,-0.013045
-4324,0.0071642
-4323,0.010585
-4322,0.0065326
-4321,-0.005092
-4320,-0.012982
-4319,-2.5389e-05
-4318,-0.0008563
-4317,-0.0033937
-4316,0.0099035
-4315,0.011158
-4314,0.00024886
-4313,-0.0066831
-4312,-0.0091991
-4311,-0.016588
-4310,-0.00071759
-4309,0.028519
-4308,0.0065309
-4307,-0.0056115
-4306,0.0055359
-4305,-0.0054634
-4304,-0.016614
-4303,-0.016926
-4302,-0.0035698
-4301,0.013635
-4300,0.015952
-4299,-0.0083433
-4298,-0.010047
-4297,0.0047052
-4296,0.0015795
-4295,0.0035342
-4294,0.0040991
-4293,0.0057258
-4292,0.0034621
-4291,0.0029399
-4290,-0.002695
-4289,-0.017523
-4288,-0.010077
-4287,0.0014462
-4286,0.0033313
-4285,0.012852
-4284,0.0089317
-4283,0.0075604
-4282,0.0041687
-4281,-0.015922
-4280,-0.0082127
-4279,-0.0035057
-4278,0.00037257
-4277,0.016887
-4276,0.0080437
-4275,-0.0075935
-4274,-0.0099684
-4273,-0.0051193
-4272,-0.0050071
-4271,-0.0024692
-4270,0.01497
-4269,0.013768
-4268,-0.0083797
-4267,-0.014906
-4266,-0.0037877
-4265,0.0037314
-4264,0.0071658
-4263,0.012138
-4262,-0.0041848
-4261,-0.01043
-4260,0.0032345
-4259,0.00045337
-4258,-0.0012739
-4257,0.00058241
-4256,-0.0019852
-4255,-0.0091294
-4254,-0.0012763
-4253,0.016024
-4252,-0.00013237
-4251,-0.0062681
-4250,0.010967
-4249,-0.0019118
-4248,-0.013125
-4247,0.00056643
-4246,0.0038972
-4245,0.0037647
-4244,0.0044223
-4243,0.0016359
-4242,-0.00016406
-4241,-0.0027424
-4240,-0.010648
-4239,-0.01137
-4238,-0.0010291
-4237,0.011176
-4236,0.011723
-4235,-0.0034313
-4234,-0.00043831
-4233,0.004124
-4232,-0.004743
-4231,-0.0064156
-4230,-0.0017269
-4229,0.0043247
-4228,0.01063
-4227,0.012541
-4226,-0.011789
-4225,-0.026041
-4224,-0.0084388
-4223,0.013756
-4222,0.013513
-4221,-0.0044035
-4220,0.0014552
-4219,0.0075226
-4218,-0.0014181
-4217,-0.0018014
-4216,0.0053807
-4215,-0.0025405
-4214,-0.011932
-4213,-0.0055846
-4212,0.010992
-4211,0.0088608
-4210,-0.0006046
-4209,-0.0014374
-4208,0.0065219
-4207,-0.0040822
-4206,-0.013683
-4205,0.0057307
-4204,0.011806
-4203,-0.0075263
-4202,-0.010721
-4201,-0.0058108
-4200,-0.0023411
-4199,0.011433
-4198,0.0046911
-4197,0.0029503
-4196,0.0002669
-4195,-0.012234
-4194,-0.0059868
-4193,0.0092905
-4192,0.011767
-4191,0.0011851
-4190,-0.0058749
-4189,0.0033902
-4188,-0.0048456
-4187,-0.013428
-4186,0.011435
-4185,0.022006
-4184,-0.0075729
-4183,-0.024942
-4182,0.0072006
-4181,0.0022928
-4180,-0.0055035
-4179,0.012042
-4178,0.0048588
-4177,-0.0096597
-4176,-0.0039323
-4175,0.0054889
-4174,0.0034574
-4173,-0.00068636
-4172,-0.0081908
-4171,-0.00030581
-4170,0.0015409
-4169,0.0059146
-4168,0.00040374
-4167,-0.0064075
-4166,-0.0003515
-4165,-0.00047826
-4164,0.0045752
-4163,0.01171
-4162,-0.011416
-4161,-0.013628
-4160,0.010671
-4159,-0.00020788
-4158,-0.0077736
-4157,0.0095612
-4156,0.0013834
-4155,-0.010854
-4154,0.0028269
-4153,0.0035251
-4152,-0.0079741
-4151,0.0044473
-4150,0.018535
-4149,-0.0025447
-4148,-0.0081078
-4147,0.0046232
-4146,0.0052471
-4145,-0.0018008
-4144,-0.0019356
-4143,-0.0048573
-4142,-0.015285
-4141,0.0018206
-4140,0.0072224
-4139,-0.0061998
-4138,0.0011843
-4137,-0.0025051
-4136,0.0051625
-4135,0.02054
-4134,-0.0031515
-4133,-0.017371
-4132,0.0027283
-4131,0.0025265
-4130,6.5844e-05
-4129,0.015797
-4128,-0.0082065
-4127,-0.021822
-4126,0.014785
-4125,0.010157
-4124,-0.021228
-4123,0.0045785
-4122,0.0095018
-4121,-0.0059051
-4120,0.012519
-4119,0.0045872
-4118,-0.0182
-4117,-0.0097981
-4116,0.021265
-4115,0.0082235
-4114,-0.016877
-4113,0.00067268
-4112,0.0024889
-4111,-0.0087052
-4110,-0.010712
-4109,0.0057855
-4108,0.012578
-4107,0.0083816
-4106,0.0045063
-4105,-0.0017024
-4104,-0.0075998
-4103,-0.0035449
-4102,-0.0028753
-4101,-0.0052741
-4100,0.005747
-4099,0.0058725
-4098,-0.0018524
-4097,0.0033366
-4096,0.0022736
-4095,-0.018293
-4094,-0.0066488
-4093,0.0093078
-4092,0.0013817
-4091,0.013728
-4090,0.012457
-4089,-0.019923
-4088,-0.0070599
-4087,0.0073929
-4086,-0.0028782
-4085,0.0040436
-4084,-0.0036389
-4083,-0.0060994
-4082,0.0024381
-4081,0.0069177
-4080,0.0077857
-4079,-0.0038597
-4078,-0.0011502
-4077,0.0066486
-4076,-0.0082629
-4075,-0.0084074
-4074,8.1671e-05
-4073,-0.0038831
-4072,-0.0090785
-4071,0.011402
-4070,0.02309
-4069,0.0018567
-4068,-0.019416
-4067,-0.0014849
-4066,0.011318
-4065,-0.01391
-4064,-0.0011081
-4063,0.0043311
-4062,-0.0066652
-4061,0.0015514
-4060,0.0029656
-4059,0.0042386
-4058,0.0031303
-4057,-0.00039257
-4056,0.0074827
-4055,0.0017993
-4054,-0.0027376
-4053,-0.0021931
-4052,0.0042029
-4051,0.0030445
-4050,-0.0055762
-4049,-0.014439
-4048,-0.0055156
-4047,0.0069952
-4046,-0.0049842
-4045,0.0053146
-4044,0.011935
-4043,-0.0025034
-4042,0.0051936
-4041,-0.0047739
-4040,-0.018022
-4039,-0.0051438
-4038,0.0114
-4037,0.016491
-4036,-0.0037678
-4035,-0.010516
-4034,0.004084
-4033,-0.0037528
-4032,-0.0050716
-4031,0.0069099
-4030,-0.0057314
-4029,-0.009208
-4028,0.017154
-4027,0.01916
-4026,-0.014897
-4025,-0.009124
-4024,0.0069697
-4023,0.0087836
-4022,-0.006633
-4021,-0.016788
-4020,-0.0025232
-4019,0.0068949
-4018,0.0072764
-4017,-0.0013675
-4016,0.011266
-4015,0.004782
-4014,-0.0022708
-4013,0.0041824
-4012,-0.015324
-4011,-0.013316
-4010,0.0084214
-4009,0.00091465
-4008,0.0014838
-4007,-0.00088735
-4006,-0.00029429
-4005,0.011457
-4004,0.0053489
-4003,-0.0070938
-4002,-0.0075563
-4001,0.0016011
-4000,0.011008
-3999,0.0083017
-3998,-0.015674
-3997,-0.014345
-3996,-0.00076823
-3995,0.0019788
-3994,-0.0021822
-3993,0.001156
-3992,0.010989
-3991,0.0040474
-3990,-0.011283
-3989,-0.0037627
-3988,0.0068909
-3987,-0.0011926
-3986,-0.00051222
-3985,0.0055693
-3984,-0.0021759
-3983,-0.0042977
-3982,-0.0062872
-3981,0.0069702
-3980,0.010465
-3979,-0.0026939
-3978,0.0087983
-3977,-0.011022
-3976,-0.0088952
-3975,0.024466
-3974,0.0096807
-3973,-0.012949
-3972,-0.00067655
-3971,-0.0032043
-3970,-0.013901
-3969,-0.0033873
-3968,-0.0012892
-3967,-0.0021818
-3966,0.0085767
-3965,0.001328
-3964,-0.0018123
-3963,0.0061168
-3962,-0.0024228
-3961,0.0047657
-3960,0.0022401
-3959,-0.010353
-3958,-0.011692
-3957,0.0032592
-3956,0.011853
-3955,0.0049933
-3954,-0.0024424
-3953,0.0050959
-3952,0.00044081
-3951,-0.011421
-3950,-0.0053282
-3949,-0.015276
-3948,0.00060758
-3947,0.027672
-3946,0.004001
-3945,-0.0085442
-3944,0.0020141
-3943,0.0020975
-3942,-0.00075023
-3941,0.0061091
-3940,0.0085608
-3939,-0.0095714
-3938,-0.0096853
-3937,0.001191
-3936,-0.00041133
-3935,-0.0030994
-3934,0.0017831
-3933,0.0045557
-3932,0.002059
-3931,-0.0069549
-3930,5.8346e-05
-3929,0.0060685
-3928,-0.01041
-3927,0.00024105
-3926,0.0078945
-3925,-0.0058458
-3924,-0.0045022
-3923,0.0080761
-3922,0.0087608
-3921,-0.003959
-3920,0.0045131
-3919,0.0025311
-3918,-0.016914
-3917,-0.0019037
-3916,0.011947
-3915,-0.00068275
-3914,-0.0078069
-3913,-0.0017615
-3912,0.0019388
-3911,-0.0044358
-3910,0.0041519
-3909,0.0049729
-3908,-0.011307
-3907,-0.0018036
-3906,0.010498
-3905,0.011189
-3904,-0.0047331
-3903,-0.0023114
-3902,0.0050616
-3901,-0.0025537
-3900,0.0019347
-3899,-0.015464
-3898,-0.0053898
-3897,0.019708
-3896,0.010215
-3895,0.00092756
-3894,-0.00041357
-3893,-0.015856
-3892,-0.005913
-3891,6.2964e-05
-3890,-0.006492
-3889,0.00044111
-3888,0.0066833
-3887,0.0061963
-3886,-0.0014881
-3885,-0.012879
-3884,-0.0066358
-3883,0.015277
-3882,0.01451
-3881,-0.0024752
-3880,-0.0091681
-3879,0.00072722
-3878,0.0057597
-3877,0.0063454
-3876,0.0009254
-3875,-0.010628
-3874,-0.0050277
-3873,0.00016214
-3872,-0.0018249
-3871,-0.001942
-3870,0.00015397
-3869,0.012457
-3868,0.0029729
-3867,-0.014285
-3866,-0.002838
-3865,0.0068475
-3864,0.0035228
-3863,0.0078274
-3862,0.0016232
-3861,-0.011971
-3860,-0.0036495
-3859,0.0071237
-3858,-0.00044772
-3857,0.0061815
-3856,0.0095194
-3855,-0.018716
-3854,-0.013722
-3853,0.0064557
-3852,-0.0016914
-3851,-0.0060193
-3850,0.012102
-3849,0.0076486
-3848,0.0048311
-3847,0.0031325
-3846,-0.014888
-3845,-0.0027674
-3844,0.011547
-3843,-0.0031523
-3842,-0.0028665
-3841,-0.0042783
-3840,-0.0064874
-3839,0.010156
-3838,-0.0046192
-3837,-0.0074213
-3836,0.014687
-3835,0.029001
-3834,-0.003666
-3833,-0.033469
-3832,-0.015287
-3831,0.003661
-3830,0.0043328
-3829,0.0077862
-3828,0.0090867
-3827,0.00302
-3826,-0.0069396
-3825,0.010015
-3824,0.0017043
-3823,-0.011043
-3822,0.0030266
-3821,-0.0021589
-3820,1.9979e-05
-3819,0.0028995
-3818,-0.00015497
-3817,-0.0037043
-3816,-0.0084627
-3815,-0.0037885
-3814,0.0073773
-3813,0.0083056
-3812,-0.0053882
-3811,-0.012052
-3810,0.00087569
-3809,0.0063529
-3808,-0.0010381
-3807,-0.0004814
-3806,0.011199
-3805,0.011895
-3804,-0.0068465
-3803,-0.0020157
-3802,0.0024328
-3801,-0.0070081
-3800,-0.0070525
-3799,0.0055057
-3798,0.0081373
-3797,-0.010042
-3796,-0.0083285
-3795,0.001808
-3794,0.0061145
-3793,0.0038712
-3792,0.010377
-3791,-0.0037347
-3790,-0.027276
-3789,0.0032999
-3788,0.026722
-3787,0.0040996
-3786,-0.010235
-3785,-0.000815
-3784,0.00046882
-3783,-0.0087677
-3782,-0.0065833
-3781,0.0074862
-3780,0.0058496
-3779,0.0041456
-3778,0.00043798
-3777,-0.018529
-3776,-0.0086954
-3775,0.011657
-3774,-0.00010053
-3773,0.0062033
-3772,0.01675
-3771,-0.014341
-3770,-0.012174
-3769,0.012813
-3768,0.012642
-3767,0.0044143
-3766,-0.0021304
-3765,-0.0035945
-3764,-0.0081332
-3763,-0.0090641
-3762,0.0089702
-3761,0.0046687
-3760,-0.0057985
-3759,0.0052706
-3758,-0.0044283
-3757,-0.012473
-3756,0.0040155
-3755,-0.00074038
-3754,-0.0043171
-3753,0.0076294
-3752,0.0038472
-3751,-0.010075
-3750,-0.016018
-3749,0.0089883
-3748,0.014271
-3747,0.0026036
-3746,0.012628
-3745,0.011741
-3744,-0.010251
-3743,-0.0091787
-3742,0.010733
-3741,-0.011938
-3740,-0.016999
-3739,-0.00061401
-3738,0.0001621
-3737,0.0011267
-3736,0.0043114
-3735,0.0030794
-3734,0.0017797
-3733,0.007338
-3732,0.0022682
-3731,-0.0022959
-3730,-0.00087889
-3729,-0.0092736
-3728,-0.0010967
-3727,0.0047411
-3726,-0.0035234
-3725,0.00056213
-3724,-0.0048401
-3723,0.0051466
-3722,0.0077892
-3721,0.0010655
-3720,0.011043
-3719,0.0081949
-3718,-0.015221
-3717,-0.011403
-3716,-0.00019719
-3715,-0.0086335
-3714,-0.00031774
-3713,-0.0027682
-3712,0.0099317
-3711,0.020369
-3710,0.0011095
-3709,-0.010363
-3708,-0.017627
-3707,-0.0067784
-3706,0.013385
-3705,0.012206
-3704,0.00045595
-3703,-0.0058315
-3702,-0.0081445
-3701,-0.0052786
-3700,0.0069003
-3699,0.0072932
-3698,-0.0070703
-3697,0.0013546
-3696,0.0083343
-3695,0.0011303
-3694,0.0010285
-3693,-0.00039205
-3692,0.00012886
-3691,0.00044862
-3690,-0.012266
-3689,-0.010651
-3688,0.011398
-3687,0.010605
-3686,-0.011233
-3685,-0.011324
-3684,0.0073766
-3683,0.015226
-3682,0.0015912
-3681,-0.0081455
-3680,-0.0073258
-3679,-0.0066295
-3678,0.0059797
-3677,0.011988
-3676,1.6861e-05
-3675,0.0040865
-3674,0.00086267
-3673,-0.0067134
-3672,-0.00551
-3671,0.0020682
-3670,0.0038289
-3669,-0.0068914
-3668,0.0019678
-3667,0.0026014
-3666,-0.013537
-3665,0.0030418
-3664,0.014749
-3663,-0.0051154
-3662,-0.0033737
-3661,0.0079156
-3660,0.0032742
-3659,0.0056661
-3658,-0.0050474
-3657,-0.013638
-3656,0.0092908
-3655,0.0017527
-3654,-0.0092711
-3653,-0.011813
-3652,-0.0088583
-3651,0.013034
-3650,0.022107
-3649,0.0085111
-3648,-0.010994
-3647,-0.0083796
-3646,0.00097255
-3645,0.00017024
-3644,-0.0071665
-3643,-0.0053206
-3642,0.013883
-3641,0.0093247
-3640,0.0004284
-3639,-0.0056599
-3638,-0.0033267
-3637,-0.0073252
-3636,-0.0081436
-3635,0.013566
-3634,0.0036089
-3633,-0.0023575
-3632,-0.0079316
-3631,0.0027434
-3630,0.012628
-3629,-0.01505
-3628,-0.0058527
-3627,0.0035019
-3626,0.0049152
-3625,0.003581
-3624,-0.00025913
-3623,0.0040961
-3622,0.00046032
-3621,-0.0011849
-3620,-0.0054833
-3619,0.0023336
-3618,0.010981
-3617,0.0051578
-3616,0.004866
-3615,-0.011502
-3614,-0.01948
-3613,-0.0057097
-3612,0.0090025
-3611,0.0017852
-3610,-0.011974
-3609,-0.0014527
-3608,0.010195
-3607,0.0018907
-3606,-0.0098176
-3605,0.0010074
-3604,0.0027832
-3603,0.0060758
-3602,-0.00049441
-3601,0.0019951
-3600,0.0047843
-3599,-0.0039188
-3598,-0.0012991
-3597,0.0050006
-3596,0.01661
-3595,0.00059013
-3594,-0.016601
-3593,9.4243e-06
-3592,0.005855
-3591,-0.0030917
-3590,0.0023582
-3589,0.0038589
-3588,-0.0058546
-3587,-0.016029
-3586,-0.0023302
-3585,-0.0056433
-3584,0.0019642
-3583,0.017236
-3582,0.010147
-3581,-0.002379
-3580,-0.0081666
-3579,0.0023207
-3578,0.0050464
-3577,0.0034948
-3576,0.0045692
-3575,-0.007317
-3574,-0.013807
-3573,0.00037313
-3572,0.0021669
-3571,-0.010012
-3570,0.014274
-3569,0.022834
-3568,-0.0073888
-3567,-0.0083474
-3566,0.0064944
-3565,-0.02469
-3564,-0.021514
-3563,0.013124
-3562,0.0079106
-3561,-0.006958
-3560,0.0019201
-3559,0.013396
-3558,0.0019676
-3557,0.0023493
-3556,0.015182
-3555,0.010563
-3554,-0.011095
-3553,-0.0097705
-3552,-0.012506
-3551,-0.00038773
-3550,0.015995
-3549,-0.0036889
-3548,-0.0076234
-3547,0.0094394
-3546,0.0037537
-3545,-0.013618
-3544,-0.018089
-3543,-0.0092211
-3542,0.01506
-3541,0.0067984
-3540,-0.01098
-3539,0.0065957
-3538,0.016182
-3537,-0.0059605
-3536,-0.013187
-3535,0.018168
-3534,0.0096817
-3533,-0.011091
-3532,0.0083753
-3531,0.0001769
-3530,-0.011351
-3529,-0.0043849
-3528,0.012216
-3527,0.0091004
-3526,-0.01756
-3525,-0.015023
-3524,0.0015033
-3523,0.0029993
-3522,0.0032826
-3521,0.0017976
-3520,0.011577
-3519,0.021562
-3518,-0.0028029
-3517,-0.025368
-3516,-0.011177
-3515,0.0084585
-3514,0.00082147
-3513,0.0028557
-3512,0.0054389
-3511,-0.0084434
-3510,-0.0033994
-3509,0.011017
-3508,-0.0024725
-3507,-0.012974
-3506,0.003918
-3505,0.015905
-3504,0.00058482
-3503,0.0019783
-3502,-0.0037345
-3501,-0.007629
-3500,0.015346
-3499,0.0033176
-3498,-0.014104
-3497,-0.0070948
-3496,-0.0048106
-3495,-0.011032
-3494,0.013547
-3493,0.023947
-3492,-0.0059423
-3491,-0.0059512
-3490,0.0055663
-3489,-0.01055
-3488,-0.0092306
-3487,0.0044189
-3486,0.0053505
-3485,0.0063943
-3484,-0.0025581
-3483,-0.011887
-3482,-0.012009
-3481,-0.0044262
-3480,-0.0025687
-3479,0.013849
-3478,0.018005
-3477,0.0017184
-3476,-0.001427
-3475,0.005803
-3474,-0.0080491
-3473,-0.0080258
-3472,0.0085091
-3471,-0.0055419
-3470,-0.012729
-3469,-0.0037467
-3468,0.0082458
-3467,0.01456
-3466,0.0089968
-3465,0.0022792
-3464,-0.016959
-3463,-0.0047569
-3462,0.0090349
-3461,-0.012056
-3460,-0.0061572
-3459,0.00040528
-3458,0.016551
-3457,0.014655
-3456,-0.020959
-3455,0.0013816
-3454,0.005777
-3453,-0.013681
-3452,-0.0015447
-3451,0.015554
-3450,0.00047454
-3449,-0.0096544
-3448,0.012007
-3447,0.0023627
-3446,-0.017614
-3445,-0.01196
-3444,0.0090056
-3443,0.0060106
-3442,-0.011449
-3441,-0.001644
-3440,0.016038
-3439,0.017132
-3438,-0.0095814
-3437,-0.0072513
-3436,0.00021297
-3435,-0.0028082
-3434,-0.0061192
-3433,0.00029045
-3432,0.023046
-3431,0.0058295
-3430,-0.011945
-3429,-0.017596
-3428,-0.00043994
-3427,0.0026221
-3426,-0.0013314
-3425,0.023178
-3424,0.013072
-3423,-8.5535e-05
-3422,-0.001353
-3421,-0.011835
-3420,-0.011666
-3419,-0.0064702
-3418,0.0046258
-3417,0.0073743
-3416,-0.0063913
-3415,-0.0074855
-3414,-0.0090496
-3413,0.001763
-3412,0.0014408
-3411,0.00047655
-3410,0.01002
-3409,-0.011269
-3408,-0.0092801
-3407,0.010734
-3406,0.011485
-3405,0.0052186
-3404,-0.0087021
-3403,-0.0012578
-3402,0.0043874
-3401,-7.0805e-05
-3400,-0.0075072
-3399,-0.0072789
-3398,0.0053019
-3397,0.010535
-3396,0.006881
-3395,0.00012438
-3394,-0.0012009
-3393,0.0075143
-3392,0.0089862
-3391,-0.011644
-3390,-0.01004
-3389,0.0071374
-3388,-0.0024325
-3387,-7.7405e-05
-3386,-0.0019765
-3385,0.00074984
-3384,-0.0037889
-3383,-0.0094915
-3382,0.0038508
-3381,0.0013441
-3380,-0.00055405
-3379,0.0035826
-3378,0.0094957
-3377,-0.005439
-3376,-0.014037
-3375,0.006045
-3374,0.0087135
-3373,-0.01047
-3372,-0.0019739
-3371,0.0073687
-3370,0.0041828
-3369,-0.0017351
-3368,-0.0082596
-3367,0.0059037
-3366,-0.0016205
-3365,-0.0031687
-3364,0.0043222
-3363,-0.001395
-3362,0.010125
-3361,0.0080885
-3360,-0.0010413
-3359,-0.00076056
-3358,-0.011537
-3357,-0.021974
-3356,-0.008552
-3355,0.019287
-3354,-0.00056847
-3353,0.003294
-3352,0.0082544
-3351,-0.0041925
-3350,0.0054405
-3349,-0.00029563
-3348,-0.00077969
-3347,0.001974
-3346,-0.00235
-3345,-0.00043827
-3344,0.005405
-3343,-0.0033936
-3342,-0.0074544
-3341,0.0066177
-3340,0.013782
-3339,0.00052814
-3338,-0.019614
-3337,-0.0020076
-3336,0.0053175
-3335,-0.0077442
-3334,0.013908
-3333,0.0089581
-3332,-0.0029043
-3331,-0.018683
-3330,-0.022335
-3329,0.0040957
-3328,0.012161
-3327,0.017872
-3326,0.0025046
-3325,-0.011426
-3324,0.0009229
-3323,-0.0031959
-3322,-0.0066272
-3321,0.0059186
-3320,0.011148
-3319,-0.0041687
-3318,-0.0078488
-3317,0.010184
-3316,0.003776
-3315,-0.0074357
-3314,0.021325
-3313,0.0071519
-3312,-0.014931
-3311,-0.0048366
-3310,-0.011321
-3309,-0.0044569
-3308,-0.0010828
-3307,-0.0058867
-3306,0.0039005
-3305,0.010066
-3304,0.0067351
-3303,-0.002873
-3302,0.011145
-3301,-0.00057562
-3300,-0.01408
-3299,-0.00052582
-3298,-0.0044861
-3297,0.0060099
-3296,-0.0012866
-3295,-0.013182
-3294,0.0091418
-3293,-0.0052088
-3292,-0.011367
-3291,0.01914
-3290,0.010315
-3289,-0.014544
-3288,0.0026976
-3287,0.018677
-3286,0.0016096
-3285,-0.028181
-3284,0.006561
-3283,0.018715
-3282,-0.015444
-3281,0.0010629
-3280,0.0025892
-3279,-0.00077834
-3278,-0.00093559
-3277,-0.0055796
-3276,0.0083998
-3275,-0.0038145
-3274,-0.023771
-3273,0.0046432
-3272,0.011752
-3271,-0.0092359
-3270,-0.0041885
-3269,0.021318
-3268,0.013921
-3267,-0.0029204
-3266,-0.0003755
-3265,-0.0063186
-3264,-0.005567
-3263,0.0019054
-3262,0.00044086
-3261,-0.005151
-3260,-0.0068466
-3259,-0.0026991
-3258,0.0043826
-3257,0.0096248
-3256,0.010454
-3255,0.014829
-3254,0.0026914
-3253,-0.016211
-3252,-0.0081257
-3251,0.0037903
-3250,0.0022345
-3249,-0.0098495
-3248,-0.0039595
-3247,0.0032938
-3246,-0.010533
-3245,-0.0092599
-3244,0.0068824
-3243,0.0081474
-3242,0.001982
-3241,0.009975
-3240,0.0076689
-3239,-0.0014427
-3238,-0.0059896
-3237,-0.011052
-3236,0.00010747
-3235,0.006055
-3234,0.0037981
-3233,0.0023137
-3232,-0.0067581
-3231,-0.018437
-3230,0.0028603
-3229,0.0051667
-3228,-0.010153
-3227,0.00052587
-3226,0.0076767
-3225,0.011471
-3224,0.0046926
-3223,9.6501e-05
-3222,0.0035241
-3221,0.011962
-3220,0.00073677
-3219,-0.01483
-3218,-0.010836
-3217,-0.0047562
-3216,-0.00064266
-3215,0.0059025
-3214,0.014884
-3213,0.0026957
-3212,-0.011526
-3211,-0.0043995
-3210,0.0095423
-3209,0.0033262
-3208,-0.010946
-3207,-0.0073192
-3206,0.012601
-3205,-8.726e-05
-3204,-0.0036792
-3203,0.0012127
-3202,-0.0039867
-3201,-0.0088711
-3200,-0.0043238
-3199,-0.0010547
-3198,-0.00023641
-3197,0.0042962
-3196,0.0087533
-3195,-0.00044668
-3194,0.0026238
-3193,0.011797
-3192,-0.00059771
-3191,-0.010579
-3190,0.002143
-3189,-0.00067483
-3188,-0.019188
-3187,0.014718
-3186,0.011022
-3185,-0.010266
-3184,-0.001975
-3183,0.0023526
-3182,0.00086666
-3181,-0.0034452
-3180,-0.0086929
-3179,0.0010195
-3178,0.0030837
-3177,0.0054446
-3176,0.013357
-3175,0.0045267
-3174,0.0029799
-3173,0.0044844
-3172,-0.012408
-3171,-0.015926
-3170,-7.9313e-05
-3169,0.018034
-3168,0.008378
-3167,-0.011917
-3166,-0.0092141
-3165,-0.0018832
-3164,0.0047925
-3163,0.0011172
-3162,-0.01342
-3161,0.0014637
-3160,0.012485
-3159,-0.005226
-3158,-0.0096037
-3157,0.0089398
-3156,0.0030899
-3155,-0.011461
-3154,0.00022052
-3153,0.011598
-3152,0.0032397
-3151,-0.0076924
-3150,0.0015166
-3149,-0.0028952
-3148,0.0078664
-3147,0.01245
-3146,-0.0015734
-3145,-0.014053
-3144,-0.017417
-3143,-0.00079732
-3142,0.018357
-3141,0.011294
-3140,-0.0098401
-3139,0.0028308
-3138,0.010051
-3137,-0.009441
-3136,-0.0083946
-3135,-0.0038322
-3134,-0.0010411
-3133,0.0042396
-3132,0.0029702
-3131,0.0011712
-3130,-0.0040406
-3129,0.0057305
-3128,0.0096343
-3127,-0.0085811
-3126,-0.011778
-3125,0.00078195
-3124,-0.0045578
-3123,0.0072483
-3122,0.011637
-3121,-0.0078869
-3120,0.00025628
-3119,0.0071231
-3118,-2.4353e-05
-3117,0.0033684
-3116,-0.00037016
-3115,-0.004225
-3114,-0.011704
-3113,0.010524
-3112,0.012645
-3111,-0.0064566
-3110,0.003904
-3109,0.0011831
-3108,-0.0068249
-3107,-0.016748
-3106,-0.010306
-3105,0.0096326
-3104,0.0012148
-3103,-0.00319
-3102,0.0057159
-3101,-0.0052775
-3100,-0.0059241
-3099,0.019905
-3098,0.015159
-3097,-0.013027
-3096,-0.013376
-3095,0.001986
-3094,0.010545
-3093,-0.010066
-3092,-0.0044321
-3091,0.020413
-3090,0.0032841
-3089,-0.010082
-3088,-0.0023312
-3087,0.0031628
-3086,-0.003364
-3085,0.0015576
-3084,0.0061555
-3083,-0.0082442
-3082,-0.0094694
-3081,0.008855
-3080,0.014767
-3079,-0.005476
-3078,-0.011332
-3077,-0.0066642
-3076,0.0051549
-3075,0.0031102
-3074,-0.014282
-3073,-0.002711
-3072,0.0029379
-3071,0.0081774
-3070,0.019718
-3069,0.0015988
-3068,-0.0033408
-3067,0.0014056
-3066,-0.0064864
-3065,0.010381
-3064,-0.013418
-3063,-0.015465
-3062,0.020244
-3061,0.006052
-3060,-0.014589
-3059,0.00083101
-3058,0.00051516
-3057,-0.011935
-3056,0.0037659
-3055,0.0090222
-3054,-0.00019378
-3053,-0.0048416
-3052,-0.010665
-3051,0.0048889
-3050,0.012526
-3049,-0.00016522
-3048,-0.0020984
-3047,-0.0090306
-3046,0.0032874
-3045,0.014738
-3044,0.0039991
-3043,-0.013525
-3042,-0.01282
-3041,-0.0024741
-3040,0.0033452
-3039,0.010731
-3038,0.0072608
-3037,-0.0020803
-3036,0.0044294
-3035,0.0042744
-3034,-0.0085307
-3033,-0.006575
-3032,0.0020241
-3031,-0.00045282
-3030,0.0022448
-3029,-0.0021644
-3028,-0.0024451
-3027,0.0003641
-3026,-0.0044087
-3025,0.0094671
-3024,0.0062023
-3023,0.0048091
-3022,0.0002737
-3021,-0.019737
-3020,-0.0077038
-3019,0.009211
-3018,0.0072996
-3017,0.002923
-3016,-0.0020909
-3015,-0.0071324
-3014,-0.0099552
-3013,-0.0051945
-3012,0.0085985
-3011,0.011558
-3010,-0.0030409
-3009,-0.00019832
-3008,0.0032502
-3007,0.00013253
-3006,0.0050416
-3005,0.0033158
-3004,0.0029017
-3003,-0.0079114
-3002,-0.0055333
-3001,-0.006044
-3000,-0.0011511
-2999,0.0089146
-2998,-0.0025832
-2997,0.0018929
-2996,0.005986
-2995,-0.0056263
-2994,-0.0090617
-2993,-0.0023663
-2992,0.00066395
-2991,0.0043376
-2990,0.013873
-2989,0.0088048
-2988,0.0014914
-2987,0.00013576
-2986,-0.014695
-2985,-0.010131
-2984,0.0021612
-2983,0.0043961
-2982,-0.00031894
-2981,-0.0011983
-2980,-0.0048031
-2979,-0.0037656
-2978,0.0036031
-2977,0.0027907
-2976,0.0048219
-2975,0.0019401
-2974,0.0039648
-2973,-0.00083146
-2972,-0.012173
-2971,-0.0028191
-2970,0.007889
-2969,-0.0037029
-2968,-0.00075
-2967,0.0077526
-2966,-0.0039519
-2965,-0.0056794
-2964,0.0019247
-2963,-0.0022216
-2962,0.0012489
-2961,0.013841
-2960,0.014052
-2959,-0.0098867
-2958,-0.013313
-2957,0.0075361
-2956,-0.0036561
-2955,-0.010836
-2954,0.0086946
-2953,0.0033928
-2952,-0.0061524
-2951,-0.0040366
-2950,-0.0004012
-2949,0.0019651
-2948,-0.007594
-2947,-0.0031562
-2946,0.0075469
-2945,0.009507
-2944,0.0027076
-2943,0.006467
-2942,0.0041852
-2941,-0.010485
-2940,-0.0099923
-2939,0.0023905
-2938,-0.00065085
-2937,-0.0060003
-2936,0.0081108
-2935,0.00089423
-2934,-0.0018786
-2933,0.0064456
-2932,7.8619e-05
-2931,0.0029601
-2930,0.0013722
-2929,-0.015961
-2928,-0.0021416
-2927,0.012063
-2926,0.0018508
-2925,0.0052164
-2924,0.0024633
-2923,-0.0082341
-2922,-0.0023694
-2921,-0.0019558
-2920,-0.0058818
-2919,-0.00020616
-2918,0.0017929
-2917,0.0090759
-2916,-0.0028396
-2915,0.0013769
-2914,0.0011036
-2913,-0.0065083
-2912,-0.00052095
-2911,-0.0013742
-2910,0.0066923
-2909,0.010832
-2908,0.0017319
-2907,-0.020033
-2906,-0.0064637
-2905,0.0040696
-2904,0.0057881
-2903,0.0051202
-2902,-4.3293e-05
-2901,0.0065135
-2900,-0.0019914
-2899,-0.010871
-2898,-0.00104
-2897,0.0038757
-2896,0.0044975
-2895,0.006143
-2894,-0.0058257
-2893,-0.0013661
-2892,-0.0058672
-2891,-0.010545
-2890,0.0049355
-2889,-0.00081073
-2888,-0.0095381
-2887,0.005526
-2886,0.0059909
-2885,0.0062914
-2884,0.0072329
-2883,0.0022716
-2882,-0.0050594
-2881,-0.0050299
-2880,0.0090882
-2879,0.0037769
-2878,-0.0092317
-2877,0.0036115
-2876,-0.0031513
-2875,-0.010584
-2874,0.00093829
-2873,-0.0042551
-2872,0.013987
-2871,0.005598
-2870,-0.004632
-2869,-0.0024556
-2868,-0.00020798
-2867,0.0035991
-2866,0.003573
-2865,-0.00083361
-2864,-0.0085081
-2863,-0.00027329
-2862,0.007087
-2861,-0.0049274
-2860,-0.0087071
-2859,-0.00079311
-2858,0.0034924
-2857,-0.00085129
-2856,-0.0010336
-2855,0.0093652
-2854,0.0032841
-2853,-0.0038556
-2852,0.012514
-2851,0.0026079
-2850,-0.011294
-2849,-0.013726
-2848,-0.0033896
-2847,0.0049361
-2846,0.0023591
-2845,0.0073622
-2844,-0.00083431
-2843,-0.00096792
-2842,-0.0053172
-2841,-0.006223
-2840,0.0087182
-2839,0.00096671
-2838,-0.0058331
-2837,0.0034326
-2836,0.0082298
-2835,-0.0033498
-2834,-0.0023838
-2833,0.011869
-2832,0.011005
-2831,0.0003354
-2830,-0.016899
-2829,-0.011575
-2828,-0.0023038
-2827,0.0038307
-2826,0.003469
-2825,-0.0029142
-2824,-0.0024083
-2823,0.00068256
-2822,0.010542
-2821,-0.0011816
-2820,0.0025659
-2819,0.0016256
-2818,-0.0084369
-2817,0.00048587
-2816,-0.00049134
-2815,-0.0033303
-2814,-0.0093241
-2813,-0.0060506
-2812,0.0092959
-2811,0.00047986
-2810,-0.0001591
-2809,0.010965
-2808,-0.0045508
-2807,-0.0043884
-2806,0.0076507
-2805,0.01498
-2804,0.0042211
-2803,-0.0013498
-2802,-0.0018264
-2801,-0.00010812
-2800,-0.0048419
-2799,-0.013005
-2798,-0.012044
-2797,-0.0022939
-2796,0.0055631
-2795,0.013122
-2794,0.00017083
-2793,0.0012108
-2792,0.010705
-2791,-0.017953
-2790,-0.014825
-2789,0.008319
-2788,0.0021084
-2787,0.009258
-2786,0.0061044
-2785,-0.013343
-2784,0.0058808
-2783,0.0074863
-2782,-0.010903
-2781,-0.00049778
-2780,-0.0012345
-2779,0.0073857
-2778,0.0034083
-2777,-0.0058044
-2776,0.0010059
-2775,-0.0077313
-2774,0.0036629
-2773,0.012722
-2772,-0.0043439
-2771,-0.0025509
-2770,0.003604
-2769,-0.013264
-2768,-0.0070911
-2767,0.0058228
-2766,0.0053525
-2765,0.010193
-2764,-0.00018251
-2763,-0.0037383
-2762,-1.3343e-05
-2761,-0.0023146
-2760,-0.0084719
-2759,-0.0025901
-2758,0.0036725
-2757,0.0014421
-2756,0.016061
-2755,0.011484
-2754,-0.0039612
-2753,-0.018327
-2752,-0.011429
-2751,0.01568
-2750,0.00079314
-2749,-0.01016
-2748,-0.012335
-2747,0.00019566
-2746,0.0066115
-2745,0.0022376
-2744,0.022887
-2743,0.011236
-2742,-0.011192
-2741,-0.012677
-2740,-0.0042405
-2739,-0.0011102
-2738,-0.0051134
-2737,0.012813
-2736,0.0091496
-2735,-0.0080297
-2734,-0.0073685
-2733,-0.0096235
-2732,-0.0054303
-2731,-0.00071786
-2730,0.0055609
-2729,0.0097223
-2728,0.0065486
-2727,-0.0068442
-2726,-0.0047243
-2725,0.0086915
-2724,0.015875
-2723,-0.0041054
-2722,-0.009797
-2721,-0.0012756
-2720,0.011261
-2719,-0.017652
-2718,-0.017487
-2717,0.017611
-2716,0.0019634
-2715,-0.00504
-2714,0.010383
-2713,0.002807
-2712,-0.0016517
-2711,0.0073866
-2710,-0.0040293
-2709,-0.0018648
-2708,-0.0054605
-2707,0.0054024
-2706,0.0078852
-2705,-0.0093424
-2704,-0.0071708
-2703,0.0043379
-2702,-0.00014802
-2701,-0.0061365
-2700,-0.0034541
-2699,-0.0055301
-2698,0.0023077
-2697,0.0087289
-2696,-0.0030146
-2695,0.0035124
-2694,0.014233
-2693,0.0015948
-2692,-0.0031859
-2691,-0.0081423
-2690,-0.00043636
-2689,-0.0070267
-2688,-0.0029001
-2687,0.00027888
-2686,-0.0021351
-2685,0.0065636
-2684,0.0049483
-2683,-0.0064501
-2682,-0.0070952
-2681,0.0060356
-2680,-0.00037535
-2679,-0.0022809
-2678,0.002748
-2677,-0.0039865
-2676,0.004513
-2675,0.0037991
-2674,0.0023763
-2673,0.0069144
-2672,0.013369
-2671,-0.0022581
-2670,-0.016905
-2669,-0.00431
-2668,-0.0015617
-2667,-0.0016592
-2666,0.0029564
-2665,0.011931
-2664,-0.00097487
-2663,-0.0044225
-2662,-0.003495
-2661,-0.00014427
-2660,0.0086416
-2659,0.00013725
-2658,-0.0090662
-2657,-0.010616
-2656,-0.0036438
-2655,0.0024411
-2654,0.014303
-2653,-0.0079999
-2652,-0.012493
-2651,0.022635
-2650,0.00091322
-2649,-0.012122
-2648,-0.00023757
-2647,0.0098073
-2646,0.0017905
-2645,0.0039183
-2644,0.010513
-2643,-0.0078868
-2642,0.0025963
-2641,-0.0011291
-2640,-0.01061
-2639,-0.0058365
-2638,-0.0098579
-2637,0.0053188
-2636,0.017585
-2635,0.0044451
-2634,-0.0097385
-2633,0.0031215
-2632,-0.0029715
-2631,-0.013356
-2630,-0.0073078
-2629,0.011011
-2628,0.0040848
-2627,-0.0088033
-2626,-0.0088431
-2625,-0.0086606
-2624,0.0067417
-2623,0.011454
-2622,0.016416
-2621,-0.00045239
-2620,-0.013126
-2619,0.0018667
-2618,0.0081752
-2617,0.0073301
-2616,0.008283
-2615,0.014302
-2614,-0.00044353
-2613,-0.028072
-2612,-0.0099195
-2611,0.010188
-2610,-0.00039284
-2609,0.0055622
-2608,-0.0088014
-2607,-0.019826
-2606,-0.0029583
-2605,0.0048649
-2604,0.0026502
-2603,0.006541
-2602,0.0057617
-2601,0.00051333
-2600,0.0047712
-2599,0.0019726
-2598,0.01071
-2597,-0.0043938
-2596,-0.011612
-2595,0.0033573
-2594,-0.006008
-2593,-0.0026421
-2592,-0.00051958
-2591,-0.0064445
-2590,0.0048511
-2589,0.00018131
-2588,-0.0017375
-2587,0.013285
-2586,0.0072346
-2585,-0.01228
-2584,-0.0062416
-2583,-0.0020078
-2582,0.013524
-2581,0.0089386
-2580,-0.0098997
-2579,0.0054302
-2578,-0.0046417
-2577,-0.014745
-2576,0.0093591
-2575,0.0011549
-2574,-0.003335
-2573,0.00012404
-2572,-1.5009e-05
-2571,0.013437
-2570,-0.0015132
-2569,-0.013392
-2568,0.0017297
-2567,-0.0015037
-2566,0.0047279
-2565,0.0055941
-2564,-0.006595
-2563,-0.010855
-2562,-0.010457
-2561,0.017607
-2560,0.025141
-2559,-0.0057054
-2558,-0.013531
-2557,-0.0054208
-2556,-0.00049337
-2555,0.0022982
-2554,0.0072356
-2553,0.0032289
-2552,-0.014531
-2551,-0.014178
-2550,0.0041709
-2549,0.0023586
-2548,-0.00063753
-2547,0.0087653
-2546,0.011549
-2545,-0.0027732
-2544,-0.010017
-2543,0.011383
-2542,0.012175
-2541,-0.0087249
-2540,0.00056941
-2539,0.011786
-2538,-0.0036166
-2537,-0.017449
-2536,-0.0013002
-2535,0.0037234
-2534,0.0051731
-2533,-0.0018518
-2532,-0.01056
-2531,0.0049778
-2530,-0.0052011
-2529,-0.010569
-2528,0.0047237
-2527,0.0076884
-2526,-0.0039657
-2525,-0.0064129
-2524,-0.00067271
-2523,0.0093754
-2522,0.013989
-2521,0.0021135
-2520,-0.0043568
-2519,-0.013317
-2518,-1.8359e-05
-2517,0.00035858
-2516,-0.0085372
-2515,0.010518
-2514,0.0075857
-2513,-0.0095743
-2512,0.0015548
-2511,0.014124
-2510,0.00034291
-2509,0.0036997
-2508,0.0048237
-2507,-0.0034084
-2506,-0.011624
-2505,-0.0065597
-2504,-0.0035258
-2503,-0.0010008
-2502,0.01119
-2501,0.0091545
-2500,-0.0035674
-2499,-0.0072821
-2498,-0.0062891
-2497,-0.0059847
-2496,0.011189
-2495,0.0061349
-2494,-0.013486
-2493,0.0043551
-2492,-0.004202
-2491,-0.010749
-2490,0.0054371
-2489,0.0012444
-2488,0.0075579
-2487,0.0088103
-2486,-0.0072719
-2485,-0.0070173
-2484,0.01103
-2483,0.010505
-2482,-0.0042455
-2481,-0.0092235
-2480,0.0014037
-2479,0.0030557
-2478,-0.0047656
-2477,0.0056478
-2476,0.0094398
-2475,0.0017472
-2474,-0.0048483
-2473,-0.0088018
-2472,-0.0079647
-2471,-0.0016801
-2470,-0.00034474
-2469,-0.0053361
-2468,0.0072345
-2467,0.010793
-2466,-0.0063532
-2465,0.0039309
-2464,0.011511
-2463,-0.0075854
-2462,-0.010217
-2461,0.0028099
-2460,0.0031958
-2459,-0.0047018
-2458,0.00098061
-2457,-0.0025264
-2456,0.0016117
-2455,0.0050231
-2454,-0.0093171
-2453,0.0050247
-2452,0.0056807
-2451,-0.0097225
-2450,0.0061937
-2449,0.0079
-2448,-0.0043222
-2447,0.0025109
-2446,0.0068337
-2445,-0.0033715
-2444,-0.007199
-2443,-0.0074116
-2442,-0.0016934
-2441,0.00019458
-2440,-0.010164
-2439,0.0036078
-2438,0.014075
-2437,-0.0070132
-2436,-0.0065392
-2435,0.001256
-2434,-0.0082694
-2433,0.0014606
-2432,0.027194
-2431,0.00079704
-2430,-0.017312
-2429,0.0063372
-2428,-0.0018127
-2427,-0.0027561
-2426,0.002473
-2425,-0.012742
-2424,0.0092695
-2423,0.01883
-2422,-0.015015
-2421,-0.010262
-2420,0.022328
-2419,0.01362
-2418,-0.0018502
-2417,0.00015536
-2416,-0.0003671
-2415,-0.0012128
-2414,-0.01443
-2413,-0.011731
-2412,0.00043988
-2411,0.01138
-2410,-0.0034555
-2409,-0.010835
-2408,0.0034139
-2407,0.004932
-2406,0.0025078
-2405,-0.0029688
-2404,-0.0018491
-2403,-0.0025192
-2402,4.9805e-05
-2401,0.0074687
-2400,0.016318
-2399,-0.0020589
-2398,-0.01197
-2397,-0.0079834
-2396,-0.0039009
-2395,0.00011251
-2394,-0.0068612
-2393,0.0067758
-2392,0.0066802
-2391,-0.015253
-2390,-0.016033
-2389,0.0015274
-2388,0.011664
-2387,0.0037122
-2386,0.0072817
-2385,0.016796
-2384,-0.0020857
-2383,-0.015197
-2382,0.010477
-2381,0.0095142
-2380,0.0011905
-2379,0.015617
-2378,-0.0035568
-2377,-0.019658
-2376,0.0011146
-2375,0.01234
-2374,0.0036788
-2373,-0.0064252
-2372,-0.01173
-2371,-0.0066537
-2370,0.0018572
-2369,-0.00024027
-2368,0.0034838
-2367,-0.0058454
-2366,-0.0019659
-2365,-0.0028277
-2364,-0.015588
-2363,0.00031007
-2362,0.011883
-2361,0.0072541
-2360,-0.00088395
-2359,0.0053056
-2358,4.1704e-05
-2357,-0.0019081
-2356,-0.0022826
-2355,0.024247
-2354,0.014909
-2353,-0.017372
-2352,-0.0090883
-2351,-0.011105
-2350,-0.011627
-2349,0.006871
-2348,0.0081627
-2347,-0.001543
-2346,-0.011491
-2345,0.00099245
-2344,-0.0099871
-2343,-0.010317
-2342,0.018567
-2341,-0.0032401
-2340,0.0092075
-2339,0.0068395
-2338,0.00093346
-2337,0.010623
-2336,-0.0056054
-2335,-0.0022559
-2334,-0.0033707
-2333,-0.0081324
-2332,0.0035879
-2331,0.010848
-2330,-0.011401
-2329,-0.014967
-2328,0.011724
-2327,0.011234
-2326,-0.00017722
-2325,-0.0038632
-2324,-0.010181
-2323,0.0040714
-2322,0.0061772
-2321,0.0054383
-2320,0.022954
-2319,0.0029064
-2318,-0.016048
-2317,-0.00066418
-2316,0.0065201
-2315,-0.0011454
-2314,-0.014143
-2313,-0.002768
-2312,0.0089627
-2311,-0.0072896
-2310,-0.01321
-2309,0.00029286
-2308,0.015951
-2307,0.012349
-2306,-0.012926
-2305,-0.0086166
-2304,0.005054
-2303,-0.0036714
-2302,-0.0065179
-2301,-0.020366
-2300,-0.0069632
-2299,0.015418
-2298,0.010944
-2297,-0.0053886
-2296,-0.0031512
-2295,0.01155
-2294,0.0035085
-2293,-0.0035788
-2292,0.020159
-2291,0.015227
-2290,-0.0095455
-2289,-0.010832
-2288,-0.0038858
-2287,-0.0039356
-2286,-0.002438
-2285,0.011142
-2284,-0.013603
-2283,-0.033215
-2282,0.01108
-2281,0.013502
-2280,-0.008124
-2279,0.0076298
-2278,0.010661
-2277,0.0086609
-2276,-0.0081336
-2275,-0.0066692
-2274,0.0051321
-2273,0.0033879
-2272,0.0096876
-2271,0.013579
-2270,-0.0087838
-2269,-0.021867
-2268,-0.0095893
-2267,0.0125
-2266,0.0037361
-2265,-0.015625
-2264,0.0075026
-2263,-0.0059993
-2262,-0.011164
-2261,0.0073566
-2260,0.0015865
-2259,0.0064756
-2258,0.0023922
-2257,-0.0036418
-2256,-0.00041985
-2255,0.013766
-2254,0.013656
-2253,-0.012234
-2252,-0.002721
-2251,0.01118
-2250,0.0043059
-2249,-0.0022016
-2248,-0.0026044
-2247,-0.0017678
-2246,-0.0029036
-2245,0.022316
-2244,0.0099285
-2243,-0.019129
-2242,-0.0071494
-2241,-0.0025737
-2240,-0.0024364
-2239,7.9397e-06
-2238,-0.015874
-2237,-0.0083779
-2236,-0.0010156
-2235,-0.0044077
-2234,0.013357
-2233,0.00093346
-2232,0.0046584
-2231,0.017472
-2230,-0.00062222
-2229,0.00068288
-2228,-0.0021072
-2227,0.0005125
-2226,-0.0086981
-2225,-0.020897
-2224,0.0087348
-2223,0.011645
-2222,-0.0095833
-2221,0.0053213
-2220,0.010581
-2219,-0.011957
-2218,-0.016344
-2217,-0.0060227
-2216,0.0087963
-2215,0.015952
-2214,0.0029639
-2213,-0.0084975
-2212,0.002202
-2211,0.0038739
-2210,0.0018851
-2209,-0.0095533
-2208,-0.0012072
-2207,0.0049883
-2206,-0.018508
-2205,0.0079959
-2204,0.016154
-2203,-0.016458
-2202,-0.012633
-2201,0.0020175
-2200,0.0064151
-2199,0.014176
-2198,0.0065136
-2197,-0.0021508
-2196,0.0056911
-2195,-0.010441
-2194,0.0021867
-2193,0.012071
-2192,-0.00088981
-2191,0.011569
-2190,-0.013317
-2189,-0.010286
-2188,-0.0058294
-2187,-0.003169
-2186,0.019114
-2185,0.012307
-2184,0.010537
-2183,-0.018852
-2182,-0.034939
-2181,0.010741
-2180,0.011445
-2179,-0.0053113
-2178,0.00013664
-2177,0.00065295
-2176,-0.00028828
-2175,0.0087479
-2174,0.017773
-2173,0.0074462
-2172,-0.0091463
-2171,-0.0027582
-2170,-0.0028213
-2169,-0.015738
-2168,-0.0059947
-2167,0.0063195
-2166,0.011362
-2165,0.00018256
-2164,0.0072677
-2163,-0.0035296
-2162,-0.021381
-2161,-0.015997
-2160,-0.00096723
-2159,0.018729
-2158,-0.00011035
-2157,-0.0067667
-2156,-0.0046643
-2155,0.00020674
-2154,0.0063494
-2153,0.0045235
-2152,0.0083433
-2151,0.015323
-2150,-0.00040119
-2149,-0.012483
-2148,0.0097535
-2147,-0.011024
-2146,-0.0090468
-2145,0.011033
-2144,-0.0002347
-2143,0.002049
-2142,-0.0072807
-2141,-0.001811
-2140,-0.001192
-2139,-0.0086611
-2138,0.0032821
-2137,0.0099119
-2136,-0.0038599
-2135,-0.020742
-2134,0.0013943
-2133,0.00076732
-2132,0.00062965
-2131,0.0096945
-2130,0.015878
-2129,0.0087175
-2128,-0.009139
-2127,4.2167e-06
-2126,0.0016102
-2125,-0.0062631
-2124,-0.00011093
-2123,0.0046279
-2122,-0.0026356
-2121,0.012451
-2120,0.0048459
-2119,-0.02312
-2118,0.0015381
-2117,0.011808
-2116,0.0057425
-2115,-0.0084778
-2114,-0.020979
-2113,0.0066365
-2112,0.010924
-2111,-0.0072025
-2110,-0.0065558
-2109,-0.0030738
-2108,-0.0063749
-2107,0.0043439
-2106,0.0048552
-2105,0.009892
-2104,0.014141
-2103,0.0052226
-2102,-0.0077686
-2101,-0.0084379
-2100,0.0015215
-2099,-0.0094613
-2098,0.0058663
-2097,0.0089975
-2096,-0.001664
-2095,-0.0069373
-2094,-0.0079122
-2093,0.020408
-2092,0.00735
-2091,-0.0054852
-2090,-0.0053156
-2089,-0.010485
-2088,-0.0097266
-2087,0.0024899
-2086,0.0025114
-2085,-0.010538
-2084,0.0041602
-2083,0.011886
-2082,0.0021776
-2081,-0.0033461
-2080,-0.0066254
-2079,0.0014606
-2078,0.015757
-2077,0.0067531
-2076,-0.0037861
-2075,-0.010017
-2074,-0.014892
-2073,0.0038766
-2072,-0.0065691
-2071,-0.0084766
-2070,0.018405
-2069,0.015034
-2068,0.0065028
-2067,-0.00021596
-2066,-0.011447
-2065,-0.0038657
-2064,0.013377
-2063,0.00070055
-2062,-0.0029041
-2061,0.0014516
-2060,-0.0058183
-2059,-0.0029796
-2058,-0.010765
-2057,-0.0057409
-2056,0.0049239
-2055,0.0096326
-2054,-0.00052402
-2053,-0.016326
-2052,-0.0010511
-2051,0.023113
-2050,0.0039655
-2049,-0.011796
-2048,0.0087935
-2047,-0.0088274
-2046,-0.0077758
-2045,0.0039006
-2044,-0.012969
-2043,0.0031719
-2042,0.015168
-2041,0.0017465
-2040,-0.0061212
-2039,-0.0071399
-2038,0.0014352
-2037,0.022863
-2036,0.003883
-2035,-0.015853
-2034,-0.018575
-2033,0.00069487
-2032,0.014594
-2031,-0.0035583
-2030,-0.0042193
-2029,0.0088665
-2028,-0.0033664
-2027,-0.0050001
-2026,0.011582
-2025,-0.0034157
-2024,-0.0080892
-2023,0.016347
-2022,0.0011559
-2021,-0.0059523
-2020,0.0065257
-2019,-0.0030472
-2018,0.0087231
-2017,-0.0094295
-2016,0.00016574
-2015,0.01912
-2014,-0.0082317
-2013,-0.021742
-2012,-0.0084209
-2011,0.015013
-2010,0.001633
-2009,-0.016216
-2008,-0.0027873
-2007,0.0068149
-2006,0.0011622
-2005,-0.010247
-2004,-0.002385
-2003,0.012906
-2002,0.0041797
-2001,0.0013357
-2000,0.018032
-1999,0.013934
-1998,-0.0052208
-1997,-0.006203
-1996,-0.013183
-1995,-0.0051461
-1994,-0.0026577
-1993,-0.0032249
-1992,0.001625
-1991,-0.006486
-1990,-0.0081417
-1989,0.0015413
-1988,0.017608
-1987,0.010826
-1986,-0.0034175
-1985,0.0084077
-1984,-0.0005004
-1983,-0.022569
-1982,-0.0047271
-1981,0.013986
-1980,-0.0011172
-1979,-0.015162
-1978,-0.00037454
-1977,0.0046822
-1976,0.015599
-1975,0.01326
-1974,-0.01482
-1973,-0.0052555
-1972,0.0076322
-1971,-0.0095914
-1970,-0.0084123
-1969,-0.014991
-1968,0.0016049
-1967,0.026098
-1966,0.0038913
-1965,0.00045765
-1964,0.0065989
-1963,0.0037452
-1962,-0.0024971
-1961,-0.0173
-1960,-0.0030181
-1959,0.011559
-1958,-0.0091319
-1957,-0.0011826
-1956,0.0022277
-1955,0.0021571
-1954,0.0058708
-1953,0.0010291
-1952,0.00097673
-1951,-0.0045809
-1950,-0.0044781
-1949,-0.0022357
-1948,0.0043617
-1947,-0.0075987
-1946,-0.012832
-1945,0.014181
-1944,0.005361
-1943,-0.012884
-1942,0.0022653
-1941,0.021256
-1940,0.0058587
-1939,-0.019383
-1938,-0.0019565
-1937,0.011709
-1936,-0.0085376
-1935,0.0095008
-1934,-0.0029082
-1933,-0.011887
-1932,0.0091877
-1931,0.0033468
-1930,0.0052937
-1929,0.0017286
-1928,-0.010792
-1927,0.0021526
-1926,-0.0040978
-1925,-0.012155
-1924,0.0070157
-1923,0.0057359
-1922,0.013863
-1921,0.013474
-1920,-0.008609
-1919,-0.013298
-1918,0.00025262
-1917,-0.0088019
-1916,0.0028576
-1915,0.023453
-1914,0.0055881
-1913,-0.027812
-1912,-0.015131
-1911,0.008545
-1910,-0.018329
-1909,-0.012801
-1908,0.0078778
-1907,0.0061555
-1906,0.007164
-1905,0.0086471
-1904,0.0015257
-1903,-0.0019685
-1902,0.016661
-1901,0.0019818
-1900,-0.011407
-1899,-0.0016933
-1898,-0.012165
-1897,0.014801
-1896,0.019085
-1895,0.00015573
-1894,-0.0075908
-1893,-0.0052635
-1892,0.0090366
-1891,-0.010956
-1890,-0.0027478
-1889,0.0080525
-1888,-0.0083132
-1887,0.00066263
-1886,-0.0026928
-1885,-0.011168
-1884,-0.0042538
-1883,0.012122
-1882,0.0092215
-1881,-0.018026
-1880,-0.016046
-1879,0.0066901
-1878,0.024002
-1877,0.018269
-1876,-0.0093992
-1875,-0.013776
-1874,0.0041331
-1873,0.006655
-1872,0.00044791
-1871,-0.0041028
-1870,-0.0090539
-1869,9.567e-05
-1868,0.0053284
-1867,-0.019341
-1866,-0.011586
-1865,0.009226
-1864,0.0037862
-1863,-0.0013831
-1862,0.0066745
-1861,0.017676
-1860,0.013033
-1859,0.00075504
-1858,-0.0046879
-1857,0.013072
-1856,-0.0041077
-1855,-0.024167
-1854,0.017721
-1853,0.0021442
-1852,-0.024673
-1851,0.0099091
-1850,0.018284
-1849,-0.0091574
-1848,-0.031768
-1847,-0.01331
-1846,0.0014744
-1845,-8.9664e-05
-1844,0.0056897
-1843,0.00759
-1842,0.008772
-1841,0.0067305
-1840,0.00015242
-1839,-0.0032559
-1838,0.007263
-1837,0.0082277
-1836,-0.0024344
-1835,0.0025131
-1834,-0.00017732
-1833,-0.013101
-1832,-0.003391
-1831,0.0042391
-1830,0.00066203
-1829,-0.012322
-1828,-0.012183
-1827,0.023979
-1826,0.020129
-1825,-0.013104
-1824,0.0012737
-1823,0.0054609
-1822,-0.00023408
-1821,-0.004362
-1820,-0.016038
-1819,-0.0031391
-1818,0.018865
-1817,0.0057888
-1816,-0.011583
-1815,-0.0066065
-1814,0.0040728
-1813,-0.0059616
-1812,-0.0066313
-1811,0.0053336
-1810,0.00058211
-1809,-0.002411
-1808,0.010375
-1807,0.0045902
-1806,-0.011282
-1805,-0.012631
-1804,0.0096885
-1803,0.021092
-1802,-0.022371
-1801,-0.0098637
-1800,0.023757
-1799,0.014131
-1798,0.00060006
-1797,-0.008851
-1796,-0.002727
-1795,-0.0062407
-1794,-0.015651
-1793,0.0061864
-1792,0.019486
-1791,-0.011036
-1790,-0.010713
-1789,0.0097348
-1788,0.0030891
-1787,-0.013211
-1786,0.0028241
-1785,0.022262
-1784,0.010831
-1783,-0.014378
-1782,-0.0021605
-1781,0.0066828
-1780,-0.016872
-1779,-0.0079953
-1778,0.010542
-1777,-0.0029903
-1776,-0.017705
-1775,-0.0093944
-1774,0.012686
-1773,0.014659
-1772,0.0048055
-1771,0.0018417
-1770,-0.00011238
-1769,-0.015791
-1768,-0.02142
-1767,0.012632
-1766,0.027717
-1765,0.0054442
-1764,-0.0015255
-1763,0.0016999
-1762,-0.01057
-1761,-0.012684
-1760,0.00081008
-1759,0.012152
-1758,0.016134
-1757,0.0073004
-1756,0.0066571
-1755,-0.013704
-1754,-0.024847
-1753,-0.002706
-1752,0.0096084
-1751,-0.006352
-1750,-0.011647
-1749,-9.8045e-05
-1748,-0.014533
-1747,0.0043022
-1746,0.031602
-1745,0.00082643
-1744,-0.0098559
-1743,0.012778
-1742,0.0044132
-1741,-0.017495
-1740,-0.0064439
-1739,0.01056
-1738,0.011831
-1737,-0.010391
-1736,-0.0087506
-1735,0.0089276
-1734,-0.0082914
-1733,-0.0075009
-1732,0.014665
-1731,0.005043
-1730,-0.0063109
-1729,0.0090036
-1728,0.0026356
-1727,-0.0037068
-1726,-0.006633
-1725,-0.014358
-1724,0.010834
-1723,0.0059316
-1722,0.0041968
-1721,0.014143
-1720,-0.0033016
-1719,-0.0010241
-1718,-0.012114
-1717,-0.0053799
-1716,0.0012334
-1715,-0.0013639
-1714,-0.0033497
-1713,-0.016285
-1712,0.004521
-1711,0.020223
-1710,0.0011705
-1709,-0.00049316
-1708,0.0088788
-1707,-0.024148
-1706,-0.024375
-1705,0.0087495
-1704,-0.00025757
-1703,0.0086385
-1702,0.0067154
-1701,0.0093169
-1700,0.0022066
-1699,-0.021125
-1698,-0.0043468
-1697,0.039801
-1696,0.032758
-1695,-0.011882
-1694,0.0029534
-1693,0.0044661
-1692,-0.018831
-1691,-0.022346
-1690,-0.018534
-1689,0.0091645
-1688,0.010442
-1687,-0.020421
-1686,-0.0093573
-1685,0.022963
-1684,0.0017419
-1683,-0.017135
-1682,0.003383
-1681,0.0097221
-1680,-0.015614
-1679,-0.0046191
-1678,0.0046187
-1677,0.010427
-1676,0.018987
-1675,0.0073984
-1674,0.015344
-1673,-0.0018099
-1672,-0.019737
-1671,0.0027047
-1670,-0.0069067
-1669,-0.0060073
-1668,0.020064
-1667,-0.0041873
-1666,-0.020021
-1665,-0.0080539
-1664,0.0012757
-1663,0.0073342
-1662,0.0099678
-1661,-0.0055979
-1660,-0.0094029
-1659,0.0077938
-1658,0.012966
-1657,-0.016473
-1656,-0.0098013
-1655,0.027706
-1654,-0.0053956
-1653,-0.02413
-1652,0.0091092
-1651,0.010956
-1650,0.0071475
-1649,0.010917
-1648,-0.0022402
-1647,-0.01983
-1646,-0.017128
-1645,0.0061891
-1644,-0.00031563
-1643,0.002303
-1642,0.01404
-1641,0.01581
-1640,-0.0054288
-1639,-0.01945
-1638,-0.010081
-1637,-0.018048
-1636,0.012177
-1635,0.021297
-1634,-0.0081595
-1633,0.0062842
-1632,0.01415
-1631,0.00075974
-1630,-0.020485
-1629,0.0027586
-1628,0.030084
-1627,0.0065038
-1626,-0.013943
-1625,-0.012468
-1624,0.0033489
-1623,-0.0048537
-1622,-0.017158
-1621,-0.0032258
-1620,0.0035469
-1619,0.0040748
-1618,0.0043988
-1617,0.0087868
-1616,0.00090294
-1615,0.0019056
-1614,-0.00018015
-1613,0.0066088
-1612,-0.0086305
-1611,-0.021053
-1610,-0.020953
-1609,-0.0038889
-1608,0.025335
-1607,0.022076
-1606,0.0056403
-1605,-0.008957
-1604,-0.0054903
-1603,0.0063784
-1602,0.0095511
-1601,-0.00028154
-1600,-0.011136
-1599,-0.0082088
-1598,0.0066261
-1597,0.0026004
-1596,-0.010365
-1595,-0.0043266
-1594,0.013282
-1593,0.0046415
-1592,0.0020986
-1591,-0.0048425
-1590,0.0029006
-1589,0.017138
-1588,-0.0087714
-1587,-0.013875
-1586,-0.012116
-1585,-0.0041977
-1584,-0.0054268
-1583,-0.003474
-1582,0.010902
-1581,0.0088332
-1580,-0.0002345
-1579,0.0087574
-1578,0.0054336
-1577,-0.012764
-1576,-0.0038667
-1575,0.013555
-1574,0.0063622
-1573,-0.0068349
-1572,-0.006102
-1571,0.013243
-1570,0.0006409
-1569,-0.011991
-1568,0.0065544
-1567,-0.0023377
-1566,-0.0070175
-1565,-0.0033115
-1564,-0.01216
-1563,0.016963
-1562,0.0072011
-1561,-0.010188
-1560,-0.00099786
-1559,-0.01032
-1558,0.006467
-1557,0.017389
-1556,-0.0086418
-1555,-0.013813
-1554,0.0028681
-1553,0.00087388
-1552,0.010879
-1551,-0.00010081
-1550,-0.016261
-1549,0.01143
-1548,0.014673
-1547,-0.0036983
-1546,-0.0080972
-1545,-0.0042741
-1544,0.005109
-1543,-0.0046491
-1542,-0.0067177
-1541,0.0074112
-1540,0.015785
-1539,-0.0010025
-1538,-0.0055277
-1537,-0.0037547
-1536,-0.011146
-1535,0.010644
-1534,0.0059537
-1533,-0.0012663
-1532,0.0012668
-1531,-0.0011531
-1530,-0.017276
-1529,-0.010233
-1528,0.023563
-1527,0.0015209
-1526,-0.019091
-1525,0.0053804
-1524,0.011881
-1523,-0.006148
-1522,-0.014492
-1521,0.010535
-1520,0.0084913
-1519,-0.0022424
-1518,0.0064775
-1517,-0.0027682
-1516,-0.0054552
-1515,0.0033998
-1514,0.0054177
-1513,0.0084695
-1512,-0.0013571
-1511,-0.015995
-1510,-0.0014396
-1509,0.016633
-1508,-0.0023965
-1507,-0.018408
-1506,-0.0098311
-1505,0.0042088
-1504,0.0065122
-1503,-0.004661
-1502,0.0092237
-1501,0.0026257
-1500,0.0034851
-1499,0.010398
-1498,-0.0067804
-1497,-0.010375
-1496,0.0029817
-1495,0.012226
-1494,-0.0029315
-1493,-0.012057
-1492,0.004134
-1491,0.015104
-1490,0.0041028
-1489,-0.022763
-1488,-0.0066958
-1487,0.0055222
-1486,-0.010234
-1485,0.0039402
-1484,0.0062875
-1483,0.0075053
-1482,-0.0035771
-1481,-0.0081284
-1480,0.0045902
-1479,-0.0034799
-1478,0.0029639
-1477,0.01179
-1476,0.0067323
-1475,-0.018755
-1474,-0.013041
-1473,0.0070914
-1472,0.0015045
-1471,0.0091922
-1470,0.0052665
-1469,-0.0088506
-1468,0.0087056
-1467,-0.0055989
-1466,-0.0012921
-1465,0.010684
-1464,0.0036808
-1463,0.011571
-1462,-0.013528
-1461,-0.022295
-1460,0.0089394
-1459,0.0088196
-1458,-0.0051805
-1457,-0.0055283
-1456,-0.0018337
-1455,0.0060429
-1454,0.00062937
-1453,-0.0080598
-1452,0.0054774
-1451,0.00697
-1450,-0.0075854
-1449,-0.0023455
-1448,0.0023661
-1447,-0.010728
-1446,-0.0057696
-1445,0.016537
-1444,0.0067423
-1443,-0.011247
-1442,0.0080204
-1441,0.0066835
-1440,-0.011002
-1439,-0.00051597
-1438,0.0076781
-1437,0.01303
-1436,0.00075311
-1435,-0.021603
-1434,-0.0029029
-1433,0.013159
-1432,-0.0036694
-1431,-0.0029152
-1430,0.012927
-1429,-0.0037914
-1428,-0.011547
-1427,-0.0068218
-1426,0.0092446
-1425,0.0067728
-1424,-0.011613
-1423,-0.0052586
-1422,0.0014467
-1421,0.0012147
-1420,-0.0045839
-1419,-0.0067777
-1418,0.0071296
-1417,0.015908
-1416,0.0071715
-1415,-0.0026352
-1414,-0.018748
-1413,-0.0015783
-1412,0.019881
-1411,0.0036276
-1410,-0.0081695
-1409,-0.0067709
-1408,-0.0012823
-1407,0.012386
-1406,-0.0043974
-1405,-0.0054896
-1404,0.00094238
-1403,-0.0010913
-1402,0.0068672
-1401,-0.0020475
-1400,-0.007929
-1399,0.0030107
-1398,0.0093383
-1397,-0.002377
-1396,-0.0042606
-1395,-0.0017926
-1394,0.011496
-1393,-0.0034018
-1392,-0.011965
-1391,0.0012356
-1390,0.0084343
-1389,-0.0093011
-1388,-0.0058862
-1387,0.0044147
-1386,0.0013718
-1385,0.0063201
-1384,0.0034489
-1383,0.0065601
-1382,0.0027062
-1381,-0.0046332
-1380,0.0031628
-1379,0.003483
-1378,-0.017106
-1377,-0.010795
-1376,0.0047251
-1375,0.00070342
-1374,0.00018155
-1373,0.01287
-1372,0.0053198
-1371,-0.015516
-1370,-0.00145
-1369,0.0046183
-1368,0.0018762
-1367,-0.0047979
-1366,-0.01122
-1365,0.0067357
-1364,0.01017
-1363,-0.0006103
-1362,0.0045029
-1361,-0.002384
-1360,0.0092974
-1359,-0.0067223
-1358,-0.027533
-1357,0.0036452
-1356,0.0098648
-1355,0.013384
-1354,0.0013473
-1353,-0.011695
-1352,0.011265
-1351,0.00074374
-1350,-0.016433
-1349,0.0067682
-1348,0.00083716
-1347,-0.00017538
-1346,0.016086
-1345,-0.0050989
-1344,-0.014772
-1343,-0.010265
-1342,-0.00022855
-1341,0.014952
-1340,0.008116
-1339,0.0082461
-1338,-0.0093584
-1337,-0.012579
-1336,-0.0079146
-1335,0.0074072
-1334,0.024648
-1333,0.0016828
-1332,-0.025339
-1331,-0.035119
-1330,-0.0039334
-1329,0.011409
-1328,0.014901
-1327,0.033849
-1326,0.0039134
-1325,-0.0077626
-1324,0.0041232
-1323,-0.0068678
-1322,-0.0041012
-1321,0.0062868
-1320,0.0020406
-1319,0.0086454
-1318,0.0020422
-1317,-0.019568
-1316,-0.018361
-1315,0.0035762
-1314,0.019599
-1313,-0.0028929
-1312,-0.0097011
-1311,-0.0053508
-1310,0.0061496
-1309,0.004927
-1308,0.0033939
-1307,-0.0035663
-1306,-0.014793
-1305,-0.0091964
-1304,-0.0021318
-1303,0.014881
-1302,0.022404
-1301,0.016452
-1300,-0.0056919
-1299,0.00054596
-1298,-0.0044383
-1297,-0.02066
-1296,0.0029782
-1295,0.0030633
-1294,-0.014179
-1293,-0.003211
-1292,0.01064
-1291,0.0082574
-1290,-0.014247
-1289,-0.014379
-1288,0.007656
-1287,-0.002741
-1286,-0.0036806
-1285,0.013674
-1284,0.0035357
-1283,-0.0055442
-1282,0.0015065
-1281,0.0098438
-1280,0.013461
-1279,-0.0032135
-1278,-0.009171
-1277,0.0017379
-1276,0.0038601
-1275,-0.0097741
-1274,0.0061648
-1273,-0.006018
-1272,-0.012199
-1271,0.00616
-1270,-0.0053286
-1269,0.009831
-1268,0.020384
-1267,-0.021769
-1266,-0.021679
-1265,0.0019046
-1264,0.0040716
-1263,0.016223
-1262,0.0058958
-1261,0.0037953
-1260,-0.00015483
-1259,0.0085734
-1258,0.019469
-1257,-0.0073652
-1256,-0.023263
-1255,-0.0091594
-1254,-0.011869
-1253,-0.0080221
-1252,-0.0024325
-1251,0.012271
-1250,0.0096786
-1249,0.0054948
-1248,0.0080734
-1247,0.001644
-1246,0.011383
-1245,-0.0084038
-1244,-0.0079687
-1243,0.0074768
-1242,0.011041
-1241,0.0018302
-1240,-0.01197
-1239,-0.0063589
-1238,-0.0088389
-1237,-0.0041141
-1236,0.0060596
-1235,-0.0011411
-1234,-0.0057394
-1233,0.0065267
-1232,-0.0011605
-1231,-0.023737
-1230,0.0099534
-1229,0.013795
-1228,-0.0043256
-1227,0.019126
-1226,-0.0039909
-1225,-0.015824
-1224,0.0045372
-1223,-0.010338
-1222,0.004431
-1221,0.019648
-1220,-0.0081974
-1219,-0.0005369
-1218,0.014101
-1217,-0.014477
-1216,-0.014576
-1215,0.018466
-1214,0.00010761
-1213,-0.014396
-1212,0.00305
-1211,0.0078235
-1210,-0.001246
-1209,-0.012181
-1208,-0.0027633
-1207,0.0058125
-1206,-0.0079737
-1205,-0.0080262
-1204,0.020808
-1203,0.016667
-1202,-0.0073854
-1201,-0.0058222
-1200,-0.0035929
-1199,0.0087561
-1198,0.012964
-1197,-0.0023791
-1196,-0.00021318
-1195,-0.014955
-1194,-0.0030802
-1193,0.01004
-1192,0.0081276
-1191,-0.00054231
-1190,-0.027306
-1189,-0.016351
-1188,0.014669
-1187,0.0144
-1186,-0.0038016
-1185,-0.0086991
-1184,0.0020703
-1183,0.0083108
-1182,-0.0013099
-1181,0.006332
-1180,0.0049583
-1179,-0.020962
-1178,-0.008651
-1177,0.014204
-1176,0.012322
-1175,-0.0035343
-1174,-0.0016496
-1173,-0.00071061
-1172,0.0079516
-1171,0.012707
-1170,-0.0017586
-1169,0.00019148
-1168,-0.011954
-1167,-0.011922
-1166,-3.0912e-05
-1165,-0.022306
-1164,0.015157
-1163,0.028377
-1162,-0.024989
-1161,-0.012773
-1160,0.015002
-1159,0.01012
-1158,0.0050623
-1157,0.0039309
-1156,-0.015682
-1155,-0.01092
-1154,0.014555
-1153,0.0014177
-1152,-0.0018061
-1151,0.0020645
-1150,-0.0048643
-1149,-0.0063636
-1148,-0.0052766
-1147,0.0012384
-1146,0.0185
-1145,0.016378
-1144,8.8522e-05
-1143,-0.0090423
-1142,-0.028903
-1141,-0.00084611
-1140,0.018528
-1139,-0.009176
-1138,-0.0071786
-1137,-6.1973e-06
-1136,0.00028647
-1135,0.0065196
-1134,-0.0015264
-1133,0.00089967
-1132,0.012629
-1131,0.017631
-1130,-0.0041896
-1129,-0.0072137
-1128,0.026866
-1127,0.0057866
-1126,-0.020047
-1125,-0.024892
-1124,-0.024162
-1123,-0.00085307
-1122,-0.0050756
-1121,0.0098212
-1120,0.011712
-1119,-0.0081598
-1118,0.021279
-1117,0.014916
-1116,-0.0022861
-1115,0.00099198
-1114,-0.0093944
-1113,-0.014298
-1112,-0.014591
-1111,0.010107
-1110,0.010582
-1109,-0.0038945
-1108,0.011152
-1107,-0.0044088
-1106,-0.0090084
-1105,0.0052114
-1104,0.011892
-1103,0.024509
-1102,-0.013265
-1101,-0.03156
-1100,0.016047
-1099,0.017869
-1098,-0.012462
-1097,-0.0059955
-1096,-0.011946
-1095,-0.015309
-1094,-0.012642
-1093,0.0021688
-1092,0.028589
-1091,0.027726
-1090,0.0047528
-1089,-0.003154
-1088,-0.0060594
-1087,-0.021763
-1086,-0.019207
-1085,0.0044502
-1084,0.0087848
-1083,0.005622
-1082,0.010993
-1081,0.0036209
-1080,-0.0088433
-1079,-0.023695
-1078,0.0034506
-1077,0.018475
-1076,-0.0029496
-1075,-0.0028346
-1074,0.014442
-1073,-0.0069535
-1072,-0.032445
-1071,-0.0034802
-1070,0.018328
-1069,0.015048
-1068,0.012679
-1067,0.00022804
-1066,-0.0096785
-1065,-0.0041304
-1064,-0.0058178
-1063,0.0035957
-1062,0.0091444
-1061,0.00028398
-1060,-0.0058747
-1059,0.0036054
-1058,0.01384
-1057,-0.0095609
-1056,-0.011702
-1055,0.025893
-1054,-0.0089383
-1053,-0.030868
-1052,0.0061811
-1051,-0.0078352
-1050,-0.0027718
-1049,0.023438
-1048,0.021094
-1047,0.0064325
-1046,-0.020614
-1045,-0.015428
-1044,0.0046872
-1043,-0.0024426
-1042,0.0014621
-1041,-0.0042583
-1040,-0.0014964
-1039,0.019842
-1038,-0.0102
-1037,-0.014373
-1036,0.034216
-1035,0.021409
-1034,-0.023371
-1033,-0.010055
-1032,-0.014785
-1031,-0.022073
-1030,0.015729
-1029,0.0049424
-1028,-0.0093699
-1027,0.0023763
-1026,0.012817
-1025,0.0086709
-1024,-0.0094029
-1023,-0.0032205
-1022,-0.00026878
-1021,-0.018303
-1020,0.0095286
-1019,0.020381
-1018,-0.008014
-1017,0.0038482
-1016,0.018068
-1015,-0.0051834
-1014,-0.028035
-1013,-0.015154
-1012,0.006655
-1011,0.019222
-1010,0.020264
-1009,0.0085442
-1008,-0.0011857
-1007,0.0011741
-1006,-0.002296
-1005,-0.016103
-1004,-0.01936
-1003,-0.019332
-1002,-0.005353
-1001,0.015692
-1000,0.0039435
-999,0.0025505
-998,0.0073167
-997,0.0062803
-996,0.0074776
-995,-0.0034935
-994,0.0022543
-993,0.0071516
-992,0.013933
-991,0.00091568
-990,-0.01998
-989,-0.01312
-988,-0.01231
-987,0.010094
-986,0.023527
-985,0.00023701
-984,-0.0046791
-983,-0.00044649
-982,0.0063241
-981,-0.010254
-980,-0.027963
-979,-0.006224
-978,0.019635
-977,0.0063767
-976,-0.011704
-975,-0.0080055
-974,0.00088518
-973,0.012898
-972,0.018958
-971,-0.0099761
-970,-0.0099224
-969,0.011735
-968,-0.0022169
-967,0.012632
-966,0.010391
-965,-0.012007
-964,-0.0043071
-963,0.0048127
-962,-0.014899
-961,-0.0073963
-960,0.012423
-959,0.0015172
-958,5.8644e-05
-957,0.0023059
-956,-0.0016325
-955,-0.0027021
-954,0.00036633
-953,0.01004
-952,-0.011676
-951,-0.018657
-950,-0.018183
-949,-0.01021
-948,0.018076
-947,0.018777
-946,0.012204
-945,-0.0052409
-944,0.014266
-943,0.0056945
-942,-0.018933
-941,-0.0069655
-940,0.0067662
-939,0.016883
-938,-0.0020409
-937,-0.0021498
-936,-0.0067736
-935,-0.018238
-934,-0.0019824
-933,0.012733
-932,0.010786
-931,-0.0025689
-930,-0.0069971
-929,-0.0060326
-928,-0.0011006
-927,0.0062251
-926,-0.0046551
-925,-0.0095845
-924,0.014213
-923,0.014349
-922,-0.011393
-921,-0.010903
-920,0.0048715
-919,0.0026022
-918,0.0025165
-917,0.0033465
-916,0.004159
-915,0.010989
-914,-0.0024291
-913,-0.005141
-912,0.00072943
-911,-0.0080488
-910,-0.0080003
-909,-0.012431
-908,-0.015902
-907,-0.0077657
-906,0.021969
-905,0.054362
-904,0.0087756
-903,-0.012455
-902,-0.0010064
-901,-0.017953
-900,-0.021234
-899,-0.01832
-898,-0.0019357
-897,0.0063034
-896,0.018706
-895,0.02425
-894,0.0021874
-893,-0.024303
-892,-0.021502
-891,0.011197
-890,0.0065506
-889,-0.01564
-888,0.00081105
-887,0.0041696
-886,0.003572
-885,0.0043462
-884,0.012285
-883,0.015685
-882,0.012048
-881,-0.0084323
-880,-0.030398
-879,0.010774
-878,0.020059
-877,4.264e-05
-876,-0.0082615
-875,-0.001868
-874,-0.016609
-873,-0.0063404
-872,0.0092628
-871,-0.0095903
-870,-0.012606
-869,0.0058324
-868,0.012718
-867,0.0056041
-866,0.018477
-865,0.00048736
-864,-0.019256
-863,-0.014061
-862,-0.012053
-861,0.0059434
-860,0.0097051
-859,0.00057993
-858,0.012514
-857,0.0020675
-856,-0.0093422
-855,-0.00093976
-854,-0.0072419
-853,-0.0025428
-852,0.013236
-851,-0.0055726
-850,-0.0033368
-849,0.020844
-848,-0.010743
-847,-0.013801
-846,-0.00091338
-845,0.012148
-844,0.014944
-843,-0.016959
-842,-0.016946
-841,0.0062527
-840,0.022592
-839,0.014667
-838,0.0037148
-837,-0.0033716
-836,-0.016547
-835,-0.00133
-834,0.0017053
-833,-0.0074966
-832,-0.0028926
-831,0.0032736
-830,-0.00097566
-829,-0.0042073
-828,0.0038492
-827,0.0062814
-826,0.0040359
-825,0.0075974
-824,0.0025855
-823,-0.0097988
-822,-0.014047
-821,-0.011031
-820,-0.0025964
-819,0.0055402
-818,-0.011307
-817,-0.0024449
-816,0.016968
-815,0.014598
-814,-0.0043936
-813,0.0041647
-812,0.021667
-811,-0.0073535
-810,-0.03053
-809,0.0017258
-808,0.019122
-807,-0.0038462
-806,-0.0053982
-805,-0.018492
-804,-0.0040051
-803,0.024347
-802,0.012741
-801,-0.0018443
-800,-0.00047076
-799,-0.0041202
-798,-0.0028608
-797,-0.0022849
-796,-0.024266
-795,-0.0011435
-794,0.018417
-793,-0.0053171
-792,0.0026272
-791,0.012519
-790,-0.0068546
-789,0.0051914
-788,-0.0049083
-787,-0.0060481
-786,0.010475
-785,-0.00054779
-784,-0.011394
-783,0.0096221
-782,0.0024191
-781,-0.025276
-780,0.010129
-779,0.024948
-778,-0.014661
-777,-0.006696
-776,0.00053865
-775,-0.0035057
-774,0.02199
-773,0.017664
-772,0.010907
-771,-0.015933
-770,-0.036845
-769,-0.007799
-768,0.021091
-767,0.00036558
-766,-0.0092786
-765,-0.0030939
-764,0.018142
-763,0.010809
-762,-0.028263
-761,-0.016578
-760,-0.0028258
-759,-0.0010329
-758,0.021617
-757,0.019451
-756,-0.0084781
-755,0.00027125
-754,0.0057987
-753,-0.0030476
-752,-0.024268
-751,-0.003148
-750,0.037352
-749,0.0053607
-748,-0.0063088
-747,-0.0057648
-746,-0.0058821
-745,0.019024
-744,0.0066916
-743,-0.023091
-742,-0.017124
-741,0.015315
-740,0.011956
-739,-0.015818
-738,-0.0046544
-737,0.0049706
-736,0.0037931
-735,-0.011563
-734,0.010676
-733,0.00054432
-732,-0.029129
-731,0.015979
-730,0.014929
-729,-0.011976
-728,0.0019993
-727,-0.0034977
-726,0.0028644
-725,0.006878
-724,-0.0011916
-723,0.03984
-722,-0.0041358
-721,-0.044162
-720,-0.01119
-719,0.0088493
-718,0.0091486
-717,0.0013192
-716,0.0077282
-715,-0.0063272
-714,-0.0050751
-713,0.0030553
-712,-0.0037758
-711,0.018891
-710,0.015502
-709,-0.024206
-708,-0.012059
-707,-0.0050563
-706,-0.01023
-705,0.0053983
-704,0.015465
-703,0.011152
-702,0.0078415
-701,-0.002291
-700,0.0027696
-699,-0.017061
-698,-0.027944
-697,0.028442
-696,0.022919
-695,-0.014934
-694,-0.012182
-693,-0.0008582
-692,0.0010931
-691,-0.013628
-690,-0.020225
-689,0.0021097
-688,0.015702
-687,0.027306
-686,0.015726
-685,-0.025021
-684,-0.020694
-683,0.0094762
-682,0.0063458
-681,0.02156
-680,0.016948
-679,0.0037763
-678,-0.013465
-677,-0.037957
-676,-0.016774
-675,0.02081
-674,0.011635
-673,0.0031693
-672,0.0061576
-671,-0.020464
-670,-0.013336
-669,0.013246
-668,0.011546
-667,0.012314
-666,0.0088095
-665,-0.0070179
-664,-0.0055942
-663,-0.0033952
-662,-0.019439
-661,-0.007492
-660,0.024389
-659,0.0046021
-658,0.0023974
-657,-0.00857
-656,-0.027219
-655,0.00046417
-654,0.0096691
-653,0.011393
-652,0.016601
-651,0.0070611
-650,-0.00054201
-649,-0.020958
-648,-0.019547
-647,0.0091854
-646,0.013573
-645,0.0027627
-644,-0.0103
-643,-0.012959
-642,0.022066
-641,0.0037394
-640,-0.012247
-639,0.031961
-638,-0.013682
-637,-0.038731
-636,0.018461
-635,0.020673
-634,0.0062397
-633,0.0054805
-632,-0.0053723
-631,-0.018922
-630,-0.0088457
-629,0.019134
-628,-0.0071093
-627,-0.012125
-626,0.0031633
-625,-0.031304
-624,-0.019706
-623,0.026616
-622,0.019595
-621,0.00053448
-620,0.011756
-619,0.00812
-618,-0.011747
-617,0.0040438
-616,0.016061
-615,-0.0069398
-614,-0.0067676
-613,0.0015775
-612,0.010319
-611,-0.0053075
-610,-0.00057388
-609,0.0049677
-608,-0.0077414
-607,-0.005484
-606,0.0073326
-605,-0.0057432
-604,-0.0011512
-603,0.0081799
-602,-0.031685
-601,-0.014975
-600,0.015004
-599,-0.0086304
-598,-0.019381
-597,0.015407
-596,0.021784
-595,-0.00096844
-594,0.0033845
-593,0.0082558
-592,0.013311
-591,0.026235
-590,0.0030635
-589,-0.02465
-588,0.0041203
-587,0.003512
-586,-0.018866
-585,-0.017985
-584,-0.027195
-583,-0.010656
-582,0.024329
-581,0.019126
-580,0.002108
-579,0.0014214
-578,0.012587
-577,0.018977
-576,0.0055857
-575,-0.01365
-574,-0.02348
-573,0.0081301
-572,-0.0065305
-571,-0.019014
-570,0.01203
-569,0.013426
-568,0.0084016
-567,0.001583
-566,-0.011357
-565,-0.023356
-564,-0.003229
-563,0.028096
-562,-0.010557
-561,-0.013203
-560,0.0079011
-559,0.0075146
-558,0.01769
-557,-0.021728
-556,-0.017482
-555,0.0080187
-554,0.0055342
-553,0.0068531
-552,0.014101
-551,0.0030795
-550,-0.0098758
-549,0.012058
-548,0.012522
-547,-0.0033258
-546,-0.0021925
-545,-0.015466
-544,-0.031754
-543,-0.015746
-542,0.0089281
-541,0.021321
-540,0.020633
-539,0.021704
-538,0.0074639
-537,-0.024264
-536,-0.016398
-535,0.0033785
-534,0.0026133
-533,-0.0094494
-532,-0.019058
-531,0.0075139
-530,0.0032142
-529,-0.0086351
-528,0.01048
-527,0.00082413
-526,-0.022815
-525,-0.0043068
-524,0.029131
-523,0.029754
-522,0.003402
-521,-0.0071138
-520,-0.011258
-519,-0.02789
-518,0.0025195
-517,0.018525
-516,-0.003377
-515,0.0020874
-514,0.0062269
-513,0.015364
-512,-0.0070333
-511,-0.0071354
-510,0.016725
-509,-0.0062951
-508,-0.0012714
-507,-0.010364
-506,-0.011821
-505,0.0046262
-504,-0.016791
-503,-0.034152
-502,0.015294
-501,0.027129
-500,-0.0073527
-499,0.015861
-498,0.017449
-497,-0.0027821
-496,0.0045694
-495,0.0085041
-494,-0.005853
-493,-0.0089136
-492,-0.00020592
-491,-0.00039111
-490,-0.016138
-489,-0.003438
-488,0.0062529
-487,-0.010998
-486,-0.0053236
-485,0.019694
-484,-0.0042314
-483,-0.012307
-482,0.0091406
-481,0.013073
-480,-0.0023929
-479,-0.010099
-478,0.00070866
-477,0.0090208
-476,0.02215
-475,0.0014821
-474,-0.011836
-473,-0.021666
-472,-0.0062231
-471,0.0045807
-470,0.0084174
-469,0.016753
-468,-0.013485
-467,-0.021483
-466,0.01447
-465,0.0015015
-464,-0.00014613
-463,0.008054
-462,-0.0058568
-461,0.0099124
-460,-0.0093665
-459,-0.019331
-458,0.019028
-457,0.013814
-456,-0.014304
-455,-0.0034478
-454,0.00093698
-453,-0.00147
-452,-0.0034499
-451,-0.0091205
-450,-0.010951
-449,0.0030124
-448,0.035673
-447,0.010882
-446,-0.0089917
-445,-0.00055254
-444,0.010255
-443,0.011852
-442,-0.022099
-441,-0.025265
-440,0.0029841
-439,0.015124
-438,-0.00090296
-437,-0.023073
-436,-0.0063157
-435,0.011538
-434,-0.00010898
-433,0.0012315
-432,0.0049903
-431,0.010098
-430,0.0049953
-429,0.014081
-428,-0.010896
-427,-0.033245
-426,-0.012748
-425,0.014568
-424,0.026849
-423,-0.0053285
-422,-0.0044261
-421,-0.014314
-420,0.001064
-419,0.026319
-418,0.018905
-417,0.0038376
-416,0.0012335
-415,-0.022655
-414,-0.011971
-413,0.023756
-412,-0.0062644
-411,-0.032448
-410,-0.0011651
-409,0.0068514
-408,-0.017828
-407,0.0044498
-406,0.011401
-405,0.0069254
-404,0.0049012
-403,0.0087111
-402,0.0091379
-401,0.0025843
-400,-0.011668
-399,-0.023195
-398,-0.012315
-397,0.018477
-396,0.0088293
-395,0.019925
-394,-0.0050947
-393,-0.029273
-392,-0.01142
-391,0.0095276
-390,0.02528
-389,-0.023276
-388,0.017605
-387,0.020488
-386,-0.030274
-385,-0.00089815
-384,0.012642
-383,0.0026849
-382,0.001643
-381,0.016752
-380,0.0053676
-379,-0.0441
-378,-0.0035568
-377,0.017052
-376,-0.014396
-375,0.013975
-374,0.016956
-373,0.00049756
-372,-0.017472
-371,-0.018821
-370,0.0041081
-369,0.026823
-368,-3.9659e-05
-367,-0.0025927
-366,-0.013901
-365,-0.018243
-364,0.004414
-363,0.025362
-362,-0.0010704
-361,-0.017701
-360,0.002506
-359,-0.0087962
-358,-0.0033409
-357,-0.0092374
-356,0.015208
-355,0.043578
-354,0.0062671
-353,-0.029308
-352,-0.01179
-351,0.00024256
-350,0.0075672
-349,-0.010789
-348,0.013459
-347,0.002612
-346,-0.031465
-345,0.0073621
-344,0.030486
-343,0.018025
-342,-0.0067181
-341,-0.0030414
-340,-0.016547
-339,-0.023683
-338,0.0050846
-337,0.028495
-336,-0.010807
-335,-0.013469
-334,0.01309
-333,-0.0031291
-332,0.0056728
-331,-0.0011896
-330,-0.033844
-329,-0.013391
-328,0.0071899
-327,0.021347
-326,0.019306
-325,0.010153
-324,0.020686
-323,-0.0053612
-322,-0.023173
-321,-0.023891
-320,-0.0035612
-319,0.0054167
-318,0.006951
-317,0.012447
-316,0.0074677
-315,3.6515e-05
-314,-0.0041382
-313,-0.01187
-312,-0.016118
-311,-0.00553
-310,0.023935
-309,0.015516
-308,-0.007259
-307,-0.015994
-306,-0.00076341
-305,0.019459
-304,-0.011509
-303,-0.012626
-302,0.018441
-301,0.0046598
-300,-0.00064097
-299,-0.0061654
-298,-0.017354
-297,0.0017333
-296,-0.0066241
-295,0.019723
-294,0.019218
-293,-0.044697
-292,-0.0048531
-291,0.035797
-290,0.0072274
-289,0.011404
-288,0.007603
-287,-0.013586
-286,-0.0015731
-285,-0.010942
-284,-0.016901
-283,-0.01065
-282,0.014278
-281,-0.00015457
-280,-0.0062455
-279,0.027566
-278,0.0069422
-277,-0.012367
-276,0.0041109
-275,0.001025
-274,-0.032693
-273,-0.0030468
-272,0.017988
-271,-0.014661
-270,0.011242
-269,0.014761
-268,-0.0090755
-267,-0.003558
-266,-0.0065821
-265,0.00049659
-264,0.001194
-263,0.013771
-262,0.021449
-261,-0.016892
-260,-0.0080618
-259,0.020734
-258,-0.02094
-257,-0.023673
-256,0.006308
-255,-0.0041568
-254,0.0096718
-253,0.022813
-252,0.011924
-251,-0.0040275
-250,-0.012734
-249,0.0017996
-248,0.0016827
-247,-0.010754
-246,-0.019093
-245,0.0061003
-244,0.04069
-243,0.020187
-242,-0.028083
-241,-0.024055
-240,-0.016468
-239,-0.015277
-238,-0.0015693
-237,0.016022
-236,0.019346
-235,-0.0096975
-234,-0.0045288
-233,0.024666
-232,0.011519
-231,-0.015922
-230,0.017545
-229,0.021735
-228,-0.023474
-227,-0.012442
-226,-0.0035007
-225,-0.012819
-224,0.0056817
-223,0.014608
-222,0.0083258
-221,-0.01687
-220,-0.034445
-219,0.017825
-218,0.021416
-217,0.0067088
-216,0.013953
-215,-0.014897
-214,-0.024114
-213,-0.0030413
-212,-0.011101
-211,0.021976
-210,0.024964
-209,-0.0026997
-208,-0.0079752
-207,-0.003689
-206,-0.0096515
-205,-0.015646
-204,0.010787
-203,0.017681
-202,-0.016981
-201,-0.0058876
-200,0.031681
-199,0.014437
-198,-0.02978
-197,-0.026224
-196,-0.0005427
-195,0.0014086
-194,0.013562
-193,0.0056711
-192,0.014434
-191,-0.011605
-190,-0.01927
-189,0.016144
-188,-0.011901
-187,-0.0075836
-186,0.035578
-185,0.027921
-184,-0.0018094
-183,-0.012198
-182,-0.015064
-181,-0.0054185
-180,0.0012652
-179,-0.011934
-178,-0.0075087
-177,0.0031446
-176,-0.0040504
-175,0.0080349
-174,-0.0064937
-173,-0.019048
-172,0.010821
-171,0.024185
-170,-0.010345
-169,0.0080109
-168,0.0096889
-167,-0.026456
-166,0.00052402
-165,0.023784
-164,0.019541
-163,-0.014784
-162,-0.034383
-161,-0.003249
-160,0.0059555
-159,0.017596
-158,0.027268
-157,0.0043522
-156,0.00063955
-155,-0.022169
-154,-0.0051656
-153,0.0017888
-152,-0.019026
-151,-0.0033049
-150,0.0086662
-149,0.0030622
-148,0.0083032
-147,-0.023091
-146,-0.023106
-145,0.018295
-144,0.01781
-143,0.0011596
-142,-0.0044048
-141,0.023347
-140,-0.0033333
-139,-0.026221
-138,0.013201
-137,0.0086295
-136,-0.023588
-135,-0.00049472
-134,0.025176
-133,-0.0022049
-132,-0.0232
-131,-0.0037451
-130,0.016079
-129,0.018089
-128,0.027381
-127,0.0013505
-126,-0.026688
-125,-0.0046684
-124,0.00057829
-123,0.011358
-122,0.031322
-121,-0.0012796
-120,-0.033382
-119,-0.0057975
-118,0.00058047
-117,-0.038287
-116,-0.0024278
-115,0.020723
-114,-0.0011975
-113,-0.032709
-112,0.0051613
-111,0.058339
-110,-0.020358
-109,-0.039838
-108,0.012499
-107,0.020683
-106,-0.0017862
-105,0.0079453
-104,0.015015
-103,-0.0049509
-102,-0.013104
-101,0.00075463
-100,-0.0085871
-99,-0.015288
-98,0.013394
-97,0.0016768
-96,0.0126
-95,0.005524
-94,-0.0075521
-93,0.00803
-92,0.011691
-91,0.0021474
-90,-0.023212
-89,0.0073946
-88,0.016887
-87,-0.0095993
-86,-0.018521
-85,-0.035217
-84,-0.0075923
-83,0.0042423
-82,-0.0096437
-81,0.025977
-80,0.019999
-79,0.0098725
-78,0.027368
-77,0.0045585
-76,-0.0031755
-75,-0.0052554
-74,-0.037503
-73,-0.012551
-72,0.0031068
-71,0.0086319
-70,0.023328
-69,0.017291
-68,-0.027269
-67,-0.030821
-66,0.0019244
-65,-0.0024764
-64,0.023972
-63,0.021543
-62,-0.0033694
-61,0.014145
-60,-0.0099534
-59,-0.0006339
-58,0.0077622
-57,-0.017444
-56,0.0036814
-55,-0.010583
-54,-0.014018
-53,0.014756
-52,-0.014995
-51,0.0020942
-50,0.0074951
-49,-0.023141
-48,0.027297
-47,0.02821
-46,-0.023569
-45,-0.022479
-44,0.0043948
-43,0.021643
-42,0.0052063
-41,0.0076238
-40,0.0038477
-39,-0.0002479
-38,0.0094434
-37,-0.0013247
-36,-0.013448
-35,-0.014456
-34,-0.012182
-33,0.0074927
-32,0.0060583
-31,-0.039438
-30,-0.010156
-29,0.0087268
-28,0.019788
-27,0.019748
-26,0.010193
-25,-0.00024235
-24,-0.018714
-23,0.0073096
-22,0.01366
-21,-0.00086563
-20,-0.011287
-19,0.017844
-18,0.0049007
-17,-0.016284
-16,-0.015438
-15,0.014608
-14,0.024874
-13,-0.009573
-12,-0.041264
-11,-0.023641
-10,-0.025869
-9,-0.029767
-8,-0.0030063
-7,0.031489
-6,0.0039462
-5,-0.067192
-4,-0.11957
-3,-0.071291
-2,-0.309
-1,0.12999
0,1
1,0.12999
2,-0.309
3,-0.071291
4,-0.11957
5,-0.067192
6,0.0039462
7,0.031489
8,-0.0030063
9,-0.029767
10,-0.025869
11,-0.023641
12,-0.041264
13,-0.009573
14,0.024874
15,0.014608
16,-0.015438
17,-0.016284
18,0.0049007
19,0.017844
20,-0.011287
21,-0.00086563
22,0.01366
23,0.0073096
24,-0.018714
25,-0.00024235
26,0.010193
27,0.019748
28,0.019788
29,0.0087268
30,-0.010156
31,-0.039438
32,0.0060583
33,0.0074927
34,-0.012182
35,-0.014456
36,-0.013448
37,-0.0013247
38,0.0094434
39,-0.0002479
40,0.0038477
41,0.0076238
42,0.0052063
43,0.021643
44,0.0043948
45,-0.022479
46,-0.023569
47,0.02821
48,0.027297
49,-0.023141
50,0.0074951
51,0.0020942
52,-0.014995
53,0.014756
54,-0.014018
55,-0.010583
56,0.0036814
57,-0.017444
58,0.0077622
59,-0.0006339
60,-0.0099534
61,0.014145
62,-0.0033694
63,0.021543
64,0.023972
65,-0.0024764
66,0.0019244
67,-0.030821
68,-0.027269
69,0.017291
70,0.023328
71,0.0086319
72,0.0031068
73,-0.012551
74,-0.037503
75,-0.0052554
76,-0.0031755
77,0.0045585
78,0.027368
79,0.0098725
80,0.019999
81,0.025977
82,-0.0096437
83,0.0042423
84,-0.0075923
85,-0.035217
86,-0.018521
87,-0.0095993
88,0.016887
89,0.0073946
90,-0.023212
91,0.0021474
92,0.011691
93,0.00803
94,-0.0075521
95,0.005524
96,0.0126
97,0.0016768
98,0.013394
99,-0.015288
100,-0.0085871
101,0.00075463
102,-0.013104
103,-0.0049509
104,0.015015
105,0.0079453
106,-0.0017862
107,0.020683
108,0.012499
109,-0.039838
110,-0.020358
111,0.058339
112,0.0051613
113,-0.032709
114,-0.0011975
115,0.020723
116,-0.0024278
117,-0.038287
118,0.00058047
119,-0.0057975
120,-0.033382
121,-0.0012796
122,0.031322
123,0.011358
124,0.00057829
125,-0.0046684
126,-0.026688
127,0.0013505
128,0.027381
129,0.018089
130,0.016079
131,-0.0037451
132,-0.0232
133,-0.0022049
134,0.025176
135,-0.00049472
136,-0.023588
137,0.0086295
138,0.013201
139,-0.026221
140,-0.0033333
141,0.023347
142,-0.0044048
143,0.0011596
144,0.01781
145,0.018295
146,-0.023106
147,-0.023091
148,0.0083032
149,0.0030622
150,0.0086662
151,-0.0033049
152,-0.019026
153,0.0017888
154,-0.0051656
155,-0.022169
156,0.00063955
157,0.0043522
158,0.027268
159,0.017596
160,0.0059555
161,-0.003249
162,-0.034383
163,-0.014784
164,0.019541
165,0.023784
166,0.00052402
167,-0.026456
168,0.0096889
169,0.0080109
170,-0.010345
171,0.024185
172,0.010821
173,-0.019048
174,-0.0064937
175,0.0080349
176,-0.0040504
177,0.0031446
178,-0.0075087
179,-0.011934
180,0.0012652
181,-0.0054185
182,-0.015064
183,-0.012198
184,-0.0018094
185,0.027921
186,0.035578
187,-0.0075836
188,-0.011901
189,0.016144
190,-0.01927
191,-0.011605
192,0.014434
193,0.0056711
194,0.013562
195,0.0014086
196,-0.0005427
197,-0.026224
198,-0.02978
199,0.014437
200,0.031681
201,-0.0058876
202,-0.016981
203,0.017681
204,0.010787
205,-0.015646
206,-0.0096515
207,-0.003689
208,-0.0079752
209,-0.0026997
210,0.024964
211,0.021976
212,-0.011101
213,-0.0030413
214,-0.024114
215,-0.014897
216,0.013953
217,0.0067088
218,0.021416
219,0.017825
220,-0.034445
221,-0.01687
222,0.0083258
223,0.014608
224,0.0056817
225,-0.012819
226,-0.0035007
227,-0.012442
228,-0.023474
229,0.021735
230,0.017545
231,-0.015922
232,0.011519
233,0.024666
234,-0.0045288
235,-0.0096975
236,0.019346
237,0.016022
238,-0.0015693
239,-0.015277
240,-0.016468
241,-0.024055
242,-0.028083
243,0.020187
244,0.04069
245,0.0061003
246,-0.019093
247,-0.010754
248,0.0016827
249,0.0017996
250,-0.012734
251,-0.0040275
252,0.011924
253,0.022813
254,0.0096718
255,-0.0041568
256,0.006308
257,-0.023673
258,-0.02094
259,0.020734
260,-0.0080618
261,-0.016892
262,0.021449
263,0.013771
264,0.001194
265,0.00049659
266,-0.0065821
267,-0.003558
268,-0.0090755
269,0.014761
270,0.011242
271,-0.014661
272,0.017988
273,-0.0030468
274,-0.032693
275,0.001025
276,0.0041109
277,-0.012367
278,0.0069422
279,0.027566
280,-0.0062455
281,-0.00015457
282,0.014278
283,-0.01065
284,-0.016901
285,-0.010942
286,-0.0015731
287,-0.013586
288,0.007603
289,0.011404
290,0.0072274
291,0.035797
292,-0.0048531
293,-0.044697
294,0.019218
295,0.019723
296,-0.0066241
297,0.0017333
298,-0.017354
299,-0.0061654
300,-0.00064097
301,0.0046598
302,0.018441
303,-0.012626
304,-0.011509
305,0.019459
306,-0.00076341
307,-0.015994
308,-0.007259
309,0.015516
310,0.023935
311,-0.00553
312,-0.016118
313,-0.01187
314,-0.0041382
315,3.6515e-05
316,0.0074677
317,0.012447
318,0.006951
319,0.0054167
320,-0.0035612
321,-0.023891
322,-0.023173
323,-0.0053612
324,0.020686
325,0.010153
326,0.019306
327,0.021347
328,0.0071899
329,-0.013391
330,-0.033844
331,-0.0011896
332,0.0056728
333,-0.0031291
334,0.01309
335,-0.013469
336,-0.010807
337,0.028495
338,0.0050846
339,-0.023683
340,-0.016547
341,-0.0030414
342,-0.0067181
343,0.018025
344,0.030486
345,0.0073621
346,-0.031465
347,0.002612
348,0.013459
349,-0.010789
350,0.0075672
351,0.00024256
352,-0.01179
353,-0.029308
354,0.0062671
355,0.043578
356,0.015208
357,-0.0092374
358,-0.0033409
359,-0.0087962
360,0.002506
361,-0.017701
362,-0.0010704
363,0.025362
364,0.004414
365,-0.018243
366,-0.013901
367,-0.0025927
368,-3.9659e-05
369,0.026823
370,0.0041081
371,-0.018821
372,-0.017472
373,0.00049756
374,0.016956
375,0.013975
376,-0.014396
377,0.017052
378,-0.0035568
379,-0.0441
380,0.0053676
381,0.016752
382,0.001643
383,0.0026849
384,0.012642
385,-0.00089815
386,-0.030274
387,0.020488
388,0.017605
389,-0.023276
390,0.02528
391,0.0095276
392,-0.01142
393,-0.029273
394,-0.0050947
395,0.019925
396,0.0088293
397,0.018477
398,-0.012315
399,-0.023195
400,-0.011668
401,0.0025843
402,0.0091379
403,0.0087111
404,0.0049012
405,0.0069254
406,0.011401
407,0.0044498
408,-0.017828
409,0.0068514
410,-0.0011651
411,-0.032448
412,-0.0062644
413,0.023756
414,-0.011971
415,-0.022655
416,0.0012335
417,0.0038376
418,0.018905
419,0.026319
420,0.001064
421,-0.014314
422,-0.0044261
423,-0.0053285
424,0.026849
425,0.014568
426,-0.012748
427,-0.033245
428,-0.010896
429,0.014081
430,0.0049953
431,0.010098
432,0.0049903
433,0.0012315
434,-0.00010898
435,0.011538
436,-0.0063157
437,-0.023073
438,-0.00090296
439,0.015124
440,0.0029841
441,-0.025265
442,-0.022099
443,0.011852
444,0.010255
445,-0.00055254
446,-0.0089917
447,0.010882
448,0.035673
449,0.0030124
450,-0.010951
451,-0.0091205
452,-0.0034499
453,-0.00147
454,0.00093698
455,-0.0034478
456,-0.014304
457,0.013814
458,0.019028
459,-0.019331
460,-0.0093665
461,0.0099124
462,-0.0058568
463,0.008054
464,-0.00014613
465,0.0015015
466,0.01447
467,-0.021483
468,-0.013485
469,0.016753
470,0.0084174
471,0.0045807
472,-0.0062231
473,-0.021666
474,-0.011836
475,0.0014821
476,0.02215
477,0.0090208
478,0.00070866
479,-0.010099
480,-0.0023929
481,0.013073
482,0.0091406
483,-0.012307
484,-0.0042314
485,0.019694
486,-0.0053236
487,-0.010998
488,0.0062529
489,-0.003438
490,-0.016138
491,-0.00039111
492,-0.00020592
493,-0.0089136
494,-0.005853
495,0.0085041
496,0.0045694
497,-0.0027821
498,0.017449
499,0.015861
500,-0.0073527
501,0.027129
502,0.015294
503,-0.034152
504,-0.016791
505,0.0046262
506,-0.011821
507,-0.010364
508,-0.0012714
509,-0.0062951
510,0.016725
511,-0.0071354
512,-0.0070333
513,0.015364
514,0.0062269
515,0.0020874
516,-0.003377
517,0.018525
518,0.0025195
519,-0.02789
520,-0.011258
521,-0.0071138
522,0.003402
523,0.029754
524,0.029131
525,-0.0043068
526,-0.022815
527,0.00082413
528,0.01048
529,-0.0086351
530,0.0032142
531,0.0075139
532,-0.019058
533,-0.0094494
534,0.0026133
535,0.0033785
536,-0.016398
537,-0.024264
538,0.0074639
539,0.021704
540,0.020633
541,0.021321
542,0.0089281
543,-0.015746
544,-0.031754
545,-0.015466
546,-0.0021925
547,-0.0033258
548,0.012522
549,0.012058
550,-0.0098758
551,0.0030795
552,0.014101
553,0.0068531
554,0.0055342
555,0.0080187
556,-0.017482
557,-0.021728
558,0.01769
559,0.0075146
560,0.0079011
561,-0.013203
562,-0.010557
563,0.028096
564,-0.003229
565,-0.023356
566,-0.011357
567,0.001583
568,0.0084016
569,0.013426
570,0.01203
571,-0.019014
572,-0.0065305
573,0.0081301
574,-0.02348
575,-0.01365
576,0.0055857
577,0.018977
578,0.012587
579,0.0014214
580,0.002108
581,0.019126
582,0.024329
583,-0.010656
584,-0.027195
585,-0.017985
586,-0.018866
587,0.003512
588,0.0041203
589,-0.02465
590,0.0030635
591,0.026235
592,0.013311
593,0.0082558
594,0.0033845
595,-0.00096844
596,0.021784
597,0.015407
598,-0.019381
599,-0.0086304
600,0.015004
601,-0.014975
602,-0.031685
603,0.0081799
604,-0.0011512
605,-0.0057432
606,0.0073326
607,-0.005484
608,-0.0077414
609,0.0049677
610,-0.00057388
611,-0.0053075
612,0.010319
613,0.0015775
614,-0.0067676
615,-0.0069398
616,0.016061
617,0.0040438
618,-0.011747
619,0.00812
620,0.011756
621,0.00053448
622,0.019595
623,0.026616
624,-0.019706
625,-0.031304
626,0.0031633
627,-0.012125
628,-0.0071093
629,0.019134
630,-0.0088457
631,-0.018922
632,-0.0053723
633,0.0054805
634,0.0062397
635,0.020673
636,0.018461
637,-0.038731
638,-0.013682
639,0.031961
640,-0.012247
641,0.0037394
642,0.022066
643,-0.012959
644,-0.0103
645,0.0027627
646,0.013573
647,0.0091854
648,-0.019547
649,-0.020958
650,-0.00054201
651,0.0070611
652,0.016601
653,0.011393
654,0.0096691
655,0.00046417
656,-0.027219
657,-0.00857
658,0.0023974
659,0.0046021
660,0.024389
661,-0.007492
662,-0.019439
663,-0.0033952
664,-0.0055942
665,-0.0070179
666,0.0088095
667,0.012314
668,0.011546
669,0.013246
670,-0.013336
671,-0.020464
672,0.0061576
673,0.0031693
674,0.011635
675,0.02081
676,-0.016774
677,-0.037957
678,-0.013465
679,0.0037763
680,0.016948
681,0.02156
682,0.0063458
683,0.0094762
684,-0.020694
685,-0.025021
686,0.015726
687,0.027306
688,0.015702
689,0.0021097
690,-0.020225
691,-0.013628
692,0.0010931
693,-0.0008582
694,-0.012182
695,-0.014934
696,0.022919
697,0.028442
698,-0.027944
699,-0.017061
700,0.0027696
701,-0.002291
702,0.0078415
703,0.011152
704,0.015465
705,0.0053983
706,-0.01023
707,-0.0050563
708,-0.012059
709,-0.024206
710,0.015502
711,0.018891
712,-0.0037758
713,0.0030553
714,-0.0050751
715,-0.0063272
716,0.0077282
717,0.0013192
718,0.0091486
719,0.0088493
720,-0.01119
721,-0.044162
722,-0.0041358
723,0.03984
724,-0.0011916
725,0.006878
726,0.0028644
727,-0.0034977
728,0.0019993
729,-0.011976
730,0.014929
731,0.015979
732,-0.029129
733,0.00054432
734,0.010676
735,-0.011563
736,0.0037931
737,0.0049706
738,-0.0046544
739,-0.015818
740,0.011956
741,0.015315
742,-0.017124
743,-0.023091
744,0.0066916
745,0.019024
746,-0.0058821
747,-0.0057648
748,-0.0063088
749,0.0053607
750,0.037352
751,-0.003148
752,-0.024268
753,-0.0030476
754,0.0057987
755,0.00027125
756,-0.0084781
757,0.019451
758,0.021617
759,-0.0010329
760,-0.0028258
761,-0.016578
762,-0.028263
763,0.010809
764,0.018142
765,-0.0030939
766,-0.0092786
767,0.00036558
768,0.021091
769,-0.007799
770,-0.036845
771,-0.015933
772,0.010907
773,0.017664
774,0.02199
775,-0.0035057
776,0.00053865
777,-0.006696
778,-0.014661
779,0.024948
780,0.010129
781,-0.025276
782,0.0024191
783,0.0096221
784,-0.011394
785,-0.00054779
786,0.010475
787,-0.0060481
788,-0.0049083
789,0.0051914
790,-0.0068546
791,0.012519
792,0.0026272
793,-0.0053171
794,0.018417
795,-0.0011435
796,-0.024266
797,-0.0022849
798,-0.0028608
799,-0.0041202
800,-0.00047076
801,-0.0018443
802,0.012741
803,0.024347
804,-0.0040051
805,-0.018492
806,-0.0053982
807,-0.0038462
808,0.019122
809,0.0017258
810,-0.03053
811,-0.0073535
812,0.021667
813,0.0041647
814,-0.0043936
815,0.014598
816,0.016968
817,-0.0024449
818,-0.011307
819,0.0055402
820,-0.0025964
821,-0.011031
822,-0.014047
823,-0.0097988
824,0.0025855
825,0.0075974
826,0.0040359
827,0.0062814
828,0.0038492
829,-0.0042073
830,-0.00097566
831,0.0032736
832,-0.0028926
833,-0.0074966
834,0.0017053
835,-0.00133
836,-0.016547
837,-0.0033716
838,0.0037148
839,0.014667
840,0.022592
841,0.0062527
842,-0.016946
843,-0.016959
844,0.014944
845,0.012148
846,-0.00091338
847,-0.013801
848,-0.010743
849,0.020844
850,-0.0033368
851,-0.0055726
852,0.013236
853,-0.0025428
854,-0.0072419
855,-0.00093976
856,-0.0093422
857,0.0020675
858,0.012514
859,0.00057993
860,0.0097051
861,0.0059434
862,-0.012053
863,-0.014061
864,-0.019256
865,0.00048736
866,0.018477
867,0.0056041
868,0.012718
869,0.0058324
870,-0.012606
871,-0.0095903
872,0.0092628
873,-0.0063404
874,-0.016609
875,-0.001868
876,-0.0082615
877,4.264e-05
878,0.020059
879,0.010774
880,-0.030398
881,-0.0084323
882,0.012048
883,0.015685
884,0.012285
885,0.0043462
886,0.003572
887,0.0041696
888,0.00081105
889,-0.01564
890,0.0065506
891,0.011197
892,-0.021502
893,-0.024303
894,0.0021874
895,0.02425
896,0.018706
897,0.0063034
898,-0.0019357
899,-0.01832
900,-0.021234
901,-0.017953
902,-0.0010064
903,-0.012455
904,0.0087756
905,0.054362
906,0.021969
907,-0.0077657
908,-0.015902
909,-0.012431
910,-0.0080003
911,-0.0080488
912,0.00072943
913,-0.005141
914,-0.0024291
915,0.010989
916,0.004159
917,0.0033465
918,0.0025165
919,0.0026022
920,0.0048715
921,-0.010903
922,-0.011393
923,0.014349
924,0.014213
925,-0.0095845
926,-0.0046551
927,0.0062251
928,-0.0011006
929,-0.0060326
930,-0.0069971
931,-0.0025689
932,0.010786
933,0.012733
934,-0.0019824
935,-0.018238
936,-0.0067736
937,-0.0021498
938,-0.0020409
939,0.016883
940,0.0067662
941,-0.0069655
942,-0.018933
943,0.0056945
944,0.014266
945,-0.0052409
946,0.012204
947,0.018777
948,0.018076
949,-0.01021
950,-0.018183
951,-0.018657
952,-0.011676
953,0.01004
954,0.00036633
955,-0.0027021
956,-0.0016325
957,0.0023059
958,5.8644e-05
959,0.0015172
960,0.012423
961,-0.0073963
962,-0.014899
963,0.0048127
964,-0.0043071
965,-0.012007
966,0.010391
967,0.012632
968,-0.0022169
969,0.011735
970,-0.0099224
971,-0.0099761
972,0.018958
973,0.012898
974,0.00088518
975,-0.0080055
976,-0.011704
977,0.0063767
978,0.019635
979,-0.006224
980,-0.027963
981,-0.010254
982,0.0063241
983,-0.00044649
984,-0.0046791
985,0.00023701
986,0.023527
987,0.010094
988,-0.01231
989,-0.01312
990,-0.01998
991,0.00091568
992,0.013933
993,0.0071516
994,0.0022543
995,-0.0034935
996,0.0074776
997,0.0062803
998,0.0073167
999,0.0025505
1000,0.0039435
1001,0.015692
1002,-0.005353
1003,-0.019332
1004,-0.01936
1005,-0.016103
1006,-0.002296
1007,0.0011741
1008,-0.0011857
1009,0.0085442
1010,0.020264
1011,0.019222
1012,0.006655
1013,-0.015154
1014,-0.028035
1015,-0.0051834
1016,0.018068
1017,0.0038482
1018,-0.008014
1019,0.020381
1020,0.0095286
1021,-0.018303
1022,-0.00026878
1023,-0.0032205
1024,-0.0094029
1025,0.0086709
1026,0.012817
1027,0.0023763
1028,-0.0093699
1029,0.0049424
1030,0.015729
1031,-0.022073
1032,-0.014785
1033,-0.010055
1034,-0.023371
1035,0.021409
1036,0.034216
1037,-0.014373
1038,-0.0102
1039,0.019842
1040,-0.0014964
1041,-0.0042583
1042,0.0014621
1043,-0.0024426
1044,0.0046872
1045,-0.015428
1046,-0.020614
1047,0.0064325
1048,0.021094
1049,0.023438
1050,-0.0027718
1051,-0.0078352
1052,0.0061811
1053,-0.030868
1054,-0.0089383
1055,0.025893
1056,-0.011702
1057,-0.0095609
1058,0.01384
1059,0.0036054
1060,-0.0058747
1061,0.00028398
1062,0.0091444
1063,0.0035957
1064,-0.0058178
1065,-0.0041304
1066,-0.0096785
1067,0.00022804
1068,0.012679
1069,0.015048
1070,0.018328
1071,-0.0034802
1072,-0.032445
1073,-0.0069535
1074,0.014442
1075,-0.0028346
1076,-0.0029496
1077,0.018475
1078,0.0034506
1079,-0.023695
1080,-0.0088433
1081,0.0036209
1082,0.010993
1083,0.005622
1084,0.0087848
1085,0.0044502
1086,-0.019207
1087,-0.021763
1088,-0.0060594
1089,-0.003154
1090,0.0047528
1091,0.027726
1092,0.028589
1093,0.0021688
1094,-0.012642
1095,-0.015309
1096,-0.011946
1097,-0.0059955
1098,-0.012462
1099,0.017869
1100,0.016047
1101,-0.03156
1102,-0.013265
1103,0.024509
1104,0.011892
1105,0.0052114
1106,-0.0090084
1107,-0.0044088
1108,0.011152
1109,-0.0038945
1110,0.010582
1111,0.010107
1112,-0.014591
1113,-0.014298
1114,-0.0093944
1115,0.00099198
1116,-0.0022861
1117,0.014916
1118,0.021279
1119,-0.0081598
1120,0.011712
1121,0.0098212
1122,-0.0050756
1123,-0.00085307
1124,-0.024162
1125,-0.024892
1126,-0.020047
1127,0.0057866
1128,0.026866
1129,-0.0072137
1130,-0.0041896
1131,0.017631
1132,0.012629
1133,0.00089967
1134,-0.0015264
1135,0.0065196
1136,0.00028647
1137,-6.1973e-06
1138,-0.0071786
1139,-0.009176
1140,0.018528
1141,-0.00084611
1142,-0.028903
1143,-0.0090423
1144,8.8522e-05
1145,0.016378
1146,0.0185
1147,0.0012384
1148,-0.0052766
1149,-0.0063636
1150,-0.0048643
1151,0.0020645
1152,-0.0018061
1153,0.0014177
1154,0.014555
1155,-0.01092
1156,-0.015682
1157,0.0039309
1158,0.0050623
1159,0.01012
1160,0.015002
1161,-0.012773
1162,-0.024989
1163,0.028377
1164,0.015157
1165,-0.022306
1166,-3.0912e-05
1167,-0.011922
1168,-0.011954
1169,0.00019148
1170,-0.0017586
1171,0.012707
1172,0.0079516
1173,-0.00071061
1174,-0.0016496
1175,-0.0035343
1176,0.012322
1177,0.014204
1178,-0.008651
1179,-0.020962
1180,0.0049583
1181,0.006332
1182,-0.0013099
1183,0.0083108
1184,0.0020703
1185,-0.0086991
1186,-0.0038016
1187,0.0144
1188,0.014669
1189,-0.016351
1190,-0.027306
1191,-0.00054231
1192,0.0081276
1193,0.01004
1194,-0.0030802
1195,-0.014955
1196,-0.00021318
1197,-0.0023791
1198,0.012964
1199,0.0087561
1200,-0.0035929
1201,-0.0058222
1202,-0.0073854
1203,0.016667
1204,0.020808
1205,-0.0080262
1206,-0.0079737
1207,0.0058125
1208,-0.0027633
1209,-0.012181
1210,-0.001246
1211,0.0078235
1212,0.00305
1213,-0.014396
1214,0.00010761
1215,0.018466
1216,-0.014576
1217,-0.014477
1218,0.014101
1219,-0.0005369
1220,-0.0081974
1221,0.019648
1222,0.004431
1223,-0.010338
1224,0.0045372
1225,-0.015824
1226,-0.0039909
1227,0.019126
1228,-0.0043256
1229,0.013795
1230,0.0099534
1231,-0.023737
1232,-0.0011605
1233,0.0065267
1234,-0.0057394
1235,-0.0011411
1236,0.0060596
1237,-0.0041141
1238,-0.0088389
1239,-0.0063589
1240,-0.01197
1241,0.0018302
1242,0.011041
1243,0.0074768
1244,-0.0079687
1245,-0.0084038
1246,0.011383
1247,0.001644
1248,0.0080734
1249,0.0054948
1250,0.0096786
1251,0.012271
1252,-0.0024325
1253,-0.0080221
1254,-0.011869
1255,-0.0091594
1256,-0.023263
1257,-0.0073652
1258,0.019469
1259,0.0085734
1260,-0.00015483
1261,0.0037953
1262,0.0058958
1263,0.016223
1264,0.0040716
1265,0.0019046
1266,-0.021679
1267,-0.021769
1268,0.020384
1269,0.009831
1270,-0.0053286
1271,0.00616
1272,-0.012199
1273,-0.006018
1274,0.0061648
1275,-0.0097741
1276,0.0038601
1277,0.0017379
1278,-0.009171
1279,-0.0032135
1280,0.013461
1281,0.0098438
1282,0.0015065
1283,-0.0055442
1284,0.0035357
1285,0.013674
1286,-0.0036806
1287,-0.002741
1288,0.007656
1289,-0.014379
1290,-0.014247
1291,0.0082574
1292,0.01064
1293,-0.003211
1294,-0.014179
1295,0.0030633
1296,0.0029782
1297,-0.02066
1298,-0.0044383
1299,0.00054596
1300,-0.0056919
1301,0.016452
1302,0.022404
1303,0.014881
1304,-0.0021318
1305,-0.0091964
1306,-0.014793
1307,-0.0035663
1308,0.0033939
1309,0.004927
1310,0.0061496
1311,-0.0053508
1312,-0.0097011
1313,-0.0028929
1314,0.019599
1315,0.0035762
1316,-0.018361
1317,-0.019568
1318,0.0020422
1319,0.0086454
1320,0.0020406
1321,0.0062868
1322,-0.0041012
1323,-0.0068678
1324,0.0041232
1325,-0.0077626
1326,0.0039134
1327,0.033849
1328,0.014901
1329,0.011409
1330,-0.0039334
1331,-0.035119
1332,-0.025339
1333,0.0016828
1334,0.024648
1335,0.0074072
1336,-0.0079146
1337,-0.012579
1338,-0.0093584
1339,0.0082461
1340,0.008116
1341,0.014952
1342,-0.00022855
1343,-0.010265
1344,-0.014772
1345,-0.0050989
1346,0.016086
1347,-0.00017538
1348,0.00083716
1349,0.0067682
1350,-0.016433
1351,0.00074374
1352,0.011265
1353,-0.011695
1354,0.0013473
1355,0.013384
1356,0.0098648
1357,0.0036452
1358,-0.027533
1359,-0.0067223
1360,0.0092974
1361,-0.002384
1362,0.0045029
1363,-0.0006103
1364,0.01017
1365,0.0067357
1366,-0.01122
1367,-0.0047979
1368,0.0018762
1369,0.0046183
1370,-0.00145
1371,-0.015516
1372,0.0053198
1373,0.01287
1374,0.00018155
1375,0.00070342
1376,0.0047251
1377,-0.010795
1378,-0.017106
1379,0.003483
1380,0.0031628
1381,-0.0046332
1382,0.0027062
1383,0.0065601
1384,0.0034489
1385,0.0063201
1386,0.0013718
1387,0.0044147
1388,-0.0058862
1389,-0.0093011
1390,0.0084343
1391,0.0012356
1392,-0.011965
1393,-0.0034018
1394,0.011496
1395,-0.0017926
1396,-0.0042606
1397,-0.002377
1398,0.0093383
1399,0.0030107
1400,-0.007929
1401,-0.0020475
1402,0.0068672
1403,-0.0010913
1404,0.00094238
1405,-0.0054896
1406,-0.0043974
1407,0.012386
1408,-0.0012823
1409,-0.0067709
1410,-0.0081695
1411,0.0036276
1412,0.019881
1413,-0.0015783
1414,-0.018748
1415,-0.0026352
1416,0.0071715
1417,0.015908
1418,0.0071296
1419,-0.0067777
1420,-0.0045839
1421,0.0012147
1422,0.0014467
1423,-0.0052586
1424,-0.011613
1425,0.0067728
1426,0.0092446
1427,-0.0068218
1428,-0.011547
1429,-0.0037914
1430,0.012927
1431,-0.0029152
1432,-0.0036694
1433,0.013159
1434,-0.0029029
1435,-0.021603
1436,0.00075311
1437,0.01303
1438,0.0076781
1439,-0.00051597
1440,-0.011002
1441,0.0066835
1442,0.0080204
1443,-0.011247
1444,0.0067423
1445,0.016537
1446,-0.0057696
1447,-0.010728
1448,0.0023661
1449,-0.0023455
1450,-0.0075854
1451,0.00697
1452,0.0054774
1453,-0.0080598
1454,0.00062937
1455,0.0060429
1456,-0.0018337
1457,-0.0055283
1458,-0.0051805
1459,0.0088196
1460,0.0089394
1461,-0.022295
1462,-0.013528
1463,0.011571
1464,0.0036808
1465,0.010684
1466,-0.0012921
1467,-0.0055989
1468,0.0087056
1469,-0.0088506
1470,0.0052665
1471,0.0091922
1472,0.0015045
1473,0.0070914
1474,-0.013041
1475,-0.018755
1476,0.0067323
1477,0.01179
1478,0.0029639
1479,-0.0034799
1480,0.0045902
1481,-0.0081284
1482,-0.0035771
1483,0.0075053
1484,0.0062875
1485,0.0039402
1486,-0.010234
1487,0.0055222
1488,-0.0066958
1489,-0.022763
1490,0.0041028
1491,0.015104
1492,0.004134
1493,-0.012057
1494,-0.0029315
1495,0.012226
1496,0.0029817
1497,-0.010375
1498,-0.0067804
1499,0.010398
1500,0.0034851
1501,0.0026257
1502,0.0092237
1503,-0.004661
1504,0.0065122
1505,0.0042088
1506,-0.0098311
1507,-0.018408
1508,-0.0023965
1509,0.016633
1510,-0.0014396
1511,-0.015995
1512,-0.0013571
1513,0.0084695
1514,0.0054177
1515,0.0033998
1516,-0.0054552
1517,-0.0027682
1518,0.0064775
1519,-0.0022424
1520,0.0084913
1521,0.010535
1522,-0.014492
1523,-0.006148
1524,0.011881
1525,0.0053804
1526,-0.019091
1527,0.0015209
1528,0.023563
1529,-0.010233
1530,-0.017276
1531,-0.0011531
1532,0.0012668
1533,-0.0012663
1534,0.0059537
1535,0.010644
1536,-0.011146
1537,-0.0037547
1538,-0.0055277
1539,-0.0010025
1540,0.015785
1541,0.0074112
1542,-0.0067177
1543,-0.0046491
1544,0.005109
1545,-0.0042741
1546,-0.0080972
1547,-0.0036983
1548,0.014673
1549,0.01143
1550,-0.016261
1551,-0.00010081
1552,0.010879
1553,0.00087388
1554,0.0028681
1555,-0.013813
1556,-0.0086418
1557,0.017389
1558,0.006467
1559,-0.01032
1560,-0.00099786
1561,-0.010188
1562,0.0072011
1563,0.016963
1564,-0.01216
1565,-0.0033115
1566,-0.0070175
1567,-0.0023377
1568,0.0065544
1569,-0.011991
1570,0.0006409
1571,0.013243
1572,-0.006102
1573,-0.0068349
1574,0.0063622
1575,0.013555
1576,-0.0038667
1577,-0.012764
1578,0.0054336
1579,0.0087574
1580,-0.0002345
1581,0.0088332
1582,0.010902
1583,-0.003474
1584,-0.0054268
1585,-0.0041977
1586,-0.012116
1587,-0.013875
1588,-0.0087714
1589,0.017138
1590,0.0029006
1591,-0.0048425
1592,0.0020986
1593,0.0046415
1594,0.013282
1595,-0.0043266
1596,-0.010365
1597,0.0026004
1598,0.0066261
1599,-0.0082088
1600,-0.011136
1601,-0.00028154
1602,0.0095511
1603,0.0063784
1604,-0.0054903
1605,-0.008957
1606,0.0056403
1607,0.022076
1608,0.025335
1609,-0.0038889
1610,-0.020953
1611,-0.021053
1612,-0.0086305
1613,0.0066088
1614,-0.00018015
1615,0.0019056
1616,0.00090294
1617,0.0087868
1618,0.0043988
1619,0.0040748
1620,0.0035469
1621,-0.0032258
1622,-0.017158
1623,-0.0048537
1624,0.0033489
1625,-0.012468
1626,-0.013943
1627,0.0065038
1628,0.030084
1629,0.0027586
1630,-0.020485
1631,0.00075974
1632,0.01415
1633,0.0062842
1634,-0.0081595
1635,0.021297
1636,0.012177
1637,-0.018048
1638,-0.010081
1639,-0.01945
1640,-0.0054288
1641,0.01581
1642,0.01404
1643,0.002303
1644,-0.00031563
1645,0.0061891
1646,-0.017128
1647,-0.01983
1648,-0.0022402
1649,0.010917
1650,0.0071475
1651,0.010956
1652,0.0091092
1653,-0.02413
1654,-0.0053956
1655,0.027706
1656,-0.0098013
1657,-0.016473
1658,0.012966
1659,0.0077938
1660,-0.0094029
1661,-0.0055979
1662,0.0099678
1663,0.0073342
1664,0.0012757
1665,-0.0080539
1666,-0.020021
1667,-0.0041873
1668,0.020064
1669,-0.0060073
1670,-0.0069067
1671,0.0027047
1672,-0.019737
1673,-0.0018099
1674,0.015344
1675,0.0073984
1676,0.018987
1677,0.010427
1678,0.0046187
1679,-0.0046191
1680,-0.015614
1681,0.0097221
1682,0.003383
1683,-0.017135
1684,0.0017419
1685,0.022963
1686,-0.0093573
1687,-0.020421
1688,0.010442
1689,0.0091645
1690,-0.018534
1691,-0.022346
1692,-0.018831
1693,0.0044661
1694,0.0029534
1695,-0.011882
1696,0.032758
1697,0.039801
1698,-0.0043468
1699,-0.021125
1700,0.0022066
1701,0.0093169
1702,0.0067154
1703,0.0086385
1704,-0.00025757
1705,0.0087495
1706,-0.024375
1707,-0.024148
1708,0.0088788
1709,-0.00049316
1710,0.0011705
1711,0.020223
1712,0.004521
1713,-0.016285
1714,-0.0033497
1715,-0.0013639
1716,0.0012334
1717,-0.0053799
1718,-0.012114
1719,-0.0010241
1720,-0.0033016
1721,0.014143
1722,0.0041968
1723,0.0059316
1724,0.010834
1725,-0.014358
1726,-0.006633
1727,-0.0037068
1728,0.0026356
1729,0.0090036
1730,-0.0063109
1731,0.005043
1732,0.014665
1733,-0.0075009
1734,-0.0082914
1735,0.0089276
1736,-0.0087506
1737,-0.010391
1738,0.011831
1739,0.01056
1740,-0.0064439
1741,-0.017495
1742,0.0044132
1743,0.012778
1744,-0.0098559
1745,0.00082643
1746,0.031602
1747,0.0043022
1748,-0.014533
1749,-9.8045e-05
1750,-0.011647
1751,-0.006352
1752,0.0096084
1753,-0.002706
1754,-0.024847
1755,-0.013704
1756,0.0066571
1757,0.0073004
1758,0.016134
1759,0.012152
1760,0.00081008
1761,-0.012684
1762,-0.01057
1763,0.0016999
1764,-0.0015255
1765,0.0054442
1766,0.027717
1767,0.012632
1768,-0.02142
1769,-0.015791
1770,-0.00011238
1771,0.0018417
1772,0.0048055
1773,0.014659
1774,0.012686
1775,-0.0093944
1776,-0.017705
1777,-0.0029903
1778,0.010542
1779,-0.0079953
1780,-0.016872
1781,0.0066828
1782,-0.0021605
1783,-0.014378
1784,0.010831
1785,0.022262
1786,0.0028241
1787,-0.013211
1788,0.0030891
1789,0.0097348
1790,-0.010713
1791,-0.011036
1792,0.019486
1793,0.0061864
1794,-0.015651
1795,-0.0062407
1796,-0.002727
1797,-0.008851
1798,0.00060006
1799,0.014131
1800,0.023757
1801,-0.0098637
1802,-0.022371
1803,0.021092
1804,0.0096885
1805,-0.012631
1806,-0.011282
1807,0.0045902
1808,0.010375
1809,-0.002411
1810,0.00058211
1811,0.0053336
1812,-0.0066313
1813,-0.0059616
1814,0.0040728
1815,-0.0066065
1816,-0.011583
1817,0.0057888
1818,0.018865
1819,-0.0031391
1820,-0.016038
1821,-0.004362
1822,-0.00023408
1823,0.0054609
1824,0.0012737
1825,-0.013104
1826,0.020129
1827,0.023979
1828,-0.012183
1829,-0.012322
1830,0.00066203
1831,0.0042391
1832,-0.003391
1833,-0.013101
1834,-0.00017732
1835,0.0025131
1836,-0.0024344
1837,0.0082277
1838,0.007263
1839,-0.0032559
1840,0.00015242
1841,0.0067305
1842,0.008772
1843,0.00759
1844,0.0056897
1845,-8.9664e-05
1846,0.0014744
1847,-0.01331
1848,-0.031768
1849,-0.0091574
1850,0.018284
1851,0.0099091
1852,-0.024673
1853,0.0021442
1854,0.017721
1855,-0.024167
1856,-0.0041077
1857,0.013072
1858,-0.0046879
1859,0.00075504
1860,0.013033
1861,0.017676
1862,0.0066745
1863,-0.0013831
1864,0.0037862
1865,0.009226
1866,-0.011586
1867,-0.019341
1868,0.0053284
1869,9.567e-05
1870,-0.0090539
1871,-0.0041028
1872,0.00044791
1873,0.006655
1874,0.0041331
1875,-0.013776
1876,-0.0093992
1877,0.018269
1878,0.024002
1879,0.0066901
1880,-0.016046
1881,-0.018026
1882,0.0092215
1883,0.012122
1884,-0.0042538
1885,-0.011168
1886,-0.0026928
1887,0.00066263
1888,-0.0083132
1889,0.0080525
1890,-0.0027478
1891,-0.010956
1892,0.0090366
1893,-0.0052635
1894,-0.0075908
1895,0.00015573
1896,0.019085
1897,0.014801
1898,-0.012165
1899,-0.0016933
1900,-0.011407
1901,0.0019818
1902,0.016661
1903,-0.0019685
1904,0.0015257
1905,0.0086471
1906,0.007164
1907,0.0061555
1908,0.0078778
1909,-0.012801
1910,-0.018329
1911,0.008545
1912,-0.015131
1913,-0.027812
1914,0.0055881
1915,0.023453
1916,0.0028576
1917,-0.0088019
1918,0.00025262
1919,-0.013298
1920,-0.008609
1921,0.013474
1922,0.013863
1923,0.0057359
1924,0.0070157
1925,-0.012155
1926,-0.0040978
1927,0.0021526
1928,-0.010792
1929,0.0017286
