0.0003543,0.00069856,0.00073134,0.00055944,0.00021589,0.00013735,0.00050997,0.00082526,0.00073149,0.00048898,0.00039305,0.0007119,0.0012994,0.0013349,0.0011131,0.00086069,0.00062365,0.00080256,0.0010263,0.00092911,0.0006071,0.00029814,0.00034344,0.00061127,0.00088649,0.0010511,0.00087146,0.00058728,0.00065218,0.00090667,0.00093685,0.00075721,0.00043488,0.0003393,0.00076975,0.0011036,0.0010163,0.001007,0.00074499,0.00060896,0.00074064,0.00055165,0.0002869,7.5645e-05,-7.7904e-05,0.00018004,0.00066155,0.00096716,0.001098,0.00097871,0.00069558,0.0006186,0.00054423,0.00035291,0.000225,0.00014912,0.00025718,0.00067446,0.0010491,0.0011191,0.00094721,0.00065492,0.00048738,0.0002496,-0.00012733,-0.00031383,-0.00037965,-0.00017817,0.00033045,0.00081879,0.00091171,0.00077095,0.00061254,0.00063752,0.00069287,0.00047243,0.00011498,-0.00018511,-0.0001842,0.00012564,0.00059504,0.0010433,0.0010341,0.00078482,0.00081751,0.00098439,0.00082797,0.00033221,-0.0001408,-0.00031279,5.9193e-05,0.00058752,0.00088114,0.00080234,0.00064128,0.00070442,0.00088932,0.00088916,0.00063959,0.00025919,4.5425e-05,0.00030893,0.00081621,0.0012444,0.0013157,0.0010274,0.00085062,0.00097283,0.0011109,0.00093162,0.00055792,0.00022044,2.5155e-05,0.00028151,0.00069239,0.0009812,0.0010466,0.00076211,0.00053938,0.00055177,0.00059425,0.00049636,0.00013618,-0.00016002,-0.00014165,0.00027443,0.00086897,0.0012441,0.0011428,0.00077214,0.00063974,0.0007014,0.00056901,0.00026796,-0.00017371,-0.00051724,-0.00023289,0.00044821,0.00081258,0.00091363,0.00071839,0.00040415,0.00040137,0.00036774,0.00022185,0.00020228,0.00023139,0.0003702,0.00063409,0.00073064,0.00080179,0.00070782,0.00040003,0.0002227,0.00012412,-0.00015673,-0.00038182,-0.00038363,-0.00029574,-0.00011082,0.00024617,0.00044041,0.00031088,5.019e-05,-5.85e-05,-6.2467e-06,-0.00011832,-0.00036373,-0.00048889,-0.0002445,0.00028888,0.0007145,0.00083818,0.00064991,0.00030625,0.00022833,0.00026276,-2.295e-06,-0.00040688,-0.00075349,-0.00082404,-0.00048181,-2.9283e-05,0.00015639,5.1759e-05,-0.00026342,-0.00027697,5.5954e-05,0.00016501,-7.5842e-05,-0.00047245,-0.00063872,-0.00025222,0.0003904,0.00086527,0.00084431,0.00043925,0.00019446,0.00032818,0.00055314,0.00055383,0.00028501,-0.00010264,-6.1878e-05,0.00037728,0.00080868,0.00099767,0.00068823,0.00028161,0.00034393,0.00066209,0.0009168,0.00080491,0.00032472,0.00025868,0.00076946,0.0011199,0.0012799,0.0011544,0.00076269,0.00058625,0.00061249,0.00055219,0.00058187,0.00060392,0.00063504,0.00078869,0.00098768,0.0010542,0.00096846,0.00083841,0.00091497,0.00098879,0.00072598,0.00023111,-0.00017476,-0.00020485,0.00028157,0.00078702,0.00090898,0.00083257,0.00068798,0.00080335,0.0011508,0.0011659,0.00075341,0.00031806,0.0001425,0.00059119,0.0012348,0.0014977,0.0013287,0.00086402,0.00066107,0.00079397,0.00090325,0.00066484,2.6483e-05,-0.00040699,-0.00024372,0.00024652,0.00081164,0.0010039,0.00061127,0.00032518,0.00046472,0.0007806,0.00095132,0.00078073,0.00039681,0.00034326,0.00063236,0.00095149,0.0011258,0.00092817,0.00060906,0.00058699,0.00067374,0.00054881,0.00020858,-0.00018082,-0.00039393,-0.00011592,0.00030351,0.00043879,0.00038456,0.00036836,0.00050305,0.00066534,0.00052717,0.00019003,-0.00011458,-0.00028249,5.3232e-05,0.00048975,0.00048488,0.00025577,0.00021434,0.0003879,0.0004131,9.1649e-05,-0.00037838,-0.00081446,-0.00070015,-1.0838e-06,0.00065547,0.00076954,0.00054589,0.0003634,0.00035867,0.00040253,0.00021788,-7.5529e-05,-0.00034944,-0.00033372,4.2327e-05,0.00057328,0.00080954,0.00057692,0.00020399,9.4597e-05,0.00029006,0.00045336,0.00044236,0.00016642,-0.00017341,-0.00011563,0.00037415,0.00088331,0.0010599,0.00081341,0.00043554,0.00042773,0.00057978,0.00048619,0.00030125,0.00011612,6.2335e-05,0.00053321,0.0011461,0.0014148,0.0013001,0.0010385,0.00078447,0.00055213,0.00020445,-0.00012198,-0.00026814,-0.00031519,-0.00017881,6.5521e-05,0.00018471,0.00022602,0.0002025,0.000204,0.00033823,0.00032809,4.1446e-05,-0.0002044,-0.00024463,-2.7918e-06,0.00047518,0.00073519,0.00061943,0.00030238,0.00011295,0.0003613,0.00067428,0.00060097,0.00031082,-3.714e-05,-8.4793e-05,0.00037363,0.0009186,0.0011088,0.00081272,0.00043613,0.00043795,0.00070281,0.00074424,0.00042478,5.5445e-05,-2.8649e-05,0.00012678,0.00046143,0.00084924,0.00067886,0.00027418,0.00022417,0.00021796,7.2704e-05,-0.00011595,-0.00019564,-0.00021778,-1.3921e-05,0.00023123,0.00043759,0.00054744,0.00050179,0.00054972,0.0005095,0.0001324,-0.00022074,-0.00028278,-0.00017818,7.2948e-05,0.00040599,0.00053047,0.00045155,0.00031769,0.0003207,0.00054886,0.00051337,0.00024344,0.00011601,4.7381e-05,0.00013002,0.0003262,0.00054037,0.00056927,0.00036734,0.00027743,0.0004106,0.00044335,0.00030672,0.00022709,0.00016731,6.3078e-05,0.00022205,0.00061296,0.00077555,0.00061207,0.00053832,0.00057456,0.00043278,0.00018042,0.00013353,7.8215e-05,0.00018261,0.00034844,0.00052132,0.00068983,0.00073615,0.00054728,0.00043945,0.00052433,0.0004513,0.00030283,0.00024025,4.2663e-05,-0.00010903,0.00010779,0.00037375,0.00051571,0.000513,0.00041228,0.00033919,0.00026876,0.00012356,-0.00010837,-0.00018526,-4.8619e-05,7.9054e-05,0.00018277,0.00027913,0.00026364,0.00019249,0.00027934,0.00036961,0.00024363,-6.4536e-05,-0.00034353,-0.000306,0.00016521,0.0007459,0.0010805,0.00099249,0.00071273,0.00058891,0.00055238,0.00047278,0.00011821,-0.00043248,-0.00063946,-0.00035681,0.00019914,0.00076129,0.00066505,0.00019535,8.9583e-05,0.00018902,0.00027314,0.00023264,-7.203e-05,-0.00054499,-0.000741,-0.00048888,3.1483e-05,0.0003173,0.00020177,-4.7516e-05,-9.2307e-05,7.3311e-05,4.4123e-05,-9.7657e-05,-0.00026101,-0.00035952,-0.00018252,0.00022792,0.00032788,0.00014652,-9.9377e-06,4.8587e-05,0.00013671,5.0551e-05,-0.00015273,-0.00038874,-0.00047841,-0.00021383,0.00022543,0.00045398,0.00033141,-2.6003e-05,-6.1793e-05,0.00029342,0.00042106,7.9758e-05,-0.00032697,-0.00055185,-0.00052737,-0.00025716,0.0001895,0.00020514,-0.00030062,-0.00058014,-0.00053684,-0.00030243,-0.00021531,-0.000492,-0.00077271,-0.00073027,-0.00034672,0.00019879,0.00038779,0.00019716,-0.0001791,-0.00041223,-0.00043223,-0.00042537,-0.00045155,-0.00058252,-0.00060196,-0.00029301,-3.1089e-05,-5.8031e-06,-0.00013936,-0.00034688,-0.00028838,-0.00011259,-0.00010063,-0.00019387,-0.00036617,-0.00062325,-0.00056837,-0.00011103,0.00036833,0.00041509,0.00010267,4.3191e-06,0.00037978,0.00069841,0.00044487,-0.00011594,-0.00056908,-0.00044133,0.00040758,0.0010808,0.0010951,0.00068801,0.00035331,0.00053114,0.00091056,0.00098262,0.00069508,0.00012322,-0.00012114,0.00028579,0.0009569,0.0012566,0.0011371,0.00076241,0.00065055,0.00088124,0.00093053,0.00088672,0.00078183,0.00089804,0.0016337,0.0022569,0.0024585,0.0027576,0.0025958,0.0022027,0.0017404,0.0010974,0.00062658,0.00041329,0.00028628,0.00030606,0.00051437,0.00068769,0.00084392,0.00069289,0.00050184,0.00069672,0.0011349,0.0013653,0.0012166,0.00080851,0.00040137,0.00034143,0.00034623,0.00010755,-0.00030342,-0.00049665,-0.00043966,-0.00025081,0.00016665,0.00043364,0.00030473,8.3436e-05,-7.5023e-05,0.00014221,0.00068082,0.0010986,0.0012815,0.0011916,0.0012012,0.001351,0.0014497,0.0015938,0.001679,0.0014879,0.0012617,0.0010221,0.00079059,0.00056135,0.00033199,0.00032323,0.00035847,0.00042552,0.00054749,0.00057668,0.00063464,0.00082926,0.0010716,0.0010264,0.00055398,-1.2319e-05,-0.00026416,-0.0002052,-0.00010615,-0.00047174,-0.0011008,-0.0015085,-0.0015524,-0.0011657,-0.00068681,-0.00040576,-0.00027195,-0.00010952,9.3129e-05,0.00026723,0.00043779,0.0004857,0.00032704,0.00044952,0.00084228,0.0011681,0.0014097,0.0014262,0.00090601,0.00030364,0.00013448,5.2108e-05,-0.00012989,-0.0002915,-0.00045054,-0.00058171,-0.00040792,-0.00018955,-1.2545e-05,0.00025669,0.00051753,0.00067819,0.00061536,0.0004054,0.0001842,7.4191e-05,-6.1475e-06,0.00015867,0.00038533,0.00046734,0.00058997,0.00062377,0.00071728,0.00097517,0.0010152,0.00084965,0.000768,0.00091701,0.0011588,0.001187,0.00080689,8.2267e-05,-0.00063234,-0.00075682,-0.00057719,-0.00045361,-0.00018857,0.00031395,0.00070082,0.00076498,0.00087255,0.00086336,0.00086112,0.0011643,0.0011188,0.00071941,0.00055991,0.00025277,-0.00020361,-0.0002572,3.5642e-05,0.00025988,0.00028413,0.00028471,0.00018073,6.8735e-05,2.0298e-05,-0.00011217,-6.8076e-05,-3.7086e-05,-3.2833e-05,0.00013308,0.00025709,0.00025899,0.0002488,0.00016316,0.00020752,0.00038897,0.0004798,0.00043229,0.00023322,-4.7459e-05,-0.00024975,-0.00028601,-0.00038673,-0.00035383,-3.1962e-05,0.00039883,0.00065113,0.00077475,0.0011546,0.0016489,0.0020657,0.0025722,0.0029246,0.0027549,0.0023821,0.0017851,0.0014632,0.0017933,0.0022181,0.002498,0.0027776,0.0030056,0.0028021,0.0023014,0.0017428,0.00083877,4.1015e-05,-0.00058957,-0.0010463,-0.001223,-0.0010659,-0.00079516,-0.00060412,-0.00027319,2.0283e-05,0.00016461,0.00033916,0.00058303,0.00075681,0.00079956,0.00075802,0.00077885,0.0008392,0.00070892,0.00041449,0.00035285,0.00035069,0.00016212,-0.00011632,-0.00027072,-0.00033497,-0.00053351,-0.00058563,-0.00066495,-0.001096,-0.0017121,-0.0018976,-0.0016086,-0.0011436,-0.00071396,-0.00055131,-0.00056272,-0.0006626,-0.00066555,-0.00037256,8.8516e-05,0.00018116,-1.3018e-05,-1.7207e-05,-0.00013574,-0.0002084,-0.00010639,-0.00010743,-0.00032938,-0.00049972,-0.0003745,-7.1732e-05,-3.6168e-05,-5.0804e-05,8.5831e-05,0.00021503,0.00032602,0.0003433,0.00027694,0.0001884,0.00022582,0.00047525,0.00070168,0.00061028,0.00052886,0.00070549,0.0010137,0.0013975,0.0016026,0.0014467,0.0012087,0.0011064,0.0012184,0.001446,0.0013494,0.00097594,0.00079661,0.00089407,0.00082726,0.00071187,0.00065504,0.00048846,0.00035696,0.0002839,0.00017473,-8.5162e-05,-0.00028192,-4.3122e-05,0.00019328,-2.9211e-05,-0.0003302,-0.00047755,-0.0004997,-0.00023738,6.9261e-05,0.00045267,0.00058302,0.00044195,0.00037258,0.00038905,0.00057202,0.00077487,0.00082329,0.00074893,0.00084647,0.001274,0.0015892,0.0016449,0.0016255,0.0013984,0.0009851,0.00049034,8.0868e-05,-0.00018978,-0.00037392,-0.00045922,-0.00049908,-0.00052957,-0.00033813,-0.0001035,0.00011514,0.00035267,0.00060456,0.0007453,0.0007328,0.00065632,0.000726,0.0010349,0.0013975,0.0014751,0.00092106,0.00043156,0.00027314,-3.1574e-05,-0.00044143,-0.00084409,-0.0010389,-0.00084636,-0.00059927,-0.00041582,-0.00019715,-0.0001059,-6.2323e-05,-0.00013678,-0.00022185,8.1185e-05,0.00068418,0.0012408,0.0016797,0.001797,0.001543,0.00095444,0.00022186,-0.00020827,-0.00039507,-0.00074294,-0.00094605,-0.00093613,-0.0010745,-0.0011918,-0.0011636,-0.0011745,-0.0013099,-0.0012313,-0.00074383,-0.00025833,-0.00021338,-0.00021153,4.9025e-07,0.00018078,0.00048277,0.00081337,0.00097221,0.00091664,0.00089273,0.00087869,0.00071878,0.00061187,0.00053182,0.00043051,0.00018908,-7.0795e-05,-0.00010991,-1.0471e-05,0.00015733,0.00037081,0.00055206,0.00066037,0.00055555,0.00034959,0.00026112,0.00033776,0.00057196,0.00088314,0.00096074,0.00058116,0.0002299,0.00015471,0.0002022,0.00018632,0.00013929,5.5495e-05,-8.4364e-05,-0.00019185,-0.00033569,-0.00055196,-0.00072472,-0.00059766,-0.00034921,-0.00024235,-0.00032905,-0.00036353,-0.00029422,-7.6523e-05,0.00033392,0.0009082,0.0010851,0.00068585,0.00029798,6.5461e-05,-0.00015378,-0.00038995,-0.00043796,-0.00038824,-0.0003773,-0.00011492,9.0292e-05,4.3802e-05,0.00010234,0.00029096,0.00050369,0.00066477,0.00059351,0.00048167,0.00054991,0.00073217,0.0011089,0.0013458,0.0011601,0.0008897,0.00077522,0.00072389,0.0005006,0.00022417,0.00024191,0.00040463,0.0006532,0.00088938,0.00089564,0.00072431,0.00050346,0.00038634,0.00045225,0.00056901,0.00030734,-9.7083e-05,-0.00019674,-2.7234e-05,0.00033863,0.00058766,0.00050502,0.00035443,0.00022313,0.00019626,0.00021039,7.7427e-05,4.5884e-05,0.00014699,0.00033964,0.00071329,0.00085676,0.00050572,9.945e-05,-7.2689e-05,1.367e-05,0.00018616,0.00029946,0.00022231,0.00010663,0.00014432,0.00029889,0.00047324,0.00040961,0.00012869,-3.2555e-05,3.8673e-05,0.00015497,0.0001188,5.7792e-06,-0.00011515,-7.3921e-05,0.00017154,0.00043298,0.00042589,0.00020728,-4.5948e-05,-0.00020733,-0.00010859,9.339e-05,0.00023933,0.00033431,0.0004464,0.00058703,0.00067333,0.00060764,0.00028405,8.6546e-05,3.4985e-05,1.7417e-05,0.00018689,0.00026109,0.0001678,0.00017817,0.00027603,0.00039921,0.00049369,0.00044865,0.00050473,0.00066229,0.00076867,0.0006889,0.00055013,0.0004059,0.00033463,0.00055726,0.00094174,0.0010891,0.0010162,0.00096144,0.0010178,0.00090881,0.0006476,0.00052087,0.00032879,5.6873e-05,-9.0705e-06,-2.9531e-05,-0.0001411,-0.00013431,-8.0716e-05,-0.00010309,-0.0001646,-8.7439e-05,0.00011212,0.00033171,0.00041509,0.00037904,0.0003242,3.9705e-05,-0.0001863,-0.00012228,5.0488e-05,0.00029204,0.00043783,0.00019984,-3.3515e-05,3.5166e-05,9.8318e-05,0.0002951,0.0002932,8.4694e-05,0.00024285,0.00049653,0.00046052,0.00032546,0.00040329,0.00069455,0.00096432,0.0010369,0.00094149,0.00068462,0.00053451,0.00058339,0.00053722,0.00046697,0.00038712,0.00015049,4.4132e-05,9.611e-05,0.000296,0.00058877,0.00053747,0.00022483,0.00018797,0.00038783,0.00069256,0.00068313,0.00052935,0.00054113,0.00068378,0.0010067,0.0010314,0.00048818,-1.0069e-05,-0.0001136,1.4581e-05,0.00012483,2.0846e-05,5.4111e-05,0.00027482,0.00050428,0.00066416,0.00059864,0.00042514,0.00024946,0.00029439,0.00053569,0.00082781,0.0010808,0.0012911,0.0015369,0.0016609,0.0016466,0.0014717,0.0012074,0.0011745,0.001428,0.0016391,0.0015943,0.0014251,0.0013426,0.0011587,0.00084086,0.00046746,0.0001199,-7.717e-05,-0.00019664,-0.00018775,-0.0001111,-0.00023287,-0.00043831,-0.00061157,-0.00079288,-0.00082895,-0.00085214,-0.00088406,-0.00088615,-0.00088958,-0.00075231,-0.00060576,-0.00045741,-0.00055588,-0.00088893,-0.0010502,-0.00095064,-0.00070395,-0.00048005,-0.00039536,-0.00032955,-0.00014145,8.7731e-05,0.00025352,0.00016778,-1.0147e-05,-8.5808e-05,-3.4332e-05,-7.6793e-05,-0.00018596,-0.00025913,-0.00031164,-0.00020912,-2.7309e-05,3.5191e-05,9.7803e-05,0.00013414,8.4302e-05,0.00017425,0.00029476,0.00027782,0.00018021,-4.1479e-06,-0.00016312,-0.00036314,-0.0005295,-0.00052288,-0.00049573,-0.00031434,-0.00017484,-0.00013338,-7.9628e-05,5.0662e-06,0.00021436,0.00042875,0.00028081,-0.00016493,-0.00067168,-0.0010285,-0.0010563,-0.00084923,-0.00047493,-0.00021474,-8.3917e-05,4.0657e-05,0.00010185,0.00013649,0.00015695,0.00016702,0.00014973,0.0001061,0.00017727,0.00037853,0.0004348,0.00037328,0.00044477,0.00046254,0.00037692,0.00030547,0.00023147,0.00012075,1.0777e-05,-6.4308e-06,8.6533e-05,0.00021107,0.00033498,0.00038364,0.00027263,0.00024456,0.00031752,0.00030315,0.00034652,0.00039104,0.00043052,0.00055027,0.00060214,0.00058889,0.00052954,0.00035906,0.00021132,0.00016557,3.3795e-05,-5.7713e-05,-4.7232e-05,1.1804e-05,0.00014461,0.00028503,0.00032283,0.0003788,0.00046996,0.00042248,0.00030252,0.00024261,0.00012109,9.5118e-06,7.8046e-07,1.388e-05,6.5381e-05,0.00017903,0.00018862,0.00024914,0.00041031,0.00044346,0.00027823,0.00010984,-3.4166e-05,-9.8449e-05,4.4073e-06,0.000121,0.00013682,0.00010717,6.3918e-05,0.00020408,0.00045752,0.00055013,0.00040651,0.0001961,-6.9901e-06,-0.00014032,-6.794e-05,1.9848e-05,3.9211e-05,3.0788e-06,-6.0404e-05,7.2221e-05,0.00036788,0.00048307,0.0003519,0.00014705,-2.9348e-05,8.0219e-08,0.00014909,0.00021948,0.00020923,0.00016928,0.00019232,0.00032093,0.00050162,0.00068439,0.00077529,0.00068876,0.00063037,0.00057819,0.00041689,0.00032387,0.00025168,0.00016829,0.00017535,0.0002613,0.00026899,0.00023808,0.00022561,0.00022204,0.00028543,0.00030055,0.00023407,0.00011916,8.1225e-05,0.00014209,0.0002233,0.00025736,0.00022223,0.00017612,-1.3582e-05,-6.1979e-05,0.00013708,0.0001325,4.8646e-05,4.1524e-05,-1.0474e-05,-6.5515e-05,-2.5776e-05,-9.3057e-06,-4.4037e-05,-0.00012617,-8.1563e-05,-6.0233e-05,-0.00016835,-0.00027439,-0.000294,-0.00013664,5.6696e-05,5.8748e-05,-0.00010602,-0.0001143,-1.9545e-05,-7.1597e-05,-0.00010145,-0.00010018,-0.00020315,-0.00029415,-0.00029487,-0.00015949,1.0012e-08,-3.276e-06,-7.7996e-05,-0.00015364,-0.00025091,-0.00018787,-0.00015566,-0.00029153,-0.00043016,-0.00044691,-0.0002918,-0.00011162,-6.1646e-05,-9.9164e-05,-0.0001821,-0.00022471,-0.00017312,-0.00010015,-0.00013008,-0.00017292,-0.00018061,-0.00021033,-0.00025652,-0.00032246,-0.00054835,-0.00080721,-0.00072896,-0.00044031,-0.00012265,4.3422e-06,-7.9413e-06,6.3137e-05,0.00025968,0.00051161,0.0006476,0.00052008,0.00039456,0.00041484,0.00056176,0.000765,0.00085801,0.00089349,0.00098774,0.0011117,0.0012306,0.0012244,0.00095958,0.00064441,0.00047846,0.00044833,0.00049019,0.00052516,0.00046575,0.00049711,0.00050705,0.00029976,-8.6584e-06,-0.00044162,-0.00073423,-0.00059305,-0.00032535,-7.1083e-05,0.00023561,0.00041391,0.00041822,0.00033281,0.00031439,0.00040907,0.00046367,0.00030847,0.00012046,0.00015553,0.00039582,0.00062945,0.00062138,0.00037116,7.2929e-05,-2.3118e-05,0.00020284,0.00037701,0.00028705,0.0001769,0.00022333,0.0004757,0.00068013,0.00060531,0.00045271,0.00046975,0.00049992,0.00049667,0.00046407,0.0003197,0.00011212,0.00019077,0.00042658,0.00053423,0.00060725,0.00054588,0.0003809,0.00032234,0.00039527,0.00039271,0.0003818,0.00035616,0.00024424,0.00012227,9.288e-05,9.1922e-05,8.6888e-05,0.00010385,8.4965e-05,0.00017414,0.0003033,0.00030262,0.00018545,0.00013218,8.0776e-05,5.1267e-05,0.00014047,0.00017381,5.2804e-05,-0.00014875,-0.00015737,-9.3734e-05,-0.00025258,-0.00061965,-0.0010561,-0.0013193,-0.0011445,-0.00081026,-0.00061415,-0.00048803,-0.00039507,-0.00019487,-2.737e-05,-3.8782e-05,-0.00013987,-0.00022033,-0.00017839,-1.0405e-05,0.00023585,0.00044104,0.00052075,0.00046315,0.00028383,2.5124e-05,-0.0002271,-0.00054208,-0.0007093,-0.000619,-0.00044423,-0.00029584,-0.00028959,-0.00051803,-0.00079024,-0.00087418,-0.00081698,-0.00076954,-0.00073982,-0.00076842,-0.00077763,-0.0007125,-0.00063404,-0.00055769,-0.00055585,-0.00064064,-0.00063648,-0.00045547,-0.00024895,9.0958e-06,0.00020776,0.00023766,0.00018399,0.00022269,0.0003936,0.00043721,0.00033836,0.0002579,0.00019872,0.00022519,0.00031206,0.00014834,-5.32e-05,-5.854e-05,4.4689e-05,0.00016771,0.00026714,0.00035041,0.00041832,0.00051635,0.00047626,0.00036165,0.00037875,0.00039543,0.00034965,0.00038175,0.00041894,0.00028056,0.00022471,0.00013646,-0.0001056,-0.00030896,-0.00035049,-0.00029472,-0.00028205,-0.00030888,-0.00018813,0.00017799,0.00044853,0.00060259,0.00075556,0.00081661,0.00079782,0.00083097,0.00088188,0.00091843,0.0007988,0.00062519,0.00048932,0.00037391,0.00037844,0.00049325,0.00053735,0.00056805,0.00060936,0.0006739,0.00072106,0.0007112,0.00072705,0.00069199,0.00060415,0.00042538,0.00036318,0.00059668,0.00085266,0.00097121,0.00085609,0.00042731,-6.5939e-05,-0.00035157,-0.00050527,-0.00049457,-0.00032361,-0.00014801,-5.6492e-05,-1.8708e-05,2.2111e-05,6.4952e-05,-0.00010576,-0.00040276,-0.00057618,-0.00053016,-0.00020932,0.00020524,0.00049916,0.00067618,0.00069105,0.0005982,0.00052769,0.00050771,0.00064851,0.00096447,0.0010716,0.00090436,0.00072977,0.00027943,-0.00042531,-0.00079117,-0.00067922,-0.00038268,-0.00018103,-0.0001533,-0.00024627,-0.00033639,-0.00041859,-0.00033087,-0.00014417,2.101e-05,0.00020517,0.00036029,0.00039932,0.00030549,0.00019586,1.7652e-05,-0.0001122,-0.00013153,-0.00017166,-0.00022929,-0.00031034,-0.00040875,-0.00047011,-0.00039608,-0.00025232,-9.542e-05,-0.0001308,-0.00018647,7.6486e-06,0.00022355,0.00031709,0.00027341,0.00011215,5.0756e-05,5.9965e-05,0.00012324,0.00019396,0.00023286,0.00032599,0.00047533,0.0004712,0.00033719,0.00020245,0.0001072,9.1551e-05,9.3833e-05,0.00012485,0.00016834,0.00023623,0.00021243,-2.9542e-05,-5.8219e-05,0.00016957,0.00031539,0.00029395,0.00019895,0.00019987,0.00038274,0.00053991,0.00045315,0.00028478,0.00015331,7.5516e-05,0.00010174,0.00010791,3.7392e-05,1.1487e-05,0.00011668,0.00033108,0.00035228,0.0001644,8.4751e-06,-0.00016631,-0.0003127,-0.00027565,-0.00021893,-0.00010046,7.1035e-05,0.00021371,0.00021092,8.0421e-05,-9.7738e-07,-2.0021e-05,2.6223e-05,0.00012714,0.0002327,0.00040918,0.00055343,0.00054705,0.00026935,-8.6416e-05,-0.00023549,-0.0002502,-0.00028063,-0.00043674,-0.00064093,-0.00069021,-0.00046352,-7.8237e-05,0.00013647,6.6151e-05,1.3433e-05,7.101e-05,8.3729e-05,2.7247e-05,-0.00012169,-0.00026604,-0.00011924,0.00028603,0.00051082,0.00041981,0.00025365,0.00014591,0.00014117,0.00019748,7.511e-05,-0.00012442,-0.00029832,-0.00030032,-0.00014147,-5.1611e-05,-0.00011083,-0.00021101,-0.00030382,-0.00033412,-0.00037568,-0.00037479,-0.00024165,-0.00017216,-0.00010534,-6.6838e-05,-0.00015471,-0.00023721,-0.00030917,-0.00041129,-0.0004802,-0.00052031,-0.00051362,-0.00050137,-0.0004235,-0.00022695,1.7165e-05,0.00019148,0.00035145,0.00026576,-2.6513e-05,-0.00026116,-0.00045144,-0.00052686,-0.00056853,-0.00055103,-0.000578,-0.0005718,-0.0004088,-0.00021358,-0.00014211,-0.00025481,-0.00025521,-0.00012581,-0.00018591,-0.00030698,-0.00041252,-0.0005333,-0.00052211,-0.00043357,-0.0004414,-0.0004302,-0.0004608,-0.0005118,-0.00062255,-0.00072711,-0.0006951,-0.00058516,-0.00043352,-0.00029304,-0.00030898,-0.00031919,-0.00017603,-0.00017335,-0.00040892,-0.00064054,-0.0006505,-0.00066262,-0.00045676,-8.4284e-05,-0.00010125,-0.00041004,-0.00079747,-0.00079499,-0.00024409,0.00041671,0.00014324,-0.0010047,-0.001538,-0.0014632,-0.00029939,0.00056973,-0.0013854,-0.0032678,-0.0032114,-0.0023186,-0.0016479,-0.0018282,-0.003759,-0.0052263,-0.0037912,-0.0032197,-0.003639,-0.0046559,-0.0056018,-0.0038681,-0.0030657,-0.0038411,-0.0047747,-0.0059299,-0.0054837,-0.0037335,-0.0026343,-0.003579,-0.0059642,-0.0059632,-0.0026161,-0.0020025,-0.0027714,-0.003101,-0.0056454,-0.0058553,-0.0028979,-0.00078758,-0.00065176,-0.0034518,-0.0042569,-0.0013402,0.0039715,0.0036935,-0.0033304,-0.0092485,-0.0082497,-0.00093383,0.0059908,0.0061946,-0.0025735,-0.0057011,0.00024591,0.003203,0.0048396,-0.0015004,-0.0086024,-0.0078109,-0.0029348,0.0027582,-1.6689e-05,-0.0067058,-0.0084068,-0.0063688,-0.00025264,0.0054274,0.0037961,-0.0019089,-0.0062104,-0.0039231,0.0044503,0.0060986,-0.0019607,-0.0082977,-0.0060412,-0.0013661,0.0047877,0.0051596,-0.006352,-0.0093585,-0.0061762,-0.0045945,-0.0017963,-0.0062953,-0.0089267,-0.0049817,-0.00038454,0.0058644,0.0072314,0.0020379,-0.0053431,-0.0074519,-0.0039376,-0.00040044,-0.0031636,-0.0027807,-4.2025e-05,0.0027783,0.0085148,0.0074217,0.00036663,-0.0047778,-0.0056949,-0.0041822,-0.0036604,-0.003571,-0.0033902,0.0014803,0.0053736,0.0089369,0.0072382,-0.0017552,-0.0073913,-0.0077659,-0.0045816,-0.00063243,-0.0031905,-0.010287,-0.0095611,-0.0046199,-0.00063343,0.0026409,0.0017153,0.0041097,0.0062871,0.0029272,0.00098005,-0.002768,-0.0088379,-0.0088466,-0.0030316,0.0017571,0.0057082,0.0029446,-0.00038665,-0.00032809,-0.0011918,-0.00017626,-0.0038082,-0.009616,-0.010265,-0.0059533,0.0010924,0.0060078,0.0062828,0.0024599,0.00046392,-0.0010861,-0.0016374,-0.0058908,-0.013037,-0.014775,-0.012625,-0.0069868,-0.0026787,0.0049918,0.0078395,0.0020404,-0.0024035,-0.0085981,-0.011586,-0.010934,-0.011503,-0.0098298,-0.0041162,0.00070959,0.0038384,0.012288,0.016107,0.010487,-0.00044117,-0.011659,-0.013965,-0.010184,-0.0093104,-0.012853,-0.0051974,0.0040267,0.0099526,0.017064,0.012649,0.0041694,-0.0040123,-0.0087449,-0.0076403,-0.0065544,-0.0067665,-0.0053274,-0.00013131,0.0078738,0.014432,0.010001,0.0026065,-0.0038902,-0.00895,-0.0063383,-0.0034549,-0.0040474,-0.0043109,-0.0012167,0.0028623,0.0084105,0.013057,0.0076622,-0.00095726,-0.0068912,-0.0073148,-0.0059784,-0.0088434,-0.01239,-0.0093549,-0.00031402,0.0054908,0.0039452,-0.0022743,-0.0040642,-0.0042811,-0.0093593,-0.012362,-0.017101,-0.019787,-0.015862,-0.0050174,0.0097766,0.013036,0.0055066,-0.001288,-0.0048117,-0.0035473,-0.0036128,-0.010971,-0.01668,-0.016341,-0.0081117,0.0062975,0.010557,0.0038768,-0.0031908,-0.0066059,-0.0055883,-0.005949,-0.0097375,-0.012836,-0.010738,-0.0055961,0.0060592,0.010639,0.00066043,-0.0076361,-0.0098318,-0.0093213,-0.0031479,-0.0046894,-0.017654,-0.021996,-0.011734,0.0015806,0.010384,0.0040144,-0.0054856,-0.0048642,-0.0016886,-0.00050418,-0.0071188,-0.016607,-0.016971,-0.0072845,0.0058815,0.013247,0.010718,0.0012463,-0.0094269,-0.0070383,-0.0012031,-0.011966,-0.026914,-0.031459,-0.021605,-0.0049876,0.0075997,0.01091,0.0042458,-0.0018187,0.0004809,0.0065966,0.0038974,-0.012105,-0.018712,-0.009895,0.00046685,0.011725,0.014183,0.0055598,0.0022948,0.0037042,0.0079088,0.0042446,-0.010824,-0.016945,-0.013045,-0.0031725,0.012879,0.017581,0.0080956,0.0023736,0.0046192,0.010647,0.0098467,-0.00032476,-0.0064752,-0.0066042,-0.003887,0.0032581,0.004646,0.0016404,0.0038247,0.0059892,0.01024,0.0095717,-0.0035862,-0.016731,-0.017965,-0.0053326,0.0079044,0.010653,0.0033763,-0.00051739,0.0030799,0.0078866,0.0049681,-0.0037933,-0.013661,-0.018098,-0.013075,-0.0046679,0.0027742,0.0041658,0.0034034,0.0061489,0.010238,0.011903,0.0032905,-0.013296,-0.025128,-0.020227,-0.0024615,0.0086499,0.006578,-0.0013738,-0.0065701,-0.0054681,-0.0020285,-0.0039251,-0.0096499,-0.015171,-0.015815,-0.011255,-0.0073851,-0.0028984,0.0014211,0.0054238,0.013511,0.018049,0.014014,0.0034744,-0.0072413,-0.011058,-0.010962,-0.010284,-0.010375,-0.0052125,0.002556,0.011317,0.01792,0.012671,-0.0014608,-0.011972,-0.012922,-0.011993,-0.012126,-0.012679,-0.0097456,-0.0012751,0.0094096,0.017372,0.013132,-0.0033941,-0.017613,-0.019668,-0.016066,-0.014659,-0.011851,-0.0054091,0.00022772,0.007877,0.016847,0.016833,0.0072647,-0.00041348,-0.0059205,-0.011512,-0.011022,-0.0082597,-0.0020965,0.0013578,0.00099422,0.0047289,0.0057243,0.0036481,0.0030776,-0.0034731,-0.013507,-0.012892,-0.0060361,0.00014336,0.0029479,0.0020443,0.0020144,0.0072862,0.010265,0.0081628,0.00017186,-0.0069736,-0.0080689,-0.004967,-9.8066e-05,0.0016412,0.0035324,0.0064614,0.0085251,0.012018,0.010146,-0.0048319,-0.015406,-0.0097008,-0.0043139,0.0021838,0.0094928,0.0050167,-0.0011159,0.0027447,-0.0013462,-0.01302,-0.013821,-0.013736,-0.014318,-0.010263,-0.0061845,-0.0072838,-0.0093576,-0.0028127,0.0086927,0.013732,0.010512,0.00072015,-0.0096489,-0.01006,-0.011265,-0.012505,-0.007314,-0.0072382,-0.004175,0.014484,0.024408,0.017069,0.0088125,-0.0052858,-0.015794,-0.0071999,-0.00011239,-0.0040526,-0.0065713,-0.0078168,-9.9402e-05,0.012791,0.008454,-0.0033266,-0.010364,-0.016415,-0.015612,-0.01221,-0.013195,-0.012586,-0.010398,-0.0030284,0.0048289,0.002786,0.0005047,-0.0027712,-0.0095046,-0.0061997,-0.0017828,-0.0041583,7.414e-05,0.006219,0.0047747,0.01341,0.02476,0.018923,0.004498,-0.0082077,-0.015096,-0.0094674,-0.0014471,0.0012731,-0.0043138,-0.0085607,0.00083633,0.013156,0.019465,0.016561,0.0019526,-0.0080452,-0.0084695,-0.00020086,0.01247,0.014161,-0.0038361,-0.011776,-0.002068,0.0099592,0.014258,0.0066909,-0.0040313,-0.011799,-0.0079403,0.0044205,0.011758,0.0069438,-0.00046097,0.00052579,0.011426,0.01731,0.015178,0.0048183,-0.0074295,-0.010675,-0.0037714,0.0032564,0.0025752,-0.002935,-0.0016911,0.0085164,0.014712,0.014303,0.0045837,-0.0092548,-0.011956,-0.0024982,0.0033535,0.00098968,-0.00063161,0.0029233,0.012834,0.01814,0.014833,0.0016047,-0.018002,-0.018625,-0.0038721,0.01081,0.012773,-0.00055809,-0.0088367,2.774e-05,0.010736,0.011315,0.0049823,-0.0019072,-0.0041953,0.0023411,0.010239,0.011753,0.0049708,-0.0066863,-0.0058182,0.0074299,0.0071467,-0.0064229,-0.017563,-0.023679,-0.013321,0.0022434,0.0048301,0.00048881,-0.0097994,-0.010966,0.001768,0.0099008,0.0034759,-0.0030545,-0.0087675,-0.013403,-0.0071016,0.0029694,-0.00015423,-0.0090997,-0.0023907,0.011064,0.012204,0.0033003,-0.0071624,-0.018399,-0.024082,-0.014416,-0.0021145,0.0041991,0.0034223,-0.0066056,-0.0050739,0.0075065,0.0029286,-0.0059686,-0.012211,-0.014711,-0.0012609,0.013465,0.0132,0.0056016,0.0011839,0.0075048,0.017775,0.018691,0.010545,-0.0088227,-0.02205,-0.016399,0.00023768,0.0099523,0.012187,0.0049205,0.0065471,0.016689,0.017869,0.018384,0.0083392,-0.0036775,0.0025874,0.0094843,0.016205,0.015294,-0.001953,-0.0088878,-0.0070899,-0.01328,-0.016649,-0.019242,-0.024019,-0.02055,-0.0091565,-0.0043459,-0.0026247,-0.00075894,-0.00075245,0.0044405,0.010473,0.010334,0.0019062,-0.0062395,-0.0093466,-0.0092239,-0.011332,-0.011738,-0.013191,-0.0054211,0.013259,0.022686,0.01918,0.0048526,-0.0063248,-0.0033065,0.0015088,0.0034053,0.010137,0.01959,0.02089,0.018596,0.015477,0.0075686,-0.0047719,-0.010414,-0.014363,-0.010983,-0.0060395,-0.006833,-0.0052428,-0.001369,0.0041823,0.010687,0.011724,0.0089336,0.010726,0.014342,0.010187,0.0035677,0.012968,0.024683,0.024318,0.01401,-0.0013836,-0.014002,-0.022644,-0.027285,-0.032913,-0.034086,-0.027242,-0.016937,-0.0070896,0.0014407,0.0081852,0.015957,0.020671,0.010741,0.0050261,-0.0034907,-0.015224,-0.016121,-0.017226,-0.011218,-0.0027168,-0.0075493,-0.0099635,-0.0016303,0.0022396,0.0052486,0.0034997,-0.0051496,-0.0054823,0.0014648,0.0076047,0.009724,0.0097289,0.013446,0.015554,0.017263,0.018404,0.0065881,-0.0062927,-0.0086872,-0.011719,-0.011285,-0.004718,-0.003869,-0.0052195,0.00027441,0.011615,0.014308,0.0073516,0.001794,0.00066265,0.0099567,0.011244,0.00085157,-0.012187,-0.023274,-0.022146,-0.010432,0.00097632,0.0028379,-0.0074358,-0.013888,-0.0038664,0.006177,0.016131,0.015411,0.0056663,0.008858,0.018196,0.02331,0.014037,-0.0061106,-0.01957,-0.02512,-0.023107,-0.013639,-0.0083354,-0.0081231,-0.013092,-0.0115,-0.013929,-0.024594,-0.02955,-0.028702,-0.020868,-0.014486,-0.010062,-0.010011,-0.01066,-0.0039331,0.012773,0.026095,0.034785,0.025871,-0.0010477,-0.014278,-0.011506,-0.0047833,-0.00073219,0.0026307,0.0063487,0.020436,0.035983,0.032531,0.019897,0.0069673,-0.0027608,-0.0011858,0.0068461,0.006522,0.0030931,-0.0070326,-0.01249,-0.0071608,0.0002785,0.0022232,0.0045453,0.012299,0.011408,0.0052035,-0.0016823,-0.010619,-0.015713,-0.012643,-0.0018171,0.0082402,0.011528,0.0020587,-0.0021204,0.0039701,-0.0015213,-0.0053612,-0.00253,-0.0028766,0.0057306,0.018228,0.013486,-0.0059905,-0.020162,-0.026697,-0.030748,-0.029607,-0.011691,0.006535,0.0019509,0.0012081,0.0068759,0.001171,-0.0044012,-0.0043038,-0.0057785,-0.0068023,-0.0084522,-0.015695,-0.012865,-0.00089419,0.010077,0.015638,0.014262,0.012641,0.01214,0.017112,0.018286,0.018399,0.023907,0.012738,0.0010257,0.0004517,0.0032114,0.0013976,-0.003727,-0.0031028,0.0043,0.012664,0.012881,0.0043489,-0.010459,-0.023323,-0.034038,-0.033482,-0.022943,-0.013426,0.003924,0.017101,0.019288,0.017829,0.013835,0.0080193,0.0082115,0.011743,0.011527,0.013364,0.010476,0.005756,0.0062486,0.0046708,0.0030486,-0.0044023,-0.0069427,0.00043276,0.0002809,-0.012624,-0.022411,-0.017573,-0.012517,-0.014744,-0.020925,-0.033568,-0.039686,-0.036423,-0.027666,-0.023419,-0.024279,-0.021634,-0.011713,0.0031478,0.017286,0.020341,0.015733,0.0097148,0.0073221,0.017051,0.018576,0.011456,0.0099825,0.010303,0.012968,0.0092856,0.0010806,-0.0098342,-0.021772,-0.017102,-0.011985,-0.019707,-0.024258,-0.018538,-0.0012859,0.021011,0.032861,0.028372,0.010197,0.0015551,0.014667,0.031112,0.035613,0.022245,0.0035079,-0.0018561,0.00093627,0.011524,0.016513,0.002219,-0.011504,-0.011754,-0.0053988,-0.0046962,-0.017203,-0.028261,-0.019182,-0.0031371,0.0047374,-0.0045372,-0.0096156,0.0059621,0.015052,0.014812,0.012127,0.004255,0.00074911,0.0079024,0.013948,0.016285,0.0061629,-0.01439,-0.021081,-0.010261,0.0058669,0.017709,0.0097545,-0.0045528,-0.0093096,-0.0088273,0.001788,0.0094996,0.0041396,-0.0044767,-0.0071818,-0.0091269,-0.009161,-0.017376,-0.022848,-0.017443,-0.011207,-0.0042496,0.0020188,0.0095366,0.016372,0.021101,0.025855,0.025675,0.01662,0.005351,-0.0051043,-0.0057245,0.017945,0.02836,0.010692,0.012846,0.019075,0.0093565,0.0063197,-0.00074277,-0.014649,-0.019049,-0.013712,-0.003893,0.0017644,0.0034812,0.00031219,-0.0096371,-0.0067274,0.00075234,0.0002537,0.0022878,0.0027866,-0.00016589,0.0013974,-0.0039229,-0.012255,-0.0080293,-0.0083853,-0.017011,-0.020842,-0.026032,-0.031187,-0.023115,-0.016574,-0.014896,-0.016766,-0.023434,-0.025598,-0.02467,-0.017781,-0.0020296,0.012723,0.019971,0.01769,0.0098507,0.005697,0.0043507,0.016587,0.028862,0.027776,0.021028,0.0058915,-0.016583,-0.024498,-0.0054986,0.013367,0.011461,0.0049583,0.00312,0.00090735,0.0046679,0.0092922,0.0074985,0.0059352,0.0066897,0.0085415,0.0031102,-0.0091446,-0.019242,-0.016363,-0.0073032,0.0017202,0.007188,-0.003146,-0.019847,-0.022993,-0.0060019,0.0063893,-0.004674,-0.019288,-0.023205,-0.019938,-0.015821,-0.010349,-0.0060629,-0.011836,-0.0049312,0.017394,0.023616,0.010296,-0.0046175,-0.012181,-0.0058165,0.011999,0.020169,0.010497,-0.0038909,-0.0053136,0.0078816,0.02145,0.027278,0.017602,0.0021362,-0.012758,-0.0264,-0.034562,-0.041559,-0.044459,-0.029135,-0.0078362,-0.00078231,0.00026045,0.00074875,0.00048398,0.0089904,0.02387,0.028237,0.021298,0.013717,0.012922,0.022919,0.03238,0.031065,0.018094,0.004601,-0.0018586,0.0035622,0.007141,-0.00027878,-0.0042605,-0.0048263,-0.0040662,0.0028289,0.0095549,0.0037311,0.002791,0.016168,0.023554,0.020791,0.013694,0.001574,-0.0057208,-0.0015679,0.0059836,0.0045005,-0.00072074,-0.0017513,-0.00025219,0.0052433,0.0017835,-0.018898,-0.028906,-0.013172,0.0063275,0.01667,0.014052,-0.0099003,-0.02311,-0.013934,-0.010246,-0.010774,-0.0040101,-0.0010961,-0.0066528,-0.0054823,0.0045985,0.0049764,-0.0048063,-0.0025049,0.0050146,0.0087926,0.0087426,-0.0049718,-0.015018,-0.015946,-0.0057714,0.019304,0.02593,0.015627,0.012789,0.0087807,0.004493,0.0013146,-0.0041403,-0.005587,0.0031846,0.019087,0.025663,0.014594,0.0042067,-0.0047926,-0.013301,-0.0092254,-0.0098103,-0.020367,-0.024559,-0.029442,-0.026942,-0.005228,0.0062735,0.0051039,0.0066533,0.0029571,-0.0033186,-0.0077707,-0.012444,-0.018313,-0.016227,0.00094116,0.0071372,-0.002606,-0.0078569,-0.014825,-0.019055,-0.0074817,-0.0035823,-0.0072385,-0.0022368,0.00081827,0.0021815,0.0083803,0.0097164,0.0043901,0.0027055,0.0069726,0.011302,0.013004,0.013912,0.011236,0.0066627,0.0084771,0.0060827,-0.011491,-0.017957,-0.011701,-0.0038738,-2.4146e-05,-0.0042538,-0.0097277,-0.014033,-0.011,-0.0061415,-0.0007601,0.0068098,0.011398,0.012317,0.01934,0.019814,0.012511,0.0063829,0.00068071,0.007355,0.023071,0.025086,0.015259,0.0026064,-0.0083579,-0.0093405,-0.0011307,-0.0035235,-0.006351,-0.0019047,0.0011206,0.0082209,0.014632,0.01175,0.0046841,0.0079939,0.013592,0.0083924,0.000562,-0.0026598,-0.004577,0.0027649,0.015154,0.017614,0.013095,0.0054087,-0.0021747,0.0015473,0.0040822,-0.0020471,-0.0086188,-0.0038303,0.0082229,0.014238,0.017517,0.0076061,-0.004183,0.0019729,0.0072536,0.0047823,0.0071419,0.011742,0.011047,0.01476,0.01839,0.0079677,-0.0081534,-0.01548,-0.018758,-0.025445,-0.023935,-0.028088,-0.035428,-0.027405,-0.015775,-0.0054112,0.0024257,-0.0026943,-0.0069326,0.00048977,0.0069573,0.011132,0.012998,0.012465,0.015487,0.015571,0.010946,0.00032218,-0.010044,-0.010266,-0.0089722,-0.0069249,-0.0047174,-0.011351,-0.018156,-0.011877,-0.0025575,0.0021854,0.0047292,-0.00065683,-0.0063621,-0.0078355,-0.0068074,-0.0037429,-0.0049604,-0.00075859,0.0098236,0.0090414,0.0062493,0.0019801,-0.010232,-0.011727,-0.007154,-0.0095358,-0.011449,-0.012765,-0.0082886,0.00013238,0.00090685,0.0033836,0.0059503,0.0028794,0.0040453,0.0039748,-0.004258,-0.010451,-0.013818,-0.011711,-0.0069034,-0.0089075,-0.0082068,-0.0084761,-0.0067987,0.0067287,0.014727,0.017383,0.024511,0.026555,0.018538,0.011977,0.011518,0.013714,0.01358,0.012069,0.011927,0.0067351,-0.0019855,-0.0052656,-0.0011804,0.0007911,0.00058893,0.0026158,0.00085592,-0.0061953,-0.0069605,-0.0018129,0.0021391,0.0069654,0.0086062,0.0028862,-0.0023296,-0.00015552,0.0028555,0.00072187,-0.0008221,0.00023503,-0.002342,-0.00060791,0.0045762,0.0043282,0.0041467,0.0046688,0.0048643,0.010393,0.015056,0.0098168,0.0018082,0.0026532,0.0020398,-0.0032527,-0.0048849,-0.0058282,-0.0085283,-0.0086446,-0.0083173,-0.0073144,-0.0027482,0.0034452,0.0057548,0.0090588,0.0098667,0.0043127,0.0011976,-0.0020666,-0.0024789,0.0059202,0.012535,0.010486,0.01014,0.0088287,0.0019248,0.0002871,0.003321,-0.00076224,-0.0049929,8.4807e-06,0.0019797,-0.0040964,-0.0045457,-0.0027111,-0.0032911,0.00060997,0.0037029,0.0077325,0.012708,0.010561,0.0074645,0.0068293,0.0047459,0.0042,0.0017986,-0.0022354,-0.007208,-0.0096809,-0.0044202,-0.0024677,-0.0038927,-0.00024617,0.00070656,-0.0033356,-0.0051559,-0.0084492,-0.010054,-0.0079822,-0.0065631,-0.0067001,-0.0046639,0.00095621,0.0056196,0.0068481,0.0069349,0.004878,0.0023457,-0.00055192,-0.0036741,-0.0074839,-0.013062,-0.01525,-0.010616,-5.4376e-05,0.0042781,-0.00042225,-0.00087331,0.0041973,0.0082994,0.009926,0.0079883,0.004843,0.0064566,0.0097547,0.0087493,0.0053711,-0.00049443,-0.0048498,-0.0038895,-0.0034122,-0.0061877,-0.0066847,-0.0072575,-0.0090675,-0.0077505,-0.0073479,-0.0072435,-0.0062481,-0.0058294,-0.0077806,-0.011114,-0.0083945,-0.0023116,-0.0017251,-0.0027484,-0.00037695,-0.00013968,0.00027034,-0.00077893,-0.0039098,-0.0003792,0.0050111,0.005621,0.0046992,0.0036797,-2.1762e-05,-0.0041753,-0.0036828,-0.001512,-0.0018376,-0.002671,-0.0011121,-0.0048676,-0.0094183,-0.0081245,-0.0091738,-0.0076564,-0.0035496,-0.003874,-0.0051312,-0.0047802,-0.0056036,-0.0010212,0.0048809,0.0037157,0.0010362,0.00029865,0.00080246,0.0051222,0.012507,0.015891,0.016386,0.018512,0.01971,0.018829,0.01575,0.0094309,0.0067839,0.0086532,0.011405,0.015091,0.019214,0.015356,0.0088629,0.0038396,-0.0043296,-0.0061108,-0.0067629,-0.014306,-0.011281,-0.0010727,0.0052147,0.0081585,0.0059152,0.0019383,-0.0017871,-0.0034017,-0.00026259,-0.00067384,0.00047485,0.0083524,0.012863,0.017789,0.019963,0.011772,0.0041344,-0.0034418,-0.012667,-0.013506,-0.0083388,-0.0043149,-0.00058084,0.00038326,5.3512e-05,0.0017026,0.0041928,0.0070536,0.0026557,0.00042573,0.0050632,0.0022317,0.00065587,0.0032826,-0.0011629,-0.0021854,-0.0026145,-0.0050238,-0.0044981,-0.00098031,0.004808,0.010647,0.014145,0.016255,0.0098768,0.0002253,-0.0043687,-0.0078469,-0.0083532,-0.0051523,0.00087239,0.0041426,0.0019862,0.0012188,-0.0013903,-0.010006,-0.015579,-0.015112,-0.0095884,-0.00097509,0.0042583,0.003963,0.00012349,-0.0022327,-0.0047368,-0.0084984,-0.011296,-0.01345,-0.012977,-0.011618,-0.010965,-0.010121,-0.0064084,-0.0074456,-0.012278,-0.010024,-0.0045803,-0.0039592,-0.0023677,0.0033975,0.0088975,0.013148,0.013255,0.0069335,-0.0011862,-0.0026009,0.0037022,0.0073709,0.0072784,0.0053709,0.0025755,-0.0014958,-0.0065867,-0.011091,-0.015072,-0.013758,-0.0050105,0.0028207,0.0068096,0.0076826,0.0054603,0.0033816,0.0016335,0.00082283,0.0027987,0.0046064,0.0035111,0.0019132,0.0023771,0.0046621,0.0051198,0.0024273,-0.00084151,-0.0022297,-0.0013507,0.004808,0.01394,0.018919,0.018301,0.014359,0.009335,0.0055464,0.0021473,0.00084698,0.00053565,-0.0025035,-0.0040122,-0.0041355,-0.0073141,-0.011963,-0.011588,-0.0045749,0.00095813,0.0024255,0.0055485,0.0055854,0.004643,0.0063267,0.0043631,0.00093807,0.00049146,0.0025386,0.0041268,0.0068574,0.012882,0.017313,0.012711,0.0059091,0.0037995,0.0052455,0.0069879,0.0076993,0.0084157,0.010548,0.010962,0.0084688,0.003729,-0.0026195,-0.0065271,-0.0096544,-0.0092158,0.00078247,0.011109,0.0098968,0.0036143,-0.0029938,-0.0086367,-0.008918,-0.0063603,-0.0031455,0.00095262,0.004766,0.0024751,-0.0046388,-0.011471,-0.015817,-0.01289,-0.0051079,-0.0011865,-0.0018179,-0.003017,-0.0042387,-0.0037127,-0.0027035,-0.0017532,0.0040914,0.0053901,-0.0014757,-0.0063279,-0.0048168,-0.0034585,-0.0055791,-0.006105,-0.0023576,0.00372,0.0060456,0.0045113,0.0017477,0.0025078,0.0043394,0.0010115,-0.00082884,-0.00010275,0.00050655,0.0006209,-0.0015884,-0.0012563,0.0010061,0.002899,0.0037858,0.0034345,0.0022816,-0.0013479,-0.0043225,-0.0058688,-0.0057179,-0.0060996,-0.0081798,-0.0052982,-0.00081495,0.0044188,0.0084072,0.0070051,-0.00027241,-0.0074221,-0.0081619,-0.0058959,-0.00086626,0.0059992,0.0078391,0.0016663,-0.0050386,-0.01134,-0.016819,-0.011114,0.00061734,0.0073107,0.010185,0.011245,0.0037688,-0.0078955,-0.014144,-0.008956,0.0044656,0.0096895,0.0072988,0.0045892,0.0012557,-0.0033395,-0.008509,-0.0093001,-0.0062548,-0.0010857,0.0050129,0.0083896,0.0089882,0.0079361,0.0074805,0.0089293,0.0079524,0.0040846,0.00063721,-0.0030494,-0.0048857,-0.0030917,-0.0012711,0.0008481,0.0037801,0.0058653,0.0057042,0.0043967,0.0043887,0.0020102,-0.00019684,0.0020869,0.0026196,0.00086745,-0.00043619,-0.0043899,-0.0078358,-0.0047439,0.0013125,0.0027063,0.00078625,0.0016048,0.004685,0.0066386,0.0071199,0.0048377,0.0013272,-0.00077913,-0.0022974,-0.0036305,-0.0031431,-0.0010811,0.00042172,0.0020288,0.0051578,0.0067974,0.0040893,-9.8615e-05,-0.0015121,0.0024733,0.0059431,0.005032,0.0037603,0.00085296,-0.00077298,0.0020787,0.0044813,0.0051107,0.0060712,0.0069343,0.0054118,0.0047066,0.006441,0.008865,0.013142,0.018356,0.021171,0.017077,0.0066529,-0.0031847,-0.0065973,-0.0049408,0.00045024,0.0053313,0.007507,0.0075967,0.0051385,0.0022395,-0.0050508,-0.012851,-0.011649,-0.0051977,-0.0021155,-0.0026517,-0.0043676,-0.006944,-0.0074985,-0.0037409,-0.0013456,0.00014763,0.0027792,0.0032113,0.0022713,0.003919,0.0085027,0.009973,0.0086616,0.0077037,0.0060682,0.0030243,-0.0021122,-0.0066424,-0.006,-0.0023814,0.001093,0.004428,0.0045603,0.0038427,0.0028462,0.0023778,0.0039536,0.00074485,-0.0052209,-0.010048,-0.0083077,-0.00058526,0.0039246,0.0046316,0.0021721,-0.00039636,-0.0016346,-0.0045343,-0.0059029,-0.0040094,-0.0017005,0.00057233,0.0014396,-0.0024691,-0.0075335,-0.010958,-0.011326,-0.0080727,-0.0049363,-0.0052763,-0.0061989,-0.0034801,0.00070382,0.001147,-0.0010784,-0.002674,-0.0031487,-0.0067713,-0.01039,-0.0095176,-0.007694,-0.0084305,-0.0087143,-0.0057629,-0.003593,-0.0026421,0.00091768,0.0041753,0.010093,0.015359,0.011015,0.0044324,0.0036477,0.0024849,-0.00039254,0.0015965,0.0065199,0.011732,0.015577,0.012682,0.0052935,0.0014315,-0.0021472,-0.0091216,-0.012103,-0.0094989,-0.0068778,-0.0071336,-0.0057937,-0.0023553,0.00054994,0.0021926,-0.0012738,-0.0029491,0.0034891,0.0088395,0.0087355,0.010335,0.011885,0.0081981,0.0060881,0.0084428,0.010533,0.0090591,0.0061391,0.0037636,0.0032897,0.0034799,0.0013744,-0.0011349,9.9468e-05,0.0019395,0.0020858,0.0057211,0.011222,0.013561,0.011609,0.0071951,0.006759,0.0092096,0.0077252,0.0018837,-0.0023432,-0.0033907,-0.0068309,-0.0092317,-0.0062798,-0.0019868,0.0019242,0.0047644,0.0062882,0.010392,0.012825,0.01068,0.010177,0.008297,0.002631,-3.2706e-05,0.0027496,0.0059565,0.0073969,0.0077695,0.0043139,0.0020306,0.0031405,0.00045896,-0.0026768,-0.00035415,0.0015347,-0.0014102,-0.0033751,-0.0010876,0.00070124,0.0026482,0.0047599,0.0051,0.0056345,0.006039,0.0062269,0.0057292,0.00058256,-0.008729,-0.015383,-0.015202,-0.011544,-0.010196,-0.0086317,-0.00047483,0.0045337,0.0022499,-0.00063189,-0.003536,-0.0044162,-0.0015686,-0.0015792,-0.0073083,-0.0090704,-0.0085491,-0.0087042,-0.0054994,-0.0018774,-0.0015811,-0.0014915,0.0012587,0.0039962,0.0039886,-0.0011192,-0.0043838,0.0016376,0.0060139,0.003459,0.0018399,0.0024641,0.0010155,0.0010521,0.003929,0.0022139,-0.0021477,-0.0042538,-0.0092102,-0.011639,-0.010649,-0.012993,-0.012112,-0.0027143,0.0030909,0.0054885,0.0079286,0.0045973,-0.00041169,-0.0047283,-0.008703,-0.010337,-0.0063316,-0.0028763,-0.0024937,0.0031348,0.0084249,0.0082436,0.0071327,0.0063598,0.0058229,0.0035338,0.0002602,-0.0014668,-0.00067501,0.00064234,0.0024592,0.0057716,0.0063371,0.0031748,0.0010812,0.0017542,0.0045373,0.005816,0.0022029,-0.001421,-0.0022287,-0.0016367,-0.0028492,-0.0026328,-4.956e-05,0.00089192,0.0013146,0.002858,0.0027983,0.003298,0.005257,0.0051401,0.0025317,0.00047288,0.00098545,0.0052258,0.01145,0.010662,0.0038626,0.0018463,0.0034336,0.0025272,0.002671,0.0047865,0.005117,0.0077834,0.010161,0.0083097,0.006329,0.0026718,-0.0028552,-0.0048095,-0.00057766,0.0034842,0.0041906,0.0025626,0.00083948,-0.00030876,-0.0026677,-0.0047633,-0.0040437,0.00042396,0.0056253,0.0081521,0.0088435,0.0069572,0.0014077,-0.0061826,-0.0083389,-0.0046031,-0.0019845,-0.00050471,0.0022181,0.0016159,-0.0017524,-0.0012737,0.00041371,-0.00089044,-0.00015726,0.0042745,0.0068632,0.0069694,0.0055784,0.00093931,-0.0041285,-0.0061788,-0.0057344,-0.0025525,0.00048085,0.0014709,0.0015168,0.00077658,-0.0010133,-0.0018606,-0.00079327,-0.00028246,0.0013982,0.0033964,0.0035925,0.0025233,-0.00014597,-0.0017585,-0.003562,-0.0043856,-0.0013161,0.00021275,-0.0013629,-0.0003685,0.0029867,0.0033479,-0.00069784,-0.0032602,-0.0036022,-0.0052627,-0.005442,-0.0026047,-0.0011526,0.00010897,0.0020442,0.0054266,0.0067435,0.004012,0.0021075,0.0010166,-0.00037318,-0.00031464,-0.0011213,-0.0032204,-0.0019617,0.00038158,0.0018822,0.0026022,0.0018217,0.0013993,-0.00032424,-0.0014898,-6.0635e-06,-0.00074743,-0.0048515,-0.007602,-0.0061326,-0.0024144,0.0016885,0.0041553,0.0055745,0.005323,0.004814,0.0046813,0.002552,-0.000763,-0.0013126,-0.0023293,-0.00037731,0.0070142,0.0094879,0.005541,0.0029975,0.0023271,-0.00065352,-0.004489,-0.0067906,-0.0062205,-0.0052844,-0.003983,-0.0010152,0.0044357,0.0082101,0.007713,0.010768,0.012384,0.0081565,0.00426,0.0022943,0.0012141,-0.00049728,-0.0036149,-0.0020302,0.004002,0.0064056,0.0060072,0.006485,0.0071973,0.0046235,0.0020754,0.0030201,0.0042166,0.0044904,0.0045146,0.0039187,0.0048016,0.0061778,0.0041507,0.001679,0.0032863,0.0061244,0.0048377,0.002461,0.0022247,0.00066479,-0.0023962,-0.0051777,-0.0039611,-0.0029397,-0.0045474,-0.0027911,0.0043435,0.010476,0.009004,0.0036079,0.00090408,-0.00017998,-0.00064339,-0.004672,-0.0074827,-0.0057528,-0.0053372,-0.0035958,-0.005777,-0.0073421,-0.0059658,-0.010161,-0.013393,-0.012185,-0.0085031,-0.0089698,-0.01011,-0.0079017,-0.0061475,-0.0049948,-0.0043205,-0.0049411,-0.0065633,-0.0062793,-0.0034363,0.0011519,0.0035312,0.0040143,0.0039956,0.0025696,0.0014453,0.00060094,0.0032268,0.0077932,0.012968,0.019075,0.018186,0.014983,0.014133,0.0095317,0.003873,0.000478,0.00061307,-0.00057736,-5.0833e-05,0.0050196,0.0069754,0.0067866,0.0072245,0.0034834,-0.0024141,-0.0064927,-0.010476,-0.012391,-0.010404,-0.0073359,-0.0051324,-0.0069774,-0.011322,-0.013201,-0.011686,-0.010418,-0.0093227,-0.0080858,-0.0105,-0.01329,-0.014797,-0.014973,-0.015152,-0.01312,-0.010404,-0.0086648,-0.0020911,0.0059836,0.011276,0.014471,0.014604,0.013773,0.0099862,0.00056612,-0.0070324,-0.0056856,-0.00023194,0.0025699,0.0038072,0.004802,0.0023163,-0.0033595,-0.0090986,-0.012358,-0.0075917,0.00093233,0.0079887,0.014479,0.02023,0.020927,0.012097,0.0038325,0.00086317,-0.0031785,-0.0063273,-0.0078813,-0.0065341,0.001205,0.010666,0.01824,0.02194,0.019261,0.011962,0.0047796,0.00031001,-0.0019405,-0.0039096,-0.0060058,-0.0087979,-0.012091,-0.017095,-0.023403,-0.026413,-0.025175,-0.019535,-0.013198,-0.0086093,-0.0080466,-0.010459,-0.011081,-0.011037,-0.0085794,-0.0051082,-0.0024563,0.0023717,0.0097905,0.015965,0.021636,0.027136,0.023572,0.017217,0.011466,0.0020357,-0.0057243,-0.0075415,-0.0043568,0.00247,0.0067404,0.0032283,-0.0032098,-0.0081067,-0.012674,-0.015258,-0.011873,-0.0058317,-0.0029022,7.334e-05,0.0022616,0.0010705,0.0010711,-0.0015852,-0.0083742,-0.012145,-0.01205,-0.010908,-0.005868,0.0056702,0.018087,0.026522,0.026425,0.020711,0.01471,0.0077032,0.0028384,0.00090952,0.00032072,0.0025499,0.0052291,0.0042378,0.0011048,-0.00081074,-0.0040689,-0.0047299,-0.0014146,0.00062356,0.0012969,0.000805,-0.0022189,-0.0039528,-0.0014619,0.0036205,0.0077479,0.0070145,0.0019453,-0.0031568,-0.0053047,-0.0067529,-0.0065039,-0.0032057,0.00019112,0.0019877,0.0050411,0.0066786,0.0051494,0.0034018,0.00093088,-0.00062432,-0.000846,-0.0030393,-0.0047229,-0.0042557,-0.0034104,-0.001263,0.0014626,0.0019389,0.0015372,0.0017957,0.00048976,-0.0017954,-0.0037631,-0.0067875,-0.0089261,-0.0081612,-0.0058775,-0.0045385,-0.0034941,-0.0012145,-0.00052434,-0.00043791,0.0009365,0.0014387,0.0025553,0.0057811,0.0064942,0.0040439,0.0031351,0.0042066,0.0033591,-0.00015677,-0.0047734,-0.008385,-0.0092971,-0.0067237,-0.0034589,-0.00022707,0.0022236,0.0045715,0.0074315,0.0053253,-0.00031886,-0.0038714,-0.0044968,-0.0027042,-0.0021204,-0.0036259,-0.0044863,-0.0032098,-0.00089252,-0.00085895,-0.0028151,-0.0033385,-0.0026659,-0.0019425,-8.8092e-05,0.00085084,-0.00036261,0.001024,0.002812,0.0017402,0.0013827,0.0015805,0.002403,0.0039408,0.0042711,0.0040246,0.0034298,-0.00022454,-0.0043915,-0.0045353,-0.0028949,-0.0027554,-0.0013105,0.0024778,0.0060855,0.0093009,0.0092987,0.0056053,0.0033949,0.0035803,0.0028106,0.0015008,0.001087,0.0021347,0.0034296,0.0049805,0.0057971,0.0033954,0.0015695,4.7192e-05,-0.0017664,-0.0018298,-0.0019956,-0.0027565,-0.00086508,0.0037665,0.0057875,0.0058371,0.004389,0.0022996,0.0012577,-0.002093,-0.0046345,-0.0052795,-0.0057184,-0.0032222,0.00037908,0.0023026,0.0023615,0.00073546,-0.00050185,-0.0024324,-0.0044044,-0.0056857,-0.0084346,-0.0092058,-0.0074032,-0.0077297,-0.0087992,-0.0076786,-0.0066265,-0.0059501,-0.0061031,-0.0060907,-0.0055019,-0.0053838,-0.0036255,-0.0016467,-0.0013853,-1.8809e-06,0.002652,0.0059209,0.0079188,0.0077442,0.0073296,0.0059604,0.0015216,-0.0035469,-0.0066675,-0.0088498,-0.010237,-0.0090763,-0.005561,-0.0035285,-0.0025329,-0.0026059,-0.0068263,-0.011621,-0.012474,-0.013427,-0.014249,-0.010688,-0.0039637,0.00029017,0.0031473,0.0074199,0.0087599,0.0070692,0.0045991,0.0012887,-0.0027369,-0.0044412,-0.0046063,-0.0023289,0.0027938,0.0072228,0.01156,0.012233,0.0094207,0.0085013,0.0056763,0.0014002,-0.00087822,-0.0024644,-0.0033867,-0.0013335,0.0022115,0.0028878,-0.0015208,-0.0048334,-0.0074774,-0.012076,-0.013711,-0.011702,-0.0084112,-0.0020417,0.0023887,0.0023177,0.00524,0.0071513,0.0040852,-0.00062867,-0.0044521,-0.0059087,-0.0038546,-0.00011834,0.0022452,0.0033558,0.0050142,0.0057697,0.0047984,0.0043793,0.0050277,0.003586,0.0026986,0.0022615,-0.00074882,-0.0022591,-0.0038579,-0.0048935,-0.0033421,-0.00031922,0.0035588,0.006973,0.009856,0.0095957,0.0073973,0.0076623,0.0072714,0.0053422,0.0053685,0.0059898,0.0051567,0.0053752,0.0066832,0.0060302,0.0051744,0.00536,0.0037889,-0.00062712,-0.0026601,-0.0038227,-0.0044458,-0.0044831,-0.0049771,-0.0063708,-0.0087757,-0.012931,-0.017884,-0.019848,-0.020007,-0.017712,-0.01334,-0.011383,-0.0094667,-0.0053929,-0.004185,-0.0049542,-0.0047727,-0.0044538,-0.00509,-0.0055711,-0.0038731,-0.00094663,0.0035186,0.0085796,0.01025,0.011188,0.012438,0.011813,0.0091254,0.0073035,0.0068294,0.0053769,0.0064795,0.0078212,0.0039678,0.00036105,-0.0026342,-0.0080071,-0.010049,-0.0087886,-0.0079403,-0.0057225,-0.0016481,0.00036553,0.0020808,0.0040977,0.0029948,0.00027469,-0.00063652,-0.0014366,-0.0024835,-0.0007021,0.00038705,-0.0027937,-0.003016,-0.00096236,-0.0029266,-0.0019734,0.0022624,0.002563,0.0058972,0.01018,0.0080312,0.0060267,0.0050187,0.001655,-0.0014353,-0.0037162,-0.0055779,-0.0066396,-0.0062398,-0.0042762,-0.0027125,-0.0017402,-0.001408,-0.0028523,-0.0038158,-0.0029132,-0.0018318,-0.00044249,0.0013128,0.0018291,0.0016215,0.0017769,0.0014346,0.00095126,0.0015546,0.0019893,0.0024835,0.0042224,0.0055857,0.0061639,0.0074444,0.0075418,0.0064868,0.0061742,0.0059508,0.0056948,0.0053663,0.0048856,0.0045751,0.0034984,0.0025558,0.0023358,0.0012053,-0.00046984,-0.0015629,-0.0023103,-0.003037,-0.0031547,-0.0030863,-0.0039823,-0.0068524,-0.0094971,-0.011582,-0.013241,-0.012287,-0.0088447,-0.0053162,-0.0022935,0.00097456,0.0027661,0.0029755,0.003293,0.0024257,-0.00047311,-0.0027134,-0.0036403,-0.0032903,-0.00066922,0.0029138,0.0041878,0.0030534,0.0017806,0.00014444,-0.0021747,-0.0025265,-0.0010851,9.1416e-06,0.0026033,0.0061456,0.0069002,0.0050362,0.001929,-0.0022921,-0.0059815,-0.0072058,-0.0063512,-0.0046174,-0.0027008,-0.0011268,-0.00021774
