1.2174e-08
-5.8807e-09
3.2957e-08
-2.199e-09
1.7542e-07
-1.2919e-06
-5.8553e-06
-1.4321e-05
-2.8252e-05
-4.6796e-05
-7.3567e-05
-0.00010653
-0.00015843
-0.00023017
-0.00033905
-0.00049668
-0.00070769
-0.0010021
-0.001355
-0.0018253
-0.0022916
-0.002347
-0.0018811
-0.00095857
0.00025465
0.0014136
0.002152
0.0023837
0.0022232
0.001865
0.0014536
0.0010708
0.00075216
0.00050207
0.00031724
0.00018761
0.00010258
5.0975e-05
2.2856e-05
9.2637e-06
3.4684e-06
1.3118e-06
5.5788e-07
3.1064e-07
-8.1678e-08
-1.1978e-07
7.2164e-08
2.5266e-08
2.1341e-07
-2.6132e-07
2.3563e-08
-1.3087e-06
-2.8472e-07
-1.053e-06
-5.3612e-07
1.9272e-06
8.3806e-08
6.9624e-06
4.2174e-06
3.7969e-05
8.4543e-05
2.9213e-05
-2.6547e-05
-3.7344e-05
-4.8633e-05
-2.8856e-05
1.3008e-05
2.6012e-05
5.3981e-06
-1.8765e-05
-4.1925e-05
-6.2323e-05
-5.9616e-05
-6.2567e-05
-0.00010015
-0.00012825
-0.00014531
-0.00015862
-0.00015858
-0.0001404
-8.9243e-05
-2.2829e-05
3.8981e-05
8.3623e-05
0.00013633
0.00020637
0.00013315
2.9832e-05
5.1608e-05
7.6133e-05
7.846e-05
6.0199e-05
4.0898e-05
7.7389e-05
0.00017596
0.00033893
0.00048397
0.00062018
0.00086777
0.0010229
0.0010061
0.00090549
0.00073846
0.00054249
0.00028382
6.6167e-05
9.6338e-06
8.4074e-05
0.00020984
0.00023846
0.00026245
0.00040582
0.00045382
0.0005306
0.00069585
0.00079286
0.00085693
0.0010625
0.00093958
0.00043984
-7.9372e-06
-0.00036992
-0.00069264
-0.001281
-0.0022935
-0.003155
-0.0036766
-0.0040178
-0.0041406
-0.0039261
-0.0033678
-0.0023192
-0.00082367
0.00064576
0.0017635
0.0024898
0.0028928
0.0029451
0.00268
0.00235
0.0019915
0.0015898
0.0012258
0.00091634
0.00063503
0.00042184
0.00020066
-8.241e-05
-0.00042677
-0.001
-0.0016802
-0.002046
-0.0020746
-0.0020696
-0.0020567
-0.0021116
-0.0022635
-0.0022576
-0.0019482
-0.0015188
-0.0012999
-0.0013691
-0.0014751
-0.0016071
-0.0016695
-0.0014883
-0.0010365
-0.00041962
0.00028413
0.000951
0.0015352
0.0019011
0.0018449
0.0014341
0.00081202
0.00029575
9.4982e-05
0.00015339
0.00035578
0.00068661
0.0010413
0.0011744
0.0014939
0.0021619
0.0027038
0.0026953
0.0022715
0.0016758
0.0010864
0.00084537
0.00062892
0.00047519
0.00036407
0.00034862
0.0003806
0.00020496
-0.00013288
-0.00033663
-0.00021092
6.6743e-05
6.7081e-05
-7.2226e-05
3.3124e-05
0.00032399
0.00052622
0.00060515
0.00062375
0.00055435
0.00042417
0.00026329
9.5834e-05
-0.00011739
-0.00030187
-0.00047061
-0.00050924
-0.00046207
-0.00046916
-0.00042712
-0.00052512
-0.00066098
-0.00050035
-0.00017287
0.00012616
0.00010964
-9.5838e-05
-0.00032001
-0.00038927
-0.00028341
-7.0516e-05
3.9747e-05
6.8179e-05
0.00010321
0.00014854
0.00022119
0.00026524
0.00026911
0.00018616
3.6792e-05
0.0001499
0.0003866
0.00031519
2.7744e-05
-0.00012145
-0.00023818
-0.00043157
-0.00055687
-0.00057735
-0.00060941
-0.00067148
-0.00074414
-0.00074578
-0.00057272
-0.00038362
-0.00032261
-0.00026656
-0.00015026
-2.8852e-05
6.6324e-05
0.00014832
0.00023031
0.00038297
0.00056034
0.00078345
0.00086531
0.00067375
0.00035139
-5.8297e-05
-0.00028083
-0.00021786
-0.00012011
-7.3305e-06
0.00017557
0.0004187
0.00076095
0.00096159
0.00085823
0.00058282
0.00010389
-0.00031249
-0.00054401
-0.0007486
-0.00084185
-0.00074184
-0.00058254
-0.00040046
-0.00027993
-0.00020916
-9.9665e-05
-9.5192e-07
-1.0094e-05
-8.806e-05
-6.9103e-05
-2.3823e-05
-1.3506e-05
0.00013913
0.00025069
0.00011231
1.8385e-05
-3.9748e-05
-0.00015224
-0.00018773
-0.00015748
-0.00016299
-0.00013998
-0.00010335
-8.9226e-06
0.00010505
9.8577e-05
3.2151e-06
-6.7828e-05
-4.6335e-05
4.294e-05
0.00019139
0.00033735
0.00047163
0.00055601
0.00055788
0.00041743
-0.00029448
-0.0013112
-0.0019979
-0.0023139
-0.002416
-0.0022152
-0.0015292
-0.00083421
-0.00041077
9.7425e-07
0.00040674
0.00060089
0.00067199
0.00073409
0.00079807
0.000875
0.0009417
0.0010342
0.0011913
0.0013942
0.0016044
0.0017198
0.0016617
0.0016509
0.0017173
0.0016573
0.0014796
0.0010543
0.00034674
-0.00014234
-7.0239e-05
0.00022286
0.0002979
0.00017853
-1.3474e-07
3.6831e-05
0.00035266
0.00071158
0.00086512
0.0008617
0.0007817
0.00071965
0.00071254
0.00059554
0.00041697
0.00024853
7.5723e-05
-0.00013196
-0.00040869
-0.00056042
-0.00053195
-0.00051732
-0.00056211
-0.00057536
-0.0005105
-0.00041114
-0.00020316
-7.6783e-05
-0.00011312
-0.00019394
-0.00026263
-0.00025027
-0.0001312
5.6937e-05
0.00029357
0.0003916
0.00028118
0.00014381
4.4436e-05
-3.8255e-05
-0.00011066
-0.00016984
-0.00019647
-0.00018132
-0.00011756
-1.7799e-05
-1.647e-05
-9.4291e-05
-0.0001612
-0.00019489
-0.00021899
-0.00024023
-0.00024302
-0.00021288
-0.00016248
-6.996e-05
4.5934e-05
4.7023e-05
-4.6661e-05
-0.00014437
-0.00019717
-0.00026694
-0.00037827
-0.00047291
-0.00046289
-0.00025419
4.3869e-05
0.00032018
0.00046996
0.00029444
-5.6119e-05
-0.00032406
-0.00048002
-0.0005971
-0.00068839
-0.0007706
-0.00081038
-0.00080486
-0.00075861
-0.00068358
-0.00057502
-0.00047749
-0.00052428
-0.00065161
-0.00078465
-0.00093064
-0.0010715
-0.0012187
-0.0012524
-0.0011664
-0.0010277
-0.00068665
-0.00030419
3.4197e-05
0.00031808
0.00045363
0.00049414
0.00052255
0.00050378
0.00048019
0.00046423
0.00043602
0.00038891
0.00033675
0.00028917
0.00023776
0.00021952
0.00016962
3.7598e-05
-9.5268e-05
-0.00020038
-0.00028863
-0.00038013
-0.00047704
-0.00054499
-0.00058748
-0.00060927
-0.00060408
-0.00053165
-0.00038361
-0.00029445
-0.00026452
-0.00024333
-0.00021183
-0.0001337
3.3949e-06
0.00018521
0.0003905
0.00054513
0.0006191
0.00059662
0.00049074
0.00035977
0.00019302
7.4215e-05
9.6205e-05
0.00022936
0.00034776
0.00038837
0.00038907
0.00034901
0.00020975
-5.8121e-05
-0.00025941
-0.00021991
-4.8123e-05
0.00011108
0.00024223
0.00037784
0.00053439
0.00059267
0.00045575
0.00023287
-2.2022e-05
-0.00026889
-0.00043627
-0.00053393
-0.00059094
-0.00066329
-0.00079876
-0.0010434
-0.0014054
-0.0015525
-0.001391
-0.0011153
-0.0007751
-0.00044773
-8.8403e-05
0.00017835
0.0001566
4.986e-05
-5.0073e-05
-0.00018909
-0.00034768
-0.00049932
-0.00068666
-0.00088957
-0.0010064
-0.0010491
-0.0010053
-0.00087689
-0.00085713
-0.00080767
-0.00065831
-0.00044822
-0.0003052
-0.00027938
-0.00030419
-0.00032224
-0.00018897
0.00020307
0.00075622
0.0010637
0.0010511
0.00092997
0.00077718
0.00063402
0.00047827
0.00035102
0.0002644
0.00025231
0.00032926
0.00042952
0.00046283
0.00030828
4.4557e-05
-0.00020621
-0.00038999
-0.00047817
-0.00049265
-0.00048431
-0.00042094
-0.00030314
-0.00020214
-6.428e-05
3.1349e-05
-0.00011127
-0.00036384
-0.00055945
-0.00063763
-0.00046683
-4.3598e-05
0.00025818
0.00031252
0.00029976
0.00025644
0.00027257
0.00034831
0.00026917
0.00012381
4.5195e-05
-1.6309e-05
-9.9579e-05
-0.00015794
-0.00016602
-7.249e-05
9.634e-05
0.00026351
0.00045201
0.00060486
0.0005481
0.00040633
0.00031679
0.00027845
0.00022057
0.00014859
9.2182e-05
7.0989e-05
9.4516e-05
0.00014025
0.00024783
0.00032171
0.00021774
5.4913e-05
-4.5027e-05
-8.1358e-05
-0.00010308
-9.416e-05
-7.3456e-05
-1.5414e-05
6.3386e-05
0.00016725
0.00032306
0.00035086
0.00021424
9.8268e-05
6.1303e-05
3.5905e-05
7.4525e-06
-2.5026e-05
-1.8717e-05
2.4076e-05
6.7097e-05
0.00016384
0.00019701
0.00016569
0.00017517
0.00022153
0.00025859
0.00027623
0.00028928
0.00033614
0.00043742
0.00055276
0.00073652
0.00082407
0.00067041
0.00043894
0.00025607
6.4079e-05
-0.00015206
-0.00029003
-0.00030051
-0.00018546
-3.5237e-05
0.00016125
0.00033375
0.00032326
0.00023493
0.00018491
0.00017348
0.00015256
0.00013711
0.00013887
0.00016965
0.00023888
0.00031756
0.00044022
0.00053611
0.00046118
0.00032654
0.00023612
0.00017177
8.3244e-05
-1.3053e-05
-8.8812e-05
-0.00014374
-0.00017093
-0.00018887
-8.9228e-05
0.00015433
0.00018135
-3.7664e-05
-0.00030371
-0.00045048
-0.00045076
-0.00059205
-0.00064837
-0.00057682
-0.00056092
-0.00036976
-0.00010443
4.4719e-05
3.2318e-05
-3.5995e-05
-0.00014027
-0.00024625
-0.00034228
-0.00043408
-0.00054553
-0.00068065
-0.00082352
-0.00087584
-0.00065935
-0.00029359
-0.00011409
-6.0263e-05
4.9685e-05
0.00015121
0.00024662
0.00034423
0.00035178
0.00028136
0.00021512
0.00018943
0.00020849
0.00024106
0.00033059
0.00038098
0.00026261
0.00011178
1.2648e-05
-6.1946e-05
-0.00014917
-0.00023552
-0.00029614
-0.00031457
-0.00030646
-0.00027247
-0.00020764
-0.00012308
3.0988e-05
0.00016021
0.00012565
4.4447e-05
-7.5865e-06
-6.1388e-05
-0.00013585
-0.00020297
-0.00024292
-0.00024838
-0.00023795
-0.00019642
-0.00013581
-4.9359e-05
7.775e-05
0.00010883
3.6103e-05
-2.8786e-05
-6.0203e-05
-8.552e-05
-0.00011807
-0.00013795
-0.00012542
-8.6651e-05
-2.4508e-05
5.7526e-05
0.0001655
0.00031347
0.00036852
0.00031901
0.00027135
0.00024569
0.00022363
0.00019249
0.0001454
0.00011655
7.5389e-05
-8.5214e-06
-7.3404e-05
-9.4048e-05
-2.2039e-05
5.3494e-05
2.7769e-05
-7.3196e-06
-2.2798e-06
-1.8713e-06
-5.9511e-05
-0.00015105
-0.00023113
-0.00026772
-0.00027286
-0.00024305
-0.00019795
-0.00011926
-1.196e-05
-1.6202e-05
-0.00010305
-0.00015418
-0.00016067
-0.00015989
-0.00017675
-0.00019412
-0.00018704
-0.00014819
-7.9048e-05
1.7078e-06
0.00011378
0.00020417
0.00016499
8.2089e-05
4.2566e-05
3.2758e-05
-2.635e-07
-4.0501e-05
-6.2353e-05
-5.241e-05
-1.724e-05
3.5541e-05
0.00014129
0.00021073
0.00014639
5.4669e-05
2.8002e-06
-2.7402e-05
-7.9188e-05
-0.00014323
-0.00018189
-0.00016214
-8.8611e-05
1.0542e-05
0.00014804
0.00028091
0.00027138
0.00020656
0.00018619
0.0001923
0.00017824
0.00013679
0.00010533
9.3446e-05
9.9786e-05
0.00012914
0.00018972
0.00029105
0.00030013
0.00020357
0.00012447
8.2315e-05
4.5033e-05
-1.0157e-05
-5.9513e-05
-8.1692e-05
-7.4608e-05
-4.4972e-05
4.1547e-07
9.1532e-05
0.00017158
0.00013262
5.5633e-05
2.649e-05
4.8012e-05
5.661e-05
7.3009e-05
0.00011491
0.00020355
0.00033814
0.00046772
0.00067167
0.00081521
0.00068563
0.0004247
0.00020888
8.7983e-05
3.5733e-05
1.84e-05
1.4947e-05
6.5161e-05
0.00012977
0.00019418
0.00028219
0.00032887
0.00025361
0.00015139
6.762e-05
-7.2058e-06
-8.7036e-05
-0.00015557
-0.0002057
-0.00022815
-0.00021387
-0.00018163
-0.00010625
-4.979e-05
-0.00010152
-0.00017609
-0.00021896
-0.00024713
-0.00028938
-0.00032884
-0.00034227
-0.00032433
-0.00028584
-0.00025819
-0.0002156
-0.00017838
-0.00022907
-0.00032043
-0.00039775
-0.00047133
-0.00059743
-0.00072847
-0.00086195
-0.00098539
-0.0011264
-0.0013115
-0.0012595
-0.001
-0.00074494
-0.0004614
-0.00016345
5.739e-05
0.00018225
0.00026684
0.00034784
0.00042835
0.0004923
0.00056029
0.00052455
0.0003886
0.00027014
0.00018923
0.00010086
-6.3004e-07
-8.7976e-05
-0.00014092
-0.00016361
-0.00016925
-0.00011787
-7.7117e-05
-0.0001103
-0.00014361
-0.00015456
-0.00017228
-0.00021868
-0.00025885
-0.00025915
-0.0002071
-0.00014059
-4.3307e-05
7.3899e-05
8.8159e-05
4.1598e-05
1.695e-05
7.7447e-06
-1.216e-05
-4.105e-05
-6.8384e-05
-8.2246e-05
-6.2158e-05
-2.6349e-05
4.0749e-05
0.00012946
0.00012967
6.8094e-05
3.807e-05
4.5545e-05
4.1249e-05
2.2202e-05
2.0067e-05
4.4905e-05
9.4788e-05
0.00014986
0.0002318
0.00030008
0.00026027
0.00018252
0.00013884
0.00011017
7.3833e-05
6.0785e-05
6.3267e-05
7.3667e-05
9.9723e-05
0.00013306
0.00019942
0.00020058
0.00012048
7.6241e-05
7.1455e-05
7.9751e-05
8.3888e-05
0.00010057
0.00012431
0.00015815
0.00020319
0.00025746
0.00035158
0.00040046
0.00031603
0.00021668
0.00015801
0.00011138
5.8895e-05
1.1747e-05
-1.4382e-05
-1.3842e-05
1.1425e-05
5.1849e-05
0.00012637
0.00023555
0.00023901
0.00015876
0.00010181
7.0898e-05
3.5811e-05
-5.4518e-06
-2.7742e-05
-2.2685e-05
1.3267e-05
6.3136e-05
0.00012853
0.00020767
0.00019949
0.00010096
2.5531e-05
7.5402e-06
-4.3627e-06
-3.8503e-05
-6.4893e-05
-6.5839e-05
-3.036e-05
1.4784e-05
9.6953e-05
0.00017154
0.00011976
1.0347e-05
-7.3102e-05
-0.00014346
-0.00021548
-0.00024204
-0.00022303
-0.00016784
-8.9179e-05
8.0708e-06
0.00017957
0.00032957
0.00033735
0.00027504
0.00019877
0.00010851
1.4674e-06
-9.9631e-05
-0.00017947
-0.00021896
-0.00021074
-0.00016668
-6.2662e-05
5.6767e-05
5.4193e-05
-1.1871e-05
-4.7835e-05
-5.9126e-05
-7.8448e-05
-0.00010341
-0.00011201
-9.1995e-05
-5.7215e-05
-2.9446e-05
-5.252e-06
6.474e-05
0.00010237
7.0978e-06
-0.00010892
-0.00016905
-0.00019475
-0.00021896
-0.0002344
-0.00022951
-0.0001954
-0.00014231
-9.0636e-05
-2.1546e-05
4.468e-05
5.5761e-06
-9.9605e-05
-0.00017462
-0.00020486
-0.00022471
-0.00026182
-0.00031579
-0.00034304
-0.00030633
-0.0002388
-0.00013717
-5.9616e-05
-0.00010096
-0.00015929
-0.00017921
-0.00018544
-0.00021242
-0.00024692
-0.00026901
-0.00026477
-0.00021874
-0.00014831
-3.9838e-05
8.9523e-05
0.00011032
5.7287e-05
2.8084e-05
1.5931e-05
-5.3801e-06
-3.2976e-05
-4.1115e-05
-2.2172e-05
2.4417e-05
9.9804e-05
0.00019494
0.00032907
0.00041661
0.00037181
0.00029695
0.00025012
0.00021338
0.00014919
7.3479e-05
2.8924e-05
7.3768e-06
-6.421e-07
2.9438e-06
2.0769e-05
6.6912e-05
2.4662e-05
-0.00010965
-0.00021689
-0.00026106
-0.00029506
-0.00034245
-0.00036467
-0.00034507
-0.00027612
-0.0001863
-6.1441e-05
8.6524e-05
0.00011886
6.4444e-05
3.7997e-05
4.7785e-05
5.4715e-05
5.0144e-05
7.4264e-05
0.00014344
0.00025735
0.00040779
0.00064483
0.00096074
0.0010258
0.0008015
0.00059972
0.00048828
0.00037229
0.00022637
0.00010311
1.7279e-05
-1.0347e-05
9.6977e-07
3.3038e-05
0.00011832
0.00016872
9.0701e-05
7.7759e-06
-2.8999e-05
-5.3081e-05
-9.3542e-05
-0.00011903
-0.00011824
-7.9561e-05
-1.1579e-05
7.3694e-05
0.00021192
0.00031505
0.00027416
0.0001834
0.00011675
5.9933e-05
-2.4633e-05
-0.00012537
-0.00020493
-0.00022117
-0.00018837
-9.5702e-05
5.3155e-05
0.0001034
3.5899e-05
-7.7318e-05
-0.00018371
-0.00028324
-0.00044651
-0.00056955
-0.0005393
-0.00044622
-0.00033911
-0.00018459
-0.00010198
-0.00012554
-0.00013695
-0.00012476
-0.00011241
-0.00011862
-0.00011512
-8.9234e-05
-3.6712e-05
1.2134e-05
9.1979e-05
0.00020518
0.00021538
0.00013939
6.917e-05
1.7625e-05
-4.5756e-05
-0.00012281
-0.00019049
-0.00023026
-0.00024095
-0.00024397
-0.00020021
-0.00017498
-0.00024258
-0.00029331
-0.00027053
-0.00022477
-0.00021761
-0.00019717
-5.5139e-05
9.8369e-05
0.00013804
0.00014974
0.00014198
4.7433e-05
-4.8938e-05
-9.9137e-05
-0.00012467
-0.00015032
-0.00016251
-0.00015115
-0.0001112
-6.967e-05
1.9497e-06
7.178e-05
3.9695e-05
-3.0306e-05
-7.4374e-05
-9.9646e-05
-0.00012985
-0.0001553
-0.00017244
-0.00016339
-0.00014245
-0.00010328
-3.2397e-05
-2.8102e-05
-8.4737e-05
-0.00012605
-0.0001393
-0.00016063
-0.00019509
-0.00021714
-0.00024274
-0.00027331
-0.00029863
-0.00029149
-0.00025109
-0.00028019
-0.00036369
-0.00038862
-0.00034648
-0.00031327
-0.00029629
-0.00027315
-0.00020807
-0.00012661
-5.8476e-05
1.8973e-05
8.29e-05
9.4457e-05
8.9511e-05
0.00010306
0.00011149
8.7936e-05
4.8177e-05
2.4841e-05
1.4812e-05
3.7322e-05
7.4966e-05
3.1681e-05
-5.2011e-05
-9.7667e-05
-0.0001176
-0.00012563
-0.00012131
-9.1105e-05
-1.5311e-05
6.0459e-05
0.00015839
0.0002127
0.00014936
9.6392e-05
9.5566e-05
0.00010625
0.00011807
0.00014197
0.00017781
0.00023462
0.00027613
0.00031225
0.00030599
0.00019087
5.1882e-05
-2.8453e-05
-6.8903e-05
-0.00010456
-0.00012097
-0.00014138
-0.00014516
-0.0001117
-6.3213e-05
-9.5411e-06
-8.9044e-06
-0.00012335
-0.00023395
-0.00017961
-6.2664e-05
6.5825e-06
6.8008e-05
0.00014146
0.00020866
0.00025471
0.000306
0.00036266
0.00034147
0.00027867
0.000243
0.00021884
0.0001728
0.00012572
0.00010573
7.5189e-05
3.139e-05
5.0118e-06
2.127e-05
5.1342e-05
3.654e-05
2.6473e-05
5.8408e-05
0.00010636
0.00013756
0.00014858
0.00014082
0.00010209
5.0191e-05
-1.3246e-05
-3.6732e-05
-1.6363e-05
-3.2547e-05
-6.1518e-05
-5.8352e-05
-2.6574e-05
-5.6773e-06
-7.0752e-07
1.81e-05
5.4305e-05
8.7374e-05
0.00011483
0.00017708
0.00019173
0.00010464
1.5138e-05
-2.8512e-05
-2.1775e-05
-3.3925e-06
1.586e-05
2.544e-05
4.7823e-05
8.4523e-05
0.0001039
0.00015494
0.00017426
0.00010497
4.5147e-05
1.013e-05
-3.6353e-05
-0.00010389
-0.00017031
-0.00021362
-0.00022281
-0.0002025
-0.00015838
-8.3886e-05
6.3469e-06
8.4622e-05
0.00015145
0.00018069
0.00016472
0.00012604
9.2655e-05
9.111e-05
9.4145e-05
9.2194e-05
9.4812e-05
0.00010876
0.00018912
0.00022625
0.00014577
9.3421e-05
9.2091e-05
7.1901e-05
2.1566e-06
-6.7732e-05
-0.00012582
-0.00018042
-0.00019813
-0.00011752
0.00011827
0.00036632
0.00041844
0.00035413
0.00030365
0.00026348
0.00018989
9.3962e-05
6.6299e-06
-2.8437e-05
-1.7404e-05
2.6418e-05
0.00012757
0.00015153
6.1729e-05
-1.2989e-05
-2.793e-05
-1.6752e-05
-1.9203e-05
-1.7695e-05
8.8143e-06
7.4885e-05
0.00015363
0.00028275
0.00040533
0.00037746
0.00026975
0.00018579
0.00012386
5.1297e-05
-2.9954e-05
-8.2695e-05
-7.3275e-05
-1.8719e-05
6.186e-05
0.00018397
0.00025608
0.00024099
0.00024887
0.00029292
0.00030634
0.00025628
0.00020026
0.0001648
0.00013602
8.3006e-05
4.288e-05
4.9988e-05
-2.7943e-05
-0.00017735
-0.00026653
-0.00030414
-0.00032737
-0.00034469
-0.00033656
-0.00030551
-0.00023847
-0.00014891
-2.2912e-05
0.00012187
0.00013774
4.2485e-05
-4.1182e-05
-0.00012094
-0.00023307
-0.00034186
-0.00040769
-0.00037353
-0.0002566
-0.00010059
7.2608e-05
0.00012304
2.2685e-05
-8.6064e-05
-0.00014999
-0.00021468
-0.00031803
-0.00049497
-0.00065391
-0.00074478
-0.0008085
-0.00078627
-0.00075333
-0.00075828
-0.00069228
-0.00048688
-0.00038404
-0.00038416
-0.00026019
-4.2907e-05
0.00014773
0.00032394
0.00047112
0.00042456
0.00027682
0.00019214
0.00018666
0.00019149
0.00019351
0.00015033
0.00013765
0.00019413
0.00021816
0.00032315
0.00036085
0.00027799
0.00020303
0.00014398
0.00011704
0.00014044
0.00017866
0.00021414
0.00024465
0.00032162
0.00043199
0.00045467
0.00041247
0.00033136
0.00017455
9.9372e-05
4.0034e-05
-2.2131e-05
1.4453e-05
7.7575e-05
0.00011786
0.00011945
0.00010862
9.6607e-05
4.682e-05
-2.695e-05
-1.4702e-05
5.8036e-05
0.00019375
0.00035699
0.00046237
0.00062233
0.00078508
0.00080483
0.00060826
0.00021468
-0.00023538
-0.00068375
-0.0010318
-0.0011493
-0.0010827
-0.00081468
-0.00048725
-0.00032141
-0.00028733
-0.00029116
-0.00029721
-0.00033374
-0.00041317
-0.0005021
-0.00042542
-0.00024504
-5.9792e-05
8.567e-06
9.4305e-06
5.8464e-06
-0.00010458
-0.00026246
-0.00041306
-0.00050175
-0.00048238
-0.00041056
-0.00018095
7.5476e-05
0.0001225
8.6414e-05
7.7551e-05
8.6405e-05
6.5312e-05
4.9086e-05
6.6014e-05
0.00018259
0.00036119
0.00059382
0.00073762
0.00064336
0.00048743
0.00036311
0.00025376
0.00012794
1.5228e-05
-5.8036e-05
-4.2879e-05
2.0177e-05
0.000167
0.00032231
0.00031134
0.00021277
4.6016e-05
-0.00014835
-0.0002346
-0.00017717
-2.443e-05
0.00013011
0.00021403
0.00019501
0.00011336
3.4804e-05
-0.00010955
-0.00029885
-0.00054131
-0.00083879
-0.0010976
-0.0012823
-0.001426
-0.0015114
-0.0014656
-0.0012884
-0.0009656
-0.00045843
-9e-05
-8.5543e-05
-0.0002013
-0.00038311
-0.00062263
-0.00078559
-0.00078848
-0.00059947
-0.00030792
-5.5309e-05
0.00017598
0.00038634
0.00069268
0.00097322
0.0010545
0.0010326
0.00088154
0.00070182
0.00054883
0.00041793
0.00036761
0.00028869
0.0006321
0.00127
0.0016414
0.0016021
0.00090843
-3.4819e-06
-0.00036263
-0.00043488
-0.00056413
-0.00070941
-0.00078036
-0.00078762
-0.00076995
-0.00072323
-0.00058049
-0.00036447
-6.2014e-05
-3.0694e-05
-0.00021184
-0.00031536
-0.0003601
-0.00025917
-3.1772e-05
0.00012451
0.00028429
0.00040523
0.00034365
0.00045571
0.00054856
0.00045229
0.00051512
0.00073884
0.00086086
0.00063456
0.00039345
0.00022727
-0.00016572
-0.00057061
-0.0006357
-0.00070335
-0.00074202
-0.00070321
-0.0005411
-0.00028259
4.6978e-05
0.00023211
0.0002618
0.00021276
0.00017054
0.00024394
0.00024242
0.00014404
0.00016559
0.00027141
0.00039715
0.00048301
0.00053759
0.00045459
0.000109
-0.0002572
-0.00057753
-0.00097285
-0.0013679
-0.0016122
-0.0016067
-0.0014359
-0.0011468
-0.00066835
-0.00011411
0.00039256
0.00082921
0.0010128
0.00095546
0.00079969
0.00056413
0.00019558
-0.00022204
-0.00051584
-0.00079527
-0.0010771
-0.00094365
-0.00033326
0.0003818
0.00095973
0.0011098
0.00090762
0.00071093
0.00065328
0.00054765
0.00032784
0.00015223
0.00033389
0.00082641
0.0012255
0.0014944
0.0016229
0.0013623
0.00080656
0.00041495
0.00031694
0.00026858
0.00015025
-0.0001407
-0.0003624
-0.000383
0.00016632
0.0012558
0.0020487
0.0021889
0.0019659
0.0015026
0.00099851
0.00063446
0.00041179
0.00031869
0.00023939
0.00018218
0.00031165
0.00061263
0.001103
0.0015789
0.0014525
0.00079465
-4.1573e-05
-0.00080604
-0.0014111
-0.0019883
-0.0026135
-0.0029991
-0.0029894
-0.0028949
-0.0026081
-0.0019482
-0.0011708
-0.00063459
-0.00028759
0.00014403
0.00033219
6.1469e-05
-0.00021501
-0.00036841
-0.00047285
-0.00052625
-0.00045945
-0.00023795
6.1768e-05
0.00042392
0.00057923
0.00047118
0.00021083
-0.00015655
-0.00044636
-0.00072798
-0.0011039
-0.0013431
-0.0013459
-0.001103
-0.00062345
-0.00022767
-2.215e-05
6.4916e-06
-6.0834e-05
-0.0001219
-0.00020381
-0.00034256
-0.0006073
-0.00080149
-0.00069524
-0.00040281
-8.3657e-05
0.00010825
6.0538e-05
-0.00015161
-0.00045336
-0.0007153
-0.00082036
-0.00092712
-0.00088092
-0.00076276
-0.00058339
-0.00023027
7.6777e-05
0.00026305
0.0003729
0.0004742
0.00060341
0.00072511
0.00072002
0.00052754
0.00059986
0.00088792
0.00097305
0.00067486
-8.4758e-05
-0.00077572
-0.0011861
-0.0012942
-0.0012425
-0.001059
-0.00055581
8.082e-05
0.00054912
0.0008108
0.00068504
0.00031191
-6.1185e-06
-0.00027676
-0.00047472
-0.00046076
-0.00019714
0.00013568
0.0002531
0.00034929
0.00041272
0.00044376
0.0004271
0.00021268
-6.2201e-05
-0.00052961
-0.0012397
-0.0018138
-0.001868
-0.0014141
-0.00090809
-0.0001715
0.00061814
0.00092443
0.0010662
0.0012042
0.0011169
0.000772
0.00050558
0.00021373
1.7392e-05
0.00014812
0.00046085
0.00062238
0.00059643
0.00053712
0.00045733
0.000182
-0.00016276
-0.00044956
-0.00074838
-0.00088444
-0.00073995
-0.00033855
4.3207e-05
9.5265e-05
0.00018162
0.00064644
0.001105
0.0014255
0.0016305
0.001431
0.00068268
-0.0002675
-0.00091607
-0.001098
-0.00095169
-0.00070607
-0.00038619
8.3847e-05
0.0004308
0.00049157
0.0005132
0.00061271
0.00064496
0.00039235
-0.00013071
-0.00058737
-0.00095893
-0.0012757
-0.0011861
-0.00075528
-3.5119e-05
0.00057332
0.00080261
0.00085244
0.00076901
0.00061275
0.00053812
0.00032055
0.00018177
0.00040431
0.00082416
0.0012423
0.0012813
0.00082842
0.00013733
-0.00040019
-0.00067307
-0.00082345
-0.00097453
-0.00098999
-0.0009564
-0.0010189
-0.0010532
-0.00099343
-0.00091544
-0.00072425
-0.00028092
0.00031466
0.00098255
0.0014675
0.0014583
0.0010589
0.0004401
-0.00030233
-0.001001
-0.0013685
-0.0014463
-0.0013357
-0.00099716
-0.00055142
-0.00021419
0.00011286
0.00044313
0.00054805
0.00049093
0.00020151
-0.00036349
-0.0010743
-0.0017169
-0.0020493
-0.0021079
-0.0020363
-0.0018282
-0.0016113
-0.0014204
-0.0011136
-0.00079318
-0.00058212
-0.00037745
-6.047e-05
0.00038271
0.00074165
0.00079725
0.00064258
0.00044256
0.00017207
-0.00017036
-0.00058618
-0.00084236
-0.00046481
0.00012876
0.00028655
0.00010657
-0.00010338
6.1599e-05
0.00045045
0.0005213
0.00029431
-5.2589e-05
-0.00031316
-0.00010805
0.0003527
0.00068222
0.00088664
0.00083275
0.00065869
0.00034795
-0.00019136
-0.00096552
-0.0016353
-0.0021418
-0.0025116
-0.0024877
-0.0021124
-0.0017973
-0.0015403
-0.0011914
-0.00078852
-0.00026406
0.00023404
0.00048527
0.00056235
0.00061416
0.00059597
0.00064511
0.00094547
0.001419
0.0018251
0.0020109
0.0021341
0.0025159
0.0029249
0.002754
0.0022564
0.0019411
0.0018028
0.0015253
0.0011728
0.00099609
0.00086116
0.00051279
2.3858e-05
-0.00058245
-0.0013462
-0.0021376
-0.0026619
-0.0029248
-0.0030356
-0.0027357
-0.0018654
-0.00068708
0.00045254
0.0013239
0.0017591
0.0017874
0.0016713
0.0017267
0.0017463
0.001404
0.00072739
5.5804e-05
-0.00023309
-9.4933e-05
0.0002044
0.00047859
0.00062464
0.00074405
0.00096909
0.0010371
0.00096405
0.0010278
0.0012002
0.0013885
0.00145
0.0011398
0.00045572
-0.00025754
-0.00091976
-0.0016605
-0.0023985
-0.0028912
-0.0029841
-0.0026726
-0.0021022
-0.0013534
-0.00049185
0.00027348
0.00075424
0.001008
0.0012588
0.0012262
0.00070725
0.00026601
0.00022907
0.0002903
0.00036019
0.00037056
9.0436e-05
-0.00034236
-0.0006204
-0.0005587
-0.0004547
-0.00065751
-0.00089229
-0.00091676
-0.00072478
-0.00045627
-0.0001684
0.00017177
0.00031769
0.0001171
-0.00010413
-0.00038661
-0.00088339
-0.0012667
-0.0013821
-0.0012038
-0.00085764
-0.00056442
-0.00018301
0.00020732
0.00040853
0.00045555
0.00044697
0.00051681
0.00050174
0.00016408
-0.00032071
-0.00047367
-0.0002339
-1.4582e-05
-2.5766e-05
-7.3656e-05
3.5808e-05
0.00018962
0.00030007
0.00042648
0.00065669
0.00094582
0.0010856
0.0012103
0.001388
0.0013622
0.0011082
0.00090575
0.00087416
0.00083057
0.00070831
0.00044514
8.3217e-05
-0.00021398
-0.0003777
-0.00040386
-0.00039996
-0.00035738
-0.00016975
4.6379e-05
0.00011457
0.00026555
0.00092326
0.0019743
0.0025078
0.002327
0.0018738
0.0011814
0.00045414
2.4696e-05
-0.0002127
-0.00045201
-0.0007691
-0.0010588
-0.0013292
-0.0015187
-0.0016179
-0.0017937
-0.0017806
-0.0015589
-0.001277
-0.00097232
-0.00077431
-0.00065176
-0.00061171
-0.0005418
-0.00026637
0.000284
0.00083376
0.0012131
0.0014797
0.0014093
0.0010446
0.00074917
0.00051474
0.00025598
7.7722e-05
-0.00014188
-0.00036584
-0.00040001
-0.00036175
-0.00063033
-0.0010587
-0.0012787
-0.0013795
-0.0012844
-0.00094613
-0.00076663
-0.00091964
-0.00080609
-0.00021104
0.00046253
0.00085581
0.00093372
0.00074595
0.0003954
2.2975e-05
-8.879e-05
-7.5811e-05
-0.00019906
-0.00034905
-0.0002484
2.7249e-05
0.00038729
0.00080648
0.0010141
0.00096842
0.00075945
0.0004734
0.00026644
0.00022186
0.00023588
0.00017957
0.00013576
0.00024832
0.00037364
0.00016656
-0.00025187
-0.00071703
-0.0011476
-0.0013259
-0.0010976
-0.00058845
2.9604e-05
0.00050268
0.00081714
0.00074624
0.00030861
0.00023088
0.00060778
0.0010193
0.0013226
0.0015467
0.0016926
0.0018496
0.0019221
0.0018108
0.0015187
0.0008714
3.149e-06
-0.00050333
-0.00057657
-0.00038495
0.00016394
0.0010931
0.0020165
0.0024921
0.0025426
0.0024871
0.0023404
0.001797
0.00085859
-0.00022654
-0.0011699
-0.0019174
-0.0022786
-0.0020784
-0.0015688
-0.0010402
-0.00063447
-3.084e-05
0.00065568
0.00097519
0.00099093
0.00078021
0.00037786
-4.3742e-05
-0.00035949
-0.00050507
-0.00051618
-0.00018768
0.0004275
0.00087144
0.00087236
0.00050501
0.00014334
5.66e-05
0.00013987
0.00034073
0.00068492
0.0010242
0.0011929
0.0011806
0.0010655
0.00074175
0.00025463
-0.00032931
-0.00090836
-0.0010874
-0.00082686
-0.00038102
0.00011394
0.00047
0.00076909
0.0010168
0.0010599
0.00079943
0.00037067
-1.1391e-05
-0.00035124
-0.00069219
-0.00094453
-0.0011403
-0.0012351
-0.0012117
-0.0011168
-0.00095727
-0.00085797
-0.00086375
-0.00084274
-0.00068012
-0.00053601
-0.00053432
-0.00055335
-0.00055591
-0.00054043
-0.00061197
-0.00076642
-0.00090886
-0.00086403
-0.00052153
-0.00028037
-7.2604e-05
0.00024258
0.00042094
0.00040625
0.00031044
0.00027813
0.00022066
2.2072e-05
-0.00017246
-0.00030079
-0.00035011
-0.00029097
-0.00023118
-0.00012287
0.00011846
0.00051813
0.0008186
0.00085135
0.0007773
0.00052958
-1.1324e-05
-0.00070016
-0.0013735
-0.0020264
-0.0027733
-0.0033773
-0.0034288
-0.0028181
-0.0018029
-0.00076311
0.00024739
0.0010805
0.0011744
0.00052496
-0.00010977
-0.00043307
-0.00056935
-0.00051857
-0.00031873
-0.00021949
-0.00015434
0.00010475
0.00031389
0.00022977
2.1217e-06
-0.00012929
0.00014992
0.00082173
0.0015603
0.002072
0.0021944
0.0020468
0.0017586
0.0013445
0.00084088
0.00029432
-0.00014119
-0.0003984
-0.00055394
-0.00066692
-0.0007764
-0.00082777
-0.0007787
-0.00077784
-0.00085835
-0.00078226
-0.0006117
-0.00071769
-0.0010667
-0.001573
-0.0021324
-0.0025766
-0.0028756
-0.0028964
-0.0026234
-0.0023594
-0.0022846
-0.0022144
-0.0017357
-0.0009964
-0.00025751
0.000565
0.0015776
0.0024672
0.0027875
0.0024253
0.001633
0.00076963
-9.962e-05
-0.00081108
-0.0011321
-0.0010948
-0.00084842
-0.0003485
0.00023411
0.0006668
0.00094569
0.0009755
0.00066002
0.00012815
-0.00051229
-0.00074027
-0.0004932
3.0623e-05
0.00083357
0.001638
0.0018971
0.0014931
0.00095212
0.00064212
0.00057021
0.00082686
0.0013146
0.0019013
0.0023765
0.0022189
0.0016421
0.001111
0.00070146
0.00060458
0.00076357
0.00071786
0.00064478
0.00075635
0.001064
0.0015199
0.0017101
0.0014996
0.0011318
0.00065081
-0.00017414
-0.0012178
-0.0022682
-0.0029792
-0.0030329
-0.002565
-0.0018616
-0.00092456
0.00011758
0.00091923
0.0013221
0.0013485
0.0012243
0.00088744
0.00046731
0.00021069
-0.00014993
-0.00060679
-0.00085597
-0.00074735
-0.00059046
-0.00069997
-0.00068063
-0.00025679
0.00041466
0.0013915
0.0024075
0.0029157
0.003151
0.0034251
0.0035359
0.003258
0.0028749
0.0023975
0.001626
0.00074613
-0.00031594
-0.0014417
-0.0025461
-0.0034986
-0.0038259
-0.0034137
-0.0026459
-0.0019781
-0.0012399
-0.00038679
7.5041e-05
6.5153e-05
-0.00036323
-0.0011483
-0.0021631
-0.002905
-0.0031571
-0.0030789
-0.0029085
-0.002641
-0.0021116
-0.0014737
-0.00081174
-0.00020375
0.0001942
0.00037763
0.0004627
0.00067155
0.0011781
0.0019927
0.0029288
0.0036391
0.0036358
0.0027254
0.0015733
0.00064064
-0.00026775
-0.0011677
-0.0016719
-0.0018039
-0.0017768
-0.0014994
-0.0010983
-0.00075703
-0.00071685
-0.00098847
-0.001304
-0.0014983
-0.0013441
-0.0009579
-0.00067504
-0.00048288
-0.00030253
-0.00027211
-0.00032048
-0.00036365
-0.0006671
-0.00083579
-0.00056545
-0.00013524
0.00058006
0.0012967
0.0015411
0.0015586
0.0015038
0.0013058
0.0010719
0.0007359
0.00021429
-0.00037233
-0.00074632
-0.0010317
-0.001265
-0.0011085
-0.00087887
-0.00080797
-0.00096521
-0.0011464
-0.00097397
-0.00051875
-0.00018365
0.00021726
0.0010877
0.0021419
0.0030146
0.0038229
0.0043415
0.0043934
0.0037233
0.0023073
0.00052713
-0.0012702
-0.0026112
-0.0033228
-0.0036723
-0.0035544
-0.0027711
-0.0018294
-0.0011538
-0.00072419
-0.00071471
-0.00086195
-0.00075577
-0.00033441
0.00024781
0.00072804
0.00092351
0.0010855
0.0013953
0.0017084
0.0020019
0.0024248
0.0030664
0.0036552
0.0040867
0.0043191
0.0040597
0.0034447
0.0028658
0.0026382
0.0025485
0.002146
0.0013232
0.0002755
-0.00074466
-0.0014815
-0.0018215
-0.0020675
-0.0022297
-0.002017
-0.0014219
-0.00054221
0.00016891
0.00043826
0.00040268
0.00012923
-0.00024917
-0.00049041
-0.00057543
-0.00079035
-0.0012186
-0.0015253
-0.0014873
-0.0012341
-0.00076746
-0.00014336
0.00047352
0.00099335
0.0012373
0.0011238
0.00074163
0.00050913
0.00056027
0.0006581
0.00082157
0.00091157
0.00049476
-0.00060406
-0.001946
-0.002963
-0.0034476
-0.0035894
-0.0037029
-0.0039309
-0.0041083
-0.0040186
-0.0035009
-0.002447
-0.0014782
-0.0012767
-0.0017484
-0.0025036
-0.0031456
-0.0031225
-0.0021841
-0.00066883
0.00076441
0.0019302
0.002764
0.0031712
0.0032246
0.0026916
0.0016386
0.00048335
-0.00041361
-0.00074088
-0.00045993
0.00015031
0.001071
0.0020282
0.0027512
0.0035317
0.0040599
0.0038052
0.0031675
0.0026993
0.002435
0.0023147
0.0025328
0.0029867
0.0031283
0.0023272
0.0011422
0.00053109
0.00034451
0.00029325
0.00054635
0.0010254
0.0011868
0.00054187
-0.00075161
-0.0022387
-0.003661
-0.004873
-0.0053408
-0.0050724
-0.0047416
-0.0043868
-0.003579
-0.0024434
-0.0012807
-0.00022506
0.00066818
0.0016565
0.0029234
0.0040742
0.0046839
0.0044982
0.0039134
0.0032627
0.002556
0.0017668
0.00069838
-0.00080605
-0.0025935
-0.0039928
-0.0043415
-0.0036547
-0.0029155
-0.0029279
-0.0031394
-0.0028877
-0.0022629
-0.0015119
-0.00089136
-0.00053896
2.1811e-05
0.00098584
0.0017569
0.0023185
0.0024692
0.0022945
0.0019961
0.0016949
0.0015323
0.0010986
0.00012775
-0.0011961
-0.0024101
-0.0029325
-0.0025947
-0.0014057
0.00032591
0.0017565
0.0022681
0.0020125
0.0015224
0.00083503
-0.00019818
-0.0013833
-0.002532
-0.0034913
-0.003778
-0.0033578
-0.0024858
-0.0012936
0.00021243
0.0019637
0.0034784
0.0043309
0.0048259
0.0049179
0.0043798
0.0034748
0.002508
0.0016478
0.0010217
0.00081939
0.0011124
0.001776
0.0026885
0.0036063
0.0041262
0.0042564
0.0043375
0.0041001
0.0032283
0.0022513
0.0017471
0.0017956
0.001815
0.0010654
-0.00012848
-0.0010217
-0.0017281
-0.0029001
-0.004303
-0.0052139
-0.0053562
-0.004708
-0.0037018
-0.002986
-0.0023299
-0.0012028
-2.4493e-05
0.00032764
-0.00022209
-0.00094834
-0.0014216
-0.001598
-0.0016492
-0.0017349
-0.0016874
-0.0017432
-0.0021906
-0.0029064
-0.0036875
-0.0040482
-0.0034933
-0.0022491
-0.0010739
-0.00026303
0.00032117
0.00087137
0.0017424
0.0026889
0.0028814
0.002388
0.0018937
0.0018913
0.0023294
0.0030661
0.0039224
0.0045832
0.0046676
0.0040815
0.0028884
0.0015822
0.00043321
-0.00064879
-0.0014315
-0.001571
-0.0010773
-0.00018255
0.00077506
0.0013164
0.0013623
0.0012563
0.00075437
-0.00028513
-0.0014632
-0.002626
-0.0037855
-0.0044462
-0.0045844
-0.0046122
-0.0047734
-0.0048236
-0.0043016
-0.002985
-0.0013599
5.6208e-05
0.001326
0.002406
0.0030013
0.0032755
0.0034081
0.0036293
0.0039579
0.0042333
0.0041076
0.0029637
0.0011139
-0.00038681
-0.0010709
-0.0010713
-0.00065648
-0.00022366
9.3054e-05
0.00050916
0.00044236
-0.00043335
-0.0018325
-0.0032044
-0.0036152
-0.0031284
-0.002905
-0.0032505
-0.0036705
-0.0039162
-0.0039376
-0.0038155
-0.0034561
-0.0025404
-0.0012329
-0.00026801
-2.0954e-05
-0.0008226
-0.0023848
-0.0035438
-0.0040244
-0.0039632
-0.0032395
-0.0021633
-0.0012742
-0.00054112
2.8134e-05
0.00024984
0.00011875
0.00012364
0.00050309
0.001004
0.00133
0.0014899
0.0018477
0.0023757
0.0028853
0.0030493
0.002645
0.0019719
0.0013505
0.0010556
0.0010679
0.0012577
0.001978
0.0031151
0.0043826
0.0052831
0.0050174
0.0038419
0.0027504
0.0019653
0.0011995
0.00085757
0.00072269
0.00071589
0.0011814
0.001616
0.0016779
0.0013657
0.00053757
-0.00079262
-0.0021644
-0.0029626
-0.0031091
-0.0028423
-0.0025449
-0.0025569
-0.002747
-0.0026512
-0.0017897
-0.00054881
0.0004345
0.0010188
0.0012959
0.0014938
0.0014436
0.0012434
0.0013387
0.001723
0.0021632
0.0024055
0.0026745
0.0033611
0.0044071
0.0050206
0.0046317
0.0036725
0.0027536
0.0020084
0.0012624
0.0001272
-0.00089458
-0.0010931
-0.00078306
-0.00049008
-0.000161
4.488e-05
5.355e-05
8.273e-05
-1.7063e-05
-0.00018718
-0.00038614
-0.00057858
-0.0001772
0.00063424
0.0011389
0.0017447
0.0026894
0.0036147
0.0046384
0.005616
0.0060118
0.0053755
0.0037903
0.001919
5.5751e-05
-0.0015937
-0.0029345
-0.0039225
-0.0045187
-0.0046132
-0.0041251
-0.0035244
-0.0031581
-0.0029455
-0.0029859
-0.0032821
-0.0036986
-0.0039814
-0.0043497
-0.0047349
-0.0043688
-0.0028908
-0.00099667
0.00037019
0.00056708
-0.00045553
-0.0019041
-0.0028629
-0.0029248
-0.0021794
-0.0012863
-0.00054536
0.00055099
0.0019919
0.0030709
0.0033933
0.002695
0.0014419
0.00033685
-0.0005152
-0.0013489
-0.0021923
-0.0025894
-0.001905
-0.00065495
0.00032238
0.00086458
0.0014275
0.0022859
0.0030584
0.0035128
0.0032578
0.0023529
0.0011906
0.00012929
-0.0004435
-0.0009039
-0.0011439
-0.0010978
-0.0014124
-0.0027387
-0.0042527
-0.0050374
-0.0052992
-0.0046958
-0.0032427
-0.0014871
0.00020639
0.0016609
0.0027338
0.0028195
0.0018186
0.00065362
0.00023334
0.00040823
0.00071973
0.0007679
9.2219e-05
-0.00087897
-0.0015417
-0.0017679
-0.0013626
-0.00053582
9.7948e-05
0.00038868
0.00042516
0.00041406
0.00074961
0.0014457
0.0020735
0.0021301
0.0019902
0.0022074
0.0025096
0.0024417
0.001732
0.00062906
-0.00013906
-0.00027264
0.00018868
0.0010958
0.0021718
0.0033535
0.0043426
0.0044857
0.0038162
0.0028322
0.0015884
0.00039881
-0.00034288
-0.0012248
-0.0026376
-0.0044141
-0.006132
-0.0071818
-0.007152
-0.0064158
-0.0054033
-0.0042279
-0.0030309
-0.0018934
-0.0010629
-0.00076997
-0.00064714
-0.00023638
0.00027957
0.0010183
0.0020208
0.0030691
0.0040834
0.0049913
0.0053992
0.0052016
0.004759
0.0044119
0.0040928
0.003764
0.0032493
0.002464
0.0016485
0.00074758
-0.00010803
-0.00054072
-0.00045018
-8.2165e-06
0.00060462
0.0011214
0.0011374
0.00074059
0.00027049
-5.1702e-05
-0.00064992
-0.0013913
-0.001447
-0.0007011
0.0003095
0.00082887
0.00076797
0.00043316
-6.6491e-05
-0.00087285
-0.0019418
-0.0029603
-0.003634
-0.0040544
-0.0041581
-0.0040124
-0.0035773
-0.0028041
-0.0021962
-0.0020645
-0.0024185
-0.0028953
-0.0029088
-0.0021687
-0.0007382
0.00058356
0.0012842
0.0014856
0.0012858
0.00089729
0.00031614
-0.00027293
-0.00082299
-0.0014564
-0.0020609
-0.0023542
-0.0018257
-0.00060961
0.00055482
0.0015613
0.0026875
0.0040466
0.0049684
0.0049294
0.004275
0.0033106
0.0022227
0.0011792
2.6161e-05
-0.00062367
-0.00087034
-0.00095308
-0.00061495
-0.00020955
0.00024832
0.00035139
-0.00081659
-0.0024347
-0.003215
-0.0029768
-0.0019519
-0.00062323
0.00032741
0.0008747
0.0015124
0.0022694
0.002507
0.0025362
0.0027428
0.0028562
0.0030007
0.0031134
0.0031019
0.0027088
0.0019553
0.0012468
0.00059967
0.00049468
0.0010348
0.00152
0.0016808
0.0017555
0.0018869
0.0022145
0.0023281
0.0021961
0.0022048
0.0022693
0.0024196
0.0025336
0.0022041
0.0015014
0.00094808
0.0005564
-8.0252e-05
-0.00081246
-0.001595
-0.0022079
-0.0022959
-0.0019954
-0.0016999
-0.0014388
-0.00098801
-0.000635
-0.00054758
-0.00072985
-0.0010288
-0.00099353
-0.00067776
-0.0003951
-0.00014957
0.0001798
0.00044451
0.00031026
-0.00016369
-0.00077586
-0.0012335
-0.0015287
-0.0020203
-0.0025352
-0.0028424
-0.0028098
-0.0024496
-0.0021555
-0.0020528
-0.0018331
-0.0012134
-0.00027693
0.00038245
0.00055544
0.00049612
0.0004045
4.8847e-05
-0.00033933
-0.00029542
0.00014457
0.00055973
0.00070295
0.00080047
0.00063384
5.3635e-05
-0.0001422
-0.00019696
-0.00050285
-0.00075255
-0.00072208
-0.00050275
-0.00012262
0.00035154
0.00059609
0.00044409
8.7599e-05
-0.00016929
-0.00026975
-0.00041226
-0.00049518
-0.00065122
-0.00077123
-0.00034788
0.00042138
0.00055485
-1.0624e-06
-0.00087363
-0.0013744
-0.0013535
-0.0012704
-0.0012712
-0.0012822
-0.0013589
-0.0015218
-0.0017161
-0.0018693
-0.0019412
-0.001798
-0.0012696
-0.000873
-0.00050547
0.00029136
0.0010105
0.0013778
0.0015988
0.0017313
0.0016995
0.001812
0.0020373
0.0021996
0.0023404
0.002533
0.0027969
0.0028417
0.0026756
0.002511
0.0025523
0.0027219
0.0026416
0.0021927
0.0014677
0.0010432
0.0011778
0.0014551
0.0015532
0.001273
0.00052742
-0.00018402
-0.00058693
-0.00079612
-0.00063343
-0.00010505
0.00022983
-0.00013827
-0.0010272
-0.0015815
-0.0014585
-0.0011624
-0.0012271
-0.0013642
-0.0013218
-0.0012839
-0.00087947
-0.00015094
0.00057343
0.0011361
0.0014777
0.0015018
0.0012003
0.00079065
0.00063864
0.00065211
0.0004525
0.00042883
0.00074078
0.00083827
0.0004675
-3.8159e-05
-0.00022223
0.00015363
0.0005661
0.00049452
0.00023093
0.00023525
0.00058661
0.00085114
0.00062153
0.00019799
-0.00017081
-0.00033555
-0.00011703
0.00052815
0.0015015
0.0021732
0.0022228
0.0022561
0.0023609
0.0020911
0.0014373
0.00042556
-0.00064029
-0.0010674
-0.00073773
-0.00013062
0.00040136
0.00083302
0.0012898
0.0017005
0.0019144
0.0018001
0.0013521
0.00023922
-0.0014476
-0.0030145
-0.0043593
-0.0049542
-0.0046164
-0.0042128
-0.0038871
-0.0033197
-0.0025766
-0.0020824
-0.0016742
-0.0013426
-0.0013237
-0.0013359
-0.00075102
7.7481e-05
0.00073243
0.0012467
0.0016547
0.0018903
0.0019907
0.0023012
0.0025501
0.002557
0.0028303
0.0030069
0.0024592
0.0016761
0.0011989
0.001095
0.0011085
0.0011466
0.0010937
0.00093854
0.00056498
-2.5483e-05
-0.00061692
-0.0011369
-0.0013766
-0.0013576
-0.0011853
-0.0010285
-0.00076692
-0.00031308
0.00027947
0.00084715
0.0008284
-1.1446e-05
-0.0010517
-0.0018187
-0.0022651
-0.0023965
-0.0022921
-0.0021457
-0.0019806
-0.001575
-0.0011096
-0.0010328
-0.0013962
-0.0020884
-0.0028931
-0.0034698
-0.0033953
-0.002681
-0.0020911
-0.0014142
-0.00036399
0.00070894
0.0016941
0.0023828
0.0024237
0.0017841
0.000698
-0.00059889
-0.0016397
-0.0021394
-0.0023145
-0.0022376
-0.0020321
-0.0018909
-0.001758
-0.001705
-0.001832
-0.0020087
-0.0019147
-0.0015092
-0.00088596
4.5846e-06
0.0008107
0.0010574
0.00086113
0.00071253
0.0008058
0.00069218
0.0002179
-0.00031393
-0.000818
-0.0013073
-0.0015119
-0.0011401
-0.00078898
-0.00092256
-0.0012919
-0.0014705
-0.0013709
-0.0013621
-0.0014647
-0.0013911
-0.0010875
-0.00092412
-0.00082212
-0.00061639
-0.00050117
-0.00049002
-0.00032244
0.00017066
0.00065345
0.00072418
0.00045279
0.00061965
0.0012135
0.0015531
0.0017369
0.0018392
0.0018553
0.0019183
0.0021612
0.0024403
0.0024564
0.0022001
0.001345
-9.1499e-05
-0.0010565
-0.0013412
-0.0014965
-0.0017765
-0.0018601
-0.0013698
-0.00050038
0.00021197
0.00058047
0.00070037
0.00070865
0.0007169
0.00072034
0.00041193
-0.00024851
-0.0007768
-0.0010991
-0.0012865
-0.0012231
-0.0010235
-0.0010534
-0.0012775
-0.0015554
-0.0018738
-0.0021309
-0.00208
-0.0015261
-0.00078016
-0.00014984
0.00043135
0.00099458
0.0016015
0.0019514
0.0022413
0.0026369
0.0026546
0.002041
0.00099189
0.00010738
-0.00045842
-0.00084457
-0.00093085
-0.00064131
3.7165e-05
0.00050879
0.00057696
0.00099987
0.0015506
0.0016271
0.001382
0.0009685
0.00054797
8.5163e-05
-0.00020418
-0.00020635
-0.00038852
-0.00064272
-0.00056686
-3.5907e-05
0.00046925
0.00041247
-0.00014383
-0.00098895
-0.0014818
-0.0010208
-0.00040339
-0.00020946
-4.378e-05
0.00033203
0.00070395
0.00092875
0.0012442
0.0015477
0.0015013
0.00076107
-0.00033529
-0.00088328
-0.00081108
-0.00049948
1.0522e-06
0.00055287
0.0011236
0.0016185
0.00203
0.0026089
0.0030633
0.0028664
0.0024604
0.0023405
0.0021144
0.0014745
0.00066572
7.5884e-05
-0.00058215
-0.0015109
-0.0021508
-0.0021074
-0.0016947
-0.0014179
-0.0012941
-0.00086388
5.1218e-07
0.00081745
0.0011211
0.0007274
-4.4294e-05
-0.00088378
-0.0017254
-0.002196
-0.0021458
-0.0018381
-0.001468
-0.00097312
-0.00027442
0.00044935
0.0010059
0.0011946
0.0012048
0.0011467
0.0010922
0.00092487
0.00030696
-0.00052003
-0.0010718
-0.0011068
-0.00080394
-0.00042929
-0.00021871
-0.00022288
-0.0002988
-0.00031913
-7.0607e-05
0.00029284
0.00043219
0.00029136
0.00019054
0.00030819
0.00055775
0.0010072
0.0013577
0.0011765
0.0006767
0.00014299
-0.00051394
-0.00099985
-0.0011622
-0.0010718
-0.0006238
8.3901e-06
0.0007668
0.0016096
0.0022093
0.0025661
0.002631
0.0024825
0.0021094
0.0015854
0.0010588
0.00062251
0.00032299
-2.5499e-05
-0.00022367
-9.1802e-05
0.00038014
0.00091623
0.0013329
0.0016204
0.0015097
0.001278
0.00088983
0.00034557
-0.00015299
-0.00057045
-0.00072951
-0.00067278
-0.00049382
-1.4831e-06
0.00071261
0.00099047
0.00061743
4.6903e-05
-0.00031051
-0.00042155
-0.00029209
-0.00023318
-0.00037137
-0.00041746
-0.00029161
-3.9938e-05
0.00025873
0.00051682
0.00062416
0.00051176
0.00049354
0.00062228
0.00063236
0.00063805
0.00057505
0.00023291
7.9587e-06
5.8959e-05
3.7037e-05
-0.00036329
-0.00090953
-0.0011627
-0.0010924
-0.00091584
-0.0009467
-0.00135
-0.0015423
-0.0015544
-0.001471
-0.0011446
-0.0011316
-0.0013732
-0.0013744
-0.00095687
-0.00065741
-0.00094391
-0.0012313
-0.0016423
-0.0021322
-0.0024286
-0.0025513
-0.0022379
-0.0017224
-0.0010174
-0.00013066
0.0002994
0.00033701
-0.00014118
-0.00079967
-0.0012194
-0.0015035
-0.001422
-0.00098004
-0.00028688
0.00020594
6.1655e-05
5.5413e-05
0.00081188
0.001766
0.002697
0.003416
0.0037348
0.0039144
0.0038537
0.0034714
0.0030102
0.0024475
0.0017992
0.0011408
0.00050816
-5.1807e-05
-0.00023085
-2.3297e-05
3.9023e-05
3.8917e-05
0.00026326
0.00053963
0.00063805
0.00076833
0.0011239
0.0013506
0.0013452
0.0013859
0.0012518
0.00075634
4.9688e-05
-0.00054756
-0.00070719
-0.000569
-0.00060404
-0.00084082
-0.0010949
-0.0014693
-0.0018971
-0.0020013
-0.0015416
-0.00067371
3.516e-05
0.00032227
0.00059423
0.0010168
0.0013928
0.0015784
0.0014596
0.00095807
0.00023296
-5.7647e-05
0.00027655
0.00069936
0.00071855
0.00060706
0.00056921
0.00039928
0.00027571
0.00024679
0.00015085
-0.00022219
-0.00071031
-0.00087509
-0.00092798
-0.0011932
-0.0016823
-0.0021748
-0.0021525
-0.0016195
-0.00097732
-0.00046878
-0.00017706
-0.00023093
-0.00047442
-0.00078639
-0.0012058
-0.0014908
-0.0016654
-0.0016992
-0.0011829
-9.6466e-05
0.00103
0.001649
0.0016456
0.0012787
0.0007185
-5.5373e-05
-0.00083912
-0.0014514
-0.0018501
-0.0021529
-0.0022979
-0.0022288
-0.0022446
-0.002258
-0.0021746
-0.0019504
-0.0015652
-0.0012401
-0.001043
-0.00083381
-0.00071968
-0.00068103
-0.00066506
-0.0005464
-0.00029822
-0.00012987
2.4428e-05
0.00041057
0.0011092
0.0017459
0.00214
0.0024584
0.0023555
0.0016323
0.00092562
0.00051711
0.00020342
2.5912e-05
6.8737e-05
0.00051774
0.0011252
0.0012951
0.0013417
0.0014114
0.001174
0.000554
-0.00038799
-0.0012933
-0.0018156
-0.0019511
-0.0015129
-0.00063766
-6.867e-05
-7.5401e-05
-0.00025305
-7.9548e-06
0.00048869
0.00091313
0.0010675
0.00061031
-7.984e-05
-0.00033239
-8.5008e-05
0.00024412
0.00043448
0.00046774
0.00054283
0.00071885
0.00093048
0.0011514
0.0011332
0.00060641
-0.00024224
-0.00088865
-0.0010018
-0.00064469
-0.00031898
-0.00011481
5.6493e-05
7.106e-06
-0.00021495
-0.00033756
-0.00051151
-0.00098778
-0.001466
-0.0015759
-0.0012399
-0.00098713
-0.00098533
-0.00078129
-0.00044974
-0.00012242
0.00031625
0.00066457
0.00065056
0.00041947
0.00031214
0.0002549
0.00022202
0.00042963
0.00075525
0.0010155
0.0011067
0.0010171
0.00080492
0.00045179
-7.5695e-05
-0.00051041
-0.00076784
-0.0009894
-0.0010645
-0.00071944
-7.9306e-05
0.00023653
7.9937e-05
3.2526e-05
0.00030517
0.00045092
0.00022319
-0.00022708
-0.00049503
-0.00055835
-0.00069227
-0.00082287
-0.00057302
-0.00015947
-0.00013221
-0.00025094
-6.4806e-05
9.232e-05
3.7911e-05
5.5912e-05
0.00016222
0.0002916
0.00032947
0.00045031
0.0005696
0.00051803
0.00059229
0.00079235
0.00095195
0.0011746
0.001193
0.0010693
0.00083977
0.00084352
0.0014968
0.0025069
0.0034026
0.0039128
0.0037432
0.0028595
0.0019642
0.0013576
0.00069297
-2.2793e-05
-0.00031338
-0.00010622
0.00036438
0.00090366
0.001157
0.0008038
-8.1088e-05
-0.00074035
-0.00088042
-0.0009644
-0.0011743
-0.0015198
-0.0019259
-0.0019978
-0.0015535
-0.00093407
-0.00068754
-0.00082801
-0.0012345
-0.0016451
-0.0016563
-0.0013551
-0.0010077
-0.00068824
-0.00066952
-0.00091945
-0.001152
-0.0014654
-0.0018202
-0.0020389
-0.0019907
-0.0016249
-0.0011589
-0.00081909
-0.00055532
-0.00046813
-0.00072761
-0.0012504
-0.0016475
-0.0016523
-0.0013969
-0.00097632
-0.0006477
-0.00073833
-0.0011511
-0.0014578
-0.0013176
-0.00099803
-0.00063722
-0.00037136
-0.00030576
-0.00023193
-9.1135e-06
0.00057346
0.0012407
0.0015453
0.0017739
0.0018424
0.0014952
0.00063124
-0.00079937
-0.001964
-0.0023956
-0.0021719
-0.0011828
0.00023818
0.0016414
0.0028362
0.003331
0.0030311
0.0024969
0.0020867
0.0019029
0.0016626
0.0012956
0.00086729
0.00038656
-6.4097e-05
-0.00029258
-0.00050403
-0.00075503
-0.0006563
-0.00057033
-0.00070485
-0.00078375
-0.0010365
-0.00153
-0.00187
-0.0018729
-0.0016156
-0.00093598
-0.00023089
0.00034703
0.0008664
0.0010498
0.00075232
1.6616e-05
-0.00071795
-0.00083615
-0.00022885
0.000687
0.0015095
0.0022226
0.0025352
0.0022076
0.0014635
0.00077147
2.8536e-05
-0.00080713
-0.0016709
-0.0025098
-0.0027018
-0.0018081
-0.00028592
0.0011383
0.0024363
0.0034882
0.0038268
0.0035135
0.0028338
0.0019371
0.00078797
0.00015
0.00023207
0.00022688
9.0757e-05
5.0294e-05
-4.228e-05
-0.00020015
-0.00055254
-0.00084607
-0.0012309
-0.0017305
-0.0018906
-0.0018065
-0.0015097
-0.00094088
-0.00010729
0.00067574
0.0010703
0.001174
0.00081398
0.00029852
0.00016982
0.00024946
0.00023886
-0.00010081
-0.00061201
-0.00070972
-0.00066498
-0.00091802
-0.0014844
-0.00204
-0.0020495
-0.0016038
-0.00086719
4.2092e-05
0.0011205
0.0021416
0.0025121
0.002449
0.0023349
0.0021382
0.0019289
0.001584
0.00077919
-0.00021308
-0.00075586
-0.00068743
-0.00022829
0.0002949
0.00086835
0.0011912
0.00076508
-0.00014093
-0.001287
-0.0023743
-0.002918
-0.0027556
-0.0021024
-0.0011797
-0.00031581
-6.8149e-05
-0.00041734
-0.0010025
-0.0013288
-0.0011206
-0.00098426
-0.00072603
0.00013502
0.0010569
0.0015498
0.0015648
0.0014356
0.0012687
0.00068431
-0.00020964
-0.00058111
-0.00066355
-0.0010024
-0.001153
-0.00092072
-0.00082068
-0.00048557
0.00023765
0.00056975
0.00071902
0.00080069
0.00060454
0.00047903
0.00074463
0.0012473
0.0015662
0.0015337
0.00079286
-0.00051323
-0.0016695
-0.0024944
-0.0031681
-0.0036245
-0.0036399
-0.0032812
-0.0028326
-0.0020537
-0.00089527
0.00016564
0.00055271
0.00030999
0.00033675
0.0010242
0.0023343
0.0035775
0.0033179
0.0019684
0.0012111
0.0015073
0.0020368
0.0016581
0.00079983
0.0009328
0.0018329
0.0024433
0.0025971
0.0022175
0.0017474
0.0015825
0.0017267
0.001984
0.0022684
0.0026304
0.0026225
0.0020651
0.0014365
0.00077603
-0.00068451
-0.0027328
-0.0045862
-0.0056402
-0.0054692
-0.0045641
-0.0035147
-0.0023933
-0.0011104
-8.7649e-05
0.00019021
0.00021968
0.00046157
0.0008854
0.0009521
0.00045312
-0.0002185
-0.00089322
-0.0011726
-0.00098596
-0.00065943
-0.00027075
2.8908e-05
-5.2892e-05
-0.00035326
-0.00026634
0.00066022
0.001835
0.0029246
0.0040664
0.0048996
0.0053658
0.0051609
0.0041762
0.0029317
0.0014556
4.4994e-05
-0.00064359
-0.0010228
-0.0016811
-0.0020079
-0.0019765
-0.001843
-0.0012835
-0.00030529
0.00060048
0.0013133
0.0018749
0.0022356
0.0024855
0.0027349
0.0031386
0.0033686
0.0029434
0.0016685
0.00039127
6.4894e-05
0.00025866
0.00029942
-0.00020207
-0.0010165
-0.0015243
-0.0014956
-0.0017294
-0.0026861
-0.0035848
-0.0039325
-0.003838
-0.0036298
-0.0034504
-0.0035098
-0.0039704
-0.0047199
-0.0054799
-0.0053548
-0.0044461
-0.003465
-0.002181
-0.00081157
0.00023048
0.00057034
0.00049717
0.0010261
0.0018643
0.0020033
0.0014406
0.00044554
-0.00062976
-0.0017534
-0.0026156
-0.0027008
-0.0021282
-0.0013975
-0.0010156
-0.00087231
-0.0001907
0.00060408
0.00074119
0.00055252
0.00026855
0.00039629
0.00075
0.0012831
0.0018712
0.0020114
0.0018733
0.0013771
0.00069286
-0.00026178
-0.0014059
-0.001635
-0.0010887
-0.00048583
1.4885e-05
0.0003253
0.0003088
0.00029987
0.00075417
0.0019034
0.0026398
0.0019984
0.00079503
6.2078e-06
0.00017975
0.00070156
0.00068078
0.00048536
0.00024653
-0.0005412
-0.0016086
-0.0021062
-0.0018959
-0.0011528
6.4038e-05
0.0010909
0.0016505
0.001739
0.0015164
0.0012442
0.00071847
-0.00017049
-0.00069763
-0.00065417
-0.00061686
-0.00049005
-6.2e-05
0.00041162
0.00091722
0.001355
0.001524
0.0012693
0.0009067
0.00056118
0.00027388
0.00031773
0.00057841
0.00089004
0.00059591
-0.00016217
-0.00037662
-1.0816e-06
0.00049221
0.00048667
0.00029021
0.00035078
0.00053285
0.0006787
0.00026473
-0.00043688
-0.00068192
-0.00064598
-0.00079795
-0.0010391
-0.0011011
-0.00062583
0.00031669
0.0011263
0.0015546
0.0013134
0.0009197
0.00071504
0.00054132
0.00044653
0.00013439
-0.00067222
-0.0018077
-0.0028909
-0.0033452
-0.0032229
-0.0031527
-0.0031013
-0.0024659
-0.0010963
0.000354
0.0014499
0.0021728
0.0024635
0.002016
0.0012268
0.00053264
-7.479e-05
-0.00068489
-0.0011855
-0.0014709
-0.0014822
-0.0011065
-0.00019803
0.0012948
0.0027756
0.0034363
0.003257
0.0026761
0.0018121
0.00037894
-0.0011993
-0.0019961
-0.0018687
-0.0012197
-0.00050615
-7.0175e-07
0.00010583
-0.00049719
-0.0015585
-0.0019814
-0.001082
0.00047726
0.0019284
0.0026257
0.0024093
0.0019697
0.0016347
0.0011538
0.00036232
-0.00067067
-0.0018264
-0.0025225
-0.0022356
-0.00129
-0.00036514
-4.5946e-06
0.00036766
0.0012807
0.002578
0.0038662
0.0044265
0.0039773
0.0033027
0.0025653
0.001653
0.0012096
0.0012526
0.00085575
-0.0002484
-0.0017458
-0.0031602
-0.0041536
-0.0044802
-0.0040332
-0.0032707
-0.0024291
-0.0012123
0.00052609
0.0022835
0.003291
0.0034791
0.0032887
0.0026665
0.0016655
0.00083842
0.00014158
-0.0006472
-0.00145
-0.0024998
-0.0038087
-0.004826
-0.0054973
-0.0056924
-0.0052784
-0.0041749
-0.0026284
-0.00060456
0.0014022
0.0024745
0.0025807
0.0022416
0.001622
0.00075263
-0.00016108
-0.000754
-0.00096556
-0.00081762
-0.00056669
-0.00049172
-0.00043499
-0.00036402
-0.00044011
-0.00061412
-0.00078981
-0.0010367
-0.00080955
8.0221e-06
0.0009126
0.0014395
0.0013735
0.00084424
0.00025824
-0.00018715
-0.00067515
-0.0012582
-0.0017398
-0.0020898
-0.0024932
-0.0024483
-0.0017556
-0.0012469
-0.0014374
-0.001865
-0.0021333
-0.0020014
-0.0016058
-0.0016454
-0.002018
-0.0020484
-0.0017632
-0.0013556
-0.00078137
-5.3496e-05
0.00086458
0.0018625
0.002663
0.0029408
0.0025037
0.0013964
0.00027541
-0.00026268
-0.00078466
-0.0017069
-0.0025163
-0.0024486
-0.0012969
0.00054606
0.0023952
0.0035746
0.0035515
0.0024015
0.00081986
-0.00040304
-0.0011234
-0.0013322
-0.00068354
0.00071088
0.0020662
0.0026469
0.0026681
0.0024852
0.0021633
0.00172
0.001262
0.00079202
0.00040532
0.00040211
0.000793
0.0014198
0.0018937
0.0022726
0.0025559
0.002496
0.0018729
0.00054201
-0.0012995
-0.0027718
-0.0033249
-0.0027926
-0.0014349
-6.8762e-05
0.0010411
0.0019012
0.0018838
0.00090233
-0.00033702
-0.00098343
-0.0010363
-0.0010744
-0.00081558
0.00017192
0.0012668
0.0013743
0.0002733
-0.0010342
-0.001716
-0.0016547
-0.00099954
-0.00024304
0.00026264
0.00050703
0.00072035
0.0011971
0.001403
0.00099283
0.00069352
0.0011967
0.0018393
0.0018678
0.0017838
0.002189
0.002603
0.0025428
0.0025532
0.0029914
0.0034414
0.0034552
0.0031474
0.0023081
0.0009749
-0.00077936
-0.0027127
-0.003717
-0.0037465
-0.0035418
-0.0036732
-0.004243
-0.0045505
-0.0040295
-0.0031953
-0.0021105
-0.00078734
0.00013865
0.00018745
-0.0010522
-0.002568
-0.0031847
-0.0026525
-0.0015507
-0.00079405
-0.00077273
-0.0011331
-0.0012616
-0.00080235
-0.00022391
4.6732e-05
0.00029324
0.00059237
0.00065838
0.00043079
0.00020316
0.00028882
0.00085632
0.0014431
0.0015792
0.0014502
0.0016036
0.0019719
0.0021341
0.002127
0.0020394
0.001651
0.00076156
-0.00043679
-0.0010829
-0.00063625
0.00012309
0.00052587
0.00049201
8.3763e-05
-0.00051485
-0.0011116
-0.0016488
-0.0021004
-0.0023965
-0.0022685
-0.0019654
-0.002012
-0.0024657
-0.0030115
-0.0031776
-0.0028541
-0.0019138
-0.00090948
-0.00034867
-9.1161e-05
-0.00014324
-0.00016337
0.00038365
0.0013186
0.001922
0.0017589
0.0010455
0.00050434
0.00078956
0.0013188
0.00094253
-0.00080781
-0.003176
-0.0046743
-0.0049509
-0.0046209
-0.0037051
-0.0022305
-0.0007565
0.00064224
0.0018548
0.0026374
0.0026787
0.0017528
0.00039024
-0.00050606
-0.00059634
-0.00067962
-0.0012274
-0.0018552
-0.0024764
-0.002905
-0.0030589
-0.0032863
-0.0032588
-0.0030016
-0.0026908
-0.0017996
-0.00038498
0.00093643
0.0020445
0.0026483
0.0029142
0.0027786
0.0020673
0.00062293
-0.0010894
-0.0024793
-0.0031594
-0.0028019
-0.0016095
-7.5057e-05
0.0017298
0.0034185
0.0043052
0.004366
0.0038807
0.0030135
0.0019405
0.0010559
0.00035607
-0.00064487
-0.0018199
-0.0027476
-0.0034773
-0.0041682
-0.0044473
-0.0040456
-0.0031874
-0.0023282
-0.0017111
-0.001507
-0.0016562
-0.0016385
-0.001009
-4.6935e-05
0.00052884
0.00029875
-3.7998e-06
0.00029109
0.00081444
0.0014742
0.001748
0.0010129
-0.0002569
-0.0011926
-0.0010912
0.00029708
0.0018796
0.0026147
0.0030777
0.0036388
0.0037417
0.0034542
0.0033298
0.0032233
0.0029765
0.0029406
0.0031759
0.0032304
0.0028846
0.0023715
0.0018334
0.0011275
0.00014909
-0.00095818
-0.0017651
-0.0022001
-0.0018037
-0.00055192
0.00089259
0.0023909
0.0035842
0.0040822
0.0038304
0.0028976
0.0019559
0.0015478
0.0012
0.00074137
0.00051268
0.00042434
0.00036933
0.00041779
0.00017721
-0.00045043
-0.0007385
-0.00043535
0.00021191
0.00068919
0.00059867
0.00032727
0.00052563
0.0011302
0.0012394
0.00030628
-0.0011448
-0.0024877
-0.0034723
-0.0038475
-0.0038583
-0.0036259
-0.003179
-0.0028899
-0.0024042
-0.0012875
2.6145e-05
0.00086142
0.00078763
0.00022074
0.00014371
0.00085727
0.0021857
0.0032671
0.0036151
0.0036208
0.0035931
0.003573
0.0034638
0.0027024
0.001417
0.00038238
-0.00035027
-0.00095441
-0.0014027
-0.0018164
-0.0018993
-0.0010092
0.00072083
0.0023664
0.0030882
0.002635
0.0011606
-0.001069
-0.0034392
-0.0047551
-0.0044414
-0.0032942
-0.0023321
-0.0020378
-0.0023125
-0.0029616
-0.0038624
-0.0043602
-0.0042595
-0.0038861
-0.0030536
-0.00185
-0.00081394
0.00010491
0.0011735
0.0022605
0.0031276
0.0036081
0.0035418
0.0033477
0.0033163
0.0029973
0.0021997
0.0010567
-2.21e-05
-0.00063719
-0.00089545
-0.00072884
-0.00079243
-0.0017377
-0.0030505
-0.0038869
-0.0037062
-0.0027641
-0.0020591
-0.0018198
-0.0013358
-0.00053628
6.1367e-06
0.0002018
0.00049967
0.0011071
0.0018458
0.0021936
0.0023055
0.0024829
0.0020554
0.0011494
0.00052059
0.00021284
-0.00026666
-0.00064145
-0.00072934
-0.00096289
-0.0012478
-0.0016177
-0.0016053
-0.0011295
-0.00047425
9.3374e-05
0.00044245
0.00084515
0.00086959
0.00025417
-0.00030608
-0.00096107
-0.001979
-0.0034358
-0.005078
-0.0062365
-0.0067596
-0.0066103
-0.005883
-0.0047413
-0.0033027
-0.0014675
0.00026606
0.0014681
0.0021346
0.0023716
0.0024809
0.0025223
0.0026252
0.0022352
0.00097835
-0.0001234
-0.0005945
-0.00045187
0.00016779
0.00084128
0.0012483
0.0014989
0.0016816
0.0023508
0.0034276
0.0039051
0.0034146
0.0023682
0.0013578
0.00078379
0.00084135
0.0014464
0.002205
0.0028928
0.002982
0.0020896
0.0004817
-0.0010259
-0.0017913
-0.0019732
-0.0017912
-0.0010561
-0.00015054
0.00030195
0.00020464
-0.00017407
-0.00059919
-0.00088454
-0.0013467
-0.0022351
-0.0034263
-0.0049071
-0.0064442
-0.0073635
-0.0072179
-0.0062652
-0.0058172
-0.0061518
-0.0062777
-0.0054281
-0.0037411
-0.0017705
0.00015885
0.0018705
0.0032974
0.0042488
0.004717
0.0048244
0.0043874
0.0032729
0.0021213
0.0017331
0.0015201
0.00076976
-0.00015914
-0.00057708
0.0002762
0.002388
0.0044305
0.0056546
0.0061098
0.0055165
0.0040868
0.0024325
0.0011986
0.00032802
-0.00060564
-0.0016418
-0.0028586
-0.00361
-0.0036336
-0.0034908
-0.0036319
-0.0037293
-0.0033638
-0.0025051
-0.0011889
0.00036164
0.0014945
0.0017277
0.0017768
0.0023452
0.0028932
0.0026937
0.0019337
0.00096591
-4.758e-07
-0.00064866
-0.00070915
-0.00027502
-0.00020182
-0.00085465
-0.00096854
-0.00012116
0.00029662
0.00011504
-8.2487e-05
-0.0004917
-0.0012982
-0.0020006
-0.0016585
-0.00038804
0.00052575
0.00070402
0.00058782
0.00043728
0.00031623
-0.00014042
-0.0009
-0.0016963
-0.0024896
-0.0031407
-0.0032602
-0.0029524
-0.0024564
-0.0012839
0.00057615
0.0025259
0.0039892
0.0048188
0.0049946
0.0044384
0.0037666
0.0033639
0.0028983
0.0023137
0.001463
-3.3127e-05
-0.0020751
-0.0042764
-0.0059884
-0.006921
-0.0067992
-0.0058027
-0.0045609
-0.0031152
-0.0010975
0.0011655
0.0028581
0.0038044
0.0044263
0.0048134
0.0048945
0.0046155
0.0039904
0.0027318
0.00082161
-0.00066394
-0.0010683
-0.00075802
-0.00062531
-0.0010095
-0.0018187
-0.0027155
-0.00336
-0.0041381
-0.0049817
-0.0048706
-0.0034454
-0.0015254
8.8905e-05
0.0017673
0.0037485
0.0053261
0.005948
0.0057031
0.004882
0.0040047
0.0036904
0.0035184
0.0032782
0.0031153
0.0031683
0.0037269
0.0045477
0.0045924
0.0034224
0.0024757
0.0025524
0.0032344
0.004073
0.0048481
0.0051599
0.0047575
0.0042779
0.0035472
0.0017554
-0.00095842
-0.0032953
-0.0042773
-0.0039256
-0.0028564
-0.0014327
0.00029307
0.0017504
0.002348
0.0027114
0.0034136
0.0039706
0.0041755
0.0041456
0.0036234
0.002747
0.0018787
0.0006362
-0.00064096
-0.00165
-0.0021084
-0.0015723
-0.0010492
-0.0017404
-0.0030274
-0.0038521
-0.0044611
-0.0047034
-0.0046177
-0.0044718
-0.0038369
-0.0028286
-0.0019278
-0.0015984
-0.0021714
-0.0029091
-0.0029786
-0.0021079
-0.00084843
-8.2057e-05
-0.0003329
-0.0011085
-0.0015388
-0.001654
-0.0014604
-0.0011471
-0.0012425
-0.0018248
-0.0023236
-0.0022797
-0.0017908
-0.00097571
-7.3477e-05
0.00061381
0.0010837
0.0018376
0.003047
0.0040906
0.004559
0.0045719
0.0044567
0.0045257
0.004558
0.0045125
0.0048242
0.0052324
0.0053685
0.0053915
0.0053419
0.0048163
0.0037947
0.0027803
0.0022753
0.0017433
0.00038813
-0.0011015
-0.0019009
-0.0025512
-0.0032385
-0.003233
-0.0028566
-0.0027712
-0.0032182
-0.0040539
-0.0048111
-0.004799
-0.0040038
-0.0031911
-0.0025155
-0.0014729
0.00034233
0.0025043
0.0033548
0.0023419
0.00022201
-0.0020454
-0.0036176
-0.0044189
-0.0038837
-0.0022225
-0.00019393
0.0015807
0.002664
0.0032386
0.0032781
0.0026925
0.0019965
0.0020366
0.0025751
0.0025168
0.0017628
0.0011308
0.00081367
0.0004596
1.1669e-05
-0.00057328
-0.00082212
-0.0007553
-0.00091538
-0.0012779
-0.0014551
-0.0012949
-0.00065868
0.0004794
0.0016562
0.0021568
0.0021384
0.0017475
0.00071594
-0.00052795
-0.0013773
-0.0020202
-0.0027215
-0.0033663
-0.003611
-0.0037594
-0.0040721
-0.0041213
-0.0042416
-0.0042772
-0.0035105
-0.0022709
-0.00048736
0.0014538
0.0024392
0.0027357
0.0027597
0.0023819
0.0013831
0.00010263
-0.00099905
-0.0014825
-0.0011826
-0.00108
-0.002077
-0.0038976
-0.0053566
-0.0053653
-0.0036494
-0.0013091
0.00050026
0.0019803
0.003458
0.0048724
0.0056177
0.0047756
0.0023913
0.00014382
-0.00045475
0.00052757
0.001833
0.0019461
0.0013126
0.001082
0.00096453
0.00085092
0.00054621
0.00019803
0.00017232
0.00058989
0.0014989
0.0026833
0.0033461
0.0029992
0.0021524
0.0011519
0.00036681
7.6201e-05
-0.00013488
-0.00075352
-0.0018563
-0.0029524
-0.0035698
-0.0039252
-0.0043163
-0.0047421
-0.0053114
-0.0060321
-0.0063957
-0.005937
-0.0049072
-0.004019
-0.0029238
-0.0010544
0.0011528
0.0026703
0.0028719
0.002162
0.00085772
-0.0010299
-0.0031129
-0.0046803
-0.0053277
-0.0051192
-0.0043146
-0.0031461
-0.0017675
-0.00064333
-0.00018456
-0.00023872
0.00021865
0.0020689
0.0048946
0.0073883
0.0085964
0.0088835
0.0087135
0.0074904
0.0053063
0.0028198
2.88e-05
-0.0027039
-0.0049249
-0.0061341
-0.0065138
-0.0063162
-0.005268
-0.0038801
-0.0026676
-0.0016583
-0.00084795
-0.00012349
0.00041944
0.0010577
0.0020309
0.0029257
0.0033426
0.0033136
0.0029395
0.0024074
0.00204
0.0012672
-0.00050267
-0.0025052
-0.0041149
-0.0050047
-0.0044296
-0.0031369
-0.001958
-0.0010005
-0.00031418
0.00076006
0.0022997
0.0036571
0.0046214
0.0054124
0.0061929
0.0064825
0.0057896
0.0039185
0.001532
-0.00075041
-0.0026405
-0.0032728
-0.0026843
-0.0019429
-0.0012288
-0.00056753
-0.00030451
7.2359e-05
0.0012414
0.0024397
0.0029897
0.0028924
0.0022064
0.0017613
0.001868
0.0015712
0.00051367
-0.00061218
-0.0014492
-0.0021183
-0.002457
-0.0023754
-0.0016219
3.5872e-05
0.0021429
0.0036331
0.0038202
0.0030255
0.0017266
0.00038127
-0.00037188
-0.00045554
0.00013642
0.0010954
0.0019127
0.0023305
0.0022719
0.0018293
0.0010648
3.4112e-05
-0.00088428
-0.0014014
-0.0018208
-0.0022148
-0.0023808
-0.0026065
-0.0029351
-0.0029907
-0.002359
-0.0013496
-0.00086507
-0.00057879
0.0001864
0.0013152
0.0019686
0.0018598
0.0011951
-5.9763e-05
-0.0013592
-0.0024319
-0.0029007
-0.0027761
-0.0026652
-0.0024246
-0.0017325
-0.00071749
0.00029935
0.00074849
0.00051716
-0.0001354
-0.0011565
-0.0023017
-0.0029309
-0.0027364
-0.001611
-0.00010034
0.00077222
0.00061888
-1.8614e-05
-0.00077933
-0.0016786
-0.0024294
-0.0024024
-0.001555
-6.882e-05
0.0017181
0.0034382
0.004997
0.0066017
0.0078128
0.0082734
0.0078759
0.0069732
0.006416
0.0062151
0.0061786
0.0062794
0.0061549
0.005626
0.0045794
0.0032687
0.0020843
0.0011392
3.4951e-05
-0.0010739
-0.0021121
-0.0031307
-0.0038821
-0.0046519
-0.00557
-0.0060668
-0.0056388
-0.0043477
-0.0029105
-0.0013213
0.00044134
0.0013455
0.0010951
0.00075712
0.00084556
0.0011067
0.0012364
0.00081248
-0.00024224
-0.0011908
-0.0016353
-0.0013219
-0.00086643
-0.0010559
-0.0015347
-0.0019299
-0.0020263
-0.0018195
-0.0013833
-0.00061103
0.00061682
0.0021624
0.0039167
0.0055064
0.0067645
0.0075387
0.0073388
0.0056427
0.0027426
0.00013789
-0.001087
-0.0012459
-0.00083883
-0.00025934
-5.7922e-05
-0.00024827
-0.00086972
-0.0025219
-0.0045776
-0.0055953
-0.0051088
-0.0036468
-0.0023647
-0.0018767
-0.0019183
-0.0022488
-0.0032909
-0.0050616
-0.006895
-0.0077797
-0.0074973
-0.0069993
-0.0067146
-0.006432
-0.0056082
-0.0038547
-0.0018302
-0.00048292
0.00015233
0.00093175
0.0024182
0.0037206
0.0041095
0.0043928
0.0048934
0.0048842
0.0042539
0.0034951
0.0032538
0.0038821
0.0047354
0.0046846
0.0035756
0.0023819
0.0014338
0.00023249
-0.0016221
-0.0037394
-0.0053318
-0.0065202
-0.0072642
-0.0072296
-0.0064267
-0.0044788
-0.0018354
0.00050211
0.002481
0.0039966
0.0048595
0.004844
0.004172
0.003003
0.0014964
-8.003e-05
-0.0018603
-0.0038826
-0.0056516
-0.0063124
-0.0058978
-0.0045036
-0.0021954
0.00018998
0.0021648
0.0038502
0.0052418
0.0062709
0.007214
0.0072632
0.0056442
0.002853
-0.00043953
-0.0034287
-0.0054393
-0.006329
-0.0060669
-0.0048501
-0.003034
-0.0014011
-0.0007798
-0.00074032
-0.00062872
5.4654e-05
0.0010386
0.0016409
0.0020528
0.0025422
0.0033596
0.0045225
0.0055426
0.0061347
0.0059107
0.0044421
0.0025496
0.00078527
-0.00077658
-0.0016127
-0.0019042
-0.0022621
-0.0028643
-0.0031495
-0.0025742
-0.0012159
0.00033979
0.0020836
0.004067
0.0061359
0.0085482
0.010128
0.0098239
0.0080327
0.0053828
0.0026462
0.00013591
-0.0020485
-0.0037023
-0.0043009
-0.0039343
-0.0033206
-0.00302
-0.0030787
-0.002672
-0.0017011
-0.00088841
-0.00059503
-0.0010162
-0.0020043
-0.0023814
-0.001912
-0.0013321
-0.0010231
-0.00070946
-0.00030421
3.5772e-05
-1.1596e-05
-0.0006619
-0.0013798
-0.0015247
-0.001509
-0.0019593
-0.0017677
-0.00017765
0.0018077
0.0031755
0.0030988
0.0018659
0.0004372
-0.00027614
-9.9119e-05
0.0003322
0.00078017
0.0015926
0.002378
0.0025435
0.0019383
0.0005322
-0.0013387
-0.0028335
-0.0032354
-0.0027874
-0.0021535
-0.0013699
-0.00015201
0.0019129
0.0044529
0.0059783
0.0058763
0.0049923
0.0042476
0.0032269
0.0013475
-0.00069336
-0.0020753
-0.0029371
-0.0033277
-0.003556
-0.0037347
-0.0032852
-0.0025883
-0.0022227
-0.0015824
6.4399e-06
0.0021212
0.0039023
0.0043948
0.0032644
0.0014672
-2.9145e-06
-0.00058489
-0.00062479
-0.00065158
-0.00068369
-0.00011118
0.00079953
0.0011184
0.00096676
0.0006057
0.00034032
0.00080588
0.0014643
0.0014127
0.00066515
-0.00050734
-0.0017569
-0.0024918
-0.0028231
-0.0029105
-0.0024315
-0.0016096
-0.00071174
0.00017725
0.00095268
0.0013078
0.0012004
0.00084227
0.00039108
-0.00018261
-0.00073548
-0.00057147
0.00026285
0.00084768
0.00044982
-0.00087712
-0.0023703
-0.0033694
-0.0034707
-0.0027405
-0.0013143
0.0002947
0.0015562
0.0025213
0.0031871
0.0034104
0.0032445
0.0031596
0.0031045
0.0023597
0.0012943
0.00036419
-0.00033048
-0.00056612
-0.00036332
-6.4687e-05
0.00035255
0.0011633
0.0016357
0.001351
0.00060847
-0.00041399
-0.0014762
-0.0019028
-0.0015428
-0.0010338
-0.00050346
0.00081196
0.0028193
0.0039324
0.0031502
0.0013497
3.9128e-05
-0.000415
-0.00097975
-0.0024166
-0.0037477
-0.004275
-0.0047309
-0.0058446
-0.0071276
-0.007661
-0.0074392
-0.0063591
-0.004746
-0.0030017
-0.0011727
0.00062897
0.0017729
0.0021577
0.0027306
0.003714
0.0038783
0.0022436
-0.00036365
-0.0025386
-0.0031809
-0.002032
-0.00025736
0.001668
0.0035996
0.0054634
0.0071325
0.0076356
0.0070012
0.0056955
0.0033445
0.00044077
-0.0016415
-0.0022082
-0.0016047
-0.00073587
-0.0002878
-0.00049468
-0.00075466
-0.00089718
-0.001656
-0.0029171
-0.0041125
-0.0051775
-0.0058891
-0.0059633
-0.0058328
-0.0061413
-0.0061802
-0.0051008
-0.0030373
-0.00077339
0.0011116
0.0028125
0.0047727
0.006058
0.0058817
0.0049484
0.0037963
0.0020867
-0.00028325
-0.0021249
-0.002767
-0.002602
-0.0020408
-0.001161
0.00021589
0.001852
0.0032943
0.0044681
0.0051076
0.0049482
0.0043091
0.0034564
0.0027096
0.0023224
0.0019864
0.0014932
0.00058717
-0.00067658
-0.0013519
-0.0010636
-0.00055762
-6.9224e-05
0.0010379
0.0026309
0.0032844
0.0025746
0.0016192
0.0013405
0.0011569
0.00032135
-0.00046506
-0.00078755
-0.00084741
-0.00073045
-0.00089812
-0.0016769
-0.0025069
-0.0026544
-0.0021353
-0.0018111
-0.0021107
-0.0025722
-0.0027077
-0.0028478
-0.0035283
-0.0041717
-0.0037138
-0.0023172
-0.00076428
0.00078187
0.0025644
0.0039164
0.0044008
0.0041251
0.0027445
0.00064581
-0.0013702
-0.0029523
-0.0042675
-0.0053639
-0.0059834
-0.0055764
-0.0040229
-0.0020053
-0.0001877
0.0011834
0.0021924
0.0027584
0.0029509
0.0027963
0.0023468
0.0014921
0.00036207
-0.00039849
-0.00064079
-0.00038836
0.00014814
0.00054996
0.00038951
-0.00017698
-0.00038673
-5.4873e-05
0.00068757
0.0014951
0.002189
0.0028345
0.0036492
0.0047848
0.0061328
0.0072453
0.0075007
0.0069063
0.0053376
0.0032451
0.00094316
-0.001238
-0.0024639
-0.0027447
-0.0031944
-0.0038638
-0.0042245
-0.0043756
-0.0041533
-0.0034825
-0.002218
-0.00056041
0.00099236
0.0023983
0.0030798
0.0028774
0.0022419
0.0017586
0.0015425
0.0013263
0.00059395
-0.00043193
-0.00095512
-0.0011707
-0.001389
-0.0014691
-0.0012995
-0.0013515
-0.0016856
-0.0012737
-2.95e-05
0.0012027
0.0018286
0.0017613
0.0012231
0.00099182
0.00090238
0.00072144
0.00093439
0.0010482
0.00066461
0.00046523
0.00058519
0.00063423
0.00050448
0.00010659
-0.00037176
-0.00083194
-0.0011185
-0.0011024
-0.00076424
-0.00019623
0.00062023
0.0017029
0.0025236
0.0027799
0.0029287
0.0027227
0.001605
0.00012287
-0.0010118
-0.0018115
-0.0020974
-0.0021453
-0.0021334
-0.0017473
-0.0012831
-0.0012616
-0.0013438
-0.00088502
-0.00020907
0.00038808
0.00075428
0.00070711
0.0003624
0.00020418
0.00048767
0.00052012
0.00032991
0.00024823
0.00022008
0.00037361
0.00067466
0.00097104
0.0012557
0.0012523
0.00065589
0.0001431
0.00011639
0.0004582
0.001127
0.0020032
0.0029356
0.0034236
0.0030639
0.0018366
0.00046276
-0.00076014
-0.0016891
-0.0017085
-0.0010881
-0.00042795
4.2949e-05
0.00031164
0.00035285
0.00029656
0.00049017
0.0011801
0.0020525
0.0024761
0.002195
0.0013427
0.00036037
-0.00022524
-0.00032575
-0.0002009
-4.8116e-05
-0.00011154
-0.00031426
-0.00064837
-0.00099982
-0.0011028
-0.0012077
-0.0017547
-0.002249
-0.0025371
-0.0023795
-0.0014446
-0.00063647
-0.00013424
6.4765e-05
-0.00044185
-0.0010524
-0.0014456
-0.0018907
-0.0022183
-0.0020374
-0.0012385
-0.00012599
0.0011176
0.0022692
0.003185
0.0038537
0.0039283
0.0035102
0.0029613
0.0021276
0.0011805
0.00067961
0.00093188
0.0016265
0.0023893
0.0030225
0.0033192
0.0029959
0.0018161
0.00051968
-0.00018521
-0.00042442
-0.00041749
-0.0002643
-0.00035071
-0.00017039
0.00064113
0.0015224
0.0024669
0.0030282
0.0030562
0.0033748
0.0036691
0.0030906
0.0018223
0.00033925
-0.00082665
-0.0014134
-0.0016148
-0.001535
-0.0012586
-0.00083179
-0.00045985
-0.0001438
7.7103e-05
-0.00014454
-0.0004965
-0.00035162
0.00020226
0.0010377
0.0015513
0.0014016
0.00081826
-0.00020538
-0.0013384
-0.0017103
-0.0012021
-0.00074121
-0.0009499
-0.0014624
-0.00212
-0.0027158
-0.0028356
-0.0024656
-0.0018139
-0.0010431
-0.00030917
0.00025424
0.00049345
0.00036669
-6.4215e-05
-0.0005155
-0.00045408
-5.427e-05
0.00025419
0.00034529
-2.8958e-06
-0.00045951
-0.00070483
-0.0007888
-0.00047322
0.00039494
0.0013583
0.0019043
0.0015577
0.00044798
-0.00051607
-0.00075555
-0.000686
-0.00044527
-1.1462e-05
-2.3484e-05
-0.00040375
-0.00038692
-0.00058328
-0.0014427
-0.0022025
-0.0026308
-0.0028398
-0.0027969
-0.0025657
-0.0023937
-0.0018932
-0.00082128
2.5776e-05
0.00030479
0.00061356
0.0013759
0.0020736
0.0020439
0.0015158
0.00070871
-0.00050803
-0.0018567
-0.0027946
-0.0031376
-0.0029911
-0.0028255
-0.0027429
-0.0025805
-0.0024198
-0.0019989
-0.0015135
-0.0012761
-0.00083552
2.7714e-05
0.0011543
0.0019203
0.0019117
0.0013848
0.00057036
-9.2985e-06
-2.8162e-05
0.00029277
0.00091471
0.0017786
0.00216
0.0018266
0.0011218
0.00062459
0.00068404
0.00066931
0.00037054
6.9777e-05
4.6505e-05
0.00026632
0.00020797
-6.2197e-05
0.00019038
0.0012348
0.0025104
0.0031828
0.0032236
0.0031808
0.0030911
0.0027294
0.0020692
0.0012326
0.00052863
3.7869e-05
-0.0004011
-0.00090837
-0.0010935
-0.0001987
0.0011156
0.0015958
0.0011561
0.00052536
-5.4887e-06
-0.00052153
-0.00082659
-0.00081492
-0.0010303
-0.0015523
-0.0020608
-0.0025108
-0.0029372
-0.0029285
-0.0023272
-0.0016586
-0.0010623
-0.00079104
-0.00073051
-0.0007911
-0.00091801
-0.00091171
-0.00069398
-0.00026835
0.000276
0.00058124
5.0682e-05
-0.00092805
-0.0015117
-0.0012338
-0.00071284
-0.00035131
0.00043671
0.0015986
0.00277
0.0036843
0.0040133
0.0038666
0.0037249
0.003855
0.0040878
0.0037723
0.0031275
0.0026445
0.0023464
0.0021256
0.0018452
0.0015126
0.0014227
0.0015633
0.0014907
0.00098421
0.0004546
0.00019406
-0.00019675
-0.0008523
-0.001197
-0.0010707
-0.00048145
0.00047327
0.0012798
0.001503
0.0015914
0.0018053
0.0014427
0.00056147
-0.00033001
-0.0013527
-0.0026142
-0.0036096
-0.0041517
-0.0047127
-0.0046891
-0.0035954
-0.0021045
-0.00054915
0.0010793
0.0024287
0.0028313
0.0022455
0.0014217
0.0010217
0.0010435
0.00080765
-0.00012228
-0.00087158
-0.00097241
-0.00070923
-0.00048169
-0.00015599
0.00040557
0.0009942
0.0015596
0.0018524
0.0017718
0.0019874
0.0023105
0.0022126
0.00155
0.00037396
-0.00070298
-0.0011115
-0.001226
-0.00099588
-0.00026191
0.00043241
0.0010808
0.0013106
0.00061205
-0.00054549
-0.0013714
-0.0012132
-0.00088213
-0.00057735
0.00022662
0.00079272
0.00034159
-0.00073382
-0.0021297
-0.0031552
-0.0036008
-0.0033812
-0.0025869
-0.0014931
-0.00034814
0.00056902
0.0011363
0.0011789
0.00069692
4.5281e-06
-0.00079962
-0.0013717
-0.0014339
-0.00082186
-8.0979e-05
0.00033668
0.00080714
0.0012571
0.0012951
0.00086999
0.00059169
0.00063614
0.00035489
-0.00020869
-0.0010831
-0.0021736
-0.0030548
-0.0036213
-0.0037172
-0.0028663
-0.0014706
-0.00016894
0.0013139
0.002752
0.0035512
0.0037033
0.0033652
0.0024058
0.00079911
-0.0010028
-0.0024553
-0.0033883
-0.0037552
-0.0037088
-0.0035634
-0.0035872
-0.003392
-0.0024281
-0.00093513
0.00035925
0.0012493
0.0018101
0.0018505
0.0015613
0.0013215
0.0010629
0.00042465
-0.00057185
-0.0012809
-0.001281
-0.00073796
-0.00010555
0.00037876
0.00020802
-0.00037129
-0.00058896
-0.00033915
-0.00017677
-0.00024427
-0.00023653
-7.6216e-05
0.00023727
0.00029485
4.8459e-05
-1.9588e-06
5.944e-05
8.9572e-05
0.00011412
0.00032285
0.001116
0.0021699
0.0026439
0.0023539
0.0016265
0.00062711
-4.9246e-05
-0.00012074
0.00019731
0.0010725
0.0020783
0.0024306
0.0019848
0.0013102
0.00053444
-0.00031116
-0.00062227
-0.00034076
1.8483e-05
0.00019522
0.00020859
0.00017435
-0.00020793
-0.00087377
-0.001166
-0.00086119
-0.00017787
0.00034127
0.00040031
0.00046774
0.0011794
0.0023696
0.0027131
0.001824
0.00091535
0.00039757
0.00012226
-2.2196e-06
-7.8753e-05
-8.2484e-05
-0.00037881
-0.0010278
-0.0018752
-0.0025251
-0.0021201
-0.0010123
-0.00025
5.578e-05
0.00031997
0.00058363
0.00062722
0.00043556
0.00031388
0.00045166
0.0006345
0.00052642
7.6796e-05
6.5913e-05
0.00068599
0.0011555
0.0010898
0.00053599
-0.00055208
-0.002022
-0.0034348
-0.0044021
-0.0047653
-0.0044871
-0.0038252
-0.0031683
-0.0028632
-0.0027852
-0.0024551
-0.0020897
-0.0015914
-0.0010434
-0.00026823
0.0010677
0.0021589
0.0018765
0.00060543
-0.00073079
-0.0016466
-0.0020102
-0.0018962
-0.0012127
-0.00018968
0.00048849
0.00031826
-0.00025947
-0.00056353
-0.00060691
-0.00046512
-0.00025235
0.00016327
0.00053922
0.00034075
-6.6674e-05
-0.00041026
-0.00075851
-0.0011581
-0.0014968
-0.0015853
-0.001589
-0.0012043
-0.00013155
0.00096395
0.0015515
0.001448
0.00054055
-0.00073225
-0.0014093
-0.0012061
-0.00065688
-0.00028989
-6.0785e-05
7.9901e-05
0.00030243
0.00048098
0.00065972
0.0013013
0.0023187
0.0034378
0.0041151
0.0040591
0.0032938
0.002151
0.0013428
0.00075594
0.00019667
6.0733e-05
0.00018688
0.00019936
0.0002222
0.00034825
0.00059746
0.00090829
0.00094562
0.00073004
0.0003207
-5.2126e-05
-0.00022682
-0.00023472
1.8966e-05
0.00040174
0.0007001
0.00080453
0.0010588
0.0017234
0.0023956
0.0027989
0.0030487
0.0029955
0.0024498
0.0013637
-0.00010491
-0.0016373
-0.002734
-0.0031819
-0.0036968
-0.0045213
-0.0048813
-0.0044971
-0.0034188
-0.0022261
-0.0014765
-0.00096923
-0.00037969
0.0002282
9.6665e-05
-0.00079475
-0.0015064
-0.0013895
-0.00068146
2.9363e-05
0.00030272
0.00028735
8.5785e-05
-0.00032521
-0.00090785
-0.0010356
-4.7991e-05
0.0014456
0.0025276
0.0028204
0.0024249
0.0018097
0.0015794
0.0018112
0.0016969
0.0012284
0.0010168
0.00088432
0.00062974
0.00034603
2.4852e-05
-0.00028542
-0.00033594
-0.00026172
-4.887e-05
0.00036242
0.00093747
0.0015986
0.0020501
0.0018938
0.00098312
-0.00010527
-0.00061982
-0.00041236
-1.3676e-05
1.2157e-05
-0.00020652
-0.00050611
-0.0009448
-0.0013043
-0.0016134
-0.0019208
-0.0018685
-0.0013014
-0.00044689
0.00023817
0.00086263
0.0014
0.0012735
0.00090006
0.00095457
0.0013732
0.0019
0.001926
0.0014677
0.001321
0.0017063
0.0022245
0.0022306
0.0015021
0.00047094
-0.0004192
-0.00074307
-0.00019309
0.00084749
0.0020081
0.0031351
0.0040461
0.0040092
0.0030723
0.002099
0.0014797
0.00098421
0.00083675
0.0010665
0.0012855
0.0011997
0.00071657
0.000267
0.00017367
0.00011866
-5.0356e-05
-2.0301e-05
0.0003842
0.00081186
0.00093768
0.00096982
0.0008581
0.00032394
-0.00071876
-0.0018991
-0.0025996
-0.0027325
-0.0025602
-0.0022282
-0.0017559
-0.0013765
-0.0013063
-0.0011952
-0.00063941
9.4739e-05
0.00068202
0.0011586
0.001497
0.0016623
0.0016129
0.001542
0.0016136
0.0016926
0.0018347
0.0019486
0.001935
0.0020094
0.0023302
0.002567
0.0025205
0.0022535
0.0017095
0.00088254
-6.0087e-05
-0.00087874
-0.0013123
-0.0011286
-0.00060517
3.8162e-05
0.00078309
0.0013556
0.0016881
0.001571
0.0009884
0.00051483
0.00041116
0.0001806
-0.00013511
-0.00021579
-0.00032946
-0.00048433
-0.0006891
-0.0012605
-0.0021021
-0.0027073
-0.003051
-0.0030245
-0.0023097
-0.0013225
-0.00040293
0.00018605
0.00011437
-0.00036055
-0.00063351
-0.00075506
-0.0010938
-0.0013074
-0.0013032
-0.001327
-0.001289
-0.0011407
-0.0012063
-0.001138
-0.00074849
-0.00028711
0.00020775
0.00053465
0.000535
0.0002692
-0.00015135
-0.00058991
-0.00087205
-0.00095887
-0.00097752
-0.00089668
-0.00058015
-0.00020446
-5.6348e-05
-0.00013679
-0.00015846
0.00023189
0.00061048
0.00040229
0.00012273
0.00027458
0.0005601
0.00052758
0.00016886
-0.00010799
-0.0004259
-0.0011914
-0.00211
-0.002618
-0.0023265
-0.0015116
-0.00091187
-0.00071978
-0.00074332
-0.00082617
-0.0010631
-0.0014472
-0.0016699
-0.001437
-0.00077478
-2.2042e-05
0.00032242
0.00012785
-0.00032915
-0.00075746
-0.0011217
-0.001369
-0.0012585
-0.00094713
-0.00078074
-0.00059403
-0.00020146
0.00012982
0.00038874
0.00039423
-4.0998e-05
-0.00028834
-0.00042809
-0.00091836
-0.0011421
-0.00058201
0.00034367
0.00099761
0.00098375
0.00029329
-0.00043606
-0.00091668
-0.0013256
-0.0015159
-0.0013165
-0.00070371
-1.1116e-05
0.00013261
-0.00027797
-0.00073525
-0.00092191
-0.00064419
4.6851e-06
0.00083026
0.001577
0.001766
0.0010352
-0.00040047
-0.0016373
-0.0019386
-0.0013998
-0.00050627
0.00037345
0.00092106
0.001135
0.0010222
0.00041214
-0.00034179
-0.00054167
0.00013434
0.0011609
0.0018023
0.0021243
0.0022582
0.001926
0.0012023
0.00035576
-0.00027241
-0.00038495
-0.00018958
-1.4765e-05
0.00019949
0.00018219
-0.00039025
-0.0011746
-0.0015774
-0.0017336
-0.0018943
-0.0020361
-0.0020124
-0.0016739
-0.0011105
-0.00067863
-0.00055896
-0.00051122
-0.00040938
4.7528e-05
0.0010223
0.0020335
0.0026316
0.0028087
0.0026389
0.0020666
0.0015232
0.0012624
0.0011335
0.0010059
0.00094448
0.0012178
0.0019243
0.0026272
0.0029492
0.002619
0.0016735
0.00056838
-0.00024317
-0.0006171
-0.00058616
-0.00049055
-0.00053486
-0.00052325
-0.00039654
-0.00050401
-0.00090015
-0.0014115
-0.0016415
-0.0014663
-0.0013021
-0.00081213
0.00010302
0.00089762
0.0011149
0.0010136
0.00068371
0.00011577
-0.00046067
-0.0010514
-0.0015404
-0.0017773
-0.0017917
-0.001593
-0.0010277
-0.00040681
-0.00033043
-0.00072229
-0.001163
-0.0014106
-0.0013992
-0.0013665
-0.0013739
-0.0012385
-0.0012104
-0.0013487
-0.0012457
-0.000757
9.9873e-05
0.00094018
0.0011084
0.00071454
0.0003638
-7.8607e-06
-0.00070046
-0.0012891
-0.0014904
-0.0014733
-0.0013775
-0.001471
-0.0019681
-0.0024017
-0.0022278
-0.0016415
-0.0009248
-0.00039131
-0.00022916
-0.00011021
1.586e-05
-4.5293e-05
-5.208e-05
0.00026092
0.00067797
0.00095421
0.00091941
0.0005651
0.00035629
0.00042227
0.00043246
0.00029681
0.00014611
-0.000128
-0.0003923
-0.00061386
-0.00092119
-0.0010227
-0.00071772
-0.00032739
-0.00022578
-0.00026189
-0.00023413
-0.00023658
-0.00014421
0.0001056
0.00030714
0.00054026
0.00059494
4.2005e-05
-0.00068437
-0.0011976
-0.0014878
-0.0014803
-0.0012361
-0.00091581
-0.00080054
-0.00064789
-0.00068076
-0.0010054
-0.001013
-0.00044617
0.00030604
0.00082226
0.0011441
0.0013559
0.001445
0.0013747
0.0010363
0.00061559
0.00054516
0.00084564
0.001188
0.0013668
0.0015182
0.0019001
0.0021764
0.0020253
0.0019196
0.002121
0.0023812
0.0024853
0.0024487
0.0024412
0.002602
0.0027035
0.0023442
0.0016268
0.00069237
-0.00012202
-0.00029225
0.00031914
0.0011875
0.0018787
0.0021497
0.001658
0.00063808
-0.00041902
-0.0013933
-0.0022212
-0.0024244
-0.0020677
-0.0014367
-0.00052304
2.2853e-05
-0.00020442
-0.00065504
-0.00090749
-0.00094759
-0.00085385
-0.00062082
-0.00016311
0.00046517
0.0010214
0.0011408
0.001058
0.0012004
0.0015051
0.0016912
0.0015808
0.0012874
0.0010505
0.0008199
0.00038785
6.7891e-06
4.2137e-06
9.6713e-05
5.3934e-05
2.8648e-05
0.00029354
0.00097618
0.0018291
0.0025363
0.0028673
0.0029292
0.0025495
0.0015833
0.00070488
0.00034524
0.0003243
0.0003772
0.00053446
0.00054441
0.00038492
0.00017027
-0.00026351
-0.00053512
-0.00037602
5.7666e-05
0.00052108
0.00076684
0.00046902
-0.00038073
-0.0012782
-0.0020332
-0.0025625
-0.0025541
-0.0021679
-0.0017438
-0.001658
-0.001879
-0.0020607
-0.0019899
-0.0018014
-0.001456
-0.00081955
8.9197e-05
0.00087111
0.0011101
0.00081139
0.00032334
-6.6615e-05
-7.6714e-05
0.00027202
0.00054386
0.00064763
0.00062732
0.00052643
0.00043404
0.00028844
9.3616e-05
2.7583e-05
-0.00015976
-0.00048828
-0.00046886
-0.00025415
-0.00012263
0.00019595
0.00067611
0.00083337
0.00085109
0.00090432
0.00065168
1.1919e-05
-0.00068136
-0.0010194
-0.00079673
-0.00033003
-3.0286e-05
0.00022719
0.00056265
0.00070221
0.00085524
0.0010341
0.0013251
0.0018142
0.0017325
0.00097109
0.0003552
0.00029572
0.00032838
0.00021924
0.00020726
0.00019433
0.00030649
0.00057392
0.00060258
0.00042676
0.00039377
0.00031848
-0.0001065
-0.00048626
-0.00050854
-0.00030939
-7.3064e-05
-1.5396e-05
-9.1968e-05
-0.00015515
-7.2128e-05
-7.9232e-05
-0.00025623
-0.0005738
-0.00082948
-0.00069959
-0.00035105
-0.00015402
-0.00023408
-0.0004855
-0.00055658
-0.00045213
-0.0004451
-0.00057591
-0.00064165
-0.00061193
-0.00066977
-0.00068409
-0.00057308
-0.00035138
0.00016185
0.00075546
0.0010262
0.00088513
0.00022753
-0.00053329
-0.00087483
-0.0010899
-0.0011835
-0.00062796
7.1809e-05
0.00023002
5.4048e-05
-7.7128e-05
-4.9896e-05
0.00020772
0.00037096
0.00017217
-0.00018413
-0.00048311
-0.00057114
-0.00043775
-0.00033361
-0.00059992
-0.0011475
-0.0014905
-0.0013353
-0.00090565
-0.00059457
-0.00046915
-0.00061208
-0.00082763
-0.00051896
-0.00037716
-0.0009054
-0.0016909
-0.002452
-0.0029051
-0.0028997
-0.0026418
-0.0022156
-0.001616
-0.0010565
-0.00067179
-0.00049167
-0.00042509
-0.00033153
3.9171e-05
0.00064509
0.00096579
0.00088863
0.00078013
0.00067938
0.0003882
5.1077e-05
-0.000136
-8.2703e-05
2.6667e-05
-0.00034438
-0.0011153
-0.0015478
-0.0015705
-0.0015371
-0.0015327
-0.0013608
-0.00073122
0.00011515
0.00072965
0.00096629
0.0010786
0.001199
0.0011506
0.0010193
0.00105
0.0010722
0.00094568
0.00094294
0.00090324
0.00074165
0.00062677
0.00062612
0.00070119
0.0006626
0.00041314
0.00015334
-5.6715e-05
-0.00021621
-0.00030825
-0.00036254
-0.00028147
-0.00014885
-8.4046e-05
-0.00014736
-0.00030275
-0.00039881
-0.00044653
-0.00056192
-0.00067628
-0.00065225
-0.0005479
-0.000394
-0.00017914
9.1387e-05
0.00039542
0.00053613
0.0003391
-8.8114e-05
-0.00037209
-0.00047629
-0.00054539
-0.00044004
-0.00032247
-0.00037976
-0.00038095
-0.00030169
-0.00031057
-0.00021542
-5.2279e-06
0.00021457
0.00044257
0.00061377
0.00066053
0.00072654
0.00089627
0.0010868
0.0012129
0.0012631
0.0012102
0.0011282
0.0010173
0.00080434
0.00082937
0.001329
0.0019329
0.0023668
0.0026545
0.0026499
0.0026316
0.0026732
0.0024027
0.0018419
0.0011641
0.00048286
-5.6299e-05
-0.00045091
-0.00070636
-0.00069829
-0.00049702
-0.00037614
-0.0003744
-0.00034166
-0.00031452
-0.0003504
-0.00050121
-0.00089075
-0.0014881
-0.0020943
-0.0023272
-0.0019872
-0.0014174
-0.0010217
-0.00070243
-0.00024937
0.0002776
0.00056041
0.00050116
0.00021131
-0.00016138
-0.00023885
9.8142e-05
0.00032591
0.00025205
7.492e-05
-0.00033483
-0.001017
-0.0016243
-0.002042
-0.0021808
-0.0022159
-0.0024888
-0.002576
-0.0022041
-0.0018847
-0.001739
-0.0014702
-0.0011439
-0.00084279
-0.00053268
-0.00040185
-0.00056419
-0.0007596
-0.00070702
-0.00045512
-0.00031038
-0.00041932
-0.00063517
-0.00064839
-0.0005192
-0.00034062
-0.00011462
0.00013944
0.0002034
-0.00020545
-0.00075177
-0.0009492
-0.00081018
-0.00067507
-0.00074399
-0.00075942
-0.00062046
-0.00044479
-0.00043041
-0.00057615
-0.00079585
-0.00087668
-0.0005442
-0.00014627
-4.3629e-05
2.5104e-05
0.00036742
0.00063287
0.00071931
0.00073842
0.00077859
0.00088464
0.00058347
0.00016307
4.8762e-05
0.00040956
0.0011537
0.0016036
0.0016238
0.0013188
0.0007401
-4.3929e-05
-0.0008715
-0.0016664
-0.0022929
-0.0025949
-0.0026036
-0.0021395
-0.0012397
-0.00036165
0.00048406
0.0010358
0.0011069
0.0010486
0.0010247
0.00081333
0.00036289
-0.00014942
-0.00061511
-0.00092457
-0.0012488
-0.0015541
-0.0016421
-0.0016
-0.0016721
-0.0021387
-0.0025993
-0.002546
-0.0021246
-0.0017846
-0.0016007
-0.0015359
-0.001475
-0.0011723
-0.00081719
-0.00055667
-0.00034565
-0.00012216
0.00017993
0.0004906
0.00073935
0.0009729
0.001199
0.0012655
0.0011019
0.00083985
0.00051416
0.00019708
0.00010028
0.00023031
0.00039543
0.00047277
0.00049336
0.00035904
0.00011445
-0.00013777
-0.00031374
-0.00043311
-0.00055373
-0.00070126
-0.00085595
-0.00086532
-0.00077526
-0.00056969
-0.00026596
-0.0001365
0.00010221
0.00041966
0.00068135
0.00089267
0.00084955
0.00077263
0.00093782
0.001253
0.0016904
0.0022423
0.0024378
0.0019443
0.0011705
0.00065412
0.0002699
1.2413e-06
-0.00013347
-0.00025162
-0.00029972
-0.00027784
-0.00034315
-0.00044793
-0.00042694
-9.0493e-05
0.00033491
0.00076237
0.0010288
0.0011341
0.0012143
0.0010821
0.00075562
0.00029273
-0.00022092
-0.00045643
-0.00044725
-0.00030685
-9.5521e-05
7.7077e-05
0.00015983
0.0001526
-7.6508e-05
-0.00041873
-0.00060047
-0.00038058
-0.0001126
-3.9944e-05
-0.000254
-0.00053364
-0.00067203
-0.00063326
-0.00057359
-0.0006124
-0.0005631
-0.00017984
0.00017622
0.00028514
0.00029832
0.00037339
0.00046907
0.00043302
0.00025028
4.7161e-06
-0.00019938
-0.00011867
0.00022476
0.00049345
0.00045167
0.00022247
-2.921e-05
-0.0001435
-0.00018326
-0.00035205
-0.00061306
-0.0006184
-0.00026183
0.00019769
0.00047744
0.00054838
0.00076214
0.0010655
0.0010581
0.00061559
8.1399e-05
-0.00042379
-0.00055103
-5.4236e-05
0.00053205
0.0010499
0.0016151
0.0021384
0.0024871
0.0026634
0.002533
0.0021789
0.0017782
0.0014019
0.0010602
0.00068634
0.00023964
-0.00033637
-0.00098498
-0.0017398
-0.0024981
-0.0031708
-0.0038083
-0.0041669
-0.0041816
-0.0037882
-0.0032171
-0.002717
-0.0023059
-0.0021076
-0.0019755
-0.0019444
-0.0018424
-0.0014006
-0.0008051
-0.00045396
-0.00045825
-0.00038585
-0.00039434
-0.00040756
-0.00030207
-0.00032161
-0.0005031
-0.00062355
-0.00046661
-0.00023188
-0.00010541
8.3281e-05
0.00032048
0.00044401
0.00066252
0.0011139
0.001664
0.0020422
0.0020441
0.0017976
0.0014309
0.00094529
0.00046557
2.4994e-05
-0.00031796
-0.00056587
-0.00093429
-0.0015347
-0.0023524
-0.0031534
-0.0036677
-0.0038628
-0.0037347
-0.0032843
-0.0024585
-0.0013994
-0.00099388
-0.0012063
-0.0012838
-0.0010365
-0.00048357
-2.3081e-05
-9.5456e-05
-0.0005819
-0.0010004
-0.0012676
-0.0013687
-0.0012879
-0.0010592
-0.00055122
-0.0001933
-0.0002258
-1.6712e-05
0.0002219
0.00025757
0.00022328
7.2737e-06
-0.00018479
-0.00017331
-0.00024377
-0.00046249
-0.00058407
-0.00049981
-0.00035699
-0.00019623
2.7149e-05
0.00015127
0.00020218
0.00025265
0.00039775
0.00073691
0.00098626
0.00092896
0.00049798
-0.00019841
-0.00064049
-0.00066448
-0.00055226
-0.00027578
0.00014391
0.00048997
0.00079292
0.00091314
0.00083734
0.00061842
0.000366
0.00042745
0.00087172
0.0013367
0.0013174
0.00091544
0.00066131
0.00083229
0.0011406
0.0011136
0.0010378
0.0010944
0.0010846
0.00086299
0.00057171
0.00032041
0.00013662
8.7348e-05
0.00015556
0.00022564
0.00029823
0.00033745
0.00020692
-0.00020994
-0.00082703
-0.0010446
-0.00073854
-0.00037401
-5.2661e-05
0.0003485
0.00080761
0.00098585
0.00083231
0.00053176
0.00022643
0.00014272
0.00073472
0.0016918
0.0023001
0.002471
0.002139
0.0015283
0.0007775
1.2688e-05
-0.00052882
-0.00090441
-0.00086495
-0.00027937
0.00030155
0.00059467
0.00075427
0.00073291
0.0006458
0.00067749
0.00069246
0.00058558
0.00035083
0.00017299
8.0872e-05
-0.0001306
-0.00062189
-0.0012215
-0.0016106
-0.0017528
-0.001523
-0.0010055
-0.00034139
0.00037737
0.00094928
0.0011303
0.00091115
0.0006081
0.00043188
0.00019687
-0.00028275
-0.00095746
-0.0014825
-0.0016217
-0.0015883
-0.001396
-0.00087676
-0.00024938
0.00017228
0.00042391
0.00050848
0.00033798
0.00020139
5.7504e-05
-0.00014977
-0.00038182
-0.0006085
-0.00077405
-0.00083897
-0.00078106
-0.00066992
-0.00064002
-0.00064493
-0.00072763
-0.00089094
-0.00097803
-0.00091133
-0.00073758
-0.00053882
-0.00032583
-0.00019857
-0.00020494
-0.00032622
-0.00053812
-0.00078322
-0.00081943
-0.00067311
-0.00053586
-0.00039831
-0.00029117
-0.00025331
-0.0003038
-0.00040513
-0.00050258
-0.00063361
-0.00084656
-0.0010114
-0.00099478
-0.00086749
-0.00055234
-0.00030893
-0.00041045
-0.00072386
-0.00093524
-0.0009073
-0.00087699
-0.0008178
-0.00077881
-0.00068903
-0.00057129
-0.00062399
-0.00080917
-0.0010694
-0.0012451
-0.001383
-0.0015197
-0.0016316
-0.0018566
-0.0019622
-0.0017041
-0.0012831
-0.00088327
-0.0005658
-0.00021888
6.8161e-05
0.00017763
0.00024227
0.0001343
3.9575e-05
0.00034508
0.00074777
0.00096718
0.0010883
0.001311
0.0016049
0.0017922
0.0018391
0.0017018
0.0013374
0.00078163
0.00019468
-0.00025802
-0.00056031
-0.00077578
-0.00091355
-0.0010508
-0.00126
-0.001503
-0.001769
-0.0018018
-0.0013629
-0.00082909
-0.00070846
-0.00059437
-0.00029637
-0.00012328
2.922e-05
-1.2332e-05
-0.000187
9.2275e-05
0.00057611
0.00064023
0.00032053
-0.00020471
-0.00069905
-0.0010133
-0.0011995
-0.0012024
-0.0010885
-0.00073492
-0.00036316
-0.00014314
5.8333e-05
0.00018324
0.00030567
0.00041585
0.00048019
0.00040456
8.5909e-05
-9.4917e-05
-6.336e-05
5.7319e-06
0.00014378
0.00036747
0.00049351
0.00048036
0.00025013
-3.5989e-05
-0.00027929
-0.0003854
-0.00025488
-0.00010772
-2.7057e-06
0.00014185
0.00034423
0.00057113
0.00081305
0.0010214
0.0011433
0.001462
0.0019163
0.0021473
0.0021142
0.0018943
0.0013879
0.00057748
-0.00025773
-0.00076876
-0.00077883
-0.00037503
0.00018059
0.00062822
0.00084281
0.00072706
0.00019554
-0.00045879
-0.00085016
-0.00089816
-0.00071257
-0.00054989
-0.00048093
-0.0002896
-4.3732e-06
0.00031407
0.00064634
0.00099877
0.0012875
0.0014721
0.0014527
0.0010799
0.00028202
-0.00033881
-0.00035843
-0.00013575
6.3411e-05
0.00030856
0.0006592
0.0010148
0.001059
0.00095131
0.00088863
0.00065327
0.00026008
0.0001358
0.00016393
0.0003117
0.00047029
0.000593
0.00070203
0.00082679
0.00084809
0.00067007
0.0006771
0.00071446
0.00049203
0.0003304
0.00058636
0.0012178
0.0014996
0.0014971
0.0012662
0.00052705
-0.00046353
-0.0011061
-0.0015218
-0.0017735
-0.0019317
-0.0018282
-0.0014145
-0.00099958
-0.0006302
-0.00037277
-0.00023699
-8.4538e-06
0.00022963
0.00034698
0.00040033
0.00033114
0.0004364
0.00067906
0.00066396
0.00047619
0.00034656
0.000381
0.00041119
0.0002679
-0.00010972
-0.00062094
-0.0013265
-0.0020186
-0.0021731
-0.0019273
-0.0016378
-0.0013205
-0.00093308
-0.00061735
-0.00043928
-0.00032228
-0.00027317
-0.00022656
-0.00012391
-0.00025864
-0.00061457
-0.0006774
-0.00047668
-0.0003102
-0.00020805
-0.00022411
-0.00028808
-0.00037429
-0.0004746
-0.00055774
-0.0005057
-0.00027204
-7.6808e-05
6.3694e-06
5.5817e-05
0.0002578
0.00050921
0.0005771
0.00054175
0.00038529
0.00024707
2.3933e-05
-0.00024754
-0.00053284
-0.00066114
-0.00049079
-0.00015868
0.00026606
0.0005391
0.00060599
0.00041606
7.0178e-05
-0.00013321
-5.4001e-05
9.4943e-05
0.00014551
3.9259e-05
-0.00025606
-0.00045034
-0.00056096
-0.00069794
-0.00072392
-0.0005446
-0.00020604
6.8365e-05
0.00026419
0.00037662
0.00020799
-0.00027462
-0.00098187
-0.0014435
-0.0012935
-0.00088291
-0.00055529
-0.00037149
-0.00027091
-0.00022
-0.00023654
-0.00032708
-0.00039956
-0.00040845
-0.00034843
-0.00034072
-0.00045818
-0.00040316
-0.00012423
0.00025775
0.00059341
0.00097541
0.0014563
0.0018463
0.0024163
0.0025698
0.0020427
0.0016423
0.001339
0.0010063
0.00065334
0.00040175
0.00028804
0.00029299
0.00027955
0.00030122
3.3618e-05
-0.0004072
-0.00058115
-0.00051579
-0.00038168
-0.00028257
-0.00016475
-0.00014243
-0.00029099
-0.00049676
-0.00087275
-0.0011746
-0.0009772
-0.00059166
-0.00042937
-0.00048284
-0.0006042
-0.00069471
-0.00067465
-0.00072784
-0.00084141
-0.00083057
-0.00076414
-0.00068526
-0.00064513
-0.00062531
-0.00062489
-0.00064028
-0.00071444
-0.00076074
-0.00077574
-0.00082813
-0.00079297
-0.00061377
-0.00041595
-0.00028885
-0.00023822
-0.00018774
-7.2629e-05
2.4743e-05
4.9403e-05
9.0417e-06
-3.5684e-05
-2.7208e-05
1.9902e-05
0.00010252
0.00017285
0.000241
0.00032447
0.00037624
0.00040789
0.00035215
0.0002345
0.00024419
0.00033609
0.00042218
0.00050995
0.00062281
0.00067203
0.00066992
0.00067461
0.00064519
0.00058977
0.00047033
0.00038226
0.0004507
0.00060282
0.00074636
0.00081871
0.00085015
0.00081864
0.00070967
0.00057846
0.00050221
0.00039881
0.00027679
0.00025413
0.00028661
0.00027442
0.00026559
0.00032153
0.00041976
0.00050435
0.00050295
0.00042872
0.0002802
0.00015147
0.00018511
0.00034422
0.00048764
0.00052412
0.00047391
0.00040194
0.00031483
0.00019557
0.00016539
0.00020149
0.00025971
0.00035395
0.00039436
0.00034091
0.00026732
0.00024515
0.00024078
0.00025874
0.000198
7.0604e-05
-2.3283e-05
-0.0001127
-0.00012667
-1.3209e-05
0.00013191
0.00019431
0.00018191
9.2988e-05
1.1964e-06
-2.5264e-05
-1.5037e-05
1.9786e-05
-2.4291e-05
-7.6916e-05
-6.235e-05
7.3814e-06
2.784e-06
-8.5178e-05
-0.00011827
-0.0001216
-0.00017841
-0.00026529
-0.00032724
-0.00040861
-0.00039959
-0.00024329
-9.5304e-05
3.2823e-05
0.00012085
0.00010945
8.4521e-05
9.0861e-05
8.8284e-05
9.5674e-05
3.6721e-05
3.406e-05
0.00015904
0.00022221
0.0001631
2.8898e-05
-4.308e-05
5.8367e-06
6.8191e-05
7.5007e-05
-6.9746e-05
-0.00021195
-0.00013404
3.4318e-05
0.00017957
0.00021328
0.00021062
0.00022429
0.00024787
0.00020223
0.00014813
0.00019079
0.00028107
0.00025222
0.00012675
-1.393e-05
-6.868e-05
-6.9885e-06
7.2553e-05
0.00011023
0.0001429
0.00018735
0.00029532
0.0004327
0.00055496
0.00059009
0.00053079
0.00043502
0.00028787
0.00017437
2.2048e-06
-0.00031928
-0.00048492
-0.00044907
-0.00034709
-0.00029467
-0.00040376
-0.00050817
-0.00048017
-0.00044081
-0.00060119
-0.00073404
-0.0005804
-0.00039762
-0.00034201
-0.00029473
-0.00026912
-0.00026895
-0.00028692
-0.0003426
-0.00045581
-0.00056127
-0.00056285
-0.00049025
-0.00044925
-0.00049065
-0.00053806
-0.00054319
-0.00054033
-0.00051129
-0.00041046
-0.00026951
-0.00015514
-0.00010506
-7.7389e-05
-4.2167e-05
-3.3216e-05
-6.8447e-05
-0.0001636
-0.00024868
-0.00023407
-0.00018861
-0.0001492
-0.00012034
-4.8256e-05
5.6495e-05
0.00015284
0.00017295
9.1524e-05
0.00010539
0.00023928
0.00037466
0.00047214
0.00053458
0.00054408
0.00042036
0.0001979
-6.2468e-05
-0.00028017
-0.00029427
-0.00013957
1.5887e-05
0.00011825
0.0002097
0.00031536
0.00041193
0.00046435
0.00040667
0.00031449
0.00032639
0.00038121
0.0004529
0.0004826
0.0004553
0.00046536
0.00048944
0.00050804
0.00052855
0.00050055
0.00044655
0.00038256
0.00033631
0.00029754
0.00028851
0.00023676
7.6823e-05
-0.00015721
-0.00034338
-0.00033961
-0.00025624
-8.9985e-05
8.9337e-05
0.00021833
0.00028416
0.00031895
0.00032726
0.00024428
0.00018324
0.00021927
0.0002916
0.00022908
0.00015221
8.7667e-05
-0.00019887
-0.00046423
-0.00058445
-0.00042465
-0.00019811
-7.8563e-05
1.1196e-05
1.6653e-05
-4.4345e-05
-0.00011306
-0.00012412
-0.0001308
-0.00015468
-6.5889e-05
0.00014081
0.00033753
0.00043849
0.00043255
0.00039596
0.00031857
0.000255
0.00026385
0.00025718
0.00027992
0.00033472
0.00036275
0.0003496
0.0003518
0.00034073
0.000165
-0.00024918
-0.00067132
-0.00072805
-0.00055044
-0.00036813
-0.0001971
-2.4037e-05
0.00017396
0.00028947
0.00025968
9.0144e-05
-7.8833e-05
2.2299e-05
0.00021682
0.00034575
0.00034216
0.000289
0.00027077
0.00027927
0.00026004
0.00012672
0.00024526
0.00072364
0.00098087
0.0010347
0.0010216
0.00085702
0.00058006
0.00018
-0.00025726
-0.00070504
-0.0010743
-0.00098794
-0.00066532
-0.00035067
-7.9125e-05
0.0001369
0.00027771
0.00026802
0.00014543
-0.00013953
-0.00036913
-0.00026062
-0.00028437
-0.00084107
-0.001549
-0.0020216
-0.0021522
-0.0021201
-0.0021442
-0.0020305
-0.001701
-0.0013783
-0.0011334
-0.0009487
-0.00076608
-0.00060217
-0.00047129
-0.00044589
-0.00059783
-0.0007005
-0.00064094
-0.00052066
-0.00036127
-0.00019914
-5.6838e-05
1.5857e-05
-4.9422e-05
-0.00030417
-0.00064191
-0.00076608
-0.00067854
-0.00053937
-0.00032244
-7.7774e-05
-1.7921e-05
-0.00015508
-0.00035061
-0.00056842
-0.00077644
-0.00076589
-0.00056045
-0.00030633
-0.00015102
-0.00013143
-0.00020655
-0.00034281
-0.00051486
-0.00075677
-0.00086576
-0.00082346
-0.00076287
-0.00046048
-9.7814e-05
3.7505e-05
3.2447e-05
-6.3697e-07
-0.00017704
-0.00031459
-0.00020859
-3.1446e-05
0.00012074
0.00017169
9.4359e-05
-1.7387e-05
-0.00010172
-0.00010107
-3.6419e-05
2.0157e-05
0.00012814
0.00027095
0.00038892
0.00049313
0.00062478
0.00075268
0.00080885
0.00070058
0.00049117
0.00038875
0.00036911
0.00038825
0.00049139
0.00057687
0.0005904
0.00052224
0.00039072
0.00026333
0.00023681
0.00040492
0.00064084
0.00074493
0.00065834
0.00046835
0.0003036
0.0002317
0.0002744
0.0003518
0.00043037
0.00046733
0.00042722
0.00040538
0.00047999
0.00057044
0.00062563
0.00066835
0.00067153
0.00065362
0.00059354
0.00045542
0.00029346
0.00019633
0.00020154
0.00025553
0.00026643
0.00016331
7.733e-05
9.6383e-05
0.00018027
0.00028493
0.00040065
0.00047212
0.00041432
0.00030334
0.00016469
3.9443e-05
1.1105e-05
3.0547e-05
7.707e-05
0.0001372
0.00015427
8.5925e-05
-4.8956e-05
-0.00019785
-0.00019156
-6.5346e-05
8.5731e-05
0.00024895
0.00034181
0.00040995
0.00036092
0.00019119
5.7437e-05
-0.0001456
-0.0001902
-2.4208e-05
7.2954e-05
0.00012461
0.00016914
0.00021089
0.00037509
0.00054781
0.00049778
0.00028133
0.00010637
-6.0653e-05
-0.00024782
-0.00029896
-0.00023721
-0.00024647
-0.00029252
-0.00035657
-0.00038218
-0.00027237
-8.7545e-05
8.9878e-05
0.00018875
0.00019618
0.0001576
2.5831e-05
-0.00017193
-0.00025012
-0.00018108
-0.00013229
-0.00014558
-0.00019903
-0.00027352
-0.00033499
-0.00032743
-0.00027092
-0.0001994
-7.3067e-05
5.1145e-05
9.9221e-05
5.769e-05
-5.2409e-06
-2.4267e-05
-1.1019e-05
-3.4753e-06
-5.285e-05
-0.00010176
-0.00010368
-0.00013862
-0.00016856
-0.00011034
1.2029e-05
0.00012925
0.00013231
7.402e-05
6.6349e-05
2.337e-05
-2.0573e-05
-2.6656e-06
4.5385e-05
7.7865e-05
7.8201e-05
4.9741e-05
3.265e-05
9.4933e-05
0.00018042
0.00023443
0.00025462
0.00021146
0.00010621
1.3562e-05
-5.7495e-05
-0.00016981
-0.00018595
-5.8641e-05
9.8535e-05
0.0001789
0.00014814
5.699e-05
-2.7922e-05
-3.7619e-05
2.7493e-07
8.0577e-05
0.00022358
0.00033161
0.00036181
0.00031098
0.00019971
8.4266e-05
1.7903e-05
-1.8568e-05
-4.7888e-05
-1.9496e-05
-5.7582e-07
-9.0671e-05
-0.00022953
-0.00026355
-0.00017386
-5.7e-05
-3.097e-05
-5.5194e-05
-6.9177e-06
3.4787e-05
3.9134e-05
1.9737e-05
-5.561e-06
-4.0592e-05
-8.6976e-05
-0.00014308
-0.00021971
-0.00022028
-8.6997e-05
7.3841e-05
0.00019329
0.00024057
0.00022675
0.0001833
7.7074e-05
-9.6319e-05
-0.00017397
-0.00011757
-4.0074e-05
-3.4666e-05
-0.00010228
-0.00016329
-0.00019281
-0.00016716
-0.00015497
-0.00012512
-6.2647e-05
-2.9182e-05
-4.0519e-05
-7.9457e-05
-0.00010549
-0.00011445
-0.00010859
-0.00016462
-0.00025146
-0.00025105
-0.00021522
-0.00018251
-0.0001252
-3.4394e-05
6.765e-05
0.00015343
0.00011724
2.6762e-05
2.1077e-05
2.3626e-05
1.3632e-05
1.1043e-05
2.881e-05
1.1044e-06
-8.8696e-05
-0.00024004
-0.00044216
-0.00049378
-0.0003395
-0.00011779
8.056e-05
0.00018574
0.0002117
0.00017171
6.3254e-05
-5.3411e-05
-0.00011431
-3.0915e-05
0.00012561
0.00019671
0.00014931
5.3246e-05
-4.8525e-05
-9.503e-05
-0.00015142
-0.00018189
-9.6145e-05
4.2397e-05
0.00014481
0.00020622
0.00037582
0.00049473
0.00040176
0.00020115
-7.8967e-06
-7.6162e-05
-8.3558e-05
-7.6371e-05
-6.4296e-05
-3.1027e-05
-1.4501e-06
3.6097e-05
-1.9946e-06
-0.00013481
-0.0001593
-8.2215e-05
3.1267e-06
6.5391e-05
9.2966e-05
8.3908e-05
0.00011524
0.00013944
0.00012029
0.00018367
0.00033378
0.00051753
0.00068346
0.00076547
0.00072821
0.00059472
0.00034932
9.3175e-06
-0.00020309
-0.00022884
-0.00020659
-0.00019663
-0.00019159
-0.00019181
-0.00018616
-0.00020105
-0.00026141
-0.00021734
-9.7319e-05
-2.8042e-05
-4.1621e-05
-5.5792e-05
-5.0345e-05
-4.7313e-05
-0.00011377
-0.00023738
-0.00023497
-0.00014522
-0.00010283
-0.00011514
-0.00012164
-0.00011319
-7.7073e-05
-8.2441e-05
-0.00014873
-0.00015522
-0.00011439
-8.8163e-05
-6.8284e-05
-4.6845e-05
-3.213e-05
2.5191e-05
7.1916e-05
0.00014511
0.00028977
0.00036345
0.0003618
0.00039468
0.00048204
0.00057376
0.00071721
0.00055727
0.00014615
-5.708e-05
-0.00017995
-0.00028306
-0.00031709
-0.00033923
-0.0003649
-0.00037274
-0.00043854
-0.00055555
-0.00054561
-0.00041906
-0.00029643
-0.00025806
-0.00027483
-0.00027794
-0.00022901
-0.00016121
-0.00021818
-0.00022102
-7.1649e-05
7.439e-05
0.00012924
0.00010676
4.7148e-05
-2.3808e-05
-6.9793e-05
-0.00018265
-0.0002388
-5.6683e-05
0.00011996
0.00019075
0.00018255
4.5374e-05
-0.0001226
-0.00019104
-0.00031709
-0.00038257
-0.0001714
0.00014948
0.00047625
0.00082019
0.0010103
0.00092772
0.00068333
0.00023484
-0.00023032
-0.00024219
2.0482e-05
0.00017735
0.0001929
8.9884e-05
-9.539e-05
-0.00017172
-0.00027663
-0.00049278
-0.00046173
-0.00020935
1.3677e-05
7.1702e-05
8.4559e-05
0.00012014
0.00016776
0.00017946
3.4714e-05
-7.2754e-06
0.00014023
0.00010942
-0.00011071
-0.000281
-0.00044822
-0.00059177
-0.00070088
-0.00086756
-0.00091763
-0.00080667
-0.00069492
-0.00060179
-0.00049271
-0.00041182
-0.00037303
-0.00039309
-0.00047443
-0.00039434
-0.00018802
-5.7616e-06
7.3433e-05
6.0167e-05
-5.2528e-06
-8.7035e-05
-0.00025221
-0.00048042
-0.00052009
-0.00039256
-0.00026417
-0.00018586
-0.00013574
-9.6009e-05
-8.024e-05
-7.6491e-05
-0.00013474
-0.0001731
-7.7012e-05
7.0381e-05
0.00018714
0.00018545
4.3512e-05
-8.0128e-05
-0.00011334
-0.00017372
-0.00024313
-0.00020136
-0.00010507
-4.1173e-05
-2.9728e-05
-2.5664e-05
-5.1651e-05
-0.0001004
-0.00019123
-0.00023193
-0.00014176
-4.0358e-05
-5.2543e-06
5.6387e-05
0.00013093
0.00014048
0.00011685
2.2499e-05
1.6188e-05
0.0001405
0.0002578
0.00032183
0.00035327
0.00037215
0.00037828
0.00033391
0.00018501
0.00010754
0.00016843
0.00025117
0.00028193
0.00026737
0.0002415
0.00020652
0.00014371
2.6584e-06
-7.2645e-05
5.326e-05
0.00024941
0.00039298
0.00046154
0.00045157
0.00038048
0.00030702
0.0001979
0.00015675
0.00023837
0.0003371
0.00044792
0.00053914
0.0005665
0.00053842
0.00052042
0.00044144
0.00033428
0.00033623
0.00038288
0.00041398
0.00040375
0.00037708
0.00025881
0.00014776
9.5528e-05
-7.4744e-05
-7.4205e-05
8.668e-05
0.00022281
0.00033957
0.00038374
0.00032153
0.00023705
0.00013023
-9.3837e-06
-4.217e-05
5.1999e-05
0.00014772
0.00019128
0.00021499
0.00024586
0.0002554
0.00022106
0.00010385
5.9846e-06
5.6505e-05
0.00016615
0.00023384
0.00023483
0.00022111
0.00023822
0.00027185
0.00025799
0.00021592
0.00020759
0.00023149
0.00025774
0.00027166
0.00033604
0.00045101
0.00057027
0.00060958
0.00040642
0.00024345
0.00033037
0.00041554
0.00024056
-3.17e-05
-0.00013181
-0.00018071
-0.00028735
-0.00046221
-0.000585
-0.00046167
-0.00023359
-7.7058e-05
6.5361e-05
0.00019322
0.00013963
2.8171e-05
-0.0001462
-0.00033456
-0.00028762
-0.00010213
8.1345e-05
0.00017597
0.00011061
-4.323e-05
-0.00015524
-0.00019593
-0.00023599
-0.0002044
-4.9998e-05
0.00012836
0.00025358
0.00020028
2.7525e-05
-0.00011807
-0.00017833
-0.00022562
-0.00027201
-0.00019086
-6.3648e-05
-1.0924e-05
-2.6816e-05
-3.066e-05
-6.0351e-05
-0.00011373
-0.00023319
-0.00041864
-0.00047326
-0.00039663
-0.00032252
-0.00029069
-0.00025514
-0.00023493
-0.00024624
-0.00030318
-0.00044042
-0.00045525
-0.00031074
-0.00017767
-0.00011653
-0.00010027
-9.7406e-05
-0.00011043
-0.00019155
-0.00038418
-0.00045666
-0.00029101
-6.8826e-05
0.00011928
0.00026574
0.00035586
0.00039646
0.00042979
0.00047265
0.00044034
0.0003248
0.00022554
0.00019049
0.00016311
9.6621e-05
4.0506e-05
2.2738e-05
2.1011e-05
-1.2474e-05
2.485e-05
0.00014389
0.00023991
0.00026499
0.00027316
0.0002827
0.00025523
0.00016235
6.4061e-06
-3.6917e-05
2.1168e-05
5.584e-05
4.8452e-05
5.4848e-05
8.1811e-05
0.0001184
0.00013902
6.7403e-05
1.2269e-05
5.9139e-05
0.00012334
0.00016397
0.00020005
0.00023083
0.00023003
0.00017547
2.3236e-05
-0.00011214
-9.1553e-05
1.9594e-06
6.455e-05
8.1651e-05
9.092e-05
7.1964e-05
4.6329e-05
4.3299e-07
-5.3905e-05
-3.2681e-06
0.00010943
0.00021211
0.00026493
0.0002647
0.00022692
0.00017904
0.00010648
2.6355e-05
4.7158e-05
0.00013542
0.00018066
0.00015202
0.00011148
7.7725e-05
6.4147e-05
5.2754e-05
-7.6236e-06
-1.8204e-05
3.5922e-05
5.6082e-05
3.0024e-05
1.2306e-05
1.3287e-05
6.319e-06
-3.1932e-06
-5.1191e-05
-6.2541e-05
2.0507e-05
9.1379e-05
0.00011341
0.00011387
0.00011888
0.00012098
0.00010338
3.5525e-06
-0.00012197
-0.00012637
-6.9463e-05
-1.2531e-05
3.6245e-05
6.8444e-05
6.3114e-05
4.6958e-06
-8.7189e-05
-0.00019556
-0.00022227
-0.00011745
2.2394e-05
0.00012138
0.00014588
0.00012359
8.242e-05
6.9979e-05
4.939e-05
5.5336e-06
4.8739e-05
0.00015555
0.00020664
0.00016514
0.00010687
6.0142e-05
4.1376e-05
3.9897e-05
8.8901e-06
4.5391e-05
0.00013012
0.00014432
0.00010591
9.724e-05
0.0001299
0.00017529
0.00022229
0.00019068
0.00016984
0.00026811
0.00037785
0.00048137
0.00056342
0.00053836
0.00044612
0.00030111
7.4987e-05
-0.00012937
-0.00015788
-7.2095e-05
6.0409e-05
0.00021718
0.00035745
0.00041334
0.00038796
0.00028381
9.5117e-05
-3.1347e-05
2.7818e-05
0.00019714
0.00036686
0.00048648
0.00053684
0.00053017
0.00051178
0.0004655
0.00049101
0.00061239
0.00073483
0.00078025
0.00074964
0.00068685
0.00061612
0.00055179
0.00040972
0.00022395
0.00013027
3.5677e-05
-0.00016122
-0.000402
-0.00059768
-0.0007511
-0.00083831
-0.00094824
-0.0010417
-0.00099
-0.00084295
-0.00070479
-0.00058016
-0.00043845
-0.0003167
-0.00021886
-0.0001957
-0.00023495
-0.00021696
-0.00017513
-0.0001621
-0.00014296
-8.5204e-05
-2.5699e-05
8.1138e-06
-6.9581e-05
-0.00019162
-0.00020086
-0.0001393
-6.1364e-05
1.8877e-05
8.8895e-05
0.00012082
0.00011955
3.9964e-05
-5.1705e-05
-7.7751e-06
8.2376e-05
0.00016349
0.00026407
0.0002902
0.00019639
6.7611e-05
-9.6484e-05
-0.00022529
-0.00020652
-0.00011764
-2.9108e-05
2.356e-06
-3.8356e-05
-0.00011276
-0.00018639
-0.00025391
-0.00021427
-7.9198e-05
6.5079e-05
0.00013586
0.00011903
7.6127e-05
3.3665e-05
-2.1208e-06
-5.3166e-05
-4.1135e-05
7.9164e-05
0.00018509
0.00019194
0.00012324
4.4877e-05
3.859e-06
2.0422e-06
-2.6234e-05
-2.232e-05
7.2067e-05
0.00016928
0.00018545
0.00014608
7.3767e-05
2.5045e-05
-2.9694e-06
-2.0276e-05
7.59e-05
0.0002206
0.00029185
0.00026304
0.00021278
0.00015491
7.5547e-05
-8.0994e-06
-6.5704e-05
-8.6062e-05
-0.00012893
-0.00018706
-0.00020164
-0.00014948
-8.4182e-05
-2.5128e-05
-3.243e-05
-4.7842e-05
-1.2372e-07
3.7589e-05
8.4392e-05
0.00018022
0.00027695
0.00039726
0.00050415
0.00050152
0.00047903
0.00049678
0.00052715
0.00055435
0.0005522
0.00050201
0.00042673
0.0002809
5.8823e-05
-9.1514e-05
-0.00015048
-0.00018709
-0.00020686
-0.0002058
-0.00018341
-0.00014833
-0.0001208
-0.00014424
-0.00014527
-0.00010681
-7.4038e-05
-2.3475e-05
5.452e-05
0.00011951
0.000149
0.00012417
4.5057e-05
1.414e-05
5.165e-05
0.00013788
0.00022944
0.0002512
0.00022475
0.00017963
0.00012853
8.6876e-05
6.7694e-05
0.00012139
0.00019688
0.0002185
0.00018452
0.00014165
0.0001062
0.00011637
0.00011398
5.7796e-05
8.354e-05
0.00016151
0.00017023
0.00012195
6.5922e-05
2.944e-05
2.0665e-05
2.54e-05
3.747e-05
0.00011401
0.00027087
0.00042894
0.00048061
0.00036663
0.00022184
0.0001007
6.5671e-06
-3.1613e-05
-7.6556e-05
