-0.00019467
-0.00020584
-9.1933e-05
6.8425e-05
8.6958e-05
-8.0167e-05
-0.0001778
-9.3967e-05
2.5378e-05
2.8994e-05
-6.8087e-05
-0.00019971
-0.00027264
-0.00024358
-4.3473e-05
0.00020189
0.00022337
0.00012077
0.00010724
0.00021677
0.00031288
0.00023808
1.9947e-05
-0.00014231
-0.0002646
-0.00028494
-9.9888e-05
0.00015611
0.00021699
0.0001898
0.00023076
0.00029867
0.00031776
0.00021287
1.723e-05
-0.00014758
-0.00018292
-1.6723e-05
0.00011742
0.00011667
7.5402e-05
0.0001005
0.00018468
0.00013131
-2.2108e-05
-9.6474e-05
-0.00013427
-0.00011549
-2.7442e-05
9.1822e-05
0.0001896
0.00024844
0.00036034
0.00046778
0.00035286
0.00017067
2.8633e-05
-0.00011443
-2.6348e-05
0.00014643
0.00017269
0.00023214
0.00026314
0.0002913
0.00043274
0.00046268
0.00029041
-8.1436e-05
-0.00044372
-0.00052049
-0.00032359
-3.0025e-05
0.00018005
0.00027991
0.00035216
0.00050545
0.00062318
0.00055247
0.00030522
5.9752e-05
-1.7961e-05
6.6963e-05
0.00036795
0.0006216
0.00055007
0.00035583
0.0002921
0.00043009
0.00047119
0.00026864
-2.962e-05
-0.0003126
-0.00035998
-0.0001785
0.00010312
0.00035819
0.00034451
0.00020777
0.00026338
0.00041516
0.00036766
0.00012191
-0.00013515
-0.0002257
-0.00014542
2.8371e-05
0.00022102
0.00021638
4.7711e-05
3.8162e-05
0.00014278
0.00012245
6.9421e-05
-1.4358e-05
-0.00018943
-0.00021645
-0.00014648
-3.3277e-05
0.00012394
0.00014364
0.00012542
0.0002025
0.00024754
0.00019778
7.4718e-05
-8.1597e-05
-0.0001543
-0.00014252
-9.3317e-05
-6.5148e-06
-7.1119e-05
-0.00020266
-0.00025382
-0.00017344
-0.00022912
-0.00042152
-0.00048429
-0.0004458
-0.00033723
-0.00010783
0.0002226
0.00038396
0.00040598
0.00049756
0.00057381
0.00057786
0.0003895
3.6684e-05
-0.0002233
-0.00016872
-4.1896e-05
0.000128
0.00027988
0.00023315
0.0001742
0.00024738
0.00025796
9.7127e-05
-0.00015792
-0.00036574
-0.00036596
-0.00018479
4.4548e-06
0.0002642
0.0004003
0.00041119
0.00052088
0.00072332
0.00066662
0.00049657
0.00033921
0.00012797
0.0001586
0.00035576
0.00039697
0.00026391
0.00010582
5.0911e-05
0.00019621
0.00037031
0.00030059
8.4236e-05
-9.0776e-05
-0.00015016
4.1552e-05
0.00030055
0.00033094
0.00021721
0.00017984
0.00031249
0.00054559
0.00051211
0.00029381
5.9579e-05
-3.5052e-05
0.00015168
0.00040353
0.00044464
0.00028708
0.00010393
2.7603e-05
0.00017374
0.00034808
0.00036079
0.00017423
-3.637e-05
-5.7386e-05
5.5562e-05
0.00019054
0.00019087
-3.0789e-05
-0.00022049
-0.00018359
-4.6001e-05
1.7722e-05
-0.00016852
-0.00047054
-0.00059859
-0.0005245
-0.00025772
3.177e-05
7.7404e-06
-0.00022978
-0.00032819
-0.00020148
-4.7151e-05
-4.5903e-06
-0.0001447
-0.0003565
-0.00046982
-0.0003908
-0.00011931
0.00013062
0.00012431
-5.0307e-05
-7.5274e-05
5.6984e-05
0.00012389
7.0449e-05
-0.00019861
-0.00046806
-0.00053271
-0.00046719
-0.00035363
-0.00035612
-0.0004724
-0.00051122
-0.00037328
-0.00025663
-0.00029693
-0.00035273
-0.00042108
-0.00046659
-0.00041146
-0.00027704
-9.9132e-05
-2.5423e-05
-3.1389e-06
0.00010291
0.00024075
0.00022734
3.0203e-05
-0.00020666
-0.00034154
-0.00036972
-0.00035096
-0.00029573
-0.00033765
-0.00039103
-0.00029385
-0.00012529
-0.00010932
-0.00018411
-0.00024877
-0.00029624
-0.0003081
-0.00028408
-0.00017162
-6.4197e-05
2.1665e-05
0.00019067
0.000382
0.0004576
0.00039661
0.00017393
-5.7021e-05
-4.4748e-05
9.7508e-05
0.00026496
0.0003197
0.00019634
8.6499e-05
0.00017389
0.00025871
0.00011259
-7.7659e-05
-0.00017549
-0.00014095
6.6262e-05
0.00021581
0.00027424
0.00035825
0.00045158
0.00056599
0.00073379
0.00070682
0.00045279
0.00010628
-0.00012221
-9.3465e-05
0.00010564
0.00024094
0.00030101
0.00036005
0.00044683
0.00064633
0.00076605
0.00052552
0.00014544
-9.8222e-05
-0.00010105
8.1888e-05
0.0002654
0.00036432
0.00041319
0.00043898
0.00044822
0.00051658
0.00045789
0.00013497
-0.00012593
-0.00022131
-0.0002194
-2.9824e-05
0.00022674
0.00043753
0.00063052
0.0007063
0.00076945
0.00091654
0.00093838
0.0008533
0.0005686
0.00014896
-5.8263e-05
-1.0045e-05
9.2209e-05
8.7991e-05
-1.526e-05
-7.3949e-05
6.8506e-05
0.0002553
0.00018434
-6.4358e-05
-0.00027453
-0.00034165
-0.00021109
-2.2072e-05
-3.6544e-05
-0.00023015
-0.00035196
-0.00030212
-0.0001605
-0.00021976
-0.00037375
-0.00044424
-0.00046662
-0.00040815
-0.00019537
9.4193e-05
0.00016312
7.3323e-05
2.5007e-05
0.00013907
0.00024906
0.00018567
5.1387e-05
-9.9277e-05
-0.00014578
-4.4446e-06
0.00028941
0.0004546
0.00037413
0.00031663
0.00041814
0.0004796
0.00036263
0.00016513
-4.4586e-05
-0.00011915
-2.5104e-05
4.6651e-05
-4.7866e-05
-0.00018374
-0.0002058
-0.0001009
-2.7151e-06
-4.139e-05
-9.4853e-05
-8.9323e-05
-0.00011779
-1.9243e-05
0.00019879
0.00032453
0.0003514
0.00037426
0.00043108
0.00055055
0.00061302
0.00048221
0.00024664
2.794e-05
-6.8353e-05
-2.529e-05
1.477e-05
-3.5908e-05
-4.976e-05
5.5846e-05
0.0002075
0.00036421
0.00037398
0.00018203
1.7728e-06
-3.7134e-05
2.1317e-05
0.00014709
0.00024663
0.00022058
0.00021113
0.00026855
0.00036097
0.00035404
0.00024726
0.00014479
0.00016128
0.0002948
0.00045209
0.0005803
0.00055583
0.00046893
0.00046695
0.00056022
0.00055515
0.00037189
0.00020442
0.00015024
0.00018522
0.00025215
0.00032786
0.00034925
0.00029379
0.00029462
0.00041086
0.00049367
0.00041098
0.00022885
1.7513e-05
-2.4342e-05
7.8167e-05
0.00016059
0.00019817
0.00019806
0.00018945
0.00022057
0.00031002
0.00028759
9.9699e-05
-7.5199e-05
-0.00016039
-0.00010069
5.6217e-05
0.00016822
0.00022744
0.000229
0.00026129
0.00039225
0.00037337
0.00019821
-0.00011728
-0.0004341
-0.00043518
-0.00024328
-8.4686e-05
4.4863e-05
0.00014002
0.00012504
0.00016606
0.00023126
4.2595e-05
-0.00015833
-0.00024054
-0.00025048
-0.00011442
0.00011874
0.00022327
0.0001787
0.00012799
0.00015431
0.00032904
0.00039066
0.00018759
-5.8742e-05
-0.0002246
-0.00019725
-1.6182e-06
0.0002
0.00022805
0.00013182
7.0865e-05
0.00020968
0.00033059
0.00015662
-7.1779e-05
-0.00023639
-0.00024313
-4.119e-05
0.00022403
0.00037717
0.0003751
0.00032952
0.00040053
0.00055353
0.00050731
0.0002955
3.1611e-05
-0.00010635
2.2547e-05
0.00029878
0.00055463
0.00053257
0.00033836
0.00022196
0.00027836
0.00032088
0.00016581
-0.00014993
-0.00038525
-0.00038896
-0.00018966
8.7587e-05
0.00033317
0.00042677
0.00033683
0.00030132
0.00040067
0.00039993
0.00021502
-2.1806e-05
-0.00012606
5.0848e-06
0.00026949
0.00049125
0.00054571
0.00044629
0.0003628
0.00042768
0.00041847
0.00026429
6.0181e-05
-0.000114
-8.482e-05
8.7313e-05
0.00025965
0.00040643
0.00040466
0.00029205
0.00029069
0.00027956
8.0902e-05
-0.00019495
-0.00037241
-0.00033899
-0.00013827
6.277e-05
0.00010678
3.0885e-05
-8.3637e-05
-9.8e-05
-2.7685e-05
-0.00014328
-0.00034796
-0.00043295
-0.00044603
-0.00033462
-9.7934e-05
9.9458e-05
0.00017234
0.00012069
5.7069e-05
5.8327e-05
-0.0001218
-0.00034889
-0.00048343
-0.00053605
-0.00046082
-0.0002721
-4.9931e-05
-1.1231e-06
-8.0036e-05
-0.00011448
-2.3378e-05
-2.9026e-06
-0.0001676
-0.00033121
-0.00039149
-0.0003684
-0.00029173
-9.6635e-05
0.00011954
0.0001662
0.00022565
0.00035076
0.00041581
0.00034268
0.00012213
-0.00015632
-0.00027802
-0.00025432
-0.00022246
-0.00024808
-0.00035242
-0.00040429
-0.00029892
-0.00013818
-0.00010876
-0.0002406
-0.00036103
-0.00037386
-0.00029178
-0.00020486
-0.00014754
-0.00010048
-4.3639e-05
8.3597e-05
0.00020996
0.00024885
0.00014805
-0.00011035
-0.00029578
-0.00023243
-9.8473e-05
3.7842e-06
2.7859e-05
-3.1548e-05
2.4344e-05
0.00023422
0.00028325
0.00010117
-0.00012934
-0.00028244
-0.00032611
-0.0002166
-2.1443e-05
0.000109
0.0001036
9.1057e-05
0.00023713
0.00037314
0.00026932
0.00012656
-8.3262e-05
-0.00023565
-0.00013915
-1.0239e-05
-1.8785e-05
-9.6624e-05
-0.00019098
-6.0622e-05
0.000294
0.00039685
0.00027079
7.5702e-05
-8.5592e-05
-6.2183e-05
3.1414e-05
4.2278e-05
-0.00012562
-0.00023154
-0.00015283
4.9392e-05
0.00019535
0.00013216
-2.8206e-05
-0.00013341
-0.00010992
8.76e-05
0.00029615
0.00024542
9.0194e-05
4.7075e-05
0.0001527
0.00026327
0.00015951
-2.8401e-05
-0.00010479
5.1045e-05
0.00034899
0.00057385
0.00052769
0.00029528
0.00014498
0.00014173
0.00015439
2.8008e-06
-0.000277
-0.00050159
-0.00052491
-0.00035173
-0.00012798
5.7873e-05
0.00013349
0.00018106
0.00030934
0.00040656
0.00029919
0.00012932
-6.5535e-05
-0.0001295
-1.8975e-05
0.00012646
0.00017149
0.00012557
8.4781e-05
0.00015623
0.00020513
0.00014335
-1.4404e-05
-0.00022055
-0.00026179
-0.0001267
6.8695e-05
0.0002429
0.00030116
0.00027638
0.00033576
0.00041123
0.00033536
0.00013435
-3.9245e-05
-0.00011677
-4.2201e-05
0.00017237
0.00035243
0.00045727
0.00050352
0.00056474
0.00069872
0.00074368
0.00068117
0.00052634
0.00026691
0.00015095
0.00020469
0.00028511
0.00033896
0.00033851
0.00035608
0.00046771
0.00047173
0.0005034
0.00052279
0.00023058
-7.9866e-05
-9.7853e-05
2.0379e-05
0.00025295
0.00043501
0.00045241
0.00048116
0.00046618
0.00032032
0.00028833
0.00019748
5.0476e-05
-6.3989e-06
1.6016e-05
9.2922e-05
0.0001105
2.1757e-06
2.6108e-05
0.00014619
0.00017965
0.00036007
0.00030711
-6.3984e-05
-0.00027276
-0.00020322
7.9637e-05
0.00020392
4.1092e-05
2.1188e-05
4.7372e-05
6.9643e-06
1.2711e-05
-0.00034028
-0.00064432
-0.00057743
-0.00038925
-0.00019101
-0.0001208
-0.00024418
-0.00018881
-0.00011273
-0.00020237
-0.0003695
-0.00077229
-0.0010084
-0.00091558
-0.00069724
-0.00054412
-0.00056811
-0.00063554
-0.00048935
-0.00024568
-0.00018841
-0.00031048
-0.0004952
-0.00068336
-0.00076071
-0.00061621
-0.00045792
-0.00023203
-0.0001702
-0.00032438
-0.00034473
-0.00028674
-0.00029393
-0.0005023
-0.00085782
-0.00084937
-0.00047049
-9.9692e-05
0.00016777
0.0002598
7.9907e-05
-7.9473e-05
-2.2822e-05
4.5279e-05
-6.0397e-05
-0.00027083
-0.00049503
-0.00057966
-0.00049162
-0.00039674
-0.00024723
-0.00020011
-0.00022547
-9.4831e-05
0.0001467
0.00028583
0.00031226
0.00014348
-0.00011322
-0.00018589
-6.146e-05
6.5504e-06
8.2497e-05
2.3653e-05
-3.7014e-05
0.00011297
0.00027687
0.00043395
0.00045057
0.00024977
9.2799e-05
0.00012862
0.00026858
0.00040177
0.00040397
0.00026045
0.00025968
0.0004321
0.00057774
0.00056207
0.00046405
0.00037073
0.00028464
0.00038717
0.00063086
0.00077514
0.00066327
0.00053557
0.00062064
0.00084946
0.00093568
0.00079562
0.00059624
0.00044495
0.00045411
0.00059662
0.00073159
0.00080936
0.00069694
0.00052774
0.00056085
0.00068486
0.0005967
0.00039978
0.00027612
0.00016179
0.00017856
0.00042534
0.00070712
0.000918
0.0010305
0.0011171
0.001309
0.0013591
0.0010947
0.00081974
0.00063066
0.00054197
0.00065205
0.00076077
0.0007888
0.0006775
0.00055547
0.00061841
0.00071587
0.00060907
0.00035986
9.1839e-05
-8.6436e-05
-2.8741e-05
0.00015559
0.00035395
0.00041298
0.00030642
0.00036196
0.00054333
0.00056394
0.00044076
0.00022256
-1.8398e-05
-2.2643e-05
0.00012268
0.00020987
0.00022327
8.928e-05
4.7914e-05
0.00018976
0.00024978
0.00011759
-0.00020013
-0.00055497
-0.00070272
-0.00059152
-0.00042327
-0.00027781
-0.00019777
-0.00018912
-6.9591e-05
0.00010295
9.5293e-05
-0.00019187
-0.00060837
-0.00085809
-0.00078543
-0.00056835
-0.0003714
-0.00029672
-0.00032036
-0.00025764
-9.9536e-05
-3.8206e-05
-0.00022917
-0.00070421
-0.0011772
-0.0013188
-0.0011186
-0.00077047
-0.00053079
-0.00035174
-0.00019676
3.176e-05
0.0002019
0.00015829
-0.00010769
-0.00052858
-0.00085482
-0.00096717
-0.00097038
-0.00095056
-0.001037
-0.0011476
-0.0010745
-0.00092954
-0.00086898
-0.00097054
-0.0012573
-0.0014072
-0.0012809
-0.0010296
-0.00075694
-0.00065453
-0.00075759
-0.00077251
-0.0006649
-0.00062266
-0.0007162
-0.0010464
-0.0013595
-0.0013714
-0.0011915
-0.00093911
-0.00076616
-0.00080012
-0.00082165
-0.00067368
-0.00060018
-0.00071041
-0.00090048
-0.0010072
-0.00095105
-0.00075155
-0.00054221
-0.00045295
-0.00045776
-0.00044699
-0.00030583
-0.00013252
-0.00015265
-0.0002305
-0.00027033
-0.0003931
-0.00045774
-0.00041502
-0.00024911
-0.00021764
-0.00041137
-0.00049488
-0.0003637
-0.00026461
-0.00033878
-0.00063544
-0.00093312
-0.00098107
-0.00088465
-0.00062714
-0.00035948
-0.0002617
-0.00023675
-0.00022701
-0.00018286
-0.00019988
-0.00022623
-0.00013658
6.0847e-05
0.00021778
0.00031265
0.00038832
0.00043081
0.00045179
0.00049893
0.00047403
0.00039415
0.00030512
0.00016859
7.7446e-05
0.0001199
0.00023187
0.00025904
0.00018
0.0001149
5.6456e-05
7.4359e-05
0.00015265
0.00017665
0.00016547
0.00016121
7.0618e-05
-7.5527e-05
-0.0001802
-7.69e-05
0.00017773
0.00042601
0.00068764
0.00081866
0.00071259
0.00057323
0.0004445
0.00039006
0.00044959
0.00051317
0.00064749
0.00072672
0.00066062
0.00065927
0.00069018
0.00062939
0.00051429
0.00032461
0.00024605
0.00031662
0.00045579
0.00065067
0.00075969
0.00071162
0.00075928
0.00085721
0.00078438
0.00058193
0.00030183
5.4389e-05
5.63e-05
0.00013638
0.00014579
0.00019666
0.00023729
0.00028928
0.00041352
0.00038632
0.00023886
0.00013246
3.6042e-05
3.1139e-05
0.00016714
0.00025859
0.00031816
0.00030859
0.00026534
0.00034447
0.00042448
0.00044489
0.000388
0.00014748
-4.6913e-05
7.8053e-06
0.00016864
0.00033817
0.00050805
0.00049658
0.00050216
0.0005398
0.00055309
0.00058532
0.00027171
-0.00015834
-0.00025951
-0.00010756
0.00027195
0.00064533
0.00063627
0.00053079
0.00056911
0.00069525
0.00078518
0.00051088
1.0294e-05
-0.00028188
-0.00022245
3.4316e-05
0.00024265
0.00030013
0.00025222
0.0003111
0.00043821
0.00038949
0.00029459
0.00022588
0.00013295
0.00013742
0.000293
0.00050922
0.00056792
0.00044837
0.00038375
0.0004233
0.00036792
0.00014438
-7.1392e-05
-0.00011177
-2.7556e-05
4.4123e-05
0.0001298
0.00020769
0.00022367
0.00027733
0.00033072
0.00021654
8.094e-05
-2.2863e-05
-0.00010669
-8.0577e-05
1.2141e-05
0.00011416
0.00032142
0.00050176
0.00054216
0.0005604
0.0004124
0.00012245
-7.183e-05
-0.00018501
-0.00019035
-7.6121e-05
0.00014094
0.00032798
0.00045989
0.00047263
0.00046224
0.00048644
0.00034207
0.00013685
2.398e-05
-1.9438e-05
-2.2123e-05
8.7003e-05
0.00036719
0.00051504
0.00045444
0.00034649
0.00032701
0.00033854
0.00025416
0.00012043
-3.4369e-05
-0.00017185
-0.00017359
-1.5423e-05
0.00015838
0.00019827
0.0001534
0.00012611
0.0002016
0.00016247
7.0481e-06
-8.6145e-05
-0.00018881
-0.00019207
-1.0396e-05
0.00025458
0.00038896
0.00037991
0.00031061
0.00034251
0.00039578
0.00024998
0.000146
0.00013805
0.00012964
0.00018527
0.00036202
0.00055899
0.00067747
0.00066218
0.00064995
0.00073567
0.00065631
0.00051091
0.00039067
0.00019478
0.00013122
0.00021363
0.0003374
0.00034992
0.0002618
0.0001896
0.00022203
0.00026333
0.00010969
-0.0001078
-0.00022798
-0.00028546
-0.00024431
-8.147e-05
0.00013548
0.00030214
0.00036497
0.00036166
0.00038576
0.00033109
0.00015163
-0.00013444
-0.00040879
-0.00046564
-0.00038965
-0.00033047
-0.00022377
-0.00012817
-0.00015882
-0.00016878
-0.00012191
-0.00028045
-0.00045889
-0.00054397
-0.00055478
-0.00042083
-0.00014698
0.00014341
0.00023667
0.00012433
-7.6318e-06
-5.5691e-06
-3.6516e-05
-0.00028676
-0.00050253
-0.00066605
-0.00071423
-0.00058767
-0.00037431
-0.00028475
-0.00033054
-0.0004186
-0.00046578
-0.00037827
-0.00036791
-0.00051316
-0.00064105
-0.00075019
-0.0007407
-0.00050324
-0.00024852
-4.2753e-05
2.6115e-05
-4.6359e-05
-6.8649e-05
5.7888e-06
8.4604e-05
2.4503e-05
-0.00012204
-0.00016888
-8.4018e-05
0.00013657
0.00043038
0.00063371
0.00061592
0.00048797
0.00038544
0.00035824
0.0003285
0.00027926
0.00011502
-8.9628e-05
-7.2412e-05
0.00016344
0.00041364
0.00059921
0.0007093
0.00072488
0.00073493
0.00079334
0.0006859
0.00048256
0.00032016
0.00024225
0.0003502
0.00053804
0.00067494
0.00074497
0.00076773
0.00077401
0.00082062
0.000794
0.00061146
0.00038175
0.0002638
0.00032404
0.00045472
0.00065614
0.00085416
0.00084327
0.00071157
0.00066087
0.00068188
0.00057187
0.00037913
0.0001532
9.9116e-06
8.035e-05
0.00023512
0.00040768
0.00056815
0.00052772
0.00037148
0.00031638
0.00023106
-1.7145e-05
-0.00031477
-0.00056567
-0.00058282
-0.00043395
-0.00030445
-0.0001757
-0.00015796
-0.00023535
-0.00026157
-0.00027082
-0.00041268
-0.00062443
-0.00076515
-0.00077973
-0.00066884
-0.00054521
-0.00046641
-0.00046555
-0.00058004
-0.00066141
-0.00064045
-0.00071702
-0.0008935
-0.0010016
-0.0010494
-0.0010732
-0.0010721
-0.0010714
-0.0010258
-0.00098466
-0.00097743
-0.00093741
-0.00096412
-0.0011208
-0.0012092
-0.0012424
-0.0012331
-0.0011364
-0.0010655
-0.00097183
-0.00086944
-0.00088975
-0.00091728
-0.00091248
-0.001039
-0.001076
-0.00099481
-0.00095728
-0.00089107
-0.00080088
-0.0007001
-0.0005574
-0.00052601
-0.00051551
-0.00042695
-0.00050068
-0.00061189
-0.00059586
-0.00056182
-0.00046736
-0.00029703
-0.00012725
9.0863e-06
0.0001186
0.00018473
0.00029533
0.00031172
0.00010528
-1.8264e-07
3.2109e-06
1.7321e-05
0.00010246
0.00024135
0.00038534
0.00049955
0.00053144
0.00059099
0.00066422
0.00058922
0.0005251
0.00052791
0.00052995
0.00056358
0.00065397
0.00075158
0.00089022
0.0010173
0.0011082
0.0012386
0.0012661
0.0011203
0.0010243
0.00098259
0.00095022
0.00098424
0.0010632
0.0011791
0.0012525
0.0012292
0.0012467
0.0012683
0.0011525
0.0010601
0.0010179
0.0009881
0.001041
0.001131
0.0011814
0.0012283
0.0012417
0.0012375
0.0012753
0.0011661
0.00099408
0.00093378
0.00085615
0.00080543
0.00086614
0.00091002
0.00092611
0.00090163
0.00077316
0.00068956
0.00060489
0.00040807
0.00025299
0.00021313
0.00023688
0.00035365
0.0005101
0.00064594
0.00078825
0.00085957
0.00082072
0.00078156
0.00059332
0.00034306
0.00019357
1.861e-05
-7.9395e-05
-4.4154e-05
-4.9389e-06
-6.1354e-07
-7.0672e-05
-0.00018222
-0.00019846
-0.00022855
-0.00040246
-0.00058699
-0.00070164
-0.0007666
-0.0007309
-0.00067631
-0.00062243
-0.00044452
-0.00023623
-2.9836e-05
0.00012378
9.3287e-05
-9.3126e-05
-0.00030982
-0.00042994
-0.0004541
-0.00046766
-0.00048714
-0.00048705
-0.00048056
-0.00042855
-0.00034399
-0.00037076
-0.00047277
-0.00061347
-0.00065872
-0.00050883
-0.0003802
-0.00027404
-0.00016337
-0.00012
-0.00011612
-5.2073e-05
6.0253e-05
8.1364e-05
1.9364e-05
-6.8628e-05
-0.00020294
-0.00021414
-9.5154e-05
6.6109e-06
2.1269e-05
-3.5414e-06
-5.3458e-05
-5.1614e-05
6.3998e-05
8.2882e-05
3.5458e-05
3.9315e-05
3.6413e-05
0.00014991
0.00034447
0.00048566
0.0005908
0.00059939
0.00054294
0.00055273
0.00048386
0.00031739
0.00016221
9.7839e-05
0.00018182
0.00027218
0.0003931
0.00049111
0.00047409
0.00048487
0.00049114
0.0003462
0.00019402
0.00014358
0.00014315
0.00016307
0.00018922
0.00018518
0.00013882
0.00014253
0.00022444
0.00028853
0.00013348
-0.00011209
-0.00022196
-0.00018201
-0.0001073
7.2938e-06
0.00019142
0.00031394
0.0002985
0.00026167
0.00027022
0.00025902
0.00017778
-3.3728e-05
-0.00030909
-0.0004967
-0.00046449
-0.00032377
-0.0001838
-0.00015543
-0.00030492
-0.00052083
-0.00060478
-0.00057642
-0.00063316
-0.00069836
-0.0007181
-0.00076062
-0.00080138
-0.00078768
-0.00071516
-0.00068417
-0.00076575
-0.00084484
-0.000779
-0.0007087
-0.00076611
-0.00084521
-0.00090762
-0.00099904
-0.00098124
-0.00086716
-0.00075988
-0.00070252
-0.00071025
-0.00069156
-0.00059162
-0.00058716
-0.00067851
-0.00078293
-0.00085535
-0.00078623
-0.00071414
-0.00075464
-0.0007384
-0.00070452
-0.00075752
-0.00086763
-0.00097949
-0.00091993
-0.0008169
-0.00077783
-0.00075704
-0.00074033
-0.00059532
-0.0003011
-1.6765e-07
0.00019103
0.00015433
6.5003e-05
-6.9911e-06
-7.761e-05
-0.00011746
-0.0001314
-0.00014792
-0.00014231
-0.00010064
1.7971e-05
0.00014949
0.0001672
3.5998e-05
-1.733e-05
0.00026885
0.00075633
0.0010478
0.0011372
0.0012214
0.0012386
0.0012507
0.0013922
0.0016236
0.0017269
0.0015934
0.0014636
0.0014949
0.0014444
0.0011668
0.00089263
0.00076257
0.00066628
0.00047551
0.00014756
-0.00020635
-0.00041301
-0.00035837
-0.00021879
-0.00017601
-9.7701e-05
0.00010973
0.00039034
0.00070486
0.00091517
0.0010984
0.0011886
0.00097517
0.00071125
0.00059653
0.00057883
0.00053077
0.00049914
0.00048596
0.00054819
0.00070828
0.00073794
0.00062886
0.00041673
9.2209e-05
-0.00019932
-0.00036072
-0.00069304
-0.0011294
-0.001286
-0.001301
-0.0012058
-0.00099805
-0.00089244
-0.00088636
-0.00086777
-0.00086018
-0.00080859
-0.00076171
-0.00092625
-0.001117
-0.0011213
-0.00096052
-0.00076956
-0.00076737
-0.00097197
-0.0011865
-0.0012964
-0.0012371
-0.0011002
-0.0011957
-0.0012841
-0.0011897
-0.00106
-0.00081125
-0.0006153
-0.00073745
-0.00097057
-0.0011111
-0.0011658
-0.0011205
-0.00096268
-0.00068867
-0.00036669
-2.8122e-06
0.0003296
0.00059255
0.00059765
0.00029871
3.2015e-05
-7.814e-05
-0.0001877
-0.00030391
-0.00047833
-0.0006791
-0.00082313
-0.00086731
-0.00083017
-0.00097679
-0.0012962
-0.0014047
-0.0013322
-0.0012243
-0.0010611
-0.00098791
-0.0008847
-0.00060734
-0.00019847
0.00022475
0.00063549
0.0011461
0.0014962
0.0015062
0.0012302
0.00091873
0.00085932
0.00097136
0.001016
0.0010284
0.0011741
0.0014629
0.0016917
0.0016214
0.0013399
0.00095062
0.00068927
0.00082168
0.0011475
0.001287
0.0012839
0.0012358
0.0012234
0.0013628
0.0014487
0.0012704
0.00090596
0.00051629
0.0003863
0.00055152
0.00065739
0.00065629
0.00064653
0.00066981
0.00082204
0.00096392
0.00091325
0.00066028
0.00040597
0.00028268
0.00031809
0.00049029
0.00064421
0.00068041
0.00067353
0.00075089
0.00088223
0.00092867
0.00079684
0.00052048
0.00025571
0.00019837
0.00032621
0.00039808
0.00037356
0.00033104
0.00028409
0.00026005
0.00020319
2.8735e-05
-0.00021808
-0.000431
-0.00052784
-0.00047997
-0.00037834
-0.00022899
-7.7459e-05
-8.1518e-06
6.2987e-05
0.00016859
0.00022962
8.2546e-05
-0.00021732
-0.00043287
-0.00052372
-0.00049209
-0.00045961
-0.00051901
-0.00053991
-0.00044323
-0.00030296
-0.00022363
-0.00028401
-0.0004777
-0.00062406
-0.00064805
-0.00058294
-0.0004624
-0.00036726
-0.00030027
-0.00022082
-0.00010267
5.9201e-05
0.00013746
3.9331e-05
-7.0708e-05
-0.00012947
-0.00016006
-0.00013575
-5.2139e-05
3.1663e-05
0.00015447
0.00031265
0.00042388
0.00052512
0.00055697
0.00044148
0.00028844
0.00020002
0.00019338
0.00025827
0.00037164
0.00057951
0.00080837
0.00097833
0.0011207
0.0011658
0.0011305
0.0011221
0.0011809
0.0012429
0.0012299
0.0012401
0.0013012
0.001394
0.0014599
0.0014721
0.0014069
0.0011732
0.00092412
0.00080903
0.00077267
0.00069791
0.00064229
0.00062753
0.00063382
0.00065481
0.00072058
0.00081836
0.00079733
0.00066592
0.00057951
0.0005471
0.00051301
0.00049566
0.00050483
0.00053024
0.00059297
0.00064362
0.0007195
0.00069542
0.00049
0.00036662
0.00030949
0.00023213
0.00019229
0.00019428
0.00014665
0.00016766
0.00022203
0.00027206
0.00027286
0.0001231
-1.1903e-05
-8.148e-05
-0.00015782
-0.00023646
-0.00021298
-0.00013848
-5.55e-05
3.511e-05
9.3525e-05
0.00014493
3.1339e-05
-0.00028173
-0.00064918
-0.0009648
-0.0011562
-0.0011938
-0.0011657
-0.0011522
-0.001139
-0.0010832
-0.00097278
-0.00082059
-0.0008324
-0.0009524
-0.00096425
-0.00095657
-0.0010036
-0.0010252
-0.0010197
-0.00090689
-0.00075408
-0.00065023
-0.00051638
-0.00049623
-0.00063418
-0.00073399
-0.00078598
-0.00083591
-0.000832
-0.0007473
-0.00061008
-0.00049493
-0.00042384
-0.00032515
-0.00035081
-0.00049761
-0.00054946
-0.00056604
-0.00061743
-0.00064323
-0.00069368
-0.00074295
-0.00072409
-0.00069378
-0.00063975
-0.00066657
-0.00084604
-0.00096391
-0.00098111
-0.00098455
-0.00097827
-0.00094031
-0.00089151
-0.00076741
-0.00062693
-0.00049801
-0.00032047
-0.00026046
-0.00029246
-0.0002878
-0.00034522
-0.00036086
-0.00027432
-0.00013271
6.1684e-05
0.00024159
0.00034541
0.00046488
0.00056297
0.00047815
0.00033688
0.00027179
0.00026912
0.00033418
0.00050497
0.00073098
0.00091558
0.0010212
0.0010734
0.0011464
0.0012313
0.0012136
0.0011366
0.0010401
0.00093155
0.00094237
0.0010622
0.0011779
0.0012499
0.00115
0.00094225
0.0008692
0.00086438
0.00078936
0.00072219
0.00064404
0.00055256
0.00061535
0.0008523
0.00097779
0.00099345
0.0010027
0.0010032
0.0011121
0.0012274
0.001166
0.0010048
0.00090538
0.00088832
0.0010396
0.0012129
0.001262
0.0012366
0.0011432
0.0011122
0.0012072
0.0011932
0.00096258
0.0007507
0.00060846
0.00056939
0.0007035
0.00076645
0.00068906
0.00059222
0.00042959
0.0003398
0.0004018
0.00028848
6.9387e-05
2.968e-06
8.5502e-05
0.00027199
0.00044292
0.00041794
0.00023329
5.5328e-06
-0.00013346
-5.4242e-05
-8.7507e-05
-0.000393
-0.00067524
-0.00089208
-0.00097573
-0.00082532
-0.00069461
-0.00065187
-0.00060454
-0.00060399
-0.00050931
-0.00033013
-0.00040328
-0.00064055
-0.00085069
-0.0010083
-0.00088952
-0.00058263
-0.00037568
-0.00025345
-0.00025464
-0.00033133
-0.00023165
-0.00019292
-0.0004151
-0.00062676
-0.00074591
-0.0007739
-0.0006072
-0.00047371
-0.00049976
-0.00050588
-0.00048945
-0.00044613
-0.00034926
-0.00046755
-0.00072075
-0.00084112
-0.00080483
-0.00062958
-0.00044144
-0.00030274
-0.00018265
-0.00013386
-1.674e-05
0.00025029
0.00046784
0.00040788
0.00017717
3.0722e-05
6.7297e-05
0.0001876
0.00027186
0.00038902
0.00054857
0.00065709
0.00072074
0.00078727
0.00075847
0.00051463
0.00023031
0.00010181
0.00015765
0.00026532
0.00039807
0.00054786
0.00059601
0.00062937
0.00078757
0.00095091
0.00091742
0.00076009
0.00065365
0.00068617
0.00085327
0.00094413
0.0008609
0.00074047
0.00071003
0.00074661
0.00075857
0.0006195
0.00028747
9.4766e-06
-3.861e-05
0.00012722
0.0003324
0.00045583
0.00044682
0.00041181
0.00051793
0.00069173
0.00070523
0.00042671
5.7464e-05
-0.00012141
-8.4804e-05
-7.0886e-06
-3.9005e-05
-0.00016931
-0.00029153
-0.00030743
-0.00023744
-0.0002157
-0.00041404
-0.00070603
-0.00083745
-0.00079624
-0.00064116
-0.00050066
-0.00046776
-0.00048333
-0.00048362
-0.00044009
-0.00038691
-0.00044444
-0.00061726
-0.00077307
-0.00085301
-0.00079239
-0.00062994
-0.0005429
-0.00054365
-0.00062169
-0.00065104
-0.00063418
-0.00059584
-0.00061769
-0.0008532
-0.00105
-0.001077
-0.0010277
-0.00096165
-0.00093351
-0.00094141
-0.00090758
-0.00084659
-0.00076237
-0.00081713
-0.0010076
-0.0011007
-0.0010834
-0.0010005
-0.00092369
-0.00091598
-0.00087698
-0.0008148
-0.00069557
-0.00051688
-0.00045287
-0.00047285
-0.00043232
-0.00035289
-0.00023647
-0.00011235
-3.876e-05
3.4637e-05
0.00010944
0.00016639
0.0003156
0.00040451
0.00026949
0.00021706
0.00030391
0.00043974
0.00054706
0.0005873
0.00063473
0.00065551
0.00065635
0.00074844
0.00086045
0.00073377
0.00055544
0.00051678
0.0004777
0.00044456
0.00048762
0.00056134
0.00066856
0.00078128
0.00089743
0.0010968
0.001199
0.0010627
0.0010072
0.0011506
0.0012974
0.0014108
0.0014855
0.0014358
0.0014213
0.0014759
0.0014978
0.001473
0.0011911
0.000907
0.00084221
0.0008854
0.00094383
0.00095688
0.00088781
0.00084127
0.00086852
0.00085992
0.00090258
0.00090427
0.00076269
0.000732
0.0008151
0.00091533
0.0010227
0.0010252
0.00097848
0.001012
0.00096995
0.00087432
0.00079831
0.00051413
0.0001999
5.9282e-05
2.3192e-05
0.00011167
0.00013645
0.0001646
0.00031033
0.00034181
0.00026223
0.00023642
8.3539e-05
-0.00021485
-0.00036055
-0.00036334
-0.00025045
-0.00012785
-7.5668e-05
3.5267e-05
0.00010084
3.6981e-05
-3.4134e-05
-0.00025964
-0.00059654
-0.00078634
-0.00082842
-0.00080147
-0.00069975
-0.00062531
-0.00055902
-0.000434
-0.0002703
-4.4498e-05
4.1493e-05
-0.00016265
-0.00026782
-0.00021732
-0.00015783
-6.2545e-05
2.0733e-05
7.6603e-05
0.00015083
0.00016944
0.00019505
0.00028333
0.00018335
-2.8047e-05
-0.00012582
-9.4556e-05
0.0001312
0.0003797
0.00048947
0.00057045
0.00054673
0.0005032
0.00054872
0.00043643
0.00019819
9.9593e-06
-0.00014856
-0.00023029
-0.00024498
-0.00026982
-0.00023867
-0.00016202
-0.00011497
-8.9376e-05
-0.00011094
-0.00010634
-0.00016125
-0.00013243
5.5489e-05
0.00021224
0.00047825
0.00093503
0.001423
0.0016578
0.0017677
0.0018444
0.0017582
0.0014745
0.0011036
0.00089475
0.00088452
0.001029
0.0011842
0.0011412
0.0010261
0.0010367
0.0011672
0.0011371
0.00087394
0.00059868
0.00040807
0.00035973
0.00044114
0.00048644
0.0004501
0.00029884
0.00012477
7.8598e-05
1.2684e-05
-0.00021451
-0.00033166
-0.00036141
-0.00040314
-0.00036782
-0.00026225
-0.00018734
-0.00025038
-0.00037644
-0.00041626
-0.00031202
-0.00031832
-0.00055034
-0.00072382
-0.00079053
-0.00071567
-0.0005186
-0.00041286
-0.0005137
-0.00070986
-0.00087085
-0.00087486
-0.00091067
-0.0011554
-0.0013756
-0.0014874
-0.0014136
-0.001136
-0.00079665
-0.00064404
-0.00077331
-0.00091651
-0.0008898
-0.00082461
-0.00097389
-0.0012555
-0.0014859
-0.0015387
-0.0013185
-0.0011045
-0.001107
-0.0012831
-0.0014311
-0.0013948
-0.0012299
-0.0012865
-0.0015125
-0.0016452
-0.0016015
-0.0013795
-0.0011039
-0.00084726
-0.00071474
-0.00068871
-0.00058186
-0.000321
-0.00021245
-0.00043145
-0.00058572
-0.00056383
-0.00037693
-0.0001111
5.4934e-05
9.9028e-05
0.00012545
0.00017369
0.00030993
0.00038594
0.00021297
1.5873e-05
-3.2863e-06
6.3658e-05
0.00023246
0.00044601
0.00049396
0.00052184
0.0005926
0.0007178
0.001016
0.001081
0.00085549
0.00076583
0.00082317
0.0010853
0.0013456
0.0013431
0.0012997
0.001345
0.0014207
0.0016005
0.0016822
0.0013876
0.0011118
0.0010648
0.0011906
0.0014531
0.0015454
0.0013796
0.0011647
0.0010352
0.0010705
0.0012252
0.0011198
0.00070506
0.00031156
0.00014766
0.00026801
0.00041603
0.00042781
0.00032858
0.00031694
0.00069413
0.0012001
0.0013062
0.00096054
0.0006202
0.00044953
0.00051769
0.00066798
0.00072621
0.00073497
0.00075816
0.00084689
0.0010801
0.0011517
0.00082354
0.00046203
0.00024453
0.00022533
0.00036904
0.00042749
0.00037842
0.00022745
9.6759e-05
0.00012977
0.00024183
0.00017771
-0.00017797
-0.00047034
-0.0005
-0.00034448
-0.00021013
-0.00017969
-0.00019656
-0.00017568
-0.00010531
-8.6288e-05
-0.00024229
-0.00056364
-0.00079364
-0.00081644
-0.00065161
-0.00049811
-0.00036637
-0.00022119
-0.00014236
-0.0001072
-0.00013623
-0.00024198
-0.00047094
-0.00080651
-0.00094851
-0.00084097
-0.00068124
-0.00050676
-0.00034116
-0.00020101
-6.1437e-05
-9.5264e-06
3.9508e-05
0.00013257
0.00015487
0.00016373
0.00014962
6.8785e-05
2.6921e-05
-6.0232e-05
-0.00027268
-0.00038025
-0.00038654
-0.00045137
-0.00050604
-0.00068612
-0.00088879
-0.00087144
-0.00079612
-0.00074935
-0.00068639
-0.00060669
-0.00055589
-0.00057787
-0.00067705
-0.00071388
-0.00058123
-0.00034041
-8.0851e-05
0.00012081
0.00042106
0.00079126
0.0010192
0.001058
0.0010711
0.0011075
0.0011071
0.0010106
0.00084106
0.00074407
0.00077899
0.00093497
0.0010715
0.001123
0.0010841
0.00096171
0.00080524
0.00072985
0.00069706
0.00052424
0.00037222
0.00033585
0.00033748
0.00045983
0.00064805
0.00072521
0.00067149
0.00054359
0.00040705
0.00032085
0.00011544
-0.00012157
-0.00012926
-9.9147e-05
-7.4761e-05
-3.2244e-07
3.6049e-05
-2.2506e-05
-8.5358e-05
-0.00013807
-0.00012595
-0.00019654
-0.00032812
-0.00038717
-0.00051996
-0.00066466
-0.00066177
-0.00036303
0.00017947
0.00051554
0.00055856
0.00048042
0.00031141
0.00021136
0.00015549
6.403e-05
5.5849e-05
0.00022478
0.00042304
0.00049309
0.00047779
0.00050034
0.00061342
0.00069717
0.00062898
0.00044418
0.00017987
5.1988e-05
2.8526e-05
4.5925e-05
6.9363e-05
-0.00014703
-0.00051501
-0.00079249
-0.00099778
-0.0011871
-0.0013462
-0.0013516
-0.0011443
-0.00084252
-0.00047435
-6.9144e-05
0.00025393
0.00036806
0.0003954
0.00041083
7.1938e-05
-0.00052045
-0.0011027
-0.0015653
-0.0019136
-0.0020334
-0.0019722
-0.0020078
-0.0020461
-0.0019234
-0.0015903
-0.0011808
-0.00102
-0.0011708
-0.0013397
-0.0013948
-0.0013797
-0.0011897
-0.00098153
-0.00093375
-0.00091412
-0.00091617
-0.00093416
-0.00098538
-0.0012123
-0.0015085
-0.0017011
-0.001807
-0.0017186
-0.0015555
-0.0015534
-0.0015629
-0.0015054
-0.0013631
-0.0011046
-0.0009435
-0.0010154
-0.0011388
-0.0011859
-0.0010953
-0.00089177
-0.00079691
-0.00076888
-0.00070162
-0.0006119
-0.00048476
-0.00055291
-0.00087012
-0.0010938
-0.0011548
-0.0011233
-0.00090994
-0.00053009
-0.00018471
7.6993e-05
0.00027004
0.00052254
0.00068451
0.00050647
0.00028266
0.00020427
0.00025343
0.00040675
0.00046516
0.00041452
0.00041807
0.00052467
0.00081943
0.0010909
0.001049
0.00083526
0.00071136
0.00076575
0.00095009
0.0010885
0.0010666
0.00095569
0.00098597
0.0012042
0.0013712
0.0012702
0.0010121
0.0008082
0.00073682
0.0008445
0.0009585
0.00094227
0.000851
0.00074339
0.0008011
0.0010148
0.0010812
0.00093763
0.0007009
0.00057371
0.00063295
0.00068203
0.00074816
0.00081996
0.00082221
0.00094922
0.0010957
0.0010554
0.00083526
0.0005453
0.00034812
0.00036561
0.00043528
0.00044543
0.00066172
0.00099731
0.0012282
0.001442
0.0016526
0.0017803
0.0017952
0.0016538
0.0015789
0.0016835
0.0017389
0.0017784
0.0018064
0.0017092
0.0015412
0.0013302
0.0010798
0.00090961
0.00077308
0.00056551
0.00042145
0.00037277
0.00046802
0.00067135
0.00093681
0.0010527
0.0010413
0.0009933
0.0010696
0.0013462
0.0015889
0.0016071
0.0015322
0.0014303
0.0013455
0.0014333
0.0014974
0.0013783
0.0013115
0.00138
0.0015823
0.001816
0.0019337
0.0019091
0.0019297
0.0020051
0.0021668
0.002351
0.0022603
0.0020325
0.0019578
0.0020735
0.002295
0.0023023
0.0020409
0.00187
0.0018052
0.0017518
0.001708
0.0015241
0.0012433
0.0011215
0.0011853
0.0014267
0.001614
0.001438
0.0012002
0.0012002
0.0013114
0.0014112
0.0013512
0.0010807
0.00092313
0.0010413
0.001348
0.0015405
0.0013515
0.0010797
0.0010123
0.0010741
0.0011461
0.0010574
0.00076895
0.00052707
0.00041686
0.00046603
0.00061158
0.00054919
0.00026431
1.7297e-05
-7.0178e-05
-6.9903e-05
-0.00016324
-0.00046627
-0.00080656
-0.0010277
-0.00098125
-0.00077019
-0.00083218
-0.0011855
-0.0015081
-0.0015912
-0.0015813
-0.0015898
-0.0017538
-0.0020604
-0.0023105
-0.0023708
-0.0022723
-0.0023677
-0.0027371
-0.0030603
-0.0031125
-0.0030476
-0.00306
-0.003217
-0.0034265
-0.003529
-0.0034106
-0.0030413
-0.0027164
-0.0027301
-0.0029226
-0.0030797
-0.0030902
-0.0030139
-0.0030047
-0.0030862
-0.0031681
-0.0030724
-0.002719
-0.0024372
-0.0024805
-0.0027176
-0.0029285
-0.0028985
-0.0026844
-0.0025187
-0.0024775
-0.0024374
-0.002294
-0.0020165
-0.0017282
-0.001638
-0.0017297
-0.0018692
-0.0018334
-0.0016571
-0.0015662
-0.0015441
-0.001526
-0.0014962
-0.001348
-0.001089
-0.00096232
-0.0010322
-0.0012205
-0.0013699
-0.0012378
-0.00097447
-0.00067437
-0.0002032
0.00027593
0.00065835
0.00097035
0.001097
0.0010761
0.0009572
0.00076507
0.0006498
0.00052033
0.00045139
0.00053033
0.00051573
0.0005823
0.0008491
0.00092242
0.00084809
0.00073826
0.0005396
0.00046795
0.00056049
0.00053673
0.00045589
0.00038674
0.00041406
0.00054733
0.00059139
0.00054688
0.0004827
0.0003109
0.00016643
4.6537e-05
-0.00018351
-0.00037796
-0.000527
-0.00059514
-0.00047831
-0.00032063
-0.0002766
-0.00031552
-0.00048547
-0.00063302
-0.00066167
-0.00070771
-0.00069063
-0.00062147
-0.00057176
-0.00050452
-0.0004756
-0.0004757
-0.00045911
-0.00053319
-0.00061922
-0.00056676
-0.00058858
-0.00062654
-0.00057222
-0.00056326
-0.00055985
-0.00058824
-0.00067138
-0.00072087
-0.00075227
-0.00067162
-0.00050988
-0.00048388
-0.00045639
-0.0003157
-0.00018805
-9.1634e-05
-5.5119e-05
-8.9949e-05
-9.0997e-05
-0.00010184
-0.00016983
-0.00021933
-0.00032541
-0.00041629
-0.00036545
-0.00026968
-9.0904e-05
0.00011298
0.00023261
0.00037675
0.00050401
0.00059038
0.00078201
0.00092502
0.00096149
0.0011179
0.0013015
0.0014675
0.0016602
0.0017859
0.0018964
0.0020298
0.0021097
0.002211
0.0022583
0.0022112
0.002271
0.0024798
0.0026611
0.0027824
0.0028516
0.0029015
0.0029303
0.0028074
0.0026706
0.0025961
0.0024408
0.0023642
0.0024708
0.0025894
0.0026494
0.0026247
0.0025534
0.0025503
0.0025026
0.0023888
0.0022691
0.0020728
0.0019242
0.0019417
0.0020407
0.0020444
0.0019459
0.0019236
0.0020731
0.0022315
0.0022993
0.0023572
0.0023352
0.0023285
0.002485
0.0027245
0.0028714
0.0027689
0.0024609
0.0021169
0.0018309
0.0015948
0.0014079
0.001193
0.0009328
0.00083558
0.0010167
0.001212
0.0011852
0.00099661
0.00081671
0.0007134
0.00057681
0.00039134
0.00019781
4.1486e-05
-6.7005e-05
-0.00012962
-7.4861e-05
-2.7527e-06
-5.6539e-05
-0.00015876
-0.00028596
-0.00049335
-0.00084726
-0.0012339
-0.001551
-0.001741
-0.0017921
-0.0016069
-0.001316
-0.0011723
-0.0010754
-0.00091525
-0.00062649
-0.00039566
-0.00034732
-0.00033259
-0.00034009
-0.00033442
-0.00020821
-0.00019316
-0.0003282
-0.00043927
-0.00046291
-0.00038926
-0.0003897
-0.00058157
-0.00083786
-0.0010351
-0.001154
-0.0011434
-0.0011086
-0.0011037
-0.0010281
-0.00081474
-0.00049231
-0.00021383
-0.00026109
-0.0004303
-0.00048508
-0.00052692
-0.00056288
-0.00063173
-0.00075966
-0.000844
-0.00088076
-0.00087132
-0.00072758
-0.00065326
-0.00071277
-0.00064285
-0.00038488
0.00013223
0.00065878
0.0008358
0.0008441
0.00095043
0.0011696
0.0014159
0.0014649
0.0012758
0.0011492
0.0011712
0.0012856
0.0013983
0.0012928
0.0011435
0.0011554
0.0013535
0.0016097
0.0015883
0.0012241
0.00088065
0.00075541
0.00077362
0.00077484
0.00052037
0.00013958
-4.8295e-05
-4.7397e-05
0.00010618
0.00014915
-0.00012643
-0.00040027
-0.00040993
-0.0001912
9.4076e-05
0.00016078
6.0051e-05
0.00012255
0.00035902
0.00070251
0.00088125
0.00060081
0.00011298
-0.00021615
-0.00024202
-0.00013258
-0.00014789
-0.0002805
-0.00040043
-0.00042784
-0.00027936
-0.00017182
-0.00036465
-0.00072264
-0.0010773
-0.0012263
-0.0011922
-0.0012589
-0.0013777
-0.0015015
-0.0016108
-0.0015622
-0.0014235
-0.0014398
-0.0015767
-0.0017125
-0.0018225
-0.0017422
-0.0016435
-0.0016953
-0.0017137
-0.0017068
-0.0016854
-0.0015933
-0.0015921
-0.0017507
-0.002033
-0.002305
-0.002353
-0.00244
-0.0026506
-0.0027618
-0.0027979
-0.0026478
-0.0022881
-0.0019812
-0.0017534
-0.001621
-0.0016555
-0.0016206
-0.0015023
-0.0015056
-0.0015189
-0.0015305
-0.0015096
-0.0013454
-0.0011926
-0.0011105
-0.0010892
-0.0011381
-0.0011112
-0.001055
-0.0011429
-0.0012181
-0.0011629
-0.0010887
-0.0010249
-0.000957
-0.00087608
-0.00083528
-0.00091028
-0.0010646
-0.0011926
-0.001306
-0.0014051
-0.001401
-0.0013653
-0.0012975
-0.0012169
-0.001143
-0.0010252
-0.0009499
-0.00099025
-0.0010608
-0.001103
-0.0010888
-0.00095203
-0.00077087
-0.00064905
-0.00056773
-0.00049695
-0.00042585
-0.000462
-0.0006801
-0.00089798
-0.0010477
-0.0011033
-0.00096437
-0.00069032
-0.00040553
-0.00021776
-7.7582e-05
0.00013766
0.00035906
0.00045258
0.0003347
5.4038e-05
-0.00011865
-0.00015118
-0.00010528
6.9053e-06
3.6013e-05
3.2116e-05
0.00016637
0.0003425
0.00047408
0.00046762
0.00028974
0.00011556
5.4458e-05
8.6721e-05
0.00011132
3.3881e-06
-0.00014609
-0.0001649
-7.4744e-05
-3.2433e-05
-0.00014782
-0.00050298
-0.00088293
-0.0010854
-0.0011344
-0.0010379
-0.00098116
-0.0010831
-0.0011182
-0.0010496
-0.00095563
-0.00091322
-0.0011287
-0.0014849
-0.0017197
-0.0017517
-0.0015939
-0.001447
-0.0015033
-0.0016718
-0.0017298
-0.0016777
-0.0015686
-0.0015935
-0.0018078
-0.0019136
-0.0017254
-0.0014317
-0.0013285
-0.0014996
-0.0017835
-0.0018634
-0.0017162
-0.0015433
-0.0015921
-0.0019083
-0.0022162
-0.0023057
-0.0020583
-0.0016348
-0.0014019
-0.0013757
-0.001332
-0.001167
-0.00092002
-0.00083955
-0.0010322
-0.0013002
-0.0014216
-0.0013626
-0.0012516
-0.0012691
-0.0014118
-0.001397
-0.0011812
-0.0009254
-0.0007266
-0.00073738
-0.00086894
-0.00095375
-0.00084982
-0.00049871
-0.00019184
-4.6834e-05
0.00011766
0.00025674
0.00045384
0.00069176
0.00074766
0.0007527
0.0008722
0.0011148
0.001532
0.0019625
0.0021908
0.002366
0.0026191
0.0028557
0.0029577
0.0027778
0.0024391
0.002177
0.0019561
0.0017464
0.00153
0.0011798
0.00088055
0.00091104
0.00103
0.00088996
0.000479
-9.1605e-06
-0.0002864
-0.00024543
8.0301e-05
0.0004904
0.00079802
0.0010748
0.0013227
0.0016234
0.0022148
0.0026326
0.0026537
0.0025827
0.0025523
0.0025541
0.0023935
0.0021053
0.0019146
0.0018505
0.0019053
0.0020132
0.0019002
0.0016048
0.0013142
0.0011413
0.0011266
0.0010598
0.00085786
0.00073087
0.00087717
0.0012657
0.0017116
0.0018781
0.0017462
0.0016495
0.0016345
0.001699
0.0016758
0.0013859
0.0011371
0.0010149
0.00093318
0.0010264
0.00099728
0.00060867
0.00023582
9.8385e-05
0.00022983
0.00040428
0.00024645
-4.8167e-05
-0.00016647
-5.5409e-05
0.00028464
0.00060665
0.00062687
0.00046545
0.00036689
0.0004839
0.0008642
0.0010791
0.00095853
0.00086056
0.00095975
0.0012812
0.0015649
0.0016049
0.0014509
0.0011983
0.001092
0.0012805
0.0013868
0.0012212
0.0010473
0.001023
0.001137
0.0013667
0.0014599
0.001391
0.0012964
0.0012127
0.0012595
0.0013658
0.0014611
0.0016061
0.0017311
0.001701
0.0014318
0.0010767
0.00081808
0.00074125
0.00079572
0.0008693
0.00087187
0.00083302
0.00090094
0.0010641
0.0011267
0.001073
0.00098473
0.00095707
0.0010427
0.0012281
0.0014225
0.0014624
0.0013867
0.0013702
0.0015256
0.0016629
0.0015625
0.0013227
0.0011551
0.0011469
0.0013078
0.001587
0.0016811
0.0014738
0.0012489
0.0012073
0.0013308
0.0013178
0.0010686
0.00089982
0.00091172
0.0010425
0.0011855
0.0010536
0.0006516
0.00032994
0.00019512
0.00028362
0.00046216
0.00027854
-0.00011939
-0.00036457
-0.00040895
-0.00027793
-0.0003223
-0.00067067
-0.0010232
-0.0011799
-0.0010173
-0.00084597
-0.0010166
-0.0012999
-0.0013803
-0.0012564
-0.0010544
-0.00088755
-0.00092743
-0.0011276
-0.001304
-0.0012498
-0.0010513
-0.0011276
-0.0014869
-0.0018412
-0.0019788
-0.0018982
-0.0018864
-0.0020768
-0.0021764
-0.0021306
-0.0019715
-0.0017328
-0.0017542
-0.0019959
-0.0020159
-0.0018447
-0.0014234
-0.00097082
-0.00091101
-0.0010162
-0.0011233
-0.0011864
-0.001137
-0.0011212
-0.00132
-0.0015425
-0.0016948
-0.0017821
-0.0019258
-0.0022465
-0.0025655
-0.0027673
-0.0027828
-0.0026138
-0.002506
-0.0026062
-0.0027737
-0.0028383
-0.0027098
-0.0025294
-0.0025388
-0.0026157
-0.0025927
-0.0025201
-0.0022882
-0.0020002
-0.0018887
-0.0018876
-0.0018747
-0.0017457
-0.0016077
-0.0016826
-0.0018669
-0.0020239
-0.0021726
-0.0021387
-0.0019717
-0.0019415
-0.0019808
-0.0020109
-0.0019388
-0.0017519
-0.0017041
-0.0017945
-0.0019058
-0.0020262
-0.0019791
-0.0018015
-0.0016946
-0.0016752
-0.0018103
-0.0018485
-0.0015645
-0.0012771
-0.0011302
-0.00097331
-0.00078998
-0.00051336
-0.00021681
-3.3578e-05
2.8236e-05
2.468e-07
-1.2433e-05
8.6266e-05
7.8324e-05
-8.1212e-05
-0.0002174
-0.00032663
-0.0003548
-0.0002196
-4.8211e-05
0.00014852
0.0003208
0.00043857
0.00066636
0.00080425
0.00073501
0.00065376
0.00061497
0.00061889
0.0006161
0.00056817
0.00059153
0.00069309
0.00077126
0.0008412
0.00084037
0.00073809
0.00065536
0.00062825
0.00063828
0.00066053
0.00063052
0.0006156
0.00067501
0.00067761
0.00066279
0.00061756
0.00047306
0.00033114
0.00023359
0.00019366
8.3617e-05
-0.00011115
-0.0003048
-0.00039459
-0.000362
-0.00031632
-0.00029874
-0.0002576
-0.00021524
-0.0001734
-0.00013852
-0.00024784
-0.00042928
-0.00052102
-0.0005213
-0.0005875
-0.00081332
-0.0011344
-0.0014677
-0.001661
-0.0016554
-0.0014922
-0.0013866
-0.0014644
-0.001501
-0.001399
-0.0012988
-0.0012478
-0.0012335
-0.0011809
-0.0010263
-0.00081237
-0.00056012
-0.00037999
-0.00033133
-0.00023079
2.6259e-05
0.00036416
0.0005986
0.00063954
0.0006114
0.00061673
0.00071581
0.00085282
0.00077385
0.00046323
0.00025613
0.00026297
0.00042325
0.00049917
0.00033524
0.00022433
0.000283
0.00045754
0.00075748
0.00098388
0.00096617
0.0008893
0.00097147
0.0012761
0.0016435
0.0017225
0.0016105
0.001616
0.0017855
0.0021201
0.00231
0.0021216
0.0018184
0.0016748
0.0018039
0.0020527
0.0020578
0.0017885
0.0015613
0.0015832
0.0018403
0.0020711
0.0020037
0.001795
0.0017372
0.0019303
0.0023064
0.0024898
0.0023302
0.002147
0.0021001
0.0023099
0.002581
0.0024871
0.0021747
0.0019177
0.0018677
0.0021213
0.0022374
0.0019532
0.0015973
0.0014074
0.0014585
0.0015163
0.0012763
0.00090292
0.00060865
0.00049923
0.00066901
0.00076799
0.0005637
0.00034104
0.00027052
0.00040228
0.00061035
0.00056239
0.00036907
0.00021699
0.00011234
0.00022776
0.00042626
0.00027163
-0.00011511
-0.00032998
-0.00028711
-0.00014571
-0.00018327
-0.00036013
-0.00058086
-0.00080975
-0.0008567
-0.00080578
-0.00086638
-0.00097772
-0.0011308
-0.0011788
-0.00099828
-0.00086508
-0.00086471
-0.00092001
-0.00098639
-0.00092714
-0.00082425
-0.00083718
-0.0010126
-0.0013928
-0.0017063
-0.0017327
-0.0017501
-0.0018417
-0.001958
-0.0020605
-0.0019166
-0.0017324
-0.0016826
-0.0016653
-0.0017029
-0.0016896
-0.0015804
-0.0016131
-0.0017203
-0.0017951
-0.0019168
-0.0019913
-0.0019731
-0.001923
-0.0017811
-0.001688
-0.0016763
-0.0014931
-0.0012498
-0.0010971
-0.00094478
-0.00077615
-0.00058442
-0.00046787
-0.00047755
-0.0003701
-0.00029464
-0.00042637
-0.00047546
-0.00043209
-0.00036895
-0.00026565
-0.00017877
-8.4049e-05
-7.0305e-05
-0.00015398
-0.00010597
6.7409e-05
0.00013449
0.00023398
0.00031842
0.00025384
0.00015381
-4.4322e-05
-0.00020857
-0.00017167
-3.3583e-05
0.00014222
0.00024947
0.00023077
0.0002591
0.00030293
0.00025504
0.00026705
0.0002869
0.00031757
0.00041605
0.00054124
0.0007129
0.00078829
0.00049464
0.00029565
0.00043143
0.00072179
0.0010303
0.001111
0.0010328
0.00088625
0.00061621
0.00034029
0.00041428
0.000738
0.00093822
0.0010424
0.0011464
0.0012165
0.0012186
0.001163
0.00097916
0.0006879
0.00045031
0.00036388
0.00040228
0.00039626
0.00029925
0.00021412
0.00014956
6.7273e-05
3.9588e-05
-2.0819e-05
-0.00029986
-0.00054909
-0.0005735
-0.00044868
-0.00038834
-0.00052532
-0.00062624
-0.00057684
-0.00050119
-0.00042281
-0.00045603
-0.00063086
-0.00076285
-0.00080062
-0.00072653
-0.00057686
-0.00064035
-0.0008311
-0.00090206
-0.00090824
-0.00084359
-0.00082317
-0.00098871
-0.0011102
-0.0010917
-0.00098437
-0.00070118
-0.00050924
-0.00051791
-0.00053156
-0.00053769
-0.00052614
-0.0005705
-0.0008072
-0.0012136
-0.0016024
-0.0019088
-0.0020187
-0.001978
-0.0020066
-0.0019761
-0.0018384
-0.0016631
-0.0015139
-0.0015269
-0.0016841
-0.0018551
-0.0019738
-0.0020077
-0.0020302
-0.0021104
-0.0021645
-0.0021091
-0.0018519
-0.0015426
-0.0014456
-0.0014807
-0.0015253
-0.0015808
-0.0016754
-0.0016689
-0.0015443
-0.0013921
-0.0010973
-0.00052065
0.00019142
0.00058866
0.00060976
0.00036879
-5.7113e-05
-0.00026821
-0.00026254
-0.00031053
-0.00035957
-0.00034575
-0.00026176
-0.00014022
-0.00019176
-0.00028604
-0.00013834
1.8452e-05
-3.436e-05
-0.00018159
-0.00039279
-0.00038706
-8.7276e-05
0.00023276
0.00054653
0.00090511
0.0010233
0.00093176
0.00071046
0.0004951
0.00031472
3.5233e-05
-0.00021216
-0.00035829
-0.00038763
-0.00019658
5.7537e-06
0.00018297
0.00046837
0.00063601
0.00071682
0.0008038
0.0008001
0.00081889
0.00090272
0.00098798
0.0011025
0.0012156
0.0013152
0.0014263
0.0013997
0.0012804
0.0011734
0.0010198
0.00091973
0.00087571
0.0008303
0.00095381
0.0011263
0.0011966
0.0012845
0.0013233
0.0012584
0.0011882
0.0010512
0.00092596
0.00082962
0.00059893
0.00039539
0.00026963
0.00010112
-2.575e-05
-9.9541e-05
-0.00017212
-0.00029946
-0.0004895
-0.00053072
-0.00041252
-0.00037699
-0.00038761
-0.00039479
-0.00042957
-0.00035571
-0.00015554
1.08e-05
-8.3473e-05
-0.00031175
-0.00040694
-0.00034471
-0.00025806
-0.00025415
-0.00030712
-0.00030209
-0.0002329
-7.2313e-05
9.5787e-05
-7.282e-06
-0.00032931
-0.00064342
-0.00087716
-0.0010063
-0.0012023
-0.0015376
-0.0017595
-0.0018144
-0.0016365
-0.0012731
-0.0012085
-0.001361
-0.0014238
-0.0014255
-0.001371
-0.0013109
-0.0014687
-0.0016734
-0.0017403
-0.0016555
-0.0012543
-0.00079165
-0.00065381
-0.00068121
-0.00066612
-0.00052342
-0.00043269
-0.00053033
-0.00066278
-0.00068175
-0.00070609
-0.00066788
-0.00082013
-0.0011661
-0.0013338
-0.0013053
-0.0011243
-0.00089341
-0.00084404
-0.00078331
-0.00054676
-0.00022036
0.00013187
0.00033763
0.00041469
0.00048699
0.00057137
0.00075749
0.00094921
0.00098508
0.00095395
0.00092013
0.00091125
0.00090951
0.00080434
0.00055694
0.00036832
0.0003423
0.00048697
0.00062712
0.00061253
0.00054823
0.00057675
0.00074765
0.00087689
0.00083371
0.00070809
0.00059732
0.0006082
0.00081495
0.0010362
0.0011093
0.0011258
0.001103
0.0012087
0.0014121
0.0013833
0.0012209
0.00098275
0.00076651
0.00074331
0.00070673
0.00057112
0.0004521
0.0002853
0.00029948
0.0005021
0.00051605
0.00047446
0.00043315
0.00041865
0.0005453
0.00070556
0.00088537
0.0010376
0.0010364
0.0010728
0.0012352
0.0013622
0.001508
0.0017358
0.0019541
0.002005
0.0018352
0.001667
0.0016274
0.0015577
0.0013544
0.0010623
0.000709
0.00041516
0.00028106
0.00022631
2.4246e-05
-0.00033288
-0.00052365
-0.00040272
-0.0001593
-0.00012744
-0.00038592
-0.00065845
-0.00073687
-0.0005933
-0.00039341
-0.00045827
-0.00069949
-0.00077586
-0.00056812
-0.00019918
4.5085e-05
0.0001084
0.00018066
0.00035104
0.0005801
0.00081066
0.00084373
0.00061765
0.00038476
0.0003256
0.00049798
0.00063767
0.00050478
0.00032676
0.00027964
0.00037819
0.00051497
0.00044094
0.00010658
-0.00022834
-0.00035339
-0.00024831
-9.4981e-05
-0.00017513
-0.00030713
-0.00031614
-0.00019924
-3.0652e-05
-2.7496e-05
-0.00021759
-0.00045685
-0.00059013
-0.00050669
-0.00045481
-0.00064832
-0.00096784
-0.0012752
-0.0014361
-0.0015331
-0.0017033
-0.0019034
-0.0019728
-0.0017247
-0.0011462
-0.00023422
0.00065136
0.0010106
0.0010346
0.0011832
0.0013762
0.0013138
0.0010881
0.00077917
0.00041226
0.00019473
0.00015191
0.00013623
6.8013e-05
-8.5258e-05
-0.00025559
-0.00032855
-0.00045549
-0.00077136
-0.0011041
-0.0012964
-0.0013952
-0.0014855
-0.0015311
-0.0014797
-0.0014308
-0.0014818
-0.0014687
-0.0013804
-0.0014382
-0.0015734
-0.0017094
-0.0018439
-0.0019252
-0.0019208
-0.001812
-0.0016435
-0.0015169
-0.001491
-0.0015831
-0.0017664
-0.0020032
-0.002102
-0.0020467
-0.0020422
-0.0019597
-0.0017765
-0.0015934
-0.0014594
-0.0013905
-0.0014105
-0.0014188
-0.0014497
-0.0014834
-0.0015182
-0.0016177
-0.0016803
-0.0016508
-0.0014978
-0.0012174
-0.0010367
-0.0010437
-0.0010713
-0.0011109
-0.0011539
-0.0011523
-0.0012418
-0.0014613
-0.0015908
-0.0015147
-0.0012354
-0.0010563
-0.0011702
-0.0013513
-0.0014928
-0.0016122
-0.001774
-0.0020562
-0.0023355
-0.0024537
-0.0023874
-0.0021121
-0.001821
-0.0018142
-0.0018996
-0.0018528
-0.0017725
-0.0017786
-0.0019667
-0.0022634
-0.0023934
-0.0022157
-0.0018386
-0.00155
-0.0015561
-0.0016341
-0.0015075
-0.0012965
-0.0011235
-0.0011615
-0.0014154
-0.001537
-0.0014389
-0.0012196
-0.0010719
-0.0012224
-0.0015511
-0.0018698
-0.0022145
-0.002586
-0.0028232
-0.0026983
-0.0020756
-0.0013206
-0.00062144
1.3695e-05
0.00041488
0.00055765
0.00049858
0.00040266
0.00028703
0.00019272
0.00026034
0.00042578
0.00060983
0.00088628
0.0010431
0.001003
0.0010029
0.00097766
0.00093599
0.00096623
0.000874
0.00091598
0.0011379
0.0012945
0.0014783
0.0016022
0.0016342
0.0016871
0.0017517
0.0017829
0.0017881
0.0016242
0.001445
0.0014201
0.0014386
0.0014804
0.0014613
0.0013896
0.0013568
0.0013511
0.0012835
0.0012199
0.0011903
0.001148
0.0011618
0.0012785
0.0013212
0.0011613
0.00093173
0.00072975
0.00061379
0.00049543
0.00027761
0.00011377
4.8805e-05
2.5757e-05
0.00019649
0.00041469
0.00039111
0.00031358
0.00025824
0.00027868
0.00036922
0.00019986
-0.0001572
-0.00037652
-0.00045633
-0.00037738
-0.00031975
-0.00050498
-0.00072313
-0.00081425
-0.00074303
-0.00051935
-0.0004497
-0.00060217
-0.00073778
-0.00077355
-0.00069385
-0.00061633
-0.00065731
-0.00072602
-0.0007378
-0.00059959
-0.00035964
-0.00028322
-0.00037256
-0.00048447
-0.0005824
-0.00060298
-0.00051388
-0.00041032
-0.00032692
-0.00021406
-1.863e-05
0.00023538
0.00035632
0.00031633
0.00021366
0.00018908
0.00035672
0.00050707
0.0004978
0.0005076
0.00052596
0.00057568
0.00078413
0.00096285
0.0010061
0.001008
0.0010225
0.0011626
0.0013183
0.0013091
0.0013078
0.0014148
0.0014881
0.0014809
0.0013799
0.0012965
0.0012859
0.0012363
0.0011784
0.0011331
0.00099227
0.00086377
0.00085689
0.00084461
0.00078092
0.00068391
0.00062634
0.00069068
0.0007917
0.00083355
0.00080212
0.00071497
0.00069561
0.00079033
0.00094375
0.00090784
0.00069604
0.00054575
0.0005844
0.00076954
0.00089224
0.00086604
0.0007756
0.00070606
0.00079193
0.0010177
0.0011245
0.001065
0.0010003
0.00093961
0.00096591
0.00095282
0.00061435
0.00013651
-0.00017792
-0.00033396
-0.00026093
-0.00018893
-0.00034348
-0.00049695
-0.00059252
-0.00051784
-0.00028103
-0.00027237
-0.00050507
-0.00072277
-0.00078079
-0.00063979
-0.0005643
-0.00066906
-0.00080189
-0.00094912
-0.00094231
-0.00064889
-0.00044651
-0.00042609
-0.00040644
-0.00033765
-0.00016945
-6.1995e-05
-0.00011736
-0.00017784
-0.00020628
-0.00013414
5.6217e-06
-4.1712e-05
-0.00028708
-0.00056547
-0.00078882
-0.00092989
-0.00097243
-0.00092051
-0.00076619
-0.00054988
-0.00021939
0.00017291
0.00036048
0.00028193
0.00012052
7.5311e-05
0.00017029
0.0001415
-0.00013383
-0.00048941
-0.00081216
-0.00095229
-0.00091802
-0.0008807
-0.00088057
-0.0010211
-0.0012147
-0.0011373
-0.00093319
-0.00088357
-0.00083888
-0.00068021
-0.00041123
-0.00016017
-6.3046e-05
9.0924e-05
0.00022256
0.00017108
0.00015606
0.00018916
0.00011563
8.1367e-05
0.00013205
0.0002167
0.00027634
0.00024424
0.00023868
0.00026963
0.00015854
4.8617e-05
2.1062e-05
-6.3465e-05
-0.00017282
-0.00026062
-0.00022896
-0.0001758
-0.00027361
-0.0003204
-0.00019371
-6.1768e-05
0.00010371
0.00029117
0.00026632
0.00014139
0.00010315
8.4204e-05
-1.5917e-07
-0.0001098
-0.0001591
-8.0504e-05
-7.6953e-06
-0.00020651
-0.00055861
-0.00075142
-0.00077831
-0.00076012
-0.00079305
-0.00095405
-0.0010652
-0.00094511
-0.0006398
-0.00025185
-1.6152e-05
-1.1378e-05
7.3189e-05
0.00024458
0.0003755
0.00045234
0.00031476
0.00010303
2.1153e-05
5.6785e-05
0.00022516
0.00024031
-7.8556e-05
-0.00028261
-0.00030279
-0.0002535
-0.00016699
-0.000339
-0.00068651
-0.00085896
-0.00071825
-0.0003198
-2.448e-05
-0.00021115
-0.00049363
-0.00053536
-0.00034679
-4.0988e-05
-0.00011477
-0.00048192
-0.00068241
-0.00057096
-0.00018729
0.00015397
5.6628e-05
-0.0004163
-0.00080898
-0.00094879
-0.00090254
-0.0010598
-0.0013754
-0.0015277
-0.0014556
-0.00097692
-0.00034595
-5.823e-05
-4.9758e-05
-6.7663e-05
0.00010377
0.00036623
0.00032215
9.2849e-05
2.8086e-05
0.00015374
0.00046097
0.00073128
0.00073601
0.00061545
0.00047547
0.00051853
0.00069613
0.00069999
0.00058637
0.00055765
0.00069178
0.0009447
0.0010579
0.00095227
0.00080721
0.00070247
0.00088564
0.0011229
0.0010061
0.00076307
0.00057835
0.00051551
0.00074757
0.0010193
0.0011328
0.0011914
0.0011063
0.0011521
0.0013202
0.001253
0.0011309
0.0010994
0.0010997
0.0012148
0.0012575
0.0011789
0.0011317
0.0010382
0.00097618
0.0010645
0.0010464
0.00095567
0.00093202
0.00087031
0.00092552
0.0010724
0.0012154
0.0014563
0.0015911
0.0016148
0.0016669
0.0015675
0.0014154
0.001354
0.001251
0.0011024
0.00085794
0.00060762
0.00046139
0.00022896
5.9499e-06
-9.3253e-05
-0.00026967
-0.00035095
-3.7877e-05
0.00043547
0.00065247
0.00061394
0.0005084
0.00055263
0.00068332
0.00075915
0.00077397
0.00074236
0.00074088
0.00084998
0.0010257
0.0010338
0.00085606
0.00073156
0.00081033
0.0010374
0.0011466
0.0010374
0.00092847
0.00098257
0.0012944
0.0016689
0.0016789
0.0015065
0.0014014
0.0014177
0.0016608
0.0018736
0.0016228
0.0012173
0.00099057
0.00094778
0.0010385
0.00086434
0.00031123
-0.00015784
-0.00028638
-0.00011202
1.8937e-05
-0.00015563
-0.00044454
-0.00063356
-0.00073437
-0.00096659
-0.001368
-0.001721
-0.0017846
-0.0015745
-0.0011337
-0.0008568
-0.0010461
-0.0013403
-0.0013985
-0.0012607
-0.00096802
-0.00097512
-0.0014255
-0.001818
-0.001995
-0.001893
-0.0016703
-0.0018237
-0.0021589
-0.0022142
-0.0020074
-0.001699
-0.0016628
-0.0018531
-0.002007
-0.0020838
-0.0019725
-0.0018171
-0.0019141
-0.0021055
-0.0022638
-0.0023262
-0.0021894
-0.0021815
-0.0023689
-0.0025822
-0.0027705
-0.0027843
-0.0026303
-0.0025663
-0.0025571
-0.0025786
-0.0025126
-0.0022122
-0.0020529
-0.0021002
-0.0021114
-0.0020874
-0.0018766
-0.0015405
-0.00132
-0.0011395
-0.00098125
-0.00080093
-0.00047974
-0.00029027
-0.00027678
-0.00025903
-0.00026007
-0.00020199
-1.9383e-05
0.00017443
0.00043826
0.00070254
0.00076183
0.00079831
0.00077985
0.00065044
0.00062886
0.00056991
0.00050763
0.00050868
0.00047572
0.00059272
0.00081249
0.00095865
0.0012259
0.0015095
0.0017349
0.0020106
0.002241
0.0023429
0.0023662
0.0022906
0.0023746
0.0025746
0.0025308
0.0023534
0.0021555
0.0019487
0.0018607
0.0019134
0.0018771
0.0016278
0.0013584
0.0012975
0.0014867
0.0017302
0.0017829
0.0016882
0.0016524
0.001747
0.0019217
0.0020609
0.0019327
0.001651
0.0015512
0.001721
0.0019475
0.0019748
0.001804
0.0016557
0.0016443
0.0017233
0.001706
0.0012962
0.00069289
0.00028244
0.00011941
0.00030303
0.00054628
0.00035807
8.5285e-05
1.7004e-05
9.4152e-05
0.00026691
0.00011354
-0.00028992
-0.00055185
-0.00065628
-0.00057995
-0.00044454
-0.00056107
-0.00081928
-0.00098603
-0.00096235
-0.00071028
-0.0005844
-0.00097171
-0.0014416
-0.0016793
-0.0016949
-0.001588
-0.0017468
-0.0021214
-0.0022839
-0.0021182
-0.0016476
-0.0013143
-0.0014719
-0.0017693
-0.0019277
-0.0019378
-0.0017047
-0.0016399
-0.0019895
-0.0022841
-0.0022998
-0.0020846
-0.001894
-0.0019557
-0.0020989
-0.0021306
-0.0018897
-0.0014087
-0.0011057
-0.001161
-0.0012537
-0.0012064
-0.0010443
-0.00075947
-0.0008294
-0.0012721
-0.0015466
-0.0015656
-0.0013444
-0.0011403
-0.0012206
-0.0014071
-0.0014166
-0.0011305
-0.00070519
-0.00057405
-0.00065515
-0.00068211
-0.00066762
-0.00044069
-7.8946e-05
5.0376e-05
-2.3705e-05
-0.00017365
-0.00023926
-0.00012388
-0.00018392
-0.0005443
-0.00071584
-0.00065136
-0.00051931
-0.00050472
-0.0006509
-0.00075193
-0.00081585
-0.00087906
-0.0007955
-0.00079949
-0.00092781
-0.0009143
-0.00069767
-0.00040503
-0.00016644
1.1772e-05
0.00018503
0.00041752
0.00061538
0.00080627
0.00097852
0.00095237
0.00080637
0.00070662
0.00071978
0.00067885
0.00047661
0.00031779
0.00033244
0.00045965
0.00053125
0.00036949
5.4842e-05
-0.00022044
-0.00036451
-0.00038455
-0.00053242
-0.00086642
-0.0011347
-0.0011835
-0.00095801
-0.00073117
-0.00080405
-0.00090705
-0.00084653
-0.00074854
-0.00063609
-0.00051511
-0.00052069
-0.0005724
-0.00049804
-0.00027413
-0.0001447
-0.00022913
-0.00038529
-0.00050611
-0.00062415
-0.00065606
-0.00068541
-0.00085414
-0.00094561
-0.00092189
-0.00073803
-0.00044077
-0.00043607
-0.00056208
-0.00045689
-0.00021831
0.00015323
0.00041293
0.00039287
0.00032719
0.00032056
0.00045283
0.0007054
0.00063712
0.00030785
7.5911e-05
-0.00013382
-0.00025723
-0.00024959
-0.00046968
-0.00080216
-0.00098499
-0.0010704
-0.00084889
-0.00052763
-0.00054535
-0.00055475
-0.00030547
0.00015808
0.0005764
0.00060822
0.00043505
0.00041134
0.0005212
0.00081469
0.0011116
0.0010356
0.00077013
0.000542
0.00043092
0.00050983
0.00044209
0.00021951
0.0001949
0.00031116
0.00055789
0.00077014
0.00066579
0.00047017
0.0003372
0.00026421
0.00036529
0.00035665
6.9398e-05
-0.00013779
-0.00014756
4.579e-05
0.00038861
0.00047167
0.00035052
0.00023465
0.00024149
0.00046023
0.00050217
0.00031014
0.00020072
0.00015922
0.00022695
0.0003828
0.00036421
0.00026473
0.0002494
0.00027676
0.00038186
0.00042522
0.00026172
0.00013312
0.0001205
0.00021258
0.00036538
0.00037193
0.0002055
-5.06e-07
-0.00023549
-0.0004262
-0.00056605
-0.00070763
-0.00073029
-0.0006139
-0.00042628
-0.00017314
-5.7713e-05
-6.6274e-05
-3.9871e-05
-6.1109e-05
-0.00010694
-0.00012753
-0.00030282
-0.00041556
-0.00025587
0.00010545
0.00051112
0.00066036
0.00064934
0.00079117
0.00095642
0.00094456
0.00080589
0.00057964
0.00040851
0.00041137
0.00052247
0.00051207
0.00027649
5.4612e-05
0.0001198
0.00037092
0.00054545
0.00053012
0.00033487
0.0002509
0.0004316
0.00075303
0.001037
0.001088
0.00094416
0.00092272
0.0011083
0.0012915
0.001303
0.0011627
0.001108
0.0012442
0.0015473
0.0019197
0.0019997
0.001827
0.0017472
0.0019016
0.002221
0.0023883
0.002246
0.0021973
0.0023416
0.002517
0.0028268
0.0029792
0.0028951
0.0028901
0.0030454
0.0033526
0.0035837
0.0034979
0.0032686
0.0030654
0.0030803
0.0033693
0.0035064
0.0033032
0.0030298
0.0028268
0.0026809
0.0024444
0.0020941
0.0017172
0.0013285
0.0011037
0.0012229
0.0012588
0.0011592
0.0010524
0.0010033
0.00113
0.0014478
0.0015288
0.0013059
0.0010453
0.00092109
0.0011993
0.0015519
0.0015529
0.0014056
0.001284
0.0012584
0.0012931
0.0010015
0.00036366
-0.00016578
-0.00043885
-0.00042571
-0.00025277
-0.00026545
-0.00044034
-0.00057875
-0.00065473
-0.00059575
-0.0006326
-0.00096498
-0.0013834
-0.0016711
-0.0017204
-0.0017254
-0.0019559
-0.0021968
-0.0023289
-0.0024223
-0.0024015
-0.0023611
-0.0025072
-0.0027701
-0.0030519
-0.0031642
-0.0030514
-0.002999
-0.0030134
-0.0029705
-0.002995
-0.0030644
-0.0031506
-0.0032894
-0.0033466
-0.0033364
-0.0033036
-0.0030956
-0.002839
-0.0026011
-0.0026219
-0.0024207
-0.0021249
-0.0018479
-0.0017808
-0.0019176
-0.001929
-0.0017478
-0.0015937
-0.0016322
-0.0017814
-0.001919
-0.0019676
-0.001906
-0.0016497
-0.0013389
-0.00128
-0.0013511
-0.0013279
-0.0012096
-0.0011799
-0.001393
-0.0017217
-0.0019174
-0.0020454
-0.0020374
-0.0017579
-0.0013332
-0.0010715
-0.00088283
-0.00063146
-0.00042765
-0.00034213
-0.00038723
-0.00049641
-0.00058184
-0.00055064
-0.00030158
-0.00012339
-7.0701e-05
-2.3115e-05
6.9573e-05
0.00016007
2.8128e-05
-0.00020237
-0.00024818
-0.00018562
-4.0379e-05
0.00018251
0.00046959
0.00078238
0.0010612
0.0013529
0.0015176
0.0012831
0.00095772
0.00079808
0.00073812
0.00099118
0.0012979
0.0013658
0.0014965
0.0016492
0.0018052
0.0020381
0.0020503
0.0017713
0.0012974
0.00092353
0.00093882
0.0012722
0.0016725
0.0019598
0.0021299
0.0022515
0.0024434
0.0024999
0.0022598
0.00185
0.0015274
0.0014593
0.0016073
0.002017
0.0023721
0.0023385
0.0021667
0.0021617
0.0023552
0.0023372
0.0019876
0.0015718
0.0012292
0.0011824
0.0013611
0.0016112
0.0018404
0.0017717
0.0015692
0.0015866
0.0016445
0.0014081
0.00094726
0.00048857
0.00024727
0.0002149
0.0002655
0.00034988
0.00022602
-6.0992e-05
-0.00012618
-7.194e-05
-0.00018489
-0.00028165
-0.00034085
-0.00046546
-0.00039779
-0.00027841
-0.00018368
-3.7914e-05
-2.2987e-05
-6.8527e-05
-6.632e-05
-0.00019002
-0.00046584
-0.00076696
-0.0010371
-0.001184
-0.0012404
-0.0012684
-0.0012416
-0.0013758
-0.0015865
-0.0017531
-0.0018095
-0.0020392
-0.0024007
-0.0025116
-0.0024231
-0.0022295
-0.0018786
-0.0013782
-0.0010595
-0.00090446
-0.00069667
-0.00056875
-0.00056629
-0.00079257
-0.001177
-0.0014068
-0.001208
-0.00092614
-0.00061951
-0.00032111
-0.00023451
-0.00017825
-2.2406e-05
-4.3583e-06
-0.00023533
-0.00059229
-0.0008782
-0.00088705
-0.00064485
-0.00035005
8.6116e-05
0.0003928
0.00053318
0.00072959
0.00097983
0.00088741
0.00066002
0.00044856
0.00017804
0.0002428
0.0005383
0.0006382
0.00049785
0.00031379
0.00025632
0.00041858
0.00059529
0.00049403
0.00023757
4.7194e-05
5.0099e-06
0.00024811
0.00054611
0.0005372
0.00033688
0.00022418
0.0003209
0.00057009
0.00054036
0.00033421
0.00011853
6.3678e-05
0.00036088
0.00074655
0.00085922
0.00069436
0.00044907
0.00029326
0.00039956
0.00056919
0.00056769
0.00031061
5.8482e-06
-5.8166e-05
7.4251e-05
0.00027506
0.00029324
-3.4356e-05
-0.00037854
-0.00048814
-0.00047695
-0.00050746
-0.00083404
-0.001344
-0.0016446
-0.0016587
-0.0013571
-0.0010055
-0.0011143
-0.0015377
-0.0017745
-0.001688
-0.0015099
-0.0014156
-0.0015497
-0.0017812
-0.0018559
-0.0016211
-0.0010899
-0.00064367
-0.00061577
-0.00081365
-0.00075943
-0.00045234
-0.00022684
-0.0002086
-0.00052761
-0.00085854
-0.00091633
-0.00078977
-0.00061667
-0.00066584
-0.00089768
-0.001026
-0.00089829
-0.00075057
-0.00079248
-0.00086837
-0.00094621
-0.00095249
-0.00076818
-0.00046454
-0.00017502
-0.00010394
-0.00013536
-6.4811e-05
6.5279e-05
1.0441e-05
-0.00029138
-0.00061934
-0.00076894
-0.00071662
-0.00055573
-0.00039934
-0.00043668
-0.00053318
-0.00046332
-0.00028194
-0.00027132
-0.00037153
-0.00045607
-0.00051593
-0.00051448
-0.00040736
-0.00015564
9.2033e-05
0.00030989
0.00064776
0.0010498
0.0013071
0.0013581
0.0011862
0.00099927
0.0010986
0.0013605
0.0016407
0.0017253
0.0015391
0.0013286
0.0013868
0.0014795
0.0012578
0.0009242
0.0006625
0.00055222
0.00069659
0.00080584
0.0007599
0.00068469
0.00060185
0.00057894
0.00072986
0.00070995
0.0004231
3.632e-05
-0.0002005
-0.00010673
0.00023184
0.00046419
0.00052178
0.00050241
0.00049682
0.00069387
0.00085365
0.00055658
6.2967e-05
-0.00027915
-0.00033075
-0.00015266
-1.9884e-05
-5.0149e-05
-0.0001735
-0.00032221
-0.00042142
-0.00038944
-0.00049607
-0.00090177
-0.0011933
-0.0012609
-0.0011978
-0.00088914
-0.00052355
-0.00027509
-0.00014407
-0.00024464
-0.00036671
-0.00036804
-0.00056657
-0.00094937
-0.0016006
-0.0024108
-0.0029148
-0.0030548
-0.0031124
-0.0033014
-0.0036061
-0.0038042
-0.003662
-0.0034176
-0.0035088
-0.0038215
-0.0040631
-0.0040803
-0.0037819
-0.0033865
-0.003283
-0.0034587
-0.0035256
-0.0032787
-0.002852
-0.0027036
-0.0027332
-0.0026947
-0.0025681
-0.002289
-0.0018313
-0.0013317
-0.0011843
-0.0012782
-0.001256
-0.00095748
-0.00070092
-0.0007622
-0.00098476
-0.0012022
-0.0011861
-0.0008592
-0.00034181
-9.6376e-06
1.9501e-05
0.00013683
0.00051368
0.00083108
0.00083814
0.00066754
0.00047798
0.00049389
0.00073706
0.00092826
0.00085488
0.00068089
0.0006653
0.00085879
0.0010919
0.0011615
0.0011486
0.0011721
0.001224
0.0015269
0.0020067
0.0023425
0.0024863
0.0025593
0.0026767
0.0028891
0.0030357
0.0028946
0.0025299
0.0021651
0.0019889
0.0019883
0.001957
0.0017631
0.0015691
0.0015516
0.001649
0.0017926
0.0017244
0.0013139
0.00089369
0.00070823
0.00069
0.00075656
0.00073281
0.00048449
0.0002883
0.00025796
0.00032096
0.00024668
-2.9002e-05
-0.00031709
-0.0003574
-0.00013229
0.00018293
0.000398
0.00029445
3.667e-05
-0.00010135
-7.8638e-05
-0.00020455
-0.00064549
-0.0011058
-0.0013821
-0.0014574
-0.0014052
-0.0013412
-0.0013918
-0.0015588
-0.0016495
-0.0015357
-0.0014202
-0.0015352
-0.0018012
-0.0020996
-0.0021284
-0.0018863
-0.0016509
-0.0015676
-0.0016478
-0.0017764
-0.0017971
-0.0016504
-0.0015879
-0.0017444
-0.0018827
-0.0018616
-0.0015963
-0.0011623
-0.00078803
-0.0005307
-0.00040481
-0.00025436
3.5722e-05
0.00016166
0.00010567
-0.00014239
-0.00040772
-0.00023497
0.00024208
0.00068238
0.0010268
0.0012469
0.0012974
0.0014463
0.0016272
0.0014477
0.0011958
0.0010484
0.0010251
0.0012457
0.0016052
0.001765
0.0016712
0.001529
0.001513
0.0017538
0.001915
0.0017734
0.0015496
0.0013826
0.0014472
0.0017154
0.001998
0.0020522
0.0018971
0.0017423
0.0018414
0.001947
0.0017178
0.0014266
0.0011952
0.0011451
0.0013776
0.0017411
0.0019837
0.0019886
0.0018839
0.0019207
0.0021306
0.002171
0.0020157
0.0017372
0.0015254
0.0016111
0.0019001
0.0021671
0.0020396
0.0016135
0.0012046
0.0010127
0.00089692
0.00060927
0.00012344
-0.00029185
-0.00044645
-0.00031419
2.7051e-05
0.00038123
0.00049564
0.00031099
0.00017322
0.00027321
0.00031413
8.1454e-05
-0.00027979
-0.00051538
-0.00045308
-0.00013897
0.0001709
0.00024853
8.0498e-05
-0.00011297
-7.192e-05
-3.2314e-05
-0.00014895
-0.00036341
-0.00058944
-0.00058002
-0.00033264
1.8978e-05
0.00039664
0.00057162
0.00050512
0.00051455
0.00055122
0.00038258
7.7458e-05
-0.00017754
-0.00021499
1.1976e-05
0.00035045
0.00053457
0.00051683
0.0003449
0.00025385
0.00033518
0.0002386
3.1516e-05
-8.5925e-05
-0.0001985
-0.00015335
0.00012377
0.00041231
0.00052223
0.00037847
0.00014981
3.6494e-05
-0.00020912
-0.0004554
-0.00062386
-0.00075401
-0.00073552
-0.00049698
-0.00012886
9.9293e-06
-9.9623e-05
-0.00025894
-0.00029889
-0.00034909
-0.00052818
-0.00066365
-0.00068376
-0.00063203
-0.00048152
-0.00010106
0.00033
0.0004931
0.00056935
0.00064922
0.00067304
0.00060794
0.00041391
0.00013043
1.0573e-05
8.3941e-05
0.00021639
0.00030723
0.00025564
0.00017803
0.00021181
0.00029384
0.000248
3.6639e-05
-0.00018676
-0.00032149
-0.00032599
-0.00025387
-0.00014503
-4.8338e-05
-2.4341e-05
8.2394e-06
3.968e-05
4.1551e-05
-1.8466e-05
-0.00022506
-0.00036818
-0.00018519
0.00014429
0.00049687
0.0007587
0.00080888
0.00089761
0.0011445
0.0012035
0.0010163
0.00077525
0.00055377
0.00040056
0.00047314
0.00074192
0.00097736
0.0010037
0.00093007
0.0010282
0.001174
0.0011004
0.0010443
0.00089682
0.0007702
0.00093199
0.0011034
0.0010735
0.0009443
0.00073478
0.00072521
0.0009571
0.00087376
0.00053898
0.00013184
-0.00025989
-0.00044712
-0.00053334
-0.00065063
-0.00092467
-0.0011127
-0.0010928
-0.0009537
-0.00089153
-0.0010488
-0.0012973
-0.0014723
-0.0014812
-0.0012463
-0.00093495
-0.00089232
-0.00099136
-0.001014
-0.00091949
-0.0008531
-0.0009995
-0.0012055
-0.0012863
-0.0010905
-0.00075414
-0.0005369
-0.00063615
-0.00096917
-0.0012544
-0.0014236
-0.0016062
-0.0019573
-0.0024098
-0.0027716
-0.0028837
-0.0027581
-0.002578
-0.0023893
-0.002262
-0.0021528
-0.0019686
-0.0018609
-0.0020181
-0.0022055
-0.0024113
-0.0024989
-0.0024182
-0.0023282
-0.0023326
-0.0024025
-0.002465
-0.0023913
-0.0023674
-0.0024987
-0.0026968
-0.0028648
-0.0027632
-0.0024184
-0.0019864
-0.0015602
-0.0012488
-0.0010471
-0.00082303
-0.00069108
-0.00083982
-0.0011803
-0.0014614
-0.00158
-0.0014871
-0.0012139
-0.00097801
-0.00082133
-0.00071161
-0.00057639
-0.00039034
-0.00038615
-0.00052639
-0.00071186
-0.0009512
-0.00097029
-0.00080683
-0.00064332
-0.00050331
-0.00041988
-0.00031646
-0.00013108
-0.00015547
-0.00019363
-0.00019475
-0.00052564
-0.00085879
-0.00081174
-0.00062916
-0.00032115
-4.5508e-05
1.8055e-05
7.9646e-05
5.5409e-05
-0.00019682
-0.0003159
-0.00044353
-0.00058386
-0.00059674
-0.00052992
-0.0004096
-0.00034744
-0.00042912
-0.00033518
-0.00016163
-0.00018944
-6.9049e-05
-0.00020617
-0.00066607
-0.00086111
-0.00072017
-0.00032754
-8.7021e-05
-0.00014935
6.8357e-06
0.00020996
0.00026218
0.00032221
-5.7188e-05
-0.00033189
-0.00011573
0.00024784
0.00060284
0.0008201
0.00083065
0.0010668
0.0013162
0.0013065
0.001108
0.00054522
0.00018796
0.00028778
0.00057352
0.00074304
0.00065282
0.00052394
0.00069997
0.0010293
0.0011358
0.000972
0.00068277
0.00039021
0.00024626
0.00037499
0.00045546
0.00057857
0.00051149
0.00020663
0.00011183
0.00013763
7.7087e-05
-0.00022956
-0.00068423
-0.00061249
-2.114e-05
0.00054436
0.00091998
0.0010254
0.00079422
0.0006418
0.0007825
0.00091258
0.00077862
0.00047422
0.00016129
5.16e-05
0.00014619
0.00020995
0.00031008
0.00028623
0.00021558
0.00035078
0.00055859
0.00057744
0.00043595
6.3765e-05
-0.00037207
-0.00054432
-0.00046601
-0.00044962
-0.00039061
-0.0004672
-0.00051767
-0.00031837
-0.00011422
0.00010398
0.00015259
-4.8022e-05
-0.0001836
-0.00010083
0.00011642
0.0003427
0.00040551
0.00025968
0.00029219
0.00055352
0.00076938
0.00074954
0.00059649
0.00041704
0.00020028
0.00022728
0.00049847
0.00070056
0.00060565
0.00049811
0.00065628
0.00098344
0.0011114
0.00097531
0.00079426
0.00068277
0.00079165
0.0010836
0.0013769
0.0016084
0.0015564
0.0014036
0.0015081
0.0016646
0.00146
0.0010633
0.00075242
0.00048614
0.00042863
0.00071382
0.0010566
0.0012668
0.0013393
0.0013963
0.0015924
0.001618
0.001252
0.00087625
0.00063722
0.00055255
0.00075362
0.0010042
0.0011491
0.0010711
0.00095366
0.0010364
0.0011108
0.00085716
0.00032655
-0.00025452
-0.0006981
-0.00080204
-0.00063492
-0.00034729
-0.00018151
-0.00020791
-3.9315e-05
0.00029833
0.00042516
0.00029948
-1.4742e-05
-0.00038382
-0.00045514
-0.0002757
-9.8579e-05
-2.2149e-05
-0.00017809
-0.0002455
-6.0191e-05
4.207e-05
-0.00012114
-0.0005374
-0.00099224
-0.0011795
-0.0010487
-0.00084392
-0.00067029
-0.00059633
-0.00062476
-0.00049138
-0.00025483
-0.00027434
-0.00069607
-0.0012499
-0.0015038
-0.0012742
-0.0008444
-0.00046867
-0.00029129
-0.00025083
-5.0073e-05
0.00031955
0.00054346
0.00039114
-0.00014837
-0.00067112
-0.00073874
-0.00037247
0.00011835
0.00041319
0.00060398
0.00076483
0.0010468
0.0012682
0.0012056
0.00086174
0.00034804
8.3377e-06
-2.5778e-05
2.9355e-05
7.2716e-05
-1.6584e-05
-0.00016068
-0.00010612
-6.688e-06
-4.6324e-05
-0.00026534
-0.00065569
-0.00080443
-0.00054521
-0.00011191
0.00032964
0.00057094
0.00056658
0.00065224
0.00085816
0.00097577
0.00094279
0.00061017
0.00031622
0.00041099
0.00074176
0.0011927
0.0015733
0.0017067
0.0018265
0.0020828
0.002198
0.0020615
0.0017866
0.0015761
0.0015309
0.0016415
0.0017498
0.0017036
0.0015596
0.0014294
0.0014219
0.0014523
0.0012674
0.0010431
0.00090217
0.00063638
0.00041036
0.00032933
0.00041926
0.00037182
8.9291e-05
-4.8623e-05
6.9465e-05
0.00014393
-3.9507e-06
-0.00045607
-0.00095146
-0.0011707
-0.0012096
-0.0010088
-0.00072273
-0.0005562
-0.00046444
-0.00045321
-0.00043245
-0.00046482
-0.00046639
-0.0003205
-8.6606e-05
4.1385e-05
6.4772e-05
6.3105e-05
3.9241e-05
-3.1031e-05
-0.00013778
-0.00039761
-0.000717
-0.00096941
-0.0012202
-0.0014451
-0.0015517
-0.0015503
-0.0015961
-0.0016835
-0.0017157
-0.0018234
-0.0019134
-0.0019244
-0.0019415
-0.0019428
-0.0019889
-0.0022346
-0.0025383
-0.0026914
-0.0024649
-0.0019981
-0.001586
-0.0012009
-0.00098798
-0.0010223
-0.00099566
-0.0009659
-0.00095085
-0.00082588
-0.00065032
-0.0003129
-1.5621e-05
2.1639e-05
3.0735e-05
2.5622e-05
-7.4744e-05
-0.00017447
-0.00034825
-0.00042398
-0.00034013
-0.00010833
0.00030415
0.00066244
0.0007735
0.00090348
0.00098396
0.00078062
0.00046794
0.00012923
-0.00017922
-0.00019959
-9.319e-05
3.2181e-06
0.00020667
0.00037708
0.00049374
0.00063956
0.00055224
0.00035846
0.00029767
0.00025011
0.00028809
0.00050974
0.00070818
0.00092345
0.0010645
0.0011207
0.0012809
0.0013951
0.0014239
0.0013887
0.0011209
0.0008674
0.00092024
0.0011507
0.001481
0.0018716
0.0019917
0.0020447
0.0020663
0.0020262
0.002005
0.00153
0.00089724
0.00065312
0.00070488
0.0010956
0.0015234
0.0014543
0.0012526
0.0012342
0.0013528
0.0014757
0.001167
0.00056752
0.00016532
0.00014381
0.00038429
0.00056677
0.00052981
0.00031618
0.0001779
0.00011438
-0.00012299
-0.00035412
-0.00049709
-0.00065701
-0.00070934
-0.00054841
-0.00026251
-0.00014487
-0.00027638
-0.00039804
-0.00039245
-0.00047424
-0.00074632
-0.00097266
-0.00095025
-0.00078231
-0.00064616
-0.0005088
-0.0004097
-0.00040774
-0.00038207
-0.00038116
-0.00060199
-0.00086129
-0.0010891
-0.0012775
-0.0013046
-0.0012408
-0.0011818
-0.00097503
-0.00078378
-0.00078709
-0.00083056
-0.0010896
-0.0015408
-0.0018551
-0.0019968
-0.0019413
-0.001695
-0.0013012
-0.00095715
-0.00062221
-0.00037271
-0.00017922
1.1109e-05
-7.6149e-05
-0.00029483
-0.00039572
-0.00040913
-0.00043273
-0.00039123
-0.0001904
-0.00012909
-0.00024662
-0.00040201
-0.00044437
-0.00043222
-0.00051463
-0.00060478
-0.00068269
-0.00074423
-0.00066023
-0.00037402
-1.2364e-05
0.00025655
0.00043511
0.00056065
0.00070079
0.00066033
0.00053418
0.00052079
0.00043533
0.00035526
0.00037971
0.00048205
0.00050736
0.0004303
0.00029603
0.00023415
0.00012178
-0.00023011
-0.00043508
-0.00044655
-0.00047405
-0.00048239
-0.00037378
-0.00018565
1.2856e-05
0.00011599
0.00016946
0.00021757
2.7656e-06
-0.00026513
-0.00043508
-0.00066615
-0.00079684
-0.00081667
-0.00075311
-0.00071486
-0.00070117
-0.00067406
-0.00064839
-0.00071806
-0.00099956
-0.0012569
-0.001331
-0.0013917
-0.0014345
-0.0013576
-0.0011203
-0.00081966
-0.00061618
-0.00057583
-0.00061058
-0.00076585
-0.0010197
-0.0013714
-0.0017516
-0.0019557
-0.0020645
-0.0021632
-0.0020651
-0.001904
-0.0019667
-0.0021097
-0.0022143
-0.0025375
-0.002802
-0.0029285
-0.0030587
-0.0030722
-0.0028476
-0.0024287
-0.0020762
-0.0019656
-0.0019946
-0.0019202
-0.0018629
-0.0019896
-0.0020119
-0.0020141
-0.0019647
-0.0017554
-0.0013784
-0.0010538
-0.00087509
-0.00084884
-0.00088822
-0.00077935
-0.00068142
-0.00068313
-0.0006656
-0.00069894
-0.00065152
-0.00030647
0.00018653
0.00069701
0.00095776
0.00088298
0.00075559
0.00075884
0.00085214
0.00077884
0.00053864
0.00036504
0.00034576
0.0005865
0.0010226
0.0013754
0.0013881
0.0012056
0.0010869
0.0011209
0.0011633
0.0011516
0.00094559
0.00065247
0.00066232
0.0010312
0.0014895
0.001836
0.0019664
0.001887
0.0018035
0.0018196
0.0016205
0.0012717
0.00093715
0.0006659
0.00066727
0.00084116
0.00098982
0.0010191
0.00090473
0.00076466
0.00073964
0.00066518
0.00040501
5.7647e-05
-0.00018393
-0.00020083
-5.8283e-05
0.00027212
0.00061538
0.00065379
0.00055467
0.00062352
0.00083224
0.00087724
0.0007467
0.00048665
0.00029151
0.00037055
0.00058329
0.00080614
0.00092785
0.00069868
0.00028907
8.4512e-05
-5.5452e-05
-0.00036119
-0.0007505
-0.0011067
-0.0011561
-0.00094946
-0.00073242
-0.00053204
-0.0005309
-0.00069896
-0.00075917
-0.00071719
-0.00080866
-0.0009703
-0.0010247
-0.00090119
-0.0005504
-0.00010947
0.00028626
0.00051712
0.00050511
0.000517
0.00069895
0.00076876
0.00066919
0.00056126
0.00043691
0.00034954
0.00034545
0.00035836
0.0003935
0.0003473
0.00020905
0.00013454
2.2524e-05
-0.00022239
-0.00041313
-0.00058893
-0.00068686
-0.00058828
-0.00042321
-0.00019508
-3.167e-05
-0.00010571
-0.00019865
-0.00022057
-0.00042104
-0.00057808
-0.0006793
-0.00088496
-0.0010106
-0.0010255
-0.00097102
-0.0008845
-0.001003
-0.0011573
-0.0011677
-0.0013027
-0.0013922
-0.0013578
-0.0013695
-0.0012888
-0.0010482
-0.00071771
-0.0003996
-0.00015055
3.9478e-05
0.0003151
0.00051464
0.00046462
0.00051264
0.00059878
0.00061377
0.00072224
0.00094085
0.001137
0.0011785
0.0010081
0.00084301
0.00074192
0.00050807
0.00029751
0.00013611
-7.8865e-05
-0.00022555
-0.00018595
-3.7871e-05
0.00017828
0.00034721
0.00046728
0.00070606
0.00091967
0.00097163
0.0010448
0.0011202
0.001177
0.0013765
0.0016899
0.0020059
0.0021635
0.0021173
0.0021321
0.0021929
0.0020823
0.0019621
0.001841
0.001719
0.0017691
0.001972
0.002163
0.0022826
0.0022934
0.0022605
0.0023005
0.0022187
0.0020819
0.0020322
0.0019084
0.0018178
0.0019441
0.0021104
0.0021943
0.0021452
0.0019136
0.001725
0.0015418
0.0011812
0.0007964
0.00050037
0.0002546
0.00013007
0.00011944
0.00012029
7.1352e-05
-9.8426e-05
-0.00034608
-0.00048232
-0.00072356
-0.0010183
-0.0011898
-0.0013942
-0.0015029
-0.0014175
-0.0012845
-0.0012046
-0.0012543
-0.0013787
-0.0013792
-0.0013466
-0.0014673
-0.0016332
-0.0017816
-0.0019199
-0.0019056
-0.0018143
-0.0017234
-0.0015365
-0.0013536
-0.0011829
-0.0010596
-0.0011454
-0.0014473
-0.0018108
-0.0020599
-0.0021934
-0.0022901
-0.0023636
-0.0024223
-0.0025275
-0.0026044
-0.0026066
-0.0027035
-0.0028832
-0.0030973
-0.0031669
-0.0029712
-0.0027385
-0.0024567
-0.0021546
-0.0019809
-0.0019123
-0.0017911
-0.0015859
-0.0014797
-0.001495
-0.0015672
-0.0017199
-0.0016993
-0.0014563
-0.0011863
-0.0010486
-0.001035
-0.0011039
-0.0010881
-0.00091536
-0.00088986
-0.00098204
-0.0010713
-0.0012127
-0.0011844
-0.0010062
-0.00084615
-0.00071157
-0.00071046
-0.00080117
-0.00077704
-0.00080716
-0.00093439
-0.0010835
-0.00119
-0.0010983
-0.00089975
-0.00058384
-0.00027886
-0.0001896
-0.00017659
-0.00020995
-0.00041087
-0.00057683
-0.00060406
-0.00063775
-0.00068859
-0.00068034
-0.00063083
-0.00058913
-0.00051228
-0.00039756
-0.0002914
-0.00037632
-0.00046967
-0.00031323
2.3298e-05
0.00036065
0.00074631
0.0012297
0.001636
0.0018114
0.0018062
0.0017233
0.0015778
0.0013507
0.00097489
0.00049689
0.0001044
1.8387e-05
0.00013843
0.00032153
0.00038543
0.00015311
-0.00025754
-0.00048893
-0.00052242
-0.00060999
-0.00068952
-0.00073434
-0.00080702
-0.00084085
-0.00071125
-0.00041903
-0.00018381
-0.00016268
-0.00019062
-2.7992e-05
0.0001592
0.00016673
6.3315e-05
-7.5805e-05
-0.00024338
-0.00023077
-6.0561e-05
5.9179e-05
4.6603e-06
-0.00021809
-0.00041575
-0.00043688
-0.00046414
-0.00054545
-0.00064862
-0.00071032
-0.00054837
-0.00034862
-0.00030721
-0.00026142
-0.00026512
-0.00037368
-0.00048712
-0.00055768
-0.00043445
-0.00035236
-0.00043275
-0.00054695
-0.00064076
-0.00056825
-0.00033732
-0.00013257
-7.2289e-05
-0.00024925
-0.00040892
-0.00050452
-0.00059822
-0.00065061
-0.00063686
-0.00057337
-0.00045076
-0.00029355
-9.1882e-05
7.9541e-05
0.00010197
-3.3121e-05
-3.1573e-05
0.0004309
0.0011841
0.0017182
0.0020289
0.0023284
0.0024922
0.002611
0.0028543
0.0031742
0.0032933
0.0030744
0.0028606
0.0028619
0.0027816
0.0024527
0.0021604
0.0020402
0.0019104
0.0016075
0.0011346
0.00064539
0.00033927
0.00036694
0.00051608
0.00057557
0.00073062
0.0010367
0.0013603
0.0016816
0.0018655
0.0020561
0.0021679
0.0018964
0.0015433
0.001372
0.0013344
0.0013218
0.001399
0.0015104
0.001703
0.0019969
0.0021236
0.0020876
0.0018741
0.001446
0.00099731
0.0006803
0.0001947
-0.00035214
-0.00053475
-0.00055157
-0.00044026
-0.00016982
-1.214e-06
3.4871e-05
6.7886e-05
7.8328e-05
0.00014689
0.00023333
0.00011051
-2.7152e-05
3.0741e-05
0.00022864
0.00042989
0.00044596
0.00024238
-5.8541e-06
-0.00016482
-0.00013926
5.1747e-06
-0.00010636
-0.00023691
-0.00020072
-0.00018449
-4.4903e-05
7.1832e-05
-0.00015753
-0.00051991
-0.0007613
-0.00086345
-0.00075651
-0.00040295
0.00011679
0.00066556
0.0012161
0.0016827
0.0021044
0.0022608
0.0020052
0.0017099
0.0015518
0.0013935
0.0012792
0.0011161
0.00089794
0.00070632
0.00055151
0.00048305
0.00023888
-0.00020667
-0.0004349
-0.00052388
-0.00056851
-0.00044314
-0.00036785
-0.00024785
5.4478e-05
0.0004741
0.00092315
0.0014122
0.0020531
0.0024497
0.0023507
0.0018727
0.0013961
0.0012954
0.0014179
0.0013969
0.0012748
0.0012879
0.0014572
0.0015562
0.0013009
0.00076957
8.5075e-05
-0.00041195
-0.00032747
8.3728e-05
0.00026862
0.0002331
0.00013452
0.00011021
0.00032514
0.00052109
0.00039197
4.2533e-06
-0.00044565
-0.00055465
-0.00025834
-5.1017e-05
-2.5727e-05
-4.9286e-05
-1.9531e-05
0.0002042
0.00044542
0.00044987
0.00014091
-0.00024346
-0.00047446
-0.00046422
-0.00023603
-4.2195e-05
-5.7004e-05
-0.00014624
-0.00012266
-3.5493e-06
4.4271e-05
-0.0001518
-0.00055764
-0.00091392
-0.00091353
-0.00057539
-0.00029022
-0.00020074
-0.00020105
-0.00022071
-0.00017065
-0.00012933
-0.00026841
-0.00055114
-0.00081345
-0.00090073
-0.0007454
-0.00051103
-0.00027069
-7.593e-05
3.708e-05
0.0002334
0.00055182
0.00084172
0.0008725
0.00069207
0.00056444
0.00055443
0.0006604
0.00070754
0.00054868
0.00036218
0.00030471
0.00033537
0.00032999
0.0001583
-0.00021288
-0.00054263
-0.00069813
-0.00072806
-0.00067659
-0.00066789
-0.00072403
-0.0007367
-0.00063921
-0.00045717
-0.00039182
-0.00061518
-0.00092518
-0.0011767
-0.0013624
-0.0014361
-0.0014382
-0.0015003
-0.0015632
-0.0015447
-0.0014757
-0.0013407
-0.0012734
-0.001424
-0.0016238
-0.0017114
-0.0016819
-0.0015945
-0.0015487
-0.0014972
-0.0014661
-0.0014423
-0.0013515
-0.0013523
-0.0014863
-0.0016124
-0.0016027
-0.0014946
-0.0014256
-0.0013275
-0.0012202
-0.0011122
-0.00099317
-0.00089351
-0.00092104
-0.0012447
-0.001675
-0.0019518
-0.0020767
-0.002188
-0.0022365
-0.0022473
-0.0022608
-0.0022129
-0.0020206
-0.0017682
-0.0017014
-0.001832
-0.0019322
-0.0019031
-0.0017952
-0.0016573
-0.0015298
-0.0014238
-0.0012902
-0.0011558
-0.00099886
-0.0010449
-0.001399
-0.0016738
-0.0018229
-0.0019193
-0.0019387
-0.0019176
-0.0019873
-0.0019741
-0.0018496
-0.0016556
-0.0014914
-0.0015315
-0.0016416
-0.0016718
-0.0016373
-0.0015859
-0.0014224
-0.0012462
-0.0011257
-0.00096785
-0.00076913
-0.0005226
-0.00044055
-0.0006236
-0.00085501
-0.00092896
-0.00083864
-0.0006347
-0.0004716
-0.00047327
-0.0005445
-0.00057301
-0.00056698
-0.00053585
-0.00071986
-0.0010234
-0.0010842
-0.0010125
-0.00096543
-0.00089822
-0.00087472
-0.00078416
-0.00063356
-0.00050189
-0.00029159
-0.00020255
-0.00029007
-0.00024571
-5.5904e-05
0.00017253
0.00041981
0.00063096
0.0007983
0.00091022
0.00097232
0.0010775
0.0010083
0.00077689
0.00072808
0.00078683
0.00083414
0.00092299
0.00093984
0.00092723
0.00102
0.00116
0.0013885
0.0015086
0.001383
0.0013411
0.0014274
0.0015163
0.0016168
0.0016655
0.0016335
0.0016791
0.0017266
0.0017773
0.0019259
0.0019161
0.001809
0.001782
0.0016579
0.0015404
0.0014597
0.0013693
0.001348
0.0013476
0.00133
0.0014317
0.0015645
0.0015236
0.0014849
0.0016004
0.0017866
0.0019806
0.0021926
0.002401
0.0025404
0.0026057
0.0026546
0.0027588
0.0029009
0.0029441
0.0029133
0.0028266
0.0026618
0.0025682
0.0025473
0.0024937
0.0024334
0.0022406
0.001961
0.0018558
0.0018136
0.0016876
0.0015984
0.00148
0.0012766
0.0011819
0.0012597
0.0012095
0.0010538
0.00089815
0.00072734
0.0006343
0.00049234
0.00018014
-0.00020535
-0.00053027
-0.00079241
-0.00085215
-0.0008086
-0.0007833
-0.0007635
-0.00079379
-0.00073392
-0.00052126
-0.00042304
-0.00059131
-0.00077649
-0.00092924
-0.0010019
-0.00086215
-0.00076322
-0.00082449
-0.00088974
-0.0009893
-0.00099569
-0.00081682
-0.00086876
-0.0010818
-0.0011345
-0.0010603
-0.00089257
-0.00069037
-0.00065089
-0.00075086
-0.0008609
-0.00088442
-0.00067189
-0.00061011
-0.00092252
-0.0012403
-0.0015186
-0.0016757
-0.0015454
-0.0014401
-0.0014416
-0.0014089
-0.0014437
-0.0014014
-0.0012599
-0.0014036
-0.0016983
-0.0019455
-0.002172
-0.002077
-0.0017126
-0.0013875
-0.0010999
-0.00097331
-0.00096827
-0.00073445
-0.00053469
-0.00058474
-0.00058527
-0.00052887
-0.00042245
-8.0943e-05
0.00026256
0.00041675
0.00053873
0.00059803
0.00063545
0.00073449
0.00057297
0.00021303
-3.6076e-05
-0.00013039
-7.2939e-05
3.2148e-05
0.0001582
0.00026973
0.00027714
0.00042599
0.00079458
0.0011262
0.0011401
0.00089488
0.00069819
0.00068442
0.00075438
0.00081402
0.00094286
0.0010968
0.0011558
0.0011513
0.0011524
0.0010528
0.0006853
0.00025752
1.0372e-05
-6.3053e-05
-8.1415e-05
-3.161e-05
6.6276e-05
9.0171e-05
0.00015109
0.00039085
0.00066133
0.00070752
0.00059601
0.00053285
0.00059952
0.00081437
0.00096936
0.00095976
0.00096663
0.0010907
0.0012452
0.0013381
0.001221
0.00084049
0.00049923
0.00037813
0.00044933
0.00054535
0.0005818
0.00055144
0.00054371
0.00070707
0.00094735
0.00098888
0.00067302
0.00025753
6.0195e-05
9.0208e-05
0.00016345
0.00013406
4.1693e-05
-2.6421e-05
-2.1567e-05
9.1403e-05
0.00014325
-0.00014845
-0.00059435
-0.00088176
-0.0010409
-0.0010502
-0.00098804
-0.00097658
-0.00096068
-0.00091522
-0.00084541
-0.00078084
-0.00087525
-0.0011527
-0.0014502
-0.0017221
-0.0018508
-0.001807
-0.0017772
-0.0017284
-0.001695
-0.0015987
-0.0014563
-0.0013121
-0.0012636
-0.0015041
-0.0017333
-0.0017749
-0.0017068
-0.001607
-0.0015452
-0.0015321
-0.0015137
-0.0014837
-0.0014233
-0.001535
-0.0018126
-0.0019825
-0.002028
-0.002
-0.0019861
-0.0020166
-0.0019478
-0.0018692
-0.0017825
-0.0016814
-0.0017413
-0.0018921
-0.0019753
-0.0020458
-0.0020732
-0.0020315
-0.0019674
-0.0018105
-0.001587
-0.0013923
-0.0011297
-0.0009539
-0.0010478
-0.0010626
-0.00094281
-0.00078412
-0.00063814
-0.00050686
-0.00029772
-0.00012981
-5.2753e-05
7.7957e-05
0.00021034
6.9697e-05
-0.00010991
-0.00011456
-0.00012689
-0.00011185
5.4104e-05
0.0003312
0.00067133
0.00098414
0.0012733
0.0016293
0.0018398
0.0017388
0.001703
0.0018859
0.0020585
0.0022046
0.0023322
0.0023122
0.0023157
0.0023937
0.0024564
0.0024832
0.0021935
0.0018582
0.0017303
0.0017121
0.0017379
0.0017167
0.0015769
0.001478
0.001501
0.0014898
0.0015672
0.0016401
0.0015612
0.0016247
0.0018175
0.0020362
0.0022847
0.0024229
0.0025063
0.0026646
0.0027097
0.0026878
0.0026538
0.0023005
0.0018952
0.0016913
0.0016183
0.0017411
0.0018128
0.0019336
0.0022078
0.002287
0.002208
0.0021974
0.0019848
0.0015469
0.0012712
0.0011345
0.0011521
0.0011987
0.0011676
0.0012291
0.0012248
0.0010756
0.00095433
0.0006432
0.00015641
-0.00018987
-0.00037658
-0.00045982
-0.00040165
-0.00034347
-0.00030355
-0.00023626
-0.00014923
2.5517e-05
3.5314e-05
-0.00032894
-0.00062674
-0.0007795
-0.00089655
-0.00088518
-0.00082563
-0.00078016
-0.00072082
-0.00070608
-0.00063334
-0.00045174
-0.00051498
-0.00077809
-0.00097255
-0.0010402
-0.00086511
-0.00067938
-0.00068313
-0.00071379
-0.00085021
-0.0010013
-0.0010633
-0.0013242
-0.0017853
-0.0022511
-0.0026793
-0.0029581
-0.0030873
-0.0031686
-0.0031437
-0.0030531
-0.0030065
-0.0030205
-0.0030772
-0.0030774
-0.0031951
-0.0032053
-0.0029506
-0.0026591
-0.0021609
-0.0013933
-0.00061408
-0.00018913
4.9255e-05
0.00022884
0.00018237
-0.00018773
-0.00072169
-0.0010529
-0.0010837
-0.00084001
-0.0005579
-0.00053944
-0.00059797
-0.00044944
-0.00010649
3.9986e-05
-0.00015293
-0.00043208
-0.0006328
-0.00060202
-0.00030466
-1.2651e-05
0.00014353
0.00012108
0.00010104
0.00032726
0.00056469
0.00053252
0.00054273
0.00062394
0.00072033
0.00099871
0.0014171
0.0017577
0.001855
0.0018313
0.0019147
0.0021639
0.002195
0.0018606
0.0015714
0.0014358
0.0015953
0.0020268
0.0023551
0.0023907
0.0022587
0.0021576
0.0022857
0.002375
0.0021362
0.0018532
0.001658
0.0017211
0.0020931
0.002509
0.0026043
0.0022871
0.0019425
0.0018325
0.0017846
0.0014525
0.00092022
0.00042912
0.00018159
0.00033644
0.00054985
0.00053146
0.00028959
6.7105e-05
8.1156e-05
0.00024904
8.9613e-05
-0.00037832
-0.00080221
-0.00099344
-0.00089985
-0.00067404
-0.00045312
-0.00042916
-0.00058253
-0.00061602
-0.00041422
-0.00038884
-0.00080839
-0.0012155
-0.0014207
-0.0013647
-0.0011134
-0.00094883
-0.00097594
-0.0010828
-0.0012004
-0.0011908
-0.0012233
-0.0015933
-0.0020621
-0.002353
-0.0025239
-0.0024732
-0.0022897
-0.0023403
-0.0024505
-0.0025126
-0.0024932
-0.0022024
-0.002177
-0.002523
-0.0027147
-0.0027354
-0.0024269
-0.0020201
-0.0019218
-0.0019099
-0.0018115
-0.0016536
-0.0013275
-0.0011235
-0.0014433
-0.0017888
-0.001849
-0.0016363
-0.0011576
-0.00086114
-0.0009058
-0.00098787
-0.00096384
-0.00074603
-0.00040074
-0.00041829
-0.00084158
-0.0012605
-0.0013873
-0.0011068
-0.00076429
-0.00058797
-0.00054288
-0.0004125
0.00016718
0.00085964
0.00099093
0.00053237
6.4028e-05
-0.00024574
-0.0002869
-0.00018984
-0.00016847
-0.00018745
-0.00019235
-0.00015388
4.5266e-05
1.7898e-05
-0.0004997
-0.0010024
-0.0012906
-0.0012721
-0.00096388
-0.00067491
-0.00043259
-0.00031521
-0.00022167
5.4906e-05
0.00038387
0.00045679
0.00017489
-5.4937e-05
8.8066e-06
0.00029815
0.00056394
0.00070318
0.00073105
0.00071801
0.00073539
0.00069404
0.0004432
1.071e-05
-0.00030126
-0.00037702
-0.00018925
2.2217e-05
0.00022536
0.00044902
0.00054762
0.00057918
0.00054514
0.00039655
8.0397e-05
-0.00042068
-0.00074718
-0.00080444
-0.00082767
-0.00079822
-0.00074791
-0.00074001
-0.00072865
-0.00083793
-0.00094718
-0.00091554
-0.00087061
-0.00079295
-0.00071971
-0.00075132
-0.00074192
-0.0007323
-0.00084828
-0.00085388
-0.00077423
-0.00077187
-0.00072139
-0.00078093
-0.00085337
-0.00065758
-0.00041086
-0.00021731
7.6485e-06
0.00023587
0.00035867
0.00030753
9.0687e-05
-5.7091e-05
2.1932e-05
0.00019967
0.0003352
0.00032726
0.00042312
0.00066337
0.00079738
0.00069959
0.00051821
0.00035356
0.00020761
4.7903e-05
-0.00013868
-0.0002579
-0.00027416
-0.00017056
-7.1119e-05
-8.6323e-06
-4.465e-05
-0.00024431
-0.00050886
-0.00066017
-0.0007622
-0.0010765
-0.0014165
-0.0016639
-0.0018907
-0.0019294
-0.0017846
-0.0016767
-0.0016987
-0.0018045
-0.0018812
-0.0018523
-0.0019447
-0.0020433
-0.0018471
-0.0016468
-0.0015047
-0.0013212
-0.0011903
-0.0011818
-0.0012001
-0.0012438
-0.0011962
-0.0011892
-0.0012054
-0.0011341
-0.0011988
-0.0013044
-0.0012556
-0.0008452
-0.00011974
0.00032254
0.00037225
0.00028609
0.00010404
1.7109e-05
-3.6609e-06
-9.4906e-05
-0.0001045
0.00012247
0.00042305
0.00063365
0.00078047
0.00097743
0.001291
0.0015858
0.0017257
0.001713
0.0015244
0.001428
0.0014206
0.0014681
0.0015761
0.0014028
0.0010206
0.00072812
0.00051908
0.00035929
0.00025048
0.00029035
0.000552
0.00093849
0.0014247
0.0019818
0.0024351
0.0026173
0.0026877
0.0027389
0.0023837
0.0017407
0.0010734
0.00048595
-1.6786e-05
-0.000274
-0.00034462
-0.00057085
-0.00079888
-0.00078282
-0.00045869
-6.5948e-07
0.00018848
7.2232e-06
-0.00022785
-0.00039626
-0.00053504
-0.00048305
-0.00043355
-0.00060526
-0.0007689
-0.00088634
-0.00097411
-0.0010363
-0.0012755
-0.0015958
-0.001759
-0.0017926
-0.0016258
-0.0013932
-0.0013529
-0.0012608
-0.0010231
-0.0007455
-0.00038684
-0.00018408
-0.00032891
-0.0005768
-0.00077777
-0.0008323
-0.00072421
-0.00072197
-0.00077839
-0.00076986
-0.00077053
-0.00073385
-0.00086431
-0.0012131
-0.0013975
-0.0013851
-0.0012921
-0.0009697
-0.00039565
0.00012781
0.00050406
0.00073989
0.0010107
0.0011761
0.00093984
0.00062948
0.00042991
0.00030294
0.0002816
0.00019514
2.6767e-05
-3.2902e-05
7.8616e-05
0.00045219
0.00078765
0.00073021
0.00047395
0.00028247
0.00021236
0.00023139
0.00019712
3.3267e-05
-0.00019027
-0.00024534
-5.6613e-05
9.176e-05
-5.2408e-05
-0.00032283
-0.00050331
-0.00059855
-0.00051495
-0.00037232
-0.00032385
-0.00031565
-0.00032052
-0.00015742
0.00018703
0.00031392
0.00016042
-7.5099e-05
-0.00020052
-0.00016066
-0.0001626
-0.00012503
-7.641e-06
6.0008e-05
0.00027488
0.00050224
0.00050306
0.00034657
0.00016525
3.513e-05
3.6826e-05
-2.2066e-06
-0.00012173
9.3613e-05
0.00048793
0.00072012
0.00089736
0.0010932
0.0012935
0.0014515
0.0013865
0.0012974
0.0013152
0.0012537
0.0012902
0.0014273
0.0014292
0.0013438
0.0012272
0.0010892
0.0011155
0.0012066
0.0011563
0.0010993
0.0010714
0.0012415
0.0015871
0.0019596
0.0020436
0.0018806
0.0016668
0.001691
0.0020258
0.0023032
0.0022277
0.0019698
0.0016908
0.0015159
0.0015893
0.0015693
0.0012571
0.0010154
0.0010129
0.0012569
0.0015394
0.00161
0.0014418
0.001322
0.0013073
0.0014235
0.001531
0.0012145
0.0006853
0.00042877
0.0005205
0.00077558
0.00072225
0.00025428
-7.2132e-05
-0.00012845
-6.5493e-05
4.1003e-05
-8.1484e-05
-0.0004026
-0.0005125
-0.00035111
4.301e-05
0.00033897
9.754e-05
-0.00025879
-0.00026904
-0.0001057
8.2659e-05
3.3221e-05
-0.00040556
-0.00074271
-0.00069231
-0.00037381
-0.00018635
-0.0005102
-0.00096949
-0.001146
-0.0011002
-0.00095727
-0.00096412
-0.0012551
-0.0014437
-0.0013692
-0.0010061
-0.00045853
-0.00019522
-0.00024698
-0.00026436
-0.00011701
0.00014386
0.000288
9.7267e-05
-0.000197
-0.00038007
-0.00025362
7.9463e-05
3.8918e-05
-0.00039311
-0.00076077
-0.00079078
-0.00063337
-0.0004329
-0.00041508
-0.00056838
-0.00064118
-0.00043082
4.2447e-05
0.00025501
4.0211e-05
-0.00019921
-0.00013391
7.4147e-05
0.00015454
-2.6183e-05
-0.00032555
-0.00051741
-0.00045408
-5.8384e-05
0.00030512
0.00026509
2.8421e-05
-0.00017085
-0.00020848
-0.00019375
-0.00033267
-0.00060703
-0.00086795
-0.00091464
-0.00060119
-0.00032102
-0.00041648
-0.00069596
-0.00091071
-0.00084671
-0.00057938
-0.00042262
-0.00044709
-0.00047146
-0.00040212
-0.00018389
5.6514e-05
2.7608e-05
-0.0001861
-0.00041503
-0.00044897
-0.00032088
-0.00035061
-0.00050745
-0.00064046
-0.0007597
-0.00074573
-0.00056374
-0.00053851
-0.00072102
-0.00097249
-0.0011533
-0.00099981
-0.0007278
-0.00048934
-8.5428e-05
0.00030149
0.00053799
0.00066961
0.00057358
0.00034461
5.3684e-05
-0.00028407
-0.00048933
-0.00073086
-0.00090091
-0.00086567
-0.00093902
-0.00082843
-0.00038453
-0.00018731
-0.00016492
-0.00015478
-0.00024747
-0.00019041
-1.2142e-05
-7.0548e-05
-0.00022292
-0.00035511
-0.00030011
-5.2541e-05
7.4869e-05
0.0001238
0.00021458
0.00020225
0.00024532
0.0002681
3.4939e-05
-0.00021397
-0.00040609
-0.00046057
-0.00024172
7.5551e-06
0.00010225
0.00013371
3.2057e-05
-8.1246e-06
7.8687e-05
1.9361e-05
-2.4803e-05
-4.7033e-07
-3.4855e-05
-4.0511e-05
-9.6508e-05
-0.00022984
-0.0003254
-0.00049254
-0.00063198
-0.00056741
-0.00064094
-0.00077346
-0.00077085
-0.00080252
-0.00081648
-0.00084751
-0.00095004
-0.0010047
-0.00099644
-0.00078662
-0.00046589
-0.00040264
-0.00044585
-0.00042285
-0.00043869
-0.0004619
-0.00053192
-0.00067468
-0.00074647
-0.0008331
-0.00099804
-0.0011357
-0.0013704
-0.0016478
-0.0018128
-0.0019176
-0.001844
-0.0016954
-0.0016399
-0.0015476
-0.0014946
-0.0014936
-0.0013224
-0.0011983
-0.0012231
-0.0011535
-0.0010933
-0.0010105
-0.00084153
-0.00073674
-0.00065283
-0.00053794
-0.00046425
-0.00034037
-0.000279
-0.00036238
-0.00038409
-0.00028163
-0.00020577
-0.00015164
-0.00012729
-9.3204e-05
-2.8649e-05
-0.00011126
-0.00017538
-9.8734e-05
-7.9625e-05
3.1009e-05
0.00033108
0.00062726
0.00086425
0.00099096
0.0010374
0.0011296
0.0011395
0.0010889
0.0010524
0.00090737
0.00077043
0.0007597
0.00082503
0.00080662
0.0006948
0.00071976
0.00096605
0.0012312
0.0014178
0.0015959
0.0016581
0.001725
0.0019468
0.0022269
0.0023668
0.0022281
0.0019109
0.001572
0.0013042
0.0011258
0.0010116
0.00085903
0.00066883
0.00069827
0.0010773
0.0014398
0.0015025
0.0014144
0.0013894
0.0014653
0.0015005
0.0014393
0.0013134
0.0011929
0.00108
0.00099385
0.001021
0.0010237
0.00091181
0.00081429
0.00072973
0.00057606
0.00023326
-0.00016938
-0.0004944
-0.00069187
-0.00077538
-0.00064161
-0.00044506
-0.00045446
-0.00048124
-0.0003875
-0.00012923
5.2617e-05
8.4167e-06
-4.606e-05
-6.9006e-05
-4.6364e-05
0.00012298
0.00015176
2.5437e-05
7.144e-06
0.00016197
0.00043435
0.00058404
0.00049206
0.00033619
0.000247
0.00018429
0.00017875
0.00010509
-4.7508e-05
-8.911e-05
5.3555e-05
0.00032797
0.00054507
0.00036807
8.4943e-05
-2.2468e-05
-0.00011585
-0.00022119
-0.00040533
-0.00071068
-0.00098141
-0.0011623
-0.0012482
-0.0011503
-0.0011537
-0.0013461
-0.0013801
-0.0011681
-0.0006097
-2.2621e-05
0.00013694
8.7864e-05
0.00016688
0.00040002
0.00067551
0.00068896
0.00037935
0.00011454
2.0575e-05
4.371e-05
6.5324e-05
-0.00017859
-0.00046629
-0.00049205
-0.00017951
0.00027642
0.00041276
0.0001392
-9.2473e-05
-2.7997e-05
0.00022958
0.00043177
0.00028158
-6.738e-05
-0.00023155
-0.0001665
8.3256e-05
0.00014443
-0.00023276
-0.00062003
-0.00066789
-0.00040732
-9.3865e-05
-0.00010712
-0.00032025
-0.00028863
3.3183e-05
0.00059346
0.00098914
0.00082115
0.00044733
0.00032306
0.00055041
0.00085061
0.00088469
0.00071302
0.00054765
0.00052723
0.00079647
0.0010707
0.00099348
0.00072284
0.00045333
0.00041161
0.00052365
0.00040223
0.00014425
-0.00015071
-0.00044761
-0.0005354
-0.00048934
-0.00056937
-0.00066897
-0.00068109
-0.00061192
-0.00024524
0.00015163
0.00033596
0.00053701
0.00071255
0.00083873
0.0010211
0.0011291
0.0010944
0.00092229
0.00071661
0.00072784
0.00063741
0.00036272
0.0001845
3.554e-05
5.4125e-05
0.00028659
0.00045339
0.00059285
0.00067743
0.00057623
0.00053288
0.00054761
0.00038541
0.00023621
0.00013143
9.0612e-05
0.00021848
0.00031662
0.00037964
0.00046415
0.00049667
0.00058226
0.00063333
0.00046677
0.00029886
0.00030215
0.00033262
0.00030838
0.00026341
0.00026267
0.00027486
0.00017602
-4.3111e-05
-0.00025914
-0.00048698
-0.00072438
-0.00083082
-0.00087631
-0.00086774
-0.00084422
-0.00082004
-0.00067841
-0.00050632
-0.0004473
-0.00050052
-0.00062206
-0.00072634
-0.00071034
-0.00068826
-0.00079107
-0.00096401
-0.0011336
-0.0012472
-0.0013834
-0.0016577
-0.0019382
-0.0021518
-0.0022527
-0.0021073
-0.0017998
-0.0015367
-0.001481
-0.0015137
-0.0014018
-0.001162
-0.00095604
-0.00099927
-0.0012952
-0.001484
-0.0014894
-0.0013535
-0.0011294
-0.0010552
-0.0010625
-0.00090835
-0.00064486
-0.00030699
-9.7831e-05
-0.00018165
-0.00034988
-0.00041142
-0.00031197
-0.00019481
-0.00030793
-0.00054767
-0.00062491
-0.00047127
-0.00019288
1.7331e-05
-8.9642e-05
-0.00030895
-0.00035565
-0.00020012
0.00012261
0.00033617
0.00028215
0.00024673
0.00035494
0.00060772
0.00092383
0.00096498
0.0007817
0.0006326
0.00065324
0.00093357
0.0012033
0.0011616
0.00096261
0.00092561
0.0010942
0.0014527
0.0017041
0.0017121
0.001805
0.0021977
0.0026739
0.0028517
0.0026377
0.0022472
0.0020734
0.0021779
0.0023978
0.0024322
0.0021517
0.0018109
0.0016596
0.0019171
0.002389
0.002585
0.0024589
0.002313
0.0023393
0.0025395
0.0026408
0.0024628
0.0021294
0.0018759
0.0018321
0.0018828
0.0017621
0.0014172
0.0011542
0.0010892
0.0011269
0.0012162
0.0010998
0.00074299
0.00030539
4.063e-05
0.00013113
0.0002202
0.00010512
-1.2444e-05
-0.00015032
-0.00018247
-9.7526e-05
-0.0001389
-0.00021782
-0.00020664
-0.00013819
9.6619e-05
0.0003816
0.00044864
0.00043689
0.00047067
0.00046944
0.00040894
0.00014024
-0.0002685
-0.00061485
-0.0009996
-0.0014137
-0.0017979
-0.0023017
-0.0027222
-0.0027269
-0.0026295
-0.0028329
-0.0032471
-0.0036117
-0.0036593
-0.003355
-0.0027545
-0.0020697
-0.0015003
-0.00099983
-0.00064123
-0.00030049
0.00041192
0.00096167
0.0010887
0.0011349
0.0011619
0.001114
0.00083779
0.00046501
0.00023739
9.7232e-05
2.8724e-05
2.7318e-05
-0.00014905
-0.00039149
-0.00051627
-0.00053282
-0.0004519
-0.00046129
-0.00058548
-0.00058635
-0.00032385
0.0001037
0.00052604
0.00062341
0.00045336
0.00041853
0.00051565
0.00069845
0.00076834
0.00055054
0.00044544
0.00051333
0.00057409
0.00079464
0.00090502
0.00068125
0.00057106
0.00076509
0.0011622
0.0014524
0.0012679
0.00089867
0.00073729
0.00081819
0.0010932
0.0013236
0.0012448
0.0010242
0.00094301
0.0011064
0.0015142
0.0016607
0.0013635
0.0010835
0.0010165
0.0011544
0.0012094
0.0010255
0.00072122
0.00041004
0.0003508
0.00067002
0.00086871
0.0007124
0.00055688
0.00059242
0.00071744
0.00087323
0.00083489
0.00066486
0.00056327
0.0005583
0.00073104
0.00093852
0.0011024
0.0013201
0.0014661
0.0013435
0.0008489
0.00024524
-0.00010667
-9.4657e-05
0.00015473
0.00044966
0.00062053
0.00070332
0.00093107
0.0012659
0.0013945
0.0012634
0.00098476
0.00078574
0.00082516
0.0010521
0.001264
0.0011895
0.00087696
0.00063535
0.00070408
0.00080084
0.00058822
0.00017999
-0.00012968
-0.00015541
0.0001155
0.00051036
0.0005631
0.00014049
-0.00030305
-0.00047527
-0.00043176
-0.00056071
-0.00099933
-0.0013215
-0.0013104
-0.0010022
-0.00056145
-0.00044137
-0.00072263
-0.00095078
-0.0009711
-0.00073497
-0.00041368
-0.00060445
-0.0010666
-0.0012681
-0.001126
-0.0006657
-0.00038812
-0.00055919
-0.00081364
-0.00088305
-0.00061959
-0.00041305
-0.00071745
-0.0012067
-0.0013857
-0.0012254
-0.00085967
-0.00046044
-0.00037075
-0.00056867
-0.00078201
-0.00073516
-0.00052433
-0.00066829
-0.0012377
-0.0018632
-0.0021822
-0.0021196
-0.0020275
-0.0021598
-0.0022372
-0.0021453
-0.0018724
-0.0014602
-0.0013231
-0.0014801
-0.0014275
-0.0011582
-0.00055779
0.00012961
0.00031535
0.0002036
4.871e-05
-9.6248e-06
0.00013778
0.00029278
0.00012206
-0.00014173
-0.00029567
-0.00029958
-0.00023207
-0.00032631
-0.00052506
-0.00068191
-0.00065219
-0.00040859
-0.00023175
-0.00037412
-0.0007171
-0.0010035
-0.0010358
-0.00090026
-0.00093111
-0.0010722
-0.0011182
-0.0011059
-0.00087194
-0.00050748
-0.00035823
-0.00041039
-0.00051572
-0.00047001
-0.00030126
-0.00027899
-0.00034429
-0.00037916
-0.00044989
-0.00030363
1.948e-05
0.00015226
0.00015087
8.5588e-05
7.9514e-05
0.00020011
0.00020953
0.00014434
9.5427e-05
-1.1877e-05
4.346e-05
0.0002792
0.00047157
0.00054836
0.00035332
0.00020731
0.00045207
0.00072575
0.00086611
0.0010083
0.0010749
0.0011744
0.0013058
0.0013477
0.0012661
0.0010469
0.00081659
0.00074695
0.00063586
0.00045239
0.00036039
0.00023995
0.00012812
0.00020465
0.00035646
0.00057175
0.00073685
0.00079317
0.00098995
0.0011328
0.0011211
0.0011816
0.0012879
0.0013554
0.0013272
0.0011968
0.0011321
0.0011142
0.00097544
0.00076275
0.00048014
0.00019502
0.00010717
0.00018686
0.00028578
0.00034721
0.00030563
0.00026943
0.00035494
0.00037553
0.00035253
0.00028125
0.00010592
-1.7677e-05
-3.2082e-05
3.3596e-05
-1.5766e-05
-0.00020109
-0.00040283
-0.00044295
-0.00032018
-0.00023942
-0.00028765
-0.00033921
-0.00029124
-0.0001205
8.3536e-05
0.00010554
3.7231e-06
8.5474e-06
0.00021489
0.00039841
0.00038815
0.00022608
-2.8511e-05
-0.00011687
8.679e-05
0.00047377
0.00070921
0.00061518
0.00049164
0.0005113
0.00052724
0.00048085
0.00038322
0.00027629
0.00024977
0.00031109
0.00043999
0.00047099
0.00030118
0.00016559
0.00020784
0.00037171
0.00047155
0.00039831
0.00025787
0.0001714
0.00029286
0.00057182
0.00065975
0.00043836
0.00027223
0.00030864
0.00049201
0.0005718
0.0003401
0.00012031
4.6388e-05
7.8371e-05
0.00029396
0.00047176
0.00037985
0.00023667
0.00027608
0.00058093
0.00098917
0.0010752
0.00094887
0.0009315
0.0010499
0.0013915
0.0016687
0.0015509
0.001268
0.0011051
0.0012172
0.0014649
0.0014466
0.0011321
0.00084847
0.00078876
0.00098001
0.00118
0.0010744
0.00079911
0.00065408
0.00074954
0.0010418
0.0011399
0.00090479
0.0007234
0.00071971
0.00099676
0.0013543
0.0013351
0.0011253
0.00097817
0.001021
0.001388
0.0015859
0.0013308
0.0010242
0.00087142
0.00092364
0.00097017
0.0007325
0.00043659
0.00025996
0.00026108
0.00053936
0.00070461
0.00052267
0.00038335
0.00044395
0.00066899
0.00094077
0.00092179
0.00076215
0.00064473
0.00053338
0.00066959
0.00090855
0.00072515
0.00031624
0.00013373
0.0001773
0.00024798
0.00010126
-0.00012162
-0.00027462
-0.00037063
-0.00026436
-9.7512e-05
-8.7934e-05
-0.00012266
-0.00024121
-0.00030873
-0.00019397
-0.00019201
-0.00025933
-0.0002619
-0.00022614
-2.2629e-05
0.00022717
0.00035722
0.00034019
8.2657e-05
-0.00010358
-3.9653e-06
-5.9778e-06
-0.00011875
-0.0002252
-0.00029509
-6.0597e-05
0.00017577
0.00020039
0.00020372
0.00017104
0.00018885
0.00025739
4.0441e-05
-0.00029665
-0.00048923
-0.00064417
-0.00076088
-0.00085429
-0.00097896
-0.0010045
-0.0010824
-0.0012719
-0.0012893
-0.0012804
-0.0013957
-0.001435
-0.0013173
-0.0010543
-0.00083025
-0.00076476
-0.0005702
-0.00045434
-0.00067221
-0.00087374
-0.001029
-0.0011877
-0.0012434
-0.0012169
-0.0010998
-0.001076
-0.0011838
-0.0011196
-0.00092499
-0.00091474
-0.00090712
-0.001001
-0.0013292
-0.0016345
-0.0019666
-0.0021678
-0.0020456
-0.0018016
-0.0015154
-0.0012947
-0.0012684
-0.0012435
-0.0012698
-0.0014826
-0.0016156
-0.0016953
-0.0017136
-0.0015643
-0.0013408
-0.0010514
-0.00088123
-0.0012055
-0.0014308
-0.0012648
-0.00096944
-0.00067704
-0.00064004
-0.00075025
-0.00087376
-0.001105
-0.0013421
-0.0011281
-0.00057511
-0.00016105
0.00014427
0.00045019
0.00069451
0.00085779
0.00096643
0.00093126
0.00078742
0.00071
0.00078919
0.00095014
0.00097602
0.00086323
0.00076183
0.0006894
0.00062282
0.00068679
0.0007504
0.00056192
0.00042485
0.00056186
0.00085734
0.0010167
0.00088689
0.00077498
0.00083803
0.00092625
0.001033
0.0010445
0.00092143
0.00090953
0.0010572
0.0013468
0.0016619
0.0016248
0.0013907
0.0012682
0.0011871
0.0012091
0.0012088
0.0010118
0.00095385
0.0011279
0.0014038
0.0018262
0.0020105
0.0018471
0.0016617
0.0014793
0.001305
0.0010677
0.00063272
6.1433e-05
-0.00039071
-0.0006699
-0.00070315
-0.00057764
-0.00054841
-0.00041907
-0.00017893
6.9689e-05
0.00028194
0.0002454
1.4121e-05
-0.0001887
-0.00031295
-0.00037852
-0.00051831
-0.00082541
-0.0011551
-0.0013955
-0.0014431
-0.0014177
-0.0015931
-0.0018336
-0.0019515
-0.0020156
-0.002125
-0.0021348
-0.002052
-0.0019409
-0.0016436
-0.0010313
-0.00029765
-5.1979e-06
-0.00020605
-0.0006757
-0.0012894
-0.0015794
-0.0015867
-0.0017331
-0.0019457
-0.0020817
-0.0021129
-0.0021026
-0.0023471
-0.0026255
-0.0024837
-0.0022132
-0.0021321
-0.0021094
-0.0022074
-0.0020962
-0.0015898
-0.0010361
-0.00049966
7.713e-05
0.00031995
0.00032021
0.00026659
0.00033829
0.00049758
0.0004681
0.0003614
0.0003104
0.00037733
0.00066794
0.00087644
0.0009448
0.0011435
0.0012735
0.0013737
0.0015491
0.0015956
0.0015622
0.0015755
0.0016334
0.001755
0.0018935
0.0020168
0.0021891
0.0022987
0.0023808
0.0025025
0.0025082
0.002445
0.0023377
0.0022105
0.0023129
0.0024611
0.0024441
0.0024561
0.0024783
0.002471
0.0025561
0.0026187
0.0026564
0.0026387
0.0024215
0.0022782
0.0022906
0.0022667
0.0022374
0.002239
0.0023033
0.0023811
0.0024109
0.0025587
0.0027436
0.0026728
0.00246
0.0022279
0.0019497
0.0017646
0.001721
0.0016913
0.0014335
0.0011087
0.0010261
0.0010941
0.001076
0.00089738
0.0006417
0.00046542
0.0003797
0.00044414
0.00059482
0.0005005
0.00022641
3.1346e-05
-9.0339e-05
-0.00018985
-0.0004567
-0.00092003
-0.0012121
-0.001294
-0.0010956
-0.00068278
-0.00066002
-0.00085106
-0.00082377
-0.00067729
-0.00051231
-0.0004237
-0.00065849
-0.00090185
-0.00090288
-0.00072219
-0.0001642
0.00044222
0.00064482
0.00069059
0.00081605
0.0010716
0.0011461
0.00085922
0.00054134
0.00042986
0.00032068
0.00024653
-0.00015866
-0.00083307
-0.0011946
-0.0012015
-0.00098737
-0.00076271
-0.00085278
-0.0009372
-0.00071324
-0.00031357
0.00010665
0.00028892
0.00030181
0.00035791
0.00047379
0.00073336
0.00093957
0.00082309
0.00053605
0.00028144
0.00011933
-1.8686e-05
-0.00028057
-0.0006786
-0.00092167
-0.00086905
-0.00056211
-0.00031658
-0.00035794
-0.00056481
-0.00071901
-0.00066874
-0.00059765
-0.00070648
-0.00092484
-0.0011045
-0.0010798
-0.00071403
-0.00025274
-5.4783e-06
6.378e-05
-2.7735e-05
5.2651e-06
0.00020312
0.00013239
-0.00013873
-0.00050962
-0.0007681
-0.00066328
-0.00048293
-0.00043453
-0.00045938
-0.00062771
-0.00060072
-0.00032531
-0.00027541
-0.00035397
-0.00052351
-0.00067396
-0.00056404
-0.00030907
1.2657e-05
0.00026374
0.00025716
0.00028296
0.00051711
0.00078141
0.001073
0.0014014
0.0017258
0.0019362
0.0019663
0.0020118
0.0021422
0.0021572
0.001953
0.0016428
0.0013298
0.001135
0.0011091
0.0011669
0.0010852
0.00088382
0.00092667
0.0012416
0.0015169
0.0014217
0.00093513
0.00045965
0.00027259
0.00036535
0.00054053
0.00043015
0.00015841
0.00013082
0.00040434
0.00078913
0.00096641
0.00086137
0.00071593
0.0006871
0.00077207
0.00092638
0.00091626
0.00067744
0.00049187
0.00051202
0.00074188
0.00083549
0.00051802
9.8686e-05
-0.00016819
-0.00023153
-0.00018832
-0.00034289
-0.00074653
-0.0010835
-0.0011324
-0.0009104
-0.00067967
-0.00079246
-0.00097773
-0.0010093
-0.00089544
-0.00071715
-0.00075119
-0.0010002
-0.0012655
-0.001398
-0.0013126
-0.0013376
-0.0017294
-0.0022985
-0.002863
-0.0032474
-0.0035104
-0.0037977
-0.0040308
-0.00401
-0.003572
-0.002757
-0.0015486
-0.00040037
4.6315e-05
7.4255e-05
0.00027276
0.00052457
0.0004833
0.00029722
4.9665e-05
-0.00024484
-0.0003687
-0.00033131
-0.00028156
-0.00028221
-0.00039133
-0.00055024
-0.00060995
-0.00067854
-0.0008878
-0.0010432
-0.001018
-0.00094769
-0.00093207
-0.00087066
-0.00068381
-0.0005633
-0.00064907
-0.00065551
-0.00049454
-0.00042104
-0.00037599
-0.00033295
-0.00036856
-0.00039854
-0.00031039
-3.2829e-05
0.00032687
0.00054987
0.00056069
0.00041439
0.00020349
-2.5403e-05
-8.1255e-05
8.9814e-07
-2.6417e-05
4.1788e-05
0.00030138
0.00062036
0.00083342
0.00085697
0.00075139
0.0007786
0.00090458
0.001072
0.0011974
0.0011525
0.0010817
0.001138
0.001376
0.001743
0.0018931
0.0017439
0.0016324
0.0016064
0.0016238
0.0016944
0.0016087
0.001329
0.0012141
0.0013905
0.00179
0.0020173
0.0018164
0.001545
0.0014409
0.0014592
0.0014337
0.0011822
0.00086633
0.00074474
0.00087484
0.0012627
0.0015855
0.0014299
0.001127
0.0010695
0.0011465
0.001132
0.00084058
0.00035267
6.8107e-05
0.00020968
0.0006203
0.000886
0.00067938
0.00027128
0.00014156
0.00024483
0.00039158
0.0002575
-0.00021194
-0.00051801
-0.00045652
-0.00012635
0.00014989
-3.2421e-05
-0.00057191
-0.0011475
-0.0016408
-0.0020027
-0.002187
-0.00204
-0.0013775
-0.00059778
0.00013287
0.00079193
0.0010897
0.00097083
0.00057698
0.00026479
9.8726e-05
1.8551e-05
0.00011739
0.00031153
0.00052773
0.00088401
0.001097
0.0010143
0.00088125
0.00062389
0.00035061
0.00024602
4.8311e-05
2.8962e-05
0.00020558
0.00027546
0.00039897
0.00047423
0.00042695
0.00037798
0.00032396
0.00024249
0.00020802
4.112e-05
-8.7369e-05
5.5716e-06
0.00011587
0.00019425
0.00016361
6.7238e-05
3.3617e-05
-2.9718e-06
-0.00016132
-0.00029467
-0.00028623
-0.00015379
0.00011616
0.00050626
0.00075903
0.00074456
0.00069291
0.00070994
0.00080333
0.00077603
0.00049825
0.00028862
0.00031107
0.00045702
0.00079376
0.0010734
0.00097373
0.00083204
0.00079305
0.00089974
0.0010796
0.00089174
0.00050336
0.00037318
0.00046253
0.00069656
0.00079981
0.00054877
0.00027531
0.0001859
0.00030541
0.00061432
0.00069087
0.00047165
0.00032691
0.00038918
0.00062728
0.00079222
0.00070181
0.00051897
0.00036138
0.0003686
0.00050825
0.00042873
0.00012429
-0.00018787
-0.00044074
-0.00051789
-0.00043399
-0.00038083
-0.0003752
-0.00031937
-0.00012047
0.00021477
0.00036854
0.00024984
5.7623e-06
-0.00013628
1.8258e-05
0.00018808
0.00012137
7.988e-06
-0.00013614
-0.00022823
-6.3266e-05
0.00011892
9.5756e-05
-7.0869e-05
-0.0002862
-0.00030278
-0.00018773
-0.00024036
-0.00033582
-0.00034365
-0.00035628
-0.00036189
-0.00039533
-0.00041294
-0.00043038
-0.00057869
-0.00072065
-0.00073205
-0.0007932
-0.00086877
-0.00085801
-0.00084742
-0.00084742
-0.00086549
-0.00085861
-0.00076101
-0.00068143
-0.00069056
-0.00071673
-0.00071419
-0.00060089
-0.00038769
-0.00014094
-0.00014237
-0.00033774
-0.00043744
-0.00033849
-0.00013575
-7.5943e-05
-0.00018957
-0.00029034
-0.00029108
-9.4646e-05
0.00025495
0.00045541
0.00047024
0.00050414
0.00052648
0.00061444
0.00061953
0.00023576
-0.00021226
-0.00033532
-0.00024714
0.00010589
0.00044813
0.00048508
0.00052161
0.00058208
0.00074549
0.0010415
0.00099069
0.00063578
0.00037934
0.00036124
0.00057664
0.00068071
0.00053547
0.00036296
0.00018315
0.00014443
0.00038563
0.00045417
0.00029686
0.00023757
0.00035455
0.00063131
0.00078582
0.00068282
0.00057715
0.00055333
0.00067399
0.00084787
0.00073497
0.00034012
-5.5216e-05
-0.00027993
-0.00034408
-0.00033807
-0.00032089
-0.00023423
-7.3516e-05
0.00025295
0.00068377
0.00081816
0.00060505
0.00036332
0.00037571
0.00066025
0.00083144
0.00069628
0.00045684
0.00023035
0.00020819
0.00038967
0.00049644
0.00046826
0.000236
-6.1237e-05
3.5652e-05
0.00030214
0.0002746
0.00014003
9.5312e-05
0.00017024
0.00025207
0.00016677
0.00017307
0.00020177
5.9738e-05
3.8504e-05
0.00013462
8.8252e-05
5.6597e-05
0.00010849
0.00021117
0.00030844
0.00029866
0.00032869
0.00038709
0.0002474
0.00013948
0.00018889
0.00021394
0.00020199
0.00014364
0.00018298
0.00025096
0.00015298
0.00010557
0.0001886
0.00018598
0.00021744
0.00035167
0.00031904
0.0002279
0.0002178
0.00018393
0.00011411
0.00010726
0.00021448
0.00042076
0.00053841
0.00026494
-0.00018919
-0.00039048
-0.00036425
-0.00032906
-0.00042474
-0.00070609
-0.00093028
-0.00086326
-0.00060823
-0.00034278
-0.00031306
-0.00053394
-0.00056803
-0.00042847
-0.00032259
-0.00030813
-0.00056295
-0.00085397
-0.00089424
-0.00072246
-0.00039183
-0.00031825
-0.00069731
-0.00089561
-0.00078707
-0.00055069
-0.00029896
-0.00039875
-0.00070052
-0.00074353
-0.00040059
0.00017706
0.0005234
0.00021802
-0.0001775
-0.00018344
0.00015069
0.00062578
0.00060818
0.00024644
0.0001722
0.00052714
0.0011341
0.0015369
0.0012659
0.00052088
-2.3446e-05
-0.00016602
-3.1022e-05
-0.00018819
-0.00060763
-0.00082283
-0.00073678
-0.00017296
0.00047044
0.00054157
0.00023136
-1.2386e-05
9.4988e-05
0.00037881
0.00026874
-0.00010688
-0.00024834
-8.3224e-05
0.00034837
0.00068155
0.00058059
0.00030663
0.00011048
0.00023921
0.00056261
0.00064003
0.00048416
0.00037514
0.0004893
0.00080393
0.00094901
0.00076849
0.00048325
0.000288
0.00056598
0.00099368
0.00097805
0.00072444
0.00043741
0.00024674
0.00040997
0.00057585
0.00050157
0.0003622
0.00010257
0.00014474
0.00044781
0.00046653
0.00037861
0.00032919
0.00026655
0.00034939
0.00033651
0.00011791
-0.00011974
-0.00042588
-0.00061418
-0.00048713
-0.00043071
-0.00048086
-0.00045734
-0.00046863
-0.00035041
-0.00015715
-1.1838e-06
0.00021775
0.00024797
0.00017653
0.00024006
0.00020026
0.0001175
0.00011307
4.8883e-05
-4.7938e-05
-0.00023775
-0.00041116
-0.00047869
-0.00071439
-0.00097081
-0.0010555
-0.0011838
-0.0012011
-0.00080862
-0.00027152
-7.7288e-05
-0.00019163
-0.00030517
-0.00018583
1.2061e-05
0.00010836
0.00013214
0.00014244
0.00024342
0.00045293
0.00065979
0.00059182
0.00028273
6.1114e-05
5.4047e-05
0.00013414
1.0341e-05
-0.00036502
-0.0006751
-0.00072465
-0.00043857
-0.00012259
-0.00030919
-0.00069454
-0.00091359
-0.00089427
-0.00053508
-0.00017727
-0.00038773
-0.00075244
-0.00079425
-0.00051347
-2.4457e-05
0.00011987
-0.00023493
-0.0004878
-0.00035185
7.2694e-05
0.0003796
0.00025971
-5.7939e-05
-0.00025419
-0.00030447
-0.00048398
-0.00085401
-0.0011554
-0.0010699
-0.00062008
8.757e-05
0.00051974
0.00029198
-8.9655e-05
-0.00016812
2.9961e-06
0.00042951
0.00054627
0.00010801
-0.00022865
-0.00027786
1.9464e-05
0.00045303
0.00035435
-2.6884e-05
-8.4582e-05
0.0001483
0.00053239
0.0006138
0.00039211
0.00019697
8.0609e-05
0.00018591
0.0003659
0.0002096
-8.8231e-05
-0.00029217
-0.00030323
2.7143e-05
0.00026577
0.00025366
0.00017925
8.2397e-05
0.00013743
0.00037054
0.0004579
0.00042399
0.00029383
0.00020614
0.00037772
0.0004138
0.00024412
0.00012327
-1.0226e-05
1.3569e-05
0.00014979
0.00013587
8.2762e-05
-1.3105e-05
-9.4947e-05
8.4818e-06
2.9459e-06
-0.00012026
-0.00015285
-0.00018477
-0.00016357
7.7053e-07
0.00016899
0.00042301
0.00066829
0.00061841
0.00053375
0.000421
0.00019011
8.2308e-05
-7.701e-05
-0.00029831
-0.00052978
-0.00085835
-0.0010236
-0.0010459
-0.0011409
-0.0010612
-0.00091233
-0.0007771
-0.00050984
-0.00023595
-0.00012205
-0.00013458
-0.00028398
-0.00021679
2.4432e-05
2.776e-06
-0.00012723
-0.00027188
-0.00040032
-0.00033088
-7.1145e-05
4.427e-05
-0.00017631
-0.00053557
-0.00072223
-0.00058821
-0.00033616
-0.00025796
-0.0003413
-0.00035407
-0.00015953
0.00017382
0.00048533
0.0004373
0.00010518
-0.00010638
-1.101e-05
0.00018516
0.00017814
-7.0469e-05
-0.00031273
-0.0003193
-9.8741e-05
0.00010056
-0.00013853
-0.00065334
-0.00098915
-0.0010398
-0.00063999
-0.00015713
-0.00024674
-0.00050554
-0.00054681
-0.00041415
-0.00012711
-0.0001952
-0.00059968
-0.00086742
-0.00094671
-0.00076977
-0.00043547
-0.00034951
-0.00046245
-0.00048767
-0.00026282
0.00029349
0.00075659
0.00055092
0.00018569
7.587e-05
0.00017661
0.00040115
0.00030292
-0.00010779
-0.00030807
-0.00013637
0.00040179
0.00086394
0.00079861
0.00054415
0.00042928
0.00045959
0.00078838
0.00095141
0.00059299
0.00023105
0.00013551
0.00024924
0.00034873
0.00019219
-7.8812e-05
-0.00025132
-0.00013799
0.00024369
0.00042786
0.00019578
-8.9008e-05
-0.00021292
-0.00019855
5.5102e-05
3.261e-06
-0.00050025
-0.00085594
-0.00095244
-0.00076677
-0.0005215
-0.00057338
-0.00080637
-0.00088947
-0.00066243
-0.0002789
-0.000176
-0.00026815
-0.0003275
-0.00044379
-0.00040244
-0.00015952
-0.00010105
-0.00026659
-0.00052375
-0.00068442
-0.00058259
-0.00054208
-0.00073618
-0.00068526
-0.00043404
-0.00021631
-0.00014919
-0.00021996
-0.00024717
-0.00027386
-0.00035327
-0.00028002
-0.00025763
-0.00030241
-0.00014552
0.0001855
0.00044364
0.00054677
0.00058831
0.00063304
0.00074997
0.00078123
0.000774
0.00084081
0.00081549
0.00074408
0.0007317
0.00074418
0.00060705
0.00030376
0.00015786
0.00031408
0.00060373
0.00080644
0.00076983
0.00061736
0.00057604
0.00068095
0.0007811
0.00056653
0.0001042
-0.00024314
-0.00032255
-0.00014933
-9.3806e-05
-0.00043305
-0.00073509
-0.00071277
-0.00053849
-0.00036693
-0.00029029
-0.00041017
-0.00053364
-0.00041318
-7.8828e-05
9.597e-05
-1.843e-05
-0.00018918
-0.00025924
-0.00026155
-0.00016674
-0.00018938
-0.00049134
-0.00068005
-0.00063619
-0.0003792
-7.2087e-05
-0.00024022
-0.0006295
-0.00071978
-0.00060045
-0.00029856
-0.00014869
-0.00036724
-0.00060902
-0.00066432
-0.00043194
-1.9578e-05
-2.0619e-05
-0.0003367
-0.00046662
-0.00046455
-0.00030937
-5.1747e-05
-0.00023949
-0.00068098
-0.00088585
-0.00089229
-0.00049537
-1.7912e-05
-8.886e-05
-0.00021187
4.0769e-05
0.00057554
0.0010088
0.00088197
0.00040396
0.00012876
0.00014657
0.00048295
0.00085079
0.00074404
0.00044055
0.00029069
0.0003595
0.00066058
0.00070081
0.00040057
0.00025905
0.00031851
0.00058242
0.0007839
0.00053831
0.00018073
-3.5983e-05
-7.9196e-05
0.00016487
0.00024959
-0.00011129
-0.00046909
-0.00059703
-0.00040204
6.9755e-05
0.00019674
-1.0294e-05
-0.00021804
-0.00023266
9.3391e-05
0.00029091
0.00019554
0.0001054
2.3917e-05
6.0356e-05
0.00025099
0.00023732
7.3238e-05
-5.4973e-06
-2.7701e-05
9.0669e-05
0.00020548
6.1308e-05
-0.00012109
-0.00023559
-0.00022021
-1.5484e-05
0.00011563
5.9197e-05
-4.9513e-05
-0.00021393
-0.00029946
-0.00024009
-0.0001498
1.5615e-05
0.00021355
0.00039157
0.00065815
0.00080593
0.0008077
0.00081005
0.00068605
0.00051406
0.00041187
0.00010487
-0.00016215
-0.00014161
9.4235e-05
0.00039996
0.00043377
0.00029555
0.00038744
0.00056203
0.00057663
0.00051187
0.00037288
0.00028891
0.00032674
0.00040827
0.00032576
-1.6143e-05
-0.00031976
-0.00028384
-6.3336e-05
3.2456e-05
-8.6703e-05
-0.00039031
-0.00051729
-0.00034322
-8.6258e-05
6.3944e-05
-6.9343e-05
-0.0003637
-0.00043761
-0.00025614
-9.9055e-05
-0.00015635
-0.00039325
-0.0004771
-0.00029609
4.7401e-05
0.00042812
0.00042364
0.00013161
1.9028e-05
0.00021984
0.00055704
0.00059854
0.00018562
-8.7415e-05
-6.8036e-05
-4.2685e-05
6.7731e-05
-7.9575e-05
-0.00049323
-0.00069666
-0.00060914
-0.00030226
-6.9943e-05
-0.00018522
-0.00039202
-0.00047233
-0.00028737
0.00018515
0.00042039
0.00018605
-9.6495e-05
-0.00017158
-6.1364e-05
-3.3701e-06
-5.0029e-05
-0.00010329
-0.00017639
-0.00011531
0.00026609
0.00040537
0.00025566
6.7737e-05
-3.0318e-05
0.00010925
0.00050784
0.00062791
0.00038455
0.00012313
2.9579e-05
0.00041739
0.00086982
0.00084103
0.00066074
0.00058713
0.00068246
0.00090299
0.00072596
7.993e-05
-0.00043586
-0.00060132
-0.00037791
8.5907e-05
0.00029067
0.00024574
0.00026231
0.00038624
0.00071597
0.00093827
0.00069887
0.00026002
9.5369e-06
0.00012705
0.00030137
0.00013949
-0.00010718
-0.00025485
-0.00029589
-0.00010732
0.00013128
9.8618e-05
-0.00012115
-0.00036911
-0.00039444
-0.0001736
-0.00011555
-0.00020346
-0.00019201
-0.00020559
-0.00021141
-0.00016728
-0.00023163
-0.00034471
-0.00045939
-0.00051242
-0.00029793
-7.5605e-05
