4.49
5.6
6.73
7.81
8.78
9.54
9.99
10.09
9.86
9.38
8.79
8.26
7.97
8.06
8.58
9.45
10.55
11.69
12.68
13.37
13.57
13.16
12.08
10.41
8.43
6.48
4.88
3.83
3.3
3.15
3.19
3.34
3.6
4.03
4.65
5.42
6.25
7.11
8.01
9.02
10.15
11.31
12.25
12.67
12.32
11.09
9.05
6.44
3.64
1.01
-1.09
-2.43
-2.95
-2.77
-2.15
-1.42
-0.82
-0.53
-0.56
-0.85
-1.27
-1.69
-2.04
-2.3
-2.55
-2.9
-3.49
-4.4
-5.63
-7.11
-8.7
-10.27
-11.69
-12.81
-13.53
-13.78
-13.53
-12.87
-11.97
-11.05
-10.3
-9.83
-9.66
-9.72
-9.95
-10.31
-10.75
-11.27
-11.81
-12.3
-12.64
-12.78
-12.74
-12.56
-12.37
-12.27
-12.3
-12.44
-12.62
-12.76
-12.8
-12.67
-12.26
-11.47
-10.18
-8.37
-6.12
-3.67
-1.31
0.73
2.33
3.52
4.38
5.01
5.45
5.7
5.73
5.54
5.18
4.75
4.35
4.07
4.01
4.18
4.59
5.15
5.78
6.35
6.72
6.82
6.6
6.12
5.44
4.64
3.77
2.88
2
1.17
0.42
-0.29
-0.99
-1.82
-2.86
-4.15
-5.62
-7.04
-8.12
-8.54
-8.12
-6.85
-4.95
-2.77
-0.66
1.15
2.54
3.5
4.08
4.28
4.11
3.6
2.84
2.02
1.32
0.87
0.7
0.74
0.89
1.1
1.36
1.68
2.01
2.27
2.36
2.23
1.93
1.54
1.2
0.97
0.8
0.59
0.24
-0.29
-0.96
-1.7
-2.43
-3.14
-3.88
-4.71
-5.61
-6.48
-7.08
-7.17
-6.59
-5.35
-3.65
-1.81
-0.13
1.22
2.25
3.05
3.73
4.3
4.7
4.88
4.88
4.82
4.93
5.38
6.23
7.38
8.57
9.52
10.01
10.01
9.63
9.08
8.57
8.2
7.92
7.58
7.04
6.26
5.31
4.34
3.53
2.88
2.33
1.71
0.9
-0.19
-1.53
-3.06
-4.67
-6.21
-7.5
-8.32
-8.45
-7.76
-6.32
-4.43
-2.55
-1.16
-0.56
-0.81
-1.73
-3
-4.34
-5.58
-6.66
-7.62
-8.45
-9.09
-9.44
-9.41
-9.05
-8.46
-7.77
-7.1
-6.48
-5.9
-5.33
-4.77
-4.24
-3.74
-3.29
-2.86
-2.45
-2.07
-1.76
-1.56
-1.48
-1.48
-1.5
-1.49
-1.45
-1.45
-1.53
-1.71
-1.91
-2
-1.83
-1.28
-0.28
1.16
2.93
4.92
6.94
8.85
10.55
11.97
13.14
14.06
14.72
15.04
14.96
14.5
13.77
12.97
12.29
11.83
11.57
11.36
11.09
10.71
10.26
9.82
9.38
8.86
8.09
6.94
5.43
3.67
1.88
0.24
-1.17
-2.39
-3.54
-4.66
-5.76
-6.79
-7.63
-8.29
-8.82
-9.34
-9.95
-10.67
-11.46
-12.25
-12.94
-13.46
-13.76
-13.77
-13.41
-12.62
-11.31
-9.51
-7.31
-4.88
-2.46
-0.25
1.58
2.97
3.96
4.64
5.11
5.43
5.61
5.64
5.57
5.5
5.56
5.81
6.26
6.79
7.22
7.43
7.36
7.07
6.66
6.22
5.85
5.56
5.32
5.08
4.77
4.32
3.75
3.1
2.46
1.9
1.46
1.1
0.72
0.25
-0.33
-1
-1.74
-2.52
-3.4
-4.44
-5.66
-7.01
-8.27
-9.21
-9.61
-9.32
-8.35
-6.8
-4.85
-2.72
-0.66
1.13
2.5
3.38
3.82
3.94
3.88
3.78
3.68
3.61
3.57
3.57
3.63
3.76
3.97
4.24
4.55
4.87
5.15
5.33
5.38
5.26
4.95
4.47
3.86
3.14
2.37
1.59
0.82
0.11
-0.52
-1.07
-1.57
-2.04
-2.53
-3.05
-3.64
-4.27
-4.93
-5.59
-6.21
-6.78
-7.31
-7.84
-8.46
-9.22
-10.14
-11.14
-12.09
-12.8
-13.05
-12.7
-11.64
-9.89
-7.62
-5.1
-2.61
-0.44
1.28
2.53
3.39
3.95
4.29
4.4
4.3
4.07
3.85
3.79
4.03
4.6
5.37
6.2
6.86
7.25
7.32
7.08
6.63
6.02
5.36
4.71
4.15
3.71
3.4
3.17
2.95
2.66
2.25
1.7
1.05
0.33
-0.44
-1.24
-2.07
-2.9
-3.69
-4.41
-5.06
-5.67
-6.26
-6.87
-7.47
-7.99
-8.36
-8.51
-8.41
-8.08
-7.5
-6.65
-5.46
-3.9
-2.03
0.01
2.07
3.98
5.66
7.11
8.32
9.25
9.85
10.12
10.13
10.11
10.27
10.76
11.56
12.54
13.54
14.56
15.68
17.06
18.8
20.79
22.75
24.36
25.43
26.01
26.43
27.06
28.19
29.83
31.66
33.21
33.97
33.65
32.23
30.03
27.48
24.93
22.48
19.89
16.7
12.44
6.77
-0.39
-8.94
-18.74
-29.65
-41.42
-53.54
-65.17
-75.22
-82.7
-87
-88
-85.87
-80.72
-72.5
-61.25
-47.53
-32.9
-19.88
-11.19
-8.71
-12.53
-20.68
-29.79
-36.36
-38.06
-34.37
-26.53
-16.62
-6.66
2.09
9.36
15.45
20.85
25.81
30.28
34.05
36.94
38.99
40.39
41.43
42.25
42.85
43.03
42.48
40.95
38.33
34.73
30.41
25.64
20.61
15.36
9.88
4.22
-1.4
-6.56
-10.81
-13.84
-15.61
-16.42
-16.69
-16.89
-17.33
-18.11
-19.2
-20.49
-21.79
-22.88
-23.41
-23.04
-21.5
-18.73
-14.99
-10.7
-6.37
-2.36
1.18
4.31
7.12
9.71
12.07
14.15
15.94
17.47
18.81
20.04
21.17
22.15
22.84
23.09
22.79
21.91
20.55
18.95
17.41
16.12
15.16
14.4
13.58
12.44
10.79
8.63
6.06
3.31
0.62
-1.77
-3.63
-4.71
-4.78
-3.72
-1.48
1.79
5.89
10.57
15.57
20.62
25.46
29.79
33.35
36.03
37.84
38.88
39.24
38.96
38.03
36.45
34.34
31.97
29.64
27.53
25.55
23.37
20.42
16.16
10.18
2.39
-6.9
-16.96
-26.75
-35.19
-41.46
-45.24
-46.86
-47.2
-47.38
-48.41
-50.76
-54.1
-57.2
-58.17
-54.97
-46.11
-31.36
-11.99
9.52
30.26
47.72
60.5
68.44
72.21
72.79
70.88
66.79
60.55
52.26
42.32
31.5
20.67
10.59
1.69
-5.95
-12.47
-18.01
-22.65
-26.37
-29.12
-30.99
-32.23
-33.25
-34.48
-36.2
-38.48
-41.11
-43.7
-45.81
-47.14
-47.62
-47.46
-46.95
-46.35
-45.74
-45.04
-44.1
-42.84
-41.32
-39.71
-38.22
-36.92
-35.78
-34.62
-33.24
-31.44
-29.12
-26.28
-23
-19.39
-15.56
-11.57
-7.44
-3.13
1.4
6.21
11.34
16.79
22.52
28.39
34.21
39.74
44.86
49.68
54.53
59.98
66.53
74.37
83.16
91.91
99.09
103.02
102.17
95.5
82.72
64.2
40.96
14.5
-13.39
-40.81
-65.98
-87.41
-104.17
-115.81
-122.4
-124.3
-122.11
-116.53
-108.4
-98.69
-88.42
-78.53
-69.79
-62.68
-57.39
-53.88
-51.73
-50.24
-48.39
-45.17
-39.88
-32.43
-23.41
-13.81
-4.72
3.08
9.12
13.22
15.28
15.27
13.35
10.03
6.25
3.07
1.4
1.57
3.29
5.82
8.28
10.03
10.77
10.53
9.56
8.16
6.57
4.93
3.28
1.63
-0.03
-1.67
-3.24
-4.58
-5.49
-5.77
-5.28
-4.09
-2.44
-0.65
0.92
2.07
2.77
3.14
3.35
3.57
3.94
4.56
5.46
6.54
7.55
8.06
7.67
6.14
3.65
0.81
-1.52
-2.5
-1.69
0.76
4.24
7.96
11.33
14.22
16.96
20.03
23.79
28.17
32.74
36.82
39.75
40.9
39.76
35.88
29.02
19.34
7.57
-5.02
-16.97
-27.04
-34.51
-39.26
-41.45
-41.26
-38.71
-33.83
-27.01
-19.21
-11.82
-6.2
-3.1
-2.36
-3.03
-3.9
-4.16
-3.77
-3.39
-4.01
-6.38
-10.63
-16.21
-22.04
-26.82
-29.24
-28.28
-23.32
-14.34
-2.03
12.13
26.13
37.91
46.01
50.22
51.65
52.41
54.65
59.74
67.74
77.49
87.29
95.63
101.64
105.16
106.42
105.72
103.31
99.43
94.43
88.71
82.57
76.04
69.01
61.52
54.12
47.82
43.73
42.48
43.75
46.33
48.55
48.88
46.4
40.72
31.68
18.98
2.18
-19.04
-44.35
-72.5
-101.38
-128.6
-152.16
-170.86
-184.46
-193.4
-198.33
-199.79
-198.02
-193.08
-185.12
-174.47
-161.58
-146.76
-130.04
-111.05
-89.34
-64.72
-37.57
-8.97
19.54
46.25
69.66
88.65
102.54
111.2
115.09
115.3
113.37
110.86
108.78
107.28
105.64
102.81
97.98
91.11
82.82
74.1
65.72
58
50.71
42.96
32.93
17.84
-5.54
-39.28
-82.26
-128.89
-169.6
-193.35
-191.19
-159.58
-101.84
-27.4
50.65
118.51
164.3
180.32
164.52
121.08
59.85
-5.74
-61.71
-96.86
-105.02
-86.04
-45.25
7.78
60.94
102
121.59
116.06
89.09
50.98
15.01
-7.42
-11.22
0.88
20.35
37.27
44.81
41.77
32.63
24.87
25.71
38.83
63.61
95.6
128.26
154.93
170.59
173.13
163.28
144.09
119.16
92.32
67.03
45.74
29.42
17.72
9.75
4.23
0.01
-5.36
-13.9
-26.51
-42.73
-61.08
-79.5
-95.46
-107.71
-116.7
-127.22
-144.72
-172.61
-210.57
-254.84
-299.66
-337.74
-363.01
-371.08
-363.38
-343.72
-316.79
-286.86
-257.72
-232.29
-211.2
-194.65
-163.74
-110.24
-40
30.87
89.46
133.71
164.69
192.94
223.74
257.08
286.78
307.09
315.03
311.37
299.53
283.48
267.23
252.55
240.22
227.83
213.12
195.23
175.01
153.81
132.4
111.68
91.72
73
54.36
34.37
11.6
-14.9
-45.7
-80.86
-119.02
-157.77
-193.28
-221.87
-240.11
-245.55
-237.4
-217.24
-189.02
-157.65
-127.36
-99.93
-74.64
-49.2
-21.93
6.31
31.14
45.56
42.95
20.54
-18.19
-63.9
-104.35
-129.11
-133.11
-117.97
-90.73
-60.33
-33.25
-11.31
7.68
27.38
49.61
73.96
97.93
117.8
129.43
130.1
118.96
96.57
64.54
24.43
-20.62
-66.26
-108.3
-144.43
-172.84
-192.03
-201.03
-199.78
-190.52
-175.27
-155.08
-130.14
-100.56
-64.73
-20.33
33.28
97.44
161.01
207.53
227
226.7
216.74
205.06
196.54
190.19
184.38
175.97
163.76
148.98
133.8
118.74
103.82
88.93
73.8
58.6
42.96
27.77
14.72
4.85
-2.85
-9.96
-17.86
-27.46
-38.72
-51.38
-63.9
-73.94
-79.63
-80.82
-78.48
-74.13
-69.43
-65.5
-63.01
-61.51
-59.83
-56.89
-52.61
-47.52
-42.49
-38.42
-35.71
-34.39
-33.86
-33.17
-31.45
-28.36
-24.03
-18.83
-13.24
-7.58
-2.06
3.14
7.81
11.63
14.33
15.88
16.51
16.62
16.61
16.68
16.79
16.83
16.79
16.77
16.95
17.46
18.28
19.26
20.23
21.03
21.56
21.7
21.3
20.19
18.33
15.78
12.8
9.7
6.75
4
1.35
-1.39
-4.36
-7.52
-10.68
-13.49
-15.54
-16.34
-15.32
-11.91
-5.76
3.01
13.69
24.94
35.31
43.56
49.17
52.3
53.57
53.62
52.77
50.99
48.06
43.87
38.56
32.48
25.99
19.29
12.42
5.23
-2.31
-10.12
-17.93
-25.35
-31.97
-37.43
-41.47
-43.97
-44.95
-44.48
-42.74
-39.87
-36.05
-31.43
-26.25
-20.8
-15.47
-10.66
-6.7
-3.75
-1.87
-1.03
-1.17
-2.28
-4.35
-7.15
-10.22
-12.83
-14.15
-13.51
-10.66
-5.85
0.25
6.81
13.14
18.83
23.86
28.4
32.67
36.79
40.73
44.29
47.18
49.13
49.95
49.57
48.08
45.7
42.67
39.2
35.41
31.36
27.1
22.7
18.31
14.09
10.12
6.38
2.68
-1.24
-5.69
-10.86
-16.79
-23.21
-29.63
-35.45
-40.12
-43.33
-45.08
-45.67
-45.54
-45.13
-44.67
-44.05
-42.75
-39.9
-34.49
-25.73
-13.44
1.77
18.5
35
49.69
61.6
70.51
76.76
80.89
83.34
84.33
83.96
82.32
79.53
75.7
70.86
64.93
57.8
49.47
40.12
30.05
19.49
8.5
-2.96
-14.88
-26.97
-38.68
-49.3
-58.33
-65.57
-71.22
-75.66
-79.27
-82.37
-85.27
-88.3
-91.77
-95.62
-99.25
-101.59
-101.49
-98.36
-92.54
-85.24
-77.95
-71.75
-66.86
-62.71
-58.46
-53.48
-47.67
-41.29
-34.55
-27.36
-19.32
-10.01
0.68
12.35
24.12
34.9
43.67
49.73
52.82
53.06
50.84
46.57
40.48
32.6
22.77
10.8
-3.4
-19.8
-38.08
-57.38
-75.86
-90.66
-98.4
-96.31
-83.52
-61.93
-35.87
-10.66
9.28
21.91
27.86
29.56
29.78
30.47
32.31
35.12
38.41
41.77
44.94
47.61
49.3
49.49
47.92
44.77
40.71
36.69
33.61
32.03
32.11
33.61
36.03
38.76
41.24
42.99
43.79
43.61
42.72
41.5
40.28
39.21
38.21
37.07
35.61
33.82
31.82
29.76
27.56
24.91
21.36
16.58
10.56
3.73
-3.25
-9.72
-15.24
-19.76
-23.42
-26.42
-28.8
-30.45
-31.23
-31.18
-30.66
-30.28
-30.73
-32.43
-35.32
-38.9
-42.46
-45.44
-47.65
-49.29
-50.71
-52.15
-53.53
-54.54
-54.77
-53.97
-52.2
-49.79
-47.12
-44.52
-42.23
-40.31
-38.7
-37.2
-35.48
-33.16
-29.77
-24.95
-18.63
-11.19
-3.38
3.98
10.17
14.64
17.19
17.97
17.53
16.63
16.07
16.66
19.25
24.33
31.77
40.85
50.67
60.61
70.61
80.74
91.16
101.87
112.35
121.41
127.69
130.23
128.76
123.51
114.32
100.74
82.44
59.67
33.37
5.29
-22.43
-47.38
-65.55
-74.91
-77.23
-76.1
-73.94
-71.32
-67.84
-63.3
-58.12
-52.93
-48.21
-43.63
-38.19
-31.1
-22.74
-14.99
-8.9
-5.23
-3.96
-4.71
-6.8
-9.42
-11.83
-13.55
-14.33
-14.01
-12.8
-11.2
-10.06
-10.14
-11.7
-13.98
-16.12
-17.18
-16.3
-13.01
-7.16
0.89
10.23
19.59
27.61
33.17
35.81
35.84
33.93
30.73
26.54
21.4
15.49
9.4
3.98
0.01
-2.3
-3.51
-4.66
-6.58
-9.44
-12.68
-15.44
-17.12
-17.77
-17.98
-18.46
-19.58
-21.19
-22.84
-24.21
-25.3
-26.41
-27.76
-29.25
-30.37
-30.47
-29.17
-26.67
-23.74
-21.3
-19.99
-19.74
-19.8
-19.03
-16.47
-11.8
-5.41
1.7
8.43
13.99
18.08
20.89
22.73
23.74
23.86
22.9
20.85
18.12
15.49
13.9
14.04
15.97
19.13
22.5
25.06
26.14
25.67
24.16
22.25
20.43
18.84
17.3
15.6
13.66
11.71
10.11
9.22
9.14
9.77
10.94
12.54
14.59
17.12
20
22.78
24.73
25.06
23.25
19.25
13.62
7.31
1.35
-3.47
-6.81
-8.73
-9.54
-9.52
-8.93
-7.94
-6.8
-5.84
-5.39
-5.6
-6.26
-6.92
-7.01
-6.25
-4.83
-3.3
-2.35
-2.38
-3.35
-4.77
-6.02
-6.61
-6.35
-5.37
-4.01
-2.62
-1.5
-0.95
-1.2
-2.4
-4.42
-6.86
-9
-10.11
-9.69
-7.71
-4.61
-1.14
1.98
4.3
5.7
6.35
6.57
6.56
6.48
6.4
6.43
6.69
7.34
8.42
9.83
11.33
12.59
13.32
13.36
12.73
11.63
10.35
9.15
8.23
7.64
7.32
7.11
6.85
6.38
5.72
4.96
4.32
4.04
4.3
5.16
6.5
8.07
9.47
10.2
9.71
7.49
3.26
-2.92
-10.42
-18.2
-24.98
-29.62
-31.47
-30.5
-27.33
-22.9
-18.25
-14.15
-11.06
-9.07
-8.03
-7.63
-7.52
-7.46
-7.37
-7.4
-7.82
-8.94
-10.77
-12.94
-14.7
-15.23
-14.1
-11.56
-8.54
-6.25
-5.55
-6.59
-8.67
-10.65
-11.46
-10.51
-7.75
-3.59
1.25
5.74
8.58
8.47
4.59
-2.83
-12.42
-22.07
-29.74
-34.35
-36.07
-35.98
-35.26
-34.57
-33.77
-32.33
-29.86
-26.46
-22.64
-18.93
-15.53
-12.27
-8.82
-4.96
-0.69
3.74
7.98
11.8
15.1
17.9
20.25
22.18
23.73
25.01
26.17
27.34
28.48
29.51
30.33
31.01
31.89
33.5
36.3
40.42
45.55
51.03
56.09
60.06
62.47
63.06
61.68
58.23
52.65
45.09
35.94
26.06
16.34
7.64
0.65
-4.24
-6.97
-7.81
-7.36
-6.38
-5.33
-4.78
-5.18
-6.41
-7.87
-8.75
-8.44
-6.79
-4.25
-1
2.26
4.93
7.2
10.02
14.43
20.9
28.99
37.45
45.72
52.68
57.35
59.95
61.74
64.38
69.23
76.99
87.29
99.75
111.58
118.15
115.46
101.76
78.7
51.25
26.2
1.94
-17.67
-29.07
-33.4
-34.68
-35.66
-35.7
-32.34
-23.8
-10.53
6.27
24.75
40.61
50.44
51.84
43.9
27.53
5.67
-17.42
-36.87
-50.79
-60.93
-68.85
-76.8
-86.38
-97.74
-109.59
-119.93
-126.26
-127.09
-121.9
-110.25
-92.4
-69.71
-44.91
-21.72
-3.93
6.37
8.99
5.63
-0.57
-6.64
-10.64
-12.1
-11.65
-10.41
-9.19
-8.47
-8.57
-9.57
-11.58
-14.45
-17.71
-20.6
-22.28
-22.28
-20.7
-18.16
-15.47
-13.24
-11.68
-10.47
-9.04
-6.9
-3.88
-0.21
3.57
6.84
9.07
10
9.73
8.64
7.18
5.73
4.43
3.23
1.95
0.47
-1.15
-2.57
-3.31
-2.85
-0.78
3
8.28
14.48
20.74
26.06
29.63
30.98
30.22
27.88
24.68
21.21
17.69
13.99
9.87
5.23
0.36
-4.18
-7.73
-9.89
-10.69
-10.62
-10.44
-10.88
-12.18
-13.94
-15.17
-14.91
-12.7
-9.1
-5.54
-3.78
-5.08
-9.58
-16.24
-23.44
-29.84
-34.87
-38.7
-41.67
-43.9
-45.23
-45.7
-46.05
-47.69
-52.1
-59.27
-66.83
-70.57
-66.22
-51.89
-29.32
-3.43
19.68
34.85
40.12
36.79
28.18
17.6
6.82
-4.06
-15.64
-28.48
-43.25
-59.79
-77.28
-94.14
-108.38
-118.18
-122.14
-119.35
-109.78
-95.33
-78.24
-60.86
-45.03
-32.09
-23.23
-18.9
-17.64
-11.59
5.29
34.33
70.13
104.36
131.45
150.01
159.77
162.07
159.59
151.24
137.88
121.07
103.08
86.45
73.13
63.9
58.61
56.11
53.97
50.56
45.28
39
33.33
29.48
27.63
27.25
27.34
26.45
23.95
19.85
14.86
9.88
5.41
1.39
-2.4
-6.2
-10.32
-14.67
-19.05
-23.17
-26.74
-29.67
-32.06
-34.01
-35.6
-36.98
-38.13
-39.02
-39.56
-39.69
-39.4
-38.81
-38.04
-37.11
-36
-34.62
-32.92
-30.96
-28.94
-27.09
-25.6
-24.55
-23.86
-23.35
-22.84
-22.19
-21.33
-20.26
-18.94
-17.26
-15.02
-12.01
-8.04
-3.05
2.84
9.35
16.06
22.51
28.35
33.37
37.7
41.83
46.66
53.28
62.68
75.33
90.87
108.1
125.25
140.61
152.93
161.66
166.9
169.06
168.57
165.65
160.16
151.52
138.72
120.5
95.78
64.29
27.17
-12.85
-51.9
-85.92
-111.8
-128.11
-135.26
-135.04
-129.78
-121.76
-112.8
-104.21
-96.9
-91.39
-87.77
-85.53
-83.76
-81.35
-77.53
-72.13
-65.64
-58.86
-52.46
-46.73
-41.45
-36.22
-30.71
-24.94
-19.28
-14.49
-11.44
-10.96
-13.54
-19.14
-27.13
-36.36
-45.5
-53.3
-58.98
-62.27
-63.33
-62.62
-60.75
-58.34
-55.93
-53.84
-52.13
-50.65
-49.21
-47.69
-46.17
-44.71
-43.26
-41.49
-38.95
-35.18
-30.03
-23.72
-16.87
-10.33
-4.91
-1.27
0.24
-0.35
-2.61
-5.79
-8.91
-11.07
-11.68
-10.6
-8.1
-4.73
-1.01
2.8
6.62
10.55
14.68
19.02
23.56
28.35
33.46
39
45.02
51.3
57.39
62.53
65.74
66
62.48
54.9
43.77
30.42
16.7
4.32
-5.61
-12.73
-17.27
-19.93
-22.05
-25.76
-33.54
-47.35
-67.22
-90.56
-112.63
-128.21
-133.39
-126.56
-108.17
-80.03
-44.8
-5.96
31.98
63.84
85.18
94.04
92.16
84.45
76.87
73.88
76.8
83.93
92.05
98.35
101.52
101.93
100.82
99.28
97.61
95.22
91.11
84.54
75.88
66.54
58.35
52.56
49.14
46.81
43.95
39.59
33.95
28.09
23.09
19.32
16.2
12.67
7.92
2.12
-3.67
-7.88
-9.21
-7.03
-1.51
6.33
14.73
21.24
23.13
17.99
4.77
-15.59
-39.97
-63.51
-80.77
-87.1
-79.69
-58.37
-25.76
13.02
51.45
82.91
102.47
107.92
99.87
81.17
56.24
29.81
5.56
-14.49
-30.25
-41.83
-49
-50.88
-46.44
-34.29
-13.86
13.69
45.47
76.85
103.46
121.64
128.2
120.08
96.11
57.76
9.15
-43.09
-92.05
-130.77
-154.14
-160.22
-150.69
-128.28
-95.95
-56.65
-10.57
35.4
73.06
98.99
118.32
132.68
141.32
143.29
134.84
116.07
89.73
62.06
40.31
29.58
30.34
39.95
53.87
67.53
78.51
85.91
90.45
92.32
89.32
76.75
50.72
10.96
-37.7
-85.34
-120.84
-135.2
-125.21
-94.6
-52.43
-8.62
29.4
57.8
75.81
83.4
80.16
65.07
37.12
-3.37
-53.46
-107.66
-159.08
-200.93
-228.4
-239.69
-236.35
-222.6
-203.82
-184.75
-168.31
-155.58
-146.27
-139.52
-134.31
-129.58
-124.19
-117.09
-107.76
-96.42
-83.9
-71.13
-58.62
-46.45
-34.64
-23.57
-14.04
-7.01
-2.94
-1.39
-1.09
-0.55
1.36
5.03
10.12
16.07
22.5
29.36
36.68
44.18
50.99
55.76
57.23
54.82
49.05
41.4
33.77
27.75
23.94
21.91
20.55
18.75
16.01
12.6
9.41
7.58
8.04
11.3
17.34
25.61
35.05
44.11
51.04
54.39
53.45
48.61
41.22
33.02
25.53
19.52
14.98
11.33
7.93
4.27
0.05
-4.84
-10.48
-16.81
-23.67
-30.64
-37.18
-42.62
-46.43
-48.3
-48.26
-46.72
-44.45
-42.42
-41.44
-41.83
-43.3
-45.1
-46.29
-46.26
-44.74
-41.69
-36.98
-30.36
-21.66
-11.11
0.54
12.29
23.4
33.56
42.81
50.94
57.23
60.58
60.21
56.23
49.87
42.9
36.82
32.31
29.24
27.21
26.1
26.29
28.34
32.46
38.17
44.43
49.95
53.64
54.76
53.01
48.48
41.56
32.9
23.22
13.07
2.74
-7.69
-18.11
-28.08
-36.81
-43.36
-47.06
-47.74
-45.92
-42.37
-37.8
-32.54
-26.59
-19.84
-12.52
-5.2
1.41
6.69
10.49
13.03
14.68
15.68
16.04
15.61
14.46
12.94
11.53
10.49
9.32
6.75
1.28
-7.75
-19.36
-30.74
-38.27
-39.05
-32.18
-19.31
-3.71
11.14
23.08
31.82
38.57
44.96
52.05
59.88
67.75
74.85
80.81
85.79
90.07
93.45
94.74
91.91
82.94
67.04
45.59
22.23
1.64
-12.27
-18.04
-17.06
-12.69
-8.51
-6.71
-7.46
-9.41
-10.89
-10.8
-9.05
-6.14
-2.59
1.4
5.83
10.51
14.78
17.43
17.11
13.01
5.29
-4.97
-16.27
-27.45
-38.22
-49.09
-60.69
-72.99
-84.9
-94.6
-100.44
-101.68
-98.68
-92.49
-84.21
-74.52
-63.81
-52.59
-41.73
-32.34
-25.3
-20.71
-17.8
-15.3
-12.16
-8.03
-3.33
1.02
4.27
6.2
7.18
7.94
9.15
11.08
13.55
16.2
18.74
21.22
23.93
27.14
30.79
34.37
37.04
38
36.82
33.63
29.07
23.98
19.14
15.02
11.74
9.17
7.03
5.03
2.9
0.47
-2.37
-5.54
-8.77
-11.66
-13.75
-14.75
-14.63
-13.66
-12.27
-10.91
-9.76
-8.74
-7.49
-5.66
-3.14
-0.22
2.39
3.87
3.66
1.79
-1.05
-3.76
-5.29
-5.16
-3.67
-1.87
-1.13
-2.58
-6.52
-12.31
-18.49
-23.4
-25.95
-26.05
-24.72
-23.71
-24.84
-29.51
-38.17
-50.67
-66.53
-84.84
-103.9
-121.2
-134.19
-141.67
-144.72
-146.13
-148.43
-151.36
-150.63
-139.09
-110.35
-62.84
-1.82
62
116.87
155.08
175.74
183.87
186.67
189.37
193.04
195.3
192.88
184.18
170.36
154.22
137.69
119.63
96.22
63.46
20.68
-27.38
-71.59
-101.98
-111.77
-100.09
-71.77
-34.76
2.85
34.95
57.83
69.69
70.06
59.87
41.63
19.25
-3.07
-22.25
-37.13
-48.25
-56.84
-63.71
-69
-72.59
-74.69
-76.03
-77.45
-79.2
-80.58
-80.04
-75.8
-66.74
-53.07
-36.42
-19.17
-3.49
9.46
19.81
28.68
37.47
47.3
58.61
71.16
84.32
97.44
110.11
122.05
132.84
141.79
148.17
151.22
150.27
145.05
135.81
123.26
108.06
90.48
70.5
48.83
26.87
6.36
-10.96
-23.72
-31.27
-33.84
-32.42
-28.14
-20.88
-10.57
1.55
12.7
20
21.77
18.16
10.82
1.96
-4.86
-7.13
-4.96
-0.61
3.74
7.3
10.47
13.85
17.64
23.89
34.81
51.02
71.64
95.68
122.83
152.85
185.17
202.59
193.89
162.09
121.61
85.09
56.32
32.9
11.19
-10.65
-29.78
-44.82
-53.86
-57.26
-57.79
-58.39
-60.46
-64.2
-69.91
-77.34
-85.42
-93.11
-100.63
-108.83
-117.76
-126.23
-132.95
-137.84
-141.83
-145.56
-149.05
-152.28
-155
-156.32
-154.97
-150.02
-141.6
-129.82
-114.5
-95.66
-74.84
-54.81
-39.02
-29.91
-28.02
-31.93
-37.78
-40.77
-37.03
-24.86
-4.29
22.96
54.27
87.86
116.02
129.67
124.18
101.32
66.8
27.97
-8.73
-38.24
-57.39
-65.48
-63.38
-53.32
-38.86
-25.73
-14.94
-6.94
-1.16
3.39
7.08
9.91
11.8
12.47
11.94
11.02
10.3
10.26
10.9
12.8
16.04
20.79
27.24
35.32
44.71
54
61.14
63.95
60.97
52.51
41.34
31.86
28.62
34.53
49.11
68.62
87.3
99.43
101.44
93.04
76.82
56.64
35.84
15.92
-3.21
-22.36
-41.73
-60.34
-76.06
-86.75
-91.51
-91.37
-89.08
-87.9
-90.34
-97.09
-107.03
-117.61
-125.88
-129.5
-127.49
-120.33
-109.73
-97.88
-86.6
-76.91
-68.77
-61.52
-54.65
-48.22
-42.87
-39.23
-37.59
-37.62
-38.69
-39.82
-40.02
-38.49
-34.66
-28.17
-18.84
-7.36
5.25
17.37
28.44
39.23
51.2
65.4
81.6
98.2
112.04
120.52
121.88
117.62
111.73
108.65
110.71
116.98
124.21
127.53
124.16
113.04
96.97
81.1
70.72
69.4
79.02
101.12
135.76
183.16
229.17
255.44
249.9
216.23
168.58
120.82
87.46
64.36
46.05
27.07
4.94
-20.12
-47.76
-76.47
-104.73
-130.72
-153.54
-171.24
-183.2
-188.73
-187.36
-179.31
-166.23
-151
-136.65
-126.48
-121.56
-122
-125.92
-130.04
-130.91
-126.31
-115.95
-100.95
-83.59
-65.37
-47.35
-29.38
-10.41
10.75
34.41
59.64
84.67
107.51
127.23
143.65
156.96
166.69
171.15
167.7
154.04
129.78
97.42
62.1
29.72
4.76
-11.18
-19.54
-23.56
-26.61
-30.84
-36.93
-44.61
-53.45
-63.5
-75.18
-88.81
-103.91
-118.93
-131.33
-138.3
-137.81
-129.59
-115.57
-99.34
-85.06
-75.88
-72.87
-74.76
-78.8
-82.11
-82.95
-81.06
-77.12
-71.64
-64.34
-54.3
-40.81
-24.25
-6.21
11.01
25.57
36.86
45.56
52.85
59.48
65.27
69.36
71.2
71.33
71.57
74.26
81.05
91.78
104.34
115.39
121.74
121.4
114.19
101.46
85.34
67.93
50.69
34.44
19.49
5.92
-6.2
-16.86
-26.11
-34.23
-41.57
-48.46
-55
-60.99
-66.01
-69.64
-71.72
-72.53
-72.78
-73.36
-74.99
-77.92
-81.88
-86.14
-89.68
-91.51
-90.93
-87.74
-82.2
-74.88
-66.42
-57.28
-47.71
-37.83
-27.82
-18.06
-9.07
-1.34
4.85
9.56
13.2
16.27
19.24
22.41
25.87
29.56
33.38
37.22
40.96
44.5
47.7
50.37
52.34
53.47
53.77
53.32
52.29
50.82
49
46.79
44.15
40.99
37.3
33.15
28.67
24.03
19.39
14.9
10.78
7.38
5.16
4.63
6.16
9.85
15.39
22.11
29.24
36.05
42.05
47.03
50.94
53.83
55.73
56.64
56.58
55.64
53.91
51.53
48.61
45.29
41.7
37.95
34.2
30.54
27.03
23.61
20.18
16.6
12.8
8.84
4.87
1.17
-2.02
-4.52
-6.3
-7.52
-8.46
-9.45
-10.77
-12.52
-14.61
-16.79
-18.7
-19.99
-20.41
-19.91
-18.58
-16.6
-14.23
-11.65
-9.01
-6.39
-3.81
-1.3
1.1
3.32
5.29
7
8.53
10.04
11.66
13.42
15.13
16.52
17.29
17.33
16.71
15.75
14.79
14.05
13.56
13.14
12.48
11.35
9.71
7.72
5.69
3.92
2.55
1.45
0.3
-1.28
-3.54
-6.47
-9.76
-12.92
-15.49
-17.16
-17.87
-17.78
-17.15
-16.17
-14.87
-13.09
-10.56
-7.13
-2.96
1.43
5.27
7.77
8.47
7.5
5.59
3.92
3.73
5.89
10.5
16.83
23.48
28.78
31.25
29.93
24.56
15.71
4.72
-6.37
-15.23
-19.76
-18.8
-12.65
-3.06
7.21
15.35
19.3
18.33
12.9
4.29
-5.79
-15.52
-23.11
-27.1
-26.67
-22.09
-14.73
-6.71
-0.24
3.19
3.44
1.87
0.99
3.6
11.61
24.99
41.28
56.16
64.99
64.68
55.25
39.96
23.95
11.98
6.38
6.33
8.7
9.88
7.5
1.16
-8
-18.3
-28.41
-37.54
-45.04
-50.01
-51.17
-47.44
-38.57
-25.74
-11.26
2.14
12.25
18.12
20.08
19.37
17.43
15.36
13.59
11.96
9.9
6.82
2.39
-3.21
-9.3
-14.87
-18.9
-20.75
-20.34
-18.21
-15.24
-12.33
-10.13
-8.92
-8.72
-9.39
-10.74
-12.59
-14.74
-17.12
-19.66
-22.41
-25.32
-28.28
-31.03
-33.35
-35.12
-36.41
-37.43
-38.29
-38.98
-39.29
-39.06
-38.25
-37.07
-35.77
-34.51
-33.21
-31.61
-29.5
-26.92
-24.18
-21.72
-19.87
-18.68
-17.92
-17.21
-16.21
-14.84
-13.21
-11.63
-10.32
-9.37
-8.63
-7.72
-6.29
-4.08
-1.11
2.38
6.08
9.71
13.1
16.21
19.02
21.43
23.22
24.15
24.1
23.23
21.95
20.79
20.22
20.4
21.13
21.93
22.25
21.69
20.16
17.9
15.38
13.11
11.52
10.78
10.81
11.29
11.82
12.03
11.73
10.95
9.85
8.62
7.36
6.04
4.58
2.91
1.07
-0.83
-2.67
-4.42
-6.16
-8
-10.01
-11.99
-13.58
-14.27
-13.67
-11.64
-8.38
-4.32
0.03
4.29
8.25
11.8
14.81
17.06
18.34
18.57
18
17.15
16.66
16.98
18.17
19.87
21.48
22.48
22.75
22.69
22.99
24.32
26.95
30.49
34.01
36.41
36.86
35.32
32.61
30.12
29.21
30.53
33.69
37.38
39.91
39.85
36.53
30.05
21.26
11.47
2.35
-4.34
-7.25
-6.34
-3.64
-3.29
-10.2
-27.79
-55.86
-89.98
-122.83
-147.06
-158.15
-155.8
-143.31
-125.46
-106.38
-88.34
-72.01
-57.39
-44.72
-34.56
-27.27
-22.52
-19.08
-15.33
-9.93
-2.44
6.54
15.57
23.04
27.78
29.55
29.08
27.72
26.82
27.2
28.86
31
32.41
32.02
29.36
24.83
19.57
14.94
12.04
11.29
12.26
13.96
15.35
15.72
14.88
13.12
11.06
9.44
9.04
10.58
14.58
21.2
30.07
40.23
50.43
59.41
66.32
70.87
73.21
73.75
72.82
70.48
66.59
60.87
53.22
43.99
34.11
25.15
18.94
16.99
19.95
27.35
37.47
47.76
55.35
57.55
52.22
38.04
14.9
-15.89
-51.45
-87.77
-120.6
-146.49
-163.58
-171.79
-172.23
-166.36
-155.4
-140.32
-122.29
-103.15
-85.33
-71.11
-61.57
-56.03
-52.24
-47.48
-39.85
-29.13
-16.71
-4.78
4.8
11.32
15.2
17.49
19.05
20.2
20.75
20.46
19.46
18.3
17.85
18.8
21.34
25.05
29.05
32.36
34.25
34.49
33.35
31.42
29.34
27.55
26.13
24.91
23.62
22.07
20.3
18.53
17.08
16.24
16.09
16.58
17.5
18.6
19.66
20.5
21.03
21.23
21.12
20.76
20.17
19.39
18.38
17.09
15.41
13.25
10.54
7.33
3.73
0.04
-3.42
-6.32
-8.4
-9.58
-9.94
-9.75
-9.31
-8.96
-8.85
-8.95
-9.01
-8.59
-7.27
-4.74
-0.97
3.75
8.79
13.37
16.73
18.29
17.9
15.84
12.75
9.44
6.66
4.86
4.22
4.58
5.69
7.35
9.42
11.79
14.22
16.33
17.58
17.53
16.01
13.21
9.66
5.99
2.69
-0.04
-2.26
-4.2
-6.01
-7.65
-8.99
-9.85
-10.15
-9.99
-9.61
-9.32
-9.39
-9.93
-10.93
-12.19
-13.45
-14.52
-15.25
-15.62
-15.63
-15.23
-14.29
-12.68
-10.39
-7.58
-4.58
-1.79
0.54
2.35
3.75
4.88
5.88
6.8
7.67
8.58
9.62
10.88
12.33
13.85
15.29
16.59
17.82
19.08
20.41
21.62
22.36
22.21
20.92
18.56
15.52
12.43
9.86
8.15
7.24
6.76
6.17
5.03
3.2
0.95
-1.13
-2.38
-2.3
-0.78
1.8
4.64
6.65
6.75
4.21
-0.97
-7.8
-14.45
-18.77
-19.01
-14.57
-6.18
4.42
15.2
24.73
32.48
38.81
44.56
50.56
57.33
65.02
73.37
81.65
88.67
92.97
93.17
88.52
79.16
66.23
51.53
37
24.23
14.03
6.43
0.79
-3.89
-8.57
-13.88
-20.07
-27.22
-35.48
-45.22
-56.97
-70.99
-86.92
-103.6
-119.14
-131.32
-138.18
-138.51
-132.18
-120.29
-104.91
-88.46
-72.99
-59.59
-48.13
-37.79
-27.71
-17.78
-8.86
-2.56
-0.68
-4.67
-15.25
-32.15
-54.13
-79
-103.77
-125.18
-140.26
-147.07
-145.09
-135.14
-118.95
-98.57
-75.76
-51.83
-27.71
-4.18
17.97
37.88
54.82
68.34
78.38
85.31
89.64
91.8
91.98
90.19
86.44
80.93
74.2
67.04
60.25
54.43
49.84
46.44
44.01
42.33
41.32
41.02
41.48
42.51
43.7
44.4
44
42.15
38.93
34.84
30.54
26.63
23.37
20.62
17.95
14.91
11.19
6.86
2.26
-2.12
-5.84
-8.66
-10.64
-11.98
-12.97
-13.76
-14.42
-14.96
-15.5
-16.28
-17.63
-19.7
-22.35
-25.14
-27.47
-28.99
-29.65
-29.76
-29.69
-29.6
-29.22
-27.98
-25.28
-20.73
-14.35
-6.53
2.18
11.18
19.93
27.91
34.64
39.64
42.63
43.46
42.23
39.3
35.19
30.58
26.13
22.36
19.56
17.7
16.53
15.68
14.85
13.89
12.8
11.66
10.49
9.23
7.73
5.85
3.53
0.87
-1.94
-4.61
-6.9
-8.69
-10.02
-11.01
-11.81
-12.52
-13.16
-13.72
-14.17
-14.57
-15.07
-15.78
-16.71
-17.66
-18.29
-18.17
-17.04
-14.85
-11.85
-8.41
-4.92
-1.61
1.48
4.36
6.99
9.18
10.65
11.12
10.48
8.91
6.8
4.63
2.79
1.45
0.52
-0.19
-0.91
-1.72
-2.6
-3.47
-4.25
-4.98
-5.74
-6.65
-7.73
-8.96
-10.26
-11.56
-12.9
-14.4
-16.18
-18.24
-20.44
-22.49
-24.06
-24.94
-25.14
-24.87
-24.46
-24.16
-23.99
-23.79
-23.24
-22.06
-20.08
-17.31
-13.93
-10.19
-6.36
-2.66
0.77
3.85
6.55
8.83
10.61
11.81
12.47
12.76
12.95
13.38
14.21
15.37
16.57
17.53
18.08
18.32
18.47
18.7
18.94
18.89
18.18
16.59
14.14
11.15
8
4.97
2.12
-0.69
-3.69
-7
-10.55
-14.06
-17.16
-19.49
-20.84
-21.22
-20.77
-19.73
-18.22
-16.3
-13.85
-10.75
-6.89
-2.31
2.75
7.86
12.46
15.97
17.94
18.22
17.01
14.85
12.42
10.35
8.97
8.2
7.69
6.86
5.14
2.18
-2.03
-6.95
-11.51
-14.36
-14.33
-11.05
-5.15
1.85
8.33
13.23
16.59
19.33
22.65
27.27
33.05
39.14
44.6
48.87
51.9
53.97
55.3
56
56.13
55.79
55.15
54.24
52.81
50.36
46.45
41.09
34.79
28.38
22.47
17.22
12.27
7.22
1.97
-3.13
-7.6
-11.3
-14.7
-18.7
-24.08
-30.97
-38.53
-45.18
-49.2
-49.47
-45.91
-39.48
-31.74
-24.17
-17.6
-12.1
-7.18
-2.29
2.73
7.47
11.09
12.67
11.59
7.75
1.57
-6.19
-14.65
-23.03
-30.81
-37.71
-43.74
-49.07
-53.86
-58.11
-61.54
-63.63
-63.73
-61.32
-56.21
-48.7
-39.49
-29.57
-19.86
-11.06
-3.56
2.41
6.69
9.1
9.59
8.36
6.01
3.38
1.3
0.27
0.27
0.88
1.58
2.01
2.18
2.38
2.89
3.87
5.22
6.64
7.81
8.51
8.67
8.37
7.76
7
6.21
5.44
4.68
3.95
3.29
2.76
2.43
2.27
2.16
1.87
1.26
0.32
-0.73
-1.54
-1.83
-1.47
-0.56
0.67
2.09
3.75
5.84
8.59
12.04
15.96
19.96
23.59
26.56
28.72
30.14
30.95
31.31
31.4
31.42
31.56
31.92
32.5
33.15
33.69
33.98
34.04
34.06
34.25
34.76
35.46
36.05
36.02
34.9
32.39
28.45
23.31
17.31
10.83
4.14
-2.6
-9.32
-15.91
-22.19
-28.01
-33.26
-38
-42.32
-46.31
-49.88
-52.9
-55.26
-57
-58.28
-59.2
-59.6
-59.01
-56.83
-52.67
-46.63
-39.41
-31.98
-25.2
-19.46
-14.64
-10.36
-6.24
-2.18
1.66
5.04
7.88
10.33
12.69
15.18
17.79
20.27
22.21
23.26
23.29
22.4
20.83
18.83
16.54
13.96
10.95
7.45
3.55
-0.47
-4.19
-7.23
-9.33
-10.48
-10.9
-10.96
-10.99
-11.2
-11.57
-11.95
-12.05
-11.63
-10.55
-8.84
-6.65
-4.25
-1.91
0.16
1.85
3.08
3.8
3.97
3.49
2.34
0.61
-1.54
-3.76
-5.7
-6.99
-7.39
-6.8
-5.31
-3.14
-0.63
1.9
4.19
6.06
7.45
8.36
8.86
9.02
8.96
8.77
8.47
8.08
7.54
6.8
5.81
4.56
3.12
1.52
-0.18
-1.96
-3.76
-5.48
-6.93
-7.86
-8.01
-7.2
-5.39
-2.74
0.39
3.49
6.08
7.84
8.65
8.67
8.17
7.38
6.42
5.32
4.08
2.82
1.76
1.14
1.03
1.33
1.71
1.85
1.58
0.95
0.15
-0.62
-1.28
-1.88
-2.55
-3.32
-4.11
-4.76
-5.19
-5.43
-5.66
-6.14
-7.09
-8.62
-10.66
-12.99
-15.3
-17.23
-18.35
-18.35
-17.12
-14.88
-12.19
-9.69
-7.84
-6.57
-5.17
-2.5
2.54
10.55
21.44
34.45
48.46
62.35
75.15
86.05
94.35
99.45
101.04
99.34
95.19
89.89
84.83
81.05
78.85
77.79
76.99
75.59
73.03
69
63.19
55.05
43.82
28.99
10.91
-8.98
-28.53
-45.72
-59.67
-70.85
-80.75
-90.94
-102.16
-114.04
-125.41
-134.9
-141.4
-144.15
-142.44
-135.65
-123.31
-105.56
-83.33
-58.43
-33.05
-9.36
10.87
26.5
37.03
42.8
45.07
45.86
47.51
52.09
60.75
73.37
88.64
104.37
118.08
127.55
131.32
129.03
121.49
110.44
97.94
85.81
75.05
65.87
57.96
50.96
44.87
39.94
36.3
33.51
30.44
25.23
15.77
0.45
-21
-47.04
-74.48
-99.55
-119.19
-132.19
-139.4
-142.92
-144.85
-146.3
-147.25
-147.1
-145.62
-143.41
-141.66
-141.39
-142.72
-144.6
-145.15
-142.29
-134.4
-120.67
-101.21
-77
-49.7
-21.37
5.75
29.57
48.42
61.24
67.8
68.77
65.63
60.39
55.16
51.6
50.63
52.29
55.88
60.21
63.93
65.67
64.31
59.27
50.7
39.48
26.99
14.72
3.78
-5.31
-12.56
-18.27
-22.8
-26.48
-29.63
-32.64
-35.9
-39.62
-43.56
-46.86
-48.2
-46.12
-39.67
-28.88
-15.09
-0.67
11.63
19.66
22.61
21.24
17.47
13.51
10.96
10.33
11.17
12.58
13.86
14.74
15.36
15.92
16.42
16.56
15.92
14.28
11.74
8.74
5.84
3.52
2.04
1.38
1.38
1.86
2.6
3.47
4.34
5.12
5.82
6.43
6.99
7.45
7.74
7.81
7.69
7.5
7.39
7.45
7.58
7.6
7.34
6.77
6.03
5.35
4.96
4.93
5.17
5.51
5.8
5.98
6.02
5.93
5.67
5.17
4.4
3.4
2.32
1.3
0.48
-0.14
-0.69
-1.36
-2.24
-3.26
-4.21
-4.8
-4.8
-4.15
-2.96
-1.48
-0.01
1.2
2.02
2.38
2.39
2.26
2.22
2.54
3.35
4.56
5.99
7.38
8.52
9.37
10.02
10.57
11.15
11.75
12.32
12.78
13.04
13.05
12.83
12.39
11.79
11.1
10.34
9.54
8.7
7.79
6.8
5.71
4.51
3.17
1.67
0.04
-1.6
-3
-3.91
-4.17
-3.79
-2.97
-2
-1.16
-0.51
0.01
0.6
1.41
2.43
3.46
4.2
4.35
3.82
2.73
1.45
0.41
-0.07
0.08
0.69
1.36
1.71
1.49
0.71
-0.39
-1.5
-2.31
-2.72
-2.84
-2.96
-3.41
-4.43
-6.03
-8.02
-10.07
-11.83
-13.05
-13.52
-13.08
-11.64
-9.37
-6.88
-5.17
-5.31
-7.8
-12.2
-17.04
-20.42
-20.8
-17.74
-12.05
-5.4
0.49
4.5
6.32
6.39
5.41
4.07
2.87
2.2
2.42
3.95
7.26
12.74
20.43
29.78
39.71
48.94
56.65
62.98
68.96
75.95
84.69
94.64
104.03
110.56
112.36
108.69
99.99
87.43
72.31
55.68
38.37
21.1
4.54
-10.79
-24.71
-37.39
-49.12
-60.01
-69.85
-78.11
-84.02
-86.78
-85.53
-79.58
-68.72
-53.54
-35.65
-17.45
-1.52
10.17
16.94
19.46
19.34
18.42
18
18.53
19.55
19.93
18.16
12.71
2.49
-12.79
-32.44
-54.97
-78.55
-101.55
-122.72
-141.12
-155.81
-165.72
-169.85
-167.71
-159.78
-147.31
-131.81
-114.38
-95.33
-74.5
-51.89
-28.34
-5.62
14.14
29.33
39.63
46.02
50.24
53.9
57.86
62
65.65
68.09
68.96
68.46
67.09
65.41
63.78
62.28
60.87
59.51
58.27
57.27
56.59
56.17
55.79
55.18
54.11
52.54
50.57
48.45
46.47
44.81
43.51
42.36
40.99
38.93
35.77
31.31
25.63
19.09
12.21
5.46
-0.81
-6.43
-11.32
-15.48
-18.86
-21.45
-23.23
-24.24
-24.54
-24.21
-23.32
-21.96
-20.28
-18.46
-16.72
-15.25
-14.18
-13.52
-13.17
-12.93
-12.61
-12.08
-11.29
-10.33
-9.3
-8.37
-7.59
-6.96
-6.4
-5.84
-5.28
-4.78
-4.48
-4.5
-4.88
-5.56
-6.39
-7.18
-7.77
-8.03
-7.98
-7.71
-7.42
-7.3
-7.53
-8.1
-8.87
-9.53
-9.78
-9.38
-8.29
-6.66
-4.69
-2.58
-0.45
1.57
3.35
4.73
5.55
5.75
5.35
4.52
3.46
2.38
1.45
0.8
0.48
0.48
0.72
1.04
1.29
1.36
1.23
0.9
0.36
-0.47
-1.72
-3.41
-5.47
-7.64
-9.62
-11.11
-11.99
-12.3
-12.24
-12.08
-12.05
-12.27
-12.66
-13.01
-13.04
-12.49
-11.21
-9.24
-6.76
-3.96
-1
2.02
4.96
7.67
9.87
11.28
11.69
11.08
9.67
7.8
5.85
4.09
2.68
1.63
0.88
0.34
-0.06
-0.43
-0.86
-1.43
-2.18
-3.07
-4.03
-4.94
-5.74
-6.36
-6.79
-7.07
-7.27
-7.46
-7.77
-8.28
-9
-9.78
-10.36
-10.47
-9.89
-8.6
-6.76
-4.61
-2.42
-0.33
1.58
3.28
4.71
5.78
6.41
6.58
6.31
5.72
4.94
4.11
3.37
2.81
2.51
2.44
2.53
2.65
2.68
2.55
2.29
1.99
1.73
1.54
1.34
0.97
0.3
-0.68
-1.89
-3.17
-4.41
-5.55
-6.61
-7.62
-8.58
-9.4
-9.96
-10.12
-9.78
-8.9
-7.44
-5.46
-3.04
-0.42
2.11
4.16
5.47
5.89
5.5
4.55
3.41
2.38
1.71
1.42
1.41
1.53
1.61
1.54
1.3
0.94
0.51
0.09
-0.31
-0.66
-0.98
-1.28
-1.6
-1.98
-2.51
-3.27
-4.34
-5.75
-7.46
-9.32
-11.21
-12.95
-14.45
-15.66
-16.55
-17.05
-17.03
-16.36
-14.97
-12.99
-10.74
-8.62
-7.04
-6.27
-6.33
-7.03
-8.13
-9.39
-10.72
-12.15
-13.72
-15.49
-17.37
-19.22
-20.88
-22.24
-23.3
-24.17
-24.99
-25.96
-27.25
-28.94
-31.01
-33.29
-35.49
-37.37
-38.84
-39.97
-40.83
-41.38
-41.31
-40.2
-37.61
-33.16
-26.44
-16.92
-4.01
12.52
31.99
52.48
71.13
84.96
91.97
91.91
86.31
77.72
68.73
61.3
56.56
55.08
56.99
61.97
68.96
76.24
81.67
83.47
80.88
74.43
65.66
56.36
47.9
40.78
34.66
28.82
22.5
15.28
7.14
-1.6
-10.38
-18.5
-25.33
-30.39
-33.5
-34.87
-35.01
-34.65
-34.5
-34.99
-36.11
-37.26
-37.41
-35.4
-30.43
-22.42
-12.24
-1.47
8.07
14.93
18.39
18.61
16.43
13.01
9.47
6.65
5.01
4.66
5.43
6.94
8.67
10.12
10.83
10.59
9.39
7.47
5.24
3.16
1.59
0.68
0.3
0.16
-0.16
-0.98
-2.46
-4.54
-7
-9.56
-12
-14.21
-16.17
-17.88
-19.34
-20.43
-21.04
-21.07
-20.52
-19.48
-18.12
-16.63
-15.15
-13.8
-12.69
-11.88
-11.44
-11.36
-11.58
-11.96
-12.29
-12.32
-11.78
-10.43
-8.17
-5.07
-1.36
2.6
6.42
9.77
12.45
14.42
15.76
16.61
17.08
17.23
17.01
16.35
15.2
13.62
11.78
9.88
8.09
6.37
4.56
2.45
-0.02
-2.69
-5.22
-7.16
-8.2
-8.2
-7.23
-5.44
-3.01
-0.11
3.07
6.26
9.12
11.35
12.83
13.63
14
14.15
14.21
14.11
13.68
12.77
11.39
9.69
7.95
6.39
5.09
4
2.99
1.98
0.94
-0.04
-0.88
-1.47
-1.82
-1.95
-1.92
-1.82
-1.73
-1.74
-1.94
-2.45
-3.36
-4.7
-6.38
-8.25
-10.06
-11.53
-12.39
-12.48
-11.69
-10.11
-7.9
-5.31
-2.65
-0.2
1.89
3.58
4.97
6.24
7.47
8.61
9.53
10.11
10.33
10.27
10.12
10.02
9.99
9.95
9.8
9.52
9.18
8.86
8.56
8.1
7.27
5.94
4.14
2.07
-0.02
-2.05
-4.18
-6.72
-9.93
-13.84
-18.16
-22.32
-25.74
-28.12
-29.48
-30.21
-30.82
-31.66
-32.73
-33.67
-33.91
-32.86
-30.09
-25.41
-18.87
-10.82
-1.96
6.79
14.57
20.85
25.81
30.23
35.12
41.06
47.85
54.42
59.33
61.47
60.61
57.61
54.04
51.6
51.36
53.27
56.12
57.95
56.89
51.98
43.58
33.26
23.12
14.85
9.07
5.11
1.47
-3.41
-10.46
-19.56
-29.59
-38.85
-45.67
-48.88
-48.14
-43.94
-37.31
-29.5
-21.58
-14.41
-8.59
-4.57
-2.6
-2.64
-4.29
-6.83
-9.43
-11.47
-12.7
-13.28
-13.49
-13.56
-13.43
-12.88
-11.66
-9.77
-7.48
-5.29
-3.7
-3.02
-3.3
-4.38
-5.94
-7.58
-8.88
-9.52
-9.33
-8.42
-7.11
-5.85
-5.08
-5
-5.57
-6.46
-7.25
-7.57
-7.24
-6.28
-4.88
-3.25
-1.59
-0.01
1.41
2.58
3.39
3.74
3.62
3.15
2.53
1.98
1.67
1.65
1.88
2.32
2.89
3.56
4.3
5.03
5.64
6
5.91
5.21
3.78
1.66
-0.94
-3.59
-5.83
-7.27
-7.82
-7.73
-7.48
-7.58
-8.39
-9.91
-11.84
-13.71
-15.04
-15.55
-15.18
-14.06
-12.42
-10.56
-8.72
-7.19
-6.17
-5.84
-6.29
-7.48
-9.25
-11.31
-13.32
-15
-16.13
-16.71
-16.83
-16.7
-16.55
-16.55
-16.77
-17.19
-17.74
-18.31
-18.76
-18.89
-18.5
-17.45
-15.7
-13.33
-10.44
-7.02
-2.81
2.67
9.96
19.42
30.94
43.96
57.6
70.88
82.98
93.2
100.99
106.03
108.35
108.52
107.54
106.52
106.19
106.63
107.23
106.97
104.89
100.5
93.85
85.43
75.89
65.84
55.75
46.06
37.26
29.85
24.3
20.72
18.51
16.17
11.52
2.48
-11.81
-30.09
-49.09
-64.8
-74.29
-77.22
-76.08
-74.84
-77.04
-84.25
-95.82
-109.78
-123.94
-136.68
-146.78
-153.06
-154.22
-149.37
-138.78
-124.26
-108.69
-94.76
-83.94
-76.03
-69.63
-63.21
-55.89
-47.74
-39.38
-31.41
-24.06
-17.24
-10.75
-4.6
0.98
5.56
8.84
10.81
11.88
12.66
13.76
15.47
17.65
19.79
21.3
21.72
20.99
19.41
17.53
15.93
14.96
14.74
15.1
15.79
16.6
17.47
18.43
19.55
20.76
21.83
22.39
22.14
20.97
18.99
16.55
13.98
11.55
9.36
7.37
5.56
3.92
2.49
1.27
0.24
-0.73
-1.77
-3
-4.48
-6.15
-7.9
-9.59
-11.15
-12.54
-13.85
-15.18
-16.7
-18.51
-20.62
-22.87
-24.95
-26.45
-26.96
-26.26
-24.37
-21.65
-18.65
-15.91
-13.79
-12.33
-11.25
-10.09
-8.31
-5.47
-1.4
3.76
9.63
15.77
21.92
28.25
35.3
43.8
54.09
65.77
77.51
87.39
93.48
94.61
90.87
83.61
74.95
67.04
61.46
58.85
58.99
60.94
63.37
64.9
64.46
61.64
56.89
51.56
47.33
45.55
46.64
49.83
53.53
56.15
56.68
55.1
52.07
48.46
44.88
41.67
38.92
36.59
34.42
31.64
26.79
18.1
4.09
-15.55
-39.66
-65.98
-92.04
-115.9
-136.42
-152.86
-164.42
-170.11
-169.14
-161.63
-149.01
-133.72
-118.38
-104.82
-93.58
-84.19
-75.86
-68.09
-60.87
-54.41
-48.78
-43.72
-38.66
-33.09
-26.74
-19.74
-12.57
-5.81
0.05
4.82
8.63
11.84
14.83
17.83
20.83
23.64
26.03
27.82
29.01
29.72
30.13
30.35
30.47
30.44
30.2
29.7
28.95
27.98
26.88
25.74
24.59
23.43
22.2
20.84
19.29
17.51
15.44
13.04
10.27
7.17
3.89
0.68
-2.16
-4.29
-5.53
-5.84
-5.37
-4.39
-3.14
-1.83
-0.54
0.7
1.91
3.07
4.15
5.12
5.99
6.8
7.62
8.45
9.27
10.03
10.64
11.11
11.45
11.65
11.71
11.54
11.07
10.27
9.18
7.93
6.64
5.43
4.32
3.3
2.39
1.68
1.32
1.38
1.8
2.33
2.6
2.3
1.29
-0.3
-2.1
-3.71
-4.79
-5.18
-4.93
-4.19
-3.21
-2.2
-1.33
-0.75
-0.5
-0.58
-0.87
-1.24
-1.53
-1.67
-1.72
-1.84
-2.27
-3.12
-4.36
-5.74
-6.9
-7.56
-7.69
-7.59
-7.77
-8.69
-10.5
-12.94
-15.35
-17.01
-17.26
-15.68
-12.17
-7
-1
4.53
8.04
8.37
5.39
0.33
-4.5
-6.64
-4.36
2.68
13.6
26.8
40.69
54.05
66.01
75.87
83.05
87.35
89.09
89.1
88.33
87.51
86.9
86.46
86.13
86.12
86.82
88.49
90.81
92.68
92.52
88.79
80.69
68.35
52.68
34.72
14.98
-6.54
-29.85
-54.21
-77.67
-97.65
-112.18
-121.26
-127.2
-133.53
-142.91
-155.39
-168.11
-176.66
-177.4
-169.25
-154.02
-135.19
-116.03
-98.29
-82.1
-66.73
-51.69
-37.27
-24.3
-13.57
-5.26
1.14
6.56
11.8
17.24
22.74
27.77
31.69
34.07
34.87
34.48
33.64
33.03
33.07
33.74
34.66
35.27
35.1
33.94
31.8
28.85
25.29
21.29
17.04
12.73
8.56
4.66
1.08
-2.18
-5.09
-7.52
-9.27
-10.13
-10.06
-9.16
-7.65
-5.83
-3.87
-1.87
0.12
2.04
3.71
4.96
5.67
5.82
5.56
5.08
4.63
4.37
4.42
4.78
5.4
6.17
7
7.76
8.36
8.71
8.72
8.36
7.59
6.44
5.03
3.48
1.91
0.41
-1.04
-2.47
-3.85
-5.17
-6.32
-7.24
-7.91
-8.4
-8.74
-8.98
-9.07
-8.91
-8.4
-7.47
-6.18
-4.65
-3.06
-1.59
-0.39
0.39
0.72
0.61
0.22
-0.28
-0.71
-0.97
-1.09
-1.1
-1.05
-0.94
-0.74
-0.42
-0.01
0.36
0.52
0.38
-0.07
-0.77
-1.58
-2.39
-3.12
-3.71
-4.09
-4.21
-4.07
-3.71
-3.26
-2.87
-2.62
-2.48
-2.29
-1.8
-0.84
0.64
2.45
4.19
5.44
5.88
5.5
4.55
3.45
2.59
2.16
2.07
2.06
1.89
1.4
0.64
-0.28
-1.25
-2.23
-3.23
-4.21
-5.1
-5.77
-6.18
-6.42
-6.7
-7.28
-8.32
-9.84
-11.64
-13.46
-15.06
-16.32
-17.26
-17.95
-18.54
-19.14
-19.82
-20.58
-21.32
-21.77
-21.54
-20.35
-18.27
-15.89
-14.16
-13.9
-15.28
-17.56
-19.33
-19.14
-16.16
-10.36
-2.27
7.5
18.55
30.69
43.64
56.83
69.43
80.55
89.47
95.6
98.36
97.07
91.2
80.73
66.62
50.81
35.8
23.82
16
12.04
10.26
8.32
4.01
-4.02
-15.88
-30.54
-46.2
-60.82
-72.41
-79.25
-79.98
-73.79
-60.75
-42.1
-20.31
1.31
19.51
31.88
37.58
37.44
33.45
27.98
23.05
19.79
18.36
18.06
17.62
15.39
9.63
-1.16
-17.71
-39.38
-63.9
-87.56
-106.2
-116.5
-117.06
-108.76
-94.18
-76.37
-57.73
-39.46
-21.82
-4.91
10.56
23.25
31.67
35
33.77
29.75
25.21
21.94
20.54
20.49
20.74
20.61
20.19
20.33
21.91
25.17
29.43
33.38
35.77
36.03
34.51
32.23
30.28
29.28
29.21
29.59
29.79
29.42
28.42
27.02
25.42
23.77
22.02
20.09
17.87
15.37
12.64
9.74
6.76
3.73
0.73
-2.14
-4.8
-7.27
-9.68
-12.18
-14.9
-17.73
-20.38
-22.44
-23.53
-23.47
-22.33
-20.38
-17.98
-15.47
-13.08
-10.94
-9.09
-7.53
-6.21
-5.03
-3.9
-2.68
-1.29
0.26
1.85
3.3
4.38
4.92
4.87
4.24
3.11
1.57
-0.25
-2.23
-4.21
-6.02
-7.57
-8.8
-9.74
-10.46
-11.04
-11.59
-12.23
-13.13
-14.42
-16.11
-18.1
-20.17
-22.01
-23.37
-24.08
-24.05
-23.25
-21.75
-19.69
-17.36
-15.09
-13.2
-11.78
-10.74
-9.78
-8.69
-7.53
-6.6
-6.37
-7.16
-8.89
-11.06
-12.94
-13.9
-13.72
-12.72
-11.59
-11.05
-11.55
-13.12
-15.34
-17.56
-19.14
-19.61
-18.9
-17.38
-15.9
-15.62
-17.57
-22.21
-28.96
-36.23
-41.66
-42.97
-38.61
-28.28
-12.88
5.96
26.44
46.89
65.84
81.86
93.62
100.11
101.16
97.65
91.31
84.16
77.76
72.93
69.72
67.7
66.28
64.85
62.81
59.68
55.37
50.27
45.28
41.28
38.56
36.38
33.2
27.32
17.87
5.2
-9.22
-23.52
-36.26
-46.9
-55.73
-63.42
-70.39
-76.42
-80.51
-81.27
-77.37
-68.31
-54.8
-38.78
-22.95
-9.82
-0.83
4.08
6.24
7.43
8.92
10.98
13.03
14.32
14.68
14.66
15.22
17.04
20.02
23.32
26.02
27.61
28.32
28.86
29.95
31.91
34.56
37.44
40.03
42.02
43.22
43.55
42.97
41.53
39.4
36.89
34.32
31.88
29.6
27.35
25.02
22.56
20.05
17.55
15.09
12.51
9.58
6.14
2.17
-2.1
-6.24
-9.76
-12.22
-13.42
-13.39
-12.43
-10.87
-9.07
-7.23
-5.42
-3.59
-1.64
0.48
2.68
4.72
6.3
7.11
7.01
6.05
4.49
2.64
0.75
-1.06
-2.79
-4.48
-6.16
-7.77
-9.24
-10.51
-11.55
-12.38
-13.01
-13.51
-13.99
-14.68
-15.87
-17.85
-20.82
-24.8
-29.59
-34.79
-39.92
-44.49
-48.08
-50.4
-51.32
-50.84
-49.05
-46.08
-42.11
-37.41
-32.41
-27.63
-23.53
-20.4
-18.17
-16.48
-14.8
-12.71
-10.1
-7.24
-4.49
-2.19
-0.41
1.02
2.31
3.53
4.54
5.1
5.05
4.45
3.58
2.78
2.31
2.2
2.29
2.4
2.41
2.36
2.33
2.41
2.61
2.81
2.86
2.57
1.84
0.63
-0.97
-2.72
-4.28
-5.27
-5.4
-4.52
-2.7
-0.25
2.38
4.68
6.26
6.86
6.4
4.98
2.77
0.07
-2.7
-5.06
-6.59
-7.04
-6.46
-5.18
-3.68
-2.39
-1.47
-0.86
-0.33
0.28
0.96
1.53
1.82
1.79
1.59
1.42
1.44
1.59
1.71
1.59
1.13
0.38
-0.51
-1.43
-2.32
-3.22
-4.16
-5.14
-6.1
-6.95
-7.6
-7.95
-7.88
-7.38
-6.5
-5.42
-4.43
-3.8
-3.67
-3.97
-4.54
-5.14
-5.59
-5.82
-5.88
-5.86
-5.92
-6.28
-7.12
-8.56
-10.49
-12.67
-14.75
-16.55
-18.15
-19.91
-22.35
-25.75
-30.02
-34.62
-38.82
-42
-44.03
-45.35
-46.79
-49.14
-52.84
-57.72
-63.08
-67.95
-71.34
-72.53
-71.17
-67.22
-61.11
-53.66
-46.03
-39.29
-33.81
-28.75
-22.03
-11.07
5.94
28.87
55.25
80.96
101.78
114.95
119.87
117.92
111.29
101.92
90.93
78.84
66.17
53.82
43.08
35.16
30.64
29.24
30.01
31.77
33.55
34.81
35.47
35.6
35.32
34.63
33.5
31.98
30.25
28.63
27.5
27.08
27.38
28.23
29.31
30.37
31.37
32.5
34.01
35.89
37.67
38.34
36.47
30.72
20.25
5.23
-12.98
-31.88
-48.38
-59.59
-63.74
-60.72
-52.02
-40.13
-27.54
-15.97
-6.09
2.2
9.39
15.89
22.03
28.15
34.65
41.95
50.28
59.68
70.01
81.16
92.9
104.61
115.02
122.42
125.17
122.55
115.15
104.69
93.15
81.86
70.83
58.95
44.59
26.42
3.72
-23.55
-54.92
-89.34
-125.25
-160.51
-192.69
-219.49
-238.88
-249.05
-248.36
-235.64
-210.95
-176.38
-136.18
-95.94
-60.79
-33.59
-14.02
0.69
13.87
27.45
41
52.36
59.2
60.55
57.38
52.13
47.5
45.36
46.16
49.15
52.85
55.77
56.78
55.4
51.74
46.32
39.89
33.13
26.55
20.46
15.09
10.72
7.68
6.27
6.49
7.84
9.48
10.44
10.13
8.54
6.17
3.74
1.72
0.11
-1.51
-3.71
-6.88
-11.01
-15.74
-20.52
-24.86
-28.4
-31.06
-32.88
-34.02
-34.77
-35.41
-36.25
-37.49
-39.12
-40.88
-42.34
-43.05
-42.7
-41.22
-38.73
-35.48
-31.73
-27.61
-23.2
-18.58
-13.84
-9.08
-4.43
0.08
4.46
8.72
12.74
16.32
19.16
21
21.78
21.63
20.88
19.89
18.9
17.95
16.97
15.81
14.44
12.95
11.51
10.27
9.32
8.63
8.12
7.71
7.35
6.99
6.59
6.08
5.41
4.52
3.46
2.24
0.92
-0.5
-2.01
-3.61
-5.25
-6.83
-8.26
-9.5
-10.56
-11.47
-12.21
-12.6
-12.4
-11.36
-9.42
-6.79
-3.91
-1.26
0.78
2.05
2.64
2.72
2.46
1.94
1.18
0.2
-0.89
-1.92
-2.74
-3.27
-3.54
-3.65
-3.69
-3.71
-3.69
-3.59
-3.42
-3.27
-3.25
-3.57
-4.35
-5.67
-7.48
-9.62
-11.94
-14.28
-16.55
-18.76
-20.96
-23.15
-25.24
-26.97
-28.06
-28.26
-27.48
-25.84
-23.64
-21.28
-19.14
-17.55
-16.7
-16.68
-17.49
-19.02
-21.07
-23.35
-25.45
-26.82
-26.78
-24.65
-20.04
-13.1
-4.63
4.01
11.37
16.4
18.83
19.23
18.72
18.51
19.52
22.17
26.5
32.27
39.04
46.15
52.71
57.94
61.38
63.18
64.04
64.85
66.24
68.24
70.22
71.2
70.42
67.63
63.23
58.05
52.94
48.5
44.83
41.61
38.26
34.15
28.69
21.28
11.34
-1.74
-18.18
-37.38
-57.72
-76.75
-91.89
-101.16
-103.84
-100.41
-92.23
-80.87
-67.78
-54.18
-41.07
-29.45
-20.15
-13.64
-9.87
-8.31
-8.07
-8.28
-8.23
-7.45
-5.77
-3.16
0.25
4.26
8.66
13.27
17.93
22.56
27.15
31.75
36.42
41.19
46.01
50.69
54.92
58.26
60.21
60.35
58.4
54.4
48.82
42.35
35.63
28.91
21.78
13.3
2.44
-11.38
-27.92
-46.07
-64.27
-80.99
-95.21
-106.69
-115.83
-123.32
-129.81
-135.48
-139.95
-142.51
-142.42
-139.37
-133.65
-126.01
-117.24
-107.82
-97.74
-86.76
-74.81
-62.29
-49.94
-38.47
-28.05
-18.17
-8
3.03
14.78
26.33
36.36
43.8
48.27
50.17
50.42
49.99
49.58
49.46
49.54
49.56
49.26
48.45
47.03
44.97
42.33
39.31
36.19
33.31
30.98
29.35
28.39
27.79
27.14
25.99
24.05
21.21
17.61
13.59
9.62
6.17
3.61
2.21
2
2.89
4.61
6.84
9.3
11.74
14
15.98
17.64
18.98
19.99
20.65
20.85
20.43
19.28
17.44
15.18
12.95
11.26
10.47
10.63
11.5
12.58
13.35
13.41
12.62
11.08
9.13
7.17
5.54
4.42
3.78
3.44
3.22
2.96
2.61
2.15
1.47
0.38
-1.29
-3.55
-6.03
-8.11
-9.1
-8.55
-6.51
-3.5
-0.21
2.82
5.45
7.9
10.48
13.28
16.11
18.59
20.53
22.11
23.83
26.26
29.63
33.72
37.99
41.85
45.04
47.63
49.9
52.01
53.89
55.29
56.1
56.61
57.55
59.8
63.96
69.93
76.85
83.3
87.71
88.85
86.09
79.42
69.39
56.87
42.89
28.51
14.67
2.16
-8.52
-17.07
-23.45
-27.78
-30.33
-31.44
-31.55
-31.14
-30.63
-30.36
-30.49
-31.02
-31.83
-32.74
-33.58
-34.23
-34.65
-34.9
-35.08
-35.23
-35.3
-35.13
-34.5
-33.32
-31.65
-29.74
-27.91
-26.42
-25.38
-24.75
-24.41
-24.29
-24.41
-24.82
-25.52
-26.42
-27.29
-27.91
-28.1
-27.84
-27.25
-26.52
-25.79
-25.08
-24.2
-22.83
-20.67
-17.58
-13.68
-9.38
-5.19
-1.54
1.36
3.55
5.17
6.36
7.11
7.35
7.04
6.32
5.48
4.89
4.79
5.18
5.81
6.36
6.59
6.44
6.04
5.56
5.11
4.65
4.05
3.21
2.13
0.92
-0.25
-1.2
-1.87
-2.3
-2.6
-2.86
-3.21
-3.71
-4.43
-5.39
-6.52
-7.63
-8.44
-8.62
-7.89
-6.18
-3.57
-0.34
3.13
6.43
9.21
11.22
12.34
12.6
12.17
11.29
10.26
9.32
8.61
8.13
7.84
7.62
7.4
7.14
6.89
6.72
6.66
6.71
6.78
6.73
6.42
5.81
4.96
4.05
3.29
2.85
2.81
3.07
3.42
3.64
3.53
3.04
2.25
1.41
0.76
0.6
1.13
2.44
4.48
7.1
10.03
12.98
15.77
18.27
20.48
22.42
24.07
25.34
26.02
25.93
24.9
22.98
20.43
17.85
15.96
15.35
16.15
17.82
19.31
19.48
17.71
14.19
9.76
5.43
1.77
-1.31
-4.33
-7.9
-12.33
-17.68
-23.88
-30.75
-37.94
-44.66
-49.57
-51.04
-47.68
-39.02
-25.8
-9.9
6.25
20.44
31.11
37.58
39.87
38.31
33.36
25.6
15.82
5.11
-5.36
-14.79
-22.95
-30.28
-37.38
-44.42
-50.81
-55.34
-56.76
-54.46
-48.68
-40.38
-30.78
-21.13
-12.55
-6.06
-2.47
-1.95
-3.71
-6.09
-7.16
-5.61
-1.49
3.9
8.63
11.16
11.06
9.08
6.61
4.94
4.85
6.54
9.93
14.8
20.86
27.66
34.44
40.3
44.51
46.88
47.82
48.13
48.56
49.52
51
52.63
54.04
55.04
55.67
56.13
56.64
57.33
58.23
59.28
60.39
61.51
62.59
63.52
64.14
64.19
63.42
61.78
59.43
56.8
54.34
52.32
50.69
49.08
47.06
44.29
40.76
36.72
32.58
28.67
25.1
21.76
18.47
15.15
11.83
8.6
5.36
1.78
-2.53
-7.67
-13.2
-18.26
-22.06
-24.57
-26.81
-30.46
-36.85
-46.02
-56.42
-65.49
-70.86
-71.35
-67.26
-59.81
-50.39
-40.01
-29.42
-19.57
-11.69
-6.98
-5.86
-7.53
-10.17
-11.79
-11.27
-8.79
-5.44
-2.44
-0.38
0.95
2.08
3.28
4.19
3.99
1.98
-1.75
-6.15
-9.59
-10.58
-8.59
-4.4
0.32
3.82
5.3
5.3
5.33
6.88
10.43
15.09
19.1
20.85
19.75
16.41
12.22
8.56
6.39
6.15
7.94
11.44
15.67
19.02
19.6
16.09
8.31
-2.17
-12.37
-18.91
-19.34
-13.25
-2.39
10.06
20.59
26.31
25.95
20.3
11.82
3.81
-1.26
-2.3
-0.15
2.86
2.98
-3.09
-16.39
-34.55
-52.22
-63.81
-65.46
-57.06
-42.42
-29.85
-28.43
-44.45
-78.84
-127.04
-182.16
-235.3
-277.15
-298.97
-298.04
-276.34
-239.08
-192.09
-140.55
-90.93
-47.82
-13.51
13.03
29.61
34.37
27.68
13.5
-2.9
-21.07
-42.49
-68.33
-95.63
-124.1
-152.26
-177.44
-196.09
-185.33
-137.44
-65.2
-9.76
23.04
37.27
44.54
50.5
58.24
68.37
76.47
78.95
75.84
73
72.35
73.89
76.08
77.99
79.15
77.02
70.44
60.72
52.79
47.94
45.9
45.52
46.37
48.22
49.08
47.39
43.09
38.79
35.45
33.56
33.16
34.38
36.96
39.34
40.02
38.43
35.76
32.78
30.3
28.88
28.88
30.25
32.32
34.45
36.54
39.16
42.61
46.86
51.49
55.85
59.32
61.48
62.29
62.05
61.33
60.71
60.65
61.25
62.21
62.87
62.42
60.22
56.13
50.71
45.05
40.5
38.32
39.28
43.48
50.24
58.18
65.46
70.13
70.72
66.66
58.58
48.16
37.5
28.23
20.82
14.38
7.01
-3.31
-17.88
-36.72
-58.55
-81.37
-103.19
-122.62
-138.94
-152
-162.08
-170.05
-177.33
-185.58
-195.88
-207.92
-219.65
-227.96
-230.1
-225.01
-213.77
-198.81
-182.48
-165.94
-148.92
-130.45
-109.85
-87.13
-62.8
-37.26
-10.58
17.1
45.07
71.84
95.51
114.43
127.78
135.61
138.5
137.18
132.42
125.06
116.14
106.73
97.61
89.12
81.22
73.82
67.1
61.48
57.35
54.7
52.96
51.31
49.11
46.36
43.64
41.82
41.4
42.25
43.53
44.16
43.37
41.02
37.62
33.9
30.46
27.38
24.38
21.1
17.47
13.85
10.83
8.82
7.76
7.14
6.25
4.59
2.14
-0.72
-3.45
-5.7
-7.4
-8.74
-9.92
-11.05
-12.07
-12.89
-13.47
-13.9
-14.29
-14.67
-14.93
-14.82
-14.13
-12.8
-11.08
-9.36
-8.04
-7.31
-7.05
-6.83
-6.23
-5.09
-3.72
-2.93
-3.62
-6.33
-10.83
-16.11
-20.84
-23.96
-25.27
-25.44
-25.56
-26.49
-28.41
-30.89
-33.45
-36.04
-39.2
-43.45
-48.5
-52.82
-54.09
-50.18
-40.16
-24.42
-4.11
19.83
46.94
76.73
107.51
135.75
156.73
166.44
163.65
150.96
133.86
118.22
107.68
102.33
99.18
94.24
84.69
70.18
52.78
36.04
23.48
17.47
18.46
25.1
34.84
44.7
52.17
55.86
55.56
51.99
46.35
39.98
34.02
29.11
24.79
19.16
9.21
-7.85
-32.68
-62.4
-90.82
-110.66
-116.64
-107.88
-88.22
-64.26
-42.38
-26.34
-16.61
-11.36
-8.44
-6.67
-5.99
-6.84
-9.23
-12.49
-15.56
-17.71
-19.11
-20.92
-24.73
-31.75
-42
-54.06
-65.49
-73.83
-77.66
-77.1
-73.62
-69.13
-65.11
-62.04
-59.45
-56.5
-52.6
-47.91
-43.14
-39.23
-36.84
-36.1
-36.59
-37.52
-38.06
-37.69
-36.36
-34.54
-32.88
-31.88
-31.55
-31.42
-30.7
-28.74
-25.43
-21.25
-17
-13.36
-10.67
-8.93
-7.91
-7.25
-6.63
-5.96
-5.45
-5.39
-5.89
-6.83
-8.04
-9.12
-9.6
-9.07
-7.52
-5.42
-3.32
-1.34
0.73
3.11
6.04
9.79
14.73
21.13
29.09
38.48
49.02
59.7
68.96
74.28
73.75
68.35
61.83
57.78
57.44
60.15
64.96
70.52
76.16
81.77
87.26
92.02
95.14
94.19
88.67
79.27
67.13
53.43
39.09
24.88
11.24
-1.26
-11.83
-19.42
-23.65
-25.06
-24.72
-23.7
-22.74
-22.7
-23.94
-26.25
-28.89
-31.39
-33.68
-36.11
-39.3
-43.87
-50.89
-60.41
-71.37
-82.31
-92.51
-102.18
-111.83
-121.46
-129.96
-136.26
-138.49
-134.87
-124.78
-109.39
-91.08
-72.41
-55.19
-33.44
-6.05
23.96
52.16
75.89
94.08
106.1
112.29
113.1
109.44
101.83
91.77
81.21
71.63
63.3
56.35
50.61
45.67
40.97
35.05
27.09
17.35
6.95
-2.67
-10.24
-15.1
-17.32
-17.44
-16.54
-14.98
-12.13
-6.66
2.59
15.92
32.22
48.94
62.77
70.34
69.59
60.34
44.09
23.38
0.88
-21.21
-41.32
-58.27
-71.26
-79.66
-83.25
-82.43
-78.34
-72.43
-66.13
-60.39
-55.59
-51.59
-47.99
-44.4
-40.62
-36.7
-32.93
-29.66
-27.21
-25.72
-25.12
-25.11
-25.33
-25.38
-24.98
-23.92
-22.19
-19.8
-16.89
-13.57
-9.96
-6.16
-2.25
1.7
5.59
9.25
12.47
15.03
16.77
17.62
17.68
17.19
16.44
15.73
15.22
14.97
14.94
15.02
15.16
15.29
15.4
15.43
15.31
14.94
14.28
13.32
12.11
10.74
9.27
7.76
6.21
4.6
2.94
1.26
-0.24
-1.32
-1.64
-0.92
0.97
3.92
7.65
11.83
16.15
20.45
24.59
28.41
31.63
34.01
35.42
35.96
35.95
35.71
35.39
34.8
33.5
31.01
27.01
21.55
15.01
7.99
1.15
-4.9
-9.65
-12.75
-14.07
-13.77
-12.37
-10.64
-9.4
-9.33
-10.67
-13.16
-16.15
-18.87
-20.63
-21.08
-20.16
-18.07
-15.13
-11.63
-7.83
-3.9
-0.04
3.6
6.81
9.41
11.22
12.13
12.15
11.45
10.35
9.31
8.72
8.79
9.41
10.2
10.69
10.55
9.82
8.85
8.12
7.92
8.24
8.79
9.22
9.41
9.56
10.01
11.05
12.61
14.17
14.92
14.09
11.27
6.73
1.31
-3.83
-7.62
-9.55
-9.8
-9.17
-8.71
-9.34
-11.59
-15.72
-21.82
-29.85
-39.23
-48.46
-55.25
-57.26
-53.39
-44.55
-33.68
-24.28
-18.7
-16.86
-16.5
-14.54
-8.97
0.11
10.89
21.16
29.81
37.28
44.97
53.99
64.28
74.6
83.26
88.99
91.4
90.98
88.56
84.88
80.4
75.35
69.88
64.16
58.37
52.67
47.23
42.26
37.94
34.42
31.68
29.6
28.08
27.27
27.53
29.36
33.05
38.4
44.6
50.37
54.36
55.52
53.45
48.51
41.47
33.08
23.74
13.37
1.57
-11.87
-26.49
-40.64
-51.58
-56.16
-51.99
-38.74
-19.02
1.88
17.39
22
13.2
-7.53
-35.62
-65.38
-92.18
-113.54
-128.85
-138.29
-141.83
-139.2
-130.73
-118.27
-105.3
-95.91
-93.17
-97.47
-106.02
-113.77
-115.36
-107.22
-89.04
-63.82
-36.75
-13.24
3
11.06
12.73
11.36
10.15
10.85
13.24
15.64
15.94
12.73
5.95
-3.08
-12.14
-18.93
-21.7
-19.78
-13.57
-4.4
5.93
15.58
23.14
27.8
29.51
28.76
26.34
23.04
19.43
15.92
12.81
10.39
8.93
8.54
9.06
10.06
11.02
11.69
12.23
13.2
15.23
18.53
22.68
26.68
29.37
29.93
28.23
24.88
20.87
17.12
14.21
12.22
10.96
10.14
9.54
9.07
8.73
8.61
8.99
10.37
13.23
17.73
23.48
29.51
34.58
37.61
37.97
35.77
31.79
27.29
23.58
21.49
20.85
20.42
18.31
12.89
3.95
-6.98
-17
-23.26
-24.37
-21.09
-15.64
-10.24
-5.83
-1.91
2.43
7.28
11.41
12.97
10.88
5.87
0.21
-3.68
-4.7
-3.75
-2.91
-3.83
-6.47
-9.03
-9.19
-5.6
1.29
9.58
17.26
23.3
27.96
32.13
36.49
41.03
45.23
48.67
51.53
54.34
57.45
60.56
62.58
62.2
58.68
52.24
44.02
35.48
27.71
21.12
15.49
10.37
5.38
0.49
-4.14
-8.26
-11.73
-14.6
-17.02
-19.24
-21.46
-23.85
-26.35
-28.78
-30.77
-31.93
-32.03
-31.07
-29.34
-27.27
-25.3
-23.8
-23.03
-23.16
-24.23
-26.07
-28.12
-29.57
-29.58
-27.65
-23.99
-19.51
-15.52
-13.13
-12.85
-14.36
-16.77
-19.03
-20.41
-20.68
-20.04
-18.9
-17.64
-16.55
-15.78
-15.49
-15.89
-17.13
-19.28
-22.12
-25.16
-27.69
-29.04
-28.87
-27.48
-25.71
-24.75
-25.69
-28.97
-34.18
-40.13
-45.23
-48.1
-48.01
-45.04
-39.9
-33.64
-27.17
-21.1
-15.64
-10.69
-5.95
-1.16
3.72
8.37
12.16
14.37
14.68
13.43
11.7
10.87
11.95
15
19.03
22.38
23.77
22.96
20.96
19.48
19.94
22.59
26.33
29.11
28.86
24.5
16.26
5.49
-5.84
-15.32
-20.05
-17.05
-4.17
18.24
46.3
72.6
88.02
85.21
62
22.99
-21.97
-61.7
-88.15
-98.44
-94.57
-81.19
-62.86
-42.51
-21.59
-1.56
15.06
24.6
24.74
16.22
2.72
-10.64
-19.46
-21.71
-18.33
-12.34
-7.86
-7.15
-9.8
-14.11
-18.74
-23.28
-28
-33.47
-40.12
-48.68
-57.89
-64.21
-63.47
-52.68
-30.87
0.64
38.22
83.01
126.78
157.12
166.81
157.65
136.13
107.75
75.91
42.72
9.14
-21.57
-46.81
-64.73
-75.41
-80.96
-84.19
-87.04
-90.19
-93.51
-97.34
-101.75
-105.94
-108.96
-110.2
-109.35
-106.22
-100.99
-94.3
-87.27
-80.32
-72.42
-61.91
-47.7
-30.06
-10.66
7.94
23.34
34.28
41.43
47.11
53.75
62.5
72.76
82.9
91.45
97.94
102.99
107.67
112.64
117.53
121.13
122.16
120.16
115.67
109.83
103.74
97.93
92.33
86.63
80.7
74.7
68.99
63.87
59.47
55.69
52.34
49.26
46.41
43.75
41.17
38.34
34.68
29.48
22.12
12.21
-0.18
-14.59
-30.25
-46.33
-62.1
-76.87
-90
-100.83
-108.81
-113.53
-114.85
-112.83
-107.54
-99.1
-87.83
-74.5
-60.35
-46.9
-35.35
-26.2
-19.14
-13.47
-8.62
-4.46
-1.21
0.95
2.24
3.2
4.35
5.72
6.82
6.95
5.64
3.1
-0.05
-3.04
-5.44
-7.24
-8.64
-9.68
-10.08
-9.19
-6.36
-1.39
5.29
12.57
19.09
23.65
25.71
25.44
23.64
21.27
19.02
17.14
15.41
13.47
11.26
9.15
7.93
8.43
11.13
15.83
21.77
27.89
33.32
37.61
40.75
42.97
44.39
44.8
43.64
40.25
34.17
25.42
14.64
2.93
-8.31
-17.84
-24.89
-29.36
-31.62
-32.25
-31.6
-29.58
-25.8
-19.91
-12.1
-3.21
5.43
12.55
17.36
19.88
20.8
21.07
21.44
22.11
22.79
22.91
21.97
19.77
16.38
11.98
6.67
0.38
-6.93
-14.98
-23
-29.81
-34.28
-35.76
-34.46
-31.37
-27.84
-24.96
-23.26
-22.6
-22.46
-22.28
-21.76
-20.9
-20.03
-19.6
-20.1
-21.84
-24.92
-29.1
-33.92
-38.84
-43.41
-47.35
-50.56
-52.96
-54.42
-54.78
-53.91
-51.81
-48.69
-44.86
-40.69
-36.44
-32.27
-28.3
-24.64
-21.41
-18.69
-16.42
-14.28
-11.78
-8.36
-3.63
2.36
9.09
15.77
21.71
26.57
30.43
33.5
35.88
37.31
37.26
35.19
30.82
24.3
16.17
7.4
-0.85
-7.31
-11
-11.79
-10.7
-9.99
-12.51
-20.75
-35.95
-57.74
-84.28
-112.89
-140.45
-163.87
-180.45
-188.33
-186.87
-176.78
-159.69
-137.35
-110.88
-80.54
-46.24
-8.48
30.97
69.13
102.61
128.72
146.33
155.96
159.24
158.15
154.4
149.28
143.71
138.41
133.98
130.75
128.47
126.23
122.67
116.52
107.25
95.34
82.21
69.66
59.11
51.12
45.37
40.96
36.93
32.51
27.31
21.29
14.85
8.71
3.75
0.62
-0.6
-0.64
-0.88
-2.7
-6.9
-13.28
-20.63
-27.23
-31.42
-32.19
-29.38
-23.72
-16.57
-9.58
-4.23
-1.42
-1.11
-2.38
-3.68
-3.48
-0.82
4.28
10.83
17.27
22.02
24.01
22.92
19.19
13.82
8.18
3.86
2.41
5.17
12.91
25.54
42.01
60.52
78.86
94.79
106.28
111.69
110.08
101.39
86.67
67.98
47.92
29.01
12.95
0.37
-9.18
-16.79
-23.84
-31.57
-40.84
-51.9
-64.21
-76.46
-86.92
-93.99
-96.78
-95.33
-90.38
-82.91
-73.77
-63.55
-52.81
-42.2
-32.55
-24.53
-18.39
-13.85
-10.29
-7.15
-4.29
-2.09
-1.07
-1.59
-3.51
-6.27
-9.15
-11.73
-14.02
-16.41
-19.34
-22.95
-26.93
-30.61
-33.25
-34.36
-33.9
-32.28
-30.01
-27.49
-24.76
-21.55
-17.64
-13.12
-8.49
-4.48
-1.72
-0.44
-0.41
-1.19
-2.4
-3.94
-5.94
-8.5
-11.43
-14.17
-15.93
-15.91
-13.64
-9.14
-2.98
3.85
10.08
14.58
16.6
16.01
13.22
8.97
4.07
-0.95
-5.91
-10.88
-16.05
-21.49
-27.01
-32.24
-36.71
-39.96
-41.79
-42.18
-41.35
-39.58
-37.18
-34.33
-31.11
-27.61
-23.91
-20.2
-16.77
-13.94
-11.92
-10.75
-10.24
-9.99
-9.47
-8.17
-5.72
-1.88
3.4
9.96
17.46
25.32
32.75
38.89
42.97
44.59
43.81
41.15
37.41
33.37
29.62
26.45
23.86
21.76
19.99
18.41
16.89
15.35
13.8
12.42
11.49
11.28
11.94
13.32
15.09
16.82
18.21
19.15
19.65
19.8
19.63
19.18
18.53
17.89
17.49
17.45
17.68
17.9
17.79
17.19
16.2
15.15
14.41
14.16
14.33
14.61
14.66
14.25
13.42
12.39
11.46
10.83
10.55
10.48
10.38
10.01
9.25
8.01
6.29
4.14
1.66
-0.98
-3.51
-5.62
-6.98
-7.37
-6.76
-5.3
-3.27
-1.02
1.2
3.21
4.92
6.25
7.14
7.52
7.39
6.86
6.1
5.33
4.74
4.42
4.39
4.6
4.99
5.48
6
6.45
6.8
7
7.09
7.09
7.01
6.83
6.55
6.19
5.83
5.52
5.28
5.02
4.61
3.91
2.84
1.43
-0.23
-2.03
-3.87
-5.73
-7.58
-9.4
-11.1
-12.53
-13.47
-13.73
-13.17
-11.83
-9.89
-7.66
-5.5
-3.69
-2.37
-1.49
-0.91
-0.45
0.08
0.75
1.55
2.41
3.2
3.84
4.28
4.49
4.5
4.34
4.08
3.84
3.72
3.84
4.23
4.8
5.36
5.73
5.8
5.56
5.15
4.75
4.5
4.46
4.53
4.55
4.37
3.95
3.36
2.76
2.26
1.87
1.5
1.01
0.37
-0.31
-0.74
-0.67
0.07
1.42
3.16
4.96
6.55
7.8
8.67
9.2
9.44
9.39
8.97
8.09
6.69
4.84
2.77
0.79
-0.77
-1.76
-2.22
-2.36
-2.42
-2.57
-2.78
-2.95
-3.01
-2.98
-3.02
-3.27
-3.8
-4.48
-5.09
-5.41
-5.34
-4.92
-4.27
-3.56
-2.89
-2.33
-1.92
-1.73
-1.84
-2.28
-3.04
-4
-5.01
-5.9
-6.52
-6.81
-6.77
-6.4
-5.74
-4.78
-3.49
-1.88
0.05
2.19
4.35
6.31
7.86
8.84
9.27
9.24
8.91
8.44
7.93
7.46
7.05
6.78
6.68
6.75
6.95
7.16
7.28
7.24
7.07
6.85
6.64
6.44
6.13
5.61
4.81
3.77
2.59
1.41
0.3
-0.73
-1.71
-2.69
-3.69
-4.72
-5.79
-6.93
-8.16
-9.46
-10.76
-11.96
-12.92
-13.59
-13.93
-13.96
-13.71
-13.19
-12.36
-11.13
-9.47
-7.43
-5.14
-2.86
-0.84
0.73
1.77
2.34
2.57
2.6
2.56
2.49
2.44
2.44
2.51
2.66
2.88
3.15
3.4
3.59
3.67
3.62
3.46
3.24
3
2.76
2.51
2.2
1.78
1.24
0.61
-0.02
-0.55
-0.93
-1.17
-1.34
-1.58
-1.93
-2.37
-2.82
-3.2
-3.49
-3.8
-4.27
-5.06
-6.22
-7.63
-9.07
-10.21
-10.8
-10.7
-9.9
-8.53
-6.81
-4.92
-3
-1.13
0.64
2.23
3.54
4.52
5.14
5.48
5.64
5.71
5.72
5.64
5.49
5.33
5.25
5.38
5.72
6.21
6.71
7.07
7.22
7.11
6.78
6.28
5.64
4.92
4.18
3.5
2.94
2.55
2.28
2.01
1.62
1.01
0.19
-0.69
-1.46
-2
-2.27
-2.38
-2.46
-2.64
-2.93
-3.32
-3.77
-4.27
-4.88
-5.61
-6.4
-7.11
-7.57
-7.64
-7.3
-6.61
-5.66
-4.51
-3.14
-1.54
0.26
2.12
3.82
5.13
5.9
6.14
5.96
5.49
4.84
4.07
3.21
2.33
1.53
0.95
0.68
0.66
0.79
0.92
0.93
0.83
0.72
0.69
0.88
1.3
1.87
2.43
2.77
2.74
2.26
1.42
0.44
-0.45
-1.14
-1.65
-2.12
-2.69
-3.41
-4.19
-4.85
-5.25
-5.38
-5.38
-5.45
-5.74
-6.3
-7.05
-7.84
-8.58
-9.19
-9.65
-9.92
-9.97
-9.68
-9.01
-7.96
-6.6
-5.07
-3.52
-2.06
-0.73
0.48
1.57
2.47
3.07
3.27
2.99
2.31
1.38
0.38
-0.54
-1.33
-1.99
-2.5
-2.83
-2.93
-2.77
-2.45
-2.09
-1.8
-1.61
-1.42
-1.07
-0.4
0.63
1.97
3.52
5.11
6.58
7.78
8.57
8.84
8.63
8.05
7.34
6.68
6.19
5.87
5.57
5.14
4.48
3.58
2.54
1.48
0.47
-0.48
-1.46
-2.56
-3.79
-5.03
-6.05
-6.61
-6.53
-5.85
-4.83
-3.83
-3.22
-3.2
-3.74
-4.64
-5.64
-6.6
-7.48
-8.4
-9.46
-10.69
-11.92
-12.85
-13.11
-12.36
-10.42
-7.36
-3.54
0.51
4.31
7.76
11.25
15.62
21.71
29.88
39.67
49.7
58.18
63.6
65.41
64.36
62.16
60.76
61.38
63.91
66.81
67.72
64.57
56.66
45.09
32.65
22.71
17.92
19
24.31
30.22
32.26
26.53
11.07
-13.33
-42.91
-71.32
-90.87
-94.51
-78.33
-43.47
3.44
52.14
92.22
116.75
124.34
118.54
105.13
89.03
72.47
55.5
38.03
21.8
10.65
9.02
19.38
40.24
65.95
88.52
100.13
95.54
73.47
36.74
-8.61
-55.01
-95.18
-123.66
-137.74
-137.68
-126.26
-107.92
-87.61
-69.96
-58.56
-55.55
-61.35
-74.71
-92.85
-111.93
-127.6
-135.94
-134.36
-122.35
-101.69
-76.17
-50.62
-29.61
-16.03
-10.33
-10.79
-14.31
-17.69
-18.69
-16.62
-12.24
-7.11
-2.84
-0.29
0.62
0.92
1.9
4.4
8.21
12.1
14.47
14.22
11.3
6.73
2.06
-1.55
-3.82
-5.37
-7.15
-9.8
-13.25
-16.77
-19.45
-20.7
-20.57
-19.77
-19.25
-19.76
-21.41
-23.52
-24.8
-23.95
-20.3
-14.28
-7.37
-1.5
1.83
2.28
0.87
-0.61
-0.5
1.75
5.29
8.21
8.41
4.72
-2.48
-11.31
-19.1
-23.53
-23.81
-21.21
-18.75
-20.27
-28.86
-45.56
-68.57
-93.29
-113.08
-120.8
-110.86
-81.36
-35.7
17.54
66.67
100.64
112.96
103.87
79.87
50.56
24.58
6.7
-2.92
-7.17
-9.66
-12.8
-17
-20.68
-20.7
-13.17
5.16
35.2
74.15
115.39
150.38
171.48
174.74
160.79
133.91
99.87
64.1
30.83
3.18
-16.5
-26.72
-27.58
-21.22
-11.58
-3.25
0.17
-2.22
-7.7
-10.42
-3.25
18.81
55.32
98.93
136.97
156.18
148.61
115.51
67.02
17.83
-19.12
-37.17
-37.2
-25.71
-11.22
-1.32
-0.96
-11.88
-32.68
-59.09
-84.98
-104.06
-111.88
-107.34
-92.87
-73.36
-54.18
-39.62
-31.98
-31.58
-37.13
-46.39
-56.91
-67.01
-76.45
-86.41
-98.63
-114.06
-131.64
-147.84
-157.25
-154.24
-134.94
-99.05
-50.54
2.9
51.95
88.34
107.33
108.66
95.95
74.7
50.12
25.8
3.74
-14.66
-27.7
-33.36
-30.1
-18.17
-0.09
19.88
37.32
49.24
55.01
56.08
54.73
52.61
49.93
45.7
38.67
28.47
16.16
3.91
-5.89
-11.61
-12.85
-10.45
-5.93
-0.82
3.8
7.49
10.34
12.67
14.79
16.76
18.36
19.25
19.11
17.9
15.88
13.59
11.69
10.71
10.84
11.89
13.43
14.94
16.03
16.5
16.33
15.54
14.11
12.02
9.3
6.15
2.91
0.03
-2.12
-3.37
-3.78
-3.59
-3.13
-2.71
-2.5
-2.56
-2.86
-3.28
-3.67
-3.96
-4.1
-4.16
-4.22
-4.37
-4.6
-4.82
-4.93
-4.88
-4.76
-4.79
-5.26
-6.42
-8.31
-10.79
-13.56
-16.32
-18.79
-20.82
-22.3
-23.16
-23.34
-22.78
-21.5
-19.59
-17.23
-14.66
-12.11
-9.73
-7.58
-5.65
-3.85
-2.18
-0.66
0.63
1.62
2.28
2.7
2.97
3.21
3.44
3.64
3.73
3.67
3.41
2.94
2.22
1.14
-0.4
-2.41
-4.77
-7.19
-9.28
-10.71
-11.32
-11.12
-10.3
-9.08
-7.68
-6.29
-5.04
-4.01
-3.23
-2.65
-2.15
-1.63
-1.05
-0.48
-0.06
0.14
0.15
0.15
0.37
0.96
1.95
3.2
4.5
5.6
6.33
6.66
6.63
6.37
5.99
5.58
5.17
4.77
4.41
4.18
4.14
4.35
4.76
5.27
5.74
6.08
6.26
6.32
6.26
6.05
5.64
4.96
4.03
2.89
1.6
0.23
-1.21
-2.68
-4.07
-5.18
-5.71
-5.44
-4.33
-2.56
-0.45
1.59
3.3
4.55
5.37
5.88
6.23
6.48
6.66
6.76
6.82
6.88
7.05
7.41
8.01
8.83
9.77
10.66
11.32
11.64
11.59
11.2
10.54
9.62
8.44
6.99
5.32
3.57
1.91
0.46
-0.77
-1.84
-2.8
-3.63
-4.22
-4.43
-4.27
-3.86
-3.42
-3.15
-3.12
-3.25
-3.45
-3.67
-3.97
-4.42
-5
-5.54
-5.79
-5.49
-4.52
-2.93
-0.87
1.48
3.9
6.18
8.05
9.25
9.53
8.83
7.27
5.14
2.82
0.66
-1.1
-2.35
-3.05
-3.25
-3.07
-2.66
-2.19
-1.81
-1.63
-1.67
-1.89
-2.26
-2.73
-3.31
-3.96
-4.63
-5.24
-5.68
-5.84
-5.67
-5.13
-4.19
-2.84
-1.13
0.74
2.44
3.5
3.57
2.5
0.46
-2.08
-4.57
-6.54
-7.79
-8.37
-8.51
-8.4
-8.16
-7.69
-6.85
-5.5
-3.63
-1.38
0.99
3.2
5.05
6.43
7.34
7.84
7.96
7.74
7.16
6.24
5.06
3.75
2.49
1.53
1.09
1.27
2.04
3.17
4.3
5.09
5.31
4.98
4.3
3.54
2.9
2.4
1.89
1.2
0.23
-1.01
-2.35
-3.6
-4.63
-5.36
-5.8
-5.97
-5.91
-5.6
-5.08
-4.42
-3.74
-3.24
-3.02
-3.12
-3.4
-3.58
-3.37
-2.55
-1.08
0.92
3.17
5.39
7.31
8.81
9.81
10.36
10.52
10.36
9.89
9.16
8.24
7.27
6.46
6
5.96
6.29
6.82
7.33
7.68
7.84
7.89
7.88
7.83
7.67
7.29
6.59
5.53
4.19
2.7
1.26
0.04
-0.86
-1.44
-1.8
-2.09
-2.41
-2.8
-3.19
-3.52
-3.74
-3.91
-4.09
-4.35
-4.66
-4.88
-4.84
-4.38
-3.47
-2.2
-0.78
0.55
1.63
2.36
2.81
3.07
3.23
3.31
3.29
3.1
2.81
2.53
2.45
2.68
3.2
3.86
4.43
4.77
4.85
4.77
4.71
4.72
4.75
4.64
4.18
3.28
2.01
0.57
-0.81
-1.94
-2.76
-3.35
-3.84
-4.29
-4.74
-5.19
-5.65
-6.14
-6.73
-7.4
-8.02
-8.4
-8.3
-7.6
-6.34
-4.72
-2.96
-1.27
0.21
1.4
2.2
2.58
2.55
2.25
1.91
1.71
1.73
1.92
2.15
2.32
2.47
2.69
3.1
3.69
4.31
4.78
4.96
4.87
4.62
4.37
4.21
4.08
3.84
3.32
2.41
1.12
-0.41
-1.93
-3.18
-3.99
-4.34
-4.37
-4.26
-4.19
-4.27
-4.52
-4.92
-5.39
-5.82
-6.06
-5.91
-5.2
-3.89
-2.1
-0.11
1.77
3.3
4.44
5.25
5.83
6.24
6.49
6.58
6.51
6.37
6.21
6.05
5.88
5.64
5.35
5.07
4.91
4.9
5
5.09
5.04
4.81
4.4
3.93
3.45
3
2.55
2.09
1.62
1.22
0.97
0.9
0.97
1.04
0.96
0.61
0.01
-0.71
-1.39
-1.89
-2.24
-2.54
-2.93
-3.5
-4.17
-4.75
-4.98
-4.65
-3.7
-2.24
-0.46
1.4
3.11
4.51
5.48
5.96
5.95
5.5
4.75
3.91
3.15
2.58
2.24
2.08
2.01
1.97
1.92
1.84
1.68
1.42
1.04
0.6
0.17
-0.19
-0.47
-0.74
-1.07
-1.53
-2.09
-2.66
-3.18
-3.59
-3.92
-4.19
-4.42
-4.57
-4.65
-4.63
-4.56
-4.48
-4.45
-4.46
-4.47
-4.41
-4.23
-3.85
-3.23
-2.28
-0.98
0.65
2.51
4.39
6.05
7.29
7.97
8.13
7.88
7.4
6.85
6.35
5.96
5.7
5.52
5.37
5.19
4.94
4.63
4.3
4.01
3.85
3.82
3.92
4.12
4.37
4.67
5.02
5.42
5.86
6.3
6.64
6.83
6.81
6.6
6.25
5.8
5.33
4.91
4.55
4.29
4.09
3.86
3.48
2.88
2.06
1.23
0.7
0.82
1.78
3.51
5.7
7.87
9.62
10.74
11.23
11.25
10.95
10.4
9.57
8.4
6.92
5.32
3.87
2.82
2.27
2.05
1.82
1.14
-0.26
-2.45
-5.24
-8.31
-11.33
-14
-16.09
-17.36
-17.56
-16.5
-14.16
-10.8
-6.88
-3.02
0.27
2.76
4.56
6.07
7.77
10.07
13.07
16.59
20.14
23.08
24.74
24.55
22.11
17.35
10.56
2.47
-5.86
-13.17
-18.36
-20.79
-20.44
-17.9
-14.08
-9.93
-6.16
-3.14
-0.95
0.5
1.44
2.12
2.77
3.49
4.23
4.76
4.75
3.85
1.85
-1.27
-5.31
-9.84
-14.32
-18.13
-20.71
-21.76
-21.25
-19.49
-17.01
-14.34
-11.89
-9.88
-8.36
-7.31
-6.73
-6.65
-7.05
-7.83
-8.81
-9.7
-10.23
-10.16
-9.38
-7.92
-5.99
-3.97
-2.29
-1.31
-1.13
-1.6
-2.33
-2.94
-3.17
-3.07
-2.85
-2.75
-2.86
-3.07
-3.23
-3.29
-3.37
-3.71
-4.46
-5.54
-6.62
-7.27
-7.19
-6.4
-5.18
-4.04
-3.35
-3.3
-3.77
-4.44
-4.97
-5.1
-4.81
-4.24
-3.65
-3.26
-3.21
-3.41
-3.63
-3.55
-2.92
-1.66
0.07
1.96
3.69
5.05
6.02
6.75
7.45
8.25
9.08
9.76
10.08
9.97
9.54
9.07
8.88
9.19
9.98
11.1
12.27
13.3
13.99
14.16
13.62
12.09
9.46
5.82
1.58
-2.64
-6.28
-9.04
-11
-12.43
-13.63
-14.62
-15.18
-15
-13.91
-12.12
-10.1
-8.42
-7.46
-7.33
-7.82
-8.57
-9.22
-9.45
-9.14
-8.28
-7.06
-5.76
-4.74
-4.25
-4.35
-4.81
-5.18
-4.99
-3.96
-2.1
0.29
2.76
4.91
6.51
7.44
7.75
7.47
6.64
5.34
3.75
2.16
0.89
0.12
-0.23
-0.47
-0.97
-1.99
-3.46
-5.06
-6.38
-7.18
-7.5
-7.64
-7.92
-8.46
-9.13
-9.62
-9.67
-9.27
-8.62
-7.96
-7.35
-6.64
-5.51
-3.73
-1.35
1.25
3.56
5.14
5.84
5.83
5.49
5.17
5.06
5.17
5.34
5.43
5.38
5.19
4.93
4.69
4.52
4.44
4.43
4.47
4.53
4.62
4.81
5.14
5.72
6.58
7.67
8.84
9.89
10.65
11
10.97
10.66
10.25
9.91
9.79
9.97
10.5
11.33
12.32
13.32
14.1
14.48
14.3
13.46
11.96
9.95
7.61
5.15
2.71
0.4
-1.68
-3.49
-5.04
-6.36
-7.51
-8.61
-9.84
-11.35
-13.12
-14.84
-16.1
-16.52
-15.97
-14.48
-12.42
-10.41
-8.98
-8.28
-8.01
-7.71
-7.11
-6.22
-4.98
-3.76
-3.21
-3.88
-5.68
-7.8
-9.29
-9.65
-8.95
-6.97
-4.28
-2.14
-1.64
-2.75
-4.1
-4.14
-2.26
1.18
6.6
13.44
20.1
24.84
26.74
26.36
24.47
21.71
19.8
24.18
39.76
68.11
106.1
146.44
180.52
199.77
197.99
165.04
104.57
32.9
-30.72
-75.14
-100.42
-108.87
-100.66
-77.08
-42.45
-0.23
39.67
64.43
64.23
34.86
-14.34
-64.26
-97.89
-114.14
-117.56
-114.6
-111.28
-108.04
-105.42
-102.3
-98.38
-95.25
-94.58
-94.45
-91.65
-83.18
-67.38
-45.05
-18.29
8.76
30.32
41.25
40.04
28.01
9.28
-9.42
-19.94
-14.25
11.55
54.25
103.77
146.89
171.18
169.54
142.64
97.99
47
0.18
-35.93
-59.09
-69.57
-68.68
-57.93
-39.29
-15.95
7.7
26.68
36.73
35.79
24.66
6.61
-13.86
-32.37
-45.92
-53.27
-54.83
-52.07
-46.73
-40.38
-34.23
-29.22
-26.13
-25.38
-26.83
-29.52
-31.9
-32.36
-29.98
-24.99
-18.69
-12.81
-8.79
-7.27
-7.94
-9.83
-11.32
-10.21
-4.08
8.78
28.22
51.6
74.37
91.75
100.69
101.22
96.04
88.83
82.44
77.83
74.56
72.06
70.96
73.48
82.52
99.95
125.02
153.59
178.95
193.76
192.44
173.13
138.25
93.45
45.19
-1.55
-44.24
-82.15
-114.64
-139.91
-155.32
-159.19
-152.58
-139.85
-127.29
-120.63
-122.57
-131.49
-142.47
-149.46
-147.71
-135.36
-114.02
-88.36
-65.25
-50.76
-47.09
-50.79
-53.13
-44.01
-16.31
29.95
86.51
138.73
172.45
179.63
160.43
121.45
70.69
15.13
-40.12
-91.05
-134.91
-168.06
-186.73
-189.35
-177.94
-159.58
-142.21
-131.1
-127.41
-130.63
-137.76
-144.92
-149.09
-148.76
-146.09
-143.49
-142.23
-130.13
-101.5
-60.23
-16.75
15.65
41.42
65.7
91.81
120.85
150.1
173.1
185.03
184.75
174.97
160.76
145.1
130.35
117.89
108.02
98.55
88.57
78.86
71.31
67.75
67.32
69.03
72.09
75.9
78.66
80.27
81.96
85.58
92.34
97.37
96.14
86.95
75.94
63.9
50.81
35.44
18.51
1.14
-16.11
-32.1
-45.57
-55.63
-62.82
-67.32
-69.26
-68.84
-66.69
-63.86
-60.81
-57.73
-54.75
-52.58
-51.22
-50.34
-49.52
-48.64
-47.87
-47.09
-46.09
-44.66
-43.02
-41
-38.42
-35.1
-31.17
-26.92
-22.58
-18.31
-14.32
-10.97
-8.24
-5.86
-3.35
-0.4
3
6.39
9.04
10.12
9.27
7.01
4.73
4.15
6.49
11.74
18.43
24.2
26.78
25.27
20.7
15.66
13.16
15.13
21.52
30.27
38.44
43.24
42.83
36.33
23.61
5.35
-16.12
-35.98
-47.34
-43.67
-22.44
12.15
49.38
76.06
82.52
67.16
37.06
4.02
-21.23
-33.12
-31.49
-18.57
4.25
37.2
79.85
128.07
173.03
203.77
212.19
197.13
164.88
125.69
88.65
57.66
30.97
4
-26.77
-61.19
-95.47
-124.33
-143.66
-152.28
-151.97
-146.04
-137.72
-128.86
-119.75
-109.73
-98.12
-84.88
-70.79
-57.08
-44.81
-34.44
-25.86
-18.8
-13.23
-9.45
-7.87
-8.81
-12.13
-17.09
-22.39
-26.41
-27.79
-25.82
-20.74
-13.56
-5.96
0.23
3.75
4.42
3.04
0.83
-1.27
-2.92
-4.07
-5.31
-7.58
-11.33
-16.01
-20.2
-22.49
-22.2
-19.58
-14.91
-9.68
-6.27
-6.57
-10.5
-16
-20.39
-21.65
-19.12
-12.71
-4.99
-0.91
-4.92
-17.71
-35.21
-50.36
-55.32
-43.51
-10.02
43.74
109.1
173.19
223.66
252.09
254.77
232.99
182.51
112.98
45.78
-0.12
-20.86
-27.01
-29.51
-33.8
-40.88
-49.04
-52.67
-48.45
-36.79
-21.01
-5.11
7.72
14.98
15.15
8.56
-1.39
-11.67
-20.91
-28.76
-34.55
-36.94
-35.32
-30.44
-23.73
-15.82
-7.99
-2.08
0.35
-0.88
-4.41
-8.61
-12.46
-15.15
-15.6
-13.8
-10.8
-8.3
-7.6
-8.71
-10.72
-12.73
-13.77
-12.94
-10.26
-6.14
-0.91
5.65
14.38
27.39
43.35
57.29
63.51
58.98
45.09
26.45
7.11
-9.82
-22.88
-32.73
-41.02
-46.41
-48.21
-45.81
-38.78
-27.35
-12.68
2.53
14.23
18.41
12.71
-3.16
-26.92
-54.4
-80.52
-100.15
-109.14
-105.07
-87.78
-59.76
-26.64
4.03
24.85
31.02
22.38
3.37
-18.85
-37.26
-47.34
-48.45
-42.76
-33.55
-23.47
-13.84
-5.25
1.61
5.61
6.08
4.02
3.11
8.91
26.27
56.32
94.59
131.96
158.1
166.01
154.9
130
99.56
70.62
46.26
25.46
5.4
-15.6
-36.49
-53.98
-64.51
-66.46
-61.17
-52.26
-43.8
-38.43
-36.25
-35.12
-31.98
-24.57
-12.62
1.86
15.44
24.7
27.49
23.68
14.9
3.72
-7.5
-17.3
-25.36
-32.03
-37.7
-42.3
-45.21
-45.6
-42.9
-37.22
-29.36
-20.68
-12.63
-6.47
-2.98
-2.34
-4.14
-7.4
-10.85
-13.25
-13.84
-12.71
-10.78
-9.59
-10.55
-14.31
-20.35
-27.14
-32.83
-36.08
-36.79
-36.24
-36.54
-39.9
-47.68
-59.88
-74.89
-89.56
-99.52
-99.93
-86.81
-58.83
-18.68
26.75
67.98
95.96
105.18
95.29
70.69
38.38
5.29
-23.33
-44.13
-55.16
-55.11
-43.48
-21.24
8.41
40.38
68.79
88.58
96.79
93.01
79.32
60.2
42.05
32.36
37.74
61.32
100.63
147.63
191.1
220.92
231.84
224.87
205.77
181.6
157.31
134.38
111.69
87.64
62.02
36.44
13.29
-5.53
-19.69
-30.5
-40.06
-50.22
-61.76
-74.06
-85.38
-93.88
-98.6
-99.95
-99.36
-98.33
-97.26
-94.98
-89.36
-78.82
-63.88
-47.72
-35.23
-30.73
-35.61
-47.17
-59.52
-66.21
-63.24
-50.99
-33.83
-17.84
-7.74
-5.02
-7.88
-13.05
-18.14
-22.81
-28.67
-37.52
-49.75
-63.33
-74.28
-77.9
-70.53
-50.86
-20.64
15.37
50.28
76.62
88.31
82.92
62.9
35.21
9.52
-4.69
-1.04
21.79
59.64
104.22
145.51
174.82
186.99
181.39
161.29
132.22
100.12
69.82
44.35
25.01
11.86
4.14
0.61
-0.19
0.16
0.33
-0.59
-2.99
-7.01
-12.68
-19.84
-28.14
-37.1
-46.31
-55.52
-64.55
-72.97
-79.88
-84.06
-84.56
-81.36
-75.51
-68.94
-63.53
-60.34
-59.2
-58.96
-58.24
-56.1
-52.47
-48.03
-43.73
-40.3
-37.97
-36.49
-35.34
-34.03
-32.23
-29.92
-27.33
-24.74
-22.37
-20.26
-18.41
-16.91
-15.96
-15.75
-16.2
-16.82
-16.81
-15.45
-12.56
-8.78
-5.38
-3.85
-5.25
-9.77
-16.24
-22
-23.2
-15.69
3.3
33.42
70.4
106.9
134.94
148.82
147.22
133.31
113.1
92.96
77.61
69.31
67.96
71.98
79.03
86.64
92.61
95.49
94.6
89.87
81.36
69.04
53.04
34.24
14.71
-2.58
-14.93
-21.39
-23.43
-24.46
-28.26
-37.08
-50.56
-65.95
-79.6
-88.67
-92.39
-92.14
-90.35
-89.12
-89.4
-90.97
-93.17
-95.61
-98.09
-99.77
-98.09
-88.74
-67.2
-31.44
15.73
66.26
109.15
134.61
138.14
121.91
93.23
60.84
31.52
8.9
-5.23
-8.57
2.53
31.27
76.88
132.16
184.43
220.1
230.6
216.09
184.87
148.83
117.42
93.74
74.67
54.21
27.99
-4.06
-38.19
-69.59
-95.62
-116.98
-136.54
-156.4
-175.31
-187.97
-186.63
-164.86
-121.19
-61
4.51
62.23
101.55
117.53
111.52
89.15
57.39
22.28
-11.76
-41.58
-64.47
-78.25
-82.07
-77.32
-67.74
-58.27
-53.02
-53.65
-58.93
-65.75
-70.82
-71.94
-68.46
-60.93
-50.35
-37.86
-24.72
-12.41
-2.63
3.22
4.64
2.37
-1.81
-5.86
-8.25
-8.7
-8.02
-7.61
-8.68
-11.65
-16.05
-20.79
-24.71
-26.95
-27.04
-24.93
-20.77
-14.91
-7.86
-0.37
6.63
12.22
15.72
16.85
15.76
12.9
8.75
3.71
-1.94
-7.93
-13.91
-19.38
-23.82
-26.84
-28.35
-28.72
-28.63
-28.89
-30.03
-32.18
-34.92
-37.57
-39.55
-40.68
-41.23
-41.72
-42.64
-44.06
-45.62
-46.69
-46.72
-45.18
-41.55
-35.42
-26.71
-16.07
-4.8
5.53
13.77
19.77
24.37
28.74
33.45
37.94
40.63
39.64
33.88
23.79
11.54
0.97
-3.1
4.07
25.48
60.55
104.03
146.59
177.56
188.88
178.16
149.57
111.77
73.99
42.45
18.87
1.67
-11.44
-21.23
-26.57
-25.88
-19.1
-8.75
0.83
5.6
3.9
-2.83
-10.93
-16.59
-17.87
-15.42
-11.75
-9.65
-10.66
-14.4
-19.09
-22.63
-23.68
-22.17
-19.2
-16.31
-14.84
-15.37
-17.66
-20.88
-24.01
-26.32
-27.52
-27.84
-27.8
-27.92
-28.52
-29.66
-31.12
-32.51
-33.41
-33.49
-32.59
-30.82
-28.63
-26.7
-25.69
-25.95
-27.34
-29.33
-31.21
-32.47
-32.95
-32.84
-32.45
-32.02
-31.66
-31.36
-31.08
-30.77
-30.31
-29.39
-27.54
-24.37
-19.7
-13.78
-7.19
-0.67
5.16
9.92
13.56
16.27
18.41
20.38
22.54
25.1
28.08
31.25
34.18
36.53
38.19
39.44
40.75
42.56
44.96
47.65
50.09
51.79
52.47
52.09
50.73
48.47
45.27
41.19
36.5
31.77
27.71
24.81
22.87
20.84
17.02
9.85
-1.14
-14.76
-28.39
-39.04
-44.94
-46.43
-45.73
-45.55
-47.53
-51.35
-55.2
-57.11
-55.92
-51.28
-42.71
-28.82
-7.78
20.93
54.68
87.32
110.94
119.14
109.89
86.39
55.45
24.29
-2.18
-22.43
-37.24
-47.91
-54.74
-56.88
-53.21
-43.57
-29.54
-14.11
-0.75
7.91
11.1
10.12
7.52
5.54
4.73
3.63
-0.39
-9.28
-22.58
-36.84
-46.97
-48.58
-40.18
-23.51
-2.2
20.33
42.19
62.65
80.78
94.45
100.64
97.18
84.56
66.34
47.83
33.69
26.09
24.33
25.95
28.34
29.69
28.96
25.38
18.29
7.48
-6.37
-21.81
-37.04
-50.8
-62.84
-73.82
-84.7
-95.97
-107.15
-116.73
-122.36
-121.24
-110.94
-90.31
-60.53
-25.51
8.69
35.54
50.29
51.61
41.94
26.14
9.27
-5.49
-17.47
-27.64
-36.92
-44.77
-49.07
-47.25
-37.98
-22.3
-3.48
14.35
27.96
36.15
39.91
41.54
43.29
46.33
50.42
54.23
56.14
55.12
51.11
44.96
37.94
31.07
24.65
18.29
11.49
4.13
-3.1
-8.97
-12.28
-12.48
-10.04
-6.17
-2.28
0.72
2.68
4.22
6.23
9.21
12.76
15.31
14.59
8.52
-3.8
-21.4
-41.61
-60.84
-75.86
-84.74
-87.11
-83.76
-75.91
-64.67
-50.97
-35.9
-20.87
-7.59
2.53
8.87
11.86
12.7
12.61
12.23
11.39
9.57
6.59
3.08
0.4
-0.09
2.15
6.36
10.64
12.77
11.14
5.42
-3.3
-12.71
-19.75
-21.03
-13.45
5.03
34.47
72.38
113.71
151.74
179.76
192.86
189.19
170.09
139.29
101.49
61.23
22.24
-12.6
-41.19
-62.16
-75.13
-80.78
-80.75
-77.2
-72.32
-67.91
-65.25
-65.07
-67.34
-71.07
-74.07
-73.45
-66.71
-53.21
-35.09
-17.05
-4.72
-2.46
-11.54
-29.6
-51.47
-70.94
-82.53
-82.7
-70.49
-47.68
-18.89
9.03
28.65
34.45
25.6
7.05
-11.89
-21.47
-16.15
2.75
28.02
50.8
65.5
72.86
79.05
91.77
115.65
149.55
186.98
219.1
238.37
240.93
227
199.7
163.36
122.28
80.22
40.38
5.53
-22.14
-41.33
-51.87
-54.99
-53.13
-49.27
-46.11
-45.19
-46.43
-48.36
-48.98
-46.77
-41.56
-34.75
-28.71
-25.8
-27.22
-32.56
-39.96
-46.96
-51.56
-52.91
-51.55
-48.92
-46.79
-46.74
-49.89
-56.68
-66.72
-78.56
-89.7
-97.21
-98.65
-93.13
-81.76
-67.18
-52.4
-39.42
-28.55
-18.84
-9.36
-0.28
6.76
9.58
6.96
-0.24
-9.11
-15.93
-17.89
-14.28
-6.62
2.29
9.76
14.29
15.76
15.03
13.14
10.87
8.54
6.22
3.91
1.47
-1.31
-4.89
-9.66
-15.6
-21.86
-26.6
-27.25
-21.16
-6.61
16.34
45.48
76.77
105.21
126.03
135.87
133.59
120.4
99.51
75.18
51.52
31.53
16.48
5.96
-1.41
-7.15
-12.2
-16.8
-20.77
-23.96
-26.58
-29.15
-32.15
-35.64
-39.19
-42.08
-43.67
-43.79
-42.81
-41.48
-40.6
-40.63
-41.58
-43.17
-45.09
-47.3
-50.13
-54.11
-59.7
-67.19
-76.63
-87.98
-101.04
-115.08
-128.31
-137.6
-138.82
-127.67
-101.1
-58.67
-3.49
57.81
116.2
162.28
188.72
192.23
174.39
140.99
100.12
59.81
26.2
2.72
-9.71
-11.98
-6.13
5.04
18.13
29.71
37.07
39.08
36.55
31.77
27.46
25.68
26.96
30.35
33.96
35.92
35.01
31.13
25.21
18.88
13.93
11.56
11.98
14.15
16.15
15.85
11.78
3.74
-7.19
-19.07
-29.87
-38.08
-43.05
-44.91
-44.34
-42.22
-39.45
-36.68
-34.18
-31.73
-28.73
-24.42
-18.28
-10.33
-1.24
7.75
15.08
19.21
19
14.09
5.04
-6.74
-19.38
-31
-39.97
-44.99
-44.96
-39.06
-27.16
-10.39
8.49
25.38
35.94
37
27.67
9.56
-13.78
-38.01
-59.14
-74.46
-82.93
-85.2
-83.15
-79.04
-74.58
-70.37
-65.87
-60.29
-53.59
-46.8
-41.48
-38.56
-37.36
-35.49
-29.81
-17.63
2.53
30.76
66.01
105.91
146.52
182.44
207.77
218.01
211.72
191.21
161.27
126.46
89.05
48.9
5.54
-38.8
-77.42
-100.28
-98.13
-67.64
-14.71
46.24
97.24
123.66
119.87
91.19
50.99
14.69
-6.59
-9.98
-0.79
10.85
14.8
4.85
-19.44
-53.71
-90.99
-124.2
-147.83
-158.16
-152.67
-129.21
-86.3
-24.72
50.41
129.01
197.8
244.19
260.62
246.89
209.7
159.68
107.7
62.24
28.54
8.79
2.7
7.9
20.11
33.88
44.13
47.61
43.73
33.97
20.46
4.65
-12.68
-30.97
-48.94
-64.45
-75.19
-79.68
-78.04
-71.91
-63.69
-55.67
-49.38
-45.25
-42.93
-41.71
-40.88
-40.02
-39.23
-39
-40.05
-43.02
-48.01
-54.48
-61.25
-66.87
-70.17
-70.65
-68.52
-64.38
-58.83
-52.18
-44.51
-35.96
-27.02
-18.66
-12.04
-8.08
-7.05
-8.44
-11.27
-14.54
-17.64
-20.49
-23.33
-26.28
-29.09
-31.04
-31.16
-28.6
-23.07
-14.96
-5.29
4.51
13.03
19.14
22.36
22.88
21.53
19.43
17.54
16.39
15.98
15.91
15.77
15.31
14.5
13.29
11.45
8.5
4.01
-2.13
-9.46
-17.02
-23.67
-28.48
-30.97
-31.18
-29.53
-26.7
-23.33
-19.99
-17.05
-14.66
-12.87
-11.6
-10.8
-10.4
-10.3
-10.34
-10.39
-10.38
-10.49
-11.11
-12.65
-15.29
-18.82
-22.56
-25.66
-27.41
-27.53
-26.3
-24.37
-22.44
-20.92
-19.82
-18.78
-17.33
-15.18
-12.27
-8.81
-5.04
-1.23
2.54
6.22
9.92
13.92
18.69
24.76
32.17
39.94
45.63
45.55
35.92
14.71
-16.73
-53.06
-86.13
-107.69
-112.18
-98.84
-71.76
-38.27
-6.39
17.37
29.19
27.9
14.47
-8.49
-36.94
-65.72
-89.33
-103.31
-105.43
-96.24
-78.28
-54.59
-26.95
4.89
42.52
87.09
137.23
188.26
232.95
263.72
275.09
265.31
236.45
193.3
141.8
87.78
36.43
-7.79
-41.3
-61.79
-69.01
-65.3
-55.26
-44.52
-37.82
-37.37
-42.33
-49.51
-55.04
-56.36
-53.36
-48.2
-44.05
-43.37
-46.72
-52.7
-58.76
-62.36
-62.02
-57.51
-49.51
-39.18
-27.63
-15.83
-4.71
4.83
12.11
16.81
19.13
19.61
18.94
17.84
16.98
16.7
17.09
18.07
19.4
20.73
21.58
21.5
20.43
18.88
17.43
16.57
16.45
17.1
18.49
20.78
24.22
29.08
35.41
42.34
48.28
51.96
53.56
55.22
60.44
69.17
80.21
91.76
101.44
106.87
106.1
98.01
82.5
60.48
35.93
9.82
-15.52
-37.33
-53.39
-62.8
-65.99
-64.45
-60.28
-54.24
-47.96
-42.34
-37.91
-34.85
-32.98
-31.8
-30.63
-28.83
-25.83
-21.78
-16.77
-11.42
-6.61
-2.76
0.87
6.07
14.57
26.66
39.89
50.16
53.06
46.1
30.22
9.4
-10.94
-25.85
-31.7
-26.36
-8.69
20.63
57.9
95.73
124.23
134.22
121.06
86.99
40.15
-9.02
-52.11
-85.36
-109.11
-125.4
-135.25
-138
-132.7
-120.2
-103.97
-89.11
-80.03
-78.16
-81.24
-84.34
-82.05
-70.23
-46.91
-12.32
31.35
79.99
127.82
168.34
195.87
207.11
201.92
182.39
151.41
111.56
65.4
16.71
-28.63
-63.6
-82.74
-85.1
-75.37
-62.17
-54.1
-55.95
-67.24
-83.59
-99.44
-110.4
-114.09
-109.72
-97.45
-78.32
-54.6
-29.8
-7.82
8.36
17.94
22.33
24.17
25.78
28
30.07
30.53
28.56
24.91
21.86
22.3
28.11
38.86
51.45
60.99
62.83
54.68
37.84
16.55
-3.93
-19.56
-29.07
-33.97
-37.19
-41.3
-47.34
-54.7
-61.84
-67.31
-70.41
-71.23
-70.22
-67.65
-63.4
-57.03
-48.08
-36.57
-23.2
-9.24
3.78
14.49
22.05
26.28
27.6
26.72
24.29
20.69
15.97
10.12
3.28
-4.06
-11.04
-16.76
-20.67
-22.88
-24.2
-25.8
-28.62
-32.9
-37.94
-42.38
-44.73
-44.05
-40.27
-34.04
-26.31
-17.81
-8.78
0.91
11.24
21.65
30.98
38.06
42.43
44.94
47.67
53.18
63.58
79.78
101.35
126.91
154.68
182.61
208.2
228.19
238.56
235.34
215.86
180.01
130.81
74.04
16.91
-33.78
-73.26
-99.91
-115.4
-123.84
-130.08
-137.92
-148.68
-161.06
-172.01
-178.39
-178.55
-173.13
-164.69
-156.4
-150.69
-148.32
-148.14
-147.59
-143.49
-132.77
-113.16
-83.96
-46.93
-6.75
29.76
55.87
67.91
67.45
61.02
57.03
61.34
73.96
89.05
98.5
97.09
86.09
73.19
68.67
79.88
107.32
144.15
179.39
202.6
207.83
195.02
168.88
136.22
103.1
73.29
48.25
28.07
12.76
2.74
-1.45
-0.04
5.24
11.21
14.29
11.99
4.05
-7.34
-18.51
-25.96
-27.92
-25.11
-20.19
-16.36
-15.86
-19.08
-24.7
-30.67
-35.34
-38.26
-40.15
-42.27
-45.51
-49.95
-54.84
-59.01
-61.48
-61.83
-60.35
-57.88
-55.36
-53.45
-52.25
-51.37
-50.18
-48.34
-45.97
-43.58
-41.72
-40.68
-40.37
-40.44
-40.42
-39.74
-37.64
-33.05
-24.77
-11.82
6.14
28.57
54.2
81.41
108.58
133.99
155.65
171.07
177.57
173.12
157.32
131.89
100.48
67.63
37.57
13.21
-4.3
-15.22
-20.55
-21.44
-19.01
-14.4
-9.01
-4.53
-2.54
-3.98
-8.67
-15.24
-21.61
-25.86
-27.11
-25.91
-24.04
-23.6
-25.97
-31.07
-37.36
-42.6
-44.93
-43.73
-39.94
-35.53
-32.55
-32.11
-33.98
-36.64
-38.2
-37.38
-34.22
-30.15
-27.39
-28.06
-33.6
-44.48
-60.2
-79.18
-98.44
-113.59
-119.62
-112.73
-92.54
-63.35
-33.45
-12.13
-5.85
-15.57
-36.59
-61.08
-81.68
-94.32
-98.93
-97.89
-93.64
-86.76
-75.69
-57.84
-31.36
3.53
44.25
86.62
126.05
158.49
180.83
190.77
186.79
168.07
135.09
90.43
39.27
-10.7
-50.41
-71.35
-67.86
-39.1
9.87
68.77
124.46
164.53
180.92
172
142.46
100.96
56.84
17.26
-13.9
-35.56
-47.93
-51.34
-45.92
-32.25
-12.23
10.5
31.35
46.19
52.81
51.61
45.25
37.21
30.16
24.95
20.63
15.34
7.68
-2.48
-13.84
-24.44
-32.66
-38.02
-41.32
-44.03
-47.52
-52.21
-57.47
-61.98
-64.47
-64.34
-61.85
-57.82
-53.07
-47.97
-42.23
-35.21
-26.39
-15.76
-4.02
7.63
17.9
25.81
30.93
33.36
33.56
32.02
29.21
25.45
21.04
16.3
11.6
7.2
3.26
-0.19
-3.09
-5.2
-6.13
-5.54
-3.36
-0.01
3.72
6.95
9.08
9.96
9.86
9.18
8.17
6.88
5.26
3.34
1.36
-0.32
-1.39
-1.78
-1.65
-1.33
-1.09
-1.1
-1.41
-2.07
-3.17
-4.85
-7.19
-10.16
-13.64
-17.52
-21.7
-26.08
-30.34
-33.92
-35.96
-35.65
-32.63
-27.29
-20.79
-14.68
-10.36
-8.61
-9.37
-11.68
-13.84
-13.39
-7.49
6.44
29.51
60.26
94.21
124.71
144.92
150.2
139.79
116.98
87.68
58.16
33.11
14.71
2.85
-3.77
-6.64
-6.94
-5.55
-3.4
-1.57
-1.14
-2.42
-4.61
-5.8
-3.91
2.02
10.74
18.7
21.34
15.29
0.34
-20.39
-41.87
-59.87
-72.91
-82.4
-91.01
-100.33
-109.56
-115.78
-115.64
-106.77
-88.3
-60.36
-23.55
20.8
69.6
117.28
156.48
180.15
184.36
169.85
141.32
105.21
67.11
30.54
-2.74
-31.51
-54.4
-70.1
-78.34
-80.64
-79.84
-78.77
-78.82
-79.39
-78.64
-74.89
-67.95
-59.23
-50.97
-44.73
-40.62
-37.44
-33.8
-29.28
-24.86
-22.33
-23.19
-27.64
-34.46
-41.72
-47.8
-52
-54.44
-55.47
-55.11
-53.25
-50.19
-47.37
-47.18
-51.77
-61.31
-72.94
-81.37
-81.31
-70.15
-49.62
-25.35
-4.61
6.42
4.96
-7.64
-26.36
-43.77
-51.5
-41.91
-10.41
42.42
109.38
177.55
231.43
257.9
250.54
211.89
152.59
88.01
33.92
2.55
-0.15
24.45
68.37
119.46
164.62
193.36
200.31
186.09
156.09
117.91
78.61
42.97
13.03
-11.17
-30.53
-46.04
-58.29
-67.53
-73.87
-77.36
-78.17
-76.76
-73.94
-70.7
-68.08
-66.61
-66.23
-66.17
-65.34
-62.81
-58.16
-51.56
-43.47
-34.31
-24.34
-13.92
-3.89
4.22
8.63
8.08
2.59
-6.24
-15.81
-23.53
-27.89
-28.93
-27.94
-26.63
-26.24
-27
-28.23
-28.87
-28.15
-26.13
-23.74
-22.56
-24.09
-29.25
-37.89
-48.9
-60.4
-70.44
-77.62
-81.49
-82.85
-83.43
-85.52
-90.97
-100.23
-111.69
-121.56
-124.58
-115.44
-90.75
-50.6
0.6
54.9
102.68
135.44
148.22
140.94
118.01
86.55
53.93
25.65
4.37
-9.86
-18.55
-23.53
-26.07
-26.75
-25.6
-22.25
-16.16
-6.78
5.91
20.92
35.6
45.94
47.89
39.34
22.09
2.28
-10.79
-7.91
16.29
60.55
116.68
171.98
213.44
231.86
224.25
193.77
147.56
94.09
41.03
-5.63
-41.55
-64.05
-72.37
-68.28
-56.12
-41.98
-31.76
-29.06
-33.97
-43.41
-52.88
-58.52
-58.83
-54.99
-49.9
-46.61
-46.74
-49.84
-53.76
-55.77
-53.99
-48.54
-41.56
-36.47
-36.54
-43.41
-56.11
-70.98
-82.48
-84.75
-73.64
-48.54
-13.29
24.18
54.13
68.31
63.34
42.62
15.8
-4.16
-5.5
17.92
64.14
123.41
181.29
223.36
239.58
226.82
188.96
134.67
74.32
17.25
-29.75
-62.83
-80.77
-84.56
-77.14
-63.07
-47.65
-35.66
-30.02
-31.04
-36.82
-44.5
-51.46
-56.32
-58.99
-60.11
-60.31
-59.73
-58.01
-54.55
-48.91
-41.03
-31.26
-20.31
-9.07
1.45
10.22
16.31
19.13
18.57
15.02
9.2
1.99
-5.88
-13.84
-21.23
-26.97
-29.37
-26.29
-15.87
2.54
27.73
56.49
84.37
106.92
120.97
125.25
120.41
108.27
91
70.6
48.78
27.01
6.64
-11.31
-26.4
-38.84
-49.23
-58.07
-65.32
-70.4
-72.57
-71.56
-67.91
-62.89
-58
-54.36
-52.23
-51.07
-49.83
-47.46
-43.45
-38.25
-33.28
-30.66
-32.44
-39.61
-51.3
-64.45
-74.29
-75.53
-64.23
-39.66
-5.45
30.68
58.66
69.28
57.65
25.47
-18.93
-62.83
-92.87
-98.84
-76.4
-28.09
37.59
108.4
171.24
215.06
233.1
223.93
191.22
142.57
87.92
37.83
1.73
-14
-7.96
15.31
45.92
71.47
81.25
70.11
40.16
-0.69
-42.37
-76.46
-98.67
-109.1
-110.34
-105.16
-94.74
-78.36
-54.57
-23.31
12.46
46.44
70.75
78.89
68.9
44.28
12.73
-17.11
-38.93
-50.16
-50.9
-41.35
-20.33
13.96
60.99
115.03
164.82
197.1
202.25
179.27
137.07
90.87
55.65
39.78
42.26
54.4
64.9
65.29
53.07
31.3
5.71
-18.81
-40.05
-58.62
-76.53
-95.39
-115.37
-135.32
-153.56
-168.67
-179.68
-185.67
-185.07
-175.28
-153.4
-117.62
-68.82
-11.35
47.4
98.85
135.69
153.57
151.67
132.16
99.07
57.9
15.94
-17.53
-32.61
-22.01
15.22
71.48
132.06
179.99
202.43
195.15
163.29
118.45
73.77
39.66
21.51
19.63
30.33
47.33
63.05
70.29
64.05
42.99
9.99
-28.82
-66.17
-95.99
-114.91
-122.67
-121.54
-115.07
-106.88
-99.62
-94.59
-91.69
-90.03
-88.65
-86.85
-84.32
-80.87
-76.24
-70.17
-62.78
-54.85
-47.81
-43.07
-41.2
-41.53
-42.56
-42.93
-42.57
-43
-46.33
-53.58
-63.1
-70.6
-70.78
-60.04
-38.68
-11.37
14.35
31.01
33.66
21.27
-3.55
-35.72
-68.99
-96.62
-112.18
-110.52
-89.4
-51.01
-2.19
46.86
85.82
107.48
109.98
96.75
74.53
50
27.07
6.06
-14.93
-37.09
-58.08
-71.27
-67.86
-41.29
8.2
71.75
134.31
180.07
198.47
187.71
154.14
108.56
62.14
23.86
0.12
-4.83
10.79
45.24
92.13
141.02
179.96
198.92
192.85
162.73
114.71
57.97
2.71
-42.14
-70.65
-81.32
-77.22
-64.78
-51.31
-42.47
-40.9
-46.53
-57.95
-73.51
-90.97
-106.95
-116.83
-116.17
-102.82
-78.57
-48.95
-21
-0.38
10.63
13.19
10.44
5.37
-0.4
-6.56
-13.21
-19.96
-25.71
-29.11
-29.3
-26.36
-21.34
-15.78
-11.27
-8.92
-8.92
-10.59
-12.67
-13.9
-13.56
-11.95
-10.45
-11
-15.31
-24.03
-36.22
-49.5
-60.88
-68.04
-70.31
-68.94
-66.46
-65.64
-68.35
-75.17
-85.2
-96.36
-105.66
-109.53
-104.5
-88.29
-61.16
-26.64
8.82
37.78
54.5
57.24
48.7
34.43
20.22
9.77
4.17
2.96
5.59
12.02
22.14
34.89
47.83
58.04
63.66
64.91
63.73
62.27
61.34
59.88
56.07
48.78
38.43
26.63
15.15
5.31
-1.44
-2.24
7.37
32.04
73.42
127.38
183.63
228.81
251.51
246.94
218.67
176.4
131.23
91.11
58.73
32.53
9.58
-11.73
-30.81
-45.8
-55.26
-59.41
-59.94
-59.05
-58.37
-58.52
-59.34
-60.33
-61.15
-61.73
-62.14
-62.51
-62.94
-63.51
-64.11
-64.43
-63.79
-61.54
-57.4
-51.83
-45.98
-41.35
-39.09
-39.48
-41.8
-44.58
-46.19
-45.49
-42.21
-37.02
-31.27
-26.51
-23.98
-24.3
-27.22
-31.83
-36.87
-41.16
-43.98
-45.16
-45.01
-44
-42.51
-40.64
-38.24
-34.99
-30.61
-24.99
-18.24
-10.68
-2.86
4.56
10.84
15.36
17.73
17.91
16.2
13.13
9.38
5.6
2.33
-0.06
-1.4
-1.75
-1.3
-0.29
1.1
2.81
4.88
7.4
10.39
13.76
17.32
20.76
23.79
26.13
27.68
28.52
28.92
29.23
29.7
30.33
30.86
30.85
30
28.32
26.2
24.19
22.77
22.07
21.85
21.62
20.91
19.42
17.17
14.32
11.12
7.7
4.11
0.37
-3.44
-7.19
-10.7
-13.85
-16.69
-19.35
-22.02
-24.79
-27.57
-30.05
-31.87
-32.72
-32.48
-31.28
-29.33
-26.83
-23.82
-20.18
-15.73
-10.36
-4.14
2.64
9.53
16
21.5
25.51
27.65
27.75
25.96
22.75
18.85
15
11.76
9.33
7.56
6.19
5.01
3.94
3.03
2.32
1.67
0.82
-0.52
-2.48
-4.91
-7.45
-9.69
-11.36
-12.46
-13.22
-14
-15.05
-16.42
-17.98
-19.46
-20.59
-21.18
-21.2
-20.68
-19.71
-18.27
-16.33
-13.84
-10.9
-7.76
-4.83
-2.53
-1.13
-0.69
-1.03
-1.91
-3.08
-4.4
-5.78
-7.14
-8.3
-9.07
-9.25
-8.72
-7.51
-5.75
-3.59
-1.12
1.6
4.51
7.39
9.94
11.79
12.66
12.49
11.51
10.09
8.59
7.23
6.06
4.99
3.96
2.94
1.96
1.01
0.03
-1.01
-2.08
-3.03
-3.59
-3.45
-2.46
-0.69
1.58
3.9
5.93
7.5
8.65
9.58
10.44
11.24
11.78
11.79
11.1
9.81
8.23
6.79
5.8
5.26
4.92
4.4
3.47
2.15
0.66
-0.75
-1.95
-3.06
-4.27
-5.72
-7.3
-8.7
-9.51
-9.47
-8.51
-6.82
-4.73
-2.53
-0.46
1.41
3.09
4.66
6.13
7.48
8.56
9.15
9.08
8.31
7.01
5.51
4.2
3.4
3.27
3.81
4.85
6.23
7.74
9.18
10.38
11.15
11.43
11.32
10.99
10.64
10.42
10.37
10.45
10.58
10.69
10.76
10.77
10.7
10.54
10.28
9.92
9.49
9.02
8.45
7.7
6.65
5.27
3.61
1.85
0.21
-1.12
-2.02
-2.47
-2.58
-2.46
-2.26
-2.11
-2.05
-2.11
-2.25
-2.41
-2.47
-2.36
-1.98
-1.28
-0.28
0.97
2.38
3.86
5.3
6.61
7.69
8.49
8.93
9.02
8.79
8.3
7.67
6.99
6.33
5.66
4.99
4.34
3.8
3.51
3.61
4.12
4.93
5.89
6.85
7.78
8.68
9.58
10.41
11.02
11.29
11.21
10.99
10.92
11.27
12.06
13.11
14.05
14.51
14.3
13.36
11.79
9.73
7.33
4.76
2.24
0.07
-1.53
-2.42
-2.75
-2.88
-3.32
-4.5
-6.62
-9.55
-12.88
-16.11
-18.82
-20.78
-21.99
-22.53
-22.52
-22.01
-21.06
-19.74
-18.2
-16.57
-14.97
-13.42
-11.9
-10.4
-8.99
-7.83
-7.05
-6.66
-6.48
-6.21
-5.61
-4.6
-3.34
-2.11
-1.16
-0.55
-0.08
0.53
1.54
3.05
4.96
7.13
9.43
11.86
14.39
17
19.48
21.57
23
23.63
23.52
22.82
21.69
20.19
18.31
16.04
13.47
10.82
8.4
6.44
5.06
4.19
3.68
3.31
2.87
2.16
0.98
-0.83
-3.32
-6.38
-9.74
-13.02
-15.91
-18.22
-19.88
-20.95
-21.52
-21.62
-21.22
-20.28
-18.78
-16.74
-14.31
-11.76
-9.44
-7.76
-7.1
-7.65
-9.35
-11.84
-14.52
-16.77
-18.08
-18.2
-17.08
-14.87
-11.66
-7.46
-2.19
4.22
11.66
19.74
27.84
35.24
41.36
45.83
48.63
49.93
49.98
48.91
46.79
43.62
39.46
34.48
28.85
22.73
16.11
8.96
1.28
-6.71
-14.52
-21.57
-27.36
-31.68
-34.58
-36.3
-37
-36.68
-35.31
-32.98
-30.1
-27.32
-25.29
-24.3
-24.05
-23.76
-22.49
-19.56
-14.85
-8.79
-2.08
4.55
10.58
15.68
19.73
22.66
24.48
25.27
25.22
24.65
23.9
23.36
23.37
24.17
25.85
28.28
30.98
33.18
33.87
32.16
27.51
20
10.33
-0.34
-10.81
-20.15
-28.02
-34.56
-40.08
-44.66
-47.99
-49.43
-48.48
-45.13
-40.03
-34.24
-28.79
-24.26
-20.58
-17.29
-13.91
-10.3
-6.75
-3.75
-1.7
-0.62
-0.16
0.23
1.06
2.57
4.71
7.16
9.55
11.62
13.3
14.71
16.03
17.33
18.58
19.61
20.21
20.24
19.64
18.41
16.62
14.43
12.03
9.63
7.38
5.23
3
0.41
-2.69
-6.16
-9.56
-12.2
-13.49
-13.13
-11.31
-8.68
-6.06
-4.17
-3.29
-3.24
-3.5
-3.53
-3.1
-2.41
-2
-2.49
-4.3
-7.45
-11.68
-16.53
-21.62
-26.7
-31.64
-36.26
-40.29
-43.32
-44.93
-44.88
-43.14
-39.82
-35.01
-28.71
-20.91
-11.97
-2.79
5.13
10.25
11.61
9.58
5.78
2.64
2.43
6.51
15.15
27.92
44.23
63.59
85.41
108.48
130.74
149.6
162.72
168.91
168.68
164.15
158.47
154.88
155.75
161.87
172.2
183.96
193.33
196.51
190.78
175.3
151.07
120.47
86.26
50.99
16.64
-15.14
-43
-65.89
-83.39
-95.97
-104.96
-112.05
-118.69
-125.6
-132.68
-139.27
-144.65
-148.47
-150.93
-152.65
-154.37
-156.54
-159.01
-161.02
-161.4
-158.87
-152.17
-140.25
-122.43
-98.81
-70.7
-40.88
-13.34
7.78
19.54
21.26
14.7
3.04
-10.62
-24.43
-38
-51.34
-63.62
-72.63
-75.59
-70.68
-58.53
-42.34
-26.67
-15.41
-10.16
-9.88
-12
-14.12
-15.43
-16.84
-20.03
-25.97
-33.98
-41.79
-46.54
-46.22
-40.55
-31.01
-19.93
-9.29
-0.01
7.93
14.81
20.47
24.44
26.65
28.2
31.38
38.74
51.76
70
91.42
113.55
134.75
154.73
173.8
191.77
207.19
217.44
219.77
212.58
196.31
173.52
148.09
123.72
102.32
82.97
62.4
36.87
4.71
-32.16
-68.65
-98.68
-117.82
-124.69
-120.35
-106.76
-85.74
-59.45
-31.76
-8.79
2.78
-0.92
-18.16
-41.12
-58.72
-61.19
-44.01
-9.5
34.53
77.66
109.86
123.67
115.55
86.63
42.83
-6.03
-48.75
-76.33
-85.46
-80.18
-70.38
-67.43
-79.15
-106.38
-142.54
-176.83
-198.79
-202.13
-185.77
-152.33
-105.43
-48.44
15.04
79.68
137.65
179.86
199
192.45
163.46
119.75
70.47
23.47
-15.9
-44.33
-59.52
-59.71
-44.67
-17.17
16.46
47.7
68.73
75.46
68.9
54.23
38.01
24.95
16.26
10.33
4.89
-0.76
-5.31
-6.84
-4.94
-1.91
-2.24
-10.24
-27.33
-50.66
-73.44
-86.97
-83.48
-58.62
-13.23
46.36
109.54
163.88
198.28
205.97
186.21
143.95
87.62
26.28
-32.69
-84.48
-126.49
-157.56
-177.47
-186.87
-187.54
-182.3
-174.55
-167.19
-161.61
-157.07
-150.78
-138.73
-117.39
-85.45
-44.92
-1.21
38.56
67.95
83.77
87.12
82.55
75.78
71.03
69.53
69.58
68.24
63.38
55.35
46.78
41.03
39.96
42.27
43.37
37.17
19.01
-11.77
-50.67
-89.19
-117.73
-128.75
-118.79
-88.58
-41.83
15.94
77.89
135.6
179.53
200.77
194.14
160.67
108.47
50.65
0.92
-30.96
-42.04
-36.06
-20.81
-4.63
6.28
9.08
4
-6.8
-20.51
-34.44
-46.53
-55.51
-60.65
-61.94
-60.05
-56.36
-52.9
-51.69
-53.94
-59.26
-65.58
-69.8
-69.02
-61.73
-48.46
-31.5
-13.92
1.59
13.47
21.47
26.21
28.57
29.21
28.43
26.27
22.74
18.02
12.49
6.65
1.04
-4.02
-8.45
-12.49
-16.56
-21.07
-26.16
-31.55
-36.67
-40.81
-43.53
-44.82
-44.97
-44.29
-42.77
-40.04
-35.64
-29.38
-21.72
-13.7
-6.58
-1.34
1.64
2.68
2.51
1.86
1.17
0.62
0.19
-0.14
-0.35
-0.44
-0.51
-0.69
-1.1
-1.68
-2.14
-2.14
-1.43
-0.13
1.35
2.38
2.46
1.41
-0.56
-2.94
-5.17
-6.78
-7.59
-7.63
-7.04
-6.08
-4.97
-3.93
-3.16
-2.87
-3.16
-4.08
-5.53
-7.29
-9.11
-10.79
-12.23
-13.45
-14.56
-15.6
-16.47
-16.91
-16.58
-15.17
-12.61
-9.1
-5.1
-1.18
2.18
4.69
6.33
7.3
7.9
8.45
9.13
9.97
10.9
11.81
12.64
13.35
13.98
14.48
14.73
14.57
13.88
12.67
11.1
9.42
7.84
6.43
5.1
3.73
2.23
0.69
-0.7
-1.74
-2.29
-2.39
-2.22
-2.03
-2.06
-2.45
-3.21
-4.22
-5.3
-6.29
-7.15
-7.91
-8.68
-9.5
-10.38
-11.19
-11.74
-11.84
-11.35
-10.19
-8.37
-5.99
-3.2
-0.21
2.73
5.4
7.6
9.2
10.16
10.54
10.46
10.14
9.74
9.39
9.17
9.07
9.09
9.2
9.43
9.75
10.11
10.34
10.24
9.62
8.32
6.31
3.62
0.43
-2.99
-6.29
-9.08
-11.03
-11.96
-11.83
-10.82
-9.2
-7.3
-5.41
-3.73
-2.38
-1.45
-0.99
-1.01
-1.44
-2.15
-2.96
-3.67
-4.05
-3.92
-3.16
-1.7
0.38
2.86
5.43
7.79
9.74
11.26
12.45
13.42
14.18
14.61
14.56
14.01
13.13
12.18
11.41
10.94
10.69
10.53
10.4
10.35
10.5
10.89
11.44
11.96
12.21
12.05
11.49
10.7
9.85
9.12
8.53
8.03
7.5
6.81
5.91
4.79
3.53
2.21
0.91
-0.34
-1.5
-2.56
-3.48
-4.24
-4.83
-5.24
-5.46
-5.45
-5.06
-4.15
-2.6
-0.47
2.05
4.62
6.87
8.58
9.68
10.27
10.56
10.79
11.12
11.62
12.24
12.91
13.48
13.86
13.94
13.71
13.19
12.5
11.75
11.07
10.48
9.96
9.41
8.75
7.95
7.08
6.23
5.48
4.88
4.37
3.87
3.29
2.61
1.85
1.05
0.22
-0.68
-1.7
-2.85
-4.01
-4.94
-5.31
-4.84
-3.39
-1.1
1.68
4.49
6.95
8.83
10.18
11.1
11.78
12.28
12.55
12.52
12.13
11.38
10.32
8.98
7.31
5.26
2.86
0.24
-2.31
-4.48
-6.07
-7.03
-7.51
-7.67
-7.65
-7.47
-7.07
-6.43
-5.6
-4.74
-4.01
-3.51
-3.21
-2.97
-2.69
-2.32
-1.92
-1.64
-1.62
-1.93
-2.5
-3.19
-3.84
-4.32
-4.57
-4.58
-4.34
-3.82
-2.96
-1.71
-0.1
1.81
3.83
5.76
7.44
8.8
9.85
10.66
11.29
11.79
12.2
12.54
12.86
13.23
13.65
14.08
14.41
14.51
14.28
13.71
12.86
11.84
10.71
9.54
8.35
7.2
6.16
5.28
4.56
3.91
3.17
2.19
0.91
-0.65
-2.3
-3.83
-5.03
-5.76
-6
-5.76
-5.13
-4.1
-2.64
-0.65
1.92
4.96
8.2
11.25
13.72
15.35
16.06
15.98
15.33
14.35
13.23
12.1
11.02
9.99
8.96
7.87
6.67
5.32
3.86
2.37
0.92
-0.45
-1.79
-3.18
-4.7
-6.35
-8.1
-9.87
-11.57
-13.17
-14.72
-16.26
-17.84
-19.45
-21.02
-22.46
-23.63
-24.39
-24.64
-24.28
-23.25
-21.51
-19.06
-15.95
-12.26
-8.12
-3.72
0.71
4.92
8.64
11.72
14.05
15.62
16.45
16.56
15.98
14.79
13.16
11.34
9.57
8.01
6.69
5.47
4.21
2.83
1.39
0.04
-1.04
-1.81
-2.35
-2.86
-3.54
-4.57
-5.99
-7.75
-9.7
-11.71
-13.61
-15.21
-16.34
-16.85
-16.7
-15.94
-14.8
-13.56
-12.5
-11.75
-11.27
-10.84
-10.15
-8.99
-7.31
-5.28
-3.19
-1.4
-0.21
0.23
-0.1
-1.07
-2.42
-3.85
-5.1
-5.93
-6.21
-5.94
-5.22
-4.2
-3.01
-1.78
-0.53
0.75
2.02
3.22
4.19
4.72
4.71
4.23
3.54
3.01
2.95
3.48
4.41
5.38
6.01
6.08
5.57
4.62
3.45
2.24
1.19
0.51
0.38
0.86
1.83
2.92
3.7
3.89
3.5
2.88
2.43
2.37
2.6
2.69
2.28
1.3
0.14
-0.57
-0.28
1.13
3.21
5.2
6.26
5.96
4.42
2.38
1
1.55
4.87
10.99
18.91
26.84
32.87
35.81
35.59
33.14
29.64
25.7
21.07
15.21
8.31
2.01
-1.09
1.1
8.69
19.5
30.23
38.53
44.29
49.33
55.68
64.08
73.69
83.54
94
106.94
124.15
144.95
165.15
178.4
179.11
165.38
139.8
107.76
74.31
41.77
9.48
-24.36
-60.04
-94.68
-122.71
-138.16
-137.65
-122.37
-98.01
-72.75
-53.96
-45.42
-46.33
-52.54
-59.36
-64.04
-66.75
-69.47
-74.04
-80.47
-86.78
-90.2
-88.8
-82.62
-73.6
-64.48
-57.37
-52.88
-50.09
-47.3
-43.08
-36.98
-29.7
-22.6
-17.06
-13.77
-12.54
-12.39
-12.08
-10.67
-7.92
-4.32
-0.79
1.8
3
2.97
2.28
1.57
1.24
1.28
1.39
1.21
0.56
-0.46
-1.6
-2.63
-3.5
-4.37
-5.47
-6.91
-8.58
-10.12
-11.17
-11.47
-11.1
-10.34
-9.62
-9.27
-9.36
-9.67
-9.83
-9.49
-8.53
-7.07
-5.43
-3.89
-2.62
-1.51
-0.37
0.99
2.57
4.16
5.38
5.86
5.39
4
2.01
-0.03
-1.51
-1.97
-1.26
0.35
2.22
3.53
3.67
2.5
0.49
-1.41
-2.1
-0.9
2.15
6.13
9.65
11.37
10.66
7.92
4.41
1.64
0.54
0.93
1.48
0.38
-3.74
-10.87
-19.42
-26.72
-30.19
-28.45
-22.06
-13.39
-5.79
-2.64
-6.18
-16.88
-33.05
-50.81
-64.5
-67.78
-55.68
-26.98
14.23
58.98
96.27
117.27
118.71
103.82
80.05
55.12
33.51
15.46
-1.42
-19.17
-37.43
-53.49
-64.05
-67.34
-63.82
-55.48
-44.49
-32.31
-19.58
-6.54
6.98
21.57
38.31
58.16
80.98
104.83
126.18
141.31
147.93
146.29
138.95
129.32
120.12
112.55
106.28
100.36
93.98
86.82
78.83
69.9
59.33
45.76
27.57
3.87
-23.94
-51.18
-70.08
-72.1
-51.84
-10.62
42.48
93.23
127.77
138.26
125.74
98.62
67.68
40.47
18.15
-3.35
-29.24
-61.32
-95.97
-125.83
-143.9
-147.46
-139.52
-126.98
-116.89
-113.1
-114.94
-118.38
-118.87
-113.87
-103.93
-91.91
-81.14
-73.63
-69.49
-67.48
-66.08
-64.46
-62.86
-62.1
-62.99
-65.7
-69.72
-74.1
-77.84
-80.2
-80.77
-79.44
-76.19
-71.21
-64.91
-58.17
-52.24
-48.6
-48.65
-53.24
-62.32
-74.49
-86.85
-95.01
-94.01
-79.87
-51.62
-12.57
30.09
67.39
91.8
99.91
93.36
77.82
60.46
47.51
42.88
47.75
61
79.64
99.35
115.06
121.75
115.39
94.2
59.56
15.99
-29.61
-69.6
-97.37
-109.27
-105.79
-91.53
-73.36
-57.46
-46.73
-39.64
-31.19
-14.85
14.66
58.99
114.22
171.52
219.45
247.13
248.12
222.35
177.16
125
78.61
45.38
26.15
16.68
11.06
5.21
-3.44
-14.96
-27.55
-38.69
-47.02
-50.81
-47.92
-37.48
-20.89
-4.26
6.19
7.76
1.72
-10.27
-26.9
-47.77
-73.09
-101.44
-131.93
-161.18
-184.27
-184.56
-154.03
-100.06
-41.31
-1.68
21.09
33.97
42.43
51.95
62.71
70.67
72.26
68.03
63.53
67.86
86.18
119.08
161.99
205.49
237.55
249.38
239.25
212.28
177.31
139.49
100.38
59.45
16.1
-28.7
-71.38
-107.31
-133.39
-149.31
-158.82
-166.05
-172.9
-179.08
-183.81
-187.03
-190.11
-195.16
-203.25
-213.85
-223.61
-227.04
-218.41
-193.7
-151.96
-95.9
-31.71
32.11
86.35
123.86
141.45
140.37
124.88
99.85
68.75
33.24
-5.42
-44.28
-77.5
-97.4
-97.43
-75.14
-33.52
20.16
77.48
131.53
177.76
213.02
234.56
240.1
229.05
204.07
171.13
137.61
109.18
87.67
71.14
56.11
40.54
25.33
13.82
9.45
13.37
23.36
34.64
41.76
40.68
29.95
10.82
-13.65
-40.02
-65.69
-89.51
-111.37
-131.05
-147.54
-158.98
-163.84
-162.5
-157.86
-154.34
-155.14
-159.45
-161.39
-151.86
-122.93
-72.6
-7.51
58.46
109.04
131.64
121.89
84.52
30.67
-26.44
-75.18
-107.58
-119.69
-111.24
-85.35
-47.98
-6.82
30.36
57.78
73.16
77.81
75.43
70.35
65.75
62.72
60.05
55.08
45.14
29.55
11.09
-4.09
-8.74
1.87
26.89
59.39
88.85
105.8
105.47
88.64
59.78
23.86
-15.54
-55.72
-93.21
-122.47
-137.12
-133.3
-112.87
-83.74
-56.85
-40.72
-36.68
-37.91
-32.85
-11.12
30.86
87.92
148.41
199.29
230.93
239.66
227.15
198.01
157.51
110.35
60.83
13.52
-26.81
-56.14
-72.56
-77.31
-74.6
-70.57
-71.36
-81.18
-101.1
-128.43
-156.85
-177.9
-183.25
-167.6
-131.26
-81.07
-28.81
12.54
33.4
30.91
9.62
-20.91
-50.12
-70.15
-77.05
-69.74
-48.12
-12.41
35.66
90.92
144.14
184.14
202.11
195.58
169.69
134.68
101.27
76.36
61.31
53.5
49.17
45.86
43.09
41.38
41.02
41.57
42.18
42.11
41.02
38.76
35.5
31.57
27.42
23.02
17.06
6.58
-12.29
-42.4
-83.28
-129.91
-173.52
-204.31
-214.58
-201.22
-166.46
-116.78
-60.74
-6.61
39.24
72.89
92.4
97.05
86.81
62.79
28.49
-9.06
-39.71
-53.2
-43.66
-13.39
26.98
62.66
81.46
79.35
61.53
38.63
20.33
10.72
7.26
3.94
-4.15
-17.66
-33.08
-45.53
-51.81
-51.7
-46.81
-38.61
-27.25
-12.11
6.4
25.38
39.56
43.29
33.53
12.48
-12.3
-30.49
-33.43
-18.44
9.66
40.78
64.51
75.25
74.42
68.51
63.92
61.87
56.6
38.6
1.13
-53.85
-114.35
-162.58
-182.58
-166.91
-118.67
-49.35
26.15
94.05
144.12
170.63
172.5
153.55
122.18
89.6
66.08
57.37
62.56
75.07
86.26
89.51
82.31
65.89
42.89
15.18
-16.81
-53.28
-93.63
-135.74
-176.09
-210.76
-236.47
-251.05
-253.6
-243.81
-221.53
-187.01
-141.21
-86.63
-27.75
29.45
78.22
112.13
126.1
117.41
86.89
39.92
-13.52
-60.21
-86.73
-83.41
-47.57
15.18
92.39
168.36
228.3
261.85
265.1
240.85
197.27
145.29
95.46
55.11
26.92
9.49
-0.73
-7.1
-11.51
-14.73
-17.33
-20.41
-25.42
-33.1
-42.76
-52.33
-59.32
-62.2
-61.1
-57.62
-53.87
-51.48
-50.91
-51.42
-51.55
-49.94
-46.08
-40.55
-34.9
-31.03
-30.33
-33.1
-38.4
-44.58
-49.95
-53.47
-54.98
-54.89
-53.83
-52.2
-50.1
-47.46
-44.26
-40.66
-36.95
-33.34
-29.89
-26.42
-22.64
-18.34
-13.41
-7.95
-2.23
3.32
8.22
11.93
14.01
14.3
12.91
10.35
7.37
4.79
3.28
3.19
4.45
6.58
8.84
10.44
10.81
9.81
7.76
5.31
3.22
2.03
1.91
2.6
3.51
4.07
3.88
2.9
1.47
0.14
-0.48
0.06
1.95
4.94
8.51
12.02
14.86
16.73
17.6
17.58
16.82
15.38
13.23
10.46
7.35
4.39
2.08
0.68
0.06
-0.25
-0.82
-2.01
-3.87
-6.12
-8.37
-10.28
-11.63
-12.37
-12.46
-11.93
-10.86
-9.39
-7.85
-6.53
-5.68
-5.34
-5.33
-5.29
-4.89
-3.87
-2.13
0.2
2.92
5.7
8.22
10.19
11.45
11.93
11.73
11.01
9.94
8.67
7.26
5.76
4.2
2.62
1.13
-0.24
-1.48
-2.63
-3.71
-4.7
-5.46
-5.86
-5.88
-5.7
-5.62
-5.99
-6.98
-8.49
-10.21
-11.71
-12.62
-12.74
-12.03
-10.48
-8.07
-4.8
-0.82
3.54
7.74
11.23
13.65
14.92
15.23
14.92
14.25
13.35
12.2
10.79
9.18
7.56
6.23
5.42
5.32
5.95
7.15
8.65
10.08
11.12
11.54
11.29
10.45
9.19
7.65
5.96
4.25
2.71
1.59
1.13
1.45
2.47
3.86
5.2
6.09
6.26
5.65
4.36
2.64
0.8
-0.82
-1.93
-2.36
-2.08
-1.24
-0.06
1.24
2.57
3.95
5.35
6.68
7.67
8.01
7.54
6.33
4.79
3.46
2.83
3.13
4.33
6.23
8.59
11.21
13.88
16.34
18.22
19.23
19.25
18.51
17.44
16.51
15.95
15.64
15.22
14.29
12.68
10.52
8.21
6.13
4.5
3.29
2.31
1.32
0.16
-1.16
-2.52
-3.77
-4.78
-5.45
-5.71
-5.5
-4.83
-3.74
-2.4
-1.07
-0.02
0.47
0.27
-0.62
-2.05
-3.76
-5.39
-6.63
-7.22
-7.06
-6.18
-4.75
-2.98
-1.05
0.91
2.81
4.54
5.91
6.74
6.88
6.32
5.22
3.84
2.5
1.47
0.87
0.71
0.9
1.31
1.83
2.33
2.76
3.05
3.15
2.99
2.49
1.56
0.2
-1.51
-3.34
-4.97
-6.03
-6.27
-5.63
-4.21
-2.28
-0.14
1.99
3.93
5.62
6.97
7.82
8.05
7.56
6.38
4.74
2.97
1.38
0.21
-0.5
-0.8
-0.82
-0.63
-0.29
0.15
0.55
0.77
0.66
0.18
-0.58
-1.42
-2.14
-2.66
-2.99
-3.25
-3.57
-3.99
-4.45
-4.84
-5.04
-5.04
-4.94
-4.87
-4.94
-5.12
-5.3
-5.32
-5.07
-4.62
-4.11
-3.74
-3.61
-3.7
-3.87
-4.01
-4.03
-3.94
-3.81
-3.78
-3.95
-4.41
-5.11
-5.9
-6.49
-6.61
-6.06
-4.86
-3.21
-1.39
0.32
1.82
3.12
4.34
5.57
6.87
8.19
9.46
10.53
11.24
11.45
11.07
10.11
8.7
7.03
5.31
3.69
2.23
0.96
-0.16
-1.18
-2.17
-3.21
-4.32
-5.37
-6.11
-6.26
-5.57
-4
-1.71
0.96
3.7
6.29
8.59
10.48
11.79
12.3
11.87
10.57
8.74
6.89
5.48
4.76
4.66
4.93
5.3
5.68
6.14
6.83
7.82
8.98
10.09
10.9
11.26
11.15
10.6
9.64
8.24
6.4
4.18
1.77
-0.58
-2.64
-4.26
-5.41
-6.16
-6.6
-6.75
-6.57
-5.93
-4.7
-2.78
-0.25
2.6
5.33
7.42
8.49
8.35
7.09
5.01
2.51
0.01
-2.1
-3.52
-4.01
-3.52
-2.19
-0.41
1.31
2.48
2.84
2.4
1.44
0.3
-0.75
-1.63
-2.43
-3.31
-4.3
-5.28
-5.97
-6.06
-5.3
-3.68
-1.38
1.25
3.78
5.78
6.92
7.03
6.12
4.33
1.97
-0.55
-2.77
-4.33
-4.97
-4.63
-3.44
-1.67
0.34
2.27
3.85
4.93
5.45
5.45
5.07
4.47
3.81
3.19
2.66
2.18
1.72
1.25
0.77
0.31
-0.03
-0.25
-0.32
-0.28
-0.18
-0.07
-0
-0.06
-0.3
-0.78
-1.51
-2.39
-3.24
-3.88
-4.18
-4.15
-3.93
-3.75
-3.8
-4.23
-5.02
-6.04
-7.01
-7.66
-7.74
-7.15
-5.99
-4.51
-3.07
-1.95
-1.34
-1.21
-1.45
-1.91
-2.48
-3.14
-3.87
-4.63
-5.35
-5.91
-6.15
-5.96
-5.24
-3.99
-2.29
-0.3
1.74
3.58
5
5.84
6.05
5.71
5.02
4.31
3.9
4.1
5
6.41
7.89
8.83
8.69
7.21
4.44
0.78
-3.22
-6.98
-10.02
-12.11
-13.2
-13.4
-12.91
-11.92
-10.61
-9.12
-7.55
-6
-4.56
-3.27
-2.14
-1.09
0.02
1.28
2.65
3.97
4.97
5.48
5.48
5.21
5
5.15
5.73
6.55
7.29
7.65
7.52
7.06
6.49
6.06
5.85
5.75
5.57
5.12
4.33
3.25
2.01
0.78
-0.33
-1.29
-2.16
-3.05
-4.03
-5.1
-6.11
-6.85
-7.08
-6.65
-5.55
-3.95
-2.08
-0.19
1.52
2.97
4.13
4.95
5.42
5.52
5.26
4.75
4.12
3.57
3.23
3.15
3.31
3.62
4.02
4.44
4.82
5.09
5.16
4.93
4.37
3.52
2.54
1.68
1.12
0.98
1.17
1.47
1.59
1.29
0.43
-0.97
-2.8
-4.89
-7.06
-9.11
-10.85
-12.07
-12.61
-12.37
-11.36
-9.68
-7.55
-5.15
-2.66
-0.19
2.16
4.36
6.32
7.94
9.1
9.69
9.6
8.82
7.44
5.65
3.77
2.09
0.86
0.14
-0.2
-0.39
-0.62
-0.94
-1.25
-1.31
-0.96
-0.25
0.54
1.03
0.91
0.09
-1.26
-2.85
-4.39
-5.81
-7.26
-9.05
-11.44
-14.51
-18.01
-21.42
-24.15
-25.68
-25.74
-24.38
-21.91
-18.86
-15.87
-13.56
-12.41
-12.46
-13.09
-12.86
-9.78
-1.99
11.38
29.6
50.31
70.11
85.74
95.09
97.8
95.11
89.37
83.19
78.97
78.58
83.03
92.34
105.28
119.51
132.03
139.76
140.22
131.65
112.84
82.92
41.62
-9.88
-67.98
-126.51
-177.81
-215.24
-235.53
-239.74
-232.15
-218
-201.34
-184.58
-169.22
-156.89
-149.4
-147.3
-148.12
-146.01
-133.7
-106.27
-64.57
-15.57
30.51
65.19
85.7
95.4
100.3
104.21
105.71
99.38
80.72
51.57
22.03
6.59
16.6
53.08
104.98
154.31
184.85
189.49
171.65
140.95
106.72
73.85
43.55
16.87
-2.68
-10.19
-3.13
15.3
36.76
52
56.16
51.3
44.12
40.51
40.88
39.53
28.62
4.15
-30.03
-62.9
-81.44
-77.06
-49.85
-8.3
35.09
69.52
89.72
96.36
93.01
82.57
65.74
42.54
15.19
-10.27
-25.76
-25.64
-10.73
11.13
28.58
32.64
21.19
-0.62
-23.78
-40.03
-44.76
-37.02
-17.68
11.72
48.55
87.6
120.51
137.61
131.83
102.6
57.14
8.21
-30.86
-51.32
-52.04
-39.02
-21.96
-10.05
-8.82
-19.34
-39.83
-67.69
-100.75
-136.8
-172.31
-201.52
-217.86
-216.73
-198.57
-169.72
-140.12
-119.1
-111.35
-115.65
-126.36
-136.45
-140.04
-133.4
-114.5
-82.78
-39.53
11.35
63.12
107.47
137.07
148.25
142.21
124.09
100.42
76.56
55.52
38.44
26.25
21.21
26.94
46.94
82.18
129
178.4
218.38
237.71
229.98
195.8
142.28
80.36
21.27
-26.31
-57.76
-71.78
-69.69
-54.76
-32.16
-8.97
6.65
7.01
-12.88
-53.76
-110.21
-170.91
-220.99
-246.43
-238.76
-198.16
-133.85
-61.35
1.43
41.31
53.55
41.32
12.22
-25.35
-63.89
-97.1
-119.94
-131.62
-132.29
-122.45
-104
-81.63
-61.85
-50.28
-49.47
-58.36
-76.88
-100.79
-121.26
-128.55
-118.2
-93.56
-64.06
-41.21
-34.72
-55.34
-105.97
-179.5
-262.4
-341.52
-406.93
-452.03
-472.74
-431.83
-318.53
-160.37
-5.06
114.64
192.37
238.54
267.3
291.23
314.5
329.81
329.86
313.79
287.41
255.29
222.99
195.35
175.72
165.17
158.65
152.05
145.34
141.18
140.41
140.65
137.52
127.89
112.1
92.03
72.81
60.88
60.01
67.69
76.12
75.97
61.27
31.71
-9.05
-54.58
-98.45
-136.8
-169.34
-197.73
-223.18
-244.69
-259.2
-263.57
-255.64
-234.98
-202.86
-161.71
-114.12
-62.39
-8.5
45.6
97.84
146.23
189.24
226
256.1
279.12
293.98
298.79
291.43
270.68
237.25
194
145.17
94.78
45.12
-3.6
-52.28
-100.98
-147.47
-186.84
-212.7
-219.25
-203.67
-167.69
-117.64
-63.01
-13.85
21.66
39.15
38.73
24.72
4.51
-12.96
-19.01
-7.02
25.87
77.53
140.93
205.35
259.01
292.34
300.61
284.95
251.19
206.75
157.34
105.05
48.85
-12.45
-76.38
-134.64
-174.61
-184.44
-159.44
-106.11
-41.46
13.02
39.52
30.65
-8.79
-65.18
-122.25
-166.87
-191.65
-194.86
-178.48
-146.64
-104.88
-59.68
-17.17
18.67
47.46
72.07
96.21
121.28
144.41
159.04
157.76
136.38
96.76
47.03
-1.23
-37.45
-56.11
-58.46
-50.84
-40.94
-33.48
-28.21
-20.8
-6.21
17.24
45.77
71.21
84.73
80.76
59.04
24.08
-17.18
-57.55
-90.5
-109.96
-110.52
-88.72
-45.4
12.69
73.25
121.51
145.14
138.24
103.29
49.57
-10.5
-65.44
-107.26
-131.87
-137.88
-124.93
-93.13
-43.76
19.19
88.23
153.07
203.09
230.43
232.08
210.27
170.61
119.86
64.37
9.81
-38.59
-76.24
-100.11
-110.02
-108.99
-102.24
-94.91
-90.2
-88.67
-89.25
-90.85
-93.1
-96.23
-100.03
-103.15
-103.47
-99.32
-90.6
-79.07
-67.46
-58.5
-54.2
-55.68
-63.43
-77.45
-97.09
-120.89
-146.89
-173.28
-199.02
-223.82
-247.26
-267.55
-281.14
-283.38
-270.5
-241.7
-199.79
-150.21
-98.81
-49.76
-5.08
34.41
67.74
93.43
110.57
120.8
129.33
143.43
168.7
205.23
246.25
280.47
297.22
291.7
267.32
234.01
203.43
183.92
177.34
179.63
183.74
183.06
173.81
155.37
128.68
94.53
53.05
4.54
-48.57
-100.37
-141.94
-163.74
-158.89
-125.76
-68.6
4.02
81.62
154.15
213.38
253.51
271.34
266.33
240.27
196.66
139.81
74.4
5.47
-61.14
-118.98
-162.15
-187.5
-196.06
-192.86
-184.86
-177.86
-174.26
-172.67
-169.66
-162.08
-149.14
-132.72
-116.13
-102.27
-92.26
-85.16
-78.91
-71.75
-63.27
-54.7
-47.97
-44.41
-43.71
-43.82
-41.93
-35.93
-25.64
-13.2
-2.27
3.52
2.23
-5.51
-16.68
-27.23
-33.87
-35.5
-33.59
-31.22
-31.37
-35.37
-42.27
-49.37
-53.69
-53.49
-49.05
-42.43
-36.44
-33.49
-34.8
-40.39
-49.21
-59.29
-67.52
-69.72
-61.55
-40.44
-7.77
30.17
63.26
81.25
78.26
55.77
22.87
-6.92
-20.47
-9.71
25.49
77.15
131.57
173.39
190.64
178.68
141.6
90.43
39.06
-0.7
-22.52
-26.18
-15.81
2.67
23.44
41.4
51.93
51.35
38.31
15.57
-10.21
-30.77
-39.9
-36.07
-22.54
-4.39
15.36
37.5
65.45
101.12
141.41
177.62
198.81
197.24
172.42
130.73
81.36
31.4
-16.88
-64.78
-113.35
-160.57
-201.11
-229
-240.94
-238.23
-225.62
-208.74
-191.72
-176.36
-162.88
-150.74
-139.22
-127.07
-112.27
-91.99
-63.27
-23.98
25.98
83.7
142.85
194.08
226.99
233.37
210.9
165.42
110.21
61.72
33.53
31.41
51.63
83.37
113.81
133.21
137.68
129.09
112.77
94.47
78.24
65.65
56.22
48.52
41.01
32.56
22.56
11.22
-0.51
-11.26
-19.6
-24.6
-25.98
-24.15
-20.22
-15.87
-13.24
-14.51
-21.19
-33.32
-49.06
-65.05
-77.74
-84.75
-85.87
-82.84
-78.2
-73.9
-70.34
-66.6
-61.27
-53.44
-43.21
-31.42
-19.19
-7.44
3.23
12.47
19.98
25.55
29.3
31.7
33.5
35.35
37.44
39.19
39.47
37
31.01
21.68
10.15
-1.81
-12.45
-20.45
-25.24
-26.81
-25.59
-22.2
-17.39
-12.08
-7.27
-3.79
-2.08
-2
-2.89
-3.92
-4.37
-3.88
-2.43
-0.23
2.42
5.12
7.44
8.95
9.35
8.59
6.94
4.9
3.13
2.23
2.7
4.79
8.46
13.34
18.66
23.37
26.44
27.15
25.36
21.59
16.83
12.17
8.44
6.02
4.75
4.23
4.02
3.85
3.66
3.46
3.26
2.99
2.62
2.19
1.96
2.24
3.17
4.63
6.21
7.41
7.93
7.82
7.35
6.91
6.7
6.64
6.37
5.42
3.39
0.26
-3.6
-7.35
-9.98
-10.7
-9.3
-6.28
-2.71
0.24
1.69
1.38
-0.39
-2.98
-5.69
-7.93
-9.32
-9.71
-9.29
-8.56
-8.21
-8.87
-10.71
-13.24
-15.5
-16.45
-15.53
-12.92
-9.42
-6.06
-3.63
-2.44
-2.37
-3.05
-4.14
-5.3
-6.17
-6.33
-5.37
-3.12
0.17
3.85
7.07
9.13
9.8
9.28
8.02
6.45
4.76
2.87
0.65
-1.91
-4.6
-7.04
-8.92
-10.11
-10.72
-10.95
-10.95
-10.79
-10.43
-9.88
-9.23
-8.6
-8.03
-7.42
-6.45
-4.83
-2.37
0.79
4.22
7.36
9.73
11.06
11.38
10.85
9.68
8.04
6.11
4.11
2.38
1.34
1.37
2.64
4.99
7.92
10.69
12.51
12.73
10.96
7.19
1.76
-4.73
-11.5
-17.86
-23.33
-27.65
-30.87
-33.31
-35.47
-37.97
-41.38
-45.84
-50.7
-54.29
-54.25
-48.34
-35.51
-16.63
5.63
27.7
46.45
60.15
68.46
71.78
70.36
63.92
52.22
35.91
17.27
-0.15
-12.71
-18.25
-16.9
-10.9
-3.4
2.82
6.09
5.9
2.58
-2.97
-9.09
-13.06
-11.38
-0.61
21.03
52.36
88.97
124.34
151.74
166.24
165.85
151.53
126.49
94.96
61.14
28.36
-1.24
-26.68
-47.68
-64.24
-76.31
-83.96
-87.69
-88.85
-89.63
-92.2
-97.81
-105.93
-114.23
-119.52
-119.04
-111.52
-97.45
-78.66
-57.47
-35.99
-15.83
1.87
16.44
27.58
35.42
40.54
43.74
45.72
46.83
47.07
46.39
45.05
43.82
43.82
46
50.67
57.21
64.37
70.64
74.86
76.57
76.16
74.75
73.95
75.21
79.16
84.9
89.93
90.91
85.3
72.91
56.61
41.37
32.16
31.82
40.11
54.31
70.74
86.23
98.47
105.56
105.42
96.07
76.74
49.27
18.41
-9.69
-30.25
-42.31
-49.03
-55.85
-67.22
-84.06
-103.43
-120.1
-129.26
-128.4
-117.68
-98.9
-74.3
-46.05
-16.52
11.16
33.18
46.03
47.89
39.54
24.26
6.64
-8.97
-19.6
-24.21
-23.58
-19.71
-14.85
-10.74
-8.12
-6.73
-5.85
-4.84
-3.61
-2.45
-1.66
-1.1
-0.16
1.82
5.17
9.56
14.02
17.31
18.39
16.77
12.56
6.31
-1.28
-9.59
-18.24
-26.97
-35.46
-43.13
-49.18
-52.79
-53.51
-51.54
-47.73
-43.25
-39.15
-36.04
-33.95
-32.56
-31.46
-30.36
-29.21
-28.05
-26.98
-26.04
-25.21
-24.44
-23.67
-22.8
-21.71
-20.26
-18.36
-16.01
-13.4
-10.86
-8.78
-7.53
-7.28
-8
-9.41
-11.14
-12.84
-14.23
-15.17
-15.54
-15.28
-14.36
-12.86
-11.03
-9.33
-8.2
-7.95
-8.6
-9.87
-11.24
-12.18
-12.36
-11.65
-10.22
-8.33
-6.3
-4.37
-2.6
-0.9
0.92
3.08
5.67
8.53
11.31
13.49
14.68
14.76
14.01
13.04
12.51
12.87
14.04
15.46
16.28
15.76
13.64
10.26
6.44
3.09
0.79
-0.53
-1.59
-3.4
-6.66
-11.25
-16.11
-19.57
-20.14
-17.42
-12.51
-7.75
-5.84
-8.43
-15.2
-23.73
-30.47
-32.29
-28.07
-19.33
-9.48
-2.49
-1.07
-5.67
-14.46
-24.05
-30.32
-29.06
-16.75
8.51
45.37
88.01
126.59
149.93
150.02
126.06
85.61
41.75
7.37
-10.65
-14.02
-11.2
-12.21
-23.06
-43.04
-65.85
-83.62
-91.16
-88.18
-78.45
-67.08
-57.62
-50.51
-43.78
-35.03
-23.44
-10.69
-0.33
4.21
1.59
-6.61
-16.37
-22.96
-23.04
-15.98
-3.91
9.4
20.35
27
29.53
29.71
29.58
30.33
31.75
32.58
31.44
27.69
21.89
15.5
10.18
7.1
6.48
7.65
9.44
10.75
10.85
9.61
7.38
4.84
2.68
1.44
1.34
2.2
3.53
4.7
5.11
4.41
2.56
-0.17
-3.39
-6.67
-9.7
-12.29
-14.38
-15.97
-17.05
-17.61
-17.52
-16.64
-14.79
-11.9
-8.07
-3.68
0.69
4.4
6.97
8.26
8.43
7.89
7.05
6.23
5.6
5.19
5.01
5
5.1
5.16
4.95
4.21
2.76
0.57
-2.23
-5.42
-8.71
-11.82
-14.5
-16.54
-17.8
-18.28
-18.13
-17.65
-17.16
-16.85
-16.74
-16.66
-16.32
-15.54
-14.22
-12.48
-10.45
-8.29
-6.08
-3.92
-1.92
-0.27
0.86
1.34
1.19
0.56
-0.32
-1.23
-2
-2.51
-2.74
-2.71
-2.47
-2.17
-2.01
-2.26
-3.18
-4.91
-7.36
-10.2
-12.92
-15.07
-16.44
-17.29
-18.32
-20.42
-24.28
-30.01
-36.96
-43.9
-49.45
-52.59
-53.07
-51.53
-49.26
-47.74
-47.97
-49.91
-52.13
-51.9
-45.77
-30.66
-5.16
29.44
68.88
106.91
137.1
154.95
159.38
152.84
140.23
126.79
116.28
109.95
106.7
104.16
100.08
93.31
84.19
74.35
66.12
61.82
63.05
69.94
80.56
90.94
96.15
92.22
78.14
57.15
36.21
23.85
27.23
49.52
88.77
138.41
189.15
231.49
257.89
264.22
250.18
218.73
174.89
124.37
72.41
23.11
-20.75
-57.57
-86.85
-109.11
-125.77
-138.63
-149.28
-158.48
-165.95
-170.68
-171.54
-167.91
-160.04
-148.83
-135.6
-121.65
-108.1
-95.8
-85.32
-77.01
-71.05
-67.47
-66.15
-66.84
-69.07
-72.21
-75.53
-78.3
-79.83
-79.55
-77.18
-72.8
-67.04
-60.88
-55.41
-51.49
-49.38
-48.74
-48.69
-48.26
-46.66
-43.61
-39.21
-33.92
-28.27
-22.75
-17.79
-13.75
-10.91
-9.41
-9.08
-9.52
-10.11
-10.32
-9.85
-8.71
-7.11
-5.29
-3.38
-1.43
0.48
2.19
3.44
4.05
4.03
3.65
3.33
3.42
4.03
5.03
6.13
7.07
7.71
8.08
8.29
8.47
8.73
9.04
9.28
9.31
8.93
8.06
6.74
5.15
3.54
2.16
1.09
0.37
0.01
0.13
0.92
2.47
4.58
6.71
8.07
8.06
6.49
3.81
0.85
-1.57
-2.95
-3.27
-2.86
-2.07
-1.07
0.18
1.75
3.52
5.14
6.18
6.3
5.46
3.94
2.23
0.84
0.07
-0.02
0.41
1.11
1.87
2.52
3.04
3.44
3.8
4.15
4.52
4.85
5.05
5.04
4.74
4.22
3.64
3.26
3.35
4.12
5.67
7.99
10.97
14.36
17.83
20.9
23.06
23.95
23.47
21.97
20.09
18.58
18
18.54
19.94
21.69
23.26
24.32
24.87
25.16
25.67
26.9
29.25
32.81
37.14
41.14
43.11
41.22
34.12
21.57
4.72
-14.27
-32.95
-49.36
-62.57
-72.58
-79.89
-84.9
-87.69
-88.12
-86.23
-82.49
-77.81
-73.13
-69.02
-65.4
-61.59
-56.75
-50.4
-42.85
-35.22
-29.08
-25.86
-26.2
-29.67
-34.8
-39.7
-42.75
-43.21
-41.5
-38.88
-36.92
-36.73
-38.38
-40.55
-40.72
-35.64
-22.02
2.6
38.95
85.22
136.86
186.94
227.6
251.87
255.74
239.39
207.13
166.24
124.87
90.13
66.93
57.54
61.77
77.38
100.37
125.4
146.47
158.04
156.4
140.61
112.84
78.16
43.66
17.07
4.84
10.12
31.25
61.92
93.19
116.72
127.76
126
114.36
96.27
73.51
45.8
12.43
-25.77
-65.36
-101.17
-128.51
-145.09
-151.58
-150.63
-145.23
-137.49
-128.59
-119.26
-110.38
-103.22
-98.91
-97.86
-99.51
-102.39
-104.79
-105.44
-103.91
-100.43
-95.7
-90.28
-84.36
-77.78
-70.19
-61.4
-51.48
-40.97
-30.7
-21.66
-14.73
-10.38
-8.49
-8.4
-9.17
-9.92
-10.06
-9.37
-7.93
-5.89
-3.41
-0.64
2.21
4.82
6.88
8.2
8.86
9.16
9.48
10.07
10.89
11.7
12.11
11.82
10.74
9.03
6.99
4.92
3.02
1.41
0.08
-0.97
-1.75
-2.28
-2.62
-2.9
-3.2
-3.59
-4.07
-4.58
-5.09
-5.64
-6.35
-7.32
-8.57
-9.98
-11.37
-12.55
-13.42
-14
-14.38
-14.62
-14.76
-14.76
-14.59
-14.24
-13.79
-13.32
-12.89
-12.51
-12.16
-11.75
-11.22
-10.49
-9.5
-8.23
-6.7
-4.94
-2.97
-0.83
1.44
3.78
6.05
8.08
9.71
10.86
11.53
11.82
11.88
11.82
11.74
11.73
11.85
12.1
12.44
12.76
13
13.15
13.34
13.71
14.33
15.13
15.9
16.39
16.53
16.48
16.57
17.19
18.52
20.47
22.7
24.75
26.3
27.22
27.64
27.78
27.85
28.09
28.85
30.61
33.89
39
45.72
53.12
59.77
64.11
64.9
61.65
54.72
45.17
34.42
23.91
14.71
7.4
2.11
-1.26
-3.03
-3.78
-4.53
-6.7
-11.73
-20.38
-32.05
-44.69
-55.54
-62.42
-64.88
-64.28
-62.96
-62.78
-64.16
-66.21
-67.72
-68.35
-68.86
-70.62
-74.4
-79.69
-84.74
-87.45
-86.35
-81.15
-72.69
-62.41
-51.74
-41.81
-33.34
-26.63
-21.53
-17.46
-13.64
-9.38
-4.43
0.96
6.16
10.52
13.68
15.58
16.45
16.61
16.36
15.92
15.41
14.9
14.42
14
13.68
13.52
13.6
13.93
14.41
14.93
15.38
15.91
16.82
18.4
20.7
23.38
25.73
26.93
26.47
24.26
20.74
16.59
12.5
8.96
6.18
4.19
2.9
2.18
1.82
1.58
1.21
0.55
-0.37
-1.43
-2.36
-2.99
-3.26
-3.28
-3.25
-3.37
-3.77
-4.5
-5.58
-6.97
-8.56
-10.07
-11.05
-11
-9.61
-6.92
-3.38
0.38
3.78
6.52
8.65
10.38
11.92
13.26
14.25
14.72
14.66
14.2
13.62
13.12
12.73
12.32
11.7
10.77
9.61
8.43
7.54
7.09
7.05
7.19
7.24
6.98
6.45
5.79
5.23
4.86
4.61
4.28
3.64
2.58
1.19
-0.27
-1.44
-1.97
-1.59
-0.2
2.06
4.89
7.82
10.43
12.39
13.61
14.2
14.43
14.54
14.66
14.73
14.44
13.31
10.84
6.75
1.18
-5.15
-11.21
-15.98
-18.82
-19.58
-18.6
-16.45
-13.73
-10.89
-8.12
-5.62
-3.67
-2.57
-2.49
-3.3
-4.65
-6.14
-7.43
-8.13
-8.11
-7.46
-6.25
-4.4
-1.69
1.88
5.93
9.74
12.9
14.96
15.54
14.78
13.56
13.23
14.75
17.92
21.29
23.72
23.69
19.74
11.43
0.03
-11.64
-20.06
-21.93
-14.76
4.09
33.92
69.55
103.32
128.42
141.69
144.11
139.65
133.46
132.12
138.77
151.37
165.1
175.2
178.79
174.72
163.49
135.35
91.48
42.91
1.74
-27.5
-48.76
-68.38
-90.66
-115.96
-142.7
-164.28
-174.43
-170.78
-153.27
-122.76
-80.58
-28.31
26.85
71.32
95.22
102.26
96.52
80.74
54.43
20.61
-16.75
-53.97
-87.7
-113.64
-129.17
-135.28
-133.83
-126.38
-113.56
-97.06
-80.19
-66.75
-58.53
-55.35
-56.2
-58.44
-58.86
-54.79
-45.84
-33.64
-20.19
-6.21
8.42
23.13
36.71
47.33
53.26
53.25
47.28
36.97
25.07
14.16
5.3
-1.79
-8.11
-14.3
-20.34
-25.38
-28.15
-27.7
-24.09
-18.71
-13.79
-11.65
-13.95
-21.3
-33.12
-47.78
-63.09
-76.78
-86.96
-92.39
-92.41
-86.84
-75.9
-60.21
-41.08
-20.63
-1.61
13.21
21.85
23.77
20.08
13.15
5.76
0.24
-2.16
-1.34
1.96
6.6
11.5
15.88
19.27
21.41
22.16
21.44
19.38
16.33
13
10.25
8.83
9.07
10.73
13.07
15.24
16.62
17.08
16.97
16.79
16.97
17.56
18.29
18.73
18.52
17.53
15.81
13.6
11.28
9.33
8.28
8.55
10.2
12.84
15.58
17.28
16.96
14.16
9.1
2.58
-4.36
-10.72
-15.89
-19.62
-21.98
-23.2
-23.55
-23.25
-22.45
-21.24
-19.6
-17.43
-14.56
-10.9
-6.51
-1.78
2.71
6.3
8.51
9.22
8.72
7.59
6.45
5.76
5.74
6.29
7.16
8.01
8.49
8.35
7.51
6.06
4.27
2.52
1.14
0.35
0.16
0.41
0.83
1.19
1.37
1.35
1.27
1.29
1.57
2.2
3.2
4.56
6.28
8.38
10.91
13.85
17.08
20.35
23.37
25.81
27.43
28.07
27.67
26.3
24.1
21.3
18.22
15.16
12.33
9.78
7.45
5.22
3.08
1.14
-0.4
-1.38
-1.76
-1.7
-1.47
-1.36
-1.54
-2.09
-2.99
-4.21
-5.66
-7.28
-8.92
-10.44
-11.77
-12.92
-13.93
-14.84
-15.57
-15.9
-15.61
-14.53
-12.68
-10.22
-7.36
-4.31
-1.16
1.96
4.9
7.3
8.79
9.06
8.01
5.84
3.03
0.15
-2.28
-3.91
-4.66
-4.68
-4.27
-3.83
-3.6
-3.68
-4
-4.38
-4.66
-4.85
-5.05
-5.4
-5.96
-6.61
-7.13
-7.31
-7.1
-6.65
-6.23
-6.09
-6.3
-6.68
-6.91
-6.61
-5.56
-3.75
-1.39
1.17
3.6
5.63
7.16
8.18
8.73
8.82
8.47
7.66
6.49
5.12
3.78
2.69
1.99
1.67
1.67
1.85
2.08
2.27
2.37
2.34
2.19
1.94
1.62
1.29
1.03
0.86
0.82
0.89
1.07
1.35
1.68
2.03
2.32
2.48
2.45
2.21
1.79
1.25
0.72
0.28
-0.01
-0.22
-0.49
-1
-1.86
-3.12
-4.67
-6.33
-7.9
-9.17
-9.98
-10.23
-9.88
-8.96
-7.6
-5.99
-4.36
-2.97
-1.94
-1.35
-1.15
-1.26
-1.62
-2.21
-3.01
-3.98
-5
-5.86
-6.34
-6.25
-5.59
-4.48
-3.23
-2.12
-1.34
-0.92
-0.72
-0.48
0.02
0.9
2.13
3.53
4.89
6.03
6.85
7.34
7.5
7.35
6.92
6.27
5.49
4.71
4.05
3.57
3.28
3.09
2.96
2.86
2.79
2.79
2.84
2.85
2.73
2.37
1.76
0.95
0.07
-0.8
-1.61
-2.39
-3.17
-3.94
-4.6
-5.03
-5.14
-4.9
-4.35
-3.58
-2.66
-1.59
-0.41
0.9
2.32
3.8
5.23
6.48
7.37
7.69
7.3
6.22
4.63
2.88
1.36
0.33
-0.1
-0.02
0.38
0.88
1.31
1.54
1.49
1.09
0.34
-0.7
-1.91
-3.12
-4.19
-5.01
-5.53
-5.76
-5.76
-5.58
-5.27
-4.89
-4.42
-3.84
-3.12
-2.24
-1.23
-0.11
1.05
2.24
3.43
4.57
5.6
6.4
6.89
7
6.78
6.3
5.67
5
4.4
3.93
3.58
3.3
2.98
2.57
2.09
1.62
1.2
0.82
0.33
-0.43
-1.53
-2.88
-4.22
-5.24
-5.76
-5.8
-5.57
-5.33
-5.27
-5.49
-5.95
-6.54
-7.1
-7.4
-7.28
-6.59
-5.3
-3.54
-1.5
0.59
2.54
4.24
5.61
6.61
7.2
7.36
7.07
6.43
5.57
4.69
3.96
3.55
3.52
3.86
4.45
5.12
5.65
5.91
5.87
5.59
5.19
4.71
4.12
3.35
2.36
1.25
0.21
-0.55
-0.93
-0.99
-0.94
-0.99
-1.21
-1.52
-1.69
-1.52
-0.86
0.24
1.65
3.21
4.78
6.29
7.69
8.95
10.01
10.75
11.06
10.91
10.34
9.51
8.65
7.98
7.64
7.67
7.98
8.44
8.86
9.11
9.04
8.59
7.77
6.63
5.29
3.87
2.48
1.22
0.14
-0.78
-1.59
-2.38
-3.18
-3.96
-4.63
-5.02
-4.99
-4.5
-3.57
-2.31
-0.83
0.76
2.41
4.02
5.5
6.72
7.57
7.97
7.91
7.49
6.87
6.22
5.66
5.27
5.04
4.92
4.82
4.71
4.56
4.36
4.07
3.66
3.03
2.15
1.06
-0.14
-1.28
-2.19
-2.73
-2.89
-2.77
-2.53
-2.32
-2.23
-2.3
-2.52
-2.88
-3.38
-4
-4.62
-5.1
-5.23
-4.9
-4.11
-2.96
-1.63
-0.28
0.97
2.04
2.84
3.25
3.22
2.74
1.97
1.14
0.48
0.15
0.18
0.5
0.98
1.46
1.83
2.01
1.96
1.68
1.19
0.55
-0.15
-0.82
-1.38
-1.78
-2.01
-2.11
-2.14
-2.15
-2.16
-2.22
-2.35
-2.58
-2.99
-3.56
-4.24
-4.91
-5.41
-5.63
-5.55
-5.22
-4.77
-4.32
-3.92
-3.55
-3.16
-2.66
-2.06
-1.34
-0.5
0.42
1.37
2.25
2.96
3.39
3.53
3.47
3.35
3.29
3.36
3.5
3.62
3.61
3.44
3.15
2.86
2.65
2.55
2.5
2.44
2.3
2.06
1.73
1.28
0.68
-0.1
-1.02
-2
-2.93
-3.75
-4.47
-5.18
-6
-6.94
-7.92
-8.76
-9.32
-9.52
-9.36
-8.86
-8.01
-6.76
-5.08
-3.08
-0.96
0.98
2.5
3.49
3.97
4.11
4.06
3.96
3.87
3.8
3.79
3.88
4.12
4.5
4.98
5.46
5.84
6
5.9
5.53
4.92
4.13
3.23
2.33
1.51
0.83
0.27
-0.19
-0.59
-0.91
-1.05
-0.82
-0.07
1.24
2.93
4.66
6.02
6.71
6.81
6.74
7.21
8.92
12.27
17.23
23.34
29.84
35.83
40.41
42.82
42.51
39.26
33.31
25.36
16.32
7.12
-1.63
-9.72
-17.31
-24.62
-31.76
-38.54
-44.58
-49.36
-52.41
-53.39
-52.22
-49.05
-44.35
-38.85
-33.45
-28.97
-25.96
-24.47
-24.07
-23.95
-23.26
-21.44
-18.46
-14.84
-11.44
-9.06
-8.08
-8.19
-8.53
-8.08
-6.18
-2.96
0.6
3.09
3.33
1.15
-2.42
-5.43
-5.82
-2.52
3.88
11.18
16.36
17.04
12.71
5.22
-1.88
-4.87
-1.72
6.86
17.58
25.99
28.42
23.63
13.28
1.2
-7.84
-9.58
-1.36
17.14
43.28
71.28
92.96
99.78
86.05
52.16
5.89
-39.32
-69.31
-75.1
-56.86
-23.79
10.13
32.78
39.43
34.47
28.57
32.54
51.25
80.65
109.43
124.47
117.4
88.52
46.3
3.02
-30.9
-51
-59.21
-61.14
-62.14
-64.19
-65.7
-63.87
-57.89
-50.39
-46.72
-51.77
-66.45
-86
-101.89
-106.26
-96.48
-76.75
-55.54
-40.02
-30.77
-20.66
1.06
41.65
99.2
162.27
214.83
243.82
245.05
224.49
194.89
169.74
157.93
161.41
175.97
194.19
208.59
213.98
208.24
191.75
165.97
132.48
92.34
46.39
-4.02
-55.98
-104.94
-145.53
-173.28
-186.39
-186.56
-178.37
-167.22
-157.05
-148.66
-140.06
-128.39
-112.46
-94.19
-78.03
-68.73
-68.75
-76.91
-89.1
-100.47
-107.7
-110.04
-108.83
-106.05
-102.88
-99.23
-94.09
-86.46
-76.11
-63.87
-51.26
-39.84
-30.67
-24.01
-19.5
-16.44
-14.17
-12.27
-10.6
-9.14
-7.84
-6.49
-4.84
-2.74
-0.15
2.91
6.53
11.08
17.13
25.1
34.9
45.63
55.73
63.46
67.39
66.88
62.08
53.78
43.04
30.94
18.42
6.24
-5.04
-15.11
-23.87
-31.32
-37.45
-42.24
-45.66
-47.79
-48.85
-49.16
-49.07
-48.71
-48.06
-46.93
-45.14
-42.7
-39.82
-36.94
-34.52
-32.82
-31.77
-30.95
-29.86
-28.22
-26.21
-24.46
-23.72
-24.57
-27.06
-30.73
-34.8
-38.41
-40.87
-41.84
-41.47
-40.35
-39.47
-39.81
-41.78
-44.78
-47.23
-47.31
-44.12
-38.44
-32.63
-29.37
-30.09
-33.96
-38.13
-39.24
-35.02
-25.16
-10.63
7.5
28.93
53.79
81.33
109.01
133.11
150.89
162.93
173.49
188.2
210.11
236.72
260
270
259.71
228.48
182.19
129.7
78.12
29.59
-18.44
-69.81
-125.2
-179.64
-223.59
-246.81
-243.27
-214.09
-166.83
-111.54
-55.88
-2.1
51.93
108.71
166.52
217.72
251.09
257.22
233.48
185.78
125.5
64.02
7.93
-41.61
-86.14
-125.4
-155.53
-171.18
-169.91
-154.8
-133.2
-112.05
-93.34
-73.71
-48.64
-18.45
8.73
19.89
5.02
-35.5
-88.8
-134.55
-153.94
-137.4
-87.17
-14.34
66.38
141.25
199.35
232.95
238.01
215.33
171.55
118.55
70.36
38.9
30.21
42.96
69.83
100.82
126.51
140.98
142.92
135.34
123.76
113.73
108.18
105.91
102.4
92.21
72
42.54
8.32
-24.88
-52.61
-73.17
-87.26
-96.5
-102.32
-105.87
-108.72
-113.33
-122.39
-137.44
-157.43
-178.83
-197.18
-209.57
-216.29
-220.58
-226.61
-236.7
-249.58
-260.79
-265.07
-259.02
-242.85
-219.99
-195.08
-172.06
-152.74
-136.87
-123.18
-110.26
-96.52
-80.01
-58.57
-30.84
2.44
37.96
70.93
97.52
116.46
129.01
136.66
138.67
131.78
112.8
82.58
47.81
19.32
7.15
15.6
41.42
76.62
113.73
149.61
185.44
223.22
261.8
295.37
315.65
316.31
296.69
262.34
222.02
183.21
148.57
115.55
78.99
35.72
-12.07
-56.06
-84.18
-85.63
-55.8
1.09
72.74
142.8
196.25
223.91
223.72
199.34
157.15
103.63
44.3
-15.67
-70.48
-113.59
-139.5
-146.27
-137.45
-121.82
-110.19
-111.08
-127.43
-156.01
-189.97
-222.46
-249.42
-270.25
-286.31
-299.15
-309.26
-316.62
-320.94
-321.84
-318.36
-308.23
-288.15
-255.44
-210.46
-158.01
-106.64
-65.21
-38.81
-25.89
-18.56
-5.95
21.12
66.02
124.6
186.04
236.41
263.35
260.64
231.2
186.73
144.24
119.79
122.18
148.78
186.34
216.48
223.5
201.43
155.74
100.48
51.74
21.35
13.39
24.64
47.58
73.96
97.14
