-1.34
-2.59
-2.52
-0.21
5.32
14.35
26.02
38.41
49.26
56.83
60.42
60.51
58.24
54.91
51.58
48.92
47.51
47.91
50.64
55.89
63.29
71.86
80.29
87.33
92.17
94.6
94.82
93.05
89.32
83.24
74.28
62.07
46.58
28.14
7.35
-15
-37.76
-59.25
-77.3
-89.68
-94.87
-92.77
-84.99
-74.31
-63.66
-55.09
-49.23
-45.51
-42.89
-40.61
-38.41
-36.34
-34.35
-32.05
-28.92
-24.68
-19.55
-14.16
-9.12
-4.63
-0.29
4.66
10.89
18.65
27.65
37.27
46.71
55.27
62.28
67.17
69.45
68.76
64.91
57.99
48.5
37.47
26.49
17.39
11.79
10.57
13.35
18.57
24.07
27.84
28.66
26.2
20.56
11.72
-0.65
-16.88
-36.64
-58.52
-80.13
-98.91
-113.05
-122.13
-126.9
-128.69
-128.44
-126.2
-121.42
-113.47
-102.43
-89.24
-75.38
-62.25
-50.6
-40.41
-31.09
-22.04
-13.11
-4.66
2.54
7.88
11.21
12.97
13.99
15.1
16.87
19.4
22.49
25.7
28.57
30.71
31.91
32.33
32.5
33.29
35.63
40.1
46.55
54.06
61.18
66.44
68.88
68.33
65.57
62.2
60.44
62.51
69.76
81.82
96.02
107.91
112.46
105.89
86.88
57
19.93
-19.97
-58.82
-93.73
-122.56
-143.49
-154.88
-155.67
-146.12
-128.26
-105.75
-83.05
-64.16
-51.6
-46.04
-46.61
-51.77
-59.93
-69.75
-80.03
-89.34
-95.94
-98.03
-94.34
-84.55
-69.53
-50.84
-30.17
-8.87
12.17
32.15
50.04
64.42
73.72
76.77
73.47
64.99
53.4
40.96
29.15
18.26
7.58
-3.87
-16.41
-29.17
-40.29
-47.77
-50.28
-47.78
-41.32
-32.35
-22.01
-10.86
0.78
12.34
22.6
30.02
33.32
32.2
27.54
21.18
15.11
10.72
8.41
7.67
7.62
7.4
6.57
5.09
3.11
0.86
-1.55
-4
-6.41
-8.65
-10.57
-12.02
-12.87
-13.05
-12.43
-10.94
-8.57
-5.43
-1.97
1.15
3.17
3.58
2.41
0.33
-1.54
-2.06
-0.62
2.57
6.54
9.92
11.54
10.78
7.73
3.02
-2.34
-7.24
-10.49
-10.98
-8.01
-1.51
7.68
18
27.57
34.82
38.96
40.09
38.95
36.43
33.22
29.58
25.58
21.25
16.73
12.26
8.09
4.36
1.15
-1.41
-3.11
-3.67
-2.86
-0.7
2.44
5.8
8.33
9.05
7.27
2.98
-3.1
-9.62
-14.97
-17.81
-17.47
-14.12
-8.69
-2.38
3.66
8.7
12.45
14.93
16.32
16.82
16.52
15.38
13.32
10.29
6.42
1.95
-2.83
-7.74
-12.83
-18.29
-24.25
-30.53
-36.56
-41.48
-44.54
-45.38
-44.29
-42.03
-39.49
-37.3
-35.55
-33.81
-31.45
-27.96
-23.22
-17.51
-11.44
-5.6
-0.55
3.21
5.14
4.75
1.76
-3.52
-10.07
-16.38
-20.85
-22.51
-21.23
-17.74
-13.06
-8.1
-3.29
1.27
5.6
9.58
12.81
14.85
15.38
14.49
12.63
10.53
8.98
8.56
9.55
11.74
14.56
17.38
19.78
21.75
23.72
26.22
29.46
33.24
36.81
39.35
40.3
39.56
37.5
34.67
31.6
28.47
25.3
21.93
18.37
14.79
11.48
8.86
7.22
6.63
6.79
7.09
6.76
5.16
2.06
-2.25
-7.03
-11.36
-14.55
-16.33
-16.87
-16.56
-15.74
-14.53
-12.89
-10.74
-8.16
-5.46
-3
-1.05
0.34
1.28
1.97
2.59
3.2
3.81
4.38
4.91
5.41
5.98
6.69
7.64
8.94
10.59
12.55
14.57
16.34
17.49
17.8
17.21
15.85
13.98
11.83
9.57
7.3
5.03
2.77
0.57
-1.46
-3.18
-4.51
-5.44
-5.98
-6.14
-5.98
-5.53
-4.92
-4.32
-3.99
-4.1
-4.67
-5.55
-6.41
-6.95
-6.93
-6.32
-5.24
-3.92
-2.55
-1.3
-0.2
0.75
1.58
2.3
2.92
3.43
3.83
4.11
4.32
4.52
4.79
5.17
5.64
6.11
6.43
6.5
6.3
5.83
5.2
4.51
3.83
3.24
2.82
2.64
2.81
3.35
4.26
5.47
6.85
8.19
9.27
9.84
9.6
8.33
5.81
1.99
-2.99
-8.72
-14.57
-19.84
-23.99
-26.89
-28.88
-30.71
-33.29
-37.18
-42.34
-48.05
-53.04
-55.76
-54.81
-49.14
-38.4
-23.12
-4.67
14.86
33.13
48.02
58.18
63.21
63.66
60.62
55.23
48.46
40.9
33.02
25.28
18.17
12.13
7.42
3.97
1.47
-0.43
-1.93
-2.98
-3.27
-2.57
-0.93
1.3
3.52
5.08
5.62
5.15
3.95
2.43
0.94
-0.39
-1.55
-2.57
-3.41
-3.86
-3.65
-2.6
-0.64
1.97
4.81
7.46
9.62
11.24
12.51
13.71
15.07
16.63
18.16
19.24
19.4
18.23
15.63
11.89
7.57
3.38
-0.03
-2.36
-3.72
-4.49
-5.18
-6.2
-7.88
-10.5
-14.15
-18.52
-22.8
-25.9
-26.85
-25.6
-23.26
-21.89
-23.54
-29.14
-37.9
-47.46
-54.92
-57.96
-55.75
-48.9
-38.92
-27.41
-15.47
-3.64
7.77
18.41
27.63
34.56
38.55
39.59
38.38
36.18
34.35
33.67
34.14
35.16
35.84
35.65
34.67
33.38
32.23
31.34
30.48
29.34
27.96
26.85
26.87
28.86
33.24
39.83
47.7
55.5
61.74
65.13
65
61.59
56.02
50.02
45.28
42.64
41.79
41.33
39.59
35.44
28.91
21.1
13.49
7.31
3.04
0.53
-0.74
-1.25
-1.47
-1.94
-3.47
-6.99
-13.02
-21.25
-30.37
-38.41
-43.39
-44.02
-40
-32.02
-21.44
-9.75
1.77
12.3
21.49
29.18
35.15
38.97
40.09
38.25
34.11
29.48
26.85
28.34
34.2
42.09
47.43
45.03
31.25
5.7
-28.41
-65.31
-98.46
-122.41
-133.88
-132.09
-118.42
-95.96
-68.97
-42.37
-21.01
-8.74
-7.54
-16.93
-33.98
-54.07
-71.89
-82.97
-84.74
-77.17
-62.53
-44.45
-26.63
-11.88
-1.65
3.78
4.85
2.32
-2.78
-8.96
-14.27
-16.72
-15.02
-9.15
-0.53
8.56
15.91
20.15
21.12
19.57
16.67
13.47
10.68
8.83
8.43
10.18
14.83
22.95
34.58
48.97
64.52
78.99
90.12
96.29
97.11
93.5
87.54
81.69
78.08
77.73
80.32
84.22
87.04
86.46
80.73
69.16
52.07
30.69
6.85
-17.34
-39.81
-58.87
-73.41
-83.09
-88.18
-89.42
-87.64
-83.52
-77.65
-70.65
-63.45
-57.24
-53.2
-51.97
-53.18
-55.42
-56.59
-54.71
-48.69
-38.62
-25.77
-12
0.86
11.54
19.38
24.15
25.9
24.74
20.98
15.13
7.95
0.46
-6.28
-11.31
-13.9
-13.8
-11.4
-7.82
-4.78
-4.16
-7.31
-14.6
-25.19
-37.45
-49.54
-60.13
-68.59
-74.87
-78.99
-80.58
-78.85
-72.91
-62.34
-47.69
-30.68
-13.87
-0.06
8.54
11
7.91
1.06
-7.25
-15.08
-21.25
-25.28
-27.02
-26.18
-22.3
-14.96
-4.35
8.52
21.95
34.21
44.22
51.84
57.69
62.54
66.74
69.85
70.85
68.66
62.74
53.45
42.05
30.38
20.23
12.87
8.76
7.57
8.31
9.65
10.27
9
5.06
-1.84
-11.46
-23.07
-35.59
-47.96
-59.26
-68.92
-76.57
-81.78
-83.88
-81.98
-75.23
-63.35
-47.02
-27.84
-8.04
10.11
24.92
35.71
42.8
47.47
51.45
56.4
63.35
72.11
81.21
88.34
91.15
88.36
80.44
69.48
58.52
50.29
46.17
45.78
47.33
48.44
47.24
43.11
36.68
29.36
22.34
16.02
9.91
3.09
-4.98
-13.91
-22.37
-28.67
-31.54
-30.85
-27.57
-23.38
-19.94
-18.41
-19.1
-21.69
-25.38
-29.18
-32.23
-33.93
-34.06
-32.71
-30.05
-26.08
-20.72
-14
-6.43
0.88
6.39
8.81
7.7
3.82
-1.15
-5.28
-7.24
-6.74
-4.6
-2.32
-1.44
-2.88
-6.55
-11.17
-14.72
-15.24
-11.91
-5.67
0.96
4.94
3.98
-2.33
-12.45
-23.74
-33.71
-40.89
-45.03
-46.62
-46.34
-44.84
-42.74
-40.76
-39.62
-39.72
-40.73
-41.55
-40.64
-36.67
-29.07
-18.34
-5.79
6.86
18.1
26.9
32.7
35.35
34.89
31.7
26.68
21.33
17.59
17.34
21.53
29.56
39.31
47.81
52.4
51.91
46.92
39.47
32.02
26.34
22.75
20.15
16.64
10.59
1.5
-9.76
-21.29
-30.99
-37.33
-39.81
-38.86
-35.33
-30.06
-23.61
-16.5
-9.39
-3.08
1.83
5.38
8.52
12.85
19.79
29.65
41.19
51.81
58.56
59.22
53.25
41.84
27.42
12.58
-0.73
-11.7
-20.51
-27.79
-34.21
-40.08
-45.26
-49.42
-52.25
-53.7
-53.87
-53.06
-51.45
-49.17
-46.31
-43.04
-39.66
-36.49
-33.6
-30.66
-26.87
-21.25
-13.2
-2.73
9.32
21.43
31.88
39.3
43.05
43.41
41.42
38.42
35.67
33.91
33.23
33.14
33
32.28
30.88
28.91
26.49
23.49
19.52
14.19
7.42
-0.32
-8.05
-14.55
-18.87
-20.57
-19.75
-16.9
-12.62
-7.38
-1.56
4.41
10.08
14.88
18.17
19.46
18.43
15.01
9.41
2.03
-6.5
-15.41
-23.88
-31.24
-37.02
-41.08
-43.5
-44.45
-44.2
-43.06
-41.38
-39.58
-38.04
-37.04
-36.68
-36.93
-37.72
-38.9
-40.28
-41.44
-41.82
-40.82
-37.87
-32.75
-25.62
-17.03
-7.89
0.76
7.89
12.7
14.82
14.61
13.12
11.81
11.97
14.29
18.47
23.41
27.61
29.85
29.64
27.4
24.3
21.72
20.83
22.18
25.68
30.7
36.34
41.63
45.68
47.92
48.19
46.87
44.73
42.75
41.88
42.71
45.4
49.62
54.78
60.07
64.59
67.36
67.49
64.32
57.51
47.21
34.07
19.18
3.87
-10.48
-22.73
-32.12
-38.45
-41.98
-43.35
-43.36
-42.79
-42.25
-42.15
-42.63
-43.56
-44.5
-44.91
-44.21
-42.01
-38.28
-33.29
-27.61
-21.9
-16.76
-12.61
-9.59
-7.6
-6.37
-5.56
-4.91
-4.27
-3.66
-3.15
-2.88
-2.98
-3.53
-4.53
-5.79
-6.97
-7.68
-7.57
-6.54
-4.75
-2.63
-0.66
0.77
1.54
1.75
1.66
1.49
1.34
1.24
1.11
0.93
0.69
0.41
0.07
-0.36
-0.96
-1.75
-2.64
-3.4
-3.73
-3.39
-2.33
-0.75
1.02
2.58
3.58
3.85
3.41
2.45
1.21
-0.03
-1.11
-2.02
-2.92
-4.16
-6.11
-9.07
-13
-17.52
-21.88
-25.13
-26.44
-25.34
-21.95
-17.02
-11.75
-7.41
-4.87
-4.39
-5.44
-6.92
-7.45
-5.79
-1.1
6.71
17.07
28.77
40.19
49.7
56.05
58.69
57.93
54.88
51.13
48.36
47.97
50.63
56.15
63.36
70.29
74.59
74.25
68.16
56.56
40.98
23.76
7.3
-6.66
-17.46
-25.52
-31.84
-37.37
-42.45
-46.6
-48.76
-47.77
-42.99
-34.75
-24.53
-14.56
-7.33
-4.92
-8.46
-17.91
-32.01
-48.65
-65.37
-80.11
-91.73
-100.15
-106.07
-110.25
-112.87
-113.29
-110.3
-102.82
-90.49
-73.96
-54.63
-34.11
-13.72
5.73
23.82
40.28
54.63
66.08
73.52
75.8
72.15
62.73
48.95
33.45
19.47
9.92
6.45
8.97
15.89
24.92
33.96
41.61
47.07
49.91
49.71
46.09
39.03
29.23
18.18
7.95
0.52
-2.96
-2.46
0.99
5.82
10.57
14.32
16.77
18.14
18.73
18.77
18.25
17.01
14.86
11.74
7.75
3.26
-1.21
-5.08
-7.84
-9.23
-9.25
-8.25
-6.68
-5.03
-3.67
-2.7
-2.01
-1.36
-0.54
0.46
1.39
1.93
1.75
0.85
-0.45
-1.63
-2.21
-2.02
-1.23
-0.26
0.57
1.12
1.49
1.87
2.31
2.74
3
3.08
3.16
3.55
4.5
6.1
8.22
10.64
13.17
15.8
18.74
22.28
26.66
31.94
37.95
44.19
50
54.61
57.3
57.58
55.21
50.21
42.8
33.46
22.9
12.07
2.02
-6.32
-12.46
-16.43
-18.8
-20.29
-21.5
-22.58
-23.23
-22.91
-21.16
-17.72
-12.66
-6.23
1.16
8.93
16.4
22.7
27.04
28.85
28.07
25.08
20.61
15.33
9.7
3.93
-1.87
-7.44
-12.34
-16.01
-17.95
-17.89
-15.85
-12.13
-7.18
-1.55
4.23
9.62
14.16
17.55
19.66
20.53
20.12
18.4
15.23
10.47
4.18
-3.37
-11.67
-20.06
-27.85
-34.46
-39.46
-42.61
-43.75
-42.85
-40.01
-35.53
-29.91
-23.74
-17.66
-12.16
-7.6
-4.18
-1.94
-0.82
-0.66
-1.22
-2.21
-3.32
-4.26
-4.83
-4.93
-4.56
-3.81
-2.87
-1.91
-1.09
-0.46
-0.04
0.16
0.07
-0.33
-1.03
-1.87
-2.64
-3.18
-3.45
-3.54
-3.65
-3.95
-4.51
-5.3
-6.22
-7.2
-8.13
-8.95
-9.58
-10.03
-10.4
-10.88
-11.75
-13.21
-15.32
-17.9
-20.61
-23.01
-24.73
-25.57
-25.57
-25.04
-24.44
-24.18
-24.49
-25.38
-26.58
-27.69
-28.31
-28.22
-27.55
-26.8
-26.71
-27.87
-30.27
-32.97
-34.24
-32.05
-24.96
-12.77
3.26
20.75
36.98
49.5
56.69
57.92
53.56
45.03
34.65
25.24
19.44
18.94
23.88
32.84
43.35
52.73
58.94
60.95
58.81
53.29
45.54
36.67
27.57
18.77
10.32
2.02
-6.37
-14.86
-23.06
-30.23
-35.57
-38.54
-39.12
-37.82
-35.47
-32.91
-30.66
-28.72
-26.7
-24.02
-20.3
-15.56
-10.37
-5.83
-3.26
-3.93
-8.53
-16.85
-27.63
-38.65
-47.15
-50.49
-46.94
-36.31
-20.2
-1.56
16.13
30
38.47
41.41
39.77
34.97
28.44
21.64
16.19
13.8
15.81
22.56
32.81
43.98
53.02
57.68
57.32
53.22
47.87
43.77
42.54
44.36
48.13
52.08
54.41
53.91
50.15
43.47
34.73
25.07
15.58
7.26
0.98
-2.42
-2.24
1.98
10.01
20.65
31.78
40.65
44.62
41.82
31.75
15.57
-3.96
-23.04
-37.6
-44.33
-41.65
-30.22
-12.81
6.4
23.03
33.7
36.79
32.69
23.39
11.84
1.11
-6.17
-8.3
-4.78
3.57
14.8
26.24
35.2
39.62
38.62
32.55
22.71
10.74
-1.96
-14.53
-26.61
-38.14
-49.13
-59.58
-69.46
-78.76
-87.35
-94.68
-99.82
-101.46
-98.4
-90.03
-76.74
-59.98
-41.88
-24.64
-9.88
1.75
10.61
17.7
24.02
30.16
36.02
40.98
44.26
45.42
44.6
42.52
40.24
38.69
38.23
38.47
38.41
36.86
33.05
26.93
19.18
10.91
3.07
-3.73
-9.52
-14.97
-21.3
-29.94
-42.11
-58.04
-76.37
-94.02
-106.65
-109.98
-101.25
-80.38
-50.36
-16.54
14.71
37.68
48.84
47.76
37.02
21.29
5.67
-6.06
-12.39
-14.18
-13.62
-12.87
-13
-14.03
-15.34
-16.42
-17.31
-18.34
-19.75
-21.36
-22.66
-23.13
-22.64
-21.5
-20.22
-19.12
-18.01
-16.17
-12.48
-5.91
4.09
17.13
31.98
46.79
59.75
69.67
76.26
80.08
81.95
82.47
81.7
79.31
75.03
68.94
61.7
54.22
47.35
41.52
36.68
32.43
28.16
23.14
16.62
8.04
-2.67
-14.65
-26.05
-34.34
-37.22
-33.73
-24.84
-13.24
-2.25
5.46
8.78
8.13
4.71
-0.49
-7.29
-15.92
-26.28
-37.21
-46.59
-52.34
-53.48
-50.8
-46.42
-42.74
-41.21
-41.83
-43.48
-44.85
-45.29
-45.04
-44.74
-44.7
-44.51
-43.06
-39.2
-32.37
-22.93
-12.12
-1.67
6.88
12.68
15.64
16.33
15.51
13.84
11.72
9.26
6.45
3.35
0.11
-3
-5.7
-7.87
-9.5
-10.67
-11.44
-11.83
-11.89
-11.7
-11.43
-11.19
-10.97
-10.52
-9.37
-6.97
-2.97
2.55
8.97
15.3
20.5
23.78
24.83
23.86
21.46
18.3
14.98
11.91
9.33
7.33
5.89
4.77
3.65
2.29
0.76
-0.4
-0.39
1.31
4.45
7.74
9.17
6.88
-0.09
-11.2
-24.56
-37.61
-48.03
-54.2
-55.53
-52.17
-44.84
-34.71
-23.17
-11.8
-2.06
5
9.06
10.53
10.3
9.35
8.34
7.48
6.67
5.75
4.65
3.47
2.37
1.46
0.87
0.71
1.2
2.48
4.57
7.25
10.04
12.3
13.48
13.32
11.85
9.35
6.23
2.87
-0.41
-3.4
-5.92
-7.88
-9.26
-10.11
-10.59
-10.85
-10.95
-10.88
-10.46
-9.58
-8.2
-6.37
-4.36
-2.48
-1.08
-0.3
-0.04
-0.02
0.08
0.41
0.74
0.52
-0.95
-4.16
-9.13
-15.23
-21.44
-26.57
-29.62
-30.07
-27.85
-23.31
-17.08
-9.91
-2.54
4.55
11.33
18.23
26.15
36.04
48.44
62.91
77.84
90.74
98.95
100.53
94.88
82.82
66.23
47.52
28.97
12.37
-1.11
-11
-17.55
-21.7
-24.92
-28.84
-34.72
-43.06
-53.41
-64.58
-75.05
-83.44
-88.82
-90.77
-89.38
-85.04
-78.21
-69.34
-58.77
-46.81
-33.9
-20.61
-7.63
4.18
14.13
21.73
26.89
29.75
30.64
29.73
26.99
22.32
15.7
7.5
-1.33
-9.37
-14.92
-16.36
-12.52
-2.99
11.74
30.27
50.57
70.41
87.93
102.13
113.01
121.2
127.48
132.08
134.34
132.96
126.61
114.78
98.33
79.53
61.36
46.45
36.19
30.21
26.68
23.16
17.62
9.3
-1.19
-12.21
-21.89
-28.85
-32.64
-33.72
-33.2
-32.34
-32.1
-32.82
-34.13
-35.18
-35.02
-33.08
-29.38
-24.55
-19.56
-15.41
-12.65
-11.36
-11.12
-11.16
-10.62
-8.71
-4.93
0.66
7.37
14.11
19.73
23.43
24.9
24.15
21.25
16.27
9.42
1.18
-7.34
-14.6
-19.08
-19.74
-16.55
-10.52
-3.46
2.65
6.29
6.86
4.96
2.04
-0.12
-0.23
1.88
5.08
7.45
7.14
3.15
-4.31
-14.02
-24.35
-33.85
-41.72
-47.9
-52.81
-56.97
-60.7
-63.89
-66.21
-67.2
-66.57
-64.21
-60.11
-54.25
-46.51
-36.77
-25.24
-12.66
-0.4
9.81
16.52
19.03
17.64
13.51
8.17
2.99
-1.12
-3.9
-5.52
-6.4
-6.96
-7.56
-8.38
-9.55
-11.07
-12.79
-14.47
-15.87
-16.76
-17.05
-16.8
-16.13
-15.25
-14.31
-13.4
-12.58
-11.92
-11.51
-11.4
-11.57
-11.86
-12.01
-11.78
-10.97
-9.47
-7.28
-4.45
-1.06
2.74
6.75
10.73
14.38
17.49
19.92
21.7
22.99
24.06
25.26
26.9
29.18
32.09
35.42
38.69
41.25
42.34
41.31
37.78
31.8
23.91
14.98
6.09
-1.7
-7.61
-11.23
-12.6
-12.13
-10.48
-8.34
-6.3
-4.77
-3.92
-3.69
-3.91
-4.24
-4.4
-4.16
-3.43
-2.36
-1.22
-0.35
0.04
-0.1
-0.66
-1.45
-2.32
-3.17
-4.01
-4.84
-5.65
-6.41
-7.03
-7.46
-7.61
-7.49
-7.08
-6.43
-5.51
-4.32
-2.97
-1.68
-0.78
-0.58
-1.18
-2.42
-3.87
-5.04
-5.59
-5.51
-5.11
-4.79
-4.86
-5.44
-6.39
-7.45
-8.39
-9.07
-9.45
-9.53
-9.32
-8.82
-8.07
-7.15
-6.29
-5.73
-5.67
-6.11
-6.91
-7.8
-8.59
-9.3
-10.19
-11.54
-13.5
-15.78
-17.82
-18.92
-18.56
-16.58
-13.18
-8.76
-3.89
0.82
4.68
6.98
7.07
4.75
0.33
-5.33
-11.12
-16.14
-20
-22.95
-25.63
-28.65
-32.2
-35.9
-38.87
-40.06
-38.69
-34.39
-27.31
-17.94
-6.87
5.29
17.91
30.22
41.32
50.21
56
58.06
56.01
49.77
39.61
26.31
11.47
-2.51
-12.82
-17.09
-14.33
-5.5
6.71
18.81
27.77
32.03
31.77
28.46
24.05
20.14
17.47
16.05
15.43
15.1
14.71
14.02
12.76
10.58
7.04
1.75
-5.37
-13.98
-23.36
-32.51
-40.5
-46.68
-50.78
-52.95
-53.56
-53.03
-51.55
-49
-44.86
-38.49
-29.34
-17.21
-2.33
14.64
32.75
50.74
67.14
80.35
88.89
91.74
88.66
80.26
67.85
53.08
37.47
22.23
8.14
-4.36
-15.08
-24.01
-31.29
-37.11
-41.55
-44.6
-46.05
-45.69
-43.46
-39.58
-34.54
-29.01
-23.67
-19.03
-15.46
-13.07
-11.78
-11.34
-11.34
-11.34
-11
-10.27
-9.44
-9.1
-9.84
-11.84
-14.8
-17.82
-19.81
-19.76
-17.08
-11.69
-3.95
5.48
15.85
26.34
36.19
44.68
51.15
55.1
56.21
54.49
50.19
43.83
36.1
27.7
19.24
11.09
3.46
-3.48
-9.48
-14.25
-17.51
-19.26
-19.8
-19.71
-19.59
-19.8
-20.33
-20.87
-21.08
-20.85
-20.35
-19.93
-19.81
-19.9
-19.78
-18.94
-17.02
-13.89
-9.76
-5
-0.02
4.84
9.25
12.99
15.87
17.83
18.99
19.59
19.94
20.26
20.64
21.06
21.39
21.48
21.18
20.42
19.16
17.48
15.5
13.39
11.34
9.53
8.08
6.99
6.15
5.32
4.23
2.68
0.66
-1.63
-3.83
-5.51
-6.4
-6.44
-5.89
-5.13
-4.57
-4.5
-4.95
-5.71
-6.44
-6.81
-6.63
-6.02
-5.29
-4.83
-4.94
-5.66
-6.75
-7.78
-8.32
-8.23
-7.64
-6.95
-6.53
-6.57
-7
-7.61
-8.11
-8.31
-7.83
-5.85
-0.98
8.47
23.82
45.29
71.49
99.69
126.41
148.45
163.49
170.39
169.09
160.41
145.94
128.07
109.81
94.28
83.89
79.43
79.61
81.36
80.87
74.92
62
42.79
19.72
-3.96
-25.31
-42.61
-55.57
-65.1
-72.64
-79.42
-85.87
-91.64
-95.89
-97.87
-97.4
-94.89
-91.03
-86.27
-80.66
-73.93
-66.11
-57.96
-51.04
-47.25
-47.82
-52.74
-60.48
-68.51
-74.14
-75.4
-71.52
-63.07
-51.63
-39.28
-27.97
-19.1
-13.23
-10.16
-9.16
-9.29
-9.72
-9.88
-9.44
-8.24
-6.26
-3.6
-0.61
2.22
4.27
5.03
4.23
1.88
-1.67
-5.88
-10.03
-13.41
-15.45
-15.84
-14.58
-11.97
-8.51
-4.72
-0.99
2.48
5.6
8.36
10.73
12.67
14.13
15.14
15.77
16.1
16.22
16.21
16.08
15.85
15.5
14.96
14.16
13
11.46
9.6
7.51
5.25
2.83
0.15
-2.89
-6.3
-9.97
-13.63
-16.99
-19.8
-22.01
-23.7
-25.08
-26.33
-27.48
-28.42
-28.86
-28.57
-27.46
-25.74
-23.83
-22.26
-21.43
-21.35
-21.69
-21.78
-20.84
-18.18
-13.47
-6.85
0.98
9.02
16.15
21.42
24.27
24.54
22.44
18.52
13.5
8.16
3.26
-0.66
-3.41
-5.06
-5.88
-6.06
-5.64
-4.52
-2.62
-0.1
2.56
4.66
5.54
4.77
2.28
-1.63
-6.4
-11.39
-16.03
-19.94
-22.99
-25.14
-26.45
-26.89
-26.32
-24.6
-21.61
-17.33
-11.84
-5.29
2.19
10.44
19.21
28.16
36.83
44.73
51.45
56.8
60.74
63.4
65.08
66.12
66.93
67.72
68.42
68.6
67.68
65.16
60.85
54.99
48.07
40.61
32.95
25.17
17.25
9.17
1.12
-6.54
-13.35
-18.95
-23.08
-25.69
-26.95
-27.23
-27.13
-27.35
-28.54
-31.12
-35.15
-40.27
-45.82
-51.04
-55.34
-58.48
-60.53
-61.82
-62.72
-63.56
-64.45
-65.03
-64.37
-60.93
-53.07
-39.69
-21.13
0.53
21.86
39.23
50.23
54.62
54.22
51.89
50.13
50.07
51.42
53.1
54.2
54.52
54.47
54.53
54.72
54.61
53.69
51.83
49.64
48.06
47.89
49.12
50.93
51.99
51.09
47.53
41.29
32.79
22.56
11.14
-1
-13.16
-24.4
-33.69
-40.21
-43.69
-44.54
-43.66
-42.04
-40.41
-39.04
-37.84
-36.65
-35.43
-34.38
-33.74
-33.59
-33.71
-33.62
-32.8
-30.98
-28.22
-24.9
-21.54
-18.61
-16.47
-15.25
-14.91
-15.16
-15.52
-15.39
-14.31
-12.3
-10
-8.61
-9.52
-13.69
-21.05
-30.28
-39.11
-45.11
-46.5
-42.74
-34.59
-23.7
-12.02
-1.19
7.64
13.86
17.34
18.25
17.11
14.76
12.22
10.34
9.48
9.31
9.05
7.86
5.39
2.06
-1.11
-2.91
-2.52
0.15
4.39
9.02
12.78
14.63
13.92
10.37
4.08
-4.53
-14.75
-25.68
-36.32
-45.74
-53.11
-57.64
-58.75
-56.02
-49.42
-39.35
-26.73
-12.88
0.73
12.71
22.03
28.1
30.9
30.84
28.67
25.34
21.81
18.99
17.63
18.2
20.81
25.21
30.74
36.5
41.54
45.01
46.43
45.69
43.02
38.87
33.75
28.13
22.38
16.85
11.87
7.77
4.76
2.85
1.79
1.16
0.49
-0.47
-1.69
-2.92
-3.92
-4.62
-5.2
-5.87
-6.65
-7.26
-7.06
-5.46
-2.26
2.11
6.56
9.7
10.26
7.58
1.81
-6.18
-15.09
-23.67
-31.04
-36.88
-41.29
-44.51
-46.64
-47.45
-46.49
-43.31
-37.64
-29.53
-19.31
-7.53
5.08
17.6
28.98
38.06
43.85
45.75
43.81
38.74
31.7
24.02
16.84
10.94
6.6
3.74
2
0.91
0.04
-0.92
-2.05
-3.23
-4.17
-4.68
-4.64
-4.15
-3.39
-2.61
-1.97
-1.53
-1.27
-1.14
-1.12
-1.26
-1.58
-2.14
-2.89
-3.68
-4.36
-4.81
-5.04
-5.14
-5.31
-5.69
-6.33
-7.16
-7.95
-8.5
-8.66
-8.48
-8.15
-7.97
-8.22
-9.07
-10.45
-12.12
-13.79
-15.14
-15.98
-16.26
-16.03
-15.45
-14.75
-14.09
-13.57
-13.02
-11.98
-9.8
-5.88
0.05
7.73
16.33
24.76
32
37.33
40.39
41.14
39.61
35.89
30.23
23.06
15.14
7.3
0.32
-5.27
-9.35
-12.1
-13.86
-14.99
-15.81
-16.39
-16.67
-16.44
-15.36
-13.14
-9.5
-4.32
2.38
10.29
18.83
27.14
34.12
38.73
40.15
38.08
32.8
25.08
15.96
6.53
-2.23
-9.62
-15.13
-18.55
-20.03
-19.94
-18.87
-17.42
-16.04
-14.88
-13.9
-12.91
-11.81
-10.64
-9.59
-8.84
-8.56
-8.72
-9.23
-9.98
-10.85
-11.85
-12.98
-14.33
-15.93
-17.79
-19.72
-21.33
-22.11
-21.46
-18.97
-14.52
-8.4
-1.21
6.28
13.27
19.08
23.21
25.32
25.43
23.8
21.05
17.86
14.88
12.57
11.1
10.44
10.53
11.27
12.47
13.86
14.95
15.19
14.16
11.8
8.56
5.3
2.92
2.01
2.69
4.49
6.69
8.59
9.71
9.96
9.45
8.35
6.81
4.91
2.77
0.57
-1.41
-2.89
-3.73
-3.96
-3.76
-3.37
-2.93
-2.48
-2.02
-1.48
-0.78
0.1
1.2
2.45
3.75
4.92
5.74
5.96
5.47
4.26
2.46
0.3
-2.02
-4.3
-6.34
-7.98
-9.1
-9.69
-9.86
-9.84
-9.84
-10.04
-10.46
-11.01
-11.5
-11.79
-11.79
-11.56
-11.32
-11.23
-11.38
-11.7
-11.88
-11.52
-10.33
-8.35
-6.07
-4.23
-3.49
-4.12
-5.86
-8.02
-9.86
-10.84
-10.75
-9.64
-7.59
-4.65
-0.9
3.48
8.18
12.89
17.61
22.7
28.69
35.8
43.51
50.43
54.67
54.52
49.12
38.75
24.63
8.49
-7.97
-23.39
-36.72
-47.22
-54.42
-58.15
-58.6
-56.27
-51.86
-46.04
-39.41
-32.46
-25.63
-19.25
-13.59
-8.82
-5.05
-2.52
-1.56
-2.59
-5.89
-11.3
-18.1
-25.03
-30.65
-33.75
-33.79
-31.03
-26.45
-21.31
-16.71
-13.16
-10.51
-8.02
-4.81
-0.3
5.64
12.71
20.41
28.32
36.15
43.65
50.45
56.03
59.73
61.09
60.01
56.76
52
46.46
40.91
36.12
32.77
31.35
32
34.38
37.7
41.06
43.74
45.57
46.94
48.46
50.58
53.19
55.51
56.23
54.01
47.86
37.65
24.34
9.94
-2.79
-11.08
-12.98
-8.21
1.59
13.16
22.72
27.46
26.64
21.88
16.41
13.48
14.86
20.05
26.57
31.01
30.68
24.6
13.85
0.89
-11.54
-21.41
-27.83
-31
-31.76
-31.15
-30.2
-29.8
-30.65
-33.07
-36.81
-40.86
-43.66
-43.71
-40.31
-34.04
-26.54
-19.84
-15.46
-13.82
-14.19
-15.25
-15.67
-14.57
-11.66
-6.95
-0.45
7.95
18.21
29.82
41.55
51.56
57.92
59.23
55.21
46.88
36.32
25.95
17.87
13.1
11.38
11.31
10.88
8.13
1.75
-8.45
-21.41
-34.99
-46.53
-53.51
-54.34
-48.91
-38.78
-26.8
-16.29
-9.97
-9.1
-13.13
-20.02
-27
-31.68
-32.85
-30.74
-26.9
-23.34
-21.77
-22.9
-26.31
-30.65
-34.15
-35.24
-32.86
-26.71
-17.08
-4.77
9.07
23.04
35.65
45.52
51.72
53.9
52.48
48.44
42.98
37.21
31.83
26.96
22.32
17.41
11.89
5.71
-0.81
-7.01
-12.08
-15.29
-16.25
-15.04
-12.3
-9.02
-6.43
-5.58
-7.02
-10.5
-14.9
-18.44
-19.25
-16.01
-8.5
2.14
13.74
23.78
30.14
31.71
28.59
21.81
12.84
3.12
-6.24
-14.51
-21.23
-26.14
-29.07
-30.04
-29.27
-27.23
-24.56
-21.91
-19.79
-18.36
-17.54
-16.98
-16.33
-15.39
-14.22
-13.1
-12.42
-12.46
-13.24
-14.52
-15.87
-16.89
-17.32
-17.14
-16.51
-15.63
-14.6
-13.38
-11.8
-9.71
-7.02
-3.89
-0.58
2.5
5.01
6.75
7.72
8.13
8.16
7.96
7.43
6.39
4.63
2.17
-0.73
-3.57
-5.83
-7.24
-7.8
-7.8
-7.63
-7.49
-7.31
-6.69
-5.16
-2.3
1.9
7.03
12.27
16.67
19.44
20.32
19.69
18.55
18.34
20.55
26.34
36.11
49.08
63.13
75.04
81.35
79.53
69.09
52.05
32.43
14.78
2.65
-2.59
-2
1.7
5.29
6.04
2.3
-6.44
-19.76
-36.43
-54.4
-71.1
-83.78
-90.24
-89.55
-82.28
-70.43
-56.63
-43.32
-31.97
-22.9
-15.55
-9.06
-2.91
2.91
7.91
11.42
13.03
12.69
10.73
7.72
4.2
0.64
-2.53
-4.95
-6.37
-6.82
-6.69
-6.71
-7.59
-9.67
-12.58
-15.3
-16.53
-15.18
-10.83
-3.88
4.45
12.54
18.72
21.69
20.87
16.61
10.27
3.93
-0.28
-0.87
2.5
9
16.96
24.6
30.56
34.25
35.78
35.61
34.24
32
28.99
25.18
20.45
14.55
7.12
-2.24
-13.69
-26.87
-40.69
-53.33
-62.6
-66.43
-63.51
-53.67
-38.03
-18.83
1.01
18.57
31.5
38.66
40.27
37.7
32.96
27.99
24.08
21.66
20.51
20.05
19.79
19.43
18.82
17.91
16.61
14.93
13.1
11.5
10.57
10.53
11.26
12.19
12.6
11.78
9.3
5.14
-0.37
-6.63
-12.89
-18.34
-22.32
-24.42
-24.56
-23.04
-20.38
-17.24
-14.19
-11.68
-9.92
-9.01
-8.92
-9.57
-10.77
-12.31
-13.96
-15.54
-17.01
-18.33
-19.47
-20.32
-20.69
-20.43
-19.44
-17.78
-15.64
-13.22
-10.71
-8.18
-5.71
-3.35
-1.21
0.56
1.87
2.65
3.03
3.18
3.3
3.55
3.98
4.54
5.11
5.56
5.78
5.7
5.32
4.67
3.84
2.95
2.04
1.13
0.16
-0.97
-2.3
-3.76
-5.16
-6.21
-6.63
-6.35
-5.55
-4.6
-3.99
-4.07
-4.96
-6.49
-8.29
-10.05
-11.64
-13.18
-14.95
-17.21
-19.98
-23.05
-25.98
-28.31
-29.77
-30.38
-30.45
-30.38
-30.54
-31.07
-31.91
-32.88
-33.69
-33.96
-33.19
-30.72
-25.97
-18.73
-9.37
1.15
11.73
21.7
31.14
40.83
51.59
63.59
75.76
86.1
92.35
93.05
88.17
79.09
68.07
57.33
48.37
41.63
36.68
32.7
28.88
24.84
20.52
16.08
11.56
6.8
1.42
-4.9
-12.09
-19.66
-26.62
-31.89
-34.45
-33.56
-28.79
-20.02
-7.52
7.79
24.12
39.07
50.02
55.11
53.79
47.15
37.38
26.88
17.24
8.76
0.78
-7.61
-16.67
-25.68
-33.25
-38.01
-39.39
-37.85
-34.63
-30.92
-27.34
-23.71
-19.37
-13.85
-7.28
-0.58
5.04
8.5
9.44
8.16
5.46
2.2
-1.1
-4.28
-7.42
-10.5
-13.21
-15.02
-15.45
-14.34
-12.1
-9.61
-7.87
-7.7
-9.38
-12.62
-16.68
-20.68
-23.86
-25.83
-26.6
-26.52
-26.13
-26.06
-26.89
-28.95
-32.3
-36.55
-40.84
-44
-44.79
-42.32
-36.45
-27.81
-17.69
-7.51
1.55
8.82
14.22
17.89
20.03
20.64
19.67
17.23
13.68
9.69
6.03
3.29
1.67
0.94
0.62
0.29
-0.18
-0.65
-0.81
-0.39
0.61
1.96
3.32
4.44
5.23
5.75
6.14
6.42
6.54
6.36
5.76
4.8
3.65
2.54
1.69
1.19
1.01
0.99
0.93
0.65
0.07
-0.76
-1.77
-2.86
-4.05
-5.41
-7
-8.83
-10.77
-12.57
-13.92
-14.62
-14.51
-13.59
-11.95
-9.75
-7.26
-4.82
-2.78
-1.38
-0.68
-0.55
-0.75
-1.02
-1.22
-1.36
-1.54
-1.85
-2.34
-3
-3.8
-4.74
-5.8
-6.81
-7.46
-7.3
-5.86
-2.93
1.43
6.8
12.65
18.43
23.79
28.49
32.38
35.35
37.32
38.32
38.46
37.93
36.78
34.88
31.9
27.51
21.6
14.43
6.68
-0.87
-7.54
-13.08
-17.74
-22.19
-27.17
-33.16
-40.17
-47.55
-54.21
-58.83
-60.28
-57.87
-51.54
-41.94
-30.2
-17.81
-6.29
3.05
9.37
12.39
12.4
10.13
6.52
2.49
-1.22
-4.16
-6.17
-7.34
-7.74
-7.5
-6.6
-4.99
-2.67
0.28
3.67
7.29
10.98
14.74
18.55
22.43
26.27
29.85
32.91
35.23
36.67
37.16
36.72
35.35
33.1
30.08
26.54
22.8
19.21
15.99
13.17
10.6
8.03
5.28
2.33
-0.68
-3.55
-6.05
-8.11
-9.76
-11.04
-11.98
-12.52
-12.51
-11.85
-10.52
-8.62
-6.35
-4.02
-1.91
-0.22
0.96
1.7
2.2
2.64
3.18
3.9
4.81
5.9
7.11
8.3
9.28
9.84
9.85
9.32
8.46
7.58
7.01
6.85
6.94
6.96
6.54
5.47
3.76
1.56
-0.95
-3.63
-6.39
-9.14
-11.72
-14.06
-16.26
-18.69
-21.88
-26.22
-31.59
-37.24
-42.08
-45.1
-45.97
-45.15
-43.63
-42.3
-41.36
-40.21
-37.79
-33.23
-26.36
-17.71
-8.07
2.04
12.72
24.42
37.38
51.09
64.12
74.56
80.84
82.27
79.3
73.22
65.51
57.31
49.19
41.26
33.5
25.97
18.98
12.94
8.2
4.95
3.07
2.28
2.21
2.5
2.86
3.11
3.17
3.01
2.67
2.27
1.87
1.51
1.2
0.94
0.7
0.51
0.44
0.53
0.78
1.19
1.64
2.04
2.27
2.29
2.13
1.91
1.79
1.93
2.36
2.9
3.18
2.81
1.56
-0.44
-2.64
-4.28
-4.69
-3.6
-1.37
1.19
3.09
3.67
2.82
1.02
-0.98
-2.49
-3.19
-3.23
-3.07
-3.31
-4.47
-6.85
-10.44
-14.78
-18.77
-20.87
-19.64
-14.54
-6.66
1.24
5.56
3.36
-6.36
-22.08
-40.44
-57.53
-70.29
-77.13
-77.85
-72.96
-63.28
-49.66
-33.28
-15.73
1.07
15.24
25.4
31.05
32.41
30.37
26.11
21.04
16.5
13.49
12.34
12.53
12.94
12.31
9.77
5.12
-1.14
-8.05
-14.55
-19.64
-22.39
-21.9
-17.37
-8.44
4.51
20.23
36.78
52.11
64.58
73.38
78.47
80.25
79.1
75.03
67.64
56.6
42.15
25.57
9.12
-4.56
-13.39
-16.61
-15.02
-10.64
-5.81
-2.48
-1.71
-3.72
-8.03
-13.86
-20.2
-25.91
-29.95
-31.52
-30.28
-26.48
-20.9
-14.49
-8.07
-2.13
3.31
8.46
13.68
19.25
25.21
31.25
36.85
41.41
44.44
45.86
45.89
44.99
43.52
41.5
38.53
33.97
27.43
19.17
10.4
3.04
-0.92
-0.3
4.74
12.55
20.47
25.71
26.27
21.59
12.57
1.08
-10.9
-21.9
-31.12
-38.34
-43.56
-46.72
-47.79
-46.94
-44.72
-42.01
-39.65
-38.13
-37.53
-37.65
-38.31
-39.62
-41.81
-44.87
-48.19
-50.48
-50.15
-46.01
-37.86
-26.71
-14.46
-3.24
5.35
10.59
12.66
12.22
10.1
7.02
3.59
0.43
-1.79
-2.38
-0.89
2.67
7.83
13.83
19.88
25.37
29.98
33.57
36.1
37.45
37.59
36.56
34.68
32.5
30.64
29.54
29.25
29.45
29.61
29.18
27.84
25.52
22.27
18.04
12.65
5.75
-2.85
-12.95
-23.89
-34.49
-43.39
-49.33
-51.45
-49.5
-43.93
-35.76
-26.38
-17.28
-9.75
-4.58
-1.85
-1.02
-1.05
-0.76
0.95
4.85
11.23
19.77
29.49
38.91
46.29
50.24
50.28
47.18
42.83
39.6
39.44
43.03
49.38
56.24
60.92
61.42
57.17
49.18
39.47
30.19
22.83
17.94
15.34
14.59
15.38
17.54
20.69
23.97
26.07
25.59
21.71
14.63
5.58
-3.69
-11.56
-17.13
-20.43
-22.16
-23.27
-24.56
-26.51
-29.4
-33.42
-38.77
-45.44
-53.04
-60.64
-66.92
-70.56
-70.71
-67.32
-61.21
-53.74
-46.36
-40.14
-35.51
-32.38
-30.17
-28.2
-25.94
-23.14
-19.96
-16.88
-14.56
-13.65
-14.57
-17.31
-21.37
-25.87
-29.75
-31.99
-31.93
-29.5
-25.26
-20.28
-15.8
-12.75
-11.35
-10.87
-9.98
-7.37
-2.53
3.82
9.78
12.9
11.1
3.48
-9.25
-25
-40.88
-53.99
-62.25
-64.93
-62.79
-57.83
-52.58
-49.26
-49.14
-52.14
-57.08
-62.18
-65.69
-66.17
-62.69
-54.83
-42.69
-27.03
-9.21
8.94
25.33
38.12
46.06
48.75
46.64
40.9
33.15
25.14
18.57
14.79
14.64
18.25
25.05
33.86
43.26
51.9
58.82
63.57
66.13
66.64
65.28
62.17
57.47
51.58
45.06
38.5
32.21
25.99
19.37
11.9
3.55
-5.16
-13.41
-20.38
-25.66
-29.25
-31.41
-32.31
-31.82
-29.62
-25.42
-19.35
-12.02
-4.37
2.62
8.26
12.28
14.82
16.24
16.89
16.96
16.37
14.87
12.15
8.11
2.98
-2.74
-8.24
-12.69
-15.44
-16.15
-14.84
-11.82
-7.54
-2.55
2.52
7.1
10.76
13.23
14.55
15.04
15.15
15.32
15.75
16.34
16.83
16.93
16.45
15.41
13.88
11.95
9.69
7.25
4.85
2.92
1.94
2.27
4.07
7.13
11.02
15.27
19.35
22.8
25.23
26.35
26.09
24.58
22.11
18.96
15.4
11.59
7.79
4.42
1.97
0.86
1.17
2.56
4.37
6
7.13
7.76
8.07
8.14
7.86
7.04
5.54
3.34
0.49
-3.18
-8.04
-14.4
-22.21
-30.64
-38.24
-43.41
-45.12
-43.4
-39.37
-34.74
-30.96
-28.53
-26.72
-23.86
-18.02
-7.81
7.07
25.62
45.72
64.64
79.56
88.14
88.97
82.03
68.82
52.27
36.02
23.42
16.52
15.33
17.98
21.44
22.74
20.1
13.36
3.91
-6.01
-14.19
-19.07
-20.04
-17.38
-11.94
-4.85
2.74
9.81
15.46
18.91
19.69
17.8
13.86
8.98
4.42
1.11
-0.65
-1.38
-2.15
-4.13
-8.04
-13.84
-20.62
-26.97
-31.54
-33.55
-33.2
-31.38
-29.22
-27.51
-26.44
-25.79
-25.28
-24.93
-25.01
-25.66
-26.53
-26.78
-25.41
-22
-17
-11.63
-7.22
-4.58
-3.6
-3.44
-3.04
-1.65
0.81
3.88
6.71
8.52
8.8
7.56
5.38
3.22
2.15
2.9
5.55
9.45
13.46
16.31
16.88
14.53
9.33
2.37
-4.38
-8.45
-8.03
-3.15
3.62
7.83
4.88
-7.68
-28.71
-53.61
-76.2
-91.13
-95.78
-90.52
-77.81
-60.59
-41.2
-21.17
-1.61
16.3
31.25
42.14
48.47
50.57
49.3
45.7
40.69
34.99
29.16
23.66
18.85
14.98
12.19
10.53
10.05
10.77
12.56
14.91
16.95
17.6
15.96
11.82
5.78
-0.83
-6.6
-10.57
-12.59
-13.34
-13.82
-14.82
-16.48
-18.31
-19.51
-19.51
-18.26
-16.31
-14.48
-13.5
-13.74
-15.13
-17.23
-19.43
-21.06
-21.58
-20.62
-18.16
-14.63
-10.89
-8.05
-7.14
-8.74
-12.74
-18.37
-24.43
-29.75
-33.55
-35.65
-36.44
-36.6
-36.82
-37.47
-38.45
-39.24
-39.1
-37.33
-33.57
-27.85
-20.69
-12.93
-5.48
0.88
5.77
9.32
12.26
15.69
20.66
27.62
36.11
44.77
51.79
55.59
55.33
51.12
43.65
33.79
22.28
9.88
-2.32
-12.62
-18.93
-19.5
-13.81
-3.16
9.54
20.8
27.89
29.82
27.44
22.75
17.76
13.51
9.91
6.12
1.33
-4.6
-11.12
-17.3
-22.47
-26.49
-29.71
-32.41
-34.4
-34.76
-32.32
-26.19
-16.43
-4.28
8.14
18.46
24.89
26.73
24.52
19.63
13.73
8.34
4.52
2.7
2.82
4.41
6.74
9.04
10.54
10.65
9.06
5.84
1.42
-3.49
-8.1
-11.82
-14.31
-15.54
-15.74
-15.13
-13.81
-11.72
-8.72
-4.84
-0.4
4.05
7.99
11.07
13.28
14.71
15.41
15.33
14.25
12.05
8.83
5
1.17
-2.12
-4.45
-5.69
-5.95
-5.42
-4.43
-3.31
-2.37
-1.91
-2.09
-2.93
-4.28
-5.78
-6.99
-7.41
-6.65
-4.6
-1.49
2.08
5.34
7.57
8.45
8.05
6.85
5.49
4.48
3.89
3.35
2.2
-0.18
-4.04
-9.16
-14.81
-19.95
-23.52
-24.71
-23.17
-19.06
-12.96
-5.72
1.77
8.74
14.72
19.68
23.92
27.96
32.2
36.57
40.46
42.75
42.27
38.32
31.05
21.52
11.35
2.16
-4.9
-9.26
-10.88
-9.97
-6.96
-2.46
2.67
7.37
10.57
11.41
9.57
5.24
-0.99
-8.37
-16.32
-24.48
-32.62
-40.5
-47.55
-52.8
-55.06
-53.2
-46.61
-35.49
-20.86
-4.37
12.01
26.24
36.49
41.41
40.48
34.31
24.69
14.19
5.45
0.34
-0.49
2.38
7.57
13.59
19.27
23.87
26.98
28.45
28.28
26.78
24.53
22.17
20.15
18.48
16.72
14.11
10
4.15
-3.17
-11.26
-19.26
-26.41
-32.19
-36.33
-38.68
-39.2
-37.9
-34.84
-30.25
-24.5
-18.11
-11.7
-5.89
-1.27
1.67
2.64
1.65
-0.83
-3.9
-6.45
-7.62
-7.2
-5.83
-4.65
-4.67
-6.2
-8.64
-10.87
-11.85
-11.05
-8.43
-4.1
1.99
10.05
19.91
30.58
40.27
46.85
48.81
45.95
39.48
31.46
23.93
18.08
14.24
12.02
10.86
10.29
10.06
9.95
9.79
9.36
8.62
7.68
6.89
6.56
6.87
7.71
8.71
9.42
9.47
8.77
7.45
5.77
3.97
2.12
0.18
-1.97
-4.32
-6.7
-8.78
-10.23
-10.85
-10.65
-9.82
-8.65
-7.36
-6.03
-4.64
-3.15
-1.64
-0.29
0.6
0.76
0.07
-1.39
-3.29
-5.17
-6.59
-7.27
-7.18
-6.54
-5.67
-4.92
-4.48
-4.41
-4.59
-4.9
-5.3
-5.92
-6.94
-8.5
-10.6
-12.98
-15.25
-17.01
-18.06
-18.42
-18.36
-18.26
-18.44
-19.12
-20.4
-22.2
-24.26
-26.17
-27.45
-27.66
-26.75
-25.09
-23.5
-22.95
-24.17
-27.34
-32.01
-37.18
-41.56
-43.88
-43.19
-39.04
-31.63
-21.78
-10.77
-0.01
9.36
16.75
22.21
26.17
29.13
31.35
32.78
33.21
32.37
30.22
26.8
22.32
17.08
11.4
5.7
0.4
-4.09
-7.54
-9.87
-11.29
-12.1
-12.58
-12.86
-12.95
-12.77
-12.29
-11.54
-10.71
-10.07
-9.91
-10.39
-11.53
-13.06
-14.65
-16.02
-17.22
-18.8
-21.58
-26.33
-33.26
-41.73
-50.25
-56.86
-59.72
-57.49
-49.68
-36.56
-19.05
1.5
23.39
44.8
63.99
79.47
90.28
96.02
96.79
93.11
85.73
75.55
63.56
50.84
38.6
28.16
20.88
17.87
19.67
25.85
34.9
44.53
52.22
56.02
54.97
49.24
39.82
28.11
15.48
3.13
-7.97
-17.01
-23.44
-27.02
-27.96
-26.8
-24.21
-20.77
-16.68
-11.68
-5.15
3.54
14.64
27.6
41.01
52.9
61.44
65.59
65.45
62.18
57.36
52.43
48.13
44.46
41.02
37.44
33.63
29.85
26.47
23.79
21.91
20.66
19.53
17.79
14.55
9.04
0.88
-9.75
-22.13
-35.21
-47.98
-59.69
-69.84
-78.07
-83.95
-86.91
-86.41
-82.21
-74.6
-64.47
-53.12
-41.95
-32.18
-24.64
-19.67
-17.13
-16.61
-17.43
-18.78
-19.8
-19.65
-17.65
-13.48
-7.25
0.39
8.44
15.75
21.36
24.86
26.57
27.47
28.99
32.58
39.2
48.92
60.76
72.73
82.4
87.63
87.19
81.23
71.27
59.62
48.75
40.43
35.32
32.75
31.15
28.65
23.88
16.53
7.41
-1.84
-9.44
-14.11
-15.41
-13.69
-9.7
-4.34
1.63
7.44
12.34
15.55
16.54
15.22
12.14
8.35
4.94
2.61
1.36
0.54
-0.83
-3.62
-8.25
-14.58
-22.09
-30
-37.47
-43.66
-47.83
-49.5
-48.7
-46.11
-42.89
-40.24
-39
-39.18
-40.1
-40.86
-40.77
-39.75
-38.17
-36.56
-35.08
-33.48
-31.26
-28.05
-23.9
-19.32
-15.02
-11.62
-9.45
-8.48
-8.5
-9.14
-10.01
-10.66
-10.75
-10.12
-8.94
-7.62
-6.62
-6.29
-6.7
-7.84
-9.73
-12.41
-15.87
-19.77
-23.28
-25.29
-24.8
-21.33
-15.23
-7.59
0.16
6.67
11.08
12.97
12.42
9.78
5.66
0.75
-4.31
-8.98
-12.95
-16.06
-18.28
-19.63
-20.08
-19.55
-18.02
-15.51
-12.18
-8.36
-4.45
-0.79
2.49
5.64
9.27
14.16
20.89
29.32
38.36
46.1
50.32
49.17
41.82
28.64
11.18
-8.2
-26.86
-42.34
-52.76
-57.36
-56.68
-52.6
-47.85
-45.14
-46.26
-51.39
-59.01
-66.44
-70.83
-69.92
-62.73
-49.59
-31.87
-11.57
9.14
28.19
43.88
54.99
61.03
62.19
59.25
53.41
45.93
37.92
30.09
22.79
16
9.66
3.81
-1.27
-5.12
-7.29
-7.61
-6.42
-4.42
-2.48
-1.29
-0.95
-0.99
-0.53
1.24
4.76
9.86
15.88
21.92
27.07
30.5
31.53
29.61
24.31
15.6
3.93
-9.63
-23.52
-36.07
-45.85
-51.98
-54.16
-52.61
-47.77
-40.12
-30.18
-18.54
-6.09
6
16.44
24.08
28.38
29.49
28.2
25.58
22.51
19.45
16.45
13.34
9.96
6.41
3.04
0.23
-1.78
-2.99
-3.65
-4.19
-5.04
-6.54
-8.76
-11.46
-14.22
-16.64
-18.54
-19.98
-21.14
-22.09
-22.54
-21.97
-19.87
-16.19
-11.39
-6.32
-1.86
1.52
3.88
5.62
7.18
8.81
10.42
11.82
12.84
13.4
13.55
13.31
12.65
11.46
9.71
7.52
5.2
3.17
1.8
1.31
1.67
2.64
3.79
4.72
5.04
4.56
3.22
1.12
-1.48
-4.24
-6.77
-8.75
-10.02
-10.58
-10.54
-10.15
-9.65
-9.33
-9.39
-9.93
-10.84
-11.84
-12.63
-13.1
-13.51
-14.35
-16.04
-18.5
-21.03
-22.45
-21.65
-18.02
-11.78
-3.81
4.72
12.81
19.74
25.11
28.62
30.05
29.4
27.02
23.74
20.74
19.1
19.47
21.98
26.13
31.13
36.09
40.22
43.04
44.45
44.66
44.05
43.02
41.65
39.77
37.08
33.43
28.93
23.94
18.69
13.13
6.91
-0.26
-8.17
-15.96
-22.36
-26.28
-27.4
-26.31
-24.15
-22.02
-20.62
-19.99
-19.87
-20.08
-20.67
-21.92
-23.95
-26.45
-28.44
-28.66
-26.02
-20.2
-11.99
-3.09
4.38
8.63
8.83
5.33
-0.68
-7.71
-14.55
-20.62
-25.89
-30.69
-35.32
-39.72
-43.41
-45.54
-45.18
-41.53
-34.25
-23.54
-10.26
4.06
17.56
28.27
34.72
36.29
33.33
26.86
18.19
8.49
-1.35
-10.53
-18.32
-23.91
-26.61
-26.27
-23.45
-19.38
-15.56
-13.33
-13.36
-15.48
-18.77
-21.79
-23.12
-21.84
-17.79
-11.59
-4.3
3.06
9.96
16.55
23.45
31.3
40.31
49.93
58.92
65.78
69.23
68.71
64.52
57.63
49.31
40.65
32.34
24.64
17.7
11.65
6.74
3.16
0.91
-0.35
-1.14
-1.94
-2.99
-4.22
-5.37
-6.15
-6.46
-6.51
-6.62
-7.12
-8.16
-9.64
-11.35
-13
-14.43
-15.55
-16.4
-16.94
-17.1
-16.75
-15.83
-14.46
-12.92
-11.55
-10.6
-10.21
-10.28
-10.51
-10.33
-8.97
-5.54
0.72
10.07
22.1
35.61
48.9
60.11
67.77
71.11
70.27
66.25
60.63
55.05
50.49
46.86
43.01
37.24
28.24
15.89
1.46
-12.71
-24.01
-30.49
-31.56
-28.09
-22.3
-17.03
-14.98
-17.81
-25.64
-36.91
-48.91
-58.63
-63.64
-62.71
-55.68
-43.34
-27.08
-8.74
9.4
24.77
34.95
38.2
33.99
23.33
8.61
-6.86
-19.71
-27.37
-28.74
-24.46
-16.49
-7.45
0.36
5.62
8.24
9.06
9.24
9.66
10.62
11.88
12.95
13.39
13.02
11.97
10.64
9.62
9.61
11.21
14.73
19.75
25.04
28.59
28.27
22.65
11.88
-1.89
-15
-23.3
-23.76
-15.61
-0.87
16.27
30.81
38.65
37.89
29.33
16.11
2.44
-7.75
-12.08
-10.27
-4.05
3.6
9.49
11.26
8.16
1.2
-7.21
-14.1
-16.9
-14.36
-6.93
3.42
13.75
21.26
24.11
22.13
16.86
10.99
7.44
8.19
13.59
22.11
31.1
37.85
40.7
39.5
35.41
30.24
25.77
23.24
23.17
25.49
29.49
33.98
37.52
38.72
36.77
31.69
24.27
15.67
6.87
-1.77
-10.36
-19.13
-28.19
-37.26
-45.89
-53.43
-59.25
-62.59
-62.64
-58.7
-50.4
-38.28
-23.87
-9.63
1.68
7.78
7.67
1.82
-8
-19.47
-30.46
-39.58
-46.32
-50.84
-53.59
-55.06
-55.67
-55.9
-56.19
-56.73
-57.14
-56.37
-53
-45.86
-34.78
-20.95
-6.71
5.23
12.87
15.63
14.44
11.06
7.21
3.8
0.84
-2.09
-5.13
-7.78
-8.82
-6.92
-1.27
7.87
19.16
30.57
40.03
46.05
47.98
46.03
41.09
34.31
26.82
19.52
13.06
7.82
3.97
1.48
0.13
-0.41
-0.48
-0.31
-0.01
0.47
1.23
2.39
3.96
5.84
7.75
9.25
9.81
8.94
6.31
1.86
-4.09
-10.86
-17.52
-23.04
-26.55
-27.56
-26.09
-22.65
-17.97
-12.79
-7.64
-2.76
1.82
6.12
10.05
13.42
15.98
17.6
18.26
18.08
17.26
16.01
14.55
13.02
11.58
10.27
9.12
8.15
7.38
6.88
6.74
7.08
7.96
9.36
11.11
12.88
14.29
14.98
14.68
13.27
10.78
7.31
3.09
-1.61
-6.44
-10.98
-14.92
-18.01
-20.32
-22.03
-23.48
-24.83
-25.98
-26.6
-26.16
-24.25
-20.67
-15.63
-9.62
-3.31
2.67
7.82
11.8
14.51
15.99
16.46
16.24
15.7
15.18
14.95
15.13
15.62
16.1
16.08
15.09
12.94
9.81
6.29
3.06
0.55
-1.29
-2.98
-5.19
-8.24
-11.88
-15.32
-17.67
-18.34
-17.35
-15.21
-12.59
-10.1
-8
-6.33
-4.97
-3.71
-2.36
-0.73
1.32
3.67
5.92
7.5
7.86
6.73
4.25
0.82
-3.12
-7.32
-11.71
-16.31
-21.02
-25.58
-29.6
-32.74
-34.77
-35.6
-35.11
-33.16
-29.62
-24.58
-18.45
-11.92
-5.75
-0.57
3.26
5.69
6.88
7.07
6.56
5.8
5.38
5.99
8.11
11.76
16.36
20.94
24.35
25.61
24.19
20.05
13.6
5.61
-2.97
-11.14
-18.13
-23.61
-27.73
-30.91
-33.45
-35.1
-34.89
-31.24
-22.4
-7.11
14.69
41.36
69.63
95.2
113.99
123.29
122.7
114.02
100.42
85.26
71.14
59.5
50.88
45.4
42.87
42.63
43.31
42.91
39.41
31.75
20.47
7.69
-3.72
-11.31
-14.1
-12.92
-10.09
-8.37
-9.96
-15.66
-24.72
-35.1
-44.22
-49.76
-50.28
-45.52
-36.32
-24.28
-11.27
0.9
10.7
17.01
19.09
16.75
10.37
1.11
-9.26
-18.64
-25.02
-27.1
-24.8
-19.45
-13.47
-9.71
-10.5
-16.92
-28.57
-43.75
-60.05
-74.87
-85.73
-90.41
-87.3
-75.75
-56.65
-32.67
-7.86
13.43
27.79
33.86
32.52
26.26
18.12
10.64
5.31
2.5
1.79
2.45
3.7
4.85
5.42
5.07
3.52
0.45
-4.43
-11.21
-19.53
-28.42
-36.41
-41.96
-43.87
-41.72
-35.78
-26.82
-15.64
-2.88
10.99
25.44
39.61
52.2
61.56
66.07
64.76
57.73
46.37
33.09
20.75
11.76
7.56
8.37
13.35
21.06
29.75
37.69
43.3
45.41
43.58
38.31
30.91
22.97
15.69
9.47
4.05
-0.96
-5.66
-9.63
-12.37
-13.76
-14.4
-15.46
-18.11
-22.89
-29.6
-37.36
-45.05
-51.55
-55.86
-57.03
-54.42
-47.86
-38.06
-26.55
-15.32
-6.16
-0.08
2.87
3.32
1.94
-0.99
-5.56
-11.86
-19.54
-27.55
-34.37
-38.69
-39.81
-37.98
-34.07
-29.02
-23.39
-17.24
-10.36
-2.76
5.07
12.26
17.92
21.46
22.86
22.51
21.09
19.27
17.65
16.63
16.42
16.91
17.65
17.96
17.08
14.55
10.44
5.42
0.64
-2.6
-3.23
-0.62
5.22
13.62
23.45
33.18
41.34
46.67
48.48
46.7
41.82
34.72
26.38
17.72
9.5
2.31
-3.36
-7.18
-8.98
-8.95
-7.53
-5.36
-3.09
-1.17
0.21
1.09
1.58
1.72
1.37
0.38
-1.35
-3.68
-6.26
-8.66
-10.5
-11.64
-12.12
-12.18
-12.04
-11.87
-11.72
-11.57
-11.36
-11.07
-10.75
-10.43
-10.14
-9.89
-9.64
-9.44
-9.42
-9.81
-10.83
-12.55
-14.71
-16.94
-18.88
-20.49
-22.1
-24.31
-27.59
-32.08
-37.44
-42.97
-47.92
-51.73
-53.96
-54.29
-52.36
-47.89
-40.91
-32.03
-22.43
-13.55
-6.43
-1.1
3.54
9.44
18.45
31.41
47.6
64.96
80.85
92.94
99.86
101.22
97.4
89.11
77.24
62.92
47.79
33.87
23.11
16.86
15.3
17.33
20.86
23.57
23.52
19.67
12.02
1.33
-11.2
-24.3
-36.73
-47.36
-55
-58.62
-57.58
-51.97
-42.84
-31.99
-21.43
-12.72
-6.43
-2.19
0.98
3.98
7.24
10.63
13.67
15.94
17.28
17.86
17.82
17.11
15.34
12.12
7.22
0.97
-5.88
-12.37
-17.81
-22.04
-25.44
-28.68
-32.2
-36.01
-39.62
-42.36
-43.75
-43.87
-43.27
-42.69
-42.68
-43.25
-43.98
-44.23
-43.6
-41.99
-39.64
-36.78
-33.46
-29.53
-24.86
-19.65
-14.47
-10.06
-7.03
-5.55
-5.25
-5.48
-5.56
-5
-3.55
-0.9
3.51
10.55
21.06
35.3
52.42
70.24
85.75
96.06
99.49
96.29
88.41
78.62
69.31
61.55
55.01
48.61
41.42
33.19
24.31
15.36
6.55
-2.35
-11.63
-21.11
-29.61
-35.09
-35.35
-28.96
-15.95
1.83
21.22
38.54
50.66
55.79
53.73
45.72
33.9
20.65
7.98
-2.73
-10.86
-16.36
-19.55
-21.02
-21.51
-21.83
-22.84
-25.26
-29.47
-35.39
-42.42
-49.55
-55.73
-60.16
-62.5
-62.98
-62.23
-60.97
-59.82
-59.1
-58.74
-58.5
-57.94
-56.63
-54.12
-50.02
-43.93
-35.61
-25.04
-12.6
0.85
14.13
25.89
34.9
40.42
42.39
41.39
38.49
34.95
31.84
29.81
29.13
29.65
30.95
32.45
33.43
33.15
31.05
26.97
21.31
14.96
8.93
3.95
0.1
-3.2
-6.86
-11.66
-17.83
-24.92
-31.97
-37.85
-41.62
-42.76
-41.23
-37.39
-31.87
-25.39
-18.62
-12.09
-6.14
-1
3.29
6.71
9.35
11.38
13.01
14.39
15.45
15.88
15.3
13.4
10.28
6.49
2.84
0.09
-1.3
-1.31
-0.15
1.9
4.72
8.21
12.11
15.94
19.03
20.79
21.03
20.07
18.62
17.44
16.95
17.1
17.44
17.34
16.36
14.45
11.9
9.24
6.89
5.07
3.75
2.77
1.97
1.39
1.16
1.41
2.18
3.23
4.21
4.76
4.75
4.27
3.62
3.08
2.76
2.56
2.29
1.8
1.14
0.52
0.15
0.15
0.41
0.64
0.49
-0.3
-1.82
-3.9
-6.21
-8.42
-10.32
-11.91
-13.43
-15.16
-17.35
-20
-22.86
-25.49
-27.51
-28.73
-29.34
-29.85
-30.8
-32.57
-35.22
-38.43
-41.7
-44.55
-46.72
-48.17
-49.08
-49.63
-50.04
-50.46
-50.87
-50.89
-49.63
-45.77
-37.95
-25.47
-8.77
10.48
29.85
47.05
60.62
70.29
76.76
81.19
84.61
87.6
90.26
92.28
93.18
92.38
89.43
84.34
77.69
70.63
64.57
60.68
59.4
60.28
62.17
63.56
63.03
59.49
52.37
41.53
27.27
10.32
-8.22
-27.03
-44.84
-60.66
-73.92
-84.38
-91.98
-96.61
-98.17
-96.61
-92.13
-85.15
-76.33
-66.37
-55.92
-45.46
-35.37
-25.99
-17.6
-10.34
-4.22
0.95
5.46
9.49
13.02
15.78
17.34
17.24
15.24
11.46
6.4
0.91
-4.08
-7.74
-9.69
-9.98
-9.04
-7.41
-5.28
-2.48
1.58
7.51
15.59
25.53
36.65
48.19
59.63
70.77
81.41
90.98
98.39
102.26
101.45
95.64
85.51
72.5
58.21
43.86
30.08
16.85
3.92
-8.89
-21.46
-33.29
-43.6
-51.47
-56.14
-57.34
-55.56
-52.07
-48.61
-46.73
-47.12
-49.17
-51.2
-51.11
-47.35
-39.57
-28.81
-16.97
-6.17
1.98
6.52
7.11
3.89
-2.47
-10.54
-18.21
-23.1
-23.51
-19.2
-11.72
-3.87
1.4
2.12
-2.04
-9.85
-19.08
-27.41
-32.95
-34.5
-31.42
-23.43
-10.56
6.72
27.2
48.79
68.62
83.59
91.27
90.55
82.11
68.17
51.83
36.21
23.8
16.14
13.8
16.48
22.86
30.73
37.17
39.1
34.19
21.66
2.63
-20.13
-43.21
-63.6
-79.45
-90.26
-96.39
-98.45
-96.85
-91.66
-83.02
-71.4
-57.76
-43.28
-29.17
-16.34
-5.39
3.26
9.32
12.56
12.98
10.96
7.38
3.4
0.23
-1.3
-1.03
0.43
1.82
1.64
-1.34
-7.43
-15.59
-23.46
-28.03
-26.6
-17.85
-2.52
16.72
36.04
51.65
61.1
63.95
61.73
57.19
53.2
51.68
53.09
56.4
59.62
60.53
57.43
49.6
37.45
22.45
6.85
-6.63
-15.2
-16.68
-10.11
3.69
22.11
41.2
56.73
65.36
65.64
58.2
45.44
30.47
16.06
3.93
-5.51
-12.71
-18.42
-23.15
-27
-29.82
-31.6
-32.68
-33.67
-35.24
-37.58
-40.34
-42.73
-43.98
-43.71
-42.2
-40.13
-38.21
-36.88
-36.08
-35.51
-34.84
-34.03
-33.27
-32.91
-33.14
-33.9
-34.9
-35.79
-36.33
-36.41
-36.04
-35.2
-33.91
-32.21
-30.24
-28.23
-26.34
-24.5
-22.27
-18.99
-14.1
-7.62
-0.16
7.11
12.96
16.5
17.5
16.28
13.58
10.22
6.87
4.12
2.44
2.27
3.9
7.27
11.94
17.11
21.85
25.35
26.98
26.42
23.54
18.68
12.62
6.74
2.81
2.46
6.55
14.75
25.45
36.3
44.95
49.65
49.57
44.79
36.01
24.45
11.66
-0.63
-10.74
-17.39
-20.06
-19
-15.13
-9.62
-3.61
2.07
7.06
11.44
15.78
20.99
27.94
37.03
47.73
58.46
67.01
71.18
69.79
63.18
53.21
42.59
33.85
28.44
26.3
26.12
25.8
23.08
16.14
4.05
-12.94
-33.32
-54.38
-72.72
-84.92
-88.45
-82.48
-68.27
-48.87
-28.18
-9.87
3.58
11.23
13.44
11.32
6.22
-0.53
-7.59
-13.48
-16.77
-16.36
-12.12
-5.11
2.79
9.38
13.08
13.24
10.14
4.71
-1.91
-8.69
-14.81
-19.7
-23.1
-25.13
-26.23
-27.18
-28.66
-30.99
-33.95
-36.89
-39.05
-39.93
-39.43
-37.76
-35.3
-32.26
-28.66
-24.35
-19.12
-12.85
-5.52
2.87
12.22
22.32
32.8
43.04
52.32
59.88
65.16
67.81
67.73
64.98
59.75
52.38
43.48
33.96
24.95
17.51
12.26
9.13
7.24
5.3
2.13
-2.79
-8.84
-14.33
-17.02
-15.04
-7.71
3.87
17.05
28.23
33.93
31.9
21.86
5.64
-13.41
-31.48
-45.5
-54.12
-57.94
-59.03
-59.84
-62.2
-66.62
-72.4
-78.23
-82.86
-85.71
-86.75
-86.2
-83.9
-79.14
-70.65
-57.05
-37.48
-12.2
17.22
48.11
77.2
101.47
118.53
127.2
127.34
119.72
105.88
87.95
68.53
50.34
35.65
25.67
20.25
17.95
16.47
13.39
6.95
-3.59
-17.82
-34.35
-51.28
-66.54
-78.29
-85.3
-87.06
-83.84
-76.58
-66.63
-55.41
-44.26
-34.21
-25.83
-19.03
-13.03
-6.67
1.22
11.09
22.32
33.34
42.16
47.33
48.6
46.93
43.93
41.04
38.95
37.63
36.76
36.15
35.92
36.18
36.77
37.07
36.35
34.15
30.74
26.97
23.9
22.35
22.46
23.86
25.88
27.81
29.07
29.32
28.36
26.17
22.97
19.11
15.12
11.48
8.54
6.39
4.96
4.07
3.47
2.99
2.5
1.97
1.44
0.97
0.56
0.13
-0.51
-1.59
-3.17
-5.05
-6.78
-7.8
-7.75
-6.63
-4.97
-3.58
-3.24
-4.34
-6.63
-9.23
-11.03
-11.05
-8.7
-4.12
2.09
8.98
15.64
21.34
25.56
28.03
28.66
27.64
25.28
22.07
18.3
13.92
8.52
1.64
-6.61
-15.18
-22.08
-25.11
-22.89
-15.73
-5.89
3.19
8.31
7.84
2.37
-5.77
-13.66
-19.05
-21.11
-20.47
-18.62
-17.17
-17.25
-19.23
-22.69
-26.73
-30.37
-32.91
-34.14
-34.25
-33.68
-32.85
-31.95
-30.94
-29.61
-27.77
-25.28
-22.05
-17.88
-12.62
-6.32
0.64
7.56
13.63
18.32
21.64
24.11
26.55
29.68
33.72
38.19
42.13
44.4
44.11
40.96
35.13
26.96
16.77
4.74
-8.85
-23.17
-36.76
-47.76
-54.5
-56.27
-53.69
-48.56
-43.17
-39.47
-38.42
-39.93
-43.28
-47.73
-53
-59.1
-66.01
-73.24
-79.56
-83.16
-82.15
-75.04
-61.14
-40.91
-16.01
10.81
35.99
55.89
67.73
70.3
64.4
52.63
38.46
25.28
15.54
10.49
10.33
14.5
21.89
30.83
39.11
44.05
43.1
34.66
18.75
-2.73
-26.46
-48.74
-66.63
-78.59
-84.64
-85.81
-83.4
-78.34
-71.13
-61.86
-50.65
-37.72
-23.53
-8.71
6.02
19.82
31.84
41.36
47.99
51.75
53.01
52.26
49.91
46.22
41.39
35.66
29.4
23.02
16.79
10.85
5.23
0.03
-4.43
-7.74
-9.58
-9.97
-9.28
-8.2
-7.43
-7.47
-8.46
-10.18
-12.19
-13.94
-14.99
-15.09
-14.29
-12.92
-11.51
-10.57
-10.34
-10.65
-11.01
-10.79
-9.62
-7.47
-4.75
-2.11
-0.16
0.83
0.95
0.64
0.42
0.63
1.31
2.14
2.46
1.51
-1.41
-6.52
-13.4
-20.8
-26.93
-29.91
-28.48
-22.54
-13.28
-2.81
6.6
13.3
16.63
16.84
14.78
11.39
7.58
4.27
2.49
3.3
7.44
14.82
24.27
33.65
40.53
43.07
40.71
34.42
26.16
18.16
12.03
8.34
6.6
5.84
5.19
4.27
3.32
2.94
3.84
6.62
11.72
19.36
29.43
41.28
53.57
64.35
71.61
73.94
71.12
64.01
54.02
42.32
29.46
15.63
1.28
-12.49
-23.99
-31.68
-35
-34.68
-32.32
-29.49
-27.05
-24.91
-22.47
-19.19
-14.95
-9.99
-4.63
0.86
6.19
10.78
13.76
14.24
11.74
6.53
-0.19
-6.62
-10.86
-11.46
-7.85
-0.52
9.05
18.68
26.05
29.34
27.84
22.18
14.25
6.58
1.54
0.65
4.17
11.16
19.8
27.9
33.36
34.74
31.64
24.96
16.66
9.28
5
4.85
8.34
13.71
18.84
22.11
23.05
22.36
21.36
21.29
22.76
25.6
28.98
31.65
32.21
29.34
22.2
10.75
-3.92
-19.62
-33.46
-42.72
-45.72
-42.53
-34.88
-25.61
-17.72
-13.36
-13.34
-17.03
-22.88
-29.11
-34.34
-38
-40.28
-41.9
-43.44
-45.08
-46.37
-46.49
-44.66
-40.71
-35.38
-30.32
-27.62
-29.06
-35.53
-46.59
-60.56
-74.89
-86.62
-92.97
-91.8
-82.2
-64.79
-41.8
-16.74
6.33
23.83
33.56
35.16
30.08
20.92
10.76
2.34
-2.46
-2.96
0.3
5.93
12.15
17.38
20.63
21.67
20.8
18.67
15.99
13.32
10.98
9.01
7.21
5.32
3.23
1.02
-0.98
-2.3
-2.57
-1.71
0.03
2.29
4.62
6.76
8.57
10.03
11.14
11.75
11.7
10.84
9.26
7.25
5.24
3.62
2.64
2.4
2.81
3.86
5.44
7.5
9.87
12.34
14.55
16.16
16.89
16.56
15.14
12.64
9.21
5.07
0.52
-4.16
-8.73
-13.03
-17.04
-20.69
-23.92
-26.57
-28.44
-29.34
-29.19
-28.16
-26.48
-24.47
-22.37
-20.32
-18.35
-16.47
-14.68
-12.94
-11.18
-9.23
-6.95
-4.2
-1.04
2.37
5.82
9.24
12.73
16.44
20.43
24.48
28.09
30.62
31.63
31.04
29.17
26.58
23.8
21.13
18.61
16.19
13.84
11.62
9.64
8.01
6.66
5.41
4.09
2.58
0.98
-0.49
-1.56
-2.15
-2.35
-2.4
-2.63
-3.21
-4.16
-5.33
-6.49
-7.42
-8.03
-8.35
-8.49
-8.68
-9.14
-10
-11.26
-12.67
-13.79
-14.13
-13.42
-11.7
-9.39
-7.03
-5.03
-3.51
-2.29
-1.11
0.21
1.63
3.05
4.42
5.92
7.93
10.76
14.58
19.16
24
28.36
31.64
33.42
33.59
32.28
29.57
25.59
20.47
14.58
8.53
3.09
-1.41
-5.44
-10.22
-17.17
-26.87
-38.45
-49.58
-57.34
-59.55
-55.81
-47.47
-36.84
-26.04
-16.16
-7.22
1.17
9.16
16.24
21.45
23.94
23.44
20.33
15.45
9.74
3.97
-1.21
-5.2
-7.42
-7.4
-4.96
-0.36
5.73
12.46
18.97
24.5
28.41
30.06
29
25.2
19.24
12.43
6.43
2.77
2.31
5.03
10.01
16.04
21.98
27.11
31.28
34.63
37.39
39.59
41
41.21
39.85
36.86
32.4
26.89
20.8
14.56
8.68
3.86
1.02
1.07
4.45
10.68
18.5
26.18
32.22
35.85
37.13
36.51
34.34
30.53
24.68
16.65
6.96
-3.14
-12.09
-18.75
-22.79
-24.7
-25.39
-25.73
-26.12
-26.57
-26.93
-27
-26.78
-26.27
-25.38
-23.89
-21.54
-18.16
-13.76
-8.61
-3.11
2.15
6.58
9.63
10.91
10.5
8.91
7.02
5.66
5.27
5.63
5.89
5.08
2.62
-1.27
-5.39
-8.09
-7.87
-4.1
2.65
10.68
17.87
22.27
22.76
19.23
12.34
3.12
-7.41
-18.43
-29.28
-39.28
-47.66
-53.55
-56.24
-55.35
-51.02
-43.98
-35.39
-26.62
-18.88
-12.93
-8.94
-6.51
-5.08
-4.15
-3.57
-3.54
-4.37
-6.24
-8.98
-12.12
-15.04
-17.3
-18.78
-19.65
-20.28
-21
-22.04
-23.45
-25.2
-27.22
-29.45
-31.8
-34.14
-36.25
-37.81
-38.46
-37.94
-36.19
-33.41
-30.04
-26.38
-22.4
-17.55
-10.96
-1.86
9.86
23.46
37.6
50.72
61.68
69.95
75.63
79.14
81.1
82.07
82.52
82.77
82.81
82.31
80.6
76.87
70.55
61.64
50.71
38.83
27.22
16.82
7.93
0.13
-7.53
-16.14
-26.47
-38.68
-52.23
-66.07
-78.78
-88.72
-94.14
-93.51
-85.97
-71.9
-53.13
-32.61
-13.42
2.26
13.98
22.93
31.01
39.77
49.44
58.95
66.54
70.76
71.23
68.63
64.33
59.56
54.97
50.52
45.79
40.42
34.47
28.44
23.12
19.32
17.63
18.26
21.01
25.32
30.45
35.77
40.87
45.6
49.89
53.35
55.13
53.9
48.3
37.47
21.6
1.9
-19.73
-41.24
-60.91
-77.49
-90.13
-98.2
-101.24
-99.1
-92.12
-81.25
-67.92
-53.83
-40.51
-29.05
-19.89
-12.87
-7.44
-2.99
0.83
4.03
6.31
7.36
7.14
5.98
4.47
3.19
2.51
2.38
2.51
2.42
1.65
-0.02
-2.65
-6.06
-9.98
-14.11
-18.26
-22.32
-26.29
-30.11
-33.62
-36.56
-38.63
-39.67
-39.78
-39.27
-38.56
-37.97
-37.52
-36.98
-35.98
-34.08
-30.96
-26.47
-20.67
-13.82
-6.43
0.93
7.71
13.5
18.16
21.73
24.28
25.84
26.19
24.83
21.14
14.55
4.97
-6.83
-19.11
-29.42
-35.23
-34.94
-28.47
-17.31
-3.91
9.28
20.66
29.67
36.5
41.62
45.2
47.25
47.82
47.21
45.94
44.44
42.6
39.81
35.15
27.93
18.15
6.75
-4.6
-13.94
-19.55
-20.34
-16.1
-7.46
4.19
17.08
29.4
39.53
46.34
49.16
47.85
42.82
35.22
26.74
19.25
14.1
11.24
9.11
5.1
-3.16
-16.51
-33.6
-51.47
-66.84
-77.49
-83.02
-84.44
-83.3
-80.76
-77.16
-72.32
-66.05
-58.67
-51.08
-44.35
-39.28
-35.99
-33.82
-31.58
-28.01
-22.29
-14.4
-5.14
4.22
12.45
18.87
23.39
26.37
28.14
28.8
28.14
25.93
22.22
17.51
12.74
8.91
6.83
6.74
8.37
11.01
13.81
15.99
17.02
16.7
15.1
12.6
9.74
7.15
5.33
4.54
4.72
5.53
6.57
7.52
8.18
8.47
8.42
7.96
7.1
5.95
4.75
3.82
3.4
3.47
3.81
4.07
3.97
3.39
2.36
1.02
-0.46
-1.84
-2.83
-3.19
-2.83
-2.01
-1.29
-1.4
-2.9
-5.93
-10.09
-14.74
-19.22
-23.08
-26.12
-28.11
-28.68
-27.35
-23.79
-18.06
-10.78
-2.9
4.57
10.96
16.07
20.1
23.47
26.55
29.6
32.7
35.73
38.49
40.77
42.47
43.82
45.25
47.31
50.33
54.27
58.69
62.88
66.11
67.89
67.99
66.46
63.53
59.56
54.96
50.14
45.45
41.03
36.85
32.72
28.5
24.17
19.92
16.14
13.27
11.59
11.03
11.12
11.07
10.06
7.59
3.71
-1.04
-5.88
-10.1
-13.46
-16.18
-18.84
-22.06
-26.15
-30.99
-36.06
-40.69
-44.27
-46.49
-47.3
-46.91
-45.63
-43.79
-41.73
-39.78
-38.25
-37.28
-36.75
-36.23
-35.19
-33.25
-30.46
-27.37
-24.83
-23.69
-24.37
-26.73
-30.04
-33.19
-35.06
-34.94
-32.91
-30.04
-28.05
-28.69
-32.81
-39.91
-48.21
-55.34
-59.24
-58.87
-54.41
-47.01
-38.43
-30.64
-25.49
-24.32
-27.6
-34.59
-43.39
-51.28
-55.6
-54.5
-47.41
-35.13
-19.45
-2.69
12.91
25.45
33.85
38
38.64
37.1
34.77
32.74
31.51
31.1
31.26
31.68
32.14
32.48
32.52
32.04
30.86
28.85
26
22.44
18.33
13.72
8.55
2.55
-4.55
-12.85
-22.07
-31.43
-39.76
-45.78
-48.48
-47.54
-43.39
-37.05
-29.81
-22.84
-17.11
-13.26
-11.59
-11.89
-13.43
-14.91
-14.85
-12.19
-6.85
0.11
6.82
11.4
12.77
11.02
7.26
3.02
-0.37
-2.2
-2.33
-0.95
1.71
5.55
10.51
16.46
22.99
29.43
34.99
39.05
41.3
41.92
41.44
40.47
39.41
38.29
36.71
34.24
30.73
26.47
22.15
18.52
16.04
14.68
14.02
13.46
12.5
10.97
8.92
6.57
4.12
1.64
-0.9
-3.54
-6.28
-9.02
-11.51
-13.48
-14.7
-15.09
-14.74
-13.9
-12.88
-11.94
-11.25
-10.92
-10.97
-11.41
-12.18
-13.09
-13.84
-14.07
-13.42
-11.73
-9.13
-6
-2.86
-0.18
1.78
3.02
3.78
4.39
5.08
5.97
6.94
7.83
8.49
8.82
8.76
8.28
7.35
6.06
4.72
3.88
4.24
6.38
10.45
16.09
22.5
28.73
33.99
37.91
40.5
41.92
42.23
41.34
39.1
35.5
30.86
25.79
20.87
16.33
11.81
6.63
0.18
-7.61
-16.09
-24.15
-30.69
-35.06
-37.19
-37.48
-36.56
-35.1
-33.85
-33.5
-34.63
-37.31
-40.94
-44.27
-45.82
-44.5
-40.05
-33.22
-25.32
-17.64
-10.86
-4.98
0.49
6.04
11.83
17.5
22.29
25.38
25.93
23.19
16.51
5.52
-9.31
-26.3
-42.65
-55.27
-61.99
-62.71
-59.37
-54.9
-51.55
-49.7
-47.73
-43.21
-34.36
-21.15
-5.27
10.91
25.57
38
48.39
57.11
64.13
68.88
70.65
69.16
64.82
58.72
52.18
46.31
41.69
38.38
36.05
34.15
32.16
29.7
26.65
23.08
19.26
15.44
11.57
7.3
2.1
-4.37
-11.82
-19.2
-24.91
-27.3
-25.37
-19.34
-10.62
-1.44
5.82
9.39
8.53
3.52
-4.53
-14.09
-23.7
-32.17
-38.67
-42.57
-43.38
-40.63
-34.08
-23.88
-10.78
3.81
18.17
30.64
40.15
46.43
49.95
51.57
52.15
52.2
51.87
51
49.29
46.42
42.2
36.58
29.72
22.04
14.2
6.98
1.11
-2.88
-4.9
-5.16
-4.09
-2.23
-0.12
1.88
3.5
4.61
5.16
5.12
4.53
3.6
2.59
1.87
1.69
2.14
3.02
3.94
4.49
4.44
3.87
3.1
2.52
2.33
2.49
2.72
2.73
2.31
1.46
0.29
-1.06
-2.51
-4.03
-5.7
-7.6
-9.83
-12.55
-15.84
-19.7
-24.02
-28.57
-33.13
-37.62
-42.12
-46.91
-52.2
-57.95
-63.65
-68.36
-70.81
-69.82
-64.56
-54.92
-41.63
-26.24
-10.75
2.69
12.39
17.55
18.57
17.02
15.19
15.5
19.68
28.32
40.56
54.39
67.12
76.09
79.37
76.2
67.1
53.67
38.03
22.33
8.34
-2.76
-10.36
-14.38
-15.2
-13.74
-11.28
-9.28
-8.92
-10.87
-15.03
-20.81
-27.27
-33.56
-38.95
-42.86
-44.86
-44.64
-42.29
-38.48
-34.53
-32.03
-32.39
-36.18
-42.86
-50.87
-58.18
-62.91
-63.91
-60.88
-54.09
-44.1
-31.4
-16.41
0.28
17.74
34.66
49.51
60.86
67.76
69.89
67.66
62.06
54.43
46.22
38.82
33.28
30.29
29.99
31.99
35.35
38.75
40.65
39.72
35.2
27.03
15.87
2.72
-11.52
-26.29
-41.35
-56.44
-70.73
-82.8
-90.9
-93.53
-90.14
-81.33
-68.55
-53.53
-37.6
-21.38
-5.08
11.11
26.54
40.08
50.47
56.95
59.56
59.14
56.91
53.96
50.81
47.45
43.52
38.58
32.49
25.45
18.04
11.07
5.43
1.89
0.85
2.19
5.48
10.06
15.38
21.11
27.04
32.82
37.86
41.26
42.19
40.18
35.45
28.83
21.39
14.14
7.67
2.16
-2.45
-6.24
-9.17
-11.1
-12
-12.07
-11.75
-11.54
-11.8
-12.58
-13.64
-14.58
-15.11
-15.14
-14.76
-14.17
-13.56
-13.01
-12.45
-11.85
-11.17
-10.41
-9.61
-8.75
-7.73
-6.46
-4.92
-3.19
-1.52
-0.14
0.75
1.18
1.38
1.65
2.25
3.26
4.55
5.81
6.74
7.1
6.82
5.97
4.66
3.01
1.11
-0.93
-2.93
-4.67
-5.9
-6.59
-6.85
-7.04
-7.47
-8.32
-9.49
-10.66
-11.48
-11.79
-11.65
-11.35
-11.21
-11.4
-11.83
-12.27
-12.47
-12.31
-11.93
-11.61
-11.61
-12.02
-12.71
-13.39
-13.85
-13.88
-13.43
-12.48
-10.99
-9.04
-6.84
-4.84
-3.56
-3.3
-3.8
-4.3
-3.69
-1.02
4.05
11.09
19.09
26.72
32.85
36.79
38.42
38.07
36.39
34.09
31.76
29.84
28.46
27.6
27.08
26.7
26.26
25.63
24.68
23.29
21.39
18.91
15.87
12.32
8.4
4.28
0.17
-3.76
-7.39
-10.62
-13.36
-15.41
-16.49
-16.35
-14.86
-12.21
-8.83
-5.33
-2.26
-0.03
1.24
1.67
1.44
0.83
0.07
-0.61
-0.99
-0.93
-0.45
0.3
1.1
1.72
2.07
2.18
2.21
2.27
2.44
2.62
2.67
2.44
1.8
0.63
-1.11
-3.41
-6.24
-9.35
-12.39
-14.94
-16.6
-17.2
-16.84
-15.91
-14.9
-14.3
-14.35
-15.05
-16.14
-17.25
-18.04
-18.32
-18.19
-18.01
-18.46
-20.29
-24.08
-29.89
-37.04
-44.12
-49.28
-50.78
-47.49
-39.26
-26.87
-11.96
3.41
17.19
27.67
34.06
36.61
36.65
36.05
36.54
38.96
42.97
47.39
50.82
52.35
51.9
50.08
47.61
45
42.41
39.88
37.66
36.09
35.53
35.85
36.42
36.1
33.79
28.92
21.63
12.71
3.11
-6.48
-15.75
-24.75
-33.52
-41.91
-49.49
-55.79
-60.46
-63.51
-65.23
-66.06
-66.4
-66.39
-65.85
-64.39
-61.57
-57.1
-51.02
-43.7
-35.73
-27.7
-19.95
-12.52
-5.28
1.86
8.74
14.93
19.95
23.53
25.72
26.87
27.45
27.79
27.96
27.86
27.35
26.41
25.16
23.8
22.5
21.36
20.37
19.44
18.44
17.23
15.7
13.84
11.73
9.51
7.41
5.59
4.12
2.95
1.85
0.57
-1.06
-3.06
-5.26
-7.33
-8.96
-9.98
-10.47
-10.69
-10.99
-11.56
-12.39
-13.24
-13.86
-14.07
-13.88
-13.53
-13.28
-13.32
-13.66
-14.08
-14.28
-14.03
-13.38
-12.6
-12.03
-11.85
-11.84
-11.44
-10
-7.12
-2.78
2.81
9.54
17.56
27.06
37.75
48.59
57.84
63.71
65.15
62.19
55.81
47.22
37.25
26.2
14.18
1.8
-9.59
-18.05
-21.83
-20.09
-13.34
-3.23
8.07
18.52
26.88
32.71
36.18
37.71
37.63
36.07
33.16
29.16
24.59
20.03
15.97
12.51
9.44
6.42
3.26
0.11
-2.65
-4.62
-5.59
-5.68
-5.32
-5.04
-5.38
-6.58
-8.59
-11.04
-13.35
-14.97
-15.46
-14.75
-13.1
-11.02
-9.1
-7.73
-7.01
-6.71
-6.49
-6.01
-5.15
-4.08
-3.07
-2.43
-2.3
-2.61
-3.13
-3.52
-3.54
-3.09
-2.38
-1.8
-1.83
-2.84
-4.93
-7.81
-11.01
-13.99
-16.42
-18.25
-19.62
-20.81
-22.14
-23.93
-26.55
-30.24
-35.01
-40.36
-45.36
-48.74
-49.46
-47.04
-41.77
-34.66
-27.09
-20.35
-15.48
-13.06
-13.25
-15.79
-20.1
-25.26
-30.26
-34.2
-36.54
-37.31
-36.99
-36.29
-35.81
-35.7
-35.41
-33.79
-29.36
-20.75
-7.12
11.37
33.47
56.87
78.67
96.17
107.51
112.31
111.61
107.38
101.61
95.58
89.52
82.99
75.6
67.43
59.1
51.17
43.52
35.14
24.57
10.88
-5.52
-22.74
-38
-48.61
-52.93
-50.7
-42.93
-31.46
-18.61
-6.82
1.66
5.27
3.56
-2.62
-11.41
-20.63
-28.43
-33.88
-36.85
-37.77
-37.25
-35.82
-34.01
-32.32
-31.25
-31.1
-31.82
-33
-34.09
-34.52
-33.95
-32.2
-29.16
-24.75
-18.95
-11.88
-3.99
3.89
10.68
15.36
17.24
16.27
12.94
8.19
3.11
-1.36
-4.63
-6.46
-7
-6.58
-5.62
-4.55
-3.67
-3.13
-2.9
-2.93
-3.2
-3.83
-5.07
-7.16
-10.14
-13.73
-17.41
-20.52
-22.66
-23.84
-24.57
-25.65
-27.76
-31.13
-35.35
-39.52
-42.52
-43.46
-41.97
-38.33
-33.48
-28.63
-24.99
-23.43
-24.23
-27.03
-30.94
-34.83
-37.61
-38.67
-37.87
-35.51
-31.98
-27.53
-21.93
-14.49
-4.3
9.29
26.09
44.79
63.13
78.61
89.3
94.49
94.89
92.08
87.77
83.08
78.26
72.91
66.53
58.96
50.6
42.33
35.31
30.79
29.87
33.2
40.73
51.31
62.78
72.33
77.26
75.92
68.38
56.43
42.94
30.97
22.71
19.04
19.43
22.33
25.65
27.35
25.89
20.67
12.29
2.38
-6.95
-13.92
-17.77
-18.98
-18.87
-18.88
-19.89
-21.92
-24.34
-26.44
-27.79
-28.54
-29.2
-30.35
-32.44
-35.64
-39.86
-44.81
-50.08
-55.15
-59.45
-62.43
-63.63
-62.74
-59.74
-54.92
-48.97
-42.86
-37.51
-33.62
-31.36
-30.33
-29.68
-28.39
-25.55
-20.72
-14.06
-6.36
1.16
7.26
11.08
12.34
11.36
8.75
5.18
1.24
-2.5
-5.36
-6.45
-4.84
-0.05
7.63
16.97
26.1
33.18
37.01
37.35
34.78
30.24
24.56
18.18
11.19
3.64
-4.21
-11.83
-18.51
-23.66
-27.06
-28.85
-29.5
-29.48
-29.13
-28.53
-27.5
-25.82
-23.39
-20.26
-16.66
-12.91
-9.25
-5.83
-2.65
0.37
3.32
6.23
9.04
11.6
13.75
15.24
15.88
15.49
14.03
11.65
8.67
5.57
2.87
0.92
-0.25
-0.95
-1.66
-2.79
-4.48
-6.47
-8.24
-9.2
-8.95
-7.36
-4.59
-1.04
2.68
5.75
7.28
6.5
3.07
-2.75
-10.09
-17.74
-24.5
-29.52
-32.51
-33.63
-33.31
-32.05
-30.37
-28.67
-27.34
-26.69
-26.75
-27.28
-27.77
-27.59
-26.3
-23.85
-20.7
-17.73
-15.96
-16.09
-18.36
-22.33
-26.92
-30.54
-31.44
-28.19
-20.15
-7.92
6.88
21.93
35.06
44.79
50.59
52.69
51.7
48.28
42.97
36.36
29.08
21.94
15.61
10.56
6.89
4.51
3.25
3.01
3.79
5.72
9.11
14.23
21.25
30.03
40.03
50.32
59.71
67.07
71.52
72.67
70.53
65.6
58.81
51.62
45.86
43.26
44.82
50.17
57.59
64.37
67.9
66.62
60.43
50.5
38.59
26.28
14.47
3.47
-6.99
-17.24
-27.51
-37.68
-47.22
-55.25
-60.66
-62.6
-60.79
-55.75
-48.55
-40.44
-32.4
-24.9
-18.09
-12.04
-7.05
-3.47
-1.58
-1.19
-1.65
-2.09
-1.71
-0.23
2.09
4.58
6.57
7.68
8.05
8.09
8.24
8.71
9.37
9.9
9.91
9.21
7.83
6
4.02
2.09
0.35
-1.2
-2.53
-3.65
-4.5
-5.08
-5.4
-5.51
-5.43
-5.14
-4.63
-3.89
-2.97
-2.02
-1.19
-0.64
-0.51
-0.88
-1.83
-3.39
-5.46
-7.72
-9.71
-10.85
-10.82
-9.66
-7.93
-6.54
-6.33
-7.72
-10.39
-13.45
-15.67
-16.01
-13.85
-9.16
-2.38
5.67
13.93
21.3
26.89
30.3
31.83
32.55
33.87
36.99
42.15
48.33
53.49
55.22
51.81
42.95
29.87
14.84
0.3
-11.93
-21.03
-27.03
-30.48
-32.16
-33.05
-34.29
-37.04
-42.12
-49.62
-58.69
-67.74
-75.05
-79.28
-79.86
-77.07
-71.7
-64.74
-57.04
-49.27
-41.74
-34.71
-28.36
-22.99
-18.97
-16.42
-15.01
-13.78
-11.36
-6.38
2.1
14.29
29.66
47.18
65.48
82.92
97.68
108.07
113.07
112.93
109.34
104.83
101.8
101.3
102.48
103.08
100.6
93.65
82.58
69.19
55.69
43.57
33.19
24.02
15.41
7.28
0.28
-4.66
-6.87
-6.4
-3.96
-0.62
2.6
4.91
5.72
4.68
1.81
-2.27
-6.22
-8.3
-7.16
-2.61
4.15
10.77
14.79
14.52
9.41
-0.13
-13.24
-29
-46.29
-63.41
-77.97
-87.31
-89.43
-83.84
-71.96
-56.57
-41.01
-28.23
-20.34
-18.49
-22.84
-32.51
-45.58
-59.4
-71.19
-78.77
-81.19
-78.64
-72.07
-62.38
-50.09
-35.43
-18.84
-1.53
14.49
26.9
33.98
35.5
32.89
28.79
26.06
26.66
31.02
38
45.47
51.06
52.75
49.18
39.85
25.49
8.13
-8.95
-22.02
-28.13
-26.46
-19.02
-10.27
-5.58
-9.39
-23.6
-46.89
-75.09
-102.27
-122.12
-129.45
-121.51
-98.88
-65.73
-29
3.46
25.02
32.21
25.45
8.51
-12.88
-32.83
-46.71
-51.98
-48.19
-36.56
-19.37
0.64
20.74
38.31
51.14
57.68
57.58
51.96
43.32
34.8
29
27.01
28.08
30.17
30.99
28.97
23.66
15.38
4.66
-7.97
-21.76
-35.09
-45.43
-49.76
-45.88
-33.59
-15.25
4.89
22.05
32.62
35.12
30.19
19.9
6.66
-7.42
-20.94
-33.01
-43.16
-51.06
-56.46
-59.17
-58.96
-55.75
-49.6
-40.76
-29.68
-16.84
-2.66
12.56
28.49
44.45
59.24
71.17
78.5
79.83
74.58
63.29
47.63
30.04
13.24
-0.43
-9.66
-14.47
-16.25
-17.23
-19.68
-25
-33.2
-42.96
-52.08
-58.22
-59.53
-55.15
-45.39
-31.77
-16.75
-2.96
7.41
13.26
14.72
12.93
9.54
6.14
4
3.94
6.37
11.25
18.03
25.59
32.38
36.86
37.99
35.63
30.58
24.31
18.44
14.22
12.18
11.98
12.72
13.29
12.98
11.62
9.59
7.4
5.41
3.66
1.88
-0.13
-2.37
-4.56
-6.28
-7.25
-7.49
-7.33
-7.23
-7.67
-8.82
-10.65
-12.88
-15.15
-17.15
-18.67
-19.65
-20.15
-20.39
-20.59
-20.94
-21.53
-22.26
-22.92
-23.22
-22.9
-21.86
-20.21
-18.3
-16.69
-15.99
-16.53
-18.08
-19.59
-19.31
-15.24
-5.72
9.88
30.91
55.49
80.88
103.95
121.68
131.63
132.51
124.53
109.51
90.56
71.29
54.79
42.87
35.88
33
32.87
34.04
35.25
35.31
33.29
28.59
21.28
12.18
2.68
-5.74
-12.04
-15.92
-17.9
-18.93
-20.04
-21.99
-25.11
-29.29
-33.97
-38.4
-41.81
-43.7
-43.97
-43.03
-41.58
-40.35
-39.85
-40.03
-40.22
-39.27
-35.86
-28.98
-18.49
-5.44
8.04
19.3
26.14
27.68
24.72
19.31
13.88
10.28
9.22
10.36
12.7
15.06
16.37
15.74
12.57
6.77
-0.92
-8.93
-15.22
-18.09
-16.81
-11.95
-4.94
2.55
9.15
13.99
16.47
16.02
12.14
4.73
-5.51
-16.94
-27.36
-34.69
-37.79
-36.85
-33.14
-28.37
-23.91
-20.32
-17.4
-14.64
-11.64
-8.4
-5.32
-2.8
-1.07
-0.04
0.55
0.95
1.11
0.82
-0.18
-2.12
-4.96
-8.54
-12.65
-17.07
-21.65
-26.29
-30.83
-34.92
-38.01
-39.25
-37.82
-33.14
-25.3
-15.14
-4.24
5.52
12.54
15.92
15.76
12.92
8.64
4.07
-0.08
-3.61
-6.64
-9.24
-11.2
-11.95
-10.72
-6.89
-0.19
9.01
19.76
30.57
39.71
45.52
46.69
42.65
33.81
21.62
8.31
-3.55
-11.77
-14.96
-12.84
-6.2
3.49
14.32
24.39
32.05
36.19
36.34
32.76
26.36
18.48
10.64
4.12
-0.19
-1.96
-1.4
0.87
4.02
7.27
10.04
12.14
13.59
14.56
15.13
15.23
14.69
13.4
11.49
9.32
7.42
6.16
5.58
5.39
5.05
4.13
2.57
0.66
-1.09
-2.23
-2.69
-2.8
-3.01
-3.66
-4.78
-6.14
-7.44
-8.61
-9.82
-11.37
-13.49
-16.15
-19.11
-22
-24.59
-26.74
-28.44
-29.6
-29.94
-29.19
-27.19
-24.15
-20.68
-17.61
-15.63
-15.06
-15.62
-16.62
-17.34
-17.29
-16.39
-14.94
-13.35
-11.93
-10.74
-9.61
-8.29
-6.69
-4.82
-2.88
-1.1
0.4
1.62
2.72
3.99
5.72
8.11
11.22
14.87
18.71
22.31
25.29
27.41
28.64
29.07
28.84
27.99
26.43
23.97
20.5
16.1
11.01
5.57
0.04
-5.47
-11.02
-16.68
-22.4
-27.91
-32.84
-36.85
-39.81
-41.76
-42.75
-42.8
-41.8
-39.66
-36.4
-32.25
-27.58
-22.69
-17.7
-12.47
-6.75
-0.43
6.31
12.96
18.77
23.07
25.5
26.09
25.28
23.73
22.09
20.73
19.72
18.9
18.01
16.96
15.75
14.53
13.38
12.28
11.1
9.66
7.93
6.02
4.18
2.67
1.61
1.01
0.73
0.58
0.42
0.16
-0.23
-0.73
-1.31
-1.87
-2.24
-2.26
-1.85
-1.02
0.09
1.25
2.23
2.83
2.92
2.56
1.86
1.03
0.25
-0.3
-0.53
-0.45
-0.16
0.23
0.62
0.92
1.03
0.89
0.46
-0.23
-1.11
-2.03
-2.91
-3.66
-4.3
-4.89
-5.5
-6.21
-7.07
-8.11
-9.28
-10.56
-11.8
-12.84
-13.46
-13.56
-13.17
-12.49
-11.84
-11.53
-11.69
-12.24
-12.89
-13.33
-13.36
-12.97
-12.34
-11.69
-11.13
-10.6
-9.89
-8.75
-6.99
-4.5
-1.36
2.23
5.87
9.1
11.42
12.54
12.44
11.35
9.74
8.15
6.96
6.35
6.24
6.29
6.09
5.26
3.65
1.45
-0.82
-2.46
-2.87
-1.81
0.45
3.24
5.75
7.28
7.46
6.29
3.96
0.87
-2.58
-5.95
-8.82
-10.76
-11.52
-11.08
-9.71
-7.92
-6.18
-4.87
-4.09
-3.7
-3.5
-3.37
-3.34
-3.58
-4.36
-5.82
-7.9
-10.27
-12.48
-14.05
-14.7
-14.37
-13.15
-11.27
-8.89
-6.14
-3.02
0.46
4.28
8.35
12.59
16.86
20.97
24.63
27.47
29.15
29.57
28.88
27.42
25.46
23.02
19.81
15.5
9.95
3.54
-2.87
-8.17
-11.29
-11.6
-9.16
-4.87
-0.39
2.17
0.95
-4.8
-14.22
-25
-34.34
-40.02
-41.44
-39.53
-36.11
-32.8
-30.33
-28.54
-27.07
-26.02
-26.11
-28.21
-32.7
-38.93
-45.42
-50.46
-52.89
-52.45
-49.67
-45.29
-39.81
-33.24
-25.31
-15.78
-4.83
7.03
19.17
31.07
42.5
53.31
63.18
71.34
76.56
77.4
72.77
62.45
47.54
30.46
14.39
2.49
-3.11
-1.87
4.96
14.93
25.11
32.97
36.91
36.53
32.43
25.89
18.4
11.33
5.69
2.06
0.63
1.27
3.58
6.97
10.77
14.28
16.9
18.25
18.24
16.98
14.75
11.87
8.63
5.26
1.99
-1.07
-3.89
-6.43
-8.75
-10.87
-12.87
-14.86
-16.93
-19.14
-21.44
-23.67
-25.57
-26.83
-27.07
-25.91
-23.06
-18.5
-12.53
-5.79
0.86
6.75
11.47
15.05
17.77
19.82
21.21
21.67
20.92
18.89
15.83
12.29
8.83
5.85
3.4
1.33
-0.57
-2.38
-3.99
-5.19
-5.8
-5.89
-5.69
-5.63
-5.99
-6.91
-8.31
-10.02
-11.89
-13.9
-16.11
-18.51
-21
-23.3
-25.08
-26.14
-26.49
-26.26
-25.65
-24.74
-23.48
-21.77
-19.69
-17.44
-15.36
-13.72
-12.51
-11.4
-9.88
-7.43
-3.74
1.1
6.77
12.78
18.61
23.82
27.95
30.55
31.29
30.06
27.09
23.01
18.65
14.79
11.91
10
8.68
7.49
6.15
4.66
3.38
2.77
3.22
4.91
7.74
11.39
15.35
18.98
21.56
22.51
21.46
18.38
13.63
7.77
1.43
-4.84
-10.71
-15.88
-20.06
-22.92
-24.2
-23.85
-22.09
-19.38
-16.27
-13.24
-10.56
-8.33
-6.52
-5.09
-4.02
-3.37
-3.08
-3.09
-3.2
-3.23
-3.06
-2.69
-2.2
-1.74
-1.44
-1.35
-1.44
-1.59
-1.58
-1.13
0.01
2.01
4.9
8.48
12.36
16.02
18.92
20.52
20.35
18.09
13.75
7.82
1.26
-4.58
-8.32
-8.87
-5.74
0.76
9.74
19.8
29.51
37.59
43.16
45.82
45.61
42.83
37.94
31.47
23.99
16.24
9.01
3.13
-0.88
-2.94
-3.48
-3.27
-3.07
-3.3
-3.88
-4.38
-4.23
-2.92
-0.24
3.82
9.08
15.19
21.64
27.8
32.88
36.11
36.92
35.07
30.79
24.7
17.66
10.55
4.14
-1.13
-5.11
-7.92
-9.85
-11.21
-12.27
-13.17
-13.9
-14.37
-14.54
-14.38
-13.98
-13.48
-12.98
-12.56
-12.28
-12.21
-12.43
-13
-13.91
-15.07
-16.34
-17.6
-18.83
-20.08
-21.33
-22.39
-22.91
-22.48
-20.88
-18.26
-15.03
-11.72
-8.71
-6.09
-3.77
-1.56
0.5
2.23
3.32
3.65
3.36
2.89
2.72
3.18
4.28
5.69
6.99
7.8
8.02
7.78
7.28
6.73
6.12
5.38
4.46
3.43
2.48
1.84
1.59
1.66
1.88
2.07
2.26
2.6
3.37
4.74
6.7
8.96
11.06
12.45
12.66
11.43
8.77
4.97
0.45
-4.29
-8.89
-13.24
-17.48
-21.95
-26.9
-32.26
-37.48
-41.48
-43
-41.03
-35.31
-26.4
-15.56
-4.2
6.58
16.21
24.57
31.71
37.52
41.74
44.07
44.4
42.9
40.06
36.54
33.28
31.51
32.42
36.74
43.98
52.13
57.97
58.14
50.5
35.19
14.65
-7.32
-26.97
-41.79
-50.87
-54.48
-53.28
-47.87
-38.6
-26.06
-11.31
4.16
18.69
31
40.43
46.91
50.78
52.51
52.48
50.93
48.12
44.3
39.74
34.71
29.46
24.23
19.22
14.5
10.11
6
2.14
-1.39
-4.4
-6.67
-8.04
-8.53
-8.34
-7.7
-6.83
-5.89
-4.95
-4.1
-3.46
-3.08
-2.87
-2.69
-2.32
-1.63
-0.57
0.88
2.76
5.06
7.72
10.53
13.07
14.89
15.68
15.34
14.12
12.4
10.47
8.41
6.09
3.33
0.11
-3.39
-6.83
-9.86
-12.35
-14.38
-16.21
-18.09
-20.06
-21.87
-23.07
-23.2
-22.04
-19.78
-16.97
-14.28
-12.39
-11.63
-12
-13.14
-14.54
-15.63
-16.03
-15.57
-14.34
-12.64
-10.81
-9.16
-7.83
-6.84
-6.11
-5.59
-5.27
-5.18
-5.38
-5.85
-6.5
-7.24
-7.92
-8.36
-8.43
-7.99
-7.01
-5.73
-4.69
-4.71
-6.55
-10.51
-16.11
-22.02
-26.36
-27.34
-23.91
-16.08
-4.95
7.65
19.78
29.87
36.98
40.88
41.88
40.62
37.91
34.54
31.12
28.06
25.49
23.38
21.59
20
18.47
16.94
15.36
13.75
12.18
10.76
9.48
8.18
6.51
4.08
0.69
-3.54
-8.12
-12.36
-15.58
-17.35
-17.48
-16.03
-13.09
-8.84
-3.55
2.26
7.87
12.43
15.21
15.77
14.06
10.41
5.38
-0.4
-6.37
-12.06
-17.14
-21.4
-24.69
-26.91
-28.02
-27.99
-26.92
-24.97
-22.46
-19.77
-17.34
-15.55
-14.58
-14.42
-14.88
-15.65
-16.41
-16.95
-17.25
-17.54
-18.18
-19.5
-21.57
-24.11
-26.55
-28.27
-28.85
-28.34
-27.21
-26.17
-25.89
-26.68
-28.28
-29.8
-29.71
-26.01
-16.7
-0.38
23.08
51.93
82.67
110.75
131.77
142.79
143.17
134.54
120.05
103.28
87.18
73.59
63.24
56.07
51.59
49.06
47.59
46.13
43.6
39.14
32.39
23.66
13.78
3.95
-4.72
-11.54
-16.38
-19.68
-22.18
-24.56
-27.18
-29.98
-32.59
-34.6
-35.72
-35.93
-35.39
-34.3
-32.76
-30.78
-28.45
-26.01
-23.95
-22.82
-22.9
-24.03
-25.55
-26.59
-26.55
-25.36
-23.59
-22.06
-21.37
-21.52
-21.98
-21.91
-20.74
-18.43
-15.58
-13.13
-11.96
-12.59
-15.13
-19.36
-24.89
-31.03
-36.76
-40.83
-42.17
-40.61
-37.34
-34.98
-36.62
-44.5
-58.88
-77.65
-97.09
-113.34
-123.7
-127.24
-124.43
-116.35
-104.02
-88.34
-70.34
-51.4
-33.08
-16.58
-2.37
10.02
21.62
33.38
45.71
58.28
70.29
80.71
88.52
92.87
93.26
89.75
83.2
75.06
67.06
60.56
56.11
53.43
51.87
50.88
50.37
50.75
52.49
55.78
60.3
65.34
70.16
74.43
78.41
82.68
87.9
94.34
101.81
109.68
117.28
124.17
130.33
136.04
141.6
147.05
152.16
156.36
158.89
158.76
154.79
145.73
130.55
108.92
81.58
50.39
17.96
-12.9
-39.77
-60.94
-75.49
-83.24
-84.77
-81.33
-74.77
-67.18
-60.25
-54.89
-51.09
-48.3
-46.1
-44.6
-44.4
-46.09
-49.74
-54.68
-60.01
-65.26
-70.71
-77.23
-85.48
-95.13
-104.66
-111.92
-115.1
-113.66
-108.56
-101.71
-94.95
-89.28
-84.57
-79.95
-74.52
-67.96
-60.7
-53.8
-48.49
-45.7
-45.84
-48.56
-52.82
-57.12
-59.83
-59.72
-56.33
-50.18
-42.48
-34.77
-28.24
-23.39
-19.86
-16.6
-12.27
-5.63
3.9
15.99
29.19
41.23
49.61
52.4
48.91
39.86
27.04
12.72
-0.91
-12.23
-20.18
-24.33
-24.85
-22.46
-18.41
-14.15
-10.95
-9.54
-10.14
-12.52
-16.52
-22.18
-29.63
-38.86
-49.43
-60.36
-70.26
-77.59
-80.89
-79.09
-71.7
-59.02
-42.29
-23.5
-4.94
11.39
24.18
32.91
37.53
38.08
34.67
27.67
18.16
8.07
-0.35
-5.29
-6.12
-3.61
0.43
4.05
5.79
5
1.61
-4.11
-11.72
-20.44
-28.99
-35.65
-38.54
-36.29
-28.59
-16.43
-1.84
12.82
25.58
35.22
41.25
43.6
42.2
36.84
27.4
14.31
-1.15
-16.88
-30.41
-39.61
-43.21
-41.03
-33.95
-23.52
-11.71
-0.53
8.3
13.78
16.01
16.14
15.99
17.26
20.72
25.9
31.28
35.12
36.3
34.79
31.5
27.57
23.77
20.17
16.36
12.01
7.38
3.29
0.79
0.59
2.68
6.39
10.85
15.41
19.87
24.47
29.58
35.45
42.03
48.97
55.65
61.26
64.91
65.9
63.98
59.54
53.54
47.09
41
35.54
30.51
25.5
20.37
15.33
10.83
7.37
5.19
4.33
4.68
6.03
8.15
10.77
13.57
16.14
18.14
19.22
19.09
17.56
14.42
9.65
3.43
-3.83
-11.52
-19.02
-25.82
-31.44
-35.35
-36.88
-35.29
-29.98
-20.95
-9.09
3.92
15.95
25.07
30.12
30.86
27.84
21.97
14.12
5.03
-4.64
-14.21
-22.93
-30.12
-35.38
-38.76
-40.71
-41.99
-43.2
-44.54
-45.64
-45.52
-43
-37.21
-28.04
-16.5
-4.54
5.53
11.86
13.6
11.16
5.85
-0.7
-7.07
-12.46
-16.58
-19.46
-21.13
-21.58
-20.64
-18.17
-14.05
-8.19
-0.59
8.66
19.26
30.61
41.79
51.68
59.12
63.22
63.61
60.55
54.88
47.71
40.03
32.27
24.24
15.18
4.28
-8.74
-23.27
-37.84
-50.52
-59.6
-64.23
-64.67
-62.15
-58.43
-55.11
-53.26
-53.16
-54.42
-56.05
-56.77
-55.16
-50.03
-40.91
-28.33
-13.94
-0.08
10.96
17.79
20.23
19.26
16.32
12.75
9.42
6.8
5.16
4.61
5.02
5.73
5.69
3.79
-0.51
-6.67
-13.16
-17.86
-18.94
-15.49
-7.72
3.24
15.86
28.52
39.87
48.79
54.45
56.3
54.26
48.8
41.06
32.64
25.19
19.8
16.62
14.9
13.39
11.04
7.3
2.12
-4.41
-12.32
-21.74
-32.49
-43.61
-53.31
-59.4
-60.11
-54.89
-44.59
-31.04
-16.31
-2.1
10.6
21.37
30.17
37.13
42.45
46.38
49.14
50.86
51.64
51.54
50.63
48.95
46.46
42.88
37.83
31.02
22.64
13.61
5.34
-0.88
-4.53
-6.27
-7.64
-10.33
-15.3
-22.3
-29.98
-36.64
-40.98
-42.64
-42.21
-40.77
-39.37
-38.58
-38.45
-38.64
-38.83
-38.97
-39.31
-40.33
-42.41
-45.69
-49.94
-54.78
-59.82
-64.72
-69.21
-72.81
-74.79
-74.21
-70.19
-62.3
-50.65
-35.93
-19.27
-2
14.59
29.42
41.92
52.01
60.12
66.95
73.21
79.57
86.48
94.18
102.44
110.49
116.96
120.18
118.91
112.89
103.22
91.84
80.82
71.34
63.51
56.57
49.54
41.81
33.13
23.57
13.32
2.83
-7.07
-15.2
-20.53
-22.94
-23.59
-24.78
-28.86
-37.08
-48.9
-62.18
-74.15
-82.51
-86.14
-85.06
-80.02
-71.89
-61.51
-49.76
-37.86
-27.27
-19.48
-15.44
-15.17
-17.77
-21.66
-25.23
-27.38
-27.87
-27.19
-26.19
-25.53
-25.33
-25.21
-24.51
-22.74
-19.82
-16.02
-11.74
-7.24
-2.52
2.55
7.98
13.58
18.81
23.07
25.85
26.85
26.03
23.55
19.61
14.37
8
0.61
-7.54
-16
-24.07
-30.92
-35.72
-37.76
-36.62
-32.22
-24.9
-15.24
-4.09
7.62
18.94
28.96
36.96
42.41
45.12
45.15
42.87
38.78
33.48
27.57
21.48
15.51
9.72
3.9
-2.29
-9.15
-16.72
-24.46
-31.25
-35.55
-35.76
-30.82
-20.51
-5.71
11.86
29.91
46.14
58.6
66
67.87
64.55
57.11
47.06
35.93
24.73
13.71
2.28
-10.57
-25.6
-42.76
-60.85
-77.66
-90.69
-97.71
-97.43
-89.56
-74.8
-54.52
-30.63
-5.4
18.68
39.22
54.29
62.8
64.66
60.72
52.48
41.7
30.08
18.87
8.79
0.04
-7.54
-14.13
-19.79
-24.29
-27.24
-28.28
-27.29
-24.41
-19.86
-13.89
-6.58
1.98
11.43
21.06
29.81
36.5
40.25
40.74
38.28
33.74
28.19
22.61
17.58
13.32
9.66
6.34
3.11
-0.13
-3.27
-6.15
-8.6
-10.54
-12.02
-13.13
-13.91
-14.34
-14.38
-14.02
-13.39
-12.73
-12.28
-12.25
-12.73
-13.67
-14.95
-16.37
-17.6
-18.21
-17.74
-15.88
-12.65
-8.49
-4.16
-0.5
1.9
2.81
2.45
1.25
-0.29
-1.87
-3.34
-4.65
-5.77
-6.54
-6.76
-6.3
-5.18
-3.54
-1.62
0.46
2.72
5.22
7.96
10.71
13.03
14.44
14.7
13.94
12.62
11.2
9.95
8.79
7.42
5.54
3.18
0.72
-1.26
-2.37
-2.69
-2.79
-3.5
-5.41
-8.59
-12.45
-15.96
-18.18
-18.64
-17.6
-15.92
-14.73
-14.92
-16.82
-20.14
-24
-27.19
-28.43
-26.7
-21.5
-13.12
-2.63
8.39
18.37
26.27
31.79
35.31
37.35
38.17
37.55
34.89
29.57
21.31
10.47
-1.89
-14.02
-23.79
-29.24
-29.23
-24.01
-15.25
-5.52
2.73
8.06
10.41
10.71
10.17
9.55
8.95
8.06
6.64
4.75
2.68
0.75
-1.04
-2.9
-5.07
-7.58
-10.13
-12.13
-12.99
-12.38
-10.39
-7.58
-4.83
-3.12
-3.08
-4.71
-7.23
-9.26
-9.4
-6.76
-1.5
5.24
11.77
16.58
18.93
18.97
17.61
16.12
15.77
17.54
21.88
28.63
36.98
45.53
52.66
56.9
57.28
53.5
45.91
35.37
23.22
11.14
0.91
-6.04
-9.09
-8.85
-7.01
-5.71
-6.65
-10.44
-16.49
-23.41
-29.74
-34.57
-37.71
-39.43
-40.06
-39.63
-37.98
-34.97
-30.92
-26.56
-22.82
-20.34
-19.21
-19
-19.07
-18.98
-18.64
-18.17
-17.62
-16.74
-15
-11.89
-7.2
-1.18
5.47
11.9
17.39
21.52
24.13
25.35
25.38
24.54
23.12
21.37
19.41
17.23
14.8
12.08
9.2
6.44
4.23
3.03
3.14
4.55
6.86
9.31
11.02
11.35
10.18
8
5.77
4.47
4.67
6.22
8.33
9.89
10.07
8.69
6.31
3.97
2.72
3.2
5.43
8.93
12.96
16.89
20.33
23.01
24.72
25.16
24.09
21.49
17.67
13.18
8.61
4.25
0.05
-4.24
-8.79
-13.48
-17.85
-21.31
-23.47
-24.29
-24.13
-23.56
-23.07
-22.93
-23.16
-23.81
-25.02
-27.16
-30.45
-34.71
-39.16
-42.54
-43.67
-41.86
-37.31
-30.88
-23.65
-16.35
-9.18
-1.98
5.48
13.02
20.11
26.04
30.26
32.57
33.18
32.5
31.02
29.13
27.08
25
22.97
21
19.07
17.03
14.67
11.74
8.19
4.22
0.34
-2.76
-4.5
-4.57
-3.19
-1.03
1.01
2.13
1.84
0.16
-2.36
-4.73
-5.78
-4.54
-0.65
5.41
12.37
18.53
22.25
22.45
18.85
11.97
2.92
-6.92
-16.18
-23.76
-28.98
-31.57
-31.6
-29.26
-24.72
-18.16
-9.95
-0.89
7.88
15.23
20.57
24.05
26.39
28.38
30.23
31.43
30.91
27.86
22.17
14.72
6.92
0.03
-5.29
-9.14
-12.02
-14.24
-15.67
-15.77
-13.92
-9.91
-4.28
1.88
7.23
10.74
12.02
11.38
9.54
7.39
5.65
4.68
4.4
4.38
4
2.74
0.43
-2.61
-5.73
-8.11
-9.21
-8.81
-7.03
-4.09
-0.15
4.62
10.02
15.64
20.88
25.15
28.08
29.62
29.96
29.31
27.78
25.39
22.21
18.5
14.65
11.09
8
5.29
2.64
-0.28
-3.67
-7.42
-11.14
-14.19
-15.82
-15.37
-12.54
-7.65
-1.67
4.03
8.14
9.88
9.41
7.79
6.58
7.26
10.68
16.85
24.93
33.63
41.65
48.12
52.67
55.33
56.13
54.89
51.23
44.99
36.64
27.34
18.71
12.1
8.04
6.07
5.23
4.69
4.23
4.21
5.12
7.13
10.02
13.4
17.22
21.88
27.95
35.61
44.28
52.58
58.89
61.99
61.55
58.11
52.57
45.7
37.81
28.83
18.66
7.53
-3.95
-14.98
-24.86
-33.3
-40.43
-46.57
-51.99
-56.75
-60.64
-63.45
-65.11
-65.77
-65.72
-65.26
-64.52
-63.45
-61.94
-59.89
-57.4
-54.71
-52.13
-49.88
-47.96
-46.23
-44.47
-42.47
-40.16
-37.66
-35.13
-32.72
-30.5
-28.48
-26.65
-25.1
-24.02
-23.62
-24.07
-25.26
-26.85
-28.3
-29.1
-28.99
-28.17
-27.21
-26.83
-27.63
-29.83
-33.14
-36.87
-40.16
-42.2
-42.47
-40.9
-38
-34.82
-32.61
-32.3
-33.73
-35.21
-33.75
-26.15
-10.4
13.03
40.96
68.34
89.85
101.69
102.54
93.7
78.29
60.23
43.31
30.4
22.94
20.79
22.32
24.97
26.08
23.81
17.51
7.82
-3.84
-15.8
-26.54
-34.89
-40.14
-42.15
-41.36
-38.79
-35.76
-33.42
-32.43
-32.75
-33.87
-35.08
-35.63
-34.86
-32.18
-27.18
-19.77
-10.37
0.13
10.62
20.12
28.03
34.05
37.92
39.28
37.71
33.1
25.99
17.7
9.92
4.11
0.98
0.42
1.79
4.38
7.58
10.82
13.41
14.52
13.63
10.8
6.99
3.77
2.63
4.39
9
15.65
23.24
30.62
36.51
39.42
37.92
31.45
21.3
10.8
4.34
5.51
15.27
31.25
48.54
61.64
66.38
60.97
45.75
22.48
-6.32
-37.47
-67.04
-90.55
-103.95
-104.91
-93.85
-73.92
-50.02
-27.09
-8.85
2.91
8.17
8.04
4.14
-1.89
-8.65
-15.04
-20.3
-24.04
-26.19
-26.87
-26.35
-24.85
-22.55
-19.57
-16.04
-12.12
-8.11
-4.35
-1.22
0.99
2.12
2.19
1.4
0.09
-1.34
-2.5
-3.12
-3.1
-2.5
-1.56
-0.58
0.16
0.5
0.45
0.15
-0.15
-0.29
-0.2
0.02
0.14
0.02
-0.38
-0.89
-1.23
-1.11
-0.44
0.73
2.11
3.42
4.45
5.06
5.25
5.06
4.57
3.83
3
2.25
1.78
1.73
2.06
2.64
3.24
3.69
3.91
3.91
3.78
3.57
3.27
2.79
2.05
1.01
-0.23
-1.55
-2.81
-3.91
-4.87
-5.71
-6.45
-7.07
-7.56
-7.88
-8.03
-8.05
-7.95
-7.75
-7.44
-7.02
-6.55
-6.17
-6.04
-6.3
-6.92
-7.71
-8.35
-8.49
-7.94
-6.67
-4.91
-2.97
-1.21
0.14
1.01
1.41
1.39
1
0.24
-0.84
-2.19
-3.69
-5.19
-6.5
-7.52
-8.17
-8.44
-8.35
-7.94
-7.27
-6.38
-5.35
-4.26
-3.16
-2.12
-1.2
-0.4
0.3
0.98
1.72
2.52
3.37
4.14
4.69
4.88
4.69
4.17
3.48
2.75
2.05
1.35
0.57
-0.38
-1.54
-2.82
-4.07
-5.07
-5.69
-5.9
-5.77
-5.45
-5.02
-4.51
-3.85
-2.98
-1.89
-0.68
0.5
1.48
2.17
2.6
2.93
3.35
4.03
4.99
6.16
7.34
8.37
9.16
9.75
10.21
10.67
11.11
11.44
11.55
11.34
10.77
9.91
8.85
7.65
6.38
5.05
3.66
2.13
0.34
-1.8
-4.28
-6.96
-9.51
-11.51
-12.66
-12.95
-12.66
-12.38
-12.75
-14.15
-16.59
-19.66
-22.65
-24.76
-25.31
-23.94
-20.78
-16.46
-11.98
-8.47
-6.7
-6.64
-7.36
-7.29
-4.84
0.84
9.42
19.4
28.7
35.47
38.72
38.6
36.19
32.93
30.06
28.24
27.59
27.77
28.43
29.29
30.29
31.39
32.43
33.09
32.84
31.29
28.24
23.86
18.69
13.39
8.67
5.02
2.71
1.63
1.44
1.64
1.83
1.93
2.18
2.91
4.28
6.04
7.54
8.01
6.96
4.48
1.11
-2.34
-5.25
-7.35
-8.75
-9.67
-10.41
-11.14
-11.97
-12.97
-14.11
-15.33
-16.45
-17.29
-17.67
-17.55
-16.95
-15.91
-14.42
-12.44
-9.97
-7.12
-4.15
-1.31
1.24
3.57
5.86
8.36
11.16
14.1
16.83
18.93
20.12
20.34
19.7
18.34
16.35
13.76
10.67
7.37
4.38
2.21
1.13
0.88
0.67
-0.55
-3.55
-8.44
-14.55
-20.66
-25.55
-28.38
-28.98
-27.72
-25.28
-22.34
-19.48
-17.09
-15.44
-14.67
-14.67
-15.1
-15.45
-15.2
-14.04
-12.08
-9.81
-8
-7.35
-8.24
-10.49
-13.36
-15.76
-16.78
-16.07
-14.14
-12.13
-11.33
-12.43
-14.98
-17.31
-16.84
-11.01
1.81
21.53
46.18
72.25
95.54
112.37
120.56
120.17
113.39
103.8
95.12
89.92
88.82
90.38
91.82
90.19
83.57
71.89
56.95
41.76
29.5
22.34
20.76
23.35
27.34
29.6
27.84
21.32
11.05
-0.9
-12.3
-21.52
-27.88
-31.45
-32.76
-32.41
-31.04
-29.44
-28.56
-29.3
-32.12
-36.65
-41.63
-45.41
-46.58
-44.66
-40.28
-34.92
-30.24
-27.38
-26.48
-26.69
-26.55
-24.65
-20.2
-13.29
-4.79
3.97
11.69
17.38
20.55
21.21
19.74
16.78
12.95
8.77
4.5
0.22
-4.03
-8.18
-11.95
-15.07
-17.31
-18.77
-19.88
-21.47
-24.44
-29.46
-36.65
-45.39
-54.4
-61.98
-66.56
-67.27
-64.19
-58.44
-51.7
-45.61
-41.18
-38.62
-37.52
-37.29
-37.55
-38.23
-39.37
-40.81
-42.09
-42.59
-41.76
-39.35
-35.39
-30
-23.22
-15.05
-5.5
5.17
16.42
27.37
37.03
44.36
48.53
49.02
45.79
39.35
30.62
20.72
10.73
1.48
-6.52
-13.04
-18.11
-21.99
-25.1
-27.89
-30.63
-33.2
-35.11
-35.7
-34.42
-31.18
-26.35
-20.65
-14.88
-9.59
-5.01
-1.03
2.67
6.41
10.41
14.64
18.9
22.84
26.12
28.5
29.88
30.29
29.89
28.89
27.47
25.83
24.13
22.49
20.98
19.61
18.32
17.04
15.71
14.26
12.74
11.21
9.82
8.64
7.73
7.03
6.48
5.98
5.53
5.18
5.03
5.15
5.58
6.25
7.04
7.77
8.27
8.42
8.2
7.7
7.12
6.77
6.87
7.52
8.68
10.13
11.58
12.72
13.28
13.05
11.94
9.93
7.14
3.77
0.12
-3.5
-6.81
-9.69
-12.1
-14.07
-15.63
-16.77
-17.32
-17.13
-16.05
-14.06
-11.38
-8.36
-5.51
-3.27
-1.93
-1.5
-1.79
-2.39
-2.86
-2.9
-2.38
-1.43
-0.35
0.54
0.95
0.68
-0.38
-2.22
-4.71
-7.62
-10.62
-13.38
-15.72
-17.56
-18.95
-19.93
-20.49
-20.53
-20
-18.98
-17.76
-16.73
-16.28
-16.61
-17.72
-19.43
-21.46
-23.54
-25.34
-26.6
-27.14
-27.07
-26.92
-27.42
-29.28
-32.59
-36.51
-39.14
-38.11
-31.32
-17.73
2.07
25.95
50.75
73.04
90.03
100.32
104.21
103.41
100.4
97.39
95.67
95.22
94.94
93.21
88.58
80.35
68.91
55.73
43.01
33.09
27.77
27.58
31.34
36.45
39.68
38.45
31.89
21.16
8.96
-1.69
-8.46
-10.67
-9.26
-6.38
-4.47
-5.26
-9.22
-15.59
-22.64
-28.45
-31.55
-31.32
-28.19
-23.53
-19.15
-16.77
-17.51
-21.5
-28.01
-35.6
-42.43
-46.71
-47.12
-43.23
-35.75
-26.53
-17.98
-12.46
-11.35
-14.52
-20.22
-25.67
-28.01
-25.51
-18.3
-8.24
1.74
8.86
11.48
9.55
4.44
-1.77
-7.13
-10.3
-10.7
-8.25
-3.17
4.14
12.92
22.05
30.19
36.15
39.33
39.87
38.5
36.11
33.4
30.57
27.49
23.87
19.5
14.41
8.82
3.05
-2.55
-7.72
-12.26
-16.05
-19.02
-21.14
-22.4
-22.77
-22.26
-21.01
-19.35
-17.74
-16.72
-16.69
-17.78
-19.78
-22.25
-24.63
-26.4
-27.28
-27.25
-26.7
-26.32
-26.77
-28.42
-30.97
-33.39
-34.25
-32.26
-26.84
-18.48
-8.69
0.51
7.19
10.08
8.87
4.19
-2.69
-10.21
-16.93
-21.82
-24.32
-24.42
-22.44
-18.97
-14.68
-10.27
-6.37
-3.44
-1.74
-1.24
-1.64
-2.51
-3.4
-3.96
-4.06
-3.76
-3.2
-2.53
-1.87
-1.25
-0.65
-0.06
0.56
1.22
1.94
2.76
3.67
4.59
5.35
5.74
5.6
4.99
4.08
3.21
2.63
2.45
2.51
2.56
2.39
1.95
1.41
0.94
0.66
0.46
0.08
-0.75
-2.18
-4.16
-6.41
-8.54
-10.21
-11.17
-11.42
-11.06
-10.28
-9.29
-8.27
-7.36
-6.7
-6.38
-6.4
-6.7
-7.13
-7.51
-7.7
-7.66
-7.42
-7.05
-6.6
-6.02
-5.25
-4.28
-3.14
-2.02
-1.14
-0.74
-0.97
-1.89
-3.42
-5.41
-7.6
-9.73
-11.62
-13.23
-14.7
-16.23
-17.96
-19.92
-21.98
-23.98
-25.76
-27.28
-28.48
-29.24
-29.44
-29.04
-28.22
-27.31
-26.51
-25.44
-22.97
-17.33
-6.75
9.75
31.79
57.64
84.53
109.45
129.8
143.75
150.32
149.36
141.44
127.87
110.61
91.97
74.23
59.1
47.31
38.58
32.09
26.92
22.67
19.58
18.23
18.97
21.46
24.38
25.74
23.61
16.84
5.69
-8.02
-21.37
-31.26
-35.38
-33.01
-25.11
-13.91
-2.09
7.9
14.21
15.47
10.75
-0.39
-17.52
-38.89
-61.36
-80.92
-93.81
-97.66
-92.26
-79.53
-62.85
-45.75
-30.94
-19.64
-11.63
-5.83
-1.07
3.2
6.79
9.02
9.24
7.36
4
0.22
-2.96
-4.87
-5.43
-4.93
-3.78
-2.27
-0.47
1.69
4.26
7.18
10.3
13.33
16.01
18.18
19.68
20.43
20.36
19.42
17.52
14.64
10.73
5.7
-0.6
-8.36
-17.74
-28.63
-40.51
-52.44
-63.1
-71.14
-75.56
-75.88
-72.28
-65.32
-55.75
-44.17
-31.01
-16.63
-1.47
13.8
28.32
41.09
51.09
57.34
58.93
55.25
46.3
32.92
16.84
0.5
-13.74
-24.21
-30.38
-32.75
-32.29
-29.75
-25.33
-18.92
-10.6
-1.18
7.77
14.38
17.21
15.85
11.11
4.54
-2.27
-8.16
-12.67
-15.79
-17.64
-18.31
-17.86
-16.4
-14.19
-11.58
-8.79
-5.92
-2.96
0.12
3.2
5.99
8.18
9.59
10.19
10.11
9.5
8.44
6.97
5.2
3.37
1.78
0.71
0.31
0.46
0.85
1.08
0.82
-0.03
-1.35
-2.82
-4.14
-5.04
-5.44
-5.39
-5.03
-4.53
-4.07
-3.79
-3.72
-3.86
-4.16
-4.55
-4.99
-5.46
-5.96
-6.48
-7
-7.48
-7.84
-7.97
-7.75
-7.08
-5.9
-4.32
-2.64
-1.34
-0.79
-0.99
-1.37
-0.88
1.66
7.1
15.66
26.82
39.47
52.19
63.43
71.74
75.98
75.69
71.4
64.66
57.69
52.7
51.05
52.64
56
58.85
59.03
55.26
47.58
37.13
25.73
15.27
7.12
2.01
-0.06
0.35
2.36
4.95
7
7.43
5.35
0.4
-6.98
-15.53
-23.45
-29.02
-31.39
-30.82
-28.6
-26.35
-25.22
-25.43
-26.32
-26.9
-26.5
-25.12
-23.28
-21.56
-20.19
-19.17
-18.36
-17.92
-18.35
-20.13
-23.44
-27.9
-32.64
-36.65
-39.21
-40.02
-39.23
-37.2
-34.28
-30.79
-26.93
-22.81
-18.4
-13.52
-7.82
-1.03
6.78
15.07
22.87
29.08
32.77
33.5
31.37
26.9
20.83
13.89
6.83
0.32
-4.95
-8.51
-10.14
-10
-8.62
-6.7
-4.94
-3.77
-3.34
-3.52
-4.06
-4.66
-5.09
-5.23
-5.04
-4.57
-3.87
-3.01
-2.04
-1.01
0.02
0.96
1.71
2.16
2.23
1.91
1.23
0.35
-0.54
-1.21
-1.46
-1.19
-0.4
0.68
1.77
2.52
2.68
2.19
1.13
-0.25
-1.68
-2.89
-3.71
-4.11
-4.23
-4.45
-5.28
-7.29
-10.87
-16.08
-22.48
-29.24
-35.33
-39.97
-42.77
-43.79
-43.38
-41.9
-39.47
-35.83
-30.59
-23.47
-14.62
-4.75
5.03
13.55
19.9
23.73
25.28
25.26
24.54
23.87
23.61
23.64
23.49
22.43
19.82
15.28
8.94
1.41
-6.33
-13.24
-18.49
-21.7
-23.05
-23.23
-23.2
-23.85
-25.67
-28.42
-31.06
-32.05
-29.91
-23.9
-14.47
-3.22
7.6
15.96
20.71
21.84
20.3
17.35
14.13
11.35
9.45
8.65
9.23
11.42
15.35
20.89
27.58
34.79
41.82
48.01
52.8
55.78
56.73
55.62
52.65
48.17
42.6
36.4
30.05
23.95
18.52
14.08
10.85
8.81
7.69
6.93
5.65
2.84
-2.47
-10.95
-22.53
-36.31
-50.43
-62.42
-69.78
-70.66
-64.55
-52.41
-36.52
-19.7
-4.57
7.18
15.01
19.28
20.92
20.92
20.18
19.48
19.57
21.1
24.34
29.01
34.14
38.4
40.72
40.92
39.8
38.69
38.61
39.37
39.39
36.18
27.55
12.79
-6.82
-28.24
-47.77
-62.24
-69.92
-70.65
-65.5
-56.08
-44.06
-30.93
-18.06
-6.73
1.89
6.97
8.31
6.53
2.98
-0.53
-2.43
-1.87
1.04
5.22
9.18
11.65
12.06
10.64
8.13
5.35
2.73
0.31
-2.11
-4.58
-6.79
-8.19
-8.22
-6.77
-4.26
-1.57
0.36
0.84
-0.22
-2.32
-4.67
-6.48
-7.22
-6.85
-5.72
-4.47
-3.91
-4.76
-7.47
-11.97
-17.65
-23.44
-28.13
-30.74
-30.71
-28.06
-23.3
-17.12
-10.32
-3.52
3.01
9.3
15.63
22.26
28.93
34.73
38.14
37.56
31.97
21.44
7.03
-9.49
-26.25
-41.47
-53.37
-60.09
-59.87
-51.65
-35.94
-15.35
5.86
23.16
33.44
36.27
33.87
30.01
28.18
30.12
35.2
41.08
44.98
44.94
40.52
32.62
22.97
13.37
5.3
-0.27
-2.79
-2.1
1.54
7.44
14.45
21.13
25.98
27.75
25.71
19.79
10.7
-0.21
-11.06
-20.02
-25.79
-28.04
-27.53
-25.71
-24.09
-23.62
-24.44
-26.01
-27.55
-28.51
-28.77
-28.44
-27.72
-26.76
-25.83
-25.4
-26.16
-28.48
-31.87
-34.58
-33.98
-27.65
-14.64
3.81
24.47
43.4
57.45
65.16
66.88
63.96
57.89
49.87
40.87
31.98
24.46
19.31
16.7
15.69
14.56
11.56
5.83
-2.3
-11.55
-20.3
-27.33
-32.17
-34.99
-36.43
-37.29
-38.29
-39.89
-42.13
-44.54
-46.29
-46.44
-44.24
-39.55
-32.87
-25.24
-17.95
-12.15
-8.36
-6.36
-5.21
-3.42
0.64
8.39
20.56
36.63
54.75
71.94
84.79
90.37
87.06
74.98
55.86
32.52
8.14
-14.11
-31.4
-41.46
-43.02
-36.28
-23.22
-7.32
7.31
17.21
20.66
18
11.21
2.97
-4.38
-9.55
-12.35
-13.39
-13.58
-13.65
-14
-14.73
-15.72
-16.83
-17.92
-18.9
-19.63
-19.89
-19.45
-18.14
-16
-13.31
-10.5
-8.01
-6.09
-4.76
-3.85
-3.07
-2.19
-1.08
0.29
1.85
3.39
4.74
5.62
5.91
5.54
4.67
3.57
2.61
2.05
1.94
2.04
1.79
0.67
-1.62
-4.83
-8.16
-10.5
-10.97
-9.27
-5.84
-1.8
1.52
2.99
1.99
-1.47
-6.69
-12.17
-15.63
-14.48
-6.7
8.08
27.92
48.86
66.12
75.88
76.58
69.32
56.97
42.73
28.91
16.5
5.65
-3.44
-9.94
-12.46
-9.61
-0.85
12.99
29.75
46.38
59.8
67.62
68.69
63.08
51.86
36.64
19.23
1.34
-15.56
-30.29
-41.96
-50.08
-54.55
-55.69
-54.17
-50.88
-46.68
-42.25
-37.92
-33.69
-29.43
-25.09
-20.97
-17.66
-15.89
-16.15
-18.37
-21.72
-24.83
-26.13
-24.4
-19.08
-10.45
0.5
12.4
23.79
33.4
40.32
44.09
44.71
42.58
38.4
33.08
27.49
22.39
18.28
15.32
13.42
12.26
11.44
10.54
9.2
7.26
4.73
1.87
-1
-3.52
-5.47
-6.79
-7.56
-7.88
-7.87
-7.61
-7.16
-6.6
-6.03
-5.48
-4.9
-4.19
-3.26
-2.09
-0.77
0.54
1.72
2.78
3.77
4.77
5.88
7.1
8.41
9.82
11.35
13.03
14.8
16.49
17.78
18.33
17.88
16.36
13.97
11.15
8.43
6.24
4.73
3.75
2.9
1.81
0.35
-1.31
-2.66
-3.17
-2.5
-0.68
1.95
4.87
7.64
10
11.84
13.09
13.54
12.85
10.69
6.97
2.05
-3.31
-8.1
-11.4
-12.55
-11.23
-7.43
-1.36
6.5
15.27
23.58
29.86
32.68
31.42
26.73
20.48
15.33
13.7
16.98
24.86
35.42
45.78
53.02
55.11
51.38
42.56
30.22
16.23
2.25
-10.56
-21.37
-29.69
-35.17
-37.72
-37.52
-35.15
-31.38
-26.92
-22.2
-17.24
-11.87
-6.02
-0.02
5.41
9.4
11.21
10.67
8.11
4.4
0.54
-2.51
-4.16
-4.21
-2.99
-1.17
0.5
1.35
1.06
-0.35
-2.57
-5.16
-7.75
-9.99
-11.7
-12.8
-13.48
-14.14
-15.38
-17.76
-21.51
-26.41
-31.77
-36.65
-40.17
-41.77
-41.27
-38.83
-34.9
-30.08
-25.09
-20.63
-17.26
-15.23
-14.42
-14.41
-14.63
-14.54
-13.84
-12.4
-10.27
-7.58
-4.49
-1.15
2.17
5.16
7.43
8.65
8.61
7.41
5.41
3.18
1.33
0.28
0.16
0.81
1.92
3.22
4.6
6.13
7.9
9.92
11.95
13.58
14.43
14.28
13.23
11.58
9.65
7.71
5.88
4.2
2.7
1.47
0.61
0.15
-0.03
-0.1
-0.21
-0.42
-0.73
-1.09
-1.5
-1.98
-2.56
-3.24
-3.96
-4.61
-5.16
-5.59
-5.88
-5.97
-5.77
-5.17
-4.19
-2.97
-1.81
-1.06
-0.98
-1.63
-2.85
-4.36
-5.82
-6.99
-7.74
-8.12
-8.29
-8.37
-8.44
-8.45
-8.28
-7.83
-7.09
-6.22
-5.49
-5.17
-5.39
-6.18
-7.37
-8.73
-10
-10.98
-11.57
-11.76
-11.65
-11.56
-11.93
-13.25
-15.79
-19.4
-23.49
-27.13
-29.38
-29.62
-27.68
-23.89
-18.85
-13.21
-7.49
-1.97
3.22
8.04
12.39
16.11
18.92
20.51
20.58
19.02
15.96
11.82
7.21
2.81
-0.8
-3.25
-4.51
-4.89
-4.9
-5.04
-5.6
-6.56
-7.67
-8.56
-9.02
-9.1
-9.11
-9.47
-10.49
-12.23
-14.44
-16.77
-18.82
-20.34
-21.2
-21.32
-20.57
-18.79
-15.9
-12
-7.61
-3.45
-0.24
1.58
2.11
1.86
1.49
1.5
2.02
2.81
3.54
3.94
3.98
3.86
3.84
4.15
4.89
6.05
7.44
8.7
9.3
8.64
6.26
2.02
-3.79
-10.48
-17.29
-23.56
-28.89
-33.1
-36.11
-37.72
-37.67
-35.71
-31.76
-26.06
-19.15
-11.85
-5.14
0.05
3.05
3.63
2.15
-0.45
-2.89
-3.81
-2.13
2.58
10.01
19.18
28.7
37.21
43.77
48.01
50.12
50.64
50.17
49.24
48.25
47.33
46.34
44.79
41.97
37.28
30.66
22.88
15.51
10.33
8.6
10.61
15.54
21.95
28.39
33.86
37.89
40.26
40.87
39.49
36.08
30.86
24.42
17.55
10.93
4.97
-0.24
-4.73
-8.54
-11.5
-13.37
-13.99
-13.44
-11.98
-10.1
-8.25
-6.81
-6.03
-5.95
-6.47
-7.34
-8.26
-8.97
-9.36
-9.5
-9.58
-9.83
-10.36
-11.2
-12.24
-13.3
-14.23
-14.94
-15.34
-15.39
-15.06
-14.41
-13.61
-12.98
-12.78
-13.21
-14.3
-15.76
-17.22
-18.31
-18.84
-18.82
-18.43
-17.9
-17.34
-16.72
-15.87
-14.61
-12.86
-10.74
-8.47
-6.42
-4.98
-4.54
-5.3
-7.17
-9.66
-11.9
-12.94
-12
-8.71
-3.32
3.51
10.86
17.88
23.91
28.59
31.73
33.37
33.7
32.96
31.48
29.43
26.92
24.05
20.88
17.56
14.21
10.81
7.22
3.23
-1.29
-6.32
-11.6
-16.86
-21.84
-26.42
-30.49
-33.93
-36.55
-38.08
-38.43
-37.63
-35.9
-33.6
-31.08
-28.68
-26.66
-25.22
-24.4
-24.06
-23.94
-23.7
-23.09
-22.06
-20.77
-19.47
-18.38
-17.6
-17.02
-16.42
-15.52
-14.22
-12.56
-10.71
-8.81
-6.77
-4.24
-0.74
4.09
10.31
17.53
25.02
32.01
37.93
42.48
45.58
47.16
47.1
45.29
41.78
36.84
30.99
24.86
18.97
13.65
8.95
4.69
0.64
-3.37
-7.34
-11.07
-14.27
-16.58
-17.73
-17.61
-16.36
-14.28
-11.77
-9.18
-6.65
-4.21
-1.79
0.64
2.9
4.66
5.53
5.22
3.74
1.43
-1.1
-3.04
-3.74
-2.92
-0.85
1.7
3.58
3.78
1.8
-2.13
-7.05
-11.63
-14.62
-15.15
-12.79
-7.61
0.01
9.32
19.24
28.47
35.8
40.38
42.05
41.26
38.7
34.99
30.33
24.64
17.83
10.13
2.18
-5.15
-11.12
-15.34
-17.82
-18.81
-18.69
-17.72
-16.01
-13.56
-10.21
-5.83
-0.39
5.94
12.78
19.5
25.29
29.37
31.13
30.38
27.47
23.27
18.92
15.43
13.29
12.3
11.7
10.6
8.42
5.17
1.35
-2.36
-5.27
-6.94
-7.08
-5.68
-3.08
-0.06
2.33
3.37
3.17
3.13
5.38
11.84
22.99
37.23
51.22
61.1
64.03
59.17
47.86
32.86
17.34
3.88
-5.94
-11.59
-13.38
-12.18
-9.15
-5.46
-2
0.83
3.22
5.71
8.96
13.42
19.05
25.28
31.2
35.71
37.83
36.88
32.61
25.17
15.02
2.75
-10.93
-25.1
-38.56
-49.76
-56.91
-58.41
-53.43
-42.5
-27.61
-11.92
1.21
9.09
10.58
6.3
-1.69
-10.54
-17.49
-20.61
-19.26
-14.21
-7.41
-1.23
2.16
1.48
-3.34
-11.24
-20.46
-29.12
-35.66
-39.29
-40.07
-38.9
-37.32
-36.9
-38.57
-42.05
-45.79
-47.5
-45.11
-37.84
-26.69
-14.24
-3.8
1.88
1.65
-3.57
-11.11
-17.55
-19.98
-17.03
-9.28
1.12
11.23
18.57
21.84
21.25
18.05
13.87
10.12
7.62
6.73
7.58
10.25
14.77
20.96
28.23
35.64
42.03
46.39
48.17
47.43
44.69
40.6
35.67
30.1
23.87
16.97
9.64
2.36
-4.38
-10.28
-15.39
-19.98
-24.08
-27.44
-29.39
-29.27
-26.76
-22.09
-15.91
-8.96
-1.74
5.45
12.29
18.19
22.2
23.36
21.16
15.84
8.57
1
-5.16
-8.7
-9.15
-6.82
-2.53
2.67
7.76
11.91
14.5
15.21
13.89
10.61
5.59
-0.77
-7.97
-15.44
-22.59
-29.03
-34.44
-38.72
-41.82
-43.75
-44.4
-43.6
-41.11
-36.72
-30.38
-22.1
-11.95
-0.03
13.39
27.66
41.52
53.25
60.97
63.38
60.22
52.38
41.6
29.85
18.73
9.22
1.73
-3.71
-7.35
-9.64
-11.34
-13.36
-16.42
-20.81
-26.2
-31.78
-36.61
-40.04
-41.82
-42.17
-41.48
-40.16
-38.54
-36.81
-35.08
-33.37
-31.66
-29.83
-27.74
-25.28
-22.5
-19.59
-16.7
-13.89
-10.96
-7.58
-3.4
1.73
7.62
13.83
19.72
24.73
28.53
31.03
32.27
32.35
31.34
29.33
26.55
23.34
20.17
17.47
15.47
14.15
13.27
12.49
11.47
10.1
8.43
6.71
5.28
4.43
4.3
4.79
5.54
6.02
5.74
4.31
1.67
-1.98
-6.17
-10.38
-14.08
-17
-19.04
-20.23
-20.69
-20.38
-19.12
-16.62
-12.56
-6.71
0.97
10.32
20.87
31.64
41.3
48.39
51.75
51.14
47.37
42.12
37.39
34.72
34.68
36.81
40.04
43.18
45.51
46.91
47.61
47.81
47.26
45.15
40.41
32.24
20.6
6.37
-8.83
-23.21
-35.19
-43.63
-47.86
-47.67
-43.47
-36.39
-28.33
-21.45
-17.59
-17.37
-19.97
-23.46
-25.51
-24.47
-19.85
-12.46
-3.91
3.96
9.71
12.63
12.77
10.8
7.62
4.21
1.21
-1.07
-2.75
-4.33
-6.4
-9.47
-13.54
-17.95
-21.33
-22.03
-18.66
-10.77
0.86
14.39
27.45
37.75
43.52
43.71
38.12
27.39
13.04
-2.67
-17.07
-27.91
-33.76
-34.46
-30.91
-24.69
-17.55
-10.99
-6.21
-3.9
-4.3
-7
-11.11
-15.37
-18.62
-20.15
-19.94
-18.48
-16.51
-14.54
-12.62
-10.46
-7.68
-4.12
-0.16
3.44
5.65
5.61
2.93
-2.16
-8.83
-15.95
-22.37
-27.27
-30.16
-30.93
-29.69
-26.61
-21.98
-16.14
-9.62
-3.15
2.46
6.49
8.52
8.48
6.68
3.62
-0.24
-4.47
-8.76
-12.94
-17
-21.05
-25.23
-29.49
-33.49
-36.68
-38.41
-38.21
-35.93
-31.85
-26.48
-20.38
-14.06
-8
-2.75
0.97
2.29
0.56
-4.27
-11.39
-19.06
-25.24
-28.17
-27.12
-22.6
-16.13
-9.54
-4.2
-0.55
1.83
3.72
5.73
7.8
9.42
10.04
9.6
8.75
8.65
10.4
14.52
20.74
28.12
35.5
42.02
47.42
51.97
56.14
60.2
63.92
66.54
66.84
63.52
55.69
43.25
27.24
9.78
-6.36
-18.47
-24.54
-23.85
-17.19
-6.65
4.85
14.21
18.72
16.55
7.15
-8.46
-27.77
-47.16
-62.74
-71.26
-70.97
-62
-46.43
-27.72
-9.8
4.03
11.96
14.09
12.12
8.47
5.17
3.16
2.19
1.45
0.42
-0.65
-0.84
0.76
4.29
8.81
12.65
14.16
12.29
7.03
-0.74
-9.7
-18.49
-26.02
-31.62
-35
-36.18
-35.39
-32.96
-29.19
-24.29
-18.47
-12.11
-5.83
-0.43
3.32
5.01
4.77
3.27
1.47
0.33
0.61
2.92
7.89
16.07
27.69
42.24
58.19
73.19
84.78
91.28
92.41
89.32
84.03
78.52
74.11
71.24
69.63
68.63
67.48
65.32
61.25
54.54
44.9
32.85
19.63
6.9
-3.88
-11.94
-17.48
-21.48
-25.4
-30.7
-38.46
-49.07
-62
-75.75
-88.13
-96.7
-99.45
-95.38
-84.8
-69.22
-51
-32.75
-16.77
-4.59
3.24
7.11
8.03
7.21
5.71
4.26
3.13
2.31
1.6
0.81
-0.24
-1.61
-3.14
-4.39
-4.78
-3.81
-1.4
1.91
5.03
6.69
6.06
3.32
-0.13
-2.1
-0.38
6.11
16.66
28.68
38.39
41.93
36.62
21.72
-1.32
-29.19
-57.48
-81.72
-98.32
-105.39
-103.26
-94.42
-82.94
-73.28
-68.99
-71.63
-80.34
-92.27
-103.47
-110.06
-109.15
-99.29
-80.66
-54.91
-24.89
5.81
33.62
55.73
70.77
79
81.87
81.24
78.65
74.9
70.23
64.72
58.65
52.45
46.66
41.71
37.94
35.75
35.54
37.55
41.54
46.66
51.53
54.75
55.34
53.12
48.74
43.3
37.97
33.64
30.76
29.35
29.28
30.33
32.3
35.03
38.28
41.77
44.98
47.34
48.35
47.76
45.74
42.76
39.32
35.76
32.17
28.44
24.55
20.69
17.24
14.56
12.72
11.4
10
7.98
5.13
1.73
-1.53
-3.89
-4.83
-4.28
-2.6
-0.51
1.24
2.16
2.15
1.62
1.33
2.13
4.67
9.12
15.03
21.52
27.46
31.88
34.25
34.56
33.28
31.04
28.46
25.77
22.84
19.16
13.97
6.63
-3.29
-15.64
-29.57
-43.57
-55.72
-64.16
-67.69
-66.19
-60.62
-52.77
-44.54
-37.4
-32.16
-28.98
-27.73
-28.19
-30.18
-33.35
-37.07
-40.43
-42.41
-42.27
-39.77
-35.27
-29.62
-23.89
-19.02
-15.56
-13.6
-12.78
-12.61
-12.78
-13.37
-14.89
-18.1
-23.46
-30.83
-39.23
-47.02
-52.42
-54.07
-51.6
-45.72
-37.96
-30.11
-23.56
-18.91
-15.98
-14.12
-12.65
-11.16
-9.51
-7.54
-4.97
-1.55
2.6
6.8
9.9
10.8
9.14
5.6
1.66
-1.19
-2.31
-2.18
-2.1
-3.52
-7.26
-13.16
-20.24
-27
-31.7
-32.7
-28.68
-19.09
-4.49
13.43
32.13
48.96
61.76
69.4
71.75
69.46
63.7
55.91
47.69
40.56
35.57
33.11
32.68
33.21
33.39
32.14
28.93
23.87
17.6
11.02
5.13
0.72
-1.78
-2.38
-1.5
0.12
1.62
2.14
1.01
-2.08
-7.12
-13.66
-20.93
-27.93
-33.76
-37.86
-40.14
-41.03
-41.17
-41.16
-41.31
-41.57
-41.73
-41.56
-40.98
-39.94
-38.34
-35.99
-32.65
-28.23
-22.88
-16.99
-10.98
-5.28
-0.12
4.32
7.95
10.68
12.43
13.28
13.41
13.21
13.06
13.35
14.26
15.8
17.8
19.99
22.06
23.81
25.1
25.9
26.28
26.28
25.99
25.42
24.48
22.97
20.63
17.24
12.8
7.65
2.41
-2.05
-4.92
-5.73
-4.43
-1.6
1.8
4.66
6.08
5.67
3.63
0.55
-2.92
-6.39
-9.92
-13.83
-18.48
-24
-30.12
-36.15
-41.15
-44.06
-43.92
-40.21
-33.12
-23.71
-13.84
-5.6
-0.47
1.19
0.35
-1.21
-1.76
-0.31
3.07
7.42
11.46
14.18
15.1
14.21
11.78
8.13
3.65
-1.07
-5.15
-7.48
-7.07
-3.45
3.07
11.26
19.41
25.76
29.02
28.64
24.82
18.32
10.24
1.86
-5.67
-11.59
-15.64
-18.13
-19.62
-20.51
-20.84
-20.3
-18.45
-14.95
-9.59
-2.22
7.28
18.72
31.37
43.74
53.86
59.94
61.05
57.5
50.68
42.33
33.9
26.16
19.26
12.97
7.07
1.48
-3.78
-8.71
-13.42
-18.04
-22.64
-27.14
-31.44
-35.49
-39.37
-43.08
-46.27
-47.99
-46.89
-41.6
-31.53
-17.38
-1.17
14.29
26.26
32.71
32.78
26.86
16.54
4.4
-6.47
-13.32
-14.72
-11.29
-5.66
-1.63
-2.51
-9.76
-22.46
-37.74
-51.98
-61.9
-65.38
-61.46
-50.18
-32.33
-9.44
16.29
42.18
65.38
83.37
94.48
98.24
95.36
87.58
77.02
65.7
55.11
46
38.4
31.88
25.92
20.11
14.26
8.32
2.46
-2.97
-7.53
-10.81
-12.7
-13.65
-14.73
-17.47
-23.45
-33.65
-48.04
-65.35
-83.32
-99.2
-110.45
-115.14
-112.26
-101.6
-83.68
-59.53
-30.8
0.12
30.1
55.61
73.46
81.64
79.92
69.99
54.93
38.39
23.57
12.49
5.66
2.27
0.68
-0.9
-3.68
-7.98
-13.23
-18.34
-22.18
-24.06
-23.87
-22
-19.04
-15.54
-11.92
-8.44
-5.35
-2.87
-1.18
-0.38
-0.44
-1.23
-2.59
-4.46
-6.89
-9.98
-13.63
-17.26
-19.71
-19.55
-15.52
-7.1
5.12
19.51
33.81
45.73
53.54
56.44
54.66
49.27
41.88
34.23
27.87
23.84
22.52
23.63
26.38
29.73
32.73
34.69
35.26
34.54
32.91
30.93
29.12
27.78
26.92
26.29
25.51
24.14
21.91
18.79
15.1
11.4
8.3
6.24
5.28
5.06
4.92
4.25
2.68
0.28
-2.57
-5.47
-8.21
-10.87
-13.81
-17.34
-21.52
-26.03
-30.27
-33.54
-35.34
-35.5
-34.14
-31.61
-28.31
-24.69
-21.14
-17.97
-15.3
-12.89
-10.19
-6.49
-1.29
5.37
12.89
20.36
26.87
31.98
35.66
38.24
40.05
41.18
41.46
40.68
38.68
35.63
31.98
28.39
25.63
24.3
24.56
25.98
27.47
27.67
25.39
20.03
11.94
2.22
-7.52
-15.58
-20.63
-22.03
-19.94
-15.43
-10.17
-6.1
-4.87
-7.39
-13.54
-22.28
-31.98
-40.79
-47.05
-49.59
-47.86
-42.04
-33.05
-22.47
-12.26
-4.36
-0.03
0.42
-2.19
-6.32
-10.24
-12.74
-13.48
-12.96
-12.05
-11.5
-11.57
-12.04
-12.47
-12.65
-12.72
-13.1
-14.13
-15.88
-18.05
-20.14
-21.68
-22.4
-22.26
-21.26
-19.31
-16.29
-12.27
-7.84
-4.11
-2.45
-3.92
-8.86
-16.64
-26.06
-35.84
-45.01
-53.06
-59.61
-64.07
-65.6
-63.34
-56.99
-46.92
-34.15
-19.76
-4.52
11.1
26.62
41.02
52.73
59.99
61.65
57.71
49.42
38.84
28.07
18.7
11.54
6.84
4.44
3.95
4.72
5.89
6.56
6.06
4.24
1.44
-1.64
-4.4
-6.55
-8.09
-9.15
-9.75
-9.75
-9.05
-7.79
-6.47
-5.73
-5.94
-6.89
-7.78
-7.6
-5.7
-2.2
2.03
5.73
7.8
7.65
5.42
1.7
-2.59
-6.52
-9.33
-10.56
-10.1
-8.14
-5.09
-1.4
2.65
6.98
11.79
17.33
23.8
31.07
38.6
45.35
49.95
51.08
47.99
40.86
30.83
19.77
9.64
1.83
-3.08
-5.35
-5.74
-5.1
-4.09
-3.23
-2.79
-2.67
-2.35
-0.94
2.4
7.85
14.49
20.38
23.27
21.56
15.17
5.53
-4.87
-13.5
-18.58
-19.44
-16.35
-10.26
-2.51
5.34
11.62
14.92
14.43
10.23
3.31
-4.77
-12.33
-17.99
-20.93
-21.08
-18.95
-15.54
-12
-9.28
-7.83
-7.47
-7.48
-7
-5.28
-1.86
3.41
10.45
18.88
28
36.75
43.95
48.62
50.33
49.41
46.73
43.35
40.12
37.5
35.59
34.32
33.62
33.36
33.38
33.3
32.67
31.04
28.12
23.86
18.35
11.86
4.69
-2.82
-10.3
-17.32
-23.5
-28.49
-32.06
-34.09
-34.57
-33.6
-31.49
-28.76
-26.1
-24.29
-23.88
-25.03
-27.36
-30.1
-32.36
-33.4
-32.94
-31.11
-28.32
-25.07
-21.76
-18.6
-15.63
-12.88
-10.37
-8.13
-6.25
-4.73
-3.54
-2.52
-1.49
-0.25
1.34
3.26
5.33
7.24
8.74
9.66
10.04
10.04
9.8
9.38
8.73
7.79
6.55
5.14
3.77
2.67
1.94
1.54
1.29
0.99
0.52
-0.16
-0.97
-1.82
-2.63
-3.39
-4.14
-4.92
-5.81
-6.83
-8.04
-9.46
-11.04
-12.68
-14.12
-15.06
-15.29
-14.72
-13.57
-12.24
-11.18
-10.69
-10.8
-11.19
-11.46
-11.27
-10.59
-9.75
-9.25
-9.59
-10.95
-13.15
-15.67
-17.9
-19.4
-20.03
-20.02
-19.81
-19.88
-20.53
-21.85
-23.71
-25.74
-27.45
-28.23
-27.5
-24.87
-20.4
-14.72
-8.99
-4.61
-2.62
-3.25
-5.71
-8.54
-10.31
-10.41
-9.26
-8.07
-8.01
-9.48
-11.78
-13.52
-13.38
-10.85
-6.52
-1.6
2.79
6.14
8.68
10.96
13.32
15.59
17.18
17.45
16.1
13.41
10.14
7.18
5.26
4.65
5.17
6.29
7.4
8.13
8.4
8.45
8.68
9.32
10.36
11.46
12.23
12.33
11.77
10.74
9.5
8.22
6.89
5.4
3.69
1.93
0.38
-0.59
-0.79
-0.25
0.69
1.49
1.64
0.82
-0.83
-2.79
-4.27
-4.57
-3.41
-1.04
1.85
4.55
6.74
8.68
11.07
14.7
19.84
26
31.99
36.38
38.02
36.34
31.4
23.67
13.93
3.24
-6.97
-15.06
-19.76
-21.02
-20.41
-20.71
-24.64
-33.31
-45.37
-57.39
-65.41
-66.73
-60.99
-50.02
-36.64
-23.37
-11.55
-1.45
7.13
14.29
19.82
23.52
25.44
26.11
26.25
26.47
26.9
27.14
26.47
24.17
19.9
13.72
6.09
-2.44
-11.46
-20.83
-30.58
-40.71
-50.93
-60.42
-67.96
-72.02
-71.27
-65.1
-54.01
-39.55
-23.87
-8.99
3.74
13.9
21.77
27.86
32.55
35.98
38.14
39
38.49
36.48
32.76
27.44
21.13
15.07
10.83
9.62
11.68
16.06
21
24.51
25.23
22.77
17.71
11.33
5.15
0.5
-1.71
-1.18
1.85
6.73
12.62
18.77
24.64
29.96
34.62
38.66
42.17
45.33
48.42
51.7
55.38
59.39
63.24
66.03
66.7
64.32
58.42
49.26
37.66
24.74
11.6
-0.93
-12.27
-21.94
-29.46
-34.43
-36.64
-36.29
-33.83
-29.75
-24.34
-17.55
-9.21
0.63
11.25
21.29
28.9
32.4
30.91
24.68
15.3
5.35
-2.34
-5.64
-3.87
1.85
8.81
13.42
12.3
3.34
-13.57
-36.35
-61.22
-83.51
-98.81
-104.11
-98.58
-83.8
-63.34
-41.69
-22.97
-9.88
-3.1
-1.6
-3.44
-6.74
-10.3
-13.7
-16.94
-19.92
-22.11
-22.8
-21.44
-18.13
-13.53
-8.55
-3.95
-0.09
3.13
5.83
7.89
8.9
8.37
6.14
2.52
-1.68
-5.45
-7.93
-8.62
-7.52
-5.01
-1.68
1.85
5.05
7.51
9
9.34
8.43
6.2
2.68
-1.85
-6.79
-11.19
-14.07
-14.57
-12.22
-7
0.66
10.03
20.08
29.64
37.59
43.07
45.69
45.57
43.34
39.8
35.78
31.97
28.8
26.52
25.2
24.86
25.47
26.97
29.3
32.32
35.75
39.12
41.85
43.37
43.45
42.13
39.68
36.28
31.82
25.97
18.56
10.1
2.03
-3.48
-4.32
0.49
10.16
22.02
32.33
37.41
34.93
24.56
8.03
-11.49
-30.34
-45.49
-55.4
-60.33
-62.21
-63.75
-67.34
-74.03
-83.23
-93.07
-101.42
-106.57
-107.49
-103.52
-94.06
-78.57
-57.15
-31.26
-3.88
21.03
39.84
50.51
53.16
49.79
43.17
35.7
28.83
23.11
18.61
15.27
13.1
12.03
11.74
11.62
11.04
9.53
7.02
3.89
0.78
-1.36
-1.58
1.01
6.86
15.76
26.68
37.88
47.42
53.67
55.83
54.2
50.12
45.52
42.29
41.63
43.37
45.98
46.99
43.87
35.07
20.7
2.46
-17.18
-35.94
-52.48
-66.36
-77.64
-86.12
-91.18
-91.98
-88.09
-80.09
-69.55
-58.54
-48.81
-41.15
-35.24
-30.11
-24.95
-19.66
-14.96
-12.01
-11.63
-13.74
-17.18
-20.09
-20.45
-16.75
-8.4
4.14
19.5
35.66
50.47
62.11
69.47
72.3
71.08
66.71
60.14
52.23
43.7
35.21
27.41
20.82
15.71
12.08
9.64
8.01
6.8
5.75
4.72
3.67
2.62
1.59
0.59
-0.42
-1.49
-2.74
-4.32
-6.33
-8.74
-11.33
-13.73
-15.6
-16.79
-17.36
-17.61
-17.87
-18.3
-18.79
-18.97
-18.42
-16.91
-14.62
-11.97
-9.56
-7.82
-6.78
-6.04
-4.94
-2.85
0.46
4.81
9.69
14.55
19.08
23.25
27.18
30.89
34.13
36.45
37.43
36.93
35.16
32.6
29.88
27.57
26.25
26.51
28.88
33.54
40.02
46.87
51.87
52.64
47.63
36.95
22.58
7.84
-3.76
-9.72
-9.5
-4.53
2.33
7.89
9.71
6.75
-0.41
-9.92
-19.32
-26.3
-29.34
-28
-22.84
-15.13
-6.3
2.39
10.06
16.27
20.8
23.63
24.76
24.14
21.65
17.1
10.4
1.65
-8.58
-19.22
-28.88
-36.17
-40.12
-40.48
-37.68
-32.75
-26.94
-21.48
-17.33
-15.08
-14.8
-16.2
-18.58
-21.12
-23.18
-24.57
-25.53
-26.62
-28.25
-30.4
-32.53
-33.8
-33.54
-31.66
-28.9
-26.45
-25.45
-26.33
-28.55
-30.77
-31.32
-28.74
-22.26
-11.92
1.48
16.46
31.12
43.44
51.72
55.13
54
49.57
43.61
37.59
32.11
26.93
21.45
15.35
9.01
3.38
-0.72
-3.14
-4.78
-7.16
-11.56
-18.25
-26.3
-34.01
-39.68
-42.21
-41.33
-37.22
-30.23
-20.51
-8.29
5.78
20.37
33.73
44.08
50.18
51.62
48.7
42.28
33.46
23.49
13.81
5.85
0.73
-1.05
0.06
2.82
5.5
6.51
4.96
0.93
-4.65
-10.5
-15.47
-18.92
-20.79
-21.46
-21.39
-21
-20.47
-19.85
-19.13
-18.37
-17.69
-17.28
-17.25
-17.49
-17.61
-16.98
-14.87
-10.86
-4.96
2.19
9.49
15.77
20.05
21.83
21.12
18.42
14.39
9.68
4.74
-0.22
-5.05
-9.43
-12.82
-14.52
-13.94
-10.94
-5.88
0.66
8.25
16.92
26.89
38.07
49.35
58.61
63.34
61.83
54.11
42.09
28.81
17.15
8.75
3.68
0.76
-1.56
-4.38
-8.04
-12.3
-16.71
-20.97
-24.82
-27.81
-29.13
-27.81
-23.16
-15.38
-5.71
3.79
10.95
14.26
13.49
9.62
4.4
-0.47
-3.95
-5.89
-6.79
-7.33
-7.97
-8.67
-8.92
-8.14
-5.89
-2.16
2.72
8.27
13.87
18.77
21.99
22.54
19.76
13.9
6.31
-0.87
-5.63
-6.86
-4.74
-0.58
4.05
7.95
10.57
11.82
11.49
8.96
3.35
-6.01
-19.08
-34.94
-51.95
-68.16
-81.72
-91.21
-95.81
-95.49
-91.15
-84.53
-77.75
-72.46
-69.15
-66.71
-62.74
-54.13
-38.26
-13.94
17.81
53.86
89.61
120.15
141.66
152.12
151.65
142.05
125.9
105.76
83.7
61.33
40.12
21.65
7.37
-2.01
-7.06
-9.77
-12.88
-18.79
-28.46
-41.06
-54.19
-65.01
-71.28
-72.07
-67.99
-60.76
-52.67
-45.87
-41.72
-40.07
-39.06
-35.42
-25.62
-7.55
18.25
48.44
77.97
101.91
117.26
123.51
122.12
115.32
105.08
92.83
79.72
67.14
56.72
50.07
48.11
50.58
56.04
62.24
66.85
68.08
65
57.55
46.38
32.51
16.99
0.81
-15.19
-30.28
-43.7
-54.75
-62.79
-67.53
-69.25
-68.8
-67.39
-66.22
-66
-66.73
-67.81
-68.48
-68.25
-67.29
-66.22
-65.71
-65.93
-66.45
-66.45
-65.21
-62.6
-59.05
-55.31
-51.94
-49.01
-46.1
-42.57
-37.82
-31.48
-23.46
-13.86
-3.08
8.15
18.74
27.47
33.41
36.2
36.34
34.84
32.86
31.21
30.16
29.51
28.85
27.84
26.4
24.68
22.99
21.69
21.05
21.22
22.14
23.53
25.05
26.41
27.45
28.15
28.42
27.95
26.28
22.91
17.71
11.05
3.61
-4.03
-11.76
-19.95
-29
-38.74
-48.22
-56.01
-60.95
-62.92
-63.02
-63.13
-64.83
-68.57
-73.3
-77.02
-77.75
-74.52
-67.82
-59.36
-51.27
-45.36
-42.49
-42.51
-44.57
-47.69
-51.15
-54.61
-57.94
-60.89
-62.95
-63.36
-61.45
-56.99
-50.45
-42.87
-35.64
-29.93
-26.33
-24.79
-24.76
-25.45
-25.96
-25.16
-21.66
-13.88
-0.58
18.55
42.4
68.69
94.63
117.93
137.32
152.62
164.06
171.67
175.03
173.61
167.31
156.87
143.7
129.25
114.5
99.74
84.81
69.55
54.16
39.14
25.02
12.05
0.15
-10.97
-21.67
-32.24
-42.9
-53.82
-65.13
-76.94
-89.21
-101.75
-114.32
-126.58
-138.05
-147.85
-154.61
-156.47
-151.61
-138.96
-118.8
-93.12
-65.34
-39.46
-18.92
-5.6
0.69
2
1.38
1.68
4.58
10.21
17.53
25.05
31.63
36.87
41.15
45.29
50.19
56.65
65.26
76.45
90.26
106.22
123.22
139.51
153.09
162.11
165.17
161.67
151.79
136.45
117.2
95.97
74.71
55.03
37.93
23.57
11.53
1.1
-8.16
-16.08
-21.94
-24.85
-24.27
-20.29
-13.56
-5.14
3.69
11.36
16.06
16.05
10.14
-1.51
-17.14
-33.62
-47.38
-55.61
-57.25
-53.18
-45.8
-38.03
-32.26
-29.77
-30.36
-32.7
-34.86
-35.2
-33.12
-29.42
-26.02
-25.16
-28.54
-36.82
-49.47
-65.09
-81.8
-97.49
-110
-117.24
-117.42
-109.57
-94.05
-72.78
-48.95
-26.16
-7.45
5.44
12.33
14.32
13.27
11.14
9.49
9.26
10.55
12.79
14.85
15.37
13.3
8.3
1.06
-6.92
-13.83
-18.29
-19.79
-18.81
-16.47
-14.07
-12.69
-12.97
-15.12
-18.9
-23.68
-28.4
-31.86
-33.04
-31.57
-27.85
-22.97
-18.23
-14.59
-12.42
-11.41
-10.91
-10.26
-8.98
-6.89
-3.94
-0.23
4.16
9.12
14.6
20.51
26.71
32.88
38.52
43
45.65
46.02
44.02
39.87
34.12
27.47
20.63
14.33
9.05
5.09
2.38
0.59
-0.9
-2.72
-5.37
-9.03
-13.48
-18.15
-22.25
-25.1
-26.24
-25.69
-23.79
-21.09
-18.08
-15.03
-11.93
-8.6
-4.91
-0.91
3.09
6.63
9.26
10.66
10.72
9.57
7.53
4.99
2.38
0.1
-1.62
-2.71
-3.33
-3.7
-4.1
-4.69
-5.57
-6.72
-8.17
-10.05
-12.5
-15.62
-19.27
-23.11
-26.71
-29.77
-32.22
-34.27
-36.19
-38.22
-40.39
-42.65
-45.02
-47.59
-50.43
-53.2
-55.09
-54.89
-51.56
-44.58
-34.14
-20.79
-5.12
12.55
31.84
51.78
70.47
85.23
93.48
93.79
86.53
73.79
58.57
43.66
30.95
21.26
14.6
10.64
8.97
9.14
10.61
12.67
14.58
15.73
15.89
15.27
14.43
14.01
14.48
15.96
18.15
20.5
22.39
23.39
23.41
22.6
21.28
19.8
18.41
17.2
16.14
15.1
13.94
12.53
10.83
8.84
6.64
4.33
2.02
-0.28
-2.59
-4.92
-7.25
-9.52
-11.56
-13.23
-14.35
-14.84
-14.71
-14.22
-13.75
-13.68
-14.29
-15.55
-17.16
-18.65
-19.56
-19.62
-18.88
-17.56
-16.01
-14.53
-13.34
-12.5
-11.79
-10.63
-8.15
-3.44
4.05
14.16
25.9
37.72
48
55.67
60.39
62.49
62.63
61.41
59.15
55.94
51.79
46.86
41.56
36.53
32.44
29.77
28.52
28.15
27.67
26.09
22.85
18.18
12.98
8.51
5.73
5.04
6.13
8.34
11
13.68
16.15
18.07
18.82
17.57
13.72
7.3
-0.77
-9
-15.95
-20.69
-23.07
-23.5
-22.63
-21.04
-19.39
-18.5
-19.39
-22.88
-29.07
-36.86
-44.1
-48.4
-48.11
-43.11
-34.76
-25.29
-16.8
-10.55
-6.82
-5.24
-5.31
-6.87
-10.04
-14.85
-20.9
-27.19
-32.24
-34.64
-33.53
-28.89
-21.44
-12.43
-3.09
5.51
12.52
17.28
19.21
17.98
13.67
6.94
-1.18
-9.45
-16.81
-22.63
-26.7
-29.08
-29.88
-29.06
-26.39
-21.56
-14.37
-4.91
6.31
18.36
30.1
40.32
47.97
52.24
52.69
49.27
42.35
32.73
21.59
10.38
0.5
-6.96
-11.51
-13.27
-12.88
-11.18
-9
-6.94
-5.29
-4.16
-3.62
-3.72
-4.58
-6.2
-8.45
-11
-13.47
-15.56
-17.14
-18.26
-19.03
-19.46
-19.43
-18.69
-16.92
-13.97
-9.86
-4.86
0.53
5.75
10.24
13.51
15.22
15.18
13.38
10.02
5.57
0.7
-3.82
-7.29
-9.32
-9.91
-9.4
-8.21
-6.72
-5.12
-3.5
-1.94
-0.59
0.31
0.53
0.06
-0.95
-2.15
-3.21
-3.89
-4.19
-4.24
-4.21
-4.14
-3.87
-3.15
-1.77
0.26
2.69
5.05
6.94
8.14
8.68
8.77
8.57
8.12
7.32
6.02
4.11
1.7
-1.01
-3.74
-6.22
-8.29
-9.88
-11.05
-11.99
-13.08
-14.77
-17.42
-21.1
-25.44
-29.6
-32.54
-33.34
-31.54
-27.26
-21.16
-14.27
-7.72
-2.57
0.36
0.75
-1.1
-4.3
-7.54
-9.47
-8.96
-5.4
1.35
10.96
22.7
35.47
47.82
58.15
65.08
67.89
66.7
62.45
56.38
49.66
42.99
36.61
30.46
24.42
18.45
12.6
6.98
1.64
-3.39
-8.12
-12.54
-16.59
-20.2
-23.32
-25.96
-28.18
-30.09
-31.82
-33.46
-34.95
-36.11
-36.68
-36.45
-35.57
-34.58
-34.39
-35.75
-38.67
-42.02
-43.69
-41.35
-33.49
-20.03
-2.36
17.2
36.25
52.85
65.61
73.56
76.19
73.8
67.86
60.94
55.96
54.88
57.74
62.52
66.1
65.76
60.37
50.61
38.41
25.97
14.99
6.53
1.14
-0.85
0.55
4.75
10.47
15.95
19.59
20.57
19
15.72
11.73
7.66
3.66
-0.45
-4.75
-8.96
-12.48
-14.67
-15.23
-14.28
-12.3
-9.93
-7.68
-5.86
-4.61
-4.03
-4.36
-5.89
-8.93
-13.48
-19.2
-25.29
-30.72
-34.58
-36.33
-35.96
-33.93
-30.92
-27.57
-24.21
-20.75
-16.88
-12.26
-6.83
-0.93
4.71
9.18
11.81
12.44
11.48
9.72
7.92
6.5
5.41
4.31
2.85
0.97
-1.09
-2.9
-4.1
-4.66
-4.82
-4.97
-5.41
-6.18
-7.07
-7.77
-8.02
-7.72
-6.92
-5.75
-4.35
-2.81
-1.21
0.43
2.06
3.65
5.17
6.56
7.72
8.47
8.67
8.19
7.01
5.21
2.97
0.52
-1.95
-4.24
-6.17
-7.66
-8.69
-9.35
-9.7
-9.76
-9.51
-8.95
-8.14
-7.25
-6.43
-5.69
-4.82
-3.41
-1.04
2.43
6.66
10.95
14.46
16.59
17.14
16.31
14.48
11.96
8.96
5.6
2.1
-1.15
-3.74
-5.32
-5.81
-5.37
-4.24
-2.66
-0.72
1.64
4.53
8.14
12.76
18.72
26.42
36.18
48.07
61.78
76.57
91.35
104.79
115.62
122.77
125.58
123.85
117.83
108.08
95.48
81.14
66.4
52.87
42.2
35.72
33.98
36.38
41.14
45.73
47.62
45
37.35
25.35
10.54
-5.24
-20.45
-34.13
-45.97
-56.15
-65
-72.64
-78.83
-83.05
-84.72
-83.6
-80.03
-74.89
-69.28
-64.03
-59.43
-55.25
-51.05
-46.6
-42.09
-37.95
-34.64
-32.21
-30.3
-28.33
-25.88
-23.05
-20.54
-19.32
-20.24
-23.63
-29
-35.3
-41.18
-45.44
-47.35
-46.83
-44.31
-40.51
-36.07
-31.35
-26.32
-20.77
-14.56
-7.96
-1.7
3.25
6.04
6.32
4.43
1.22
-2.3
-5.37
-7.72
-9.49
-11
-12.5
-14
-15.25
-15.93
-15.85
-15.05
-13.9
-12.9
-12.61
-13.33
-14.97
-16.99
-18.58
-18.95
-17.73
-15.23
-12.29
-10.01
-9.21
-10.05
-11.81
-13.07
-12.04
-6.95
3.48
19.59
40.52
64.11
87.15
105.99
117.51
120.06
113.93
101.15
84.65
67.15
50.44
35.22
21.68
10.23
1.76
-2.71
-2.82
0.48
4.96
8.03
7.83
4.12
-1.69
-7.49
-11.52
-13.3
-13.44
-13.08
-12.99
-13.17
-13.07
-12.2
-10.68
-9.34
-9.18
-10.79
-13.93
-17.8
-21.47
-24.58
-27.5
-30.96
-35.45
-40.64
-45.31
-47.94
-47.42
-43.67
-37.77
-31.45
-26.36
-23.42
-22.56
-22.97
-23.67
-24.05
-24.08
-24.25
-25
-26.46
-28.35
-30.15
-31.43
-32.03
-31.91
-30.87
-28.38
-23.7
-16.27
-6.15
5.7
17.59
27.48
33.71
35.54
33.3
28.25
21.99
15.99
11.25
8.26
7.13
7.79
10.03
13.51
17.62
21.7
25.39
28.94
33.13
38.73
45.68
52.63
57.23
57.15
51.36
40.76
27.91
15.95
7.23
2.58
1.37
2.17
3.58
4.54
4.24
1.89
-3.24
-11.48
-22.25
-34.04
-44.73
-52.32
-55.68
-54.83
-50.76
-44.88
-38.45
-32.2
-26.35
-20.81
-15.35
-9.82
-4.3
0.84
5.03
7.61
8.06
6.25
2.57
-2.14
-6.8
-10.51
-12.71
-13.27
-12.31
-10.02
-6.6
-2.26
2.68
7.8
12.62
16.79
20.24
23.23
26.17
29.43
33.13
37.03
40.59
43.15
44.12
43.14
40.17
35.54
29.87
23.97
18.56
14.13
10.84
8.5
6.74
5.16
3.45
1.47
-0.79
-3.28
-5.9
-8.52
-10.95
-12.93
-14.12
-14.26
-13.19
-11.02
-8.11
-4.95
-2.01
0.37
2.12
3.38
4.32
5.06
5.56
5.73
5.53
5.01
4.31
3.6
2.96
2.37
1.8
1.15
0.37
-0.54
-1.64
-2.98
-4.56
-6.35
-8.23
-10.05
-11.68
-13.02
-14.06
-14.87
-15.57
-16.27
-17.08
-18.12
-19.49
-21.23
-23.35
-25.78
-28.47
-31.29
-34.1
-36.7
-38.8
-40.19
-40.75
-40.53
-39.73
-38.66
-37.45
-36.09
-34.4
-32.11
-29.17
-25.74
-22.15
-18.7
-15.58
-12.75
-10.18
-7.91
-6.16
-5.18
-5.1
-5.76
-6.65
-7.13
-6.58
-4.68
-1.42
2.92
7.93
13.13
18.07
22.32
25.49
27.22
27.2
25.29
21.56
16.32
10.12
3.63
-2.58
-8.08
-12.71
-16.54
-19.74
-22.44
-24.61
-25.98
-26.21
-25.03
-22.39
-18.49
-13.74
-8.51
-3.06
2.5
8.11
13.51
18.17
21.44
22.73
21.84
19.06
15.12
10.91
7.21
4.48
2.8
2.08
2.13
2.88
4.38
6.77
10.11
14.4
19.42
24.77
29.91
34.16
36.88
37.6
36.15
32.66
27.52
21.28
14.4
7.25
0.04
-7.14
-14.16
-20.85
-26.97
-32.27
-36.59
-39.85
-42.03
-43.18
-43.4
-42.89
-42.06
-41.57
-42.15
-44.4
-48.49
-54.08
-60.49
-66.93
-72.75
-77.55
-80.94
-82.39
-81.09
-76.15
-66.9
-53.19
-35.48
-14.76
7.67
30.33
51.79
70.71
86.03
97.2
104.34
108.26
110.15
111.17
112
112.68
112.7
111.29
107.79
101.89
93.66
83.49
71.92
59.65
47.5
36.35
27.11
20.34
16.05
13.61
11.96
10.08
7.34
3.71
-0.48
-4.76
-8.86
-12.78
-16.59
-20.28
-23.61
-26.31
-28.16
-29.28
-29.97
-30.59
-31.36
-32.21
-32.87
-32.98
-32.29
-30.77
-28.65
-26.23
-23.78
-21.41
-19.07
-16.63
-13.93
-10.99
-7.92
-4.96
-2.27
0.05
2.1
4.08
6.16
8.47
10.97
13.55
16.12
18.64
21.14
23.64
26.08
28.22
29.76
30.44
30.13
28.84
26.7
23.78
20.1
15.65
10.48
4.82
-0.93
-6.31
-10.97
-14.82
-18.02
-20.88
-23.65
-26.35
-28.68
-30.19
-30.48
-29.39
-27.08
-23.92
-20.31
-16.55
-12.78
-9.08
-5.58
-2.43
0.15
1.97
2.92
3.01
2.33
1.05
-0.59
-2.33
-3.85
-4.86
-5.16
-4.68
-3.47
-1.77
0.07
1.56
2.23
1.82
0.45
-1.35
-2.85
-3.31
-2.29
0.22
3.77
7.62
11.01
13.3
14.18
13.68
12.15
10.11
8.09
6.46
5.4
4.84
4.62
4.5
4.28
3.8
2.95
1.69
0.03
-2.01
-4.42
-7.22
-10.48
-14.28
-18.64
-23.42
-28.31
-32.78
-36.24
-38.14
-38.18
-36.39
-33.23
-29.47
-25.97
-23.31
-21.73
-21
-20.59
-19.93
-18.67
-16.79
-14.65
-12.92
-12.26
-13.18
-15.73
-19.48
-23.64
-27.34
-29.98
-31.34
-31.68
-31.51
-31.25
-31.04
-30.59
-29.25
-26.14
-20.4
-11.56
0.07
13.17
25.58
34.91
39.29
38.1
32.31
24.1
16.15
10.68
8.87
10.67
15.18
21.09
27.25
32.81
37.35
40.71
42.94
44.18
44.64
44.53
43.9
42.68
40.61
37.42
33.12
28.23
23.8
21.16
21.48
25.17
31.61
39.18
45.65
48.87
47.58
41.85
33.3
24.49
18.12
16.02
18.58
24.68
32.31
39.31
43.97
45.4
43.4
38.24
30.59
21.56
12.75
6.12
3.57
6.14
13.56
24.02
34.63
42.37
45.06
42.15
34.79
25.44
17.07
12.27
12.62
18.28
27.92
39.08
48.8
54.37
54.08
47.54
35.58
19.87
2.32
-15.28
-31.5
-45.26
-55.82
-62.86
-66.55
-67.52
-66.66
-64.72
-61.96
-58.2
-53.02
-46.23
-38.12
-29.59
-21.8
-15.82
-12.24
-11.08
-11.89
-13.91
-16.26
-17.97
-18.12
-16.06
-11.59
-5.17
2.19
9.24
14.94
18.78
20.76
21.24
20.59
18.91
16.07
11.85
6.2
-0.64
-8.14
-15.7
-22.69
-28.66
-33.36
-36.78
-39.14
-40.81
-42.26
-43.84
-45.67
-47.64
-49.4
-50.53
-50.74
-49.87
-47.87
-44.61
-39.83
-33.17
-24.44
-13.81
-2
9.89
20.66
29.3
35.28
38.48
39.19
37.92
35.24
31.71
27.82
23.95
20.42
17.38
14.93
13.05
11.68
10.66
9.83
9.01
8.09
7.08
6.08
5.25
4.76
4.59
4.67
4.79
4.75
4.49
4.11
3.79
3.77
4.13
4.76
5.38
5.7
5.52
4.88
4
3.15
2.58
2.37
2.4
2.4
2.05
1.04
-0.76
-3.37
-6.62
-10.2
-13.78
-17.02
-19.71
-21.75
-23.24
-24.32
-25.17
-25.96
-26.75
-27.57
-28.39
-29.13
-29.64
-29.8
-29.38
-28.25
-26.34
-23.71
-20.55
-17.25
-14.36
-12.55
-12.4
-14.26
-18.06
-23.4
-29.69
-36.42
-43.3
-50.19
-56.84
-62.78
-67.32
-69.84
-70.12
-68.4
-65.18
-60.8
-55.09
-47.44
-37.16
-24.01
-8.56
7.84
23.62
37.41
48.47
56.62
62
64.76
65.02
62.99
59.24
54.72
50.52
47.52
46.06
45.79
45.9
45.54
44.2
41.92
39.22
36.82
35.38
35.32
36.81
39.89
44.44
50.22
56.66
62.87
67.68
69.91
68.74
63.91
55.71
44.92
32.48
19.34
6.38
-5.66
-16.16
-24.67
-30.97
-35.1
-37.29
-37.96
-37.49
-36.19
-34.29
-31.88
-29.07
-26
-22.91
-20.16
-18.16
-17.22
-17.41
-18.5
-19.99
-21.28
-21.9
-21.65
-20.67
-19.33
-18.09
-17.3
-17.05
-17.11
-16.98
-15.91
-13.01
-7.54
0.83
11.73
23.96
35.76
45.26
50.97
52.24
49.28
42.98
34.51
25.07
15.73
7.38
0.7
-3.92
-6.48
-7.28
-6.81
-5.49
-3.53
-0.94
2.31
6.04
9.81
12.98
14.91
15.21
13.87
11.27
8.04
4.91
2.49
1.21
1.15
1.88
2.5
1.82
-1.23
-6.94
-14.3
-20.87
-23.49
-19.48
-8.1
8.78
27
41.46
47.78
43.72
29.56
7.82
-17.81
-43.4
-65.54
-81.68
-90.44
-91.86
-87.51
-80.39
-74.1
-71.85
-75.22
-83.58
-94.08
-102.63
-105.14
-98.72
-82.44
-57.33
-25.91
8.46
42.22
72.11
95.5
110.83
117.9
117.88
112.83
105.01
95.9
85.87
74.12
59.41
40.95
19.41
-2.88
-22.43
-35.9
-41.45
-39.75
-33.87
-28.26
-27.06
-32.58
-44.79
-61.41
-78.94
-93.59
-102.15
-102.35
-93.26
-75.38
-50.64
-22.21
6.25
31.42
51.02
64.22
71.39
73.7
72.56
69.36
65.25
60.97
56.88
52.81
48.33
42.96
36.59
29.53
22.52
16.29
11.25
7.33
4.02
0.67
-3.26
-7.94
-13.15
-18.25
-22.4
-24.6
-23.98
-19.9
-12.22
-1.48
11.19
24.25
36.01
44.83
49.44
49.18
44.2
35.71
25.85
17.22
12.13
11.82
15.9
22.38
28.24
30.53
27.42
18.85
6.41
-7.35
-19.73
-28.47
-32.03
-29.67
-21.57
-8.87
6.15
20.5
31.23
36.36
35.66
30.75
24.28
18.75
15.52
14.39
14.05
12.79
9.29
3.04
-5.63
-15.87
-26.64
-37.11
-46.74
-55.15
-62
-66.71
-68.69
-67.53
-63.39
-57.03
-49.66
-42.44
-36.03
-30.43
-25.09
-19.32
-12.8
-5.7
1.47
8.12
13.93
19
23.79
28.98
35.33
43.52
54.07
67.1
82.21
98.35
113.87
126.83
135.49
138.78
136.58
129.85
120.24
109.77
100.21
92.69
87.4
83.62
79.93
74.66
66.49
54.78
39.93
23.21
6.43
-8.69
-20.95
-30.07
-36.43
-40.75
-43.56
-45.02
-45.08
-43.85
-41.88
-40.14
-39.65
-40.91
-43.63
-46.85
-49.39
-50.53
-50.27
-49.34
-48.79
-49.56
-52.13
-56.34
-61.56
-66.72
-70.57
-71.96
-70.18
-65.33
-58.46
-51.32
-45.83
-43.32
-43.91
-46.37
-48.34
-47.25
-41.17
-29.63
-13.97
2.9
17.32
26.07
27.42
21.82
11.77
0.95
-6.94
-9.39
-5.63
3.38
15.42
27.74
37.8
43.73
44.74
41.28
34.78
27.31
20.9
16.87
15.58
16.39
18.03
19.05
18.23
14.88
8.99
1.16
-7.49
-15.69
-22.37
-27.07
-30.07
-32.24
-34.61
-37.91
-42.2
-46.93
-51.14
-53.97
-55.09
-54.83
-54.13
-54.08
-55.39
-57.83
-60.27
-60.9
-57.94
-50.35
-38.19
-22.7
-5.91
9.87
22.52
30.4
32.6
29.12
21.01
10.38
0.03
-7.26
-9.48
-6.15
1.66
11.68
21.19
27.82
30.05
27.44
20.59
11.04
0.87
-7.66
-12.77
-13.75
-11.26
-7.13
-3.62
-2.54
-4.47
-8.77
-14
-18.71
-22.07
-24.07
-25.26
-26.24
-27.28
-28.17
-28.39
-27.48
-25.2
-21.72
-17.42
-12.71
-7.91
-3.16
1.45
5.84
9.79
13.02
15.29
16.54
17
17.07
17.22
17.8
18.89
20.35
21.9
23.17
23.9
23.98
23.53
22.97
22.96
24.18
27.01
31.29
36.27
40.86
44
44.99
43.73
40.54
36.01
30.73
25.08
19.22
13.13
6.72
0.03
-6.67
-13.01
-18.56
-22.96
-25.99
-27.51
-27.52
-26.37
-24.86
-24.45
-26.85
-33.24
-43.42
-55.43
-66.01
-71.85
-70.96
-63.39
-51.14
-36.99
-23.42
-11.77
-2.37
5
10.5
13.99
15.31
14.45
11.79
8.01
3.8
-0.31
-3.99
-7.08
-9.55
-11.33
-12.33
-12.44
-11.52
-9.54
-6.6
-3.04
0.59
3.67
5.69
6.42
6
4.92
3.86
3.46
4.1
5.7
7.77
9.5
10.1
9.21
7.06
4.51
2.7
2.43
3.85
6.4
9.19
11.46
12.98
13.96
14.79
15.62
16.21
16.1
14.87
12.5
9.37
6.21
3.71
2.34
2.24
3.23
4.85
6.34
6.81
5.28
1.08
-5.98
-15.2
-25.04
-33.42
-38.18
-37.81
-31.98
-21.78
-9.32
2.89
12.85
19.67
23.49
24.93
24.39
21.68
16.19
7.66
-3.2
-14.54
-23.93
-29.37
-30.08
-26.76
-21.08
-14.85
-9.22
-4.46
-0.24
3.93
8.33
12.92
17.52
21.91
25.89
29.27
31.75
32.95
32.59
30.65
27.5
23.85
20.49
18.02
16.63
16.11
15.97
15.66
14.74
13.08
10.79
8.22
5.8
3.79
2.27
1.07
-0.13
-1.65
-3.7
-6.25
-9.11
-11.96
-14.46
-16.36
-17.46
-17.75
-17.34
-16.52
-15.67
-15.12
-15.05
-15.45
-16.12
-16.75
-17.08
-16.87
-16.02
-14.59
-12.79
-10.98
-9.64
-9.16
-9.74
-11.23
-13.14
-14.75
-15.39
-14.68
-12.61
-9.57
-6.15
-2.93
-0.33
1.54
2.8
3.69
4.43
4.97
5.05
4.27
2.35
-0.67
-4.33
-7.91
-10.73
-12.35
-12.8
-12.46
-11.86
-11.38
-11.23
-11.44
-12
-12.85
-13.76
-14.25
-13.62
-11.29
-7.19
-1.98
3.09
6.74
8.24
7.8
6.36
4.96
4.18
3.8
3.21
1.88
-0.11
-2.03
-2.86
-1.84
1.32
6.36
12.78
20.18
28.25
36.72
45.07
52.54
58.22
61.35
61.54
58.85
53.69
46.63
38.29
29.31
20.38
12.27
5.69
1.11
-1.46
-2.45
-2.68
-2.95
-3.91
-5.79
-8.44
-11.45
-14.36
-16.75
-18.31
-18.97
-18.98
-18.98
-19.88
-22.57
-27.52
-34.5
-42.57
-50.42
-56.88
-61.33
-63.8
-64.7
-64.31
-62.49
-58.69
-52.39
-43.5
-32.67
-21.15
-10.34
-1.3
5.6
10.64
14.48
17.78
20.98
24.17
27.12
29.47
30.79
30.7
29.01
25.91
22.08
18.64
16.68
16.77
18.46
20.32
20.43
17.24
10.36
0.89
-8.94
-16.56
-19.94
-18.22
-11.79
-2.07
8.97
19.32
27.28
31.68
32.03
28.58
22.23
14.32
6.41
-0.08
-4.09
-5.15
-3.43
0.31
4.92
9.11
11.78
12.34
10.8
7.77
4.14
0.73
-1.89
-3.64
-4.82
-5.88
-7.12
-8.62
-10.11
-11.2
-11.55
-11.04
-9.87
-8.53
-7.64
-7.66
-8.77
-10.79
-13.23
-15.45
-16.87
-17.1
-16.06
-13.94
-11.16
-8.25
-5.67
-3.68
-2.22
-0.91
0.74
3.11
6.31
10.15
14.25
18.32
22.21
25.95
29.65
33.22
36.39
38.71
39.74
39.28
37.49
34.82
31.8
28.84
26.06
23.39
20.59
17.46
13.99
10.4
7.02
4.17
2.01
0.41
-0.87
-2.1
-3.45
-4.85
-6.06
-6.84
-7.03
-6.67
-5.98
-5.23
-4.6
-4.15
-3.88
-3.75
-3.78
-3.99
-4.4
-4.94
-5.46
-5.83
-5.97
-5.89
-5.73
-5.61
-5.67
-5.87
-6.11
-6.23
-6.05
-5.53
-4.68
-3.66
-2.66
-1.83
-1.26
-0.99
-1
-1.31
-1.96
-2.92
-4
-4.89
-5.23
-4.78
-3.57
-1.91
-0.24
1.08
1.93
2.39
2.7
3
3.3
3.48
3.43
3.1
2.5
1.7
0.72
-0.4
-1.61
-2.77
-3.75
-4.41
-4.72
-4.74
-4.58
-4.36
-4.08
-3.71
-3.18
-2.49
-1.78
-1.3
-1.32
-2.03
-3.48
-5.51
-7.77
-9.82
-11.19
-11.49
-10.55
-8.53
-6.09
-4.32
-4.48
-7.45
-13.3
-21.03
-28.9
-34.99
-37.93
-37.37
-33.85
-28.47
-22.23
-15.76
-9.27
-2.84
3.32
8.8
13.18
16.28
18.35
19.97
21.77
24.14
27.01
29.9
32.23
33.6
34.02
33.78
33.17
32.25
30.85
28.69
25.72
22.21
18.78
16.06
14.45
13.95
14.25
14.99
15.9
16.92
18.12
19.58
21.3
23.17
25.09
26.92
28.61
30.11
31.41
32.52
33.45
34.25
35.08
36.13
37.57
39.59
42.28
45.44
48.62
50.97
51.51
49.48
44.66
37.51
29.01
20.08
11.07
1.68
-8.77
-20.55
-33.07
-44.71
-53.64
-58.52
-59.26
-57.04
-53.61
-50.55
-48.63
-47.78
-47.45
-47.14
-46.71
-46.29
-46.04
-45.82
-45.24
-43.8
-41.15
-37.36
-32.86
-28.35
-24.5
-21.81
-20.45
-20.3
-21.01
-22.13
-23.34
-24.42
-25.37
-26.28
-27.26
-28.35
-29.44
-30.4
-31.08
-31.47
-31.7
-31.98
-32.46
-33.05
-33.43
-33.03
-31.28
-27.79
-22.48
-15.66
-7.89
0.28
8.46
16.37
23.84
30.63
36.4
40.78
43.48
44.41
43.71
41.76
39.17
36.72
35.21
35.27
37.13
40.4
44.2
47.28
48.41
46.61
41.3
32.3
19.86
4.75
-11.63
-27.26
-39.79
-47.01
-47.49
-40.99
-28.6
-12.48
4.71
20.38
32.62
40.46
43.88
43.58
40.7
36.43
31.86
27.88
25.11
23.96
24.42
26.1
28.18
29.6
29.41
27.07
22.63
16.66
10.02
3.56
-2.15
-6.83
-10.45
-13.06
-14.7
-15.46
-15.47
-14.98
-14.34
-13.94
-14.1
-15
-16.63
-18.77
-21.06
-23.09
-24.55
-25.32
-25.48
-25.29
-25.04
-24.94
-25.05
-25.29
-25.48
-25.43
-25.02
-24.26
-23.31
-22.56
-22.48
-23.57
-26.02
-29.59
-33.51
-36.61
-37.64
-35.67
-30.3
-21.85
-11.2
0.54
12.27
23.11
32.49
40
45.32
48.19
48.44
46.16
41.91
36.85
32.71
31.27
33.66
39.72
47.68
54.64
57.52
54.19
44.25
29.03
11.02
-7.2
-23.52
-36.65
-45.89
-50.75
-50.93
-46.39
-37.68
-26.02
-13.21
-1.21
8.28
14.06
15.66
13.24
7.56
-0.3
-9.06
-17.53
-24.79
-30.37
-34.31
-36.94
-38.82
-40.37
-41.9
-43.38
-44.56
-45.01
-44.3
-42.18
-38.59
-33.87
-28.48
-22.93
-17.63
-12.8
-8.54
-5.02
-2.49
-1.22
-1.34
-2.72
-4.97
-7.58
-10.25
-12.95
-16
-19.74
-24.37
-29.78
-35.56
-41.22
-46.26
-50.31
-53.02
-54.02
-52.88
-49.33
-43.31
-35.15
-25.44
-14.85
-3.8
7.39
18.47
28.76
36.99
41.51
40.98
35.19
25.63
15.45
8.48
7.9
15
28.53
44.99
59.83
68.89
69.76
62.46
49.33
34.11
20.78
12.21
9.45
11.51
15.84
19.38
19.58
15.33
7.28
-2.4
-10.84
-15.5
-15.19
-10.49
-3.53
2.78
5.8
4.24
-1.48
-9.37
-16.69
-21.02
-21.15
-17.47
-11.7
-6.22
-3.17
-3.76
-7.92
-14.37
-21.04
-25.76
-26.96
-24.14
-18.11
-10.65
-3.88
0.56
2.05
1.2
-0.58
-1.57
-0.42
3.47
9.85
17.71
25.66
32.19
36.09
36.72
34.18
29.38
23.78
19.03
16.46
16.78
19.94
25.19
31.27
36.7
40.15
40.74
38.32
33.64
28.11
23.51
21.34
22.3
26.05
31.24
36.06
38.81
38.4
34.56
27.72
18.75
8.62
-1.81
-11.83
-20.87
-28.4
-33.97
-37.27
-38.42
-38.03
-37.22
-37.3
-39.37
-43.66
-49.32
-54.34
-56.23
-52.94
-43.8
-29.98
-14.21
0.19
10.55
15.69
16.13
13.54
9.87
6.57
4.4
3.53
4.03
5.98
9.42
14.14
19.45
24.4
28.05
29.89
30
28.94
27.37
25.74
24.15
22.34
19.97
16.85
13.01
8.72
4.38
0.38
-2.96
-5.49
-7.2
-8.23
-8.77
-9.09
-9.44
-9.99
-10.82
-11.88
-13.03
-14.14
-15.11
-15.94
-16.7
-17.4
-17.99
-18.35
-18.36
-17.93
-17.12
-16.05
-14.96
-14.1
-13.58
-13.32
-13.06
-12.38
-10.89
-8.47
-5.3
-1.95
0.9
2.73
3.36
3.09
2.62
2.77
4.19
7.02
10.69
13.96
15.29
13.47
8.29
0.92
-6.17
-9.97
-8
0.71
15.03
32.07
47.98
59.14
63.19
59.58
49.52
35.6
20.97
8.59
0.47
-2.61
-1.19
3.19
8.58
13.21
16.03
16.84
16.17
14.99
14.23
14.45
15.64
17.23
18.19
17.43
14.19
8.27
0.03
-9.68
-19.87
-29.52
-37.62
-43.38
-46.31
-46.49
-44.62
-41.8
-39.14
-37.32
-36.23
-35.27
-33.84
-31.73
-29.26
-26.99
-25.32
-24.2
-23.34
-22.48
-21.72
-21.46
-21.99
-23.01
-23.54
-22.18
-17.83
-10.27
-0.42
10.08
19.43
26.38
30.51
32.24
32.53
32.53
33.27
35.37
38.94
43.51
48.17
51.73
53.1
51.66
47.38
40.86
33.04
24.88
17.2
