8.5384
13.464
1.687
-10.847
-12.723
15.951
1.9864
2.0093
0.94416
0.59729
3.0391
-7.0631
4.6779
3.6632
11.763
13.444
-27.842
-5.1285
-10.728
25.605
-28.596
-13.559
5.6681
14.185
13.563
2.5462
-1.5678
-1.2658
15.977
-4.3571
-17.569
-4.0502
-0.79196
0.56422
8.8097
-3.6447
-3.9352
10.62
-4.5623
-6.0365
5.4841
8.3636
-3.8714
2.2074
9.6008
-24.63
-0.8418
14.456
3.5034
-22.534
7.7693
0.29974
6.3731
8.8562
1.5948
-7.6099
5.9327
-10.143
-10.196
13.082
17.813
0.72162
-4.3396
10.947
-3.7816
-12.003
-40.608
-0.72659
-5.8783
19.458
13.583
9.329
2.9589
10.508
-42.997
11.53
-5.8497
8.3551
6.6724
-13.699
9.1443
15.468
18.821
-1.6692
-30.37
-17.868
4.2676
9.9007
32.009
-7.8069
-13.195
2.171
10.77
-21.074
9.608
-5.7535
1.0154
3.0012
3.3814
-7.388
-7.3533
2.8389
-1.94
3.8631
-8.2335
19.496
-0.85215
-3.5293
1.3729
1.1741
-1.5423
-18.764
7.5577
7.8616
15.072
3.1843
-5.3366
-19.037
3.1563
1.267
2.319
42.011
18.804
-35.605
-42.822
-52.531
27.812
30.158
8.5436
-0.74273
-10.635
14.046
-4.1056
-2.3825
-8.7027
-5.6734
14.04
11.039
-3.0503
-0.74313
8.5737
-4.5466
-1.5231
10.386
-16.007
4.0993
1.0699
-5.9416
30.258
-20.838
-4.7943
12.78
-13.449
-9.2391
4.1824
15.049
2.7193
5.3867
-13.389
-43.62
19.883
15.071
-12.858
41.914
13.855
-60.648
6.319
17.532
-5.7318
16.335
17.427
-21.555
-1.3043
-37.362
19.848
14.049
-11.198
3.5328
-4.1192
7.7484
-4.5797
-4.0289
11.927
1.575
-18.438
8.3087
3.1047
2.8117
9.4866
-11.331
10.483
-6.4769
-21.594
20.414
4.1262
-4.2601
8.533
-14.482
-1.7836
11.088
-8.3707
2.0935
-5.1367
0.26711
8.539
-0.066444
3.5727
4.3559
-3.699
-8.6204
2.4041
-2.9764
-15.086
10.626
4.4421
-12.418
27.868
0.71149
-8.5006
1.24
-6.9247
-1.2358
0.92454
1.9838
-0.85747
-2.9421
-3.7427
8.7393
2.9785
-2.024
-2.6001
-2.0471
-5.8145
-9.4274
-2.9257
14.157
4.0814
6.5431
4.0796
-14.737
26.375
-8.9609
-34.836
15.818
10.08
0.071408
7.2259
-4.839
-8.8766
-13.247
17.072
6.314
-1.2771
-1.2472
-5.3806
3.3846
1.8135
-6.09
1.3322
-7.4127
3.9882
-1.4934
3.2024
5.495
2.0841
-2.9824
-27.21
10.694
2.543
20.324
-5.0961
5.2334
-0.74914
-14.445
-2.0064
-2.3827
7.1943
10.799
4.6766
4.9129
-1.1658
-17.535
-3.975
2.7898
3.4967
13.928
4.0126
4.6372
3.5479
-22.568
-3.5389
-18.049
-14.307
13.85
2.2332
3.8478
5.1262
2.6416
-0.0012189
-0.40269
-0.82089
1.613
6.605
4.3754
-3.457
-0.13693
-2.238
0.56521
1.5836
-1.3134
-0.54088
-1.4892
0.55407
0.78002
0.65289
-0.438
1.0655
2.3264
-0.45435
-1.2433
0.2234
-0.80825
1.783
3.7339
-3.8685
-10.748
-0.57422
7.1434
3.5989
-0.58407
-4.2543
-1.7987
2.2763
-1.8476
-0.79551
1.4611
-0.24938
-0.50248
0.63738
-0.75406
0.25938
1.0306
-0.18
-0.17587
2.091
0.24962
-1.023
1.7305
10.707
8.8557
-6.5963
-9.6027
-2.8142
3.3488
-7.7829
-9.7655
1.1324
6.1535
3.451
-4.8877
-2.6805
-6.6321
15.086
9.5499
-6.5385
9.2587
-5.1531
-8.4464
-0.21097
2.7971
-3.5087
1.579
-1.5763
3.4624
-0.71312
-1.4101
3.2176
5.5213
-0.95041
-2.8593
-0.53226
-4.384
-1.6234
-1.2123
-3.3431
0.69391
-1.2185
-1.6758
5.0683
1.5025
11.736
7.2621
-14.924
5.3064
6.7483
9.2841
10.359
10.574
-63.665
-5.6659
45.596
-20.197
-17.708
-15.304
4.1977
-9.2688
12.287
23.409
8.279
2.4229
-1.8444
-0.89968
-1.7414
1.7682
1.6334
-2.7524
0.75713
0.22289
-4.8168
6.4154
-5.923
-1.3027
-1.0404
11.119
6.7981
-12.133
-3.6423
0.46009
-6.8157
-0.51384
-6.3639
-1.1892
13.119
4.1115
3.4967
-9.4187
-2.2314
11.356
-17.407
8.5624
1.5598
-3.2145
13.61
8.1819
-24.756
3.3933
-16.002
0.27186
24.866
-0.035763
2.672
-0.27616
1.2161
-0.7957
-4.6109
2.0537
0.511
-1.201
-5.5459
2.1648
3.286
-3.4706
-2.4081
-2.9147
6.1996
7.4903
0.82725
-6.3583
-3.8509
-1.5998
3.1131
-3.6029
-13.232
6.7057
7.45
9.7797
-1.9902
0.66505
-0.34918
-2.0851
0.67973
-5.0425
-8.0776
8.6955
-2.6161
3.1584
-4.3124
-11.102
10.437
1.1604
-20.894
0.00027457
18.743
12.773
3.354
-0.76638
-0.7221
1.0058
-13.143
-2.0644
17.957
-6.0973
-5.625
-12.799
7.329
11.829
-0.26537
-10.986
11.23
-9.1892
4.9513
7.3533
-5.9971
-19.931
-10.139
-3.3744
17.235
13.819
-0.64154
-4.5345
-6.4206
17.054
14
-13.456
-22.829
-6.0292
8.095
22.477
-2.2159
-10.671
5.2918
-16.55
10.217
-4.9007
-0.81726
5.0886
3.2028
-2.9961
-3.7272
8.0919
4.0638
13.903
-19.27
-16.174
15.757
17.69
-5.8176
-30.541
41.139
-19.959
-0.70186
-0.10715
-2.1047
13.868
-11.574
-12.294
14.558
-3.3816
-11.51
7.3876
-1.2618
1.3771
2.5192
1.1341
-4.9313
-1.2898
4.636
2.0361
5.6958
33.04
8.9841
-70.014
-30.356
50.056
41.094
24.674
-56.432
-15.295
5.6183
-6.1713
-5.9583
8.5556
13.606
-8.7211
2.9635
13.461
-12.742
-0.7819
-2.2522
-7.6805
4.5141
-1.9167
4.1544
-4.2839
6.1524
2.0476
-8.762
9.3472
-7.4103
-4.8183
2.516
3.4137
-0.21107
-1.5617
-3.6209
12.794
-0.12907
-8.71
-11.121
3.4495
19.639
-6.4213
-2.5874
5.6846
3.0632
-3.8724
1.6654
-0.44693
-7.0317
2.27
9.9776
-5.1507
1.8598
-10.882
3.7359
11.281
6.6892
-17.689
-2.6567
-9.7243
17.772
10.072
-11.643
0.97774
-12.655
3.897
-2.1592
1.9936
3.5111
-1.2807
2.3522
-8.1147
4.0535
-7.2662
14.625
7.1884
-11.993
4.5566
-13.59
11.805
-6.1666
-6.4977
12.184
4.3025
-0.22341
-5.2505
-6.27
14.855
16.778
3.6949
-20.288
-13.208
0.13667
2.8106
-5.7316
2.7347
4.6139
24.529
-15.517
-16.278
9.038
-10.825
-3.8561
9.3993
11.884
-7.2318
-16.898
14.12
6.1758
-3.3991
-10.463
10.64
-1.5523
-1.8277
10.193
-1.2746
4.8678
-9.4494
-1.6239
-7.742
-2.3349
1.3738
23.05
25.479
-5.1801
-31.991
-78.38
48.044
14.929
-3.1033
24.184
3.528
-12.128
-9.8569
3.5416
1.5426
10.402
-4.7628
-3.1942
0.3466
-8.8997
22.523
12.566
-33.046
12.195
1.4497
7.2555
-16.049
-12.347
15.138
-1.5394
7.6441
6.0118
-20.939
11.89
5.9493
0.91208
-5.0962
-7.6785
17.371
-4.0996
-13.761
-16.818
-15.389
40.392
0.63129
1.8785
-8.9954
-13.027
12.033
4.7034
-0.60329
0.90148
1.2528
-5.4066
0.25978
1.3561
-2.0392
1.2676
4.9413
13.202
-13.898
-17.854
17.793
-3.1
-0.069217
-7.3402
8.4643
23.652
-1.0431
-18.052
11.428
-17.301
-8.6629
30.207
11.523
-36.057
-34.862
51.353
3.5308
-11.843
-5.9902
-5.5391
9.8026
5.9079
41.972
-62.675
-7.7645
22.822
-11.791
-0.72589
7.1225
1.9711
0.8489
-1.5907
1.1563
-5.2962
16.268
39.704
-44.381
-30.263
17.188
2.7744
9.6515
-17.597
-1.0042
6.9506
6.6075
12.106
7.5999
-22.619
-16.45
16.878
11.253
0.060187
-12.243
2.5059
2.3837
1.7097
4.506
-12.946
-4.5877
-3.9339
1.4949
2.9742
13.03
1.0874
-1.4631
-2.6239
3.4711
-0.11291
-8.9203
-0.86216
-3.5011
10.245
-1.4288
21.298
3.6462
-10.15
-7.154
-10.661
-21.06
20.147
1.6722
-8.6761
12.378
1.8026
2.1962
-7.3627
11.518
-3.0417
11.778
-20.181
-8.5935
14.837
15.183
0.73571
13.358
-23.124
-29.568
15.784
-26.531
-7.4194
40.404
-3.3542
-3.3779
8.2874
-11.688
4.6272
16.28
-13.01
-7.9014
-2.9469
-7.7117
22.66
7.3552
-5.3743
10.44
-0.56291
-31.017
3.4081
11.023
-18.143
4.7723
25.483
-4.6443
-8.4947
7.1157
-9.3463
0.8521
1.8225
12.203
-2.5416
-13.101
1.2818
7.3317
5.8927
-4.5574
-9.3752
7.0137
-7.0437
0.76025
-5.3868
9.9998
-1.5457
6.0301
2.5397
-4.1575
16.648
-28.461
-15.862
2.2839
14.771
20.712
-28.248
2.2944
-0.43128
5.3622
4.5343
-1.8171
13.459
-8.678
-9.4382
6.5904
-8.924
-0.65547
9.147
-5.762
6.1096
-1.1179
7.8426
38.719
-0.11162
-44.223
-15.002
14.174
-5.5272
-18.138
3.5066
16.539
20.659
-10.744
-15
13.89
0.15962
-1.1466
5.1279
26.579
-19.517
-27.733
-10.355
7.8811
9.162
23.359
-0.24259
-27.866
-2.3464
-1.1586
5.7081
23.541
-1.4927
3.9975
-5.3912
-5.1956
-5.0973
-21.267
-0.52498
6.1458
32.987
-27.628
6.4001
9.9417
-3.4521
4.2631
-9.011
-9.7274
-0.28024
-4.9321
10.362
6.9426
38.806
-35.27
-21.713
-7.0053
17.142
18.928
-5.7072
-10.555
15.609
4.9287
36.083
-43.747
-51.01
19.607
1.1563
36.46
-2.8708
-24.01
13.497
-5.8036
-6.359
14.357
-0.67047
9.2943
-2.3706
-20.282
7.3413
6.6799
-3.0251
-7.1893
-3.2263
7.1137
4.1833
-12.53
-0.084275
1.4307
-0.82259
13.594
-0.49117
-4.8985
3.0891
-0.16669
1.7047
-0.68151
-10.082
-4.1949
13.481
5.898
-8.8785
-14.149
-2.0287
47.127
-16.211
-9.8228
2.2237
16.074
-19.313
6.7051
-32.555
18.153
13.205
-13.871
5.0506
2.4513
25.982
-28.948
-38.334
41.922
1.8971
-4.9137
-1.0713
0.81975
-3.9323
13.132
-11.222
16.97
-16.048
-1.2795
-3.9001
-1.1698
1.9455
19.993
1.8082
-11.602
-5.1405
-5.7319
3.5117
5.4758
-0.65439
7.2624
-12.676
1.3969
0.26776
7.4905
-2.0572
4.4573
-13.743
-7.15
24.389
-21.722
28.143
-15.024
-3.1446
17.083
-24.175
14.38
-10.212
-2.2782
-6.9458
-12.182
34.648
-8.7891
-19.644
15.731
6.3794
-26.779
24.033
20.442
-16.305
9.5481
-9.7811
-4.8723
0.81944
-7.7225
19.552
-4.507
-14.947
-0.068499
7.0749
1.162
1.0879
-0.68092
0.70172
0.73
-1.2372
14.591
-1.0799
-11.243
-3.0449
-0.8366
26.493
-19.523
-12.318
8.0719
-2.8029
-8.2445
1.9568
30.98
-41.062
-14.843
23.879
-1.3261
1.7798
17.963
-3.3731
-0.99984
-7.3112
-8.604
4.3033
10.214
-6.9465
-5.7229
10.88
-11.962
7.647
-0.23781
0.44856
-8.3453
-6.147
-7.4849
17.242
16.945
-11.176
10.56
-14.669
4.038
-8.3697
1.2804
16.923
28.319
1.5371
-48.619
0.073477
-4.0598
4.278
5.5913
6.2407
6.6319
-9.4114
5.4813
-1.6242
-22.878
15.569
1.3054
7.7521
-3.5646
-8.3233
7.4275
-4.2975
-8.2325
28.344
4.3887
-11.884
-4.9705
-0.89932
2.7524
-7.0773
-5.7556
-7.9856
-2.0758
29.03
6.4678
-11.832
-5.7779
-7.798
-2.9164
-1.1762
-2.6512
-0.88635
8.5338
11.047
6.3163
-25.354
-11.161
29.527
-8.6088
6.4317
2.6202
-10.664
1.4171
0.043476
-3.294
3.4456
-9.8648
17.132
19.696
-2.6374
-4.6196
-27.36
-9.8612
-6.082
30.401
8.2686
-6.8679
1.2453
-16.104
-4.8393
12.086
1.5797
36.667
-14.762
-22.109
1.8506
-1.1623
5.4363
8.0361
-4.1802
-21.784
11.189
-4.8571
0.50296
6.87
-9.6037
-6.8903
25.48
-3.5463
-14.843
12.422
-8.5549
-1.2596
4.4893
-9.5908
-0.45276
16.972
15.451
-26.545
-7.5518
8.9532
2.1225
4.6269
0.7246
-5.9986
4.5629
14.758
-20.11
-10.729
10.888
7.8631
-2.8755
-5.8941
13.429
8.6469
-6.6609
6.6024
-22.478
-3.7292
9.8473
-0.20906
-15.505
11.745
5.4797
5.7332
5.4738
-21.882
9.8934
-0.80324
-11.972
1.9381
17.031
7.6401
-1.6134
-2.2193
-7.1829
-11.515
-8.1372
-1.3078
-12.168
25.834
-5.8674
18.94
-7.0147
-20.77
1.124
12.458
6.2249
12.103
-18.93
21.366
12.157
-34.618
-0.28829
5.6038
-7.1236
-3.0139
31.286
-17.727
-8.7308
13.641
-8.8967
-7.5875
19.664
21.644
-42.207
7.6284
10.463
-7.4791
-11.234
-10.82
13.493
15.444
28.81
5.5114
-60.374
1.4646
-9.3663
6.6343
12.524
10.922
-0.71944
-1.7538
-20.26
-2.9756
4.8625
10.156
9.9321
28.525
-14.342
-46.64
7.8307
37.599
-18.937
5.5379
2.0473
-14.908
8.2767
2.405
-2.8483
-1.9857
15.987
-9.654
-12.925
8.2482
13.506
-10.93
0.062347
7.0471
-6.4807
-4.9844
2.3342
-3.1041
3.5181
-0.63247
6.0309
-1.5914
7.2839
-1.6744
-11.906
-9.2721
18.777
-0.1947
-0.77172
-8.6924
1.4414
1.2944
38.323
-18.028
-52.379
27.656
24.191
-14.881
-27.592
14.528
6.903
-14.05
26.019
-22.299
6.2241
2.548
-2.8563
7.0502
11.25
-2.7689
4.1539
10.505
-16.463
-16.716
12.734
-5.3653
7.4013
3.208
-24.012
4.1075
10.667
6.6002
-0.82749
-15.299
5.2917
-6.6723
9.7979
-6.9817
25.38
-7.3564
-11.209
3.3983
13.71
-11.079
-9.3089
-11.392
8.2865
5.7878
9.2515
-16.731
6.8428
-0.91894
-7.2668
5.7372
3.6235
4.4706
-0.43264
-5.5821
0.71396
1.9256
-0.52767
-3.2258
-6.4571
6.5772
1.6563
20.695
9.9744
-30.451
0.76132
9.0151
-1.1712
-28.605
20.275
4.2398
-2.3138
4.022
-2.2775
6.021
5.0077
-9.2706
-4.3067
-7.9111
13.966
-3.0672
3.3771
-9.2401
10.763
-3.7054
-4.9796
7.4437
-9.0489
2.593
2.4353
9.3215
-5.2262
-17.123
16.856
-6.575
-1.6065
10.878
-5.0182
-13.447
4.7694
22.863
-5.9632
-34.968
8.7717
5.6248
7.5724
10.182
-6.3206
-1.3813
-18.698
38.318
12.782
-33.37
12.941
-6.266
-2.3097
0.96053
9.1079
-35.867
-3.1628
21.647
1.5388
23.965
-26.014
-10.987
20.851
-11.645
12.666
-14.213
-11.566
13.257
41.948
-31.085
-15.154
-0.82267
2.3113
13.639
8.0583
-16.48
-0.30098
12.282
-5.0652
2.7367
-15.997
1.1192
19.963
-3.4535
-3.9504
4.1727
-11.253
-11.951
12.755
9.3305
-4.5825
-12.878
2.0736
14.664
10.558
-12.672
-8.3592
-0.25302
0.55061
-1.6721
6.2047
-2.2873
1.1513
2.7464
9.7671
-13.165
-2.1825
6.1902
-6.7832
4.1777
-3.0678
12.193
9.5568
-14.199
-5.0303
-6.5407
1.3008
-16.198
13.247
-0.59929
5.4527
2.1959
-8.8248
20.096
-14.52
6.9596
8.6932
-0.55363
-9.0555
-11.054
6.1935
-0.6164
4.3232
-0.060152
1.7924
-1.0912
1.9149
7.0657
7.707
-9.0314
-13.523
16.204
-8.5247
-0.70789
-4.3773
3.7713
-0.79289
1.8769
-15.136
7.8724
2.9008
1.2636
-3.0936
24.325
-5.2257
-18.782
8.2618
-14.942
-2.0387
11.079
1.7751
-3.1583
-10.055
15.287
2.0082
2.7858
-13.428
-1.8019
13.76
-0.033032
2.436
1.8711
-19.495
4.1775
6.592
2.0011
2.5134
-16.688
8.229
12.395
-12.677
-18.188
30.997
-7.7006
-3.822
12.196
-5.9754
6.3139
-27.125
5.0709
20.929
-17.015
-0.22225
-5.6172
13.956
9.1441
-0.026659
-9.3612
-13.085
6.0273
11
-1.9282
-10.409
-8.1814
8.6665
4.6859
29.533
-11.741
-32.104
0.83671
13.115
15.609
-2.4476
7.6032
-20.856
-0.54507
-11.606
17.912
2.5722
-7.7666
-0.5949
5.8645
5.5318
-12.377
1.0831
0.47079
14.03
0.30288
-18.747
-3.8612
-2.0686
12.886
6.5476
-9.6077
10.836
-4.7427
-7.1442
4.9452
1.6187
-9.3982
-0.11386
29.911
-15.782
-8.9785
2.6793
2.3829
4.79
-14.349
-18.147
16.032
17.457
-1.6008
-18.027
9.9479
-4.7022
9.0785
0.37811
4.0655
-0.48317
-21.768
14.902
-1.4819
-3.4807
0.20205
11.499
-14.631
7.6029
6.0427
-9.4266
-5.3753
-0.63578
3.869
3.4629
10.246
0.98909
-10.22
5.1932
-2.0475
-5.3
11.269
-3.48
-18.17
17.644
-4.4173
-1.4767
-1.9348
-3.7687
-22.972
5.0986
25.474
-2.5318
3.7419
6.1052
-6.7101
16.212
19.714
-31.858
-25.151
22.283
10.161
-10.049
5.1472
-11.293
-8.6107
9.8515
10.723
-4.7956
-1.606
-2.2173
-5.3095
1.0172
0.79707
4.7267
0.060644
-3.9385
0.82128
2.0008
5.7918
-2.3351
-6.993
-1.585
2.3102
0.40469
1.5158
3.929
-1.7126
-2.6466
5.1111
0.18664
-2.3698
1.9414
-3.2249
-1.044
2.6375
5.5957
4.3933
-9.5036
-3.2779
-2.6568
-1.2296
3.2935
5.3426
0.2016
-1.8166
-3.6755
1.5681
4.1888
-1.6757
3.5467
-5.495
-5.9709
4.6557
0.69969
-5.5533
-0.95463
1.3157
-1.4692
1.672
1.3071
2.7187
-1.4725
-1.2382
2.4443
1.0439
-1.1335
1.0381
0.93292
-13.159
-1.8976
-6.7442
6.4687
36.323
15.824
-33.6
-8.2661
0.91616
-1.3354
-12.404
44.608
5.7611
-71.288
6.4666
18.138
23.189
9.5389
-16.485
-7.4198
0.29814
2.5683
9.6253
-1.6419
0.95968
-1.2647
-0.89718
-2.8626
-1.1699
0.076892
3.4798
-7.8232
-20.471
23.714
5.3437
-6.5726
4.1145
10.204
-7.2896
-17.404
13.388
-8.4206
9.1862
-1.8916
-7.566
-2.9312
7.7608
8.5277
-8.6026
-3.2194
4.2084
-3.696
-3.7427
13.493
2.444
-9.3642
1.2684
5.7953
9.2306
-13.855
-2.4463
15.086
-7.1551
-27.769
8.1822
32.071
6.5502
-2.8226
-21.672
-25.279
0.2725
20.166
10.438
1.0955
-10.543
0.42876
6.3245
-12.788
-5.8377
7.3121
15.296
-11.372
8.3984
6.9109
-19.008
4.6285
-2.2924
4.4558
11.965
2.6724
-11.001
-4.5108
0.4106
0.40952
1.7464
4.5607
7.6517
-11.945
16.391
5.1873
-57.661
9.2054
17.333
7.613
4.5442
-6.0027
7.3965
-15.505
10.657
9.2312
-0.23756
-6.337
2.7
-2.9298
0.55616
-3.8071
4.2879
10.258
-16.821
-7.4511
-6.9354
31.908
-3.16
-17.763
-10.546
1.9934
9.5705
-1.3977
1.1251
1.772
-0.70007
16.085
8.282
-15.566
-9.1819
-5.2767
2.9092
-1.7433
5.6077
0.93936
6.396
6.6167
-3.5966
-8.6272
-2.0864
16.95
-9.1024
-5.5697
-10.184
36.042
-0.55206
-60.401
24.186
1.2529
6.5553
16.901
-10.643
-11.87
5.9857
9.433
0.15931
-14.28
2.7691
7.2605
0.099211
-1.6917
3.3896
2.4976
-3.8425
-3.8251
-0.38588
5.2465
-3.8941
-5.3599
10.873
-2.6495
-0.24193
-4.2097
23.505
-10.753
-18.822
6.3987
-4.3839
11.066
8.5609
-15.7
-9.6195
13.611
-3.1167
-3.63
0.86932
7.4582
5.345
-7.714
1.4343
11.128
0.90534
9.4746
14.61
-11.258
-20.765
-5.3947
-55.019
6.5307
28.848
18.242
2.4202
-2.6981
3.9004
-4.8098
-11.257
1.2009
9.6986
1.4077
-3.1246
4.3855
-2.6358
26.343
-16.62
-27.251
20.701
5.9088
-7.7777
8.6212
2.1094
-14.526
4.7525
13.786
-15.684
0.84126
-0.78588
2.3366
7.3034
14.006
-6.0292
-25.806
-7.3879
2.7937
13.104
8.107
0.22968
-3.646
-1.3336
33.344
12.364
-17.669
-62.845
-3.4757
28.148
10.332
19.329
-37.838
2.2036
20.215
-23.925
-0.24489
36.51
8.7095
-16.298
-13.994
-17.294
-5.7832
16.087
-4.0543
-9.2386
-10.104
24.125
1.484
27.462
-18.689
-14.331
12.216
4.5169
6.0356
-8.9955
-0.32375
16.589
7.2972
19.656
-25.124
-22.223
13.706
-4.5133
-6.014
-3.7999
4.8879
9.4029
1.0199
31.149
12.469
1.9799
-27.916
-17.603
-15.407
-18.279
11.896
-50.352
-14.816
26.483
27.018
7.6603
32.708
-13.78
-55.167
27.583
6.8379
-7.5149
22.727
21.894
-0.95129
-18.189
4.7564
-2.4198
-4.5623
14.182
-0.50733
-11.393
-5.0268
-0.48242
2.5718
18.524
-2.4348
-14.156
15.567
-11.942
-9.7948
3.9654
1.4019
-2.8189
3.6384
15.786
-2.5509
-9.0664
-5.6276
-6.8478
10.737
-6.735
22.574
-6.2031
-20.043
-0.99803
1.3598
1.9435
11.008
5.3687
4.1664
-31.748
4.9005
10.528
-8.4382
13.239
-0.85797
1.7173
1.4529
0.87454
-28.488
14.791
12.235
-4.654
3.875
-0.13259
7.523
-18.924
-3.9698
12.129
26.293
-28.079
-9.461
2.2547
1.8397
-1.6818
-3.4095
19.849
5.9259
-14.336
4.916
-15.475
7.6867
1.5542
8.0141
8.5737
-20.19
3.7155
18.469
-15.152
14.304
-26.84
2.352
8.4653
-6.4772
-0.32139
4.6465
0.24181
10.634
-2.5861
-11.635
3.01
0.14965
2.3913
-0.28619
8.2041
-5.6971
-3.8154
2.6629
-2.2557
-4.0896
-3.8583
13.639
-5.5528
10.915
-11.518
-11.797
12.062
-2.9707
0.75637
13.958
14.161
-10.391
-16.064
0.99292
-13.734
2.9096
-2.1705
5.4171
7.7025
-10.828
16.882
-2.6592
5.5744
-2.0641
-13.997
-20.118
13.148
20.63
-1.3458
0.6614
5.8161
3.8651
-14.964
-1.7934
-3.0059
1.4007
5.5197
-2.0941
-0.18589
-2.4551
4.6641
6.5215
-8.3704
-7.4552
-10.772
-6.4413
23.154
6.0845
-0.29403
-0.87826
5.8847
5.8109
-6.8104
-3.614
-10.953
21.248
48.992
-75.029
-35.037
34.722
3.1067
8.5679
-4.568
-1.8485
8.9322
-8.7626
12.067
12.442
-46.783
26.731
6.0338
-17.922
13.823
8.5847
-5.055
-7.8474
-8.7548
12.15
-3.1322
0.97143
0.87544
14.119
-4.8412
-15.157
-6.1991
3.9361
7.3796
0.62564
7.4105
7.6543
-6.0517
-3.4892
-2.2127
0.75198
-2.0013
5.6042
-14.006
7.8274
1.9142
-1.2094
0.4315
-0.15929
2.2673
-3.4363
1.2014
7.179
-7.4082
-3.382
-0.23326
10.146
1.4101
-3.6278
0.16787
-7.8243
-9.4633
1.9386
14.669
4.0196
-13.09
8.9677
-5.2517
-7.3371
12.2
21.077
-20.988
-20.736
5.943
3.081
6.732
-5.8885
-0.8865
11.964
12.25
-13.445
-9.4774
9.3703
-6.5741
-12.016
5.5013
-1.9641
12.601
41.721
-29.056
-42.202
21.831
3.1045
-4.3552
12.401
10.219
2.5672
6.2608
-3.068
1.0356
-51.743
-8.2191
33.03
-3.1521
1.6715
19.62
-9.4041
-16.489
6.7849
19.582
-10.999
-12.218
7.5925
2.9408
2.8127
4.8832
-1.5469
5.266
9.4526
-6.9819
-15.241
-13.861
15.276
1.5179
-7.3901
-11.036
7.6578
9.2323
-1.8083
13.54
4.5949
-34.379
1.0379
26.893
1.6775
-6.2395
3.4928
2.0695
1.365
-6.2951
-28.579
22.647
4.6954
-18.311
-6.4426
14.457
11.234
13.362
-8.52
-25.578
15.243
0.032289
-6.8343
10.391
-7.3691
-0.026766
-7.5107
-6.301
37.239
-11.509
-7.1874
-9.113
-2.2976
-11.389
4.8763
15.537
48.238
-3.6759
-18.98
-30.137
-24.336
29.696
-3.9488
5.7835
-0.81276
11.958
3.2084
-8.106
-3.0325
-25.262
12.678
2.958
-25.679
17.264
-8.7894
7.122
-2.7701
11.949
12.828
15.265
-7.2872
-13.801
-11.275
11.696
1.5653
-6.6566
23.122
-4.6428
-32.521
6.527
14.366
7.0042
-11.382
-8.7627
13.298
9.4025
-13.473
-2.0602
-6.3906
-8.0243
13.738
6.1675
14.377
-6.4783
-3.4432
-9.8832
-0.50233
0.014115
-7.4826
7.3568
8.4625
0.90105
6.4827
-9.9154
-5.9328
-19.46
11.395
32.286
2.0885
-28.632
0.48483
14.743
-8.8358
6.415
-15.58
-10.853
-3.9527
13.066
11.408
-2.2609
-16.069
6.2867
5.0204
8.4622
2.4637
6.8032
-18.874
-5.6487
20.639
5.6356
-2.9577
-13.814
2.3865
0.75871
-10.255
17.104
9.2175
5.2153
-17.449
-7.1304
4.9927
-2.274
3.5771
-6.2433
-19.792
26.706
3.9241
-4.8238
-3.8549
-11.046
10.33
-3.1014
11.177
-3.8829
-10.775
6.3398
4.147
12.012
-14.537
-13.193
8.0329
9.3671
5.4964
-3.6616
-0.98704
-2.5365
2.9686
-0.97551
1.1154
-15.665
-4.2551
7.8495
20.42
-12.133
-7.035
10.122
-0.87937
-13.076
0.21344
25.414
-26.45
13.909
-4.4265
-9.8803
2.7572
7.6003
1.3223
3.65
-8.111
0.46063
1.9334
-10.655
16.908
-2.5012
-10.449
3.1328
-2.8583
18.406
6.7453
-17.718
-20.185
21.733
-3.181
-6.0643
15.719
21.2
-9.0851
-8.3788
0.59987
-51.624
27.973
7.247
3.8351
5.4414
1.9123
-14.35
-1.4811
17.205
-14.822
-11.506
14.041
9.1301
11.23
-8.3991
-17.946
-8.8922
9.6477
13.07
6.8413
-1.977
-2.0065
3.5832
-14.862
1.9137
0.099664
0.69038
4.8727
-7.2151
7.8891
4.6419
-5.6265
1.158
-1.7214
-15.423
17.687
6.2091
-12.446
8.9698
-7.3851
-2.9478
-0.044645
-0.25476
4.0905
4.6245
-3.0202
-0.98413
1.0437
-1.3796
-9.7576
-2.143
16.299
-5.5341
0.42812
-8.6758
11.704
-1.8893
0.51867
32.697
-44.958
-23.282
15.046
9.6393
10.306
1.3145
20.448
-18.697
-4.3101
5.6181
-11.713
5.6359
-0.018174
-0.75844
-13.638
6.4626
0.67588
5.9678
8.4381
-5.7521
-3.7891
-3.4719
11.102
2.3085
-4.4097
-2.4096
7.0798
3.1022
-4.4949
3.9268
-11.184
-6.3804
5.3921
1.6358
2.1443
-1.5855
-6.744
5.34
-0.27815
-0.38807
-3.2833
4.8651
3.7771
-2.4613
0.91873
8.3644
-3.9119
-9.1536
9.2979
3.5066
-17.922
-6.4869
4.8985
0.31544
4.6485
0.1965
8.4541
-0.97332
-6.9404
13.326
-21.923
-5.1334
19.756
5.922
3.2099
-6.3977
-10.429
5.8954
8.8687
0.68875
-5.1346
-4.4718
-7.7503
6.1278
2.7066
-3.5947
18.353
25.844
-47.913
-11.688
-7.986
21.352
11.645
-0.55658
-8.8128
-2.9626
-0.23478
10.67
-0.73139
21.516
-29.416
-3.7779
18.114
-30.08
-19.672
24.598
1.4728
2.5464
15.922
8.2967
-10.721
-14.81
19.668
-3.9646
-3.5799
-0.66246
-0.22561
-0.65275
0.9833
7.5116
-8.154
-1.6753
-2.7519
-1.2626
14.038
-7.9696
-14.894
9.6576
0.066204
-4.1605
7.6472
3.116
7.8591
-10.05
-4.9254
5.2453
6.1809
3.8778
-12.676
7.889
-1.4229
1.3954
-9.0025
0.035846
3.7115
-3.0784
0.34062
9.5117
-5.4524
-6.5571
4.6521
2.9637
-8.9033
16.067
2.8743
-20.381
0.42867
10.872
6.747
-3.8321
0.85093
-0.34309
-8.0271
-12.341
15.341
0.37218
5.4769
-5.6796
-7.0558
13.472
-2.6189
-8.2492
-10.998
9.9736
-1.1682
3.8012
-1.1173
6.8931
15.026
-12.009
-16.421
4.6543
-7.3257
5.8343
8.1914
-8.4299
0.63806
11.092
-5.9855
-5.0859
3.696
2.6801
2.759
-2.0205
-17.994
9.1781
6.4315
-5.2199
1.7274
17.981
22.188
-41.35
1.7236
1.3756
2.8566
0.17265
1.8195
-0.45193
0.66631
0.065506
-2.5049
1.1949
-1.5543
3.4727
-3.8126
3.9314
-2.4516
12.229
-27.382
-12.481
27.78
1.0535
1.8752
-3.5067
-2.5375
-3.2377
2.4336
-1.6211
1.344
-0.66764
0.91726
5.1408
-4.6146
-5.317
1.2846
-6.2855
-5.365
15.759
8.0479
-0.83416
0.421
-0.022892
-3.9855
-4.1359
3.2397
0.39836
0.31809
0.97314
-3.3744
0.62047
2.301
-1.5396
-1.1527
0.9288
-0.90819
-0.18227
0.96614
-1.2374
-1.2533
0.014374
1.1669
1.2712
-0.48411
-0.99637
-2.4294
2.0426
0.3266
-1.3241
0.93386
0.91801
-0.82906
2.1371
0.24534
-1.3243
1.7662
2.2386
-3.2113
-0.36501
2.7727
-0.419
0.33922
4.8705
0.44563
-0.98729
-1.9264
-4.6407
4.5925
0.86224
-6.9819
15.59
-20.864
0.042735
-9.0016
20.135
-1.9173
4.9944
8.981
-18.757
-7.0722
5.7577
1.8056
-2.0903
-0.24977
10.066
0.16165
-2.5232
-12.471
6.4833
1.0661
1.5606
-5.9343
1.043
7.0451
21.33
33.379
-47.486
-11.35
-11.554
-16.688
2.0142
17.289
3.6593
2.0844
-0.16139
-0.58733
3.581
0.91562
-0.19105
0.42975
0.59552
0.50036
-2.3787
5.1783
-3.5257
-9.4755
8.3927
-1.0338
4.374
3.1398
0.3974
3.9679
-8.5599
-20.355
17.255
-0.60186
5.8285
2.3449
7.0547
-15.151
-0.80662
6.0661
7.1846
11.08
-16.904
-18.008
3.7493
11.077
-0.099732
-2.059
-0.52954
5.8399
0.5213
5.3106
9.8666
-12.921
-20.565
-4.1699
20.194
-1.9875
6.3457
4.2812
12.339
27.177
-52.008
-16.518
9.5716
12.586
2.0281
-4.7185
-1.4156
-3.9579
-10.397
-17.439
15.855
11.491
8.9741
13.536
-33.801
-5.6747
11.627
7.1774
9.1171
-22.84
1.5156
23.995
-1.4017
3.4986
2.8016
-20.649
-3.1804
4.2433
12.651
0.66188
-2.8588
7.1573
25.534
-32.547
-17.704
8.3878
2.3085
5.4174
-1.67
30.067
-10.588
-13.263
-22.822
-21.039
18.151
25.186
13.324
-40.297
-5.0481
3.3017
40.589
0.16883
-11.436
-22.224
-2.5803
17.92
-7.0879
-6.3617
11.02
17.213
-7.2728
-20.504
10.775
12.9
-10.435
8.5307
-3.5799
-25.632
-6.9794
24.946
11.861
-44.749
19.467
18.061
8.6703
-4.7501
-0.27091
-6.468
17.279
0.68218
-21.248
13.902
4.0513
8.7225
-3.4519
-43.703
33.55
-15.686
-19.689
18.268
-4.2052
5.9326
11.505
-16.629
8.5985
-1.4596
8.1529
3.2983
8.5529
-14.722
-11.588
17.702
-17.477
-5.0087
46.599
-12.728
-41.361
16.822
-8.8164
5.1579
6.5456
1.2292
-0.55253
7.2643
9.9293
-20.066
-3.3017
2.2729
0.8399
0.83541
1.2502
3.0904
0.44425
-4.3387
1.0039
1.1966
10.679
8.2004
-4.2411
-7.5752
-11.302
-1.8399
4.1994
5.7011
-18.67
-0.31979
11.268
-1.1201
4.9429
7.5544
-7.5183
0.18459
4.1359
1.4426
6.9379
-9.9238
-1.986
12.504
-12.76
-5.6305
6.1576
-10.043
6.8682
27.176
-10.078
-21.368
-1.2618
-6.057
2.2705
4.8892
10.958
-3.3056
3.3398
-2.3917
18.723
-7.5369
-2.9849
-6.5909
-11.113
12.172
-0.71211
-5.3153
4.1014
28.244
24.126
-22.81
-91.604
-12.222
54.407
15.89
1.8085
-1.22
-0.61172
13.577
-11.54
-11.723
16.387
-18.15
8.2526
41.379
-1.7774
-34.196
-4.0821
-22.462
18.918
12.442
-11.097
33.486
-18.382
-15.923
-9.3969
-3.8737
13.71
9.4746
-5.3795
9.2095
4.3638
-10.115
2.0841
1.1758
-3.7749
0.53416
-2.3514
-1.8466
0.59439
0.42342
2.0804
1.8425
3.2632
-2.6379
-15.556
3.1982
3.2999
7.3242
-0.99632
-0.76009
-0.38835
1.051
4.1672
-1.347
0.36993
7.417
37.797
-14.946
-45.855
-12.071
-7.1879
35.788
5.3953
-10.976
0.37361
-1.4459
3.083
0.59478
-1.2386
1.1634
0.58747
-0.36636
0.33259
0.7995
-0.33399
-1.5605
-0.34965
-0.44089
-1.3489
0.24223
-0.59826
-1.1876
-0.26764
1.4341
1.4674
-8.952
-0.064089
-4.7892
9.2337
0.29078
-3.3793
6.4954
6.6653
0.57098
1.6578
11.078
-3.9097
-6.1676
-18.859
5.6496
28.321
-16.427
-10.825
13.712
-2.9583
-10.239
-0.71198
-1.7907
-1.0018
-2.3377
-1.6107
0.57188
4.8899
2.4577
0.98296
0.58251
2.2847
1.1893
0.73765
2.9138
7.4593
-4.3203
-2.7643
-0.23622
-1.905
1.6778
1.673
3.786
4.4293
-0.00105
2.8765
-13.178
-6.419
-5.7505
-4.7489
9.7928
3.6654
1.9662
-0.86939
-1.7089
0.21826
0.46711
-2.0873
0.54175
1.5641
0.8094
0.70201
6.7143
-0.86409
-8.6606
-7.9093
0.47791
10.726
0.21988
-10.896
-9.3595
-3.8992
12.035
16.384
5.069
-1.5445
-1.9697
-1.9773
-1.3065
-4.2406
1.0114
1.8226
9.115
0.48731
-23.472
-13.866
19.048
15.082
-7.199
5.9833
-4.3405
3.2225
3.5939
-1.3584
-5.3223
-15.238
2.145
-17.002
4.6458
17.98
-7.2328
-1.6958
17.248
9.8955
-16.597
4.8621
-5.2149
10.601
-0.27665
-3.2161
9.9192
-4.0088
7.61
-1.0429
-24.265
-32.451
20.011
-19.688
20.152
21.779
2.5864
-9.6281
-20.293
7.5396
26.521
4.976
-37.282
3.7238
27.425
-0.68693
-5.6621
-4.8378
-5.4634
3.3556
5.0261
5.8032
-5.0209
-6.4288
0.26866
13.651
4.7751
-10.994
-13.795
8.8959
6.5017
-5.1763
-1.9598
-5.5228
9.7243
-0.74128
2.51
-1.7658
-7.364
5.4246
2.1365
2.8354
0.25279
-1.8926
-6.1399
4.1963
-10.579
-9.1261
4.7726
7.0098
20
12.863
6.9479
-16.341
-32.463
-10.47
5.0362
29.83
-10.708
-19.765
10.089
16.336
7.666
-11.73
-28.886
-1.4168
24.863
13.876
-2.3215
-3.7816
2.1243
-0.73856
-5.8456
2.9805
7.7262
-0.69743
-6.8555
6.4763
-5.6223
-8.1878
5.9667
-2.5514
1.0108
3.5165
-2.9945
-6.4226
0.76269
6.2894
0.67996
-1.0121
-0.58255
-0.31354
11.339
-2.6368
-13.007
0.30893
3.1103
0.61291
12.922
-12.598
-12.151
27.614
8.1475
-17.866
-26.056
9.4169
-0.27869
17.349
19.256
5.7044
11.246
-4.9868
-61.692
-31.615
43.019
14.321
-15.166
1.2985
23.498
-2.6245
-7.049
-5.4198
-6.91
11.711
-3.4531
-1.1721
-20.454
31.869
21.907
-30.862
3.1269
-20.007
-3.5927
-11.598
12.783
20.179
11.663
-6.4324
-3.9792
-0.85962
3.1045
8.4595
3.0279
-8.3721
4.9192
13.529
-22.684
-3.9762
7.9252
-2.7173
9.2692
-30.227
7.7104
6.7372
8.4367
6.7535
-6.371
-7.467
-12.763
4.5758
17.333
-8.2005
-10.7
5.8669
8.4016
1.6312
0.046572
-8.9482
11.343
-1.8763
-4.4963
7.291
-8.3708
-1.3272
0.93913
2.0733
-5.4854
1.5854
9.4939
0.26915
7.4791
-4.4573
-5.2082
-14.808
11.792
-6.088
-8.5961
10.94
-0.8313
-1.7998
7.5828
-0.74476
2.938
2.0205
-4.4268
-1.373
10.947
1.5236
-21.728
-1.5856
7.2513
-14.717
15.565
25.963
-6.9641
-14.211
-17.659
8.1109
0.86322
5.9646
-2.8257
2.0936
13.526
-5.2587
-1.7674
0.076879
-2.505
-17.715
16.716
3.049
-0.25013
-13.78
4.2741
-5.4329
23.058
16.551
2.1984
-45.767
-23.161
2.8501
44.569
3.5808
-28.871
8.3729
13.597
25.121
-39.19
-13.792
18.162
3.8643
18.33
-10.013
-21.614
4.3977
19.083
1.9924
-15.946
-2.2234
1.1037
-1.5798
6.6863
14.644
-11.628
-1.5924
8.2696
4.5302
-17.894
-20.076
-12.101
30.327
11.85
-15.711
-6.3353
6.9462
4.4043
10.205
-4.4073
5.5341
-14.36
-4.0275
19.232
-0.71576
-13.793
2.2408
9.0899
-9.7291
-0.22544
2.465
4.2713
-3.894
10.286
-0.29005
-12.759
7.9058
-1.8536
0.17714
1.9671
1.4309
-3.3334
4.3482
6.0228
-0.069747
-4.7846
-6.23
-1.43
-3.2958
2.3799
-2.0585
-1.0954
3.2265
2.3277
-0.30011
-0.65636
1.4184
-4.5735
-2.4865
11.832
-18.712
15.786
5.7231
13.519
-8.2108
-9.4012
-19.232
10.544
-3.9013
2.2197
3.2953
3.6424
-3.2188
-1.9788
-29.893
7.0871
36.232
-15.686
7.0506
-11.692
-2.0059
14.012
4.5271
-9.6878
-4.3146
-5.3211
10.326
-0.94482
-4.5756
1.3251
-1.0767
20.052
-9.1419
-0.68424
39.117
-24.745
-26.333
10.281
13.504
-13.014
0.1684
-10.937
11.649
-2.5466
-0.46393
-8.2752
8.4502
4.2951
-7.2211
9.8276
3.1739
8.2083
-22.939
20.631
-11.479
-9.6432
-2.0402
4.2991
-8.1558
8.895
1.9867
-4.9119
-1.5919
-7.8652
10.042
-1.2265
4.0283
2.5812
5.1328
-2.4225
-4.0506
2.2106
4.5857
-0.013066
1.9709
9.5506
13.384
-10.308
-6.7582
-5.9551
-25.941
4.7634
6.858
-5.9509
3.1352
4.2378
-0.65909
2.4988
4.6089
-9.0082
0.060457
11.714
-2.6961
8.5579
1.5633
-6.2942
-8.0202
-2.376
-14.533
7.083
6.8303
10.172
3.222
39.752
0.99693
-15.225
-51.473
-35.375
32.434
-3.0843
43.07
-45.409
9.9108
-0.191
16.127
-2.4995
-1.1638
4.8441
3.8377
4.8106
-1.5195
-4.1128
-2.0549
5.8218
-9.361
8.464
-3.7613
3.9758
31.013
7.5393
-59.801
9.8512
26.148
-20.623
12.037
-31.205
-24.193
24.002
20.638
5.1131
-20.241
5.1095
9.1345
10.864
15.865
-6.327
-11.566
-49.719
0.05691
25.209
-1.8902
7.3569
3.3521
3.6388
3.9322
4.4432
-9.4647
-2.2742
3.0028
-4.1977
8.3938
-1.006
-0.63047
5.0071
-14.279
5.9233
2.5723
19.375
-19.075
-31.546
29.531
21.331
-26.571
-1.6881
32.156
25.7
-42.445
-28.382
38.93
16.354
-47.699
-51.807
43.299
17.172
6.1379
7.1237
12.158
-15.643
-2.7663
1.901
-7.3169
-5.9784
1.146
2.4614
0.25238
7.8681
3.1063
-3.0451
-4.5112
11.272
-5.5448
-4.5783
2.3274
4.9829
-9.0161
3.8577
10.881
-7.3739
5.3613
1.035
3.0198
34.247
-26.721
-45.419
17.667
-1.7626
7.7169
1.7283
-9.9262
-0.91765
7.2349
14.026
-4.8497
-7.2831
-0.24293
-15.324
-6.6646
21.687
4.0313
-1.8632
5.6725
-13.996
-0.9212
20.767
18.369
-5.2497
-11.979
-10.524
6.0515
-7.4457
-12.209
-2.12
2.2388
11.257
-3.4186
1.7812
2.9178
5.5218
0.6694
1.0722
-2.3993
-7.5951
-8.1139
-3.8538
7.423
-1.9368
5.2171
1.4812
0.86902
2.0158
0.39673
3.4318
-13.032
-0.1759
7.3266
-2.78
4.7798
-5.3783
9.9632
-1.1395
-11.668
5.0545
3.456
1.4345
3.7876
-1.5071
3.3224
-2.0852
13.187
-17.07
-10.403
8.0927
-9.0635
26.173
-17.51
-16.761
37.426
-5.2828
-8.5536
-14.652
-13.992
12.618
-4.5355
15.582
22.359
10.694
-40.735
-39.576
17.292
19.743
-9.4871
12.167
-3.2658
-1.0215
1.9489
6.3746
-6.5752
13.424
3.1338
-16.891
17.685
-21.548
7.7732
5.1814
12.07
-0.32346
-19.941
30.974
-6.0332
-26.207
1.9527
-1.1308
19.122
-10.37
25.827
0.61359
-40.605
12.415
-17.136
12.801
2.6102
-0.9976
-1.5502
9.0547
9.5503
0.33113
23.865
-7.7691
-35.189
-54.061
53.66
46.022
-23.527
-48.506
-6.383
-9.15
39.611
11.278
-5.5284
-12.314
10.246
6.1141
-4.2182
0.75413
-2.978
-0.22517
3.6638
10.578
2.3287
0.66521
-7.9995
18.067
-3.3643
7.8028
-29.614
-39.321
1.4112
46.271
7.3348
-17.937
-6.6584
5.9257
24.268
-12.381
-12.284
2.9452
5.5656
-5.4919
-8.2819
6.6371
9.0077
7.2877
-8.7963
-11.215
6.1985
7.5641
-8.236
-7.9351
13.141
-8.1668
4.2962
15.728
13.221
0.81413
-34.873
-21.864
1.4406
21.477
-0.12923
1.8397
-6.1486
12.893
-2.2862
29.986
-30.627
-10.811
28.109
-20.563
5.4484
3.3086
0.098011
-14.611
5.8313
-6.8325
2.7114
2.3412
0.56392
12.63
-4.446
-4.7231
6.6621
7.9046
-5.9583
-12.623
2.6944
-4.079
-2.5987
-1.1118
10.932
4.0538
-9.9808
-1.7788
4.9876
2.1968
-4.3991
7.3151
0.62297
1.9001
-8.1807
4.2088
-4.4266
10.654
3.7185
-11.738
0.077225
-0.021674
-0.99177
-0.73338
1.1986
-0.7585
1.1073
-5.9729
0.1399
-8.894
4.4058
9.7622
-7.2214
12.661
-0.93118
-1.7303
1.6924
0.079271
-3.039
-7.4767
18.18
14.626
-16.947
-20.359
3.2669
24.094
0.01591
-33.108
1.5749
13.883
-8.8957
-3.9244
9.5707
16.451
-4.5499
-10.259
-3.9824
4.1725
18.488
-12.819
-12.953
5.6901
10.861
-6.6916
-4.0036
-5.3451
7.1224
10.735
-6.8128
-2.4572
-12.632
17.596
-7.4862
6.6986
-1.091
0.65956
0.27677
9.4848
3.114
-29.476
2.3555
13.038
10.633
-12.268
1.3425
1.7774
-15.635
12.254
-9.1293
0.46439
9.5111
-4.4665
3.4525
7.6894
-2.738
-14.415
-1.4153
10.89
0.62518
-12.828
3.0436
10.548
-1.2331
7.2915
-1.9043
-9.4213
-5.4017
2.1152
13.675
-1.232
1.3558
-5.4208
-6.8982
-3.637
8.5785
10.613
-7.4626
11.755
-5.1586
2.0801
-7.4092
-16.349
13.507
1.0397
6.0631
-15.201
-3.5085
13.056
1.2224
7.5842
-14.859
-0.30254
12.128
5.123
0.008187
-25.422
7.9241
22.58
-18.609
-8.9846
15.443
-8.7104
-5.1983
-1.0649
-10.831
13.027
10.903
-1.2627
-5.7343
25.147
-10.902
-35.274
26.1
13.437
-9.8581
-6.5445
1.6216
-4.1782
7.9379
1.3768
-10.513
-7.1736
16.969
-9.5625
-1.5496
11.557
-4.1385
7.4846
-13.161
6.9379
-10.38
3.6381
10.699
-7.2988
-0.55976
-1.1001
0.16705
1.2674
3.7675
-3.3245
-11.983
16.679
-20.575
1.7094
31.338
-5.8742
-5.1201
-7.724
0.16294
-0.9179
-0.60178
3.4331
-0.13712
-0.48691
9.6358
26.615
-31.824
-20.067
19.347
-2.3339
-2.5775
-4.5914
-0.4473
-25.531
0.64209
30.466
31.573
-14.753
-41.441
12.533
26.383
-13.69
-0.3752
1.8436
2.6398
1.3465
0.35957
-3.6519
-2.7724
1.4609
-0.41312
-7.3138
-8.1041
-5.2828
17.685
6.0483
7.3343
1.4329
-15.371
-8.1661
19.528
-2.9232
-4.3215
-11.701
17.393
30.818
-51.367
-15.811
17.112
9.0751
-0.9103
12.807
0.53841
1.7761
17.569
-22.826
-3.0545
-1.0743
-14.563
15.67
17.162
2.0535
-13.51
-23.454
15.576
6.3613
-13.12
2.0966
-19.173
7.3162
14.913
2.6845
-1.0266
4.4965
4.5351
1.9427
-22.815
18.853
16.792
-31.722
-22.035
27.369
1.7227
-2.4707
17.007
7.1964
-32.418
5.688
3.2939
-7.1267
7.1849
8.4849
-4.6633
-15.7
13.691
21.679
-22.268
-18.031
38.083
12.264
-21.523
17.136
3.0594
-23.127
5.9381
-4.8174
-7.0949
-5.9438
-19.465
-26.533
5.1849
35
27.609
-0.27887
-16.703
-8.7665
-7.3503
23.545
6.1571
-4.5189
-17.169
4.6051
11.292
-8.6165
-6.4817
-1.6519
15.603
18.943
-2.715
-21.3
-12.409
-10.01
-20.559
44.288
7.955
5.7735
-30.567
14.864
3.9093
-12.966
7.5022
11.046
-12.718
-3.7074
17.833
-4.4132
3.547
-10.783
-5.7665
21.374
14.365
-21.083
-11.012
-14.772
30.311
-10.144
20.033
12.578
-34.261
-15.884
-6.3482
7.16
8.6767
1.6102
-0.22533
-7.7541
-6.7568
14.901
6.1013
7.3941
6.1412
-19.622
20.892
27.772
-17.068
-27.521
-27.694
-15.964
-2.1484
60.84
5.7507
-28.211
-7.2412
-25.781
7.125
54.419
1.1604
-24.474
-3.1987
-7.1565
12.773
-5.6569
3.9448
-15.19
12.651
25.457
-7.3597
-25.866
-12.466
9.0151
6.9216
6.7627
-14.746
8.0504
22.08
-17.926
-3.5106
0.49859
7.3898
7.7591
0.98728
2.924
-11.372
3.6974
3.689
-11.205
34.671
-18.932
-10.856
-7.5028
-13.594
18.697
-2.9582
2.3355
38.782
-9.3116
-40.364
-11.743
9.4142
15.068
8.0249
2.1702
-14.056
31.469
3.7533
-8.5505
-16.835
-18.093
-49.51
29.153
36.759
-14.387
2.9975
-1.8789
5.6868
16.299
5.2897
-4.3875
-20.037
-14.865
22.623
-2.6623
-9.7842
-0.1203
15.082
7.0818
-27.39
-13.163
14.27
8.6932
7.4594
24.629
-9.3467
-9.1102
-4.0989
-8.4425
4.2123
-1.8817
-2.4498
3.9522
2.2698
25.688
-26.206
-18.284
14.101
0.49348
4.0479
-1.2109
-3.4395
-3.54
3.757
0.86778
5.8695
-7.1589
0.72048
0.090625
-4.5473
-1.2526
14.873
0.26742
-9.6255
5.8988
13.153
-4.2501
15.091
-29.387
-25.98
21.398
11.734
-11.644
2.9133
2.1724
-5.4254
-2.1978
-4.0869
-0.24503
11.177
9.7401
4.5514
10.184
-7.8264
-27.837
4.687
7.9991
-1.0054
-2.0274
23.075
10.488
11.266
-28.563
-57.841
18.593
16.421
7.5905
9.2676
-10.204
-8.9844
13.065
10.23
1.5069
-7.7231
-8.0894
-3.1494
5.368
2.2922
-2.0819
1.5962
3.3482
-2.3047
3.9579
-0.25958
4.5604
-1.3844
-16.564
2.6863
5.1614
7.7539
0.093135
-11.939
-16.801
13.652
11.902
-5.9548
1.1234
-4.8037
-2.1431
1.8381
-0.98516
11.998
-2.831
-12.814
15.039
14.341
-13.356
-11.663
-2.2477
7.1458
5.3031
-0.006685
-1.1124
-0.56867
-2.5138
-4.0721
-5.2572
6.2362
3.1076
0.14787
9.0926
-8.0634
-5.5373
1.0183
-1.5855
0.45651
3.8432
-1.34
-0.72027
2.3226
-7.1891
19.701
-8.6885
-8.7393
11.495
-11.566
5.4939
2.1145
-1.9436
-5.7622
2.2262
2.143
1.8339
-0.51143
-1.9312
5.7896
-4.9619
0.83196
4.2701
-0.26029
-3.2885
-2.8978
3.5728
0.36223
-3.9793
1.9438
-8.5183
7.8289
18.776
-7.3729
-3.3032
-14.821
6.907
-1.1915
-4.525
7.0599
-0.49261
-1.2511
3.7211
-1.9542
1.2368
-4.6805
-8.4601
20.842
-1.1916
-13.169
5.3507
4.4615
-12.616
3.8968
6.355
2.1397
-3.7451
-3.9765
13.997
21.295
-27.828
-14.984
-10.073
12.63
21.006
-17.392
12.94
-6.7063
-15.901
-7.2874
16.292
13.965
-1.9081
-5.6307
-11.055
-1.0284
17.159
-2.0458
-19.418
19.402
-13.604
-1.1806
5.3052
11.504
-5.1331
1.0783
1.3769
-6.1614
4.7118
1.8879
4.4623
1.9519
-7.3384
-16.611
7.7419
-2.0958
-1.7497
9.6014
11.959
4.3575
-8.0787
-7.5154
-8.9402
1.6907
7.9487
2.3512
-1.094
-5.5536
2.103
-0.52658
0.92281
2.1438
-1.829
2.1915
5.4378
-1.913
-0.67885
-0.010892
-2.8551
-0.5002
-0.32232
-1.4186
-4.7301
-1.3872
2.3628
4.3792
-0.40608
-1.6354
3.2973
-0.39056
0.27954
-3.1621
3.9305
-12.316
-8.5458
4.5851
9.9394
-5.5372
2.2761
18.754
-2.8512
-4.7169
21.354
-16.353
-40.312
34.565
1.1351
-1.1992
-13.151
7.2018
2.5151
-1.3182
1.4404
1.6868
6.5455
6.3554
-0.16255
-8.7006
-5.8225
1.7444
-0.11954
-2.0581
-9.0623
-8.3601
4.6599
16.135
-4.7126
9.9512
-10.228
-0.30798
3.0471
-11.467
6.3139
2.6509
1.6969
-14.935
5.9124
7.5618
9.549
-5.5714
0.9614
16.709
-9.5513
-24.623
17.686
2.3076
-11.909
0.10973
-16.743
22.795
2.1434
17.366
-27.983
3.7018
-0.45161
8.0636
-2.7039
24.007
-24.608
-18.965
16.596
-9.9136
9.5776
6.3215
52.135
-61.566
-0.75501
18.224
4.7823
50.05
-10.531
-104.81
-32.091
32.185
28.851
17.472
-0.53002
39.697
52.841
-42.946
-61.998
-12.897
-18.941
4.0868
26.245
0.84537
-14.856
12.729
6.1549
10.491
0.76121
-0.23431
5.893
-4.3257
8.7993
-7.6431
6.0397
2.6465
-1.9163
-0.12199
5.0891
-1.9711
-1.044
-6.4725
-3.8562
0.99668
2.5095
4.7081
4.4757
1.4221
-6.6658
-10.51
1.6667
5.3009
-0.55631
0.3782
1.878
5.9463
11.66
-27.958
10.212
3.0927
1.9752
15.519
13.907
-42.382
-33.09
1.004
16.259
16.515
1.4141
-1.0706
6.3422
3.346
-19.362
21.291
-4.3644
-26.984
16.298
-9.5158
18.52
-4.0059
3.0869
-6.2837
6.7157
3.9356
3.2508
-6.6587
-3.787
10.988
-6.7028
-2.3028
-5.6464
-7.1653
6.686
-0.45647
8.4036
-0.90218
6.6959
-7.3223
-9.0144
2.2021
3.673
7.2288
-2.1123
7.0378
-0.15446
-15.241
-2.6362
-6.6364
-1.9379
13.853
7.9689
-10.554
0.16272
8.6146
1.3359
-2.4507
-0.97674
-13.069
3.4032
-5.5633
8.3633
14.92
-14.422
11.301
0.12395
-13.822
4.7068
-2.3501
0.70405
9.8538
-12.967
11.58
-2.805
-10.927
9.663
-0.34433
12.426
21.195
-0.91168
-8.7048
-42.508
-18.157
22.808
0.78406
-3.1921
-0.59857
6.9432
9.6819
-4.5309
2.7042
3.7983
-11.57
2.0938
1.2932
6.0218
1.0715
14.956
-13.42
-11.048
13.692
6.0052
-16.51
-1.3284
7.846
-3.1051
3.1561
5.8534
6.1481
-6.4569
-12.594
-12.158
19.228
6.0247
-2.1597
4.9644
-23.701
7.9088
-2.5258
24.403
-14.239
-19.273
4.0588
-22.233
7.8192
22.552
12.394
14.611
-7.8403
-15.852
4.5503
0.91526
-1.1276
-27.409
16.48
19.949
18.406
3.3528
-8.9885
-37.633
-17.492
26.7
1.874
9.0118
-9.3039
1.2698
-3.433
-2.0756
2.1855
1.2175
0.018099
0.83592
1.4005
1.204
-9.8156
20.794
-13.518
17.61
-8.2847
-14.468
0.2301
9.9076
5.1959
-5.25
5.651
-12.288
-18.984
4.9722
18.479
14.644
-12.331
-6.0848
-4.3278
-3.3791
6.1192
-3.2505
8.4266
3.9271
0.26635
-2.1383
-1.5101
-0.30408
-1.1173
-0.52648
0.071868
-1.4257
0.18175
-0.24001
-1.7773
-1.6917
-5.2426
4.3154
7.9691
0.01169
-2.9966
1.3996
1.0614
1.6032
-0.42332
-2.6558
1.5538
1.8722
1.6715
0.18727
-2.3811
-0.68247
-4.2452
3.5594
7.9432
-4.2364
-5.0114
3.8018
-0.11204
-1.0128
0.14777
0.85303
0.34112
0.44586
1.1937
-0.40835
-2.3972
0.95607
-0.9405
-2.3841
0.51688
0.40607
-0.88425
0.86471
0.77454
0.53978
1.3192
21.718
22.171
-23.53
-12.799
-16.102
-1.034
9.2078
-1.0783
-2.1712
-0.50963
-3.7307
-1.3708
-0.88191
2.1096
1.0854
-1.7465
-0.44817
2.0593
-0.58606
-0.77018
0.15075
0.18303
-1.949
0.66992
2.0936
-0.49088
-0.90395
2.3642
-1.3594
-2.4803
2.4622
-0.062137
-2.5938
7.8597
-1.4222
-6.5738
-2.3515
2.9482
-0.88766
-4.0042
3.3909
-0.030676
-1.092
4.2381
2.2292
-1.9593
0.83753
2.483
-2.46
0.14931
2.522
-2.2055
1.5126
2.5678
-1.0364
0.72526
1.5753
-2.5059
-9.269
9.0673
10.892
1.9298
-0.72762
0.13234
-18.406
-10.702
13.968
3.9386
2.8196
-1.2343
-0.77144
3.5609
2.9976
7.1655
8.5498
-9.5379
-10.388
0.32559
-3.2462
-5.08
0.0052478
10.264
0.87953
-4.454
0.12695
1.0362
0.5309
-3.1063
-1.0383
0.58747
0.091843
-0.98249
0.30644
2.0847
-2.119
-3.6877
2.3077
3.3305
-1.7639
-0.5725
0.28476
1.8573
2.151
6.6542
-5.1852
-26.442
2.4654
12.888
13.415
0.031026
-0.13731
-3.7274
-6.6576
0.75894
5.1314
-6.7473
2.2788
6.0285
22.127
-0.51939
-23.835
-3.4024
0.64596
-2.1076
-1.1344
-0.17042
1.3627
-4.964
0.62907
-8.8247
3.6744
17.303
-5.46
-2.6296
-3.0241
4.9952
0.37894
-1.3369
0.35819
2.2712
-0.13621
-0.85765
-1.151
5.4412
6.0282
-7.8021
-7.6307
-2.9165
4.9716
6.6058
-4.0314
5.9285
-0.79498
-1.9578
-2.2768
-1.1214
-4.8078
-5.7788
12.679
0.74867
-1.9887
1.2519
-1.8594
0.59292
-0.1196
-1.6353
0.046411
0.75734
0.32462
0.81116
0.69295
0.65089
-1.456
0.52051
0.20341
-1.2982
-1.0681
-0.11909
0.80092
-0.69146
-2.0213
1.3116
-0.26991
-1.207
-0.65466
3.9081
-2.9469
0.68168
7.0941
-0.39451
-3.8361
-7.0911
-3.1411
1.8309
12.544
4.9558
-9.8408
4.7252
-4.4111
4.5111
4.0309
-7.6796
-3.3101
-2.6911
-0.60234
1.9625
0.84303
-1.2851
5.246
10.339
-14.458
-11.309
17.394
1.2285
-3.3545
-4.2892
3.3658
-0.50115
-0.63511
-5.4558
4.3335
9.1157
-1.9712
1.1792
-2.0669
-0.34104
-4.505
-9.6199
6.7473
6.2253
-3.649
1.1972
2.7329
0.72706
-0.12879
2.5412
2.0592
-3.1064
-8.5524
-8.4443
-8.1812
24.392
13.219
-5.9461
-6.8105
-7.767
-2.829
-4.433
1.4025
1.7605
0.62654
1.4177
2.2169
2.5946
1.0932
1.5938
0.50794
0.10315
-0.85278
-5.2264
-4.5862
-4.7732
12.235
11.782
3.8624
-10.883
-4.7956
0.11284
1.2976
1.2281
3.7975
0.53966
-3.0845
-2.803
-2.6419
-0.53603
0.46514
-0.50062
-0.98395
0.73414
-0.013559
0.069382
0.31316
-0.99103
0.024827
0.807
-1.017
-0.94136
-1.6731
-1.461
4.1212
7.637
0.079301
-2.8115
-0.94227
0.017457
0.28038
0.76784
0.65941
-0.28222
-0.39271
0.47406
-0.82587
-0.016776
0.32346
0.063256
-0.20846
-0.63683
0.16442
-0.70806
-0.36495
-3.8783
2.23
3.884
-1.832
2.6532
0.36714
-1.2661
-0.84238
-0.88356
-0.86587
-0.43884
-0.1436
-0.12161
-0.18056
-0.3422
0.25957
-0.31585
0.20904
1.6019
-0.41467
-0.97272
1.0585
0.51758
-0.51117
0.53964
0.92804
-0.16691
-0.28389
0.87919
0.66223
-0.68327
0.50642
0.90358
-0.63195
-0.90811
-0.19431
-0.032254
-2.346
1.1144
2.0203
0.041071
-0.57203
-0.67917
-1.2008
-0.50024
0.52522
-0.35239
-0.17362
0.25518
-0.049293
-0.38899
0.13279
0.62441
-0.76233
-0.33974
0.79912
0.68946
-1.5002
0.12708
0.3883
0.16668
0.29219
0.65365
0.16376
-1.0065
1.1154
0.77493
-0.82203
-0.60166
-0.10398
0.78746
0.23921
-0.40064
0.69608
-0.64655
-1.6279
2.704
1.0008
-1.5239
-0.58487
1.0626
0.13742
-1.9841
-0.019323
1.7719
0.32735
1.0551
-0.10753
-3.0284
-0.27007
0.044627
-0.77794
-1.2003
1.7738
0.90203
-0.7532
1.0672
-0.58475
-0.20381
0.55407
-0.058586
0.44443
-0.75259
-1.3447
-1.1553
2.4969
1.4052
-0.74408
0.79375
0.34727
0.99576
0.10288
-0.38938
1.2489
1.3452
-3.4633
-2.5672
0.69348
0.82618
0.41362
0.4378
-0.71436
-0.41196
0.34479
0.075715
-0.43704
-0.67584
0.70275
-0.51294
-0.7758
0.44062
0.6619
-0.60111
-0.8671
0.28015
-0.011045
0.49919
0.40132
0.96193
-1.2189
-3.5497
2.7526
3.3587
-0.56097
-0.77058
-1.6752
-0.60471
0.61393
0.25608
-0.56334
0.4597
0.56818
-0.62701
-0.40432
2.4468
0.71151
-0.65897
-0.09148
-0.70347
-0.40494
1.7289
0.13641
-0.28824
0.21649
0.54728
-0.51991
-0.1385
-0.42676
-0.92541
-0.040046
-1.5528
0.1984
1.6758
-0.21683
-0.35308
0.45761
0.35545
-0.57305
0.039174
-0.53186
0.40687
-1.3268
0.15708
-1.884
-1.1791
2.3791
1.7604
-0.7669
-0.20227
0.1145
0.78454
1.8471
-0.32131
-2.4926
0.95106
1.7747
-1.05
-0.96329
-0.35124
-1.3879
1.0499
2.5599
-0.37374
-1.5647
1.2925
0.81951
-0.74132
1.0622
0.67859
-0.75436
0.0094518
-0.059919
-0.049652
-0.51136
-0.097064
1.1848
-1.6685
-2.464
-1.0156
2.4577
1.333
-0.66034
0.29181
-0.069232
-0.20831
-1.2602
-0.66152
-0.32641
2.6787
0.21003
-1.9104
-0.62103
1.1737
-0.038001
-0.58107
0.86042
0.056531
-0.95412
0.13109
0.76987
-0.69632
0.18152
0.7336
-0.65142
-0.32665
1.3133
-0.1134
0.4639
0.13482
1.1889
0.51747
-0.42101
0.94352
-0.41549
-2.8261
-0.55884
2.0941
-1.5128
-0.26214
0.46877
0.1745
-4.0411
-5.4034
13.085
4.0378
-5.5274
-3.2766
-2.5351
2.0302
0.066404
-0.80313
2.8997
-3.1671
-1.7864
2.665
-9.1881
11.054
1.8221
5.6695
-1.8114
-7.7556
-7.9339
6.5368
7.0899
7.8191
-14.197
-3.2706
13.027
2.2611
-6.4677
-12.393
-6.8037
15.241
3.2766
1.8405
-2.5955
1.3899
0.46841
-8.2878
7.1365
0.74753
-4.1498
3.9875
2.2669
1.6135
-10.741
-3.8656
1.3357
3.3412
0.1235
2.0894
-0.13669
16.296
10.105
-21.658
-14.99
15.553
2.6998
-26.282
-3.4593
17.307
4.3537
-5.2334
-6.9347
6.1066
0.74705
1.9405
2.2266
-0.86258
0.045316
1.9999
1.0077
-0.75964
2.0924
0.99986
-0.053477
-0.88011
-0.31572
0.88335
1.108
-0.24652
-0.23632
-0.086279
-0.49364
0.43883
0.82767
0.50771
-0.22736
-0.54722
0.0024907
-0.40148
-0.71905
-0.29266
0.37804
-0.097302
-0.82546
-0.71834
0.87698
0.7127
-2.9194
-1.36
2.0188
1.0153
-0.64998
0.43592
-1.2258
-0.21766
0.097118
0.3257
-6.8003
3.554
4.9433
4.8348
-8.4159
-13.883
15.751
10.021
-6.392
9.5745
-4.0316
7.7859
-6.9402
-1.6566
-6.8763
4.7243
1.5266
-4.188
1.8934
1.4108
-2.8916
-5.2329
2.9845
-5.5473
6.3329
-0.3515
-2.8241
12.836
-1.2534
-8.8208
-4.3859
-1.2549
0.2175
-0.13711
0.34197
0.63279
-1.0392
-0.82671
1.614
0.46531
-0.92218
0.7083
1.8222
-0.59304
-1.0197
0.73818
1.5759
-1.5372
1.427
-2.8784
2.5669
-12.465
-0.66163
9.6397
6.7352
2.1748
-2.0273
2.2482
2.2999
0.83069
0.26292
2.7276
-4.5945
1.4985
4.0168
46.318
-6.5902
-49.865
-26.818
-1.9783
28.996
7.7661
-20.463
-5.4762
11.222
0.74578
4.3244
-3.545
1.3013
-0.57261
-0.33343
-0.60259
-2.1605
5.8741
-0.79786
-0.28417
1.3086
-0.18602
-3.7975
0.037412
0.19357
3.6744
-0.29416
-2.9329
4.1944
-0.061516
-1.7895
-1.5856
1.8315
2.352
-0.88452
-0.049154
-0.49518
0.38157
-1.2218
3.0498
-0.90263
2.806
-7.7095
3.9486
-1.2009
4.1165
-2.7498
1.7589
-4.8287
-1.0485
1.5714
2.371
1.0918
-0.2783
-0.70094
-0.89318
-0.27199
-0.49154
-1.0903
3.8801
-2.5253
0.72965
-1.4705
1.6756
6.3385
-2.4519
-2.6665
-3.0233
-0.0048321
-1.1821
2.3462
-3.5309
12.437
5.5562
-12.883
-4.1904
3.1001
3.3677
0.2281
-3.2576
0.1289
1.7076
-2.902
1.8957
1.3646
-1.1607
-1.8998
-2.0033
1.5653
2.6936
0.037166
-3.2701
-1.3692
2.1537
-0.0012786
-1.5501
-1.1608
2.0876
0.54701
-0.056624
-0.50253
0.18368
1.3326
-0.012061
1.2553
0.7062
-1.9836
0.5606
-0.12906
-0.29813
0.25836
-0.19294
-0.11452
0.37768
1.0681
-0.58994
-1.9829
-1.6227
-1.9789
6.7959
-0.15913
3.3011
-20.245
-5.8789
16.096
10.034
4.466
-5.2998
3.1563
-4.3964
19.297
-6.3092
-25.161
-5.9267
12.677
38.262
-1.9802
-65.54
-1.1757
25.503
4.724
8.8267
6.2512
-13.466
-14.279
-5.6848
15.309
10.821
-2.8987
-26.636
13.396
17.283
10.816
2.2264
-19.232
-5.3114
1.1406
1.3185
0.40713
-0.31901
2.4803
-0.1648
1.4003
-0.29856
-0.13066
-4.8979
-1.7024
2.5959
3.8886
4.246
27.13
-13.486
-35.476
0.22507
-1.2172
4.2452
3.0994
1.507
2.4306
13.397
-4.9291
13.857
8.9138
-4.5946
-5.0674
-21.783
5.0208
21.954
-26.432
-27.159
25.248
-23.737
-12.055
-13.902
23.041
42.581
12.11
-13.34
12.154
-9.0789
3.6831
7.1423
-2.3285
-6.1308
-5.2549
18.868
-7.6392
-5.1434
4.2911
-34.336
-38.315
24.853
6.7581
0.58081
6.6748
17.853
2.7615
7.1965
-4.8044
-9.6523
-3.3707
4.987
11.839
20.55
5.0154
-32.802
-18.748
2.7432
7.4025
-16.25
6.6783
30.808
3.8431
2.7002
-21.463
-33.498
52.756
-21.943
4.8984
-0.095436
29.211
-5.2542
-3.968
-15.675
-11.054
9.6536
-13.672
-32.268
3.3833
29.024
3.876
4.2061
-3.2748
-1.0207
1.9253
9.5609
-1.2517
-3.9282
-1.0017
2.1488
-3.8413
-11.752
9.4554
11.462
-14.827
2.7932
-1.515
1.4091
0.91368
-0.27086
0.34212
-0.52458
-0.15509
1.7927
-0.31528
-0.3881
1.4654
-0.21893
0.72579
1.9319
-1.9013
1.1672
-0.20958
-0.63477
2.0886
1.0049
2.0617
1.0067
0.28652
0.21478
0.25025
-2.277
-1.698
0.62811
-1.0319
-0.27226
0.88427
-0.30684
-0.68356
-0.63315
-0.52909
-0.18227
-0.28479
-0.50777
-0.94303
2.3044
-1.3812
0.4265
0.17509
-2.2966
-3.597
3.0224
3.3073
-0.94895
-12.148
0.92055
14.998
-3.03
1.6198
6.5419
-3.202
-9.2603
-0.18747
4.0205
-1.2176
-0.73363
-1.926
2.3554
-1.7096
-1.5431
-1.016
-6.9866
9.8216
11.56
-1.9716
-1.7375
-3.5218
0.81096
-1.0969
1.7157
-3.6606
-2.738
7.9375
-8.8504
-4.2651
12.239
7.6773
-10.891
-1.1892
-1.3271
-4.8851
1.9422
6.3728
-0.15493
-2.0829
3.7425
-7.0855
-9.2751
8.6521
7.8498
2.5415
-9.8921
-4.342
16.841
0.26746
0.47279
-0.20228
3.0534
-14.837
-13.281
12.358
3.1731
-5.6173
-9.3836
18.091
8.7255
-16.475
0.29389
2.615
-1.6699
6.3652
4.9809
-3.7617
-11.842
3.7696
5.3529
6.6415
-4.6889
-24.49
9.5078
10.197
-5.7975
-3.5031
12.225
-0.13088
-4.6616
41.223
-6.5035
-30.082
-8.7854
-9.3212
11.552
22.949
-4.2532
-17.725
-0.58638
4.3632
-8.1201
-1.3512
5.6571
4.3035
-8.175
-1.005
1.5769
16.791
3.4999
1.6372
22.092
-37.803
-24.211
18.027
9.2435
10.014
-19.771
-10.405
7.7351
13.761
19.406
-11.99
-7.4492
-3.3591
-2.4613
-2.3499
-1.3304
-6.0187
22.934
-6.5173
-27.376
8.3818
9.7596
14.998
2.958
-5.9464
-3.6644
-2.5576
-3.1054
-0.85643
2.7206
-0.41599
-0.38467
0.82586
0.7754
-1.0019
-0.062088
2.0264
0.29999
-1.1217
0.087508
-0.90265
-1.6862
1.6761
1.1482
-0.56702
0.42212
0.74629
-0.055913
-0.45212
0.95133
0.51103
-0.65377
-0.12162
0.76587
0.1657
-0.85091
0.69362
-0.049959
-0.70753
-0.50983
0.69855
-0.82488
-0.81428
1.0818
0.45199
-0.89459
-0.79593
0.51851
0.52392
-0.98328
-0.63952
0.79821
-0.70619
-0.41047
1.2666
-0.16226
-1.6598
1.6918
2.0755
0.15548
5.9133
-1.8499
-3.8756
-0.71486
-0.60078
-6.7071
0.49132
5.9613
-0.086724
0.52008
2.9942
-3.1415
-1.8919
-7.6239
2.1734
8.3893
2.1368
4.2675
-6.3339
-0.6169
0.85371
0.35065
-1.0427
-2.9813
0.96136
-0.52934
-5.4501
-3.2554
10.531
8.0438
-11.984
-14.657
17.572
12.171
-8.5462
3.3095
-0.34603
-3.1133
4.1995
-1.5298
-7.1732
-2.4886
4.9777
-15.874
3.2619
0.56365
-3.6948
19.617
-4.6409
-6.6612
0.81068
0.86844
-2.0166
6.4672
2.6879
-0.80172
0.38834
-1.778
4.2881
16.729
-7.5775
-21.083
7.0478
25.521
4.059
-19.297
9.9916
-10.894
-20.944
-6.095
-0.57519
6.5741
-11.248
8.7967
-0.78557
-8.1398
13.694
15.066
11.508
5.5436
-24.009
8.3487
0.11588
32.5
38.031
-46.855
-68.033
-3.0238
30.346
-1.4661
1.5987
4.446
-39.008
20.327
21.844
-0.49819
-0.31965
-4.4033
1.2113
15.575
18.765
5.1101
-10.603
-16.819
-26.209
-41.091
52.147
17.037
-7.4889
4.9702
0.5627
-8.1577
3.6694
-6.8526
2.6232
20.248
-25.868
1.2277
8.0736
-5.1378
-0.41952
4.8391
7.6449
-7.7546
-12.741
-3.6762
39.114
-0.2188
-23.484
11.518
-27.55
4.5544
-21.261
27.58
30.734
0.45619
-4.5572
0.68591
3.4251
15.433
10.343
-43.19
-12.88
-7.3804
-3.9951
3.6874
3.2525
4.7004
9.4928
-15.24
-24.422
56.142
-3.0574
-17.516
-0.93398
-2.9305
4.3623
-11.694
-10.119
1.4702
5.2206
1.1868
4.7939
3.0101
1.1664
-3.2453
-4.1759
1.3484
4.5481
-0.080297
-1.4468
3.2066
2.175
8.5743
9.2651
-37.497
-16.647
43.917
21.455
-11.29
-10.502
-5.5862
-7.1522
-20.059
-1.9174
-7.3264
-6.2523
17.592
45.221
2.6883
-13.363
-2.0075
-1.5622
-2.948
1.9386
-11.63
3.6943
-3.4735
-9.3409
14.903
3.7266
6.273
3.8655
-5.9939
2.0753
5.4263
-3.4517
-2.0289
3.4356
-11.535
-20.56
28.59
2.4391
-3.5559
3.5311
-0.7208
0.30363
-2.0197
-2.1459
-17.706
3.1267
-3.7702
1.4682
1.3585
4.6236
15.009
-4.6662
-3.5866
2.4584
3.2629
1.9979
-2.4628
-1.4589
1.4093
0.11089
-2.445
-0.76682
1.3369
-0.7918
-13.545
-2.2311
12.16
8.3346
9.1298
-8.4679
-12.109
2.3975
7.5283
1.4428
-2.5211
-6.401
-0.73163
0.83101
-0.92001
-1.9468
-1.0697
-13.73
0.54461
20.88
3.806
5.1588
-3.1677
-2.6492
-4.5658
-8.885
-3.2307
1.056
-4.681
6.8217
3.0282
4.4209
3.2618
2.0121
-1.4014
-2.5723
-0.3272
2.6108
-3.7992
-7.1581
6.7125
-7.3872
10.922
8.3097
-1.2033
-4.8988
-7.3348
-3.7196
3.7485
5.5484
0.29876
-0.39613
-1.1207
-2.6084
1.0795
0.46191
-6.2891
-5.6173
3.2795
13.088
-0.7947
-7.2576
-3.2224
0.62054
-0.50125
-0.18983
3.4683
4.5581
-2.2747
-2.0313
-6.0572
8.9486
4.2188
-3.0564
-0.44434
-3.7956
-3.0111
0.85291
4.4473
-6.4529
-14.213
-6.0896
8.6875
20.621
6.3369
0.12946
-4.9421
0.33855
-0.2815
-4.5473
0.84431
-15.208
-7.7615
8.4701
6.5548
9.0818
1.5032
8.233
3.4469
-3.9256
-6.8547
-1.5263
-0.99199
-1.7138
-0.2941
4.7176
10.069
9.7416
-23.3
-1.7862
11.171
12.057
-13.599
-12.718
-1.6563
-3.5209
-4.1583
-4.293
-13.992
22.485
22.06
-2.846
-8.4145
-1.1825
-3.8727
-5.4859
-2.3841
-6.1718
7.0397
14.652
-0.26001
-3.9352
-2.5916
0.53464
-1.2908
0.49305
-0.064101
-2.2477
0.44205
0.048683
4.8952
5.3039
-3.035
2.058
-0.2865
-2.1342
-3.2299
-1.4772
-0.7783
-7.5041
-2.4318
12.982
5.9157
-0.94203
-8.7052
-1.2294
-1.8123
-1.1229
2.6633
5.1228
-2.8286
-1.0814
-2.7924
-6.9902
5.6834
15.185
-5.5507
17.485
11.359
-33.85
-3.9359
4.9832
1.903
0.7206
-12.871
3.6425
18.765
-0.96088
-19.873
18.561
18.095
-12.417
-29.656
-17.237
17.684
9.3172
2.9853
-5.7804
-13.056
20.496
-8.7418
-4.3403
-12.8
16.125
11.181
11.596
6.2357
9.1778
13.298
-0.60159
-13.962
-16.502
-16.215
-29.509
27.247
14.21
6.1916
-4.688
-4.9268
-4.9877
-0.73801
11.094
-1.5123
-1.3415
-7.169
5.6722
24.757
-39.004
16.921
1.7216
-21.682
15.831
3.3391
-7.401
2.3208
6.7622
-9.3078
12.596
-12.618
-1.515
-3.8367
-2.9929
37.892
-8.3601
-38.609
27.999
1.8016
8.3969
-56.481
3.7636
36.003
6.0142
18.566
-29.804
11.192
-8.5352
1.8286
25.44
-4.3638
-25.016
-12.536
32.164
-49.504
26.705
1.977
-2.4506
9.755
-4.2837
2.9901
-0.46996
-2.5971
-4.1198
-0.96671
0.26842
4.1338
4.6576
5.3922
3.1991
0.97051
3.7867
-7.2445
-7.7126
-11.854
1.0858
2.3405
2.9527
-8.8986
-7.608
15.118
24.579
16.372
-19.265
19.795
-4.8323
-26.002
-12.016
-2.5361
2.3597
-1.4765
-24.957
18.981
22.228
-8.1275
-1.0474
0.35911
0.85385
-4.4422
-4.4102
3.0859
9.0364
5.5326
-2.1561
-16.05
8.8767
4.5796
-8.8614
-0.51428
-2.7881
0.55296
1.5454
-0.36781
3.9922
6.0522
7.8679
10.479
-13.538
-12.65
4.1975
4.1634
-3.0773
-0.98736
2.1135
-1.7001
0.23748
1.8254
-0.9154
0.68171
0.57317
-0.33201
0.63423
-0.58088
-0.97956
2.5321
0.27428
-2.0471
0.72511
-2.3925
1.922
2.0857
-1.3584
0.59989
-0.053072
-0.99971
-5.2235
19.867
-3.4424
-9.7532
22.655
-16.752
-20.223
-8.2816
18.39
12.34
-7.3738
-3.6803
-0.56972
-1.6751
-0.59867
-0.76113
1.8866
0.29315
-0.58003
1.0277
0.63801
0.4859
-1.5766
-2.625
-0.83494
4.6341
2.8093
6.7769
4.833
-10.869
-15.2
10.015
-12.834
9.2328
5.7395
-5.9527
8.7187
-5.033
1.0866
0.76231
4.0152
0.38668
-6.8783
3.5193
1.7583
2.0576
4.2611
-13.522
-18.729
11.162
20.405
10.181
-4.9989
-4.0414
-3.5514
-2.0415
-5.6022
-1.4404
1.7645
-0.83274
-1.4589
1.6076
0.55883
-1.3152
0.18822
-0.12829
-0.058045
1.9165
-0.58762
0.6032
2.046
-1.2534
0.61911
-0.12131
-1.1441
-0.38227
0.31603
1.1188
-0.26534
-0.45799
1.3151
-1.681
-0.19014
0.071631
-4.1043
2.416
6.9043
0.97758
-3.2443
-0.73624
-1.3965
-2.5704
2.8101
1.8559
-2.0716
2.9546
-0.32106
-5.8862
0.71667
-1.8711
1.4949
3.9183
-2.5068
1.0881
2.5046
0.17016
0.19855
-1.414
1.373
-0.38654
-1.065
0.98537
-0.56733
-0.74224
-0.37177
-0.10465
0.75124
-0.23178
0.53173
-0.61888
-0.28411
-0.4427
-0.26487
0.6462
-1.6098
-0.78819
-3.5489
-2.504
-0.78217
4.7971
31.183
-2.9792
-42.214
6.3433
5.8798
6.8014
14.152
4.6952
-15.447
-16.589
-0.81172
5.1893
4.1121
2.5088
0.95738
-2.6126
4.5922
1.4408
-1.5947
9.2108
0.7093
-13.322
-9.8993
8.9037
-3.3997
-3.1426
13.985
3.5492
-9.8943
0.55566
0.94063
-21.423
0.56594
12.736
9.2923
8.2392
-0.22965
-2.1231
6.131
6.3896
-9.8675
-15.465
-0.42382
7.6332
-3.5451
10.972
-2.1944
-5.2447
-5.326
-2.0093
5.8831
9.996
10.38
-23.476
-8.9769
1.9419
6.5694
2.1768
-2.0191
-4.0338
3.1639
5.1055
8.2609
5.3605
-6.901
-4.6991
-0.48094
-20.178
7.456
6.1243
-12.897
22.69
0.24148
-9.9936
7.6784
-22.497
21.18
28.459
-23.236
4.6737
-7.4159
-0.87803
-9.5547
0.63994
1.6021
4.7213
18.822
-21.055
-16.237
16.161
0.23777
-4.0673
3.2535
2.97
1.4712
-2.9626
-2.0301
5.5563
-3.1402
3.6628
0.49243
-5.8559
-14.778
0.3497
31.426
20.429
-16.421
-52.908
24.751
15.258
-7.04
-9.0235
2.7952
1.6356
1.99
1.1534
-0.90137
0.79463
0.71319
-0.18248
2.1682
-0.73722
-0.19748
2.8942
-0.81253
-0.8886
3.6453
-0.69945
-2.8748
12.043
-5.8743
2.5341
-5.1693
-3.7465
0.27423
0.00021159
1.3007
0.65113
-2.4499
-0.0052481
2.4078
0.48469
-0.47703
0.78829
-0.7708
-1.5403
-0.39386
-0.064978
-0.23231
-1.14
-1.769
2.39
0.55984
-3.2519
-0.75843
-3.7859
-4.9976
7.4322
5.0321
1.3878
0.17972
-1.8173
-1.3848
1.597
-0.15966
-0.23665
1.3977
-0.85393
-0.34851
1.0535
-0.75398
-0.11251
1.0196
-1.0155
-0.59468
1.3275
-0.8643
-0.76437
0.88784
0.51771
-1.2865
1.5481
-0.90786
0.00084905
-1.3055
1.0678
-11.888
6.6623
10.746
-12.229
2.5708
1.8734
8.425
-6.4253
0.8892
8.0183
-11.317
-5.2709
5.5048
7.1979
-2.6982
-4.4033
-0.055679
2.8986
8.8436
3.394
-5.7176
-11.192
-2.0196
3.8124
4.108
-1.4676
2.4177
0.28974
-1.2513
2.7413
-6.8246
-9.4851
9.2188
10.22
-1.8591
-4.9022
-1.3872
-4.2106
0.76049
-0.66267
2.0292
7.5406
-10.824
-18.528
20.385
16.696
7.455
-3.3113
-20.53
0.10771
-3.5529
-5.4991
6.274
-7.0343
-32.618
14.368
23.583
13.046
2.5872
-0.12384
-1.5954
-0.018983
3.9987
7.4719
9.1977
-10.946
-25.047
-9.6861
20.815
0.59636
2.3092
3.7905
35.936
-9.0319
-17.759
-12.852
-10.324
-1.1653
-3.9415
22.796
4.8542
-8.1984
-4.9684
-8.7194
-13.168
-29.579
-11.146
15.071
34.119
13.959
2.5017
2.4116
0.12544
-0.37608
2.3258
-0.47024
-0.052328
6.9684
-5.7293
-13.436
0.75807
3.3775
1.5332
1.6926
-1.6831
-0.28725
1.8798
-1.3834
0.73836
2.8075
10.118
22.039
5.7719
-57.19
-36.978
42.777
21.534
-6.6718
-27.682
20.384
13.496
-5.0372
-16.238
-10.117
16.687
8.8197
-7.292
0.01249
-7.2299
1.288
7.6784
5.8015
-17.739
-1.9551
-4.0866
7.8193
23.329
-2.6073
-13.085
-9.4073
1.6953
6.9773
-0.14699
-4.0123
0.43838
-0.26625
-0.7008
1.026
-3.3341
3.5207
3.367
-2.0798
4.2822
-4.6321
-8.3701
11.641
-4.7633
-6.5891
9.771
4.8752
-5.3389
0.42976
1.9773
-3.0063
-8.4212
-2.5791
18.846
5.0182
0.22247
0.1718
2.8456
-11.694
-5.3842
1.9133
-1.3232
0.68011
1.5445
1.6987
-3.183
-6.3415
4.5116
-3.7931
-1.6557
1.571
-0.19958
0.51794
4.0282
-3.3695
-4.7323
6.6847
9.4878
3.1663
-2.5121
-7.8382
2.7335
9.2063
2.4281
-6.5186
-1.4855
-0.20864
-0.36073
-1.6207
-1.0419
3.631
-2.4952
-0.040268
2.6308
0.81806
-1.9117
-2.0327
-5.0679
3.6425
-5.9089
-9.4937
6.3519
-3.2584
-3.1261
3.4003
8.8519
0.85061
3.5797
0.11337
-1.3564
1.4027
0.42395
-1.7064
0.3812
5.0086
-0.0055688
-0.058047
-2.7337
-3.3426
1.38
0.37997
-1.9492
0.070197
-1.3198
5.7716
14.193
-15.512
-9.0212
3.2589
-0.26309
2.4617
2.6921
-2.5471
-5.1134
-2.1867
-11.22
-14.851
17.257
18.126
6.263
2.4147
-0.2143
-0.79055
-5.6004
-0.68691
3.1152
-0.65436
-1.4667
0.3725
-0.9287
-0.87573
1.3451
-0.32701
-0.41351
1.2061
-0.73221
-1.3809
0.50642
-0.96779
-0.8268
-0.013513
-0.24207
0.72453
2.7328
-0.67506
-1.3025
-7.9149
-11.64
7.5519
12.485
2.638
-0.9178
-1.7244
2.8883
-0.46128
-9.3744
0.44838
2.1016
5.6543
5.9992
-3.3118
-9.687
-1.3537
0.65792
0.28373
0.64961
4.574
0.31025
-8.4557
-5.444
-0.11736
9.7421
-3.0689
3.7259
5.193
-3.6173
-9.8046
26.551
-0.47071
-17.449
8.0886
-6.5309
2.3184
2.2248
-0.11371
0.79972
-5.8983
-14.885
-2.7782
7.9604
-4.8001
1.1419
3.4246
6.4803
3.9293
-4.4878
-0.6795
7.5149
7.2886
-9.7425
-14.984
4.3051
11.059
10.167
3.5428
-1.0835
-7.781
-3.4473
3.7578
1.2584
-0.39719
2.3678
-5.9961
-14.357
5.6754
10.915
9.0718
-9.8825
5.712
-2.2615
-3.3193
1.3264
-4.0491
-2.6504
-3.5748
-11.651
21.348
15.666
-10.629
-15.287
-0.51099
-5.2859
-2.5087
13.086
10.948
2.1296
-4.825
-5.8676
2.3303
3.2448
0.37186
-8.6338
-9.6562
-2.3586
0.82715
-0.64881
4.4097
5.8078
5.8159
-2.6112
-5.4947
-3.7494
-1.1841
4.6878
-7.1484
11.391
-0.15342
1.7938
8.7613
0.91855
-0.91778
-5.6727
0.47807
0.1823
5.0469
5.0898
-11.738
-7.2734
-4.9265
0.014378
10.941
5.7229
-2.128
-3.2637
0.11468
-1.9293
0.38234
0.36929
-0.87288
0.37133
1.8027
5.3382
5.7595
-6.2207
-9.0632
-3.3026
1.8972
2.7472
1.6537
-0.61897
-1.7852
-1.316
1.8221
-0.67759
-3.8299
-5.7877
-11.653
2.0825
12.272
7.7199
-1.0424
-4.4102
-0.99345
6.7462
-0.57078
-3.5021
2.575
3.2847
1.792
0.9658
0.98243
2.9527
-2.3296
-0.89307
2.547
2.6055
-1.1246
-8.6609
-1.8567
-1.7967
2.2901
7.1544
-0.33844
0.16989
-2.8706
-5.9107
-2.7601
12.289
5.0666
-14.887
-4.6938
-6.3283
-4.1146
0.4576
5.148
9.2452
9.0746
4.1718
-3.7717
-2.3901
-1.5577
-1.616
-5.4656
-4.6259
7.1228
7.5949
-1.6244
-1.6827
2.5782
1.8498
-3.2779
-5.3332
5.6314
10.799
-9.6646
-15.495
-0.84884
13.338
1.3113
8.313
-3.7526
-2.1704
-9.0274
-4.5348
-0.34945
10.61
-3.5026
-9.5323
4.9848
0.16466
-1.5235
2.8919
-0.51248
1.3354
5.8675
11.844
-4.2643
-14.843
2.6682
3.1097
0.19562
8.1364
-8.6819
-4.9148
3.1594
6.3128
0.70482
-1.4905
7.4622
7.5945
-7.0208
-12.775
-0.066332
-1.663
0.35357
4.1822
-7.2383
-1.3868
1.8896
-3.0523
1.256
0.89615
-0.65608
2.4709
1.561
-0.83857
4.7802
4.1267
-4.133
-0.14343
-4.8609
-2.8799
4.6707
-5.6667
-14.784
10.088
13.221
-8.6732
8.8607
5.2131
-15.146
2.8941
2.8361
-3.5313
-1.7859
1.8722
3.4353
3.6624
3.9791
1.9922
1.4519
-4.6719
-3.2929
1.1076
0.41319
6.1435
12.534
-0.79221
-16.899
-13.696
16.752
-2.4074
-0.21132
1.153
-9.5746
-11.512
-3.5884
1.1203
11.043
6.7211
2.2824
1.5172
3.8423
0.80912
-1.5627
0.19756
-1.4254
0.52861
8.8165
-8.5765
-10.692
-17.646
9.1147
10.816
-4.0259
-0.36578
7.4046
12.479
1.7548
-4.1568
1.8359
-3.2406
-1.6357
-1.0401
-1.3071
0.55775
-1.2089
-5.3419
-0.39089
-1.1744
9.8041
11.45
1.1317
-8.0582
-4.1319
-6.7224
-6.4732
-7.4732
-2.4928
8.37
-0.072226
-4.0909
-21.055
20.206
12.155
-4.1023
8.709
-5.3116
2.7157
-8.4297
0.85622
3.4222
1.1359
1.1252
1.5684
-0.99976
-1.5827
0.015887
0.50791
2.6522
2.0956
-0.94279
-1.1664
-1.5157
1.2589
1.1639
0.19465
-0.40153
-1.7597
-0.28515
2.9281
-1.2174
-2.8292
-2.3991
-1.5469
5.2407
7.2482
0.17895
-1.725
-3.2522
-0.92745
1.7713
-0.31838
-3.5096
-2.9588
0.34077
0.10394
-0.59527
0.17504
0.088229
-0.034057
0.11083
-0.50102
0.16109
0.58637
1.6875
0.17927
-0.57909
0.422
-0.18157
-0.56613
-0.081376
-0.031618
0.40228
-0.25461
0.48929
0.54811
1.6685
-1.9808
-5.2552
-4.8015
2.9992
5.296
3.3044
7.1118
7.6531
-6.0668
-8.5619
-1.0094
1.8245
2.2691
0.91973
-5.8304
-5.7596
1.5538
4.0852
1.1209
0.16508
-4.8722
-2.6361
-17.756
-12.248
44.053
-12.534
2.6697
2.4437
4.6566
-9.6551
7.9773
2.9593
-10.703
2.6091
7.9024
-2.3241
-10.803
12.51
-6.7883
1.7305
-4.9238
5.6849
1.0632
-2.1585
11.601
-5.8936
-6.1205
5.9287
6.9827
-14.948
-2.8155
-4.1689
3.6901
2.11
20.406
-26.014
2.9376
8.7105
-5.9843
9.5254
-13.367
9.0054
1.1485
8.269
-11.546
-3.6489
-1.7756
1.4321
13.556
-14.349
-6.4006
10.545
14.425
-3.1858
-8.7958
-5.6685
6.8729
4.9218
-12.518
1.2159
2.5445
16.582
6.3127
-11.329
-47.471
23.788
22.084
-5.6846
4.7918
1.4784
-3.5828
-1.9243
0.032351
