20.488
-9.6973
-36.791
16.809
-77.342
13.206
170.35
55.806
40.987
-34.882
-36.874
29.496
-40.49
21.227
15.986
-71.028
20.55
-5.1978
-27.876
80.636
46.026
-45.21
-18.19
-67.129
8.1292
19.91
-70.861
19.762
-15.201
-10.653
30.842
-31.007
11.86
20.498
-23.429
37.113
-5.5098
-4.9388
5.703
-33.331
48.524
28.514
-35.525
22.087
-29.685
-2.1431
8.4632
-20.856
54.012
-20.969
-15.582
10.714
-32.414
30.547
-13.861
57.711
23.46
-73.323
-8.182
-59.576
10.489
10.08
-22.721
52.494
-25.861
-9.9157
19.433
-34.287
58.219
5.3668
-9.307
31.647
-37.099
19.72
6.3369
-45.199
35.123
-33.305
-18.76
32.028
-39.187
25.17
21.563
-36.008
35.338
-18.961
-77.766
-3.3721
-70.252
94.369
143.34
32.822
127.02
73.436
-156.32
-120.74
-159.49
-84.884
59.612
-90.455
34.552
109.68
53.728
205.06
-61.249
-88
68.013
-73.359
58.58
11.178
-36.667
73.261
46.71
33.306
7.447
-76.429
-73.728
-45.425
-16.209
48.933
1.2334
17.811
37.927
36.561
90.392
-36.653
-22.042
-12.686
-60.447
8.711
-52.161
-58.332
20.495
27.094
-19.372
5.5923
-26.881
-70.089
-57.989
29.099
37.681
35.831
56.886
-64.378
-1.223
24.845
-65.434
8.275
5.2222
-26.011
46.184
-8.7577
21.303
65.95
50.324
44.527
-190.58
-50.662
169.86
-15.943
25.799
44.272
-27.935
11.714
-10.942
-291.64
-51.992
59.733
-43.181
-14.143
183.43
184.32
84.237
-67.364
22.354
96.45
-22.974
-86.037
-84.085
-79.495
6.5558
236.26
-55.623
-100.47
41.3
-1.0454
-129
44.426
18.414
-77.684
43.536
27.517
2.6952
-18.673
-2.8394
25.216
-28.105
14.259
9.4963
-17.279
24.507
-24.337
11.212
4.126
-20.683
29.858
1.4205
-3.4439
76.103
123.51
-3.0598
-152.44
17.792
175.47
-56.271
-216.92
-54.68
-38.002
-24.895
247.01
22.258
77.475
-116.81
-83.946
185.63
-59.757
-61.234
3.0246
-47.265
1.2685
11.01
-54.461
3.1409
-9.3108
-45.839
39.775
-24.472
-16.194
46.982
-14.86
-14.796
16.336
-35.063
9.6294
45.277
-118.66
-130.72
47.934
11.246
112.65
71.232
-139.01
-11.547
2.4534
13.19
77.645
6.7688
-19.594
56.38
2.1932
28.299
33.931
-17.328
44.432
37.251
36.351
108.9
-4.8138
-21.157
17.893
-112.99
-4.6247
39.813
-35.225
-29.261
14.297
17.452
-22.245
125.94
-53.967
-113.9
-115.11
-4.6239
55.44
130.48
-187.41
-99.983
166.22
-4.6672
-44.068
-7.288
3.5471
6.1331
86.599
-39.056
7.1846
85.381
-4.4304
-74.77
-196.6
-87.284
243.06
-62.356
-171.47
89.266
61.134
28.931
20.222
-89.968
27.577
5.7344
3.0521
212.75
-89.731
-3.6498
-3.6188
-19.486
42.409
-6.5189
33.177
10.267
-8.5625
29.241
-23.602
3.46
21.578
-24.869
14
-18.752
-23.656
25.903
-15.278
10.124
19.824
-42.801
-17.202
-12.792
-16.628
35.687
-15.82
-10.836
22.156
-54.92
4.3294
27.764
-26.131
25.567
-1.966
-15.618
39.01
-16.943
-10.82
28.595
-28.02
18.84
10.897
-26.447
37.748
-5.8691
-14.399
29.95
-24.635
11.761
19.488
-22.751
26.262
-3.1893
-17.714
21.968
-29.463
-8.5399
26.349
-17.284
7.8668
-5.8923
-23.428
18.387
-10.822
15.422
10.011
-29.059
13.085
-2.2238
-29.346
17.045
-12.808
0.28624
24.248
-18.792
13.311
8.2055
-23.423
17.997
-7.2363
-22.921
24.998
-16.687
-1.681
32.468
-20.858
-5.5077
14.291
-27.702
25.355
18.493
-22.964
22.802
-4.5237
-20.285
33.587
1.7024
-12.714
4.9003
-30.687
8.7092
14.757
-38.846
8.3197
-5.2483
-18.285
30.2
-12.343
7.1526
24.653
-30.593
11.897
0.54782
-22.172
30.925
-15.924
3.233
22.12
-27.476
13.815
5.0954
-27.373
29.552
-6.6467
-12.283
33.308
-23.779
3.1698
15.306
-24.969
28.474
3.566
-18.008
31.922
-19.624
-10.217
20.491
-28.829
13.144
15.539
-25.763
18.23
-12.733
-15.302
26.808
-18.204
6.0968
12.386
-31.553
16.291
-4.8951
-18.762
29.947
-19.773
8.6148
25.356
-32.434
12.825
-7.8495
-24.588
28.78
-15.156
4.4533
33.02
-26.457
9.2332
-1.8062
-27.024
29.524
-12.374
1.7345
31.416
-28.459
10.499
6.8397
-19.141
29.031
-10.923
-4.3432
43.261
23.934
14.081
-32.028
-92.189
-34.78
11.91
7.5224
50.404
-13.555
1.3571
24.915
-33.751
43.31
-4.5419
-65.59
13.887
10.757
-20.2
22.405
21.051
42.8
-6.7435
-26.064
29.296
-25.457
24.654
13.991
-29.343
9.6097
-11.391
-29.795
15.881
-34.188
8.7057
24.783
-27.769
10.955
-24.228
-7.3074
37.744
-23.537
8.5562
47.232
-40.182
10.823
-15.738
-18.817
44.384
-18.519
5.3969
27.08
-38.18
23.764
-10.667
-21.435
36.151
-29.375
13.943
15.291
-26.119
31.894
-32.969
-0.17942
13.245
-21.289
48.075
-25.963
-7.1686
22.602
-32.434
34.008
-8.0316
6.1926
45.414
-33.958
4.8803
-16.415
-23.412
40.33
-34.817
8.6709
17.3
-24.963
29.286
-27.899
-6.732
27.46
-33.314
21.934
-10.038
-13.682
39.69
-16.2
16.712
17.14
-40.091
18.149
-13.007
-6.0324
35.204
-24.864
8.5239
14.374
-34.899
9.605
-32.205
-16.022
40.583
-13.801
25.909
-12.187
-58.208
67.099
21.124
-16.664
-2.8776
-60.292
23.295
-2.9732
-10.725
46.146
-34.459
13.131
15.591
-42.644
35.852
-1.482
-4.9222
39.331
-32.009
11.287
26.81
-39.792
21.737
-5.2508
-22.686
37.541
-25.843
-2.0261
25.241
-38.861
19.396
3.289
-32.716
42.876
-15.984
-12.44
27.859
-36.328
19.918
12.347
-40.181
34.05
-8.9211
-33.199
36.566
-28.103
10.209
29.919
-35.643
33.669
1.6754
-22.05
30.225
-39.31
6.7452
38.753
-29.823
31.282
-8.1779
-17.892
42.091
-45.924
1.5953
23.249
-44.157
23.466
-6.2736
-1.3757
42.866
-7.3562
12.933
-7.084
-31.507
11.568
-29.942
16.124
17.48
-20.431
26.16
-29.301
2.6543
33.028
-34.254
24.301
-8.2925
-22.879
26.243
-34.332
12.977
12.962
-19.962
34.601
-25.784
-9.8455
18.316
-33.514
27.074
1.4899
-26.893
15.87
-39.564
13.445
16.526
-14.252
49.288
-7.3793
4.4862
11.746
-43.016
22.821
-26.934
4.5013
36.058
-31.822
25.486
-7.5975
-18.324
40.644
-25.91
10.724
18.372
-39.299
24.15
-0.63552
-8.7887
39.796
-25.381
-11.841
16.119
-40.002
19.061
-2.1833
-24.423
36.15
-20.421
-4.7327
28.523
-37.423
11.001
2.1553
-41.081
36.611
-10.001
-7.7126
33.479
-13.657
34.882
30.686
-32.176
8.6888
-43.59
-30.846
8.1731
-37.953
42.227
19.098
-11.151
43.366
-23.949
25.363
19.355
-47.959
24.661
-21.782
-4.8066
31.604
-31.986
25.21
1.593
-18.643
40.221
-22.202
0.23347
17.95
-33.744
20.719
-5.7011
-17.794
35.017
-16.382
-8.9381
9.8261
-31.841
16.923
-4.9372
-18.057
32.069
-23.758
-11.436
13.503
-37.936
31.662
7.5513
-31.026
31.456
-34.154
7.5242
27.354
-36.744
45.979
-7.0614
-12.78
36.013
-42.171
29.237
13.644
-19.586
42.292
-37.513
-2.054
23.418
-37.156
41.17
-14.319
-12.726
41.278
-44.139
16.554
3.3431
-27.356
52.903
-20.435
0.66646
20.417
-45.159
22.443
-17.056
-12.564
27.686
-35.623
17.861
-16.898
-6.56
40.691
-28.378
20.842
10.423
-14.482
25.943
-33.401
24.43
5.9738
-33.676
30.086
-37.47
3.3861
11.245
-20.168
36.77
-27.4
-7.0974
19.004
-33.87
28.359
-3.8989
8.295
60.333
-32.95
-29.202
-39.488
-26.383
55.519
-36.11
4.3887
34.141
-33.104
85.169
15.029
-27.856
-0.85703
-60.327
23.138
-5.9035
-6.5541
37.944
-46.589
22.188
-11.779
-16.844
49.673
-38.105
23.402
8.5555
-27.048
107.95
39.081
-41.552
-102.34
-171.21
-73.172
-21.746
86.854
55.85
-8.0277
55.792
-20.307
58.526
93.428
43.707
209.58
103.92
12.779
-110.03
-260.9
-99.036
57.483
-20.043
-11.066
6.6645
44.397
-25.837
25.37
-42.344
12.752
36.024
-21.701
-8.0688
-9.2997
46.457
-86.637
-6.1012
42.869
-27.903
74.835
-166.47
-13.119
-65.5
-125.84
91.02
6.8883
135.76
138.36
65.855
-17.246
-58.852
20.425
-99.031
-75.909
-0.87337
13.423
111.4
11.953
102.39
9.5325
52.231
181.51
-75.363
-79.263
-37.687
-55.327
-57.774
-48.332
7.0462
-20.3
29.692
65.178
-38.815
46.467
23.674
8.0512
-53.857
-114.81
-17.517
-12.536
-46.415
36.384
-21.886
-1.5714
55.396
-37.141
6.8282
-22.543
-34.309
97.616
31.217
79.882
41.488
-68.513
33.859
35.969
-25.348
63.795
-22.349
-131.95
-52.915
-53
96.724
40.763
-16.801
70.139
48.518
-135.8
-75.926
-66.159
97.401
13.091
43.94
116.24
-166.3
-12.612
49.019
-89.464
75.699
104.68
-4.8125
33.326
-139.16
-66.291
50.18
-166.98
63.589
182.4
-56.727
64.261
58.54
-55.25
27.606
42.36
-71.974
-70.629
9.5885
16.781
-76.656
-116.06
9.7935
104.92
-16.406
122.42
117.37
-18.754
39.199
-121.48
-153.57
66.513
29.263
-65.932
-5.2393
-38.969
154.85
123.74
-23.83
-15.714
-219.9
-80.369
143.12
-44.699
0.31652
49.464
-75
50.092
-31.495
12.911
22.228
-47.621
47.49
129.2
5.2832
-42.022
106.64
22.088
104.93
-188.5
-77.968
125.65
-189.48
7.1328
47.173
-30.483
134.31
51.557
-110.54
-43.466
-62.954
26.154
12.02
-21.075
66.356
-36.64
36.485
53.995
16.978
40.508
-69.686
-39.862
-3.2963
-38.313
169.18
-44.875
-67.358
-25.475
-113.82
71.229
62.916
18.193
76.468
-91.813
-3.4689
15.757
-22.478
45.549
-104.08
-25.85
76.736
4.8035
8.3489
-22.953
-57.564
66.438
-29.748
29.735
14.287
-71.746
68.744
19.824
-48.267
-36.856
-65.346
56.98
18.891
-79.089
48.655
0.81748
-37.457
65.805
-23.471
34.563
87.122
36.858
42.314
-41.9
-51.113
61.978
-34.555
-31.065
5.2147
-74.14
-16.315
8.525
43.329
69.514
-63.684
45.298
11.082
-26.684
-9.817
-22.271
-31.256
-6.0537
-63.366
-7.9826
47.129
-40.024
110.05
63.255
7.478
68.379
-153.52
-66.365
37.192
-42.994
58.098
53.444
55.263
28.395
-38.302
-67.937
-34.779
-40.357
45.409
-58.04
10.865
87.372
-32.314
80.668
30.058
-57.573
-10.631
-73.081
-22.158
-55.669
73.422
113.94
-104.8
-30.79
90.063
-6.5524
47.349
24.15
-70.276
-59.255
-38.513
38.378
9.9768
-3.1268
34.732
-93.111
-53.483
20.444
-17.593
98.439
25.638
73.759
30.31
94.591
-106.54
-124.31
-93.508
46.221
-25.351
-42.889
55.102
-5.461
170.82
24.342
-121.95
4.4976
-45.593
87.683
47.138
-37.432
172.28
-9.1858
-168.92
-105.09
-22.979
148.88
-76.329
52.469
17.467
-0.69702
45.784
-140.64
-77.159
82.544
2.3379
124.65
-0.93563
-151.15
40.398
1.6035
-9.6662
93.664
-8.3703
45.012
-40.617
31.747
5.8918
-82.497
59.451
11.9
1.7852
46.48
-84.148
30.234
46.24
-115.05
24.904
-10.813
-73.587
-20.5
-26.524
63.908
23.988
-20.252
48.883
38.155
-47.479
-8.5813
49.833
-29.47
-64.289
-46.865
61.735
17.158
43.086
109.6
59.263
44.029
-53.689
-113.24
-26.211
-12.386
-72.32
64.873
-20.662
8.2939
92.592
-84.964
-132.85
32.902
70.424
209.97
-123.93
-141.25
68.644
-33.636
4.9246
5.1877
-3.2752
38.348
11.346
-17.674
15.765
-132.64
-30.428
12.607
17.426
93.146
-34.854
31.498
86.928
63.467
62.372
-60.519
24.417
41.734
-64.439
16.405
-182.07
-102.84
178.17
67.069
-61.13
-74.308
22.972
44.317
-84.423
45.568
-36.723
-59.457
80.046
-71.702
-32.857
31.732
74.837
101.98
-56.71
-97.19
101.21
-20.082
106.65
-6.4484
-164.28
22.18
-59.585
41.603
62.469
-11.488
144.68
8.6972
-32.072
-123.08
-137.5
40.404
16.509
88.616
101.88
-39.813
-26.835
-4.6381
-29.634
3.5065
-106.56
-66.466
99.457
-69.686
96.857
104.77
8.2195
-20.252
-128.82
117.47
70.931
-52.824
-126.41
-128.12
42.249
45.338
112.06
101.21
-129.15
74.377
52.7
-7.0421
51.124
-124.45
-54.748
21.391
-45.138
81.069
-103.2
-8.0027
30.895
-116.8
41.798
31.921
18.551
130.22
54.511
-57.599
3.651
-22.333
-3.6809
83.223
31.95
-79.17
-18.786
-8.967
-70.705
-55.071
29.341
-7.1147
115.68
2.6732
-149.08
45.6
14.229
59.217
86.189
-53.325
101.84
-17.672
-171.89
35.952
-39.435
4.1407
-27.082
-42.489
86.126
35.178
-76.511
89.664
-1.7083
2.5891
-26.221
-48.868
56.457
-18.515
12.168
53.255
-48.397
43.298
35.534
-23.265
-150.28
-158.38
98.027
195.03
220.22
97.5
-104.5
-167.79
-295.32
-230.98
184.58
173
-94.781
6.0236
32.501
192.03
8.9788
-65.335
36.473
-4.8185
73.853
-7.2351
29.566
-34.797
-51.738
51.404
77.33
-3.204
-79.653
-42.545
46.034
-78.336
-70.762
40.035
-8.1243
-12.084
-80.941
9.3963
27.971
-21.312
90.935
66.864
-18.075
-20.713
-74.674
37.773
38.334
13.95
-23.313
-96.25
105.2
6.2672
-159.3
56.128
-25.051
46.222
67.443
-146.3
71.362
-3.464
-42.535
-33.919
-68.748
70.437
4.8545
54.103
140.65
-64.176
-13.665
-5.1459
20.511
180.6
-49.581
-13.7
37.049
-120.64
106.74
-25.005
11.717
50.261
-217.72
15.117
149.15
35.57
-136.58
-160.77
-17.021
142.21
9.1358
-32.555
26.796
-71.714
140.64
-70.729
-118.65
26.544
-13.951
111.75
-23.286
100.84
53.662
-193.76
7.7298
20.583
38.39
43.944
-54.315
-52.978
16.329
17.044
-8.7299
-52.672
16.74
77.888
23.278
-16.682
-234.33
109.55
249.46
177.27
11.886
3.3482
-272.42
-208.56
-10.483
75.119
30.245
-38.679
48.975
-58.225
15.251
50.983
19.795
53.651
-97.321
88.513
90.839
-134.12
34.535
60.03
40.055
-66.3
23.825
56.057
61.74
51.372
-154.3
-80.391
38.043
2.1031
24.994
-89.919
-15.7
29.036
43.191
80.071
8.8169
-81.429
-105.77
-41.356
-1.886
22.181
31.058
21.491
-44.908
90.237
-17.825
-85.358
42.034
-7.4387
134.01
94.122
-31.521
-74.054
-126.89
-27.884
-68.269
-7.378
110.01
-79.692
26.676
25.817
-72.833
107.06
-13.632
36.158
16.583
-75.043
162.17
35.665
7.3957
-49.495
-59.049
15.993
-31.254
96.748
34.201
-140.64
-58.104
-21.688
34.114
141.68
17.889
-12.728
-34.358
-81.163
-20.601
-29.061
1.8826
-29.025
-58.528
75.05
193.22
2.0673
-65.52
-57.122
21.776
35.754
-77.777
-27.593
-9.3181
29.587
31.503
-87.16
21.661
65.994
-143.09
46.461
26.583
83.631
201.53
-56.841
-34.035
-41.702
-90.056
3.9291
-2.1221
48.055
107.71
-56.563
-101.62
-127.36
17.952
100.35
-18.563
97.025
-24.021
-27.392
24.812
-36.576
25.617
79.393
-102.52
-40.021
-17.316
-68.741
39.946
-41.055
59.898
6.7354
-107.5
105.36
89.303
43.136
28.578
-80.191
56.484
50.249
24.351
55.755
-179.34
-86.147
22
-9.7268
22.134
110.9
118.61
-125.15
-110.48
44.177
20.449
-1.0972
18.58
9.4453
-23.81
-69.864
26.89
16.894
-16.72
24.09
-25.929
-0.54922
18.017
-33.447
31.058
-17.529
9.4385
69.208
70.241
5.6741
-65.443
9.0219
-17.028
-91.047
2.0985
-42.131
-1.3773
7.1656
-39.465
42.01
-31.506
-9.4896
19.881
-47.601
42.476
-3.1478
10.107
37.52
-36.401
51.017
-0.1778
-5.6165
45.251
-36.916
39.139
12.122
-24.419
26.222
-31.485
31.119
35.434
-32.242
26.154
-11.175
-17.86
35.583
-36.948
-4.7139
35.026
-34.616
4.9786
-17.976
-14.538
70.452
-36.671
-19.145
-0.71925
-36.404
15.202
-1.9667
-27.056
28.16
-24.941
-3.7093
31.261
-24.583
26.187
-2.213
-24.972
42.479
-18.747
-1.0016
28.432
-35.892
29.34
5.1107
-29.025
45.186
-5.4559
-14.92
30.05
-34.824
10.982
17.94
-32.328
23.026
-6.7541
-14.808
28.449
-28.532
7.7741
16.268
-31.864
26.393
-8.7375
-19.271
26.87
-25.662
6.9274
19.221
-32.86
23.81
-18.905
10.275
76.212
-36.907
-16.878
3.2968
-39.829
9.1781
-5.3572
-32.051
32.995
-20.451
-7.228
31.711
-45.225
5.0166
30.017
-22.153
49.097
-1.4977
-16.144
13.174
-48.377
-31.12
168.9
86.798
13.409
-10.174
-63.705
-28.493
-59.315
-61.882
-62.711
-100.32
-50.169
170.39
59.401
-1.8079
-59.582
103.05
95.105
-199.58
49.893
26.694
-15.369
4.8267
-57.288
50.915
-40.902
-42.422
76.94
10.188
-26.053
18.056
-44.291
140.46
-1.0026
-70.298
31.325
-46.574
88.096
-30.955
8.1419
-54.296
-40.764
228.88
-152.23
-214.22
84.392
-106.1
68.204
21.002
-40.373
93.118
60.645
108.05
12.857
-205.34
-28.012
-46.79
15.79
66.584
17.241
82.612
-22.882
-36.585
105.9
-22.44
16.853
39.889
-70.919
62.851
-208.77
62.671
99.814
-147.17
15.018
47.576
75.791
131.91
-74.337
-105.9
-16.796
-13.696
130.47
-41.343
-100.82
56.359
-65.912
-7.0396
14.988
-107.67
127.77
-5.2737
-95.65
179.72
-17.979
-160.97
41.959
63.793
156.73
25.21
-99.141
-17.447
-30.097
-22.936
42.841
-42.837
92.287
-121.56
-137.55
129.98
-15.456
3.7227
47.013
-67.166
33.777
63.289
-90.647
67.932
0.99877
-15.953
50.813
-26.71
28.911
-106.88
-66.134
71.392
-45.472
-3.5223
100.23
-43.093
73.062
17.887
7.8593
80.156
-151.27
-38.493
92.149
14.473
167.51
40.161
-291.53
62.698
66.92
-45.922
-56.443
-102.66
5.4716
109.45
-75.282
7.6441
17.337
57.808
30.188
-53.155
30.925
34.49
27.117
63.428
-58.169
60.128
-77.522
-110.89
165.68
-50.107
-98.233
-48.957
-112.03
68.715
62.975
224.11
8.0928
-228.83
-31.216
4.7867
197.72
19.776
-197.16
24.618
-69.671
-49.104
97.598
8.5337
123.99
104.5
-193.71
-79.451
-140.71
68.708
67.728
-29.396
159.6
0.5091
53.554
-39.43
-18.298
23.847
-102.43
-5.7944
105.92
-62.177
-9.842
30.358
-4.401
14.463
-50.329
58.127
17.5
-24.883
80.604
26.271
-113.66
-0.024503
-132.6
40.463
104.41
31.007
10.866
-22.4
7.2188
13.618
-319.63
1.5935
116.61
87.409
4.1811
-94.734
204.53
-60.948
-10.087
65.165
-9.6065
80.637
29.036
-23.21
46.434
-134.66
26.864
-50.142
-18.645
-34.496
-47.011
100.82
27.327
-6.7781
-32.134
-73.543
29.147
16.922
-23.768
84.171
79.987
32.196
-89.3
-133.17
2.8383
-2.4686
13.714
40.827
-66.272
37.955
-41.232
-14.924
184.65
58.397
-25.401
83.579
17.873
-117.36
-124.93
-25.158
5.7759
-123.41
-3.309
14.199
19.305
-28.681
-39.517
166.12
-7.8278
93.852
39.134
-60.054
63.018
-104.26
-12.69
91.69
-32.053
13.686
-17.865
-106.59
-53.009
20.888
167.61
-9.8935
-98.671
41.563
-58.17
29.817
80.173
-46.143
33.507
-41.605
4.2792
75.78
-52.954
40.334
-52.794
-79.185
-6.8133
-75.974
49.198
-2.7609
94.766
104.01
27.51
66.784
-67.303
49.999
86.332
-160.58
-54.953
13.636
-48.69
55.452
-66.32
-22.031
-27.117
-55.341
45.462
18.853
143.92
-47.028
-248.13
34.404
-84.544
42.498
153.45
136.78
81.05
-81.108
-40.854
-88.609
-106.2
129.53
132.89
-33.431
-49.181
-98.008
2.2728
17.573
-20.043
59.453
-31.502
66.744
-52.314
-80.357
35.53
120.23
85.244
-30.875
-1.2922
-13.119
-53.07
44.086
81.718
-118.96
-18.438
6.0377
-22.427
135.52
-106.17
-58.42
-8.6872
-100.1
-5.118
-103.55
-40.807
129.73
-15.56
54.349
164.07
-4.8453
6.8448
-49.99
131.97
-8.7141
-183.18
57.432
90.854
-7.503
-182.51
-104.14
91.131
66.634
96.45
113.27
-181.95
-49.746
63.097
8.867
81.027
10.989
78.48
-85.703
-69.062
-1.0769
-81.067
81.984
-40.533
-84.194
-4.2056
-64.698
84.597
-1.7361
108.87
157.2
-16.63
-60.856
-140.92
211.85
-67.374
-144.43
-42.418
45.59
190.69
56.087
-218.48
-101.77
-137.07
-72.554
200.1
100.55
256.67
29.876
-126.1
-103.83
-199.94
41.152
-64.861
65.969
57.9
42.47
210.08
-124.41
-41.861
79.509
55.799
13.096
-90.064
-10.974
-165.87
-33.073
109.22
-30.957
81.954
-64.898
-62.729
77.165
-16.378
52.32
-66.91
54.187
139.23
47.336
-63.876
-170.52
29.792
115.22
-146.88
56.27
-32.782
-45.524
65.82
-64.811
-60.526
-224.11
230.96
262.45
-95.708
-95.58
-231.8
39.47
231.81
113.02
25.495
-88.991
-58.299
-78.673
-73.592
79.198
-22.988
88.687
8.1941
1.3819
132.17
-23.785
-42.858
-75.786
32.804
145.49
26.35
-19.743
-35.148
41.845
-59.326
-129.45
32.102
2.312
-28.169
-101.79
-118.31
87.421
-51.937
32.411
215.19
105.33
17.521
-74.875
-114.31
-32.533
-19.977
25.993
7.4887
105.06
140.83
-69.708
-51.817
-240.99
-71.397
75.432
12.846
204.9
20.507
-87.817
-3.3965
53.515
151.29
-23.469
-18.558
-132.96
-58.122
148.95
-53.555
-15.77
-19.513
-53.333
141.76
-142.92
-128.32
90.961
90.561
9.2066
-62.556
41.952
5.206
-60.816
-9.7767
-45.69
-48.176
158.94
36.929
-84.183
124.39
-91.083
-33.919
21.779
-38.318
109.86
-43.002
-60.864
-19.74
13.3
79.148
-41.082
-35.293
39.198
-46.54
96.972
72.934
-75.77
108.92
-68.419
-144.57
42.617
124
45.853
-217.02
-43.115
149.98
-4.2745
113.37
-143.53
-87.715
217.69
-172.11
2.0475
91.054
-38.819
0.2662
-120.54
2.1816
128.42
-119.08
-57.725
-13.237
127.03
190.51
-174.88
13.709
-33.854
57.637
119.55
-188.22
-9.5962
-166.32
22.373
243.96
-38.289
66.436
-21.319
-14.227
45.384
-95.353
-31.208
-64.395
-65.608
85.306
62.921
217.52
-9.5245
-117.5
139.69
-72.568
-85.559
127.65
23.164
-16.595
-145.38
-46.646
110.97
-62.808
-26.869
-23.882
-132.78
38.402
-3.1242
-30.314
61.052
37.897
160.92
4.2012
-110.48
-101.83
-8.1021
69.608
-61.441
20.946
169.97
-68.703
-17.605
-80.992
8.902
152.49
-20.821
-8.2404
34.111
-185.19
-24.28
-63.168
8.8248
80.074
-40.773
91.133
89.683
77.077
116.48
-152.5
-42.878
51.329
-80.352
130.07
50.443
-151.07
9.9268
-68.867
-10.252
-65.495
-81.756
171.53
-91.076
-108.38
98.826
20.342
153.99
24.515
-74.636
153.16
-51.463
88.542
-65.678
-136.51
106.74
-63.701
-27.699
-89.368
-140.82
78.919
-60.12
24.166
159.19
142.85
197.62
-229.11
-157.58
99.342
-65.063
-26.892
55.45
-116.49
-249.19
7.2154
199.14
98.363
-34.041
127.02
-34.635
153.77
104.64
-131.17
12.649
-97.661
-38.705
34.307
-52.854
42.154
-136.3
9.5608
11.577
-7.5189
145.72
-48.999
-12.335
79.233
-36.995
63.181
-43.438
-11.191
52.912
-142.8
-45.896
107.21
-21.96
41.267
-145.95
21.198
137.37
-53.916
57.799
-56.239
-57.44
92.726
-72.581
148.18
-57.486
-190.11
146.43
-38.887
54.915
-92.466
-43.688
203.1
-116.17
-5.1051
16.785
-61.799
4.9274
-0.32197
83.41
-36.822
-21.706
8.0588
-128.67
45.898
201.72
-136.63
46.847
-119.64
-70.481
53.467
-45.424
96.101
113.13
144.48
69.726
-98.907
-111.87
-101.66
95.692
5.1436
-121.17
100.65
-5.1928
171.76
11.234
-192.77
60.246
11.459
56.218
-80.317
-162.9
88.433
69.06
73.394
-63.863
-6.3205
55.927
-39.958
18.849
-105.74
-83.729
81.045
-64.652
41.765
111.12
1.2718
-26.966
-73.845
12.913
114.23
11.21
-93.142
-201.06
14.492
-23.94
-79.691
203.06
137.48
80.529
100.74
-159.13
-29.23
-39.697
21.359
82.595
-63.574
131.36
-84.605
-204.57
-9.5741
-116.93
250.47
179.84
-62.104
-31.83
-227.15
47.654
40.639
-85.35
131.59
-210.04
-11.676
150.65
41.867
120.35
-103.45
-43.504
150.28
-4.265
50.699
-110.85
-113.64
147.02
1.2472
-2.981
-34.019
-20.277
26.715
10.011
170.06
-270.97
-25.589
133.94
-38.7
7.6636
-11.339
44.649
3.3825
-165.6
-21.806
79.705
-28.015
-49.853
-1.1373
95.333
75.61
-44.668
49.171
-112.32
216.11
131.23
-213.89
1.802
14.785
-120.27
25.403
24.9
-42.447
-78.671
27.215
58.142
-199.46
64.399
-20.334
15.565
121.51
36.54
62.123
-2.5546
75.253
-2.7742
-220.92
118.17
-5.2474
65.881
52.313
-193.37
39.967
-94.704
-96.52
191.24
264.93
68.095
-284.29
-156.06
-60.088
14.255
138.11
232.02
3.0232
-35.207
-162.38
-185.41
163.85
-78.889
-19.438
5.6245
-38.164
134.84
-123.4
8.0284
155.8
-33.876
-62.712
77.288
211.19
-147.07
-167.77
276.18
-162.42
-182.75
83.381
44.638
153.1
-92.81
110.16
62.958
-182.99
86.866
-104.99
-38.715
76.935
-44.168
-14.008
-100.52
71.772
-3.5786
-56.485
199.96
-7.201
-88.738
1.4868
-86.413
153.49
60.897
6.9103
-4.9729
-151.63
27.886
-19.752
57.432
67.8
-91.456
-36.635
-185.14
-89.528
121.55
28.53
186.94
83.783
-31.086
29.836
-37.75
75.317
-155.06
-151.17
37.255
-53.348
100.01
2.2318
40.194
51.424
-41.495
150.14
24.414
-136.8
74.59
-60.513
15.226
93.08
-34.897
9.6448
-126.11
-11.858
-27.105
-124.36
62.56
54.622
-15.365
76.662
4.8207
227.97
-2.9316
-300.54
-55.021
-69.109
20.339
122.09
-14.97
47.202
-120.32
-57.008
39.157
-56.756
135.83
62.504
131.2
-79.799
-209.66
97.489
62.933
72.714
63.323
-70.394
10.117
-24.923
80.548
18.294
-156.36
27.013
-23.397
-23.141
79.523
-142.23
-17.238
86.962
61.925
115.94
1.9518
-35.348
-127.51
-163.26
105.96
17.681
-21.307
-14.52
-155.47
36.67
40
23.725
101.3
-67.581
45.505
40.61
-38.413
102.43
36.822
121.39
-35.097
-107.64
66.11
-64.603
73.595
-115.79
-125.42
8.5336
-145.79
68.539
18.959
28.431
271.97
10.215
-77.631
-69.601
150.93
43.99
-152.96
-32.296
-4.2312
-124.52
12.136
-31.39
41.508
-1.1417
-31.945
69.071
41.582
102.99
-31.2
63.587
1.0504
-81.704
-30.174
-12.039
21.043
140.37
-103.59
24.666
-42.007
-183.5
66.192
-109.83
13.122
47.957
-44.939
149.29
166.83
137.39
-118.19
-200.81
100.81
-40.896
-75.194
55.158
-153.07
-6.2443
114.9
-10.827
41.147
-149.14
76.446
122.15
-101.77
114.51
-119.57
-14.329
105.42
50.615
156.78
-158.71
-177.82
191.55
-138.99
-53.388
-17.816
-65.571
115.85
3.7672
63.917
15.22
-105.2
84.605
-15.816
-40.93
16.459
-68.123
86.584
-39.465
52.896
119.61
-100.95
55.811
-0.54504
33.724
-4.468
-152.97
37.638
3.2256
6.22
57.263
-29.395
145.44
6.3755
-124.07
47.465
-39.983
0.23652
-72.224
-90.581
159.62
8.294
-22.244
13.612
-63.735
69.11
-146.18
-42.589
11.894
34.525
197.24
-139.2
4.8249
63.412
0.12169
-11.358
-47.503
87.48
55.624
-80.094
49.804
-47.971
-43.085
-5.3634
76.504
-2.2638
-262.27
-48.202
-48.317
181.62
43.852
-10.917
152.12
79.688
-29.118
-79.41
-65.398
43.835
-124.53
-35.743
116.16
-50.563
126.25
-90.71
15.378
150.19
-89.114
-28.509
-42.327
11.796
27.388
-70.804
-28.858
-72.441
-125.56
212.43
160.53
-33.196
-38.012
78.119
111.09
-222.08
-38.446
66.987
-130.8
117.33
79.421
-21.362
-79.427
-141.67
28.983
9.8991
-16.416
209.03
65.502
78.248
-21.402
-59.264
46.503
-175.26
-28.472
118.42
-126.24
-65.293
-69.523
64.901
289.14
-35.627
-110.86
-98.697
-11.749
164.82
-58.303
6.2484
20.135
-63.68
-29.551
-120.86
56.027
69.466
30.655
124.38
-177.62
-68.403
84.305
-26.441
57.77
-58.959
32.544
153.43
12.914
12.793
-74.272
-59.44
-14.944
-83.611
78.165
18.155
50.005
172.19
-140
-49.236
-2.1051
-99.297
-18.52
-147.34
38.068
49.255
-9.809
118.45
100.04
104.94
-40.197
-141.39
16.641
-82.47
-70.151
55.479
-21.21
90.285
79.399
20.633
-11.238
-61.267
38.624
49.588
-70.625
52.025
87.121
-49.609
-55.545
25.766
8.985
-98.926
9.8352
92.968
-50.179
-48.766
26.007
-26.698
79.141
-79.478
-176.34
-51.586
-49.956
126.26
43.671
122.44
69.584
-147.27
78.782
-2.639
-16.913
10.098
-67.276
133.19
-84.335
-100.4
171.17
-67.469
48.052
82.882
-79.247
0.67092
-134.77
94.496
-46.268
-134.53
73.539
-63.465
-7.8257
47.678
92.851
72.917
-15.246
74.774
23.309
-42.036
-2.118
-59.626
10.085
27.904
-109.64
-1.0514
-81.158
60.253
96.539
-56.205
10.874
-27.799
31.371
40.073
-12.585
118.25
-75.316
-96.147
36.776
-50.413
44.466
50.174
108.48
0.57758
-225.66
4.0498
0.7467
27.098
42.284
-76.612
35.535
-89.304
39.205
69.025
-34.331
122.16
22.163
-31.479
-25.692
-119.39
52.396
5.3418
73.591
123.92
56.608
25.209
-134.33
32.067
-14.12
-167.64
124.76
-57.892
8.7354
57.295
-129.08
91.105
-11.12
-72.925
69.009
-208.77
-10.13
138.42
82.69
47.509
-140.29
-55.767
-1.2678
-15.95
92.052
-98.472
-10.619
30.203
7.885
167.29
-19.805
52.894
-21.971
-213.12
17.335
107.62
96.812
-23.587
-117.88
16.922
64.913
-45.807
-37.216
-35.097
197.33
-30.93
-61.517
101.93
-90.48
-126.49
-132.8
-3.5599
168.61
2.6248
77.956
1.9427
-30.501
112.31
-84.078
-60.441
-32.411
67.635
89.739
-98.758
39.174
-50.428
-31.619
58.563
-26.426
55.972
-31.493
-2.7659
21.859
-30.478
57.096
-12.187
18.098
33.4
-15.963
35.266
-26.349
6.2644
18.339
-15.478
26.304
-16.634
7.6508
-0.84163
0.32703
237.36
212.17
8.3376
-193.64
-240.25
-92.435
-146.04
-10.014
26.044
-27.848
43.602
-33.3
53.47
161.87
140.59
-96.017
52.111
129.7
-194.73
-213.89
-30.254
-39.343
83.483
-10.972
-28.119
-14.436
-54.939
70.437
-29.624
32.328
22.146
-17.754
62.947
-34.193
40.598
18.417
-29.879
46.639
-30.932
30.121
22.191
-25.185
45.551
-44.22
-8.4748
-30.577
-77.235
119.84
-31.529
-18.599
40.141
-28.285
40.49
-23.314
0.0085294
44.927
-34.056
44.621
-6.7117
-18.226
35.279
-43.098
62.448
54.192
-3.9368
80.037
-73.501
-23.509
-93.107
-81.085
64.389
-39.057
46.484
117.61
47.368
39.782
-117.22
27.891
-82.325
-58.66
4.7673
-170.21
94.185
99.555
10.868
37.449
-92.251
-34.313
2.7869
-39.25
118.01
62.551
2.2153
85.475
-27.611
-33.545
-75.204
-93.394
40.102
23.786
23.769
-57.482
35.593
-29.396
-41.733
102.2
34.712
-18.006
-81.813
-64.044
66.68
-7.3411
9.807
-41.298
-10.694
35.078
-45.133
95.975
68.727
-102.21
-19.381
-36.347
55.585
83.821
41.435
-10.562
-83.228
27.469
14.526
-94.781
23.694
10.822
105.69
-22.63
-30.332
108.98
-126.23
-64.767
-19.698
-101.66
89.82
120.05
50.723
76.95
-191.5
-43.213
66.907
-23.056
34.863
-90.287
44.578
73.013
14.924
170.65
-287.13
-125.22
92.164
-21.314
76.529
-39.84
-34.044
154.91
10.735
39.47
-87.494
-61.496
59.706
-43.301
54.023
60.602
-7.9863
99.89
67.137
-63.304
-86.123
-128.57
31.802
12.601
-59.823
70.175
-7.3645
52.266
238.74
-118.7
-74.331
-87.326
-58.844
119.49
-115.52
-13.407
82.326
-86.861
7.3829
-79.92
-5.2991
95.058
-31.627
57.07
28.997
36.206
94.567
-104.15
-26.719
-28.015
-78.021
74.944
-17.261
56.163
54.14
-44.857
101
9.4659
-65.487
6.7314
-85.045
-45.986
62.955
-27.749
46.518
-49.529
-31.014
87.617
-9.1639
37.934
-47.926
-101.62
94.651
21.099
16.204
-17.004
-139.99
80.523
39.648
11.995
74.167
-113.18
-15.203
-118.78
-10.783
41.401
12.842
78.957
-42.094
14.301
118.04
21.695
-22.012
42.509
28.462
-48.488
-90.675
99.55
69.658
-37.282
28.992
-42.759
-16.226
-38.235
-83.286
-5.411
-85.848
85.254
22.211
56.37
133.4
-126.77
-48.511
-61.077
-47.977
52.882
41.942
79.023
-113.68
-116.57
42.871
42.7
118.41
105.53
-15.276
-9.4388
-103.03
-97.135
144.69
-46.561
-150.05
-17.845
-21.218
163.37
50.767
31.349
58.365
-176.04
-39.021
-61.762
-28.102
84.63
-20.423
40.306
-16.558
-29.574
42.59
-4.9591
57.884
4.5929
-51.49
90.718
-45.881
-22.943
70.034
1.0578
88.238
-15.895
-22.718
139.71
-87.564
-119.64
21.428
-40.064
60.688
-17.008
-10.149
67.022
35.896
-20.54
-82.977
-33.201
121.52
-5.8593
-44.773
3.5821
-70.223
42.139
51.198
89.609
-21.802
-82.893
88.274
-95.707
-158.35
165.97
-102.35
-35.082
7.5817
-12.813
97.637
-177.56
-9.0609
147.83
7.471
35.833
38.56
6.1556
-101.38
-186.02
43.231
47.716
-92.244
146.91
-32.933
-6.9589
50.119
-87.449
55.266
19.863
71.167
183.68
-50.981
-25.959
5.1483
-96.243
91.148
-25.218
14.767
18.877
-60.914
1.2885
-103.09
8.0166
124.84
5.4905
-31.065
-18.409
57.68
-39.155
-115.11
11.524
16.885
-29.338
79.478
-22.078
-2.6968
13.032
-112.43
12.48
53.53
-18.689
-14.805
-84.878
24.046
107.45
36.043
95.602
-67.492
-12.3
-51.48
-80.704
98.267
-12.38
-112.29
17.434
52.46
159.49
-13.838
-105.62
109.8
-47.708
48.43
9.9786
39.715
-44.343
-226.8
-14.537
6.6486
42.889
248.83
-29.076
-137.01
-30.406
-46.164
70.496
-27.591
55.293
23.341
-46.603
108.52
-111.87
-110.86
84.857
86.582
-0.5033
5.4993
-14.722
60.691
77.023
-49.462
-57.328
-153.65
-46.564
-134.48
10.068
157.12
17.578
177.45
101.18
-52.88
-56.145
24.98
63.03
-24.457
-40.252
42.48
-228.77
-75.029
25.017
-64.119
149.13
59.033
26.027
-0.89547
-142.12
116.78
-78.966
-11.915
212.83
-58.077
-46.866
-61.801
-98.826
18.239
-75.999
129.12
-0.64634
-61.013
0.093092
-41.579
220.14
13.324
-83.549
66.741
-77.118
43.171
17.762
-24.467
84.56
-46.891
29.522
21.256
-54.509
46.894
-54.072
16.022
46.941
-57.095
40.081
-90.209
-41.475
27.58
-60.526
82.964
15.43
1.2464
28.313
-87.382
64.361
16.121
-26.195
74.443
-63.779
0.72752
-1.8487
-64.002
47.367
-60.267
40.082
19.978
-67.724
83.773
104.71
98.191
-0.035475
-54.114
-15.224
-82.986
1.5531
-130.07
-203.88
82.787
5.3923
9.5243
124.37
26.382
36.01
-39.133
-136.63
75.938
38.404
88.199
132.3
-23.652
-180.48
-78.504
25.033
120.37
-78.537
-2.0947
-93.518
80.683
-5.8804
-81.081
144.36
-46.242
-33.584
59.125
-70.671
18.818
-60.06
56.495
178.23
-73.416
45.463
53.489
-116.72
-61.431
-74.147
107.71
26.294
-55.681
91.447
3.0766
156.7
-137.39
-248.88
151.55
-47.014
-83.81
69.443
-32.103
46.501
64.19
-14.557
121.1
36.062
-8.161
-117.69
52.315
48.613
-253.95
5.6028
-39.271
-19.328
51.08
-130.05
100.74
14.079
36.665
115.75
-35.171
102.36
26.171
-37.139
72.323
-5.7478
109.98
-17.385
-133.4
37.472
-87.571
-7.25
53.41
-71
110.43
-5.6971
20.73
-16.592
-61.327
37.076
-151.04
-80.757
141.02
-19.782
-80.251
-20.491
28.854
198
14.962
-70.645
75.032
-143.01
71.596
-113.94
-140.52
122.5
-39.436
94.999
22.228
-83.227
158.32
-141.12
1.5131
36.91
-92.223
15.049
-79.53
19.766
240.73
-70.434
-49.116
20.797
144.81
-8.3936
-189.64
52.906
72.664
-19.522
82.348
-123.06
27.126
-20.248
-97.239
107.16
43.21
-106.2
100.75
-3.6457
30.247
56.622
-156.73
-8.957
-5.4195
20.034
-45.699
-112.3
71.824
-40.923
114.28
163.16
-102.47
54.544
-52.31
-5.3403
213.05
-169.13
-121.27
-8.8161
-41.331
61.166
-3.0633
36.419
218.53
54.449
-129.35
-108.61
-70.384
56.097
-57.798
12.565
-10.267
-98.247
132.71
-30.83
33.411
99.062
-82.304
9.9457
-17.98
-61.723
-6.1049
-151.08
91.343
27.088
146.87
74.223
-47.27
66.246
-149.04
-32.645
32.071
105
116.03
-181.55
-58.95
-65.047
-10.008
184.28
61.14
-8.1753
-83.627
-9.7081
-132.96
-67.378
124.64
23.709
45.772
-35.178
38.551
59.554
-133.63
123.46
-89.388
-33.092
15.911
-55.467
50.681
-89.318
62.885
22.342
-5.6652
35.807
-32.914
119.04
-31.732
21.262
-146.6
-55.561
61.385
-104
82.039
125.97
85.464
-0.67131
-126.68
17.147
-39.647
17.214
91.696
-58.093
51.849
-21.83
60.181
53.456
-137.59
-3.4184
-53.244
-115.09
8.2935
-42.146
64.849
105.77
111.9
68.504
-15.617
-40.934
-115.99
9.6506
-49.788
-121.85
75.905
44.533
-20.877
96.361
-155.42
35.342
31.26
-101.68
105.1
-61.263
113.27
24.489
-16.471
237.03
-260.22
-93.474
35.624
97.095
35.697
-161.97
56.751
-7.473
85.669
90.39
-158.94
-39.725
9.9632
46.977
78.405
45.809
59.8
-111.25
-105.68
143.74
69.681
-69.467
-126.97
-81.561
99.117
68.748
-0.75496
-160.84
-153.09
37.312
29.001
149.57
78.757
17.305
165.24
-150.95
-90.198
42.628
-25.627
97.395
-88.518
-74.342
5.9776
-12.02
74.717
-26.257
-33.715
12.288
-34.727
68.544
-19.465
0.014113
93.932
-16.491
25.362
-39.622
28.541
140.37
-33.846
-34.246
-42.302
-38.708
-73.273
-94.077
53.584
-11.339
12.911
8.9343
-52.438
63.866
11.267
16.567
180.99
-22.427
-39.502
-78.777
-70.346
89.376
5.4685
1.2838
-80.831
-69.75
240.11
-74.355
-135.74
88.766
57.196
45.274
-91.884
-58.588
88.829
-94.349
-20.394
-49.962
-18.516
104.34
27.457
-6.3047
-137.43
-22.83
-13.908
25.319
169.93
107.57
74.133
-118.06
-29.281
80.81
-88.563
-19.906
-99.045
17.002
-6.9492
-25.138
97.179
38.97
-42.832
-60.564
42.814
83.049
-166.05
15.089
-134.23
23.814
92.075
-17.083
211.4
-63.691
22.101
-33.956
-30.619
35.173
-121.74
78.851
133.64
-85.024
-112.08
-57.171
85.904
82.876
118.82
-17.386
-128.39
12.598
114.34
53.09
-100.97
-118.05
-11.365
-15.21
163.19
52.436
-136.66
-6.7656
-23.027
35.498
-7.3944
4.2634
122.19
-89.281
-62.759
-17.552
39.628
-12.092
-111.1
-23.238
44.989
14.671
64.922
-92.663
-6.9826
42.336
-64.098
166.07
3.7755
-71.528
-63.752
-12.563
131.66
49.075
77.056
-146.95
-1.501
122.82
-90.953
-33.549
-28.896
-4.5116
-11.141
-112.11
131.36
0.28973
-101.71
66.917
-24.994
64.599
-2.9204
-6.6754
20.051
-42.06
58.358
-8.5596
25.365
96.004
-121.21
67.771
-20.002
-74.155
25.728
13.506
49.581
2.2149
-1.6501
-27.734
-42.568
-4.5564
2.0906
19.718
-15.063
-58.708
73.28
22.062
-76.387
-42.996
-95.123
129.27
36.151
-22.606
115.36
-47.358
-28.532
-19.058
1.0945
164.98
-4.9102
-93.189
-58.283
-82.713
58.746
12.022
42.087
-34.272
-90.882
151.59
-95.898
-122.43
56.504
-27.514
160.66
59.32
-75.265
139.18
-53.396
-87.619
6.0771
16.138
108.5
-19.566
-128.61
-10.341
-29.529
92.64
15.303
-137.05
60.006
-74.14
63.908
95.408
-48.854
-15.896
-28.351
-29.304
42.801
-76.367
60.262
91.132
-41.53
118.13
-37.234
-34.807
9.0049
-57.215
51.803
-92.256
-88.661
66.81
-9.7985
63.391
36.707
-6.319
87.99
17.388
-190.25
-37.063
-127.25
228.21
7.7671
-52.103
75.971
-54.344
91.887
-32.299
-57.97
-17.522
-60.894
117.52
-101.36
-62.656
106.23
-65.311
64.003
-57.623
78.988
108.64
-32.135
180.5
-110.98
-88.211
-29.101
-110.66
67.154
42.763
18.261
64.333
-55.513
21.887
-15.269
-37.043
-69.721
-53.601
47.84
59.592
-53.167
46.104
-103.27
-21.107
-38.395
-18.678
132.59
158.2
164.85
-85.048
-150.23
-7.551
-95.411
84.905
2.9624
-35.892
24.716
-95.122
-5.7295
-70.394
-57.108
118.18
70.924
94.081
52.552
-106.71
-2.7702
-5.8862
56.69
78.432
-69.536
4.6831
-65.301
-26.941
7.9974
-41.395
144.68
-22.236
-41.455
56.848
-103.23
66.527
-5.8896
-6.4901
31.637
-115.7
4.8603
46.741
-47.957
9.6277
10.987
12.229
50.325
-36.758
19.501
-26.906
-33.787
58.69
-126.94
-28.01
80.301
20.679
63.688
46.604
100.86
-39.337
-149.42
25.648
14.261
-12.51
77.138
14.409
24.695
-28.706
-57.339
-13.576
0.45829
28.003
72.857
-220.58
-75.432
91.601
-3.1938
80.945
-1.3967
22.527
13.994
-61.112
-0.16912
-2.2154
28.61
48.466
-16.887
99.372
-41.478
-136.35
-27.776
1.084
61.83
-42.684
23.252
4.7417
-47.612
70.524
25.237
-87.961
74.598
2.9106
39.182
1.325
-62.847
14.828
-19.711
57.626
37.171
-51.7
5.0861
-39.469
9.2349
24.403
-35.477
-40.045
-51.523
110.77
-7.8284
-38.512
-22.466
-64.058
54.696
23.405
-8.4481
56.312
-144.52
39.747
74.296
52.065
13.261
-38.193
90.579
-35.578
27.498
22.724
-143.71
0.60594
-22.338
8.5978
50.356
-5.8353
13.363
-135.68
104.43
184.1
-27.396
-98.953
-82.512
-25.383
23.641
45.343
10.263
39.777
-16.933
-14.509
-24.404
23.947
-27.398
-43.71
45.389
-19.718
11.463
76.762
-34.029
24.767
-15.196
-48.597
2.2735
-64.418
56.793
35.294
18.829
14.279
-96.185
79.816
61.838
76.276
-53.283
-90.669
15.327
-52.673
-99.609
95.121
35.931
113.9
8.0837
-42.254
-38.195
-42.531
-143.01
9.8935
8.007
24.967
47.563
12.51
4.7354
6.567
162.39
62.521
-91.969
-52.052
-32.414
-76.006
26.447
-56.327
-1.5932
-76.831
-24.096
37.043
-30.612
73.427
-71.14
1.5114
94.51
-34.567
96.591
5.6966
-5.1037
84.838
-9.4018
52.03
-40.014
-110.36
63.897
-7.711
33.17
18.44
-132.22
55.44
-8.5877
-44.419
91.321
19.412
-50.278
-33.822
7.5367
91.127
-88.19
19.026
92.033
-24.799
-62.751
-57.016
64.082
13.121
51.882
111.64
-115.06
-137.75
-21.253
-22.134
63.591
11.829
11.31
95.963
-43.987
-58.835
-28.203
37.527
105.89
-67.962
-112.89
15.209
-142.56
89.225
58.021
-24.888
71.053
51.484
-5.9856
-1.8526
74.581
-62.478
-29.881
77.421
-87.498
116.45
-29.45
-10.723
77.236
-81.268
-92.207
-69.737
49.602
42.582
-110.72
182.94
23.947
-51.26
-90.874
-115.75
74.129
-15.238
66.804
62.429
-12.307
-37.669
-134.22
21.784
92.272
104.64
121.72
-180.02
63.214
16.92
-61.814
36.999
-55.989
28.74
-29.002
44.893
-17.143
-21.333
8.7445
-91.729
-37.081
103.43
-40.987
78.696
-54.803
56.614
66.671
-187.49
54.3
41.505
-85.333
143.3
-65.98
109.58
-53.142
-17.518
-52.638
-74.151
102.83
0.14451
45.804
70.599
-61.893
-40.038
-5.358
2.1859
51.686
86.175
-70.763
-2.0658
17.852
-111.81
-19.603
-34.417
-4.0099
17.583
-57.086
21.065
38.326
32.065
31.915
-73.367
28.451
61.899
50.297
-28.791
-56.275
32.806
-60.229
19.823
-9.2072
3.0794
74.847
-35.38
76.322
-145.83
-123.1
73.602
2.5834
66.169
-20.448
14.985
15.896
-0.81002
52.16
-25.898
13.034
-9.657
-10.674
63.813
30.036
68.789
-59.854
-51.718
-33.998
-33.71
277.28
38.079
-181.13
31.754
-102.4
-4.5159
-49.986
-10.964
51.816
85.172
104.66
-101.23
-89.313
-31.673
-61.304
35.229
-25.238
-40.067
29.165
-53.517
-0.60123
15.821
21.06
42.632
-41.967
-101.71
-91.949
-167.82
19.666
-8.051
13.442
201.38
23.253
62.464
72.514
-14.093
88.904
-62.886
50.16
96.521
-27.246
39.856
-61.016
69.522
13.34
-121.91
-35.579
-128.01
64.5
-4.7549
38.845
117.59
1.7235
82.078
22.466
-127.75
122.96
56.148
55.677
-198.27
-268.1
186.41
101.98
88.77
-151.63
-182.62
-26.541
58.719
189.72
17.357
-92.309
-88.63
-180.01
30.579
-3.7812
30.051
123.3
-46.047
46.238
7.537
35.235
43.109
45.533
179.58
-71.086
-103.46
-86.737
-38.649
200.66
-4.205
63.44
-3.4884
-158.31
90.517
-57.694
-23.901
15.07
79.567
-57.153
-34.458
-61.137
-64.138
60.876
24.321
37.289
96.016
-61.09
44.617
-36.252
-153.89
-79.326
-116.57
68.082
111.28
101.6
-105.19
33.373
-124.29
93.738
176.88
-276.21
125.53
47.726
-12.733
-121.63
96.005
98.198
-93.087
52.024
-54.333
31.492
-11.988
35.026
56.613
-28.313
42.064
-6.3965
8.3054
-13.524
-43.591
77.441
-63.697
84.965
-86.227
-153.86
23.607
-54.138
47.688
72.164
-12.679
54.434
76.22
-35.914
-1.2093
75.64
73.42
-60.882
-23.174
-41.713
-0.8608
99.719
-68.701
7.8153
-101.35
-27.843
36.654
-53.639
108.11
-78.91
37.316
-12.544
-144.49
106.84
-121.77
38.654
30.926
-124.43
78.965
-41.241
-50.729
-14.077
77.35
205.12
-21.137
24.513
2.6453
-16.671
-29.539
-102.6
-14.634
76.3
28.129
41.296
30.209
33.289
-14.256
8.431
-13.533
-96.863
-75.446
-72.757
-57.56
0.65128
-34.188
179.59
35.577
41.602
-56.753
1.8755
109.19
-44.304
-48.863
-12.826
-60.757
119.98
-84.109
78.395
99.133
-8.3343
-31.62
52.578
112.59
-96.807
9.1438
-133.77
-129.91
103.06
-4.9654
65.915
-31.044
-2.118
-6.9553
-113.04
-7.4298
25.066
110.56
53.117
2.1756
-46.844
-46.13
-26.015
-175.08
15.158
19.834
47.845
185.2
5.3894
22.602
-102.74
-27.231
-3.9388
7.3259
116.56
-47.848
0.47371
14.523
-40.558
42.109
-8.4072
64.389
-29.813
-46.077
7.6192
-36.819
60.098
-35.34
-45.872
2.3521
-9.994
51.739
-9.4412
38.258
-21.007
-55.453
5.6295
-82.182
18.76
-55.492
-45.084
76.783
54.829
183.39
-53.141
-69.742
49.596
21.109
-0.33043
-120.66
29.326
41.267
67.649
80.21
-144.45
43.143
-50.354
-6.9957
115.44
-109.08
14.222
-45.85
-68.558
46.642
4.0349
29.94
-47.2
42.911
48.216
-112.08
107.29
-52.435
-36.093
41.542
-112.13
14.112
-87.718
-21.125
-4.9151
-1.1191
129.66
11.336
166.36
142.92
-137.58
99.416
-146.77
-93.013
1.2874
-2.4724
99.239
-79.715
87.166
-23.774
-113.48
54.187
99.702
-28.55
-8.3973
80.214
30.916
-123.42
-65.118
-35.156
-35.367
104.48
-14.599
27.895
-1.6317
-0.72887
67.405
-36.75
41.59
65.4
-1.223
-29.871
-97.72
35.906
-19.808
-50.92
31.978
6.9342
-38.792
-70.341
-13.215
37.55
34.557
16.809
12.458
57.552
29.937
-48.025
32.772
-136.78
48.334
111.45
-123.1
26.693
0.22585
75.198
-10.623
-110.99
10.033
-82.014
-57.486
21.026
27.694
158.59
0.90954
-74.302
-10.506
-35.315
73.815
0.92519
81.39
105.92
-72.545
44.605
-63.275
-91.984
7.7254
-59.442
42.266
124.08
-2.6234
72.739
-25.094
-113.3
-58.018
-84.137
-16.306
31.967
149.07
-26.934
-88.209
23.096
27.341
-105.17
84.115
79.701
-137.49
73.757
-107.4
-47.851
97.278
88.342
51.624
-18.708
-117.35
-49.883
-1.8284
113.44
27.701
-66.489
88.451
-41.106
41.315
49.043
-63.809
30.244
-11.123
-43.439
83.069
-42.141
-6.0988
63.982
47.245
-1.2956
-207.88
-46.048
117.95
30.312
-56.528
-63.291
143.88
29.898
-134.95
46.209
-44.286
-77.088
67.679
-4.75
75.944
14.277
-86.29
5.2651
-53.778
1.6497
94.681
-35.291
100.06
58.129
-46.297
55.038
-50.217
-189.13
132.95
12.98
-106.31
-101.85
25.245
121.73
68.043
74.354
-120.17
-100.56
90.1
-7.0905
-36.678
39.984
-30.489
58.491
6.2461
22.889
25.254
-60.914
1.2325
-107.6
-31.966
78.237
53.374
112.78
9.2808
-93.955
-82.853
-120.62
31.418
61.025
88.782
107.76
-34.822
82.278
-105.8
20.12
79.009
-104.69
-51.598
21.543
53.877
-1.0346
-84.067
25.76
-61.84
-23.644
33.876
65.9
67.026
-62.818
-52.356
-44.775
-43.937
151.76
51.582
-93.93
-56.329
-119.76
14.244
33.146
14.478
106.5
9.108
72.502
-65.202
-82.817
63.853
-54.783
105.78
-9.6706
-6.2648
-40.755
-30.964
46.055
108.61
46.388
-43.035
18.87
9.402
-92.177
-171.43
25.046
-18.762
-32.867
-0.68287
109.39
122.72
-123.46
27.155
26.423
-1.2606
21.713
-92.023
58.199
43.463
-15.05
68.801
-91.974
3.1012
33.05
-53.578
46.343
-3.0951
94.672
-41.586
-130.65
49.146
-72.826
34.741
1.1678
-96.389
70.482
43.04
-40.722
36.59
-94.574
159.3
-29.412
45.96
25.925
-67.332
-4.6003
-89.974
123.26
16.825
-121.48
57.918
16.358
72.005
50.295
-54.059
-29.863
-36.238
-42.004
-66.058
-1.577
56.563
-22.273
29.07
22.596
45.776
122.02
-66.05
-150.36
-33.616
-16.13
59.046
-42.101
-44.512
65.132
40.948
133.76
-56.621
-33.782
24.076
-62.271
-31.445
-51.504
47.951
148.7
-41.046
-55.661
30.89
42.466
19.752
-54.496
0.065168
-44.908
40.893
37.392
-66.324
40.224
38.704
-8.7593
-29.607
-177.17
94.694
126.56
-62.476
-12.126
-20.684
-122.62
-23.514
73.007
-23.509
-80.14
15.717
-77.691
158.41
170.31
-42.339
-71.223
-83.448
143.24
27.427
60.058
-27.141
-154.79
141.2
60.625
-42.303
-106.11
-83.797
157.82
-4.3845
21.992
-48.575
-105.51
159.71
-27.232
-98.908
-44.222
-0.86824
146.17
14.986
-68.119
-66.686
-6.1485
56.512
4.7372
111.8
26.279
-20.691
-75.3
-90.41
120.9
-22.966
-2.7705
56.924
-79.308
49.445
-144.6
-91.995
21.956
23.041
158.03
1.0072
-57.447
64.709
22.997
58.818
-25.227
-18.767
-34.162
-115.68
48.105
27.507
38.294
1.9134
-49.094
44.579
15.488
-71.168
1.2105
-39.122
50.577
17.939
-39.608
12.656
-167.68
10.196
119.36
0.28493
62.906
41.863
1.5557
91.968
-8.4916
-141.62
-21.974
6.9623
-53.823
64.177
46.132
-32.02
73.364
-88.998
18.034
9.7329
-72.692
-18.157
-60.039
47.944
138.37
-74.61
-71.871
-31.465
48.447
-0.32736
-128.19
86.469
52.576
-15.112
102.01
51.856
76.928
-53.882
-35.764
48.622
30.459
31.056
-135.82
-80.484
8.5221
27.3
56.517
-23.939
-76.302
143.5
-47.889
-81.987
-25.814
-131.19
53.383
21.487
68.503
88.88
12.769
-12.699
59.062
-38.513
-84.833
-118.82
47.904
145.78
-64.195
55.045
-43.955
-64.605
70.645
44.658
13.513
26.901
-75.357
-27.763
-63.739
33.767
-83.254
-42.105
159.75
-30.862
32.693
13.767
-27.299
58.691
-61.332
31.801
29.913
3.834
29.538
-30.099
67.232
45.431
-38.537
63.563
-100.85
-172.86
16.685
-64.056
67.805
40.47
-44.578
72.685
-28.788
26.149
36.708
-42.39
58.062
-62.85
-63.885
143.97
48.893
-90.71
-44.516
123.33
-35.687
-185.78
-33.498
16.916
76.752
8.0981
-11.788
168.37
-1.0154
-19.233
-50.401
-46.701
6.0931
-163.42
33.732
11.157
-57.229
65.715
-10.141
70.293
-35.076
32.614
71.311
-10.225
55.897
-38.9
82.619
64.388
-32.111
-7.3974
-36.82
29.749
-13.26
13.957
14.242
-58.339
12.325
-14.656
-8.1412
-3.5501
-1.3323
41.13
111.05
9.8728
-77.926
-78.739
29.577
-9.9335
147.24
33.039
-124.17
-48.297
-164.25
164.97
86.81
-82.553
50.286
-97.174
-98.132
-72.029
30.278
-39.224
-110.34
22.901
-18.809
31.253
115.68
-36.803
18.915
-63.474
9.0281
68.364
-24.582
92.528
-50.678
62.953
11.627
-23.165
82.57
-29.868
79.956
-7.3346
-70.755
46.387
-29.404
35.727
-27.923
-46.557
76.51
-43.378
185.85
-19.247
-247.23
109.53
-94.224
1.2172
-84.209
-190.63
123.15
26.165
56.511
32.99
-7.1218
92.396
-62.418
24.19
52.807
-49.882
63.956
-61.025
3.8045
27.219
-43.095
91.871
-70.274
-20.517
58.777
-88.326
72.599
31.253
18.171
27.096
-99.018
11.073
-44.888
-27.593
80.814
-60.149
146.92
-46.307
-145.79
113.56
36.214
-53.107
-52.01
72.088
21.794
-37.751
22.84
-128.75
30.04
1.3507
-6.6958
45.985
-70.293
72.692
-28.428
13.697
53.652
-2.2702
106.9
-61.048
7.0592
-12.673
-95.142
104.32
-26.601
8.686
6.7191
-85.561
-0.5363
-65.286
94.359
2.5278
-26.193
-5.49
-62.584
61.326
-46.981
28.895
46.969
-11.474
75.238
-43.357
149.41
14.989
-132.44
-50.636
-83.942
101.39
17.151
-23.942
-18.044
-51.123
79.727
-75.318
-4.0487
27.869
8.3626
115.93
-69.313
-4.2458
93.963
-123.18
-15.247
-123.12
30.477
121.85
-35.236
90.18
-110.9
-48.395
24.525
-67.272
104.62
-13.988
-0.66554
67.566
-80.902
11.861
-16.79
-21.416
100.85
-15.686
79.289
74.855
148.76
183.56
-304.66
-165.52
-112.58
-213.93
86.039
36.984
108.74
41.013
-68.9
144.64
-18.513
-12.206
8.0701
-86.401
76.164
-9.102
18.376
32.132
-90.735
70.511
38.186
38.167
22.546
-43.707
1.5087
-67.295
-52.589
59.966
-102.33
43.672
49.756
-48.183
114.8
-73.016
1.407
28.864
-95.195
70.598
0.60018
5.3632
49.801
-128.56
-14.82
24.853
-46.836
46.693
-96.046
20.376
61.245
-55.374
95.836
-31.053
6.5415
68.028
-67.156
75.209
-16.501
-22.575
77.396
-75.486
43.84
24.013
-46.969
83.526
-56.441
-6.1494
39.305
-75.268
69.023
-4.2508
-46.777
79.65
-46.669
10.242
27.615
-76.752
51.219
40.275
-39.044
78.234
-61.622
-55.455
19.042
-49.348
56.639
-0.35266
-85.735
46.984
-84.303
-63.458
60.564
-57.797
48.683
5.2453
-49.917
111.29
-10.466
-7.2775
54.539
-92.591
42.23
46.26
-51.611
70.857
-63.988
-27.091
96.324
-51.105
69.547
18.373
-82.615
52.037
-12.299
23.403
63.293
-54.652
-8.6009
-26.112
-65.701
40.898
-20.856
-43.372
91.742
-37.037
-17.642
60.662
-43.419
23.148
12.348
-74.384
50.367
-53.657
48.027
84.317
-112.02
22.334
-22.262
-6.3078
52.251
-56.803
48.537
33.049
-43.925
109.6
-48.901
-31.395
34.22
-58.26
65.225
-0.38257
-44.841
46.847
-72.514
-3.0038
16.343
-53.825
46.944
-66.245
11.608
53.958
-62.164
81.551
-44.151
-21.747
51.793
-113.27
43.888
-11.27
10.267
134.47
-41.565
65.75
-47.819
-65.977
69.984
-64.64
71.296
3.1724
-50.899
62.525
-82.055
35.833
-7.9289
15.926
205.06
-133.21
-16.377
34.871
-141.11
-27.918
-96.757
65.287
-0.52013
-64.738
14.38
-85.183
75.309
-15.175
14.759
95.189
21.293
175.7
1.2741
-23.943
-57.583
-164.59
25.949
-65.593
52.244
37.343
-77.703
102.46
-38.05
41.625
43.053
-39.59
91.447
-56.463
2.9696
12.574
-70.015
101.95
-6.6657
-4.6789
-8.0126
-113.51
50.763
-68.887
13.513
84.905
46.4
1.092
-166.72
-18.376
132.93
-129.33
38.23
36.827
-58.296
63.285
-83.645
64.112
50.208
23.553
142.13
-93.034
-33.23
-6.7557
-83.871
83.707
-56.365
5.4883
21.266
-8.1091
77.121
-47.309
37.121
-10.044
-18.334
30.307
-72.396
50.962
1.8679
-24.166
52.509
-56.328
41.288
39.234
-8.8273
62.817
-73.082
18.846
-21.312
-54.17
45.722
-59.353
24.95
-0.91112
-86.535
20.722
-86.114
24.133
19.595
-87.2
83.212
-42.485
35.194
93.145
-59.243
79.59
-20.126
-20.132
58.477
-93.063
58.858
-55.269
-70.631
130.65
-42.521
10.313
2.2576
-13.252
100.81
-67.12
12.007
10.963
-31.113
78.332
-51.59
73.871
60.767
-103.46
-6.8373
-41.228
36.529
-11.778
-42.811
59.445
-54.986
13.248
6.7554
-38.236
41.22
-40.492
21.54
22.247
-94.707
40.934
-20.426
-54.931
97.903
41.261
39.813
-49.207
-80.853
65.052
-12.912
-4.3816
-21.892
-103.26
87.584
-5.4022
26.999
24.527
-76.186
129.19
-24.433
-48.419
35.223
-66.6
80.044
-22.589
11.914
57.395
-33.909
44.277
-53.339
12.863
18.654
-50.69
84.533
-113.46
-15.028
76.845
-36.036
90.23
-25.994
10.947
23.594
-95.427
15.029
-33.628
-43.947
48.374
-91.506
51.68
36.936
-49.442
90.666
-26.46
-17.143
43.824
-32.231
10.98
-68.525
2.1107
63.07
-66.144
21.595
98.701
-12.6
172.69
5.5871
-200.9
113.89
-105.88
-136.34
-187.19
-36.269
238.44
69.738
88.929
34.857
-84.074
-31.421
2.2964
-6.1751
77.461
-41.011
-57.29
63.485
-31.535
10.386
23.105
-96.147
26.075
-12.715
-54.427
89.022
-33.398
-17.706
49.775
-70.158
71.708
22.775
-66.596
73.581
-44.433
-0.42234
82.264
-72.935
12.292
31
-39.645
27.459
-43.175
9.9902
95.202
-27.964
18.418
15.827
-124.66
42.165
-3.1901
-44.476
74.276
-46.325
27.665
13.76
-70.917
59.211
-32.917
-11.867
72.626
-19.268
24.887
-18.872
-2.1205
59.819
-71.323
48.969
-28.323
-38.388
48.543
-64.264
45.465
23.067
-41.439
34.189
-69.885
-0.36257
11.928
-69.275
109.81
-3.9901
-12.368
47.107
-56.305
30.597
-16.342
-6.537
43.306
-83.605
17.509
-11.516
-33.39
104.04
-72.296
6.5421
55.827
-43.403
70.775
-39.523
8.3772
6.9531
-63.208
95.465
-28.617
4.8089
6.088
-79.618
99.935
13.577
37.642
-30.542
-88.757
37.647
-103.44
-3.8179
15.355
-64.26
57.13
-52.418
130.81
45.263
-116.61
92.885
-53.435
14.961
68.02
-56.429
19.002
-18.489
-35.735
25.264
-21.107
83.772
-41.152
-23.458
30.363
-86.459
51.264
11.029
91.783
131.68
-20.057
38.426
-81.352
-108.4
-57.166
-136.2
-32.619
-6.7046
17.672
115.88
-78.722
37.704
92.274
-70.878
82.5
-29.731
-87.776
43.762
40.242
9.9033
-29.347
-65.159
148.6
70.129
-71.818
36.503
-90.436
40.543
44.264
-36.137
-24.216
-123.16
30.856
79.705
-29.895
90.338
-48.658
-46.205
33.76
-97.18
56.86
-9.472
-34.226
79.605
-61.193
23.148
14.267
-23.476
113.42
-15.654
6.1537
12.843
-72.099
61.707
-9.3308
-6.8225
41.897
-91.082
13.763
14.966
-37.411
59.394
-30.535
-10.727
66.711
-44.149
46.993
-10.312
-132.02
67.074
30.524
44.648
43.296
-98.223
9.9581
-14.545
-107.12
75.696
-8.0024
-9.4635
49.816
-53.291
-13.28
-39.29
-35.138
96.321
-7.6887
0.68004
120.14
-42.88
-4.9799
33.017
-84.722
48.87
-2.2672
-67.738
40.78
-45.706
17.95
34.362
-68.628
181.29
30.677
-129.15
-51.352
-215.73
79.292
132.29
-21.369
81.606
6.918
-2.7706
68.635
-45.145
8.7029
3.2646
-34.989
64.439
28.578
46.455
-36.551
-155.01
-31.825
1.2298
-53.754
51.523
-20.989
30.629
58.738
-59.804
52.358
32.795
-69.488
57.407
-47.714
10.603
22.32
-96.114
51.872
-40.558
-21.335
77.582
-8.9464
37.632
-45.175
-16.393
99.54
-10.914
52.823
-15.865
-88.981
40.072
-38
-14.586
41.173
-53.422
69.444
8.1754
-35.103
31.36
-81.834
-5.1591
118.04
23.461
30.71
-67.79
-25.634
25.028
-66.223
76.086
0.38772
-85.841
12.887
-40.955
-0.309
-10.349
-77.884
62.995
-16.071
37.896
66.606
-78.951
50.252
-34.691
-28.308
69.085
-57.284
74.224
-5.8791
-29.998
60.768
-51.175
75.617
50.476
-54.683
46.454
-35.858
15.024
-26.633
-52.61
69.732
-54.554
-34.139
24.563
-45.002
38.01
-52.362
-11.972
27.933
-35.131
110.34
-27.686
39.958
111.13
-80.205
-11.552
-139.61
-148.15
106.52
24.851
16.424
39.928
48.721
102.95
-68.811
2.0685
20.196
-12.233
33.364
-63.519
37.807
-8.9875
-108.01
-33.441
-1.7709
-44.368
17.846
151.97
228.78
-260.61
-408.43
224.4
276.7
10.289
-76.893
-19.529
45.131
-18.31
26.412
-12.648
-19.723
17.082
-50.793
36.962
-10.915
-16.112
25.267
-38.277
17.262
-3.2912
-30.528
27.232
-21.44
-8.9665
24.533
-45.854
4.416
5.8272
-47.672
42.547
-14.829
-32.073
63.785
-28.994
-10.211
45.763
-54.373
32.725
31.024
-33.852
60.973
-18.206
-24.277
49.469
-49.357
20.173
23.319
-41.565
52.488
0.82235
-8.4641
15.602
-52.354
39.026
16.122
-36.429
34.752
-27.92
13.532
17.561
-34.503
40.683
-15.044
-22.703
26.097
-33.727
17.757
18.233
-38.191
28.771
-2.4936
-30.006
31.958
-21.102
-12.494
20.074
-35.037
15.62
-3.7052
-24.56
38.02
-28.27
71.698
73.451
-70.731
-39.995
-65.397
-44.036
49.538
-37.168
23.124
20.756
-47.517
61.468
0.48691
-12.058
38.749
-46.679
20.611
20.659
-31.866
52.952
-7.5519
-23.435
40.385
-40.123
-0.1237
41.848
-38.537
23.644
23.617
-46.327
25.224
1.2618
-35.786
39.74
-8.5164
-28.71
43.052
-17.057
-26.858
24.5
-37.42
1.9869
39.119
-36.617
16.969
9.673
-56.369
28.029
-15.761
-27.51
57.736
-26.292
8.1215
41.294
-53.362
30.677
8.9676
-36.06
60.007
-17.198
-6.8589
46.889
-43.151
7.2034
12.962
-38.245
41.458
-0.54377
-20.682
42.803
-30.02
-14.933
26.787
-34.902
24.726
17.827
-37.467
27.226
-15.73
-26.511
38.276
-21.519
3.166
16.824
-68.506
-8.603
60.23
-5.9608
19.027
0.95751
23.025
-27.711
-97.251
15.591
-25.776
-53.287
48.67
40.347
-9.8996
54.254
-26
16.662
90.668
3.0417
-33.536
-10.069
-58.294
19.759
28.786
-22.321
30.321
-37.528
17.889
33.424
-28.746
33.506
-6.5861
-17.012
44.673
46.813
34.592
38.638
-94.569
-21.771
-40.218
-49.099
3.1008
-63.019
34.17
20.414
-23.884
44.791
-52.828
11.046
10.316
-49.361
53.631
-22.727
2.2776
46.153
-62.136
42.12
15.373
-23.315
59.289
-48.315
18.005
23.798
-53.228
44.359
-21.817
-17.218
49.557
-42.636
26.705
26.918
-46.669
50.598
-27.484
-40.622
54.897
-50.078
-24.262
10.851
-98.939
71.451
157.03
33.905
12.707
-106.15
-72.158
115.89
-25.777
-1.5833
-207.96
-129.78
354.26
243.07
-35.086
-395.84
202.7
63.782
-254.36
41.745
94.52
74.65
120.74
-124.65
-112.91
116.72
-104.44
-48.151
-39.161
-114.28
74.124
-27.571
-14.838
76.032
-34.343
92.766
-5.252
-49.67
57.209
-38.051
43.944
24.414
-58.822
47.962
17.484
51.926
-0.53458
-129.22
70.734
12.712
16.848
5.6069
-64.857
55.767
33.237
15.751
13.589
-112.8
32.158
-14.834
9.4819
85.28
-50.047
56.928
-30.989
-48.972
28.654
-43.774
50.627
-28.551
-65.756
-4.7922
-94.63
38.76
-14.308
72.052
46.14
7.1059
212.29
-157.06
-196.15
96.749
135.09
239.43
196.84
-308.12
-551.08
-48.424
229.04
167.99
-0.62958
149.95
-42.217
-35.441
-29.15
-38.162
131.88
78.855
-6.6131
-102.09
-270.02
-64.65
-39.275
108.09
241.22
164.05
-73.157
-167.39
-81.033
20.76
-58.547
28.744
30.523
-20.795
44.762
-55.397
11.447
30.816
-67.704
46.068
12.823
110.21
-17.795
-73.555
47.097
-57.31
-6.5088
6.1718
-22.514
55.17
-35.685
-2.9843
6.2967
-57.385
45.886
-41.785
-1.4872
90.794
-27.324
-4.6268
-43.709
-7.3575
57.235
-39.648
73.319
-14.818
-25.23
73.176
-47.27
28.343
-6.9375
-35.924
69.094
-60.761
18.604
17.979
-37.938
103.85
-54.925
-32.616
30.079
-86.547
15.512
-70.022
-20.813
91.343
-37.621
104.4
95.72
-14.843
35.05
-84.683
-25.997
-11.866
-78.504
77.199
-24.848
-12.793
11.655
-57.67
76.025
33.752
-62.277
21.252
-63.346
-7.5635
23.802
-20.349
76.997
-5.5404
-7.9298
74.877
-23.196
20.706
-11.587
-54.958
33.012
-48.657
-8.48
42.795
-42.202
11.878
8.0442
-25.085
74.799
-12.995
-0.25238
12.452
-61.45
31.274
-23.018
-43.635
40.343
-51.296
-42.91
2.0159
-71.26
79.89
11.229
6.5014
55.558
-44.057
21.318
-1.4412
22.062
76.185
-43.978
-21.004
0.8607
-68.698
53.771
-25.428
-1.9165
49.602
-36.666
51.785
-24.335
-13.128
47.267
-48.177
83.92
23.86
23.361
1.3956
-95.584
62.532
4.7124
-60.942
44.806
-83.381
-21.081
38.231
-34.34
66.474
8.8228
-26.4
25.379
-55.813
2.7583
-2.5778
-18.97
66.482
-52.668
-47.729
-10.36
-16.122
61.903
-2.9
-77.115
-2.6227
61.665
22.851
-46.46
-4.515
20.429
-31.379
122.69
9.4744
-63.721
75.509
32.294
-21.133
-41.46
-14.624
54.172
-25.428
-37.634
-78.707
-7.307
158.27
-35.83
-14.693
30.923
-24.151
33.416
-66.897
-73.086
-63.914
-107.45
134.67
156.17
-121.58
91.47
231.7
-184.62
23.512
45.413
-78.9
-139.11
-76.315
92.361
9.7074
276.09
-87.539
-132.8
-88.08
-162.02
88.932
23.425
9.5879
4.4116
17.472
69.792
6.2942
22.464
28.655
-23.464
37.905
-14.972
12.933
27.088
-10.639
23.252
-27.121
7.5904
-6.1342
-8.6825
25.63
170.45
241.31
-97.593
-96.531
-95.668
-333.67
37.603
-10.685
-50.867
45.966
-2.7244
42.836
27.701
25.736
14.087
-3.5734
24.293
-11.795
7.0208
16.675
-14.234
24.208
-6.0183
-5.1849
15.923
-13.436
16.652
5.0744
0.63401
18.207
-12.166
10.606
16.514
-20.207
11.209
-13.695
-5.36
7.7293
-22.451
19.845
-0.10821
95.549
268.9
150.84
-140.32
-205.17
-43.017
31.346
-111.4
-51.276
-67.002
-100.23
-254
22.145
265.74
-167.2
4.8908
52.565
20.755
19.355
80.619
-18.558
39.506
16.605
-18.472
55.6
-13.809
-5.2481
38.984
-32.987
20.483
18.436
-28.606
30.825
-8.5852
-21.708
23.515
-28.356
5.3072
15.862
-28.2
21.213
-16.789
-20.799
25.552
-19.834
27.624
16.315
-19.927
34.318
7.3591
87.298
-55.305
-92.759
40.122
-12.061
-9.7743
9.9624
19.883
20.434
-8.643
-58.802
-11.147
6.2584
18.495
65.815
-19.787
-49.784
-9.3066
33.905
55.65
-49.073
-52.569
29.171
10.398
15.047
10.374
8.5085
66.21
-67.355
-46.291
-3.8562
-40.367
14.274
15.193
5.0181
72.28
179.56
36.997
-24.539
59.204
86.629
119.49
19.567
-201.37
-313.92
-125.33
-55.229
-31.622
31.34
-31.552
5.0434
23.195
-81.659
26.801
29.289
-22.969
48.178
-31.785
27.701
55.324
-17.594
67.864
15.129
-1.3702
40.665
-42.019
27.802
26.969
-38.436
41.954
-19.276
-4.8003
3.3836
-41.131
54.565
17.178
-27.043
58.281
-34.132
0.67234
39.641
-53.005
53.548
41.434
-15.094
50.101
43.473
-57.559
-109.9
-100.38
-44.402
44.375
73.564
113.78
-48.368
-46.445
66.567
-0.75916
-81.465
-61.709
-57.833
51.803
0.8259
-23.968
50.654
-42.229
51.489
11.382
-21.119
63.811
-30.541
2.6795
11.764
-38.766
68.982
7.0501
-6.2619
18.134
-42.857
41.807
-27.91
-8.9145
81.503
-1.7963
6.7303
-25.963
-52.183
24.756
-41.596
14.09
21.504
14.708
121.1
-62.071
-43.755
-13.309
-50.76
19.108
-50.623
-38.195
46.459
-13.693
47.98
27.069
-36.462
20.436
-49.72
-27.825
-25.552
4.2276
58.29
31.875
-4.2216
-40.675
-68.752
32.06
70.429
-0.55852
16.308
-56.852
-29.475
46.752
-39.937
57.433
14.582
-43.842
53.84
-18.019
15.726
21.514
8.7708
78.242
-56.289
-27.336
14.572
38.016
30.755
-111.38
-31.614
-20.487
-46.876
27.924
-53.418
36.904
36.797
-17.688
41.406
-57.178
42.072
41.34
-36.563
39.975
-50.12
12.324
20.805
0.023182
67.892
-14.397
-14.934
36.631
-25.042
35.654
15.07
-5.6964
58.367
-98.075
-34.89
31.154
-20.88
27.495
-5.4581
-29.028
9.2621
-23.824
2.0432
-0.24544
-10.141
44.453
-30.84
-33.302
14.828
-47.433
31.813
32.603
-31.463
28.077
-28.212
12.67
-0.32819
-32.945
57.46
1.6057
-8.2142
30.658
-34.822
23.763
28.211
-11.851
87.343
-26.864
49.995
-1.4679
-159.75
-8.0266
31.232
-43.88
94.814
6.5174
-75.353
24.143
-24.626
-66.429
12.787
-10.245
16.947
0.030529
-11.15
166.28
113.04
-39.573
-63.469
-83.101
-19.789
-79.029
-101.9
110.52
-16.737
90.843
113.63
-58.644
4.9561
-128.25
-95.627
0.8482
-42.155
55.56
-7.5652
19.719
124.4
3.514
31.803
10.609
-53.523
41.56
-7.2828
-16.403
52.596
-43.167
8.0096
16.695
-44.079
31.61
1.0135
-31.257
43.313
-33.427
-20.819
27.312
-39.417
20.675
4.1389
-43.737
32.074
-12.55
51.899
155.85
-60.281
-131.66
-49.302
-10.451
61.816
-5.8942
-19.179
100.56
15.328
-68.812
-28.197
-46.698
56.028
45.993
-51.955
10.905
-40.46
-55.941
14.458
0.53181
50.382
64.741
-137.55
122.55
56.381
-100.62
35.864
-71.92
-61.316
71.77
23.595
25.463
2.1024
-85.393
-6.1583
-43.949
41.676
102.8
-21.475
40.218
35.4
-42.578
52.106
-12.26
-14.126
36.585
-46.738
8.8288
21.336
-38.844
38.089
-13.15
-23.916
30.264
-9.4415
-7.1426
-7.8226
-29.044
32.491
-20.946
-21.607
39.064
-36.891
28.606
13.827
-45.164
30.592
-11.533
-38.749
42.143
-31.36
51.845
2.3685
-73.395
71.987
107.38
32.019
-110.73
-124.79
37.461
83.824
-15.84
-11.583
-66.287
-42.85
35.131
-96.842
-12.743
36.992
-48.853
19.082
-22.031
5.9303
48.748
-16.687
59.853
42.99
-57.618
90.479
15.219
-12.081
42.022
-63.553
46.399
22.217
-59.023
26.945
-41.953
20.4
40.943
-66.129
44.167
5.0094
-22.848
45.253
-38.951
23.935
-7.5055
-27.742
88.955
61.18
-6.5742
-54.365
-115.53
24.002
112.19
111.54
-18
-223.36
-81.272
40.365
-68.691
28.753
106.56
7.2794
-26.103
19.62
-33.251
-7.0183
56.115
-98.127
-102.68
134.07
3.8215
87.753
-61.526
-110.67
65.484
-29.219
29.452
7.1581
36.18
61.685
-89.92
61.617
36.81
-5.4053
51.239
-64.817
-2.7856
-100.09
-106.35
64.665
-14.031
52.489
-24.007
-1.4834
73.985
38.951
77.796
-59.526
-4.3309
57.59
28.975
-5.883
-140.01
-17.403
26.783
-21.299
59.821
-58.926
-1.277
52.1
-44.885
22.518
-26.701
60.845
114.6
-98.895
-6.8481
-50.424
-86.214
56.757
4.6276
65.392
-25.758
-72.04
9.818
-47.018
58.384
88.384
-22.102
109.86
-102.91
166.9
48.437
-374.38
27.679
113.47
-42.574
-59.186
-48.168
112.15
63.497
-68.981
-22.52
-0.6506
120.41
43.277
-55.955
52.154
-40.017
-55.969
78.888
-14.449
2.1
-97.647
-31.329
6.6799
-50.805
76.783
-6.4341
-33.392
51.757
-42.531
15.348
107.18
4.9234
28.512
-64.501
57.503
139.9
-264.85
147.94
-42.4
-222.97
56.742
51.371
-34.469
-1.0493
-30.613
117.97
0.67957
-76.126
-1.5211
-16.039
139.6
-19.057
-113.87
54.872
-1.0996
19.945
-20.509
-108.77
207.59
207.89
-89.767
-137.87
-104.24
33.729
-37.23
-122.47
63.553
1.0397
52.578
74.596
-77.049
25.407
29.132
98.642
31.651
-112.45
-4.4905
-6.4462
-36.715
70.461
-23.329
-71.721
-20.519
-35.653
36.836
-1.2071
39.559
85.406
-8.0347
52.518
-5.3396
-50.616
52.669
-25.139
34.74
9.9759
-57.422
-43.377
-65.693
9.9661
68.489
-29.631
24.225
19.997
56.777
-147.73
-237.65
135.68
195.24
75.482
37.753
-11.644
-80.829
5.7459
-18.18
-52.395
-7.8968
3.7872
-63.757
111.21
23.217
-16.955
12.121
-72.349
-36.153
57.558
9.355
4.8783
46.092
-59.323
-36.871
-144.24
110.08
19.962
-75.87
215.53
26.128
-32.609
-193.15
-86.341
248.42
-64.855
-29.647
-52.389
-146.03
152.87
100.7
-11.024
161.95
19.609
-85.188
-28.53
-36.905
-6.3772
-33.243
-26.749
26.971
25.959
38.479
-112
-24.479
44.832
-80.846
99.599
39.716
-72.977
136.26
-32.662
-109.75
157.08
-23.693
-8.4451
-22.525
-76.321
-25.683
-69.843
76.522
23.713
35.891
153.12
-91.034
-56.914
-18.314
-112
41.725
23.619
-17.206
66.951
-50.757
39.692
102.93
-44.509
14.747
-112.05
-28.192
11.629
-77.648
155.03
-10.919
-59.84
77.068
-9.5152
-39.513
-11.109
0.96808
82.22
-79.254
23.121
37.788
-86.085
84.896
-20.534
-49.493
49.712
-90.718
-17.313
-19.896
3.9355
127.43
65.256
102.1
-34.22
-124.36
69.079
-49.946
-81.601
176.91
-117.75
28.241
8.512
-147.89
123.33
-6.3936
16.77
16.255
-88.776
99.232
45.46
32.663
-20.632
-155.26
-22.713
-21.87
-41.762
16.685
-87.094
50.46
-3.0737
-30.776
174.6
-32.972
34.18
10.713
-20.205
61.694
-71.422
22.911
10.528
-10.029
129.9
-117.14
-5.7202
24.382
-45.992
58.55
-6.4118
-4.7046
35.872
-16.311
65.618
46.075
29.629
-21.841
-109.28
-38.506
11.049
-11.369
46.807
-67.354
-24.738
-33.853
-84.04
37.987
11.618
8.045
-32.366
-94.062
81.399
20.726
-16.319
92.553
-107.69
34.165
92.243
-77.433
83.21
16.355
26.784
92.698
-58.846
-9.5997
-19.684
-180.22
-3.0714
21.281
42.687
47.364
-33.142
77.795
1.6706
32.131
-23.684
-86.564
96.135
-38.551
-11.353
35.01
-42.087
27.053
5.9868
24.366
83.225
-67.25
-36.703
-40.467
51.227
26.257
-22.445
0.96685
59.184
-47.319
-16.789
-1.0283
-7.9852
6.5304
-7.7535
5.1135
-28.385
15.816
5.5303
-2.3397
28.931
36.512
-16.521
-18.866
14.162
-13.918
-40.938
24.383
2.6749
41.886
116.32
-24.106
-56.82
-10.087
-81.383
-92.913
15.069
29.142
-2.7339
18.017
9.2171
8.7642
48.661
-4.5028
-7.5499
-11.374
-6.2849
-14.362
-7.2224
20.242
-1.2443
13.201
-1.996
-3.2215
7.0912
-9.677
14.522
3.6231
36.25
48.56
-83.659
-49.732
1.6279
10.215
67.882
65.255
62.882
-153.41
-173.83
60.835
15.847
18.22
4.1652
23.705
6.4283
68.397
24.885
-150.46
84.39
93.434
-204.13
43.66
12.637
5.4321
20.125
36.248
84.81
-170.03
-28.772
102.03
78.817
-41.389
-24.578
-21.268
15.819
-126.41
116.12
30.751
-229.03
-12.025
53.578
-24.974
30.526
45.801
23.547
77.493
-121.18
12.734
40.666
-15.851
107.43
59.068
207.91
30.529
-185.81
170.58
21.237
-314.85
-70.091
24.954
21.918
7.4569
-48.608
5.3605
-3.5961
-41.003
27.556
-24.804
-20.09
34.157
-36.769
17.533
15.927
-37.081
29.586
-21.182
-13.277
28.147
-35.17
19.809
85.606
53.468
79.004
-129.75
-115.33
-20.169
-185.92
87.493
293.17
-58.146
-37.899
2.5394
5.3297
136.32
-112.56
-18.414
-97.056
-162.81
97.078
197.31
37.542
-4.1775
-51.106
-1.334
62.102
-5.6199
93.322
4.2622
-47.783
-70.525
-88.519
63.482
105.81
-12.519
38.214
49.408
-0.82823
35.211
-127.37
-174.49
36.042
-27.693
28.826
-37.861
-19.491
47.004
96.455
111.58
-65.552
-117.95
-50.349
-66.073
5.9312
53.959
-93.358
-11.387
-1.1406
195.2
84.706
-107.55
34.08
-44.148
12.969
33.926
-49.875
56.446
-0.5119
-37.043
42.316
-38.936
32.555
1.8305
-41.238
46.738
-22.904
-0.44458
39.749
-29.984
15.492
-21.674
-20.866
59.274
-5.7539
42.676
4.461
-79.717
-24.145
-40.537
-1.1
31.475
-16.284
54.828
1.7467
-6.6511
35.214
-48.384
12.78
5.1963
-35.952
41.172
-14.971
-6.0961
29.074
-36.543
24.115
5.2503
-27.281
38.596
-11.199
-18.051
28.712
-17.196
5.1551
2.0987
-30.444
36.031
-17.416
-7.9709
29.052
-34.36
9.0528
-9.6115
-19.833
47.516
-37.234
-2.1161
32.498
-25.179
32.96
-1.5124
4.6196
39.481
-65.091
-13.342
-5.0298
-32.089
26.849
-14.678
18.914
7.0899
-28.609
36.391
-22.009
20.811
23.198
-21.605
36.264
-26.964
3.0393
12.61
-42.643
36.902
-4.223
11.043
29.931
-40.291
11.049
-6.6713
-13.538
