14.682
-13.916
55.233
30.341
-75.585
52.787
20.576
-17.216
-40.374
-43.452
17.37
51.632
19.46
1.3338
63.778
-31.528
87.687
-101.24
-116.75
116.81
-55.664
-19.787
35.667
61.287
-65.065
33.064
-17.642
70.212
-48.378
-120.17
80.533
20.968
-34.466
34.052
62.64
1.6178
-59.503
21.839
-6.4879
-62.068
-43.723
3.5603
64.067
-4.2075
50.448
9.332
-57.496
-68.921
37.036
81.393
-16.578
-11.743
3.1977
-27.607
46.954
-2.838
3.7183
43.458
-33.782
-64.535
-63.613
39.527
9.1981
28.547
46.91
45.705
-100.29
-44.67
52.078
-48.95
3.9318
64.332
16.376
-27.25
-29.943
26.42
28.035
-13.852
-3.2041
-27.246
5.384
-8.7252
22.224
-73.426
45.046
52.146
-13
72.462
-96.87
-79.058
112.91
42.77
-26.268
6.8133
-8.6529
25.504
37.063
-64.975
-40.871
13.743
-53.716
15.588
12.797
90.969
-8.3566
-121.48
91.197
1.1704
-42.247
-38.815
67.152
31.766
-88.74
64.86
-4.4173
-49.525
29.405
54.891
-11.528
-63.685
55.194
-30.283
-54.267
69.726
-45.132
-44.357
44.34
-77.358
96.452
30.968
50.897
-85.765
-51.946
16.811
-37.512
73.026
19.849
13.783
-46.11
28.648
36.998
-34.235
-23.484
73.931
-54.573
-70.305
50.767
21.08
20.407
26.547
-34.2
-45.154
-18.374
30.676
-14.044
66.02
-31.556
19.094
-34.846
-67.005
-16.009
12.633
6.8331
-18.62
144.35
129.02
-128.3
-74.629
25.28
-39.589
1.1883
2.3674
38.468
19.748
61.248
-34.562
-69.676
74.278
-91.874
20.765
15.9
-53.485
70.533
29.666
-27.847
-3.3299
-62.574
62.126
-4.3675
26.609
-0.41324
-84.438
7.5312
85.484
-3.2807
-21.455
-68.011
37.517
-3.3581
35.298
8.3623
-81.211
7.4617
57.091
-47.589
-53.003
-44.413
56.84
11.792
22.693
52.493
-58.494
118.39
99.474
-146.9
-29.432
-17.102
-1.0376
28.075
-3.2704
-72.846
24.588
7.8168
11.565
13.067
26.641
113.95
-80.365
-54.511
-36.276
4.8632
75.461
-86.125
6.3798
163.36
-84.989
-36.81
-47.573
71.347
16.029
-83.513
46.426
27.16
-23.923
-43.713
65.114
-39.228
9.2057
-1.0789
4.2918
-21.328
-13.219
6.4644
-1.1251
-11.09
10.773
9.8785
-7.5121
2.813
15.578
3.4741
-4.4641
9.2441
3.4434
-8.44
-1.8397
10.975
12.427
21.843
16.015
-8.2406
-20.47
-18.124
0.32018
-5.6328
-5.904
5.5796
4.1403
-12.988
2.1425
11.827
2.7878
-4.3525
5.0862
5.8486
-7.2084
-6.0208
7.8404
2.7802
-12.715
-0.98279
5.1553
1.1705
-9.9743
45.576
-10.927
-58.122
75.672
-4.8862
-19.156
-26.607
-3.9212
12.426
-61.854
38.17
96.123
5.2666
-78.141
-29.577
-6.9459
-18.949
1.0319
15.791
-0.79777
-1.3751
16.665
18.956
-9.439
5.3482
42.69
1.0808
-32.266
-0.60844
-6.8371
-22.614
5.9688
17.165
-2.2658
-10.903
8.9931
6.4413
-8.1415
-1.0693
9.5663
-9.1397
-7.158
12.094
2.5625
-8.1688
6.335
4.6235
-13.676
-2.648
9.891
-0.014811
-9.8081
5.8761
7.5944
-6.898
-4.1299
6.6001
-0.61127
-7.8887
9.6861
9.3431
-13.144
-5.9171
12.067
0.34877
-10.005
6.4358
7.7772
-8.3826
-6.3256
6.2345
-0.52083
-11.141
8.3265
10.669
-6.586
-7.3902
8.131
2.9933
-10.397
1.6769
14.201
-3.2637
-11.497
3.897
4.4044
-12.063
-2.8207
12.468
-0.10589
-11.184
5.3172
10.201
-10.068
-7.802
11.211
7.1742
-9.4337
-1.8392
10.446
-0.67266
-10.566
3.4706
6.3939
-6.2108
-2.0044
11.56
0.9253
-14.087
1.0955
9.3556
-0.80805
-7.2231
8.1122
3.1142
-10.371
-1.7584
10.397
-3.5391
-7.1414
13.431
5.7888
-14.709
0.47857
5.8677
-6.9635
-7.6251
12.728
2.4905
-8.1509
-12.703
8.4216
-110.95
-204.74
189.19
120.71
41.596
3.7886
9.5052
-5.8039
-3.5819
32.034
27.666
-39.554
23.623
4.0982
-59.001
-23.635
11.785
10.403
6.5614
-14.21
-14.163
-15.463
3.8446
18.495
-4.9855
-12.799
14.361
8.7992
-17.272
9.8026
8.1019
-0.0032031
-41.115
27.81
33.249
78.022
94.484
-193.1
-41.158
-6.8694
16.349
31.368
48.001
45.91
-32.272
-87.554
-141.7
106.61
109.32
-43.457
11.421
-114.09
110.46
-25.677
20.164
-12.756
-35.798
-20.377
96.82
26.976
-14.866
-57.69
-33.041
34.075
60.872
33.043
-34.213
-180.51
-78.333
218.88
44.314
-67.318
-26.928
44.047
-45.181
-53.789
100.31
0.93838
-58.11
62.859
-0.047052
-18.065
-18.385
-3.5121
-18.996
56.438
-10.092
-2.2389
-30.767
38.611
-15.167
46.989
-26.339
-66.674
40.143
30.77
-10.821
-28.582
23.297
-23.613
35.052
21.21
-18.678
-39.816
46.861
-13.523
-17.242
-9.6297
33.678
-23.785
-43.788
-31.816
134.71
-52.553
8.4458
-31.464
35.822
-41.585
-74.378
103.25
5.8918
-22.187
44.113
-22.556
-23.379
27.456
13.758
-27.651
-25.119
20.819
41.736
18.186
-38.838
-12.816
1.695
-52.783
49.245
89.465
-8.3077
-110.27
-15.027
20.828
-43.933
16.859
18.863
20.384
3.4681
27.087
4.9962
-31.545
-35.859
-31.033
-30.561
29.555
39.602
-16.821
67.339
0.57857
0.61012
6.5511
-44.239
-6.5071
4.6684
36.628
14.602
278.43
229.5
-243.92
-228.98
-126.78
-259.68
104.81
601.74
52.413
-569.55
-541.33
5.5119
179.67
636.36
91.329
-193.42
-27.673
-131.68
206.17
-24.91
-106.68
65.556
-83.861
92.518
-98.348
43.597
74.309
-25.439
-0.84042
11.518
-22.478
-30.089
-109.97
27.739
155.75
-29.423
-117.58
62.654
43.956
17.473
-58.628
-34.749
74.212
29.663
-47.981
-74.792
104.87
18.874
-82.063
-30.56
26.628
56.282
38.583
126.53
4.1341
-464.77
-114.9
496.7
-22.765
-0.39665
47.498
101.12
-147.52
-130.6
37.074
1.6341
-24.074
11.341
24.079
-2.245
-12.381
41.408
37.895
128.19
276.71
50.377
-24.239
-52.097
-105.61
-244.55
-132.57
-137.04
-3.6189
32.864
36.335
-37.326
55.956
-289.7
-1380.6
282.67
758.78
256.18
89.853
-11.129
39.429
9.5413
192.54
365.23
63.53
-8.5635
0.68582
-26.215
-62.594
-24.364
-22.47
3.3838
-20.119
-13.145
-16.223
23.317
21.39
-36.987
-8.994
7.8437
-15.766
-11.176
17.146
-1.2213
-29.953
1.4463
10.21
-17.559
-15.084
9.3815
1.4498
-54.582
-54.736
90.808
114.3
22.814
-40.197
-30.662
-49.392
4.3166
30.718
-21.678
-29.68
-16.411
0.1883
-21.329
79.895
67.16
-128.36
-58.218
44.026
-21.954
-37.598
-23.834
42.105
8.3741
3.413
23.219
-7.6118
-7.612
16.167
4.8047
-13.037
5.2259
9.7674
-16.08
-16.436
-11.822
21.636
-1.0109
18.838
12.143
-14.904
-5.2065
-30.856
-76.364
93.193
109.79
-87.924
-26.383
1.0977
70.737
13.23
136.18
-31.291
-180.88
9.2862
-4.6931
28.193
-3.2427
-5.0452
-14.671
-12.207
73.914
-27.223
-40.781
14.461
3.4257
22.613
-22.437
-6.9059
29.398
17.977
-8.1751
-52.894
1.3197
15.205
-8.1571
6.261
7.8395
-10.956
-14.185
18.079
66.832
-65.976
-34.805
-0.97096
-5.892
6.7603
9.3423
-5.5071
-0.91888
16.175
-8.1169
-1.3225
12.686
14.933
7.6627
30.542
-1.1004
3.4661
35.296
-41.277
12.313
8.7077
-10.675
-49.413
-24.106
-0.70481
-4.7301
18.975
19.516
-15.298
18.044
23.847
-11.116
1.6686
-13.26
-22.543
-9.576
3.419
-10.411
-8.6737
10.771
3.9539
-6.205
20.209
25.188
-15.341
-4.4935
-22.444
-13.707
47.877
1.9636
5.7494
56.436
-12.678
-23.567
-31.244
-26.392
-32.019
-56.04
36.42
23.914
-20.976
25.205
14.397
-11.039
4.5424
16.718
-12.677
-4.4175
21.033
-4.458
-6.9644
23.51
11.797
-17.961
6.1367
21.28
-12.899
-3.0701
18.846
-3.7452
-39.118
7.8239
2.1945
74.581
-21.868
65.036
36.61
-43.899
-30.144
-9.2198
-73.407
-28.637
27.739
-0.27324
-11.874
0.55529
13.052
-11.417
-10.414
10.662
0.42336
-13.035
10.44
4.2375
-20.414
-1.6337
11.994
-10.308
2.9216
27.417
4.4947
-6.6969
17.557
4.442
-16.498
10.532
23.235
-6.0321
-4.3026
12.284
3.7637
-20.032
6.0856
7.3924
7.3759
-24.03
106.73
77.251
-154.92
-26.23
4.0503
83.529
-10.022
-72.598
33.107
-19.076
-40.028
24.914
11.757
-52.391
-57.703
25.828
40.74
-36.691
-83.507
104.02
13.553
-14.551
116.17
13.056
-12.313
-60.594
13.668
-32.892
-82.319
52.853
34.197
-28.513
22.266
-7.68
-13.854
-51.845
-45.951
-31.667
26.773
24.92
135.27
-45.026
15.478
83.37
-60.375
63.475
-113.33
-12.489
66.817
-42.892
40.614
-49.907
24.002
72.706
-38.602
-50.606
66.3
-0.80668
-45.346
58.804
-118.12
-10.703
-14.409
2.8733
66.515
-103.4
93.078
78.949
56.062
-70.172
-78.953
23.119
-27.32
21.464
15.805
-47.97
13.049
32.185
44.412
-72.244
-39.996
54.6
39.534
-37.717
-6.4409
-6.6101
53.125
60.094
-49.937
-53.669
-14.335
27.533
5.0283
-23.322
36.187
-39.753
19.046
34.891
12.622
-45.828
41.205
-18.713
-11.745
-54.97
-19.346
12.904
62.2
69.743
-143.62
19.309
37.676
-17.027
75.829
18.858
-70.948
-12.939
-56.666
9.1436
98.35
37.603
-27.586
-64.894
-101.19
3.9117
67.996
41.582
14.286
16.625
-10.501
-16.654
8.3682
7.6414
-13.147
-3.625
16.594
1.8318
-11.763
10.626
19.223
13.292
21.902
49.217
-70.559
-79.362
19.332
34.515
71.062
-51.724
-67.463
18.096
1.0678
6.9437
38.92
41.846
-82.28
-33.933
15.972
2.8964
-11.43
3.2579
13.7
-6.6712
-16.76
-7.4798
10.101
-2.0679
-2.7095
27.512
4.0963
-9.7276
16.294
10.67
-13.45
2.8169
41.302
46.745
61.531
-71.74
-57.417
-2.66
-2.8356
51.043
-55.167
-43.599
-14.95
24.877
-31.074
-27.434
-64.588
105.27
88.914
-80.191
27.064
7.8079
-17.254
4.9777
7.5314
-13.155
-11.367
13.565
4.3175
-17.401
5.4467
14.308
-7.8416
-4.6548
14.528
5.9228
-13.374
11.095
10.583
-9.4291
-0.84776
13.667
-5.3064
-11.373
9.8438
6.2198
-7.4103
0.85953
8.6529
-7.0605
-0.55905
7.1295
-3.4701
-7.9342
5.1787
2.4633
-8.5397
0.51244
9.0784
-1.6892
-3.3783
11.94
-0.86066
-9.1051
3.4472
7.5401
-6.8292
-1.5301
6.9746
-7.3955
-10.065
6.3521
-1.5005
-11.593
1.6339
13.36
-20.033
1.7601
-50.036
-7.1997
76.489
54.428
29.074
-46.119
-9.5319
-12.918
13.499
-3.7105
23.602
46.91
-53.858
-29.148
10.753
5.1303
-63.544
-42.051
66.318
63.261
-27.96
-46.567
49.785
-5.3543
-25.238
-8.0124
9.7274
-135.34
27.469
114.99
-78.819
3.3141
1.1168
-62.862
36.347
24.217
8.1591
-16.366
13.887
12.985
-18.223
-4.9808
48.405
22.115
-80.198
-60.441
50.156
28.387
2.3503
32.063
4.448
-4.0929
25.673
24.989
-12.49
11.267
112.74
60.849
-157.27
-57.356
33.855
16.563
-7.8913
17.897
18.126
-6.9747
-11.011
-34.352
-47.851
-17.385
17.712
-15.225
1.2287
37.011
14.698
-11.737
-3.9972
15.12
-9.1204
-14.442
3.2141
0.94672
-6.4404
9.5421
8.2109
-16.191
8.0187
14.621
5.42
-81.149
32.588
96.907
-45.638
76.164
77.315
-40.229
-96.412
-3.3692
81.629
-23.766
-33.658
-19.648
-76.655
-84.711
194.54
-72.154
15.402
176.27
-53.95
-103.06
-45.975
-12.353
9.3488
-4.7906
-12.557
13.496
9.2921
-1.2475
46.658
24.743
-26.722
19.557
22.794
-25.287
-14.596
2.6076
-16.43
-33.862
-3.4188
-2.869
-24.997
-4.831
1.5379
-9.757
12.915
16.511
-15.901
-12.107
29.288
1.8098
-23.331
10.499
4.6195
-12.073
7.2951
10.689
-1.2032
11.656
-7.6994
-10.105
18.368
3.0882
-10.404
8.666
19.443
-6.2542
-11.856
-15.545
-110.29
-345.38
-33.965
231.48
331.61
110.09
-26.494
-18.944
8.2355
0.40085
-22.814
-6.0834
11.61
3.5962
-28.1
-16.771
-28.483
111.93
169.4
-232.2
-65.043
48.1
2.013
-22.327
-24.164
-1.77
-12.292
-8.6598
5.3019
4.5002
0.74196
8.5335
-7.6484
-28.691
11.338
5.0316
-1.446
11.831
17.353
-26.518
9.801
-56.407
-44.444
111.15
-1.304
-8.8593
-20.468
16.29
-108.92
-33.172
120.88
8.6601
82.398
4.5343
-45.282
-18.066
69.53
-11.091
-27.98
6.4974
39.731
-47.554
7.0655
-32.224
0.24039
-15.277
5.894
-8.9806
-38.571
53.753
2.9764
16.061
-40.868
17.299
8.6988
-10.807
9.2396
-13.462
-16.213
-8.6031
39.825
37.858
-29.233
-18.079
-5.8106
-26.772
-10.937
22.01
5.0557
-15.008
13.254
19.389
-0.94477
-17.785
11.592
13.689
-5.9821
-11.806
13.748
10.678
-3.8675
-13.287
6.9864
8.692
-7.266
-15.268
10
9.6377
-14.047
-11.645
25.063
5.7895
-17.832
-5.0768
12.06
9.5426
-19.326
-5.8249
97.85
-53.716
-55.607
0.73582
45.285
23
-47.277
18.766
-47.634
23.041
-56.71
83.524
-26.331
49.206
54.982
-114.73
-5.526
-76.041
2.1896
154.11
-14.921
-145.83
83.441
48.904
-55.054
33.305
-10.302
33.733
-9.9732
-16.243
93.702
-34.561
-104.1
-47.861
71.558
26.207
-60.009
70.733
-13.819
15.966
78.299
-69.15
-20.89
-45.8
36.609
-19.983
-11.056
-17.334
-24.432
76.196
18.312
-37.879
69.823
-5.2964
-19.735
-4.5736
-36.879
-2.7421
-11.033
-13.777
29.537
-11.193
-41.806
77.395
15.642
-96.806
50.39
-1.7425
13.942
-40.436
24.17
17.343
45.769
-36.56
-2.9859
6.6145
-52.838
17.455
45.016
3.7264
-4.4317
-33.307
59.179
1.5476
-61.929
-35.293
53.702
-13.326
-82.36
122.27
74.8
-100.6
-45.865
60.168
15.069
-13.506
8.1785
-15.926
28.347
-59.712
-53.846
45.47
14.346
33.402
1.8652
-62.414
-15.522
61.355
-0.52915
-28.045
29.446
-8.3733
-22.23
-12.76
10.489
2.2256
1.6165
48.788
32.382
-14.195
-5.7398
-8.2307
-33.888
39.366
48.943
-79.315
-19.204
19.03
3.7254
-25.569
-8.8831
53.356
-78.572
39.843
58.6
-62.599
-6.9116
22.688
-22.594
-51.918
49.192
45.978
-28.221
11.55
6.1393
-20.224
36.751
-6.11
-32.866
37.016
-43.306
-30.918
15.182
34.091
3.0907
-48.723
11.339
56.084
-19.108
-40.254
28.442
-32.807
26.394
17.258
-62.466
56.392
-19.768
13.417
35.998
-79.936
62.247
-23.402
39.978
-4.8838
3.121
92.726
-38.761
-107.07
-54.044
27.125
141.09
12.007
-80.344
-0.34214
-5.2888
-3.4248
-50.709
14.48
22.8
8.665
-8.6791
16.021
-8.8817
23.215
-47.625
18.072
24.116
-8.1889
-10.041
-16.064
24.788
-21.926
-33.674
6.3184
19.975
4.4117
13.33
-15.842
-19.11
12.821
17.092
-11.486
7.1131
13.803
-15.076
0.51937
15.898
-5.5696
-8.0989
23.092
2.4363
25.859
45.917
-31.413
-5.5099
-1.8461
-63.652
-69.664
41.901
64.306
-26.015
13.804
17.602
-98.502
85.162
34.193
-32.821
-83.079
69.37
33.167
-12.378
-21.626
38.647
-33.102
-36.127
60.369
-19.722
-47.56
12.156
80.015
-67.284
25.767
53.183
-106.83
12.73
31.413
2.0183
-9.6678
12.804
29.997
-14.812
11.473
13.353
-42.401
-20.613
-21.24
-23.798
-3.7941
51.877
1.077
-6.1283
28.304
-6.1327
-17.74
-0.11744
-0.30892
-5.1394
5.8398
15.424
-13.469
-13
17.997
0.39709
-7.521
15.289
4.6777
-11.298
6.6105
12.289
-9.4474
-7.7995
13.214
-0.035561
-10.509
6.8429
3.4848
-10.666
3.3267
9.8578
-6.8371
-7.9703
6.2972
-6.7634
-11.506
14.975
22.527
12.646
-24.882
-23.442
-54.382
-18.264
180.46
-88.683
-110.17
5.7334
142.65
-8.6875
-24.131
-128.1
-58.729
167.59
2.7915
49.682
3.914
20.756
-0.77746
10.445
6.0153
15.373
2.4368
-92.386
-27.729
-12.209
13.434
19.595
-6.9494
-4.3935
11.285
-6.5195
-1.2277
13.935
-12.857
-12.442
12.909
-0.99744
-15.937
10.823
7.2231
-10.02
9.2325
3.4677
-8.1977
12.808
-1.9349
-16.204
11.633
5.5735
-13.803
13.137
8.0932
-13.576
4.8435
13.516
-12.515
-2.2155
16.747
-2.3712
-12.129
11.793
6.1777
-13.771
-0.19148
13.934
-7.4286
-12.635
10.99
8.4737
-12.714
-6.6237
12.38
1.075
-12.984
2.0215
9.8184
-6.5121
-12.588
10.321
8.5503
-15.589
-8.5265
13.964
2.4216
-16.554
0.95512
13.913
-3.8574
-13.788
7.9506
9.9377
-10.342
-2.7438
14.158
-2.7566
-15.376
8.8588
10.762
-14.584
-5.4161
16.628
1.9781
-17.322
4.598
15.037
-7.5474
-7.4648
16.173
2.0807
-15.068
5.2456
13.581
-10.002
-9.1911
12.852
6.5672
-8.6957
17.273
29.356
-45.2
-36.003
10.146
12.441
2.7153
13.803
49.112
0.31774
-14.61
9.7645
-11.637
-29.027
-16.608
6.9072
-41.435
-28.911
33.616
-24.601
-18.89
-1.8192
23.474
-0.68775
-9.9052
19.25
15.13
-9.4961
0.61513
21.164
6.3891
-1.2006
11.338
-1.4992
-10.178
6.8343
18.124
-8.1901
-6.1348
15.728
2.2788
-13.833
3.8167
12.593
-6.1815
-7.3272
10.467
1.5748
-13.544
3.3382
19.802
-11.078
4.02
19.021
-33.274
-23.174
-0.73639
7.0937
28.078
28.715
26.958
53.72
-89.313
-14.953
9.6559
-17.652
-43.247
-37.891
-16.794
-8.8064
8.6971
48.055
21.568
-24.43
-10.371
-5.9881
9.4372
52.992
23.576
-18.713
0.88716
4.4147
-21.396
117.69
-66.008
16.624
-79.021
77.246
42.031
-25.013
10.569
-124.08
24.487
16.381
-93.051
-29.641
117.49
69.715
-41.369
-20.677
-14.895
0.24665
22.068
9.9241
-3.6373
-32.528
35.268
-17.615
-115.53
-27.009
86.423
-17.337
26.777
6.3771
3.1076
12.578
-64.448
-43.913
82.729
-0.70367
-9.4684
-61.241
52.693
35.006
25.814
105.69
-73.051
-84.481
-63.136
136.1
10.501
-47.334
42.473
0.073722
-3.5865
77.985
-40.467
-40.076
-16.356
17.429
-10.381
-82.896
-1.4395
27.758
-29.197
64.619
36.127
-15.402
-9.8975
-54.477
18.509
-77.752
108.88
125.53
-111.18
31.434
13.093
-135.69
26.001
19.569
55.602
25.74
-73.102
-52.233
81.213
-104.65
56.475
119.82
24.546
-98.41
5.1266
20.881
-19.177
-31.925
51.303
-30.641
-6.2737
29.955
70.556
-92.875
-52.985
72.922
11.354
14.589
-68.808
-19.51
-33.48
-8.4239
-7.686
17.181
22.003
32.107
123.26
-95.239
-67.855
77.355
-1.0082
-5.531
3.0995
-5.2987
-2.3179
51.269
5.2947
22.602
-18.588
-65.628
9.7906
-2.0461
-6.6863
-47.671
86.223
22.037
-81.986
17.018
-13.14
8.291
5.2396
24.405
-9.1799
1.9607
-70.804
1.8458
36.356
-18.639
77.163
-23.293
-90.224
37.116
69.437
-49.928
-45.548
6.3528
34.823
-21.266
75.759
83.586
-46.466
-39.716
48.188
15.263
-125.41
-27.345
59.748
63.443
-32.31
-85.904
6.7598
-30.057
65.36
131.13
-80.784
-93.562
-25.642
28.131
66.787
5.3817
-27.318
19.509
48.405
-55.492
36.557
-45.995
-4.2885
-11.977
-15.771
-14.343
47.845
10.841
51.9
-25.508
-86.534
-68.513
77.611
127.93
4.8802
-100.92
-9.9426
12.241
18.465
42.718
-19.088
-39.438
-26.843
3.4028
-16.36
-36.318
78.383
-10.42
-46.925
41.469
15.856
-23.887
89.946
-29.105
-47.175
-19.352
60.908
-49.841
13.619
31.558
-147.91
81.585
71.625
-12.893
3.9452
-1.5769
22.288
37.991
-32.644
-32.912
25.783
-20.027
-25.919
-0.28276
37.008
-64.431
-16.224
115.9
-43.765
-118.79
19.687
124.06
19.108
-20.252
-22.05
-38.245
26.718
-6.1489
26.003
-3.4579
-36.482
62.992
-28.117
-53.034
8.8394
5.2859
-29.599
51.473
41.712
-14.921
29.048
-29.321
-132.78
29.573
3.8784
16.843
-4.5118
-79.438
106.12
27.497
-54.948
109.27
132.03
-54.879
21.801
-37.39
-76.988
-47.589
-24.048
62.682
-46.607
21.273
-10.213
-23.239
22.016
0.89005
10.972
-32.58
-30.171
18.466
12.923
2.5212
-61.043
28.022
24.741
54.761
12.308
-22.292
30.124
-24.231
-74.827
-19.098
17.547
0.23114
35.014
104.01
-36.66
-59.221
45.224
-43.078
-104.79
-43.14
96.671
190.29
-48.898
22.948
-137.23
-57.085
82.522
1.3234
-26.305
-1.7511
-2.9184
-26.043
61.727
66.198
13.305
-2.8422
14.62
-89.068
-157.86
17.278
168.02
14.321
-141.07
96.012
133.94
-103.86
32.403
44.076
-52.195
-83.977
3.8016
18.035
-4.0619
0.17212
25.966
-15.857
-11.538
-29.416
86.411
57.195
-20.591
-28.213
20.868
-55.041
21.278
-24.5
-41.347
-2.6002
61.691
29.468
-101.28
-19.593
4.4213
64.558
8.8489
-44.337
-47.382
4.7111
-35.631
32.456
73.784
-5.5747
39.412
-23.399
-13.254
-36.462
-6.7407
12.835
-2.6504
-7.1311
19.804
18.425
-3.5767
-1.7004
25.225
3.6605
1.4438
9.9067
118.53
-40.838
-73.461
0.61055
-41.491
24.814
-32.179
4.5136
32.774
2.3977
-57.188
47.962
58.308
-40.606
75.453
4.3398
-68.137
-59.059
-32.67
-16.771
-8.7555
20.326
2.8204
-30.492
4.0208
28.403
-17.806
-25.718
48.751
76.696
5.4273
5.5945
72.223
-64.582
-71.204
86.124
19.644
-68.321
-30.71
19.047
-37.412
104.08
-7.7217
-52.757
-114.07
-131.75
136.53
93.571
-141.89
113.81
113.83
-36.139
-69.61
38.132
-26.831
44.74
30.341
-165.22
65.214
22.98
48.321
-4.5838
-130.15
19.135
72.035
25.29
-4.1722
59.903
-1.0726
-18.2
-85.945
68.164
-42.376
-59.32
58.064
2.9223
26.345
-22.596
20.166
-10.714
-17.098
14.282
1.0075
-40.113
17.686
-9.067
-48.208
63.227
-3.1196
-42.026
-13.27
32.883
56.073
56.223
-43.6
45.856
51.152
-111.36
-64.15
-6.3837
-12.157
22.692
20.047
-31.181
-20.026
88.939
40.671
-57.143
-19.463
-31.529
77.865
83.059
-23.15
-16.454
-24.428
33.325
25.874
-36.357
-47.481
-29.158
-35.72
63.363
-43.5
6.9478
-3.7275
35.512
24.416
15.773
-15.468
-42.11
23.557
-49.153
4.8217
18.312
-35.861
-5.651
-26.438
-106.46
141.56
86.358
-34.077
-24.635
-88.867
-2.7244
60.724
25.212
-15.72
12.774
-33.299
-33.72
10.356
-54.451
213.3
288.69
-308.46
-119.37
-35.592
173.74
-16.099
-40.098
-36.05
-55.51
69.581
75.933
-74.58
-63.369
76.656
16.835
-88.571
42.631
78.791
-106.93
28.326
-27.598
69.623
26.505
-132.04
94.088
-8.6215
19.535
-60.852
-7.9665
76.887
-37.366
-23.509
4.2425
-29.716
-3.4986
18.037
74.04
-33.758
-0.79501
40.089
-11.745
14.539
-95.43
20.414
-24.378
5.5058
114.35
-30.21
-9.7052
23.452
-106.34
84.837
-10.248
-64.963
14.593
20.72
9.6157
27.658
2.9451
-3.8954
-88.111
1.8063
39.392
21.433
33.769
20.63
-67.488
17.445
-53.502
14.459
69.717
-50.568
31.198
-35.149
25.337
-1.4173
-32.441
5.2118
-11.305
-2.1986
16.022
91.016
161.32
105.69
-582.88
-226.19
423.66
165.61
-29.617
-91.375
-6.739
75.703
-128.95
59.833
68.993
-35.964
56.745
-47.058
-23.03
-16.215
-99.823
32.28
47.887
26.569
82.977
-82.551
9.3924
53.101
-86.808
-40.43
72.38
-8.296
-32.086
-17.658
13.467
9.995
-84.903
-10.579
103.47
-28.989
-76.912
4.0237
58.987
21.805
-29.322
0.84249
54.869
52.835
-22.676
-44.573
5.1186
4.7355
19.204
1.9231
-80.263
27.37
52.439
46.445
-9.8218
-91.555
3.0075
19.7
19.621
-8.2606
3.1589
27.699
3.0105
-24.469
1.9057
7.33
-13.355
9.9477
22.655
-10.57
-20.112
3.998
6.6069
-8.9007
1.5992
12.702
-3.2667
-4.1686
10.701
0.36442
-11.294
4.455
7.6139
-10.649
-2.4237
8.9172
-6.6885
-38.457
23.396
38.84
-6.1288
1.0648
-3.1701
-21.021
-19.933
32.639
13.363
-4.2139
1.7596
39.341
-71.518
-19.855
63.739
-4.8726
-37.112
10.84
-2.1703
21.391
36.841
-23.383
-29.512
-13.07
15.602
-31.39
16.772
3.3028
-31.904
6.4614
-49.678
89.425
80.227
-67.559
-61.327
-34.637
18.74
28.645
-44.716
-38.499
130.64
11.827
-52.109
57.322
-52.668
7.1891
-14.628
-43.459
13.015
77.483
99.321
-54.265
-92.343
-45.675
27.711
65.044
-55.744
-33.043
9.0558
3.0489
-10.907
8.4764
22.877
25.25
38.098
31.695
-5.8622
-20.997
-124.79
-20.744
63.165
10.915
54.759
-17.5
-32.146
11.399
23.148
31.311
-2.415
-26.854
-45.742
-87.739
137.99
30.56
9.0573
-46.949
45.631
-42.65
-9.7702
-33.806
40.909
39.555
-17.049
-65.529
-104.8
127.65
-13.937
23.569
57.489
-50.087
-49.283
23.377
-29.7
-4.72
47.541
55.402
-27.137
5.1705
-3.9949
9.3146
-81.524
27.808
-19.933
103.03
-26.057
-53.931
3.8234
-16.232
19.439
87.669
-66.656
-99.941
27.289
51.338
-27.033
-62.06
80.268
34.322
-22.51
-16.985
-2.0187
16.186
-10.069
0.21115
17.431
-3.673
-12.347
-36.989
-77.769
121.62
52.385
105.46
81.86
-98.116
-54.811
13.413
-59.73
-35.786
22.847
-13.254
-5.0965
0.072323
-0.49425
-69.952
35.922
-60.474
-47.374
178.02
4.0122
-88.131
-44.177
103.84
23.158
20.18
-18.231
-4.0455
3.2825
-132.38
60.756
5.4365
54.237
15.367
-57.943
29.775
20.387
39.523
-9.0603
-18.182
-51.826
-39.963
30.891
-10.61
5.5693
-35.119
-44.084
145.82
-4.5784
57.496
-22.064
-66.528
10.843
-63.774
-32.249
9.5719
-162.75
267.24
141.08
-70.261
-6.0845
-125.39
-124.47
149.29
54.203
-59.813
-4.8147
2.14
-19.699
119.78
-58.612
-72.143
39.756
16.225
0.75339
-27.913
-32.375
22.481
49.429
-18.366
12.488
-9.4113
-44.248
-43.705
26.448
12.446
-54.72
73.436
28.773
-2.0667
40.482
-42.645
-1.0997
-20.321
-9.8977
3.4697
9.7482
-11.176
1.7805
13.554
0.83721
-2.4137
12.83
14.379
-7.9186
-14.753
10.669
26.691
14.205
-22.943
3.8997
-12.491
-9.2812
58.847
-75.513
-29.731
67.324
-3.5322
-25.134
-85.958
-4.0163
136.28
-22.434
-47.81
-46.121
39.737
21.378
-16.137
50.788
-35.061
4.6519
8.7656
-1.6616
-32.464
50.696
35.556
-60.62
50.617
6.671
-40.194
-27.704
1.7408
10.739
-14.163
-4.9253
17.786
6.8573
-11.205
11.741
-10.889
-24.363
39.782
55.844
-55.691
14.644
-54.494
25.601
4.6075
45.58
-3.9316
-53.195
48.567
5.5209
14.33
-43.058
-14.757
-94.828
-34.505
81.855
24.915
25.379
-14.237
2.0132
20.853
-0.63986
14.619
33.336
57.271
-65.94
-119.35
-8.2703
-17.434
28.822
22.107
5.4111
8.4219
29.087
1.0564
-9.6648
11.004
0.67133
-7.2814
10.161
10.164
-10.021
-0.31351
14.078
-6.9717
-7.926
7.2941
0.54438
-10.445
4.265
9.7843
-5.6795
-3.9318
9.1761
-1.3635
-11.29
3.9305
6.2917
-12.865
-2.0438
10.265
-6.1611
-10.656
8.4263
5.8904
-12.721
-1.145
13.089
-6.336
-3.755
10.183
-1.2214
-13.253
6.6797
8.4576
-7.7717
-2.2952
12.265
3.6064
-12.993
6.0938
10.18
-1.0912
-2.7797
49.359
47.611
75.844
-85.824
-135.89
-81.245
-11.846
185.25
-27.676
-4.6686
-18.981
-34.27
-47.391
106.31
-2.678
20.928
-44.688
-117.17
7.9986
70.896
-39.676
66.059
45.107
20.961
55.639
25.496
-51.873
-37.069
-91.781
-79.726
27.355
-7.3628
44.192
53.106
16.403
56.152
-70.322
-95.446
92.218
103.18
-15.038
-69.052
-9.2498
-24.334
28.033
-51.536
-10.13
77.192
-17.949
-5.6236
-10.445
27.402
27.478
-33.112
48.412
-31.236
-33.738
16.921
-49.276
-20.523
10.25
-4.5425
71.614
22.638
43.595
-28.68
-59.542
8.9415
-9.6435
42.755
-45.038
-66.289
13.77
22.151
62.943
-14.619
-28.237
27.431
-20.915
-34.491
0.29806
93.811
-49.219
53.037
-31.955
-14.418
-28.853
48.817
-70.791
9.2711
58.599
-45.318
0.79035
35.52
-8.6995
38.965
-61.394
5.2768
141.06
-86.533
-87.178
40.024
9.9712
7.1377
-32.484
-67.004
56.451
31.844
13.069
18.608
15.517
-17.601
19.08
-63.042
10.715
38.351
1.733
-112.36
37.066
38.576
2.2057
9.0252
-39.282
76.306
-93.333
-31.431
220.58
-68.778
-156.92
58.758
45.234
5.7585
-11.282
-4.0552
-16.589
6.2239
-52.127
-24.963
47.259
49.4
57.011
-30.009
-74.592
58.057
27.33
-43.06
-82.425
113.61
-11.488
-56.633
68.969
-13.356
-99.994
12.8
16.748
-68.461
94.212
112.13
-39.511
-153.01
3.4613
113.06
-90.725
68.346
68.586
-99.183
-62.993
55.52
52.232
-40.634
62.893
24.178
-11.861
-43.442
-35.452
-0.59356
73.126
18.786
-46.625
-36.342
-30.692
-27.979
66.456
-35.456
4.8881
52.044
100.81
-142.25
16.023
19.741
36.953
17.458
-126.17
45.715
58.434
61.176
16.363
-62.565
-99.024
37.671
-9.3243
-42.456
11.282
40.478
-30.346
-36.434
80.585
17.415
-61.13
-29.166
57.056
14.457
-63.253
10.769
111.01
-10.819
-81.281
135.7
-44.865
-127.4
18.73
54.687
44.472
-25.457
45.555
-116.45
-63.338
71.246
60.734
-9.3613
-58.9
4.0475
114.2
-24.522
-14.834
2.4352
-20.282
-9.2086
-43.129
90.463
-36.767
-97.089
98.486
-13.36
-39.661
61.972
61.191
-87.026
-65.641
77.304
-86.427
-51.842
86.599
5.0822
11.589
71.111
-31.349
-34.343
72.525
-53.961
-28.521
-11.864
42.327
21.773
-56.017
34.517
5.9978
8.085
5.6012
7.3348
-8.837
-4.2045
-12.089
-1.7895
-17.203
6.6094
10.757
-0.91232
-53.844
92.855
-50.98
-20.01
50.139
-25.451
24.169
-98.355
118.14
-4.7774
-46.117
2.31
38.309
-10.673
-34.214
94.818
-7.5605
-16.208
-68.387
-22.749
34.157
-29.415
-10.541
-85.07
44.582
13.404
116.75
-56.796
-31.114
46.336
38.298
-63.613
62.715
-116.09
89.625
-40.008
35.31
7.0042
-73.132
26.218
90.817
-57.344
17.726
-15.021
6.3281
-47.793
42.523
-13.219
1.1424
26.485
12.706
-44.291
32.336
-57.561
-78.995
135.31
-17.014
50.359
18.801
-19.657
-70.127
26.334
-82.67
-22.891
47.263
13.984
52.96
-20.734
-50.31
30.537
36.249
-100.72
98.087
62.206
-105.98
61.975
0.072596
-100.38
-16.947
106.94
4.7066
-39.479
3.0828
38.128
-46.598
40.102
54.707
-76.364
-49.65
48.936
17.993
11.894
58.666
29.744
-60.581
-175.59
60.746
80.749
-81.487
14.357
-6.3865
84.186
-13.514
17.808
-7.5048
-56.315
-38.673
12.762
38.209
7.9745
-71.987
68.913
21.414
55.412
-3.1293
-80.018
10.614
0.55956
-21.137
-36.243
23.293
21.813
21.566
-11.361
71.438
4.145
-39.486
-37.339
-34.975
57.153
3.8123
-37.359
-75.425
67.212
13.807
-24.557
-46.935
106.6
19.256
-29.97
42.834
23.376
-77.843
-25.418
-3.319
-13.301
-21.058
105.67
-25.504
-63.664
67.192
8.8337
-40.595
17.005
-7.7544
-20.558
16.34
39.703
-0.066478
1.5149
-41.255
-19.877
-17.377
1.5463
121.68
-91.98
-48.411
18.029
60.571
21.519
-23.669
-35.65
43.351
-30.316
-12.901
57.53
2.6988
-38.399
-65.554
-65.061
10.504
98.045
26.465
-30.85
-27.821
10.907
-4.4931
-5.558
34.234
26.726
-8.7359
10.154
0.91916
-18.377
-5.0342
23.01
-4.0539
-1.1975
20.851
108.01
127.26
-188.4
-68.647
-34.733
100.29
44.114
-44.818
-77.969
20.492
-18.406
-21.767
9.797
31.786
17.445
-33.216
-55.936
0.6191
-40.353
11.016
45.953
-1.9413
-2.8525
9.5981
-10.824
-6.9241
14.362
0.93763
-7.2796
25.245
18.238
-10.985
6.1803
19.318
-7.6903
12.745
27.95
-3.9644
-203.82
61.919
135.93
-58.061
51.127
29.815
12.03
6.194
0.52303
0.0085386
0.45249
11.158
-55.409
-12.227
32.384
-31.087
5.3128
0.3579
-33.028
-19.165
30.332
-10.26
-3.9246
8.1391
-6.1481
-8.0794
10.985
-1.3817
-7.1346
8.1775
-0.51155
-9.3149
5.8242
-1.5115
-10.343
9.121
5.3906
-11.686
3.8514
7.9343
-12.513
0.13731
14.581
-5.8186
-6.9062
12.693
1.9289
-11.831
5.912
6.2985
-13.103
6.0471
17.177
-10.448
-15.079
12.967
5.2433
-6.238
1.8772
4.7608
-0.18992
-17.773
9.402
3.054
-11.562
6.0491
9.5285
-11.641
1.8835
11.917
-7.3336
-4.878
12.56
-4.5042
-8.3897
13.254
0.22251
-14.107
9.2091
8.5871
-15.125
-1.4178
16.644
-8.074
-9.5984
13.862
5.4333
-14.254
4.2506
13.852
-8.259
-7.9672
12.089
1.2886
-14.088
4.8262
10.511
-14.358
-5.0226
16.413
0.88252
-12.766
13.707
13.711
-29.818
-10.293
12.447
4.6271
-53.794
-2.3203
41.857
-7.4158
71.127
32.26
-58.983
-28.594
38.912
0.78896
-72.123
-9.6642
42.742
-40.973
67.566
3.7355
-56.822
69.798
-6.2284
-37.872
-14.677
-30.124
67.238
6.2094
-107.09
87.324
35.604
-38.813
1.7777
1.3572
46.094
-63.255
34.844
-26.421
1.4548
-27.7
81.049
-41.183
7.1828
86.979
-20.573
-25.93
-36.764
-1.6268
-44.378
-37.499
-37.938
105.43
-95.734
57.025
21.027
-21.501
76.165
3.1624
-23.834
-17.96
-66.26
-54.315
99.816
23.825
19.603
-35.567
2.4678
-9.0803
6.4438
-1.617
-26.69
56.55
55.697
-86.351
-20.527
-95.252
-12.403
98.307
123.85
-19.661
-102.36
-11.893
48.429
67.186
-77.134
34.123
-26.743
-47.946
10.068
93.084
-22.05
-62.31
157.33
-31.572
-82.667
25.747
-31.341
-33.105
19.328
-11.1
-6.2735
-48.914
-39.928
154.13
-28.158
-64.477
33.353
40.313
-129.7
97.31
38.279
-27.152
-129.13
141.46
67.573
-96.643
-29.023
5.8548
19.665
-14.345
20.934
-1.451
12.149
77.525
-45.896
-40.825
-10.797
68.12
31.436
-105.45
18.237
3.3962
37.184
-2.8379
-47.946
1.3086
48.462
30.812
-36.864
-6.2114
3.0495
-38.068
59.734
-12.862
-17.783
-6.9829
-7.5201
-114.22
33.521
46.779
81.076
-4.0689
1.7235
60.321
-39.102
-7.4434
-39.378
-17.01
-20.851
21.316
7.2128
-68.071
-44.625
-43.541
96.614
117.61
-57.052
-69.306
42.593
97.59
-56.006
-64.483
4.0699
56.426
-14.752
-30.11
75.682
25.418
-103.24
92.203
-171.23
3.2252
160.1
-32.584
26.978
-13.473
-12.739
-9.3888
2.0352
9.8354
-9.7465
-15.81
41.404
8.8785
-77.722
15.281
2.3791
-15.706
13.231
21.39
-11.317
3.9525
15.37
2.0677
-0.74656
5.1781
-11.683
-10.444
4.4617
-0.87238
-11.251
1.624
11.313
4.8927
-3.2938
4.7682
-0.1778
-14.159
-2.6037
5.6005
-5.2109
-2.5058
11.706
-0.81226
9.1022
10.125
15.768
-12.807
-3.5791
-19.926
-19.426
-4.4223
-2.3546
-6.1129
-10.411
-48.421
69.22
22.249
-31.478
143.41
-25.339
-100.97
24.8
48.657
-66.444
-20.971
-14.752
34.135
3.3487
31.308
44.86
-60.108
-15.104
-57
9.5394
33.327
-38.644
32.062
-0.26432
17.337
-18.017
-32.693
36.454
101.89
-65.865
-27.484
25.021
-77.301
105.3
-35.359
-11.343
38.869
-80.335
18.115
79.589
-69.029
19.57
111.52
-121.26
19.527
27.203
-8.9993
15.036
-61.345
13.249
-31.897
20.022
90.628
-94.113
-38.301
23.434
-35.325
62.74
29.086
78.131
52.35
-85.115
-90.096
-37.753
8.4774
58.776
-130.79
-116.62
151.59
51.811
11.382
-3.9584
0.36405
3.9821
-8.5382
0.7134
19.337
10.223
5.9148
46.358
81.879
-3.8211
-132.18
-19.017
18.141
47.935
-39.912
-30.557
-13.439
13.262
15.603
12.586
-10.714
69
99.444
-133.61
11.216
-11.176
-24.167
-23.988
3.0002
-12.446
-4.3894
17.214
2.9286
-8.8674
8.5465
11.556
-7.4838
-1.8947
13.662
1.3845
-8.5461
8.2656
13.543
-5.2876
-3.7793
11.798
1.5208
-7.2847
3.1708
8.9226
-2.4816
-1.2317
2.3709
-3.3208
-11.531
1.9615
2.2763
-8.7469
-1.4572
7.5626
-8.7517
-4.0176
8.2501
-4.2433
-3.457
6.8599
-2.8716
-4.5683
8.7557
-2.406
-9.2647
4.9392
7.1009
-5.9963
1.7002
9.3748
-2.7688
-6.3379
6.7089
4.6158
-5.4033
3.9566
6.7013
-6.9505
-5.8417
5.1294
0.079918
-9.9479
1.1865
8.3534
-6.1856
-5.9011
8.8617
2.33
-5.5509
5.598
7.8057
-6.0174
-3.1597
7.7411
-0.42239
-9.4071
0.41066
10.019
-3.5952
-7.8434
7.102
3.2567
-7.7901
-1.0397
10.481
-3.8286
-6.3168
1.7975
13.713
-7.9256
28.337
-3.4706
26.645
-1.1747
-9.665
-6.7029
-12.319
23.886
-14.707
-2.6605
-62.862
-58.108
61.606
-2.0797
11.566
33.226
34.578
-17.853
-88.537
-10.107
26.306
148.06
2.2099
30.738
-460.32
-75.673
327.36
8.0877
95.348
-19.358
-40.924
-22.556
-32.524
49.211
39.114
-39.877
11.205
21.896
-0.49166
-11.51
15.954
-4.5435
1.5852
13.393
-1.7533
-51.667
33.998
102.93
-92.656
-77.395
48.335
34.143
-17.057
50.265
55.605
-20.475
66.306
-223.38
-123.12
148.23
-7.7157
5.3747
-43.232
79.81
13.118
16.471
22.995
-27.495
-58.735
-40.213
192.64
-21.394
-74.476
32.48
-79.163
77.084
47.85
-25.825
-115.26
-81.532
31.627
32.149
26.874
14.847
-4.2558
21.48
-0.87935
-9.0591
18.445
6.2236
-12.083
12.399
6.822
-12.979
3.8271
15.818
-1.9976
-8.337
9.5753
8.1166
-9.4098
-4.7323
10.253
0.013251
-9.3423
4.3265
5.8266
-8.6584
-6.0291
7.07
0.90008
-9.029
-0.92879
3.655
-5.3572
-8.5809
6.9722
7.0182
-5.2103
0.0023239
34.832
13.208
-132.88
-37.999
109.26
131.51
12.234
-43.044
20.028
-21.905
23.725
-83.803
-191.1
196.8
38.242
-62.096
-10.12
-12.119
-32.271
-18.061
51.21
62.117
-64.609
-23.836
36.238
46.171
-31.726
12.661
-17.582
-106.66
128.09
-7.4879
-81.452
-4.1409
80.343
-38.053
-14.554
15.014
20.038
9.5317
-45.682
79.327
-15.805
-107.99
74.226
61.472
-63.625
-42.484
30.168
44.825
22.399
20.791
-102.22
-17.785
72.159
-2.9494
-74.127
3.1999
21.52
19.062
-22.546
61.696
7.3234
-72.628
16.717
43.843
3.7963
-49.282
75.832
1.0452
8.5031
6.954
-17.787
-93.214
-29.604
96.074
8.3993
-89.417
69.962
50.127
-44.132
-13.92
-3.7496
32.353
-37.285
-95.679
94.326
53.926
-64.376
-24.207
60.718
-29.32
37.985
-65.583
-33.94
92.844
80.952
-76.13
-7.9452
53.188
-91.079
-51.591
67.359
-14.907
0.99191
-16.29
18.822
11.362
-43.258
24.387
-14.096
-5.25
69.185
-13.186
-17.266
47.909
4.2878
-18.748
-59.902
13.756
22.666
-8.6569
24.976
-38.66
50.438
-36.036
11.279
-45.822
45.12
8.7822
19.402
-3.6147
-43.336
46.314
-43.939
-53.629
13.773
58.239
-11.978
-44.579
30.899
9.9012
-74.33
28.514
52.493
-20.016
-2.3584
-29.971
22.477
12.467
-12.937
5.7967
-8.0372
31.621
-9.882
40.192
-10.214
-0.70431
15.53
-43.634
-15.603
25.759
-17.608
6.991
46.353
-28.722
-44.658
-11.46
34.29
24.99
-47.477
-19.598
83.147
-18.397
6.5591
50.691
-84.23
-17.674
93.815
-39.225
-69.902
9.4979
45.795
24.929
13.302
-76.775
23.35
19.503
-11.838
-8.3068
3.5301
81.911
-29.083
-95
19.271
19.966
7.9422
-15.432
-8.776
30.579
22.74
-15.832
-52.93
7.6899
52.15
-33.157
-4.2844
-22.52
-1.9188
5.2024
35.632
4.3425
7.1081
32.622
-67.448
25.294
-61.165
-9.3466
199.78
-66.035
-43.07
21.61
-36.037
-1.2777
55.15
-50.618
41.349
-19.369
-28.745
-52.802
37.66
-32.349
19.539
21.865
-13.011
20.161
-0.50729
1.6019
12.254
-64.68
37.442
34.197
24.499
-75.366
-12.296
60.394
-13.125
-11.395
-2.2089
14.836
-114.49
5.3544
52.413
-15.782
42.03
10.874
3.3331
41.87
-62.846
-23.736
67.149
-51.058
-8.6261
87.641
-1.5467
-35.799
29.853
1.9121
-38.679
-44.374
73.132
13.006
-33.014
8.7925
-37.521
34.456
-36.815
14.926
2.6983
53.082
7.7439
-23.327
-16.185
31.995
-75.791
8.1098
-9.1483
-18.504
-3.8655
38.606
15.023
0.69446
9.4755
-38.497
-57.508
81.021
22.661
-38.001
-18.95
45.835
26.836
-27.764
-18.635
7.0277
41.974
-25.081
31.763
-51.46
-56.299
-9.2907
85.63
-14.736
45.602
6.3843
-101.35
74.541
4.3744
-48.843
-9.7971
11.863
16.762
16.374
28.115
-62.354
10.772
12.817
8.8115
12.402
13.478
-31.319
-16.51
5.8241
2.2978
1.1108
2.7809
26.083
191.02
270.91
-5.8321
-557.51
-349.92
437.15
171.82
-50.728
-167.49
48.994
-191.44
-210.83
182.82
-134.75
-225.34
-27.981
220.07
325.24
32.455
86.65
12.416
4.615
9.5361
-40.69
-58.186
34.985
73.346
1.3456
-9.5272
30.964
-109.85
-58.225
129.71
-0.85196
-24.544
-22.183
-26.485
79.409
-84.381
-26.543
19.384
82.979
-65.33
-111.86
85.703
135.36
-52.866
-130.32
6.6514
39.677
-11.948
-56.262
31.23
7.9111
-3.8491
-43.154
53.574
-22.548
-23.117
61.897
-27.883
5.3539
19.341
16.943
-9.4443
28.331
-16.724
65.579
-31.138
-42.395
-9.5568
12.304
102.81
-66.75
-13.96
-50.51
76.904
-0.35136
-54.586
-60.247
33.294
81.207
-52.125
20.529
8.9234
19.631
-15.915
-63.719
37.856
-7.7336
-94.879
41.818
73.495
13.542
-4.1924
-63.949
-5.1866
71.175
-39.816
-21.832
2.3178
-1.5451
-95.791
122.83
38.943
-64.417
37.655
-22.889
16.491
22.569
36.826
-33.396
-43.484
-17.195
33.202
112.93
-41.78
-60.162
32.679
-76.792
-37.275
9.3999
43.544
6.9225
9.7903
41.264
-34.371
-70.069
-11.604
70.51
24.71
-45.909
-16.751
87.641
-1.9269
30.431
-45.678
-13.588
-77.539
19.036
73.373
-32.989
-22.746
85.556
18.584
-102.08
-2.7109
22.106
-12.847
48.083
-23.047
30.702
3.4443
5.2308
7.5705
-71.362
-12.879
18.739
43.187
13.173
-11.826
-154.91
-13.995
103.92
25.617
-37.223
-15.504
11.364
39.362
-24.725
44.914
9.9574
-15.299
3.0084
-48.231
-27.65
45.674
26.071
16.468
-5.5319
-11.556
38.38
-13.284
-2.3627
-26.887
2.8675
22.138
-75.699
-50.829
12.127
69.248
18.419
16.278
1.9305
12.472
-18.037
-7.8113
12.292
24.199
-75.688
10.399
47.396
-47.01
42.402
-26.99
25.367
-75.352
55.113
18.756
-28.235
1.2403
8.2801
106.45
-25.098
-124.53
-30.541
2.949
46.952
32.652
-0.47059
-16.07
1.4835
13.229
-6.0568
-7.4148
11.309
7.2413
-12.704
1.0476
15.224
-3.6715
-10.632
11.192
11.057
-12.36
-6.737
10.612
0.52449
-8.3033
6.8635
6.1067
-12.21
-6.1522
8.3465
-5.1327
-8.8227
9.7343
5.3134
-18.155
23.714
65.129
9.0315
-37.705
-23.338
-12.231
-17.619
-0.55259
12.673
-7.6269
-11.811
5.0504
-10.697
-30.112
-9.3103
13.634
8.8266
-13.073
0.62663
17.811
6.02
3.6222
10.253
9.4286
-4.0537
25.908
14.985
3.8672
-45.25
-23.589
12.359
7.0286
77.957
-2.2063
-44.659
-32.189
6.0154
29.09
-25.343
-37.977
10.84
-35.31
-30.94
4.9174
42.946
21.458
9.8769
-5.2588
-9.8608
121.75
-107.29
24.91
46.753
-21.45
80.545
-109.36
-88.139
62.989
-30.15
4.5072
62.627
-71.899
-33.02
63.856
2.6996
46.157
8.8626
-24.557
34.125
29.435
-101.3
2.8082
72.067
-48.785
-18.803
-14.61
2.847
88.649
-57.621
-46.159
-25.248
53.559
-8.6343
48.927
13.567
-38.236
14.394
-6.4447
46.172
-74.444
9.7204
72.573
-37.721
-40.574
-27.789
30.239
-22.296
-5.6109
37.773
24.273
-1.9378
-37.826
-15.479
28.411
66.795
-43.754
3.0217
-20.285
-0.34574
-23.921
-8.2506
55.443
-24.053
-11.44
-17.676
20.119
-3.5444
9.7926
10.65
28.466
17.583
8.436
-60.225
8.2732
35.517
-16.979
17.11
-66.317
-9.7677
20.857
1.4105
-61.233
41.08
90.114
37.13
-33.945
-57.574
10.195
-36.815
-11.295
43.729
51.231
15.966
27.352
107.51
-201.19
-69.017
104
-63.342
31.443
24.958
7.8559
-4.4975
-28.676
-9.9063
-36.687
-36.669
12.565
12.074
-47.025
86.82
-33.789
-65.22
53.25
-1.165
-59.195
-57.045
103.48
59.062
-11.041
-19.726
-2.5246
86.497
-74.025
-2.7687
16.764
9.5055
31.508
-64.926
36.834
74.66
-94.963
22.239
34.414
-0.77443
-17.656
-56.496
-11.438
77.727
-50.1
-0.2338
77.059
58.199
-61.684
-26.002
25.643
-199.64
22.673
65.663
30.479
74.068
-24.708
7.1273
-47.274
-55.665
37.155
33.919
49.255
-12.601
-15.627
-43.751
11.465
62.129
-27.177
-51.166
-50.287
110.11
13.379
-77.915
-9.94
-1.8196
14.287
-54.779
64.989
56.347
68.332
1.7154
-40.912
-10.925
-63.94
23.269
58.469
-44.981
-74.795
8.1324
16.403
-8.1097
-29.878
72.164
-1.8952
5.8916
57.134
-61.493
-58.163
35.885
-17.085
11.37
40.668
-25.691
-3.6606
37.636
-24.091
-6.2949
56.587
11.695
-104.92
-24.864
-16.707
31.599
28.909
-19.973
-1.4278
42.062
10.79
18.494
-41.493
33.706
109.35
-114.42
-21.576
33.33
2.4504
-91.37
25.669
17.361
45.233
41.639
-63.55
2.0457
-105.44
52.4
40.65
-11.276
37.666
-33.788
27.381
-31.427
27.466
5.3779
72.216
-77.608
-46.552
14.457
38.945
3.6019
20.671
-23.293
-41.396
52.918
-9.8681
-63.387
53.736
52.657
-89.767
15.342
-2.2096
2.6698
33.894
-77.777
-7.1236
-8.486
73.157
63.123
-38.262
-127.02
55.996
40.098
18.289
40.348
-21.188
-16.916
-66.566
-6.8091
32.392
90.66
31.155
-156.52
-5.7298
59.462
-1.4317
-1.5251
20.574
-21.47
66.208
-33.417
-7.991
-43.758
9.94
60.76
-46.047
-48.563
112.36
11.774
-39.6
-10.525
2.4665
-26.468
-33.832
-8.4735
-7.1606
29.286
68.497
22.916
-80.809
-55.365
-6.0077
-14.771
105.7
-2.2224
-34.609
49.411
-28.145
-35.739
10.53
37.1
27.704
-45.308
92.37
-21.064
-147.01
-109.06
116.34
43.864
-13.614
13.134
108.13
18.291
-63.762
1.7693
-69.014
-46.878
89.669
-10.865
-149.2
31.604
126.25
105.73
4.5974
-88.839
-42.728
-44.202
38.267
-13.028
-39.099
112.42
25.303
-75.446
-81.284
81.776
-15.32
3.3189
63.636
-0.11531
-47.356
-8.9722
35.198
10.735
-35.227
-43.814
33.274
17.916
18.793
-59.614
-14.881
46.33
31.275
-47.999
-33.91
57.624
26.66
-15.904
7.7389
44.816
-85.606
15.445
-5.8147
18.15
-9.2553
40.538
4.6726
-108.73
65.649
-38.832
11.51
18.253
17.506
-7.0049
11.926
5.0563
24.911
-63.071
-13.454
49.62
-12.968
-46.321
80.419
88.966
-106.2
-33.797
-17.287
-15.852
68.332
-9.8744
-45.022
31.278
34.788
18.287
-29.407
-78.588
14.276
23.187
-41.313
-35.533
71.488
-52.605
50.518
80.627
-17.015
-14.633
-17.179
15.501
-7.0844
-33.899
-29.435
-18.208
77.676
1.4218
-35.345
4.2252
69.699
-70.542
17.775
-13.972
69.203
-59.91
-13.791
46.272
0.76859
-94.392
-18.611
91.416
-30.749
10.63
71.937
12.567
-33.439
-57.939
13.152
55.493
-47.711
-62.364
-17.666
120.63
-33.197
-5.9054
9.9473
10.133
-29.835
10.741
27.918
-51.666
-44.463
19.37
23.145
22.41
66.824
-38.27
30.588
9.8474
-101.54
35.42
0.57576
-23.352
-26.975
22.977
4.3807
0.55333
68.756
-20.825
-9.8577
2.3835
-50.801
12.205
51.508
-21.772
56.319
7.3954
-126.74
72.437
-7.1483
-76.307
-4.1453
59.713
12.868
45.305
17.117
-122.2
-2.7699
80.632
47.253
-85.668
21.787
51.257
-40.52
24.366
-49.131
-67.016
43.982
25.598
-7.7287
17.273
-2.2467
-55.295
19.337
65.821
-19.719
-81.631
19.039
12.591
-30.375
-23.38
35.441
12.993
52.539
22.417
3.0107
6.9694
12.546
23.115
-129.63
-53.405
66.683
64.998
-24.591
12.4
-38.092
-24.822
44.071
13.594
35.186
-8.9126
-6.8504
-45.46
11.815
35.4
-43.049
15.992
34.854
-6.3086
-68.248
8.7933
-14.649
23.918
101.98
-66.286
-57.18
44.615
26.007
59.311
-90.22
-11.552
17.377
-51.585
54.07
-8.877
-59.182
10.053
59.32
-40.973
15.866
-44.329
131.28
-8.6924
-91.808
-38.915
-15.687
80.076
20.692
15.714
-26.228
-6.3281
13.228
26.389
32.246
-41.217
16.862
-53.427
34.218
0.69407
-41.57
-38.602
66.794
59.13
-12.583
-70.643
-3.2684
-1.979
-9.2806
28.244
3.43
-13.12
-30.711
-11.222
61.802
-21.594
-14.675
-54.896
34.609
42.742
-96.059
18.901
29.823
40.171
-63.088
15.325
60.908
-25.384
15.252
-10.957
-59.66
39.393
78.042
-57.803
4.9075
46.191
18.273
-49.627
-40.807
-27.364
35.962
17.495
46.649
15.492
50.085
-25.604
-80.763
-0.6122
73.733
-78.785
37.734
45.321
-84.9
60.011
3.6607
-66.114
-30.65
9.0211
35.682
-13.949
-20.164
16.581
24.111
-11.631
-17.283
33.037
-60.56
-52.597
63.958
32.74
7.7789
59.015
16.792
-128.46
36.055
-13.358
-7.0007
41.202
-32.504
69.28
-40.272
-7.7977
-9.0091
21.363
-7.2368
5.3399
-17.945
46.732
23.859
-35.146
-10.641
-10.393
-53.284
18.28
48.971
-26.646
8.4264
-46.04
25.09
18.385
40.283
-20.279
10.606
-60.503
14.563
-27.61
-0.74477
38.458
39.738
-64.212
81.671
2.2204
-103.43
94.675
-24.968
-72.211
32.607
57.645
55.42
-98.434
-41.516
49.43
10.606
12.491
24.787
-131.62
54.472
14.397
-4.6826
-31.443
56.121
18.766
-7.4876
15.396
9.2002
-65.799
0.5969
17.76
-6.6865
-1.5244
13.956
-3.6124
-6.7228
10.462
4.0449
-4.0845
11.024
8.6203
-12.563
-11.05
9.2865
3.6995
-9.1697
2.9107
7.301
-9.4801
-7.8567
7.8921
-1.7569
-16.024
1.3032
13.909
2.0111
1.6416
8.1034
-3.1201
-15.683
5.1114
20.282
8.2435
-25.631
-20.204
-10.731
-34.317
-1.4456
48.662
-9.2249
-9.3001
12.779
16.193
-2.4019
30.362
26.932
106.78
-8.2695
-104.73
-45.868
6.9814
7.4658
3.4974
-1.0755
9.0987
3.7406
-9.9627
-2.3771
-0.52002
-12.135
2.9582
11.877
-6.5172
-3.2049
5.7513
-7.8102
-3.9805
9.3963
-3.5377
-5.9851
7.0975
-3.3371
-9.1297
4.4203
1.9789
-10.465
-0.22072
7.4638
-9.1356
-5.6618
8.3904
-3.6348
-10.102
7.6543
4.046
-15.009
0.64742
12.11
-7.4548
-10.36
9.9659
2.9961
-14.216
4.2768
18.161
-0.9367
0.38657
17.723
2.2804
-17.373
3.1477
11.458
-9.1041
-9.7213
12.007
8.3897
-11.445
-5.6676
15.242
6.0757
-17.441
2.2785
4.1424
-6.399
-76.953
35.034
20.967
-27.325
33.85
47.175
-5.0096
-52.404
36.957
128.57
-75.857
-98.636
76.658
-23.102
-36.9
26.752
69.631
17.144
-214.06
-4.9855
27.654
3.486
132.15
146
-67.362
-87.679
8.8451
9.4334
-33.321
7.2862
-32.003
-27.353
51.003
13.87
-28.18
42.016
37.2
-66.341
-53.972
1.7855
27.559
-21.95
-19.066
22.242
1.5918
-5.7923
17.1
7.9904
-46.916
0.86652
37.812
6.2875
-19.048
16.249
25.714
-37.128
-27.175
35.19
23.146
-13.283
13.463
33.036
-17.314
-26.816
21.049
7.7333
-15.186
-10.515
9.2207
-198.6
350.37
-64.758
36.033
324.56
-181.21
-108.61
-162.62
-71.171
-34.65
-19.794
7.9046
29.307
78.528
0.24137
-35.932
-118.98
6.8294
128.2
-2.0755
45.926
-22.187
18.284
214.21
-9.6463
-270.25
-26.289
49.703
13.026
-4.2675
28.955
5.6027
-17.007
6.822
15.661
-16.726
-8.6452
20.657
0.6961
-21.781
7.3873
14.031
-16.051
-18.617
16.03
11.814
-17.821
-6.8226
20.002
4.4046
-21.493
-2.7154
18.34
-7.0113
-17.798
13.629
12.152
-20.248
-10.606
21.204
5.3547
-22.058
4.6713
24.766
-1.2141
-22.156
12.57
19.168
-11.306
-13.477
15.971
7.9312
-22.817
-6.4134
20.985
2.5002
-27.616
-0.52081
20.853
0.30151
-21.377
9.8398
20.32
-6.7032
-16.035
16.12
12.099
-18.883
-6.2833
19.587
-1.0862
-25.006
7.7617
24.786
-6.3564
-16.599
16.601
12.056
-10.501
-10.106
18.475
5.4158
-21.25
-9.9793
10.705
-14.203
-14.398
28.032
13.674
-19.067
1.9888
19.164
-11.969
-19.421
16.578
12.402
-18.874
-5.9889
19.448
-2.5242
-15.187
10.127
11.759
-18.083
-6.5298
18.5
-2.8636
-22.539
6.8381
17.179
-10.639
-6.0579
17.412
7.8783
-16.943
-4.9605
16.14
-5.9073
-18.8
9.0432
12.424
-16.157
-14.881
19.04
11.604
-17.977
-7.5636
21.991
9.4149
-18.889
-0.37248
18.786
-1.8361
-15.799
9.1595
14.853
-13.281
-14.833
15.704
9.287
-17.916
-5.7234
19.175
4.3431
-21.479
0.41702
19.771
-3.4781
-19.094
9.1905
14.116
-13.571
-10.363
17.152
6.5243
-24.881
-0.57461
21.818
-4.383
-20.774
12.574
20.138
-12.937
-14.554
20.781
7.2176
-18.881
1.8513
19.661
-11.028
-14.945
15.331
10.392
-20.96
-5.4541
21.065
-0.73933
-23.152
7.1894
20.553
-9.124
-16.617
16.298
10.604
-18.62
-3.6175
19.747
-4.8808
-19.047
10.033
13.069
-18.994
-11.366
21.123
2.7399
-19.267
7.5748
18.962
-9.4794
-16.117
11.465
2.8828
-17.648
6.9457
17.217
-14.662
-14.6
19.561
5.6796
-24.55
4.1057
22.563
-9.4607
-16.979
17.157
12.423
-18.726
-2.1126
21.91
-7.7541
-18.031
15.779
11.324
-20.839
-5.245
22.659
-0.94725
-19.281
14.376
11.239
-17.148
0.045011
14.971
-9.25
-8.7529
6.1355
-10.503
-15.404
-22.309
-76.075
0.89644
58.951
-1.8874
-106.72
-96.208
156.89
113.26
178.99
1.2374
-129.2
-25.988
-38.618
-2.7177
30.311
9.1297
14.437
16.711
-24.347
6.3558
14.268
-19.039
-6.1661
13.963
0.54863
12.485
-10.821
0.65054
8.6665
-19.988
-1.3684
7.4241
-14.414
4.0762
-3.5588
-7.8928
17.617
2.792
-12.521
4.3942
-8.9576
-6.3463
14.644
-7.7535
-11.5
10.774
-9.181
-13.486
13.727
-3.188
-15.278
9.0835
11.129
-11.839
-0.90436
15.582
-6.2442
-8.0185
9.5206
4.5452
-18.449
-0.71326
14.118
-9.4558
-15.442
12.647
11.755
-14.252
-7.2256
15.293
5.9643
-11.602
-1.1966
12.331
-3.7805
-10.282
10.198
11.368
-13.585
-12.522
17.084
-0.9603
-4.7864
-87.458
99.029
-36.952
33.343
42.854
-2.5748
-12.726
-10.785
-21.172
0.76353
37.13
6.2464
-39.389
-1.0571
21.676
-20.152
-6.4117
19.771
-14.632
-43.955
9.2791
11.465
-15.333
4.2531
8.9429
-12.605
-5.2044
23.421
0.63069
-15.266
12.993
12.027
-15.612
-12.071
19.383
8.6812
-10.775
1.2168
17.492
-8.9663
-19.199
10.021
12.874
-16.022
-12.145
18.476
5.8125
-17.731
5.1453
17.477
-7.6026
-14.29
10.312
9.5836
-17.1
-4.8498
15.674
-1.039
-22.159
6.2862
18.442
-5.0632
-19.058
12.389
14.575
-6.0842
-14.414
15.947
15.928
-13.304
-21.16
17.873
2.3937
-16.93
-17.599
52.716
-86.784
-14.406
37.581
-8.7865
0.11205
-13.496
28.615
21.084
-6.4642
-3.086
27.124
2.5172
-7.1832
-1.1334
109.03
104.84
-3.8037
-112.82
-61.719
-66.214
8.1587
28.022
-4.7615
5.4797
19.162
-6.5488
-7.9923
14.243
1.7214
-15.328
4.1293
9.826
-13.084
-11.571
12.326
6.8845
-17.106
-7.0277
13.874
1.5762
-15.893
1.0007
18.86
1.7892
-19.716
0.088045
9.9506
-9.246
-11.356
13.202
6.4827
-18.654
-3.9857
20.058
1.7558
-17.034
11.498
18.791
-7.4389
-7.0821
13.687
0.95183
-20.8
5.7766
18.058
-8.3398
-20.05
11.949
15.529
-14.491
-12.734
16.449
7.7433
-19.993
-13.895
1.5912
35.375
-0.53655
-11.502
6.2975
-5.068
-20.633
27.522
-4.335
3.288
4.8585
-24.505
-12.28
-26.379
18.888
16.431
-11.511
-3.6822
31.185
9.076
-14.964
11.905
22.842
-11.193
-14.108
17.535
4.3808
-23.1
-0.22395
16.546
-5.4702
-20.606
9.2372
11.849
-13.677
-14.178
16.846
9.0593
-14.123
-1.688
14.943
-10.875
-14.301
15.812
4.4235
-24.847
-3.7914
21.181
-3.2193
-19.68
11.699
18.738
-11.225
-5.1685
21.626
1.0909
-18.163
5.6133
14.508
-13.326
-12.479
17.225
7.4319
-21.756
-4.3089
19.973
1.1493
-18.004
7.8798
16.692
-8.6642
-11.664
13.86
5.1155
-19.573
-3.035
16.785
-2.5704
-20.672
5.9734
15.292
-11.896
-18.401
16.138
15.893
-11.804
-6.8388
18.979
1.6628
-20.149
3.8202
12.348
-16.501
-12.018
18.741
8.691
-17.908
1.1279
16.91
-4.5057
-11.802
16.358
13.495
-13.076
-1.0055
16.62
-9.9208
-18.299
8.0807
9.7211
-16.085
-8.5049
15.424
4.0781
-17.611
2.2428
18.58
-3.4555
-11.674
9.713
8.241
-15.984
-5.2236
12.052
-7.6823
-17.251
8.8901
11.351
-13.181
-5.2785
16.805
5.0886
-11.847
7.8334
16.896
-7.0899
-9.1601
9.4
1.6257
-16.231
2.9109
12.363
-11.523
-13.47
12.102
7.2425
-13.883
1.6036
18.171
-0.063186
-9.1716
7.6027
4.5274
-15.619
-1.6745
10.861
-7.3155
-10.017
10.292
5.54
-14.701
-2.6082
16.177
4.8658
-9.5839
5.8399
12.992
-7.6921
-12.758
6.0435
5.0754
-16.89
-4.1579
13.734
-2.0801
-18.371
3.3385
17.465
-3.3881
-8.6228
14.598
7.3058
-13.001
-1.1711
13.978
-9.296
-18.985
9.1995
6.8212
-16.016
-1.5829
17.488
-1.3961
-9.5169
16.624
15.025
-7.2195
1.5649
12.234
-11.05
-15.765
7.0538
2.0596
-16.464
0.5865
13.519
-4.3926
-9.7864
20.072
31.454
30.739
-124.12
-28.02
83.922
-9.4431
1.6419
10.375
-12.094
-0.60142
17.702
-8.5188
-16.638
4.9116
4.3313
-8.4623
2.1021
23.242
3.942
-26.897
0.6727
5.0235
-20.262
-4.0668
22.902
-2.7964
-16.153
12.348
16.216
-10.522
-7.6335
17.777
6.635
-14.31
2.2631
16.845
-4.2943
-16.788
6.8775
5.4299
-10.733
-11.94
13.027
12.959
-6.2786
-7.6532
12.433
5.7076
-13.284
-10.468
6.7029
-10.659
-1.7793
15.674
-0.20405
-7.8715
12.362
-1.3895
-11.82
11.552
5.8667
-14.483
1.749
19.744
-11.716
-1.2069
13.566
-11.055
-10.427
17.194
0.73801
-17.969
9.1121
14.135
-15.888
-13.917
16.009
2.3196
-14.891
4.3603
10.418
-14.041
-7.3061
16.899
4.7071
-15.079
2.0494
10.892
-10.571
-8.5247
13.133
-0.83187
-14.097
6.5101
12.879
-11.988
-7.0352
13.021
-1.2767
-15.033
8.3943
12.83
-7.3853
-5.6584
11.517
4.2634
-14.155
1.8255
14.881
-6.8074
-12.751
13.025
4.3574
-19.6
2.12
18.389
-6.2421
-15.848
12.573
14.274
-10.014
-8.221
15.783
9.698
-12.723
-7.0316
15.852
3.9269
-13.81
-4.1756
16.739
-8.2026
-11.631
-37.672
54.403
79.113
-114.74
-7.6216
7.4867
-7.503
-20.283
16.893
13.785
-10.218
1.3368
18.914
-1.335
-4.1015
18.234
10.869
-12.042
2.4258
16.421
4.6633
1.2463
18.428
74.341
4.2639
-49.111
-25.399
-29.806
-9.5156
10.986
0.54712
-16.762
2.2706
10.29
-14.079
-7.8606
14.341
-4.2842
-20.813
13.504
11.596
-35.231
-4.7255
22.956
-8.676
-21.615
2.4415
20.163
-0.63285
1.8405
5.1335
2.1179
-14.817
6.5432
6.4972
-9.9752
-5.343
19.163
4.6408
-8.7391
17.012
10.57
5.0393
-19.334
-18.348
-17.25
2.3664
37.327
19.326
-2.9725
-17.572
17.673
-0.084296
-32.014
-4.2954
0.6676
-18.495
-24.086
11.988
25.69
2.0506
7.9809
9.202
-15.847
-15.378
13.544
17.905
-17.782
-6.6034
33.997
11.932
3.2338
5.227
-5.8341
-31.536
-48.961
-94.104
108.62
32.311
-33.312
3.2482
-16.778
0.36737
25.446
18.357
-29.686
30.219
28.65
-1.1345
-37.688
-26.44
23.19
8.9689
41.932
33.71
-32.724
-16.212
59.074
220.9
-147.2
-99.644
2.3818
-2.2947
13.811
-11.309
-8.3121
-26.553
-3.9592
4.2378
-9.3093
-9.0634
5.9882
-2.7959
-14.374
0.17701
5.9528
-14.576
-9.7117
10.963
-0.17246
-17.516
3.877
11.278
-23.904
-24.433
17.603
23.998
11.123
24.063
18.451
-50.701
-22.915
1.2884
-34.473
91.283
68.493
13.99
-95.31
-113.9
99.042
94.029
-117.5
31.218
-35.331
5.1448
121.68
-64.37
-80.62
-51.565
88.2
-43.933
20.203
63.093
-43.419
-48.122
25.394
51.752
1.5297
-15.49
25.358
12.094
-14.618
10.761
32.863
-43.846
-53.431
64.594
45.29
-30.842
-35.637
4.5771
16.556
4.8914
33.155
25.07
-20.879
-20.977
20.201
-1.6019
17.087
33.04
-20.143
-14.817
-14.9
-7.7129
-14.542
-81.933
47.863
-44.652
-86.867
56.507
24.08
-53.237
110.72
44.109
-89.894
-6.1733
-3.8091
-24.014
14.859
18.064
-9.979
16.376
7.3386
-16.263
24.183
20.199
0.49121
10.209
16.553
-24.04
-5.8297
19.761
15.902
-5.3453
6.0702
11.582
-5.713
-11.867
8.4263
-0.26297
-4.9545
38.697
143.69
122.56
-198.39
-50.639
-294.72
49.006
333.2
102.48
70.337
-60.528
-247.32
-561.07
-162.19
-21.115
341.85
454.16
161.9
166.13
-397.19
-267.99
224.74
-73.187
76.987
287.46
-85.301
-203.57
-14.917
16.804
-92.461
-118.96
240.37
124.38
-56.145
-8.86
-21.155
-14.307
-0.63543
-9.2549
-4.2791
73.424
-69.765
-81.177
19.643
21.572
15.699
-13.95
13.698
44.469
-1.4281
-17.397
-11.127
-11.501
-82.922
33.818
79.567
-17.201
-86.345
9.5332
72.517
18.005
-8.4897
-8.4703
-6.9084
-24.219
18.032
24.011
-9.4459
-16.972
5.7239
4.3902
-8.6264
7.3817
-1.1979
-15.2
-53.285
-4.6396
34.834
80.748
-18.752
97.461
14.147
-175.5
-109.5
96.887
102.78
-46.354
18.836
-2.977
-18.002
8.9831
-23.293
-47.046
33.584
43.565
-9.4526
7.697
-5.1069
-5.501
3.8321
7.0905
17.267
-13.947
-17.798
-9.7172
-10.914
-19.334
-15.58
-120.73
31.627
213.99
-4.4129
-69.301
-14.616
-51.537
-4.1982
93.53
-13.376
-15.956
-7.0308
-119
30.909
111.45
-20.051
-1.5796
14.432
26.791
-26.354
-10.169
6.9554
-6.9306
-8.1189
13.665
11.306
0.26892
1.9031
9.233
-15.841
-3.0662
-0.057112
-22.596
-39.749
-43.91
70.938
20.131
-14.495
-1.3807
-7.2011
-3.6809
17.094
12.383
-6.4888
4.9768
12.823
-3.5607
-3.0721
12.911
-0.81237
-15.573
6.0849
13.031
-8.9944
-3.7217
17.433
9.0324
-8.9424
5.7202
1.6371
-20.155
-62.561
-37.074
141.39
10.993
-40.047
71.589
-63.221
-70.693
107.8
121.54
80.462
-511.36
-264.22
211.15
331.21
184.6
-84.338
-40.077
-25.951
-22.283
-93.658
-16.731
94.022
3.2586
-0.3432
-11.664
-17.183
-5.9433
33.487
9.237
-36.606
-30.924
29.98
3.6736
6.8146
39.327
28.408
-6.7626
-64.708
-0.28103
-53.788
-58.507
236.15
-46.626
-65.849
-44.664
-6.2996
19.393
-35.226
-2.112
15.482
89.409
-50.365
-15.308
28.986
-4.0182
22.564
-30.635
-2.7054
29.979
65.27
-82.898
-46.081
-163.44
24.256
248.52
48.723
-74.366
-300.26
135.08
233.04
-212.16
23.515
41.845
60.008
32.153
31.893
21.826
-105.11
-76.873
11.682
54.327
-10.263
-33.092
-15.869
14.265
10.858
-21.846
13.461
52.816
6.7247
-18.223
2.3197
12.658
6.3212
10.606
16.725
-13.424
-14.601
-0.73811
-28.729
8.5723
26.443
0.524
-4.7664
-12.87
-2.2784
-35.176
9.2299
24.393
1.9896
-6.8385
-5.0774
8.8984
1.8959
-4.3209
-2.6583
8.0696
-18.171
-20.395
36.383
13.335
-0.5806
-7.8443
2.4871
2.6921
-5.8646
-5.721
4.8457
4.2102
-4.6132
-1.6117
7.1885
0.32302
-6.0116
0.19102
7.3802
1.2813
-3.8728
-4.3641
-3.6603
-33.508
12.073
25.211
1.0565
-3.7455
-2.3892
5.9486
0.91351
-4.671
-1.2441
4.7066
1.7372
-5.6379
1.6728
5.4764
-1.141
-8.1832
-1.496
2.8339
-4.9678
-5.2953
2.324
2.7911
-4.6683
-4.2839
6.6088
3.1614
-3.9543
-2.5672
8.3613
-21.939
-2.61
26.722
0.93041
-4.9698
-2.4281
8.1427
0.46173
-6.3967
3.7341
5.5795
-0.090608
-2.5265
6.4022
-22.537
-13.836
24.941
1.1765
-5.8181
-1.5273
5.5351
-3.0577
-4.6419
3.8906
2.7597
-4.3221
2.9173
5.5994
-1.5786
-2.6108
2.3969
-2.5118
-7.2862
-1.0447
3.3741
-3.6415
-1.9293
3.6874
1.1465
-5.6104
2.3852
4.7599
-2.6007
0.23365
5.512
1.0934
-3.4945
1.9122
3.246
-7.6304
-4.2822
4.1861
-2.1887
-4.779
5.6996
2.3678
-6.0228
2.4847
4.5592
-2.9728
-1.5752
6.4449
3.4082
-1.6313
2.6851
3.8886
-3.3289
-5.0114
-0.028514
-2.8705
-6.9533
2.8539
3.6534
-2.4778
-2.5634
5.3155
1.711
-4.7374
2.3875
6.3284
-1.5379
-1.9416
4.4798
-0.56807
-6.6643
-4.6145
2.2233
-3.228
-3.1833
4.9593
2.8671
-4.4587
-0.22257
6.5019
-0.021608
-2.5094
5.343
3.9996
-2.2639
1.0576
0.59074
-6.8282
-4.6669
3.3788
0.90599
-4.865
0.32612
5.3583
-2.8288
-2.0835
5.8739
3.4257
-2.7027
1.6248
3.4329
-2.1685
-4.0948
-0.11342
-3.0579
-3.5092
2.4737
2.592
-2.9771
-1.3326
5.4745
-1.1902
0.025291
5.0852
2.314
-2.7645
-0.85702
2.9543
-4.2841
-6.0892
2.5151
0.088554
-6.2871
3.6363
11.449
-1.1406
-3.6284
45.397
17.435
-62.191
-10.332
-5.4405
52.857
-11.465
-19.316
22.311
-1.5591
-14.359
-213.34
96.319
87.325
26.594
8.8348
-12.987
7.798
-65.879
45.727
36.67
-8.3905
-31.449
-18.703
9.9633
67.025
-43.403
-62.158
-2.5603
103.99
-247.45
-159.92
-7.5857
8.2837
-89.283
35.08
-61.818
471.15
431.81
974.58
-314.39
-914.38
-127.09
-201.75
176.21
-113.56
146.6
114.2
-34.389
46.393
-3.3227
-446.45
162.81
212.3
46.649
-442.08
-294.48
139.92
-74.814
21.971
-3.5392
382.19
442.62
174.73
213.43
271.57
-469.5
-548.35
8.4791
5.8296
-119.76
-14.834
53.255
84.142
-76
-278.15
86.673
393.35
305.6
44.632
-16.54
-138.03
-496.59
-207.07
360.58
13.087
-245.35
155.78
36.809
-38.128
24.471
59.463
64.566
-11.802
115.19
27.619
-80.564
-100.41
47.306
-19.352
58.425
31.269
131.93
213.22
-161.97
50.132
-566.25
83.369
211.24
-173.52
327.77
8.363
-220.16
146.58
-399.58
-170.81
442.68
-106.44
-87.974
133.19
123.35
26.769
-94.379
0.59112
-14.465
-100.57
38.665
-141.34
-101.66
-69.103
38.824
167.16
323.25
-170.13
-28.564
1063.5
-483.76
-367.89
68.725
21.454
-40.945
-266.93
-382.7
47.871
330.07
-97.092
-51.786
-68.168
149.2
252.54
-17.848
3.0799
-81.411
238
-73.666
-545.96
-33.066
176.57
389.45
15.817
-188.75
-23.976
38.191
26.882
21.429
-151.49
158.81
244.99
-266.55
-210.84
42.165
58.324
35.033
39.455
-20.106
14.939
0.020563
31.011
-26.618
-2.9765
-1.4159
18.437
-14.562
34.277
-12.333
15.556
46.767
-66.978
-11.364
-8.3999
7.2746
-13.138
16.139
-10.611
-7.7589
-7.9661
-13.294
-3.3755
2.5287
5.3444
-5.6734
-2.7611
19.239
-33.705
-0.41084
10.03
8.7303
4.6371
-19.099
11.152
1.5856
-18.234
-7.1581
14.162
18.967
4.0439
2.4774
-40.362
25.131
-20.106
34.326
72.929
65.82
344.22
-1110.1
149.65
960.47
-466.43
-306.13
19.688
170.86
-18.093
-11.673
131.92
-66.579
106.42
35.052
23.267
58.128
-83.105
-175.63
140.62
121.57
-29.266
-13.871
91.352
-30.209
-300.59
-411.37
251.77
528.85
-192.92
-176.32
98.775
125.52
-38.451
29.653
-52.756
-140.71
-212.79
243.37
133.98
-75.028
391.01
-114.43
-7.6112
-60.208
-123.76
-244.86
-184.25
-244.54
364.05
550.42
-203.49
-111.93
-270.22
88.722
343.64
-8.4754
-105.78
43.377
-32.348
-201.75
18.807
103.89
3.0081
-50.79
63.024
60.504
-45.675
0.49593
-3.5429
20.768
96.895
-116.34
-165.3
-75.881
182.5
72.395
74.755
-42.734
-34.708
-104.86
-103.42
139.69
259.98
-51.106
-137.11
-159.84
46.78
188.74
-64.481
-109.5
12.95
60.256
38.069
39.056
-92.154
-70.786
39.009
-220.05
-132.21
299.2
154.06
-8.4724
-47.755
177.18
-12.675
-112.01
-97.045
86.3
24.631
-12.151
-47.38
-12.315
-21.67
10.953
21.976
82.557
-188.16
67.666
74.219
-80.823
91.256
67.493
-165.37
49.528
108.54
10.559
-48.173
-240.79
17.59
231.69
-15.201
-50.687
-310.97
292.79
167.85
-212.72
189.68
-151.26
-172.95
131.65
13.042
135.71
-205.55
40.017
141.24
-102.19
-120.05
137.03
131.57
-243.68
115.76
103.21
-121.99
15.507
66.616
-119.01
0.0097745
140.52
-82.022
51.002
-113.3
108.77
-198.93
97.602
265.54
-297.14
-2.7193
57.727
-165.27
318.88
64.547
-582.26
369.45
94.221
78.632
-92.335
48.777
-127.58
-7.1706
104.5
-12.36
-54.56
41.516
-89.757
19.453
-47.874
78.553
-54.386
197.52
-10.134
-165.41
64.624
47.982
-70.643
-118.48
190.83
-3.0389
146.75
-571.14
-127.84
345.11
166.89
136.22
66.661
-274.82
-200.15
223.93
0.52745
111.95
-84.433
3.2446
-110.19
98.342
-10.29
-64.209
-15.577
141.71
75.881
-167.46
-67.63
183.57
27.421
17.734
-95.884
-54.525
-94.098
-116.16
219.6
24.565
-192.75
149.42
41.247
-163.52
230.62
21.74
-87.413
-44.381
-95.135
96.811
207.16
-150.93
-142.09
49.329
67.967
11.283
-12.677
15.036
42.432
-132.33
-23.637
71.234
118.17
18.172
-18.993
-63.761
-181.92
244.47
27.18
-155.01
34.426
333.28
-177.44
-588.95
36.575
273.78
142.57
111.38
-173.89
-17.083
36.943
45.557
82.621
-130.51
-10.693
19.2
52.828
-43.28
33.362
-157.99
75.564
-16.723
55.459
90.857
-21.577
-6.29
-33.348
117.54
-102.07
44.5
-74.097
49.038
28.648
-172.59
-36.858
124
-20.641
35.328
-12.082
41.378
3.5475
-73.042
-28.242
5.7346
50.762
-73.83
96.458
-4.7151
10.901
-17.589
-37.289
-2.8192
38.489
-22.164
-43.089
125.17
-12.466
-15.121
-25.808
55.239
-18.451
-143.96
-78.93
140.12
156.86
-72.485
-167.94
102.58
-57.311
43.466
19.642
-44.097
91.287
-139.53
338.18
43.157
-440.78
9.8606
26.179
191.75
-21.404
-71.075
29.173
-42.146
-6.2758
93.543
9.1821
26.633
-7.9151
0.39663
180.11
-198.63
-426.79
193.57
304.56
-45.249
-101.24
9.3405
5.7139
-38.91
-12.923
-250.57
151.77
-112.56
57.933
713.64
-287.79
-222.77
-255.14
263.51
76.52
-236.29
216.55
-67.106
-89.278
73.804
235.71
-208.8
-91.023
21.425
2.0109
30.702
-24.925
88.077
11.226
57.895
-39.712
2.3801
-37.671
-26.596
37.433
-2.7008
13.468
-30.093
-6.7485
9.4645
2.9067
-16.533
-15.524
0.31551
1.0697
-11.883
-4.2701
8.9592
-0.33593
-2.5526
6.7925
-47.59
45.593
-4.8389
9.7219
-0.08305
-23.889
-15.997
12.046
11.17
-14.392
-7.1645
20.911
3.4807
-14.129
9.3932
21.492
-7.2426
-15.762
17.345
19.094
-7.4203
-19.535
17.062
19.402
-7.2861
-22.884
11.132
15.614
-2.1642
-21.883
8.7116
15.542
0.043436
-26.15
6.6092
17.51
-1.5672
-24.561
6.5016
17.132
-1.992
-23.626
5.7296
20.656
-7.6046
-18.206
11.212
19.435
-10.634
-21.428
18.109
14.477
-6.3979
-24.224
17.717
18.447
-4.7682
-27.695
11.994
16.287
-1.8537
-21.723
6.0403
18.377
-2.8517
-25.784
10.687
18.771
-1.661
-28.153
9.5961
18.127
-0.54202
-24.791
3.4105
19.905
3.687
-27.761
-0.062638
20.973
-0.60419
-21.003
6.817
15.005
-1.001
-24.038
8.4526
19.954
-3.4488
-24.426
5.7906
17.742
4.4291
-24.137
-0.75834
21.145
3.9048
-25.099
-2.4505
19.67
1.6588
-23.069
4.2587
19.765
-2.5368
-25.512
6.624
19.18
-3.5488
-24.566
9.7193
18.753
-1.8542
-23.71
6.98
19
-2.9396
-24.39
12.022
17.805
-0.45521
-28.42
8.9417
19.72
7.0653
-22.609
-12.402
19.641
12.149
-11.93
-24.233
13.798
15.692
-10.059
-21.768
14.879
14.897
-17.053
-14.817
28.794
18.456
-8.4651
-91.845
92.049
35.185
-52.921
-2.7139
45.65
4.2128
-49.493
5.8287
9.5144
-15.807
-11.293
77.825
-58.459
-41.57
11.703
16.917
43.896
-141.9
52.222
81.646
-34.261
-2.013
48.695
3.3483
-11.239
-33.635
3.1735
28.815
-48.833
8.4719
22.034
-12.276
-19.585
28.377
-22.426
5.7867
-28.514
26.721
39.121
-83.355
82.827
-46.493
45.585
-73.845
-3.765
68.197
-45.675
-6.5556
3.5893
25.858
48.241
-42.607
-21.15
32.722
-10.531
-33.942
-19.094
86.318
-16.915
-15.514
19.023
-19.31
-10.161
-44.718
68.233
31.551
-113.53
96.09
-68.187
30.673
55.667
-69.951
25.662
19.375
-47.97
70.865
44.214
-100.94
13.957
13.676
-14.281
24.751
-56.038
19.483
39.368
4.1475
-98.709
49.777
39.468
-42.113
4.9962
1.3599
46.886
-17.137
