-9.4896
-10.68
18.37
10.159
-10.728
-11.598
10.697
7.7573
-6.1477
-8.6943
13.272
6.2856
-11.043
-4.5495
14.021
0.98593
-13.224
5.6245
5.6787
-1.8669
-9.5112
3.5422
7.855
-0.062525
-12.492
2.631
9.8237
-3.0827
-11.829
12.5
4.3809
-12.01
-7.8971
6.6584
6.9381
-9.3205
-7.2112
11.439
6.7048
-11.248
-10.408
3.8609
5.9391
8.5345
0.36751
15.185
-7.6417
-25.115
5.3909
10.066
-6.9304
-1.2858
6.6428
5.2996
-7.2279
-10.697
15.19
4.3228
-13.202
6.1747
8.7794
-12.413
-18.507
14.84
17.704
13.077
22.188
-3.9484
-9.5059
3.7636
66.053
77.73
-197.62
-257.63
127.03
211.55
-37.361
-40.736
-21.843
-33.046
3.5811
56.475
28.597
72.705
-122.65
71.885
121.06
-54.86
-153.83
6.8833
9.1348
-26.411
-50.541
26.166
101.44
49.984
-158.35
133.32
-105.54
-41.882
56.5
29.102
131.85
74.746
-141.93
-121.7
34.233
31.486
-23.853
9.8414
45.242
-71.126
-17.152
141.67
14.141
-104.98
46.906
-98.567
96.403
55.901
-126.45
13.789
37.441
4.926
21.262
17.458
-42.953
-29.415
-38.686
27.632
13.504
26.08
33.502
24.425
-70.668
-12.752
8.9346
-20.255
7.5071
21.815
-18.887
-3.656
18.341
-11.164
-16.905
22.346
-3.7414
-18.18
19.215
0.43
-12.706
16.671
5.7657
-44.171
28.803
187.3
28.163
-231.62
-97.324
123.54
76.61
-91.203
-24.943
20.299
32.486
-7.4618
105.97
37.863
-292.78
-3.8207
-21.834
199.44
21.134
-32.852
-82.912
8.1416
129.98
-16.896
-173.06
66.391
76.966
273.15
-82.485
-303.99
-317.86
-100.11
1025
18.265
-303.2
-428.72
-298.78
461.26
241.14
-106.52
-61.442
-6.3443
-70.511
20.523
11.976
-143.02
62.375
173.39
34.314
-26.506
-13.233
-109.2
-23.923
18.016
2.8161
-2.6388
-44.262
42.017
-16.271
9.457
18.463
3.0549
-131.57
39.485
116.06
15.265
23.222
25.807
111.64
72.074
-127.21
-63.111
-10.77
-57.243
1.6843
-21.245
-18.869
-4.9805
18.906
-6.8138
20.152
85.311
125.29
128.87
-211.47
-188.86
54.117
-2.787
-38.697
-45.02
16.897
62.878
-122.49
62.298
173.55
-284.69
-63.014
202.7
48.29
19.803
-43.801
15.729
16.374
118.98
131.5
238.37
-210.19
-153.44
-151.33
75.738
-6.6702
-27.567
-1.56
-111.51
-12.962
14.323
-16.525
86.081
15.664
-32.379
22.909
18.302
20.973
26.211
7.2856
-15.863
14.396
27.053
-25.333
-50.073
14.868
-38.649
0.57105
48.651
-16.154
-1.4559
-0.50268
49.35
-45.182
-116.72
154.38
29.474
2.6523
104.05
25.892
-10.743
-105.38
-62.03
-28.639
-1.1269
-2.7063
-16.69
-5.4917
-2.76
-11.098
-9.4582
9.7488
2.6775
-12.017
5.7665
7.7996
-13.353
-4.4312
8.8045
-24.216
35.019
-337.79
-6.8009
364.32
55.081
-114.9
-18.448
59.068
12.477
-16.866
44.746
153.97
16.876
-143.25
-67.829
35.032
30.055
-83.763
41.82
-0.16667
-31.035
82.516
-17.857
-0.97988
-48.795
34.717
17.477
-36.234
-30.334
60.172
34.075
-8.2684
80.611
-101.27
-8.0105
13.204
26.072
-25.598
-28.104
-16.728
5.1631
-2.2505
-27.937
-8.5519
19.472
-2.5183
-12.374
14.873
18.772
-2.139
-11.273
19.199
14.385
-2.5542
-7.7471
4.6638
2.1477
-11.868
1.913
11.832
-9.4743
-16.827
9.3256
8.5418
-17.354
-8.0213
14.762
-1.652
-15.834
5.0924
15.212
-9.965
-11.672
15.926
11.882
-13.07
-10.41
22.645
-1.728
-22.055
7.9542
26.348
-0.71631
-11.937
15.211
10.639
-15.16
-7.7542
15.269
5.4696
-16.667
2.947
12.064
-5.9301
-13.94
13.513
11.109
-10.115
-7.3522
2.7706
-12.235
-14.516
16.737
15.122
-11.64
-12.617
15.143
1.5186
-13.789
0.64365
8.3743
-15.712
-6.8606
17.338
-3.3776
-23.957
0.040509
-86.321
-167.26
-21.097
36.423
213.25
82.726
26.532
26.134
-5.5226
-36.537
20.226
4.0572
-32.783
2.409
35.547
-0.50394
-27.309
13.646
17.062
-0.25631
-14.492
23.639
25.922
-33.911
-63.886
78.592
-22.498
-38.617
-14.526
15.08
22.552
-17.055
-15.986
22.416
-7.9498
-36.846
-17.85
24.13
14.126
-30.231
6.0683
23.056
3.5764
-21.912
-32.658
83.773
63.489
83.137
-94.062
-151.57
114.66
21.137
-33.924
-35.889
-76.092
64.091
64.286
-128.88
13.801
167.37
-240.2
148.78
5.7381
-15.981
25.971
-77.375
148.35
-86.731
-122.06
80.829
55.633
-111.43
100.27
55.536
9.8347
-242.03
21.188
88.159
195.13
-39.716
-138.22
38.114
-69.538
46.042
-111.74
48.883
22.044
72.591
111.92
-113.76
-73.374
38.906
64.413
-15.676
-30.313
22.556
-50.681
46.552
45.665
-152.22
26.211
18.489
118.86
-0.19135
-89.371
42.939
-63.271
29.28
-15.833
-24.415
38.338
-52.276
38.631
89.09
-41.814
-24.913
-51.308
108.32
-57.631
26.052
6.0956
-87.594
114.02
-30.13
-47.705
50.736
-57.974
-26.661
50.401
-33.283
-57.749
-81.769
242.8
-23.772
-88.791
93.915
-17.606
25.107
-87.468
-12.217
66.594
-86.147
67.292
56.902
-10.841
-142.54
16.9
125.87
-155.21
170.08
-28.928
-105.03
134.27
-89.117
51.348
-78.013
36.607
-45.765
16.969
139.67
-61.631
-46.596
42.518
41.397
-85.516
48.361
-165.04
94.108
78.053
-96.055
78.133
-128.24
104.3
11.517
42.436
-17.677
-93.841
-103.61
67.078
132.32
-32.982
11.236
-23.357
49.089
-23.053
-63.685
104.74
17.415
-113.3
109.64
-118.96
-37.785
32.593
122.38
-61.333
-44.595
58.38
47.323
19.807
-87.322
-8.1575
10.535
-87.877
-105.36
187.64
80.953
-101.18
-71.749
13.659
92.788
41.482
-16.381
19.309
-93.899
-64.027
175.72
-83.772
13.106
-18.242
-47.486
21.066
-57.356
79.677
21.657
-89.151
76.616
47.291
-32.871
-74.803
95.509
62.583
-167.05
88.957
21.699
-31.673
13.069
-1.3003
-28.595
-31.403
-90.792
75.801
83.025
4.2654
68.793
-39.057
-51.492
-101.04
78.178
29.715
-20.435
41.709
-21.379
-38.573
15.068
63.123
-29.007
-61.942
13.32
26.302
-13.641
-19.817
22.124
-4.0123
-24.896
6.8007
13.041
-16.391
-13.097
33.51
22.152
-18.399
-2.5099
25.717
-17.731
-101.45
198.34
86.46
-77.715
-88.405
-12.526
24.58
-12.245
49.44
-33.707
7.5267
-82.864
-12.552
55.694
-37.963
-12.379
14.604
20.212
-7.5198
24.43
16.464
-12.728
7.5173
64.225
-36.534
-119.16
16.814
33.182
-2.0292
-28.891
13.846
23.059
-13.629
-15.423
35.983
21.255
-20.698
8.8371
22.183
-12.088
-21.148
39.671
15.141
-35.552
-37.064
34.548
37.58
-25.348
-4.3407
19.939
-13.556
-34.432
7.0353
19.411
-10.911
-5.469
23.823
10.855
-27.765
-6.1082
22.021
6.2536
-22.612
7.1223
25.323
-3.641
-23.389
8.9673
12.773
-23.224
-21.281
21.748
13.413
-28.539
-8.7521
25.202
3.9191
-26.076
4.6896
28.423
-3.2049
-27.838
14.91
17.698
-28.768
3.6521
45.514
83.128
-106.76
-76.306
45.906
-10.119
-10.914
28.222
31.99
-17.137
-13.541
20.333
5.2736
-23.004
5.8681
26.033
-2.9663
-30.722
9.7072
22.318
-12.419
-22.258
19.429
17.605
-16.731
-17.775
18.95
12.464
-24.842
-3.5083
21.578
2.3206
-26.045
10.083
16.937
-16.58
-16.353
16.131
20.503
-20.748
-18.473
12.293
8.6744
-13.12
0.10625
23.991
-15.024
-20.344
9.6693
25.635
-19.927
-21.638
28.012
4.1118
-25.977
3.7083
26.412
-6.3823
-16.257
20.973
15.181
-26.246
-3.8651
30.624
8.4658
-0.59205
95.859
21.188
-167.38
-52.064
29.592
10.801
10.809
-13.286
13.917
20.555
-19.595
-7.8056
23.549
10.888
-29.652
-6.564
29.314
10.112
-27.301
1.8801
27.359
-2.987
-27.813
7.4838
24.242
-16.366
-10.109
23.465
16.306
-31.182
24.748
134.96
-17.381
-133.84
121.46
-7.466
-103.74
25.194
-73.082
-43.666
84.782
16.824
16.857
-14.555
12.75
14.006
-91.364
-62.975
20.211
19.563
83.565
-120.55
140.21
85.874
-181.42
-31.967
6.2932
-23.863
58.399
9.9309
46.401
-9.8651
-72.377
5.3444
26.828
-42.737
-34.944
25.232
17.139
99.983
-71.681
-3.5114
10.379
82.454
16.352
-138.24
-62.124
99.35
39.751
-40.316
-0.53079
46.698
11.008
-11.932
29.705
42.823
55.731
109.44
56.952
-317.89
-113.23
114.7
48.561
47.457
1.2961
-74.319
-53.529
-56.799
123.54
-71.407
-81.592
97.53
-42.847
-77.921
110.74
33.206
42.313
-26.304
-94.574
43.258
128.17
-172.19
48.547
202.3
-104.13
34.105
13.354
-71.606
-25.632
-89.18
77.428
-28.692
73.044
-57.575
-71.114
134.21
-28.359
44.462
-83.831
64.532
7.4462
32.875
8.9932
-106.47
18.917
99.846
-96.256
-162.43
226.26
31.106
-31.796
-16.473
-103.27
58.267
27.5
-54.528
-9.1305
57.128
-17.577
-37.28
-38.508
-97.532
98.855
-9.7994
15.037
24.295
55.461
52.014
-118.78
43.028
45.757
-80.29
4.0387
-125.93
167.92
4.8806
-78.993
66.987
6.8637
-12.371
9.026
-46.099
-71.798
113.14
26.229
-34.82
36.774
-127.32
29.416
87.614
26.807
-62.485
-38.269
307.32
-210.25
-92.638
47.954
31.654
-79.766
134.02
120.12
-148.12
-27.54
-22.199
-100.16
32.281
-32.476
-0.2741
92.406
-164.51
159.2
43.864
-5.4987
-55.958
115.98
41.991
-246.11
115.7
70.794
-73.616
33.111
21.953
-30.354
-28.916
15.33
-49.997
-122.54
222.95
5.9553
-78.12
90.282
86.63
-6.3429
-64.835
-61.587
-57.604
-52.877
109.49
47.16
-113.6
-10.931
54.489
44.718
-53.813
-69.12
15.313
22.595
-39.337
102.56
-75.86
-12.365
74.171
-15.87
2.6067
27.294
-94.429
-7.8516
-88.929
163.1
-39.954
-49.113
66.133
75.56
-81.14
68.569
-73.384
-121
133.75
14.382
-24.521
-28.22
14.154
66.315
21.878
-104.97
15.953
101.95
24.822
-146.5
88.239
-104.16
-6.3531
195.78
26.756
-77.53
-80.431
63.134
-30.145
-89.846
87.193
63.532
-52.569
22.07
-16.386
-20.807
14.014
54.435
28.168
-57.219
2.0237
-112.53
18.953
86.562
-71.191
-4.1317
9.8751
4.077
39.749
-40.433
-37.325
7.8491
-22.981
52.296
93.694
-110.23
-33.518
89.942
20.738
49.286
-132.7
50.744
70.658
-59.3
-16.882
53.527
-37.719
-56.316
44.752
-124.43
14.543
54.433
40.821
9.1029
2.0549
101.36
15.15
-167.25
-21.651
38.373
-29.731
-19.67
36.28
92.503
-76.973
-20.771
76.344
-34.702
-52.892
18.263
24.415
-16.589
10.274
29.409
27.976
-61.178
62.096
227.4
-42.473
-186.56
11.704
16.631
-85.457
61.45
14.938
-32.648
-42.858
26.616
47.323
-16.782
69.793
5.0588
-186.67
-31.691
64.599
-2.5748
136.97
21.957
-68.336
-134.63
24.837
58.018
135.2
-175.96
79.89
-77.315
-29.057
129.71
-84.707
6.6182
-54.577
-50.811
-16.764
184.7
-90.014
44.277
87.329
-78.198
-39.703
92.328
-42.326
-72.233
21.769
-2.5788
-12.268
1.2728
36.918
24.621
-11.91
-30.187
37.68
5.1117
-34.805
21.845
32.356
-19.739
-6.145
33.927
49.226
67.375
-44.666
-54.861
-55.542
-19.621
29.386
-8.8271
-26.884
113.59
-15.092
-26.492
-1.1979
1.3785
-31.75
-33.56
-91.744
-44.46
144.55
-1.5203
89.109
-128.14
-51.738
11.678
-12.388
47.865
52.887
49.896
-5.9385
15.38
-120.78
15.202
50.123
143.05
41.719
-67.334
-55.131
-13.132
36.788
-100.36
-48.579
-32.643
69.695
0.17211
38.235
-28.912
49.051
-86.32
-19.992
188.29
-49.41
43.799
-43.786
-114.3
-51.373
33.728
120.97
43.521
-131.39
-49.825
47.772
26.748
11.118
31.283
10.927
5.9208
-130.04
140.38
59.219
-267.86
13.285
234.36
-62.523
-110.7
12.445
92.541
21.043
-86.617
143.9
-14.608
-172.49
122.63
30.532
-79.975
-38.429
14.471
-109.71
100.57
145.57
69.892
-153.46
-97.635
-33.422
60.073
22.41
29.47
-41.923
18.005
31.416
-25.098
22.94
18.572
139.45
-21.07
-86.455
-182.19
55.756
-59.555
76.108
43.327
4.8352
-8.3496
-6.8351
71.994
-89.822
21.01
82.931
-134.36
10.678
-66.761
268.64
-20.248
-164.83
-21.131
0.072691
-9.7925
2.0949
30.757
-1.2393
-17.473
14.811
14.701
18.648
54.408
124.7
57.912
-148.87
36.259
-81.298
26.801
5.2988
-14.124
22.736
-46.947
-24.924
1.9437
-61.484
29.551
17.66
-65
-13.572
31.197
-41.391
-81.263
150.34
19.812
45.083
-3.3743
44.233
-32.736
-79.824
-57.217
56.039
-136.48
164.38
220.93
-183.8
96.041
-74.565
-70.553
-61.943
5.134
24.623
124.3
-3.9735
-73.824
-18.091
-52.038
-23.907
242.47
-175.31
-15.563
29.337
-51.075
13.329
90.187
15.983
12.773
91.206
-108.92
-69.212
25.315
12.38
-33.022
-32.234
-39.585
38.728
29.366
8.3548
-7.0697
32.533
43.25
-75.806
80.486
-41.533
-50.212
-3.0437
-26.825
44.345
52.566
-59.297
87.946
-73.435
57.841
7.4882
-59.045
35.203
-27.869
-141.5
70.949
57.719
64.521
4.3802
0.40166
76.838
-142.45
-115.45
37.797
81.049
-14.458
7.6087
-114.19
5.2196
105.72
-45.684
95.303
-46.913
79.105
68.462
-48.998
-19.576
-49.677
10.907
37.849
-9.3288
-27.542
-45.062
27.19
1.3451
-164.12
69.144
136.59
24.703
20.14
-75.366
-74.039
10.45
68.817
-57.051
-123.67
106.59
145.63
-122.11
-106.95
12.856
146.79
46.221
12.617
-107.22
49.662
11.639
-25.328
-57.635
30.099
-66.211
-19.329
44.347
-29.332
144.9
-11.253
-108.59
-18.741
108.24
52.545
-101.42
4.4913
24.074
186.33
-142.61
-69.9
25.813
113.99
-28.856
-133.27
35.326
-85.579
-132.45
137.13
190.29
-155.51
105.56
34.293
-133.64
0.085855
101.76
42.874
-153.45
-30.433
69.303
14.65
-9.2836
-44.855
-16.891
14.835
10.967
-19.906
121.48
65.518
-80.347
0.21208
7.5775
-44.836
-73.591
52.296
61.215
-65.26
-21.629
30.018
3.4465
-38.028
2.7301
23.039
-16.878
-1.7634
27.478
29.612
-36.844
35.281
-51.379
-247.84
93.934
124.26
77.997
5.7621
-6.633
34.986
-12.961
-10.034
-85.043
51.508
60.328
14.973
-6.0955
-29.56
10.6
0.95303
-27.864
-8.228
18.455
-11.692
-12.032
17.766
11.41
-21.988
-3.8944
21.056
-3.3047
-25.353
10.052
18.611
-14.524
-20.325
18.35
6.8602
-21.759
3.553
17.64
-11.582
-18.466
17.508
7.2953
-28.313
-0.77746
26.574
-8.3401
-20.138
19.413
8.9879
-21.271
7.1477
20.805
-14.691
-8.1915
21.585
4.6855
-23.798
12.46
22.749
-15.741
-17.074
18.943
5.3948
-26.191
-2.1216
21.794
-8.0201
-16.905
18.253
13.994
-20.91
-4.8362
21.976
4.5929
-26.727
2.9237
18.704
-7.3597
-24.596
10.609
19.453
-13.507
-16.44
19.681
8.7089
-20.355
-9.2661
22.586
1.8171
-24.783
5.8296
21.927
-11.46
-21.44
16.209
13.161
-20.051
-10.053
23.603
-1.72
-16.489
12.791
21.618
-21.415
-9.4767
23.045
1.374
-23.875
7.6705
18.028
-10.242
-16.624
15.435
8.2912
-20.497
-3.5686
20.284
-4.0693
-10.991
19.129
13.503
-25.262
-3.0161
20.109
-8.8499
8.0769
30.967
-27.084
-37.353
-40.696
46.66
116.44
-43.735
-38.737
-32.036
-18.072
1.6377
2.1353
-19.799
32.85
35.337
16.944
10.686
-88.284
-38.237
3.8709
-28.569
-1.6602
45.439
21.002
59.461
9.9974
-87.917
-32.829
-1.4288
76.74
-6.2306
35.194
50.522
-8.8494
-47.057
-17.137
12.037
22.67
50.273
-17.233
-6.1859
-90.907
-10.927
-10.825
40.279
-92.858
46.174
-125.38
-37.247
154.88
110.5
8.6543
-74.79
43.08
-31.672
-25.554
82.198
24.047
-42.739
7.9014
-55.888
32.667
-76.462
77.381
39.472
-72.545
65.044
-102.54
79.121
-9.7548
-23.738
6.5956
-69.776
-2.6733
55.594
21.835
31.364
17.889
-57.129
13.971
29.566
2.5705
-52.59
103.74
-81.546
-1.0041
-30.928
-61.717
185.26
-103.64
-65.879
48.279
27.852
-55.804
49.389
97.847
-76.562
-15.773
12.944
-3.4852
-62.24
-51.443
130.36
-4.3164
-89.951
81.823
12.446
-88.697
121.71
-52.705
10.342
-43.046
-28.712
40.171
-96.953
65.625
243.44
-181.66
-4.115
7.4318
24.336
-48.881
-3.2415
8.591
-15.276
-152.14
58.666
134.73
-12.975
-14.738
-60.532
53.724
122.59
-67.63
-88.927
-200.43
190.07
171.73
-49.165
-177.01
-29.002
57.759
115.05
63.453
-42.349
-41.661
38.261
-83.627
94.289
-72.637
-31.605
5.9082
73.041
8.9406
-50.603
-26.479
-39.112
59.147
-63.173
108.57
-19.245
0.79985
58.276
-175.13
91.119
6.037
4.4591
66.117
-78.776
-70.699
-21.219
37.619
51.123
-4.674
147.71
-87.186
-134.32
150.93
-83.77
57.713
-19.457
13.935
-55.177
9.9288
-12.201
-29.084
-9.4325
-0.1023
-61.876
-62.702
-18.18
161.73
52.668
6.6416
17.546
-2.3847
-1.9098
165.61
144.82
-180.36
-73.811
-80.358
-36.502
-2.7161
26.84
9.011
-17.852
9.4867
12.445
-10.869
-11.283
12.061
5.1611
-4.4208
11.043
9.637
-9.4245
0.79464
16.914
5.971
35.403
32.854
-18.276
-35.827
-24.818
1.4218
-7.111
-21.018
-5.384
1.5244
-23.965
-31.124
14.621
0.90097
-36.008
-20.821
1.0204
4.9865
25.863
33.043
2.1448
11.927
18.317
9.3601
-8.8553
12.694
11.748
-12.37
-12.18
35.183
27.109
127.17
-41.101
-95.426
2.3984
-51.055
-0.44353
46.255
10.7
11.061
-28.058
6.1932
-22.383
-11.897
-22.585
-5.4652
12.716
5.3616
-19.367
-8.2402
9.3207
-9.0609
-9.7675
16.629
10.176
-17.675
-4.4497
17.912
4.418
0.53878
3.3996
-35.896
33.281
3.7484
-13.576
-53.831
-54.837
11.453
69.97
1.9205
15.974
37.463
-18.338
-46.799
11.67
37.686
-5.9862
37.814
75.884
-53.482
-48.829
7.8525
27.509
16.043
-7.4311
23.471
14.259
-22.346
-40.991
14.172
21.937
-18.389
-16.356
11.416
10.85
-17.449
34.167
10.965
61.118
-23.893
-274.94
96.735
-5.9753
-14.319
35.665
61.615
15.622
15.99
-8.1381
-22.161
7.9672
12.628
-30.932
-5.6414
28.578
-6.2149
22.029
101.49
-13.287
-119.82
-72.117
41.69
27.773
51.815
0.48487
-122.77
41.105
38.332
-23.618
-13.822
37.576
27.496
47.185
-29.398
-103.34
38.667
-15.879
17.877
6.7959
7.253
-37.077
23.888
28.794
65.597
-114.74
-138.1
92.2
43.905
75.848
-76.853
11.427
-58.247
-82.585
122.22
34.971
-12.428
-15.765
42.964
4.18
-26.595
8.2133
28.927
-8.5738
-1.7143
41.082
57.792
-64.266
-79.505
33.601
13.385
-52.106
-1.407
36.498
10.854
-21.419
20.472
30.185
-9.3764
-24.777
8.8645
4.4282
-19.729
3.9901
58.551
23.547
-61.594
2.7728
-66.747
25.096
168.06
-141.18
1.6286
-11.419
-66.304
21.22
26.424
-9.3496
-19.48
79.424
37.091
10.393
-48.029
-71.115
22.73
-25.789
26.758
22.305
2.1674
15.754
115.42
-140.82
-81.584
47.051
25.591
-14.525
-17.513
29.203
-1.1162
-21.804
18.031
22.911
-24.389
-9.6927
33.095
-2.4967
-20.891
19.571
22.84
-29.616
42.759
132.55
21.239
-80.378
-69.952
6.8989
-14.838
-34.557
4.979
-6.9455
-20.017
-52.454
-3.2169
20.384
-17.452
0.29175
28.593
-13.871
-29.592
17.768
19.538
0.64945
21.84
28.871
6.9679
4.0928
29.933
4.4463
-94.553
108.14
113.19
-99.701
-96.524
-19.76
-26.218
-21.211
36.902
2.9799
-37.575
44.261
41.596
-6.7755
18.73
16.123
-9.0541
2.6599
16.298
5.2804
-17.412
28.717
-13.933
49.846
113.57
-0.18623
-53.902
-43.443
46.424
157.52
-113.82
-140.21
-8.9419
8.0622
-15.39
-54.102
-6.3423
-78.513
-32.865
1.1707
60.847
-7.6777
-77.568
-79.6
52.735
-17.957
145.45
120.7
-120.15
-156.56
126.28
85.759
-60.318
-9.3727
125.63
10.512
46.654
-49.974
-185.51
-15.148
167.17
74.545
-101.88
-38.245
30.869
-111.58
14.608
97.766
3.3554
6.2515
-35.24
35.215
-27.687
-13.688
72.294
16.984
-81.08
-63.51
150.8
96.303
-120.12
87.834
64.186
-181.62
-33.047
-41.161
38.67
-2.5043
-19.377
1.8397
32.998
1.2541
-15.134
13.043
17.493
-11.618
-1.9136
22.794
0.11619
-16.636
9.1824
14.853
-7.7165
-7.175
18.384
10.018
-12.964
1.0279
18.37
-0.26906
-18.338
2.942
8.0352
-11.276
-14.937
12.719
9.5932
-8.8672
2.6117
14.725
-3.8718
-16.475
8.0812
10.037
-11.621
-15.28
12.241
11.148
-11.263
-6.3093
6.833
-4.7518
-13.854
4.4765
12.553
-4.0238
-3.8001
12.133
4.047
-16.984
-2.952
14.648
-3.3164
-17.887
7.1396
17.744
2.2366
23.012
7.0903
-1.3037
-17.421
-48.513
84.043
-64.374
-16.961
20.287
12.444
-12.029
12.369
70.994
25.942
-71.409
-23.795
67.668
-26.221
-132.59
-26.162
12.466
-11.892
-13.601
26.982
7.3419
-26.937
16.627
27.254
-24.316
-7.9275
39.329
18.66
-11.917
86.75
201.92
-150.68
-57.848
29.209
-26.338
-52.978
-3.8444
15.301
-20.484
-14.57
28.394
15.275
-16.213
3.9588
20.792
-12.977
-13.285
19.233
8.3854
-10.153
27.8
5.6438
-32.528
58.96
-42.622
-57.051
-25.683
1.2488
42.314
-15.748
-37.991
7.7605
20.31
-6.5435
-5.8493
65.998
5.46
-131.14
159.71
160.7
-51.645
-50.153
-66.921
-82.267
7.8476
31.988
3.5844
-28.02
12.439
-17.259
-14.799
30.367
143.84
-56.631
-164.97
102.33
46.079
-167.4
63.888
16.646
-63.338
-117.7
45.082
104.72
46.684
80.076
71.031
-143.48
-22.429
124.84
-94.433
-127.37
69.953
8.1726
64.602
53.196
-36.787
-70.609
46.907
89.44
-106.09
-36.622
49.981
19.041
-70.528
46.746
52.637
-18.271
-62.941
-16.859
28.609
74.048
-102.73
37.897
-54.772
-38.287
111.12
12.176
135.58
-84.995
-79.867
-71.302
108.47
-21.126
-40.331
25.624
43.451
-81.207
12.052
24.736
-17.689
38.692
21.856
20.648
-37.969
45.467
35.046
-79.161
-41.75
13.145
0.13354
-119.8
66.164
90.033
124.78
-127.13
-146.73
88.193
27.685
4.1662
33.994
105.69
-11.275
-190.49
-6.8679
15.915
-75.372
172.95
-1.4144
-1.3228
-2.0957
-197.35
96.832
52.499
-9.1922
-18.772
-74.801
115.92
15.348
0.37786
53.776
-50.592
-36.583
-2.4817
68.393
-0.078763
-76.161
122.93
70.281
-96.315
-8.7109
-43.454
-174.77
21.925
140.58
-16.968
76.921
5.3695
-170.03
3.1116
-20.207
113.7
87.696
-103.45
-33.188
57.966
-4.1475
-4.0051
-1.111
-32.581
-28.802
191.26
-18.979
-226.28
161.67
80.189
-96.907
-49.425
-15.509
12.121
25.297
-21.989
-10.23
-48.581
91.159
-84.798
55.377
-1.4593
-97.782
235.36
-26.048
-62.134
18.689
-84.533
-9.3697
-133.63
-35.773
202.28
140.07
-123.37
-17.827
83.016
-62.268
-17.329
29.656
-119.39
45.365
145.23
-62.915
-33.662
-54.856
122.54
-20.276
-73.193
2.5586
73.812
109.12
-165.92
15.774
-109.68
-9.6673
77.771
-16.796
153.68
10.244
-162.57
94.467
24.981
-55.916
2.9513
-7.494
139.08
-123.33
79.351
-265.25
112.73
77.686
-105.65
16.469
57.755
30.951
-77.495
-23.332
143.71
-26.457
-97.716
-36.507
-49.043
58.661
165.78
-62.809
-115.22
112.46
-1.0952
65.173
-132.58
-110.9
143.16
88.871
-88.799
-46.471
52.137
329.7
-163.13
-159.57
-65.824
38.206
3.1994
-24.738
180.91
-72.81
-180.25
92.11
112.45
-43.426
-24.018
-24.316
15.923
14.573
40.937
19.058
-91.631
-86.005
25.393
115.42
105.86
-161.72
-34.254
48.044
-68.401
57.075
-64.945
43.257
-5.7769
-87.224
70.761
128.22
-12.75
-163.52
57.892
35.549
21.293
121.88
-24.984
128.46
-156.03
-191.93
84.259
-33.058
22.589
123.96
61.747
-131.9
157.13
-109.28
-117.28
107.59
12.804
-97.317
-126.03
57.49
185
-93.663
-0.96725
7.9852
-7.2088
-106.29
77.364
30.118
59.368
114.34
-284.62
189.71
95.866
-114.26
-95.494
-95.638
159.73
-34.993
-23.363
182.17
-127.79
-77.385
102.6
15.752
-173.09
163
-6.1682
-27.564
-149.82
-6.4685
140.62
103.63
9.5497
79.272
-135.31
-81.67
92.749
-76.483
-47.395
51.15
-53.376
-230.97
205.26
83.124
47.96
-93.685
180.69
-90.66
-274.91
145.11
168.55
-79.915
-7.4049
0.19384
-20.1
54.771
8.8272
-13.612
-123.43
76.697
68.958
47.284
-130
85.861
137.81
-278.86
-85.078
173.15
60.415
61.369
-152.07
-66.841
139.09
22.635
-48.812
-61.273
19.642
19.732
6.4901
-34.772
32.586
227.36
73.566
-209.27
-221.81
-51.3
153.32
108.37
-56.11
54.011
-3.1796
-131.83
16.83
-21.56
132.55
-164.72
-106.49
258.52
149.91
-217.58
-54.2
68.415
-148.29
89.749
103.2
-84.357
-43.418
78.989
-15.807
228.7
-0.52749
-223.65
-27.224
-47.972
99.401
136.38
-71.119
-62.684
-17.529
-117.53
32.021
50.647
166.75
7.9067
-100.08
-93.775
76.303
61.328
-50.503
-88.477
82.868
45.437
34.653
-92.37
9.4049
-73.41
42.926
103.02
-57.825
-45.02
51.289
-38.591
-23.817
66.453
-75.365
-15.222
-82.281
-19.959
36.918
-6.8438
165.54
-71.03
-15.419
46.596
51.603
-15.569
-50.247
-58.826
110.49
18.656
-108.33
17.671
68.845
49.029
-22.817
-53.908
-12.993
68.395
-31.344
2.5665
-112.89
18.233
146.03
-59.806
30.271
-61.851
-117.82
30.85
162.84
165.7
-121.78
-207.54
-28.721
157.27
-46.244
-17.42
29.92
-13.725
-54.241
50.757
-66.768
-71.307
168.63
-46.966
113.03
43.291
-47.052
-91.917
-14.234
-54.691
77.736
62.366
0.65412
-58.178
46.531
-131.03
-30.874
76.881
19.169
-23.21
12.678
89.152
31.826
-107.89
-37.212
-29.205
13.795
30.681
11.788
-8.7987
15.456
15.246
-12.789
-8.7237
12.613
-10.167
11.718
14.967
10.983
1.5032
-10.336
13.605
5.38
11.674
41.071
196.58
-120.89
-105.11
-65.358
44.792
55.416
45.97
-85.733
-33.29
3.7017
2.0331
26.277
-91.471
-51.062
68.722
112.26
7.8273
-106.79
-1.6218
-87.837
34.858
100.83
-13.37
-65.062
-97.75
70.149
51.685
78.559
-11.724
-38.457
-55.839
71.201
31.374
-64.415
-23.251
41.829
-31.6
-7.591
20.894
-24.828
-49.423
63.709
53.08
31.752
-63.195
-64.273
-26.83
-9.5389
55.456
33.1
-36.64
-13.758
32.047
-1.0609
33.648
28.78
-18.977
18.71
53.265
-46.505
32.305
-56.82
17.382
46.061
-2.7808
70.65
-122.9
153.13
0.88698
-97.181
-13.956
-4.8935
-18.845
-40.883
-12.896
-120.32
85.346
285.5
-12.005
-201.47
-64.647
-6.5164
4.7472
12.859
39.63
-8.6356
2.9325
-155.32
-335.87
206.7
210.78
-19.319
45.966
-79.742
-0.90541
156.18
-19.29
-43.349
30.241
39.963
-24.618
-25.295
237.04
-32.366
-29.151
-91.348
-54.525
-45.804
-7.7701
69.521
38.267
-162.34
35.233
34.916
-30.502
72.993
-74.172
73.868
-1.3712
5.8821
-27.728
8.237
47.471
22.683
-71.166
-54.106
11.393
-33.133
-27.944
58.672
66.648
-13.177
28.462
23.652
-15.245
-59.968
-9.285
103.82
61.39
-76.208
-55.388
38.832
-12.422
-106.69
14.859
54.256
-82.191
56.018
50.61
-52.982
-109.86
34.206
158.87
-14.712
-63.661
126.55
-53.543
-105.85
39.183
1.0013
6.1239
5.1881
-89.777
-16.753
-11.75
85.313
118.68
-58.889
-24.562
-5.9626
16.824
44.803
-60.912
-145.69
175.66
81.267
-17.501
12.76
-136.29
1.6976
12.781
1.8199
-30.05
-40.011
32.672
-3.8162
-42.129
26.424
96.599
64.418
14.819
-68.875
26.07
-60.275
-49.565
8.7867
-10.649
41.528
-25.048
79.633
-25.948
21.308
36.733
-45.14
-3.0548
-18.596
-7.9692
-10.772
-37.997
13.403
-93.722
115.24
43.227
69.006
-48.41
-98.957
67.282
36.82
3.9148
-7.5356
-20.655
-23.278
36.626
-124.86
90.832
-11.142
38.158
13.482
-41.061
12.31
-45.109
9.5207
-7.3957
-12.253
48.477
-30.987
6.4815
40.955
-144.96
122.15
27.233
-73.388
31.582
13.037
-35.526
-5.2627
-28.411
28.962
26.159
4.7364
52.776
-118.14
-29.272
53.456
66.36
3.3839
16.503
8.0833
-53.151
-72.524
5.67
142.93
69.868
-26.07
-79.204
-113.2
-0.56586
6.2924
142.26
-84.785
-119.35
183.06
11.513
-76.759
20.466
30.916
-28.139
10.764
112.92
-94.871
-96.259
17.276
36.085
-7.4441
-25.211
3.2825
16.334
-5.7026
0.004377
14.408
57.81
-16.425
-27.32
-6.912
-31.58
18.45
2.7316
-22.891
16.334
20.01
-8.1396
-1.4988
29.77
17.118
-6.3963
17.002
64.006
126.45
-132.33
-78.423
11.615
-59.79
18.136
20.18
36.361
35.026
0.60762
-38.296
-84.809
-24.357
131.22
-89.51
-38.474
-32.178
52.579
-44.542
-68.887
34.062
-8.0336
166.39
38.203
-54.798
-35.078
10.528
1.6776
7.6936
-0.3221
-30.853
-0.72781
33.444
-11.843
12.677
27.768
20.588
-46.144
-25.038
95.59
-50.263
-18.098
-24.916
-16.046
19.432
-8.0245
-17.126
21.421
6.2277
-20.095
8.2899
16.873
-14.587
-7.6354
19.208
-2.0947
-23.893
5.3218
14.869
-14.232
-13.563
19.172
5.2185
-17.553
5.1586
14.814
-19.414
-9.8814
20.716
-4.867
-20.372
18.379
14.967
-20.352
3.6637
24.035
-8.8218
-5.7254
21.73
-5.1988
-18.564
19.504
9.3549
-25.662
3.5521
22.585
-10.876
-14.344
16.849
12.776
-18.76
-2.8712
23.531
0.11484
-17.097
9.0674
14.793
-16.686
-15.573
15.781
10.4
-23.403
-9.7975
21.811
8.0062
-24.728
-5.0253
21.876
3.5363
-22.154
2.3123
20.988
-6.626
-19.87
8.9713
7.6239
-23.991
-6.3646
22.571
-4.0103
-26.949
12.928
24.961
-6.5011
2.1122
24.118
-2.4252
-19.688
7.463
15.027
-19.673
34.141
-9.713
-18.888
-3.6931
-25.966
19.903
-33.918
-12.96
45.988
85.603
44.251
-0.16631
-16.574
-57.675
2.8434
27.354
-38.159
-48.013
-15.239
-7.8664
-2.9342
23.904
-91.328
-46.239
2.3759
15.518
44.303
8.2948
2.9385
20.109
24.918
-9.381
3.5598
20.064
-28.164
-33.72
7.9574
10.626
-23.929
8.7242
46.902
0.80497
-9.1179
31.161
3.8683
-25.871
9.6056
10.71
19.857
26.437
8.5141
-10.429
13.262
86.657
-78.626
-25.533
22.37
184.11
-48.581
-209.42
91.619
-114.45
-49.708
100.63
67.151
22.748
-50.199
-73.528
50.422
-76.608
-60.323
99.834
-52.872
-10.288
81.958
-16.408
-163.08
-55.272
11.37
126.96
44.089
-56.318
74.798
-30.545
-110.46
109.59
27.701
46.023
-44.344
163.69
40.137
-119.43
-13.262
-118.49
-35.152
28.547
167.69
-8.5254
-149.69
69.342
62.084
9.6317
-204.79
190.96
58.661
-118.99
124.49
-119.4
-8.2913
22.486
-13.616
-66.794
39.952
63.592
-39.352
-209.93
100.6
195.19
-97.215
-33.262
46.446
-210.16
45.396
249.83
-111.87
-31.301
75.003
86.485
-94.837
-86.799
101.47
112.82
-96.924
-210.56
-38.975
251.35
10.082
-61.08
-21.183
62.719
-40.65
-105.13
77.141
48.111
-13.436
13.972
-74.201
60.612
58.331
-34.603
-170.89
97.119
-12.098
39.242
32.522
-3.7365
31.956
-71.928
-55.522
46.193
33.559
-2.9436
23.252
-10.027
-25.055
-2.7084
87.693
-45.329
-63.206
53.524
-50.391
12.595
67.839
24.209
-74.273
-4.8522
46.653
13.185
43.946
9.3825
30.997
-24.98
-106.2
-47.033
62.087
-25.517
-26.639
-18.753
11.422
30.024
24.153
-19.197
-23.475
-6.9731
-10.278
60.447
-17.398
24.521
-18.855
-57.132
60.4
-123.52
79.281
113.32
-56.069
68.138
-10.074
-97.881
18.695
7.6428
41.991
-34.416
-61.894
90.752
-55.448
-30.605
9.4966
57.407
-152
-26.234
119.22
82.428
-58.785
61.523
91.831
-36.992
-84.989
115.45
-11.16
-167.18
-58.148
161.54
-84.709
130.88
-97.226
-26.942
-58.503
60.098
62.481
-6.3727
-235.83
-18.293
153.98
17.948
-8.1184
1.3408
43.939
-61.011
20.706
72.789
49.719
3.7751
154.9
92.959
-217.07
-100.39
-101.32
-52.723
12.668
201.31
50.598
-38.782
-143.81
-41.714
200.16
-116.8
-23.618
101.48
-52.771
73.215
30.437
-11.931
-22.04
-70.947
-69.011
38.718
-60.049
93.833
-34.784
-2.892
8.8339
13.828
-40.458
49.617
32.199
5.7487
-17.647
-25.448
23.44
-73.657
-23.07
46.287
-27.946
-5.4683
77.963
32.345
-57.917
-83.913
51.848
11.091
-0.15448
24.024
84.629
-4.636
-63.817
21.625
-96.194
122.89
31.69
-190.22
50.069
0.76728
-41.237
193.63
116.11
-226.14
-36.982
41.145
137.38
35.501
-112.63
-103.69
-1.0539
68.306
-19.322
-49.604
-104.35
97.566
116.68
-129.24
-42.844
181.47
28.186
-103.41
-20.159
-2.5721
26.318
2.3311
-3.9786
80.131
68.784
-55.758
-99.581
-11.625
-12.791
-1.6184
33.194
-4.7514
-16.111
17.929
7.261
-19.793
5.9584
20.576
-12.587
-7.543
21.053
-5.2833
-15.386
16.324
6.8103
-23.564
1.9448
23.249
-12.08
-16.952
20.215
11.68
-23.881
0.38216
26.167
-3.4876
-22.351
13.972
16.346
-20.046
-4.7007
24.102
1.5773
-28.176
5.6201
24.113
-8.4374
-27.751
13.748
22.198
-12.647
-22.275
19.467
13.347
-21.852
-6.8852
20.575
-3.3509
-23.544
10.989
28.613
-9.3204
-21.102
18.821
10.358
-26.879
-7.5454
25.354
2.02
-24.931
7.2146
19.852
-17.401
-16.286
21.329
11.51
-26.247
-4.1528
25.756
-1.7432
-25.958
12.588
22.181
-16.956
-20.57
19.149
5.12
-25.069
4.4356
26.083
-17.467
-14.891
31.021
22.892
-26.654
65.703
-52.754
-68.322
21.997
7.1434
25.596
-23.495
-2.5573
25.232
-3.6273
-22.06
14.619
24.1
-25.87
1.522
74.445
-8.4315
-27.582
-61.5
-25.202
19.492
-22.133
138.93
-63.1
-89.028
8.7612
42.574
-8.0029
-6.4702
42.344
3.7895
17.97
0.013756
-28.478
-35.636
47.856
0.92955
44.128
-21.031
-80.79
-10.813
29.53
29.623
37.593
26.516
32.588
-1.4536
-140.12
-170.33
225.03
23.207
37.869
-25.746
-50.482
-107.01
23.633
47.54
28.639
17.524
2.3808
-55.151
-20.188
32.543
14.365
-11.46
78.726
67.533
37.633
-79.838
-121.22
35.177
-34.644
4.5178
23.787
-7.4706
-21.228
26.585
16.345
-19.287
-2.3949
29.627
-1.2242
-19.945
14.665
18.226
-23.266
-11.19
33.525
13.313
-28.81
-3.3175
26.02
-5.8456
-35.929
6.5984
23.733
-14.419
-20.142
22.036
17.19
-9.4537
46.541
-5.6505
-69.554
61.862
45.395
-133.68
-14.946
8.0816
31.095
-1.8625
-29.226
15.087
30.644
-12.865
-9.6095
32.361
5.1741
-26.495
14.706
27.22
-19.07
-13.006
27.48
9.4318
-26.08
2.1112
25.563
-8.5855
-23.959
13.86
15.246
-20.964
-6.0802
20.699
-7.1844
-24.363
16.424
17.907
-19.25
-8.3126
24.411
-1.1062
-21.09
9.2694
15.751
-16.847
-10.935
20.217
-1.021
-23.537
12.994
14.818
-23.564
-11.525
25.083
-2.324
-24.358
12.757
20.543
-14.381
-5.868
23.841
-11.107
-10.82
25.143
77.191
-3.8091
-158.6
21.764
10.475
-5.1253
32.563
11.773
-33.353
16.77
21.104
32.359
-3.3332
-75.153
17.622
-10.507
26.457
5.1342
-27.833
-5.5557
24.972
-12.204
-20.661
29.078
2.5809
-17.021
-34.504
80.025
73.703
-56.473
25.756
-10.605
-59.185
33.181
-1.3427
-51.299
-5.9881
18.725
-9.3795
-6.6507
22.151
2.4337
-44.901
22.572
23.383
-28.684
-10.175
0.2579
-23.409
-5.0134
31.203
-11.435
-13.576
31.343
3.0068
-24.253
27.843
23.679
-15.425
8.5952
43.659
-6.9628
-32.269
8.5675
30.36
23.08
0.6895
15.37
-32.982
-72.684
-54.162
-1.9136
44.601
-13.957
27.417
-7.1352
-14.521
25.491
21.097
-14.941
4.9674
28.711
-5.6261
0.024613
34.305
5.6812
-18.842
25.431
62.147
5.4928
-14.845
-89.328
-41.453
27.569
22.563
18.164
-15.693
-20.209
16.289
5.1699
-18.664
4.0322
8.127
-14.464
-10.767
48.885
68.763
-82.404
-10.319
-15.038
-50.444
-19.099
-4.4758
41.752
14.835
-70.29
-39.427
54.633
144.45
-91.758
-68.722
21.504
19.197
67.028
62.093
-24.606
-77.714
-66.557
26.655
21.107
-19.794
15.458
33.406
-3.295
0.073038
20.348
-4.8611
-15.408
2.8532
0.68671
-6.1097
1.3304
13.897
6.0893
-28.531
-27.694
-8.4228
-16.721
62.931
37.11
-8.5773
-3.4404
6.9535
-1.2335
-10.042
2.3598
-5.662
-13.514
3.8422
6.8569
-7.7253
4.7352
10.616
-5.8891
1.4799
10.935
-5.0734
-0.81364
6.8914
-12.313
-8.2156
9.9823
-5.147
-10.683
10.738
2.662
-9.9201
7.9355
9.5332
-5.9496
2.2391
11.272
-5.5082
-8.2097
5.7683
-0.88325
-11.895
2.4581
7.4067
-6.6758
-8.7873
5.6843
6.6712
-7.6142
-8.5015
4.7347
-1.3472
-24.658
-5.17
8.9198
20.138
-8.7531
23.661
54.775
47.409
-99.207
-24.437
22.21
60.652
-3.3279
-49.494
10.313
46.563
74.434
-74.22
-49.446
7.5959
-13.447
127.29
-15.465
-270.1
-82.794
202.08
125.84
-64.246
-53.157
-86.147
-23.585
-3.6506
31.969
37.591
17.276
31.943
27.949
-12.904
-18.319
-0.04767
9.1421
17.028
8.1302
-35.654
-38.046
-35.255
40.807
79.266
4.4007
-64.262
-32.293
5.6378
-40.614
-17.65
-22.112
-56.716
-62.102
35.033
57.522
18.894
39.687
37.177
35.002
-12.754
2.0723
16.669
165.57
-101.71
-79.265
-2.1363
-39.378
16.789
33.453
0.55389
-27.978
19.542
23.817
-12.725
-4.0349
23.352
3.0301
-14.606
11.363
26.506
-15.27
-8.8711
18.917
-4.0135
-15.591
13.983
18.455
23.215
92.999
-40.305
-94.634
111.44
169.85
114.34
-523.69
-540.02
363.1
99.448
10.607
140.15
189.39
-26.994
-66.169
-52.056
20.257
90.615
-24.732
-76.006
-7.8506
-14.401
-20.098
-3.5403
109.85
51.859
-60.415
-183.18
58.097
113.97
-60.141
-122.35
112.33
-46.19
139.05
0.35825
-105.47
-16.719
30.902
19.02
-27.707
-29.184
100.36
-98.509
-101.35
123.62
16.046
-168.62
117.36
115.43
-84.592
-11.898
66.018
-14.06
-45.763
25.206
16.629
-23.615
7.6235
49.887
8.4727
27.23
66.113
8.7606
-197.53
-18.681
65.434
-0.39915
-23.448
28.663
23.209
-13.994
3.1536
14.636
-29.07
-40.815
6.4502
13.767
-4.9798
15.944
7.6012
-27.875
1.0933
51.078
19.008
-18.859
4.3763
84.215
-139.75
-85.526
66.023
15.647
-15.041
12.383
47.223
-17.498
-30.239
28.212
16.872
-24.894
-0.26289
33.094
-6.9467
-37.943
-2.0681
28.204
16.18
-9.8351
23.149
-13.958
-73.143
103.79
73.744
-111.24
-20.838
10.956
-54.2
5.7438
56.717
19.884
-14.796
9.63
-2.1962
-20.405
9.6798
82.422
29.614
-128.15
-40.615
15.302
25.098
-26.044
-1.3086
21.188
-16.961
27.461
53.796
-45.276
-58.578
-12.952
20.063
-8.1996
1.4836
19.083
-5.4262
-26.183
-39.653
78.887
-7.5543
70.369
62.334
-195.76
50.9
16.384
20.321
15.49
-34.585
34.602
21.491
50.56
-129.18
14.844
97.893
-109.94
33.455
176.07
-49.905
-215.67
85.09
-70.058
-17.494
96.734
-60.168
24.867
-1.6194
56.013
0.46216
-30.527
6.3022
12.697
-25.016
49.947
-52.855
96.376
-93.122
15.809
77.808
-17.371
-11.309
-43.65
30.458
-21.492
-48.703
-75.101
54.119
125.89
57.538
-140.02
-23.509
52.99
56.242
-63.246
-56.701
-105.09
141.21
49.035
-65.751
-54.364
56.296
90.995
-128.69
95.586
13.284
-84.729
38.674
-19.516
22.521
-61.568
40.039
36.742
0.50511
-49.393
69.131
68.367
-40.933
-69.639
-50.863
59.101
-41.529
41.644
-25.639
39.991
40.255
-121.93
36.305
45.643
-8.7771
19.683
15.516
-14.156
42.462
-142.72
110.8
-71.792
71.623
-49.808
-2.4109
81.071
-45.099
-43.541
-81.903
-12.346
110.81
-65.299
-19.496
149.19
-44.343
-110.95
74.896
38.712
107.39
-50.619
-50.704
6.8154
-39.554
-33.389
20.026
66.314
-84.549
73.288
-12.124
74.409
43.801
-120.92
-61.673
-13.648
16.575
-87.468
109.34
97.043
-132.03
26.369
-48.042
118.04
46.621
-94.708
-7.2295
57.785
-88.296
40
7.685
-94.08
1.1993
194.32
-105.14
-5.7336
-66.275
-59.956
159.94
75.179
-21.738
-126.59
77.468
-88.088
61.775
2.28
78.275
-87.214
-42.914
-12.282
111.53
-72.102
-94.822
122.58
-8.1283
-43.918
82.489
-62.647
71.44
-56.753
9.2269
2.4318
-23.108
54.271
29.564
-45.53
-68.635
-8.0834
59.834
-41.089
-5.4094
-19.596
106.83
37.643
6.6916
-42.873
-36.648
-82.249
76.311
-97.51
60.203
48.317
-31.029
28.662
-48.115
101.69
31.987
-59.971
37.661
-134.41
-14.357
29.864
34.767
-8.8142
69.937
-46.135
-51.222
78.658
-57.276
-35.786
185.76
-119.07
-105.98
147.86
56.046
-155.48
9.9379
7.2738
-52.129
51.46
61.142
34.949
-81.341
-13.557
85.224
19.176
-42.201
-68.403
26.196
-19.363
166.64
-95.972
-40.267
115.04
-187.47
8.2911
-26.483
7.0543
-5.3843
41.609
-9.7344
17.66
60.818
68.608
-82.557
20.076
-15.754
-66.629
69.915
6.9915
49.89
-81.652
11.065
12.766
-32.07
-36.373
79.33
72.747
-9.7092
-79.831
-76.891
27.701
68.264
44.753
-101.68
-25.369
10.554
13.64
-74.79
98.104
85.314
-73.683
-28.568
41.296
61.051
-162.43
-29.218
145.45
-43.893
103.83
-107.19
-12.609
43.11
-21.965
-19.726
79.16
41.453
-65.325
-42.984
-133.93
112.3
84.782
-88.648
-4.4832
56.509
-34.229
-8.6481
36.289
-7.7673
-22.635
12.351
34.782
43.568
-37.683
66.583
-85.445
-48.243
11.425
-9.2479
18.226
25.034
-1.1888
-11.814
12.372
7.6793
-18.765
37.962
-16.511
-25.177
-18.371
101.13
-54.933
-66.601
7.3361
13.737
-5.9821
-4.5117
27.382
5.9467
-16.782
12.945
21.376
-14.584
-11.079
16.478
-1.6525
-12.993
14.206
12.166
-16.68
2.9246
18.971
-9.3846
-11.823
16.423
4.8125
-17.167
2.9149
13.164
-13.042
-6.4947
15.797
0.41425
-15.701
10.132
14.053
-17.83
-7.6117
18.994
4.1109
-16.856
2.9634
12.588
-12.94
-13.361
13.691
2.8543
-16.475
4.2591
15.484
-11.289
-13.042
14.984
5.8195
-19.682
0.047639
18.728
-7.9625
-17.111
11.207
8.5799
-15.262
-2.2741
17.011
-3.0173
-12.569
12.02
12.089
-14.484
-4.7012
19.05
3.3456
-12.195
9.9142
5.2374
-17.082
-13.659
30.099
-0.15591
-9.4554
-115.19
22.857
103.66
-43.566
158
-38.376
-117.95
-94.368
94.945
-74.747
72.316
26.194
-13.311
33.447
-5.8101
10.974
57.888
-82.99
-13.399
-100.29
148.75
18.173
-11.156
-31.251
-22.73
-12.653
-14.317
-8.0258
47.255
-45.603
-37.884
113.58
-33.399
-30.911
-25.207
62.698
81.446
-83.713
-2.2147
49.098
-2.3789
-21.294
-49.691
43.148
-20.334
-33.413
-23.128
45.95
76.611
-8.4502
-103.03
7.4916
-37.395
92.519
-27.462
11.455
-7.2668
61.794
-59.181
13.185
-45.366
-1.1149
80.851
-12.014
-92.736
28.251
88.894
-33.732
-38.87
84.412
37.444
-64.66
-44.655
-98.786
-10.382
47.111
90.312
-69.965
-65.865
99.502
0.25279
71.157
-46.069
2.2054
-6.7855
46.71
-4.3358
-52.025
-29.469
-48.364
13.794
52.714
21.044
-44.488
176.69
-154.7
17.65
40.61
-95.813
35.212
83.947
-33.412
-32.726
72.034
-111.27
-14.096
-10.133
43.232
29.527
17.257
-21.485
23.93
-86.052
113.27
-63.088
-59.805
75.4
64.356
-53.656
-45.467
-65.981
104.74
-37.892
-38.997
169.95
-147.89
-11.567
23.946
30.232
-54.16
6.4741
218.75
-41.345
-232.55
68.008
29.583
-45.106
31.033
-12.903
47.4
-3.5443
-10.331
38.892
-51.765
-1.7521
22.56
-14.763
-15.235
-33.272
82.95
12.822
-38.489
-0.65586
75.717
-75.468
16.489
-20.64
12.632
-10.113
-6.2242
-68.316
11.99
23.21
28.325
-50.316
13.053
132.92
-87.349
10.617
38.249
-46.872
-8.5412
26.809
18.295
-2.6224
-84.96
-8.6466
54.497
-143.41
105.57
53.131
-15.491
24.65
36.514
-54.454
-99.468
176.89
-68.182
-134.13
79.594
76.798
-40.351
20.805
61.028
-41.049
-2.6144
36.995
-52.78
-104.25
91.984
-45.514
-3.195
72.559
-8.522
-70.034
41
46.111
6.2231
-10.57
29.845
-52.978
-104.48
32.902
72.356
-29.458
1.749
-17.413
-0.89578
34.698
68.228
-94.762
26.406
29.773
-39.757
-7.8778
-22.119
54.214
-1.8396
49.644
-68.354
-35.67
-20.128
166.39
-93.406
-39.13
7.3847
-1.3352
39.763
-7.6
-13.694
-3.475
-43.865
40.673
5.4272
48.344
3.0793
-88.276
5.4891
13.96
8.2731
-19.284
11.241
6.5789
-14.451
-8.2776
22.688
-0.2416
-0.63104
21.26
-0.93984
-13.012
12.448
20.312
-5.4085
-6.5907
10.579
5.5233
15.003
5.2422
-21.263
-16.114
4.0958
9.0754
-4.9979
-6.6571
1.4422
-2.5444
-13.432
5.9841
10.397
-5.5591
-2.7246
14.845
-33.094
-27.222
-119.95
75.473
59.221
12.59
157.06
-9.131
-90.098
-32.074
28.59
62.996
-98.352
-97.912
54.209
-25.633
123.42
-69.611
-19.726
102.95
-103.4
-69.427
74.134
49.876
-44.109
85.273
-108.97
69.344
-24.098
16.461
-54.65
1.9949
24.881
13.837
42.465
-27.929
-1.5833
-26.288
-9.1166
73.913
19.999
-136.8
11.843
48.313
-39.267
58.898
-48.659
33.158
-10.031
54.008
-5.1872
-100.23
21.929
-32.028
-36.073
56.231
137.72
9.3543
-34.846
-76.398
-47.6
96.786
-73.327
-74.132
85.382
66.761
18.587
-76.833
45.564
-37.25
53.44
45.222
-75.26
-88.729
51.728
-41.176
56.561
53.614
-100.16
51.353
41.258
6.9464
37.011
-43.28
-76.321
16.733
-24.424
54.794
-62.418
-3.2445
40.806
127.14
-47.551
30.34
-105.8
-25.936
42.419
1.754
-5.3831
76.413
-46.525
-95.785
-18.814
27.67
-82.957
97.239
100.23
-25.637
-184.7
32.188
-17.483
108.35
85.935
-53.438
92.27
137.55
-229.17
-17.127
-20.158
-69.639
43.126
-0.83961
-49.511
46.309
-4.4773
40.466
-5.3839
72.055
-91.568
37.142
27.765
131.43
-139.37
8.3047
-69.457
-8.095
156.59
-86.04
-3.7639
42.911
-6.9745
-20.335
-48.523
-61.831
161.05
-4.643
-35.056
-19.069
16.121
-14.092
-159.32
147.05
98.024
-114
-123.84
105.35
86.111
-27.034
-30.685
-77.906
87.203
21.846
-190.1
149.06
-10.451
74.586
-27.075
-33.892
-12.015
82.32
-16.043
-112.44
15.562
-73.324
128.35
-18.95
97.585
-185.91
88.371
100.77
-7.1674
46.173
-56.717
-75.497
47.782
-67.316
-6.031
-20.484
37.288
10.613
73.532
-81.186
-52.494
135.39
-76.302
121.41
-133.51
49.652
-66.769
0.016055
30.687
-24.129
132.04
-53.345
-52.545
1.1487
3.2772
34.503
-55.104
31.651
49.189
-73.14
-65.234
81.316
51.293
-154.65
34.978
85.711
-30.374
-8.9911
-4.5353
33.7
-14.453
-44.826
62.921
44.127
-115.71
-25.757
136.54
-33.744
-37.765
41.248
25.325
-20.893
-81.137
71.052
-9.2427
53.37
-1.4233
-156.13
123.43
-96.813
35.114
41.37
27.183
94.742
-98.883
-101.39
1.515
80.256
22.476
-71.919
-148.73
58.117
230.37
75.347
-201.93
117.37
-41.959
-119.81
84.373
-5.5324
-13.937
-22.417
38.103
41.172
43.87
-43.972
-111.1
13.611
32.249
-28.79
1.0496
19.104
-66.557
127.15
32.476
-58.794
-69.729
91.848
67.955
-10.012
-101.27
48.053
-28.079
-43.909
-59.434
38.992
116.77
-6.9831
-84.535
69.986
-133.6
22.469
97.903
-32.8
-21.936
-7.685
27.453
-75.822
56.35
64.156
-70.913
90.159
-44.545
-35.353
34.714
-16.858
-82.408
41.787
106.01
-63.13
-53.924
50.213
27.483
-1.8966
-8.0543
-85.556
81.833
59.404
-70.895
-27.979
22.965
26.336
13.23
29.009
-67.31
47.05
-52.728
63.04
-63.427
3.0489
4.1928
-48.864
53.075
148.82
45.245
-160.48
-72.664
-6.1745
-14.091
-49.604
119.78
-56.878
-57.886
108.66
16.266
16.23
-20.231
-74.972
-41.932
15.397
43.152
59.457
78.092
-31.532
-92.29
-31.231
99.287
-2.0348
4.9426
-71.253
-65.831
137.36
-8.0819
35.894
8.0729
-97.606
-55.533
-21.473
83.083
-23.729
29.893
22.225
-24.995
39.815
24.331
-24.606
-13.481
5.0518
-44.517
-72.508
32.83
69.451
106.17
-20.104
28.453
-69.611
-55.726
-8.502
-23.769
21.977
-6.8163
-7.5132
15.897
0.107
-2.1795
16.316
-8.5931
3.2657
12.939
-15.667
5.4334
-1.2857
-8.2778
16.359
-6.5519
-1.7942
19.916
-8.0562
-7.7624
15.249
-6.7911
-8.7631
13.999
-4.4989
-10.762
12.198
1.4269
-12.141
8.5283
8.1027
-14.058
-1.5532
12.472
-7.8596
-7.4765
10.604
-4.8224
-14.131
8.9292
6.2097
-16.761
5.2764
4.2062
-16.603
1.3487
14.508
-9.3953
1.4598
22.63
20.1
9.9351
-42.14
-41.089
8.3717
62.372
134.01
-43.1
-29.053
-61.979
-126.24
71.828
53.645
-77.088
73.54
63.946
-115.16
-58.083
51.138
54.094
0.41144
-44.84
43.128
-26.022
71.789
-94.389
-38.614
28.498
63.722
-31.497
-20.327
12.682
-1.5563
15.531
49.115
83.227
-140.68
-54.592
2.219
-11.326
128.84
-42.064
-55.225
2.9633
70.31
47.341
-105.6
14.932
-58.332
48.319
65.459
-21.725
27.449
-36.742
56.704
-13.963
-55.819
-6.0227
-88.799
79.432
-14.222
4.5087
-2.4209
103.13
-88.862
-32.298
46.439
18.615
-13.012
-55.996
71.871
37.134
9.0813
-76.309
49.488
46.302
9.9178
-84.428
-123.98
-46.131
70.361
-15.231
117.13
23.916
-71.697
7.3472
45.137
4.6634
-9.4172
20.806
-5.1057
-19.579
-79.739
0.41704
35.29
17.801
55.236
-68.357
30.847
39.266
40.812
-65.896
0.42323
-38.252
-46.413
37.439
-10.806
46.533
-59.537
13.571
45.447
63.039
-41.062
8.7384
-16.402
11.875
-7.7968
-53.898
49.943
-28.743
-36.721
75.878
-31.021
5.5227
36.411
-78.955
-55.406
68.816
7.5787
-22.145
48.978
19.555
-4.5931
-12.265
-30.854
3.2406
37.402
-41.992
-42.358
59.671
16.283
10.257
-11.152
13.725
-50.887
68.274
-83.909
5.8247
68.643
-35.156
21.322
-41.301
-44.203
28.107
75.812
49.615
-6.4906
-4.8787
-110.98
26.033
-0.97263
-118.45
84.096
-10.378
33.051
-3.6454
17.03
-22.777
94.684
4.7777
-55.599
-12.204
22.057
-41.852
30.966
11.311
42.697
-109.39
-41.492
53.926
63.615
44.099
-130.35
14.113
24.124
108.36
-128.42
120.93
-41.077
-7.0128
26.079
-45.6
-63.837
5.4628
-86.497
44.057
52.419
-68.487
-3.5404
113.05
38.129
2.3753
-2.0883
-133
76.847
32.611
-29.193
4.7859
-21.766
51.896
-51.143
9.1423
-22.643
54.523
-35.215
-8.7234
-17.629
0.92249
51.594
49.422
-19.565
2.5028
-50.85
79.077
-70.763
-48.165
43.76
-0.42354
-76.29
30.264
38.226
30.508
40.329
8.2669
-118.69
44.966
74.241
-168.57
135.43
27.23
-36.67
-156.54
113.44
49.166
-21.231
-90.329
124.63
-124.5
24.153
65.24
14.498
-68.155
-88.693
83.284
68.111
-84.234
86.225
135.21
-20.638
-64.392
-171.53
24.609
211.73
-18.041
-108.22
-69.514
-44.57
34.01
-74.033
250.47
-5.8145
-105.26
49.694
-107.89
15.177
-1.5422
111.03
-11.577
-63.249
17.311
6.0205
-89.691
5.4644
32.429
29.348
4.6057
-82.381
27.83
172.08
-64.402
16.665
11.837
-4.662
-179.84
44.541
81.125
21.537
-61.83
-31.915
-67.155
159.29
61.608
-104.7
-24.159
42.824
-52.231
28.783
13.329
8.7154
4.5133
-37.409
69.067
-43.655
-50.308
32.182
-8.3778
-31.187
92.605
-41.581
16.377
43.602
-28.539
-18.506
-67.259
102.7
-30.026
-44.163
46.346
-34.701
79.871
19.251
-107.88
-86.835
118.59
-12.133
-5.0535
52.793
79.92
-172.33
-49.042
117.31
-40.932
-20.755
42.935
28.979
8.7829
-8.0238
-61.792
-96.088
78.78
74.402
-70.293
45.834
118.54
-53.966
-48.84
-35.483
8.487
40.201
-5.5794
37.404
11.337
-23.912
69.638
-59.193
-119.18
-23.698
-85.637
70.889
164.52
-9.0474
-71.461
1.3203
-9.535
54.334
-93.926
24.574
30.393
-37.661
-7.2088
135.29
-103.78
-4.6785
140.38
-156.73
34.307
50.094
-17.475
-72.997
-20.155
-3.0639
83.317
30.785
-16.836
-6.4958
-31.605
-6.4992
70.472
-65.767
-21.934
5.0804
90.461
-71.987
31.839
1.9815
-63.501
146.2
-54.262
26.727
-141.67
-89.901
42.783
80.041
192.03
-82.584
-109.88
64.392
-67.48
-2.0215
54.213
-42.929
-6.2872
-7.2881
43.26
-4.6538
65.84
27.082
-183.5
10.068
111.87
-69.981
-25.728
29.439
9.1347
-7.8101
22.005
8.5555
-10.952
13.023
-13.896
-11.925
16.542
5.849
6.7508
96.57
135.34
-154.91
-21.454
-72.686
-11.976
20.34
4.7863
6.253
14.313
-5.2299
-16.736
12.369
6.3096
-13.063
2.6349
6.3905
-13.161
-0.02851
11.128
-9.1977
-2.2192
15.156
-5.6285
-11.331
10.185
-0.07215
-13.302
8.3569
8.4704
-15.79
-4.231
10.836
-10.687
-11.317
9.9665
1.6116
-16.702
9.6183
11.454
-16.509
4.6016
15.046
-11.098
11.948
42.092
-27.361
-30.63
18.785
1.3562
59.946
32.321
-25.482
-86.539
-22.155
-23.441
56.125
60.458
-54.219
-18.904
12.862
56.122
-19.847
-4.2319
-88.264
38.728
-38.899
35.726
80.782
-99.344
52.019
-44.065
70.255
14.889
3.4767
32.819
-73.651
-41.424
42.158
-18.266
-35.208
24.183
-66.402
88.124
-0.19972
38.061
8.3646
-54.342
67.889
-12.393
-59.647
19.03
-17.553
-38.855
-42.343
35.641
15.122
-5.3757
23.927
50.961
65.34
-54.734
-6.343
-45.644
-36.892
47.971
22.208
30.811
42.616
-26.562
-158.2
-12.588
25.565
51.09
29.107
-20.066
56.164
27.212
-3.2381
-3.0787
-52.677
-30.026
-1.1435
17.381
43.762
-44.343
-190.18
170.57
158.98
-198.26
-64.822
155.16
-55.526
-12.486
243.35
-95.859
-98.732
51.229
12.804
-37.844
-23.889
12.259
14.453
-7.462
-55.7
-17.72
-39.926
-13.529
-60.649
-16.906
61.715
31.228
-59.34
86.506
103.6
-62.187
27.825
23.943
-21.911
-10.229
54.169
40.109
182.08
-26.277
-100.45
-46.73
-13.445
-68.695
-8.0238
-20.257
-43.402
-79.757
-87.824
126.49
68.523
-92.17
76.36
8.7051
-58.061
-28.41
19.015
73.44
12.621
-11.548
-49.143
-67.724
274.04
379.35
-245.8
-279.16
-28.316
113.29
-99.047
-115.33
78.013
36.399
-16.243
-9.3738
17.112
58.151
37.281
-69.214
19.793
7.0998
45.384
-5.3453
2.7224
-52.591
-120.82
28.314
-152.57
60.575
213.96
11.193
-126.39
-131.66
72.574
218.53
97.125
-168.39
119.64
189.5
-182.83
69.196
-144.48
-237.79
125.67
18.415
112.18
-183.37
-25.469
77.554
109.62
27.269
-56.237
-21.311
-14.426
1.8008
-2.2636
-9.4578
10.167
24.674
-0.94337
-2.6779
12.562
-6.8373
-5.8893
11.167
-21.613
-12.596
1.4779
-12.878
-9.1392
5.3566
-11.986
-1.2883
-3.3299
-33.095
12.932
27.042
-21.146
13.916
25.037
-19.215
-2.8815
18.131
-9.6312
5.6389
13.415
-12.307
5.5514
17.719
3.9432
-0.58767
-1.7886
-11.317
16.064
2.5635
-21.395
-8.5475
21.741
-6.4301
7.2996
12.367
-18.899
14.258
7.4641
-13.045
-0.15876
-2.335
-9.4494
11.787
-2.8493
-2.6621
9.6959
-16.28
5.8299
4.3054
-11.048
16.943
-13.247
1.9144
6.4917
-14.438
12.714
8.059
-14.772
6.9207
-5.057
-0.32893
20.112
-10.745
6.2098
-5.4111
-7.2041
7.5542
-7.7064
3.0374
13.281
-10.015
2.8928
1.2894
-8.0864
9.5485
-4.1948
-0.67059
5.2643
-4.6466
5.4953
4.2313
-10.997
4.7891
-1.2138
-4.1857
3.5562
-8.9135
2.2119
-1.4115
-5.3642
7.1166
-10.234
0.21568
5.9848
0.21966
9.3904
-4.8142
1.6606
8.1902
-8.7737
8.2091
2.1165
-8.9571
8.0449
-5.1297
-0.78631
-4.2068
-3.666
29.487
-8.3572
-12.162
3.5433
-9.9834
-2.3657
5.6422
-8.7629
6.4688
-1.2307
-6.4084
5.3754
-6.1267
1.1565
1.3755
-8.6844
10.396
-3.7107
0.17821
7.4742
-9.3221
5.692
-2.2978
-4.1598
10.876
-6.3728
-1.1538
5.6823
-5.4471
7.0463
7.7016
-8.8588
0.26603
5.9854
-7.0072
1.0983
2.0914
-7.6042
4.7529
3.7601
-8.7653
5.5364
-0.7756
-8.6098
9.7207
-3.4006
-10.478
4.0931
2.8163
2.2151
4.8224
-7.6227
4.1816
1.0984
-4.1699
1.5386
-10.279
-24.476
-37.652
-46.442
-14.101
83.728
50.83
11.033
212.22
158.57
-444.25
37.153
87.647
-8.6336
6.3426
-377.62
197.24
426.56
-128.83
-306.05
-27.09
-0.099937
215.72
57.976
9.0684
70.858
-301.48
-92.718
-25.139
169.27
236.35
-118.37
-85.454
41.687
-7.0026
-73.11
2.2741
136.74
-56.351
40.569
-15.566
-57.744
-7.1295
-20.023
4.2562
10.808
7.8472
-2.3655
-2.4886
-10.072
9.9063
8.6181
33.957
16.701
5.2297
-7.7097
-20.603
1.9168
-27.285
-45.942
-20.995
-4.2583
38.893
68.842
23.294
53.555
-17.096
-61.644
103.36
-276.49
-92.085
-90.7
235.39
157.9
-77.795
-25.94
86.221
76.842
-120.47
-60.401
85.102
82.16
-146.09
-58.03
82.796
201.79
-240.07
-87.042
267.83
-74.907
14.606
-67.793
52.537
-276
-28.938
80.977
14.828
30.055
34.325
229.72
41.155
28.976
-30.297
-115.21
-0.63153
-76.739
-138.91
151.14
22.588
-134.51
42.059
27.675
45.49
-40.719
-39.654
74.77
46.847
-47.875
-4.336
-4.8771
51.049
38.637
-19.123
-30.28
-13.094
-7.707
-3.9525
27.74
11.807
55.511
193.99
49.821
-214.3
-259.5
-338.38
20.534
376.32
97.513
-327.46
-41.149
419.45
273.01
50.727
-249.69
-506.22
85.367
409.47
11.134
-557.37
249.7
438.92
58.179
-449.71
-313.5
299.04
561.95
-205.47
-232.44
1.1227
20.2
-5.5197
-25.027
22.039
5.4978
-10.242
-55.372
107.32
171.51
44.939
-366.61
-253.83
184.45
92.662
62.09
17.315
71.9
230.77
-132.93
-585.47
233.55
175.71
-98.344
-149.81
-104.91
262.55
135.92
94.462
17.772
-41.657
-10.836
-16.277
-166.12
140.13
48.942
-105.86
-79.792
22.121
-2.882
67.473
12.117
1.5468
1.987
-24.982
-57.337
-26.541
98.658
-59.227
9.8591
5.625
-0.80814
41.807
-1.9803
-49.276
6.8331
-32.674
9.2692
16.069
22.129
21.557
-5.7377
-18.912
-17.067
31.501
38.926
106.53
-34.598
39.329
-108.76
-22.019
-112.48
65.424
81.247
-71.556
41.423
-26.791
-120.2
-31.959
123.04
12.802
14.548
-84.63
40.735
-2.1496
159.09
-48.284
-78.881
-23.872
-4.2208
14.397
30.556
8.887
-0.77119
66.325
-137.78
3.624
41.139
23.462
65.205
-82.697
4.7053
-69.564
52.904
114.52
-0.068222
-7.2292
59.867
-269.98
32.076
134.8
-107.93
-34.569
137.92
64.902
-132.88
-83.528
81.068
-0.062995
-43.618
60.679
52.747
-46.727
-9.0372
45.918
1.0593
18.068
38.54
-27.938
2.461
-54.695
64.986
77.281
-248.91
-9.1115
60.039
-26.128
89.406
65.723
2.6574
-36.767
-5.6748
-3.8927
-16.857
15.008
-6.7706
-24.97
31.255
0.87531
-22.945
-1.2275
-34.421
-19.824
23.559
-12.342
-0.35583
26.396
-8.6764
-10.511
21.964
5.3298
-20.938
2.5254
17.787
-8.2497
-14.244
12.749
-3.0779
-22.538
5.4547
6.8845
-25.363
3.0558
24.762
-19.456
-16.461
25.989
7.2445
-27.305
15.848
33.421
-2.9502
-21.255
20.793
19.911
-19.874
-17.789
29.692
17
-22.118
-23.991
25.355
16.281
-22.281
-28.139
22.297
16.431
-10.17
-14.256
26.273
15.491
-25.903
-13.227
21.116
1.1219
-30.4
-0.95608
24.149
-9.4092
-26.713
20.605
23.274
-20.111
-16.168
25.867
0.53322
-31.113
12.2
30.648
-17.691
-26.285
29.421
21.652
-27.331
-10.342
37.463
15.121
-26.953
-2.0353
28.526
-3.5529
-29.469
11.623
26.028
-8.7421
-20.252
21.861
16.087
-18.933
-26.99
16.958
6.4853
-23.526
-16.979
21.444
-1.9317
-27.861
8.4318
27.772
-18.313
-27.368
21.586
13.098
-33.451
-12.685
39.831
20.416
-15.624
11.14
32.131
-13.779
-32.283
14.896
20.718
-25.546
-20.829
27.581
8.4443
-29.684
-2.9369
30.105
-8.708
-27.31
15.788
14.089
-31.69
-2.9459
27.896
-9.2371
-32.419
19.797
23.02
-36.086
-82.885
-26.648
150.8
-185.16
44.365
171.09
-16.135
-52.613
-3.6707
17.193
25.816
15.693
136.86
-42.618
-203.2
31.218
96.789
51.419
-150.31
15.832
53.567
2.0422
-32.777
21.678
3.5708
-16.706
11.696
259.28
-160.09
-198.21
-2.1926
80.138
69.881
-13.308
-16.755
93.46
-111.63
-30.069
7.934
-9.5164
-16.922
17.246
18.044
-6.2051
-21.524
12.108
16.181
-3.2676
-14.345
14.254
16.023
-4.2341
-16.947
16.198
38.851
19.223
-46.323
-20.275
2.7135
-7.1052
-14.518
14.754
17.332
-8.0626
-23.643
12.632
16.885
-9.1267
-20.947
15.408
18.528
-4.3691
-8.1862
19.765
13.272
-17.705
-7.4385
13.607
2.5944
-18.514
3.6048
12.385
6.2311
-5.7166
8.0168
11.803
5.7475
-25.726
6.7582
22.565
-75.794
-43.875
84.244
83.558
-39.389
-18.048
-29.702
-3.9938
-20.179
5.692
13.821
2.0876
-21.612
3.5413
13.754
-24.198
-14.831
25.018
14.213
-16.524
5.2318
7.9986
-7.9426
-13.877
7.2528
14.32
-3.748
-12.782
6.6976
8.2798
-9.2054
-2.4534
20.651
13.351
-3.6943
-15.114
10.321
14.325
-23.363
4.0603
40.959
67.326
-25.546
-43.081
-19.21
-21.702
-14.472
-3.6189
7.5172
9.1722
30.956
54.254
93.716
-10.752
-114.23
-35.739
-9.0876
-44.267
28.798
-32.913
26.23
7.1187
-28.702
-18.234
18.78
-20.859
108.29
-125.29
0.28101
81.976
-23.394
-4.3384
-39.352
-52.526
77.999
145.9
-70.251
-17.131
-32.558
-47.98
-9.7726
25.828
-3.4939
-21.487
8.4265
28.26
-7.2039
-11.477
18.331
16.85
-17.22
1.3304
32.6
4.7092
-20.244
10.124
18.552
-5.5366
-58.282
-12.908
31.56
31.18
28.964
48.809
-48.293
-64.794
-10.374
16.422
-7.834
-26.634
7.2956
19.207
-14.273
-1.4998
26.319
23.529
-90.032
-9.7055
120.92
-15.554
26.235
19.496
-11.912
-28.669
-34.826
40.412
30.566
-16.084
-33.513
6.7368
26.459
-24.219
-3.3489
43.629
-79.612
157.36
-29.847
-210.71
302.41
200.47
-133.07
-783.87
-214.04
128.72
168.24
329.41
261.97
-3.858
-83.12
-124.28
127.8
39.187
44.705
175.33
107.28
-172.1
-158.25
-143.19
25.471
74.851
-1.9388
-40.267
-34.498
23.335
-26.248
-4.8593
9.2043
10.758
-49.931
36.495
18.501
-12.189
-10.389
17.182
-10.257
-10.339
20.513
-6.7506
-13.042
21.212
-4.2527
-16.113
20.984
1.5817
-16.084
20.777
7.1467
-17.409
9.4847
16.224
-16.063
-9.2473
19.442
-3.593
-16.228
14.067
13.278
-17.246
-8.4168
17.099
6.0607
-24.8
-5.8067
14.896
-5.5274
-21.109
7.5392
17.477
-6.676
-14.708
14.965
11.62
-21.844
-3.5026
21.009
-0.27384
-29.894
4.7873
19.217
-10.165
-17.149
28.571
-1.5284
-11.403
21.088
17.936
1.5511
-26.728
-10.781
-2.4173
-8.1899
4.1443
36.929
11.541
-13.688
-23.434
15.527
14.069
-19.203
-12.47
21.333
7.1018
-20.072
-2.2735
19.019
-1.8257
-27.088
6.0908
16.265
-3.3117
-17.941
10.08
14.673
-14.288
-14.148
16.531
6.5937
-16.684
-1.2341
17.241
-5.3154
-20.253
8.9337
17.165
-13.795
-18.944
18.268
11.671
-16.858
-7.9888
21.391
3.091
-21.912
7.3776
16.377
-12.875
-8.5311
19.371
8.6883
-23.007
-6.4337
23.969
4.9003
-23.204
2.0703
23.162
0.77879
-22.25
6.1772
16.866
-11.782
-16.082
15.462
15.779
-17.479
-17.849
16.871
12.634
-22.746
-12.596
16.878
7.1586
-30.425
-12.732
26.141
2.9582
-18.456
12.026
20.867
-13.742
-16.017
21.362
12.877
-20.284
5.1504
28.459
5.3361
-14.062
21.306
12.447
-33.398
-23.808
18.754
13.964
-18.411
-3.8048
30.949
5.0415
-21.025
2.8894
18.945
-14.032
-15.505
18.292
7.5828
-25.186
-2.7949
20.252
-5.1877
-22.822
4.796
15.831
-13.207
-18.033
15.936
10.403
-22.048
-4.4331
-10.482
-7.8923
9.5133
-55.159
49.084
104.49
0.63985
-4.7975
-174.71
13.924
132.35
-34.07
-20.44
-12.835
18.208
-5.6103
-5.2184
18.669
20.778
-13.988
-10.575
11.171
-10.976
2.4796
20.842
-76.774
38.255
-24.171
-29.107
39.911
67.791
62.06
26.055
-26.225
6.6585
-151.7
-28.045
92.938
35.752
54.149
-40.37
-147.56
-2.1468
307.16
25.433
-211.12
-65.126
-1.7782
-14.125
-55.941
23.479
91.225
61.179
-136.82
65.426
15.675
6.414
82.55
84.627
-226.75
-39.334
93.119
-31.885
-31.735
-32.756
21.654
11.696
9.1796
43.578
-31.645
-58.254
26.369
-14.215
-2.7774
16.575
194.93
-45.413
-73.016
187.05
37.596
16.36
-439.4
-457.06
153.69
62.193
222.35
150.33
-112.74
75.247
588.1
135.21
-391.85
-42.82
-45.786
-366.74
-73.128
13.822
-93.664
25.365
178.1
305.29
68.459
144.91
177.55
-392.83
-123.72
-98.612
122.86
116.98
-218.92
-59.363
124.88
2.1865
5.6737
-18.59
-7.318
-2.5011
-22.838
-13.702
15.302
20.14
-0.92831
3.2398
6.3142
-9.251
-9.0779
13.032
1.8585
-16.071
-0.37852
9.83
-15.149
4.1444
18.179
7.5609
-13.267
-13.174
15.094
11.602
-25.353
38.582
-26.448
-16.985
0.72712
2.1435
13.308
6.9197
-5.9237
16.097
6.5409
-7.3419
-8.6128
18.607
10.289
-13.652
2.537
10.651
-0.65591
-33.766
6.7513
13.269
-8.042
-4.1322
0.36864
6.472
1.0832
-5.2408
3.2599
1.7872
-15.729
-3.9716
11.28
-5.7103
-10.66
8.5026
6.9141
-7.5726
-1.5152
7.8409
6.1988
-2.8266
3.2954
9.6238
-1.7255
-10.193
0.11791
5.4158
-6.5151
-6.7214
5.8828
4.7322
-5.7633
-2.0595
8.3867
2.6974
-6.8647
2.1178
8.4438
-3.3099
-9.3091
1.7114
6.021
-10.627
-5.308
6.7407
-0.57013
-12.443
-5.5817
10.448
3.0369
-10.116
-0.25418
3.6338
-1.6956
8.9513
14.701
9.3483
-6.1862
0.2582
1.7466
-9.6771
-7.6079
4.7003
-3.4412
-6.4104
3.4241
6.0188
-2.8986
1.1057
5.461
-6.6684
-2.5151
7.5515
1.1486
-4.352
2.5454
0.18767
-7.0764
-0.93593
4.8804
-6.8053
-8.1248
4.548
2.3055
-9.9365
0.11373
9.4444
-4.1635
-5.4761
8.7052
8.9313
-5.9313
-1.0934
10.829
-4.3721
-7.6745
4.6579
6.5478
-8.8131
-5.1716
11.482
1.7666
-9.7324
0.79098
8.4119
-1.094
-6.2646
5.182
7.2542
-3.5493
-5.4791
7.6612
1.1426
-8.2201
0.53352
6.7918
-6.7214
-8.7468
8.4633
4.2989
-7.6159
-2.8898
7.9758
1.7967
-9.3185
4.0166
7.3808
-7.1324
-7.3732
9.9844
3.1371
-12.804
0.9608
11.431
-3.6548
-8.4455
6.7333
6.5154
-4.0006
-1.9226
9.4212
0.40675
-8.3431
2.262
6.0284
-6.3413
-6.2349
7.3188
2.5767
-6.4671
-1.8238
8.1325
-0.39516
-7.3905
1.8983
10.485
-3.4357
-7.752
3.2817
2.32
-9.136
-3.9093
5.3266
-1.4625
-6.8352
3.1385
5.8976
-4.1201
-4.7119
9.4402
3.9411
-7.3441
2.1504
6.1683
-7.1369
-3.1966
9.0966
0.11127
-9.6362
5.1322
7.7245
-7.1973
-4.8682
11.265
4.03
-8.1891
3.0087
7.3871
-8.6667
-3.9727
7.4783
-0.72281
-12.644
3.1974
7.6161
-2.8097
-5.2203
7.4398
4.9796
-5.0248
-2.0954
6.0353
-0.83961
-7.9972
2.3198
4.387
-10.327
-2.1875
9.7487
-1.1243
-9.4361
4.608
8.2302
-5.4255
-1.0817
9.2508
-5.8727
-8.7616
4.9338
2.5655
-9.1446
-0.085917
8.989
-1.5159
-9.1031
8.6527
9.014
-6.3848
-2.0534
7.8851
-1.232
-7.732
4.7112
4.2115
-11.576
0.8213
11.779
0.42617
-10.366
6.6136
10.082
-6.2407
-6.261
9.3553
2.2531
-13.934
0.56378
7.2583
-5.263
-7.5257
5.128
3.9596
-7.7634
-2.7033
13.004
0.80049
-7.3731
1.699
6.0042
-6.6972
-4.4445
7.2477
-0.041655
-9.8339
1.2096
6.3218
-1.1282
-7.1241
9.5138
3.3036
-5.8645
1.4414
7.4691
-2.1581
-8.6187
4.3543
2.6044
-4.7145
-3.604
4.4355
4.5561
-7.4394
-2.8425
3.9401
-11.406
-3.214
38.835
23.595
46.338
-188.95
-11.661
13.726
-42.147
351.47
-81.826
-178.48
-16.826
-136.66
16.462
167.02
93.166
-29.644
-11.652
14.157
-18.658
24.532
85.94
-61.518
-60.89
-47.341
12.05
23.786
2.6931
-23.566
-1.6519
48.937
11.616
118.56
-51.891
-313.45
38.259
139.1
49.831
-2.9806
22.654
-7.279
-12.348
6.1329
-26.478
-32.16
-4.3142
-18.038
201.49
207.55
-313.19
-143.35
67.034
20.05
-3.1861
-9.2675
0.57775
-1.0699
9.1617
5.7043
-15.253
6.2663
-0.36835
-8.1837
6.0904
3.977
-8.8067
9.0424
4.5244
-6.7328
7.7841
-2.6245
-23.682
-35.946
-29.5
-102.63
62.809
83.759
19.785
31.179
18.126
17.258
-14.164
5.9054
11.373
0.11443
-0.98679
52.342
-49.477
-65.043
-6.8583
11.733
18.273
-12.178
-0.52499
18.123
8.3823
-18.109
4.2189
18.196
4.3598
-18.667
-5.3788
19.284
13.853
5.0868
23.302
-52.426
-15.816
-11.379
3.4129
18.529
-1.0818
-15.094
4.8117
13.265
-8.5655
-17.979
14.267
12.902
-11.384
-10.678
18.926
5.0654
13.05
43.682
25.082
8.6543
12.545
-45.359
-40.752
-24.854
-27.658
-2.6975
18.728
7.7409
-5.3907
10.989
74.232
39.337
-43.443
-48.503
-65.434
0.1646
-3.9756
-3.5366
33.949
-17.451
4.5127
46.414
-33.308
-17.355
-3.9187
18.434
-1.3862
-4.877
-11.406
12.495
22.38
-0.28461
-11.986
10.716
16.06
-26.244
-16.121
25.432
0.77547
-3.7795
-12.283
18.854
8.8368
-12.017
1.8376
22.947
2.1461
-25.454
3.3308
17.861
27.315
10.06
-22.267
23.674
-27.247
-22.655
7.7419
74.286
67.591
-37.792
-67.759
10.568
-57.133
-57.33
103.18
-49.754
6.2551
32.219
-49.487
-42.767
39.566
82.215
-62.62
-73.927
73.988
97.689
-77.801
-26.25
-29.612
32.924
14.411
-2.3783
45.737
58.471
-70.096
-152.19
1.7042
43.113
66.619
-80.12
-7.2505
98.432
17.197
-55.345
11.373
-61.24
-3.4335
53.196
69.477
34.357
-99.559
-4.0218
24.349
-2.8294
36.431
21.936
-82.803
-41.316
103.16
-38.792
-40.385
30.251
-3.4943
42.289
-19.571
-17.807
-3.475
-47.732
31.52
43.463
34.525
-87.911
37.79
77.301
-43.701
42.569
-35.154
-13.078
-76.158
-76.792
66.582
99.534
-63.459
55.456
55.977
-98.899
-54.193
-30.125
89.056
-12.744
69.728
45.189
-86.407
-67.16
41.824
38.325
17.528
-70.184
98.957
-13.842
-69.91
19.482
-28.038
35.375
38.962
-65.188
-27.294
43.457
-25.993
99.971
13.221
-134.75
2.4737
20.994
70.737
3.0298
-71.426
25.85
-9.0725
-18.391
-50.062
-62.033
10.076
119.64
104.74
-40.9
-6.7779
-32.638
-39.38
75.11
-0.22082
-20.214
-135.68
53.602
133.09
-148.18
-16.002
124.26
-13.224
2.0654
-6.8827
-156.32
50.003
82.71
96.537
18.332
-88.885
-6.0379
-3.3683
-107.04
23.49
120.54
28.951
-88.782
-0.72541
7.0147
-101.6
87.481
82.248
-44.853
-68.858
20.996
-71.135
104.44
40.398
-103.94
24.576
26.302
-39.651
30.065
39.999
57.173
-67.842
-43.076
67.329
11.351
-54.712
-15.953
13.237
26.88
-73.667
19.415
-46.222
12.569
60.784
143.55
-110.28
-23.524
45.692
-105.52
50.099
18.868
132.03
-147.23
-92.194
26.816
76.829
37.807
-2.1973
-85.577
43.92
-1.4043
-95.052
106.67
-30.774
36.318
28.342
-175.89
-77.638
186.81
50.603
53.961
23.834
11.911
-93.524
-120.92
8.73
129.33
37.388
-63.407
-54.265
41.634
31.07
-88.559
-95.986
48.011
113.09
72.959
10.867
24.026
-13.879
-25.102
21.795
-5.5843
-3.5416
-49.383
-53.936
-75.151
-3.2867
80.077
36.229
17.994
-102.4
-34.843
67.084
1.8407
-20.934
15.481
29.107
-91.931
-40.063
105.88
96.492
-49.394
-26.34
-9.2301
-40.588
-17.015
43.418
60.251
-53.624
-39.902
