-0
-0
-0
-0
-0
-0
-0
-0
-0
-0
0
0.01
0.01
-0
-0.03
-0.05
-0.05
0
0.13
0.36
0.66
1.01
1.37
1.72
2.06
2.4
2.79
3.24
3.8
4.42
5.06
5.66
6.2
6.68
7.15
7.68
8.31
9.14
10.09
11.04
11.88
12.56
13.14
13.76
14.65
15.96
17.91
20.32
22.9
25.38
27.58
29.57
31.68
34.32
37.81
42.54
48.15
54.1
59.83
64.97
69.58
74.14
79.34
85.71
93.76
103
112.62
121.73
129.77
136.75
143.3
150.75
157.77
166.64
177.95
191.79
206.97
220.57
228.25
225.36
208.53
176.87
132.76
80.05
23.07
-34.94
-92.44
-149.16
-205.23
-260.37
-313.74
-363.87
-409.83
-450.91
-486.5
-515.74
-537.23
-549.22
-549.96
-538.37
-514.21
-478.67
-433.88
-382.45
-327.02
-269.84
-212.63
-156.66
-102.95
-52.37
-5.9
35.58
71.43
101.35
125.5
144.38
158.69
169.15
176.37
180.75
182.57
182.07
179.51
175.23
169.65
163.18
156.15
148.81
141.3
133.69
126.02
118.33
110.69
103.16
95.8
88.68
81.83
75.25
68.95
62.95
57.25
51.86
46.78
42.03
37.59
33.45
29.61
26.07
22.81
19.83
17.11
14.67
12.48
10.54
8.83
7.35
6.07
4.97
4.05
3.27
2.62
2.09
1.65
1.3
1.01
0.79
0.61
0.48
0.37
0.29
0.24
0.2
0.18
0.17
0.18
0.19
0.21
0.24
0.28
0.31
0.36
0.4
0.44
0.49
0.54
0.59
0.64
0.69
0.75
0.81
0.88
0.96
1.04
1.12
1.23
1.35
1.49
1.65
1.83
1.99
2.15
2.29
2.44
2.61
2.83
3.12
3.47
3.88
4.3
4.73
5.15
5.57
6.04
6.59
7.23
7.95
8.73
9.5
10.24
10.92
11.59
12.31
13.16
14.18
15.35
16.57
17.71
18.63
19.27
19.64
19.8
19.81
19.62
19.07
17.83
15.58
12.1
7.41
1.76
-4.31
-10.23
-15.6
-20.26
-24.37
-28.22
-32.06
-35.9
-39.47
-42.32
-44.1
-44.68
-44.3
-43.46
-42.7
-42.45
-43.06
-44.75
-47.63
-51.35
-54.84
-56.33
-53.84
-46.06
-33.24
-17.3
-1.28
11.83
20.29
24
24.21
22.67
20.7
18.92
17.33
15.82
14.47
13.46
12.86
12.34
11.28
9.09
5.7
1.94
-0.57
-0.01
4.73
13.43
24.31
34.55
41.33
42.84
38.87
30.72
20.56
10.52
2.12
-4.02
-8.03
-10.37
-11.59
-12.04
-11.89
-11.19
-10.05
-8.6
-7.08
-5.84
-5.28
-5.75
-7.39
-10.02
-13.23
-16.52
-19.59
-22.47
-25.54
-29.24
-33.77
-38.89
-44.05
-48.58
-52.16
-54.92
-57.45
-60.54
-64.81
-70.6
-77.78
-85.79
-93.53
-99.27
-100.85
-96.06
-83.39
-62.72
-35.73
-5.53
24.17
50.2
70.7
85.3
94.75
100.13
102.32
101.8
98.91
94.1
88.14
82.06
76.78
72.83
70.13
68.13
66.04
63.26
59.56
55.17
50.59
46.24
42.29
38.5
34.46
29.72
24.13
17.91
11.68
6.14
1.83
-1.15
-3.14
-4.87
-7.22
-11.03
-16.9
-25.05
-35.14
-46.15
-56.38
-63.65
-65.83
-61.57
-50.8
-35.01
-16.9
0.43
14.4
23.68
28.24
29.1
27.62
24.95
21.82
18.61
15.63
13.26
12.01
12.24
13.97
16.81
19.99
22.62
23.99
23.77
22.05
19.28
16.07
12.89
9.88
6.81
3.2
-1.37
-6.92
-13.02
-18.86
-23.62
-26.83
-28.58
-29.46
-30.31
-31.97
-35.13
-40.12
-46.85
-54.56
-61.79
-66.48
-66.46
-60.26
-47.74
-30.38
-10.91
7.57
22.58
32.93
38.82
41.37
41.92
41.47
40.53
39.24
37.74
36.25
35.16
34.73
34.93
35.39
35.55
34.96
33.44
31.21
28.68
26.3
24.34
22.77
21.31
19.58
17.19
13.88
9.63
4.66
-0.61
-5.66
-10.03
-13.54
-16.32
-18.82
-21.61
-25.26
-30.19
-36.6
-44.38
-52.91
-61.02
-66.96
-68.83
-65.14
-55.44
-40.63
-22.87
-4.87
10.88
22.76
30.35
34.26
35.59
35.58
35.13
34.72
34.45
34.23
33.92
33.4
32.75
32.06
31.47
31.09
30.92
30.87
30.77
30.34
29.33
27.55
24.98
21.83
18.39
14.95
11.58
8.19
4.53
0.42
-4.11
-8.79
-13.26
-17.26
-20.72
-23.85
-27.06
-30.86
-35.71
-41.94
-49.48
-57.69
-65.26
-70.31
-70.87
-65.58
-54.25
-38.14
-19.63
-1.53
13.8
25.03
32.03
35.58
36.93
37.23
37.31
37.64
38.33
39.35
40.59
41.94
43.26
44.42
45.32
45.92
46.27
46.48
46.64
46.69
46.41
45.48
43.63
40.88
37.5
34.01
30.92
28.52
26.74
25.28
23.81
22.14
20.36
18.7
17.38
16.43
15.67
14.8
13.5
11.46
8.37
3.96
-1.82
-8.49
-14.8
-18.86
-18.67
-13.01
-2.11
12.14
26.75
38.66
45.78
47.51
44.68
38.84
31.53
23.81
16.18
8.86
2.04
-4
-9.01
-12.85
-15.65
-17.72
-19.45
-21.05
-22.53
-23.73
-24.4
-24.45
-23.99
-23.32
-22.83
-22.77
-23.13
-23.63
-23.88
-23.63
-22.89
-22.05
-21.68
-22.22
-23.81
-26.11
-28.52
-30.44
-31.63
-32.32
-33.17
-34.98
-38.39
-43.57
-49.97
-56.34
-60.92
-61.84
-57.76
-48.32
-34.41
-17.97
-1.39
13.18
24.39
31.84
35.92
37.37
36.96
35.33
33
30.49
28.21
26.51
25.47
24.98
24.79
24.6
24.25
23.7
23.03
22.31
21.6
20.79
19.73
18.23
16.2
13.67
10.81
7.84
4.9
2.01
-0.99
-4.3
-8.15
-12.59
-17.47
-22.44
-27.07
-30.99
-34.01
-36.26
-38.27
-40.84
-44.81
-50.72
-58.35
-66.47
-73.02
-75.65
-72.52
-63.1
-48.43
-30.86
-13.23
2.03
13.55
21.12
25.37
27.27
27.71
27.38
26.78
26.28
26.14
26.42
26.96
27.44
27.5
26.89
25.61
23.83
21.83
19.92
18.26
16.83
15.41
13.57
10.9
7.18
2.49
-2.62
-7.37
-10.96
-13
-13.68
-13.71
-14.05
-15.47
-18.25
-22.1
-26.36
-30.27
-33.36
-35.56
-37.26
-39.06
-41.73
-45.89
-51.85
-59.34
-67.26
-73.74
-76.42
-73.27
-63.32
-47.27
-27.35
-6.79
11.35
25
33.56
37.74
38.89
38.42
37.24
35.76
34.06
32.11
30.06
28.15
26.75
26.07
26.14
26.72
27.34
27.6
27.23
26.25
24.87
23.3
21.55
19.41
16.56
12.85
8.53
4.24
0.75
-1.44
-2.36
-2.64
-3.19
-4.8
-7.8
-11.95
-16.62
-21.05
-24.7
-27.4
-29.39
-31.19
-33.49
-36.99
-42.16
-49.09
-57.11
-64.77
-69.98
-70.55
-64.99
-53.11
-36.28
-17.05
1.62
17.27
28.63
35.67
39.27
40.64
40.78
40.27
39.37
38.21
36.99
35.97
35.34
35.09
34.89
34.25
32.71
30.14
26.84
23.44
20.57
18.63
17.51
16.69
15.5
13.37
10.21
6.38
2.54
-0.67
-2.89
-4.24
-5.25
-6.58
-8.79
-12.1
-16.29
-20.85
-25.22
-29.01
-32.17
-34.96
-37.88
-41.49
-46.23
-52.29
-59.32
-66.3
-71.65
-73.45
-70.08
-60.79
-46.18
-28.18
-9.56
6.93
19.39
27.17
30.8
31.44
30.32
28.3
25.86
23.26
20.76
18.76
17.64
17.56
18.38
19.7
21.09
22.27
23.21
24
24.65
25.01
24.72
23.46
21.07
17.72
13.83
9.88
6.27
3.09
0.22
-2.63
-5.7
-9.06
-12.59
-16.09
-19.37
-22.36
-25.25
-28.39
-32.32
-37.5
-44.16
-51.94
-59.78
-65.94
-68.36
-65.36
-56.25
-41.71
-23.69
-4.87
12.12
25.39
34.12
38.5
39.37
37.8
34.79
31.11
27.32
23.83
20.95
18.86
17.65
17.28
17.58
18.3
19.15
19.86
20.22
20.05
19.22
17.69
15.46
12.68
9.49
6.05
2.41
-1.45
-5.66
-10.27
-15.17
-20.05
-24.46
-28.01
-30.6
-32.51
-34.44
-37.3
-41.93
-48.79
-57.68
-67.59
-76.71
-82.84
-83.86
-78.45
-66.53
-49.44
-29.63
-9.97
7.05
19.87
28.1
32.32
33.58
32.98
31.38
29.35
27.28
25.55
24.53
24.52
25.56
27.36
29.31
30.71
31.07
30.23
28.45
26.2
23.91
21.8
19.79
17.6
14.9
11.44
7.1
1.97
-3.7
-9.58
-15.26
-20.41
-24.85
-28.63
-32.04
-35.6
-39.91
-45.61
-53.1
-62.25
-72.11
-80.79
-85.81
-84.81
-76.46
-61.11
-40.89
-19
1.28
17.59
28.96
35.73
38.99
40.03
39.94
39.41
38.9
38.64
38.8
39.39
40.36
41.54
42.7
43.6
44.01
43.8
42.95
41.49
39.58
37.36
34.93
32.29
29.37
25.98
21.96
17.18
11.67
5.7
-0.32
-5.93
-10.78
-14.82
-18.33
-21.81
-25.89
-31.15
-37.98
-46.44
-56
-65.45
-72.8
-75.77
-72.4
-61.87
-45
-24.23
-2.86
15.97
30.23
39.39
44.22
46.07
46.16
45.21
43.47
41.08
38.36
35.98
34.69
35.02
36.9
39.63
42.1
43.31
42.74
40.51
37.31
33.93
30.9
28.23
25.53
22.22
17.92
12.6
6.6
0.49
-5.17
-10.01
-13.91
-16.99
-19.58
-22.14
-25.27
-29.59
-35.64
-43.58
-52.89
-62.18
-69.36
-72.06
-68.51
-58.13
-41.89
-22.15
-1.89
16.11
29.99
39.13
43.94
45.38
44.55
42.36
39.47
36.39
33.62
31.64
30.82
31.23
32.54
34.06
35.05
34.95
33.71
31.73
29.58
27.74
26.25
24.69
22.39
18.78
13.67
7.4
0.72
-5.5
-10.58
-14.33
-17
-19.28
-22
-25.93
-31.58
-39.07
-47.94
-56.99
-64.4
-68.04
-66.12
-57.85
-43.87
-26.19
-7.6
9.23
22.46
31.41
36.47
38.53
38.55
37.26
35.1
32.42
29.62
27.24
25.78
25.56
26.5
28.08
29.52
30.11
29.45
27.67
25.24
22.76
20.63
18.84
17
14.56
11.06
6.35
0.67
-5.36
-11.06
-15.87
-19.61
-22.53
-25.24
-28.49
-32.97
-39.14
-47.04
-56.18
-65.33
-72.64
-75.93
-73.35
-64.16
-49.15
-30.55
-11.35
5.71
19
28.22
34.09
37.75
40.09
41.55
42.23
42.17
41.53
40.67
40.01
39.83
40.24
41.09
42.13
43.02
43.43
43.05
41.71
39.37
36.18
32.41
28.34
24.13
19.73
14.96
9.67
3.86
-2.27
-8.34
-13.93
-18.81
-22.98
-26.7
-30.46
-34.8
-40.33
-47.49
-56.37
-66.39
-76.12
-83.43
-85.99
-82.05
-71.1
-54.23
-33.87
-13.05
5.46
19.86
29.6
35.19
37.75
38.51
38.49
38.36
38.48
38.94
39.73
40.74
41.79
42.69
43.27
43.41
43.09
42.41
41.5
40.43
39.12
37.4
35.06
32.03
28.39
24.41
20.42
16.63
13.12
9.73
6.17
2.13
-2.58
-7.92
-13.59
-19.13
-24.08
-28.23
-31.8
-35.48
-40.27
-47.08
-56.21
-66.91
-77.31
-84.77
-86.72
-81.51
-69.14
-51.3
-30.86
-10.93
6.03
18.78
27.29
32.36
35.07
36.37
36.89
36.99
36.9
36.88
37.17
37.93
39.16
40.61
41.82
42.34
41.93
40.67
38.99
37.39
36.19
35.32
34.32
32.55
29.57
25.36
20.38
15.39
11.09
7.84
5.49
3.46
1.02
-2.38
-6.87
-12.12
-17.49
-22.3
-26.1
-28.91
-31.18
-33.69
-37.36
-42.95
-50.73
-60.22
-70.01
-77.97
-81.68
-79.22
-69.88
-54.48
-35.25
-15.09
3.26
17.9
28.1
34.09
36.7
36.94
35.78
34.05
32.41
31.3
30.95
31.36
32.39
33.79
35.27
36.55
37.37
37.54
36.99
35.85
34.41
32.98
31.69
30.4
28.69
26.13
22.48
17.88
12.83
8.05
4.1
1.23
-0.79
-2.54
-4.73
-7.85
-12.04
-16.99
-22.07
-26.63
-30.27
-33.02
-35.3
-37.85
-41.44
-46.68
-53.8
-62.37
-71.26
-78.54
-81.92
-79.4
-70.06
-54.53
-35.03
-14.64
3.62
17.73
27.02
32.02
33.89
33.75
32.43
30.45
28.18
26.06
24.57
24.08
24.69
26.16
27.95
29.49
30.38
30.53
30.11
29.4
28.57
27.53
26.01
23.71
20.46
16.35
11.78
7.26
3.32
0.28
-1.87
-3.49
-5.14
-7.36
-10.45
-14.24
-18.21
-21.77
-24.47
-26.36
-27.93
-30.02
-33.59
-39.34
-47.42
-57.1
-66.7
-73.82
-75.93
-71.22
-59.4
-41.93
-21.7
-2.12
13.98
25.06
31.07
32.98
32.16
29.78
26.58
22.96
19.39
16.37
14.27
13.16
12.81
12.9
13.07
13.02
12.62
12.02
11.31
10.29
8.48
5.34
0.7
-5.3
-12.25
-19.77
-27.17
-34.14
-41
-48.6
-57.69
-68.5
-80.66
-93.59
-106.6
-117.9
-126.37
-132.8
-140.26
-152.82
-173.63
-203.46
-240.3
-279.09
-310.4
-325.84
-322.17
-302.95
-275.82
-248.24
-224.82
-206.81
-191.74
-171.03
-137.06
-87.76
-27.81
35.23
95.6
150.81
200.48
246.74
298.33
363.46
445.51
541.22
643.89
746.8
843.13
924.48
942.89
863.72
689.23
463.41
241.35
59.6
-68.97
-143.84
-182.87
-200.1
-200.33
-186.63
-164.6
-142.85
-131.17
-132.59
-143.86
-159.82
-174.89
-181.64
-175.53
-157.63
-134.44
-114.07
-102.07
-100.14
-107.77
-122.33
-138.38
-150.71
-157.59
-160.92
-162.83
-163.23
-159.8
-150.25
-133.47
-109.53
-79.03
-45.02
-12.57
15.21
32.48
35.4
24.73
5.75
-14.94
-26.44
-27.47
-21.74
-11.09
5.22
26.1
51.87
83.18
120.71
167.43
223.19
281.3
334.75
377.08
402.1
406.25
389.42
339.19
258
179.66
116.57
65.73
26.98
-0.69
-19.24
-32.17
-43.87
-56.12
-71.13
-93.64
-123.5
-156.11
-186.92
-212.82
-232.75
-246.92
-253.57
-251.57
-243.01
-228.44
-207.34
-181.76
-156.02
-135.13
-122.41
-116.82
-114.95
-113.77
-108.45
-93.16
-64.91
-24.9
21.7
67.55
105.82
131.33
141.11
132.21
107.89
77.32
50.44
32.17
21.97
17.48
17.13
19.91
24.92
31.26
36.97
39.57
37.51
31.44
23.63
16.91
12.83
11.12
10.78
10.01
6.9
-0.36
-12.31
-28.75
-47.86
-66.67
-81.66
-89.44
-88.71
-81.18
-70.69
-59.1
-49.6
-41.74
-32.97
-21.4
-7.62
5.23
13.27
14.48
10.12
3.55
-1.27
-2.29
-0.13
3.18
5.83
7.21
7.92
9.32
12.77
19.01
27.85
38.29
48.68
57.17
61.81
61.1
54.49
42.58
27.37
11.53
-2.55
-13.51
-21.1
-26.29
-30.5
-34.96
-40.13
-45.6
-50.24
-52.78
-52.22
-47.9
-40.07
-29.73
-18.41
-7.59
1.7
9.12
15.14
18.78
20.19
19.9
18.54
16.76
15.07
13.74
12.76
11.92
10.9
9.69
8.36
7.12
6.27
6.16
6.96
8.62
10.86
13.13
15
15.97
15.61
13.7
10.26
5.54
-0.03
-5.98
-11.87
-17.24
-21.83
-25.59
-28.67
-31.39
-34.2
-37.62
-41.99
-47.28
-52.8
-57.2
-58.88
-56.43
-49.26
-37.9
-23.86
-9.2
4.24
15.28
23.63
29.58
33.76
36.71
38.78
40.19
41.1
41.68
42.08
42.42
42.7
42.84
42.65
41.99
40.81
39.2
37.37
35.56
33.95
32.54
31.19
29.6
27.45
24.52
20.73
16.2
11.22
6.17
1.4
-2.93
-6.8
-10.42
-14.09
-18.14
-22.84
-28.32
-34.42
-40.64
-46.08
-49.55
-49.86
-46.21
-38.6
-27.86
-15.44
-2.94
8.33
17.61
24.74
29.91
33.42
35.54
36.5
36.52
35.91
35
34.02
33.08
32.06
30.79
29.15
27.2
25.14
23.31
21.93
21.12
20.75
20.57
20.29
19.66
18.49
16.62
13.96
10.55
6.57
2.3
-1.89
-5.74
-9.19
-12.39
-15.69
-19.47
-24.05
-29.49
-35.52
-41.48
-46.32
-48.84
-48.05
-43.43
-35.26
-24.49
-12.56
-0.99
9.05
16.92
22.51
26.2
28.51
30.03
31.2
32.29
33.41
34.49
35.38
35.84
35.66
34.66
32.86
30.48
27.95
25.67
23.95
22.75
21.77
20.61
18.95
16.69
13.91
10.8
7.42
3.77
-0.19
-4.44
-8.76
-12.9
-16.58
-19.66
-22.22
-24.49
-26.83
-29.61
-33.09
-37.31
-42.01
-46.48
-49.72
-50.64
-48.4
-42.74
-34.15
-23.72
-12.85
-2.83
5.51
11.94
16.68
20.24
23.06
25.41
27.31
28.69
29.43
29.53
29.09
28.26
27.23
26.14
25.02
23.9
22.74
21.49
20.16
18.72
17.16
15.45
13.52
11.33
8.84
6.1
3.2
0.28
-2.52
-5.15
-7.63
-10.03
-12.41
-14.81
-17.15
-19.37
-21.44
-23.47
-25.71
-28.44
-31.84
-35.73
-39.54
-42.3
-42.98
-40.78
-35.5
-27.6
-18.11
-8.29
0.75
8.27
13.99
18
20.55
21.98
22.63
22.75
22.62
22.36
22.02
21.54
20.86
19.92
18.77
17.54
16.38
15.44
14.81
14.44
14.19
13.83
13.15
11.94
10.19
8.01
5.63
3.28
1.1
-0.91
-2.89
-5.01
-7.38
-9.99
-12.7
-15.3
-17.61
-19.59
-21.32
-23.06
-25.15
-27.9
-31.52
-35.88
-40.47
-44.39
-46.53
-45.84
-41.7
-34.16
-23.99
-12.5
-1.19
8.65
16.2
21.22
23.93
24.82
24.43
23.24
21.6
19.79
18.02
16.46
15.18
14.14
13.22
12.25
11.15
9.94
8.74
7.71
6.91
6.31
5.77
5.16
4.43
3.65
2.96
2.47
2.16
1.83
1.2
-0.04
-2.03
-4.64
-7.54
-10.23
-12.2
-13.12
-12.87
-11.59
-9.67
-7.64
-6.06
-5.42
-5.93
-7.38
-9.16
-10.31
-9.92
-7.39
-2.72
3.47
10.18
16.32
21.08
24.02
25.13
24.64
22.92
20.35
17.31
14.17
11.27
8.81
6.88
5.39
4.15
2.97
1.73
0.38
-1.06
-2.56
-4.12
-5.82
-7.74
-10
-12.64
-15.66
-18.92
-22.28
-25.56
-28.68
-31.72
-34.85
-38.31
-42.2
-46.5
-50.99
-55.37
-59.4
-62.92
-66
-68.75
-71.29
-73.64
-75.56
-76.52
-75.77
-72.5
-66
-55.97
-42.63
-26.79
-9.66
7.34
22.93
36.16
46.49
53.87
58.5
60.81
61.28
60.37
58.46
55.84
52.78
49.52
46.3
43.35
40.81
38.7
36.92
35.3
33.65
31.88
30.01
28.07
26.01
23.73
21.03
17.82
14.14
10.18
6.18
2.26
-1.58
-5.48
-9.53
-13.71
-17.84
-21.65
-25.01
-27.94
-30.77
-33.91
-37.69
-42.12
-46.75
-50.69
-52.83
-52.22
-48.35
-41.37
-32.02
-21.31
-10.15
0.77
11.07
20.42
28.46
34.88
39.6
43.12
46.47
50.84
57.14
65.58
75.5
85.54
94.25
100.58
104.24
105.67
105.7
105.22
104.91
105.09
105.59
106.05
106.04
105.39
104.36
103.44
103.35
104.86
108.33
113.4
118.81
122.45
121.84
114.63
98.92
74.49
43.26
8.94
-24.09
-51.97
-72.32
-84.73
-90.53
-93.07
-95.46
-99.39
-105.09
-112.27
-120.86
-131.34
-144.27
-159.66
-177.97
-197.83
-216.04
-229.05
-234.88
-234.07
-229
-222.39
-215.97
-212.05
-210.81
-210.33
-207.69
-200.77
-189.04
-173.43
-155.68
-125.54
-80.98
-28.71
19.82
56.86
81.63
97.62
108.77
117.55
124.79
128.12
125.9
118.32
107.26
94.94
83.14
73.24
66.18
63.18
63.24
65.02
67.21
68.56
67.73
63.69
56.71
48.97
43.87
43.43
48.41
57.99
70.13
82.18
92
97.33
97.39
92.89
84.74
74.09
62.25
50.59
40.43
32.63
27.42
24.52
23.15
22.07
20.28
17.5
14.22
11.34
9.51
8.69
8.18
6.73
3.08
-3.44
-12.53
-22.91
-32.69
-39.91
-43.01
-41.07
-34.11
-23.09
-9.76
3.74
15.36
23.59
27.78
28.04
25.1
19.87
13.22
5.83
-1.81
-9.36
-16.58
-23.27
-29.16
-33.76
-36.43
-36.52
-33.74
-28.33
-21.04
-13.01
-5.37
1.06
5.83
8.79
9.95
9.33
7.03
3.32
-1.23
-5.88
-9.84
-12.53
-13.78
-13.72
-12.75
-11.37
-9.99
-8.97
-8.53
-8.78
-9.67
-11.02
-12.53
-13.96
-15.15
-16.17
-17.22
-18.48
-20.02
-21.74
-23.41
-24.84
-25.99
-26.9
-27.77
-28.82
-30.28
-32.27
-34.78
-37.51
-39.85
-41.01
-40.2
-36.91
-31.11
-23.33
-14.41
-5.35
3.02
10.1
15.51
19.13
21
21.36
20.62
19.31
17.99
17.06
16.74
17
17.62
18.3
18.73
18.75
18.4
17.95
17.9
18.76
20.91
24.43
28.95
33.75
37.82
40.1
39.71
36.05
28.96
18.77
6.3
-7.26
-20.53
-32.21
-41.35
-47.52
-50.88
-52.06
-52
-51.6
-51.46
-51.65
-51.67
-50.61
-47.53
-41.85
-33.6
-23.47
-12.59
-2.14
6.96
14.24
19.68
23.53
26.12
27.76
28.68
29.07
29
28.54
27.62
26.23
24.42
22.34
20.29
18.6
17.63
17.57
18.44
20.01
21.86
23.43
24.11
23.41
20.97
16.9
11.71
6.15
0.86
-3.74
-7.66
-11.07
-14.16
-17.08
-19.75
-22.04
-23.85
-25.38
-26.86
-28.8
-31.65
-35.68
-41.09
-47.46
-53.92
-59.21
-62.17
-61.59
-57.07
-48.88
-37.98
-26.41
-15.72
-6.68
0.84
7.11
12.88
18.02
22.41
25.89
27.28
27.12
28.06
33.9
47.2
68.38
93.24
115.58
129.15
127.44
110.91
86.11
63.57
47.02
36.85
27.48
15.45
-2.89
-33.09
-77.22
-133.13
-195.78
-259.14
-316.8
-365.18
-400.22
-395.5
-339.54
-244.46
-138.12
-43.54
26.58
84.03
137.09
188.9
238.54
276.37
293.76
287.99
256.66
207.73
157.92
121.32
103.67
101.23
102.82
100.12
91.69
81.62
75.89
77.83
84.65
91.75
95.58
92.84
83.21
69.71
56.37
46.8
42.22
40.27
38.22
35
30.26
25.71
23.94
26.72
34.44
45.27
55.15
59.79
59.64
54.45
45.19
33.47
20.79
8.34
-3.24
-14.1
-24.49
-34.56
-44.86
-55.69
-67.16
-79.19
-91.23
-102.45
-112.03
-119.43
-124.54
-128.2
-131.48
-135.46
-140.72
-146.83
-152.12
-154.02
-149.82
-137.79
-118.19
-93.15
-66.1
-40.68
-19.62
-4.1
6.22
12.61
16.56
19.16
21.01
22.39
23.37
24.04
24.6
25.25
26.23
27.59
29.29
31.18
33.15
35.08
36.93
38.65
40.12
41.13
41.5
41.06
39.79
37.71
34.92
31.56
27.83
24.09
20.81
18.4
16.97
16.15
15.16
13.11
9.39
4.03
-2.21
-8.07
-12.2
-13.58
-11.87
-7.54
-1.71
3.98
7.82
8.52
5.81
0.87
-3.67
-4.35
1.93
16.56
38.52
64.43
89.74
110.22
123.18
128.08
126.07
119.17
109.4
98.24
86.48
74.11
60.5
44.42
24.45
-0.42
-30.14
-63.23
-96.91
-127.79
-152.78
-169.97
-179.03
-181.1
-178.25
-172.76
-166.46
-160.46
-155.16
-150.61
-146.82
-144.04
-142.55
-142.36
-142.78
-142.2
-138.37
-128.91
-111.84
-85.99
-51.22
-8.51
39.84
90.05
137.09
175.43
200.35
209.35
202.94
184.27
157.9
128.09
97.51
67.06
36.51
5.71
-24.56
-52.47
-75.83
-92.91
-103.08
-106.62
-104.19
-96.24
-82.87
-64.21
-41.09
-15.39
10.17
32.88
50.9
63.85
72.52
78.17
81.67
83.13
82.1
78.19
71.57
63.1
54.11
45.92
39.45
35.11
32.81
32.24
32.9
34.24
35.71
36.74
36.9
35.92
33.8
30.76
27.1
23.11
18.98
14.77
10.43
5.95
1.38
-3.12
-7.37
-11.19
-14.53
-17.51
-20.4
-23.49
-27.04
-31.15
-35.81
-40.88
-46.19
-51.6
-57
-62.49
-68.37
-75.18
-83.38
-92.95
-102.86
-111.08
-114.91
-111.92
-100.86
-82.29
-58.41
-32.45
-7.58
13.89
30.79
43.03
51.18
56.08
58.59
59.58
59.81
59.89
60.19
60.76
61.44
61.96
62.07
61.69
60.99
60.32
60.1
60.64
62
63.89
65.81
67.15
67.44
66.45
64.15
60.72
56.39
51.39
45.93
40.17
34.22
28.11
21.71
14.71
6.8
-2.17
-12.02
-22.24
-32.18
-41.35
-49.71
-57.62
-65.62
-74.14
-83.31
-92.9
-102.43
-111.23
-118.27
-122.13
-121.06
-113.51
-98.79
-77.66
-52.44
-26.45
-3.04
15.39
27.89
34.92
37.95
38.73
38.81
39.27
40.62
42.8
45.42
47.87
49.68
50.69
51.2
51.76
52.92
54.77
56.81
58.04
57.28
53.68
47.12
38.17
27.82
16.98
6.13
-4.83
-16.29
-28.52
-41.49
-54.81
-67.63
-78.51
-85.19
-84.74
-74.26
-52.3
-20.14
17.63
54.08
82.28
97.89
100.82
95.05
86.38
79.47
75.54
71.93
63.71
46.25
17.34
-22.11
-69.07
-120
-172.17
-223.89
-273.7
-319.27
-357.09
-383.16
-394.28
-389.28
-369.35
-337.35
-296.61
-249.96
-199.33
-146.19
-92.19
-39.46
9.6
53.18
91.03
124.53
155.91
186.67
216.12
240.9
256.04
256.98
241.6
211.33
170.7
125.84
82.78
46.32
19.74
4.95
2.62
11.93
30.4
54.09
78.49
99.78
115.86
126.65
133.46
137.94
141.02
142.52
141.35
136.19
126.22
111.49
92.88
71.73
49.4
26.89
4.73
-17.16
-39.15
-61.72
-84.82
-107.48
-127.59
-142.31
-148.81
-145.37
-131.99
-110.49
-84.04
-56.15
-29.81
-6.93
11.44
25.22
35.02
41.74
46.25
49.33
51.51
53.19
54.54
55.29
55.19
54.26
52.85
51.53
51.01
51.9
54.61
59.16
64.51
69.57
73.64
76.44
77.92
78.33
77.92
77.21
76.74
75.32
72.26
68.08
63.93
60.5
58.2
56.81
56.47
57.31
55.85
49.4
37.63
21.66
2.02
-20.58
-46.14
-73.3
-99.74
-127.75
-157.35
-184.36
-203.64
-214.07
-218.08
-222.62
-233.98
-255.99
-295.21
-351.84
-417.64
-480.71
-532.52
-567.67
-586.82
-592
-543.11
-429.68
-280.53
-139.25
-30.89
34.53
75.5
103.8
126.19
147.07
162.76
170.63
174.2
178.5
184.12
190.75
194.61
193.52
176.68
136.46
76.69
13.75
-31.12
-56.69
-65.71
-62.54
-51.95
-35.61
-15.13
8.62
41.1
85.6
139.2
197.44
254.77
307.73
354.19
393.53
425.07
454.99
486.59
517.16
542.62
559.29
566.15
563.21
552.76
495.91
381.86
231.45
80.85
-43.36
-133.17
-184.82
-210.88
-218.91
-214.83
-197.47
-168.58
-138.25
-116.72
-110.18
-118.18
-135.48
-153.36
-165.83
-165.47
-154.94
-141.37
-132.57
-132.05
-137.7
-144.49
-145.12
-139.8
-127.78
-109.74
-86.54
-57.95
-25.12
12.02
53.69
98.08
139.93
174.74
198.53
209.54
208.14
196.42
165.54
115.4
55.69
0.38
-39.68
-61.99
-70.79
-73.67
-78.28
-89.08
-104.15
-118.75
-127.47
-126.02
-112.85
-89.46
-59.79
-29.04
-1.26
19.71
30.82
32.56
28.16
20.97
12.72
3.83
-5.78
-15.22
-22.04
-23.66
-18.83
-8.17
6.46
22.36
38.05
51.72
61.39
65.19
61.61
50.1
31.21
6.88
-19.9
-44.57
-63.1
-73.11
-74.62
-69.86
-62.76
-58.41
-60.75
-73.84
-98.33
-131.99
-170.11
-206.44
-233.85
-245.75
-237.82
-209.32
-163.37
-104.38
-38.34
28.24
89.46
141.89
185.47
223.2
259.25
287.23
300.38
294.1
268.48
227.2
176.37
123.51
75.9
38.24
11.24
-6.18
-16.54
-22.26
-25.33
-26.44
-26.38
-25.23
-24.33
-25.7
-30.01
-37.03
-45.97
-56.4
-67.28
-77.07
-83.97
-86.92
-85.93
-81.74
-76.39
-68.87
-61.08
-54.73
-50.62
-48.46
-47.86
-48.74
-51.13
-55.12
-60.57
-67.36
-74.79
-82.19
-89.51
-97.5
-107
-118.15
-129.98
-140.83
-149.39
-154.5
-155.32
-150.99
-140.45
-122.63
-97.13
-64.8
-28.11
9.39
44.8
76.92
106.85
137.56
172.92
216.29
269.02
329.2
391.16
446.62
487.01
506.37
503.52
482.44
450.39
414.89
381
350.35
322.17
295.25
269.37
245.44
224.4
205.97
188.1
167.6
141.61
108.87
70.18
28.09
-14.27
-54.55
-92.02
-127.59
-163.33
-201.49
-243.6
-289.83
-338.8
-387.88
-433.64
-472.44
-500.73
-515.62
-514.97
-497.65
-463.71
-414.31
-351.34
-277.03
-193.65
-103.61
-9.99
83.01
169.89
244.53
301.73
338.74
356.49
359.22
352.95
343.06
332.51
321.18
306.75
286.56
259.36
226.29
190.49
155.85
125.56
101.17
82.44
67.93
56.05
45.52
35.65
26.03
16.39
6.55
-3.42
-12.98
-21.47
-28.52
-34.63
-41.22
-50.09
-62.61
-78.97
-98.05
-117.96
-136.79
-153.15
-166.3
-175.8
-181.26
-182.29
-178.79
-171.24
-160.69
-148.4
-135.38
-122.07
-108.33
-93.81
-78.2
-61.62
-44.6
-28.04
-13.05
-0.8
7.68
11.63
10.75
5.27
-4.1
-16.36
-30.46
-45.56
-61.03
-76.44
-91.27
-104.93
-116.72
-126.04
-132.58
-136.41
-137.98
-137.82
-136.48
-134.29
-131.36
-127.72
-123.34
-118.25
-112.47
-106.06
-98.96
-91.12
-82.55
-73.43
-64.14
-55.24
-47.32
-40.91
-36.29
-33.44
-32.06
-31.52
-30.99
-29.45
-25.95
-19.84
-11.01
-0.05
11.84
23.15
32.57
39.34
43.41
45.31
45.85
45.79
45.7
45.86
46.36
47.16
48.14
49.05
49.6
49.52
48.57
46.66
43.83
40.23
36.07
31.56
26.92
22.35
18.08
14.26
10.97
8.2
5.9
4
2.49
1.45
0.95
0.99
1.46
2.23
3.14
4.08
4.91
5.47
5.48
4.67
2.96
0.57
-1.95
-3.87
-4.64
-4.02
-2.16
0.58
3.83
7.36
11.1
15.01
18.97
22.73
25.94
28.26
29.48
29.54
28.59
26.88
24.79
22.66
20.8
19.36
18.38
17.8
17.51
17.38
17.26
16.99
16.45
15.64
14.69
13.77
12.96
12.13
11
9.28
6.86
3.93
0.84
-2.03
-4.52
-6.66
-8.68
-10.74
-12.79
-14.68
-16.21
-17.31
-18.05
-18.6
-19.01
-19.21
-18.96
-17.99
-16.26
-13.95
-11.56
-9.74
-9.16
-10.28
-13.26
-17.94
-23.84
-30.36
-36.9
-43.07
-48.67
-53.9
-59.07
-64.64
-70.95
-78.15
-86.22
-94.94
-103.98
-112.83
-120.88
-127.33
-131.32
-132.02
-128.69
-120.81
-108.02
-90.16
-67.24
-39.62
-8.11
25.92
60.62
93.92
123.96
149.42
169.64
184.64
194.78
200.46
201.91
199.13
191.95
180.3
164.36
144.73
122.43
98.81
75.39
53.63
34.64
19.16
7.38
-0.93
-6.35
-9.57
-11.33
-12.28
-12.96
-13.8
-15.14
-17.17
-19.98
-23.53
-27.7
-32.31
-37.18
-42.17
-47.13
-51.96
-56.51
-60.6
-64.07
-66.76
-68.61
-69.7
-70.3
-70.84
-71.89
-74
-77.57
-82.76
-89.41
-97.19
-105.64
-114.41
-123.21
-131.88
-140.24
-148.03
-154.9
-160.54
-164.79
-167.69
-169.46
-170.3
-170.31
-169.58
-168.26
-166.64
-164.87
-162.59
-158.59
-151.02
-137.9
-118.08
-91.95
-61.39
-29.24
1.63
29.21
52.54
71.66
87.04
99.18
108.48
115.25
119.81
122.52
123.78
123.89
123.08
121.57
119.53
117.14
114.62
112.14
109.78
107.52
105.23
102.63
99.42
95.3
90.13
83.97
76.99
69.44
61.46
53.04
44.05
34.42
24.25
13.94
4.02
-5.04
-13.09
-20.52
-28.08
-36.68
-46.93
-58.79
-71.3
-82.67
-90.62
-92.91
-87.91
-75.11
-55.4
-30.96
-4.82
19.81
40.36
55.43
64.99
70.07
72.2
72.78
72.73
72.47
72.12
71.7
71.3
70.9
70.33
69.29
67.57
65.26
62.79
60.71
59.46
59.07
59.06
58.72
57.37
54.68
50.72
45.89
40.71
35.54
30.45
25.24
19.5
12.93
5.45
-2.69
-11.04
-19.11
-26.58
-33.43
-39.98
-46.78
-54.49
-63.66
-74.37
-85.91
-96.53
-103.7
-104.77
-97.86
-82.81
-61.32
-36.55
-12.04
9.3
25.97
37.82
45.65
50.49
53.22
54.45
54.64
54.21
53.54
52.91
52.38
51.78
50.86
49.53
47.96
46.48
45.43
44.87
44.48
43.64
41.68
38.18
33.13
26.95
20.22
13.4
6.62
-0.32
-7.81
-16.15
-25.32
-34.98
-44.56
-53.54
-61.67
-69.06
-76.14
-83.6
-92.2
-102.61
-115.09
-129.13
-143.14
-154.5
-160.16
-157.53
-145.6
-125.41
-99.88
-72.68
-47.04
-24.69
-5.78
10.59
25.45
39.31
52.08
63.4
73.04
81.07
87.72
93.05
96.77
98.42
97.66
94.63
90.08
85.15
81
78.37
77.35
77.31
77.19
75.89
72.67
67.41
60.71
53.53
46.81
40.99
35.79
30.37
23.69
15.08
4.49
-7.41
-19.59
-31.04
-41.16
-49.86
-57.55
-65.01
-73.22
-83.19
-95.58
-110.34
-126.2
-140.62
-150.23
-151.72
-143.04
-124.16
-97.04
-65.26
-33.03
-3.97
19.75
37.56
50.12
58.62
64.42
68.95
73.37
78.4
84.18
90.41
96.43
101.35
104.33
104.92
103.82
102.01
100.33
99.22
98.91
99.37
100.21
100.66
99.78
98.3
96.73
94.76
91.58
86.94
81.25
75.04
68.47
61.27
56.12
54.45
55.15
55.49
53.58
49.22
43.1
35.89
27.8
23.6
25.58
31.53
36.26
36.2
31.34
24.52
19.85
21.37
38.2
74.46
126.18
183.32
236.39
279.95
312.27
333.84
305.32
211.73
73.6
-68.71
-187.71
-276.43
-338.82
-381.29
-409.41
-427.4
-431.35
-420.65
-399.13
-374.42
-352.4
-334.85
-320.51
-306.71
-290.36
-263.04
-224.21
-176.9
-127.61
-81.71
-41.29
-5.97
25.89
56.2
89.76
129.3
174.53
221.58
265.47
301.49
325.61
335.2
330.01
313.99
292.31
269.62
248.03
227.55
206.96
184.81
160.49
134.74
109.99
88.76
72.95
63.14
58.99
59.85
64.92
73.22
83.48
93.75
101.3
102.91
95.43
76.67
46.54
7.57
-35.45
-76.25
-108.31
-125.76
-124.27
-102.39
-62.71
-12.37
37.94
76.81
95.97
93.18
72.94
44.21
16.41
-4.13
-15.72
-20.25
-20.72
-18.99
-15.17
-8.47
1.23
12.61
23.11
29.92
31.3
27.1
18.85
8.78
-1.05
-9.44
-16.33
-22.38
-28.36
-34.67
-41.11
-47.07
-51.98
-55.64
-58.42
-61.05
-64.34
-68.82
-74.64
-81.6
-89.42
-97.96
-107.24
-117.26
-127.53
-136.84
-143.27
-144.67
-139.45
-127.25
-109.19
-87.65
-65.45
-45.06
-27.94
-14.44
-4.16
3.59
9.36
13.42
15.96
17.37
18.31
19.6
21.91
25.38
29.52
33.5
36.52
38.21
38.71
38.4
37.46
35.59
32.01
25.84
16.52
4.19
-10.28
-25.52
-39.99
-52.34
-61.61
-67.38
-69.78
-69.4
-67.13
-63.95
-60.76
-58.16
-56.51
-55.91
-56.27
-57.43
-59.11
-61.07
-63
-64.68
-65.95
-66.76
-67.24
-67.7
-68.64
-70.57
-73.74
-77.88
-82.01
-84.56
-83.85
-78.66
-68.74
-54.93
-38.95
-22.76
-8
4.36
14.1
21.55
27.29
31.92
35.89
39.5
42.86
46
48.92
51.63
54.12
56.35
58.21
59.56
60.3
60.48
60.34
60.2
60.36
60.9
61.68
62.35
62.53
62
60.7
58.84
56.75
54.76
53.08
51.71
50.52
49.26
47.68
45.54
42.75
39.3
35.42
31.6
28.59
27.29
28.46
32.45
38.98
47.11
55.4
62.18
66
65.94
61.83
54.33
44.81
34.95
26.31
19.88
15.86
13.68
12.32
10.69
8.01
3.95
-1.45
-7.87
-14.98
-22.55
-30.47
-38.65
-46.95
-55.14
-62.89
-69.91
-76.03
-81.22
-85.53
-89.07
-91.88
-93.84
-94.67
-93.93
-91.15
-86
-78.5
-69.11
-58.67
-48.22
-38.64
-30.45
-23.68
-18.06
-13.34
-9.43
-6.48
-4.71
-4.14
-4.5
-5.34
-6.25
-7.05
-7.83
-8.85
-10.34
-12.37
-14.92
-18
-21.76
-26.31
-31.53
-36.75
-40.74
-41.96
-39.14
-31.65
-19.87
-4.97
11.42
27.72
42.72
55.75
66.61
75.51
82.96
89.64
96.29
103.56
111.72
120.6
129.59
137.68
143.73
146.75
146.15
141.84
134.36
124.66
113.86
102.88
92.19
81.71
71.09
59.91
48.04
35.72
23.42
11.65
0.69
-9.52
-19.3
-29.04
-39.01
-49.24
-59.52
-69.53
-78.89
-87.35
-94.82
-101.41
-107.46
-113.47
-120.04
-127.57
-135.99
-144.51
-151.68
-155.75
-155.34
-149.99
-140.55
-128.93
-117.64
-108.93
-104.15
-103.29
-105.13
-107.57
-108.31
-105.57
-98.45
-87.08
-72.42
-55.86
-38.84
-22.58
-7.95
4.49
14.57
22.47
28.76
34.22
39.52
45
50.44
55.23
58.57
59.89
59.03
56.32
52.42
48.07
43.85
39.97
36.29
32.42
27.92
22.51
16.2
9.23
2.04
-4.91
-11.28
-17.01
-22.37
-27.95
-34.59
-43.04
-53.68
-66.05
-78.67
-89.17
-94.8
-93.34
-83.88
-67.31
-46.04
-23.34
-2.25
15.22
28.45
38
45.07
50.81
56.01
60.98
65.68
69.88
73.29
75.63
76.61
76.14
74.3
71.54
68.56
66.15
64.97
65.35
67.07
69.53
71.91
73.47
73.77
72.68
70.4
67.24
63.45
59.11
54.17
48.58
42.35
35.67
28.85
22.17
15.84
9.86
4.14
-1.4
-6.69
-11.52
-15.66
-18.97
-21.63
-24.15
-27.2
-31.49
-37.43
-44.88
-53.06
-60.48
-65.26
-65.56
-60.12
-48.61
-31.88
-11.61
10.14
31.5
51.23
68.84
84.38
98.21
110.63
121.68
131.03
138
141.74
141.48
136.9
128.33
116.78
103.67
90.41
78.06
67.11
57.57
49.24
41.95
35.6
30.13
25.31
20.74
15.94
10.58
4.62
-1.66
-7.85
-13.59
-18.75
-23.45
-27.91
-32.34
-36.77
-41.09
-45.16
-48.9
-52.4
-55.88
-59.59
-63.72
-68.34
-73.37
-78.67
-83.98
-89.16
-94.17
-99.2
-104.67
-111.07
-118.63
-127.02
-135.13
-141.24
-143.57
-140.99
-133.57
-122.67
-110.55
-99.65
-91.88
-88.27
-88.86
-92.79
-98.42
-103.45
-105.29
-101.56
-90.83
-73.07
-49.88
-23.93
1.79
24.83
43.8
58.37
68.96
76.38
81.46
84.86
87.1
88.47
89.12
89.06
88.24
86.66
84.39
81.62
78.52
75.16
71.55
67.53
62.95
57.72
51.87
45.61
39.2
32.96
27.1
21.63
16.39
11.08
5.38
-0.92
-7.82
-15.07
-22.23
-28.9
-34.87
-40.28
-45.69
-51.92
-59.69
-69.3
-80.2
-90.9
-99.16
-102.65
-99.62
-89.62
-73.74
-54.27
-34.05
-15.51
-0.15
11.64
20.34
26.81
31.87
36.07
39.72
42.97
45.86
48.41
50.52
52.06
52.9
52.99
52.41
51.35
50.07
48.92
48.19
48.13
48.77
49.86
50.84
50.94
49.47
46.02
40.73
34.3
27.79
22.17
18.02
15.29
13.33
11.13
7.7
2.38
-4.99
-14.06
-24.23
-34.76
-45.05
-54.69
-63.52
-71.62
-79.24
-86.8
-94.73
-103.15
-111.6
-118.83
-122.99
-122.11
-114.92
-101.42
-83.04
-62.34
-42.14
-24.73
-11.29
-1.84
4.56
9.33
13.89
19.35
26.32
34.8
44.22
53.57
61.7
67.65
70.94
71.75
70.84
69.35
68.26
68.22
69.22
70.77
72.11
72.5
71.6
69.41
66.22
62.34
57.93
52.98
47.37
41.14
34.55
28.1
22.28
17.35
13.1
8.94
4.21
-1.41
-7.75
-14.14
-19.77
-24.14
-27.35
-30.08
-33.25
-37.8
-44.46
-53.6
-65.04
-77.91
-90.58
-100.65
-105.54
-103.19
-92.96
-76
-54.91
-32.82
-12.41
4.74
18.19
28.34
36.01
41.84
46.22
49.5
52.19
54.81
57.64
60.57
63.13
65.21
66.53
66.91
66.7
66.85
68.41
72.02
77.47
83.83
90.69
96.92
101.26
103.15
103.23
102.83
103.11
104.51
106.58
109.81
113.3
115.56
115.74
114.49
113.37
113.73
115.99
119.57
125
130.49
132.2
126
109.63
83.73
51.93
20.24
-17.48
-56.66
-88.41
-108.3
-119.94
-129.54
-140.15
-150.52
-157.36
-158.41
-152.07
-140.83
-129.37
-121.54
-118.13
-117.24
-116.03
-112.1
-104.24
-90.72
-71.68
-49.09
-26.15
-6.55
5.9
8.03
-1.28
-19.78
-40.8
-56.82
-60.68
-50.33
-29.16
-4.3
16.44
27.76
28.58
22.08
12.81
4.46
-1.48
-5.19
-7.55
-9.31
-10.54
-10.69
-9.22
-6.54
-4.1
-3.77
-6.65
-12.74
-20.61
-28.53
-35.21
-40.51
-45.33
-50.75
-57.06
-63.02
-66.08
-63.67
-54.67
-40.06
-22.76
-6.52
5.6
12.28
14.17
13.11
11.22
9.99
10.22
11.92
14.43
16.61
17.34
15.84
11.81
5.39
-3.06
-12.64
-22.11
-30.19
-35.78
-37.96
-36.25
-30.83
-21.42
-8.93
5.72
21.85
38.85
54.14
64.01
65.96
60.29
49.51
36.56
23.93
13.2
4.88
-1.37
-6.1
-9.67
-12.37
-14.41
-16.1
-17.54
-18.69
-19.38
-19.29
-17.87
-14.69
-10.12
-5.59
-3.49
-5.66
-13
-24.6
-37.96
-49.91
-58
-61.49
-61.23
-59.07
-56.51
-53.97
-50.78
-45.92
-38.84
-29.9
-20.26
-11.16
-3.7
1.6
4.8
6.43
7.17
7.78
9.17
10.4
11.61
13.05
14.81
16.65
18.06
18.45
17.42
15.08
11.98
9.3
7.99
8.46
10.36
12.79
14.68
15.29
14.51
12.89
11.54
11.26
12.09
13.16
12.79
9.17
1.04
-11.58
-27
-41.83
-51.9
-53.3
-43.76
-23.64
3.83
33.45
59.54
77.91
87.04
88.15
84.12
78.03
71.68
65.15
57.22
46.45
32.41
16.21
0.34
-12.25
-19.17
-19.33
-13.1
-1.9
12.45
28.26
44.27
59.52
73.12
84.32
92.49
97.47
99.41
98.59
95.09
88.51
78.17
63.6
44.95
23.27
0.41
-21.28
-39.33
-51.46
-55.96
-52.03
-40.2
-22.63
-3.06
13.94
24.18
25.24
17.26
2.86
-13.91
-29.09
-40.11
-46.36
-48.85
-49.33
-49.33
-49.68
-50.49
-51.54
-52.78
-54.48
-57.24
-61.71
-68.38
-77.39
-88.29
-100.05
-110.99
-119.09
-122.43
-119.75
-110.86
-96.81
-79.51
-61.16
-43.65
-28.21
-15.35
-5.1
2.7
8.28
11.9
13.98
15.14
16.14
17.65
20.09
23.45
27.41
31.46
35.21
38.48
41.4
44.23
47.14
50.05
52.59
54.23
54.53
53.29
50.69
47.16
43.25
39.37
35.69
32.07
28.24
23.91
19.02
13.78
8.61
3.99
0.18
-2.86
-5.49
-8.28
-11.86
-16.73
-23.15
-31.04
-39.85
-48.51
-55.56
-59.45
-58.99
-53.82
-44.58
-32.68
-19.87
-7.67
3.01
11.9
19.15
25.01
29.7
33.32
36.08
38.25
40.21
42.28
44.48
46.52
47.98
48.54
48.15
47.09
45.8
44.75
44.25
44.24
44.4
44.25
43.38
41.59
38.91
35.66
32.37
29.55
27.4
25.7
23.96
21.58
18.13
13.52
8.02
2.51
-2.18
-5.8
-8.77
-11.94
-16.11
-21.76
-28.96
-37.32
-45.39
-51.7
-55.36
-56.27
-54.71
-50.91
-44.97
-37.03
-27.37
-15.42
-1.14
14.27
28.53
39.44
45.99
48.74
49.37
50.07
54.27
64.31
80.25
99.81
119.68
136.8
148.79
153.93
142.33
109.74
61.43
11.04
-28
-49.68
-55.98
-53.59
-49.95
-50.2
-54.28
-59.25
-62.02
-61.51
-58.69
-55.48
-53.49
-53.24
-54.06
-53.48
-49.45
-41.82
-32.44
-23.94
-18.24
-15.89
-16.28
-18.17
-19.53
-18.87
-15.94
-11.8
-7.96
-5.62
-5.5
-7.38
-10.65
-14.22
-17.04
-18.51
-18.4
-16.58
-12.85
-7.13
0.4
9.15
18.65
28.75
39.68
51.72
64.93
78.74
91.82
102.28
108.13
107.94
101.42
89.83
76.22
65.03
61.18
68.37
87.36
115.21
145.96
172.48
188.8
191.66
180.53
157.72
127.76
95.67
65.41
39.37
18.53
3.07
-7.15
-12.5
-13.75
-12.38
-10.67
-11.28
-16.27
-26.43
-41.15
-58.73
-77.23
-95.05
-111.4
-126.17
-139.54
-151.25
-160.56
-166.34
-167.66
-164.27
-156.78
-146.58
-135.46
-125.01
-116.08
-108.64
-101.99
-95.22
-87.68
-79.21
-70.14
-61.07
-52.52
-44.75
-37.71
-31.23
-25.19
-19.69
-14.91
-11.02
-8.05
-5.83
-4.02
-2.26
-0.38
1.62
3.46
4.82
5.42
5.18
4.26
3.01
1.8
0.89
0.3
-0.14
-0.73
-1.78
-3.53
-6.11
-9.47
-13.33
-17.11
-20.04
-21.27
-20.27
-16.94
-11.76
-5.51
0.9
6.8
11.82
15.82
18.68
20.3
20.7
20.26
19.83
20.59
23.69
29.68
38.25
48.21
57.82
65.31
69.4
69.47
65.66
58.58
49.12
38.19
26.69
15.47
5.25
-3.38
-10.17
-15.25
-19.17
-22.67
-26.46
-30.89
-35.89
-40.92
-45.21
-47.97
-48.44
-46.02
-40.18
-30.63
-17.44
-1.15
17.18
36.1
54.11
70.01
83.08
93.1
100.11
104.15
105.19
103.18
98.22
90.69
81.29
70.85
60.09
49.31
38.28
26.32
12.57
-3.68
-22.78
-44.64
-68.87
-94.97
-122.23
-149.67
-175.83
-198.97
-217.43
-230.22
-237.24
-239.21
-236.91
-230.59
-219.67
-203.17
-180.65
-153.02
-122.75
-93.31
-68.02
-48.96
-36.4
-29.06
-24.77
-21.46
-17.68
-12.83
-6.89
-0.14
7.08
14.45
21.61
28.11
33.38
36.87
38.21
37.31
34.31
29.55
23.37
16.08
8.06
0.02
-6.93
-11.43
-12.09
-8.07
0.65
13.09
27.53
41.97
54.62
64.27
70.41
73.19
73.24
71.37
68.34
64.68
60.58
56.09
51.18
45.93
40.61
35.64
31.41
28.18
25.95
24.52
23.55
22.76
21.88
20.77
19.33
17.46
14.98
11.75
7.62
2.57
-3.32
-9.89
-16.83
-23.83
-30.48
-36.42
-41.42
-45.5
-48.97
-52.41
-56.51
-61.77
-68.29
-75.6
-82.66
-88.1
-90.54
-88.98
-83.03
-73.08
-60.06
-45.3
-30.15
-15.73
-2.88
7.93
16.55
23.18
28.27
32.38
36.09
39.73
43.33
46.65
49.3
50.94
51.49
51.15
50.39
49.73
49.56
50.01
50.85
51.64
51.86
51.13
49.33
46.63
43.38
39.92
36.41
32.74
28.54
23.35
16.92
9.33
1
-7.41
-15.38
-22.64
-29.3
-35.78
-42.57
-50.03
-58.17
-66.52
-74.03
-79.14
-80.13
-75.61
-65.19
-49.79
-31.56
-13.18
3.07
15.97
25.51
32.52
37.91
42.26
45.66
48.07
49.58
50.62
51.67
52.96
54.24
54.87
54.26
52.19
49.04
45.66
42.93
41.43
41.1
41.38
41.41
40.43
38.07
34.49
30.29
26.16
22.63
19.78
17.26
14.46
10.79
6
0.27
-5.94
-12.06
-17.71
-22.84
-27.71
-32.83
-38.77
-46.01
-54.62
-64.04
-72.99
-79.62
-82.05
-78.91
-69.98
-56.21
-39.54
-22.2
-6.14
7.45
18.13
26.07
31.75
35.73
38.54
40.6
42.25
43.67
44.91
45.84
46.23
45.85
44.53
42.34
39.59
36.8
34.52
33.13
32.74
33.11
33.72
34.02
33.6
32.29
30.18
27.56
24.74
21.96
19.27
16.51
13.4
9.66
5.14
-0.04
-5.58
-11.05
-16.09
-20.57
-24.63
-28.72
-33.47
-39.52
-47.16
-55.99
-64.81
-71.69
-74.46
-71.47
-62.21
-47.54
-29.48
-10.52
7.13
22.11
33.99
43.07
49.93
55.15
59.15
62.16
64.34
65.79
66.63
66.92
66.77
66.23
65.41
64.47
63.59
62.96
62.72
62.93
63.47
64.13
64.68
64.92
64.75
64.12
63.11
61.78
60.28
58.84
57.74
57.35
57.99
59.9
63.15
67.46
72.12
75.92
77.46
75.79
70.79
63.34
55.04
47.28
40.59
34.25
26.53
15.54
-0.04
-20.46
-44.94
-72.08
-100.49
-129.15
-157.64
-186.11
-215.1
-245.22
-276.93
-310.07
-343.6
-375.45
-402.57
-421.34
-428.27
-420.94
-398.85
-363.72
-319.09
-269.32
-218.3
-168.4
-120.29
-73.48
-27.34
17.92
60.97
99.69
131.96
156.44
172.92
182.06
185
182.85
176.58
167.16
155.92
144.57
134.88
128.12
124.52
123.05
121.86
118.89
112.61
102.5
89.06
73.61
57.78
43.14
30.92
21.67
15.06
9.79
3.81
-5.06
-18.11
-34.86
-52.77
-67.76
-75.63
-73.63
-61.47
-41.39
-17.2
7.17
28.84
46.4
59.73
69.22
75.35
78.48
79.09
77.9
75.93
74.21
73.4
73.56
74.18
74.56
74.12
72.78
70.87
68.96
67.55
66.76
66.38
65.85
64.65
62.41
59.05
54.79
49.93
44.78
39.53
34.2
28.76
23.21
17.61
12.04
6.59
1.16
-4.4
-10.33
-16.69
-23.36
-29.98
-36.09
-41.32
-45.54
-48.96
-51.99
-55.25
-59.39
-65.01
-72.46
-81.46
-90.87
-98.59
-102.04
-98.91
-88.14
-70.42
-48.11
-24.48
-2.65
15.31
28.7
37.88
43.78
47.31
49.18
49.92
49.96
49.73
49.58
49.63
49.71
49.4
48.23
45.92
42.57
38.73
35.25
32.9
32.08
32.63
33.84
34.74
34.44
32.41
28.68
23.77
18.42
13.36
8.98
5.23
1.66
-2.4
-7.41
-13.48
-20.16
-26.71
-32.43
-37.01
-40.7
-44.23
-48.51
-54.37
-62.29
-72.14
-83.01
-93.2
-100.38
-102.15
-96.82
-84.07
-65.23
-43
-20.58
-0.73
14.9
25.9
32.86
36.78
38.74
39.58
39.9
40.04
40.13
40.12
39.87
39.25
38.19
36.78
35.16
33.57
32.3
31.59
31.62
32.32
33.33
33.98
33.56
31.54
27.82
22.83
17.35
12.2
7.78
3.95
0.08
-4.59
-10.52
-17.61
-25.23
-32.56
-38.97
-44.36
-49.16
-54.11
-59.98
-67.36
-76.42
-86.8
-97.45
-106.55
-111.77
-110.82
-102.22
-86
-63.99
-39.2
-15.04
5.81
21.96
33.36
40.88
45.64
48.66
50.66
52.12
53.38
54.68
56.1
57.48
58.46
58.63
57.77
55.94
53.6
51.39
49.92
49.52
50.07
51.01
51.53
50.82
48.4
44.29
39.02
33.36
27.97
23.07
18.38
13.28
7.2
-0.12
-8.35
-16.79
-24.69
-31.56
-37.35
-42.47
-47.62
-53.57
-60.99
-70.19
-80.89
-91.98
-101.51
-107.05
-106.39
-98.33
-83.23
-63
-40.51
-18.69
0.35
15.63
27.23
35.81
42.18
47
50.75
53.8
56.42
58.77
60.84
62.41
63.21
62.95
61.59
59.32
56.59
54
52.07
51.12
51.07
51.48
51.66
50.92
48.85
45.42
40.96
35.96
30.87
25.98
21.36
16.91
12.43
7.68
2.48
-3.28
-9.54
-16.07
-22.5
-28.45
-33.72
-38.41
-42.87
-47.67
-53.42
-60.63
-69.52
-79.85
-90.67
-100.28
-106.39
-106.72
-99.79
-85.53
-65.48
-42.45
-19.58
0.53
16.44
27.95
35.74
40.91
44.49
47.21
49.57
51.81
54.04
56.18
58.02
59.26
59.66
59.11
57.73
55.83
53.86
52.19
51.08
50.54
50.34
50.15
49.58
48.31
46.18
43.16
39.33
34.84
29.95
24.91
20.01
15.41
11.15
7.08
2.91
-1.64
-6.75
-12.41
-18.38
-24.35
-29.99
-35.06
-39.51
-43.58
-47.76
-52.77
-59.32
-67.79
-77.8
-88.02
-96.26
-99.97
-97.16
-87.04
-70.49
-49.84
-28.12
-8.14
8.23
20.37
28.75
34.34
38.16
40.95
43.11
44.78
46.01
46.79
47.07
46.8
45.89
44.31
42.13
39.62
37.11
35.03
33.69
33.21
33.49
34.13
34.63
34.46
33.27
30.93
27.6
23.57
19.25
14.98
10.97
7.25
3.69
0.05
-3.96
-8.49
-13.53
-18.9
-24.28
-29.29
-33.65
-37.33
-40.46
-43.43
-46.75
-50.92
-56.29
-62.86
-70.12
-76.92
-81.63
-82.41
-77.89
-67.63
-52.47
-34.33
-15.68
1.25
15.06
25.32
32.47
37.3
40.59
42.86
44.36
45.2
45.48
45.25
44.6
43.6
42.29
40.76
39.11
37.54
36.26
35.45
35.23
35.46
35.86
36
35.48
34.03
31.63
28.45
24.75
20.75
16.59
12.34
8.08
4
0.25
-3.08
-6.08
-9.01
-12.24
-16.05
-20.51
-25.47
-30.66
-35.77
-40.59
-45.08
-49.41
-53.91
-59.05
-65.25
-72.74
-81.19
-89.6
-96.32
-99.37
-97.14
-88.91
-75.24
-57.9
-39.3
-21.8
-7.05
4.22
12.19
17.59
21.33
24.22
26.92
29.81
33.11
36.78
40.64
44.4
47.8
50.71
53.12
55.18
56.99
58.63
60.01
61.01
61.4
61
59.69
57.49
54.47
50.77
46.56
42.04
37.44
33.02
29.07
25.78
23.18
21.07
19.08
16.81
13.95
10.41
6.29
1.88
-2.44
-6.32
-9.51
-11.96
-13.84
-15.58
-17.67
-20.51
-24.06
-27.74
-30.48
-30.9
-27.76
-20.27
-8.41
7.06
24.68
42.61
59.07
72.74
82.96
89.79
93.73
95.48
95.64
94.73
93.14
91.24
89.3
87.32
84.93
81.5
76.32
68.96
59.47
48.42
36.78
25.58
15.65
7.36
0.6
-4.93
-9.48
-12.83
-14.36
-13.24
-9.03
-1.99
6.82
15.85
23.65
29.18
31.92
31.76
28.98
24.35
19.19
15.21
13.94
16.03
20.82
26.47
30.79
32.14
29.93
24.61
17.11
8.18
-1.73
-12.38
-23.33
-33.77
-42.67
-49.25
-53.36
-55.54
-56.83
-58.23
-60.33
-63.14
-66.12
-68.63
-70.17
-70.58
-70
-68.78
-67.22
-65.54
-63.83
-62.14
-60.51
-58.97
-57.54
-56.18
-54.81
-53.29
-51.5
-49.41
-47.06
-44.62
-42.32
-40.39
-38.95
-37.98
-37.33
-36.78
-36.14
-35.25
-34.07
-32.64
-30.98
-29.14
-27.22
-25.36
-23.76
-22.67
-22.27
-22.62
-23.67
-25.17
-26.89
-28.68
-30.52
-32.56
-35.06
-38.15
-41.72
-45.36
-48.38
-50.08
-49.95
-47.85
-44.07
-39.25
-34.09
-29.18
-24.87
-21.23
-18.22
-15.75
-13.8
-12.42
-11.65
-11.38
-11.35
-11.22
-10.64
-9.5
-7.93
-6.22
-4.7
-3.53
-2.64
-1.81
-0.88
0.23
1.38
2.33
2.9
3.11
3.11
3.13
3.29
3.6
3.93
4.06
3.84
3.16
2.02
0.51
-1.2
-2.87
-4.3
-5.38
-6.13
-6.75
-7.52
-8.71
-10.46
-12.71
-15.16
-17.4
-18.96
-19.51
-18.89
-17.22
-14.78
-11.99
-9.26
-6.91
-5.13
-3.95
-3.27
-2.92
-2.71
-2.47
-2.08
-1.48
-0.7
0.21
1.12
1.89
2.48
2.83
3.02
3.17
3.42
3.86
4.49
5.23
5.93
6.45
6.72
6.73
6.55
6.31
6.06
5.79
5.38
4.63
3.44
1.85
0.12
-1.42
-2.52
-3.17
-3.56
-4.06
-4.98
-6.46
-8.5
-10.94
-13.59
-16.2
-18.47
-20.04
-20.53
-19.67
-17.44
-14.04
-9.87
-5.39
-1.05
2.8
5.93
8.23
9.69
10.41
10.53
10.19
9.52
8.63
7.66
6.71
5.92
5.36
5.06
4.97
5.06
5.34
5.85
6.62
7.57
8.55
9.33
9.64
9.4
8.69
7.77
6.93
6.36
6.1
5.98
5.72
5.08
3.99
2.51
0.81
-0.93
-2.58
-4.12
-5.47
-6.63
-7.6
-8.48
-9.5
-10.89
-12.84
-15.33
-18.07
-20.58
-22.31
-22.81
-21.87
-19.56
-16.13
-12.02
-7.73
-3.74
-0.38
2.17
3.96
5.19
6.1
6.86
7.54
8.09
8.45
8.63
8.68
8.68
8.72
8.83
8.98
9.17
9.36
9.58
9.79
9.95
9.96
9.77
9.42
8.97
8.52
8.12
7.73
7.24
6.6
5.8
4.88
3.99
3.18
2.53
1.99
1.5
0.96
0.31
-0.5
-1.47
-2.59
-3.85
-5.23
-6.79
-8.61
-10.79
-13.42
-16.45
-19.67
-22.66
-24.86
-25.71
-24.89
-22.39
-18.57
-14.06
-9.44
-5.27
-1.78
0.97
3.12
4.78
6.14
7.28
8.28
9.19
10.02
10.78
11.42
11.94
12.33
12.59
12.71
12.68
12.49
12.12
11.59
10.95
10.25
9.52
8.82
8.09
7.32
6.43
5.36
4.14
2.84
1.64
0.75
0.33
0.37
0.68
0.95
0.8
0.05
-1.28
-2.9
-4.45
-5.6
-6.27
-6.61
-6.93
-7.6
-8.86
-10.81
-13.34
-16.16
-18.87
-20.95
-21.96
-21.5
-19.45
-15.96
-11.48
-6.68
-2.27
1.22
3.59
5
5.83
6.51
7.29
8.21
9.08
9.72
10.1
10.33
10.56
10.91
11.27
11.5
11.45
11.19
11
11.16
11.82
12.8
13.74
14.23
14.06
13.38
12.55
11.95
11.77
11.9
12.05
11.92
11.32
10.28
8.95
7.52
6.04
4.52
2.9
1.12
-0.77
-2.72
-4.67
-6.65
-8.71
-10.96
-13.47
-16.18
-18.98
-21.59
-23.67
-24.84
-24.83
-23.47
-20.78
-17.01
-12.54
-7.85
-3.37
0.48
3.53
5.68
7.02
7.7
7.95
8.05
8.25
8.77
9.67
10.84
12.01
12.85
13.08
12.67
11.86
11.07
10.68
10.87
11.54
12.35
12.93
13.06
12.71
12.04
11.22
10.35
9.36
8.07
6.3
4.01
1.34
-1.41
-3.94
-6.04
-7.68
-9.02
-10.24
-11.52
-12.91
-14.36
-15.75
-17.02
-18.19
-19.28
-20.26
-20.87
-20.71
-19.3
-16.4
-12.13
-7.04
-1.94
2.41
5.6
7.64
8.88
9.73
10.4
10.89
11.11
11.01
10.74
10.56
10.63
10.9
11.14
11.04
10.47
9.62
8.95
8.93
9.78
11.31
13.02
14.33
14.86
14.55
13.63
12.44
11.18
9.91
8.5
6.85
4.98
3.01
1.12
-0.56
-2.06
-3.47
-4.87
-6.3
-7.72
-9.01
-10.13
-11.1
-12.06
-13.17
-14.63
-16.53
-18.84
-21.31
-23.51
-24.94
-25.14
-23.86
-21.14
-17.37
-13.13
-9.03
-5.51
-2.78
-0.83
0.53
1.56
2.52
3.61
4.91
6.37
7.84
9.15
10.16
10.82
11.17
11.31
11.37
11.44
11.58
11.84
12.2
12.61
12.95
13.08
12.94
12.55
11.99
11.37
10.68
9.88
8.92
7.88
6.91
6.24
5.97
5.97
5.93
5.46
4.37
2.71
0.79
-1.06
-2.64
-4.06
-5.62
-7.69
-10.48
-13.97
-17.93
-21.93
-25.47
-28.03
-29.14
-28.49
-26
-21.99
-16.95
-11.58
-6.47
-2.04
1.57
4.38
6.51
8.1
9.22
9.95
10.39
10.67
10.89
11.18
11.56
11.94
12.22
12.31
12.17
11.9
11.61
11.45
11.48
11.68
11.94
12.1
12.03
11.64
10.86
9.74
8.33
6.83
5.46
4.44
3.87
3.74
3.92
4.18
4.29
4.1
3.48
2.45
1.05
-0.57
-2.33
-4.16
-6.09
-8.17
-10.49
-13.13
-16.1
-19.34
-22.67
-25.78
-28.2
-29.44
-29.08
-27
-23.35
-18.65
-13.49
-8.47
-3.98
-0.3
2.43
4.18
5.04
5.27
5.26
5.39
5.83
6.45
6.84
6.51
5.23
3.07
0.42
-2.16
-4.26
-5.73
-6.74
-7.65
-8.92
-10.84
-13.67
-17.46
-22.18
-27.66
-33.61
-39.7
-45.61
-51.16
-56.34
-61.32
-66.23
-71.18
-76.02
-80.53
-84.48
-87.83
-90.8
-93.71
-96.9
-100.44
-104.2
-107.92
-111.55
-115.44
-120.54
-128.07
-139.06
-153.54
-169.96
-185.17
-195.02
-195.61
-184.65
-162.29
-131.18
-95.6
-60.13
-28.45
-2.61
17.13
31.79
43.05
52.58
61.59
70.61
79.55
88.07
95.83
102.68
108.7
113.86
117.96
120.56
121.26
120.09
117.58
114.65
112.17
110.49
109.28
107.67
104.66
99.71
92.91
84.99
76.98
69.78
63.76
58.61
53.54
47.61
40.2
31.23
21.19
10.85
0.87
-8.49
-17.39
-26.35
-36.1
-47.32
-60.42
-75.33
-91.18
-106.22
-117.91
-123.55
-120.99
-109.48
-89.86
-64.14
-34.81
-3.99
26.79
56.38
83.53
106.61
123.87
133.97
136.57
132.35
122.61
108.6
91.02
70.02
45.81
19.14
-8.44
-34.85
-57.94
-75.85
-87.09
-90.41
-84.86
-70.21
-47.45
-19.07
11.53
41.14
67.94
91.94
114.49
136.93
159.26
179.59
194.48
200.07
193.26
172.61
138.69
94.09
43.12
-8.94
-56.82
-96.55
-126.48
-147.65
-162.99
-175.72
-187.68
-198.3
-204.86
-203.88
-192.94
-172.1
-144.16
-113.79
-85.91
-64.15
-49.89
-42.18
-38.33
-34.88
-28.21
-15.4
5.09
32.68
64.17
94.38
117.68
130.23
131.55
124.68
114.54
105.56
99.99
97.63
97.17
97.86
100.39
106.21
116.02
128.48
140.15
147.09
146.88
140.03
129.99
121.7
119.85
127.21
143.73
166.4
190.06
208.57
216.57
211.17
192.72
164.68
132.18
100.13
71.67
47.82
28.06
11.58
-1.78
-11.37
-16.15
-15.53
-9.55
1.15
15.87
34.17
55.82
80.61
107.81
135.91
162.55
184.96
200.56
207.7
206.23
197.59
184.4
169.66
155.81
144.04
133.97
123.75
110.71
92.12
66.24
33.05
-5.48
-45.85
-83.96
-116.26
-140.54
-156.33
-164.86
-168.92
-172.69
-180.99
-198.02
-225.38
-260.44
-296.11
-322.48
-329.92
-312.4
-269.26
-205.12
-128.08
-47.48
27.93
90.91
136.2
160.94
165.15
151.75
125.76
92.67
56.54
18.69
-22.08
-67.73
-118.29
-169.66
-213.28
-238.33
-235.88
-203.39
-147.11
-81.01
-22
16.26
28.34
18.32
-2.88
-22.64
-31.46
-25.36
-5.39
24.55
59.92
96.5
130.37
157.61
174.35
177.69
166.78
143.3
111
74.48
37.89
4.22
-24.78
-48.22
-65.48
-76.08
-79.68
-76.42
-67.08
-53.17
-36.82
-20.53
-6.8
2.39
6.01
4.24
-1.67
-9.84
-18.43
-26.2
-32.83
-38.78
-44.77
-51.28
-58.14
-64.51
-69.14
-70.9
-69.27
-64.73
-58.85
-54.12
-53.39
-59.11
-72.51
-93.19
-119.05
-146.84
-173.02
-194.59
-209.5
-216.83
-216.56
-209.23
-195.26
-175.01
-148.82
-117.34
-81.46
-42.28
-1.2
40.27
80.59
118.67
153.73
185.24
212.85
236.3
255.7
270.88
281.09
284.68
279.94
265.16
239.26
202.22
155.51
102.66
47.42
-7.22
-59.73
-108.03
-150.09
-184
-208.27
-222.07
-223.69
-213.24
-193.29
-169.22
-144.44
-121.59
-102.33
-87.55
-76.98
-66.77
-53.91
-37.82
-21.76
-5.73
10.72
28.55
48.61
71.94
102.59
141.77
185.84
225.26
254.73
270.96
273.71
265.64
230.54
167.69
94.03
48.41
32.78
40.15
55.97
69.3
71.18
56.63
29.38
-2.89
-31.63
-56.22
-68.13
-62.73
-45.42
-28.33
-21.32
-24.8
-34.6
-46.83
-60.37
-76.8
-97.37
-121.4
-146.15
-167.12
-178.55
-177.92
-167.38
-150.54
-131.51
-113.84
-99.63
-89.3
-81.91
-75.57
-69.53
-64.53
-62.33
-63.32
-66.29
-69.13
-69.72
-66.64
-59.54
-49.43
-38.08
-27.34
-18.33
-11.3
-6.36
-3.66
-3.29
-4.8
-7.06
-8.35
-6.96
-2.29
5.1
13.33
19.92
22.73
20.97
15.49
8.46
2.57
-0.28
0.5
3.99
7.92
10.04
9.36
6.49
3.05
0.7
0.04
0.59
1.58
2.3
3.16
5.8
12
22.66
37.82
57.54
83
116.61
159.53
210.43
264.9
315.65
354.6
375.44
375.48
355.86
320.55
272.93
215.75
151.94
84.96
19.58
-38.63
-84.56
-117.48
-132.64
-129.86
-116.65
-103.1
-95.78
-94.4
-94.17
-89.68
-78.33
-61.82
-46.97
-41.92
-51.57
-75.76
-109.03
-142.95
-169.25
-182.66
-182.09
-170.91
-154.17
-131.13
-105.58
-79.77
-54.54
-30.73
-9.91
6.04
15.58
18.68
17.04
12.6
7.78
3.96
1.07
-2.04
-6.69
-13.61
-22.56
-32.44
-42.45
-51.66
-60.04
-68.44
-77.79
-88.36
-98.69
-105.98
-107.21
-100.82
-86.81
-67.01
-44.36
-20.03
3.29
23.78
40.68
53.97
63.72
70.49
75.1
78.73
82.6
87.31
93.07
99.37
105.16
109.18
110.66
109.42
105.82
100.38
93.29
84.69
74.56
62.86
49.73
35.77
21.99
9.61
-0.11
-6.44
-8.98
-7.79
-3.34
3.7
12.57
22.47
32.54
41.89
49.55
54.81
57.16
56.33
52.17
44.57
33.55
19.41
2.98
-14.5
-31.46
-46.47
-58.44
-66.84
-71.46
-72.25
-69.29
-62.8
-53.44
-42.38
-31.15
-21.18
-13.43
-8.03
-4.43
-1.78
0.62
3.11
5.54
7.58
8.94
9.57
9.71
9.76
10.03
10.69
11.7
12.88
14.05
15.15
16.12
16.95
17.51
17.64
17.09
15.66
13.28
10.01
5.98
1.31
-3.95
-9.85
-16.41
-23.52
-30.88
-38.07
-44.67
-50.61
-56.22
-62.19
-69.27
-77.74
-87.16
-96.28
-103.41
-107.06
-106.43
-101.76
-94.16
-85.18
-76.24
-68.21
-61.44
-55.77
-50.95
-46.84
-43.49
-41.09
-40.05
-40.98
-44.64
-51.57
-61.56
-73.09
-83.34
-88.77
-86.3
-74.63
-54.76
-29.72
-3.38
20.86
40.94
56.41
67.9
76.4
82.65
86.95
89.26
89.33
86.86
81.32
71.87
57.44
37.18
11.2
-18.68
-48.92
-74.98
-92.66
-99.53
-95.51
-82.6
-63.57
-40.79
-15.53
11.69
40.34
69.2
96.18
118.92
135.46
144.94
147.64
144.87
138.38
129.98
121.05
112.34
103.87
95.16
85.68
75.24
64.33
53.95
45.26
39.07
35.52
34.25
34.55
35.84
37.72
39.92
42.12
43.79
44.24
42.9
39.51
34.18
27.33
19.44
10.84
1.63
-8.27
-19.03
-30.76
-43.42
-56.85
-70.48
-83.31
-93.81
-100.25
-101.18
-96
-85.25
-70.3
-52.78
-33.82
-13.87
6.92
28.04
48.21
65.49
78.1
85.3
87.88
87.83
87.38
87.97
89.8
91.99
93.31
92.95
90.96
88.1
85.46
83.85
83.5
83.94
84.29
83.53
80.77
75.45
67.24
56.04
41.88
24.97
5.73
-15.18
-36.96
-58.88
-80.44
-101.38
-121.4
-139.89
-155.67
-167.22
-173.15
-172.75
-166.33
-155.22
-141.35
-126.59
-112.32
-99.19
-87.26
-76.37
-66.47
-57.75
-50.5
-44.83
-40.45
-36.74
-32.96
-28.69
-23.96
-19.3
-15.3
-12.28
-10.08
-8.11
-5.77
-2.7
0.98
4.9
8.55
11.55
13.72
15.13
16.02
16.74
17.64
18.99
20.77
22.74
24.53
25.81
26.51
26.78
26.87
26.97
26.96
26.55
25.4
23.32
20.4
16.92
13.23
9.59
6.04
2.51
-1.08
-4.75
-8.41
-11.92
-15.2
-18.32
-21.52
-25.13
-29.46
-34.71
-40.75
-47.06
-52.77
-56.73
-57.87
-55.51
-49.66
-41.01
-30.79
-20.28
-10.52
-2
5.19
11.26
16.38
20.65
24.13
26.85
28.97
30.69
32.16
33.4
34.28
34.58
34.15
32.97
31.24
29.32
27.63
26.51
26.1
26.24
26.54
26.53
25.82
24.25
21.95
19.2
16.31
13.48
10.73
7.96
5
1.69
-2.03
-6.12
-10.43
-14.76
-18.88
-22.68
-26.21
-29.67
-33.37
-37.64
-42.63
-48.28
-54.22
-59.81
-64.18
-66.42
-65.71
-61.65
-54.33
-44.48
-33.19
-21.71
-11.03
-1.82
5.68
11.51
15.86
19.01
21.29
23.01
24.42
25.61
26.56
27.13
27.28
27.03
26.51
25.91
25.36
24.95
24.7
24.63
24.69
24.78
24.68
24.14
22.94
21.02
18.53
15.72
12.81
9.82
6.59
2.9
-1.36
-6.1
-10.96
-15.54
-19.57
-23
-26.08
-29.17
-32.66
-36.81
-41.71
-47.25
-53.09
-58.61
-62.93
-65.09
-64.29
-60.15
-52.9
-43.29
-32.43
-21.41
-11.09
-1.99
5.72
12.13
17.42
21.82
25.56
28.75
31.42
33.48
34.81
35.3
34.97
33.94
32.5
31.03
29.93
29.54
29.98
31.16
32.7
34.06
34.67
34.13
32.37
29.63
26.41
23.19
20.27
17.61
14.91
11.73
7.74
2.91
-2.49
-8
-13.15
-17.67
-21.62
-25.26
-28.99
-33.15
-38.02
-43.69
-50.07
-56.78
-63.06
-67.91
-70.23
-69.17
-64.4
-56.42
-46.27
-35.3
-24.67
-15.07
-6.68
0.73
7.4
13.51
18.98
23.65
27.37
30.1
31.97
33.13
33.74
33.86
33.54
32.77
31.66
30.39
29.18
28.18
27.41
26.78
26.07
25.02
23.49
21.56
19.43
17.46
15.92
14.95
14.44
14.11
13.57
12.42
10.34
7.12
2.79
-2.4
-8.03
-13.5
-18.34
-22.31
-25.53
-28.44
-31.65
-35.69
-40.91
-47.21
-54.13
-60.79
-65.96
-68.33
-66.84
-61
-51.2
-38.64
-25.01
-11.92
-0.49
8.94
16.63
23.14
28.94
34.28
39.15
43.49
47.18
50.19
52.46
53.9
54.43
54.08
53.04
51.71
50.54
49.9
49.95
50.55
51.35
51.88
51.79
50.93
49.38
47.36
45.06
42.54
39.72
36.46
32.7
28.55
24.23
19.99
15.96
12.09
8.17
3.94
-0.79
-6.02
-11.6
-17.23
-22.68
-27.79
-32.55
-37.06
-41.52
-46.2
-51.32
-57.04
-63.21
-69.3
-74.33
-77.08
-76.48
-71.91
-63.53
-52.18
-39.21
-26.04
-13.78
-3.09
5.82
13.15
19.25
24.48
29.12
33.3
36.98
40.06
42.41
43.97
44.73
44.76
44.18
43.17
41.93
40.7
39.69
39.03
38.72
38.63
38.53
38.14
37.25
35.74
33.61
30.93
27.85
24.49
20.96
17.31
13.61
9.97
6.49
3.27
0.29
-2.62
-5.7
-9.2
-13.19
-17.55
-21.99
-26.17
-29.87
-33.13
-36.26
-39.69
-43.82
-48.88
-54.77
-60.97
-66.56
-70.34
-71.15
-68.2
-61.44
-51.57
-39.87
-27.8
-16.53
-6.75
1.41
8.13
13.68
18.25
21.98
24.93
27.26
29.11
30.62
31.86
32.75
33.19
33.12
32.57
31.73
30.89
30.35
30.29
30.7
31.35
31.91
32.05
31.63
30.7
29.38
27.85
26.13
24.18
21.89
19.22
16.24
13.04
9.73
6.32
2.79
-0.92
-4.78
-8.66
-12.42
-15.95
-19.29
-22.6
-26.09
-29.88
-34.04
-38.52
-43.32
-48.48
-53.99
-59.64
-64.81
-68.5
-69.54
-67.08
-60.91
-51.69
-40.71
-29.47
-19.14
-10.34
-3.1
2.87
7.88
12.18
15.83
18.92
21.54
23.83
25.89
27.72
29.19
30.15
30.46
30.13
29.35
28.38
27.54
27.04
26.97
27.28
27.79
28.24
28.33
27.83
26.62
24.78
22.53
20.13
17.78
15.48
13.1
10.41
7.28
3.76
0.03
-3.69
-7.32
-10.9
-14.56
-18.37
-22.28
-26.15
-29.87
-33.44
-37.09
-41.17
-45.94
-51.42
-57.12
-62.11
-65.16
-65.17
-61.54
-54.5
-45.02
-34.51
-24.32
-15.31
-7.72
-1.34
4.19
9.06
13.3
16.8
19.55
21.66
23.35
24.85
26.19
27.28
27.92
28
27.49
26.6
25.6
24.76
24.3
24.23
24.4
24.54
24.36
23.6
22.24
20.35
18.17
15.9
13.65
11.4
9.08
6.62
3.97
1.09
-2.03
-5.45
-9.22
-13.34
-17.65
-21.97
-26.12
-30.08
-34.08
-38.53
-43.88
-50.35
-57.71
-65.12
-71.29
-74.82
-74.68
-70.59
-63.15
-53.61
-43.46
-33.93
-25.7
-18.89
-13.23
-8.41
-4.25
-0.82
1.75
3.39
4.2
4.41
4.3
4.05
3.57
2.58
0.79
-1.88
-5.16
-8.44
-10.94
-12.03
-11.4
-9.14
-5.54
-0.97
4.38
10.37
16.82
23.36
29.32
33.88
36.32
36.27
33.84
29.51
23.96
17.85
11.61
5.42
-0.61
-6.41
-11.81
-16.69
-21.05
-25.22
-29.82
-35.69
-43.4
-52.91
-63.32
-72.95
-79.76
-82.01
-78.8
-70.35
-57.84
-42.93
-27.21
-11.87
2.47
15.59
27.41
37.91
46.98
54.51
60.45
64.83
67.82
69.66
70.61
70.87
70.58
69.79
68.54
66.94
65.16
63.42
61.94
60.79
59.89
59
57.82
56.04
53.48
50.13
46.11
41.62
36.92
32.22
27.65
23.21
18.75
14.13
9.14
3.7
-2.17
-8.35
-14.6
-20.72
-26.52
-31.99
-37.28
-42.69
-48.55
-55.11
-62.44
-70.24
-77.79
-84.01
-87.63
-87.52
-83.09
-74.48
-62.56
-48.7
-34.31
-20.52
-7.92
3.31
13.23
21.9
29.3
35.41
40.22
43.84
46.43
48.17
49.16
49.42
48.95
47.8
46.15
44.31
42.64
41.42
40.72
40.36
39.97
39.15
37.64
35.36
32.41
29.02
25.41
21.72
18.05
14.38
10.61
6.53
1.88
-3.56
-9.85
-16.79
-23.95
-30.86
-37.16
-42.75
-47.86
-52.89
-58.32
-64.39
-70.94
-77.25
-82.17
-84.23
-82.15
-75.24
-63.7
-48.59
-31.58
-14.46
1.35
14.97
26.18
35.13
42.22
47.84
52.33
55.88
58.59
60.49
61.57
61.82
61.32
60.15
58.44
56.37
54.06
51.72
49.56
47.8
46.57
45.82
45.29
44.58
43.34
41.32
38.53
35.18
31.5
27.74
24.03
20.34
16.59
12.6
8.2
3.25
-2.25
-8.2
-14.36
-20.44
-26.24
-31.68
-36.86
-42.05
-47.63
-54
-61.43
-69.74
-78.21
-85.52
-90.07
-90.41
-85.76
-76.38
-63.39
-48.51
-33.38
-19.22
-6.61
4.38
13.96
22.34
29.67
36.04
41.49
46.09
49.86
52.83
54.94
56.12
56.37
55.77
54.55
53.02
51.47
50.09
48.88
47.73
46.46
44.95
43.11
40.9
38.24
35.03
31.21
26.89
22.33
17.88
13.83
10.22
6.84
3.32
-0.6
-5.07
-9.91
-14.88
-19.71
-24.28
-28.59
-32.79
-37.08
-41.72
-47
-53.15
-60.32
-68.28
-76.34
-83.33
-87.83
-88.55
-84.7
-76.35
-64.37
-50.21
-35.42
-21.25
-8.48
2.65
12.21
20.41
27.42
33.39
38.44
42.71
46.3
49.27
51.55
52.99
53.46
52.95
51.71
50.11
48.59
47.39
46.53
45.77
44.79
43.38
41.47
39.21
36.76
34.2
31.48
28.44
24.95
20.98
16.64
12.14
7.67
3.29
-1.01
-5.35
-9.87
-14.6
-19.47
-24.26
-28.75
-32.75
-36.18
-39.16
-42.07
-45.39
-49.66
-55.25
-62.05
-69.45
-76.25
-80.92
-82.06
-78.83
-71.26
-60.28
-47.35
-34.03
-21.54
-10.55
-1.22
6.65
13.41
19.36
24.7
29.56
33.94
37.81
41.08
43.63
45.32
46.09
45.94
45.04
43.67
42.23
41.05
40.31
39.92
39.55
38.85
37.54
35.59
33.17
30.51
27.77
24.98
22.13
19.16
16.1
13
9.87
6.63
3.19
-0.57
-4.65
-8.99
-13.44
-17.87
-22.15
-26.23
-30.05
-33.61
-37.05
-40.69
-44.95
-50.23
-56.61
-63.69
-70.56
-75.88
-78.37
-77.08
-71.8
-63.04
-51.9
-39.71
-27.65
-16.54
-6.76
1.67
8.88
15.07
20.35
24.84
28.61
31.7
34.15
35.98
37.2
37.82
37.9
37.48
36.7
35.74
34.81
34.09
33.7
33.59
33.62
33.55
33.13
32.19
30.67
28.54
25.85
22.71
19.27
15.77
12.43
9.37
6.49
3.48
-0.03
-4.22
-8.99
-13.94
-18.59
-22.64
-26.1
-29.33
-32.85
-37.11
-42.39
-48.67
-55.62
-62.52
-68.36
-71.95
-72.19
-68.51
-61.04
-50.64
-38.64
-26.43
-15.02
-4.93
3.76
11.22
17.65
23.15
27.75
31.45
34.3
36.41
37.91
38.93
39.52
39.69
39.41
38.69
37.68
36.63
35.79
35.37
35.32
35.39
35.14
34.16
32.23
29.38
25.88
22.11
18.46
15.13
12.14
9.3
6.3
2.89
-1.14
-5.75
-10.8
-16.04
-21.26
-26.3
-31.07
-35.58
-39.88
-44.09
-48.49
-53.45
-59.25
-65.84
-72.55
-78.13
-81.09
-80.18
-74.96
-65.92
-54.31
-41.65
-29.25
-17.87
-7.82
0.9
8.39
14.74
20.12
24.74
28.87
32.72
36.26
39.3
41.54
42.8
43.09
42.69
41.98
41.31
40.88
40.74
40.72
40.59
40.16
39.31
38.03
36.39
34.46
32.27
29.76
26.86
23.57
20.03
16.43
12.95
9.67
6.44
3.03
-0.87
-5.36
-10.39
-15.71
-21.03
-26.17
-31.09
-35.95
-40.96
-46.36
-52.32
-58.91
-65.99
-73.15
-79.61
-84.29
-86.01
-83.83
-77.46
-67.37
-54.76
-41.16
-27.92
-15.9
-5.36
3.9
12.22
19.81
26.68
32.67
37.55
41.17
43.53
44.76
45.16
45.06
44.77
44.51
44.37
44.33
44.37
44.47
44.57
44.55
44.22
43.34
41.77
39.52
36.78
33.75
30.59
27.34
23.94
20.37
16.64
12.81
8.85
4.67
0.12
-4.82
-9.97
-14.99
-19.51
-23.34
-26.64
-29.81
-33.34
-37.68
-43
-49.32
-56.39
-63.78
-70.82
-76.56
-79.9
-79.88
-75.97
-68.32
-57.82
-45.72
-33.29
-21.49
-10.8
-1.4
6.78
13.79
19.7
24.64
28.82
32.39
35.39
37.68
39.15
39.78
39.63
38.88
37.78
36.72
35.93
35.44
35.1
34.78
34.47
34.06
33.4
32.36
30.85
28.83
26.18
22.77
18.86
14.85
10.94
6.92
2.48
-2.66
-8.72
-15.87
-24.27
-32.91
-40.57
-46.85
-52.47
-58.49
-65.61
-74.05
-83.88
-95.19
-106.07
-114.41
-119.85
-124.13
-129.23
-135.82
-143.2
-150.15
-155.59
-155.62
-146.68
-128.9
-106.85
-86.49
-71.94
-64.31
-61.62
-59.46
-47.87
-17.17
36.35
108.6
192.23
281.64
374.27
468.85
535.32
544.26
489.95
396.66
296.28
209.91
145.53
101.16
68.67
38.91
10.44
-12.51
-25.53
-28.88
-26.9
-25.04
-26.81
-34.8
-48.62
-62.97
-72.37
-75.21
-74.11
-72.54
-71.79
-70.97
-68.8
-64.75
-57.69
-47.4
-35.69
-26.11
-21.54
-22.61
-27.14
-31.52
-32.13
-25.96
-12.23
7.01
27.77
46.19
60.31
70.16
76.73
81.09
84.28
87.09
90.06
93.44
97.13
100.54
102.48
101.48
96.65
88.13
77.23
65.55
54.13
42.91
31.03
17.71
2.96
-12.24
-26.58
-39.43
-51.56
-64.87
-81.42
-102.21
-126.54
-152.29
-177.03
-199.01
-217.54
-232.58
-243.92
-250.77
-251.95
-246.81
-235.93
-221.12
-204.87
-189.23
-175.27
-163.16
-152.8
-144.46
-138.95
-137.26
-139.82
-145.93
-153.52
-159.33
-159.6
-150.87
-130.82
-98.91
-56.76
-7.85
43.17
91.63
133.79
167.48
192.14
208.34
217.32
220.52
219.37
215.21
209.29
202.64
195.92
189.25
182.1
173.5
162.39
148.17
131.06
112.18
93.27
76.18
62.23
51.82
44.34
38.54
32.98
26.58
18.79
9.57
-0.85
-12.16
-24.17
-36.86
-50.36
-64.88
-80.58
-97.3
-114.31
-130.27
-143.27
-151.46
-153.47
-149.05
-139.12
-125.57
-110.81
-97.22
-86.83
-81.04
-80.45
-84.48
-91.14
-97.05
-98.09
-90.5
-72.25
-43.82
-8.26
29.68
64.96
93.37
112.35
121.12
120.45
112.36
99.75
85.97
74.18
66.61
63.97
65.29
68.42
70.93
71
68.03
62.58
55.88
49.08
42.79
36.93
30.99
24.38
16.7
7.8
-2.29
-13.48
-25.52
-37.87
-49.55
-59.17
-65.2
-66.51
-62.66
-54.25
-42.75
-30.06
-18.01
-7.9
-0.23
5.23
9.14
12.3
15.29
18.32
21.31
23.87
25.51
25.66
23.77
19.55
13.12
5.17
-3.01
-9.94
-14.38
-15.75
-14.46
-11.8
-9.8
-10.57
-15.59
-24.9
-36.42
-45.84
-47.21
-34.77
-5.07
40.99
97.73
155.79
204.95
237.01
247.68
236.9
207.65
164.42
112.02
55.23
-1.09
-51.94
-92.51
-118.97
-129.28
-123.77
-105.03
-77.5
-46.57
-17.65
4.88
18.72
23.99
22.98
19.16
15.87
15.22
17.66
22.22
27.29
31.43
33.73
34
32.52
29.73
26.09
21.98
17.75
13.74
10.29
7.68
6
5.15
4.79
4.43
3.55
1.74
-1.15
-4.94
-9.23
-13.51
-17.47
-20.97
-24.14
-27.23
-30.51
-34.35
-39.18
-45.58
-54.11
-64.94
-77.42
-89.86
-99.66
-104
-100.77
-89.42
-71.21
-48.8
-25.36
-3.62
14.79
29.32
40.16
47.69
52.21
53.92
53.15
50.45
46.73
42.9
39.68
37.35
35.73
34.37
32.87
31.06
29.1
27.35
26.18
25.81
26.05
26.42
26.22
24.72
21.4
16.11
9.14
1.13
-7.12
-14.98
-22.16
-28.77
-35.34
-42.54
-51.01
-61.05
-72.39
-83.97
-93.87
-99.67
-99
-90.41
-74.02
-51.69
-26.53
-1.96
19.33
35.97
47.98
56.22
61.75
65.38
67.44
68.07
67.38
65.63
63.28
60.77
58.3
55.85
53.14
49.92
46.09
41.83
37.56
33.75
30.68
28.31
26.2
23.72
20.23
15.36
9.09
1.81
-5.85
-13.25
-19.91
-25.76
-31.09
-36.46
-42.52
-49.88
-58.87
-69.45
-80.95
-91.86
-100.03
-102.96
-98.64
-86.29
-66.79
-42.59
-16.96
7.01
27.15
42.57
53.44
60.43
64.24
65.38
64.2
61.09
56.67
51.68
46.88
42.81
39.63
37.17
35.03
32.89
30.61
28.33
26.33
24.84
23.83
22.91
21.48
18.89
14.75
9.08
2.36
-4.73
-11.53
-17.65
-23.06
-28.04
-33.04
-38.55
-45.03
-52.87
-62.25
-72.88
-83.66
-92.7
-97.56
-96.01
-86.86
-70.54
-49.06
-25.46
-2.91
16.17
30.45
39.82
44.93
46.88
46.75
45.4
43.4
40.94
37.98
34.35
30.04
25.22
20.33
15.93
12.51
10.32
9.23
8.71
8.01
6.44
3.55
-0.56
-5.41
-10.35
-14.84
-18.72
-22.19
-25.72
-29.93
-35.51
-43.05
-52.56
-62.95
-71.72
-75.31
-70.23
-54.52
-28.84
3.45
37.37
67.98
91.78
107.17
113.9
112.22
102.25
84.32
59.7
31.29
3.46
-19.01
-32.43
-35.52
-29.68
-18.4
-5.85
4.44
10.46
11.73
8.92
3.17
-4.3
-12.42
-20.19
-26.75
-31.45
-34.04
-34.78
-34.47
-34.21
-35.08
-37.75
-42.33
-48.32
-54.84
-60.95
-66.01
-69.94
-73.24
-76.9
-82.04
-89.45
-99.08
-109.67
-118.83
-123.63
-121.5
-111.18
-93.27
-70.04
-44.7
-20.34
0.86
18.04
31.41
41.74
49.74
55.83
60.06
62.36
62.75
61.55
59.31
56.65
54.07
51.77
49.69
47.62
45.35
42.83
40.15
37.42
34.63
31.64
28.13
23.79
18.39
11.92
4.63
-3.03
-10.55
-17.53
-23.81
-29.63
-35.52
-42.27
-50.71
-61.3
-73.94
-87.52
-100.04
-108.81
-111.24
-105.6
-91.7
-71.06
-46.53
-21.32
1.81
21.2
36.34
47.52
55.49
60.97
64.55
66.66
67.67
67.89
67.58
66.97
66.15
65.12
63.81
62.14
60.11
57.86
55.59
53.55
51.84
50.33
48.68
46.42
43.11
38.42
32.22
24.63
15.89
6.49
-3.01
-12.04
-20.21
-27.47
-34.14
-40.91
-48.64
-58.08
-69.54
-82.58
-95.76
-106.85
-113.26
-112.77
-104.34
-88.48
-67.14
-43.12
-19.19
2.6
21.18
36.33
48.31
57.48
64.19
68.73
71.48
72.88
73.35
73.18
72.49
71.29
69.7
67.98
66.52
65.69
65.61
65.99
66.21
65.5
63.3
59.47
54.31
48.36
42.13
35.82
29.34
22.35
14.58
5.98
-3.21
-12.51
-21.39
-29.48
-36.63
-43.04
-49.16
-55.73
-63.54
-73.13
-84.33
-95.96
-105.78
-110.99
-109.06
-98.73
-80.57
-56.99
-31.44
-7.36
12.82
28.08
38.71
45.58
49.62
51.4
51.23
49.46
46.65
43.62
41.2
39.81
39.31
39.09
38.45
37.02
34.96
32.72
30.72
28.95
27.08
24.88
22.72
21.79
23.76
30.02
41
55.75
72.27
88.06
100.77
108.49
109.81
103.74
89.94
69.05
43.13
15.68
-9.1
-27.42
-37.23
-38.84
-34.72
-28.5
-23.45
-21.59
-23.28
-27.87
-34.49
-42.85
-53.11
-65.33
-78.68
-91.07
-99.5
-101.07
-94.25
-79.61
-59.86
-38.97
-20.84
-8.05
-1.15
1.09
0.9
0.41
1.01
3.04
6.23
10.15
14.6
19.56
24.93
30.24
34.49
36.62
35.89
32.36
26.91
20.87
15.46
11.27
8.06
4.99
1.07
-4.31
-11.15
-18.82
-26.42
-33.17
-38.73
-43.29
-47.59
-52.61
-59.41
-68.71
-80.58
-94.05
-106.99
-116.46
-119.45
-113.87
-99.37
-77.58
-51.67
-25.21
-1.2
18.71
34.23
45.93
54.61
60.88
65
67.18
67.72
67.11
65.96
64.74
63.71
62.84
62
61.03
59.92
58.8
57.88
57.34
57.24
57.43
57.53
57.01
55.31
52.05
47.17
40.96
34.04
27.15
20.85
15.35
10.41
5.45
-0.15
-6.77
-14.39
-22.49
-30.36
-37.35
-43.14
-47.85
-52.03
-56.46
-62.01
-69.41
-79.02
-90.53
-102.67
-113.2
-119.23
-118.07
-108.19
-89.9
-65.44
-38.29
-12.1
10.42
27.96
40.57
49.09
54.6
57.98
59.86
60.73
61.05
61.2
61.41
61.7
61.9
61.82
61.36
60.61
59.82
59.31
59.28
59.68
60.17
60.2
59.3
57.19
53.98
50.03
45.73
41.34
36.85
32.13
27.08
21.8
16.56
11.68
7.32
3.36
-0.57
-4.92
-10
-15.94
-22.48
-29.22
-35.66
-41.46
-46.61
-51.47
-56.72
-63.2
-71.64
-82.27
-94.52
-106.79
-116.58
-121.02
-117.73
-105.66
-85.63
-60.2
-32.9
-7.21
14.4
30.8
42.16
49.35
53.37
55.18
55.48
54.91
54
53.16
52.6
52.34
52.28
52.3
52.39
52.59
52.98
53.58
54.32
55.02
55.47
55.44
54.72
53.18
50.71
47.34
43.18
38.48
33.49
28.43
23.39
18.43
13.55
8.8
4.29
0.1
-3.8
-7.6
-11.64
-16.23
-21.55
-27.48
-33.69
-39.72
-45.23
-50.13
-54.7
-59.54
-65.46
-73.15
-82.95
-94.39
-106.02
-115.49
-120.03
-117.32
-106.33
-87.79
-64.1
-38.65
-14.72
5.32
20.49
31.01
37.79
41.83
43.92
44.53
44.03
42.82
41.35
40.09
39.35
39.23
39.59
40.16
40.72
41.17
41.55
42.01
42.66
43.55
44.49
45.13
45.05
43.81
41.17
37.21
32.34
27.17
22.29
18.04
14.38
10.95
7.22
2.86
-2.19
-7.61
-12.96
-17.92
-22.49
-27
-32
-38.08
-45.67
-55.03
-66.14
-78.67
-91.76
-103.94
-113.29
-117.88
-116.38
-108.69
-96.1
-80.85
-65.49
-51.99
-41.35
-33.64
-28.37
-24.96
-22.97
-22.05
-21.83
-21.82
-21.42
-20.13
-17.71
-14.26
-10.1
-5.67
-1.26
3.11
7.64
12.66
18.27
24.18
29.62
33.54
35.07
33.96
30.69
26.32
22.04
18.56
15.9
13.37
9.99
4.98
-1.97
-10.44
-19.64
-28.52
-36.27
-42.45
-47.12
-50.73
-54.02
-57.82
-62.77
-69.06
-76.14
-82.6
-86.34
-85.15
-77.42
-62.87
-42.85
-19.97
2.68
22.48
37.99
49.07
56.47
61.28
64.37
66.26
67.2
67.38
67.08
66.64
66.3
66.09
65.8
65.15
63.97
62.41
60.88
59.95
59.98
60.87
62
62.41
61.19
57.84
52.47
45.77
38.65
31.89
25.87
20.46
15.15
9.36
2.64
-5.06
-13.45
-21.95
-30.03
-37.34
-43.88
-50.02
-56.42
-63.86
-73.06
-84.29
-96.99
-109.51
-119.2
-123.03
-118.63
-105.25
-84.23
-58.66
-32.35
-8.57
10.79
25.46
36.22
44.2
50.32
55.06
58.65
61.24
63.14
64.69
66.17
67.68
69.16
70.41
71.23
71.58
71.52
71.28
71.08
71.06
71.11
70.83
69.65
66.94
62.33
55.84
48.02
39.73
31.93
25.26
19.81
15.08
10.21
4.31
-3.04
-11.63
-20.71
-29.28
-36.51
-42.15
-46.57
-50.62
-55.33
-61.65
-70.16
-80.84
-92.9
-104.62
-113.58
-117.14
-113.21
-101.08
-81.78
-57.86
-32.69
-9.37
10.01
24.69
35.02
41.96
46.54
49.59
51.69
53.23
54.49
55.66
56.86
58.12
59.37
60.49
61.36
61.9
62.11
62.09
62.01
62.01
62.1
62.03
61.36
59.55
56.2
51.23
45.01
38.21
31.58
25.68
20.68
16.34
12.06
7.2
1.27
-5.81
-13.69
-21.72
-29.21
-35.64
-40.86
-45.11
-48.98
-53.28
-58.87
-66.4
-75.94
-86.73
-96.92
-103.96
-105.22
-98.96
-85.06
-65.15
-42.16
-19.28
0.95
17.18
29.16
37.41
42.63
45.5
46.64
46.64
46.15
45.73
45.69
46.05
46.63
47.22
47.69
48.07
48.49
49.03
49.71
50.5
51.31
51.99
52.3
51.92
50.53
47.86
43.88
38.83
33.11
27.23
21.58
16.39
11.64
7.17
2.69
-2.11
-7.42
-13.19
-19.13
-24.84
-29.94
-34.4
-38.52
-42.89
-48.09
-54.49
-62.2
-70.93
-80.03
-88.38
-94.45
-96.32
-92.02
-80.1
-60.29
-33.87
-3.33
28.4
58.96
86.93
111.76
133
149.76
160.52
163.66
158.4
145.38
126.43
103.6
78.47
51.83
24.2
-3.37
-29.1
-50.28
-64.18
-69.22
-65.86
-56.37
-43.86
-31.26
-20.63
-13.56
-10.55
-11.09
-14.17
-18.98
-24.9
-31.37
-37.84
-43.8
-49.69
-55.53
-60.55
-63.71
-64.72
-64.12
-63.02
-62.71
-64.45
-70.31
-81.12
-95.64
-111.01
-124.04
-131.79
-132.08
-124.03
-101.95
-67.54
-30.26
-0.4
18.14
27.62
32.31
35.44
38.2
40.18
39.52
35.7
30.39
26.27
25.15
27.05
30.48
33.28
33.53
29.55
21.58
11.92
3.83
-0.28
0.47
5.56
13.63
22.71
30.08
33.6
32.04
25.8
16.74
7.92
2.78
3.76
10.91
21.28
30.17
33.13
28.05
15.84
-0.07
-15.26
-25.97
-30.31
-28.54
-21.54
-12.14
-3.13
3.67
7.53
8.57
7.39
4.69
1.2
-2.34
-5.29
-6.75
-5.96
-2.67
2.6
8.64
13.83
16.71
16.44
12.96
7.29
1.09
-3.86
-6.23
-5.26
-1.11
5.18
12.03
17.74
21.16
22.22
21.7
20.9
20.99
22.4
24.91
27.81
30.49
32.78
35.09
38
41.9
46.77
52.04
56.96
61
64.17
66.74
69.47
72.84
76.86
80.95
84.09
85.43
84.73
82.41
78.29
74.6
72.91
74
77.56
82.29
86.51
88.48
86.61
78.07
61.95
39.12
11.56
-18.86
-50.95
-84.08
-117.96
-152.32
-189.32
-228.53
-267
-300.89
-327.37
-345.86
-357.68
-365.27
-370.75
-377.88
-385.1
-386.28
-374.69
-346.97
-305.29
-255.95
-206.44
-141.05
-61.52
18.5
85.42
134.6
168.5
190.32
202.73
207.98
209.04
205.95
201.31
199.3
203.61
216.66
238.48
267.38
299.91
331.35
353.79
362.48
357.52
336.74
303.68
264.13
224.16
187.86
156.82
128.95
102.51
77.08
52.91
30.5
8.7
-14.67
-42.55
-75.68
-112.52
-148.28
-176.49
-191.74
-191.19
-176.24
-151.77
-125.73
-104.06
-89.36
-81.13
-77.87
-78.65
-83.63
-93.77
-109.78
-133.92
-165.37
-200.67
-236
-269.09
-298.8
-324.53
-344.89
-357.88
-365
-365.88
-358.48
-340.8
-312.81
-276.24
-234.73
-192.08
-131.65
-55.29
21.65
83.39
124.81
147.93
162.56
174.55
187.46
203.95
220.92
236.58
250.43
261.62
267.93
267.1
257.68
240.83
219.64
195.09
169.64
146.62
128.79
117.03
110.62
107.17
104
98.43
86.85
68.58
46.36
25.14
9.97
4.41
9.05
22.02
39.59
56.81
70.21
78.62
82.58
83.35
82.19
79.97
77.42
75.09
72.96
70.86
68.49
65.44
61.38
56.19
50.01
43.12
35.69
27.77
19.51
11.44
4.45
-0.33
-2.09
-0.7
3.14
8.28
13.62
18.51
22.76
26.24
28.42
28.31
24.63
16.63
4.54
-10.17
-25.25
-38.44
-48.27
-54.44
-57.71
-59.37
-60.75
-62.91
-66.62
-72.51
-81.11
-92.82
-107.65
-124.92
-143.14
-159.92
-172.3
-177.38
-173.04
-158.7
-135.7
-107.02
-76.62
-48.29
-24.77
-7.14
5.03
13.16
18.9
23.55
27.83
31.91
35.7
39.09
42.08
44.82
47.54
50.41
53.5
56.78
60.15
63.51
66.83
70.09
73.19
75.9
77.88
78.79
78.43
76.88
74.44
71.49
68.3
65.01
61.59
57.97
54.03
49.54
44.19
37.6
29.53
20.03
9.55
-1.24
-11.71
-21.54
-30.69
-39.39
-47.77
-55.92
-63.84
-71.62
-79.3
-86.71
-93.06
-96.96
-96.68
-90.86
-79.19
-62.78
-43.95
-25.35
-9.18
3.5
12.79
19.55
24.79
29.15
32.84
35.65
37.37
37.91
37.4
36.06
34.1
31.59
28.49
24.82
20.66
16.3
12.14
8.65
6.1
4.53
3.67
3.07
2.17
0.53
-2.1
-5.63
-9.72
-13.83
-17.47
-20.34
-22.44
-24
-25.37
-26.72
-28.04
-29.13
-29.75
-29.81
-29.46
-28.97
-28.61
-28.55
-28.8
-29.38
-30.3
-31.63
-33.38
-35.38
-37.17
-38.12
-37.64
-35.32
-31.23
-25.8
-19.72
-13.64
-8.05
-3.13
1.05
4.52
7.19
8.95
9.76
9.77
9.3
8.77
8.46
8.44
8.54
8.52
8.21
7.63
6.91
6.28
5.88
5.71
5.59
5.3
4.64
3.51
2
0.3
-1.4
-2.92
-4.22
-5.39
-6.58
-7.96
-9.66
-11.61
-13.68
-15.59
-17.06
-17.95
-18.34
-18.6
-19.28
-20.9
-23.65
-27.17
-30.55
-32.53
-31.94
-28.21
-21.61
-13.15
-4.22
4.07
11.22
17.57
24.06
31.79
41.45
52.95
65.22
76.58
85.12
89.39
88.86
84.12
76.77
69.03
63.03
60.22
60.79
63.63
66.57
67.22
63.76
55.62
43.53
29.05
13.68
-1.9
-17.99
-35.41
-54.69
-75.37
-96.04
-115.02
-131.11
-144.11
-154.58
-163.12
-169.61
-173.04
-171.98
-165.47
-153.77
-138.6
-122.64
-108.63
-98.49
-92.77
-90.64
-90.31
-89.58
-86.63
-80.61
-72.01
-62.38
-53.68
-47.26
-43.04
-39.48
-34.34
-26
-14.59
-2.24
7.77
12.58
10.96
3.77
-6.72
-18.06
-28.88
-39.25
-50.49
-64.41
-82.71
-106.39
-135.28
-167.57
-199.67
-226.76
-244.03
-248.28
-239.22
-219.49
-193.54
-165.78
-139.16
-114.58
-91.43
-68.65
-45.5
-21.59
3.45
30.13
58.73
88.6
117.75
143.35
162.77
174.86
180.4
181.48
180.32
178.16
175.04
170.54
164.68
158.52
153.7
151.58
152.3
154.64
156.71
156.93
154.7
150.38
144.88
139.09
133.35
127.49
121.04
113.61
105.14
96.02
86.96
78.64
71.47
65.41
60.06
55.01
50.11
45.59
41.97
39.65
38.63
38.42
38.21
37.2
34.97
31.61
27.57
23.46
19.74
16.63
14.1
11.91
9.7
7.04
3.51
-1.2
-7.19
-14.19
-21.61
-28.78
-35.16
-40.71
-45.85
-51.33
-57.93
-66.01
-75.25
-84.65
-92.65
-97.56
-98
-93.34
-83.93
-71.01
-56.34
-41.7
-28.38
-17.01
-7.57
0.31
7.04
12.86
17.81
21.83
24.88
27.03
28.53
29.72
30.91
32.26
33.72
35.12
36.28
37.06
37.55
37.92
38.29
38.62
38.62
37.87
35.97
32.78
28.46
23.54
18.64
14.32
10.85
8.12
5.75
3.27
0.32
-3.22
-7.22
-11.39
-15.44
-19.23
-22.79
-26.38
-30.37
-35.28
-41.59
-49.51
-58.73
-68.22
-76.24
-80.75
-80.04
-73.38
-61.44
-46.07
-29.72
-14.64
-2.21
7.2
14.08
19.22
23.34
26.79
29.65
31.91
33.56
34.76
35.7
36.55
37.38
38.17
38.84
39.31
39.59
39.73
39.9
40.19
40.61
40.98
40.95
40.03
37.79
34.04
28.97
23.16
17.33
12.06
7.49
3.26
-1.29
-6.69
-13.04
-19.88
-26.34
-31.63
-35.41
-37.91
-39.91
-42.35
-46.06
-51.48
-58.71
-67.22
-75.95
-83.24
-87.13
-85.9
-78.7
-65.95
-49.32
-31.21
-13.9
1.03
13.05
22.43
29.83
35.89
41.02
45.45
49.25
52.56
55.48
58.06
60.26
61.98
63.03
63.28
62.75
61.68
60.45
59.44
58.87
58.69
58.51
57.85
56.27
53.59
49.9
45.6
41.13
36.95
33.41
30.68
28.72
27.19
25.54
23.13
19.52
14.67
8.99
3.13
-2.31
-7.11
-11.57
-16.36
-22.24
-29.79
-39.14
-49.99
-61.52
-72.46
-81.11
-85.64
-84.62
-77.52
-65.11
-49.34
-32.73
-17.67
-5.65
2.95
8.6
12.17
14.46
16
17.08
17.9
18.65
19.51
20.56
21.66
22.57
23.01
22.94
22.51
22.12
22.17
22.9
24.29
26.04
27.75
28.98
29.43
28.96
27.59
25.47
22.84
20.02
17.29
14.84
12.66
10.53
8.09
4.97
0.99
-3.71
-8.66
-13.25
-16.99
-19.81
-22.06
-24.47
-27.81
-32.7
-39.41
-47.84
-57.44
-67.08
-75.15
-79.66
-78.89
-71.94
-59.27
-42.66
-24.69
-7.91
5.98
16.35
23.53
28.26
31.27
33.07
34.05
34.59
35.01
35.58
36.34
37.07
37.43
37.2
36.36
35.14
33.86
32.81
32.1
31.69
31.38
30.94
30.09
28.55
26.07
22.54
18.03
12.84
7.45
2.36
-2.02
-5.49
-8.19
-10.5
-12.89
-15.75
-19.21
-23.06
-26.82
-29.99
-32.26
-33.7
-34.8
-36.21
-38.66
-42.67
-48.52
-56.03
-64.45
-72.34
-77.68
-78.34
-72.72
-60.5
-42.89
-22.36
-1.88
16
29.93
39.79
46.42
50.92
54.18
56.63
58.35
59.33
59.61
59.4
58.97
58.53
58.11
57.53
56.56
55
52.82
50.23
47.57
45.08
42.77
40.34
37.29
33.23
28.04
22.03
15.82
10.08
5.24
1.38
-1.77
-4.68
-7.71
-10.97
-14.23
-16.99
-18.76
-19.29
-18.67
-17.32
-15.84
-14.76
-14.44
-15.01
-16.3
-17.82
-18.69
-17.67
-13.54
-5.57
5.94
19.46
32.63
43.04
49.11
50.54
48.27
43.86
38.79
34.05
30.03
26.8
24.32
22.49
21.11
19.73
17.78
14.76
10.58
5.57
0.44
-4.07
-7.53
-9.97
-11.79
-13.54
-15.66
-18.3
-21.29
-24.27
-26.84
-28.7
-29.75
-30.05
-29.88
-29.57
-29.47
-29.78
-30.48
-31.36
-32.11
-32.44
-32.28
-31.76
-31.08
-30.49
-30.18
-30.22
-30.61
-31.35
-32.36
-33.49
-34.47
-34.93
-34.53
-33.07
-30.68
-27.75
-24.82
-22.36
-20.59
-19.44
-18.63
-17.85
-16.85
-15.56
-14
-12.33
-10.68
-9.2
-8
-7.09
-6.42
-5.8
-5.02
-3.91
-2.51
-1.03
0.21
0.92
0.98
0.47
-0.36
-1.31
-2.28
-3.32
-4.54
-6
-7.68
-9.45
-11.16
-12.7
-14.07
-15.36
-16.72
-18.33
-20.25
-22.43
-24.75
-27.17
-29.81
-33.03
-37.28
-42.9
-49.92
-57.93
-66.23
-73.94
-80.2
-84.24
-85.28
-82.59
-75.61
-64.24
-49.13
-31.71
-13.91
2.35
15.67
25.49
32.01
35.96
38.11
38.96
38.63
36.94
33.68
28.93
23.12
17.03
11.58
7.45
4.92
3.8
3.54
3.55
3.42
3.09
2.69
2.47
2.53
2.81
3.16
3.52
4.04
5.12
7.24
10.67
15.35
20.79
26.2
30.79
33.94
35.33
34.91
32.84
29.34
24.71
19.27
13.42
7.63
2.37
-1.92
-4.89
-6.12
-5.14
-1.41
5.43
15.35
27.67
41.06
53.89
64.66
72.41
76.92
78.56
77.94
75.59
71.89
67.07
61.39
55.3
49.27
43.67
38.68
34.3
30.36
26.71
23.25
19.83
16.34
12.63
8.62
4.34
-0.02
-4.2
-7.96
-11.16
-13.79
-15.88
-17.55
-18.91
-20.15
-21.51
-23.15
-25.16
-27.36
-29.43
-31.01
-31.84
-31.92
-31.51
-31.03
-30.9
-31.39
-32.48
-34
-35.49
-36.36
-36.04
-34.13
-30.6
-25.9
-20.78
-15.99
-12.08
-9.09
-6.74
-4.61
-2.4
-0.12
1.95
3.41
4.05
3.89
3.23
2.55
2.25
2.51
3.24
4.11
4.75
4.96
4.73
4.3
3.94
3.76
3.64
3.3
2.49
1.15
-0.5
-2.1
-3.3
-3.96
-4.22
-4.38
-4.78
-5.58
-6.76
-8.11
-9.42
-10.53
-11.51
-12.49
-13.7
-15.3
-17.31
-19.7
-22.34
-25.01
-27.35
-28.85
-28.93
-27.12
-23.3
-17.86
-11.59
-5.54
-0.56
2.94
5.06
6.28
7.15
8.07
9.14
10.2
10.99
11.32
11.19
10.76
10.27
9.9
9.68
9.53
9.36
9.11
8.89
8.86
9.1
9.57
10.08
10.38
10.25
9.64
8.59
7.25
5.8
4.43
3.28
2.49
2.08
1.92
1.8
1.42
0.57
-0.74
-2.33
-3.9
-5.13
-5.92
-6.39
-6.87
-7.78
-9.47
-12.01
-15.15
-18.28
-20.62
-21.44
-20.28
-17.22
-12.8
-7.87
-3.21
0.7
3.75
6.2
8.32
10.27
12.04
13.5
14.55
15.22
15.64
15.98
16.38
16.84
17.28
17.59
17.61
17.24
16.38
15
13.13
10.81
7.98
4.43
-0.26
-6.7
-15.53
-27.18
-41.66
-58.39
-76.15
-93.38
-108.35
-119.67
-126.64
-129.39
-128.84
-126.3
-123.07
-120.01
-117.41
-115.07
-112.67
-110.04
-107.54
-106.03
-106.69
-110.49
-117.72
-127.45
-137.47
-144.69
-145.99
-139.22
-123.98
-101.8
-75.64
-48.96
-24.74
-4.76
10.54
21.88
30.64
38.35
46.25
55.03
64.71
74.7
84.14
92.18
98.29
102.31
104.48
105.18
104.99
104.53
104.41
105.07
106.52
108.26
109.35
108.73
105.77
100.54
93.84
86.81
80.48
75.27
70.89
66.63
61.72
55.67
48.48
40.56
32.45
24.62
17.23
10.07
2.65
-5.66
-15.5
-27.21
-40.57
-54.58
-67.35
-76.49
-79.63
-75.27
-63.35
-45.44
-24.3
-3.04
15.84
31.1
42.78
51.81
59.24
65.7
71.19
75.25
77.41
77.54
76.06
73.81
71.68
70.25
69.62
69.45
69.28
68.83
68.18
67.63
67.46
67.65
67.8
67.28
65.49
62.16
57.4
51.65
45.48
39.43
33.87
28.87
24.23
19.59
14.6
9.14
3.35
-2.34
-7.34
-11.07
-13.01
-12.69
-9.69
-3.65
5.53
17.45
31.08
44.95
57.55
67.84
75.55
81.02
84.87
87.39
88.33
87.03
82.79
75.43
65.56
54.48
43.64
34.18
26.56
20.55
15.61
11.25
7.33
4.06
1.75
0.53
0.15
-0
-0.59
-2.05
-4.28
-6.76
-8.77
-9.75
-9.58
-8.71
-7.85
-7.65
-8.36
-9.77
-11.32
-12.59
-13.43
-14.12
-15.16
-17.09
-20.28
-24.95
-31.29
-39.49
-49.74
-61.96
-75.67
-89.86
-103.21
-114.39
-122.5
-127.33
-129.44
-129.82
-129.4
-128.61
-127.04
-123.63
-117.05
-106.13
-90.12
-68.72
-42.12
-11.16
22.37
55.6
84.9
106.74
118.88
121.14
115.54
105.42
94.2
84.22
76.18
69.47
62.76
54.88
45.34
34.52
23.51
13.7
6.32
2.06
0.92
2.29
5.17
8.41
10.92
11.71
10.04
5.63
-1.21
-9.52
-18.01
-25.41
-30.84
-34.13
-35.63
-36.1
-36.32
-36.97
-38.51
-41.24
-45.25
-50.37
-56.24
-62.33
-68.12
-73.31
-77.8
-81.56
-84.35
-85.53
-84.26
-79.85
-72.27
-62.42
-51.8
-42.04
-34.16
-28.23
-23.58
-19.38
-15.17
-11.15
-7.96
-6.28
-6.32
-7.76
-9.88
-11.91
-13.27
-13.65
-12.96
-11.18
-8.33
-4.42
0.4
5.82
11.34
16.33
20.17
22.45
23.15
22.61
21.39
20.04
18.76
17.33
15.15
11.57
6.22
-0.78
-8.77
-16.85
-24.18
-30.31
-35.26
-39.46
-43.54
-48.16
-53.87
-60.9
-68.99
-77.18
-83.81
-86.78
-84.16
-74.86
-59.06
-38.34
-15.15
7.85
28.54
45.62
58.73
68.12
74.38
78.27
80.61
82.42
84.91
89.28
96.3
105.99
117.33
128.43
137.15
141.7
141.26
136.19
127.69
117.24
106.02
94.59
82.9
70.64
57.58
43.88
30.07
16.89
4.93
-5.64
-15.13
-24.16
-33.33
-42.92
-52.68
-62.06
-70.41
-77.34
-82.82
-87.18
-90.97
-94.82
-99.41
-105.3
-112.86
-121.94
-131.64
-140.21
-145.3
-144.53
-136.24
-120.2
-97.82
-71.84
-45.55
-21.81
-2.31
12.7
24.13
33.42
41.85
50.09
58.1
65.35
71.17
75.07
76.91
76.9
75.46
73.05
70.11
66.94
63.76
60.72
57.94
55.52
53.47
51.64
49.67
47.08
43.39
38.36
32.15
25.32
18.65
12.79
8
3.92
-0.26
-5.4
-12.04
-20.08
-28.81
-37.22
-44.48
-50.21
-54.68
-58.59
-62.85
-68.28
-75.45
-84.52
-94.94
-105.31
-113.34
-116.37
-112.15
-99.8
-80.33
-56.37
-31.44
-8.67
9.98
24
34.06
41.26
46.66
50.93
54.45
57.32
59.63
61.39
62.63
63.39
63.71
63.64
63.15
62.24
60.97
59.54
58.26
57.5
57.42
57.84
58.25
57.97
56.37
53.21
48.62
43.08
37.17
31.43
26.18
21.43
16.92
12.24
7
0.96
-5.87
-13.17
-20.44
-27.11
-32.8
-37.48
-41.5
-45.6
-50.68
-57.62
-66.95
-78.47
-90.93
-102.06
-108.96
-108.9
-100.32
-83.47
-60.45
-34.6
-9.55
11.93
28.42
39.93
47.43
52.16
55.22
57.31
58.77
59.73
60.23
60.31
60.04
59.45
58.54
57.28
55.66
53.74
51.69
49.8
48.34
47.5
47.16
47.01
46.49
45.07
42.38
38.39
33.4
27.96
22.61
17.68
13.14
8.64
3.65
-2.23
-9.09
-16.53
-23.86
-30.41
-35.79
-40.12
-44.01
-48.36
-54.03
-61.67
-71.4
-82.7
-94.19
-103.8
-109.15
-108.18
-99.96
-85.06
-65.47
-43.93
-23.07
-4.72
10.3
22.11
31.47
39.54
47.75
57.46
69.62
84.26
100.62
117.38
133.23
147.3
159.01
167.82
172.89
173.28
168.55
159.26
147.11
134.24
122.29
111.72
101.8
91.37
79.72
67.2
54.97
44.28
35.8
29.17
23.36
17.19
9.97
1.74
-6.87
-15.05
-22.2
-28.08
-32.88
-36.96
-40.72
-44.46
-48.27
-52.1
-55.77
-59.07
-61.69
-63.36
-63.85
-63.01
-60.83
-57.47
-53.29
-48.74
-44.34
-40.45
-37.28
-34.87
-33.14
-31.97
-31.21
-30.73
-30.34
-29.84
-29.04
-27.84
-26.23
-24.28
-22.1
-19.71
-17.14
-14.41
-11.67
-9.16
-7.2
-6.02
-5.64
-5.92
-6.58
-7.38
-8.16
-8.88
-9.57
-10.25
-10.9
-11.53
-12.19
-12.98
-13.96
-15.06
-16.13
-16.92
-17.25
-17.19
-16.95
-16.91
-17.31
-18.21
-19.4
-20.59
-21.57
-22.25
-22.7
-22.99
-23.07
-22.67
-21.49
-19.31
-16.21
-12.59
-8.97
-5.88
-3.59
-2.11
-1.24
-0.76
-0.54
-0.52
-0.71
-1.1
-1.56
-1.92
-1.98
-1.62
-0.9
0.04
0.93
1.5
1.61
1.26
0.63
-0.06
-0.66
-1.12
-1.56
-2.13
-2.97
-4.01
-5.05
-5.86
-6.33
-6.52
-6.75
-7.36
-8.62
-10.5
-12.73
-14.86
-16.43
-17.17
-17.07
-16.43
-15.64
-15.15
-15.24
-16.05
-17.58
-19.73
-22.27
-24.89
-27.06
-28.15
-27.62
-25.2
-21.13
-16.08
-10.93
-6.48
-3.17
-1
0.34
1.18
1.77
2.11
2.17
1.89
1.37
0.81
0.47
0.52
0.96
1.63
2.27
2.67
2.78
2.72
2.74
3.07
3.82
4.84
5.86
6.59
6.84
6.6
6.05
5.38
4.73
4.04
3.11
1.79
0.02
-2.02
-4
-5.62
-6.76
-7.55
-8.3
-9.33
-10.78
-12.65
-14.8
-17.04
-19.22
-21.17
-22.6
-23.18
-22.63
-20.85
-17.96
-14.34
-10.39
-6.51
-2.94
0.16
2.73
4.75
6.29
7.43
8.28
8.87
9.14
9.04
8.57
7.9
7.28
6.96
7.05
7.45
7.95
8.36
8.64
8.84
9.07
9.37
9.61
9.59
9.1
8.09
6.64
5.02
3.5
2.29
1.42
0.8
0.25
-0.37
-1.13
-2.02
-3
-4.11
-5.41
-7.02
-8.98
-11.24
-13.63
-15.97
-18.14
-20.13
-21.97
-23.63
-24.9
-25.36
-24.55
-22.18
-18.35
-13.57
-8.6
-4.15
-0.58
2.07
4.06
5.63
6.94
7.97
8.7
9.19
9.6
10.09
10.69
11.28
11.69
11.86
11.88
11.92
12.09
12.33
12.44
12.19
11.51
10.54
9.57
8.82
8.34
8.04
7.68
7.16
6.45
5.66
4.88
4.12
3.3
2.29
1.02
-0.56
-2.38
-4.29
-6.13
-7.76
-9.07
-10.03
-10.73
-11.3
-11.92
-12.74
-13.89
-15.44
-17.43
-19.77
-22.2
-24.22
-25.2
-24.56
-22
-17.73
-12.37
-6.86
-2
1.74
4.3
5.95
7.03
7.81
8.34
8.62
8.68
8.69
8.85
9.31
10.04
10.82
11.38
11.51
11.21
10.64
10.03
9.61
9.46
9.57
9.81
10.09
10.31
10.38
10.21
9.68
8.74
7.39
5.76
3.99
2.25
0.65
-0.77
-2.04
-3.18
-4.26
-5.32
-6.43
-7.62
-8.89
-10.15
-11.35
-12.42
-13.41
-14.51
-15.93
-17.81
-20.06
-22.28
-23.88
-24.26
-23.11
-20.53
-16.96
-12.97
-9.07
-5.5
-2.31
0.56
3.08
5.18
6.79
7.94
8.85
9.7
10.6
11.43
12.03
12.24
12.1
11.84
11.67
11.7
11.84
11.91
11.77
11.46
11.14
10.98
11.05
11.2
11.22
10.89
10.12
9
7.65
6.27
4.99
3.92
3.13
2.61
2.3
2.06
1.78
1.34
0.71
-0.08
-0.99
-2.05
-3.32
-4.89
-6.83
-9.11
-11.63
-14.22
-16.62
-18.53
-19.63
-19.62
-18.36
-15.88
-12.41
-8.37
-4.24
-0.53
2.42
4.47
5.7
6.34
6.72
7.06
7.45
7.8
7.95
7.83
7.47
7.08
6.87
7.05
7.63
8.53
9.57
10.57
11.4
11.97
12.29
12.35
12.18
11.74
11.01
10.01
8.77
7.43
6.07
4.8
3.63
2.49
1.28
-0.12
-1.73
-3.51
-5.26
-6.85
-8.11
-9.02
-9.7
-10.36
-11.19
-12.35
-13.86
-15.69
-17.79
-19.96
-21.91
-23.13
-23.1
-21.47
-18.28
-14.06
-9.58
-5.58
-2.44
-0.09
1.8
3.55
5.33
7.05
8.55
9.74
10.62
11.27
11.71
11.95
12.01
11.95
11.95
12.11
12.4
12.63
12.58
12.15
11.51
10.95
10.76
10.97
11.28
11.26
10.58
9.15
7.25
5.22
3.37
1.71
0.12
-1.6
-3.49
-5.38
-6.94
-7.93
-8.24
-8.04
-7.63
-7.37
-7.54
-8.28
-9.56
-11.22
-13.12
-15.12
-17.12
-19.06
-20.74
-21.94
-22.23
-21.29
-18.93
-15.31
-10.88
-6.28
-2.15
1.12
3.44
4.93
5.78
6.13
6.12
5.87
5.56
5.44
5.67
6.18
6.8
7.27
7.46
7.47
7.53
7.86
8.52
9.4
10.23
10.78
10.98
10.86
10.55
10.19
9.79
9.3
8.6
7.61
6.29
4.72
3.08
1.54
0.21
-0.97
-2.1
-3.38
-4.81
-6.3
-7.64
-8.61
-9.11
-9.2
-9.1
-9.11
-9.55
-10.62
-12.42
-14.81
-17.38
-19.51
-20.5
-19.86
-17.48
-13.72
-9.26
-4.92
-1.27
1.45
3.33
4.7
5.88
7.01
8.12
9.07
9.73
10.06
10.19
10.32
10.64
11.24
11.98
12.67
13.13
13.3
13.28
13.25
13.36
13.61
13.85
13.83
13.34
12.31
10.82
9.16
7.6
6.42
5.65
5.14
4.57
3.67
2.32
0.64
-1.08
-2.55
-3.69
-4.58
-5.48
-6.59
-7.95
-9.56
-11.34
-13.35
-15.67
-18.23
-20.73
-22.54
-23.03
-21.7
-18.57
-14.11
-9.12
-4.4
-0.45
2.66
5.2
7.52
9.86
12.18
14.2
15.59
16.13
15.91
15.25
14.54
14.05
13.79
13.57
13.16
12.5
11.69
10.94
10.39
10
9.59
9.04
8.28
7.42
6.63
5.96
5.3
4.5
3.4
2
0.4
-1.29
-2.99
-4.68
-6.38
-8.05
-9.67
-11.19
-12.61
-13.99
-15.41
-16.96
-18.66
-20.57
-22.62
-24.65
-26.35
-27.24
-26.82
-24.75
-21.08
-16.22
-10.93
-5.97
-1.87
1.17
3.31
4.83
6.03
7.09
8.07
8.9
9.53
9.95
10.17
10.27
10.33
10.4
10.47
10.53
10.52
10.49
10.58
10.91
11.52
12.26
12.76
12.65
11.71
10.03
7.93
5.92
4.3
3.15
2.34
1.63
0.87
0.03
-0.76
-1.43
-1.98
-2.55
-3.29
-4.32
-5.68
-7.32
-9.18
-11.22
-13.5
-16.05
-18.9
-21.91
-24.8
-27.17
-28.55
-28.53
-26.94
-23.89
-19.69
-14.91
-10.1
-5.7
-1.95
1.14
3.68
5.85
7.75
9.38
10.68
11.58
12.04
12.12
12
11.88
11.96
12.29
12.87
13.58
14.33
15
15.49
15.78
15.85
15.7
15.42
15.07
14.68
14.22
13.55
12.48
10.85
8.67
6.13
3.58
1.37
-0.41
-1.83
-3.15
-4.58
-6.18
-7.83
-9.3
-10.39
-11.07
-11.44
-11.8
-12.42
-13.61
-15.49
-18.02
-20.93
-23.69
-25.6
-26.06
-24.64
-21.32
-16.51
-10.86
-5.1
0.15
4.48
7.72
9.87
11.08
11.56
11.61
11.53
11.58
11.84
12.27
12.67
12.83
12.66
12.25
11.74
11.34
11.14
11.11
11.16
11.17
11.07
10.88
10.59
10.17
9.57
8.79
7.86
6.95
6.23
5.74
5.4
4.96
4.23
3.14
1.8
0.43
-0.84
-2.03
-3.32
-4.89
-6.85
-9.11
-11.47
-13.77
-15.92
-17.93
-19.73
-21.15
-21.78
-21.28
-19.41
-16.23
-12.12
-7.63
-3.29
0.49
3.5
5.8
7.51
8.85
10.02
11.17
12.33
13.4
14.17
14.44
14.2
13.55
12.74
12.04
11.57
11.38
11.36
11.38
11.36
11.29
11.17
10.94
10.5
9.74
8.7
7.42
6.02
4.6
3.18
1.73
0.29
-1.08
-2.31
-3.34
-4.31
-5.38
-6.72
-8.31
-9.96
-11.39
-12.42
-13.17
-14.02
-15.44
-17.69
-20.67
-23.83
-26.41
-27.66
-27.07
-24.54
-20.33
-14.99
-9.18
-3.55
1.38
5.33
8.22
10.19
11.48
12.37
13.08
13.7
14.25
14.68
14.93
14.94
14.72
14.29
13.77
13.32
13.13
13.35
13.98
14.95
15.97
16.77
17.06
16.7
15.65
13.97
11.81
9.41
7.05
5.04
3.53
2.52
1.8
1.04
-0.06
-1.69
-3.79
-6.17
-8.51
-10.55
-12.16
-13.29
-14.07
-14.66
-15.27
-16.05
-17.14
-18.58
-20.37
-22.38
-24.48
-26.3
-27.41
-27.34
-25.71
-22.45
-17.78
-12.22
-6.39
-0.83
4.05
8.03
11.01
13.02
14.11
14.43
14.21
13.72
13.21
12.82
12.65
12.68
12.87
13.12
13.36
13.54
13.6
13.53
13.31
13.02
12.72
12.5
12.38
12.29
12.09
11.65
10.97
10.08
9.13
8.1
6.91
5.44
3.61
1.52
-0.6
-2.44
-3.8
-4.7
-5.34
-5.99
-6.86
-8.06
-9.57
-11.32
-13.24
-15.34
-17.68
-20.37
-23.4
-26.64
-29.65
-31.75
-32.19
-30.46
-26.53
-20.88
-14.38
-7.98
-2.36
2.18
5.7
8.38
10.36
11.69
12.37
12.52
12.35
12.16
12.13
12.23
12.24
11.95
11.28
10.44
9.81
9.72
10.24
11.18
12.14
12.77
12.95
12.78
12.47
12.17
11.91
11.58
11.09
10.42
9.58
8.6
7.45
6.07
4.46
2.71
1.02
-0.38
-1.37
-1.97
-2.27
-2.43
-2.58
-2.82
-3.22
-3.9
-4.96
-6.52
-8.59
-11.16
-14.08
-17.01
-19.41
-20.68
-20.26
-17.87
-13.71
-8.42
-2.89
2.06
5.88
8.46
9.91
10.58
10.7
10.45
9.93
9.21
8.42
7.72
7.28
7.18
7.44
7.96
8.59
9.16
9.51
9.53
9.23
8.7
8.11
7.62
7.27
6.95
6.44
5.53
4.16
2.49
0.81
-0.66
-1.8
-2.77
-3.84
-5.18
-6.86
-8.69
-10.46
-12
-13.25
-14.3
-15.27
-16.23
-17.23
-18.33
-19.63
-21.18
-22.98
-24.83
-26.29
-26.79
-25.83
-23.19
-19.07
-14.04
-8.83
-4.08
-0.16
2.92
5.35
7.39
9.21
10.84
12.26
13.35
14.11
14.54
14.72
14.81
14.93
15.25
15.76
16.36
16.82
16.92
16.55
15.8
14.91
14.1
13.48
12.97
12.36
11.51
10.39
9.1
7.78
6.48
5.11
3.59
1.87
0.07
-1.61
-2.95
-3.91
-4.59
-5.22
-6.02
-7.13
-8.49
-9.95
-11.37
-12.68
-13.96
-15.33
-17.01
-19.13
-21.69
-24.51
-27.18
-29.19
-29.95
-29
-26.18
-21.64
-15.88
-9.66
-3.72
1.37
5.34
8.25
10.32
11.86
13.02
13.87
14.42
14.74
14.98
15.31
15.79
16.24
16.39
15.94
14.86
13.34
11.74
10.42
9.53
8.98
8.57
8.14
7.6
7.02
6.46
5.97
5.49
4.95
4.23
3.28
2.12
0.83
-0.49
-1.72
-2.83
-3.82
-4.82
-5.94
-7.25
-8.67
-10.05
-11.24
-12.24
-13.21
-14.46
-16.25
-18.65
-21.48
-24.3
-26.61
-27.92
-27.9
-26.38
-23.49
-19.55
-14.98
-10.22
-5.63
-1.44
2.21
5.28
7.71
9.52
10.73
11.44
11.84
12.09
12.26
12.36
12.34
12.18
11.95
11.77
11.77
12.04
12.61
13.4
14.37
15.41
16.43
17.31
17.87
17.93
17.36
16.17
14.47
12.46
10.42
8.53
6.84
5.33
3.87
2.38
0.79
-0.87
-2.52
-4.1
-5.62
-7.09
-8.6
-10.15
-11.77
-13.46
-15.25
-17.22
-19.35
-21.51
-23.3
-24.19
-23.74
-21.74
-18.29
-13.83
-8.91
-4.12
0.14
3.61
6.26
8.15
9.43
10.26
10.77
11.05
11.15
11.12
11.02
10.9
10.82
10.74
10.57
10.27
9.83
9.42
9.18
9.24
9.56
10
10.33
10.36
9.91
8.91
7.44
5.64
3.8
2.17
0.96
0.15
-0.46
-1.18
-2.28
-3.82
-5.65
-7.46
-8.99
-10.14
-10.99
-11.72
-12.56
-13.69
-15.26
-17.41
-20.12
-23.14
-25.96
-27.86
-28.12
-26.31
-22.47
-17.11
-11.04
-5.06
0.19
4.45
7.65
9.91
11.35
12.1
12.35
12.3
12.2
12.25
12.54
13.01
13.45
13.65
13.52
13.09
12.54
12.09
11.91
12.02
12.31
12.58
12.63
12.32
11.63
10.6
9.32
7.87
6.35
4.84
3.44
2.17
1.08
0.16
-0.6
-1.26
-1.89
-2.62
-3.55
-4.85
-6.65
-9.03
-11.99
-15.38
-19.02
-22.66
-26.07
-28.99
-31.09
-32.07
-31.67
-29.76
-26.41
-21.95
-16.86
-11.7
-6.9
-2.78
0.54
3.16
5.22
6.99
8.63
10.21
11.72
13.06
14.09
14.74
14.98
14.82
14.34
13.66
12.93
12.35
12.04
12.08
12.43
12.96
13.43
13.59
13.28
12.4
10.94
8.99
6.69
4.25
1.96
0.03
-1.37
-2.29
-3.01
-3.82
-4.92
-6.25
-7.57
-8.57
-9.14
-9.44
-9.82
-10.62
-12.03
-14.01
-16.35
-18.94
-21.64
-24.35
-26.76
-28.39
-28.68
-27.31
-24.38
-20.43
-16.25
-12.49
-9.52
-7.36
-5.8
-4.71
-4.1
-4.24
-5.58
-8.56
-13.31
-19.66
-26.99
-34.47
-41.42
-47.6
-53.35
-59.33
-65.86
-72.54
-78.12
-80.92
-79.63
-74.01
-65.12
-54.93
-45.56
-38.41
-33.76
-30.98
-29.01
-27
-24.78
-22.73
-21.55
-21.8
-23.65
-26.76
-30.48
-34.01
-36.69
-38.25
-38.85
-39.07
-39.92
-42.54
-47.97
-56.73
-68.46
-81.67
-93.76
-101.57
-102.22
-94.28
-78.41
-57.28
-34.72
-14.29
1.87
13.43
21.4
27.12
31.49
34.62
36.15
35.82
33.83
30.8
27.56
24.75
22.68
21.34
20.51
19.96
19.64
19.9
21.45
25.18
31.61
40.46
50.23
58.31
61.44
56.62
41.9
16.91
-16.89
-56.4
-97.21
-134.33
-163.11
-180.27
-184.93
-178.73
-165.26
-148.88
-133.28
-120.37
-110.23
-101.5
-92.29
-80.95
-66.72
-50.05
-32.61
-16.86
-5.17
1.32
3.52
4.4
7.81
16.96
33.03
54.8
79.52
104.16
126.54
145.52
160.48
170.67
175.09
172.9
164.24
150.68
134.97
120.22
108.76
101.37
97.17
94.29
90.72
85.23
77.6
68.52
59.03
49.98
41.76
34.19
26.77
18.95
10.3
0.7
-9.73
-20.62
-31.51
-42.04
-52.16
-62.22
-73
-85.41
-100.25
-117.83
-137.88
-159.63
-181.93
-203.35
-222.18
-236.41
-243.77
-242.17
-230.24
-207.88
-176.53
-138.78
-97.53
-55.17
-12.9
29.26
72.06
116.41
163.04
212.24
263.75
316.47
368.28
416.15
456.76
487.46
507.21
516.89
518.67
514.86
506.92
495.15
479.22
459.17
435.97
411.44
387.39
364.63
342.6
319.62
293.84
264.08
230.35
193.8
156.25
119.53
84.92
52.93
23.29
-4.83
-32.39
-60.09
-87.96
-115.45
-141.6
-165.48
-186.56
-204.87
-220.81
-234.84
-247.07
-257.27
-265.03
-270.14
-272.8
-273.58
-273.01
-271.25
-267.66
-261.15
-250.48
-234.89
-214.5
-190.28
-163.69
-136.2
-108.94
-82.58
-57.57
-34.31
-13.19
5.44
21.47
35.01
46.29
55.38
62.05
65.93
66.82
65.03
61.51
57.58
54.43
52.63
51.89
51.33
49.9
46.88
42.12
35.95
28.97
21.68
14.31
6.78
-1.12
-9.73
-19.34
-30.3
-42.91
-57.4
-73.78
-91.82
-111
-130.79
-150.7
-170.32
-189.12
-206.1
-219.62
-227.44
-227.05
-216.37
-194.39
-161.66
-120.4
-74.04
-26.54
18.59
58.97
93.75
123.41
149.11
172.01
192.77
211.42
227.65
241.16
251.72
259.1
262.89
262.39
256.92
246.19
230.73
211.94
191.82
172.51
155.65
142.1
131.78
123.94
117.36
110.81
103.27
94.16
83.35
71.11
57.93
44.45
31.28
19.04
8.26
-0.68
-7.64
-12.76
-16.45
-19.4
-22.4
-26.31
-31.83
-39.26
-48.36
-58.14
-67.1
-73.6
-76.48
-75.52
-71.57
-66.28
-61.46
-58.46
-57.8
-59.14
-61.58
-64.11
-65.88
-66.44
-65.82
-64.46
-63.1
-62.5
-63.24
-65.43
-68.78
-72.74
-76.9
-81.25
-86.25
-92.68
-101.22
-112.27
-125.7
-140.9
-156.73
-171.67
-184.02
-192.23
-195.42
-193.64
-188
-180.21
-172.03
-164.6
-158.26
-152.71
-147.57
-142.89
-139.42
-138.43
-141.04
-147.5
-156.54
-165.2
-169.44
-165.32
-150.36
-124.53
-90.31
-51.92
-13.86
20.31
48.73
71.04
87.92
100.29
109.02
114.82
118.32
120.19
121.04
121.28
121.1
120.49
119.42
117.99
116.39
114.88
113.64
112.67
111.83
110.88
109.53
107.49
104.46
100.05
93.85
85.54
74.95
62.28
48.09
33.26
18.85
5.74
-5.58
-15.2
-23.89
-32.92
-43.79
-57.65
-74.77
-93.93
-112.31
-125.88
-130.45
-123.09
-103.26
-73.15
-37.14
-0.28
33.22
61.11
83.09
100.11
113.28
123.2
129.86
133.17
133.51
131.95
129.97
129.01
130.11
133.72
139.82
147.85
156.71
164.73
169.96
170.78
166.47
157.58
145.7
132.68
119.69
106.75
92.82
76.48
56.78
33.82
8.69
-16.98
-41.69
-64.63
-85.78
-105.71
-125.17
-144.65
-164.17
-183.12
-200.33
-214.12
-222.34
-222.73
-213.37
-193.44
-163.8
-127.11
-87.36
-48.94
-15.53
10.66
29.11
40.6
46.62
48.79
48.45
46.6
43.89
40.74
37.46
34.2
31.03
27.88
24.63
21.19
17.59
14.02
10.82
8.3
6.52
5.14
3.4
0.31
-4.92
-12.57
-22.23
-32.88
-43.27
-52.39
-59.82
-65.87
-71.34
-77.31
-84.79
-94.52
-106.77
-121.09
-135.9
-148.43
-154.94
-151.75
-136.48
-109.29
-73.06
-32.78
6.16
39.54
65.34
83.7
96.16
104.47
109.87
112.94
113.85
112.87
110.58
107.71
104.97
102.67
100.62
98.36
95.4
91.55
86.97
82.1
77.36
72.9
68.46
63.46
57.26
49.4
39.77
28.59
16.28
3.33
-9.83
-22.84
-35.4
-47.23
-58.24
-68.68
-79.26
-91.09
-105.19
-121.76
-139.51
-155.47
-165.54
-165.75
-153.57
-128.86
-94
-53.06
-10.63
29.36
64.25
92.81
114.95
131.51
143.73
152.88
159.85
164.81
167.35
166.79
162.9
156.1
147.34
137.48
126.73
114.47
99.57
81.13
59.1
34.43
8.76
-16.17
-39.04
-59.08
-76.02
-89.89
-100.82
-109.11
-115.11
-119.34
-122.35
-124.72
-127.06
-130.04
-134.44
-140.95
-149.85
-160.47
-171.01
-178.54
-179.76
-172.05
-154.5
-128.42
-96.99
-64.3
-34
-8.39
11.86
27.28
38.84
47.3
53.06
56.37
57.68
57.88
58.1
59.29
61.78
65.19
68.51
70.62
70.77
68.86
65.41
61.26
57.12
53.27
49.36
44.6
38.07
29.14
17.82
4.85
-8.46
-20.64
-30.63
-38.12
-43.74
-48.84
-55.07
-63.88
-76.08
-91.33
-107.96
-122.98
-132.52
-132.77
-121.22
-97.66
-64.6
-26.65
10.79
43.11
67.67
84.1
93.72
98.58
100.55
100.77
99.69
97.4
93.98
89.7
84.95
80.15
75.49
70.98
66.48
61.87
57.1
52.2
47.17
41.85
35.89
28.89
20.56
10.81
-0.22
-12.27
-25.01
-38.16
-51.34
-64.14
-76.15
-87.09
-96.91
-105.83
-114.2
-122.51
-131.31
-141.13
-152.35
-164.6
-176.27
-184.27
-184.54
-173.39
-148.85
-111.62
-64.97
-13.74
37.11
83.62
123.32
155.08
178.57
193.97
201.74
202.5
196.96
185.66
168.93
146.95
120.2
89.72
57.38
25.7
-2.58
-25.14
-40.6
-48.8
-50.86
-48.59
-43.92
-38.36
-32.75
-27.42
-22.61
-18.76
-16.61
-16.98
-20.23
-26.08
-33.55
-41.37
-48.5
-54.51
-59.76
-65.21
-72.07
-81.41
-93.74
-108.66
-124.52
-138.35
-146.22
-144.17
-129.6
-102.4
-65.32
-23.4
17.62
52.92
79.79
97.86
108.45
113.61
115.19
114.57
112.56
109.76
106.63
103.51
100.61
97.95
95.4
92.81
90.12
87.43
85.02
83.16
81.93
81.07
79.93
77.54
72.98
65.7
55.8
44.08
31.78
20.11
9.78
0.75
-7.62
-16.25
-25.78
-36.28
-47.23
-57.82
-67.34
-75.58
-83.04
-90.76
-100.05
-111.83
-125.97
-140.76
-152.94
-158.44
-153.63
-136.64
-107.87
-69.77
-25.81
20.43
65.85
107.74
143.6
171.22
189.16
197.41
197.55
192.31
184.45
175.77
166.57
156.06
143.08
126.8
107.05
84.22
59.03
32.42
5.63
-19.83
-42.3
-60.39
-73.38
-81.45
-85.51
-86.78
-86.39
-85.09
-83.36
-81.64
-80.53
-80.69
-82.63
-86.37
-91.33
-96.56
-101.1
-104.42
-106.64
-108.57
-111.47
-116.76
-125.58
-138.2
-153.49
-168.61
-179.35
-181.21
-170.91
-147.8
-114.38
-75.7
-37.61
-5.01
19.48
35.63
44.79
48.69
48.66
45.35
39.23
31
21.88
13.28
6.29
1.28
-2.27
-5.46
-9.44
-14.89
-21.88
-29.87
-38.02
-45.44
-51.42
-55.56
-57.72
-58.01
-56.67
-53.87
-49.74
-44.29
-37.52
-29.43
-20.18
-10.11
0.23
10.34
20.04
29.39
38.46
47.13
54.99
61.38
65.52
66.68
64.44
59.22
52.11
44.8
39.4
38.14
42.79
53.9
70.44
89.92
109.89
127.93
141.98
150.62
153.47
151.05
144.34
134.41
122.32
110.81
102.23
97.55
96.09
96.56
97.8
99.01
99.81
100.19
103.03
110.52
122.34
135.48
146.12
151.28
149.24
139.5
122.59
103.4
86.98
76.56
73.22
77.48
89.84
109.86
135.41
142.42
116.06
59.05
-10.55
-74.76
-124.72
-159.84
-183.59
-200.26
-213.12
-220.24
-219.21
-209.84
-194.85
-177.68
-161.27
-147.75
-138.39
-133.09
-128.11
-119.92
-107.13
-91.03
-73.52
-56.36
-40.95
-28.14
-18.14
-8.73
1.7
13.02
23.77
33.35
42.19
51.15
60.88
68.35
72.01
69.9
60.15
38.66
7.66
-24.78
-49.9
-63.61
-67.49
-65.36
-61.06
-56.94
-53.7
-50.88
-47.82
-45.22
-45.16
-49.55
-58.57
-70.69
-83.33
-93.77
-100.34
-101.73
-98.63
-93.47
-88.51
-84.12
-78.87
-70.71
-57.82
-40.05
-16.14
13.04
43.82
68.23
79.52
75.76
60.12
43.51
30.18
25.25
33.57
55.38
90.05
135.27
186.85
238.03
280.85
295.02
269
208.07
133.27
69.09
30.01
18.83
24.01
33.87
39.42
39.07
35.35
28.54
19.35
7.71
-6.58
-23.7
-42.77
-63.19
-82.35
-97.94
-109.53
-117.86
-124.9
-132.52
-141.88
-152.44
-163.21
-172
-177.15
-178.82
-177.56
-174.76
-171.58
-168.32
-163.77
-156.37
-144.65
-128.45
-109.39
-88.65
-67.86
-48.58
-31.75
-16.79
-1.83
15.56
37.23
63.47
94.43
128.11
160.56
187.58
206.96
219.55
228.39
237.05
236.23
220.15
189.5
150.9
111.39
75.27
44.55
19.8
0.7
-13.6
-22.2
-24.44
-20.81
-13.54
-5.82
-0.47
-0.19
-6.18
-17.68
-30.9
-41.75
-47.76
-49.06
-47.48
-45.45
-45.18
-47.87
-53.05
-58.82
-62.94
-63.99
-61.98
-57.91
-53.18
-49.13
-46.09
-43.16
-38.32
-29.8
-17.34
-2.6
11.86
23.89
32.22
36.97
39.34
40.98
43.02
45.62
48.15
49.99
50.8
50.71
50.31
50.3
51.13
52.84
55.16
56.54
56.5
55.18
53.15
51.15
49.83
49.44
49.94
51.02
52.28
53.4
53.77
52.52
48.71
41.72
31.52
18.85
4.78
-9.68
-23.89
-37.92
-52.09
-66.44
-80.41
-92.81
-102.36
-108.2
-110.25
-109.18
-106.13
-102.19
-97.98
-93.55
-88.54
-82.61
-75.76
-68.39
-61.09
-54.38
-48.41
-42.9
-37.38
-31.43
-24.96
-18.31
-12.04
-6.68
-2.5
0.57
2.87
4.82
6.75
8.65
10.33
11.42
11.69
11.13
9.97
8.56
7.15
5.8
4.33
2.5
0.2
-2.55
-5.52
-8.54
-11.55
-14.72
-18.36
-22.74
-28.02
-34.02
-40.3
-46.15
-50.72
-53.19
-52.9
-49.4
-42.52
-32.41
-19.47
-4.41
11.76
27.88
42.73
55.38
65.43
73.1
79.17
84.69
90.63
97.52
105.35
113.62
121.61
128.75
134.95
140.68
146.92
154.76
165.01
177.7
192.03
206.53
219.57
230.07
238.1
245.02
253.01
264.23
279.81
299.11
319.54
337.18
347.53
346.56
331.66
302.66
262.67
218
176.94
147.13
132.67
132.24
139.37
145.07
141.41
124.52
95.33
58.15
17.88
-22.11
-60.6
-97.65
-133.05
-165.55
-193.33
-215.37
-232.49
-247.18
-262.13
-278.05
-292.41
-300.12
-296.11
-278.4
-249.92
-217.75
-190.29
-173.63
-169.34
-174.49
-183.8
-192.33
-197.3
-198.37
-196.65
-193.46
-189.51
-184.91
-179.5
-173.24
-166.43
-159.57
-153.29
-148.07
-144.1
-141.31
-139.45
-138.21
-137.31
-136.51
-135.41
-133.39
-129.57
-123.09
-113.41
-100.67
-85.71
-69.92
-54.9
-42.04
-32.24
-25.75
-22.2
-20.75
-20.47
-20.66
-21.09
-22.06
-24.18
-28.02
-33.93
-41.95
-51.99
-63.98
-77.86
-93.27
-109.15
-123.63
-134.28
-138.72
-135.37
-123.82
-104.68
-79.17
-48.64
-14.47
21.63
57.27
89.43
114.9
131.32
138.02
136.2
128.4
117.27
104.51
90.48
74.67
56.59
36.83
17.26
0.38
-11.79
-18.62
-21.03
-20.98
-20.4
-20.47
-21.03
-21.06
-19.34
-15.19
-8.71
-0.63
8.07
16.55
23.99
30.1
34.87
38.32
40.42
41.21
40.79
39.36
37.14
33.6
28.63
22.32
14.63
5.28
-5.86
-18.71
-32.69
-46.89
-61.72
-76.7
-91.26
-105.71
-121.44
-139.93
-162.07
-187.15
-212.93
-238.63
-261.97
-281.23
-297.05
-312.49
-330.65
-352.81
-376.38
-395.23
-404.27
-396.39
-365.98
-312
-239.02
-155.36
-71.84
1.01
71
132.91
179.67
211.21
236.61
264.44
302.62
351.1
404.95
458.87
500.85
524.43
528.99
517.88
496.11
469.36
442.01
417.01
395.38
374.27
352.52
330.32
308.14
285.91
263.42
240.03
215.61
190.54
164.29
138.11
113.61
91.45
70.78
50.36
29.17
7.3
-14.25
-34.94
-53.62
-69.3
-81.53
-90.43
-96.17
-98.86
-98.39
-94.79
-88.62
-80.46
-71.05
-61.24
-51.95
-43.96
-37.85
-33.91
-32.14
-32.31
-33.96
-36.63
-40.02
-44.05
-48.77
-54.23
-60.33
-66.77
-73.12
-78.89
-83.64
-86.99
-88.62
-88.21
-85.47
-80.17
-72.24
-61.84
-49.42
-35.78
-21.87
-8.79
2.56
11.58
18.01
21.95
23.7
23.6
22.03
19.33
15.86
11.94
7.87
3.94
0.49
-2.02
-3.02
-1.94
1.53
7.27
14.67
22.66
30.02
35.74
39.23
40.41
39.7
37.8
35.52
33.58
32.48
32.37
33.02
33.94
34.56
34.44
33.43
31.72
29.7
27.76
26.11
24.74
23.32
21.52
19.01
15.66
11.58
7.07
2.53
-1.78
-5.73
-9.53
-13.52
-18.07
-23.44
-29.57
-36.11
-42.57
-48.44
-53.4
-57.46
-60.93
-64.38
-68.46
-73.48
-79.06
-83.98
-86.38
-84.32
-76.69
-63.67
-46.95
-29.09
-12.69
0.35
9.23
14.15
15.86
15.15
12.7
9.1
5.01
1.2
-1.52
-2.59
-1.89
0.15
2.66
4.61
5.13
3.97
1.72
-0.27
-0.18
3.51
11.26
22.06
33.46
42.33
45.86
42.54
32.47
17.1
-1.47
-21.17
-40.37
-57.88
-72.93
-85.19
-94.97
-103.19
-111.22
-120.11
-129.87
-139.11
-145.37
-145.9
-138.82
-123.93
-102.8
-78.24
-53.41
-30.91
-12.28
2.16
12.94
21.11
27.65
33.26
38.25
42.57
46.07
48.58
50.04
50.48
50.02
48.89
47.39
45.93
44.83
44.24
44.02
43.75
42.96
41.31
38.74
35.43
31.62
27.48
23.06
18.35
13.41
8.4
3.52
-1.15
-5.72
-10.48
-15.82
-22.1
-29.53
-38
-46.96
-55.29
-61.47
-63.87
-61.3
-53.49
-41.25
-26.3
-10.73
3.67
15.76
25.14
31.96
36.62
39.58
41.22
41.93
42.03
41.79
41.37
40.85
40.16
39.21
37.88
36.1
33.92
31.5
29.1
27
25.39
24.29
23.54
22.85
21.79
19.99
17.13
13.14
8.19
2.76
-2.52
-7.09
-10.71
-13.59
-16.26
-19.41
-23.64
-29.33
-36.5
-44.82
-53.53
-61.36
-66.69
-67.87
-63.8
-54.39
-40.73
-24.81
-8.9
5.14
16.31
24.46
30.12
33.97
36.67
38.64
40.08
41.03
41.45
41.29
40.54
39.3
37.74
36.17
34.86
33.97
33.47
33.18
32.88
32.38
31.61
30.56
29.28
27.69
25.57
22.64
18.66
13.6
7.72
1.49
-4.53
-9.92
-14.55
-18.67
-22.74
-27.34
-32.93
-39.74
-47.61
-55.91
-63.49
-68.89
-70.58
-67.44
-59.18
-46.47
-30.91
-14.56
0.54
12.94
21.96
27.68
30.77
32.08
32.41
32.3
31.98
31.51
30.92
30.31
29.81
29.57
29.65
29.97
30.41
30.81
31.12
31.3
31.35
31.16
30.6
29.47
27.61
24.94
21.45
17.24
12.52
7.63
2.93
-1.29
-4.9
-8.01
-10.92
-14.08
-17.95
-22.93
-29.25
-36.86
-45.23
-53.33
-59.66
-62.61
-60.93
-54.25
-43.23
-29.44
-14.9
-1.44
9.67
17.94
23.52
26.9
28.59
29.01
28.47
27.24
25.63
24.01
22.73
22
21.87
22.19
22.75
23.4
24.04
24.64
25.14
25.4
25.19
24.32
22.71
20.42
17.67
14.69
11.65
8.59
5.39
1.88
-2.09
-6.56
-11.41
-16.42
-21.28
-25.72
-29.74
-33.61
-37.94
-43.37
-50.2
-57.95
-65.26
-70.15
-70.66
-65.61
-55.11
-40.6
-24.3
-8.53
5.03
15.63
23.3
28.53
31.87
33.76
34.47
34.24
33.33
32.1
30.85
29.83
29.12
28.73
28.64
28.77
29.1
29.56
30.06
30.46
30.64
30.48
29.96
29.05
27.78
26.13
24.04
21.48
18.5
15.27
12
8.85
5.87
2.97
-0.06
-3.4
-7.17
-11.35
-15.83
-20.37
-24.59
-27.9
-29.45
-28.22
-23.11
-13.32
1.35
20.23
41.84
64.09
84.73
101.59
112.76
116.49
111.18
95.62
69.54
34.2
-7.28
-50.27
-89.58
-120.82
-141.54
-151.67
-153.08
-148.48
-140.37
-130.35
-119.07
-106.8
-93.99
-81.62
-70.93
-63.03
-58.26
-56.17
-55.7
-55.77
-55.72
-55.45
-55.32
-55.77
-57.15
-59.59
-63.19
-68.07
-74.23
-81.32
-88.35
-93.66
-95.14
-90.95
-80.17
-63.32
-42.26
-19.71
1.68
19.96
34.25
44.63
51.78
56.5
59.5
61.21
61.9
61.76
60.92
59.52
57.83
56.13
54.69
53.7
53.12
52.73
52.23
51.38
50.07
48.29
45.94
42.85
38.69
33.2
26.3
18.22
9.47
0.64
-7.76
-15.49
-22.57
-29.28
-36.03
-43.35
-51.82
-61.87
-73.6
-86.44
-98.91
-108.8
-113.66
-111.6
-102.01
-85.87
-65.46
-43.6
-22.71
-4.33
11.09
23.79
34.28
42.98
50.09
55.72
59.94
62.98
65.05
66.38
67.2
67.62
67.77
67.75
67.63
67.44
67.15
66.64
65.76
64.39
62.41
59.75
56.38
52.2
47.05
40.8
33.41
24.99
15.87
6.51
-2.62
-11.2
-19.18
-26.79
-34.51
-42.93
-52.65
-64.03
-76.82
-89.94
-101.39
-108.6
-109.14
-101.59
-86.12
-64.58
-40
-15.64
5.93
23.34
36.48
46.11
53.3
58.97
63.72
67.8
71.24
73.94
75.82
76.86
77.18
76.99
76.6
76.31
76.36
76.8
77.39
77.66
76.99
74.82
70.99
65.89
60.47
55.94
53.25
52.63
53.32
53.78
52.2
47.14
38.07
25.48
10.58
-5.17
-20.64
-35.27
-49.1
-62.62
-76.34
-90.62
-105.31
-119.62
-132.06
-140.55
-142.92
-137.54
-124.05
-103.6
-78.7
-52.52
-27.96
-6.97
9.7
22.33
31.73
38.83
44.43
49.14
53.35
57.2
60.69
63.63
65.8
67.08
67.51
67.34
66.91
66.62
66.78
67.5
68.6
69.54
69.56
67.9
64.19
58.65
52.13
45.74
40.36
36.19
32.67
28.68
23.25
16.03
7.59
-0.8
-7.8
-12.55
-15.12
-16.43
-17.91
-21.17
-27.58
-38
-52.17
-68.21
-82.31
-89.32
-84.23
-64.3
-30.51
12.21
56.46
94.88
122.33
136.92
139.38
131.66
115.64
92.88
65.15
35.09
6.3
-17.55
-33.97
-42.5
-44.57
-42.7
-39.14
-35.07
-30.53
-24.9
-17.73
-9.2
-0.23
7.97
14.37
18.52
20.54
21.08
20.94
20.82
21.06
21.55
21.91
21.59
20.21
17.72
14.39
10.74
7.24
4.22
1.66
-0.71
-3.35
-6.74
-11.14
-16.52
-22.56
-28.71
-34.44
-39.39
-43.55
-47.32
-51.39
-56.6
-63.66
-72.81
-83.49
-94.22
-102.78
-106.8
-104.49
-95.35
-80.36
-61.71
-42.03
-23.62
-7.91
4.68
14.45
22.02
28.01
32.88
36.94
40.43
43.55
46.51
49.4
52.21
54.8
56.97
58.57
59.65
60.44
61.22
62.18
63.21
63.93
63.79
62.34
59.44
55.3
50.33
45.01
39.69
34.52
29.6
24.9
20.46
16.28
12.3
8.43
4.58
0.63
-3.48
-7.82
-12.47
-17.48
-22.85
-28.46
-34.11
-39.56
-44.66
-49.5
-54.4
-59.88
-66.39
-74.09
-82.54
-90.61
-96.53
-98.37
-94.65
-84.95
-70.25
-52.64
-34.77
-18.89
-6.26
3.02
9.71
14.8
19.02
22.63
25.61
27.84
29.39
30.5
31.47
32.5
33.61
34.73
35.71
36.53
37.19
37.77
38.34
38.91
39.31
39.27
38.42
36.49
33.53
29.91
26.29
23.27
21.15
19.76
18.53
16.86
14.39
11.24
7.87
4.77
2.23
0.12
-1.93
-4.37
-7.45
-11.17
-15.31
-19.68
-24.11
-28.57
-33.11
-37.75
-42.5
-47.39
-52.57
-58.23
-64.41
-70.76
-76.37
-79.91
-79.98
-75.63
-66.74
-54.21
-39.61
-24.79
-11.29
-0.03
8.75
15.28
20.02
23.42
25.81
27.41
28.34
28.76
28.84
28.79
28.81
29
29.38
29.95
30.68
31.56
32.56
33.56
34.39
34.82
34.63
33.73
32.17
30.14
27.9
25.75
23.83
22.17
20.55
18.69
16.31
13.36
10.04
6.73
3.82
1.49
-0.43
-2.36
-4.75
-7.86
-11.7
-16.02
-20.53
-24.98
-29.28
-33.45
-37.59
-41.84
-46.4
-51.47
-57.12
-63.13
-68.81
-73.04
-74.48
-72.07
-65.33
-54.66
-41.27
-26.81
-12.95
-0.94
8.62
15.74
20.84
24.51
27.28
29.5
31.37
32.99
34.41
35.66
36.78
37.72
38.4
38.74
38.78
38.69
38.75
39.2
40.08
41.14
41.89
41.83
40.67
38.45
35.55
32.47
29.57
26.96
24.48
21.81
18.75
15.24
11.44
7.63
4.14
1.09
-1.52
-3.92
-6.38
-9.12
-12.21
-15.59
-19.01
-22.34
-25.5
-28.59
-31.86
-35.61
-40.13
-45.66
-52.25
-59.57
-66.9
-73.02
-76.47
-75.99
-70.99
-61.77
-49.57
-36.13
-23.16
-11.94
-3.06
3.45
7.9
10.7
12.27
13
13.24
13.32
13.41
13.57
13.74
13.9
14.03
14.23
14.57
15.05
15.59
16.05
16.35
16.44
16.31
15.85
14.95
13.42
11.2
8.42
5.38
2.51
0.22
-1.2
-1.73
-1.54
-1.01
-0.65
-0.99
-2.46
-5.28
-9.33
-14.18
-19.26
-24.08
-28.51
-32.84
-37.7
-43.69
-50.95
-58.8
-65.66
-69.42
-68.08
-60.54
-47.12
-29.57
-10.65
6.74
20.27
28.71
32.15
32
30.73
31.42
36.84
48.37
65.04
83.47
98.68
105.92
102.4
88.2
66.19
40.68
15.86
-5.28
-21.29
-31.94
-37.56
-38.73
-36.22
-31.06
-24.55
-18.07
-12.74
-9.17
-7.39
-6.94
-7.24
-7.84
-8.68
-10.05
-12.45
-16.33
-21.78
-28.45
-35.57
-42.22
-47.67
-51.65
-54.51
-57.15
-60.73
-66.25
-74
-83.39
-92.88
-100.39
-103.89
-102.01
-94.43
-81.94
-66.16
-49.08
-32.53
-17.86
-5.75
3.79
11.21
17.19
22.37
27.14
31.57
35.49
38.66
40.9
42.3
43.09
43.59
44.1
44.79
45.75
46.94
48.27
49.55
50.61
51.22
51.2
50.37
48.61
45.79
41.89
37.07
31.63
26.1
20.97
16.6
13.07
10.11
7.26
4
0
-4.81
-10.23
-15.89
-21.42
-26.6
-31.51
-36.46
-41.99
-48.62
-56.74
-66.3
-76.65
-86.44
-93.78
-96.65
-93.48
-83.76
-68.34
-49.33
-29.49
-11.41
3.23
13.98
21.43
26.74
31.03
34.92
38.56
41.77
44.4
46.46
48.16
49.77
51.44
53.09
54.54
55.54
56
55.94
55.51
54.93
54.32
53.67
52.8
51.44
49.29
46.19
42.16
37.4
32.26
27.08
22.11
17.4
12.84
8.25
3.43
-1.7
-7.1
-12.56
-17.81
-22.58
-26.7
-30.22
-33.41
-36.84
-41.24
-47.26
-55.19
-64.71
-74.7
-83.3
-88.38
-88.11
-81.66
-69.5
-53.27
-35.27
-17.79
-2.46
9.97
19.53
26.67
32
35.95
38.87
40.98
42.51
43.69
44.72
45.74
46.79
47.86
48.88
49.8
50.58
51.24
51.84
52.44
52.95
53.16
52.7
51.17
48.31
44.12
38.89
33.18
27.58
22.56
18.27
14.58
11.06
7.22
2.63
-2.89
-9.19
-15.89
-22.47
-28.51
-33.84
-38.6
-43.22
-48.3
-54.42
-61.96
-70.86
-80.46
-89.44
-96
-98.3
-95.01
-85.82
-71.62
-54.31
-36.21
-19.36
-5.06
6.35
15.19
22.14
27.78
32.48
36.38
39.53
41.97
43.81
45.19
46.2
46.92
47.43
47.89
48.44
49.21
50.18
51.2
52.03
52.42
52.15
51.12
49.29
46.63
43.21
39.11
34.52
29.7
24.9
20.35
16.11
12.14
8.29
4.36
0.15
-4.5
-9.63
-15.08
-20.58
-25.81
-30.55
-34.8
-38.77
-42.95
-47.87
-54.07
-61.79
-70.68
-79.69
-87.04
-90.63
-88.7
-80.51
-66.77
-49.48
-31.32
-14.73
-1.29
8.63
15.58
20.6
24.77
28.91
33.43
38.43
43.68
48.74
53.1
56.3
58.15
58.74
58.44
57.71
56.95
56.36
55.92
55.53
55.04
54.33
53.22
51.51
48.92
45.29
40.59
35.1
29.36
23.95
19.3
15.5
12.34
9.34
6.01
1.93
-3.09
-8.99
-15.48
-22.08
-28.26
-33.67
-38.22
-42.2
-46.19
-50.91
-56.91
-64.31
-72.62
-80.6
-86.47
-88.33
-84.81
-75.53
-61.44
-44.48
-27.06
-11.29
1.56
11.17
17.91
22.5
25.62
27.81
29.48
30.91
32.32
33.77
35.23
36.57
37.7
38.54
39.09
39.41
39.55
39.61
39.66
39.77
39.89
39.82
39.2
37.6
34.8
30.81
26.06
21.14
16.64
12.84
9.58
6.35
2.53
-2.26
-8
-14.24
-20.33
-25.7
-30.13
-33.78
-37.18
-41.03
-45.99
-52.49
-60.52
-69.45
-78.03
-84.5
-87.01
-84.23
-75.79
-62.47
-46.12
-28.99
-13.15
0.01
10.03
17.21
22.28
26.03
29.06
31.69
34.05
36.14
37.92
39.37
40.51
41.38
42
42.43
42.74
43
43.28
43.61
43.92
44.07
43.75
42.61
40.34
36.78
32.01
26.39
20.46
14.83
9.92
5.84
2.32
-1.15
-5.15
-10.03
-15.86
-22.33
-28.9
-35.02
-40.27
-44.54
-48.06
-51.38
-55.26
-60.39
-67.15
-75.33
-83.91
-91.24
-95.4
-94.76
-88.57
-77.24
-62.29
-45.82
-29.88
-15.95
-4.58
4.46
11.84
18.28
24.22
29.73
34.63
38.69
41.78
43.91
45.3
46.22
46.95
47.67
48.44
49.19
49.8
50.14
50.11
49.63
48.7
47.28
45.34
42.79
39.59
35.72
31.31
26.6
21.89
17.43
13.32
9.44
5.49
1.14
-3.83
-9.37
-15.22
-21.03
-26.49
-31.52
-36.21
-40.9
-46.02
-52.03
-59.31
-68.03
-77.93
-88.1
-96.96
-102.47
-102.75
-96.69
-84.49
-67.73
-48.87
-30.51
-14.62
-2.09
7.16
13.89
18.97
23.05
26.5
29.43
31.98
34.34
36.72
39.29
42.05
44.75
47.03
48.49
48.99
48.68
47.97
47.3
46.95
46.81
46.41
45.11
42.41
38.16
32.74
26.81
21.12
16.14
11.89
7.96
3.76
-1.14
-6.84
-12.96
-18.94
-24.25
-28.75
-32.75
-36.91
-41.99
-48.54
-56.64
-65.75
-74.73
-81.98
-85.77
-84.73
-78.27
-66.85
-51.95
-35.65
-20.02
-6.59
3.95
11.77
17.55
22.1
26.04
29.75
33.29
36.61
39.62
42.25
44.46
46.25
47.63
48.64
49.31
49.69
49.81
49.72
49.45
48.96
48.18
46.94
45.03
42.27
38.6
34.13
29.17
24.08
19.21
14.69
10.47
6.34
2.06
-2.6
-7.68
-13.09
-18.61
-23.98
-28.96
-33.5
-37.71
-41.96
-46.73
-52.53
-59.65
-67.93
-76.58
-84.19
-88.93
-89.08
-83.61
-72.69
-57.68
-40.8
-24.39
-10.15
1.18
9.81
16.45
21.86
26.55
30.71
34.37
37.57
40.4
42.96
45.3
47.32
48.86
49.75
49.94
49.52
48.76
48.04
47.7
47.88
48.41
48.82
48.53
47.03
44.07
39.76
34.53
28.99
23.71
19.07
15.09
11.46
7.68
3.22
-2.17
-8.44
-15.2
-21.86
-27.9
-33.09
-37.53
-41.7
-46.26
-51.87
-58.91
-67.22
-75.9
-83.42
-87.9
-87.69
-81.95
-71.02
-56.34
-40.05
-24.31
-10.74
-0.12
7.57
12.93
16.74
19.68
22.24
24.59
26.76
28.68
30.29
31.55
32.47
33.04
33.26
33.14
32.75
32.25
31.85
31.7
31.75
31.71
31.13
29.52
26.64
22.59
17.75
12.63
7.63
2.86
-1.82
-6.65
-11.82
-17.23
-22.54
-27.35
-31.31
-34.29
-36.5
-38.39
-40.61
-43.76
-48.23
-53.9
-59.95
-64.93
-67.03
-64.73
-57.33
-45.33
-30.41
-14.82
-0.7
10.62
18.92
24.9
29.65
34.12
38.71
43.3
47.5
51.04
53.92
56.42
58.86
61.33
63.68
65.59
66.83
67.43
67.6
67.56
67.19
66.14
64.13
61.41
59
58.36
60.76
66.39
74.06
81.36
85.43
83.89
75.5
60.37
39.69
15.44
-10.11
-34.66
-56.21
-73.41
-85.88
-94.18
-99.7
-104
-108.34
-113.3
-118.63
-123.32
-125.91
-124.88
-119.07
-108.11
-92.62
-74.23
-55.05
-36.94
-20.89
-6.65
6.86
20.81
35.54
50.16
62.65
70.71
72.65
68.12
58.16
44.79
30.25
16.44
4.61
-4.46
-10.29
-12.47
-10.83
-5.7
1.94
10.45
17.92
22.73
24.04
22.04
17.78
12.66
7.86
4.01
1.04
-1.58
-4.5
-8.2
-12.75
-17.9
-23.21
-28.27
-32.9
-37.16
-41.26
-45.41
-49.81
-54.63
-60.14
-66.68
-74.42
-83.1
-91.66
-98.25
-100.71
-97.32
-87.56
-72.51
-54.57
-36.68
-21.32
-9.76
-1.85
3.63
8.24
13.21
18.95
25.03
30.6
34.79
37.25
38.21
38.41
38.65
39.46
40.84
42.35
43.3
42.98
40.78
36.21
29.05
19.69
9.69
2.02
0.46
8.15
25.81
50.9
78.23
102.17
118.94
128.07
131.7
132.6
132.16
129.67
123.42
112.62
98.87
85.96
78.27
78.88
88.4
105.13
126.19
148.4
168.56
183.32
189.14
183.05
163.92
133.33
95.6
56.62
22.08
-3.99
-19.86
-25.86
-23.61
-15.51
-4.35
6.82
15.09
18.35
15.96
8.82
-1.12
-11.82
-22.03
-31.6
-41.16
-51.5
-62.98
-75.32
-87.6
-98.57
-106.89
-111.41
-111.46
-106.92
-98.43
-87.22
-74.88
-62.94
-52.68
-44.9
-39.96
-37.88
-38.32
-40.57
-43.54
-45.94
-46.63
-44.97
-41.21
-36.33
-31.78
-28.89
-28.49
-30.61
-34.64
-39.58
-44.38
-48.18
-50.43
-50.91
-49.68
-47.14
-43.86
-40.63
-38.18
-37
-37.07
-37.76
-37.99
-36.63
-33.04
-27.39
-20.76
-14.67
-10.5
-8.9
-9.6
-11.55
-13.51
-14.54
-14.32
-13.11
-11.45
-9.86
-8.65
-7.9
-7.64
-7.85
-8.51
-9.6
-11.06
-12.83
-14.93
-17.48
-20.62
-24.42
-28.75
-33.33
-37.81
-41.95
-45.73
-49.39
-53.28
-57.75
-62.98
-68.96
-75.54
-82.48
-89.45
-96.09
-101.83
-106
-107.86
-106.8
-102.59
-95.47
-86.12
-75.34
-63.79
-51.69
-38.84
-24.75
-8.93
8.88
28.57
49.62
71.06
91.71
110.27
125.58
136.82
143.77
146.87
147.18
146.21
145.42
145.83
147.55
149.78
151.01
149.72
144.96
136.81
126.25
114.61
102.96
91.69
80.51
68.93
56.78
44.48
33
23.37
16.31
11.87
9.49
8.18
6.75
4.11
-0.74
-8.43
-19.21
-32.82
-48.57
-65.37
-81.97
-97.15
-109.84
-119.24
-124.83
-126.51
-124.57
-119.75
-113.08
-105.54
-97.74
-89.81
-81.5
-72.47
-62.65
-52.29
-41.89
-31.92
-22.63
-14.05
-6.33
0.17
4.86
7.21
7.12
5.16
2.48
0.63
1.03
4.78
12.18
22.51
33.92
43.67
49.05
48.39
42.08
32.78
24.57
21.52
25.88
37.18
52.36
66.96
76.77
79.04
72.93
59.17
39.39
15.64
-9.77
-34.12
-54.31
-67.4
-71.59
-67.09
-56.54
-44.44
-35.9
-35.07
-43.93
-61.96
-86.7
-114.55
-141.8
-164.91
-180.54
-185.38
-176.61
-152.8
-115.28
-68.87
-21.3
18.89
45.07
54.68
49.7
35.11
16.38
-2.87
-21.67
-40.94
-61.87
-84.36
-106.46
-124.74
-135.32
-134.91
-121.43
-94.26
-54.27
-4.04
52.1
107.94
155.83
187.66
196.45
178.1
133.16
67.51
-8.12
-80.09
-134.93
-162.49
-158.25
-124.06
-67.33
1.22
70.13
129.47
172.35
195.65
199.91
188.67
167.31
141.51
115.8
92.74
73.11
56.86
44.2
36.09
33.78
37.84
47.38
60.04
72.85
83.41
90.64
94.76
96.63
96.96
95.92
93.24
88.69
82.38
74.81
66.6
58.13
49.14
38.72
25.4
7.65
-15.31
-42.86
-72.53
-100.37
-121.96
-133.93
-135.23
-127.67
-115.59
-104.53
-99.71
-104.52
-119.67
-143.03
-170.18
-195.63
-214.17
-222.34
-219.29
-206.97
-189.32
-170.91
-155.38
-144.37
-137.19
-131.31
-123.35
-110.23
-89.94
-61.86
-26.68
14.04
58.18
103.26
146.47
184.7
214.92
234.71
243.1
241.05
231.32
217.64
203.52
191.28
181.66
174.35
168.82
164.81
162.27
160.66
158.55
153.67
143.86
128.31
108.17
86.13
65.2
47.23
32.19
18.58
4.36
-11.82
-30.09
-49.44
-68.26
-84.86
-97.59
-104.76
-104.52
-95.17
-76.05
-48.73
-17.76
9.68
25.65
24.41
5.13
-27.04
-62.56
-91
-105.09
-103.32
-89.71
-71.49
-55.77
-47.1
-46.59
-52.67
-62.24
-71.76
-78
-78.32
-70.97
-55.25
-31.5
-0.97
34.26
71.17
105.83
133.55
149.63
150.49
134.75
103.68
60.94
11.8
-37.54
-80.63
-111.48
-125.52
-120.84
-99.39
-66.87
-31.49
-1.34
18.18
25.84
24.35
18.8
14.56
15.37
22.5
34.43
47.48
57.01
58.79
50.51
32.47
7.45
-20.73
-48.95
-76.19
-103.47
-132.36
-162.94
-192.42
-215.44
-226.03
-219.89
-195.75
-155.44
-102.75
-42.5
20.14
79.59
130.01
165.97
183.47
180.93
159.53
122.97
76.82
28.02
-15.65
-46.68
-59.44
-51.94
-26.74
9.62
48.79
83.34
108.64
123.22
127.85
124.25
114.21
99.52
82.09
64.16
47.77
34.31
24.12
16.64
10.81
5.51
-0.01
-6.09
-12.53
-18.78
-24.14
-28.06
-30.49
-31.95
-33.52
-36.36
-41.31
-48.36
-56.61
-64.49
-70.32
-72.96
-72.09
-68.28
-62.56
-55.97
-49.07
-42
-34.64
-27.02
-19.62
-13.25
-8.86
-7
-7.51
-9.47
-11.46
-11.99
-10.02
-5.35
1.47
9.24
16.71
23.01
27.98
32.05
35.98
40.34
45.22
50.23
54.68
58.13
60.51
62.15
63.45
64.51
64.94
63.96
60.94
55.72
48.84
41.27
33.99
27.5
21.75
16.26
10.6
4.81
-0.62
-4.91
-7.57
-8.81
-9.66
-11.67
-16.19
-23.64
-33.11
-42.53
-49.28
-51.12
-46.95
-37
-22.66
-5.88
11.47
27.95
42.64
55.06
64.98
72.37
77.46
80.82
83.41
86.42
90.9
97.17
104.36
110.2
111.39
104.53
87.35
59.72
24.07
-15
-51.91
-81.47
-100.02
-105.95
-99.7
-83.41
-60.53
-35.42
-12.82
2.94
8.97
4.67
-8.07
-25.51
-43.39
-58.41
-69.05
-75.49
-78.72
-79.67
-78.81
-76.54
-73.82
-72.59
-75.32
-83.89
-98.42
-116.53
-133.58
-143.88
-142.45
-126.56
-96.64
-56.21
-10.84
33.34
71.13
98.99
114.87
117.69
107.05
83.63
50.09
11.45
-25.57
-54.2
-69.57
-69.88
-56.1
-30.61
4.58
47.96
97.43
148.49
193.7
224.27
233.15
217.99
182.23
134.43
85.4
44.63
17.57
5.22
5.52
15.17
30.58
47.57
62.42
72.01
74.67
70.38
61.36
52
47.67
52.42
65.88
84.35
101.4
110.05
104.59
83.1
49.01
10.41
-23.09
-45
-52.12
-44.79
-25.26
3.21
34.21
59.11
69.96
69.74
57.35
31.31
-10.55
-64.52
-124.83
-186.29
-244.85
-296.55
-336.21
-358.59
-357.93
-331.42
-281.65
-217.96
-153.39
-99.81
-64.54
-49.72
-54.59
-75.13
-104.94
-135.56
-158.33
-166.02
-155.06
-126.97
-88.07
-47.66
-13.41
10.97
26.39
36.26
44.21
51.97
58.36
59.28
48.76
21.87
-22.82
-81.31
-144.34
-199.59
-235.48
-245.4
-230.06
-197.09
-157.39
-120.47
-90.89
-67.64
-46.17
-21.77
7.88
42.04
78.09
113.42
146.67
177.77
206.8
233.01
254.49
268.84
274.53
272.03
264.09
254.79
247.91
245.26
245.57
244.81
237.88
220.81
192.67
155.83
114.94
74.97
39.85
11.95
-7.41
-17.32
-17.05
-6.41
13.57
40.42
70.74
101.08
128.77
151.89
168.79
177.44
175.5
161.09
134.04
96.65
53.43
9.83
-29.33
-60.94
-83.71
-97.57
-103.01
-101.09
-93.64
-83.18
-71.92
-60.62
-48.06
-32.1
-11.89
10.26
28.99
38.5
35.9
23.5
7.66
-5.05
-11.92
-15.8
-23.23
-40
-67.69
-102.94
-139.76
-173
-200.46
-222.6
-240.54
-253.99
-260.78
-257.99
-243.8
-218.75
-185.64
-148.27
-109.92
-72.21
-34.71
4.7
48.81
99.4
155.54
212.52
262.4
296.31
307.75
295.33
263.64
221.62
179.45
145.48
124.3
116.68
120.32
130.94
142.72
149.2
144.78
126.34
94.61
54.28
12.71
-22.53
-45.94
-55.74
-53.65
-43.72
-31.53
-23.58
-26.51
-45.6
-83.22
-137.05
-200.05
-260.64
-304.81
-320.4
-301.38
-249.79
-174.75
-89.77
-8.54
57.58
103.17
129.75
143.15
149.38
152
151.46
145.76
132.16
106.63
66.89
14.68
-44.63
-103.85
-155.18
-191.47
-208.02
-195.43
-154.86
-101.71
-54.97
-24.72
-10.71
-7.87
-10.83
-15.8
-18.84
-17.57
-9.66
7.63
34.87
68.1
99.44
120.26
118.75
93.59
52.57
9.79
-20.39
-30.08
-21.18
-3.67
11.78
17.65
12.79
0.17
-15.13
-27.65
-33.83
-33
-26.83
-17.76
-10.22
-9.37
-21.48
-51.74
-101.32
-165.81
-235.83
-299.55
-346.12
-368.55
-363.89
-333.23
-281.26
-214.87
-143.02
-75.59
-20.99
16.68
39.32
54.87
74.43
106.41
154.04
213.38
274.62
325.37
354.1
353.03
320.15
260.56
182.9
100.43
27.38
-23.97
-46.2
-38.35
-6.41
38.04
81.97
109.85
111.6
83.63
29.8
-39.64
-110.83
-169.9
-206.48
-214.3
-197.45
-162.83
-119.1
-73.48
-29.69
12.59
56
90.34
129.42
166.4
194.04
205.49
197.37
171.56
134.81
96.53
65.61
49.97
49.85
64.37
90.94
126.34
166.89
208.18
244.89
271.45
284.81
281.37
262.13
230.77
192.39
151.54
110.97
71.54
33.24
-2.38
-34.27
-59.33
-74.83
-79.92
-76.4
-68.14
-59.52
-53.72
-51.34
-52.22
-55.35
-60.84
-70.33
-86.1
-109.2
-137.9
-167.35
-190.72
-202.15
-198.51
-180.64
-152.51
-119.18
-84.61
-50.66
-17.57
14.44
43.8
67.39
81.71
84.53
76.13
59.41
38.82
19.08
4.27
-2.46
0.81
14.09
34.69
57.26
75.49
84.83
85.15
81.07
79.54
86.02
101.58
122.8
144.28
161.9
174.13
180.99
181.84
174.35
156.23
128.28
96.45
70.35
58.75
64.48
82.27
100.76
107.72
95.63
64.33
19.91
-28.82
-74.46
-113.22
-145
-172.24
-198.48
-227.39
-262.14
-304.22
-352
-399.85
-438.58
-457.74
-449.02
-409.65
-344.47
-265.48
-188.91
-130.52
-100.76
-101.63
-126.49
-162.85
-197.01
-218.51
-222.87
-211.41
-188.86
-160.16
-128.25
-93.78
-56.67
-17.62
21.19
56.75
86.64
110.08
127.86
141.62
152.43
160.03
162.78
158.56
146.14
126.08
101.2
75.89
55.09
42.87
41.26
49.75
65.37
83.71
100.17
111.32
115.56
113.15
105.5
94.38
81.28
67.21
52.86
38.53
24.08
8.71
-8.87
-29.58
-52.95
-76.69
-97.25
-111.45
-117.99
-117.8
-112.9
-104.29
-90.45
-67.73
-32.48
16.14
74.44
134.52
186.66
222.46
237.34
231.52
209.46
178.18
145.21
116.53
95.04
79.99
67.6
52.67
30.55
-1.08
-41.35
-86.47
-130.6
-167.16
-190.03
-194.7
-179.5
-146.44
-101.16
-51.99
-7.77
24.51
41.58
44.53
37.86
27.44
18.31
13.04
11.3
10.62
8.04
1.48
-9.38
-23.38
-38.66
-53.63
-67.45
-80.14
-92.45
-105.68
-121.69
-142.64
-170.4
-205.55
-246.44
-289.05
-327.63
-356.26
-370.44
-368.1
-349.77
-317.89
-276.04
-228.05
-177.42
-126.91
-78.07
-31.22
14.1
58.56
102.28
144.54
183.91
218.77
247.7
269.72
284.14
290.5
288.46
278.12
260.37
237.04
210.9
185.06
162.32
144.24
130.64
119.64
108.4
94.22
75.47
52.19
25.66
-2.21
-29.66
-55.41
-78.5
-98.09
-113.34
-123.83
-129.94
-132.93
-134.47
-135.85
-137.33
-138.02
-136.51
-131.74
-123.81
-114.08
-104.89
-98.59
-96.61
-98.82
-103.22
-106.59
-105.26
-96.47
-79.29
-55
-26.66
1.97
27.58
48.25
63.6
74.43
81.87
86.88
89.98
91.39
91.39
90.53
89.51
88.81
88.53
88.25
87.45
85.76
83.03
79.29
74.57
69.2
64.47
63.32
70.32
90.35
126.23
176.53
234.85
291.38
336.02
361.6
365.47
349.13
316.53
272.76
223.84
176.97
140.21
120.65
121.47
139.79
166.83
190.83
201.44
193.21
166.54
125.76
76.07
21.47
-35.42
-91.65
-142.2
-180.02
-198.27
-193.91
-170.34
-137.31
-107.5
-91.46
-93.23
-109.18
-130.21
-146.7
-153.28
-151.14
-146.69
-147.92
-160.22
-183.75
-213.53
-241.2
-257.74
-255.95
-232
-186.16
-122.77
-49.76
22.65
83.41
123.28
137.1
125.05
92.65
49.33
5.79
-28.83
-49.41
-56.59
-54.84
-50.09
-47.34
-49.19
-55.17
-62.79
-68.83
-71.01
-70.51
-69.05
-68.23
-69.85
-76.18
-89.51
-112.03
-143.92
-182.85
-226.65
-270.22
-307.08
-332.26
-344.35
-345.07
-338.5
-327.94
-314.9
-302.28
-289.55
-273.87
-252.97
-226.77
-197.12
-167.96
-142.45
-102.33
-44.96
19.14
74.61
112.32
130.4
138.04
141.09
142.94
145.89
147.15
147.72
150.24
155.09
162.91
174.46
188.17
202.46
216.33
226.98
236.75
249
262.96
279.8
302.45
331.26
364.8
399.42
428.15
448.48
459.07
455.44
439.15
416.16
390.29
362.82
332.88
275.64
185.21
100.97
35.48
-17.5
-59.64
-94.11
-124.86
-155.76
-190.46
-227.95
-267.66
-313.64
-363.51
-408.52
-439.27
-448.28
-432.49
-394.38
-337.98
-270.61
-204.16
-145.52
-96.38
-56.81
-25.64
-0.71
20.97
44.29
72.17
102.14
131.18
156.68
176.11
188.22
193.41
193.31
190.67
187.4
183.19
177.92
171.91
165.08
157.16
148.01
137.68
126.77
115.7
104.17
92.07
79.63
67.2
55.17
43.69
32.39
20.47
7.1
-8.03
-24.32
-40.32
-54.3
-65.07
-72.68
-78.79
-86.65
-100.44
-123.98
-159.08
-204.04
-253.1
-297.48
-327.81
-337.16
-323.14
-288.13
-237.72
-178.3
-115.34
-53.08
4.61
53.27
87.88
104.29
101.25
81.73
52.63
22.71
-0.17
-11.34
-10.19
0.46
16
31.64
43.6
49.58
48.97
42.94
34.45
27.95
28.64
41.3
68.91
111.62
166.2
226.4
284.03
330.52
358.84
364.91
348.41
312.77
264.05
209.3
155.07
106.53
67.26
39.57
24.32
20.37
23.95
28.74
26.77
10.44
-24.84
-78.69
-144.76
-211.71
-265.82
-294.83
-291.51
-255.89
-195.27
-122.09
-50.48
7.52
44.62
59.15
54.3
36.1
11.23
-14.67
-38.02
-57.33
-72.37
-83.16
-88.98
-88.09
-78.52
-59.25
-31.12
2.75
37.75
69.25
93.8
109.82
117.53
118.13
112.94
102.66
87.19
65.96
38.53
5.28
-32.09
-70.07
-103.33
-125.46
-130.59
-115.82
-83.22
-40.37
1.29
29.98
37.16
20.26
-17
-66.18
-116.74
-158.54
-183.59
-187.48
-170.09
-135.59
-91.23
-44.8
-1.49
37.92
76.39
117.63
162.29
205.91
240.08
256.35
250.71
225.86
190.17
153.75
123.91
102.32
85.17
66.05
39.58
4.17
-37.47
-79.95
-118.47
-151.52
-181.8
-214.61
-254.5
-302.18
-353.09
-398.81
-430.46
-442.32
-433.87
-409.1
-373.73
-332.38
-286.93
-236.89
-181.21
-120.03
-55.2
10.44
74.07
133.41
186.31
230.27
262.38
279.99
281.71
268.36
243.07
210.59
176.14
144.54
119.5
103.63
98.23
102.94
115.32
130.63
142.31
143.16
127.53
93.74
45.82
-6.81
-51.9
-78.76
-82.33
-64.8
-33.89
1.19
34.04
62.97
90.02
117.78
146.56
173.4
193.46
202.53
199.09
184.74
163.09
137.91
111.76
85.62
59.08
31.38
2.24
-27.67
-56.71
-82.68
-103.56
-118.33
-127.7
-134.21
-141.64
-153.63
-172.08
-196
-221.51
-243.14
-255.75
-256.37
-245.03
-224.29
-197.91
-169.58
-142.22
-118.09
-99.17
-87.24
-83.39
-87.23
-96.31
-106.4
-112.61
-111
-99.96
-80.68
-56.62
-32.1
-10.85
5.15
16
23.48
30.07
38.01
48.62
62.08
77.61
93.88
109.48
123.14
133.99
141.69
146.5
149.37
151.71
154.97
160.11
167.24
175.49
183.21
188.46
189.35
184.43
173.05
155.84
135.01
114.31
98.23
90.5
92.68
103.3
118.61
134.22
147.25
157.19
165.34
172.85
179.04
180.9
174.4
156.67
127.5
89.54
46.8
2.8
-40.66
-83.22
-124.98
-165.5
-203.6
-238.02
-268.09
-293.92
-315.74
-332.98
-343.75
-345.12
-334.38
-310.31
-274.23
-230.02
-183.26
-139.62
-103.42
-76.61
-58.71
-47.44
-39.62
-32.19
-22.72
-9.76
7.24
28.02
51.86
77.9
105.34
133.5
161.37
187.2
208.26
221.24
223.16
212.51
190.05
158.87
123.74
89.94
62.27
44.12
37.06
40.46
51.47
65.51
77.05
81.05
74.36
56.87
31.39
2.37
-26.21
-52.57
-77.59
-103.65
-132.58
-163.83
-193.86
-217.13
-228.16
-223.6
-203.43
-170.76
-130.57
-87.96
-46.91
-9.64
23.04
50.91
