3.3868e-06
4.1869e-06
3.2418e-06
-1.6058e-06
-9.4572e-06
-2.0743e-05
-3.3627e-05
-4.3831e-05
-4.68e-05
-4.6228e-05
-4.3775e-05
-4.4921e-05
-4.6183e-05
-4.8929e-05
-5.4829e-05
-6.1507e-05
-6.9617e-05
-7.7375e-05
-8.8866e-05
-0.00010351
-0.00010717
-0.00010107
-8.9376e-05
-8.2269e-05
-7.8342e-05
-7.0371e-05
-6.3771e-05
-6.5056e-05
-7.1699e-05
-8.0385e-05
-9.3154e-05
-0.00010933
-0.00011424
-0.00010187
-8.7521e-05
-8.2183e-05
-8.2131e-05
-7.8197e-05
-7.0326e-05
-5.3598e-05
-5.0602e-05
-6.2908e-05
-6.6794e-05
-9.1036e-05
-0.00010799
-0.0001006
-8.9039e-05
-7.4746e-05
-6.819e-05
-5.702e-05
-3.6314e-05
-1.5323e-05
-2.3977e-05
-4.4314e-05
-5.6339e-05
-6.1799e-05
-8.1149e-05
-6.6314e-05
-4.5447e-05
-3.0079e-05
-1.4245e-05
5.7422e-06
3.3245e-05
6.994e-05
7.599e-05
5.4487e-05
4.4174e-05
5.0784e-05
4.6519e-05
3.1535e-05
3.4285e-05
4.4039e-05
7.0113e-05
0.00010108
0.0001212
0.00016153
0.00017427
0.00014375
0.00012377
0.00012556
0.00011749
0.00012168
0.00013106
0.00015161
0.00017789
0.00019307
0.00019939
0.00020119
0.00020289
0.00016962
0.00013396
0.00011305
9.3448e-05
9.4108e-05
0.00010607
0.00011376
0.00013052
0.00013324
0.00012009
0.00012322
0.00013852
0.00013885
0.00010764
7.6725e-05
6.6725e-05
6.167e-05
6.4432e-05
7.6788e-05
8.6449e-05
8.4437e-05
6.5982e-05
4.8156e-05
6.2069e-05
7.5988e-05
7.303e-05
7.0618e-05
6.1989e-05
4.5745e-05
4.6356e-05
2.9226e-05
1.402e-05
2.0847e-05
1.0437e-05
9.3926e-06
2.7511e-05
2.9037e-05
4.0194e-05
3.7783e-05
1.8542e-05
3.7139e-06
9.075e-06
1.5378e-05
1.038e-05
1.3073e-05
1.0887e-05
6.4825e-06
3.0493e-05
5.3434e-05
5.7193e-05
5.8725e-05
3.8553e-05
6.1359e-07
-3.1508e-05
-3.8108e-05
-4.2267e-05
-3.7122e-05
-1.7677e-05
7.8857e-06
5.1304e-05
9.8638e-05
0.00011419
0.00010071
6.7726e-05
2.8726e-05
1.599e-05
-4.9981e-06
-2.0216e-06
1.9084e-05
2.6391e-05
4.9972e-05
5.8319e-05
7.3372e-05
8.6274e-05
7.5005e-05
6.5228e-05
2.2285e-05
5.0324e-06
1.1739e-05
1.8215e-05
4.4286e-05
5.8962e-05
9.0715e-05
0.00012294
0.00011778
0.00012178
0.00010975
9.5249e-05
8.2214e-05
4.2906e-05
2.7305e-05
3.8117e-05
3.7649e-05
5.2502e-05
6.1365e-05
7.7149e-05
9.0766e-05
0.00010576
0.00013384
0.00011264
7.4581e-05
4.7291e-05
4.3408e-05
6.5808e-05
5.8721e-05
5.9535e-05
6.9567e-05
7.3906e-05
9.4683e-05
9.6159e-05
9.3988e-05
0.00010657
6.0599e-05
1.6941e-05
1.8382e-05
4.8184e-05
6.5541e-05
3.8271e-05
1.6175e-05
2.8659e-05
5.7153e-05
5.9985e-05
5.0238e-05
5.2795e-05
4.5639e-05
2.7091e-05
9.0705e-06
-1.2646e-05
-7.4471e-06
4.45e-06
-6.1763e-06
-1.4708e-05
1.1044e-05
2.9193e-05
1.0998e-05
-5.2415e-06
-3.9985e-05
-6.4408e-05
-7.0207e-05
-8.5083e-05
-6.3666e-05
-7.4071e-05
-9.0408e-05
-7.9161e-05
-6.0359e-05
-4.4211e-05
-6.2583e-05
-0.00010635
-9.2379e-05
-9.6903e-05
-0.00011147
-0.00012314
-0.00012847
-8.2137e-05
-7.0963e-05
-8.7955e-05
-6.4925e-05
-6.2756e-05
-6.694e-05
-6.5518e-05
-5.5398e-05
-3.5279e-05
-4.0673e-05
-9.0153e-05
-0.00011173
-0.00010306
-9.1172e-05
-0.0001239
-0.00014457
-0.00011427
-0.00010552
-8.1194e-05
-9.3197e-05
-0.0001007
-7.5453e-05
-0.00011033
-0.00014867
-0.00014357
-0.0001381
-0.00014545
-0.00015546
-0.00017147
-0.000149
-0.00013238
-0.00012643
-0.00010684
-9.4978e-05
-8.5188e-05
-7.7995e-05
-8.7474e-05
-0.00011176
-0.0001208
-0.00012208
-9.7428e-05
-6.882e-05
-9.823e-06
3.2437e-05
3.3794e-05
4.2343e-05
4.8402e-05
2.066e-05
7.2182e-06
-2.6137e-05
-7.6703e-05
-8.1125e-05
-5.6619e-05
-9.2195e-06
4.685e-05
6.3018e-05
6.2126e-05
7.2878e-05
9.4021e-05
6.9461e-05
2.108e-05
-1.9016e-05
-6.5002e-05
-5.7984e-05
-6.2871e-05
-4.9257e-05
2.251e-05
3.7784e-05
2.6127e-05
-2.3067e-06
-2.2037e-05
-7.0499e-06
-1.8552e-05
-3.6439e-05
-5.8488e-05
-7.0177e-05
-4.4503e-05
-2.5371e-05
1.5158e-06
1.4845e-05
2.4327e-05
1.9521e-05
-1.7947e-06
2.2391e-05
1.5746e-05
3.9606e-06
-2.371e-05
-5.1267e-05
-3.3585e-05
-1.027e-05
1.746e-05
5.6144e-05
7.2662e-05
6.4067e-05
3.8724e-05
1.3863e-05
1.3848e-05
-6.7816e-06
-4.9748e-05
-6.6289e-05
-6.1987e-05
-5.9872e-05
-6.1433e-05
-4.6249e-05
-3.9187e-05
-2.3481e-05
-1.4732e-05
-4.776e-06
1.6006e-05
2.4147e-05
1.7009e-05
1.2319e-05
-1.7525e-06
-1.5593e-05
-2.281e-05
-2.4634e-05
1.5661e-05
4.865e-05
5.7167e-05
5.4116e-05
3.8633e-05
6.9922e-05
7.0253e-05
2.4144e-05
2.4027e-05
2.823e-05
3.6259e-05
6.4471e-05
7.3881e-05
7.1158e-05
8.7706e-05
0.00010481
0.00011899
0.00012158
8.5094e-05
2.0887e-05
-2.5954e-05
-4.831e-05
-2.9249e-05
-2.4703e-06
1.7947e-05
3.9076e-05
3.9351e-05
5.6432e-05
8.4335e-05
9.6932e-05
0.00010902
7.4272e-05
2.4637e-05
3.9526e-05
4.3563e-05
5.5822e-05
8.4019e-05
7.8628e-05
8.2545e-05
7.5336e-05
7.3041e-05
0.00011017
0.00013358
9.4598e-05
3.8348e-05
3.9336e-05
5.7347e-05
3.8997e-05
2.7361e-05
1.0452e-05
3.8496e-05
6.5381e-05
4.9286e-05
4.9601e-05
4.8779e-05
4.2399e-05
4.9097e-05
3.2157e-05
3.4322e-06
-1.1017e-05
-5.342e-05
-6.7641e-05
-2.6528e-05
-9.5554e-06
-9.2586e-06
9.0715e-06
3.5035e-05
6.6275e-05
5.2228e-05
1.0906e-05
-3.0268e-05
-9.2386e-05
-8.0667e-05
-8.0665e-05
-9.5318e-05
-6.4536e-05
-8.7818e-05
-0.00011428
-0.00013445
-0.00016355
-0.00016501
-0.00015125
-0.00014385
-0.00014703
-0.00014334
-0.00013317
-0.00013498
-0.00015026
-0.00017615
-0.00019676
-0.0001685
-0.00016585
-0.00018454
-0.00018344
-0.00018739
-0.00016946
-0.00016189
-0.00015624
-0.00015184
-0.00018692
-0.00020695
-0.00017736
-0.0001717
-0.00015677
-0.00016061
-0.00017252
-0.00015272
-0.00013977
-0.0001255
-0.00014526
-0.00015414
-0.00014583
-0.00014167
-0.00014101
-0.00014588
-0.0001693
-0.00019685
-0.00019329
-0.00022007
-0.00021753
-0.00017283
-0.0001498
-0.00013199
-0.00014246
-0.00014609
-0.00013851
-0.00016351
-0.00017633
-0.00016557
-0.00013155
-0.00011901
-0.00010982
-4.2298e-05
-5.5061e-06
-2.3311e-06
1.3889e-05
3.5035e-05
7.33e-05
9.8412e-05
9.2811e-05
9.9861e-05
0.00012096
0.00013235
0.00013809
0.00014278
0.00014726
0.00016777
0.00017875
0.00020483
0.00018847
0.00017299
0.00014109
8.858e-05
0.00010033
0.0001105
0.00014132
0.00015355
0.00013623
0.00010149
8.9319e-05
9.3505e-05
9.4469e-05
9.1483e-05
6.11e-05
5.2941e-05
7.6091e-05
0.00011202
9.5602e-05
6.8259e-05
8.8485e-05
0.00011369
0.00011777
7.2386e-05
3.2741e-05
4.3933e-05
4.776e-05
6.8121e-05
0.00014651
0.00024456
0.00032882
0.0003188
0.00028694
0.00025387
0.00017804
9.3266e-05
-4.9628e-07
-4.6672e-05
-3.756e-05
-1.3933e-05
-2.5293e-05
-2.4007e-05
-4.9113e-05
-0.00013859
-0.00018537
-0.00019946
-0.00021868
-0.00027488
-0.0003393
-0.00035472
-0.00034239
-0.00032098
-0.00030045
-0.00024256
-0.00016652
-0.000225
-0.00036979
-0.00043932
-0.00042876
-0.00042598
-0.0004346
-0.00042277
-0.00036369
-0.00028509
-0.00027196
-0.00027392
-0.00025866
-0.00032374
-0.00041884
-0.00044272
-0.00039119
-0.00030636
-0.00020808
-0.00018755
-0.00022262
-0.00024799
-0.00027903
-0.00031084
-0.00029875
-0.00030946
-0.00035513
-0.0003918
-0.0003906
-0.00038372
-0.00037242
-0.00033549
-0.00031549
-0.00033448
-0.0003964
-0.00044107
-0.00046376
-0.00044193
-0.00035618
-0.00031104
-0.00026794
-0.00019424
-0.00021209
-0.0002945
-0.00026657
-0.00019953
-0.00022447
-0.00028462
-0.00028275
-0.00021341
-0.00015284
-0.00012715
-9.5843e-05
-8.3985e-05
-8.2645e-05
-0.00010403
-0.00017966
-0.00016055
-0.00013465
-0.00015063
-0.00013607
-6.2751e-05
2.8837e-05
4.6295e-05
8.1922e-05
0.00015539
0.00016557
0.00010278
4.4833e-05
1.9546e-05
-1.7743e-06
3.1263e-05
0.00013019
0.0002153
0.00025643
0.00027162
0.00023816
0.00019325
0.00016348
0.00018204
0.00019689
0.00019405
0.00022778
0.00023808
0.00021058
0.0002085
0.00025042
0.00024625
0.00019732
0.00013851
9.9892e-05
8.6539e-05
5.9067e-05
2.6337e-05
1.3854e-05
6.4822e-05
6.1327e-05
2.4131e-06
-1.6718e-05
1.3994e-05
1.3202e-05
-4.8807e-06
-6.6453e-06
3.3863e-06
2.9256e-05
-1.3517e-06
-2.4603e-05
-2.5867e-05
-4.1259e-05
-4.5078e-05
1.4725e-05
7.1822e-05
5.5026e-05
4.483e-05
5.7191e-05
1.9805e-05
-2.4749e-05
-3.8517e-05
-9.9103e-05
-0.00013857
-0.00014548
-0.00015029
-0.00010253
-8.2623e-05
-0.00012114
-0.00018179
-0.0002299
-0.00024098
-0.00024871
-0.00031531
-0.00039458
-0.00043342
-0.00041704
-0.00036867
-0.00036484
-0.00037021
-0.00035776
-0.0003397
-0.00034925
-0.00032994
-0.00028869
-0.00025717
-0.00027208
-0.00028518
-0.00023883
-0.00017101
-0.00011121
-0.00014063
-0.000181
-0.00014721
-0.00012702
-0.00010695
-9.358e-05
-9.1875e-05
-5.7098e-05
-4.945e-05
-0.00010378
-0.00011102
-0.0001064
-0.00013075
-0.0001594
-0.00018879
-0.00018885
-0.00021345
-0.00021068
-0.00015184
-8.9506e-05
-3.0393e-05
-3.2149e-05
-6.5985e-05
-6.8683e-05
-0.00011943
-0.00017749
-0.00016082
-0.00012832
-9.1697e-05
-5.2358e-05
-5.6659e-05
-4.3903e-05
2.1083e-05
5.0679e-05
5.8922e-05
9.2878e-05
9.6048e-05
7.0859e-05
8.6135e-05
0.00017819
0.00021997
0.00020473
0.00023057
0.00025934
0.00031105
0.00036903
0.00039397
0.00039687
0.00038013
0.00030668
0.00023382
0.00026521
0.00030918
0.00032812
0.00026069
0.00016097
9.1886e-05
3.086e-05
-2.96e-05
-0.00010453
-0.00014292
-9.6975e-05
-3.5044e-05
4.3102e-06
2.5605e-05
1.1185e-05
1.6461e-05
9.0211e-06
-7.605e-05
-0.00011592
-4.2588e-05
-1.3514e-05
-1.1265e-05
4.4907e-05
5.3913e-05
4.5999e-05
2.6206e-05
8.4996e-07
1.4374e-05
3.8644e-05
8.975e-05
9.1558e-05
3.3569e-05
3.647e-05
9.709e-05
0.00013664
0.00014057
0.00012199
0.00011758
0.00013811
0.00010209
2.6282e-05
-6.0545e-06
-5.3002e-05
-9.3723e-05
-7.8407e-05
-3.3693e-05
2.946e-05
-2.0412e-05
-0.00013052
-0.00018061
-0.00021302
-0.00019727
-0.00013964
-0.00011309
-0.00010402
-0.00015474
-0.00018616
-0.00012994
-0.00014026
-0.00020825
-0.00023214
-0.00021471
-0.0001972
-0.00019943
-0.00020493
-0.00021999
-0.00020823
-0.0001894
-0.00021061
-0.00015199
-8.4635e-05
-0.00013796
-0.00021629
-0.00023702
-0.00025027
-0.00027984
-0.00028361
-0.00025634
-0.00016156
-9.8791e-05
-5.9615e-05
-5.4645e-05
-0.00012009
-0.00011774
-0.00011828
-0.00011031
-3.6087e-05
-2.9514e-05
-8.099e-05
-0.00017977
-0.00025344
-0.00022735
-0.00022598
-0.00020199
-0.00010912
-8.4033e-05
-8.9267e-05
-0.00012483
-0.00015762
-0.00014106
-0.00011601
-0.00011447
-0.0001376
-0.00016044
-0.00020196
-0.00021869
-0.00020403
-0.00018557
-0.00016748
-0.00018367
-0.00016084
-5.9981e-05
2.085e-05
3.0142e-05
2.169e-05
-1.6899e-06
-6.6394e-05
-0.00012131
-0.00010981
-7.695e-05
-2.7774e-05
-1.8782e-06
-5.7666e-05
-8.4979e-05
-2.3578e-05
5.0963e-05
7.83e-05
8.0028e-05
0.00011834
9.7222e-05
5.2074e-05
1.4072e-05
8.2359e-07
1.7751e-05
2.4255e-05
8.5637e-05
0.00010817
5.8074e-05
9.0661e-05
0.00016823
0.00018621
0.00015629
0.00011179
0.00010285
9.8994e-05
9.7957e-05
8.4117e-05
5.6295e-05
5.7949e-05
5.2175e-05
3.5467e-05
9.6799e-05
0.00021406
0.00029082
0.00031061
0.00022009
0.00015895
0.00018337
0.00017942
0.00015705
0.00013868
0.00011505
9.1705e-05
3.2536e-05
2.3553e-05
0.00012609
0.00021622
0.00019225
9.3065e-05
2.1523e-05
-3.4779e-05
-0.00010501
-0.00011518
-6.9506e-05
4.106e-06
5.4156e-05
5.8071e-05
0.0001037
0.00012199
6.9647e-05
-3.8633e-06
-9.2888e-05
-0.00020099
-0.00033977
-0.00046665
-0.00052018
-0.00052757
-0.00047435
-0.00038129
-0.00030471
-0.00025783
-0.00022915
-0.00019889
-0.00020521
-0.00018855
-0.00011306
-7.5395e-05
-0.0001379
-0.00012849
-9.0812e-06
3.3108e-05
-3.6337e-06
-8.101e-05
-0.00025811
-0.00038573
-0.00044333
-0.00049834
-0.00045299
-0.00037361
-0.0004091
-0.00041626
-0.00028953
-0.00026241
-0.00028797
-0.0002678
-0.0002773
-0.00036665
-0.00054485
-0.00067033
-0.00062961
-0.00062697
-0.00066712
-0.0006549
-0.00072728
-0.00081888
-0.00077302
-0.00071715
-0.0007211
-0.00070681
-0.00065326
-0.00071542
-0.00075421
-0.00062129
-0.00054464
-0.00055265
-0.0005336
-0.00050363
-0.0005454
-0.00052268
-0.00037689
-0.00032238
-0.00029567
-0.00028607
-0.00029477
-0.00019475
-0.00015653
-0.00024964
-0.00037522
-0.00037474
-0.00023756
-0.00024173
-0.00025433
-0.00012773
-0.00012649
-0.00027341
-0.00032746
-0.00029434
-0.00033499
-0.00040162
-0.0003433
-0.00027144
-0.00030185
-0.00024509
-0.00018512
-0.00017894
-0.00013211
-0.00010058
-0.00010568
-0.00013495
-0.00020334
-0.00032726
-0.00031997
-0.00022582
-0.00017658
-0.00020479
-0.00014892
-4.4293e-05
-0.00012091
-0.00021563
-0.00013833
-3.7594e-05
-2.0072e-05
-4.7421e-05
-8.2717e-05
-3.3305e-05
-3.8259e-07
8.7478e-05
0.0001408
-2.7513e-05
-0.00013343
-8.2145e-05
-7.1601e-05
-0.00015032
-0.00021657
-0.0001773
-0.00016086
-0.00019673
-0.00014975
-0.00012326
-8.2209e-05
-1.7327e-05
-3.7117e-05
-6.4919e-05
-3.3372e-05
-4.731e-05
-0.00010446
-0.00012338
-0.00014353
-0.00017546
-9.3702e-05
2.2585e-05
-2.7293e-05
-9.7038e-05
-0.00010473
-8.7761e-05
-7.5508e-05
-0.00020553
-0.00029692
-0.00027952
-0.00032497
-0.0003626
-0.00033962
-0.00029771
-0.00026733
-0.00018091
-3.4827e-05
3.459e-06
-4.4824e-05
-0.00011467
-0.00028141
-0.00043197
-0.00052682
-0.00044937
-0.0003692
-0.00038392
-0.00040865
-0.00037261
-0.00028679
-0.00026341
-0.00023603
-0.00022984
-0.00026535
-0.00026751
-0.00025755
-0.00022025
-0.00021665
-0.00021066
-0.00016197
-0.0001513
-0.00017101
-0.00018775
-0.00035583
-0.00045296
-0.00046384
-0.00044897
-0.00029404
-0.00015742
-0.00010014
-1.6939e-05
9.3711e-05
0.00013805
0.00011254
8.198e-05
5.7051e-05
-4.2824e-05
-0.00011267
-9.1368e-05
-5.5723e-05
7.7435e-07
5.8954e-05
0.00017767
0.00022127
0.00018404
0.00017666
0.0001938
0.00020181
0.00017732
0.00018305
0.00017385
0.00012646
0.00015809
0.00016837
0.00012328
0.00010384
8.8961e-05
0.0001059
0.00014949
0.00011523
3.0887e-05
7.3034e-06
4.7933e-05
0.00010507
6.4699e-05
-8.2759e-06
4.0327e-05
0.00010813
9.6743e-05
0.00011765
9.3938e-05
8.0216e-05
0.0001189
0.00016257
0.00016981
0.0001444
8.6251e-05
-4.2664e-05
-8.5879e-05
-5.1124e-05
3.858e-05
0.00014385
0.00021199
0.00030824
0.00036568
0.00036309
0.00034538
0.00027699
0.00014535
1.7e-05
-3.4899e-05
-4.2475e-05
-5.6969e-05
-7.5934e-06
-1.7309e-05
-9.5438e-05
-7.0869e-05
4.1689e-05
4.341e-05
1.3693e-05
-6.4369e-05
-0.00021857
-0.0002721
-0.00022057
-0.00022531
-0.0002573
-0.00017632
-0.00011431
-0.00016072
-0.00016795
-0.00012447
-0.00018088
-0.00028577
-0.00039535
-0.00052093
-0.00064982
-0.00063284
-0.00051077
-0.00044595
-0.00039931
-0.00024298
-0.00010781
-3.8143e-05
-3.6044e-05
-0.00011873
-0.00015716
-0.00020045
-0.0002265
-0.00029415
-0.00034986
-0.00035168
-0.00032736
-0.00024685
-0.00023523
-0.00021639
-0.00016419
-0.00018046
-0.00018728
-0.00012525
-0.00017209
-0.00022906
-0.00021866
-0.00026667
-0.00023783
-0.00011033
1.8062e-05
9.5424e-06
-0.00010582
-0.00019832
-0.00023213
-0.00016416
-8.6701e-05
-8.7506e-06
7.4959e-05
9.2017e-05
3.9765e-05
1.9966e-05
0.00015316
0.00019317
0.00012147
0.0001276
4.7639e-05
-0.00010724
-0.00024021
-0.00028767
-0.00030792
-0.00035823
-0.00023325
-3.6097e-07
0.00012583
0.00016161
0.00021156
0.00021871
6.7809e-05
-0.00011924
-0.00015893
-0.00010405
-0.00012036
-0.00017324
-9.6386e-05
-4.7468e-07
2.5806e-05
6.7944e-05
7.8984e-05
0.00015039
0.00030906
0.0003101
0.00015971
1.252e-05
-0.00011125
-0.00022239
-0.00023934
-0.00014783
-6.2295e-05
-4.4059e-05
1.5291e-05
7.1016e-05
2.5165e-05
2.5661e-05
8.0274e-05
1.2161e-05
-0.00014662
-0.0002562
-0.00033368
-0.00036639
-0.00036053
-0.00043312
-0.00048343
-0.00041909
-0.00029258
-0.00019664
-0.00026423
-0.00032007
-0.00034626
-0.00042312
-0.00045654
-0.00046803
-0.00050426
-0.00058403
-0.00050854
-0.00037094
-0.00032519
-0.00034906
-0.00034129
-0.00028258
-0.00031913
-0.00035798
-0.00034233
-0.0003096
-0.00036236
-0.00041508
-0.00037068
-0.00036029
-0.00045825
-0.00046888
-0.00038808
-0.0004063
-0.00036748
-0.00024264
-0.00019721
-0.00025678
-0.00024903
-0.0001565
-4.6117e-05
2.589e-05
4.0698e-06
-1.4494e-05
-3.0321e-05
-8.5441e-05
-0.00010441
-0.00012668
-0.00018689
-0.0001535
-8.1754e-05
-9.0549e-05
-4.7363e-05
5.6472e-05
8.0756e-05
2.9158e-05
-4.7838e-05
-0.00013607
-0.00017618
-0.00011849
-9.9063e-05
-9.0995e-05
5.8423e-05
0.00021403
0.0002557
0.00033281
0.00036997
0.00029895
0.00023541
0.00024392
0.00026132
0.00017485
9.8746e-05
0.00016565
0.00020849
0.00023828
0.0003611
0.0004425
0.00043027
0.0003377
0.00028104
0.00029797
0.0003025
0.00026494
0.00022587
0.00027266
0.00027233
0.00028874
0.0003729
0.00039968
0.00035607
0.00029924
0.00030333
0.00024425
0.0002082
0.0002542
0.00029089
0.00031405
0.00022647
0.00020443
0.00029775
0.00026689
9.2264e-05
4.3476e-05
9.331e-05
1.6705e-05
7.78e-05
0.00027121
0.00024173
0.00020576
0.00027949
0.00024594
0.00021727
0.00017962
5.7574e-05
-7.1563e-05
-0.00010334
-0.00011386
-0.00020854
-0.00024262
-0.00015717
-8.4117e-05
-0.00013327
-0.00013037
-7.3079e-05
-7.3694e-05
-7.6609e-05
-6.0424e-05
-9.5456e-05
-0.00013869
-0.00013422
-0.00013744
-0.00024079
-0.00027377
-0.00027474
-0.00036417
-0.00037118
-0.00027203
-0.00016579
-0.00021864
-0.00038031
-0.00041242
-0.00031035
-0.00026465
-0.00036874
-0.00047519
-0.00044678
-0.00035693
-0.00034453
-0.00036909
-0.0003276
-0.00031052
-0.00043214
-0.00052075
-0.00047733
-0.0004832
-0.00051556
-0.00043044
-0.00047792
-0.00058621
-0.000569
-0.00051326
-0.00048179
-0.00045844
-0.00041708
-0.00040592
-0.00033399
-0.0002273
-0.00024623
-0.00026761
-0.00027381
-0.00030577
-0.00037879
-0.0004126
-0.00036136
-0.00038652
-0.00046063
-0.00048734
-0.00044849
-0.00035596
-0.00031922
-0.00031077
-0.00023777
-0.00021174
-0.00030737
-0.00045146
-0.00053648
-0.00055304
-0.00049605
-0.00046378
-0.00051069
-0.00043133
-0.00034424
-0.00039789
-0.00040269
-0.00032997
-0.00032129
-0.00039817
-0.00042582
-0.00041173
-0.00041407
-0.00047138
-0.00046194
-0.00042807
-0.00042506
-0.00040757
-0.00036339
-0.00033929
-0.00031088
-0.00030709
-0.00037399
-0.00039059
-0.00033271
-0.00026797
-0.00024842
-0.000279
-0.00032804
-0.00039944
-0.00042247
-0.00041654
-0.00042001
-0.0004469
-0.00042798
-0.00038343
-0.00032982
-0.0002913
-0.00025404
-0.00019962
-0.00016083
-0.00025578
-0.00036745
-0.00041898
-0.00043828
-0.0003524
-0.00035701
-0.00042185
-0.00044902
-0.00044481
-0.00039878
-0.00035159
-0.00034745
-0.00024221
-0.0001047
-0.00014985
-0.00017953
-0.00019192
-0.00028599
-0.00033428
-0.00031838
-0.00037715
-0.00048018
-0.00050643
-0.00048433
-0.0004657
-0.00046093
-0.00039616
-0.00031185
-0.00015973
-0.00010499
-0.00013496
-7.5747e-05
-4.7925e-05
-4.8522e-05
-0.00010655
-0.00017398
-0.00021295
-0.00020127
-0.00016855
-9.9218e-05
-2.7275e-05
-0.00010786
-0.00013147
-6.1117e-05
-3.4372e-05
5.9144e-06
0.0001046
0.00012226
3.5613e-05
-8.0072e-05
-9.3179e-05
-3.1526e-05
4.1718e-05
4.9766e-05
-7.3859e-05
-0.00011773
-7.0429e-05
-0.00011302
-0.00017393
-9.4037e-05
-1.1137e-05
1.8064e-05
8.0558e-05
0.00016961
0.00022328
0.00020952
0.00024815
0.00023037
7.3402e-05
-9.8451e-05
-0.00017954
-0.00028636
-0.00033689
-0.00025991
-0.00022209
-0.00014326
-4.1973e-05
3.7132e-05
7.542e-05
7.1484e-05
5.6961e-05
-4.8227e-06
-9.3829e-05
-6.019e-05
-0.0001211
-0.00030758
-0.0003321
-0.00025405
-0.00025024
-0.00024209
-0.00010443
-2.7354e-06
-2.0903e-05
-4.734e-05
-3.813e-05
-0.00015082
-0.00034853
-0.00036933
-0.00029568
-0.00027266
-0.00018026
-0.00010242
-0.00014624
-0.00028756
-0.00034746
-0.00030338
-0.00028775
-0.00027587
-0.00021131
-0.00011419
-9.5529e-05
-0.00018946
-0.0002384
-0.00020563
-0.00022834
-0.00019888
-0.00014197
-0.0002053
-0.00025089
-0.00026132
-0.00027979
-0.00028918
-0.00023371
-4.2999e-05
0.00013624
0.0001883
0.00019568
0.00017263
7.7101e-05
-4.233e-05
-0.00012718
-0.00015626
-5.5063e-05
9.6823e-05
0.00013447
-3.2784e-05
-0.00012641
-2.2412e-05
-4.6066e-05
-0.00012755
1.9753e-05
0.00012671
0.00016311
0.00023098
0.00026969
0.0002392
0.00010462
-2.6678e-05
-6.2865e-05
-1.3851e-05
3.6129e-05
7.5789e-05
8.6774e-05
2.4656e-05
2.4746e-05
0.00011209
0.00014774
0.00015588
0.00016994
0.00012957
1.9995e-05
-9.0212e-06
-3.4756e-06
-9.1269e-05
-2.3243e-05
0.00014898
0.00022272
0.00031073
0.00034278
0.00025591
0.00021808
0.00021311
0.00016979
0.00010847
8.6454e-05
9.5636e-05
0.00018676
0.00026092
0.00025775
0.00028219
0.00029451
0.00031122
0.00034084
0.00027004
0.00012149
2.0841e-05
1.3488e-05
3.739e-06
-3.5046e-05
7.1142e-05
0.00018297
0.00015837
0.00012864
-2.0758e-05
-0.00011934
-0.00013619
-0.00023172
-0.00028182
-0.00039359
-0.00038491
-0.00032249
-0.00032522
-0.00022678
-0.00018388
-0.00018927
-0.00014924
-0.00014914
-0.00019702
-0.00019103
-0.00017642
-0.00024976
-0.00031275
-0.0003829
-0.00044326
-0.0003802
-0.00023012
-0.00023349
-0.00030272
-0.0003075
-0.00027485
-0.00025112
-0.00028283
-0.0003068
-0.00028619
-0.00034236
-0.00048222
-0.00055721
-0.00053139
-0.00035856
-0.00018146
-0.00012248
-0.00015483
-0.00018911
-0.00013907
-0.00019083
-0.00025508
-0.00022678
-0.0002305
-0.0002452
-0.00026139
-0.00033801
-0.00040421
-0.00040992
-0.00044391
-0.00041211
-0.00027096
-0.00020064
-0.0002768
-0.00034068
-0.000311
-0.00037102
-0.00041535
-0.00030158
-0.0001867
-0.00012752
-0.00013219
-0.00023755
-0.00038437
-0.00046256
-0.00051713
-0.00052445
-0.0004886
-0.00036782
-0.00024175
-0.00011997
1.2541e-05
8.529e-05
3.4379e-05
-8.2039e-06
4.7186e-06
2.1597e-05
2.651e-05
-3.3063e-05
-0.00018795
-0.00033931
-0.00033325
-0.00015233
2.1993e-05
2.9997e-05
3.7375e-05
0.00013226
0.00018647
0.00021231
0.00017285
2.9166e-05
-0.00017044
-0.00027969
-0.00021397
-0.00019368
-0.0002459
-0.00020447
-0.00010576
2.3455e-05
5.4108e-05
-2.8856e-05
-2.5587e-05
6.8457e-05
1.0934e-05
-0.00013815
-0.00017555
-0.0001536
-0.00017711
-0.00016855
-0.00015902
-0.00013736
-5.264e-05
2.1577e-05
-5.5285e-05
-0.00021771
-0.00027504
-0.00028235
-0.00025679
-0.00017884
-4.6478e-05
2.1945e-05
1.0561e-05
1.3388e-05
-8.3036e-05
-0.00015854
-8.7054e-05
-0.00014601
-0.00025139
-0.00028177
-0.00034694
-0.00037407
-0.00028374
-0.00024612
-0.00021158
-0.00024116
-0.00026027
-0.00019099
-0.00024614
-0.00029543
-0.00026739
-0.00031611
-0.00041179
-0.00042965
-0.00037048
-0.00034683
-0.00034879
-0.00030457
-0.00023883
-0.0002494
-0.00026661
-0.00028774
-0.00042037
-0.00044709
-0.00033008
-0.00034301
-0.00034508
-0.00020308
-7.8647e-05
-5.7172e-05
-7.5528e-05
-0.0002303
-0.00038145
-0.00039213
-0.0004377
-0.00053971
-0.00059692
-0.00062268
-0.00049228
-0.00023215
-0.00013384
-0.00010854
6.1014e-06
4.0931e-05
-1.0777e-05
-1.6058e-05
-7.2545e-05
-0.00019284
-0.00028961
-0.00023288
-0.00018284
-0.0001155
-8.4741e-05
-0.00015549
-0.00012395
6.2767e-06
5.4705e-05
1.9004e-05
1.0297e-05
6.6088e-05
0.00019664
0.00030277
0.00028134
0.00024633
0.00029525
0.00027971
0.00014518
8.0614e-05
6.5041e-05
-6.2934e-05
-0.00014111
-0.00012481
-0.00011489
-5.3051e-05
3.8962e-05
0.00020283
0.0003775
0.00058606
0.00064775
0.00051733
0.00042165
0.00027665
0.00014966
0.00010705
6.7865e-05
4.2323e-05
6.0208e-05
9.0342e-05
0.00016212
0.00030465
0.00044226
0.00037337
0.00030166
0.00037825
0.00040778
0.00035945
0.00018608
3.6151e-05
3.1017e-06
-1.7634e-05
-4.152e-05
-4.0998e-05
6.1236e-06
0.00010736
0.00013407
0.00010965
7.9474e-05
-1.5782e-05
-2.9019e-05
-1.0576e-05
-0.00011387
-0.00015017
-0.00016022
-0.00022882
-0.00021506
-0.00015497
-0.00010635
-3.9017e-05
-1.9812e-05
-7.9286e-05
-0.00012709
-0.00022432
-0.00035577
-0.00041968
-0.00045307
-0.00044096
-0.00042724
-0.00040407
-0.00030752
-0.00021619
-0.00020299
-0.00023683
-0.00027351
-0.00036001
-0.000457
-0.00044216
-0.00043414
-0.00044201
-0.00044798
-0.00043001
-0.00047791
-0.0004172
-0.00033722
-0.0004004
-0.00044175
-0.00045315
-0.00051624
-0.00053819
-0.00047184
-0.00050454
-0.00064915
-0.00075605
-0.00070469
-0.00053462
-0.00045839
-0.00052461
-0.00055311
-0.0005923
-0.0006547
-0.00051399
-0.0003538
-0.00038778
-0.00044594
-0.00042515
-0.0004265
-0.00042871
-0.00036618
-0.00032508
-0.00039086
-0.00045404
-0.00046481
-0.00043318
-0.00037189
-0.00040059
-0.00045049
-0.00044454
-0.000427
-0.00037513
-0.00018937
-0.00015457
-0.00035066
-0.00033976
-0.00020632
-0.0002444
-0.00036576
-0.000491
-0.00053104
-0.00049879
-0.00043983
-0.00034904
-0.00032506
-0.00027688
-0.00020073
-0.00022412
-0.00031805
-0.00042674
-0.0004533
-0.00036297
-0.00026817
-0.00025942
-0.0003348
-0.00032555
-0.00027579
-0.0003323
-0.00038266
-0.00024735
-0.00017169
-0.00036176
-0.00046398
-0.00039305
-0.0003184
-0.00040763
-0.00058309
-0.00055778
-0.00040711
-0.00031093
-0.00022494
-0.00019503
-0.00019302
-6.6502e-05
9.4756e-05
0.00016091
0.00020648
0.00025957
0.00013637
2.0136e-05
-5.254e-05
-0.00020029
-0.00028527
-0.00029801
-0.00018447
-2.5388e-05
1.7615e-05
0.00011009
0.00023512
0.00018515
0.00012596
6.9708e-05
-2.0165e-05
-9.8913e-05
-0.00012041
-5.2937e-05
-0.00012285
-0.00016796
-7.9933e-05
-0.00016454
-0.00022751
-0.00016005
-0.00013299
-0.00013249
-0.00021744
-0.00030431
-0.00020919
-0.00013818
-0.00024859
-0.00027139
-0.00024804
-0.00030215
-0.00034725
-0.00036939
-0.00035406
-0.0003992
-0.00048118
-0.00050609
-0.00047289
-0.00042877
-0.00045121
-0.00046152
-0.00043105
-0.00045504
-0.00045682
-0.000488
-0.00056964
-0.00054566
-0.00053074
-0.00057621
-0.00052331
-0.00047665
-0.00055998
-0.00063535
-0.00040616
-8.5966e-05
-3.0158e-05
-1.7656e-05
-3.7088e-05
-0.00016376
-0.00024775
-0.00028896
-0.00031569
-0.00034842
-0.00042879
-0.00047387
-0.00045873
-0.00025105
-6.8477e-05
-9.5326e-05
-0.00020357
-0.00024955
-0.00032558
-0.00049014
-0.0005849
-0.00054849
-0.00062155
-0.0006816
-0.00051867
-0.00037609
-0.00031093
-0.00021058
-0.00014991
-0.00020087
-0.00034398
-0.00054497
-0.00062966
-0.00052238
-0.00038512
-0.00035206
-0.00025784
-0.00010101
-5.0188e-05
-0.00012637
-0.00018914
-0.00019899
-0.00028686
-0.00031821
-0.00019184
-0.00011022
-7.6618e-05
-2.2744e-05
8.7671e-05
0.00013189
0.00011373
0.00016694
0.00013689
-7.7353e-05
-0.00019136
-7.92e-05
-3.2204e-05
7.931e-06
4.2563e-05
4.2908e-06
-1.1954e-05
-3.9859e-05
-3.4108e-05
4.4075e-05
8.1518e-05
3.2411e-05
-3.911e-05
-2.5615e-05
-8.7543e-05
-0.00027242
-0.00033258
-0.00025356
-0.00012596
-0.00015586
-0.00015027
1.0206e-05
3.9259e-05
4.1076e-05
6.4027e-05
-5.3402e-05
-0.00016976
-0.00015117
-8.7177e-05
-9.8536e-05
-0.00013633
-0.00018165
-0.00024278
-0.00029866
-0.00033548
-0.00027396
-0.00018647
-0.00010815
-0.00016889
-0.00038336
-0.00059329
-0.00066954
-0.00061205
-0.00052891
-0.00052039
-0.00057799
-0.0005648
-0.00038987
-0.00023162
-0.00030444
-0.00042074
-0.00042285
-0.00046675
-0.00054243
-0.00049625
-0.00037891
-0.00039163
-0.00040049
-0.00033611
-0.00034486
-0.00033388
-0.00025043
-0.00018541
-0.00020645
-0.00028771
-0.00036518
-0.00041228
-0.00036088
-0.00024442
-0.00017683
-0.00016782
-0.0001143
-2.4147e-05
-1.3631e-05
-7.1842e-06
-4.4281e-05
-0.00014017
-0.00031955
-0.00058739
-0.00068769
-0.00056801
-0.00049927
-0.00048042
-0.00038203
-0.00021224
-3.1264e-05
0.00011636
0.00026358
0.00033908
0.0002673
0.00015124
0.00011557
0.00016749
0.0002616
0.0002462
0.00020779
0.00028301
0.00035914
0.00039013
0.00031794
0.00030723
0.00044455
0.00047463
0.00033894
0.00028975
0.0003495
0.00042864
0.00052602
0.00066394
0.00076248
0.00074182
0.00076027
0.00072022
0.00061485
0.00053352
0.00044514
0.00034478
0.00032042
0.00039146
0.00042145
0.00040669
0.00036391
0.00047139
0.00058639
0.00058936
0.00059272
0.00056708
0.00048788
0.00039227
0.00038164
0.00041819
0.00036764
0.00024191
0.00016471
0.00013328
0.00010708
0.00010001
0.0001938
0.00029514
0.0004299
0.00042314
0.00028661
0.00020872
0.00012838
-6.2803e-05
-9.9443e-05
-1.1725e-05
-3.65e-05
-9.5341e-05
-7.4279e-05
1.7085e-06
-5.3572e-05
-0.00023847
-0.00030528
-0.00036577
-0.00052598
-0.00051779
-0.00035588
-0.00030853
-0.00046369
-0.00063038
-0.00060707
-0.0005441
-0.00049789
-0.00039219
-0.00045805
-0.00063259
-0.00061614
-0.0005517
-0.00052703
-0.00047782
-0.00050595
-0.00059905
-0.00056827
-0.00052284
-0.00065709
-0.00073715
-0.00071933
-0.00075138
-0.00088493
-0.00099998
-0.0009846
-0.00081396
-0.00068505
-0.00075051
-0.0006469
-0.00042277
-0.00030659
-0.00028255
-0.00031318
-0.00033009
-0.00042856
-0.0005418
-0.00054533
-0.00047132
-0.00048887
-0.00055864
-0.00057576
-0.00059065
-0.00052989
-0.0003714
-0.00025126
-0.00017854
-0.00010748
-8.0169e-05
-1.2255e-05
0.00014998
0.00019094
1.8655e-05
-0.00014681
-4.1496e-05
9.7892e-05
0.00017101
0.00028512
0.00025837
0.000196
0.00033434
0.00044739
0.0003779
0.0002982
0.00030695
0.00029521
0.00020734
0.00028396
0.00048634
0.00059148
0.00068941
0.0007952
0.00084656
0.00082029
0.00074704
0.00062809
0.00047101
0.00038838
0.00032839
0.0003385
0.00043295
0.00054191
0.0006538
0.00061187
0.00051227
0.00056969
0.00054291
0.00035142
0.00023816
0.00020222
0.00015334
9.3517e-05
8.3113e-05
0.0001799
0.00019902
0.00021343
0.0003239
0.00038254
0.00041034
0.00033644
0.00024996
0.00021273
8.5434e-05
4.6791e-05
0.00013776
0.00018611
0.00014674
9.3761e-05
0.00014033
0.000144
0.00012442
0.00016459
9.7557e-05
8.5649e-07
-0.00010311
-0.00022653
-0.00024804
-0.00022736
-0.00030922
-0.00035322
-0.00033645
-0.00032582
-0.00021321
-0.00023102
-0.00038813
-0.00048757
-0.00060081
-0.00060882
-0.00055759
-0.00053685
-0.00055998
-0.00065298
-0.00078907
-0.00093913
-0.0011556
-0.0013103
-0.0013038
-0.001188
-0.00096166
-0.00081215
-0.00084285
-0.00088174
-0.00087745
-0.00090113
-0.00091056
-0.00092466
-0.00096952
-0.00094372
-0.00088492
-0.00093579
-0.00090301
-0.00080487
-0.00079356
-0.00072929
-0.00053283
-0.00024716
-5.872e-05
-8.2551e-05
-0.0002323
-0.00039583
-0.00061163
-0.00070079
-0.00068002
-0.00074818
-0.0007557
-0.00054364
-0.00042537
-0.00047498
-0.00039519
-0.00037877
-0.00041375
-0.000372
-0.0002553
-5.0913e-05
7.2794e-05
5.589e-06
-6.9221e-05
-0.00013047
-0.00017312
-6.2239e-05
2.6081e-05
-3.8837e-05
-0.00023535
-0.00036251
-0.00044403
-0.00043258
-0.00034067
-0.00022788
-6.5998e-05
0.00025502
0.00060593
0.00058241
0.00053958
0.00058702
0.0004387
0.00043605
0.00054489
0.00049397
0.00041589
0.00038565
0.00038755
0.00035027
0.0003452
0.00049204
0.00064298
0.00060513
0.00053284
0.00049169
0.00032823
0.00021733
0.00016454
6.7976e-05
0.00013483
0.00028453
0.00044468
0.00066422
0.00085715
0.00088554
0.00073004
0.00058694
0.00049054
0.00020848
9.7025e-06
0.00017525
0.00022504
9.1393e-05
0.00018133
0.00033783
0.0004503
0.00051655
0.00044989
0.00036715
0.00032534
0.00027366
0.00013567
9.0978e-05
0.00020232
0.00022001
-2.7631e-05
-0.00016082
-2.0844e-05
3.2216e-05
-3.214e-05
-0.00011922
-0.00017694
-0.0002372
-0.0001889
-0.00016398
-0.00025614
-0.00023616
-0.00017202
-0.00013394
-0.00013405
-0.00016042
-0.00024133
-0.00031616
-0.00050913
-0.0007241
-0.00079049
-0.00086946
-0.00088844
-0.00089772
-0.00092452
-0.00078759
-0.00057286
-0.00040842
-0.00017599
8.9158e-06
-6.4656e-05
-0.00022541
-0.00035477
-0.00047684
-0.0006233
-0.00062422
-0.00051909
-0.00043524
-0.00032474
-0.00027734
-0.00029171
-0.00028976
-0.00026955
-0.00029298
-0.00036422
-0.00044914
-0.00048539
-0.00042002
-0.00042827
-0.00040318
-0.00026029
-0.00023901
-0.00027857
-0.00022049
-0.00021689
-0.0001596
-9.2722e-05
-0.00021215
-0.00030779
-0.00037978
-0.00048048
-0.00045542
-0.00028797
-0.00025788
-0.00028533
-0.00015801
-0.00014625
-0.00019802
-0.00016005
-0.00015353
-0.00031236
-0.00048616
-0.00045974
-0.00028034
-4.5202e-05
9.2143e-05
7.5072e-05
8.5998e-05
0.00022657
0.0002413
6.9878e-05
-2.3137e-05
-4.2609e-06
-3.6443e-06
-7.3802e-05
3.7322e-05
0.00023022
0.00024255
0.00017234
0.00018787
0.00025971
0.00023816
0.00017773
0.0001282
5.8968e-05
0.00011048
0.00013779
8.327e-05
1.7091e-05
-6.5758e-05
-4.7659e-05
-9.6574e-05
-7.9512e-05
8.0518e-05
4.4019e-05
-4.461e-05
-2.4235e-05
-1.6092e-05
-2.0594e-05
7.495e-09
6.2944e-06
-2.4303e-06
5.2807e-07
-8.0804e-05
-0.00033447
-0.00036096
-9.2655e-05
6.6695e-05
8.9888e-05
0.0001136
0.00013731
0.0001183
0.00010006
0.00011177
5.9201e-05
-0.00021048
-0.00041681
-0.00043936
-0.00049304
-0.00045683
-0.00024868
-7.1527e-05
2.8906e-05
8.958e-05
8.5841e-05
4.9993e-05
-2.2043e-05
-0.00010587
-0.0001886
-0.00015377
-0.00011501
-0.00019647
-0.0001865
-0.00017069
-0.00023892
-0.00027976
-0.00032017
-0.00035677
-0.00035527
-0.00031142
-0.00029188
-0.00032033
-0.0003398
-0.00037617
-0.00038185
-0.00031602
-0.00017488
5.091e-05
8.8431e-05
-8.2398e-05
-0.00019094
-0.00032567
-0.00038076
-0.00029291
-0.00028268
-0.00046214
-0.00056128
-0.00044339
-0.00019888
-3.659e-05
-7.1033e-06
9.4233e-05
0.00010141
-0.00011304
-0.00034862
-0.00038321
-0.00037005
-0.00052866
-0.00060901
-0.00045937
-0.00021924
-6.9944e-07
0.00022211
0.000344
0.00032791
0.00029641
0.0002822
0.00012536
-0.00010015
-5.2605e-05
3.7185e-05
-9.2947e-07
7.7839e-05
0.00020715
0.00027653
0.00032301
0.00029943
0.00028604
0.00026117
0.00011406
0.00012963
0.00015567
4.9059e-05
-2.3652e-06
-5.6748e-05
-0.00010274
-0.00010837
-3.5699e-05
0.00015972
0.00034937
0.00025291
0.00016115
4.7939e-05
-3.8158e-05
1.9638e-05
-5.0829e-05
-0.00013301
-8.6512e-05
-2.2895e-05
0.00015182
0.00030067
0.00030738
0.00030768
0.00027936
0.0002057
0.00020455
0.0001682
1.6668e-05
-0.00011042
-0.00012642
-0.00011225
-1.7098e-05
9.1937e-05
0.00014542
0.00023759
0.00027313
0.00016369
2.799e-05
5.0742e-05
-0.00012328
-0.00031419
-0.00026631
-0.00033994
-0.0003474
-0.000275
-0.00015802
-1.1322e-05
8.2904e-05
6.0324e-05
9.5045e-05
-3.7195e-05
-0.00019367
-0.00027325
-0.00015932
3.4779e-05
-1.8245e-05
6.8312e-05
7.8174e-05
-2.7061e-05
5.8095e-05
4.479e-05
-5.0766e-06
-5.0057e-05
-0.00026077
-0.00049946
-0.00046328
-0.00040324
-0.00051322
-0.00050851
-0.00035906
-0.00025722
-0.00019631
-0.00013114
-0.00013826
-0.00012025
-0.00013798
-0.00025622
-0.0002048
-0.00013724
-0.0001795
-0.00032365
-0.00041599
-0.00034827
-0.00026617
-0.00019899
-5.4534e-05
-5.347e-05
-0.00023914
-0.00020288
-0.0001013
5.6876e-05
0.00018256
3.8369e-05
-0.00011192
-4.2916e-05
5.3668e-05
-8.5513e-06
3.922e-05
0.0001195
4.1878e-05
2.7707e-06
4.3132e-05
4.1742e-05
5.9634e-05
9.3348e-05
-2.498e-05
-7.6768e-05
0.00013957
0.00028607
0.00022883
9.8048e-05
-7.4522e-05
-0.00016952
-0.00016197
-7.6751e-05
4.2826e-05
0.00013882
0.00027485
0.00038127
0.00049598
0.00046619
0.00030208
0.00024648
0.00015879
0.00011118
0.00014817
0.00020777
0.00019136
0.00013425
0.00019965
0.0001566
4.2013e-05
0.00013054
9.4211e-05
2.4019e-05
8.9314e-05
0.00010827
0.00021329
0.00037519
0.00046757
0.0004858
0.00046791
0.00040626
0.00035545
0.00019827
-7.6312e-05
-0.00023615
-0.00030405
-0.00025212
-0.00018478
-0.0001635
-6.4465e-06
0.00021598
0.00029271
0.00033728
0.0003607
0.00018249
1.6364e-06
-0.0001862
-0.00045001
-0.00050434
-0.00040197
-0.00031989
-0.00026003
-0.00012483
-9.9568e-05
-1.322e-06
0.00026889
0.00043081
0.00047461
0.00037715
0.00016742
-1.5592e-05
-9.0837e-05
-0.00022947
-0.00039128
-0.0004541
-0.00047151
-0.0005733
-0.0005508
-0.00046775
-0.00049001
-0.00039407
-0.00026657
-0.00013731
4.3532e-05
0.0001988
9.931e-05
-0.00022984
-0.00035723
-0.00030652
-0.00027208
-0.00025812
-0.00024851
-0.00021806
-0.00018713
-8.7219e-05
-9.116e-05
-0.00025216
-0.00038377
-0.00043334
-0.0003189
5.3555e-05
0.00038308
0.00035189
0.00011787
-0.00010164
1.4428e-05
0.00012178
1.3326e-06
-6.265e-05
-0.00020293
-0.00043703
-0.00046227
-0.00033123
-0.0002199
-8.2654e-05
5.9659e-05
0.00016597
0.00029262
0.00033004
8.5422e-05
-0.00017773
-0.00031233
-0.00044479
-0.00049718
-0.00038985
-0.00016826
4.6898e-05
0.00020183
9.4064e-05
-7.7102e-05
-0.00015581
-0.00028349
-0.00035499
-0.00036591
-0.0004016
-0.00043994
-0.00047914
-0.00045824
-0.00034505
-0.00014889
-0.00012504
-0.00018384
-0.00011241
-2.5856e-05
1.7891e-05
-8.7299e-06
-0.00019247
-0.00041539
-0.00041555
-0.00020747
-0.00014008
-0.00017635
-0.00022655
-0.0003086
-0.00040352
-0.00044181
-0.00058339
-0.00070485
-0.00059324
-0.00052267
-0.00047733
-0.00037797
-0.00022631
-0.00013577
-0.0003566
-0.00053071
-0.00047813
-0.00049013
-0.00046783
-0.00051636
-0.00063421
-0.00057442
-0.00047942
-0.00041347
-0.00022209
-9.0251e-06
-5.8093e-06
-6.297e-05
-6.1415e-05
-0.0002531
-0.00040886
-0.00053369
-0.00066875
-0.00059995
-0.00055576
-0.0006753
-0.00066911
-0.00048034
-0.00029949
-0.00016198
-0.00011327
-0.00014579
-3.8611e-05
0.00015268
5.4393e-05
-0.00012915
-0.00022073
-0.00042677
-0.00066908
-0.00076864
-0.00073363
-0.00070506
-0.00065327
-0.00061805
-0.00056736
-0.0003464
-0.00024693
-0.00023548
-8.1942e-05
4.6963e-05
-4.2195e-06
-6.4904e-05
6.0996e-05
0.00017649
0.00015394
0.00020386
0.00017477
2.3705e-05
4.5432e-05
7.875e-05
6.5002e-05
0.00012422
0.00026236
0.0002225
4.1898e-05
-2.6288e-05
-2.4143e-05
-1.3427e-05
-4.438e-06
0.00015618
0.00018906
0.00010999
0.00014077
0.00020085
0.00018128
-1.1953e-05
-0.00021682
-0.00029708
-0.00023792
-0.00029242
-0.00046277
-0.00031382
-9.2554e-06
8.3154e-05
-9.7875e-06
-0.00010821
3.4994e-05
0.00018276
0.00017013
0.00024623
0.00030561
0.00027422
0.00029603
0.00033145
0.00036289
0.00043942
0.0003585
5.8384e-05
-0.00010499
-8.1651e-05
-1.8413e-05
9.8373e-05
0.00015811
0.00021915
0.0003107
0.00027975
0.00025379
0.00024899
0.00010871
1.9856e-05
0.00010937
0.00012748
9.5769e-05
-1.065e-05
-0.00013077
-0.00010364
-0.00013519
-0.00033963
-0.00047044
-0.00041688
-0.00026448
-0.00024278
-0.00024855
-9.8166e-05
-4.4898e-05
-0.00019439
-0.00018733
-0.00011634
-0.00013629
-0.00018855
-0.00019642
-0.00021227
-0.00029563
-0.00038618
-0.00056395
-0.00075022
-0.00073062
-0.00069626
-0.00073826
-0.00054929
-0.00034904
-0.0003906
-0.00036909
-0.00034287
-0.00042131
-0.00043133
-0.00053598
-0.00072625
-0.00076056
-0.0007169
-0.00065711
-0.0005874
-0.00070622
-0.0008384
-0.00074508
-0.00071218
-0.00076752
-0.00061415
-0.00045168
-0.00055154
-0.0005342
-0.00032893
-0.00040269
-0.00036222
-0.00028746
-0.00039404
-0.00055296
-0.00074571
-0.00072675
-0.00078594
-0.0008181
-0.00067533
-0.00056206
-0.00056207
-0.00063821
-0.00066726
-0.00065843
-0.00062276
-0.00059223
-0.00062424
-0.00067673
-0.00069117
-0.00066366
-0.00063842
-0.00056207
-0.00046746
-0.0004596
-0.00044078
-0.00044434
-0.00056255
-0.00059561
-0.00051841
-0.00049901
-0.00045358
-0.00036386
-0.00027822
-0.00017622
-0.00019385
-0.00016678
-9.1411e-06
0.00017199
0.0002642
0.00026002
0.0002379
5.4351e-05
-0.00018295
-9.5191e-05
1.499e-05
6.4278e-05
0.0001638
6.0478e-05
-5.1176e-05
0.00017627
0.00031404
0.00024916
0.0001544
0.00019006
0.00035324
0.00052305
0.00053915
0.00043897
0.00034306
0.00020185
6.0304e-05
-6.2308e-05
-6.7816e-06
-7.7845e-06
-5.6331e-05
2.6028e-05
2.9913e-05
7.3162e-05
0.00027442
0.00044865
0.00047312
0.00047858
0.00038798
0.00033317
0.00038428
0.00031434
0.00028322
0.00024019
0.00016667
0.00019987
0.00033391
0.00051653
0.00064056
0.00053629
0.00036458
0.00029514
9.49e-05
4.2155e-05
0.00010233
0.00011026
0.00012989
0.00010681
0.0002256
0.00034089
0.00037312
0.00033091
0.00023889
0.00012193
6.8795e-05
1.156e-05
-0.00025118
-0.00047046
-0.00043948
-0.00029128
-0.00028565
-0.00025741
-0.00012063
-0.00021418
-0.00028639
-0.0001976
-3.1857e-05
2.19e-05
-8.008e-05
-0.00027275
-0.00027244
-8.4259e-05
-9.2505e-05
-8.5098e-05
1.5525e-05
-0.00010156
-0.00024305
-0.00028802
-0.00019437
-0.00016022
-0.00026224
-0.000352
-0.00041653
-0.00058823
-0.00071051
-0.00049325
-0.00039632
-0.00046768
-0.00038384
-0.00030681
-0.00033649
-0.00037801
-0.000335
-0.00028961
-0.00011904
-5.2966e-05
-0.00033522
-0.00054409
-0.00043379
-0.00016856
-0.00014985
-0.00027004
-0.00042521
-0.00050615
-0.00036945
-0.00033092
-0.0003489
-0.00034819
-0.00031436
-0.00021213
-0.00015593
-0.00021628
2.948e-05
0.00037846
0.00044703
0.00032208
0.00019337
0.00012635
8.6757e-05
3.0176e-05
-8.2945e-05
-0.0001511
-8.1874e-05
-7.1323e-05
-4.6191e-05
9.5589e-05
0.00031168
0.00045252
0.00050547
0.00057881
0.00058221
0.00049064
0.00050357
0.00055168
0.00037423
0.0002595
0.00023304
0.00034218
0.00044638
0.00040128
0.0002719
3.6802e-05
-0.000126
-9.9548e-05
-3.1334e-05
-4.7429e-05
-1.4989e-05
0.00023196
0.00039632
0.00032466
0.00033031
0.00041639
0.00039836
0.00045913
0.00043642
0.00029797
0.00024929
0.0002685
0.00031199
0.0003806
0.00046775
0.00041381
0.00036996
0.00059138
0.00074293
0.00070414
0.00069908
0.00062304
0.00036246
0.00022139
0.0002219
0.0001549
5.2754e-05
-0.00013779
-0.00028906
-0.00026581
-0.00011006
0.00014679
0.00046641
0.00064211
0.00077976
0.00090266
0.00066244
0.00044846
0.00040699
0.00027847
-1.5683e-05
-0.00020842
-0.00021621
-0.00025371
-0.00024375
-0.0001299
-0.00010623
2.6076e-05
0.00019036
5.8966e-05
-9.754e-05
-0.00021433
-0.00041774
-0.00040709
-0.00020464
-0.00018841
-0.00023687
-0.00033436
-0.00045362
-0.00044101
-0.00042915
-0.00046039
-0.00053105
-0.00061724
-0.0006161
-0.00065027
-0.00067392
-0.00066631
-0.00057587
-0.00046553
-0.00049458
-0.00069744
-0.0008656
-0.00080198
-0.00070168
-0.00072128
-0.00069765
-0.00068403
-0.0007488
-0.00055879
-0.00024372
-0.00026719
-0.00036839
-0.00037434
-0.00049336
-0.00059387
-0.00062128
-0.00064905
-0.00055123
-0.0006358
-0.00090958
-0.0010276
-0.00091015
-0.0007811
-0.00071932
-0.00053174
-0.00037805
-0.00022044
-9.9782e-05
-0.0003113
-0.00062548
-0.00080168
-0.00088871
-0.00082022
-0.00055627
-0.00035816
-0.00025516
-0.00014232
-0.00014829
-0.00016285
-0.00030494
-0.00040978
-0.00044935
-0.00054113
-0.00048658
-0.00040658
-0.00038914
-0.00030973
-0.00021674
-0.00024399
-9.3194e-05
0.00013878
0.00035374
0.00036609
0.00011897
5.6014e-05
0.00010273
7.6883e-05
0.00016384
0.00026138
0.00028033
0.00035788
0.00035161
0.00018924
4.8528e-05
9.2092e-05
-2.7024e-05
-0.00022306
2.9062e-05
0.00033074
0.00027876
0.0002448
0.00036887
0.00031799
0.00011771
3.9611e-05
0.00023488
0.00036742
0.00032572
0.00038964
0.00028158
0.00028209
0.00023429
-4.6597e-05
3.948e-05
0.00017684
0.0001065
8.7691e-05
0.00017895
0.00029602
0.00025676
0.00013032
0.00014731
0.00023187
0.00050742
0.00076505
0.00069945
0.00065476
0.00050401
0.00016676
-2.863e-05
9.2323e-06
7.1158e-05
0.00013844
0.00024719
0.00036026
0.00041604
0.00035309
0.00029925
0.00034511
0.00040154
0.00025145
0.00013018
0.00012391
-3.6613e-05
-0.00013483
-0.00027174
-0.00025544
-0.00015405
-4.5276e-05
0.00019281
0.0002282
0.00010115
-0.00015038
-0.00038347
-0.00052694
-0.0006521
-0.00075414
-0.00073614
-0.00053938
-0.0003287
-3.8667e-05
0.00015217
0.00010995
0.00012451
0.00018397
2.4615e-05
-0.00025879
-0.00033081
-0.00049914
-0.00067769
-0.0006444
-0.00056304
-0.00043774
-0.00019703
-0.00016356
-0.0001954
-0.00011773
-0.00025157
-0.00055405
-0.00066225
-0.00070455
-0.00078493
-0.00076751
-0.00074644
-0.00082581
-0.00073718
-0.00043681
-0.0003432
-0.00031955
-0.00040178
-0.00060878
-0.00074041
-0.00089989
-0.001102
-0.0011612
-0.00093209
-0.000638
-0.00054174
-0.00057699
-0.00055813
-0.00044576
-0.00038172
-0.00037127
-0.00045637
-0.00067552
-0.00081117
-0.00084542
-0.00081295
-0.00065
-0.00062538
-0.00059574
-0.00036075
-0.00040977
-0.00049306
-0.00044354
-0.00051153
-0.0006588
-0.00082555
-0.00084677
-0.00086279
-0.00073138
-0.00046839
-0.00042653
-0.00033306
-0.00023592
-0.00027171
-0.00020725
-0.00025542
-0.00071112
-0.00099631
-0.0010251
-0.00099424
-0.00082119
-0.00060808
-0.00047498
-0.00033572
-4.6982e-05
-1.321e-05
-0.00020821
-0.0003959
-0.0007065
-0.0012253
-0.00149
-0.0013744
-0.0013933
-0.0010883
-0.00058982
-0.00058279
-0.00054523
-0.00028591
-0.00017921
-0.0002796
-0.00055424
-0.00076078
-0.00089257
-0.0011784
-0.0014034
-0.001411
-0.0012671
-0.0010286
-0.00079812
-0.00069606
-0.00053558
-0.00034657
-0.00036672
-0.00046164
-0.00048459
-0.00047477
-0.00048934
-0.00032093
-0.00013092
-0.0001274
-0.00012644
-2.0763e-05
5.9238e-05
2.1592e-05
-2.2637e-05
-9.0652e-05
-0.0001277
8.6548e-05
0.00023053
7.3408e-06
-0.00011107
-3.7039e-05
8.5155e-05
0.00013816
0.00015919
0.00018185
-2.6794e-05
-0.00027486
-0.00042731
-0.00052668
-0.00052207
-0.00038803
-0.00027925
-0.00020136
-0.00019023
-0.00021819
-0.00037989
-0.00030914
3.9753e-05
0.0002387
0.00036018
0.0005021
0.00056651
0.00057831
0.00076263
0.00092844
0.0010636
0.0011877
0.0011972
0.0011259
0.00086571
0.00063552
0.00053373
0.00023716
3.6716e-05
0.0001258
0.00027328
0.00043171
0.00066873
0.00098271
0.00099311
0.00088361
0.00084481
0.00067031
0.00051525
0.00059193
0.00066405
0.00056919
0.00040473
-4.6452e-05
-0.00038578
-0.00033289
-0.00019053
3.1596e-05
9.0426e-05
0.0002422
0.00048364
0.0005047
0.00051729
0.00059276
0.0005473
0.00029758
0.00010191
0.00011423
0.00029273
0.00038478
0.00030467
0.00021235
0.00030323
0.00040821
0.00027639
0.00015103
0.00015617
0.00017804
0.00011066
0.00013313
0.00032907
0.00045314
0.00049244
0.00054335
0.0005864
0.00071714
0.00099381
0.0010581
0.00092576
0.0008353
0.00077761
0.00079795
0.00075555
0.00051859
0.00021047
-3.7881e-05
-0.00021641
-5.8398e-05
0.00013588
9.4899e-05
-3.2909e-05
-0.00014647
-0.00023559
-0.00023751
-0.00020671
-0.00020612
-0.00020728
-0.0002238
-0.00033922
-0.0002574
0.00010373
0.00024898
0.0002635
0.00037381
0.00034549
0.00025592
0.00010648
0.00015443
0.00037891
0.00023084
3.3207e-05
-3.0537e-05
-0.00019881
-0.00018771
-0.00017436
-0.00037527
-0.00045275
-0.00055131
-0.00049755
-0.00031735
-0.00027337
-0.00021928
-5.5361e-05
4.5807e-05
-7.3336e-05
-0.00012205
-0.00019197
-0.0004357
-0.00070216
-0.00092284
-0.00097341
-0.00081753
-0.00069928
-0.00051771
-0.00025187
-8.3817e-05
-9.9677e-05
-0.0001487
-0.00025591
-0.00040544
-0.00066328
-0.00073285
-0.00051487
-0.00040311
-0.00024231
-4.4415e-05
-2.3182e-06
-5.3229e-05
-1.2206e-05
4.0563e-05
5.4013e-05
-2.9744e-05
-0.00029783
-0.00042263
-0.00024906
-0.00018761
-0.00038278
-0.00054477
-0.00061197
-0.00048746
-0.00036834
-0.00030107
-0.000137
-0.00011214
-0.00014033
9.2975e-05
0.00044979
0.00048153
0.00012354
-8.7899e-05
-0.00025491
-0.00039795
-0.00037494
-0.0004266
-0.00046276
-0.00050104
-0.00066833
-0.00061558
-0.00042587
-0.00047128
-0.00035188
-3.063e-05
0.00025709
0.0004237
0.00049928
0.00062487
0.00045307
0.00035288
0.00026923
0.00012357
6.991e-05
-0.00016549
-0.00022451
-0.00014153
-4.624e-05
0.00019331
0.00040984
0.0004083
0.00036256
0.00024021
4.8803e-05
-4.8441e-05
-0.00012133
-0.00023614
-0.00023197
-0.00011856
-1.3879e-05
-5.3924e-05
-0.00025679
-0.00038789
-0.00035595
-0.00033194
-0.00043677
-0.00055321
-0.00063729
-0.0006088
-0.00044414
-0.00027486
-0.00020649
-0.0003528
-0.00033826
-0.00014438
1.9249e-05
0.0001933
7.9904e-05
-6.1556e-05
-0.00022609
-0.00048838
-0.0004488
-0.00031488
-0.00035477
-0.00037906
-0.00023783
1.4585e-05
0.00023773
0.00026792
0.00014285
-2.3614e-05
-0.0001895
-0.00032228
-0.00036142
-0.00048173
-0.00071625
-0.00083874
-0.00061807
-0.00033594
-0.00029799
-0.0002791
-0.00040119
-0.00057954
-0.00060469
-0.00077542
-0.00084237
-0.00082598
-0.00084563
-0.00059915
-0.000426
-0.00028195
-0.00010323
-0.00011356
-0.00020642
-0.00045233
-0.00063347
-0.00071562
-0.00081409
-0.00074947
-0.00051289
-0.00045019
-0.00035602
-0.00019217
-0.00011801
0.00010408
0.00038865
0.00044339
0.00038623
0.00024175
0.00012928
0.00011788
3.3475e-05
-0.00012166
-0.0001281
-0.00011383
-0.00021398
-0.00023876
-0.00013668
7.2071e-05
0.00019621
0.00016262
1.8184e-05
-0.00030854
-0.00049177
-0.00047373
-0.00060789
-0.00067508
-0.00051134
-0.00042719
-0.00025024
8.4846e-06
0.00024112
0.00050607
0.00050086
0.00049758
0.00041316
0.00037752
0.00048703
0.00052359
0.00053599
0.00047974
0.00053167
0.00068736
0.0007781
0.00061863
0.00043766
0.00044339
0.00048748
0.00048732
0.00038355
0.00035008
0.0003713
0.00048294
0.00054422
0.00050355
0.00057444
0.00058226
0.00046986
0.0003067
7.3908e-05
-0.00011847
-0.00023623
-0.00040734
-0.0004577
4.4965e-05
0.00053914
0.00056669
0.00063067
0.00070953
0.00064782
0.00059514
0.00040111
0.00015162
2.7729e-07
-0.00018134
-0.00043742
-0.00048241
-0.00032647
-0.00025801
-0.00054071
-0.00073973
-0.00058143
-0.00051832
-0.00033476
-0.00020829
-0.0002278
-0.00011789
-5.244e-05
3.3678e-05
0.0001614
-3.8818e-05
-0.00039028
-0.00044207
-0.00053251
-0.0007268
-0.00079205
-0.00067223
-0.00045619
-0.00045246
-0.00041949
-0.00033814
-0.00041115
-0.00052382
-0.00045917
-0.0005563
-0.00072595
-0.00081791
-0.00098275
-0.0010225
-0.0010539
-0.0011221
-0.00095242
-0.000809
-0.0008149
-0.00082293
-0.00096568
-0.0010429
-0.0011446
-0.0011994
-0.00094214
-0.00084029
-0.00085736
-0.0008394
-0.00080626
-0.00076655
-0.00067251
-0.00026664
6.064e-05
-2.5425e-05
-0.00025991
-0.00058976
-0.00060716
-0.00038702
-0.00027694
-0.00024391
-0.00035439
-0.00037319
-0.00014047
-3.1866e-05
4.4168e-05
0.00018857
0.0001193
-8.1446e-05
0.00015384
0.0004046
0.00040559
0.00037413
0.00026731
0.00032927
0.00044681
0.00049917
0.00051663
0.00035723
0.00021349
0.00035782
0.00045674
0.00044863
0.00028367
5.7965e-05
0.00013418
0.00042507
0.00049344
0.00047427
0.00044123
0.00025502
0.00022828
0.00034676
0.00044516
0.00049205
0.00050196
0.00049545
0.00047455
0.00056097
0.00064842
0.00059628
0.0004411
0.00032466
0.00028348
0.00034506
0.00032426
0.0003204
0.00014469
-8.2037e-05
1.0962e-05
0.0001268
3.7612e-05
-6.7055e-05
-0.00011278
-0.00020882
-0.00017134
-4.7235e-05
-0.00015816
-0.00022557
-0.00026099
-0.00049951
-0.00069575
-0.00057182
-0.00028632
-0.00017034
-0.00010814
-8.1364e-05
-0.00031567
-0.00065713
-0.00089556
-0.00094877
-0.00097365
-0.0010741
-0.0012217
-0.00098505
-0.00061769
-0.00048295
-0.00039459
-0.00041282
-0.00056977
-0.00081646
-0.00092109
-0.00088992
-0.00081727
-0.00067547
-0.00071158
-0.0008773
-0.00086672
-0.00080671
-0.00093734
-0.0010061
-0.0010381
-0.0011463
-0.0010792
-0.00092466
-0.0008734
-0.00098425
-0.0010074
-0.00098546
-0.00065261
-0.00024572
-0.00032327
-0.00038001
-0.00045131
-0.00069805
-0.00071286
-0.00051629
-0.00028782
-0.00012016
-0.00029177
-0.00045623
-0.00027613
5.1718e-05
0.00017823
1.5782e-05
9.2962e-05
0.00029654
0.00032193
0.00040147
0.00047342
0.00035159
0.00034396
0.00038268
0.00035599
0.00048609
0.00046179
0.00020952
0.00015629
0.00047844
0.00066067
0.00058259
0.0007082
0.00094121
0.0010351
0.0011801
0.0013326
0.0013851
0.0014136
0.0014284
0.0013341
0.0011854
0.0011976
0.0010522
0.00066519
0.00038028
0.00043725
0.0006845
0.00086605
0.0009488
0.00088394
0.00077064
0.00069796
0.000768
0.00087677
0.00069757
0.00040346
0.00043058
0.00048748
0.00075779
0.0010952
0.001267
0.0015267
0.00162
0.0015201
0.0014228
0.0013259
0.0010475
0.00074312
0.00047127
0.0003278
0.00035854
0.00034014
0.00039318
0.00053927
0.00067904
0.00071917
0.00063283
0.00041806
0.00025306
0.00021788
0.00022464
0.00012313
0.00010048
0.0002485
0.00024112
0.00030317
0.0003112
0.00021793
0.00032352
0.00026834
0.00028332
0.00031397
8.5559e-05
-9.1058e-05
-0.00025679
-0.00025768
-7.1294e-05
-2.9467e-05
-8.6641e-05
-2.743e-05
2.8106e-05
2.3221e-05
-0.00017655
-0.00059268
-0.00096451
-0.0012353
-0.0012787
-0.001201
-0.0009712
-0.0005202
-0.00022172
-0.00014643
-0.00010989
-7.0597e-05
-0.0001284
-0.00029293
-0.00033619
-0.00036679
-0.0005764
-0.00086145
-0.0010465
-0.00098106
-0.00082115
-0.00073384
-0.00078224
-0.00084131
-0.00073606
-0.00059915
-0.00058209
-0.00072226
-0.00071279
-0.00070221
-0.00059721
-0.00031497
-0.00014062
-0.00018886
-0.00033564
-0.00033868
-0.00031188
-0.0004368
-0.00059197
-0.0007084
-0.00085959
-0.00082908
-0.00065527
-0.00025746
0.00012272
0.0002481
0.00034698
0.00046771
0.0005696
0.00051955
0.00030714
-1.3283e-05
-0.00013571
-0.00013266
-0.00036044
-0.00030831
-0.00017266
-0.00026544
-4.3762e-05
0.00030005
0.00062044
0.00060235
0.00023589
0.00013569
7.6515e-05
-4.7658e-05
1.0193e-05
2.613e-05
4.362e-05
8.6114e-05
0.00028369
0.00062474
0.00068636
0.00070388
0.00081523
0.00078005
0.00071152
0.00052092
0.00016114
-0.00010959
-0.0001247
-0.0001344
-0.0002657
-0.00020123
-7.7457e-05
-0.00014372
4.104e-05
0.00015332
-0.00010294
-0.00018531
-0.00020918
-2.7118e-05
0.0001473
8.1146e-05
8.6632e-05
5.6789e-05
0.00022236
0.00039852
0.00021413
-2.8829e-05
-0.00029716
-0.00047058
-0.00030963
-0.00017931
-0.00019747
-0.00019354
-0.0001103
0.0001131
0.00016217
0.000209
0.00021008
-0.00012174
-0.00045872
-0.00064457
-0.00065928
-0.00072414
-0.00058776
-0.00033381
-0.00026091
-9.9983e-05
6.7157e-05
-4.8957e-06
-0.00024077
-0.00045366
-0.00074615
-0.0010072
-0.001175
-0.0011908
-0.0012472
-0.0011194
-0.00076587
-0.00060224
-0.00052666
-0.00055226
-0.00055756
-0.0004372
-9.3645e-05
0.00013622
9.7558e-05
3.9402e-05
0.00011774
7.5279e-05
-0.00030246
-0.00051164
-0.0004918
-0.00027544
-3.2023e-05
7.2536e-05
0.00018663
0.00041057
0.00057059
0.00043698
0.00032252
0.00039243
0.0005703
0.0004012
0.0001997
0.0004458
0.00064437
0.00092385
0.0011401
0.0010954
0.0011699
0.0012073
0.001172
0.0012014
0.00097884
0.00078055
0.00077643
0.00043465
0.00015636
0.00012577
7.1695e-05
9.4878e-05
0.00016972
0.00019762
0.00030553
0.000407
0.00072254
0.0010805
0.00097167
0.00075766
0.00056415
0.00050743
0.0006376
0.00059183
0.00062407
0.00070181
0.00067963
0.00067252
0.00067598
0.00072253
0.00085895
0.00082475
0.00069098
0.00066593
0.00066815
0.00057378
0.00041599
0.00035455
0.00025133
0.00018254
4.6867e-05
1.9559e-06
0.0001329
8.2063e-05
6.9046e-05
1.8017e-05
-4.8077e-07
-4.6103e-05
-0.00015673
-0.00031422
-0.00022428
-0.00010736
-0.00011479
-6.3269e-05
-1.9007e-05
-3.2071e-05
-9.7752e-05
-0.000275
-0.00058488
-0.00067922
-0.00060769
-0.00075863
-0.001039
-0.0010023
-0.0008129
-0.00071464
-0.00037658
-0.00012511
-7.5254e-05
-0.00013223
-0.00040487
-0.00076828
-0.00099787
-0.0011946
-0.0012559
-0.00099698
-0.00080801
-0.000904
-0.00084761
-0.00072587
-0.00068455
-0.00057282
-0.00052738
-0.00040003
-0.00026773
-0.00036449
-0.00051691
-0.00043191
-0.00034653
-0.00049662
-0.00080329
-0.00084565
-0.00074322
-0.0008398
-0.00090991
-0.0010441
-0.0012023
-0.0010549
-0.00074591
-0.00054999
-0.00030528
-0.00025758
-0.00028038
-0.00039531
-0.00038393
-0.0004066
-0.0005199
-0.00039094
-0.00017762
-3.2334e-05
0.00017696
0.00029313
7.0359e-05
-0.00013665
-0.000177
-0.00034625
-0.00019656
8.1848e-05
9.6389e-05
1.6129e-05
-0.00019825
-0.00044429
-0.00033262
-5.2907e-05
-0.0001495
-0.00023258
-0.00027328
-0.0002706
-0.00016906
-0.00020022
-9.4773e-05
0.00016338
0.00033819
0.00036325
0.00028785
0.00021004
0.00022584
0.00018298
4.592e-05
-0.00012001
-0.00028518
-0.00032327
-0.00015718
0.00012589
0.00032782
0.00031383
0.00039431
0.00056649
0.00072202
0.00078085
0.00077693
0.00073157
0.00047256
0.00021195
6.4522e-05
2.3556e-05
0.00011696
0.00018618
0.00030086
0.00027274
0.0001906
1.4336e-05
-3.0675e-05
0.00016147
4.0068e-05
-0.00031307
-0.00065054
-0.00087912
-0.00072774
-0.00043555
-0.00028787
-0.00015576
-0.00010629
2.0577e-06
-0.00010159
-0.00035838
-0.00047075
-0.00063359
-0.0008556
-0.00087275
-0.00075332
-0.00042744
-8.1389e-05
0.00014327
0.00037557
0.0004693
0.00018723
-0.00015785
-0.00029981
-0.00052985
-0.00072786
-0.00090607
-0.00092604
-0.0007094
-0.00045222
-0.00020813
-0.00012098
-2.7144e-05
6.8106e-05
-6.371e-05
-7.8175e-05
6.0393e-05
7.4559e-05
-5.6039e-05
-6.4928e-05
-0.000119
-0.00015117
-0.00014017
-0.0003824
-0.00065497
-0.00074161
-0.00078655
-0.00072285
-0.00040892
-0.00034514
-0.00037705
-0.00034921
-0.00019496
-4.6122e-05
0.0001422
0.00040018
0.00037484
0.00027511
8.4144e-05
-1.969e-06
-0.0001048
-0.0003708
-0.00066739
-0.00099048
-0.0010604
-0.00094709
-0.00064639
-0.00021664
0.00016242
0.00054906
0.00091304
0.00099967
0.00078369
0.00062694
0.00026633
-0.00019387
-0.00035938
-0.00043014
-0.0006064
-0.00060694
-0.00032135
-2.9027e-05
0.00029164
0.00055705
0.00053118
0.00028077
0.00036011
0.00081817
0.0010634
0.0010382
0.00078878
0.00053982
0.00036542
0.00029622
0.00029923
0.00034634
0.00027265
2.1936e-05
7.058e-05
0.00023668
0.0002646
0.00045311
0.00051315
0.00032009
0.00023714
0.00013198
-2.8163e-05
-8.5093e-06
0.00016141
0.00033487
0.00026583
0.0001945
0.00049367
0.00081019
0.00089649
0.00077933
0.00064005
0.00057961
0.00047019
0.00032258
0.00028528
0.00043145
0.00045123
0.00018768
2.8567e-05
0.00011565
0.00027916
0.00030489
0.00016023
2.4855e-05
-7.8768e-05
1.1553e-05
-5.8167e-05
-9.2994e-05
-0.00014116
-0.00044338
-0.00045131
-0.00016179
3.3084e-05
-9.6093e-06
-6.5417e-05
-0.00015386
-0.00016941
-0.00012226
-0.00016971
-0.00018747
4.553e-05
0.00039435
0.00058459
0.00083243
0.0010267
0.00094374
0.00085427
0.00070796
0.00039048
0.00020913
0.00015318
0.0001143
0.00012919
-0.00012347
-0.00029656
-3.6182e-05
0.00017402
0.00029375
0.00027934
6.5542e-05
1.7473e-06
-1.0219e-05
-5.0891e-05
-0.00013305
-0.00025883
-0.00027927
-0.0002919
-0.00048262
-0.00048065
-0.0004264
-0.00045121
-0.00052195
-0.00067102
-0.00068598
-0.00071819
-0.00066756
-0.00053487
-0.00051715
-0.00064129
-0.00077931
-0.00077913
-0.00057357
-0.00049057
-0.00038368
-0.00027731
-0.00036776
-0.00049783
-0.0005846
-0.00048013
-0.00053228
-0.00072663
-0.00059714
-0.00054206
-0.00068366
-0.00070101
-0.00060089
-0.00035651
-0.00029603
-0.00042122
-0.0004684
-0.00054303
-0.00058839
-0.00043431
-0.00016654
0.00013938
8.948e-05
-1.6622e-05
9.5557e-05
0.00011888
-0.00016972
-0.00048521
-0.00042492
-0.0004099
-0.00045182
-0.00048084
-0.00062491
-0.00084475
-0.00091042
-0.00062649
-0.00032793
-0.00019571
-0.0002996
-0.00045777
-0.00040498
-0.00043924
-0.00047793
-0.0004217
-0.00041901
-0.00020846
-9.1225e-05
-0.00041637
-0.00054529
-0.0004182
-0.00052384
-0.00067177
-0.00064601
-0.00035714
-9.5966e-05
-6.9541e-05
2.756e-05
0.00015727
0.00015482
0.00028781
0.00031184
0.00019715
0.00023971
0.00033135
0.00049008
0.00061249
0.00059378
0.00064822
0.00075293
0.00093795
0.0011129
0.0011356
0.0010975
0.00085097
0.00051288
0.0004524
0.00046391
0.00061942
0.00075445
0.00075292
0.00085828
0.00089026
0.00083214
0.00072046
0.00070534
0.00067289
0.00063323
0.00064874
0.00082996
0.00090941
0.00078296
0.00094455
0.0011793
0.0013503
0.0014545
0.0014386
0.0012589
0.001139
0.00093222
0.00073476
0.00080088
0.00083755
0.00091332
0.00079608
0.00063931
0.00076926
0.00073241
0.00055979
0.00078504
0.0010398
0.00088991
0.00055153
0.00028313
8.1776e-05
0.00021529
0.00058744
0.0005895
0.00050887
0.00058076
0.00067839
0.00064035
0.00050416
8.9288e-05
-0.00020414
-0.00017295
-0.00017877
-3.1978e-06
0.0001899
0.00033691
0.00056102
0.00075751
0.00080482
0.00075292
0.00064996
0.00034872
0.000102
2.5303e-05
-0.00026786
-0.00051932
-0.00039708
-0.00035619
-0.0001486
0.00021626
0.00030926
0.00039382
0.00029075
0.0001726
0.00013887
-2.7846e-05
-0.00037399
-0.00061149
-0.00049323
-0.00048261
-0.00049133
-0.00020753
-0.00010548
-5.6137e-05
-7.5357e-05
-0.00020287
-0.000152
-0.00011003
-6.8381e-05
-0.00014089
-0.00015163
-0.00023891
-0.0004602
-0.00046768
-0.00037368
-0.00041399
-0.00060453
-0.00075753
-0.00075946
-0.0007374
-0.00061683
-0.00048457
-0.00037303
-0.00030332
-0.00045525
-0.00070295
-0.00079736
-0.00071803
-0.00055378
-0.0002922
-3.6185e-05
-4.6423e-05
-0.00027833
-0.00058829
-0.00079689
-0.00078189
-0.00096798
-0.00085466
-0.00062343
-0.00064009
-0.00035615
-0.00023136
-0.00025437
-0.00036287
-0.00051664
-0.00060246
-0.00077314
-0.00069107
-0.00042656
-0.0002492
-0.00038866
-0.00032596
-0.00030519
-0.0005688
-0.00060279
-0.00051323
-0.00045848
-0.00052872
-0.00058143
-0.00061885
-0.00089658
-0.0008519
-0.00058908
-0.00047142
-0.00023099
-0.00013117
-3.4154e-05
0.00022947
0.00038727
0.00026539
3.3803e-05
-0.00012236
-0.0002028
-0.0004663
-0.00068202
-0.0006757
-0.00073404
-0.0007701
-0.00083835
-0.00075701
-0.00052615
-0.000396
-0.00027332
-0.00015964
-0.0001953
-0.00036758
-0.00041577
-0.00044709
-0.00045715
-0.00043975
-0.000557
-0.00048574
-0.00037014
-0.00040717
-0.0003055
-0.00038062
-0.00065948
-0.00064743
-0.00059172
-0.00045221
-0.00034986
-0.00051803
-0.00062596
-0.0004954
-0.00043072
-0.00040349
-0.00028345
-0.00012095
-0.0001656
-0.00046524
-0.00060052
-0.00072109
-0.00072451
-0.00054548
-0.0003957
-0.00031505
-0.00023306
-7.9718e-05
4.0951e-05
-8.3081e-05
-0.00015721
-0.00013979
-0.00025876
-0.00045059
-0.00058529
-0.00064357
-0.00060655
-0.00034676
-0.00012089
-2.3092e-05
0.00017919
0.00027108
0.00026836
0.00012338
-0.00012964
-0.0003078
-0.00034912
-0.00043037
-0.00036689
-3.5406e-05
7.6744e-05
0.00020276
0.00035685
0.00054315
0.00091434
0.00081789
0.00048901
0.00030161
7.5515e-05
-0.00024439
-0.0003945
-0.00032193
-0.00029466
1.0343e-05
0.00030497
0.00026351
0.00033558
0.00040952
0.00062746
0.00070832
0.00059047
0.00053177
0.00035063
0.00013004
0.00015795
0.00020967
0.00011439
7.8112e-05
0.00018693
0.00052296
0.00081987
0.0009803
0.00095487
0.00062405
0.00053329
0.00054047
0.00034558
0.00061751
0.00082809
0.00082431
0.00084406
0.00060052
0.00032147
0.00054001
0.00075864
0.00074228
0.00075603
0.00058752
0.00049097
0.0006159
0.00069179
0.00066437
0.00063514
0.00057349
0.00042522
0.00042281
0.0005187
0.00073762
0.0010137
0.00075914
0.00043349
0.00053304
0.00088065
0.00089799
0.00078822
0.00077977
0.00071778
0.00080813
0.00079752
0.00056037
0.00010575
-0.00044649
-0.00059089
-0.00031501
-0.00027143
-0.00037965
-0.00043764
-0.00035142
-3.6786e-05
0.00010491
0.0001027
0.00034586
0.00041492
9.1848e-05
0.0001062
0.00027117
0.00017255
0.00034337
0.00055684
0.0005606
0.00070391
0.00064633
0.00044127
0.00034974
0.00040157
0.00043147
0.00025609
-1.0755e-05
-0.00015605
-0.00027131
-9.7326e-06
0.00035147
0.00032145
0.00023889
0.00024428
0.0001989
0.00028333
0.00035587
0.00021486
0.00020399
0.00026322
0.00022591
0.00027641
0.00028063
0.00020753
0.00033546
0.00057861
0.00055942
0.0002577
-0.00016918
-0.00030398
-1.7486e-05
-2.7979e-05
-0.00019552
-0.00029114
-0.00052155
-0.00056863
-0.00050589
-0.00033287
-3.184e-05
-9.3719e-05
-0.00038278
-0.00048027
-0.00041335
-0.00031226
-0.00037978
-0.00079709
-0.0013009
-0.0014028
-0.0011712
-0.00067896
-0.00036094
-0.00030616
-0.00022588
-0.00013907
0.00010158
0.00033351
0.00040531
0.00030706
0.00020624
0.0002225
0.00015186
-0.00020424
-0.00038674
-0.00015974
0.00015956
0.00041461
0.00054487
0.00041823
0.00046889
0.00059478
0.00064396
0.00075705
0.00055998
0.00019702
-0.00016779
-0.00029381
-0.00035399
-0.00037394
-0.00028623
-0.00034871
-0.00033152
2.4659e-06
0.0003264
0.00039903
9.6619e-05
-0.00019423
-0.00014025
-0.00025832
-0.00042486
-0.0006486
-0.00090557
-0.0009382
-0.00079435
-0.00068936
-0.00084316
-0.0011513
-0.0013002
-0.0011717
-0.0010187
-0.00091869
-0.00053542
-0.00027866
-0.00034314
-0.00017007
-0.00012276
-0.00028485
-0.00029676
-0.00041629
-0.00063952
-0.00079285
-0.00070519
-0.00060448
-0.00054327
-0.00056649
-0.00058835
-0.00050046
-0.00045055
-0.00055769
-0.00068069
-0.00052359
-0.00023812
-0.00014481
-6.1428e-05
-6.624e-06
-0.00019642
-0.00041023
-0.0005849
-0.00068973
-0.00080577
-0.00084308
-0.0009039
-0.001043
-0.0010839
-0.0010074
-0.00088072
-0.00068712
-0.00050674
-0.00041281
-0.00036303
-0.00027115
4.3361e-05
0.00036339
0.00044571
0.00045249
0.00046315
0.0005693
0.00050168
0.00017153
4.3572e-05
-1.2398e-05
-3.9471e-05
7.4684e-05
0.00012814
0.00025776
0.00055918
0.00060557
0.00059933
0.00055596
0.00041032
0.00049324
0.00048033
0.00050959
0.00063759
0.0005715
0.00035878
1.6433e-05
-7.6923e-05
-0.00013401
-0.00037867
-0.00015804
9.9281e-05
0.00011348
0.00042813
0.00090165
0.0011212
0.0010053
0.00074177
0.00056386
0.00052535
0.0004991
0.00039593
0.0002808
0.00032492
0.00048436
0.0005803
0.00078705
0.0009443
0.00089418
0.00068547
0.00050804
0.00051706
0.00043393
0.00035521
0.00027412
0.00020497
0.00045483
0.00073971
0.00067257
0.00057719
0.00035692
0.00018298
0.00033323
0.00053635
0.00068401
0.00045556
0.00018734
3.3274e-06
4.4016e-05
0.00019098
0.00022277
0.00016673
-5.9302e-05
-0.00019669
-0.00023525
-0.000127
-2.1856e-05
-1.8769e-05
-0.00016901
-0.0003566
-0.00038486
-0.00044008
-0.00030582
-0.00024377
-3.2328e-05
0.00015046
-0.00015037
-0.00028255
-0.00012169
5.6666e-05
0.00015987
0.00013451
1.9784e-05
6.6018e-05
0.00016166
0.00019617
0.00034354
0.00031509
2.7972e-05
-0.00021852
-0.00019837
1.8246e-05
-4.3981e-05
-0.00030253
-0.00049151
-0.00039172
-8.3928e-05
0.00019826
0.00046033
0.00052726
0.00056965
0.00048311
0.00021794
0.00019802
0.00037317
0.00039575
0.00028668
0.00015955
-8.3405e-05
-0.00032391
-0.00032967
-2.3699e-06
0.00040061
0.00046829
0.00042765
0.00049736
0.00052672
0.00068893
0.00061207
0.00026524
0.00013562
9.2156e-05
1.4721e-06
7.289e-05
8.0471e-05
-9.6381e-06
8.8031e-05
0.00027166
0.00026186
0.0001557
0.00020546
0.00036735
0.00031071
0.00034866
0.00067161
0.00068387
0.00068086
0.00089865
0.00087506
0.000666
0.00046782
0.00015679
-3.6629e-05
-2.582e-05
-8.548e-05
-6.324e-05
-8.2147e-05
-0.00022497
-0.00013417
9.6451e-05
0.00029298
0.00038264
0.00042679
0.00052905
0.00046584
0.00046014
0.00047639
0.0002206
-0.00016132
-0.00022052
-0.00011957
-0.00014375
-0.0001147
-0.00010332
1.164e-05
0.00032918
0.00061573
0.00062787
0.00047307
0.00026375
0.00012264
0.00023803
0.00050268
0.00062807
0.0004558
0.00037591
0.00027839
0.00027525
0.00043196
0.00028419
0.00022973
5.2396e-05
-0.00018742
4.0948e-05
0.00018886
0.00021166
0.00023307
1.444e-05
-7.3708e-05
-0.00021014
-0.00015874
1.3365e-05
-2.1752e-05
-2.0125e-05
-2.7877e-05
3.2524e-05
1.0916e-05
-1.5055e-05
-0.00017133
-0.00044739
-0.00046842
-0.00039524
-0.00031298
9.9662e-05
0.00034112
0.00016524
7.1412e-07
8.8186e-05
0.00031219
0.00040351
0.00023625
7.1377e-05
0.00014523
0.00022281
0.00023487
0.00018982
7.9378e-05
-0.0002963
-0.00053211
-0.00059366
-0.00058369
-0.00029837
4.8898e-05
9.8157e-05
6.0991e-05
0.00014529
4.3017e-05
3.5451e-05
0.00011111
0.00011416
-8.9542e-05
-0.00050093
-0.00062424
-0.00058382
-0.00047641
-0.00040001
-0.00024198
-0.00014566
-0.00031233
-0.00045347
-0.00040467
-0.00032708
-0.00020152
-0.00010743
-0.00027477
-0.000142
-8.4176e-06
0.00013535
0.0001824
-3.456e-05
-0.00015721
-0.00032789
-0.00041379
-0.00020137
-8.3397e-05
-0.00010995
-0.00012812
-0.00026426
-0.00031501
-0.0001156
-2.5902e-05
-2.3489e-05
6.4324e-05
0.00046571
0.00060201
0.00037932
0.00022229
0.00010468
0.00031092
0.00040005
0.00026842
0.00030157
3.3056e-05
-0.00032101
-0.00010417
0.00049588
0.00073761
0.00066909
0.00058468
0.00067873
0.00095982
0.0010336
0.00086401
0.00088967
0.001135
0.0011397
0.0012649
0.0013595
0.0011502
0.001032
0.0010722
0.001046
0.00086153
0.00069321
0.00046268
0.00037599
0.00059253
0.00080432
0.00088061
0.00099374
0.0010016
0.00099102
0.0009432
0.00069953
0.00045318
0.00028241
0.00025907
0.00046205
0.00051791
0.00029514
0.00023772
0.00030131
0.00037595
0.0003598
0.00024426
0.00022401
0.00021216
0.00016864
0.00013638
0.00014392
0.00011808
0.00022951
0.00050551
0.00042912
0.00016696
-6.6972e-05
-0.00019166
-0.00030149
-0.00038411
-0.00022777
-3.9639e-05
0.00019157
0.00031682
0.00027856
0.00034429
0.00049754
0.00068991
0.00064981
0.0003885
1.7873e-05
-0.00037227
-0.00064046
-0.00077513
-0.00079123
-0.00070428
-0.00035715
0.00017269
0.00051368
0.00084046
0.00067396
0.00035844
0.00052602
0.00026168
-0.00025736
-0.00054983
-0.00070611
-0.00066553
-0.0005662
-0.00045506
-0.00029441
-0.00011509
8.2463e-05
0.00011098
0.00016371
0.00019972
-0.00016144
-0.00041528
-0.00041657
-0.00039238
-0.00020552
9.4506e-05
0.00032594
0.00046261
0.00034423
1.0418e-05
3.7237e-05
0.00018796
0.00017695
0.00016474
0.00012573
0.00013761
9.4118e-06
0.00016578
0.0004436
0.00066767
0.0009281
0.00081706
0.00059264
0.00060032
0.00072283
0.00074123
0.00068371
0.00049474
0.00028873
0.00011437
0.00020333
0.00055571
0.00066299
0.00064849
0.00064874
0.00051245
0.00052219
0.00037265
6.6032e-05
8.8475e-05
5.0708e-05
-0.00014549
-0.00033171
-0.00039486
-0.00038058
-0.00034513
-0.00010029
5.8257e-05
-6.5755e-05
-0.00035128
-0.00055567
-0.00053677
-0.00046174
-0.00038562
-0.00031894
-0.00023257
-7.7931e-05
0.00010905
0.0002556
0.0004502
0.00047162
0.00028983
-9.3382e-05
-0.00025058
-0.00031274
-0.0005287
-0.00046194
-0.0002583
-9.218e-05
-0.00010511
-0.00032522
-0.00051314
-0.00069815
-0.0008075
-0.0006236
-0.0004292
-0.00035099
-0.00046353
-0.00059262
-0.0006823
-0.00077129
-0.00059713
-9.9767e-05
0.00015407
5.1455e-05
-0.00010376
-0.00026904
-0.00036253
-0.00034989
-0.00039752
-0.00045023
-0.00053118
-0.00067286
-0.00066981
-0.00054875
-0.00050956
-0.00055223
-0.00054922
-0.00062339
-0.00046788
-0.00035495
-0.00035883
-0.0003567
-0.00039032
-0.00033289
-0.00033942
-0.00044666
-0.00046315
-0.00044131
-0.00039541
-0.00029717
-0.0002728
-0.00025481
-0.00015823
7.4986e-06
2.9122e-05
0.00017329
0.00018563
-4.036e-05
5.9379e-05
0.0002668
0.00032717
0.00022898
0.00016747
0.00025682
0.00024643
0.00042643
0.00063906
0.00058393
0.00047845
0.00028787
-8.3405e-05
-0.00035014
-0.00039236
-0.00031974
-0.00013629
-6.3799e-05
4.6905e-05
0.00014074
0.00015488
0.00030299
0.00044077
0.00032559
0.0002037
0.00012144
9.5096e-06
0.00011513
0.0003894
0.00045982
0.0004859
0.00054989
0.00060049
0.00087629
0.0012185
0.001391
0.0012919
0.0010833
0.0010956
0.0011245
0.001115
0.0011229
0.0010637
0.0011748
0.0013142
0.0014512
0.0017382
0.0018015
0.0017054
0.0014806
0.0010766
0.00092937
0.0010372
0.00092777
0.00094221
0.001245
0.0013561
0.0012369
0.0012173
0.0013217
0.0011344
0.00075642
0.00063416
0.00087109
0.0011061
0.0014465
0.0015397
0.0013573
0.0012829
0.0012208
0.0011658
0.0011843
0.0011235
0.00061551
0.00048192
0.0006343
0.00044004
0.00028994
0.00050581
0.00076585
0.00085344
0.00081273
0.00087527
0.0010068
0.00092983
0.00075923
0.00055259
0.00034607
0.0001394
6.6919e-05
-6.4504e-07
-8.5105e-05
-2.3678e-05
-5.4268e-05
-0.00013918
-8.8857e-05
-4.8423e-05
-6.0368e-06
4.1692e-05
-1.5156e-05
-8.3483e-05
-0.0003093
-0.00029316
-0.00013949
-0.00020839
-7.6594e-05
6.0258e-05
-2.853e-05
-0.00028749
-0.00068345
-0.00090513
-0.00066368
-0.00039324
-0.00034536
-0.00032589
-0.000237
-0.00018922
-0.00015397
3.034e-05
-0.00016717
-0.00051049
-0.00082645
-0.001028
-0.0006592
-0.00037654
-0.00043696
-0.00026459
3.1776e-05
5.511e-05
-0.00013711
-0.00028091
-0.00016367
8.8764e-06
-0.00012849
-0.00022324
-0.00013793
-9.7074e-05
-5.1032e-05
-0.00021477
-0.00034304
-0.00011641
0.00024211
0.00057048
0.00045248
0.00022939
0.00029653
0.00025275
0.0001752
0.00029364
0.00055708
0.00073185
0.00067616
0.00061461
0.00079632
0.0009665
0.00090542
0.00089181
0.0010696
0.0010977
0.00097883
0.00089975
0.00084707
0.00086879
0.00076436
0.00074616
0.0010734
0.0011802
0.00090638
0.00078953
0.00077552
0.00068207
0.00081395
0.0010332
0.0012458
0.0014534
0.0014081
0.0013778
0.0015327
0.0014881
0.0013654
0.0013636
0.0011758
0.00074288
0.00046801
0.00039135
0.00032334
0.00031051
0.00054442
0.00089307
0.0011163
0.0013625
0.001445
0.0014918
0.0015014
0.0010445
0.00083939
0.0010077
0.00093568
0.00091311
0.00081542
0.00057915
0.00058104
0.00061622
0.00064121
0.00051054
0.00047715
0.00069727
0.00085598
0.00099739
0.0009907
0.00080527
0.00075965
0.00066488
0.0005205
0.00027305
2.1001e-05
7.9894e-05
0.00013966
0.00012158
2.6719e-05
-4.3924e-05
4.7396e-05
-6.0557e-05
-0.00025007
-0.0001722
-6.9943e-05
-6.6629e-05
-0.00016246
-0.00021072
-0.00019668
-0.00035491
-0.00064105
-0.0007751
-0.00077787
-0.00067401
-0.0006813
-0.00059996
-0.00031675
-0.00024719
-0.00043172
-0.00065566
-0.00071851
-0.0008106
-0.00096198
-0.00095991
-0.00092747
-0.001041
-0.0011675
-0.0011051
-0.00089925
-0.00073209
-0.00061507
-0.0005456
-0.00057009
-0.00060361
-0.00066886
-0.0010035
-0.0010185
-0.00094249
-0.0011067
-0.0011707
-0.0011489
-0.0010858
-0.00098748
-0.0009653
-0.00084441
-0.00056037
-0.00062697
-0.0009198
-0.0009376
-0.00079914
-0.00067982
-0.00068551
-0.00065664
-0.00049353
-0.00036094
-0.00046264
-0.00049614
-0.00021777
5.2253e-05
0.00019943
0.00018283
4.8877e-05
6.2106e-05
6.1676e-05
6.8343e-05
6.8964e-05
-0.00010031
-0.00025181
-0.0003006
-0.00042659
-0.00039892
-0.00029088
-7.3192e-06
0.00022214
0.00027193
0.00037715
0.00021002
5.6178e-05
1.4064e-05
-8.8523e-05
7.24e-05
0.00023526
0.00032829
0.00044332
0.00041261
0.00039762
0.00016698
-0.00015855
-5.1224e-05
-9.7012e-05
-1.9561e-05
0.00037167
0.00053164
0.00070334
0.0008475
0.00098408
0.0010961
0.00090792
0.00038069
7.2636e-05
6.1202e-05
-1.9588e-05
0.00010034
0.00022179
0.00025438
0.00057865
0.00088813
0.0011094
0.0013458
0.001194
0.00098312
0.00084996
0.00074827
0.00071152
0.00051326
0.00021649
-2.8388e-05
-2.4256e-05
-1.1127e-06
-0.00010478
-1.4479e-05
0.00019636
0.00023374
0.00021994
0.0002818
0.0001752
2.4898e-05
-7.9881e-05
-0.00013288
6.8674e-05
0.00014511
-2.9871e-05
1.1191e-05
0.00014162
0.00017538
0.00032445
0.00034706
-8.4294e-05
-0.00045782
-0.00068112
-0.00067143
-0.00025582
0.00024248
0.00077101
0.0010699
0.0010646
0.00080238
0.00056347
0.00047093
0.00043747
0.00025572
-0.00010641
-0.00019968
0.00010677
0.00046043
0.00061014
0.00076507
0.00085635
0.00075106
0.00070027
0.00069404
0.0005526
0.00029721
0.00021123
0.00017747
0.0001628
0.00044604
0.0011325
0.0015037
0.0017494
0.0020965
0.001941
0.0015635
0.0013483
0.0010923
0.00098786
0.0010591
0.00089259
0.00097424
0.0013022
0.0015296
0.0019362
0.0022425
0.0021185
0.0021095
0.0022903
0.0021872
0.0020656
0.0020303
0.0018399
0.0017822
0.001978
0.0022198
0.0023991
0.0024462
0.0021813
0.0019506
0.0020209
0.0018872
0.0014448
0.0010462
0.00060945
0.00038575
0.00073074
0.0011336
0.0018668
0.002327
0.002295
0.0023806
0.0019355
0.0015481
0.0013769
0.00077802
0.0001987
0.00010428
0.00024952
0.00063506
0.00096743
0.0014362
0.0014977
0.0011454
0.00074077
0.00032231
-0.00016111
-0.00041434
-0.00069453
-0.00083152
-0.0009477
-0.0011151
-0.00087898
-0.00061331
-0.00048403
-0.00036707
-0.00067521
-0.0013802
-0.0019563
-0.0020763
-0.0025213
-0.0028876
-0.0031508
-0.0033084
-0.0030982
-0.0026158
-0.0022816
-0.0023268
-0.0024969
-0.0026471
-0.0026746
-0.0028814
-0.0030616
-0.0027123
-0.0020872
-0.0016871
-0.0014079
-0.0013258
-0.0014261
-0.0013393
-0.0012291
-0.0012293
-0.0015246
-0.0020698
-0.0023545
-0.0022497
-0.0018767
-0.0014294
-0.0010621
-0.00095368
-0.00084923
-0.00071866
-0.00082228
-0.0008595
-0.00098551
-0.001289
-0.0014828
-0.0016315
-0.0016764
-0.0016016
-0.0015184
-0.00099342
-0.00076376
-0.00077358
-0.00016633
0.00017858
0.00040384
0.00045005
0.00015416
2.875e-05
-0.00019364
-0.00040071
-6.5339e-05
0.00018711
0.00017878
0.0001316
0.00012207
-4.3342e-05
-0.0001988
-0.00033503
-0.00083902
-0.001055
-0.00085985
-0.00047568
-0.00017301
0.00014464
0.00042168
0.00064793
0.00067045
0.00075029
0.00073464
0.00059415
0.00080237
0.00071341
0.00038338
-0.00012752
-0.00057997
-0.00040253
-2.6587e-05
0.00030389
0.00038791
0.000241
0.0001312
8.6062e-05
2.4883e-05
-0.00010473
-0.00021182
-0.00021402
-0.00014499
0.00014866
0.00088381
0.001074
0.00066298
0.00083949
0.0011527
0.0011242
0.001074
0.0010537
0.00078768
0.00036255
8.3116e-05
0.00027434
0.00056464
0.00078548
0.00087497
0.00093194
0.00098953
0.00096034
0.00084549
0.00041284
4.4178e-05
-0.00011815
-0.00044501
-0.00065154
-0.00048993
-0.00041099
-0.00057803
-0.00064758
-0.00022668
0.00029634
0.00051051
0.00044285
0.00026495
8.9585e-05
0.0001994
9.5682e-05
-0.00048762
-0.00076988
-0.00082064
-0.00055299
-4.3376e-05
0.00037365
0.00053187
0.0004744
0.00058175
0.00056836
0.00039252
0.00015216
-0.00022688
-0.00041905
-0.00041604
-0.00032399
-3.1753e-05
0.00038712
0.00054938
0.00056771
0.00065784
0.00067204
0.00051474
0.00038004
0.00035196
0.00013175
-3.8846e-05
0.00022779
0.00034672
0.00044287
0.00085041
0.001154
0.0012786
0.0014615
0.0014925
0.0015087
0.0015043
0.0011472
0.00052011
0.00022468
0.00012558
8.8627e-05
0.00046478
0.0008636
0.00084092
0.00085304
0.00079143
0.00071292
0.00080647
0.00058846
0.00030199
0.00050164
0.00093832
0.0007956
0.0005601
0.00082881
0.0011795
0.0012989
0.001129
0.00090287
0.00066605
0.0005
0.00027876
-1.3372e-05
-0.00017796
-8.7527e-05
0.00020789
0.00069211
0.0010935
0.0014276
0.0013657
0.0011985
0.00096433
0.00049905
0.00019183
-0.0002679
-0.00075799
-0.0007567
-0.00073835
-0.00061412
-0.00012381
0.00028709
0.00052698
0.00060101
0.00059576
0.00036693
0.00010473
-0.00011842
-0.00041203
-0.0005925
-0.00067624
-0.00067127
-0.00039729
0.00019628
0.00046435
0.00042822
0.00049019
0.00053917
0.00057746
0.00078455
0.0009509
0.0007757
0.0006125
0.00047139
0.00028744
0.00049926
0.00075569
0.00056232
0.00039092
4.3931e-05
-0.00029383
-0.00018703
0.00010141
0.00014337
-3.3874e-05
-1.2339e-05
8.4744e-05
7.3279e-05
0.00051785
0.0010483
0.0010808
0.00088754
0.00035155
6.0629e-05
-9.2952e-06
-0.00023723
-0.00024834
-0.00027875
-0.00034144
-0.00022331
-0.0001085
-0.00013385
-0.00025414
-0.0005418
-0.00079846
-0.00067325
-0.00030622
4.9255e-05
0.0002953
0.00041211
0.00050195
0.0007985
0.0012313
0.0014407
0.0013004
0.00083813
0.00031588
-4.0023e-05
-0.00041374
-0.00053821
-0.00040206
-0.00044806
-0.00033366
-0.00020397
-1.9977e-05
0.00031101
0.00019359
-0.00017933
-0.00051717
-0.00074919
-0.00076407
-0.00072099
-0.00066131
-0.00054468
-0.00044528
-0.00042047
-0.00036573
-0.00021089
-0.00017071
-0.000258
-0.00018327
-6.7917e-05
-0.0004663
-0.00074072
-0.00071246
-0.00083162
-0.00080259
-0.000648
-0.00050725
-0.00031912
-0.00010428
-0.00024665
-0.00022253
3.9262e-05
-0.00028517
-0.00079113
-0.00099348
-0.0010772
-0.0010401
-0.00098178
-0.00095542
-0.00092195
-0.00087946
-0.0009016
-0.00088939
-0.00077411
-0.00073355
-0.00071546
-0.00063889
-0.00053705
-0.0004386
-0.00055144
-0.00078868
-0.00071381
-0.00068948
-0.00075839
-0.00072767
-0.00073329
-0.00086523
-0.0011437
-0.001215
-0.00095798
-0.00078066
-0.00080703
-0.0010591
-0.0011237
-0.00099907
-0.00094568
-0.00098749
-0.0014499
-0.0017909
-0.0019364
-0.0022123
-0.0026146
-0.002935
-0.0028889
-0.002755
-0.0023814
-0.0020359
-0.0017747
-0.0013742
-0.00093684
-0.00049752
-0.00010784
0.00018157
7.8243e-05
-8.8569e-05
0.00014812
0.00023981
-4.3966e-05
-0.00019671
-0.00041296
-0.00061146
-0.00062017
-0.00062521
-0.00062569
-0.00054918
-0.00061256
-0.00074773
-0.00072078
-0.00057719
-0.0003114
-0.00018317
-0.00028786
-0.00034602
-0.00034575
-0.00031186
-0.00017422
3.5338e-05
0.00050396
0.00075917
0.00061433
0.00062074
0.00057276
0.00057462
0.000636
0.00056751
0.00056161
0.00079855
0.0011394
0.0013435
0.0014426
0.0013043
0.0013181
0.0013525
0.0012539
0.0011951
0.00090907
0.00066221
0.0010368
0.0015623
0.0018632
0.002181
0.0021708
0.0020223
0.0017064
0.0013944
0.0011707
0.00097367
0.00064567
-4.2202e-05
-0.00040724
-0.00062372
-0.0010134
-0.0012304
-0.0011633
-0.00082302
-0.00070177
-0.00062771
-0.00037504
-0.00037458
-0.00074
-0.0011841
-0.0014253
-0.0016162
-0.0019287
-0.0019873
-0.0013658
-0.00025706
0.00050012
0.00048708
3.2696e-05
-8.098e-05
-3.3297e-05
-8.3575e-06
0.0001369
0.00016909
0.00018965
4.3044e-05
-0.00014759
3.6068e-05
0.00016264
-3.6872e-05
-0.00041194
-0.00067929
-0.00050765
-0.00040337
-0.00057533
-0.00059729
-0.00052107
-0.00032875
-0.00017972
-0.00026286
-0.00079078
-0.0017449
-0.0033622
-0.0054328
-0.0064363
-0.0063418
-0.0056456
-0.003804
-0.0016653
-0.00041153
0.0004811
0.0012984
0.00189
0.0022286
0.0023149
0.0024249
0.002657
0.0026367
0.0020509
0.0016593
0.0018198
0.0022013
0.0028736
0.0034585
0.0038363
0.0040187
0.0039146
0.003489
0.0029012
0.0021855
0.0014577
0.001154
0.0014011
0.0017844
0.0022723
0.0024265
0.0017794
0.0011636
0.0011985
0.0016178
0.0023191
0.0029387
0.0030794
0.0026834
0.0019569
0.0013594
0.0012782
0.00165
0.00229
0.0029194
0.0034249
0.003486
0.0034763
0.0036568
0.003568
0.0032689
0.0030749
0.0030548
0.0032763
0.0037126
0.0041238
0.0045576
0.0047386
0.0045394
0.0043398
0.0040049
0.0033695
0.002727
0.0023946
0.0021493
0.0021145
0.0022031
0.002526
0.0031136
0.0034217
0.0033368
0.0033214
0.003358
0.0028975
0.002202
0.0017291
0.0013329
0.0010613
0.00085976
0.00090757
0.0012347
0.0012011
0.0010726
0.00081413
0.0003035
9.3161e-05
-6.7352e-05
-0.00037923
-0.00041326
8.882e-06
0.00050004
0.00074978
0.00090837
0.0009389
0.00054948
0.00029473
-1.6955e-05
-0.0003274
-0.00032402
-0.00062312
-0.00090241
-0.00099739
-0.0011711
-0.0013445
-0.0011797
-0.0009554
-0.0010295
-0.0010532
-0.0010625
-0.0010591
-0.0010808
-0.001261
-0.0016618
-0.0018624
-0.0018652
-0.001915
-0.0017678
-0.0018428
-0.0016696
-0.0011137
-0.00095089
-0.00077323
-0.00066758
-0.00062953
-0.00074859
-0.0013159
-0.0015503
-0.0013575
-0.0013444
-0.0014318
-0.0013966
-0.0014251
-0.0013486
-0.0013101
-0.0012802
-0.0011284
-0.0010027
-0.0011289
-0.0014348
-0.0015291
-0.0014258
-0.0011469
-0.0010174
-0.00083934
-0.00057773
-0.0004886
-0.00036319
-0.00035554
-0.00029559
-8.2846e-05
-8.7094e-05
-0.00033732
-0.00042449
-0.00046843
-0.00063719
-0.00059219
-0.00013589
0.00042127
0.00078021
0.00077023
0.00079076
0.00094238
0.00078902
0.00056268
0.0003598
3.7524e-05
2.7564e-05
0.00037424
0.00045518
0.00079847
0.0013987
0.001512
0.0013602
0.0016096
0.0021083
0.0021496
0.0016631
0.00084836
0.00049289
0.00049789
0.00059873
0.0012095
0.001816
0.0018143
0.0017084
0.0017193
0.0017393
0.0016957
0.0016132
0.0014472
0.0011016
0.0009746
0.0010711
0.00115
0.0013814
0.0015281
0.001312
0.0013116
0.001384
0.00093837
0.00051452
0.0001644
-0.00022658
-4.1316e-05
0.00055355
0.000704
0.00095422
0.0014579
0.0017281
0.0017772
0.0015987
0.0011543
0.00021394
-0.00088081
-0.0017012
-0.0019642
-0.0015629
-0.0010747
-0.00080449
-0.00016683
0.00066152
0.00099911
0.00082484
0.00060626
0.00056488
0.00041275
0.0001764
-5.1755e-05
-0.00016399
-3.5165e-05
0.00026793
0.00045442
0.0006802
0.0013258
0.001503
0.0012552
0.00098416
0.00033528
-0.00012054
-0.00043218
-0.00092478
-0.0011223
-0.0010685
-0.0011724
-0.00086838
-0.00016691
0.0001746
0.00014691
-0.00022695
-0.00055694
-0.00065377
-0.00064262
-0.00051504
-0.00052206
-0.00075212
-0.00098567
-0.00087327
-0.00047483
-0.00018702
-0.00014028
-0.00038789
-0.00069151
-0.00080873
-0.00090745
-0.00094683
-0.00093974
-0.00093069
-0.00078069
-0.00043276
0.00014277
0.00059018
0.00083894
0.00074614
0.00033319
-9.7644e-05
-0.00045088
-0.00060471
-0.00076013
-0.00084473
-0.00069024
-0.00050947
-0.00019561
0.0003746
0.00091835
0.0011559
0.0010835
0.00090612
0.00069016
0.00055531
0.00065094
0.00047243
0.00023858
0.00026594
5.1372e-05
-0.00026799
-0.00017029
0.00025824
0.00051221
0.0002606
-5.5698e-05
-0.0002976
-0.00047191
-0.00025769
-0.00015904
-0.00019566
-0.00026989
-0.00016549
0.00054153
0.0011419
0.0012517
0.0011604
0.0010663
0.00067722
0.00046661
0.00035604
0.00013509
0.00023632
0.0003966
0.00070679
0.00074323
0.00070269
0.0010854
0.001303
0.0013177
0.001034
0.0006457
0.00042076
0.00031126
0.00026725
0.00036743
0.00084132
0.0012138
0.0010605
0.0011611
0.0016468
0.0016286
0.0013065
0.00097345
0.001064
0.001332
0.0013445
0.0015316
0.0017215
0.0018142
0.0020054
0.0019039
0.0017589
0.0013912
0.00096335
0.00088087
0.00075775
0.00060489
0.0005142
0.00059179
0.0005759
0.00047202
0.00038372
0.00049391
0.00071403
0.00067468
0.00049866
0.00038474
0.00030711
0.00030102
0.00030491
6.777e-05
-0.00013224
-0.00010811
-0.00015969
-5.1547e-05
0.00010407
0.00014244
-0.00016948
-0.00067827
-0.00091746
-0.0010919
-0.0015751
-0.0017893
-0.0016023
-0.0011488
-0.00047722
0.00020025
0.00055731
0.0010772
0.0017604
0.0018143
0.0014711
0.0011269
0.0013203
0.0026348
0.0042058
0.0045879
0.0034837
0.0019377
0.00052421
-0.0008472
-0.0022608
-0.0037645
-0.004856
-0.0051686
-0.0046229
-0.0024729
-0.00040326
0.00083196
0.0038151
0.0068553
0.0073228
0.0065207
0.0059152
0.0047919
0.0017646
-0.0009835
-0.0027844
-0.0035417
-0.0037801
-0.0034983
-0.0028773
-0.0025047
-0.0021942
-0.0018893
-0.0012735
-0.00054519
0.00011254
0.00080004
0.001073
0.00084967
0.0012713
0.0017913
0.0017151
0.001482
0.00086086
0.0004324
0.00076954
0.0010263
0.0011713
0.0014256
0.00169
0.0018125
0.0017823
0.0018416
0.0020861
0.0021932
0.0026785
0.0035072
0.0036344
0.0035058
0.0030779
0.0024014
0.0018846
0.0015877
0.0014604
0.0015449
0.0016369
0.0015401
0.0015835
0.0014504
0.00094454
0.00044532
-5.7439e-05
-0.00050494
-0.0010596
-0.0016202
-0.0018671
-0.0020468
-0.0020814
-0.0015678
-0.00096018
-0.00061731
4.4714e-05
0.00012588
-0.00054672
-0.00049375
0.0001812
0.00084191
0.001739
0.0024082
0.0024101
0.0020131
0.0017529
0.0015
0.00075513
0.00015303
-0.00034056
-0.00060608
-0.00043922
-0.00026511
0.0001015
0.00043657
0.00046576
0.00057119
0.00054353
0.00046642
0.00055634
0.00072449
0.00082082
0.0007359
0.0008253
0.00097247
0.00099051
0.0010666
0.0010633
0.0010773
0.0011583
0.0011328
0.0012241
0.001345
0.0012978
0.0011969
0.0010625
0.0010487
0.00097972
0.00077845
0.00082458
0.0011612
0.0013721
0.0014076
0.0012816
0.00085915
0.00052693
0.00085448
0.0012577
0.0013291
0.0015129
0.0016172
0.0015778
0.0016918
0.0018783
0.0020918
0.0021823
0.0020285
0.0020186
0.0020478
0.0019631
0.0018035
0.0016466
0.0018825
0.0022034
0.0023809
0.0026486
0.0029009
0.0028945
0.0026363
0.0023114
0.0021327
0.0019518
0.0018614
0.0020648
0.0024672
0.0028413
0.003021
0.0033936
0.0034961
0.0030789
0.002777
0.0024966
0.0020604
0.0017123
0.0015025
0.0012408
0.0012262
0.0015263
0.0015665
0.0015565
0.0016528
0.0014073
0.0009521
0.00043051
5.4473e-05
-0.00039248
-0.0009205
-0.0012672
-0.0012935
-0.0013445
-0.0016309
-0.0017645
-0.0017255
-0.0015547
-0.0013328
-0.0014319
-0.0015692
-0.0015894
-0.0017404
-0.0020434
-0.0021339
-0.0021111
-0.0021789
-0.0022987
-0.0026303
-0.002676
-0.0025192
-0.0023497
-0.0023292
-0.0023965
-0.0021288
-0.0020051
-0.0020885
-0.002052
-0.0021691
-0.0022296
-0.0018357
-0.0015831
-0.0016704
-0.0019168
-0.0019011
-0.0015686
-0.0012433
-0.0011246
-0.0011977
-0.001192
-0.001179
-0.0012237
-0.0012855
-0.0014234
-0.0016302
-0.0018826
-0.0018796
-0.0015009
-0.001022
-0.00062927
-0.0005671
-0.00066296
-0.0004585
-0.0001717
1.5234e-05
0.00022345
0.00041844
0.0004303
0.00044261
0.00084814
0.0011659
0.0011844
0.0012761
0.0015387
0.0018757
0.0020724
0.0020669
0.0018713
0.0016168
0.0014887
0.0014641
0.0016276
0.0018489
0.0021226
0.0024569
0.0027174
0.0030347
0.0031722
0.0031778
0.0030894
0.0029658
0.0029712
0.0030847
0.0031964
0.0031319
0.003023
0.0031354
0.0037213
0.0042381
0.0043631
0.00417
0.0039094
0.0037609
0.0037499
0.0038572
0.0036922
0.0033633
0.0030814
0.0027751
0.0026517
0.0028885
0.0033466
0.0037127
0.0035331
0.0029592
0.0026564
0.0027064
0.0026685
0.0022381
0.0016257
0.00096932
0.00085027
0.0011105
0.0013057
0.0017723
0.0022023
0.0018985
0.0011911
0.00079887
0.00067691
0.00031295
-0.00028989
-0.00068249
-0.00072074
-0.0005837
-0.00042634
8.0556e-05
0.00061991
0.00044769
-0.00020105
-0.0009401
-0.0012733
-0.0015703
-0.0020672
-0.0025437
-0.0026203
-0.0022555
-0.0019924
-0.0016949
-0.001278
-0.0012004
-0.0015836
-0.0020624
-0.0024163
-0.0024384
-0.0024958
-0.0026934
-0.0025755
-0.0023973
-0.0023008
-0.002078
-0.0018
-0.0017433
-0.0020721
-0.0024603
-0.0025399
-0.0025314
-0.0027275
-0.0033984
-0.0038222
-0.0034672
-0.0030552
-0.0028493
-0.0025405
-0.0021116
-0.0017226
-0.0015987
-0.0017695
-0.0020052
-0.0023328
-0.0025729
-0.0024641
-0.0022097
-0.0017554
-0.0015621
-0.0015219
-0.00105
-0.00059935
-0.00053634
-0.00070982
-0.00095103
-0.0010403
-0.00088593
-0.00098596
-0.00099671
-0.00084686
-0.00072128
-0.00039295
-5.5773e-05
0.00040707
0.00063444
0.0004292
0.00041126
-3.4582e-05
-0.0006535
-0.00096905
-0.00095749
-0.0005646
-0.00041325
-0.00031808
-0.00012762
9.0558e-05
0.00039803
0.00026792
-0.00032844
-0.0010115
-0.0014965
-0.0013628
-0.00083088
-0.00011938
0.00022224
0.00022548
0.00042935
0.00090934
0.0011876
0.0012072
0.00078747
2.699e-05
-0.00062939
-0.0010437
-0.0014187
-0.0016863
-0.0017172
-0.001542
-0.0012109
-0.00090831
-0.00042448
0.00047361
0.00099241
0.0011163
0.00094067
0.00071164
0.00079529
0.000987
0.0010186
0.0010154
0.00091209
0.0006959
0.00074442
0.0010013
0.0010592
0.00077627
0.00025346
-0.0001249
-0.00024564
-0.00080932
-0.0012711
-0.0013661
-0.0012728
-0.00093394
-0.00062512
-6.5091e-05
9.2956e-05
-0.00026866
-0.00035596
-0.00039036
-0.00052815
-0.00057779
-0.00076
-0.00083027
-0.00052355
-0.00029801
-0.00021715
-4.3471e-05
0.00014405
8.299e-05
-0.00026561
-0.00072022
-0.00089195
-0.00089322
-0.00094413
-0.00086345
-0.00070227
-0.0004854
-3.4342e-05
0.00036315
0.00063618
0.0006968
0.00041846
0.00012056
-0.0002918
-0.00056761
-0.00057516
-0.00051026
-0.00047754
-0.00054862
-0.00075826
-0.00085789
-0.0004617
6.8484e-05
0.00014216
6.1227e-05
0.00034828
0.00053722
0.00074953
0.00097182
0.00086967
0.00087698
0.001167
0.0010982
0.00077833
0.00094332
0.0010629
0.00076482
0.00053521
0.00044735
0.0003924
0.00041221
0.00045727
0.00057363
0.00045763
0.0001559
0.00018472
0.00029975
0.00022772
-1.899e-05
-0.00033242
-0.00044141
-0.00039911
-0.00031634
-0.00010559
-3.1134e-06
0.00033815
0.0012831
0.002212
0.0025191
0.0023479
0.0019629
0.0014099
0.0013069
0.00169
0.0017497
0.0014182
0.0012425
0.0013306
0.0014803
0.0018434
0.0021332
0.0020504
0.0017111
0.001294
0.001137
0.001166
0.0008673
0.00069597
0.00097487
0.0015038
0.0017201
0.0018443
0.0019198
0.0019395
0.0020153
0.0019675
0.0015804
0.0011254
0.00086209
0.00065602
0.00062047
0.00058432
0.00061001
0.00066759
0.00057341
0.00074039
0.00091291
0.00086165
0.0010294
0.0011299
0.0011695
0.001211
0.0012575
0.00133
0.00095823
0.0006059
0.00064627
0.0006674
0.0005139
5.902e-05
-0.00019376
-0.00012215
-7.4728e-05
-0.00011003
-0.0003923
-0.00064587
-0.00058693
-0.00049782
-0.00037487
-5.0902e-05
0.00014885
-1.4561e-05
-0.00031907
-0.00030016
-0.00026681
-0.0003183
-0.00027091
-0.0004837
-0.00055251
-0.00019931
9.5672e-06
7.8394e-05
0.00032934
0.00046441
0.00029253
-1.0486e-05
-0.00046182
-0.00061137
-0.00042502
-0.00049214
-0.00070236
-0.00061342
-0.00030586
-0.00010248
0.00014482
0.00038688
0.00046557
0.00059179
0.00076408
0.00096034
0.00094897
0.00066741
0.0003122
-8.9656e-06
-0.00024952
-0.00025132
-0.00011709
-5.7309e-05
0.00034297
0.00077606
0.0011012
0.0015598
0.0017675
0.0018254
0.0018523
0.0016968
0.001801
0.0020044
0.0021347
0.002343
0.0027383
0.0031522
0.0033146
0.0032557
0.0031237
0.0030327
0.0026969
0.0024121
0.0021968
0.0017904
0.001672
0.0018933
0.0023394
0.0029835
0.0033892
0.0034717
0.0033446
0.0030035
0.0026268
0.0021757
0.0017812
0.0014931
0.0014309
0.0016692
0.0020446
0.0025629
0.0028852
0.0025271
0.0018051
0.0012973
0.0011719
0.00097657
0.00061746
0.00031117
-3.9588e-05
-0.0001913
-1.7944e-05
0.00058864
0.0010701
0.0010129
0.00065355
0.00014213
-0.00035858
-0.00040374
-0.00034728
-0.00058385
-0.00062492
-0.00056732
-0.0004479
3.602e-05
0.00046036
0.00056089
0.00030891
-0.00017374
-0.00067757
-0.0011802
-0.0016872
-0.0021177
-0.002335
-0.0024684
-0.0026182
-0.0025985
-0.0020752
-0.0012363
-0.00063018
-0.00025575
-0.00036884
-0.00090461
-0.0014489
-0.0018516
-0.0019535
-0.0020023
-0.0022088
-0.0024214
-0.0026404
-0.0025963
-0.0020727
-0.0018047
-0.0018959
-0.0021709
-0.0024749
-0.0025465
-0.0024559
-0.0021928
-0.0017822
-0.0016668
-0.00176
-0.0014661
-0.0011215
-0.0011473
-0.0011706
-0.0010353
-0.0010727
-0.0012021
-0.0016249
-0.0020272
-0.0020206
-0.001887
-0.0017877
-0.0010986
-0.00045302
-0.0002005
3.9025e-05
8.0631e-05
0.00019687
0.00030883
0.00026317
0.00019182
0.00016746
0.00017918
0.00038039
0.00079737
0.0012895
0.0016565
0.0015585
0.0012989
0.0012102
0.0011339
0.0010825
0.0010647
0.0010459
0.00096157
0.00078645
0.00078966
0.00094021
0.0010147
0.0012544
0.0015326
0.0017054
0.0017712
0.0016648
0.0013915
0.00096904
0.00050887
0.00029433
0.00045064
0.00060039
0.00064172
0.00081065
0.00086599
0.00076958
0.00063257
0.0004519
0.0002885
-1.672e-05
-0.0003209
-0.0002836
-2.6839e-05
0.00023364
0.00025368
0.00034213
0.00070389
0.00078249
0.00063425
0.0005
0.00013437
-0.0001246
-0.00028464
-0.00037648
-0.00047765
-0.0004912
-0.00041038
-0.00019751
5.0144e-05
0.00016371
0.00028172
0.00017156
8.8806e-05
2.2277e-05
-4.6097e-05
6.1734e-05
6.0437e-05
-0.00014242
-0.00041531
-0.00047481
-0.00039872
-8.9235e-05
0.00020702
0.00049102
0.00058822
0.00046323
0.00029068
0.0002454
0.00044516
0.00046011
0.00028213
0.00017225
7.1452e-05
4.643e-05
7.5167e-05
0.00021527
0.00025459
0.00011549
9.2082e-06
-0.00011605
-2.3326e-05
4.6401e-05
3.8265e-05
7.132e-06
4.9704e-05
0.00017599
0.00025023
0.00029736
0.00026594
0.00027024
0.00025358
0.00013719
9.7177e-05
0.00016684
8.5376e-05
-0.00032192
-0.00035237
-0.00019904
3.0169e-05
0.00048907
0.00087503
0.0010161
0.00079452
0.00042691
0.00037254
0.00033024
0.00026862
0.00021223
0.00013283
0.00016234
0.00030163
0.00046913
0.00063799
0.00094055
0.0013133
0.0013292
0.0010744
0.0012041
0.0012576
0.00086084
0.00059728
0.00017511
-0.00022254
-0.00036881
-0.00027196
-8.8834e-05
8.3159e-05
0.00046838
0.00087002
0.00099261
0.00096963
0.00080036
0.00066905
0.00072709
0.00062459
0.00034951
2.905e-06
-5.8638e-05
0.00043748
0.00072828
0.0010399
0.0015018
0.0018282
0.0020356
0.0021019
0.0020666
0.0018733
0.0015468
0.001069
0.0006749
0.00027045
3.6339e-05
0.00021959
0.0001995
0.00032738
0.00087762
0.0012748
0.0014909
0.0016646
0.0015907
0.0014647
0.0012868
0.00095142
0.00067053
0.00045295
0.00027306
0.00025308
0.00061976
0.0012677
0.001432
0.0012464
0.0012308
0.0011398
0.00081396
0.00048283
0.00035584
0.00035854
0.00030918
0.00020562
0.00033162
0.00067231
0.00072164
0.00061566
0.00043825
0.00019618
-4.7972e-05
-0.00044408
-0.00057618
-0.00050635
-0.0004535
-0.00035592
-0.00010719
0.00027277
0.0005168
0.00051755
0.00021816
-8.4804e-05
-0.00015711
-0.00026689
-0.0005011
-0.00061434
-0.00073741
-0.00089152
-0.00084762
-0.00060184
-0.00031732
-0.00032614
-0.0005373
-0.0008038
-0.0011098
-0.0011365
-0.0010228
-0.00091399
-0.0011934
-0.0015116
-0.0015089
-0.0010648
-0.00035497
9.0645e-05
0.00021923
0.00035519
0.00039821
0.00045585
0.00041681
0.00012229
2.6033e-05
-4.9976e-05
-0.00015071
0.00010124
0.00039787
0.00053555
0.00059759
0.00064996
0.00069788
0.00081814
0.00061477
0.00022244
-2.3047e-05
-0.00019088
-0.00018347
0.00013441
0.00056979
0.00092063
0.0010433
0.00092653
0.0007905
0.00078448
0.00063332
0.00030234
0.00012551
-3.0787e-05
-0.00011519
-0.0001395
4.0335e-05
0.00039195
0.00048761
0.000399
0.00031367
0.00030637
0.00025124
0.00014315
0.00010841
-1.6825e-05
-0.00014756
-8.3805e-05
-0.00017423
-0.00019313
-0.00013921
-0.00039396
-0.00062679
-0.00061445
-0.00051096
-0.00033314
-9.0031e-05
0.00026559
0.00067002
0.00084589
0.00086453
0.00095727
0.0012021
0.0014283
0.0016413
0.0016648
0.0014378
0.0012787
0.00087987
0.00027672
-5.9729e-05
-7.8609e-05
6.5836e-05
0.00037054
0.00049881
0.00046645
0.00037513
-1.9323e-05
-0.00038927
-0.00034299
-0.0004231
-0.00066341
-0.00065827
-0.00051028
-0.00034721
-0.00014248
7.6201e-05
6.9554e-05
-0.00015102
-0.00040634
-0.00070737
-0.00067152
-0.00070947
-0.0009252
-0.00078551
-0.00060085
-0.00058857
-0.00060664
-0.00054356
-0.00038069
-0.00042443
-0.00068548
-0.00089673
-0.00097609
-0.00088209
-0.00056706
-0.00040887
-0.00033935
-0.00015393
7.2634e-05
0.00039442
0.00084444
0.0010062
0.00074894
0.0005753
0.00039495
0.00013796
0.00032687
0.00082789
0.001012
0.0009577
0.00077786
0.00077811
0.0010489
0.0011696
0.0012485
0.0013089
0.0011576
0.0010875
0.0012589
0.0014859
0.0016908
0.0016536
0.0013933
0.0013398
0.0014533
0.001486
0.0013901
0.0011514
0.0010131
0.0011921
0.0014681
0.001568
0.0014204
0.0010563
0.00058994
0.00047697
0.00066585
0.00072776
0.00070913
0.00086143
0.0012269
0.0013832
0.0014417
0.0012838
0.0011707
0.0014767
0.0016745
0.001784
0.0020236
0.0023297
0.0024434
0.0020832
0.001795
0.0020404
0.0027173
0.0034379
0.0039157
0.0041675
0.0043352
0.0041215
0.0034731
0.0028269
0.0022696
0.0017401
0.00129
0.00087464
0.00032595
-0.00028537
-0.00082812
-0.0010422
-0.0013695
-0.0018768
-0.0021835
-0.0026419
-0.0032734
-0.0039682
-0.0040612
-0.0034151
-0.0029815
-0.0023482
-0.00075621
0.00051592
0.0011904
0.0025682
0.0037497
0.0032738
0.0023187
0.0012862
-0.00055774
-0.0023863
-0.0030452
-0.0027071
-0.0024069
-0.0020912
-0.0017102
-0.0012645
-0.00078779
-0.00032882
2.9101e-05
0.00062185
0.00094961
0.0005887
0.00104
0.0015427
0.0015843
0.0010322
-0.00060885
-0.0019513
-0.0026744
-0.0024844
-0.0018631
-0.0013777
-0.0015464
-0.0019443
-0.0022524
-0.0022755
-0.0019007
-0.0016097
-0.0013827
-0.00099307
-0.0004787
5.9824e-05
0.00022513
0.00016997
0.00011175
-7.7709e-06
-0.0001185
-0.00016602
5.5878e-05
0.00062514
0.0012945
0.0017447
0.0018146
0.0019783
0.0021419
0.0016626
0.00086743
0.00049106
0.00026008
-5.3745e-05
-2.1739e-05
0.00013926
0.00045674
0.00077348
0.00072322
0.00057291
0.0005773
0.0005649
0.00052247
0.00034434
0.0003203
0.00051782
0.00086626
0.00099973
0.00096641
0.00097179
0.0008869
0.00088498
0.00086222
0.000639
0.00044731
0.00039821
0.00053845
0.00069026
0.00088811
0.0011894
0.0013387
0.0014277
0.0014582
0.0015923
0.0016474
0.0015826
0.0015981
0.0013835
0.0012517
0.0013931
0.0014124
0.00119
0.00098238
0.00087593
0.00087055
0.0010458
0.0014485
0.0016215
0.001414
0.0013751
0.0014552
0.0014754
0.0012899
0.00080726
0.00047146
0.00024398
0.0001315
0.0004105
0.00036792
0.00012004
0.00018766
0.00015618
0.00018776
0.00024784
0.0002361
0.00032134
0.00048648
0.00080528
0.00092629
0.00091346
0.0011308
0.0012081
0.0012009
0.0011719
0.0010698
0.0010734
0.00076704
0.00041471
0.00035998
0.00041631
0.00061652
0.00062898
0.0006245
0.001015
0.0014995
0.0018317
0.0017265
0.0013197
0.001155
0.0011094
0.0010567
0.00091992
0.00076516
0.00070047
0.00075436
0.00098074
0.0012424
0.0011139
0.00078152
0.00028747
-0.00018296
-0.00049397
-0.00096579
-0.00128
-0.0010912
-0.00066703
-0.0001917
0.00044459
0.00059656
0.00019221
-8.8172e-05
-0.00014123
-1.3895e-05
0.00029745
0.00039009
0.0005354
0.00095508
0.00098109
0.0011427
0.0016099
0.0017
0.0014483
0.0012815
0.0015663
0.0017029
0.001526
0.0014803
0.0015651
0.0018237
0.0018065
0.0018671
0.0025855
0.0035712
0.004633
0.0049002
0.0035964
0.0013347
-0.0013435
-0.0041052
-0.0061098
-0.0071987
-0.0068812
-0.0057804
-0.0053223
-0.0046382
-0.0037546
-0.0029354
-0.0018092
-0.00054628
0.00045332
0.00137
0.0021999
0.0022404
0.0010625
-0.00092469
-0.0029976
-0.0044436
-0.0051687
-0.0054257
-0.0052592
-0.004889
-0.0042033
-0.0033246
-0.0024997
-0.0017714
-0.001238
-0.00076314
-0.00035894
-0.00022655
-0.00012832
2.4411e-05
9.6652e-05
0.00023951
0.00026525
-0.00034013
-0.00043515
-0.00010584
-0.00015266
-3.4203e-05
-5.6556e-05
-0.00017437
0.00010727
0.00037527
0.00035908
0.00035325
-2.783e-05
-0.00062503
-0.0011973
-0.0020547
-0.0027639
-0.0030326
-0.0033157
-0.0034336
-0.0034782
-0.0029893
-0.002576
-0.002327
-0.0020752
-0.0017027
-0.0010949
-0.0003637
0.00071298
0.0018158
0.0022542
0.0022348
0.0023802
0.0028178
0.0034435
0.0041006
0.0048882
0.0059194
0.0069728
0.0075895
0.0073296
0.0055329
0.0025405
3.1133e-05
-0.0016531
-0.0022644
-0.0020049
-0.001493
-0.0010037
-0.00051995
0.00031759
0.0012004
0.0018639
0.0024629
0.0027122
0.0026174
0.0024699
0.0024752
0.0023844
0.0022603
0.0022349
0.0022696
0.0025457
0.0029726
0.0032858
0.0033904
0.0032627
0.0030154
0.0026959
0.0022631
0.0020396
0.002059
0.0020908
0.0021892
0.002381
0.0029601
0.0035901
0.0036152
0.003114
0.0023447
0.0018784
0.001767
0.0014843
0.0011578
0.00086756
0.00073058
0.00082674
0.0011562
0.0015656
0.0018314
0.0017611
0.0009908
-0.0001767
-0.0012491
-0.0019242
-0.0021592
-0.0021938
-0.002458
-0.0026966
-0.002453
-0.0015128
3.8108e-05
0.0013531
0.0018252
0.0016605
0.0014616
0.00145
0.0014811
0.0017229
0.0020084
0.002106
0.0020859
0.0021164
0.0024814
0.0029329
0.0027514
0.0024244
0.0023254
0.0020308
0.0018922
0.0016849
0.0012861
0.001127
0.0010893
0.0013389
0.0015993
0.0013884
0.0011853
0.00092465
0.00056871
-2.9806e-05
-0.00059368
-0.00082812
-0.00090907
-0.00073914
-0.00033974
-3.7055e-05
4.8247e-05
-0.00017333
-0.0005007
-0.00079554
-0.0010199
-0.0012383
-0.0014358
-0.0015171
-0.0014549
-0.0010965
-0.00060127
4.6411e-05
0.00054624
0.00069184
0.00062239
0.00055208
0.00057235
0.00051568
9.7912e-05
-0.00047325
-0.00074714
-0.00078434
-0.0004893
-0.00012689
-9.9157e-05
-0.00048794
-0.00078741
-0.00098249
-0.0010313
-0.0012078
-0.0015385
-0.0016369
-0.0016008
-0.0014144
-0.001178
-0.00077861
-0.00067679
-0.00099108
-0.0011886
-0.001449
-0.0018375
-0.0023097
-0.0028556
-0.0030308
-0.0028088
-0.0026308
-0.0023089
-0.0016158
-0.0011962
-0.0012705
-0.0014021
-0.0014535
-0.0014231
-0.0014478
-0.0016052
-0.0015657
-0.0012238
-0.0009197
-0.00054276
0.00012459
0.00062831
0.00049894
-1.983e-05
-0.00016624
-0.00021292
-0.00028092
-0.0002836
-0.00028248
-0.00017047
-0.00016754
-8.9367e-06
0.00053864
0.00072119
0.00021434
-3.1349e-05
-3.1124e-05
-0.00016512
-0.00023597
-9.964e-05
0.00030021
0.00070037
0.00087425
0.0010062
0.0012335
0.0011574
0.00068599
0.00032035
0.00012803
-4.4176e-05
-0.00013192
-6.5468e-05
0.00014564
0.00031237
0.00033437
0.00049474
0.00055197
0.00041975
0.00021678
0.00018351
0.00033477
0.00027504
0.00011607
3.8807e-05
6.2664e-05
3.0792e-05
2.9919e-06
0.00026056
0.00051013
0.00017982
-0.00060493
-0.0014615
-0.0024042
-0.0029759
-0.0029893
-0.0028388
-0.0027961
-0.0026948
-0.001929
-0.0001022
0.002296
0.003792
0.0035448
0.0024201
0.0015281
0.00072241
-7.6805e-05
-0.00021481
9.953e-05
0.00049488
0.00085073
0.0012401
0.0015525
0.001551
0.0011915
0.00093261
0.0008315
0.00025163
-0.00022746
-0.00059354
-0.0011375
-0.0015431
-0.0019705
-0.0017072
-0.00073624
-0.00019659
-0.00039031
-0.00059906
-0.00050976
-0.00060922
-0.00070587
-0.00046486
-5.5805e-05
0.00038827
0.00099056
0.0014681
0.0018822
0.0022178
0.0019424
0.001573
0.0014955
0.0014116
0.0013078
0.0010342
0.00073049
0.00085204
0.0010174
0.0013189
0.0016624
0.0015679
0.0011878
0.0006826
0.00034987
0.00040922
0.00021418
5.8829e-06
-0.00016176
-0.00044388
-0.00050868
-0.00038943
-0.00020935
-0.00079269
-0.0011737
-0.0012532
-0.0018047
-0.0014169
-0.0014573
-0.0018692
-0.0016978
-0.0014491
-0.0012125
-0.00069706
-0.00013804
-4.8808e-05
-0.00042612
-0.000579
-0.00062609
-0.00054507
-0.0003264
-0.00021557
-0.00012117
6.5335e-05
0.0003192
0.00057324
0.00092514
0.0013119
0.0011202
0.00053876
-4.6499e-06
-0.00014941
-0.00016368
-4.4819e-05
0.00020562
0.00038618
0.00067558
0.00092923
0.0010491
0.0011437
0.00074711
0.00016455
-0.00029686
-0.00067375
-0.00092001
-0.00071888
-0.00038859
-0.00012296
0.00028417
0.0006918
0.00086217
0.00086186
0.00070039
0.00055496
0.00043058
0.00026148
-3.5821e-06
-0.00021714
-2.4266e-05
-4.1247e-05
8.8298e-05
0.00053257
0.00071225
0.0010661
0.00091737
0.00046787
0.00016707
6.2628e-05
7.2052e-05
-8.4772e-06
-9.7512e-05
0.0004105
0.0010588
0.0012077
0.0012824
0.0014183
0.0011856
0.0010146
0.00081996
0.0004291
4.5566e-06
-3.1123e-05
0.00028574
0.00059548
0.0008206
0.00093748
0.0013641
0.0016653
0.0012724
0.00084987
0.00048802
0.00012161
0.00010752
-1.679e-06
-7.5891e-05
0.00035443
0.00073914
0.0010407
0.0015759
0.0021156
0.0022343
0.0021986
0.0021416
0.0020065
0.001771
0.0013871
0.00073196
0.00029637
0.00021115
0.00026324
0.0004438
0.00086651
0.001253
0.0012425
0.00091055
0.000479
-0.00015207
-0.00035776
-0.0002948
-0.00025857
-0.00039778
-0.00050791
-0.00028919
0.00036691
0.0011454
0.0017999
0.0018447
0.00095662
-3.3347e-05
-0.00046941
-0.00052362
-0.00074472
-0.00095824
-0.00093003
-0.00088873
-0.00077
-0.00039474
-0.00025915
-0.00045243
-0.00058859
-0.00063809
-0.00077034
-0.0010803
-0.0013186
-0.0015366
-0.0018132
-0.0017195
-0.0011585
-0.00063269
-0.00014851
1.2271e-05
-0.00036059
-0.00056743
-0.00048058
-0.00036503
-0.00043882
-0.00058356
-0.00029159
-0.00037721
-0.00094303
-0.00087383
-0.00030685
-0.00012616
-0.00022879
-0.000439
-0.00049499
-0.0005645
-0.0005216
-0.00037533
-0.00023121
-0.00040465
-0.00044383
-0.00051397
-0.00033586
-0.00014096
-5.9553e-05
-0.00013462
-0.00023879
-0.00022597
-0.00016311
-0.00028537
-0.00031697
-0.0003436
-0.00064302
-0.00097471
-0.00086409
-0.00053812
-0.00051001
-0.0004615
-0.00048071
-0.00045154
-0.00046157
-0.00053524
-0.00031787
-0.00047043
-0.0006093
-0.00067615
-0.00091056
-0.00065242
-2.5103e-05
-0.00026333
-0.00034753
2.8091e-05
-4.4722e-05
-0.00010736
0.00020698
-0.00027778
-0.0005131
-0.00039415
-0.00022875
-2.3261e-05
0.0002398
4.8013e-06
-0.00029135
-0.00035466
-0.00043932
-0.00044993
-0.00068003
-0.00082638
-0.00080856
-0.00086853
-0.0006667
-0.0004075
-0.00015938
-2.3654e-05
-0.00016554
-0.00072073
-0.0011174
-0.0013964
-0.0015925
-0.0017582
-0.0019571
-0.0017104
-0.0011108
-0.00062421
-0.00031399
-0.00050976
-0.00086695
-0.00098183
-0.00088025
-0.0010367
-0.0011316
-0.0012361
-0.001436
-0.0013489
-0.0011017
-0.00066156
-0.00018987
0.00020289
0.00030044
0.0002654
0.00024115
5.073e-05
-6.5756e-05
8.0203e-05
0.00027395
0.00049141
0.00066717
0.00053745
0.00051124
0.00084298
0.0011295
0.0011873
0.00097343
0.00072851
0.00061646
0.00055563
0.00060462
0.00070995
0.00064089
0.00061666
0.00091879
0.0011459
0.0015167
0.0018299
0.0016274
0.0012375
0.0010155
0.00071123
0.00026778
0.00015802
0.00020431
0.00032366
0.00075752
0.0010571
0.0012112
0.0013638
0.0010536
0.00076991
0.00076358
0.00073031
0.00059709
0.00048146
0.00019246
0.00053667
0.0013954
0.0012559
0.0016064
0.0020478
0.0013734
0.0011069
0.0013856
0.0012286
0.001143
0.00095553
0.00039614
0.00029524
0.00040146
0.00044392
0.00055045
0.00086027
0.001197
0.0012795
0.0010175
0.00050323
1.1349e-05
-0.0002369
-6.7733e-05
0.00038253
0.00057204
0.00072323
0.0010601
0.0014569
0.0020555
0.0026465
0.0023097
0.0013696
0.00078393
0.00048156
0.00019641
2.7812e-05
-9.4458e-05
-0.00018781
-3.5009e-05
0.00033793
0.00086736
0.001415
0.0014665
0.001193
0.00065592
0.00015128
-0.00050692
-0.0015268
-0.0019928
-0.0017249
-0.0012355
-0.00032118
0.00046941
0.0013601
0.0021634
0.0020827
0.0015575
0.0010005
0.00056948
0.00034759
8.6664e-05
-0.0001649
-5.7283e-05
9.9044e-05
0.00015956
0.00026331
0.00076725
0.0012899
0.0012989
0.0012968
0.0010841
0.00076209
0.00048662
0.0003216
0.00038494
0.00018272
-0.00013735
-0.00021302
-0.00023328
-2.5572e-05
0.00022507
0.00016737
9.138e-05
0.00014668
-5.7087e-05
-0.00037334
-0.00061601
-0.00080944
-0.00067436
-0.00045417
-0.00027018
0.0003135
0.00054239
-1.233e-05
-0.00036487
-0.00064285
-0.00073599
-0.00097075
-0.0011094
-0.0010378
-0.00089664
-0.00061736
-0.00056858
-0.00040529
5.499e-05
0.0004542
0.00085377
0.00086878
0.00079663
0.00072209
0.00026792
-0.00036737
-0.00079516
-0.00095463
-0.00078667
-0.00045335
7.4369e-05
0.00084768
0.0010601
0.00070648
0.00044984
0.00028173
0.00013981
-0.00011417
-0.00032935
-0.00047619
-0.00033755
-0.00030005
-0.00039005
-9.8e-05
0.00026692
0.00029089
0.00022163
-0.00022405
-0.00056872
-0.00069073
-0.0010046
-0.0010599
-0.0010176
-0.000632
-0.00017805
0.00023302
0.00073138
0.0011605
0.001296
0.00026831
-0.00091371
-0.00095015
-0.00044546
-0.00018548
-0.00010374
9.6374e-05
-0.00015483
-0.00091481
-0.001373
-0.00096314
-0.00071947
-0.00084425
-0.00086576
-0.00062763
4.4981e-05
0.00096969
0.0017491
0.0020987
0.002032
0.0020226
0.0024196
0.0027747
0.003438
0.0042319
0.0043442
0.0037364
0.0026095
0.0014688
0.00047905
-0.00030545
-0.00094629
-0.0017739
-0.0028626
-0.0037299
-0.0037537
-0.0031432
-0.0025586
-0.0023912
-0.0023856
-0.0021031
-0.0020461
-0.0022236
-0.0021169
-0.0018099
-0.0014764
-0.0011056
-0.00063764
-0.00029066
-0.00061684
-0.0010725
-0.0010522
-0.00065155
-5.9018e-05
0.00034849
0.00060782
0.00089587
0.0013805
0.0020301
0.002555
0.003147
0.0034529
0.0031342
0.0025255
0.0018754
0.0014502
0.0010197
0.00056132
0.0001654
-0.00015022
-0.00033654
-0.00039838
-6.0153e-05
0.00068239
0.0011953
0.0010032
0.00032055
-0.00023865
-0.00037033
-0.00050976
-0.00098783
-0.0013772
-0.0014993
-0.0018204
-0.0014825
-0.00062676
-0.0001357
-0.00012609
-0.00051366
-0.00062458
-0.0007491
-0.0010788
-0.0013994
-0.001621
-0.0016525
-0.0014575
-0.0012346
-0.00091928
-0.00033299
-7.1329e-05
-0.00021673
-0.00039794
-0.00051807
-0.00086292
-0.0011697
-0.0013042
-0.0012916
-0.0011909
-0.0011513
-0.0012121
-0.0011438
-0.0010455
-0.0010554
-0.0011141
-0.0011197
-0.0011009
-0.0013367
-0.00135
-0.0012867
-0.00098625
-0.00055777
-0.00018143
0.00010993
0.00044695
0.00080693
0.00095808
0.001037
0.0012062
0.0012732
0.001047
0.00081085
0.00050316
0.00013044
-0.00052444
-0.0010958
-0.00088529
-0.00084512
-0.00062097
-0.00040952
-0.00051606
-0.00036459
-0.00026365
-0.0007483
-0.0010438
-0.0013806
-0.001509
-0.0012265
-0.0011475
-0.00070196
-2.1249e-05
0.0002178
9.9619e-05
-0.00021054
-0.00049393
-0.0003954
-0.00045817
-0.00048597
-0.00030973
-0.00010876
0.00015693
0.00022704
0.00056171
0.00093438
0.00084135
0.00079661
0.00070916
0.00071574
0.00087236
0.0010108
0.0011158
0.0012238
0.0015697
0.0016487
0.0017408
0.002124
0.0019613
0.0017772
0.0014332
0.0008851
0.00066187
0.00015751
-8.4227e-05
3.9455e-05
-1.8664e-05
0.00013507
0.000233
0.00081762
0.00089493
0.0006546
0.00089387
0.00083834
0.00066419
0.0011382
0.00085418
0.00057226
0.00049562
0.00018506
7.8512e-05
0.00053686
0.00062836
0.00028399
0.00029255
0.00060604
0.00089674
0.00080176
0.00070795
0.00033066
-4.8462e-05
0.00030105
0.00063061
0.0011438
0.0016321
0.0015293
0.0011294
0.0007008
2.5532e-05
-0.00041506
-0.00027751
-0.00020657
-9.4891e-05
-0.00015186
0.0001416
0.00089528
0.0012793
0.0010233
0.00039035
-0.0001795
-0.00018804
-9.3876e-05
-0.00011306
7.9516e-05
0.00023096
0.00036582
0.00050266
0.00055838
0.0007864
0.00069206
0.00054387
0.00051777
0.00038784
0.00032295
0.00022092
0.00032757
0.000306
0.00014612
3.7042e-05
4.7372e-05
9.6867e-05
-0.00027777
-0.00056696
-0.00081921
-0.00093522
-0.00070991
-0.00050733
-0.00042927
-0.00017595
0.00028738
0.00088171
0.0015346
0.0021049
0.0021313
0.0018087
0.0015585
0.001263
0.00092941
0.00053877
-4.8078e-06
-7.9652e-05
0.00014945
0.00018601
0.00064555
0.0012923
0.0014119
0.0010873
0.00086867
0.00084796
0.00082848
0.00063448
0.00036388
0.00028762
0.00020668
0.00011343
0.00033672
0.00042258
0.00013481
0.00019244
0.00021203
-6.5614e-05
-0.00016272
-0.0001835
-0.00022646
0.00010901
0.00059834
0.00099655
0.0013277
0.0016749
0.0015961
0.00092847
0.00036839
0.0003077
0.00021941
0.00035818
0.0003659
0.00038142
0.00054074
0.00066853
0.00093002
0.00096598
0.00077454
0.00083281
0.00092643
0.00053042
-0.00023095
-0.00068297
-0.00042347
-0.00029219
-6.0523e-05
0.00017622
-0.00017701
-0.00049031
-1.2493e-05
0.00043041
0.00050098
0.00015762
-0.00017116
-0.00037044
-0.00048056
-0.00073879
-0.000839
-0.00061353
-0.00031371
-0.00015289
-0.00032726
-0.0003157
-3.6419e-05
7.5847e-05
4.2455e-05
-0.00010556
-0.00025614
-0.00017233
6.8021e-05
0.00035381
0.00055373
0.00043354
0.00077911
0.00064234
0.0006024
0.00096359
0.00056674
0.0006871
0.001157
0.0013315
0.0013179
0.0010811
0.00080277
0.00076361
0.00063721
0.00077349
0.00068511
0.00070339
0.00077602
0.00072762
0.0011216
0.0010471
0.00039812
0.00049236
-0.00033515
-0.0012097
-0.001082
-0.0010845
-0.00091726
-0.00054097
0.00010282
0.00082652
0.00087648
0.00052339
0.0005951
0.00046826
0.00024066
0.00021538
0.00028031
0.00014188
0.00024726
0.00076734
0.001369
0.0022023
0.0027362
0.0028131
0.0026643
0.0022199
0.0017186
0.0016392
0.0016398
0.0016239
0.0017166
0.0020801
0.0025498
0.0030348
0.0032496
0.0030276
0.0026914
0.0022976
0.0018484
0.0014408
0.0010792
0.00088299
0.00091667
0.0010742
0.0012289
0.0014209
0.0014247
0.0012084
0.0011251
0.0011351
0.0010868
0.00091501
0.00055666
0.0005037
0.00063708
0.00060622
0.0007237
0.0008896
0.00054615
-7.9707e-06
-0.00045369
-0.00092081
-0.0013145
-0.0020001
-0.0027257
-0.003536
-0.0047611
-0.0054681
-0.0053874
-0.0055342
-0.0053467
-0.0048548
-0.0051087
-0.0058519
-0.0063227
-0.0062984
-0.0057367
-0.0044056
-0.0028473
-0.0017149
-0.00095102
-0.00014893
0.00025169
0.00016259
-0.00012333
-0.00035274
-0.00048557
-0.00064475
-0.00081682
-0.00097193
-0.00099925
-0.00071729
-0.00015328
0.00037866
0.00050094
0.00021909
-0.00026485
-0.00066957
-0.00081187
-0.00083765
-0.00073257
-0.00060847
-0.00055504
-0.00043807
4.6909e-05
0.00070892
0.00086928
0.00066751
0.0004356
0.00017133
0.00013037
0.00028979
0.00043435
0.00060462
0.00063387
0.00074606
0.0010164
0.0012573
0.0012299
0.00094569
0.00071737
0.00049315
0.00055609
0.0007727
0.00081559
0.00091529
0.0010819
0.001329
0.0016251
0.0019576
0.0022523
0.0023601
0.0022297
0.0019631
0.0017724
0.0015428
0.0012926
0.0013209
0.0016844
0.0020749
0.0022419
0.0023116
0.0025802
0.0028758
0.0028362
0.0027131
0.0025385
0.0023459
0.0020869
0.001975
0.0019877
0.0020008
0.0021037
0.0022858
0.0027071
0.0030437
0.002926
0.0025149
0.0019968
0.0017592
0.0015153
0.0010485
0.00073884
0.00083337
0.0012458
0.0018047
0.0024543
0.0032294
0.0035125
0.0031833
0.0027874
0.0025472
0.002374
0.0021179
0.0017647
0.0013184
0.0010425
0.0010805
0.0011251
0.0012592
0.0016455
0.0020052
0.0018285
0.0013824
0.00090381
0.00050651
0.00020635
-5.8607e-05
-0.00014199
-4.2104e-05
5.2663e-05
0.0001294
8.7766e-05
0.00020711
0.000745
0.00077225
0.00015493
-0.00043567
-0.00091619
-0.0012489
-0.0013866
-0.0013872
-0.0012761
-0.0010462
-0.00071921
-0.00013867
0.00049008
0.00063997
0.00039736
0.00015589
-0.0001025
-0.00045952
-0.00083701
-0.0012566
-0.0015531
-0.0016006
-0.0014577
-0.0011823
-0.00087929
-0.00080109
-0.00097655
-0.0010353
-0.0011061
-0.0012813
-0.001485
-0.0017323
-0.0018933
-0.0017641
-0.0015956
-0.0014268
-0.0011449
-0.00081671
-0.00075021
-0.00096844
-0.0012561
-0.0016776
-0.0021927
-0.0026278
-0.0029803
-0.0029173
-0.0022881
-0.0013849
-0.00041191
0.0005918
0.0015435
0.0021847
0.0022484
0.0021072
0.0019418
0.0016175
0.0013817
0.0012696
0.0010814
0.0009376
0.0011113
0.0015972
0.0025129
0.0032428
0.0034123
0.0033537
0.0031169
0.0028487
0.002648
0.0024016
0.0019757
0.0018356
0.0017981
0.0017295
0.001803
0.0017381
0.0014898
0.001456
0.0015699
0.0016195
0.0015597
0.0011863
0.000719
0.00020041
0.00021478
0.0010958
0.001961
0.0023231
0.0022301
0.0018944
0.0014658
0.00096055
0.0003458
-0.00012733
-0.00027155
-0.0002227
-0.00011158
0.00037539
0.00085317
0.00088345
0.00078193
0.00054596
0.00017943
-0.00011492
-0.00033754
-0.00052978
-0.00045209
-0.00033666
-0.00021674
0.00019188
6.0182e-05
-0.00058277
-0.0011015
-0.0015329
-0.0017433
-0.0013281
-0.0010011
-0.001792
-0.0032119
-0.0047028
-0.0063164
-0.0078571
-0.0094895
-0.010827
-0.010998
-0.0098646
-0.0077914
-0.0056248
-0.0039504
-0.0026142
-0.0014834
-0.00046733
0.00012112
7.1747e-05
-0.00017111
-0.00049459
-0.00089078
-0.0015381
-0.0037094
-0.0062351
-0.0067281
-0.0050037
-0.0028603
-0.00099353
0.0010508
0.0029522
0.0048722
0.0073811
0.010512
0.013286
0.011977
0.0079315
0.0051744
0.0040246
0.0032189
0.002392
0.0014372
0.00055445
0.00036995
0.00048034
0.00062998
0.00066534
0.00056265
0.00042458
0.00054789
0.00073196
0.00042382
-2.1236e-05
-0.00020537
3.5583e-07
0.00040394
0.00062318
0.00084473
0.0010656
0.0011392
0.0012971
0.0015414
0.0016306
0.0015495
0.0015379
0.0017587
0.0019013
0.0018473
0.0017364
0.0017929
0.0020287
0.0024361
0.0029161
0.0030382
0.0029396
0.0028418
0.0027761
0.0027606
0.0028315
0.0029035
0.0029543
0.0029202
0.0029279
0.0031438
0.0034482
0.0034213
0.0030072
0.0026216
0.002454
0.0024379
0.0025259
0.0026675
0.0028542
0.0030051
0.0032042
0.0030972
0.0026858
0.0024262
0.0020983
0.0017965
0.0015053
0.0010248
0.00053739
0.00027316
0.00011741
0.00030943
0.00076371
0.00091943
0.00065735
0.00020201
-0.00019425
-0.00050606
-0.00070759
-0.00084961
-0.0010554
-0.0011419
-0.0011312
-0.00095633
-0.00080302
-0.0010144
-0.0014076
-0.0016914
-0.001869
-0.002059
-0.0021627
-0.002323
-0.0024767
-0.0023326
-0.0020474
-0.0017329
-0.0014135
-0.0015025
-0.00185
-0.0021688
-0.0023657
-0.0024623
-0.00247
-0.0023519
-0.0023256
-0.0023837
-0.0021469
-0.0017024
-0.0015304
-0.0016082
-0.0016421
-0.001567
-0.0015624
-0.0015722
-0.0015508
-0.0016238
-0.0017269
-0.0018959
-0.0019535
-0.001685
-0.0014903
-0.0016028
-0.0016739
-0.0015454
-0.0014634
-0.0014229
-0.0014457
-0.0013586
-0.0011348
-0.00084422
-0.00070171
-0.000698
-0.00053573
-0.00046691
-0.00046783
-0.00046047
-0.00030191
-0.00019818
-0.00029995
-0.00040484
-0.00027155
-0.00011682
0.0001135
0.00042275
0.0005903
0.00069165
0.0006612
0.00045015
0.00025271
0.00015325
5.3663e-05
4.765e-05
-1.4228e-05
-9.075e-05
-2.8815e-05
0.00015509
0.00034912
0.00033228
0.00013482
-0.00015144
-0.00020387
-0.00012923
-7.9753e-05
-7.3504e-06
9.0507e-05
0.00019781
0.00027011
0.00062957
0.0011564
0.001368
0.0013157
0.0011006
0.00073224
0.00040409
0.00026189
0.00019126
0.00028614
0.00074524
0.0012213
0.001665
0.0021653
0.0022783
0.0019853
0.0016533
0.0014387
0.0011404
0.00078668
0.00058265
0.00040202
0.00023813
0.00012194
7.009e-05
0.00036931
0.0005919
0.00032794
-9.7045e-05
-0.00035341
-0.00060245
-0.0010286
-0.00125
-0.0017984
-0.0029406
-0.0036253
-0.0041505
-0.0044845
-0.0043803
-0.0040182
-0.0035037
-0.0029889
-0.0026486
-0.00233
-0.002014
-0.0020702
-0.0021862
-0.0023438
-0.0025169
-0.0020177
-0.001471
-0.0014406
-0.0015831
-0.0018711
-0.0023619
-0.0027598
-0.0027786
-0.0025844
-0.0024462
-0.0022166
-0.0017025
-0.00095687
-0.00040692
-0.00024396
-0.00015918
-0.00020624
-0.00019743
-3.5583e-05
6.2606e-05
-1.4985e-05
-6.734e-05
0.00029341
0.001024
0.0018281
0.0023262
0.0024542
0.002472
0.0024333
0.0023123
0.0022006
0.0021793
0.0021611
0.0020188
0.0019281
0.0018062
0.0016891
0.001838
0.0021547
0.0019227
0.0013005
0.00096942
0.0010575
0.0013959
0.0015104
0.0011724
0.001152
0.00154
0.0019574
0.0021683
0.0020135
0.0016589
0.0013239
0.0010919
0.00089587
0.0008408
0.00075858
0.0007004
0.00074124
0.00043394
0.00099291
0.0016789
0.0012177
0.0015615
0.0014691
0.0010798
0.0010479
0.0010107
0.00073958
0.00082915
0.0011317
0.0010921
0.00098919
0.00069493
0.0013231
0.0016105
0.0015161
0.0013102
0.0011013
0.00079583
0.00049853
0.00034389
-0.00011153
-5.3098e-05
0.00025837
0.00064968
0.0010439
0.0010966
0.0012978
0.0014536
0.0008384
0.00066579
0.00095635
0.00059942
0.00027852
0.00029653
0.00013129
-3.4136e-05
0.00043336
0.00096794
0.00098499
0.00090174
0.00084061
0.00078594
0.00080035
0.00099665
0.00095878
0.00075901
0.00065701
0.0006583
0.00055224
7.1936e-05
-0.00057186
-0.0010338
-0.0012414
-0.0012641
-0.0014524
-0.001969
-0.0022204
-0.0019522
-0.001385
-0.00080186
-0.00022161
0.0005527
0.0010469
0.001275
0.0015295
0.001586
0.0014714
0.0012862
0.00094509
0.00071061
0.00061403
0.00047948
0.0004654
0.00046702
0.00041856
0.00021302
9.2333e-05
0.00016248
3.5718e-05
-0.00017046
-0.00021628
-0.00034333
-0.0005684
-0.00070179
-0.00056169
-0.00027035
-0.00023425
-0.00045729
-0.00058727
-0.00048133
-0.00034636
-0.00028649
-0.00030386
-0.00063371
-0.00098253
-0.00105
-0.00098087
-0.0010227
-0.0012675
-0.0017594
-0.0023078
-0.0024142
-0.0022056
-0.0020983
-0.0020272
-0.001958
-0.0018152
-0.0016115
-0.0012429
-0.00071915
-0.00052905
-0.00090007
-0.0014099
-0.0015882
-0.0013332
-0.0011161
-0.0010165
-0.00088058
-0.00063903
-0.00013466
0.00037864
0.00096343
0.0014107
0.0013791
0.0012589
0.0013279
0.0014902
0.0015197
0.0014784
0.0013292
0.0012306
0.0011821
0.0011146
0.0011582
0.0012743
0.0011977
0.000963
0.00069417
0.00049909
0.00034724
0.00023738
0.00017871
0.00022215
0.00028485
0.0003779
0.00075233
0.0010747
0.0010997
0.00099397
0.00091428
0.00090476
0.00085544
0.00080017
0.00077345
0.00085278
0.0010301
0.0011296
0.001302
0.0014946
0.0015027
0.001332
0.0011013
0.00087008
0.00076714
0.0008236
0.00079129
0.00085165
0.00089138
0.00088257
0.0010896
0.0012294
0.00095384
0.00060164
0.00029583
0.00010372
-5.2359e-05
-0.00012121
-0.00016118
-0.00019555
-1.5765e-05
0.00017501
0.00036905
0.00037807
0.00014509
-0.00022077
-0.00067548
-0.00089476
-0.00087506
-0.00090222
-0.0010839
-0.0011673
-0.0011843
-0.0010012
-0.00075141
-0.00069874
-0.00093818
-0.0012055
-0.0013415
-0.0015059
-0.0015969
-0.001714
-0.0016597
-0.001371
-0.0010774
-0.00072913
-0.0005849
-0.00087095
-0.0012356
-0.0014928
-0.0017975
-0.0021877
-0.0026977
-0.003249
-0.0038078
-0.00427
-0.0044532
-0.0042027
-0.0039491
-0.0040392
-0.0041801
-0.0041604
-0.0037043
-0.002721
-0.0013679
-8.0787e-06
0.00071114
0.00088724
0.001113
0.0015586
0.0021186
0.0025865
0.0028327
0.0028641
0.0027286
0.0025604
0.0024159
0.0023474
0.0023056
0.0022073
0.0020568
0.0020594
0.0022467
0.0025566
0.0028296
0.0027171
0.0024083
0.0021688
0.0020276
0.0020755
0.0020637
0.0021146
0.0022858
0.0023422
0.0023049
0.0023794
0.0026397
0.0025652
0.0021875
0.0018564
0.0015496
0.0013579
0.0011516
0.0010076
0.0010178
0.001204
0.0014807
0.0018667
0.0023619
0.0029594
0.0032507
0.0029161
0.0023201
0.0019477
0.0016555
0.0012977
0.0012018
0.0011768
0.0011314
0.0012421
0.0013896
0.0016121
0.0021976
0.0026445
0.0025531
0.0022199
0.0018632
0.0016795
0.0016049
0.0013533
0.00094499
0.00073652
0.00068885
0.00078166
0.0010365
0.0015261
0.0020931
0.0022799
0.002105
0.0017941
0.0014305
0.0011486
0.00076071
0.0002429
-0.00011499
-0.00027276
-0.0002267
2.8941e-05
0.00046739
0.0010263
0.0011824
0.0007659
0.00010387
-0.00043984
-0.00080845
-0.0012486
-0.0016646
-0.0017311
-0.0015303
-0.0011944
-0.00079183
-0.00023687
0.00029445
0.00019669
-0.0003811
-0.00085671
-0.001188
-0.001409
-0.001532
-0.0017913
-0.002045
-0.0021575
-0.0020601
-0.0018135
-0.0013792
-0.00075181
-0.00044755
-0.00052881
-0.00075523
-0.00094965
-0.0011994
-0.0016366
-0.0020155
-0.0023065
-0.0025258
-0.0024809
-0.0023124
-0.0019529
-0.0013371
-0.00087421
-0.00080254
-0.00088434
-0.00094107
-0.0010014
-0.0011735
-0.0015105
-0.00185
-0.0019195
-0.0018339
-0.0015843
-0.0013013
-0.0010312
-0.00076863
-0.00078571
-0.0010501
-0.0014233
-0.0016966
-0.0016604
-0.0016735
-0.0019444
-0.0020838
-0.0019501
-0.0017437
-0.0015441
-0.0013478
-0.0012616
-0.0013459
-0.0014697
-0.0015144
-0.0014451
-0.0014767
-0.0015559
-0.0015086
-0.001433
-0.0013823
-0.0011859
-0.00082005
-0.00037739
-0.000136
-0.00014157
-0.00031093
-0.00037232
-0.00050177
-0.0007929
-0.0010047
-0.0012281
-0.0012885
-0.0011862
-0.00095831
-0.00039826
0.00026839
0.00049196
0.0005012
0.00051039
0.00033857
6.5651e-05
-0.0001855
-0.00038365
-0.00047541
-0.0004051
-0.0002618
-1.8804e-05
0.00035583
0.00086416
0.0012432
0.0014234
0.0013971
0.0011692
0.00085056
0.00047164
0.00016389
-8.4301e-05
-0.00033939
-0.00035062
-0.00023608
-6.7936e-05
3.0455e-05
-2.7078e-05
-0.00027096
-0.00054106
-0.00054368
-0.00046088
-0.00047815
-0.00057047
-0.00051753
-0.00024691
8.5116e-06
0.0003052
0.00043535
0.00032357
0.00024127
0.0002305
0.00028934
0.0003446
0.00026296
-2.1457e-05
-0.00035782
