-0.00010469,-0.00025275,-0.00046104,-0.00077263,-0.0011551,-0.0014282,-0.0014767,-0.00094459,-0.00035524,0.00014912,0.00045879,0.00053325,-2.4164e-05,-0.00089184,-0.0017102,-0.0021009,-0.0018042,-0.0012792,-0.0010028,-0.00034656,-6.4215e-05,0.00015852,0.00059009,0.00089483,0.00068966,6.0033e-05,-0.0012393,-0.0022594,-0.0029367,-0.0033565,-0.0028417,-0.0018194,-0.00089285,-0.00027561,-0.00063022,-0.00069195,-0.0005782,-0.00046274,8.6296e-05,0.00068774,0.00079439,0.00039684,-0.00017995,-0.00087009,-0.00094061,-0.0008714,-0.001439,-0.0012369,-0.00086929,-0.00087276,-0.00020698,0.00027327,0.00032495,-0.00015791,-0.0017782,-0.0033624,-0.0043691,-0.0052777,-0.005432,-0.0046089,-0.0034962,-0.0022685,-0.000727,0.00067333,0.0017876,0.0022363,0.0018221,0.0013136,0.00078808,0.00040571,0.00050439,0.0010841,0.0015923,0.0013591,0.00097963,0.00025739,-0.001134,-0.0028276,-0.0043687,-0.0055231,-0.0057627,-0.0051767,-0.0035447,-0.0011749,0.00035782,0.00091767,0.00086119,-0.00044564,-0.0020232,-0.003024,-0.0034029,-0.0029844,-0.0020634,-0.0010098,0.00053407,0.0024059,0.0036386,0.0045779,0.0052507,0.0047185,0.0038441,0.0021789,0.0002135,-0.00053374,-0.00063761,-0.00047999,-0.00020368,-0.00022254,-0.00060108,-0.0013958,-0.0026329,-0.003217,-0.0028798,-0.0023062,-0.0019882,-0.0009206,0.00081367,0.0021684,0.0036295,0.004856,0.0052261,0.0054104,0.0053734,0.0049677,0.0041174,0.0030882,0.0020798,0.0012504,-0.0003309,-0.0022315,-0.0034208,-0.0038703,-0.0036237,-0.0033254,-0.0036753,-0.0040988,-0.0053726,-0.0071673,-0.0083067,-0.009041,-0.0094512,-0.0092391,-0.0090579,-0.0084461,-0.0066312,-0.0036545,0.00034503,0.004339,0.0082789,0.011097,0.012131,0.01196,0.011163,0.0096274,0.0079227,0.0060648,0.0033158,0.0004493,-0.0021187,-0.0045753,-0.0066905,-0.0077668,-0.0084829,-0.0081746,-0.0084196,-0.0086667,-0.0077915,-0.0067996,-0.0053415,-0.0031472,-0.0013701,0.00023283,0.0011518,0.0014423,0.0015222,0.0015241,0.0012154,0.0014619,0.0024641,0.0031406,0.0035453,0.0035877,0.0036086,0.0026927,0.0010936,-0.00029725,-0.0016372,-0.0030354,-0.0047729,-0.0058995,-0.0058204,-0.005929,-0.0056684,-0.0048698,-0.004148,-0.0034579,-0.0029481,-0.0029743,-0.0025602,-0.0015485,-0.00028984,0.0010677,0.0020588,0.002533,0.0032711,0.0041618,0.0039467,0.0029792,0.0016272,-0.00027904,-0.0019522,-0.0025153,-0.00346,-0.0030864,-0.002095,-0.0034549,-0.0047554,-0.0054564,-0.0057204,-0.0053732,-0.0047745,-0.0040591,-0.0026182,-0.0015579,-0.0014922,-0.0017133,-0.0013745,0.0011998,0.0040264,0.0067407,0.0094363,0.010856,0.011903,0.013306,0.013466,0.01245,0.010984,0.0092751,0.0072406,0.002803,-0.0024321,-0.0057076,-0.0082465,-0.009599,-0.0090534,-0.0077497,-0.0070794,-0.0070223,-0.0067167,-0.006346,-0.0050249,-0.0040037,-0.0038804,-0.0028377,-0.0016977,-0.0013145,-0.00030181,-0.00035966,-0.00063833,-0.0016165,-0.0049861,-0.0071538,-0.0081066,-0.0080724,-0.0068273,-0.0063731,-0.006863,-0.0069901,-0.0071759,-0.0072481,-0.0075951,-0.0073928,-0.005838,-0.0039488,-0.0028763,-0.0033036,-0.0047023,-0.0055763,-0.0050525,-0.0035572,-0.0018131,-0.0006086,0.00046423,0.0022959,0.0042763,0.0041232,0.00082931,-0.0030537,-0.0056565,-0.0076452,-0.0071128,-0.0035782,-0.00030769,0.0017648,0.003555,0.0060349,0.0085301,0.0090533,0.0067758,0.0022855,-0.00067387,-0.002258,-0.0035965,-0.0019699,0.00029004,0.0018531,0.0025346,0.0013066,4.708e-05,-0.0010969,-0.002441,-0.0032166,-0.003762,-0.0053175,-0.0070972,-0.0064494,-0.0025897,0.0012485,0.001875,-0.0010638,-0.0038984,-0.0065011,-0.0076775,-0.0043942,0.0016397,0.0062675,0.0099963,0.013306,0.013752,0.0128,0.01061,0.0082634,0.0068031,0.0055199,0.0042356,0.0025703,0.0010566,0.0010224,0.0026906,0.004976,0.0050621,0.003392,0.00067891,-0.0021299,-0.0037472,-0.0029925,0.0013517,0.005431,0.0066613,0.0062732,0.0043946,0.0018125,-0.0028733,-0.0075514,-0.01037,-0.011086,-0.0064192,0.002283,0.0098734,0.014919,0.01742,0.015091,0.010405,0.007083,0.0057675,0.0039487,-2.1358e-06,-0.0017142,0.0012257,0.0037688,0.0038234,0.0051558,0.009137,0.014216,0.017423,0.020527,0.023812,0.026983,0.030691,0.033613,0.034131,0.02997,0.022511,0.012767,-0.00048103,-0.018913,-0.036781,-0.048175,-0.053261,-0.051734,-0.045865,-0.038375,-0.031497,-0.026109,-0.021885,-0.018565,-0.017438,-0.017362,-0.016343,-0.013957,-0.011315,-0.010651,-0.011063,-0.011486,-0.013053,-0.012238,-0.0064665,0.0020915,0.0099808,0.017203,0.021175,0.022985,0.02556,0.028054,0.029336,0.028588,0.027347,0.023292,0.017757,0.01087,0.0028025,-0.0044379,-0.0076922,-0.007463,-0.0047981,0.00034426,0.0048205,0.0091081,0.010643,0.0084064,0.0078584,0.010134,0.011718,0.014235,0.013897,0.0091303,0.0036296,-0.0041923,-0.011556,-0.018804,-0.024702,-0.02534,-0.021396,-0.015707,-0.011511,-0.0074388,-0.0046721,-0.00079608,0.0014107,0.00060175,0.00082591,0.0010067,0.00064931,0.0010649,0.0046684,0.0075697,0.0084551,0.0072743,0.0043033,-0.00076291,-0.0052144,-0.0080506,-0.0087873,-0.0040574,0.003587,0.0084837,0.0092855,0.0099604,0.0092489,0.010488,0.012351,0.009858,0.0054231,0.0016958,0.00027301,6.3809e-05,-0.0019179,-0.0049239,-0.0036872,0.00049892,0.0032152,0.0021474,-0.0044397,-0.010904,-0.013247,-0.011326,-0.0063787,-0.0024406,-0.00021856,0.0022698,0.0044905,0.0023112,-0.0037532,-0.006887,-0.005738,-0.0050401,-0.0033657,-0.0007506,-0.00040391,-0.00039874,0.0029469,0.0060348,0.0047502,-0.00014794,-0.0059421,-0.0069623,-0.006233,-0.0057994,-0.0060934,-0.00695,-0.0068927,-0.0051229,-0.0011258,0.0024493,0.0038434,0.0031848,0.0018845,0.0019932,0.0042366,0.0064025,0.0086796,0.011007,0.012241,0.01296,0.010715,0.0030532,-0.0042083,-0.0033731,0.0028527,0.0086521,0.010792,0.011787,0.0099977,0.0050673,-0.00093636,-0.0088035,-0.01533,-0.016962,-0.012879,-0.0065812,-0.0026758,-0.0027463,-0.0041714,-0.0043033,-0.0038103,-0.0046321,-0.0052775,-0.0013021,0.003933,0.0072944,0.0091045,0.010212,0.011356,0.011101,0.011872,0.013451,0.014786,0.014952,0.012591,0.0072536,0.0017492,-0.0015597,-0.0010322,0.00089483,-0.0015066,-0.0044507,-0.003347,0.0027153,0.0085915,0.0081608,0.0041793,0.00043798,-0.0015503,-0.0003581,0.0025731,0.002621,0.0025565,0.0041709,0.0047599,0.0038925,0.0028067,0.0028503,0.0059505,0.010398,0.0097109,0.0028866,-0.0034332,-0.0048547,-0.0046133,-0.0043475,-0.0041271,-0.0038503,-0.0019255,0.0014543,0.0052321,0.0079842,0.0098037,0.012397,0.01513,0.015336,0.012894,0.008888,0.0048451,0.0023904,-0.00069355,-0.0063948,-0.012161,-0.015836,-0.018457,-0.018903,-0.015563,-0.0094028,-0.003764,0.00035136,0.005071,0.007513,0.0071073,0.0059708,0.0035542,0.0018149,0.0016549,0.0016699,0.0018091,0.0018023,0.0015283,0.0029217,0.0042135,0.0039389,0.0028683,0.0025663,0.0037915,0.0025002,-0.0012109,-0.0028066,-0.001883,-0.00075169,-0.0008571,-0.0026817,-0.0065761,-0.012064,-0.016608,-0.017305,-0.016019,-0.014208,-0.0096609,-0.0032106,0.0018877,0.0057149,0.0091254,0.014372,0.018557,0.019182,0.017949,0.014138,0.0094996,0.0075914,0.0066039,0.0032319,0.0014184,0.0019558,0.00075464,-0.0013549,-0.0012333,0.001558,0.0032783,0.0025918,0.0033066,0.0034278,-0.00091686,-0.0040883,-0.0047947,-0.0091604,-0.014079,-0.016292,-0.016876,-0.016953,-0.01638,-0.015322,-0.011021,-0.0029508,0.0047386,0.0088852,0.011398,0.012059,0.0082888,0.002712,-0.0022698,-0.0080858,-0.012767,-0.014147,-0.015986,-0.019905,-0.022297,-0.022163,-0.021938,-0.022082,-0.020075,-0.011233,0.0029696,0.017465,0.027955,0.031825,0.030623,0.026689,0.021007,0.015856,0.010186,0.0036194,-0.0022232,-0.0077254,-0.011774,-0.013538,-0.011267,-0.0053751,0.00026984,0.0018684,0.00061646,-0.00098622,-0.0025586,-0.0026756,-0.0027474,-0.0026188,-0.00052532,0.00084879,0.002129,0.0038592,-0.00045782,-0.005856,-0.0058947,-0.0035406,-0.0015164,0.0026274,0.010522,0.016952,0.019455,0.018104,0.015608,0.013044,0.0078663,0.00075517,-0.0016689,0.00077581,0.00096178,-0.0021003,-0.0058143,-0.0088119,-0.0092586,-0.0079992,-0.0054318,0.00050272,0.0075311,0.011685,0.013204,0.012785,0.010023,0.0074205,0.0057294,0.003726,0.003184,0.0024343,0.0015607,0.0021936,0.0015179,-5.3453e-05,-0.0015349,0.001402,0.0073737,0.010227,0.0093417,0.0051082,8.4566e-05,-0.0048734,-0.0078385,-0.00662,-0.0045598,-0.0051341,-0.0055046,-0.0061154,-0.0078877,-0.0072171,-0.0030639,0.00033825,0.00072958,0.0013311,0.0044633,0.0073218,0.0062866,0.0049125,0.0054826,0.0059945,0.0026839,-0.0033767,-0.007917,-0.0085694,-0.0041955,0.0018266,0.0051236,0.0048691,0.002356,0.0018699,0.0035144,0.0048063,0.0046833,0.0051331,0.0074556,0.0085966,0.0063594,0.0018002,-0.0052702,-0.013081,-0.015629,-0.014683,-0.013647,-0.011714,-0.011065,-0.011171,-0.0098614,-0.0083435,-0.005916,-0.0025001,0.00049159,0.0019855,0.00062141,-0.0016509,-0.0052676,-0.0083048,-0.0079791,-0.005697,-0.0037415,-0.00090219,0.0016807,0.0022492,0.001813,0.001539,0.002567,0.0032236,0.0022525,0.00072184,0.0020227,0.0040831,0.0056619,0.0088771,0.010645,0.00843,0.0041418,0.0016958,0.002836,0.0052567,0.0047801,0.0032422,0.0026867,0.0024214,0.0019783,0.00068021,0.0014713,0.0031467,0.0010622,-0.001659,-0.0026188,-0.0042649,-0.0054268,-0.0019387,0.0051224,0.0088784,0.0065857,0.0044614,0.0042354,0.0022392,-0.0016322,-0.0039416,-0.0015138,0.0027079,0.0074844,0.0098364,0.009568,0.0080917,0.0055574,0.0038194,0.0023685,-0.0028151,-0.0080264,-0.0072274,-0.0037584,-0.0015895,-0.00081968,-0.00047128,0.0012163,0.0053086,0.0096898,0.012717,0.012231,0.008642,0.0066959,0.0067258,0.006832,0.0061361,0.0040654,0.0012916,-0.00099754,-0.0027029,-0.0050994,-0.0058769,-0.0042882,-0.002003,0.00040434,0.003102,0.0032589,0.0012349,0.0028968,0.0080181,0.011013,0.0097162,0.0074027,0.0071644,0.0075414,0.0039849,-0.0009401,-0.0048937,-0.0081888,-0.0096661,-0.010241,-0.011044,-0.011512,-0.0090058,-0.0023343,0.0066986,0.013785,0.016224,0.01371,0.0060579,-0.0014038,-0.0044006,-0.0059962,-0.010197,-0.013017,-0.014377,-0.01713,-0.018322,-0.017887,-0.014875,-0.0094003,-0.0063472,-0.0055754,-0.0024553,0.0032287,0.0080631,0.0097837,0.010192,0.010642,0.0082095,0.0033657,-0.00054192,-0.0003406,0.0019737,0.0014189,-0.00056528,-0.00094752,0.00038336,0.0017809,0.0019413,0.00071298,-0.0012483,-0.0038642,-0.0041007,-0.0010572,0.0028232,0.0048155,0.0051997,0.006564,0.00696,0.0057631,0.0024988,-0.0010099,-0.00061912,0.00084462,0.00022477,-0.0011699,-0.0040277,-0.0070152,-0.0090647,-0.011017,-0.0095709,-0.00591,-0.004173,-0.0024819,0.00090206,0.0048955,0.0091506,0.010712,0.0075828,0.001396,-0.003835,-0.0068897,-0.0086008,-0.0070409,-0.0034663,-0.00066905,0.0015414,0.0043944,0.008093,0.010022,0.010216,0.010685,0.0078109,0.0028175,0.0012258,0.00087364,-0.00052853,-0.0016704,-0.002293,-0.0043898,-0.0064567,-0.0058791,-0.0065292,-0.0093854,-0.0087881,-0.004383,0.00017203,0.0035582,0.0037918,0.00038117,-0.00014629,0.0017724,0.0022897,0.00049018,-0.0039089,-0.0095601,-0.013297,-0.011861,-0.0073576,-0.0034235,0.0012016,0.0074131,0.011675,0.011507,0.0077548,0.0038681,0.0010947,-7.4305e-05,0.00097463,0.00052925,-0.0013683,-0.0029038,-0.0036081,-0.0024593,-0.00015387,0.0010517,0.0016939,0.0019257,0.0023917,0.0027,0.0017787,-7.1921e-05,-0.0031001,-0.0048832,-0.0043489,-0.0034222,-0.0026646,-0.0025842,-0.0026507,-0.0019078,-0.00057393,0.00061305,0.0044023,0.010536,0.013026,0.012032,0.0106,0.0090502,0.0074438,0.0055679,0.0044147,0.0010871,-0.0050215,-0.0088975,-0.01116,-0.0158,-0.019236,-0.017376,-0.012803,-0.0092198,-0.0067975,-0.0070063,-0.0077593,-0.0049563,-0.0013986,0.0019916,0.0049698,0.006349,0.008385,0.011409,0.013483,0.013102,0.0099953,0.0073053,0.004943,-0.00019566,-0.0052309,-0.0070292,-0.0066873,-0.0062653,-0.0076535,-0.011829,-0.016183,-0.013864,-0.0032241,0.0085029,0.014405,0.017115,0.019417,0.019379,0.017989,0.015639,0.012931,0.011548,0.011023,0.0094235,0.0068444,0.0050074,0.003202,0.0015173,-0.00061856,-0.0028457,-0.0049211,-0.0073498,-0.009231,-0.0085156,-0.0039549,0.0017182,0.0048639,0.0044689,0.0025008,0.0024221,0.0022479,-0.000773,-0.0011717,0.0041866,0.011044,0.015857,0.016098,0.011951,0.0077671,0.0054865,0.0041662,0.0043582,0.0048756,0.0035722,0.00078787,-0.0026867,-0.0058545,-0.009838,-0.013151,-0.012907,-0.0096173,-0.0080873,-0.010759,-0.011355,-0.0079499,-0.0044656,4.0427e-05,0.004836,0.0073601,0.0065362,0.004726,0.0031953,-0.0010689,-0.0054452,-0.0058946,-0.00444,-0.001951,0.0012434,0.00092795,-0.00066877,-0.00031326,0.0017465,0.0037642,0.0055259,0.006177,0.0050335,0.0045222,0.0049188,0.0055936,0.0042601,0.0027567,0.0025684,0.00096004,-0.0031292,-0.0062963,-0.0079136,-0.0094831,-0.0077261,-0.0023871,0.0037614,0.0060799,0.0049063,0.0029864,0.00036662,-0.00089076,-0.0018319,-0.004614,-0.0073307,-0.0076794,-0.0072196,-0.0072818,-0.0057246,-0.0031552,-0.0019541,-0.0026543,-0.0059086,-0.011029,-0.014075,-0.01229,-0.0074954,-0.0026092,0.0029483,0.0071203,0.0077046,0.0061889,0.0054526,0.0055018,0.0045877,0.0044893,0.0025954,-0.0029061,-0.0088533,-0.013343,-0.014834,-0.013586,-0.0095028,-0.0035604,0.0024388,0.0070099,0.0090076,0.0085702,0.0070033,0.0067944,0.008656,0.0087608,0.0056499,0.001328,-0.0019099,-0.0037487,-0.0043286,-0.0038115,-0.00094195,0.0021067,0.0033181,0.0028416,0.0013131,0.0014344,0.0029657,0.0059288,0.0092931,0.0085629,0.0037402,-0.00046047,-0.0027281,-0.0040295,-0.0045523,-0.0023488,0.0011774,0.0044834,0.0075946,0.0097859,0.010272,0.0094254,0.0085824,0.0084935,0.0077464,0.005968,0.0034067,0.00030422,-0.0023399,-0.0033654,-0.0027608,-0.0031596,-0.0045635,-0.004506,-0.0056238,-0.0087229,-0.010549,-0.0098772,-0.0069478,-0.0021987,0.0025377,0.0065535,0.010737,0.013426,0.014296,0.014648,0.01544,0.016725,0.015254,0.0090309,0.0029162,-0.00067946,-0.0027968,-0.0025559,0.00041075,0.0020575,0.0012893,0.00017993,-0.0010828,-0.0016074,-0.0011412,-0.0014976,-0.0027401,-0.00040925,0.0032959,0.0047063,0.0057639,0.0077936,0.0089446,0.0078191,0.0055733,0.0034605,0.0024733,0.0028293,0.00356,0.0043544,0.0041968,0.0038937,0.0039068,0.0027525,0.0018355,0.00062137,-0.0019438,-0.0031648,-0.001912,0.00040279,0.0004561,-0.0013102,-0.0018612,-0.0041534,-0.0074997,-0.0084495,-0.0077286,-0.0062769,-0.0026434,0.001848,0.0027338,0.0024914,0.0043124,0.005838,0.0072496,0.008245,0.0091547,0.010365,0.010502,0.0082351,0.0043455,0.0013564,0.00077763,-0.00012546,-0.0012786,-0.0033536,-0.0072118,-0.0099376,-0.010625,-0.0089635,-0.0063907,-0.0055411,-0.0056281,-0.0045916,-0.0031358,-0.0027214,-0.0046982,-0.0094997,-0.012389,-0.009532,-0.002399,0.0038589,0.0073829,0.0085369,0.0064017,0.0040817,0.0040806,0.0035276,0.0022083,0.0011966,-0.00020404,-0.0013645,-0.0017364,-0.00025912,0.0018306,0.001554,0.0014207,0.0036704,0.0050927,0.0034427,0.0013942,-0.0020578,-0.0055721,-0.0065217,-0.006625,-0.0073858,-0.0061695,-0.0015039,0.0020609,0.0041665,0.0034071,-0.00024602,-0.001101,0.0023808,0.0064635,0.0064799,0.0039946,0.00099357,-0.0040573,-0.0083697,-0.0091369,-0.0088541,-0.0083718,-0.005233,-0.002287,-0.002486,-0.002337,-0.0015124,-0.0017016,-0.00093482,0.00099645,0.0029701,0.0035639,0.0039784,0.0044832,0.0042941,0.004638,0.0043529,0.002324,0.0031378,0.0071678,0.010099,0.011389,0.01215,0.012148,0.008991,0.0036543,0.00053497,0.00033097,-0.0014866,-0.0045756,-0.0064998,-0.0086589,-0.0090478,-0.0069366,-0.0044881,-0.0019366,0.0011243,0.0023362,0.0035716,0.0063733,0.008675,0.010196,0.0087103,0.0073586,0.010682,0.014075,0.015247,0.016707,0.020073,0.021313,0.01781,0.010866,0.0023804,-0.0045192,-0.0080305,-0.0096883,-0.010143,-0.0093274,-0.008516,-0.0062826,-0.0022679,-0.0012439,-0.0036798,-0.0055482,-0.0073395,-0.0090396,-0.0084877,-0.0078965,-0.0097198,-0.011701,-0.010811,-0.0080213,-0.0036181,-0.00010505,-0.0011326,-0.00042041,0.0028306,0.0058036,0.010225,0.014162,0.012804,0.0082002,0.0051816,0.0015216,-0.006684,-0.015295,-0.019233,-0.018315,-0.013874,-0.0094063,-0.0055593,-0.00044147,0.0061164,0.013439,0.019331,0.020911,0.020504,0.021403,0.022958,0.024564,0.022817,0.016405,0.010666,0.005818,5.1418e-05,-0.0057596,-0.0099135,-0.011111,-0.011722,-0.01378,-0.015577,-0.017102,-0.014423,-0.0060082,-0.00047201,0.00076796,0.0019624,0.0028835,0.0019733,0.00037245,0.0003588,0.0013327,0.0028505,0.0040495,0.0047411,0.0057173,0.0076083,0.010039,0.011041,0.0089568,0.0042533,-3.1249e-05,-0.0017286,-0.00096793,-0.00036876,-0.0036255,-0.0079582,-0.0086474,-0.0082527,-0.0081094,-0.0058282,-0.0034706,-0.0046202,-0.0058718,-0.004107,-0.003557,-0.0037116,-0.0019763,-0.002007,-0.0037134,-0.0046976,-0.0029042,0.0030016,0.0082035,0.0085685,0.0063549,0.0039919,0.0014519,-0.0022764,-0.0061472,-0.0075571,-0.0057568,-0.0017261,0.0019887,0.0045053,0.0063562,0.0058366,0.0048105,0.0053358,0.0042885,0.0024491,0.0038928,0.0065295,0.0068951,0.0063337,0.0052688,0.0025364,0.000366,-0.0017753,-0.0051904,-0.0054416,-0.0029414,5.5692e-06,0.0026078,0.0018872,-0.0011952,-0.0034317,-0.0045618,-0.006831,-0.0085969,-0.0063297,-0.0035289,-0.0022025,-0.0028635,-0.0049961,-0.00722,-0.0079833,-0.0056056,-0.0013796,0.0019341,0.0032281,0.0034638,0.0033338,0.0013485,-0.0029622,-0.0063862,-0.0069339,-0.0032418,0.0026872,0.0022732,-0.0028328,-0.0038285,-0.0026769,-0.0036819,-0.0052304,-0.0069468,-0.0066031,-0.0027297,0.0033277,0.0082148,0.0078459,0.0047578,0.0027601,0.0012908,9.7019e-05,-0.0004382,0.00042518,0.0022244,0.0045268,0.0054454,0.0052015,0.0060475,0.0072964,0.007577,0.0085488,0.008052,0.004674,0.0023382,0.001401,0.0011255,0.00060406,-0.00016613,0.001176,0.0026789,0.0033829,0.0055141,0.007148,0.0054849,0.0024402,-0.00075275,-0.0048223,-0.0080797,-0.0064839,-0.0049656,-0.0071626,-0.0094169,-0.010304,-0.0083819,-0.0044972,-0.0018574,-0.0025036,-0.0056756,-0.0060682,-0.0024093,0.00053647,0.0023634,0.0040872,0.0059349,0.0065391,0.0027292,-0.0014609,-0.0027021,-0.0013083,0.0024077,0.0074578,0.012572,0.014549,0.014394,0.016982,0.019612,0.017151,0.013013,0.011349,0.0099833,0.0070555,0.0033362,-0.00056406,-0.0032353,-0.0027053,-0.0016414,-0.0024647,-0.0021595,0.00068588,0.0030455,0.0053352,0.0085863,0.011474,0.012764,0.010437,0.0058992,0.0028341,0.0012451,-0.002726,-0.0086259,-0.01215,-0.015216,-0.015226,-0.01044,-0.0059826,-0.0063594,-0.0081693,-0.0051395,0.002055,0.0093853,0.012559,0.01147,0.010178,0.0084798,0.0043055,-0.0023534,-0.0089422,-0.011659,-0.010541,-0.0081819,-0.0045946,0.0014672,0.0083923,0.01266,0.014224,0.015548,0.014533,0.010569,0.0081728,0.006526,0.0030258,-0.00090116,-0.0042977,-0.0052424,-0.0044007,-0.0018017,0.0019464,0.0039541,0.0064939,0.0075973,0.0054413,0.004105,0.0016854,-0.001435,-0.0019289,0.00026032,0.0019794,0.0014392,-0.00058639,-0.0054804,-0.010981,-0.012158,-0.010296,-0.0089287,-0.0065528,-0.00014774,0.00482,0.0044041,0.0028336,0.0026003,0.00056603,-0.0018533,-0.003263,-0.0066046,-0.011384,-0.014473,-0.013792,-0.0099994,-0.0051982,-0.0011095,-0.00037144,0.00056845,0.0031501,0.0050948,0.0059699,0.0075106,0.0095736,0.011526,0.011218,0.0061725,-0.0004691,-0.0049979,-0.0091689,-0.01289,-0.012615,-0.010232,-0.006522,-0.0013936,0.0055691,0.011251,0.011827,0.011016,0.011281,0.011434,0.0094429,0.0056027,0.0012009,-0.0024829,-0.0043049,-0.0043754,-0.0053585,-0.0087582,-0.010332,-0.007868,-0.0017211,0.0050044,0.011257,0.017593,0.022745,0.025585,0.024068,0.017452,0.0082075,-0.0026877,-0.013831,-0.021231,-0.026788,-0.032362,-0.033068,-0.026671,-0.017016,-0.0075348,-0.00088113,0.0023702,0.0038295,0.0012666,-0.00045685,0.0045005,0.011069,0.014743,0.01408,0.0096758,0.0004799,-0.011071,-0.019858,-0.023104,-0.022357,-0.019667,-0.015921,-0.011325,-0.0070707,-0.0024107,0.0055496,0.015069,0.018226,0.011375,0.0023686,-0.0024727,-0.0037285,-0.0025074,-0.0004479,0.0014551,0.0034366,0.0073739,0.013489,0.01482,0.0099235,0.0057355,0.0059411,0.0085833,0.012545,0.015971,0.01715,0.016687,0.0139,0.0097982,0.005111,0.00087244,-0.0012751,-0.0017479,-0.001614,-0.0027843,-0.0080588,-0.013699,-0.017116,-0.018652,-0.018661,-0.019576,-0.020566,-0.020041,-0.020235,-0.019613,-0.012871,-0.0061185,-0.0058184,-0.0064524,-0.0048051,-0.0057529,-0.0087322,-0.011552,-0.012826,-0.010249,-0.0031158,0.0037533,0.0072247,0.010404,0.012366,0.012177,0.010693,0.0089936,0.0047457,0.0025282,0.0075675,0.016831,0.022616,0.020558,0.015669,0.0095289,0.0028603,2.7856e-05,-0.0001685,-0.0040095,-0.01061,-0.010921,-0.006106,-0.0017355,-0.00054269,-0.00016594,0.0038777,0.0077536,0.0079949,0.0038354,-0.0028321,-0.0085573,-0.0087088,-0.006469,-0.0055229,-0.0082421,-0.010319,-0.0082954,-0.0059131,-0.0054127,-0.0083454,-0.012442,-0.0127,-0.0088293,-0.0051862,-0.0038047,-0.0033497,-0.0021185,-0.00041035,0.0003047,0.00014532,-0.00097125,-0.0011866,-0.0008775,-0.00079694,0.0013213,0.0038262,0.0056695,0.0054992,0.0012684,-0.0045768,-0.0098305,-0.013212,-0.012121,-0.0062888,0.0011487,0.0078264,0.011687,0.01348,0.015001,0.015937,0.015355,0.013347,0.0085448,0.0025634,0.00096276,0.0030492,0.0047657,0.0043528,0.0022789,0.0035726,0.0048685,0.003029,0.0013095,-0.0021709,-0.0058046,-0.0046345,-0.00086303,0.00092659,0.0016202,0.0020147,0.0031807,0.0048676,0.0038124,0.0021635,0.0068704,0.011085,0.0075232,0.0026646,0.00074278,0.00017116,-0.00071754,-0.0028101,-0.0046674,-0.0059047,-0.0046895,-0.0030063,-0.0042401,-0.0057399,-0.0056394,-0.0035727,0.002134,0.0051294,0.0019907,-0.001634,-0.0030233,-0.0015715,0.0016025,0.0036934,0.0062361,0.0097896,0.011254,0.006656,-0.0030402,-0.01119,-0.012825,-0.008695,-0.0048129,-0.0031543,-0.00094218,0.0020733,0.006063,0.0097429,0.0096155,0.0067674,0.0058983,0.0058804,0.004249,-0.00063821,-0.0097383,-0.015371,-0.012649,-0.0064514,-0.00352,-0.0039339,-0.0046768,-0.0027774,0.0018378,0.0059388,0.0078092,0.0082998,0.0093575,0.010313,0.010082,0.0083675,0.0022542,-0.0024262,-0.00086064,0.0031078,0.0031134,0.0014045,0.0026081,0.0066354,0.010206,0.0064938,-0.002771,-0.010827,-0.014226,-0.011874,-0.0061882,-0.0023445,-0.00013047,0.0037718,0.0077007,0.0090305,0.0062547,0.0021274,-0.0016048,-0.0032452,-0.0038703,-0.0061579,-0.0083948,-0.0057505,-0.00031633,0.0021245,0.0014516,-0.0013943,-0.0011909,0.0030892,0.0050029,0.0043524,0.0027788,0.0020556,0.0056458,0.0098962,0.0098331,0.0060289,9.3235e-05,-0.0048287,-0.0042762,-0.00031595,0.0030736,0.0059611,0.007696,0.0074151,0.0043432,0.0007604,-0.0021645,-0.005156,-0.0060684,-0.0054339,-0.0056411,-0.004551,-0.0032279,-0.00295,-0.0015017,4.7735e-05,0.0008137,0.0012976,5.2294e-05,-0.0017243,-0.00077779,0.0042682,0.010622,0.014337,0.014831,0.011755,0.0055149,-0.00066604,-0.0064362,-0.010391,-0.012676,-0.012631,-0.0056067,0.0046417,0.010815,0.012724,0.011218,0.0075246,0.0063316,0.0052566,0.00088159,-0.0014119,0.0022674,0.0079175,0.010207,0.007796,0.0017112,-0.0032645,-0.0044312,-0.0047044,-0.0076538,-0.01163,-0.0093748,-0.0052817,-0.0034202,-0.002588,-0.0029187,-0.0043256,-0.0081698,-0.0087694,-0.0050349,-0.0019994,-0.0035339,-0.0051789,-0.0027002,0.0015262,0.0060389,0.0087747,0.0079583,0.0053709,0.0027888,6.6584e-05,-0.0031822,-0.0068401,-0.0057903,-0.0027519,0.0016613,0.005719,0.007075,0.012029,0.018994,0.020781,0.018051,0.01451,0.0096364,0.0087373,0.010811,0.007677,0.00055019,-0.0074668,-0.014094,-0.018887,-0.023038,-0.024984,-0.024862,-0.021509,-0.01527,-0.008019,-0.0048236,-0.0037613,-0.0011242,-4.4771e-05,-0.00041401,0.00044046,0.00072355,0.0019344,0.0055382,0.0064097,0.0041847,0.0039577,0.0069185,0.0097602,0.0097386,0.0051403,-0.0009705,-0.0024898,-0.001963,-0.0003251,0.0010647,0.0023825,0.0036887,0.0027543,0.0013917,-0.00090243,-0.0045924,-0.0074051,-0.0055645,-0.00078198,0.0029407,0.0042567,0.003117,-0.0004959,-0.0033859,-0.0033141,-0.0043312,-0.0029129,-0.00030463,-0.00010543,3.3874e-05,0.0017853,0.0042011,0.00030696,-0.0054863,-0.0041657,-0.0021433,-0.0065795,-0.007969,-0.0044778,0.00090966,0.0074295,0.012146,0.013138,0.0092374,0.0065585,0.0069571,0.0032452,-0.000999,-0.003918,-0.0045402,-0.0024426,-0.0022858,-0.0038532,-0.0045938,-0.0025461,0.00030396,-0.00059815,-0.004058,-0.0065876,-0.0063709,-0.001389,0.0038365,0.0028241,-0.00097347,-0.000944,0.0012777,0.0021465,0.00021548,-0.0031828,-0.0055599,-0.0054679,-0.0029454,3.7412e-05,0.00052011,-0.00065797,0.0022326,0.0087569,0.012811,0.010518,0.0061574,0.003714,0.0024796,0.0015784,0.0002048,-0.00047884,0.00063347,0.0060684,0.0138,0.017079,0.012718,0.0061049,0.00089692,-0.0005822,0.0034542,0.0093106,0.012915,0.011914,0.010271,0.0084763,0.0020283,-0.0059222,-0.012143,-0.013425,-0.010486,-0.0093583,-0.013024,-0.015751,-0.01547,-0.011912,-0.0088545,-0.0087332,-0.008511,-0.0066077,-0.003445,-0.0020443,-0.0050598,-0.0074835,-0.0036068,0.00090198,0.0020189,-0.00023097,-0.0054217,-0.0085561,-0.0055831,-0.00010281,0.003335,0.0060559,0.0071912,0.0054633,0.0043522,0.0051541,0.0047636,0.0019229,0.00075051,0.0016756,-0.00012986,-0.004194,-0.006399,-0.0075954,-0.0063683,-0.0010798,0.0020977,0.0040611,0.0065876,0.0089633,0.012624,0.011331,0.0041435,-0.0042657,-0.0082164,-0.0075212,-0.0059861,-0.0077521,-0.010968,-0.011923,-0.0092024,-0.0049786,-0.0020497,0.001412,0.0045233,0.0063228,0.0069148,0.0039233,-0.003112,-0.0066158,-0.0046295,-0.0033784,-0.0024624,-0.002483,-0.0016177,0.002819,0.0065219,0.0062262,0.0032153,-0.0020237,-0.0055669,-0.005949,-0.0067556,-0.0041833,-0.0014506,0.00018279,0.0012152,-0.00057118,-0.0019522,-0.001108,0.0039376,0.0052713,-0.0014476,-0.0078684,-0.0072424,-0.0021359,-9.6616e-05,-0.0033905,-0.0064513,-0.005757,-0.0044957,-0.00056491,0.0020696,0.0017989,0.0061505,0.014314,0.019415,0.018194,0.012324,0.0066498,0.0032054,-0.00082134,-0.0046874,-0.0065774,-0.006659,-0.0052226,7.3371e-05,0.0049,0.0071306,0.0092569,0.0086358,0.0074713,0.0061292,0.0021052,-0.0020162,-0.0054618,-0.011667,-0.017279,-0.01766,-0.013058,-0.0089843,-0.0092452,-0.010423,-0.013441,-0.015465,-0.012375,-0.0062096,0.0014663,0.0064334,0.0066461,0.0062044,0.0054366,0.0048673,0.0053942,0.0040821,0.0055371,0.0081363,0.0051631,-8.1137e-05,-0.0016446,0.00044237,0.0016778,0.0016443,0.0006555,-0.0011385,-0.0015182,-0.0012256,-0.0066623,-0.011823,-0.01269,-0.013626,-0.012388,-0.0051907,0.0024828,0.0056914,0.0041985,0.0017138,-0.00034285,-0.0046297,-0.011807,-0.019947,-0.019119,-0.015522,-0.019655,-0.021622,-0.017402,-0.014563,-0.010992,-0.00085201,0.0072204,0.0091798,0.012307,0.019615,0.021843,0.017515,0.017211,0.014503,0.0094064,0.0057709,-0.0021858,-0.011608,-0.015753,-0.015833,-0.015212,-0.010538,-0.0062069,-0.0027239,0.0024105,0.008028,0.0094223,0.0053997,0.0029201,0.0051941,0.0084009,0.0078924,0.005806,0.0019959,-0.0010972,-0.0026626,-0.0049228,-0.0078349,-0.0063091,-0.0011212,-0.00010042,0.00056064,0.0035589,0.0043282,0.0054231,0.0089481,0.011359,0.0087355,0.0050189,0.0035579,0.00065063,-0.0030008,-0.00078886,0.0054046,0.008056,0.0068255,0.005148,0.007646,0.011638,0.010886,0.0095,0.0091772,0.0056909,-0.00034852,-0.0063795,-0.012664,-0.01804,-0.01929,-0.014471,-0.0087845,-0.0071793,-0.0087636,-0.0089586,-0.0045578,0.0040824,0.01079,0.013247,0.015882,0.018059,0.015494,0.0098545,0.0028754,-0.0029222,-0.0054289,-0.0056695,-0.0053282,-0.0035308,-0.0048991,-0.0067737,-0.0035221,-0.0030002,0.00031302,0.0070404,0.0085389,0.0088208,0.011399,0.010182,0.0048404,-0.00089419,-0.0045541,-0.0066105,-0.010217,-0.011518,-0.01265,-0.012731,-0.012276,-0.0078213,0.00074598,0.0063813,0.010994,0.015846,0.018352,0.01748,0.01854,0.019691,0.015847,0.010643,0.0080836,0.0078224,0.007359,0.0043233,-0.0014214,-0.0092016,-0.021836,-0.033037,-0.036182,-0.036283,-0.030223,-0.016217,-0.0026797,0.0043825,0.0051837,0.0047756,0.0058717,0.0088145,0.0085943,0.0080093,0.007824,0.0027711,-0.0021374,-0.0050804,-0.0087241,-0.011508,-0.012594,-0.0094224,-0.0021932,-0.00049622,-0.003516,-0.0074998,-0.010584,-0.010581,-0.0081996,-0.00064975,0.0060569,0.0059063,0.0019858,-0.000674,-0.0013701,0.0015037,0.0050964,0.0075958,0.011619,0.016209,0.019031,0.015822,0.0094249,0.003526,-0.0016229,-0.0068514,-0.012063,-0.017121,-0.018871,-0.015877,-0.013294,-0.006577,0.0019069,0.007851,0.011564,0.013675,0.013408,0.010044,0.0095316,0.011622,0.013354,0.011043,0.0064589,-0.0048098,-0.01933,-0.0293,-0.032431,-0.025419,-0.016614,-0.0066736,-0.0025611,-0.0017652,0.0042926,0.011945,0.016117,0.014286,0.010907,0.0089445,0.0073867,0.0028402,-0.0035567,-0.010288,-0.01462,-0.016873,-0.016532,-0.01467,-0.017916,-0.020197,-0.017696,-0.011302,-0.0033281,0.0041924,0.014067,0.019647,0.018691,0.015776,0.0077744,-0.0016406,-0.0045161,-0.0065998,-0.0078222,-0.0056254,-0.0020868,0.0012735,0.0033537,0.0060929,0.00976,0.013237,0.016382,0.018507,0.01592,0.0079625,0.004995,0.0062021,0.0054038,0.0042512,0.0023528,9.1347e-05,0.0013986,0.0039516,0.0058948,0.0090773,0.010723,0.011725,0.0112,0.0030241,-0.0083712,-0.014043,-0.014989,-0.011171,-0.004772,0.00044369,-0.00038026,-0.0070697,-0.0081601,-0.0007802,0.0040449,-0.0029375,-0.011618,-0.015092,-0.013107,-0.0081428,-0.0051625,-0.0060404,-0.010733,-0.0090752,-0.0031944,-0.0037853,-0.0075072,-0.0070967,-0.0063917,-0.0053727,-0.0045428,-0.0032449,-0.0027282,-0.0069171,-0.0031435,0.01068,0.022587,0.030472,0.031313,0.023733,0.013886,0.0044653,-0.0018009,-0.0040659,-0.0046027,-0.005159,-0.0088154,-0.012701,-0.020753,-0.029647,-0.030038,-0.015877,0.0058192,0.020062,0.025297,0.02643,0.026652,0.024803,0.020037,0.011974,0.0058297,-0.00063426,-0.0073884,-0.0097543,-0.013724,-0.017609,-0.017514,-0.012223,-0.0031364,0.0010796,-0.0054681,-0.017554,-0.026728,-0.027273,-0.018246,-0.0070373,0.0051468,0.017189,0.0227,0.019699,0.011501,-0.0022527,-0.019414,-0.025868,-0.02053,-0.01422,-0.0090227,-0.0040212,-0.00044946,0.00090541,0.0036096,0.008757,0.0087435,0.0054712,0.005438,0.009401,0.014539,0.014425,0.010966,0.0077842,0.0046662,0.004195,0.0094423,0.013138,0.012701,0.012398,0.016282,0.020998,0.016464,0.0049715,-0.0048318,-0.0098637,-0.0080512,-1.5534e-05,0.005284,0.00060788,-0.0075937,-0.0087182,-0.0041661,-0.00019293,0.00068261,-0.00093901,0.001543,0.0058833,0.004565,0.00037233,-0.0046955,-0.0091027,-0.0084854,-0.00047515,0.006609,-6.6248e-07,-0.009016,-0.010679,-0.011796,-0.016861,-0.022978,-0.024731,-0.022096,-0.014552,-0.0031439,0.0042134,0.0054055,0.0058353,0.0030952,-0.0026382,-0.0067911,-0.0081129,-0.0032865,0.0043695,0.0074303,0.0068819,0.0030655,0.0010541,-0.0014721,-0.0091903,-0.012745,-0.0089781,-0.00045089,0.0091937,0.01339,0.013659,0.014839,0.013637,0.015918,0.019783,0.016619,0.007997,-0.00053778,-0.0089993,-0.016182,-0.019488,-0.019106,-0.015738,-0.011916,-0.0084881,-0.010812,-0.01757,-0.01887,-0.012254,-0.0023463,0.0065506,0.014503,0.01987,0.023289,0.025754,0.02657,0.025987,0.022606,0.018332,0.014828,0.016668,0.017028,0.008626,0.00066626,-0.00090739,0.0019548,-0.0013313,-0.003733,-0.0035762,-0.0058418,-0.0051588,-0.0035356,-0.0030302,0.0012096,0.008693,0.013784,0.0092041,-0.0012132,-0.0076537,-0.0097536,-0.0084595,-0.0059865,-0.0055549,-0.0060152,3.8476e-05,0.0042907,0.0010439,-0.0017144,-0.0029596,-0.0043991,-0.0073499,-0.012572,-0.019426,-0.023746,-0.021528,-0.015885,-0.0088045,-0.0033242,0.00091839,0.0046938,0.0055557,0.0062634,0.011704,0.021121,0.03119,0.035324,0.028189,0.014699,0.0031251,-0.0020393,-0.0021627,8.266e-05,0.0027124,0.0010455,-0.0036779,-0.0050493,-0.0017365,0.0022812,0.0054685,0.0066516,0.0051233,0.0053464,0.00302,-0.0054129,-0.0098795,-0.0091511,-0.0046468,0.0018003,-0.00035588,-0.0066731,-0.0085192,-0.0047081,0.0056498,0.013572,0.012772,0.0061961,-0.0014838,-0.0028939,0.00049051,0.0031396,0.0039231,0.00074803,-0.0010293,-0.00018285,-0.0053703,-0.01301,-0.010575,0.00036866,0.0095863,0.014494,0.0097445,-0.00056894,-0.0067043,-0.0071141,-0.0062639,-0.0082828,-0.0098414,-0.0050351,0.0032254,0.0067475,0.0033451,-0.0053355,-0.013255,-0.013356,-0.010515,-0.0088071,-0.0070828,-0.0076937,-0.0087324,-0.0085981,-0.010467,-0.0094139,0.0002151,0.008744,0.011167,0.0085684,0.0079892,0.013255,0.015066,0.01402,0.018349,0.023919,0.019551,0.013146,0.011519,0.0093369,0.010449,0.017525,0.019875,0.013526,0.0036796,-0.008398,-0.012804,-0.010111,-0.010643,-0.012034,-0.01165,-0.013271,-0.018575,-0.022871,-0.025103,-0.022452,-0.010814,0.0046786,0.010914,0.0074127,0.0034721,0.0025478,0.0026348,0.0038028,0.0086955,0.012477,0.010422,0.0068391,0.0062738,0.008562,0.0066981,0.0020652,-0.00060953,0.00053991,0.0049091,0.0046193,-0.0020152,-0.005946,-0.002876,0.0077103,0.01665,0.015412,0.010195,0.0082087,0.0064875,0.0052843,0.0037773,-0.00024417,-0.0047906,-0.0059338,-0.0057748,-0.008275,-0.01341,-0.015646,-0.011676,-0.0072764,-0.0083874,-0.012854,-0.015628,-0.017908,-0.018649,-0.012559,-0.002811,0.00070938,0.0016784,0.0077668,0.015087,0.020282,0.021892,0.019743,0.01363,0.0024869,-0.008958,-0.01319,-0.014384,-0.015056,-0.011559,-0.0063329,0.00069011,0.0024904,-0.0017326,-0.0040518,-0.0033883,-0.001062,0.0020286,0.0027539,0.0031219,0.0044687,0.005367,0.0030426,-0.00096676,-0.0032484,-0.0014296,0.003793,0.0086805,0.0095087,0.0064934,0.0017311,-0.0052037,-0.0082158,-0.0034848,-0.0031094,-0.009619,-0.013125,-0.014176,-0.013245,-0.0071971,-0.0022373,-0.0010893,-0.0017879,-0.0040699,-0.0080311,-0.012553,-0.014978,-0.014069,-0.0074881,0.0020335,0.0056779,0.0039434,-0.0016552,-0.00702,-0.001767,0.003985,-0.00096537,-0.00694,-0.0075817,-0.0035761,0.00093801,0.0052294,0.0084541,0.011429,0.016198,0.016809,0.013583,0.0065268,-8.3378e-05,-0.0023537,-0.0026018,-0.005736,-0.010956,-0.014982,-0.01867,-0.021489,-0.025574,-0.029709,-0.027178,-0.018604,-0.0084745,-0.0021908,0.0016497,0.0065629,0.012032,0.017373,0.017732,0.016184,0.016484,0.015799,0.012011,0.0063396,0.0021175,0.00034399,0.001877,0.0041619,0.0079398,0.01222,0.012896,0.013225,0.012884,0.010285,0.0072085,0.0028283,-0.0022628,-0.0058457,-0.0040458,-0.0017576,-0.0048351,-0.0079263,-0.0082121,-0.0095782,-0.011879,-0.011135,-0.01065,-0.012495,-0.0098214,-0.00095945,0.0091411,0.014521,0.012297,0.0090895,0.0086201,0.010051,0.0093534,0.0092314,0.0097219,0.0095489,0.0072491,0.0025725,-0.0012475,-0.0020761,-0.001345,0.00064104,0.0029681,0.0033848,0.0018458,-0.00021047,-0.0027386,-0.0037653,-0.0018673,-0.0027462,-0.0069142,-0.014549,-0.018933,-0.014529,-0.0071106,0.0010036,0.0065791,0.0096323,0.014056,0.015776,0.017543,0.022429,0.024532,0.02206,0.021796,0.020936,0.013057,0.00097563,-0.0090506,-0.014404,-0.016069,-0.015202,-0.016138,-0.022698,-0.02819,-0.02834,-0.022089,-0.012341,-0.0043735,0.0015232,0.0044183,0.0048095,0.0045543,0.0058769,0.0094431,0.013255,0.019804,0.0268,0.027751,0.022247,0.015429,0.0097304,0.0052559,0.0040548,0.0038366,0.0034323,0.0017045,-0.0050631,-0.012959,-0.017925,-0.01882,-0.012723,-0.0042103,0.0017633,0.0049784,0.0050738,0.00094657,-0.0050965,-0.0076115,-0.011014,-0.01679,-0.020036,-0.016386,-0.008485,-0.0013598,0.0007971,-0.0036329,-0.0054861,-0.00035897,0.004868,0.0090896,0.014685,0.019319,0.021713,0.020805,0.015387,0.010832,0.0057977,8.6603e-05,-0.0028147,-0.0092188,-0.015247,-0.01649,-0.016444,-0.015325,-0.010457,-0.0034085,0.00028218,-0.00031031,-9.6614e-05,0.0015017,0.00016932,-0.0033624,-0.0067935,-0.01215,-0.016156,-0.014234,-0.0093056,-0.00016024,0.0065982,0.0059811,0.0043507,0.0048505,0.0050629,0.0066791,0.0080075,0.0091586,0.0083024,0.0019055,0.00020746,0.0029916,-0.00019251,-0.0040137,-0.0046722,-0.005767,-0.010787,-0.013789,-0.0087,-0.0031933,6.8092e-05,0.0077111,0.011295,0.0074531,0.0049039,0.0028144,0.0019322,0.0043204,0.0026147,-0.0015626,-0.00075665,0.001991,-0.0002852,-0.0059327,-0.01107,-0.0086849,1.3344e-05,0.002659,-0.003863,-0.013478,-0.01662,-0.0097619,-0.0020583,-0.0026798,-0.0059215,-0.0065547,-0.0047326,0.00053995,0.0041264,0.0021545,-0.0011688,0.003249,0.012166,0.013624,0.0080441,0.0014415,-0.0068438,-0.013555,-0.012066,-0.005073,-0.0025737,-0.0068988,-0.0090033,-0.0047191,-0.0018474,-0.0010161,0.0007734,0.0018156,0.005351,0.0093796,0.0093194,0.003354,-0.0024792,-0.0050377,-0.0052826,-0.0062433,-0.010177,-0.012916,-0.010044,-0.0017497,0.0071542,0.011039,0.010175,0.0094659,0.009455,0.0080287,0.0027689,-0.0044909,-0.0091784,-0.0070636,-0.0015911,-0.00070275,0.0017775,0.0083508,0.0070343,-0.002007,-0.0087887,-0.0076222,-0.0045129,-0.0016332,0.0041217,0.0051866,0.00052946,-0.0036735,-0.004655,-0.00044568,0.0071187,0.015214,0.019177,0.019991,0.020384,0.019399,0.014612,0.0088642,0.0059211,0.0037474,0.0027625,0.0040142,0.0037978,-0.00089015,-0.0071459,-0.012344,-0.018194,-0.01801,-0.0091353,-0.0027237,0.00031796,0.0065285,0.012708,0.010806,0.0057622,0.005512,0.0076884,0.0064419,0.0004195,-0.0038776,-0.0043319,-0.007889,-0.012817,-0.012371,-0.0089021,-0.0076382,-0.0089117,-0.011138,-0.010885,-0.0067744,-0.0017591,0.00021199,0.0019095,0.0046759,0.0062045,0.0088779,0.0091138,0.0030411,-0.0021349,0.00039067,0.0052542,0.008307,0.0090792,0.0084346,0.0081111,0.0085071,0.0062894,-0.00097856,-0.0079828,-0.0094318,-0.0047485,0.0029775,0.0064273,0.0037284,0.0017397,0.0043483,0.0064951,0.0024378,-0.0034276,-0.0069653,-0.0076512,-0.0084947,-0.0113,-0.012482,-0.01219,-0.0079379,0.001143,0.0056332,-0.0009216,-0.0097527,-0.01162,-0.0092604,-0.0077702,-0.0092581,-0.010404,-0.007883,-0.0062424,-0.002085,0.0031397,0.0044548,0.0024274,-2.5426e-05,9.2304e-05,0.0015446,-0.00089905,-0.0036641,0.00030574,0.005197,0.0041594,-0.0001454,-0.003073,-0.0057863,-0.0094656,-0.0093887,-0.006807,-0.0050691,-0.0020954,0.00018879,0.001209,-0.0013796,-0.0058857,-0.0072448,-0.0039308,0.0044067,0.011914,0.014624,0.014286,0.012734,0.0098623,0.008198,0.0072659,0.0094498,0.01146,0.013635,0.019937,0.020975,0.014995,0.0093394,0.0025358,-0.0064985,-0.0098171,-0.0094555,-0.010674,-0.011883,-0.0096271,-0.0079086,-0.010839,-0.014702,-0.01345,-0.0081807,-0.0043381,-0.0013642,0.0021278,0.0046032,0.0038556,0.0011392,0.0054533,0.013844,0.01856,0.017578,0.011718,0.0048575,-0.0010132,-0.0017709,0.0032046,0.0080084,0.011404,0.015601,0.015381,0.007546,-0.00091385,-0.0041917,-0.0060264,-0.0067999,-0.0033232,0.0016693,0.0035921,0.0015039,-0.0018977,-0.0020767,-0.0019122,-0.0086696,-0.012926,-0.011071,-0.0052137,0.0032955,0.0075535,0.0028645,-0.0036463,-0.0041607,0.0014123,0.0055567,0.0045509,0.001474,0.0016445,0.0091563,0.014263,0.014097,0.010783,0.0090827,0.0089009,0.0027886,-0.0024269,-0.0027267,-0.00067164,0.0058108,0.013132,0.01156,0.0095675,0.0090395,0.005219,0.002159,-0.0022328,-0.0097919,-0.020798,-0.031276,-0.038404,-0.039981,-0.035346,-0.028689,-0.019632,-0.0078799,6.5018e-05,-0.00057199,-0.0019756,0.00011227,0.0061363,0.013434,0.017349,0.016077,0.012143,0.00926,0.0028279,-0.0080031,-0.020853,-0.026239,-0.024741,-0.020886,-0.013706,-0.0041078,0.0033251,0.0070776,0.013034,0.013309,0.0089006,0.0080628,0.012126,0.019763,0.022022,0.017497,0.0094786,0.0028209,-0.0037258,-0.011193,-0.013541,-0.012028,-0.013109,-0.012273,-0.0079895,-0.0090245,-0.011298,-0.010304,-0.0062968,-0.0025978,-0.0033601,-0.0048365,-0.0041911,-0.0040512,-0.0060775,-0.0064465,-0.0052186,-0.0024282,0.0029534,0.0099377,0.011932,0.0096795,0.014226,0.015203,0.0063571,0.0020226,0.0067206,0.011645,0.0098642,0.0026257,-0.0026689,-0.005999,-0.0097327,-0.0059274,-0.002815,-0.004211,-0.0013071,0.0024165,0.0035635,0.004138,0.0073445,0.010562,0.0083697,0.0021152,-0.0031574,-0.0061324,-0.0050211,0.00081626,0.0081705,0.017022,0.021772,0.019717,0.014992,0.0095689,0.0036791,0.00063509,0.0032671,0.0082505,0.0086984,0.0046764,-0.0012579,-0.0092145,-0.017037,-0.017718,-0.010596,-0.0044738,-0.00026769,0.0022122,0.00054443,0.0016691,0.0020694,-0.0013485,0.0022095,0.0081637,0.0071426,0.0021801,-0.0036689,-0.0069291,-0.0083524,-0.011401,-0.011671,-0.0095003,-0.0075169,-0.00051564,0.008228,0.011724,0.0082454,0.0032141,0.0014637,0.00087861,-0.0027716,-0.0073769,-0.0070082,-0.0042139,-0.0037843,-0.0037156,0.00040645,0.0033689,0.0044579,0.0089614,0.013794,0.012605,0.0064976,0.0014965,-0.0031749,-0.0080103,-0.007563,-0.0033479,0.00032515,0.0031348,0.0048838,0.0062072,0.0095597,0.010093,0.0078298,0.010533,0.013116,0.010146,0.0058455,0.0010925,-0.0049827,-0.012158,-0.021143,-0.028124,-0.029821,-0.024952,-0.01647,-0.0084178,-0.0027513,-0.0035715,-0.0076829,-0.0031344,0.0068393,0.0081373,0.0040158,0.004205,0.0093265,0.0097962,0.00070994,-0.0093611,-0.013781,-0.01045,-0.0019764,0.003119,0.0025278,0.00053699,0.004928,0.013569,0.01409,0.0052637,-0.00079656,0.0046673,0.015832,0.018509,0.013413,0.0059447,-0.00073159,-0.0025094,-0.0012755,0.00025841,0.00091202,-0.00091219,-0.0015453,0.0050982,0.011094,0.0084608,0.0017356,-0.00030889,0.0036095,0.0042441,0.00016911,-0.0050758,-0.010016,-0.010549,-0.0055043,-0.0051331,-0.013676,-0.018766,-0.015212,-0.0080016,-0.0031351,0.0010442,0.0042441,0.0037621,0.0020059,-0.0025716,-0.010583,-0.015089,-0.011044,-0.0011395,0.0067182,0.0062712,-0.0019783,-0.0086858,-0.011685,-0.013497,-0.011722,-0.0055001,-0.0032441,-0.0071211,-0.0055894,-0.0015309,-0.0045197,-0.013428,-0.01812,-0.015536,-0.011174,-0.0086407,-0.0063824,-0.0045021,-0.0012203,0.0072809,0.016888,0.023133,0.02455,0.022515,0.020259,0.018571,0.020491,0.025324,0.024787,0.016297,0.0041364,-0.01091,-0.023484,-0.028715,-0.029502,-0.027098,-0.020318,-0.010859,-0.0048609,0.00027057,0.0040688,0.0022948,0.0018861,0.0046154,0.0045905,0.0043054,0.0075997,0.0097491,0.0073626,0.0054475,0.0026457,-0.0043347,-0.006221,-0.0013143,0.002297,0.0015418,-0.0021557,-0.006615,-0.011103,-0.012363,-0.0065351,-0.0029821,-0.0099925,-0.018679,-0.019934,-0.016815,-0.011202,-0.0028631,0.0024277,0.0039568,0.0024768,-0.00048554,0.00033888,0.0038161,0.0063739,0.0098548,0.015781,0.018936,0.018662,0.016926,0.01426,0.0093423,0.0031399,0.0018868,0.0040406,0.0080313,0.012803,0.010669,0.0052957,0.0044354,0.0044351,0.0014515,-0.0015567,0.001909,0.010963,0.0099487,0.0014339,-0.0034673,-0.006991,-0.0087852,-0.0064098,-0.0026009,0.00023586,-0.00080209,-0.0061178,-0.011114,-0.011437,-0.0060453,0.001844,0.0076029,0.0080927,0.0065209,0.0061992,0.0053374,0.0033382,0.00086361,0.0034159,0.0079987,0.0092379,0.0096653,0.0076045,0.0028043,0.0037325,0.0077589,0.0076282,0.0041813,-0.001471,-0.0043281,-0.0035142,-0.0054508,-0.0057045,-0.0035266,-0.0038107,-0.0069695,-0.011603,-0.012802,-0.011247,-0.0085787,-0.0058992,-0.005989,-0.0079947,-0.0083258,-0.0066556,-0.009745,-0.016782,-0.018836,-0.01005,0.0017618,0.007152,0.01051,0.013361,0.01604,0.018322,0.017194,0.0093947,-0.0011113,-0.0071425,-0.0086119,-0.0099691,-0.011919,-0.01221,-0.0086107,-0.0031478,-0.0015035,-0.006131,-0.014746,-0.019673,-0.014685,-0.0059885,-0.0023368,-0.00088323,0.0035569,0.0076994,0.010006,0.0096811,0.0075985,0.0083246,0.0086077,0.0023266,-0.0034593,-0.0016377,0.00042828,-0.0012419,-0.0040746,-0.0052454,-0.0035258,-0.0036586,-0.004862,-0.004476,-0.0013671,0.0057554,0.0082027,0.0069578,0.0060195,0.0050604,0.0080707,0.0084402,0.00092312,-0.0055786,-0.0070261,-0.0078475,-0.0079133,-0.0076881,-0.0085855,-0.0093344,-0.0073952,-0.004817,-0.0062538,-0.0075242,-0.00070041,0.0059335,0.0044223,0.00062307,-0.0031675,-0.0069284,-0.008957,-0.0094542,-0.0072995,-0.0053822,-0.0049497,-0.00099248,0.0011368,-0.0005046,-0.0022715,-0.0014991,0.0033887,0.0061627,0.0082958,0.011047,0.0088279,0.0027761,-0.0039161,-0.0074678,-0.003877,0.0025894,0.0043513,0.00097283,-0.0040758,-0.008889,-0.012634,-0.010555,-0.0042468,-0.00063635,0.0014851,-0.0015509,-0.0044863,-0.0029532,-0.004913,-0.0070359,-0.0027724,0.0051806,0.011942,0.011728,0.0080622,0.0075389,0.0063148,0.0071548,0.009847,0.011147,0.010229,0.0090797,0.0097956,0.0065042,0.00052353,-0.0035469,-0.0056432,-0.0061588,-0.0044874,0.00018072,0.0018479,-0.0018569,-0.0054951,-0.0044835,-0.0014848,0.0031225,0.005626,0.0042941,6.6018e-06,-0.0055425,-0.0071118,-0.0037164,0.0018587,0.0026447,-0.0036625,-0.012296,-0.018494,-0.017535,-0.012032,-0.0032441,0.007455,0.015597,0.019042,0.019922,0.01948,0.016233,0.015752,0.01918,0.021042,0.017938,0.013033,0.0098992,0.0064039,0.0032741,0.00064627,-0.0023306,-0.0033951,-0.003643,-0.0023125,-0.00028132,-0.00040555,-0.0020764,-0.0028698,0.0010957,0.0048145,0.0057111,0.003663,-0.0028836,-0.0079213,-0.0091282,-0.0095752,-0.009141,-0.010845,-0.0096645,-0.0023157,0.0012937,-0.0025909,-0.0072895,-0.011428,-0.011071,-0.0037061,0.0039491,0.0059692,0.0066641,0.0097527,0.0063625,0.00043791,0.0029421,0.0082261,0.0090697,0.0080047,0.0046989,-0.0011873,-0.0032922,0.0010667,0.005748,0.0067659,0.0038924,-0.0013775,-0.0085352,-0.017074,-0.021036,-0.020124,-0.014997,-0.0069304,0.00058647,0.0024949,-0.00080281,-0.0048488,-0.0069937,-0.0066208,-0.0015016,0.0086881,0.017599,0.023123,0.018837,0.0067915,-0.000587,-0.0021886,-0.0033327,-0.0037394,-0.0031163,-0.0033379,-0.0048364,-0.0043879,-0.0052252,-0.01026,-0.011362,-0.007826,-0.0032267,-0.0019165,-0.0065499,-0.01267,-0.013722,-0.010253,-0.0063141,-0.0011864,0.0014551,-0.0016598,-0.0066507,-0.0098625,-0.008604,-0.0037953,0.0034989,0.013003,0.019538,0.023526,0.02656,0.021825,0.011408,0.0018851,-0.0031753,-0.0029253,-0.0010219,-0.00078764,-0.0045286,-0.0091702,-0.010532,-0.0097504,-0.010208,-0.0086642,-0.0074095,-0.0085387,-0.0102,-0.013371,-0.014052,-0.013837,-0.014541,-0.011143,-0.0048509,-0.0040842,-0.0071561,-0.0070841,-0.0056175,-0.0044555,0.0026552,0.011084,0.014221,0.013304,0.0089883,0.0039457,-0.0019597,-0.0060716,-0.0077218,-0.0079577,-0.0023506,0.0020376,0.00011901,-0.0031046,-0.006582,-0.0081211,-0.0014434,0.0088685,0.012183,0.011391,0.0097129,0.005269,0.001784,0.005381,0.014386,0.020721,0.025237,0.026233,0.023314,0.017177,0.006507,-0.0057467,-0.01527,-0.013538,-0.0085033,-0.013472,-0.019607,-0.01959,-0.015779,-0.010861,-0.0068213,-0.0025026,0.0032291,0.0050731,0.0043931,0.0023541,-0.0070673,-0.012257,-0.0047297,0.0030259,0.007768,0.0097291,0.0020227,-0.012703,-0.024194,-0.027128,-0.020116,-0.0082325,-0.00086665,0.0049668,0.011784,0.013211,0.0084117,0.0022683,-0.0017564,-0.0053812,-0.0051504,-0.0026376,-0.0021951,0.0010776,0.0033727,0.002656,0.0055299,0.0096649,0.0088168,0.0054047,0.0023678,0.001221,-0.0029045,-0.0050632,-0.0039254,-0.0031779,-0.0018868,0.00033736,0.0008633,-0.0010085,-0.003895,-0.0036925,0.0019862,0.0074911,0.0067171,0.0013699,-0.0015335,-0.0015853,-0.0052867,-0.009467,-0.0077863,-0.0022645,-0.00010489,0.0016484,0.0043525,0.0016067,-0.0027602,-0.0063075,-0.0089095,-0.0097917,-0.0075619,-0.0047626,-0.0017345,0.00017261,0.00013031,0.0038487,0.0096087,0.012021,0.010908,0.0087862,0.0073549,0.005369,-0.0013142,-0.0083182,-0.0096392,-0.0055807,-0.00063004,0.002128,0.0036534,-0.00011514,-0.0074027,-0.014798,-0.018328,-0.015019,-0.0071043,0.0013672,0.0085496,0.012303,0.016472,0.017363,0.0088547,0.0031661,0.0048613,0.007049,0.0098826,0.012451,0.012196,0.0095865,0.0084474,0.0095351,0.011734,0.013642,0.012664,0.011162,0.0092595,0.0064312,0.0050605,0.0078962,0.012432,0.010839,0.0037321,-0.0033941,-0.008974,-0.011522,-0.0083968,-0.0047042,-0.0023086,0.0037839,0.0085693,0.0044383,-0.0055472,-0.017589,-0.024901,-0.021801,-0.013445,-0.0075922,-0.0011513,0.0037434,0.0056152,0.0037616,-0.00052623,0.00080555,0.0051552,0.0078301,0.0096456,0.007416,0.0011612,-0.0017978,-0.0026234,-0.0017232,0.00032211,0.00063654,0.00048123,0.0047213,0.013912,0.016911,0.0098861,0.004881,0.0042772,0.0018538,-0.0015177,-0.0007184,-0.0002681,-0.00048232,0.00097497,0.0029238,0.0096475,0.012464,0.0094789,0.0097926,0.01004,0.002818,-0.0069654,-0.010105,-0.0070601,-0.0027655,-0.001534,-0.0017756,-0.001934,-0.0039981,-0.0041689,-0.0026503,-0.0035221,-0.0027077,0.0037685,0.0090908,0.0068394,-0.0012553,-0.0082478,-0.0075551,0.00051265,0.003581,-0.0032442,-0.0097156,-0.020179,-0.03071,-0.030104,-0.023688,-0.016711,-0.0062907,0.006527,0.011355,0.0028749,-0.0073693,-0.0099013,-0.0087305,-0.003986,0.00050089,0.0033534,0.0067086,0.0063337,0.0047134,0.0044583,0.002446,-0.003655,-0.0096905,-0.012031,-0.013619,-0.014084,-0.010576,-0.0074312,-0.0045824,0.0010905,0.0099839,0.016136,0.013027,0.0076062,0.00096911,-0.0031147,0.00075816,0.009209,0.01459,0.013894,0.010672,0.0078395,0.0058695,0.00052396,-0.0054297,-0.0057837,-0.0020171,0.0023997,0.0028956,0.0018213,0.0013377,-0.0010726,0.0023164,0.0082422,0.0077002,0.0044153,-0.00036599,-0.0071508,-0.011785,-0.010702,-0.0039347,0.0051735,0.012944,0.014346,0.0099083,0.0050447,0.0015947,-0.0025347,-0.0061392,-0.0033912,0.0038232,0.0088695,0.011395,0.0092856,0.0070666,0.0060651,-0.00098053,-0.0078817,-0.0092731,-0.010559,-0.0070493,-3.8683e-05,-0.0014697,-0.0055508,-0.0052823,-0.0059557,-0.0095112,-0.01123,-0.0064364,-0.0030708,-0.00096043,0.0050762,0.0083123,0.0077855,0.0030478,-0.0041267,-0.008607,-0.01368,-0.019275,-0.017756,-0.015625,-0.014285,-0.0077396,-0.0015609,0.0020275,0.0057148,0.0097866,0.0098187,0.0026107,-0.0069078,-0.010805,-0.0080967,-0.0046312,-0.0010368,0.0039533,0.0047155,0.0046578,0.010085,0.012437,0.0093883,0.0043008,-0.0018025,-0.0061935,-0.0059212,0.00083185,0.0067311,0.0036659,-0.0015699,-0.00063921,0.00042282,-0.004023,-0.010541,-0.012241,-0.0082813,-0.0057141,-0.0041913,-9.3639e-05,0.0030243,0.0039548,0.0061213,0.0054595,0.0026218,0.00052249,0.0018451,0.0012296,-0.0030735,-0.0078426,-0.012085,-0.011601,-0.0064798,-0.0016148,-0.0019204,-0.00071473,0.0011312,0.0013234,0.002167,0.00069864,0.00062899,0.0048418,0.0061327,0.0035854,0.002669,0.0052303,0.0099333,0.015807,0.020565,0.019695,0.015592,0.01369,0.010819,0.0057553,0.0019586,-0.00056111,-0.00065615,0.00011336,0.00030695,-0.0018359,-0.0078031,-0.011101,-0.0051691,0.00052717,-0.0016618,-0.0097535,-0.014713,-0.013848,-0.0087881,-0.0011456,0.0032485,0.0057729,0.0053934,0.0043577,0.0029641,-0.0013154,-0.0038409,-0.0015485,0.0035781,0.0059827,0.0024052,-0.0042295,-0.0085965,-0.0099995,-0.010388,-0.0086235,-0.0039997,-0.0030396,-0.0044653,0.0010266,0.0052846,-0.0024934,-0.0097091,-0.0062488,0.00060162,0.0070148,0.011887,0.0077676,-0.0033378,-0.010589,-0.014052,-0.013988,-0.012212,-0.0082837,-0.0034144,-0.0059845,-0.011179,-0.010477,-0.0055329,0.00406,0.0087329,0.0038397,0.0027167,0.0037652,0.0024584,-0.0017602,-0.0082572,-0.011617,-0.013659,-0.010171,-0.00012889,0.0012823,-0.0042098,-0.0043358,-0.0035834,-0.0059757,-0.0070413,-0.007228,-0.008571,-0.0065086,0.0034292,0.011718,0.011463,0.013423,0.022389,0.029145,0.028685,0.020662,0.012184,0.0078904,0.0033121,0.00018628,0.00025589,-0.00092257,-0.0049103,-0.0056185,0.001058,0.0054426,0.00024782,-0.0054853,-0.0051545,-0.0038741,-0.011357,-0.019144,-0.017523,-0.014331,-0.0104,-0.0062682,-0.0063984,-0.0068277,-0.0051887,-0.002691,0.0040947,0.01018,0.013281,0.019568,0.026354,0.029433,0.027204,0.021925,0.018672,0.014998,0.0074088,0.00023315,-0.0010898,0.0039019,0.0065578,0.0029463,0.00054192,-0.0052232,-0.01338,-0.012072,-0.0059401,-0.0051133,-0.0011934,0.010247,0.018124,0.013649,0.0062829,0.00074965,-0.0064993,-0.014866,-0.026229,-0.035315,-0.042011,-0.047366,-0.042832,-0.023014,-0.0055807,-0.0036524,-0.0083203,-0.0070396,-0.0049769,-0.0038568,0.0071628,0.018121,0.017743,0.012878,0.011375,0.010858,0.0078214,0.0022203,0.0027625,0.005367,0.0058577,0.0091602,0.01208,0.016094,0.015587,0.0094352,0.0017879,-0.0034184,-0.00075725,0.00086229,-0.0047483,-0.010327,-0.013937,-0.015603,-0.011093,-0.0063277,-0.0047724,-0.0042329,-0.0061956,-0.0072812,-0.0074797,-0.01441,-0.020419,-0.017013,-0.010451,-0.007555,-0.012473,-0.01693,-0.017667,-0.014275,-0.0046896,0.0056177,0.012628,0.016102,0.017905,0.013614,0.001345,-0.007612,-0.0051478,-0.00033035,-0.00087431,-0.0057011,-0.0099018,-0.010522,-0.0079346,0.00033455,0.014848,0.029374,0.032944,0.029182,0.027672,0.023257,0.01125,0.0028151,0.0011301,-0.0016764,0.00035475,0.013966,0.027738,0.027175,0.017296,0.005695,-0.0043495,-0.012769,-0.022024,-0.024064,-0.02316,-0.023349,-0.01865,-0.0091411,-0.0065905,-0.012748,-0.015368,-0.01389,-0.013169,-0.01191,-0.0058394,0.0028542,0.0060292,0.0091475,0.014331,0.013139,0.009018,0.0066277,0.005845,0.0057596,0.0033132,0.0011601,0.0020445,0.0083167,0.015814,0.018248,0.020081,0.020041,0.016184,0.014005,0.013425,0.007729,-0.0053387,-0.019095,-0.02525,-0.021977,-0.017256,-0.015343,-0.017956,-0.02004,-0.010209,0.010504,0.024487,0.017598,0.0061712,0.002614,0.00071807,-0.00069475,-0.0020156,-0.0028189,-0.0021562,-0.0030364,-0.0060632,-0.0065609,-0.009208,-0.011396,-0.0084272,-0.0084142,-0.014968,-0.020497,-0.020972,-0.017709,-0.0096239,-2.1014e-05,0.0078499,0.0091478,0.0063552,-0.00026207,-0.010209,-0.017001,-0.018976,-0.017291,-0.014758,-0.012174,-0.0059331,0.0082536,0.016212,0.015228,0.016493,0.013953,0.0078448,0.0078726,0.0086742,0.009202,0.0062609,-0.0019995,-0.007877,-0.0067185,0.00050434,0.0070272,0.010199,0.0060846,-0.0018064,-0.0084767,-0.014633,-0.017403,-0.014898,-0.012939,-0.011173,-0.0029376,0.0056304,0.006302,0.0051688,0.0028824,0.0023534,0.0024679,-0.0021455,-0.0032074,-0.0026309,-0.0070626,-0.0070952,-0.0023406,0.0014127,0.0041048,0.0072861,0.015795,0.022942,0.017447,0.010228,0.0082294,0.0049938,0.0021283,-0.0003227,0.00025504,0.0054136,0.010696,0.018652,0.026094,0.020497,0.0078427,-0.00031458,-0.0045178,-0.0070286,-0.0089691,-0.011555,-0.0083067,0.0054213,0.016175,0.015329,0.0073674,-0.00075329,-0.0070121,-0.012085,-0.012822,-0.012521,-0.01801,-0.01697,-0.001476,0.010048,0.012963,0.011894,0.0097612,0.0076469,0.0056916,0.0030147,-0.00058572,-0.0078087,-0.017487,-0.020225,-0.015183,-0.0045963,0.0053208,0.0084311,0.0066718,0.0071405,0.0049886,0.0032317,-0.00033114,-0.0092171,-0.010072,-0.003516,0.0040389,0.0056439,0.0034805,0.0041211,0.0073074,0.0072387,0.0019693,-0.0042227,-0.0066494,-0.0041449,-0.0030185,-0.0085489,-0.0093884,-0.0055975,-0.0019252,0.0050398,0.0052859,-0.0041787,-0.014266,-0.018875,-0.012321,-0.00029147,0.0073823,0.011019,0.01441,0.020282,0.026014,0.028305,0.027744,0.02296,0.014815,0.0052993,-0.0037369,-0.010765,-0.018358,-0.025415,-0.027798,-0.022348,-0.016536,-0.017039,-0.021222,-0.026715,-0.031836,-0.026029,-0.014804,-0.0080304,-0.0023507,-0.002745,-0.0079453,-0.012143,-0.013058,-0.012999,-0.013061,-0.010126,-0.0040783,0.0017843,0.0026938,0.0013814,0.0020344,0.0052478,0.009713,0.020603,0.030286,0.029622,0.029061,0.028128,0.02011,0.0076875,-0.0034523,-0.0076699,-0.0016709,0.0050945,0.0071701,0.0046273,-0.0016963,-0.0089832,-0.012759,-0.0055059,-0.0029369,-0.010994,-0.013081,-0.006028,0.0014587,0.00459,0.0059098,0.0082505,0.0090331,0.0077957,0.0090058,0.010674,0.006795,0.0012353,0.00027959,0.000139,-0.0037398,-0.0017177,0.0037713,0.0024224,-0.0014066,-0.0066554,-0.0084445,-0.0064062,-0.00091562,0.0063087,0.010181,0.01535,0.021887,0.025013,0.02515,0.017343,0.0029225,-0.004482,-0.0055665,-0.0075309,-0.012319,-0.016112,-0.015646,-0.017569,-0.018512,-0.015531,-0.01713,-0.024526,-0.031354,-0.035691,-0.038274,-0.038429,-0.031691,-0.023596,-0.013891,0.0029187,0.01335,0.012266,0.0074708,0.0027927,-0.0013408,-0.002921,0.0016105,0.0016463,-0.0020396,0.0037095,0.0088712,0.0071242,0.0074997,0.011392,0.019266,0.026281,0.024674,0.023173,0.021409,0.013961,0.0095874,0.0047207,0.0013879,-0.0025061,-0.0073098,-0.0077915,-0.005037,-0.004262,-0.0025733,0.0032183,0.012611,0.020637,0.019592,0.012353,0.0025555,-0.0051303,-0.004926,-0.0052955,-0.012696,-0.018525,-0.021838,-0.028552,-0.03245,-0.031358,-0.027718,-0.019453,-0.0090819,0.00027739,0.0073209,0.010353,0.0079048,0.0021586,-0.0028898,-0.0056856,-0.0035106,0.0013367,-0.0048231,-0.011852,-0.010725,-0.0090376,0.0016454,0.02289,0.036465,0.033543,0.023097,0.017565,0.017877,0.01842,0.01779,0.019717,0.023922,0.020724,0.010869,0.0047739,-0.0016123,-6.8917e-05,0.014076,0.0188,0.011061,0.0052402,0.0039299,0.0031948,-0.0050461,-0.018866,-0.025356,-0.022557,-0.014843,-0.0095834,-0.006876,-0.0075,-0.010699,-0.012914,-0.014288,-0.016284,-0.021253,-0.026343,-0.026686,-0.022721,-0.01492,-0.0012051,0.0066097,0.0032582,0.0014594,0.004945,0.0032396,0.00045158,0.004446,0.0087112,0.010229,0.016893,0.01956,0.0087687,-0.0018411,-0.0079927,-0.013824,-0.016578,-0.01597,-0.011566,-0.00015315,0.012196,0.016646,0.020186,0.020769,0.017382,0.020849,0.019708,0.0088453,0.0010687,-0.0023296,-0.00020024,0.0092974,0.015168,0.017226,0.016108,0.013307,0.01556,0.014139,-0.00095579,-0.019469,-0.025663,-0.017649,-0.0098856,-0.0079449,-0.0042977,0.0039678,0.010849,0.011539,0.012924,0.01071,-0.0015681,-0.0093867,-0.0054146,0.0024864,0.0082104,0.011767,0.010191,0.0039732,0.0036659,0.0081889,0.012038,0.010833,0.0024473,-0.0071705,-0.014219,-0.018614,-0.016722,-0.014067,-0.015559,-0.013196,-0.0015996,0.010478,0.011512,0.0079568,0.0066549,0.0065203,-0.00016559,-0.010804,-0.011098,-0.004619,-0.0044054,-0.013895,-0.017331,-0.014134,-0.015807,-0.017894,-0.015429,-0.0098018,-0.0040095,-0.00015449,-0.0028593,-0.0030051,0.0023545,0.0035824,0.00038418,-0.0055823,-0.0083594,-0.0049946,-0.0031074,-0.0029882,0.0015415,0.0077758,0.013996,0.019678,0.01889,0.011343,0.0038339,-0.00047706,-0.0060691,-0.015467,-0.023918,-0.025484,-0.024071,-0.020742,-0.019018,-0.01059,0.0046929,0.011295,0.011227,0.0051942,-0.0066711,-0.011593,-0.0029118,0.0094076,0.016254,0.019231,0.022078,0.024531,0.017192,0.0077313,0.0069876,0.011807,0.012902,0.011561,0.0075856,-0.0023358,-0.019218,-0.035593,-0.038891,-0.033366,-0.028668,-0.023025,-0.01413,-0.0098884,-0.01095,-0.002772,0.011308,0.018491,0.019019,0.014668,0.0036231,-0.0029048,-0.0019009,-0.0025498,-0.0048024,-0.0087459,-0.0088323,-0.0015827,0.004489,0.00022752,-0.0020449,-0.0010545,0.00074668,0.0063795,0.0044368,-0.0019699,-0.0045982,-0.0052284,-0.0034892,0.0044765,0.010303,0.015825,0.024431,0.024912,0.014427,0.0024086,-0.000569,0.0030292,0.0077088,0.013264,0.022068,0.030375,0.030955,0.024272,0.017104,0.012828,0.0081645,0.0038499,-0.0057909,-0.026052,-0.040041,-0.03969,-0.035419,-0.029737,-0.022885,-0.017665,-0.0099011,-0.0055371,-0.0081693,-0.0024473,0.0086317,0.0118,0.010522,0.012191,0.015224,0.022471,0.027735,0.020065,0.0051195,-0.0078426,-0.0164,-0.020914,-0.025364,-0.03269,-0.032214,-0.025435,-0.022343,-0.022396,-0.023377,-0.02087,-0.015254,-0.0088655,-0.0080479,-0.010531,-0.018797,-0.02873,-0.028038,-0.018995,-0.0065432,0.0041255,0.012694,0.022566,0.034678,0.041222,0.039162,0.03448,0.028025,0.024521,0.023356,0.016892,0.0061012,0.0028255,0.0094159,0.0090109,-0.000979,-0.0051193,-0.0071484,-0.007524,0.0018375,0.0063406,0.0068868,0.0061398,0.0068324,0.010271,0.012603,0.016944,0.019559,0.019745,0.017258,0.013972,0.0074361,-0.0035653,-0.014229,-0.021188,-0.019569,-0.013655,-0.010951,-0.013164,-0.014055,-0.012862,-0.0090727,-0.00043258,0.0056501,0.008604,0.0097194,0.015113,0.021214,0.017285,0.010307,0.0039585,-0.0073981,-0.011275,-0.0080605,-0.014822,-0.01788,-0.0091482,-0.0016212,0.0025105,0.0021986,-0.0014909,-0.0065493,-0.0062571,-0.001921,-0.0024048,-0.0073827,-0.01162,-0.017028,-0.020045,-0.010567,0.00077823,0.0037238,0.0021979,-0.0005581,-0.0015439,0.0044466,0.0095643,-0.0027703,-0.016313,-0.013055,-0.002545,0.004569,0.0047993,-0.00022617,-0.00069508,0.0050793,0.0073406,0.004688,-0.0010357,-0.01283,-0.021831,-0.01272,-0.0069305,-0.018564,-0.025333,-0.018274,-0.0073308,0.0053829,0.017402,0.019913,0.016348,0.011305,0.0077799,0.0046154,-0.005259,-0.019211,-0.023149,-0.016814,-0.010446,-0.0018034,0.003958,0.005331,0.010325,0.015365,0.011546,0.0032176,-0.004728,-0.010808,-0.017838,-0.023919,-0.020767,-0.012884,-0.0046043,0.004747,0.016564,0.03168,0.039467,0.024468,0.0062261,8.6699e-05,-0.0034735,-0.0055624,-0.0028687,-0.0027677,-0.003433,0.0049567,0.015861,0.021535,0.018126,0.0067724,-0.0054257,-0.016279,-0.023047,-0.019864,-0.015159,-0.012666,-0.0020364,0.013733,0.022833,0.024849,0.020089,0.007814,-0.0058679,-0.0095558,-0.0031794,-0.0014762,-0.0051364,-0.006249,-0.0016041,0.0076496,0.011874,0.012139,0.012556,0.011168,0.0084382,0.0021208,-0.0066445,-0.0055652,0.00026981,0.0010248,0.0009391,0.0038679,0.0097293,0.015018,0.014479,0.013732,0.022327,0.02601,0.023259,0.022431,0.013972,0.0027335,-0.0025898,0.0007298,0.006848,0.0018214,-0.0093896,-0.01151,-0.0074844,-0.00025946,0.0066917,0.0094747,0.014053,0.020256,0.021666,0.01765,0.012413,0.0071306,-0.00031023,-0.008535,-0.015921,-0.020586,-0.018499,-0.012476,-0.0095506,-0.0070612,-0.0025661,0.0020994,0.0034862,-0.0012801,-0.0044428,-0.0027592,-0.0011671,-0.0025902,-0.0014613,0.0028347,-0.0032533,-0.016344,-0.024699,-0.026933,-0.019149,-0.006849,0.00013673,0.0021618,0.0055344,0.011355,0.011002,0.011171,0.010621,0.0058243,0.0087874,0.017311,0.017797,0.0057171,-0.0064538,-0.012467,-0.013451,-0.0058177,0.0052478,0.0083894,0.0055758,0.0050108,0.0065208,0.0027108,-0.0049146,-0.0026428,0.0057897,0.0092361,0.0078447,-0.0013408,-0.016074,-0.026262,-0.028939,-0.024549,-0.012881,-0.0013923,0.0057902,0.014182,0.018782,0.010906,-0.0020574,-0.007907,-0.0093078,-0.01044,-0.010541,-0.011026,-0.014034,-0.02037,-0.02751,-0.028801,-0.028105,-0.041334,-0.054125,-0.051005,-0.036624,-0.021488,-0.012217,-0.0074345,-0.004335,0.0058714,0.017582,0.022908,0.01803,0.0072763,0.0048459,0.013954,0.024164,0.025251,0.020024,0.015632,0.010885,0.0069915,0.006672,0.0083062,0.0090822,0.0078627,0.012942,0.018619,0.016081,0.0099388,0.0067512,0.0074606,0.0060931,-0.0037628,-0.018466,-0.028893,-0.032165,-0.030148,-0.020957,-0.01312,-0.015324,-0.016605,-0.0095122,-0.0034416,-0.0064136,-0.019928,-0.034119,-0.031459,-0.013782,0.0057865,0.021736,0.027125,0.021551,0.016201,0.016914,0.01499,0.0054189,0.0019874,0.0063256,0.01145,0.018478,0.023169,0.021682,0.014895,0.006868,0.0039116,0.0077942,0.0098559,0.0058321,0.0035601,0.0066594,0.0047797,-0.0021553,-0.001981,0.0062289,0.014134,0.010439,-3.5685e-05,-0.0050432,-0.011205,-0.017505,-0.00745,0.0072845,0.014889,0.015975,0.013822,0.0092813,-0.0032945,-0.013072,-0.018164,-0.025373,-0.028339,-0.024265,-0.015542,-0.0087236,-0.0017333,0.009759,0.021516,0.026604,0.024131,0.021382,0.015326,0.0040534,-0.004255,-0.0049893,-0.0022552,-0.0043844,-0.0080465,-0.008689,-0.0088635,-0.0088511,-0.0044966,0.0059883,0.016589,0.02003,0.012678,0.0057849,0.0060679,0.00068469,-0.010985,-0.012043,-0.0039982,0.0041051,0.013773,0.017637,0.0096938,-0.0055777,-0.018091,-0.018447,-0.0056334,0.0062201,0.0047377,-0.00659,-0.0197,-0.02509,-0.021931,-0.011478,0.00095785,0.005319,0.0028849,0.0033466,0.0061625,0.0081566,0.0067406,0.0010354,0.00088863,0.008103,0.012025,0.005541,-0.006719,-0.013304,-0.010281,-0.0038453,0.0033702,0.0052789,0.0032953,0.0088794,0.013972,0.010574,0.012306,0.020818,0.021762,0.018608,0.011583,0.0048055,0.0034855,0.00024173,-0.0068131,-0.011,-0.012395,-0.016654,-0.010532,0.0010022,0.0074379,0.010914,0.0088902,0.0069425,0.0092169,0.013125,0.013239,0.0088781,0.0017648,-0.0056632,-0.0064318,0.00091145,0.0060637,0.0064857,0.0055022,0.0012136,-0.005275,-0.007204,-0.0029066,0.0031126,0.0062992,0.0068463,0.01011,0.012219,0.008916,0.0038472,-0.0020908,-0.0052714,-0.006038,-0.0095592,-0.014116,-0.018849,-0.021945,-0.022775,-0.019676,-0.0085972,0.0048198,0.012923,0.018281,0.022703,0.026059,0.022122,0.0087037,-8.2274e-05,-0.0046124,-0.0099464,-0.0086536,-0.0021867,-0.0020322,-0.0063198,-0.008109,-0.0050874,0.0022963,0.003502,-0.0049887,-0.012488,-0.016014,-0.014351,-0.0070623,-0.0031913,-0.0064653,-0.0046273,0.0052491,0.014457,0.018482,0.016193,0.011212,0.010844,0.013923,0.014244,0.010432,0.0060825,0.00016563,-0.0081703,-0.0138,-0.015931,-0.014725,-0.0062264,0.0042722,0.011183,0.012344,0.0077768,0.0041729,0.003404,0.0063039,0.013277,0.014209,0.0083649,0.0016971,-0.0055888,-0.0066022,0.00012067,0.0063383,0.0040353,-0.0012031,-0.0019993,-0.0051059,-0.0082587,-0.0083153,-0.0081859,-0.0072431,-0.0069179,-0.0040055,0.0032636,0.007001,0.0032345,-0.0027413,-0.0057418,-0.004895,-0.0031304,-0.0045086,-0.0073858,-0.0075027,-0.0031662,0.0090601,0.016911,0.014875,0.01412,0.012507,0.014201,0.016169,0.0093055,0.0048599,0.0092316,0.018853,0.018545,0.0068797,-0.0015854,-0.0063515,-0.0087498,-0.005332,0.0029314,0.010095,0.0096458,0.0065902,0.0085366,0.010269,0.010121,0.0097865,0.005168,0.0019307,-0.00084276,-0.0083604,-0.012278,-0.011503,-0.013494,-0.014224,-0.010965,-0.0067099,0.00022575,0.0050636,0.010224,0.01619,0.015687,0.0096526,0.0034466,-0.0024989,-0.010481,-0.013484,-0.01016,-0.0042312,-0.00066874,-0.0019748,-0.0040932,-0.0078722,-0.011862,-0.013623,-0.0091453,-0.00019355,0.0044914,0.0047934,0.00032478,-0.0043985,-0.0031657,-0.00198,-0.00047004,0.0077612,0.012439,0.0067462,0.0037112,0.00053536,-0.0033,0.00015043,0.0063176,0.0094054,0.0052531,-0.0014044,-0.003077,-0.0016506,-0.0028474,-0.0034807,0.0013231,0.002265,-0.0036834,-0.0083303,-0.0081614,-0.0035709,-0.00042544,-0.0025735,-0.004048,-0.00026807,0.0025646,-0.00075006,-0.0066531,-0.0073286,-0.0074057,-0.0042245,0.0020783,0.00014002,-0.009791,-0.016664,-0.014343,-0.008362,-0.0022812,0.0038779,0.0089047,0.0060136,0.00043115,-0.0033559,-0.0083199,-0.012759,-0.013441,-0.0025126,0.013019,0.018909,0.015141,0.0063221,-0.0058122,-0.011791,-0.0079282,-0.0024213,-7.7863e-05,-0.0018669,-0.0036617,-8.7662e-05,-0.0018243,-0.011731,-0.013946,-0.0061885,-0.00040373,0.00061843,-0.0047235,-0.010515,-0.0073244,-0.00051642,0.0033258,0.00067587,-0.0012191,-0.00037891,-0.00553,-0.013696,-0.016587,-0.012229,-0.0075297,-0.0011227,0.004446,2.7052e-05,-0.003163,0.0025691,0.0027219,0.00056142,0.005499,0.013916,0.019924,0.017265,0.0080381,-0.00090948,-0.0041082,-0.0045418,-0.0041912,-0.00038706,0.0024323,0.0028093,0.0066076,0.0052944,-0.0041516,-0.0057606,0.0020005,0.0042201,0.0027577,0.0021007,-0.003836,-0.0099307,-0.012711,-0.013228,-0.011698,-0.014411,-0.016079,-0.011678,-0.0047021,0.0005956,0.003446,0.0069795,0.010582,0.012126,0.012445,0.017188,0.015692,0.0043665,0.0018465,0.0038797,0.0035662,0.0072541,0.0076305,0.003035,0.0019087,0.00058928,-0.004026,-0.005212,0.0034774,0.016483,0.022861,0.022536,0.018107,0.0068372,-0.0055571,-0.014203,-0.016881,-0.012647,-0.0058133,0.0019906,0.0073215,0.0023177,-0.010243,-0.01938,-0.02688,-0.029252,-0.02355,-0.016199,-0.0055681,0.0029623,0.0009629,-0.0011772,-0.00073928,-0.0025544,-0.00401,-0.0049505,-0.0044847,-0.0051608,-0.0032672,0.00063783,-0.0024374,-0.0077853,-0.0071035,-0.0024102,0.00063353,0.0011244,0.0027689,0.006003,0.0053296,0.0012252,0.0011897,0.006632,0.010864,0.013478,0.01766,0.017581,0.011925,0.0068717,0.0028741,-0.002497,-0.0088822,-0.011824,-0.0065481,-0.00071093,-0.0021055,-0.010083,-0.011469,-0.0046204,-0.00067175,0.0012912,0.0044721,0.0077703,0.0064576,3.9965e-05,-0.0053191,-0.0066594,-0.0083998,-0.012921,-0.019525,-0.027605,-0.029005,-0.015233,0.0013405,0.0056485,0.004746,0.008863,0.014198,0.017683,0.021263,0.024421,0.024003,0.017673,0.01041,0.0075718,0.0044492,-0.00034255,-0.0046148,-0.0070584,-0.0043564,0.0023923,0.0074919,0.0078135,0.0030679,-0.0042586,-0.0086497,-0.0077978,-0.0080341,-0.0099746,-0.0097536,-0.0087791,-0.0037085,0.0019431,0.0018364,-0.00093792,-0.00561,-0.0083851,-0.005215,0.0013251,0.0074426,0.0064061,0.00059568,-0.0044293,-0.0082763,-0.0083789,-0.005509,-0.0014555,-0.0022056,-0.011276,-0.014148,-0.011219,-0.0091395,-0.0062199,-0.001093,0.0087048,0.017787,0.021984,0.017237,0.0049982,-0.003215,-0.0052963,-0.0076068,-0.0076454,-0.0084624,-0.0090738,-0.0020786,0.0016288,0.00072682,0.0012567,0.00056775,-0.0037702,-0.0078042,-0.011567,-0.013533,-0.010301,-0.0059164,0.0012038,0.0057667,0.0029842,0.0043452,0.011915,0.01335,0.0088291,0.0060922,0.0024175,0.00023007,0.0009737,0.0026615,0.0029838,0.00035723,0.0007208,0.0044733,0.0076517,0.012238,0.013912,0.0076213,-0.0010441,-0.0073655,-0.011318,-0.015216,-0.0203,-0.021349,-0.017576,-0.01225,-0.00727,-0.0033622,-0.0015366,-0.0017138,0.00044755,0.00318,0.0049394,-0.00028223,-0.0093659,-0.01159,-0.010383,-0.0080399,-0.0034634,0.00065155,-0.0023508,-0.0020098,0.0039562,0.0032615,-0.0020708,-0.0058284,-0.0039012,0.0052271,0.010845,0.0085517,0.010227,0.012877,0.015964,0.022035,0.017931,0.0065624,-0.0016788,-0.0039853,0.0024178,0.0093876,0.0061967,-0.00014188,-0.0037585,-0.0038804,-0.00050418,0.00098985,0.0003846,-0.003048,-0.01076,-0.011371,-0.0045484,-0.0044977,-0.0058695,-0.0071429,-0.010636,-0.011749,-0.0096614,-0.0054659,-0.0048958,-0.0060657,-0.00080138,0.0089763,0.017364,0.01987,0.015167,0.006328,-0.0018732,-0.0075101,-0.012496,-0.011719,-0.0073367,-0.003963,0.0012293,0.0094132,0.015923,0.017242,0.014691,0.012318,0.010174,0.002551,-0.0060078,-0.0098819,-0.012828,-0.015605,-0.014818,-0.013636,-0.010343,-0.0038825,0.0012596,0.0042064,0.0041371,0.0041691,0.002424,0.0012084,0.0022691,0.0047442,0.008475,0.0072632,0.0016706,-0.003136,-0.0021404,0.0004378,-0.0017071,-0.0050767,-0.0072573,-0.0072443,-0.0032459,0.0027013,0.0045443,0.0033847,0.0024614,0.00056549,-0.0020285,-0.0071356,-0.010904,-0.010882,-0.0067326,-0.00077169,0.0017237,0.0023119,0.0046221,0.0019818,-0.0046378,-0.0040513,0.0023151,0.0019981,-0.0028377,-0.0019449,0.0016559,0.0038409,0.005078,0.0068435,0.0044106,-0.0014344,-0.0024433,0.0034907,0.0047887,-0.0021751,-0.0036207,0.00054956,0.004855,0.0083075,0.0094611,0.0057924,0.0019401,0.0059178,0.0090218,0.0044062,-0.0020208,-0.008666,-0.0082501,-0.001307,0.0011879,-0.0028658,-0.0089362,-0.0144,-0.017919,-0.018592,-0.015915,-0.011682,-0.010019,-0.008259,-0.0076952,-0.0075262,-0.0026692,0.0027099,0.0035412,0.00083892,0.0036449,0.01035,0.011615,0.0076036,0.0012779,-0.0061644,-0.0048505,-0.0010558,-0.0077503,-0.014234,-0.0091406,0.0052539,0.01493,0.012662,0.0026269,-0.006686,-0.0054943,0.0059169,0.015088,0.01377,0.0063284,0.0008124,0.0025402,0.0085051,0.013967,0.015002,0.01497,0.012434,0.0071984,0.0051767,0.005993,0.0059661,0.0015588,-0.005967,-0.0044483,0.0011194,-0.0046037,-0.011153,-0.010371,-0.0067586,0.0023198,0.011818,0.011919,0.0069418,0.0028427,0.0014527,0.0008995,-0.0019139,-0.0060936,-0.0061583,-0.00050659,0.0013497,-0.0034585,-0.0071738,-0.004394,-0.002105,-0.0067461,-0.010458,-0.01111,-0.011233,-0.010818,-0.0065535,-0.0026506,-0.0046334,-0.00088144,0.0082095,0.010052,0.0016064,-0.0078477,-0.010618,-0.013056,-0.016155,-0.015105,-0.013601,-0.013403,-0.012665,-0.010659,-0.0063972,-0.0049117,-0.0041629,0.00080151,0.0044392,0.0087576,0.014995,0.014921,0.010003,0.0062412,0.0026226,0.0019101,0.0051054,0.0092521,0.0075474,-0.00075832,-0.0091673,-0.0066795,0.0062438,0.013503,0.015812,0.0146,0.0094957,0.0056811,0.0064352,0.0062487,0.0043831,0.0054266,0.0028699,0.0024173,0.0080061,0.010342,0.0042618,-0.0052461,-0.015232,-0.021036,-0.022135,-0.020051,-0.013868,-0.011801,-0.015756,-0.015972,-0.011403,-0.0094154,-0.01029,-0.0092277,-0.0061704,-0.0043114,-0.0080223,-0.011492,-0.0082112,-0.0065432,-0.011394,-0.013698,-0.015489,-0.020427,-0.018774,-0.017033,-0.018628,-0.014698,-0.0082074,0.0013546,0.0078371,0.00038413,-0.0089471,-0.0067206,0.00091573,0.0078091,0.011963,0.016081,0.022347,0.021592,0.013158,0.0053802,-0.00070981,-0.0061243,-0.0066797,0.0020121,0.0089803,0.0075883,0.0084667,0.012246,0.015184,0.014767,0.012904,0.010797,0.0020623,-0.0084791,-0.017331,-0.024014,-0.020328,-0.012824,-0.01007,-0.0071473,-0.0033705,-0.0037046,-0.0070671,-0.006913,-0.006099,-0.0078803,-0.0084859,-0.0053597,-0.0064294,-0.011941,-0.015329,-0.016934,-0.015276,-0.010858,-0.0045453,0.0047529,0.013661,0.014391,0.008445,0.0047078,0.006299,0.013012,0.021007,0.025845,0.021021,0.0072969,0.0017564,0.0038586,0.0026428,0.0015914,0.0058917,0.011039,0.0081048,0.0015645,-0.0015368,-0.0047292,-0.0092918,-0.012562,-0.011443,-0.0043714,0.0061508,0.015864,0.019346,0.016221,0.015595,0.019923,0.019539,0.012864,0.0020397,-0.005905,-0.0082027,-0.0092191,-0.0095604,-0.0098242,-0.009333,-0.0046679,0.0018928,0.0067913,0.010066,0.010663,0.011282,0.0093888,0.0053812,0.0044464,0.0075732,0.011274,0.0098642,0.0082495,0.010098,0.0070063,0.0013948,-0.0006726,-0.0039935,-0.0057268,-0.0049582,-0.0089087,-0.012164,-0.011604,-0.0077697,-0.0017836,0.0050409,0.0057521,0.0016043,0.0013612,0.005303,0.0094552,0.01025,0.0064333,0.0034775,0.00037587,-0.0024281,-0.0033259,-0.0077681,-0.01195,-0.012735,-0.0036902,0.0068351,0.0033087,-0.0043198,-0.0086028,-0.0099546,-0.0020111,0.010689,0.010608,0.0034413,-0.00086516,-0.0010361,0.0029994,0.0082814,0.0054106,-0.0052392,-0.0096491,-0.0068714,-0.0052771,-0.0073879,-0.014194,-0.015347,-0.0084373,0.00013134,0.0090145,0.012279,0.0019164,-0.0080155,-0.0079779,-0.0059043,-0.0020973,0.0049001,0.012692,0.013735,0.012415,0.011801,0.0034006,-0.0088737,-0.015916,-0.012167,-0.0026526,0.0013762,-0.002199,-0.0036867,2.6409e-05,0.0020981,-0.0024571,-0.007703,-0.00010975,0.0086935,0.0086001,0.0096729,0.0096102,0.0039515,0.0014715,0.0010201,-0.00041505,0.0011621,0.00045425,-0.0032045,-0.0036408,-0.002635,2.2749e-06,0.005443,0.0096979,0.0071403,9.2458e-05,-0.0040707,0.003362,0.014052,0.013379,0.012783,0.019486,0.020558,0.017649,0.016486,0.0094747,0.0025857,0.0034489,0.0086454,0.012407,0.01467,0.012036,0.0065133,0.0046926,0.0013993,-0.0016264,-0.0065328,-0.010085,-0.012501,-0.0157,-0.012408,-0.0056023,-0.0045466,-0.0033171,0.00071076,0.0011475,0.00052485,0.00033296,0.00163,-0.00023836,-0.010144,-0.015182,-0.012439,-0.01228,-0.0124,-0.0083165,-0.0054791,-0.0058636,-0.004352,-0.0034032,-0.0073176,-0.011428,-0.0084123,-0.002243,0.00050786,-0.00035877,-0.0027601,-0.0019155,0.0053859,0.011147,0.013024,0.0083627,6.6248e-05,-0.0045231,-0.008258,-0.012188,-0.015191,-0.012651,-0.0079991,-0.0051347,0.00081913,0.0059495,0.0045692,-0.00060947,-0.0036807,-0.00046213,0.0012829,-0.0032482,-0.0051314,-0.0035705,-0.0076654,-0.010505,-0.0040593,-0.0021423,-0.0078597,-0.0127,-0.015869,-0.016306,-0.013611,-0.0056314,0.0076186,0.018727,0.024263,0.022967,0.015746,0.0097984,0.0060243,0.0022758,-0.0020021,-0.0017616,-0.0038908,-0.008627,-0.0082544,-0.0041119,0.0010712,0.0021747,0.0015906,0.0069685,0.0099777,0.0049763,0.0012776,-0.0070252,-0.0216,-0.028387,-0.031117,-0.023524,-0.0080411,-0.00097432,0.0021917,0.0068237,0.0015271,-0.011767,-0.01405,-0.0052232,0.0070893,0.013315,0.014145,0.014678,0.010602,0.0044957,-0.0016564,-0.0097176,-0.024399,-0.033971,-0.029404,-0.016045,-0.0044411,-0.00027226,0.0025374,0.0066126,0.013554,0.017842,0.017211,0.016943,0.017623,0.017428,0.016538,0.01677,0.01118,0.0025513,-0.0023756,-0.0037643,-0.0031948,-0.0034065,-0.0060215,-0.016595,-0.030783,-0.035533,-0.024671,-0.0099191,-0.0028786,-0.0035834,-0.0013918,0.0051426,0.010292,0.01416,0.014436,0.0094142,0.00081407,-0.00063559,0.0024469,0.00033475,-0.003087,-0.0044227,-0.0040976,-0.0025144,-0.00061858,-0.0033274,-0.011163,-0.016611,-0.011775,-0.0013322,0.0067087,0.010057,0.0080959,0.0030908,-0.0031095,-0.0056399,-0.0022356,-0.00012014,0.0018217,0.0059015,0.008088,0.0041925,-0.0018511,-0.0012458,-0.0039217,-0.0074031,-0.0048956,0.0019543,0.0050243,7.2623e-05,-0.0040675,-0.0023045,0.00078468,0.0053384,0.014506,0.017921,0.011953,0.0041269,-0.0059181,-0.012967,-0.011807,-0.0051523,0.0014972,0.0046826,0.0025665,-0.00036503,0.0015932,0.0066263,0.011052,0.0086892,0.0046164,0.0042473,0.0042688,0.0025105,-0.00014615,-0.0087061,-0.019226,-0.019393,-0.010321,-0.005507,-0.011728,-0.013333,-0.0063563,0.00011771,0.0042314,0.0065122,0.0025589,-0.0014197,-0.0050398,-0.014469,-0.015145,-0.0078908,-0.0016702,0.0032317,0.0033106,-0.0041855,-0.015012,-0.024001,-0.024629,-0.011572,0.0036317,0.014281,0.020296,0.015686,0.0043609,-0.0014478,0.0044176,0.012718,0.012588,0.010677,0.014392,0.015406,0.0095269,0.0027766,0.0011048,0.0043394,0.010782,0.015531,0.020092,0.023149,0.015564,0.0034239,-0.0051592,-0.0097144,-0.010648,-0.012433,-0.010501,-0.0083375,-0.011689,-0.010048,-0.0050758,-0.004903,-0.0065155,-0.0038411,0.0044617,0.013707,0.014833,0.010413,0.0047324,-0.0036443,-0.00997,-0.0098294,-0.010992,-0.013344,-0.01318,-0.0076472,0.0033006,0.0048645,0.0010267,0.002516,0.001937,0.0047945,0.016188,0.022939,0.018317,0.010486,0.0042022,0.00044773,-0.0019989,-0.002249,-0.0021542,-0.0021024,0.0057447,0.012883,0.013421,0.011303,0.005752,0.001759,0.0045127,0.0012357,-0.010213,-0.015614,-0.013401,-0.0077046,-0.001377,0.0015295,-0.002358,-0.006218,-0.0073082,-0.010619,-0.0095462,-0.001969,0.00096895,0.0048495,0.0096926,0.009856,0.0069771,6.2383e-06,-0.0052008,-0.0099476,-0.012682,-0.0082894,-0.003059,-0.004333,-0.012128,-0.010611,-0.00034609,0.0053038,0.0040253,0.0019461,0.0021974,0.0015102,0.0050718,0.0086019,0.0060312,0.00099203,0.0018916,0.011295,0.01322,0.0082629,-4.1878e-06,-0.0082661,-0.013705,-0.014111,-0.0093548,-0.0059191,-0.0065358,-0.014098,-0.020919,-0.022783,-0.016486,-0.0015101,0.0091111,0.010188,0.0087634,0.0065798,0.0054021,0.0049266,0.0035533,0.00084378,-0.0042563,-0.0042636,-0.0016078,-0.00017872,0.0057995,0.013592,0.018164,0.01734,0.0091287,0.0031491,0.0078108,0.0062168,-0.0017327,-0.0029574,0.0014782,0.0063281,0.012227,0.019628,0.016897,0.010279,0.0062272,0.00071889,-0.006646,-0.013633,-0.013999,-0.01365,-0.019544,-0.029021,-0.03251,-0.027325,-0.025232,-0.026878,-0.024218,-0.017689,-0.018079,-0.02248,-0.021536,-0.016467,-0.0064728,0.0023077,0.0061107,0.0081197,0.010469,0.01151,0.01563,0.017229,0.010861,0.006122,0.0057119,0.0044817,-0.0040264,-0.013455,-0.015634,-0.016716,-0.016936,-0.0075491,0.010356,0.019888,0.015941,0.012724,0.012769,0.012449,0.016084,0.019758,0.017808,0.012912,0.0071508,0.0049906,0.0041465,-0.0043932,-0.011998,-0.0094648,-0.0063826,-0.0022896,0.004309,0.0076437,0.0091527,0.010245,0.010858,0.0073013,-0.0015439,-0.0080901,-0.0064194,-0.0073446,-0.011605,-0.0096219,-0.0063355,-0.0039962,0.0018649,0.0028681,-0.00099808,-0.0038419,-0.0064476,-0.0076147,-0.0031752,0.0076195,0.02025,0.026157,0.025823,0.024032,0.018555,0.010126,0.0052077,-0.00042411,-0.0063692,-0.013572,-0.018786,-0.016339,-0.0093051,-0.0036481,-0.0017746,-0.0013108,-0.0048223,-0.0083796,-0.0088957,-0.010365,-0.018646,-0.022663,-0.016959,-0.011786,-0.013496,-0.014787,-0.01144,-0.010365,-0.0074668,0.00013892,0.0045635,0.0029068,0.0029618,0.004837,0.00536,0.00095461,-0.0094178,-0.018601,-0.020364,-0.012015,0.0014079,0.0089205,0.012115,0.010661,0.0029207,-0.0052888,-0.012638,-0.016172,-0.013634,-0.0084038,-0.0069433,-0.003213,-0.0020425,-0.0051206,0.0016069,0.0094512,0.0072068,0.00039318,-0.0023575,-0.0033256,-0.0068184,-0.014114,-0.014293,-0.010012,-0.016153,-0.017026,-0.011606,-0.011153,-0.0071698,0.004681,0.017072,0.025439,0.027362,0.024273,0.021731,0.017241,0.014703,0.015745,0.015323,0.0097218,0.0039533,-0.002382,-0.0085227,-0.0093811,-0.015887,-0.030491,-0.035984,-0.024968,-0.010834,0.0034859,0.015988,0.020182,0.01681,0.012928,0.019525,0.023877,0.020704,0.015438,0.0089742,0.0010974,-0.0049377,-0.0039233,-0.0025445,-0.0062223,-0.0068037,-0.0025437,-0.003075,-0.010619,-0.011043,-0.0050021,-0.004655,-0.0049961,-0.00087298,0.0024192,-0.0032643,-0.0085473,-0.0055443,4.3859e-05,0.0057487,0.011488,0.0082769,0.00092014,0.00067184,0.0034791,0.00098371,0.00030356,-0.0010057,-0.0070138,-0.0097206,-0.0067518,0.0038498,0.0085431,0.0038851,0.0061616,0.012023,0.010704,0.0095402,0.0073048,0.00052952,-0.0017542,-0.0044796,-0.0064003,-0.011486,-0.023054,-0.027784,-0.021557,-0.012315,-0.005257,-0.0022506,-0.0069949,-0.011807,-0.0091651,-0.0025801,0.0043085,0.0051716,0.0023643,0.0033388,0.0054388,0.0052734,0.0074854,0.0061446,0.0013302,-0.003284,0.00012367,0.010394,0.0086846,-0.0042087,-0.0098018,-0.0098277,-0.0077976,-0.0021464,-0.0037251,-0.0083234,-0.0086721,-0.0064997,-0.00062313,0.0038357,0.0039331,0.0047828,0.0034037,0.0037991,0.0067358,0.0046649,-0.0047472,-0.0094592,-0.0058281,-0.0028497,-0.0068225,-0.013351,-0.0081429,-0.0035337,-0.0077653,-0.0058655,0.0013637,0.0058951,0.0028543,-0.0032297,-0.0066308,-0.0023945,0.0009583,0.0029206,0.0084913,0.0078065,0.002859,0.0033429,0.0054237,0.0034067,0.0046463,0.0057629,0.0041838,0.005925,0.003728,-0.0039409,-0.0093749,-0.0062855,0.0077213,0.020404,0.023448,0.021596,0.015006,0.0075082,0.0020038,0.00035776,0.00079387,-0.00033979,-0.0020834,-0.0068345,-0.0090961,-0.010824,-0.010118,-0.0040435,0.003588,0.0046638,0.0018824,0.0019662,-0.00056231,-0.006289,-0.0066113,0.0022003,0.0069882,0.001521,-0.002358,-9.3966e-05,0.00057322,-0.0017811,-0.0045082,-0.0039158,0.00061107,0.0052563,0.013945,0.015438,0.0039609,-0.0065611,-0.0091633,-0.0118,-0.012146,-0.0055237,8.4333e-05,0.0056315,0.0097242,0.011982,0.017254,0.021622,0.023266,0.023899,0.021905,0.019667,0.01333,0.00088812,-0.010595,-0.013358,-0.0061731,-0.0055368,-0.011885,-0.013693,-0.017036,-0.019129,-0.015741,-0.0081747,0.0014991,0.0033784,0.00073958,0.00084355,0.002221,0.0013631,0.0021694,0.003733,0.001944,0.0009902,0.0047107,0.0084071,0.0087322,0.0085187,0.0023339,-0.0026096,-0.0051705,-0.0067981,-0.0053784,-0.0088228,-0.0098304,-0.0077034,-0.007736,-0.0047012,0.0038786,0.0086837,0.013095,0.013759,-0.00044876,-0.0087698,-0.0033278,0.0013296,-0.0012024,-0.0039569,-0.0034177,-0.0050586,-0.014822,-0.021465,-0.020222,-0.02279,-0.021515,-0.010957,-0.0039347,-0.0049259,-0.0071245,-0.010178,-0.010637,-0.0088282,-0.0037218,0.010569,0.019223,0.019508,0.019022,0.019542,0.014408,0.0091011,0.0076527,0.0011145,-0.0062464,-0.0048243,0.0016189,-0.0012441,-0.0071488,-0.0068523,-0.0031117,0.0024267,0.0091595,0.0097825,0.0078218,0.012088,0.019974,0.028229,0.027998,0.02244,0.019536,0.010042,-0.0069466,-0.017795,-0.021509,-0.021216,-0.022447,-0.023462,-0.015879,-0.0076879,-0.0026216,0.002974,0.001985,-9.0891e-05,0.0054257,0.012774,0.013126,0.0073355,0.0024699,0.0013653,0.00058693,-0.0036274,-0.00475,-0.0047399,-0.0077562,-0.0054265,-0.0071694,-0.022345,-0.031835,-0.029584,-0.025302,-0.015462,-0.0023772,-0.0010443,-0.0061535,-0.0029306,0.0035615,0.010921,0.020342,0.02623,0.028024,0.02195,0.010748,0.0062182,0.0074094,0.0063584,0.0030424,0.007043,0.011391,0.0076078,-0.0024529,-0.009025,-0.012088,-0.012483,-0.0069994,-0.0021071,0.00087973,0.0036481,0.011473,0.018504,0.019083,0.018937,0.017167,0.01078,0.0040076,0.0016126,0.0012215,-0.00076743,-0.0052579,-0.0099372,-0.01472,-0.017297,-0.013701,-0.0072954,-0.009158,-0.016153,-0.018998,-0.013825,-0.0071694,-0.0057529,-0.0052171,-0.0040691,0.0019488,0.0079255,0.0051673,-0.00033063,-0.00071591,0.0016022,0.0019753,0.0043202,0.006388,0.0030607,-0.0010184,-0.0066958,-0.0096207,-0.0061896,-0.0015708,0.00096532,0.0034459,0.0063936,0.0092578,0.015239,0.018693,0.015931,0.015603,0.010382,-0.0017516,-0.0062708,-0.0041859,-0.0050646,-0.0070499,-0.0027884,0.0011469,0.00015534,-0.00020814,0.0038497,0.014462,0.02111,0.018351,0.013897,0.013002,0.012593,0.0057964,-0.0044452,-0.01072,-0.016987,-0.017302,-0.012945,-0.008366,0.0016795,0.0090471,0.0084037,0.0014653,-0.0049722,-0.0057112,-0.0020789,0.0058402,0.013328,0.0082612,-0.0061989,-0.016682,-0.021081,-0.023527,-0.022621,-0.017457,-0.0085566,-6.2497e-05,0.0022348,-0.001921,-0.0052096,-0.0091773,-0.0091195,-0.0036744,-0.00064836,3.2946e-05,0.0019923,0.0020576,-0.0031469,-0.007862,-0.0031828,0.0041994,0.0068767,0.010095,0.015191,0.019491,0.024055,0.027279,0.025108,0.019011,0.0081452,-0.0066166,-0.0084995,-0.00080954,-0.0020758,-0.0076225,-0.0097528,-0.01469,-0.019578,-0.020451,-0.018664,-0.014585,-0.013891,-0.014324,-0.0069694,0.0006673,0.0015374,0.003176,0.007069,0.0079051,0.0088407,0.011526,0.0096542,0.0011135,-0.014388,-0.021785,-0.014231,-0.0046195,0.0046698,0.0078993,0.0058714,0.0070244,0.010663,0.015793,0.01673,0.0097303,0.003473,0.0055616,0.008258,0.0089772,0.007278,-0.0024208,-0.010638,-0.0086231,-0.0058541,-0.010889,-0.015888,-0.015978,-0.014345,-0.015607,-0.012839,-0.0097988,-0.012661,-0.01686,-0.015298,-0.0078538,-0.0018087,-0.0026886,-0.0085458,-0.011497,-0.012259,-0.0036318,0.005388,-0.0014992,-0.0038658,0.0069878,0.0090096,0.008391,0.012549,0.014214,0.011649,0.0062587,0.0083607,0.014575,0.017039,0.013045,0.0075632,0.0029149,-0.0027029,-0.0047646,-0.0071896,-0.011306,-0.011305,-0.0088312,-0.0020754,0.0059248,0.007902,0.01337,0.021024,0.019862,0.018477,0.015741,0.0027094,-0.012127,-0.012104,-0.001752,0.0043824,0.0051947,0.0034275,-0.0033189,-0.0071268,-0.0072944,-0.0075057,-0.010096,-0.014239,-0.010446,-0.0051387,-0.00054456,0.0038576,0.0049638,0.004185,0.00557,0.0055708,-0.003456,-0.013225,-0.015394,-0.014972,-0.013133,-0.010083,-0.0065404,-0.00013798,0.0069694,0.010359,0.0087108,0.010029,0.013823,0.016837,0.017257,0.013396,0.0082514,0.0010744,-0.0054292,-0.013708,-0.022001,-0.0213,-0.012407,-0.0047197,0.00033313,0.0019422,-0.0017925,-0.0029885,-0.003457,-0.0032029,-0.0048714,-0.0072731,-0.0053088,-0.0040339,-0.010144,-0.019759,-0.01846,-0.0081191,0.0027431,0.0058092,0.0054157,0.0069512,0.0080755,0.003308,-0.00034472,0.0063872,0.013566,0.019024,0.024075,0.02119,0.01205,0.0046082,-0.0029298,-0.0071637,-0.006096,-0.0051884,-0.0019395,0.0061059,0.010186,0.0065518,0.001465,-0.0011801,-0.0035195,-0.0049481,-0.0030815,-0.0012403,0.00032166,0.0020904,0.0059456,0.008681,0.0079798,0.0048023,-0.0025604,-0.0050853,-0.0046392,-0.0046301,-0.0029682,0.00098432,0.0036586,-0.00086104,-0.0097883,-0.01506,-0.01662,-0.014389,-0.0076556,0.0015633,0.008686,0.010938,0.012923,0.010992,0.0084703,0.0063053,0.0029535,-0.0017904,-0.0052524,-0.0014071,0.0025532,0.0021138,-0.00056916,-0.0030553,-0.0098896,-0.013249,-0.006893,-0.001346,0.0070397,0.012883,0.011368,0.0077307,0.0078702,0.013164,0.013007,0.0093687,0.0060709,0.0014865,0.00073902,0.0019277,0.00040613,-0.0030619,-0.010403,-0.01225,-0.0029556,0.0035423,-0.00029133,-0.0051284,-0.0052051,-0.0031471,0.00075785,0.0033976,-0.0006157,-0.0038823,0.002015,0.011036,0.015267,0.012954,0.011015,0.0091924,0.0029845,-0.0038529,-0.0050944,-0.0093582,-0.018007,-0.019004,-0.0066959,0.0064528,0.012706,0.019795,0.026178,0.027596,0.017355,0.0046423,0.00013478,0.0019935,0.00436,0.0077957,0.012943,0.012656,0.0063226,-0.0025851,-0.0080849,-0.0052588,0.00046535,0.0021045,0.00095531,-0.0031742,-0.0062549,-0.0044776,-0.0027436,0.0015217,0.0087839,0.0091347,0.006075,0.0036721,-0.0016444,-0.0040406,-0.0041459,-0.002036,0.0064248,0.011021,0.0047632,-0.001256,-0.00023518,0.00035646,-0.0020554,-0.0077109,-0.012331,-0.014156,-0.012017,-0.0032876,0.010005,0.01325,0.0027037,-0.0084603,-0.011909,-0.0039648,-0.00023481,-0.0078964,-0.015693,-0.014873,-0.009135,-0.0055743,-0.0029536,-0.0022203,0.00078716,0.0074733,0.010773,0.0030484,-0.0073348,-0.0075354,-0.004212,-0.0018184,0.0050949,0.012858,0.010102,0.0035105,0.003857,0.0065813,0.0081306,0.0085706,0.0075187,0.0043759,-0.00030623,0.0015818,0.0090103,0.010086,0.0056204,0.004266,0.0054147,0.00082661,-0.0099878,-0.015602,-0.018011,-0.0164,-0.005948,0.0001068,-0.0021856,-0.0087034,-0.0098779,-0.0065975,-0.0077801,-0.012039,-0.012047,-0.011707,-0.01552,-0.012064,-0.0079099,-0.010393,-0.017168,-0.01559,-0.0057819,-0.00091261,0.00066241,0.00051783,-0.002487,-0.0083092,-0.011872,-0.0086904,-0.0032262,-0.0036653,-0.003947,0.0027864,0.0060087,0.005508,0.0047952,-0.00099596,-0.006451,-0.001155,0.009628,0.011206,0.0063996,0.0015477,0.0026266,0.0077477,0.012738,0.011238,0.00028704,-0.010665,-0.011467,-0.0025835,0.0042213,0.012067,0.022263,0.022914,0.018731,0.015935,0.0066847,-0.0060605,-0.012405,-0.013634,-0.011598,-0.005589,-0.0036645,-0.0069155,-0.010516,-0.011096,-0.0082505,-0.0041744,-0.0032614,-0.0015593,0.0049324,0.011305,0.016501,0.016654,0.01566,0.018369,0.016635,0.012458,0.0099023,0.0031858,-0.0053729,-0.0071425,-0.0048413,1.3178e-05,0.0067722,0.0093978,0.0074873,0.0081143,0.0075743,0.0037218,0.0013348,-0.0012488,-0.0042283,-0.0027686,0.0038654,0.0060405,-0.0021246,-0.012928,-0.017526,-0.014042,-0.0018041,0.0061961,0.00087784,-0.0038731,0.00011948,0.0068611,0.013447,0.012949,0.0065343,0.0068989,0.0093015,0.0088367,0.0079784,0.0056469,0.0023463,-0.0039604,-0.0097612,-0.0095479,-0.0094892,-0.012624,-0.013167,-0.012385,-0.0090446,-0.0014995,0.0014497,-0.00086212,-0.0036525,-0.0052189,-0.006293,-0.004812,-0.0020076,-0.0014688,0.00087122,0.0061419,0.014746,0.018878,0.014143,0.0081827,0.0040286,-0.00049118,-0.005885,-0.012175,-0.012223,-0.0038775,0.0036397,0.0056546,0.0046929,0.0043156,0.0030894,0.0032114,0.001622,0.002348,0.008036,0.010282,0.011799,0.016696,0.02156,0.023167,0.018776,0.011429,0.0077775,0.0068473,0.0060428,0.0070846,0.0080271,0.0095199,0.011039,0.010694,0.010921,0.0068657,-0.0021519,-0.012052,-0.017912,-0.015762,-0.012717,-0.0088827,-0.0026479,0.0029914,0.0066812,0.0086331,0.004155,-0.001583,-0.0036593,-0.0062159,-0.0096681,-0.011253,-0.0090084,-0.0083692,-0.013486,-0.01864,-0.013699,-0.0049316,-0.0013182,0.00035532,0.0041211,0.0066739,0.0092879,0.010117,0.0086993,0.0083958,0.0037307,-0.0051915,-0.0081902,-0.007566,-0.0084876,-0.0067829,-0.0034143,-0.0051153,-0.0021278,0.0042395,0.0033179,0.0037545,0.0068777,0.0096886,0.010274,0.010119,0.008268,0.004317,-0.0017593,-0.0094531,-0.011154,-0.008637,-0.0061256,-0.00076889,0.006855,0.0045516,-0.00027846,0.0047493,0.0073765,0.0019904,-0.0061382,-0.011834,-0.011449,-0.0079342,-0.0015957,0.0059921,0.0072545,0.0030522,0.0046262,0.0093623,0.010265,0.0078406,0.0056825,0.0017512,-0.0018692,0.00021837,0.0013005,-0.0021548,-0.0075625,-0.010294,-0.0063712,-0.0012266,-0.0025871,-0.0075471,-0.012009,-0.0145,-0.01239,-0.0090287,-0.0081939,-0.0058823,-0.001932,0.0010846,0.0056874,0.010982,0.012649,0.0092834,0.003082,-0.00061233,0.0015701,0.0050758,0.0085495,0.010081,0.0061941,0.0045317,0.0049957,0.0013468,-0.0066975,-0.014525,-0.01671,-0.012182,-0.0098191,-0.012989,-0.012249,-0.0032117,0.0038387,0.0048119,0.0037973,0.0031283,0.0036191,0.00018547,-0.0021503,-0.0064916,-0.012118,-0.011615,-0.010693,-0.0077123,-0.0044907,-0.0034549,-0.0020244,-0.0020297,-0.0037756,-0.0067136,-0.0067167,-0.0014159,0.0047675,0.0065445,0.0089117,0.013026,0.014417,0.01234,0.0088493,0.0078703,0.0063897,0.0040961,0.0039039,0.0069113,0.0084893,0.0083166,0.0091239,0.0091928,0.0079214,0.006514,0.0026185,9.5818e-05,-0.0014754,-0.0019679,0.00052089,0.00019093,-0.0037526,-0.0064494,-0.0072007,-0.006263,0.00064014,0.0047678,0.0020846,-0.00044933,-0.0001903,0.0021176,0.0054709,0.0082036,0.0098023,0.0087452,0.0066314,0.0076872,0.0087341,0.0075578,0.0029269,-0.0022164,-0.0024832,-7.4335e-05,0.0026302,0.0024342,-0.0021659,-0.0053358,-0.0054975,-0.0081556,-0.0096953,-0.0045057,-0.0034261,-0.0062957,-0.0049903,-0.002764,-0.002463,-0.0043772,-0.0031671,0.0041965,0.0076557,0.0050234,0.0049194,0.0057198,0.0031885,0.0013431,0.0035008,0.004612,0.0025892,-0.00021089,-0.0044556,-0.010339,-0.016948,-0.017131,-0.012124,-0.010882,-0.011741,-0.01014,-0.010095,-0.010254,-0.0077328,-0.0028492,0.0033294,0.0045581,0.00029252,-0.0032524,-0.0041568,-0.0051604,-0.0054428,-0.0062175,-0.0075363,-0.0053575,-0.0014027,-0.0017655,-0.0058556,-0.008261,-0.0069094,-0.0038639,0.0009289,0.0062909,0.0079048,0.0085963,0.0072447,0.0048861,0.0023633,-0.0021378,-0.0052387,-0.0032563,0.0015821,0.0063617,0.0090036,0.010298,0.010745,0.010571,0.011047,0.0096313,0.0061038,0.0034016,0.0052193,0.0048077,0.0017244,-0.00051769,-0.0020467,-0.0020264,-0.0012557,0.0013869,0.0012478,-0.00063342,0.00064713,0.0068408,0.01155,0.0079582,0.0034728,-0.0024952,-0.0083451,-0.0079651,-0.0029846,0.0031776,0.0076607,0.0071021,0.0046053,0.0027656,-0.0018732,-0.0072576,-0.0087289,-0.0070739,-0.0046032,-0.0021491,-0.00021032,0.0020167,0.0046779,0.0079354,0.0093505,0.008508,0.0059936,0.0029212,0.0033349,0.0033375,0.0018036,0.0028865,0.0038759,0.0030088,0.0031461,0.0050896,0.0056237,0.0037445,0.0044626,0.0043173,0.0020677,-0.0021803,-0.0066418,-0.0057002,7.8577e-05,0.0040546,0.003744,0.0016191,-0.00058261,-0.0014776,-0.0010581,-0.0029754,-0.0031071,-0.00079875,-0.0022477,-0.0081522,-0.01273,-0.01568,-0.016275,-0.012376,-0.007172,-0.0024764,-0.00028448,-0.0010338,-0.0035372,-0.0074418,-0.0096117,-0.0076914,-0.0086284,-0.011318,-0.011261,-0.01034,-0.0093765,-0.0061362,-0.0037529,-0.0024029,0.0025792,0.0055507,0.0034236,0.0013383,5.0242e-05,-0.0033498,-0.0067037,-0.0090143,-0.0093887,-0.01011,-0.012844,-0.013932,-0.015605,-0.018101,-0.016051,-0.013744,-0.012477,-0.0077576,-0.0013578,0.0031388,0.0051772,0.0083943,0.012284,0.014353,0.015178,0.016074,0.016376,0.012822,0.0033353,-0.006343,-0.0062558,-0.0030792,-0.0024491,-0.0012269,0.00043296,0.00017031,-0.0026456,-0.0045391,-0.0035556,-0.0029033,-0.0045773,-0.004984,-0.0046882,-0.0060374,-0.0059032,-0.0027301,0.001574,0.0046626,0.0081785,0.010916,0.010797,0.01006,0.0064117,0.00095288,0.00067118,0.0024836,0.0035885,0.0057518,0.0078492,0.010512,0.011719,0.0073274,-0.0030927,-0.0098452,-0.011766,-0.011307,-0.0056399,-0.0013295,-0.0019402,-0.0018071,0.0010885,0.0052067,0.011424,0.015423,0.012613,0.006722,0.0036733,0.0020251,0.00033287,0.0027037,0.0080705,0.013262,0.016002,0.016573,0.012146,0.0044935,0.0014417,0.0021725,0.0012056,-0.0014305,-0.0024711,-0.00083655,0.00081109,0.00079002,-0.00051965,-0.0011296,-0.00067053,0.0034461,0.0078287,0.00445,-0.00062276,-0.0018352,0.00065102,0.0033016,0.0034022,0.0022937,0.0016557,-0.0012364,-0.0060747,-0.0067942,-0.0054734,-0.0069338,-0.0081213,-0.0065727,-0.0057407,-0.0098399,-0.016218,-0.01726,-0.0089314,-0.0030035,-0.0038428,-0.0057472,-0.0086235,-0.011003,-0.0098953,-0.0061053,-0.004953,-0.0065456,-0.0071112,-0.0054173,-0.0049937,-0.0058597,-0.0052206,-0.0044413,-0.0044715,-0.0039045,-0.00087702,-0.00059185,-0.0052142,-0.010101,-0.013689,-0.013681,-0.0083454,-0.00063598,0.0060765,0.011303,0.013314,0.009853,0.0083675,0.01016,0.0071966,0.00058819,-0.0048295,-0.0065468,-0.0022958,0.0030179,0.0046361,0.004149,0.0019496,0.00074894,0.0012759,-0.00081767,-0.0039547,-0.0047964,-0.0066296,-0.0080229,-0.0061982,-0.0058728,-0.005482,-0.002891,-0.00057375,0.0037661,0.0072379,0.0069424,0.0054736,0.0061808,0.0063846,0.004767,0.00067281,-0.0027221,-0.001227,-0.00010394,-0.0019852,-0.001939,0.0037356,0.0083705,0.0078811,0.0062353,0.0037938,-0.0013595,-0.0046678,-0.0038782,-0.00028495,0.0035826,0.002237,0.00083317,0.0037431,0.0038211,-0.00074997,-0.0012004,-0.00023876,5.7297e-05,0.0028996,0.0027519,6.1726e-05,0.0013215,0.0053168,0.010967,0.017985,0.017896,0.016022,0.016187,0.012508,0.0086797,0.0073797,0.0070322,0.0073816,0.0072171,0.0054536,0.0040811,0.0010792,-0.0048625,-0.0092465,-0.010517,-0.0076988,-0.0055664,-0.0094371,-0.014101,-0.014434,-0.012852,-0.011065,-0.0040912,0.003442,0.006008,0.0082126,0.010525,0.0088455,-0.00049283,-0.013267,-0.015443,-0.0076173,-0.00052696,0.0045967,0.0091595,0.0069925,-5.2939e-06,-0.001942,-0.0021429,-0.0063308,-0.011009,-0.01125,-0.0093492,-0.010434,-0.0113,-0.0082299,-0.002549,0.003296,0.0064096,0.006103,0.0012375,-0.0060182,-0.010653,-0.010251,-0.0070389,-0.0056586,-0.0049519,-0.0033505,-0.0026342,-0.0020857,-0.0032328,-0.0062596,-0.0080253,-0.0058473,-0.0036543,-0.0046378,-0.0063412,-0.0069707,-0.0068807,-0.0054338,0.00060692,0.0050037,0.0044283,0.0025606,0.0012351,0.001916,0.0018901,-0.0010361,-0.0018247,0.0014314,0.0029775,0.0042211,0.005046,0.0028102,0.0013269,-0.00060138,-0.0043999,-0.0016538,0.0063945,0.008432,0.0055714,0.0031579,0.0028232,0.0014519,-0.0013507,0.00043126,0.0040436,0.002553,-0.00019332,-0.0010934,-0.0022517,-0.0036996,-0.0045513,-0.0054717,-0.0038654,-0.0029146,-0.0048023,-0.0018697,0.0010854,0.0012669,0.0021886,0.00085754,-0.0019538,-0.00037686,0.00091519,-0.0020205,-0.0019129,-0.0017676,-0.001539,-0.00081603,-2.7598e-05,0.0018068,0.0039299,0.0041953,0.0035693,0.0082257,0.014615,0.016028,0.01628,0.019134,0.020083,0.018474,0.016703,0.012109,0.0085531,0.0072888,0.0089255,0.011872,0.0086098,0.0024453,-0.0011609,-0.0055318,-0.010728,-0.010892,-0.0083518,-0.0050662,-0.0018656,-0.00076822,-0.00067808,-0.0025789,-0.0061991,-0.0061801,-0.0016671,0.0024779,0.0047085,0.0038419,0.0016735,0.0013928,-0.0019295,-0.0071492,-0.0093333,-0.0093027,-0.0068927,-0.0045394,-0.0050608,-0.0078489,-0.0079056,-0.0046993,0.0017274,0.0083466,0.0096365,0.0093155,0.0096224,0.0099027,0.0071667,0.0032842,0.00020739,-0.0029016,-0.0036209,-0.0018259,0.0010354,0.0024961,0.0023079,-0.0017233,-0.0040967,-0.0018883,-0.0014384,-0.0016599,-0.0020607,-0.0060373,-0.0080318,-0.0040454,0.0021428,0.0070924,0.0086044,0.0077658,0.0069712,0.0033817,-0.0047619,-0.009959,-0.010411,-0.01009,-0.0077994,-0.008761,-0.012215,-0.0136,-0.011503,-0.0077864,-0.0067012,-0.0058418,-0.0035627,-0.0025671,-0.0020683,-0.0011168,-0.00050203,0.00064408,0.0039956,0.0094272,0.013785,0.013981,0.0087094,0.002852,0.00042338,-0.0014433,-0.0039218,-0.0044251,-0.003266,-0.0034252,-0.0036074,-0.0020682,-0.00023716,-0.0019755,-0.0051594,-0.0063295,-0.0039207,0.0020403,0.0068972,0.0084277,0.0081799,0.0064668,0.0042525,0.0075367,0.011578,0.012515,0.01131,0.0054896,-0.0008296,-0.0033904,-0.004105,-0.0032966,-0.0022467,-0.0057916,-0.011177,-0.013018,-0.011905,-0.0092212,-0.0043751,0.0025161,0.007821,0.010459,0.010834,0.010001,0.0080841,0.0060727,0.0075297,0.0095857,0.0077406,0.0048547,0.0021412,-0.00092953,-0.002844,-0.0009121,0.0029402,0.0076902,0.0097106,0.0095593,0.0065039,0.00012279,-0.004827,-0.0070173,-0.0067579,-0.0051457,-0.0014923,0.0012958,0.00039922,0.00027079,0.0018065,0.00062354,-0.0051911,-0.011875,-0.01449,-0.013002,-0.010073,-0.0072664,-0.0067617,-0.0092315,-0.0082444,-0.00017069,0.0068405,0.0057324,-0.00057563,-0.0070591,-0.011895,-0.011673,-0.0075536,-0.0015145,0.003644,0.0089447,0.013594,0.013977,0.0084763,0.0025139,0.0024649,0.0047269,0.007817,0.011153,0.0092899,0.0029913,-0.00073238,-0.00036352,0.00085973,0.0010026,-6.5621e-05,-0.0006735,-0.0025926,-0.0046433,-0.0056819,-0.0067999,-0.0059776,-0.001052,0.0035301,0.0044858,0.003417,-4.7219e-05,-0.0045011,-0.0066528,-0.010298,-0.014286,-0.016687,-0.018711,-0.018329,-0.014995,-0.011308,-0.0075456,-0.0032299,-0.0012296,-0.00079535,-0.0018909,-0.0035828,-0.004339,-0.0034088,-0.0010439,0.0027235,0.0086225,0.014701,0.01657,0.01215,0.0061337,0.003646,0.005043,0.0047631,0.0048602,0.0088129,0.0092002,0.0055809,0.0047145,0.0042672,0.003116,0.0033705,0.0053531,0.0060076,0.0050491,0.0015874,-0.0012396,-0.0013537,-0.0026015,-0.0030959,-0.00085586,0.0026925,0.0056869,0.0083223,0.009099,0.010076,0.01093,0.01089,0.008228,0.0026003,0.00084716,0.001681,-0.00024618,-0.0030031,-0.0010593,0.0027002,0.0010626,-0.0030882,-0.004055,-0.0030005,-0.00047314,0.002744,0.0034495,0.0025397,0.00026369,-0.0013427,-0.0010667,-0.00050131,0.0032766,0.0057338,0.0035702,-0.00049948,-0.0010773,3.5527e-05,-0.0020981,-0.003318,-0.0023152,-0.0024858,-0.0028928,-0.00095687,0.000458,0.00057194,0.00061713,0.00037712,0.0018651,0.0012341,-0.0023704,-0.0058403,-0.0061558,-0.0013421,0.0038488,0.0066899,0.0070674,0.006494,0.0042121,0.00073657,-0.0023075,-0.0050476,-0.0046139,-0.003157,-0.0015274,0.00086998,0.0020245,0.0010459,-0.0011998,-0.0019779,-0.0018115,-0.0016941,-0.0031772,-0.0067171,-0.0093546,-0.0070268,-0.0033394,-0.00026297,0.0041167,0.0063205,0.0056407,0.003653,1.9667e-05,-0.0038663,-0.0055571,-0.0082825,-0.0092426,-0.0066527,-0.0035908,0.0004348,0.0028042,0.0012339,0.00065084,0.0040549,0.0079047,0.0096781,0.01042,0.0079216,0.0014808,-0.0037424,-0.006948,-0.0074585,-0.0051137,-0.0030691,-0.0011105,0.0020861,0.0040811,0.0053411,0.0052204,0.0033806,0.0026713,0.0028794,0.0031362,0.0026434,0.0013622,0.0029645,0.0067883,0.0080431,0.0076486,0.00907,0.0054872,-0.0026094,-0.0075299,-0.010487,-0.012849,-0.012917,-0.012586,-0.011892,-0.0087283,-0.005056,-0.0020478,0.0012614,0.0020567,0.00085788,-0.00078487,-0.0047772,-0.0068597,-0.0049514,-0.0035233,-0.0022045,0.00099579,0.0028901,0.002499,0.002684,0.0019081,-0.001217,-0.0029615,-0.00043353,0.003336,0.0037656,0.0017263,0.0018831,0.0031863,0.0042139,0.0061364,0.0057273,0.00066242,-0.0025929,-0.0012269,-0.001412,-0.0027254,-0.002209,-0.00083038,0.00080318,0.0029633,0.0048665,0.0053588,0.0021746,-0.0036494,-0.0060632,-0.0070315,-0.0071327,-0.0058883,-0.0065157,-0.0098512,-0.0092264,-0.0041271,-0.0021898,-0.0015323,-0.0015189,0.00045063,0.0035808,0.0036249,0.00362,0.0037837,0.0015035,0.00034809,0.0029097,0.00378,-8.2205e-05,-0.0034423,-0.0054913,-0.0046267,-0.0010939,-0.0003687,-0.0014158,-0.0015243,-0.00099919,0.001636,0.0045511,0.0039386,0.0022702,0.0013053,-0.0029996,-0.0061779,-0.0049611,-0.0050454,-0.0052422,-0.0021582,0.00064801,0.0017254,0.0020516,3.1299e-05,-0.0019136,-0.0023663,-0.0030885,-0.0019832,0.00081704,0.0014938,0.00016658,-0.00072229,-9.7077e-06,0.0013454,0.0012242,-0.0032498,-0.0083379,-0.008412,-0.0020182,0.0046622,0.0041669,0.0014891,0.0020829,0.0023846,0.002667,0.0030878,0.00051213,-0.0039582,-0.0051634,-0.0013573,0.0037912,0.0054212,0.0047226,0.0055509,0.0068445,0.0060949,0.0054491,0.0056192,0.0050076,0.0050207,0.0061468,0.0080029,0.0092518,0.0086242,0.0059987,0.0035479,0.0036908,0.0027032,-0.00068211,-0.005085,-0.0060893,-0.0014667,0.0037175,0.0046737,0.0012254,-0.00053931,0.00028484,0.00024543,0.0011795,0.0014162,-0.00011009,0.001374,0.0060523,0.0079518,0.0071165,0.0045521,0.0014197,0.0012895,0.0036595,0.0062809,0.0045447,0.00010295,-0.0032245,-0.0041637,-0.0025506,-0.00073209,-0.00023727,0.00024011,0.0017652,0.00073492,4.9127e-05,0.0014429,-0.0027379,-0.0083808,-0.0075116,-0.0042371,-0.0023686,0.00019379,0.00082904,-0.00069216,-0.0021331,-0.0033215,-0.0027575,-0.00094008,0.00072344,0.0019329,0.0043558,0.004362,0.0026548,0.0026475,0.0028316,0.0039071,0.0044822,0.0030844,0.0004685,-0.0019366,-0.0027291,-0.0013673,-0.0013853,-0.0041201,-0.0047053,-0.0024695,-0.002172,-0.0042907,-0.0052864,-0.0049772,-0.0043074,-0.0020581,0.0018787,0.0053082,0.0068536,0.0055059,0.0039854,0.003564,0.0038119,0.0036965,0.0019991,3.8818e-05,-0.0020844,-0.003061,-0.00091045,0.0021514,0.0026147,0.00082729,-0.0019123,-0.0051412,-0.0071795,-0.0062303,-0.0035291,-0.0010223,0.0019885,0.0065516,0.01092,0.012515,0.0095415,0.0031842,-0.00019417,-0.0015014,-0.001991,-0.0001785,0.0016945,0.0029947,0.0045235,0.0038361,0.00073963,-0.0015885,-0.0021952,-0.0029011,-0.0010014,-0.00019137,-0.0029293,-0.0039451,-0.0025323,0.00035386,0.0039904,0.0051921,0.0025926,-5.5668e-05,-0.00094731,-0.00092749,-0.0036859,-0.0078363,-0.0065102,-0.0017184,0.0038945,0.0083397,0.008151,0.0046993,0.00049774,-0.0014503,-0.0020069,-0.0026971,-0.0034127,-0.0044771,-0.004773,-0.0039045,-0.0022625,-0.00049816,0.00078835,0.00099953,0.0017083,0.002257,0.0013023,0.00037384,0.0016668,0.0032948,0.0029824,0.0029129,0.0049943,0.0065114,0.0038274,-0.00073488,-0.0036655,-0.0023791,0.0016082,0.004077,0.0028907,5.3586e-05,-0.00037572,0.0011027,0.001493,0.00022466,-0.0030484,-0.0063295,-0.0067879,-0.0052234,-0.002884,-0.0017681,-0.00067453,0.0012392,0.002177,0.0040904,0.0051961,0.0033255,0.00069371,-0.0013767,-0.0014831,0.0014538,0.0037328,0.0037132,0.0032938,0.0029272,0.001951,7.081e-05,-0.001993,-0.0025422,-0.0020406,-0.0033057,-0.0057639,-0.006917,-0.0061989,-0.004804,-0.0048344,-0.0048573,-0.0029486,-0.0015465,-0.0024884,-0.003234,-0.0015977,0.00064597,0.0029852,0.0042533,0.0051601,0.0048285,0.0016792,-0.00045425,-0.0002671,-0.00075009,-0.001274,6.5308e-05,0.000193,0.00034285,0.00030653,-0.0010307,-0.0033822,-0.0043617,-0.0039338,-0.0045511,-0.0056521,-0.0047485,-0.0025051,-0.0030622,-0.0050205,-0.0062649,-0.0078352,-0.007864,-0.0062156,-0.0043559,-0.0020092,0.0012728,0.0037667,0.0028608,-0.00053343,-0.0024836,-0.0015361,-0.00014704,-0.00032042,-0.0014732,-0.0022297,-0.0039958,-0.0048207,-0.0027055,-0.00080321,-0.0023874,-0.0067392,-0.0098115,-0.0081298,-0.003339,0.0014543,0.0050613,0.00585,0.0037831,0.0024625,0.0011396,-0.00074504,-0.0029454,-0.0041371,-0.0018446,0.0016615,0.0037209,0.0020148,-0.0013881,-0.0022722,-0.00071002,-0.0015374,-0.0036803,-0.0045901,-0.0039199,-0.0023647,-0.0013788,-0.00043231,-0.00018192,-0.0019389,-0.0044109,-0.0046257,-0.0032093,-0.0014002,-0.00026827,0.0004376,0.0027055,0.0066973,0.0077329,0.0062297,0.0076789,0.010747,0.012229,0.012578,0.013217,0.013043,0.012054,0.010792,0.0077015,0.0029305,-0.0007402,-0.0023856,-0.0045096,-0.0049706,-0.0028042,0.0015882,0.0047637,0.0050543,0.0058406,0.0077684,0.0080719,0.0059766,0.0042752,0.0038115,0.0036862,0.0023303,0.00062719,-0.00097141,-0.0018921,-0.0012022,0.0022229,0.0063715,0.0079953,0.00919,0.0089247,0.0070381,0.0055338,0.0039023,0.003166,0.0017777,0.0011858,0.0041304,0.0069475,0.0077305,0.0082157,0.0039986,-0.0023235,-0.0030898,-0.0015803,-0.00073199,-0.00076808,-0.0021332,-0.0026328,0.0015688,0.0053979,0.005353,0.0039599,-0.00079038,-0.005988,-0.0090293,-0.012349,-0.017681,-0.022478,-0.023682,-0.021016,-0.017387,-0.015654,-0.013203,-0.0094574,-0.005992,-0.0043649,-0.0037302,-0.0014347,0.00075286,0.0013368,0.0022817,0.0062406,0.012181,0.01726,0.021365,0.025967,0.028327,0.026913,0.022097,0.014389,0.0075549,0.0035249,0.0030185,0.0063264,0.0093313,0.0076134,0.0042264,0.0013747,-0.0019383,-0.003722,-0.0045662,-0.0074771,-0.012172,-0.016645,-0.018933,-0.019067,-0.018854,-0.017678,-0.012529,-0.0054133,0.00066912,0.00225,-0.00096504,-0.0056293,-0.0089671,-0.011659,-0.011409,-0.0066604,-0.002113,0.0012474,0.0038367,0.0034077,0.00045079,-0.002346,-0.0026275,-0.001675,-0.0014367,-0.0015685,-0.00065971,0.0020851,0.005062,0.0072869,0.0089637,0.011807,0.015027,0.016686,0.016764,0.01455,0.0094943,0.0024786,-0.0023598,-0.0030074,-0.0037539,-0.0068216,-0.0082593,-0.0082395,-0.0078975,-0.0074562,-0.006767,-0.0039135,-0.00067716,0.00028316,-0.001558,-0.0042303,-0.0043058,-0.002545,-0.00030865,0.0002889,-0.00075557,-0.0022921,-0.0045512,-0.0065247,-0.0078554,-0.0066978,-0.0019171,0.0035243,0.0075499,0.010825,0.01289,0.012561,0.011552,0.0091002,0.0053484,0.001668,-0.0025229,-0.0047778,-0.0058338,-0.0066922,-0.0045337,0.00079846,0.0050243,0.0076297,0.0074925,0.005756,0.0049078,0.0018995,-0.0021541,-0.0065964,-0.011104,-0.013375,-0.01327,-0.012265,-0.010269,-0.0080442,-0.0064587,-0.0040313,-0.00072656,0.0025202,0.0027407,0.00025182,-0.0001284,0.0023342,0.0027817,0.00066861,-0.00065153,2.8038e-05,0.0023615,0.0042576,0.006257,0.0057814,0.0020769,-0.00099789,-0.0007937,0.001553,0.0039448,0.0045093,0.0044583,0.0061212,0.0077924,0.0063213,0.0028564,-0.0014534,-0.0057326,-0.0081142,-0.0089015,-0.01142,-0.013723,-0.014441,-0.013082,-0.0064215,0.0021456,0.0083972,0.0085355,0.003847,-0.001481,-0.0037652,-0.0039938,-0.0019507,0.0018474,0.0038802,0.006448,0.010113,0.012422,0.013796,0.01419,0.011444,0.0070932,0.0038024,0.00084426,-0.0015368,-0.0034322,-0.0050807,-0.0036776,-0.00072721,0.0012002,0.0034726,0.006528,0.0065495,0.0021674,-0.0043993,-0.0097182,-0.011083,-0.01074,-0.010159,-0.009245,-0.0083009,-0.0070159,-0.0062362,-0.0049464,-0.0047853,-0.0069271,-0.00879,-0.0080317,-0.0045688,-0.00065636,0.0017642,0.0044156,0.0073676,0.0098108,0.012472,0.013701,0.012391,0.0086037,0.0037567,-0.00031501,-0.0017007,-0.00079698,0.00057666,0.00094967,-0.0019144,-0.0057427,-0.0059234,-0.0051841,-0.004608,-0.0031648,-0.0019934,6.211e-05,0.004746,0.0092794,0.011282,0.012897,0.01427,0.01399,0.011556,0.0075832,0.0026422,-0.0014548,-0.0031227,-0.002171,-0.0001946,-0.0008783,-0.0026206,-0.0029391,-0.0030504,-0.0037906,-0.0041644,-0.0052799,-0.0072537,-0.0055301,1.3895e-06,0.0043207,0.005504,0.0066062,0.0083279,0.0090609,0.010086,0.010482,0.009091,0.0061361,0.0025624,0.0014163,0.003019,0.0044726,0.0061057,0.0084061,0.0095373,0.0089293,0.0070228,0.002997,-0.0024,-0.0066958,-0.0076629,-0.005259,-0.0017565,-0.00048246,-0.00076366,-0.0032603,-0.0080491,-0.011361,-0.011287,-0.008821,-0.0085238,-0.008365,-0.0057862,-0.0037603,-0.0024751,-0.00057595,0.00064762,0.00049814,0.00012917,-0.0014065,-0.0056141,-0.0093481,-0.0085712,-0.0055576,-0.0028224,-0.00028305,0.0031304,0.0066027,0.0080184,0.0079601,0.00537,0.0014986,-0.00056361,-0.0010812,-0.0029507,-0.0048534,-0.0045691,-0.0043845,-0.0059515,-0.0090248,-0.010214,-0.0056791,0.0034807,0.009888,0.0082653,-6.0462e-05,-0.0093779,-0.011982,-0.0071937,0.00042276,0.0049845,0.0051602,0.0036738,0.0027013,0.0015451,-0.00060651,-0.0017884,-0.0036318,-0.006601,-0.00764,-0.0054626,-0.00046543,0.0026829,0.0022304,0.00057176,0.0007685,0.0037513,0.0075224,0.010609,0.0097587,0.0060728,0.0040723,0.0060586,0.010937,0.014464,0.014677,0.013036,0.0099272,0.0069666,0.0065814,0.0072225,0.005252,0.00057243,-0.002625,-0.0016472,0.00052753,0.0012792,0.00038379,-0.0011698,-0.0023607,-0.0015898,0.00020311,-0.0018662,-0.00663,-0.0098124,-0.010377,-0.007877,-0.005161,-0.0030564,-0.00097365,-0.00019577,-0.0008555,-0.0024758,-0.0045937,-0.0053737,-0.0052253,-0.0076226,-0.010882,-0.011905,-0.013547,-0.014606,-0.012168,-0.0079976,-0.0023217,0.0022726,0.0039016,0.004017,0.0030533,5.9859e-05,-0.0023641,-0.0023503,-0.0021607,-0.0031831,-0.0049427,-0.0043911,-0.00086544,0.0035725,0.0098305,0.015926,0.017249,0.014436,0.011136,0.009187,0.010379,0.011822,0.0090379,0.0044091,0.00076845,-1.1044e-05,0.0014525,0.0032314,0.0023345,-6.72e-06,-0.0016603,-0.0036664,-0.0038729,-0.0031114,-0.0014523,0.0016221,0.0044031,0.0052497,0.0050959,0.0044951,0.0021629,1.9069e-05,-0.0010007,-0.00277,-0.0075919,-0.012264,-0.013131,-0.010035,-0.0044498,0.00054175,0.0048684,0.0077327,0.0084753,0.0085068,0.0091417,0.0085446,0.0059978,0.0034946,0.0031761,0.0065503,0.011142,0.01471,0.016937,0.017548,0.016229,0.012729,0.0079715,0.0024088,-0.0037829,-0.0073627,-0.0066332,-0.0044044,-0.0016464,0.0025874,0.0077302,0.010679,0.0083103,0.0016119,-0.0060072,-0.012262,-0.016119,-0.015116,-0.0086763,-0.0015592,0.0031268,0.0046292,0.0016055,-0.0036298,-0.0071876,-0.0094715,-0.010316,-0.010352,-0.011916,-0.013143,-0.013385,-0.013813,-0.014418,-0.013209,-0.011099,-0.0099957,-0.0092736,-0.011107,-0.013288,-0.012693,-0.010235,-0.0050102,0.0029207,0.0093223,0.011888,0.013655,0.015858,0.017384,0.017616,0.015867,0.011604,0.0049564,-0.0016885,-0.0046287,-0.0031384,-0.0013275,-0.0008881,0.001191,0.0039639,0.0057209,0.0068443,0.0062206,0.0039318,0.0013242,0.0015705,0.0045148,0.0060918,0.0052624,0.003018,0.00060354,-8.9632e-06,0.0019623,0.0037123,0.0044335,0.0051456,0.0071133,0.0086647,0.0082547,0.0065981,0.0046909,0.0029053,0.00091596,9.7685e-05,0.00073303,-0.00034423,-0.0031345,-0.0034064,-0.00079196,0.001958,0.0054513,0.0087528,0.0074844,0.0023518,-0.002443,-0.0040709,-0.0025247,0.00032772,0.0027476,0.0036659,0.0020704,-0.0024039,-0.006703,-0.008171,-0.0080082,-0.0069751,-0.0060555,-0.0069152,-0.0082996,-0.0070591,-0.0029477,0.00037632,0.0019816,0.0019083,-0.00066683,-0.0029511,-0.0030009,-0.0013141,-0.0012508,-0.0041533,-0.0064068,-0.0055752,-0.0029315,-0.00114,-0.00016826,-1.8213e-05,0.00042752,0.0018826,0.0032839,0.0035833,0.0025841,0.0013312,0.0010676,0.0038764,0.0075124,0.0088999,0.0088864,0.0075283,0.0051487,0.0037938,0.0039391,0.0037589,0.0015737,-0.0014712,-0.0034126,-0.0028748,-0.00028462,0.0018953,0.0032849,0.0033674,0.0013708,-0.00029178,0.0011242,0.0030281,0.0023533,-0.00034431,-0.0027858,-0.003355,-0.0028212,-0.0014928,0.00024784,0.0010766,0.00022219,-0.0005392,-0.0014011,-0.0036917,-0.00659,-0.0068234,-0.0051479,-0.0033887,-0.001279,0.0011425,0.0027437,0.0031531,0.0029859,0.0023845,0.0022306,0.0021782,0.0010075,-0.0012598,-0.0021699,-0.00014956,0.0033298,0.0060731,0.0064984,0.0061072,0.0053981,0.0042489,0.0037605,0.0029682,0.00083653,-0.0015185,-0.0034239,-0.0057215,-0.0080692,-0.0091287,-0.0081131,-0.0056657,-0.0033645,-0.0018735,-0.0011602,-0.00011471,0.00090987,0.0020541,0.0031644,0.0039629,0.0037899,0.0030212,0.0034017,0.0042063,0.0030002,0.0016307,0.0021168,0.0027069,0.0038384,0.0031332,0.00052124,-0.00079339,-0.0018982,-0.0040223,-0.0056761,-0.0081167,-0.010588,-0.010635,-0.0076451,-0.0039816,-0.00064751,0.0011546,-0.00077684,-0.0028482,-0.0021759,-0.0021812,-0.0027344,-0.0025151,-0.0020077,0.00020139,0.0018572,0.0026079,0.0051789,0.0083272,0.010104,0.010027,0.008702,0.0073154,0.0067438,0.0056752,0.0031744,-5.9575e-05,-0.0023643,-0.0042318,-0.0058906,-0.0054478,-0.0028292,0.00026433,0.0017309,0.0016576,0.0014197,0.0016351,0.0010517,0.00026896,-0.0010066,-0.0033377,-0.0058423,-0.0071414,-0.0079617,-0.0087397,-0.0085222,-0.0076241,-0.0062647,-0.0045055,-0.002247,-0.00098727,-0.0020919,-0.0025998,0.00045987,0.0042694,0.0055646,0.0052319,0.005259,0.007184,0.01017,0.012413,0.012892,0.011527,0.0097683,0.0086111,0.0085741,0.0092097,0.0091803,0.0056715,0.00039276,-0.0026988,-0.00070351,0.003581,0.0067207,0.0072687,0.0074885,0.0087775,0.010664,0.014033,0.013488,0.0092559,0.0047059,0.0018757,0.0029169,0.0062477,0.0087852,0.0072299,0.0051126,0.0051736,0.0053233,0.0016829,-0.0064565,-0.015508,-0.020183,-0.018146,-0.012951,-0.0094139,-0.0087373,-0.0098954,-0.010383,-0.0094579,-0.0077413,-0.0061902,-0.004844,-0.0042673,-0.003948,-0.0034228,-0.0030941,-0.00074981,0.0022038,0.0027755,0.0019809,0.00027392,-0.0016393,-0.0032455,-0.0047969,-0.0064346,-0.005018,0.00065885,0.0067268,0.0077393,0.0047718,0.00092718,-8.4905e-05,0.0027622,0.0040509,0.0034798,0.0016507,-0.00026684,-7.5997e-05,0.00020274,-0.00058091,-0.0018772,-0.0039124,-0.0061103,-0.0070226,-0.0063478,-0.0063201,-0.0058699,-0.0022516,0.0021525,0.0052013,0.0070251,0.0067901,0.0055647,0.0041849,0.0020306,-0.0014278,-0.0043921,-0.0050069,-0.0040609,-0.0021233,0.00085499,0.0028271,0.0034094,0.0040474,0.0046222,0.0049029,0.0028038,-0.0020293,-0.0071388,-0.0099147,-0.010089,-0.0077846,-0.0035151,0.00056072,0.003439,0.0044475,0.0037402,0.0025009,0.0012667,-0.00066128,-0.0028348,-0.0055628,-0.0074728,-0.0073673,-0.007104,-0.005888,-0.0032895,-0.0014808,0.00037781,0.0010501,-0.0024377,-0.0066145,-0.0083736,-0.0074842,-0.0041244,-0.00035927,0.0023594,0.0036069,0.0045148,0.0061664,0.0072481,0.0063271,0.0037269,0.0020132,0.0009204,0.0003955,0.0032902,0.0086249,0.012472,0.011488,0.0053486,-0.0017779,-0.0046241,-0.0025222,0.00083458,0.0021313,0.0013514,0.00145,0.0020609,0.0023574,0.0018779,0.0007134,-0.00063111,-0.002424,-0.004632,-0.0059733,-0.0040647,0.0013031,0.0067951,0.0090885,0.0095941,0.0097946,0.0097783,0.008153,0.0047419,0.0015995,0.00070963,0.0027856,0.0061646,0.0077001,0.0063548,0.0037073,0.0022201,0.0044245,0.0071996,0.0072445,0.0057715,0.002704,0.00013071,0.00018168,0.0022293,0.0040381,0.0045888,0.0030629,0.0018673,0.0038447,0.0052393,0.0050262,0.0034039,0.00027359,-0.0030669,-0.0046721,-0.0049176,-0.0054919,-0.0051723,-0.0045999,-0.004088,-0.002207,-0.001272,-0.0031088,-0.005387,-0.0079972,-0.0092836,-0.0073618,-0.0040582,-0.00028987,0.0030027,0.0052426,0.0070129,0.0069879,0.0054394,0.0026386,0.001288,0.0011614,0.0014218,0.0015338,0.0019328,0.0021522,-0.00020546,-0.0038999,-0.0062236,-0.0066795,-0.0068294,-0.0071423,-0.0066835,-0.0066151,-0.0076558,-0.0074042,-0.0045127,-0.00073712,0.0025695,0.0044033,0.0057182,0.007657,0.0086358,0.0064116,0.002334,-0.0016268,-0.0045756,-0.0060253,-0.0077421,-0.0085126,-0.0060968,-0.0024485,-3.9766e-06,0.0012772,0.00044637,-0.002566,-0.0056266,-0.0063206,-0.00372,-0.00056389,-8.8519e-05,-0.00077612,0.00072549,0.0027569,0.0032177,0.0014063,-0.0022388,-0.0038566,-0.0019725,0.0023481,0.0057996,0.0064143,0.008367,0.011529,0.013322,0.01192,0.007555,0.0024365,-0.0030112,-0.0055389,-0.0036514,-0.0015249,-0.0009027,-0.00016059,0.0026531,0.0065287,0.0098618,0.010258,0.0078392,0.0051065,0.0046253,0.0060854,0.0064629,0.0058449,0.005502,0.0050591,0.0051596,0.0049049,0.0029874,-0.0002286,-0.0031553,-0.0048931,-0.0047451,-0.0037823,-0.0034127,-0.0024606,-0.00065775,0.0016003,0.0042525,0.0057574,0.0044526,0.0023977,0.001196,0.00074839,0.0015381,0.00095967,0.00046193,0.00051327,0.0016214,0.0045072,0.0068034,0.0066676,0.0045941,0.0037881,0.0044302,0.0061861,0.0081307,0.0082348,0.0072239,0.0058241,0.004074,0.0027902,-7.6047e-05,-0.0069442,-0.015124,-0.021093,-0.020408,-0.014524,-0.0099517,-0.0072856,-0.00443,0.00037933,0.0052989,0.008922,0.011958,0.012434,0.0098544,0.004224,-0.00022392,-0.0017515,-0.0026697,-0.0032197,-0.002163,0.00044106,0.0015411,-0.0015604,-0.0079479,-0.011851,-0.011324,-0.008981,-0.0071217,-0.0042198,-0.0010974,0.0010113,0.0021379,0.0014199,-0.00059445,-0.0034913,-0.0056395,-0.0064114,-0.0057471,-0.0034387,-0.0013033,-0.00023145,-0.00039352,-0.00012156,0.00022528,-0.0002427,-0.0019694,-0.0055069,-0.008941,-0.012422,-0.015648,-0.016173,-0.014847,-0.013813,-0.012529,-0.010203,-0.0077262,-0.0038151,-0.0008437,-0.00078721,-0.0013993,-0.0018818,-0.0034009,-0.0045142,-0.0034923,-0.0012534,0.00095756,0.0020869,0.0032368,0.0048691,0.005866,0.0054669,0.0049404,0.005152,0.0059979,0.0065907,0.0066879,0.0069687,0.0064002,0.0041271,0.00086587,-0.0016372,-0.0024241,-0.0020096,-0.00021538,0.0019751,0.0051286,0.0083724,0.010309,0.0094185,0.0067065,0.0061186,0.008744,0.012361,0.012835,0.0084886,0.0026957,-0.0014142,-0.0020906,0.00017066,0.0031545,0.0057209,0.0067864,0.005912,0.0044016,0.0030443,0.00079676,-0.0022016,-0.0038524,-0.0021299,0.00092432,0.00366,0.0056129,0.0059874,0.0063456,0.0061213,0.0052885,0.0047558,0.0028126,-0.00024313,-0.0018835,-0.0011738,0.00077314,0.0022487,0.0019428,0.0013714,0.0011579,0.00047953,-0.00061972,-0.0027988,-0.005471,-0.0079911,-0.0091692,-0.0070852,-0.0028278,0.0008995,0.0028908,0.0017064,-0.0012135,-0.0031564,-0.0036106,-0.002538,-0.0020369,-0.0029228,-0.0035214,-0.0046197,-0.0051402,-0.0038366,-0.0020269,-0.0012449,-0.0024251,-0.0045423,-0.005876,-0.0050613,-0.0040275,-0.0031245,-0.0026544,-0.0028209,-0.0029837,-0.0021179,-0.00016842,0.00033537,0.0001981,0.00092346,0.0019426,0.0028039,0.0033513,0.0021901,0.0010104,0.0011886,0.0015527,0.0009195,0.00023506,0.00042182,0.00060581,0.0012336,0.0018919,0.0012139,0.00022972,-0.00071227,-0.001381,-0.0008345,-6.4544e-05,-0.0003502,-0.00052615,-0.0001582,0.00099706,0.0027696,0.003623,0.003422,0.0031961,0.0027463,0.0030628,0.00336,0.0022727,0.00050375,-0.0011383,-0.0012979,-0.00024658,5.1171e-05,-0.00074041,-0.0016178,-0.0026431,-0.0027155,-0.0016164,-0.0010006,-0.0017839,-0.0035721,-0.0050668,-0.0055159,-0.0057704,-0.0056506,-0.005596,-0.0040776,3.2573e-05,0.0053306,0.0098512,0.010979,0.008596,0.0055676,0.0039248,0.0044194,0.0042231,0.0032166,0.0015922,0.0016418,0.0040852,0.0063955,0.0066258,0.0035815,0.0019938,0.0029277,0.0048571,0.0048471,0.002849,0.0020235,0.0021778,0.0022023,0.0017139,0.0015184,0.0021768,0.0033637,0.0041489,0.0031468,0.00022644,-0.0025958,-0.0042112,-0.003373,-0.00089551,0.0010407,0.0021566,0.0028143,0.0035537,0.0039269,0.0028625,0.00023826,-0.0029286,-0.0054145,-0.0063109,-0.0052698,-0.003504,-0.0019598,0.00010509,0.0023183,0.003939,0.0053623,0.0060215,0.0048769,0.0026562,0.0014474,0.0022542,0.0035648,0.0033103,0.0026281,0.0021499,0.00051459,-0.0010153,-0.00073841,0.00079495,0.0014983,0.00077125,-0.00053228,-0.00079035,-0.00040076,-0.00085361,-0.0017103,-0.0027747,-0.0033314,-0.0026607,-0.00079438,-0.00035457,-0.0008027,-0.0021139,-0.0035246,-0.0035124,-0.0027604,-0.0013682,2.2439e-05,0.00040122,-6.2828e-05,-0.00091083,-0.0015948,-0.0001354,0.0025267,0.0037625,0.0029961,-0.0001956,-0.0038205,-0.0054697,-0.005703,-0.0057153,-0.005305,-0.0036417,-0.0017917,-0.00043424,-0.00026149,-0.0002712,0.00082827,0.00073625,0.00052524,0.0011764,0.0014669,0.0018231,0.0018282,0.0013247,0.00082541,3.4355e-05,-0.0015227,-0.0032077,-0.0050559,-0.0052865,-0.0040096,-0.0023625,9.0798e-05,0.00063233,-0.001695,-0.0055531,-0.0074953,-0.0072011,-0.0066778,-0.0060342,-0.0051636,-0.0041072,-0.0034528,-0.0016308,0.0021804,0.0061014,0.0067403,0.004008,0.00098674,9.7268e-05,0.0017595,0.0023224,0.00047831,-0.0023932,-0.0036597,-0.0027209,-0.00069966,-0.00034739,0.00016388,0.0016115,0.0025864,0.0032608,0.0021473,0.00078795,-0.00028727,0.00022624,0.0022855,0.0034557,0.0024335,0.0002382,-0.00042018,0.00044806,0.0018291,0.0028844,0.0027492,0.0015056,0.00046379,0.00070405,0.0018947,0.0032776,0.0035499,0.0018223,-0.00040052,-0.0022406,-0.002935,-0.002298,-0.0014458,1.6782e-05,0.0016379,0.0022117,0.0015272,-0.00039636,-0.0031943,-0.0045865,-0.0038159,-0.0016615,0.00043051,0.0021755,0.0041963,0.0058125,0.0061411,0.0049488,0.0024487,-0.0011836,-0.0041852,-0.0054547,-0.0047853,-0.0027244,-0.00047871,0.00087162,0.0013954,0.0017402,0.0014102,-8.4652e-05,-0.0019404,-0.0028399,-0.0021058,-0.0010143,-0.00093948,-0.00093328,-0.0010423,-0.00088821,0.00040701,0.0018067,0.0018628,0.00051876,-0.0015532,-0.0022244,-0.0011816,-0.00072564,-0.00075916,-0.0018991,-0.0040106,-0.004779,-0.0038024,-0.0024211,-0.001202,-0.00097374,-0.00079561,-0.00023676,-0.00044822,-0.00075169,-0.00067517,-0.00056975,-0.00011113,0.00080158,0.0013987,0.00061699,-0.00089778,-0.001842,-0.0010914,0.00010555,0.00012167,-4.1991e-05,0.00010765,0.00020552,0.00085814,0.0016531,0.0011998,-0.00016582,-0.0016376,-0.0023815,-0.0019275,-0.0016501,-0.0016262,-0.0011243,7.1266e-05,0.0015504,0.001741,5.4636e-06,-0.0022019,-0.0034228,-0.0031663,-0.0015595,-0.0001217,0.0015873,0.0042351,0.0070405,0.0086314,0.0072331,0.0018303,-0.0047854,-0.0091016,-0.010243,-0.0088856,-0.00622,-0.0025058,0.00060399,0.002636,0.0045479,0.0056866,0.0048819,0.0021727,0.00037207,0.00033173,0.0015765,0.002497,0.002883,0.0029129,0.0025327,0.0028674,0.0035966,0.0031183,0.0010326,-0.0007308,-0.00058852,0.001216,0.0026155,0.0027767,0.0021816,0.0012168,0.00050333,0.00026968,0.00050028,0.0010017,0.0012316,0.0011162,0.0012153,0.0014065,0.001019,0.00041156,0.00018851,0.00034321,0.00046648,0.00045896,0.00072518,0.0012078,0.001447,0.0014053,0.00097644,0.00037519,-0.00015032,-0.00051115,-0.00050939,-0.00024744,5.2743e-05,0.00025515,0.00024435,1.1449e-05,-0.00029461,-0.00066793,-0.00087395,-0.00070896,-0.00034813,0.00017327,0.00067743,0.00093376,0.0010676,0.00092787,0.00053915,7.2323e-05,-0.00059458,-0.0011984,-0.0013672,-0.0010079,-0.00050438,-0.00018542,0.00013755,0.00043946,0.00048248,0.00013935,-0.00040893,-0.00071234,-0.00081762,-0.00095813,-0.00068203,-0.00026146,-0.00013484,3.7618e-05,0.00027496,0.00037122,0.00055841,0.00053349,0.00025571,7.7899e-05,-9.4549e-05,-0.00011619,0.00010976,0.00031288,0.0002835,0.00013111,0.0003216,0.00074445,0.00069403,0.00039207,0.0003177,0.00020099,2.3143e-05,-0.00012141,5.9181e-05,0.00040852,0.00056827,0.00081289,0.0012095,0.0011609,0.00066625,0.00032169,0.00020997,1.0171e-05,-0.0002405,-0.0001494,0.00011036,0.00018932,0.00047112,0.00098863,0.001176,0.0010329,0.00083995,0.0006179,0.00037784,0.00018847,0.00010756,0.00013709,0.00023457,0.00043123,0.0006577,0.00062896,0.00030336,2.3355e-05,-0.00011291,-0.00017602,-2.2164e-05,0.00039688,0.00067923,0.00086437,0.0011828,0.0012123,0.00057137,