0.0003677
0.00027848
-1.9884e-05
-0.00073815
-0.0014254
-0.00091953
0.00017271
0.00066866
0.00061897
0.00046224
0.00024882
-0.00024486
-0.00098707
-0.0020644
-0.0035227
-0.0040629
-0.0033689
-0.0023808
-0.0014945
-0.00052846
0.00042302
0.0011786
0.0015357
0.001519
0.0012564
0.00057157
0.00016411
0.00012225
0.0001179
0.00013728
0.00040682
0.00034589
-0.00067772
-0.0018829
-0.0025497
-0.0027601
-0.0027733
-0.0023483
-0.0020168
-0.0017163
-0.0013438
-0.00097593
-0.00090114
-0.0014869
-0.0024322
-0.0029646
-0.0029804
-0.0029685
-0.0023579
-0.0013321
-0.00047677
0.00026257
0.00081649
0.0010763
0.001327
0.0014245
0.0017659
0.0023448
0.0021913
0.0019806
0.0022796
0.0030019
0.0034333
0.0027891
0.0018561
0.0012051
0.00064471
0.00037385
5.4609e-05
-0.00040704
7.1845e-05
0.00075113
0.00050658
-0.0003916
-0.0014226
-0.0023045
-0.0029865
-0.0037035
-0.0046332
-0.0054804
-0.0059776
-0.0053151
-0.0040344
-0.0031982
-0.0023022
-0.001296
-0.0014024
-0.0021952
-0.0029657
-0.0035934
-0.0044398
-0.0052811
-0.0050706
-0.0042746
-0.0036254
-0.003197
-0.0029457
-0.0031783
-0.0037878
-0.0047036
-0.0055764
-0.0062889
-0.0073996
-0.0081264
-0.007332
-0.0058531
-0.0044508
-0.0032638
-0.0025112
-0.0024646
-0.0025114
-0.0023799
-0.0023337
-0.002734
-0.0041343
-0.0053179
-0.0046932
-0.0032498
-0.0025695
-0.0027963
-0.0029553
-0.0027673
-0.002252
-0.0016189
-0.00062146
-0.00011123
-0.0010711
-0.0026239
-0.0027367
-0.0014927
-0.00058011
-0.0003856
-0.00050462
-0.00039865
-8.632e-05
0.00062682
0.0013284
0.0012767
0.00028141
-0.0014654
-0.0026877
-0.0024736
-0.0021169
-0.0025281
-0.0031996
-0.0041742
-0.0043721
-0.0021989
0.00041242
0.0016049
0.0010832
-0.00022359
-0.00034374
0.0016854
0.0037994
0.0050989
0.0059303
0.0069516
0.009477
0.011997
0.012917
0.012309
0.01019
0.0073661
0.0030843
-0.00015802
-0.00066666
-0.00014021
-0.0004785
-0.0010373
-0.0010108
-0.00010927
0.001268
0.0021791
0.0022322
0.0017757
0.0015327
0.0014057
0.0013292
0.0013519
0.0013406
0.00088275
0.00024337
0.00041292
0.0014632
0.0024785
0.002713
0.00247
0.0015914
0.00081772
-4.1171e-05
-0.0001765
0.00056668
0.00067283
0.0003429
0.00021506
0.00027538
-0.00052811
-0.0015251
-0.0022656
-0.002824
-0.0029912
-0.0031863
-0.00323
-0.002197
-0.00073728
-6.5957e-05
-0.00012555
-0.0001493
-0.00019372
-0.00049099
-0.00080998
-0.001058
-0.0019357
-0.0035707
-0.0050564
-0.005321
-0.0045532
-0.0041619
-0.0036846
-0.0022549
-0.00048371
0.00091392
0.0019184
0.0029003
0.0030667
0.001888
-0.00014545
-0.0022549
-0.002864
-0.0020679
-0.0011704
-0.00040969
0.00026515
0.001381
0.0034168
0.0050815
0.0059031
0.0050297
0.0036629
0.0038075
0.0045078
0.0059805
0.006541
0.006072
0.00559
0.0048544
0.0045743
0.0045015
0.0040426
0.0032042
0.0022282
0.00075788
-0.00075722
-0.0014065
-0.00022574
0.00097709
4.1615e-05
-0.0015512
-0.0033029
-0.004702
-0.0044642
-0.0041784
-0.0059013
-0.0073692
-0.0068706
-0.0061193
-0.0056538
-0.0048067
-0.0039585
-0.0031564
-0.0021051
-0.0012797
-0.00099061
-0.0010479
-0.0015723
-0.0027418
-0.0046999
-0.005701
-0.0043727
-0.001834
0.00014068
0.00085789
0.0020201
0.0038555
0.0064184
0.0075141
0.0052039
0.0017586
-0.002538
-0.0058203
-0.0053852
-0.0030419
-0.0019098
-0.001929
-0.0017001
-0.00099203
-0.00012055
0.00063797
0.00082304
-8.0433e-05
-0.0014424
-0.0019646
-0.00065003
0.0013484
0.0031472
0.0048707
0.0069901
0.0096203
0.011418
0.01119
0.0086652
0.0057901
0.003048
0.0018143
0.0034559
0.005875
0.0082436
0.0083689
0.0081818
0.011421
0.015643
0.016704
0.015788
0.016777
0.016498
0.012718
0.0063226
0.002827
0.0018213
0.001111
0.00022197
-0.00012947
-0.00031172
-0.00072283
-0.0012884
-0.0012842
0.0031947
0.010419
0.015395
0.01717
0.018518
0.020362
0.022211
0.024278
0.02522
0.022831
0.01869
0.015582
0.012492
0.0070026
-0.0009357
-0.0074145
-0.012835
-0.01821
-0.021241
-0.021018
-0.017431
-0.01418
-0.013214
-0.012362
-0.010369
-0.0083241
-0.0086802
-0.010472
-0.011909
-0.0099106
-0.0030536
0.004297
0.0097518
0.01118
0.007463
0.0014805
-0.0038229
-0.0094567
-0.015965
-0.020968
-0.024421
-0.026354
-0.025002
-0.021481
-0.018538
-0.016011
-0.012863
-0.009476
-0.0027958
0.0053171
0.011276
0.013774
0.012538
0.008974
0.0050418
0.0014215
-0.0045259
-0.012999
-0.02029
-0.022246
-0.019673
-0.016841
-0.016046
-0.017621
-0.021255
-0.025334
-0.026221
-0.024148
-0.021278
-0.017506
-0.012183
-0.0057459
0.0010441
0.0066611
0.010341
0.011068
0.0093312
0.0086017
0.0096512
0.010827
0.0094008
0.004944
-0.00070812
-0.0059095
-0.010297
-0.014421
-0.018739
-0.023141
-0.024687
-0.022202
-0.016762
-0.0096501
-0.0028757
0.0023423
0.0064702
0.0092699
0.010997
0.011767
0.01083
0.0090437
0.0064393
0.0032551
0.00092641
-0.00030545
-0.0018621
-0.0042632
-0.0063848
-0.0066243
-0.0054201
-0.005112
-0.0050819
-0.004363
-0.0031115
-0.00084158
0.002589
0.006072
0.0081699
0.0094291
0.010288
0.010756
0.01023
0.007925
0.0054166
0.0047006
0.0049241
0.0045249
0.0035457
0.0033439
0.0033153
0.0024032
0.0011194
0.00092976
0.0016515
0.0020134
0.0020927
0.0025942
0.0037249
0.0049027
0.0059761
0.0067057
0.0063578
0.0052484
0.0045721
0.0049779
0.0049588
0.0035
0.0020047
0.001351
0.00072451
-3.4913e-05
-0.00058431
-0.001096
-0.0012955
-0.00037583
0.0019288
0.0044703
0.0061743
0.0064043
0.0051926
0.0051964
0.0066635
0.0076211
0.0074547
0.0064056
0.0054399
0.0052117
0.0055664
0.005686
0.0043459
0.0014576
-0.0013147
-0.0029866
-0.0043853
-0.0056307
-0.0058764
-0.0053206
-0.0037389
-0.0016017
0.00049835
0.0023891
0.003037
0.0021028
0.0006393
-0.00010801
-0.00043344
-0.0024842
-0.0054522
-0.006592
-0.0061916
-0.0055777
-0.0053056
-0.0049792
-0.00384
-0.0024083
-0.0020498
-0.0030751
-0.0049081
-0.0065462
-0.0083408
-0.010758
-0.012291
-0.012222
-0.010029
-0.0064773
-0.002863
-0.00025949
0.00088567
0.00092926
2.2095e-05
-0.0010579
-0.0023616
-0.0042114
-0.0067836
-0.0091196
-0.0081463
-0.003727
0.0010437
0.0040272
0.004957
0.0061103
0.0080551
0.009053
0.0096459
0.010962
0.011157
0.011582
0.012627
0.012554
0.013834
0.016243
0.016152
0.014012
0.012578
0.012378
0.012429
0.01254
0.012367
0.011941
0.013205
0.015123
0.016936
0.02286
0.029111
0.031212
0.029676
0.025712
0.020452
0.013074
0.0028264
-0.0079192
-0.016053
-0.020907
-0.021818
-0.019809
-0.015187
-0.0077871
-0.0030133
-0.0030784
-0.0040669
-0.0058577
-0.0097808
-0.014395
-0.01865
-0.020965
-0.018369
-0.012828
-0.00877
-0.0077265
-0.0075725
-0.0067192
-0.0062216
-0.0067438
-0.0076123
-0.0093743
-0.01164
-0.013231
-0.015343
-0.016875
-0.016825
-0.016113
-0.015311
-0.016369
-0.017572
-0.016697
-0.01384
-0.0086918
-0.0032721
0.00042676
0.0020998
0.0018504
0.0013924
0.0011901
-0.00014198
-0.0017004
-0.0019542
0.00063929
0.0038122
0.0037177
0.00070947
-0.0034066
-0.0062479
-0.0070305
-0.0049178
-0.001609
0.00093589
0.0046391
0.0099711
0.014949
0.017529
0.017808
0.017081
0.016851
0.016775
0.015669
0.014699
0.014538
0.015136
0.015199
0.014146
0.012474
0.009619
0.0045122
-0.0011056
-0.0051465
-0.0078088
-0.0081015
-0.0050657
-0.0017221
0.0016708
0.0055669
0.0078873
0.010473
0.014141
0.016078
0.015237
0.01353
0.012003
0.010799
0.010124
0.010936
0.015587
0.021872
0.02647
0.028275
0.027242
0.024514
0.023009
0.021679
0.01867
0.015256
0.012661
0.011128
0.0097674
0.0092963
0.0093011
0.0078526
0.0057439
0.0049356
0.0038576
0.0024957
0.0014887
0.0013154
0.0014122
0.00067336
-0.00012578
-0.0020087
-0.0036032
-0.0041323
-0.005037
-0.0049951
-0.0024274
0.0011729
0.0041406
0.0063938
0.0071851
0.005783
0.0036797
0.0029846
0.0023781
0.0013332
-6.8709e-05
-0.0024205
-0.0035776
-0.0036345
-0.004795
-0.0058332
-0.003955
-0.00080034
0.0011605
0.0036714
0.0081307
0.011016
0.011935
0.012787
0.012791
0.012059
0.011014
0.0088066
0.005514
0.003703
0.0041729
0.0045546
0.0030192
-0.00021345
-0.0043549
-0.0090133
-0.013668
-0.015709
-0.014166
-0.012384
-0.01165
-0.011117
-0.009089
-0.0050021
-0.00085101
0.001517
0.0020742
0.001536
0.0014607
2.3712e-05
-0.0053826
-0.011453
-0.014248
-0.014072
-0.012749
-0.01013
-0.0071351
-0.0048183
-0.0038585
-0.0030247
-0.0012442
-0.0015297
-0.0054588
-0.010891
-0.014746
-0.01567
-0.013976
-0.012434
-0.011763
-0.0081169
-0.0029641
0.00078424
0.0024384
0.0026715
-0.00081373
-0.0062626
-0.0088142
-0.0088001
-0.0088105
-0.011022
-0.014109
-0.015319
-0.013254
-0.01068
-0.011864
-0.018039
-0.024541
-0.031085
-0.035663
-0.034161
-0.030159
-0.026983
-0.024906
-0.020654
-0.015029
-0.0098322
-0.0030719
0.0014544
0.00021369
-0.0017155
-0.0031651
-0.0060618
-0.0086436
-0.012332
-0.017277
-0.023033
-0.026536
-0.024804
-0.019138
-0.012397
-0.0089724
-0.0089296
-0.0086363
-0.0079983
-0.0068463
-0.0051705
-0.0044102
-0.0044686
-0.0042946
-0.0045548
-0.0043992
-0.0040873
-0.0081983
-0.014811
-0.017944
-0.016534
-0.014376
-0.011408
-0.0082709
-0.0053991
0.00045114
0.0077681
0.01314
0.014729
0.01492
0.014724
0.014824
0.016611
0.0175
0.01588
0.011406
0.0043973
-0.0010127
-0.0025819
-0.0030362
-0.0022802
0.0015031
0.0064706
0.011938
0.017925
0.02435
0.028402
0.026568
0.022298
0.018969
0.017499
0.018556
0.019386
0.018126
0.015791
0.012784
0.010705
0.0086288
0.0047144
-0.00077822
-0.0044385
-0.0029583
0.0027202
0.0085378
0.012908
0.016897
0.017682
0.016497
0.014801
0.013284
0.012572
0.014594
0.01921
0.023803
0.027613
0.030342
0.031984
0.032134
0.027728
0.018433
0.0083898
0.00059952
-0.003845
-0.0037737
-0.00053443
0.0042406
0.0083147
0.0099268
0.010103
0.0095565
0.0080214
0.0075688
0.0068482
0.0035722
0.0023313
0.005889
0.011589
0.015322
0.014269
0.010902
0.008356
0.0062617
0.0042938
0.0018701
-0.0018493
-0.0061109
-0.0085899
-0.0075772
-0.0056236
-0.0057425
-0.007772
-0.0099919
-0.010745
-0.010198
-0.0083953
-0.0072904
-0.0088817
-0.01073
-0.010447
-0.009315
-0.0068328
-0.0038045
-0.0030426
-0.0034699
-0.0041588
-0.0049904
-0.0037361
-0.0019936
-0.0021706
-0.0061363
-0.0097966
-0.0093783
-0.0067096
-0.0028206
0.0017619
0.0052838
0.0088693
0.012877
0.01426
0.011842
0.0074814
0.0032432
3.6616e-05
0.00054009
0.0033917
0.0056708
0.0074433
0.0077695
0.0069929
0.0063886
0.0059352
0.006065
0.0044612
0.00034409
-0.0043994
-0.0077147
-0.0091311
-0.0089795
-0.0082812
-0.0079864
-0.0072869
-0.0053621
-0.0036187
-0.0029623
-0.0031186
-0.0048856
-0.0094466
-0.014146
-0.016639
-0.016055
-0.010928
-0.0045947
0.0013478
0.007006
0.011281
0.012913
0.011424
0.0078723
0.0028089
-0.00023451
0.0016486
0.0030966
0.0014482
0.00091924
0.0019924
0.0038373
0.0066926
0.010046
0.01278
0.014446
0.013726
0.010311
0.0070701
0.0049686
0.0025128
-0.00016876
-0.0021327
-0.0046711
-0.0063408
-0.0041182
-0.00012325
0.0019122
0.0023495
0.0027754
0.0032531
0.0045791
0.00516
0.002766
-0.0006545
-0.0012611
-0.00074426
-0.0015492
-0.0022247
-0.003761
-0.0078706
-0.013311
-0.018233
-0.022668
-0.02451
-0.023378
-0.022273
-0.020878
-0.016183
-0.0097271
-0.0032268
0.0037209
0.0083805
0.0098165
0.00774
0.0017179
-0.0067327
-0.014344
-0.020959
-0.027431
-0.030107
-0.027116
-0.022021
-0.016589
-0.008697
-0.00019105
0.0046806
0.0067321
0.0074614
0.0058995
0.0027661
-0.00094437
-0.0041174
-0.004259
3.4277e-05
0.0054833
0.0083383
0.0086593
0.0084338
0.0090759
0.0093082
0.0074258
0.0055556
0.0050063
0.0043372
0.0049134
0.0061161
0.0058634
0.0046717
0.003477
0.0022265
0.00022523
-0.0016537
-0.004002
-0.0071112
-0.0063944
-0.0019438
0.00093935
0.0025458
0.0045812
0.006233
0.0064442
0.0038128
-0.0005273
-0.0037418
-0.0030428
0.0003289
0.0023673
0.0034232
0.0040172
0.0049263
0.0069756
0.0088237
0.0084732
0.0069985
0.0082848
0.012689
0.018112
0.021633
0.020785
0.017475
0.015727
0.014969
0.012206
0.0084499
0.0055061
0.0043381
0.0047031
0.005349
0.0056306
0.0064808
0.0069828
0.005903
0.0034693
0.00015895
-0.0012884
0.00033165
0.0017097
0.0011176
-0.00061267
-0.0018046
-0.0022138
-0.0036424
-0.0059509
-0.0087684
-0.010413
-0.010071
-0.0089121
-0.0083797
-0.0073131
-0.0043024
-0.0017197
0.00029541
0.0024501
0.0025391
0.001964
0.0039681
0.0057166
0.0050073
0.0032541
0.0016183
0.00049507
-0.00067843
-0.0021366
-0.0034951
-0.0036182
-0.0012448
0.0011993
0.002061
0.0029867
0.0040538
0.0045615
0.0038544
0.0016916
-0.00071061
-0.0033478
-0.0044931
-0.0030385
-0.0015493
-0.00072404
-0.00044247
-0.00071036
-0.0014297
-0.0030939
-0.0056819
-0.009056
-0.011048
-0.0099435
-0.0084816
-0.0075493
-0.0061657
-0.004182
-0.0021364
-0.0012534
-0.0020997
-0.0033592
-0.0051008
-0.0059225
-0.0053036
-0.005047
-0.0052175
-0.0058996
-0.0064104
-0.0058649
-0.0051512
-0.0046696
-0.0040615
-0.0035487
-0.00086779
0.0038491
0.0072654
0.0086619
0.0080448
0.0040461
-0.0019582
-0.0076145
-0.011951
-0.014674
-0.01735
-0.016857
-0.013451
-0.01026
-0.0070521
-0.0040933
-0.0035374
-0.0059245
-0.010128
-0.013803
-0.016479
-0.019886
-0.022481
-0.021615
-0.01837
-0.014383
-0.010139
-0.0075992
-0.0067854
-0.006625
-0.006729
-0.007978
-0.0078674
-0.0057888
-0.0045046
-0.0032144
-0.00089943
0.0027572
0.006407
0.0066017
0.0047743
0.0036763
0.0024746
-0.0011345
-0.0070175
-0.011816
-0.015622
-0.015738
-0.010253
-0.0032363
0.0043406
0.013641
0.021063
0.026037
0.028521
0.026728
0.022704
0.018665
0.015488
0.0095992
0.0023071
-0.0014441
-0.003105
-0.0045498
-0.0055308
-0.0053269
-0.0035717
0.00010552
0.006567
0.013278
0.01677
0.019133
0.021567
0.024911
0.028065
0.028218
0.027688
0.027088
0.02587
0.025255
0.024582
0.023357
0.021271
0.01913
0.017171
0.015948
0.01534
0.015675
0.016702
0.01656
0.015239
0.012199
0.007972
0.0032039
-0.00015887
-0.00051189
0.00069514
0.0029704
0.0056186
0.0078131
0.0088543
0.010088
0.012274
0.013986
0.014057
0.011328
0.0075135
0.0047585
0.0039686
0.0032535
0.00062263
-0.0025725
-0.006226
-0.010667
-0.01476
-0.016762
-0.016074
-0.0129
-0.0072845
-0.0013593
0.0027186
0.0052318
0.0059473
0.0035838
-0.00044811
-0.0030322
-0.0037172
-0.0037858
-0.0018986
2.7055e-05
-0.00087356
-0.0045733
-0.0091017
-0.011864
-0.014696
-0.017848
-0.020006
-0.020672
-0.018221
-0.013337
-0.009539
-0.0085996
-0.0094896
-0.010422
-0.0096318
-0.0067166
-0.0042525
-0.0022844
0.0010875
0.004718
0.0087858
0.011749
0.010769
0.0070564
0.0041287
0.0025035
0.0017032
0.0015727
0.0011806
-0.00083309
-0.0040746
-0.0065348
-0.0091118
-0.01267
-0.017432
-0.022582
-0.026418
-0.027913
-0.02611
-0.022273
-0.01816
-0.013773
-0.0090211
-0.0041088
-0.00083327
-0.0015241
-0.0063575
-0.010645
-0.012285
-0.012518
-0.010969
-0.0083424
-0.0054201
-0.0014545
0.0029211
0.0040302
0.002854
0.003438
0.0032964
0.00011606
-0.0031083
-0.005596
-0.0050396
-0.00065376
0.003808
0.0051843
0.0062726
0.010132
0.014712
0.017035
0.018195
0.018305
0.017471
0.017518
0.017867
0.015265
0.0096623
0.0044534
0.0011499
-0.00031579
0.00056498
0.0033388
0.0065092
0.010854
0.016765
0.020833
0.021111
0.020013
0.017657
0.015399
0.014542
0.015565
0.017153
0.01859
0.018477
0.016631
0.015487
0.015042
0.013027
0.0088417
0.0036897
-0.0012949
-0.0038419
-0.0016049
0.0024652
0.0041776
0.0022276
-0.0010247
-0.0053852
-0.0088746
-0.0083111
-0.0082477
-0.0091113
-0.0071559
-0.0024212
0.0036726
0.01051
0.015796
0.016065
0.010975
0.0046493
0.0006515
-0.0022285
-0.0047903
-0.0079144
-0.010468
-0.009414
-0.0027845
0.0039863
0.0071079
0.0078978
0.0067167
0.0057671
0.0062757
0.0068779
0.0053024
0.0022581
-0.0014523
-0.0040386
-0.0052536
-0.0067026
-0.0082112
-0.0092347
-0.011138
-0.014366
-0.017593
-0.019543
-0.020251
-0.019947
-0.018211
-0.016689
-0.015151
-0.011287
-0.006808
-0.0031182
-0.0013936
-0.0022427
-0.003934
-0.0049725
-0.005561
-0.0067793
-0.008767
-0.010624
-0.0094681
-0.0066987
-0.0060922
-0.0064584
-0.0065904
-0.0083145
-0.011186
-0.013578
-0.014076
-0.013231
-0.011923
-0.008874
-0.0051094
-0.0020622
0.00070471
0.0031914
0.0047771
0.0050468
0.004065
0.0015146
-0.0010152
-0.0016039
-0.00052208
0.0012686
0.0026795
0.0035957
0.0041221
0.0037694
0.00262
0.0010963
-0.0012275
-0.0043719
-0.0050905
-0.0023591
0.000957
0.0045653
0.008071
0.009226
0.0099439
0.011912
0.013383
0.01261
0.0096274
0.0061956
0.0045332
0.0050626
0.0065335
0.0070307
0.0056655
0.0044139
0.0041168
0.0037602
0.00282
0.0033739
0.0053797
0.0055899
0.0050556
0.0053744
0.0052633
0.0050635
0.0049213
0.0034287
0.00070181
-0.00066296
-1.2297e-05
0.00025899
-0.00094331
-0.0029552
-0.0045164
-0.0044766
-0.0024808
-0.00061705
-0.00048769
-0.00030471
0.0013615
0.0042606
0.0059668
0.0051681
0.0033769
0.0013697
0.00044546
0.0007136
0.00049546
0.00071834
0.0014836
0.0016034
0.0013944
0.0018831
0.0026832
0.0025736
0.0014341
0.0007923
0.00075444
0.0021014
0.004236
0.003713
0.0023465
0.00293
0.0034395
0.0039477
0.0056017
0.0077304
0.010142
0.013827
0.019295
0.023784
0.026437
0.028206
0.028917
0.029329
0.029585
0.029283
0.027671
0.024037
0.019802
0.015629
0.011036
0.0054501
-0.0025461
-0.012227
-0.024065
-0.0346
-0.040205
-0.041217
-0.038126
-0.031156
-0.023068
-0.016882
-0.012208
-0.0090798
-0.008297
-0.01002
-0.011985
-0.013282
-0.013361
-0.012644
-0.012685
-0.011528
-0.0097166
-0.0083527
-0.0076659
-0.0095306
-0.012579
-0.015388
-0.017207
-0.016179
-0.012504
-0.0093708
-0.0086748
-0.0092771
-0.0094417
-0.0083539
-0.0073577
-0.0079112
-0.0086993
-0.0069099
-0.0026364
0.001581
0.0035982
0.0021673
-0.0010511
-0.0038269
-0.0061799
-0.0087341
-0.011479
-0.014442
-0.015774
-0.01378
-0.0080185
-0.00047383
0.004977
0.0064498
0.006235
0.0082661
0.011327
0.013154
0.013131
0.012209
0.011975
0.015275
0.020268
0.022918
0.023844
0.025555
0.028017
0.028324
0.024758
0.018775
0.011755
0.0041135
-0.001081
-0.0028911
-0.0014714
0.00197
0.005116
0.0053705
0.0032107
0.0010262
0.0013485
0.0038376
0.0075061
0.014167
0.020496
0.024201
0.026029
0.023776
0.01491
0.00046926
-0.013145
-0.021304
-0.02334
-0.020961
-0.015326
-0.0089626
-0.0019781
0.0060049
0.013105
0.016027
0.01387
0.0089566
0.0026909
-0.0028114
-0.0057998
-0.0068024
-0.0076686
-0.0092929
-0.010267
-0.01005
-0.008702
-0.0066417
-0.0065327
-0.0087776
-0.010201
-0.0093397
-0.0064127
-0.0027521
-0.00044254
0.000998
0.0017623
0.0026671
0.0020651
0.00029097
0.00037515
0.00087977
0.00091638
0.00059291
-0.0032582
-0.0083435
-0.012092
-0.012856
-0.011104
-0.010634
-0.015609
-0.023574
-0.02738
-0.027028
-0.024663
-0.021717
-0.016868
-0.011845
-0.0070362
0.00025276
0.0094476
0.016802
0.017982
0.010441
-0.0013745
-0.010076
-0.013249
-0.013554
-0.013514
-0.014239
-0.01378
-0.010026
-0.0040877
0.00012478
-0.00058161
-0.0052367
-0.0098176
-0.0085477
-0.0012598
0.0081708
0.014051
0.014214
0.012686
0.012383
0.01278
0.012869
0.011453
0.0080089
0.0062347
0.0099409
0.017824
0.025126
0.029009
0.027224
0.021875
0.015875
0.0089274
0.0021963
-0.0032775
-0.0052742
-0.003542
0.00062561
0.0068607
0.011959
0.012291
0.011029
0.01035
0.0084641
0.008118
0.008949
0.0081522
0.0073983
0.0053971
0.00165
-0.0011701
-0.0027627
-0.0047261
-0.0064936
-0.0060457
-0.0029062
0.0021128
0.0078048
0.014239
0.019781
0.022355
0.021947
0.020443
0.01805
0.013121
0.0056604
-0.00011416
-0.0013612
0.00072488
0.0056738
0.0096838
0.011591
0.012575
0.012864
0.0097367
0.0025722
-0.005444
-0.010681
-0.01255
-0.0093701
-0.0027113
0.0029234
0.008339
0.015443
0.019403
0.017826
0.014004
0.010126
0.0059137
0.0043859
0.0051321
0.0048971
0.0072552
0.012323
0.016135
0.016102
0.012398
0.0063233
-0.0020528
-0.011734
-0.021564
-0.029714
-0.035477
-0.039496
-0.041074
-0.041323
-0.040982
-0.038408
-0.035172
-0.032309
-0.028452
-0.025212
-0.021988
-0.017688
-0.013031
-0.010031
-0.010229
-0.013089
-0.018513
-0.023335
-0.023919
-0.023225
-0.022794
-0.020391
-0.017176
-0.01443
-0.011777
-0.01035
-0.010492
-0.012179
-0.013625
-0.013499
-0.011615
-0.0076602
-0.0038546
-0.00071154
0.0025186
0.0042201
0.0045639
0.0054538
0.0070776
0.010483
0.013475
0.013821
0.013074
0.011895
0.0090482
0.003084
-0.0043396
-0.011233
-0.015293
-0.014436
-0.010193
-0.0041725
0.0024157
0.0072851
0.011193
0.015324
0.016839
0.015975
0.014871
0.014504
0.016262
0.019302
0.021615
0.022407
0.022384
0.020875
0.016535
0.011074
0.0057359
0.00046162
-0.0016766
-0.00076888
-0.00037217
-0.0011334
-0.00083939
0.0017938
0.0054621
0.0088343
0.010281
0.010086
0.011296
0.013364
0.014168
0.014051
0.013555
0.012542
0.010838
0.0086603
0.0069282
0.0053736
0.0041331
0.0048876
0.0066692
0.0076061
0.0070936
0.0059019
0.0048383
0.0038769
0.0022576
-0.00011631
-0.0012007
-0.00018501
0.0015987
0.0017176
0.00066832
0.00026974
3.8627e-05
-0.00085197
-0.0025526
-0.0044101
-0.0050361
-0.003739
-0.0019352
-0.00094155
-2.282e-05
0.00058075
0.00094628
0.0010137
-0.00074874
-0.0033926
-0.0042675
-0.0038508
-0.004202
-0.0050386
-0.0055432
-0.0061165
-0.0058597
-0.0064213
-0.008582
-0.0090869
-0.0082268
-0.0078785
-0.0088776
-0.011211
-0.014019
-0.015442
-0.015559
-0.014453
-0.011105
-0.0069853
-0.0033943
-0.0005022
0.0016051
0.0028063
0.0034095
0.0024014
1.1431e-05
-0.00062044
0.00012615
0.0013866
0.0037943
0.0056169
0.005651
0.0045128
0.0022699
-0.00066373
-0.0022151
-0.0026762
-0.0033257
-0.0030353
-0.0012376
0.0011598
0.0033712
0.0041632
0.0042726
0.0055821
0.0072088
0.0091805
0.010993
0.011275
0.010462
0.010467
0.0097213
0.0077018
0.0070664
0.0074682
0.0074211
0.0061331
0.0044829
0.0029103
0.00090516
-0.00059508
-0.0013242
-0.0018499
-0.00092794
0.00059671
0.0002634
-0.0014102
-0.0021138
-0.0030079
-0.0053709
-0.0086833
-0.012169
-0.012665
-0.010293
-0.0079337
-0.0059606
-0.0033487
-0.0002608
0.0029272
0.0063871
0.0091693
0.011354
0.014238
0.015903
0.015252
0.013516
0.010807
0.0065794
0.0012588
-0.0048339
-0.01236
-0.018736
-0.02087
-0.018399
-0.012983
-0.0059577
0.0016816
0.0093379
0.015395
0.017313
0.016244
0.014273
0.011603
0.0082906
0.0050327
0.0021131
0.00025756
0.00079993
0.0031572
0.0053309
0.0055055
0.0035325
0.001664
0.00092433
0.00091501
0.0015106
0.0019717
0.0021056
0.0040518
0.0070264
0.0082052
0.007294
0.0049552
0.0019501
-0.00034376
-0.0020546
-0.003358
-0.0039783
-0.0042999
-0.0039556
-0.0031469
-0.001989
-0.00063982
-0.00044925
-0.0012585
-0.0022313
-0.0028517
-0.0018692
0.0018043
0.0079355
0.014519
0.018326
0.01933
0.020059
0.020999
0.018613
0.012362
0.0048223
-0.0048379
-0.011971
-0.010937
-0.0059227
0.00024575
0.0066288
0.011315
0.015621
0.018037
0.016153
0.010597
0.0046146
0.0015112
-0.00065846
-0.0021761
-0.0021214
-0.0014358
-0.0014695
-0.0021684
-0.0031622
-0.0032578
-0.0019068
0.00059991
0.0043382
0.0075885
0.0094339
0.0089565
0.0046669
-0.0035436
-0.016288
-0.028499
-0.032326
-0.030044
-0.022304
-0.013927
-0.0090688
-0.0065785
-0.0055421
-0.0054255
-0.0042233
-0.0028218
-0.0030405
-0.0053743
-0.007705
-0.0073453
-0.0069211
-0.0099205
-0.01391
-0.015679
-0.0168
-0.018246
-0.017634
-0.016068
-0.014978
-0.013122
-0.011135
-0.0079752
-0.0029391
0.001797
0.0055215
0.007958
0.007829
0.006176
0.0037752
0.0028755
0.0038472
0.0040467
0.002153
-0.0013663
-0.0034078
-0.0026068
0.00065782
0.0044833
0.0059234
0.0016204
-0.0050719
-0.0090408
-0.0082256
-0.0014228
0.0086824
0.018839
0.028792
0.038322
0.045015
0.04804
0.048136
0.042529
0.031541
0.020994
0.013788
0.0093394
0.0067971
0.0062877
0.0073992
0.0093942
0.01039
0.0074741
0.00033262
-0.0083304
-0.016391
-0.024245
-0.030567
-0.033707
-0.033487
-0.030149
-0.025465
-0.023932
-0.023206
-0.020229
-0.016569
-0.015206
-0.015796
-0.017492
-0.01914
-0.018052
-0.014742
-0.010485
-0.0076448
-0.0064213
-0.0058
-0.005694
-0.007034
-0.0083021
-0.0085278
-0.0091149
-0.0078569
-0.00478
-0.0016965
0.0010901
0.0038174
0.0059011
0.0064426
0.0063915
0.0066487
0.0050079
0.0013965
0.00018099
0.00031693
-0.00090033
-0.0035072
-0.0065967
-0.0094347
-0.013185
-0.017879
-0.021768
-0.024762
-0.027509
-0.027635
-0.02549
-0.022549
-0.01728
-0.011036
-0.0061991
-0.0033098
-0.0015142
0.00029156
0.0026547
0.0044968
0.0047525
0.0040054
0.0029802
0.001808
0.00099782
-0.00084086
-0.0045315
-0.0085651
-0.010545
-0.0099738
-0.0077114
-0.004562
-0.0019923
-0.00077358
-0.00064529
-0.00086903
-0.0027137
-0.0050572
-0.0058313
-0.002863
0.0037252
0.011192
0.019184
0.026747
0.033077
0.03726
0.037938
0.0341
0.025965
0.016486
0.0077715
0.00060641
-0.0040594
-0.0056785
-0.0046468
-0.001415
0.0039571
0.009933
0.013786
0.016173
0.019301
0.022066
0.023139
0.021553
0.017627
0.014595
0.013219
0.011794
0.0098491
0.007727
0.0062564
0.0065546
0.0076802
0.0081226
0.0075617
0.0062046
0.004967
0.0044225
0.003796
0.0024328
0.00092258
0.0010425
0.0023121
0.0028316
0.0027986
0.0035172
0.00449
0.0039291
0.00324
0.0040155
0.0058538
0.0084667
0.010104
0.0093977
0.007443
0.0052287
0.0022965
0.00039363
-0.00090354
-0.0024005
-0.0018852
0.00096385
0.0048064
0.0072056
0.0076215
0.006805
0.0052214
0.0035481
0.0021914
0.00064074
-0.0023487
-0.0044414
-0.0036554
-0.0017254
-0.00029533
-0.00013937
-0.0014431
-0.0029098
-0.0033607
-0.0034094
-0.003556
-0.0047911
-0.0056827
-0.0041392
-0.0019271
-0.00031244
0.00051504
-0.00038067
-0.0026059
-0.0044628
-0.0053215
-0.0059051
-0.0061744
-0.0067721
-0.0074314
-0.0069748
-0.0062601
-0.0062749
-0.0066611
-0.0080032
-0.0098698
-0.011311
-0.010993
-0.0087497
-0.0068931
-0.0067141
-0.0075346
-0.0084918
-0.0088809
-0.0086969
-0.0092133
-0.01059
-0.011102
-0.010216
-0.0086803
-0.0067896
-0.0055031
-0.0056906
-0.0064386
-0.0067188
-0.0069237
-0.006716
-0.0056427
-0.0047199
-0.0046964
-0.0046189
-0.0035217
-0.0021316
-0.0010397
-0.00073765
-0.0014666
-0.0018973
-0.0016245
-0.0016291
-0.0016938
-0.0019637
-0.0028174
-0.003398
-0.0029339
-0.0023718
-0.0026342
-0.0035918
-0.0048017
-0.0054451
-0.005663
-0.0063454
-0.0071344
-0.006992
-0.0058259
-0.003863
-0.0017184
-8.9027e-05
0.0011404
0.0012889
0.0004701
-6.8158e-05
-0.00033852
-0.0011662
-0.002273
-0.0029412
-0.003075
-0.0023271
-0.001432
-0.0018359
-0.0027632
-0.0030558
-0.003543
-0.0042412
-0.0043715
-0.0045478
-0.0046608
-0.0045293
-0.0042987
-0.0037105
-0.0028832
-0.002626
-0.0026026
-0.0021499
-0.0020338
-0.0022828
-0.002435
-0.0027503
-0.0034323
-0.0035841
-0.003705
-0.0039544
-0.0032462
-0.0028579
-0.0031573
-0.0034403
-0.0039243
-0.0043205
-0.0049019
-0.0059364
-0.0068362
-0.0068227
-0.0055714
-0.0044436
-0.003886
-0.0032665
-0.0028593
-0.0026959
-0.0023854
-0.0023903
-0.0031826
-0.0038285
-0.0037935
-0.0037497
-0.0036993
-0.0036357
-0.0036373
-0.0030799
-0.0020942
-0.0020327
-0.0025849
-0.0024622
-0.002517
-0.0033096
-0.0037835
-0.0033129
-0.0022849
-0.001075
-0.0011005
-0.0021017
-0.0028617
-0.0033725
-0.0038441
-0.0042128
-0.0043708
-0.004181
-0.0036786
-0.0032405
-0.0028812
-0.0025019
-0.0023951
-0.0026764
-0.0027607
-0.0024809
-0.0023094
-0.0021141
-0.0017939
-0.0016438
-0.0017357
-0.0020048
-0.0023744
-0.0023649
-0.0019178
-0.0012134
-0.00041568
0.0002575
0.00087498
0.00092198
0.0005234
7.4089e-05
-7.3084e-05
4.6798e-05
0.00015371
0.00012032
-0.00032659
-0.00045844
0.00037057
0.0010009
0.00065059
-0.00048263
-0.0021804
-0.0040664
-0.0057835
-0.007713
-0.0099258
-0.011374
-0.011313
-0.0098128
-0.0057179
0.00029623
0.0042559
0.0055438
0.0066069
0.0066558
0.0050427
0.0018595
-0.0037551
-0.01009
-0.013307
-0.012872
-0.010993
-0.0081234
-0.0052803
-0.0044613
-0.0027327
0.00029409
0.0012924
0.00079744
0.00031122
0.00029264
0.00079578
0.0008557
-0.00053086
-0.0027409
-0.0040499
-0.0041287
-0.0037057
-0.0029146
-0.0019004
-0.0020318
-0.0017674
0.00026369
0.001274
0.00097177
0.0002842
3.5611e-07
-0.00070781
-0.0014903
-0.00091103
0.0008041
0.0037333
0.0061711
0.0055114
0.0036476
0.0027613
0.0018812
0.0015633
0.0021719
0.0027238
0.0023755
0.0014795
0.0017865
0.003249
0.0031899
0.0016959
0.001025
0.0014669
0.0023774
0.0026792
0.0020824
0.0021268
0.0032665
0.0037047
0.0028642
0.0025207
0.0034967
0.0044458
0.0045081
0.0039826
0.0030925
0.0017657
0.00099907
0.0010614
0.00092418
0.00032866
-0.0013232
-0.0042048
-0.0072442
-0.0096627
-0.011511
-0.013047
-0.014238
-0.014904
-0.014984
-0.014028
-0.011575
-0.0083974
-0.0055053
-0.0038843
-0.0041414
-0.0052444
-0.0058303
-0.0059541
-0.0062735
-0.0057259
-0.0031119
0.000746
0.004739
0.0087093
0.012582
0.015581
0.016421
0.014172
0.0089268
0.0027944
-0.0019298
-0.0063921
-0.010417
-0.011959
-0.011057
-0.0087384
-0.0040703
0.0018063
0.0058959
0.0086332
0.010643
0.012038
0.012953
0.011876
0.0086792
0.0068026
0.0067793
0.0069985
0.0068638
0.0053844
0.0027392
-7.0097e-06
-0.0018481
-0.0031424
-0.0045574
-0.0060732
-0.0066207
-0.005031
-0.0015163
0.00221
0.0039526
0.0036456
0.0026611
0.0019656
0.00092369
-0.0008483
-0.00337
-0.0055045
-0.0049462
-0.0020266
0.0016856
0.0044233
0.0046424
0.0036332
0.0035635
0.0031609
0.0010694
-0.0016815
-0.0034031
-0.002947
-0.00060651
0.0022602
0.0046281
0.0055056
0.0053303
0.0053852
0.005145
0.0043043
0.0027808
0.00081669
7.8964e-07
0.0013081
0.003056
0.0041422
0.0046345
0.0042799
0.0035525
0.0023783
0.00067156
-0.0013097
-0.0025315
-0.002603
-0.0022116
-0.0013998
-0.0005983
-0.00032427
-0.00030676
-0.00019871
-0.00081692
-0.0021332
-0.0034751
-0.0045561
-0.0047529
-0.0041687
-0.0031824
-0.0022672
-0.0015841
-0.00082639
-0.00040208
-0.00065607
-0.0015658
-0.0028687
-0.0043724
-0.0054262
-0.0056234
-0.0050673
-0.0040409
-0.0031579
-0.0026167
-0.0020419
-0.0013107
-0.00094889
-0.0012153
-0.0020749
-0.0030048
-0.0030137
-0.0023206
-0.0015072
-0.0010454
-0.00097532
-0.00082543
-0.00082524
-0.001452
-0.0025297
-0.0035821
-0.0047183
-0.0053309
-0.0049677
-0.0041809
-0.0036147
-0.003865
-0.0048725
-0.0060535
-0.006816
-0.0070925
-0.0072115
-0.0072319
-0.0069437
-0.0055172
-0.0031102
-0.00025241
0.0018859
0.0018396
0.00033243
-0.001135
-0.0022239
-0.0035321
-0.0051255
-0.006781
-0.0072775
-0.0056683
-0.0032914
-0.0014067
-0.00070752
-0.0011405
-0.0019235
-0.0024336
-0.0032585
-0.0046687
-0.0059658
-0.0066915
-0.0060504
-0.0039727
-0.0015649
-0.00025555
-0.00036376
-0.00096574
-0.0014641
-0.0019296
-0.0026069
-0.0036417
-0.0048394
-0.0048084
-0.0031366
-0.00081485
0.0015626
0.0026108
0.0020108
0.0014303
0.0011
6.0132e-05
-0.0013694
-0.0028394
-0.0040945
-0.0042838
-0.0032818
-0.0021855
-0.0013917
-0.00082713
-0.00059374
-0.00014838
0.00039888
0.00048175
0.00032724
0.00027612
0.00026292
0.00027061
0.0002557
0.00021917
0.00017588
9.5004e-05
6.9833e-05
0.00011354
0.00014261
0.00012077
8.2913e-05
6.2074e-05
5.7755e-05
6.0657e-05
5.4813e-05
4.1818e-05
1.3754e-05
-4.1475e-05
-4.295e-05
4.0013e-05
0.00010887
0.00011114
8.9249e-05
8.4782e-05
0.00010557
0.00015674
0.00019922
0.00019658
0.00017571
0.00013528
2.304e-05
-3.0182e-05
2.0462e-05
5.9304e-05
7.2991e-05
7.7705e-05
9.4001e-05
0.00013208
0.00016775
0.00016367
0.00013241
7.1829e-05
-1.0891e-05
-0.00010535
-0.00022416
-0.00027759
-0.00023106
-0.00017799
-0.00014239
-0.0001208
-0.00011399
-9.3323e-05
-7.5308e-05
-8.0295e-05
-9.0563e-05
-9.5338e-05
-9.1723e-05
-0.00017097
-0.00028833
-0.00030453
-0.00026715
-0.00023148
-0.00020164
-0.00016648
-0.00011548
-6.2688e-05
-6.0536e-05
-0.00010792
-0.00020349
-0.000335
-0.00053177
-0.00077007
-0.000892
-0.00086931
-0.00073881
-0.00056076
-0.00038283
-0.00026259
-0.00022165
-0.000216
-0.00023448
-0.00025671
-0.00029641
-0.00036772
-0.00048297
-0.00059417
-0.00054077
-0.00032366
-7.4045e-05
0.00013508
0.0002427
0.0003394
0.00046246
0.00053659
0.00062823
0.00074424
0.00074861
0.00073159
0.00073064
0.00063378
0.00059751
0.00068634
0.0006726
0.00050899
0.00036413
0.00030188
0.00026639
0.00026758
0.00032209
0.00037255
0.00047027
0.00054858
0.00064558
0.0011156
0.0016619
0.0018716
0.0017945
0.0015495
0.0011551
0.00057261
-0.00017252
-0.00090642
-0.0014568
-0.0018453
-0.0020266
-0.0019944
-0.0016822
-0.0010952
-0.00070789
-0.00062586
-0.00051829
-0.00049137
-0.00064761
-0.00083356
-0.0010085
-0.0010617
-0.00087496
-0.00064909
-0.00052576
-0.0004609
-0.00043269
-0.00044657
-0.00046669
-0.00046878
-0.00046196
-0.00054465
-0.00067765
-0.00072263
-0.0006932
-0.00063423
-0.00063415
-0.0005983
-0.00048921
-0.00053104
-0.00066564
-0.00075747
-0.00077387
-0.00060524
-0.00035005
-0.00016305
-3.562e-05
2.0882e-05
1.1201e-05
-1.4177e-05
-2.279e-05
1.2765e-05
6.77e-05
0.00022185
0.00044736
0.00051913
0.00044673
0.00030981
0.00016551
0.00013633
0.00030011
0.00047291
0.00049322
0.00055412
0.00069153
0.00079568
0.0008097
0.00072809
0.00059741
0.00050655
0.00048337
0.00035168
0.00017666
4.9302e-05
-6.1894e-05
-0.0001117
-9.4807e-05
-8.6254e-05
-8.6757e-05
-9.6245e-05
-0.00011117
-0.00011974
-0.00012026
-8.9115e-05
-5.407e-05
-7.1641e-05
-3.7022e-05
6.0096e-05
8.6475e-05
0.00010898
0.00018497
0.00025559
0.00028236
0.00027738
0.00025199
0.00024245
0.00024847
0.00028339
0.00052544
0.0008685
0.0011399
0.001317
0.0013933
0.0013861
0.0014119
0.0013918
0.0011993
0.00096032
0.00078857
0.00063952
0.00044978
0.00033336
0.00029128
0.00021817
0.0001166
2.0309e-05
-1.9971e-05
1.9014e-05
6.6762e-05
0.0001406
0.00023749
0.00027433
0.00024158
0.00016964
0.00016874
0.00025872
0.00035749
0.00043738
0.00049777
0.00054982
0.00057435
0.00054223
0.0004693
0.00039068
0.00032132
0.00024282
0.00014607
0.00010044
0.00012259
0.00016278
0.00022581
0.00026732
0.00027928
0.00032862
0.00039232
0.00044819
0.00050196
0.00054442
0.00061196
0.00058161
0.00045993
0.00042899
0.00043062
0.00038929
0.00035997
0.00038415
0.00042014
0.00050092
0.0006143
0.00064762
0.00052187
0.00024676
-7.2603e-05
-0.00040267
-0.00074048
-0.00094774
-0.00089464
-0.00068916
-0.00052267
-0.00040467
-0.00029476
-0.00020275
-0.00013388
-9.2434e-05
-6.191e-05
-6.5472e-05
-0.00010558
-0.00021051
-0.00038848
-0.00047039
-0.00039214
-0.00025941
-0.0001655
-8.4317e-05
-2.8707e-05
-8.2094e-06
-5.3833e-06
-3.2601e-05
-8.4139e-05
-0.00018753
-0.00031753
-0.00030845
-0.000189
-7.4377e-05
7.9228e-06
5.7473e-05
8.8776e-05
0.0001127
0.00010658
5.7749e-05
-5.7958e-05
-0.0002332
-0.00050909
-0.0007724
-0.0007818
-0.00062996
-0.00042887
-0.00018723
7.5253e-05
0.00031731
0.00051914
0.00063473
0.00057332
0.00029656
-9.4836e-05
-0.00061535
-0.0011067
-0.0013678
-0.001508
-0.0016322
-0.0017694
-0.0017975
-0.0018031
-0.001822
-0.0015234
-0.0011193
-0.0009359
-0.00076683
-0.00049826
-0.0002246
2.0263e-05
0.00014501
0.0001294
-4.429e-05
-0.00023372
-0.00034837
-0.00042714
-0.00052413
-0.00066621
-0.0007797
-0.00081557
-0.00080384
-0.00077171
-0.00070059
-0.00059907
-0.00051383
-0.00046668
-0.00055701
-0.00070477
-0.00087456
-0.0011057
-0.0011813
-0.0010827
-0.0008421
-0.00055191
-0.00030238
-0.00014137
5.1511e-05
0.00034704
0.00059778
0.00070802
0.00062558
0.00054984
0.00056557
0.0005878
0.00056289
0.00050998
0.00046356
0.00031256
4.968e-05
-0.00014251
-0.00022069
-0.00026874
-0.00021125
2.1082e-05
0.00025884
0.00041455
0.00053069
0.00072316
0.00094939
0.00092431
0.00071702
0.0004382
0.00018946
0.00015295
0.00019539
0.00021254
0.00025
0.00024941
0.00028598
0.00034923
0.00030947
0.00016802
4.4965e-05
4.5447e-05
0.00020266
0.00036903
0.00048199
0.00062612
0.00062497
0.00056897
0.00054548
0.00048596
0.00037647
0.00038305
0.00054361
0.00070279
0.00080217
0.00088439
0.0010128
0.0011916
0.0011777
0.00086859
0.00045912
0.00010899
-0.00010218
-8.7343e-05
6.6206e-05
0.0002581
0.00039587
0.00042025
0.00041826
0.00046913
0.00050647
0.00059304
0.00061943
0.00044796
0.00035149
0.00044417
0.00059415
0.00065544
0.00057831
0.00047859
0.00042516
0.00038755
0.00033817
0.00026577
0.00015185
3.2383e-05
-2.6408e-05
1.8361e-05
5.3648e-05
-2.2375e-06
-6.9591e-05
-0.00010509
-0.00011535
-0.00014021
-0.00016652
-0.0002963
-0.00056018
-0.00071778
-0.0006345
-0.00054627
-0.00044613
-0.0002236
-2.3159e-05
9.9903e-05
0.00014349
0.00010865
0.00014909
0.00023164
0.00025009
7.8996e-05
-0.00011266
-0.00017141
-0.00012629
4.9138e-05
0.00034859
0.00062684
0.0008304
0.00091647
0.00080438
0.0005376
0.00026805
9.9909e-05
1.9558e-05
0.00014387
0.00040827
0.00055326
0.00055247
0.0004863
0.00039529
0.00029018
0.00015982
6.679e-05
-4.4325e-05
-0.00020865
-0.00037664
-0.00043807
-0.00039974
-0.00033584
-0.00029309
-0.00026671
-0.00023278
-0.00020216
-0.00019628
-0.00024469
-0.00035868
-0.00051077
-0.00076284
-0.00099636
-0.0010623
-0.00088142
-0.00038052
0.00012947
0.00046245
0.0006382
0.00063948
0.00051795
0.00032731
9.0495e-05
-0.00016832
-0.00023354
4.6827e-05
0.00030178
0.00031651
0.00033067
0.00037901
0.00042846
0.00048492
0.00051124
0.00046876
0.00041242
0.00032265
0.00021327
0.00022618
0.00028125
0.00026359
0.00027652
0.00033061
0.00027399
0.00015113
4.9711e-05
-6.2525e-05
-0.00015766
-0.00016616
-0.00011526
-6.1832e-05
5.9765e-05
0.00021189
0.00031533
0.00037494
0.00039706
0.00036201
0.00028537
0.00018479
4.0419e-05
-0.00013169
-0.00035407
-0.00049622
-0.00047784
-0.0004239
-0.00040101
-0.00040055
-0.00040612
-0.00039698
-0.00040725
-0.00046469
-0.00060112
-0.00078287
-0.00083305
-0.00075303
-0.00065442
-0.00059373
-0.00056006
-0.00051954
-0.00045939
-0.00040061
-0.00036097
-0.00036489
-0.0003703
-0.00028055
-0.00013425
-1.8918e-05
5.5447e-05
0.0001279
0.0001848
0.00016246
8.383e-05
2.4121e-05
-8.5246e-05
-0.00018627
-0.00015449
-7.0943e-05
-2.5388e-05
1.1468e-05
5.0802e-05
8.125e-05
8.8616e-05
4.6545e-05
-5.3197e-05
-0.0002062
-0.0002783
-0.00022782
-0.000147
-0.00010403
-9.96e-05
-9.4923e-05
-8.0275e-05
-6.8922e-05
-8.9718e-05
-0.00020453
-0.00029394
-0.00022781
-0.00011117
-1.5293e-05
7.4586e-05
0.00016185
0.00021524
0.00021125
0.00015515
3.341e-05
-4.5254e-05
6.4522e-06
0.0001041
0.00019927
0.00028924
0.00038766
0.00047337
0.00054624
0.00059818
0.00058183
0.00060465
0.00077759
0.00099073
0.0010759
0.00099053
0.00082495
0.0006793
0.00058279
0.00048718
0.00039824
0.00030963
0.00023329
0.00017772
0.00015806
0.00015627
0.00014753
8.3008e-05
-6.6181e-06
-7.1338e-05
-0.00017828
-0.00025367
-0.00021312
-0.00015226
-0.00014094
-0.00015641
-0.0001675
-0.00016665
-0.00016253
-0.00017921
-0.00021732
-0.00015644
6.1593e-06
0.00014987
0.00023738
0.00030582
0.00038428
0.00040907
0.00038412
0.00033787
0.00024276
0.00020526
0.00027968
0.00036698
0.00043644
0.00046869
0.00044643
0.00039628
0.00035447
0.00035614
0.00035151
0.0003387
0.00042326
0.00054893
0.00061313
0.00060579
0.00058305
0.00057552
0.00056212
0.00052322
0.00044711
0.00029963
0.00016582
0.00013283
0.00013535
0.00011799
6.5343e-05
2.2251e-05
-8.1355e-06
-5.4464e-05
-0.00012902
-0.00027666
-0.00036605
-0.00026903
-0.00012107
-1.0248e-05
6.4956e-05
0.00011605
0.00014691
0.00013715
7.0653e-05
-2.7798e-05
-0.00019312
-0.00028609
-0.0002237
-0.00012048
-2.8708e-05
2.6456e-05
4.6185e-05
6.3786e-05
5.0706e-05
-1.2811e-05
-0.00010277
-0.00021206
-0.00015826
8.1462e-05
0.00030446
0.0004197
0.0004191
0.00032988
0.00021722
7.6192e-05
-7.0103e-05
-0.00025397
-0.00061028
-0.00081208
-0.00079214
-0.00074764
-0.00069014
-0.00065592
-0.00067591
-0.00066224
-0.00066551
-0.00071426
-0.00082645
-0.00099739
-0.0010531
-0.00092926
-0.00075692
-0.00064457
-0.00054769
-0.0004421
-0.00036491
-0.00032879
-0.0003015
-0.00038342
-0.00043453
-0.00030555
-0.00015586
-3.0775e-05
8.4375e-05
0.00018121
0.0002743
0.00032727
0.00034743
0.00034681
0.00030221
0.00014706
-0.00011465
-0.00031234
-0.00042803
-0.0004113
-0.00024817
-3.8501e-05
0.00024596
0.00058542
0.00078317
0.00081631
0.00069582
0.00043815
0.00025434
0.00021633
0.00025232
0.00026297
0.00025246
0.00025366
0.00026333
0.00023229
0.00016711
0.00011057
5.8621e-05
3.0145e-05
6.2282e-05
0.0001408
0.00021137
0.00027681
0.00036963
0.00051827
0.00064677
0.00074502
0.00087978
0.00091088
0.00085008
0.00084071
0.00085199
0.00082975
0.00074195
0.00066511
0.00058285
0.00049662
0.00042115
0.00037537
0.00036508
0.000354
0.00034187
0.0003503
0.00038472
0.00040735
0.00041591
0.00043745
0.00046253
0.00046946
0.00043407
0.00038218
0.00031371
0.00024583
0.00023755
0.00027257
0.00029006
0.00027077
0.00021227
0.00010392
0.0001056
0.00025865
0.0003565
0.00031458
0.00018078
8.1902e-05
5.9498e-05
7.2737e-05
7.3735e-05
8.6557e-05
0.00014886
0.00023533
0.00028196
0.00026397
0.00014549
-0.00013547
-0.00040764
-0.0004039
-0.0001767
1.2637e-05
0.00015801
0.00029929
0.00038386
0.00033491
0.00016128
-6.8699e-05
-0.00038913
-0.00060063
-0.00058222
-0.00052003
-0.00044374
-0.00037262
-0.00031742
-0.00026582
-0.00019902
-7.9997e-05
5.7677e-05
0.00023295
0.0003907
0.00048505
0.00059369
0.00064787
0.00069159
0.00074587
0.00072819
0.00060201
0.00049016
0.00044919
0.00047104
0.00055171
0.00061456
0.00051099
0.00022727
-8.6522e-05
-0.00038476
-0.00065034
-0.00094651
-0.0012849
-0.0015621
-0.0016998
-0.0016542
-0.0014308
-0.0010933
-0.00076013
-0.00044977
-0.00014724
3.6205e-05
3.1231e-05
-0.00016653
-0.00036064
-0.00041992
-0.00039886
-0.00029196
-0.00017481
-0.00010431
6.2724e-05
0.00030516
0.00037763
0.00033254
0.00031295
0.00017325
-6.9139e-05
-0.00022958
-0.00034534
-0.00024715
9.5898e-05
0.00040897
0.00056049
0.00065256
0.00070307
0.0006899
0.0006399
0.00055281
0.00048783
0.00054137
0.00066655
0.0007632
0.00079847
0.00080317
0.00079978
0.00079183
0.00078629
0.00079719
0.00082299
0.00086197
0.00097967
0.001284
0.0016127
0.0017234
0.0016867
0.0015143
0.0013228
0.0011425
0.00098057
0.00080201
0.00059918
0.00038744
0.0002076
0.00013351
0.00018202
0.00026629
0.00027319
0.00023148
0.00016251
8.3942e-05
8.9484e-05
8.2968e-05
1.517e-05
-0.00011769
-0.00026362
-0.00040347
-0.00040104
-0.00016044
5.7641e-06
8.6646e-05
0.00032005
0.00059407
0.00074392
0.0007462
0.00059094
0.00037425
0.00011455
-0.00012917
-0.00011683
4.8817e-05
0.0001951
0.00032593
0.00043477
0.00047573
0.00058742
0.0006649
0.00063152
0.00063257
0.00064923
0.00061162
0.00057389
0.00067119
0.00071243
0.00061335
0.00049884
0.00041183
0.00028635
0.00013634
-1.3002e-05
-0.00012828
-0.00020909
-0.00031959
-0.00050395
-0.00060089
-0.00051248
-0.00035058
-0.00014707
-1.6794e-05
-2.3914e-05
-4.5904e-05
-8.8347e-05
-0.00015186
-0.00022371
-0.00029172
-0.00037021
-0.0004332
-0.00040759
-0.00032355
-0.00027977
-0.00027102
-0.00014335
-2.6862e-05
-6.9525e-05
-0.00015371
-0.00023246
-0.00034859
-0.00049527
-0.00060322
-0.00056156
-0.00043896
-0.00035671
-0.00026258
-0.0001654
-0.00011971
-9.6049e-05
-5.9352e-05
-4.3628e-05
-5.8729e-05
-5.8947e-05
-0.00011059
-0.00016079
-0.0001017
1.7826e-06
6.6172e-05
0.00010572
0.0001514
0.00019723
0.00022625
0.00020103
0.00013727
8.1991e-05
9.0844e-06
4.4343e-06
0.00010393
0.00018363
0.00027519
0.00039162
0.00040774
0.00040187
0.00043981
0.00045077
0.00041333
0.00033651
0.00019186
7.004e-05
7.4788e-05
0.0001818
0.00029493
0.00031314
0.00030395
0.00031292
0.00033619
0.00035755
0.00037866
0.00038031
0.00032271
0.00028223
0.00030696
0.00033015
0.00033008
0.00034314
0.00036006
0.00035587
0.00036767
0.000377
0.00035404
0.00029094
0.00019997
0.00015705
0.00017373
0.00023404
0.0003007
0.00031039
0.00032695
0.00039088
0.00044718
0.00044525
0.00037084
0.00027556
0.00019489
0.00019432
0.00025429
0.00025597
0.00024991
0.00025056
0.00024026
0.00021673
0.00020072
0.00019403
0.00015785
8.2082e-05
8.1034e-05
0.00017464
0.00028542
0.00038583
0.00039943
0.00040072
0.00055598
0.00070427
0.00073417
0.00075407
0.00083016
0.00097252
0.0011615
0.001433
0.0017087
0.0019138
0.0020877
0.0022304
0.0023525
0.0024314
0.0024244
0.0022936
0.0019983
0.0016335
0.0012582
0.00087113
0.00043597
-8.4172e-05
-0.00062594
-0.0013203
-0.0020006
-0.002408
-0.0025553
-0.002501
-0.0021767
-0.0016007
-0.0010307
-0.00057875
-0.00026353
-6.7718e-05
3.0016e-05
9.9362e-05
0.00014669
0.00010887
-5.0747e-05
-0.0002515
-0.00028141
-0.00017755
-6.5204e-05
-1.2913e-05
-0.00010159
-0.00023312
-0.00031782
-0.00036038
-0.00036411
-0.00035152
-0.00037739
-0.00041419
-0.00040661
-0.00036336
-0.00028261
-0.00020923
-0.00023436
-0.00029419
-0.00027135
-0.00021946
-0.00026333
-0.00036521
-0.00040672
-0.00030613
-0.00012763
3.6877e-05
0.00018516
0.00035581
0.00050347
0.00060591
0.00067055
0.00076197
0.00094775
0.0010606
0.0010108
0.00089859
0.00088382
0.00089342
0.0008214
0.00066966
0.00043182
0.00010651
-7.0601e-05
-8.937e-05
-2.9498e-05
0.00012582
0.00036178
0.00074856
0.001101
0.001216
0.0011397
0.00084542
0.00039207
0.00016324
0.00010756
0.00010781
0.00019972
0.00028541
0.00028039
0.00023266
0.00021506
0.00025906
0.00027005
0.000263
0.00042093
0.00061933
0.0007389
0.00074786
0.00060091
0.000249
-0.00032059
-0.00078723
-0.0009611
-0.00092688
-0.00078022
-0.00053236
-0.00034685
-0.00018862
5.6628e-06
0.00018713
0.00028484
0.00033271
0.00036488
0.00037972
0.00035789
0.00027126
0.00016921
5.2542e-05
-5.5183e-05
-5.4086e-05
2.3671e-06
9.9815e-06
2.7134e-06
-3.6195e-05
-9.2377e-05
-9.3541e-05
-5.0138e-05
6.7268e-05
0.00024931
0.00043886
0.00062842
0.00074143
0.00077027
0.00062687
0.00039796
0.00032575
0.00039626
0.00042782
0.00035765
4.453e-05
-0.00031511
-0.00046168
-0.00024346
0.00017803
0.00043889
0.0002684
-0.00014343
-0.00036857
-0.00042419
-0.00042386
-0.0004581
-0.00039814
-0.00026367
-3.2629e-05
0.00042383
0.00092432
0.0011858
0.0010841
0.00054744
-0.00015838
-0.0007171
-0.001103
-0.0013426
-0.0013836
-0.0012417
-0.00093562
-0.00051915
-0.00017302
2.3243e-05
0.000133
0.00017887
0.00014894
0.00019551
0.00032538
0.00051332
0.00074034
0.00093624
0.0010684
0.001067
0.00092776
0.00075454
0.00060035
0.00045127
0.00033888
0.0002939
0.00037308
0.00056253
0.00078174
0.00090426
0.00097209
0.00098146
0.00084813
0.00066443
0.00045759
0.00033079
0.00032071
0.00033421
0.00033441
0.00037872
0.00036149
0.00034136
0.00044112
0.00048487
0.00056276
0.00064079
0.00056934
0.00052334
0.00051026
0.00044133
0.00038613
0.00036747
0.00034617
0.00034748
0.00038057
0.00042745
0.00039339
0.00030396
0.00033829
0.00048081
0.0006064
0.00070961
0.00086986
0.0010392
0.0011291
0.001074
0.00090816
0.00066634
0.00046294
0.00048255
0.00046905
0.00034451
0.00019668
6.51e-05
-5.1436e-05
-0.00015091
-0.00022296
-0.00022264
-0.00017917
5.6841e-06
0.00026612
0.00044419
0.00057685
0.00072912
0.00083512
0.00085164
0.00080875
0.00077007
0.00072487
0.00074687
0.00084269
0.00086538
0.00087325
0.00091713
0.0010082
0.0010551
0.0010162
0.0008427
0.00038293
-0.00026582
-0.00091015
-0.0014243
-0.0018129
-0.0021323
-0.0022733
-0.0022186
-0.0019877
-0.0016422
-0.0013763
-0.0011474
-0.00082861
-0.00052543
-0.00030941
-0.00017529
-0.00012694
-0.00014309
-0.00017361
-0.0001898
-0.00025576
-0.00038572
-0.00042219
-0.0003591
-0.00023552
-9.4945e-05
-3.7864e-05
-5.7441e-05
-0.0001077
-0.00019085
-0.00030614
-0.00047941
-0.0006115
-0.00056369
-0.00040667
-0.00022891
-2.9245e-05
0.00017442
0.00033373
0.00037475
0.00034113
0.00030272
0.00022978
0.00025815
0.00039124
0.00047946
0.00053664
0.00060469
0.00064903
0.00063078
0.00054929
0.00046009
0.00036887
0.00031578
0.00036313
0.00046041
0.00056365
0.00063978
0.00066133
0.00064845
0.00061433
0.00055846
0.00045078
0.00034317
0.00035901
0.0004403
0.00052312
0.00057811
0.00058306
0.00056745
0.00055498
0.00053309
0.00046945
0.00038978
0.00039927
0.00047465
0.000534
0.0005616
0.00056528
0.00055296
0.00053463
0.00050811
0.00046189
0.00037302
0.00030885
0.00032015
0.00035097
0.00037043
0.00037666
0.0003732
0.00034468
0.00028863
0.00023394
0.00018592
0.00017944
0.00024648
0.00033114
0.00039296
0.00042209
0.00043641
0.00043288
0.00043549
0.00044502
0.00038484
0.0003513
0.00041428
0.00047991
0.00046793
0.00041032
0.00034941
0.00027728
0.00018626
7.1919e-05
-1.4086e-05
1.0216e-05
0.0001222
0.00021728
0.00022074
0.00017879
0.00012405
6.659e-05
2.1219e-05
-3.9148e-05
-6.3297e-05
2.6608e-05
0.00016356
0.0002307
0.0002158
0.00016582
9.2606e-05
3.3402e-05
-3.7282e-05
-0.00013673
-0.0001448
-6.6622e-05
2.6027e-07
5.5792e-06
-3.2631e-05
-9.6534e-05
-0.00014318
-0.00018693
-0.00020187
-8.6567e-05
8.8901e-05
0.00018723
0.00019413
0.00019191
0.00021598
0.00024577
0.00020137
9.6876e-05
0.00010651
0.00016759
0.00018752
0.000221
0.00025818
0.00025452
0.00023647
0.00018214
0.00011496
0.00017334
0.00027399
0.00030688
0.00032356
0.00034909
0.00035785
0.00035198
0.00031882
0.00026707
0.00028685
0.0003661
0.00046853
0.00055214
0.00058187
0.00053249
0.00045991
0.0003641
0.00028884
0.00033942
0.00040893
0.00045083
0.0004638
0.00045334
0.00043231
0.00037678
0.00030741
0.00027231
0.00028625
0.00036478
0.00047407
0.00053677
0.00051664
0.00049345
0.0004996
0.00051483
0.00052836
0.00046362
0.00040547
0.00043039
0.00045032
0.00043028
0.0004102
0.00040447
0.00041356
0.00042983
0.00041634
0.00038951
0.0004206
0.00048373
0.00049055
0.00046741
0.00046464
0.00046272
0.00048115
0.00048758
0.00043394
0.0003438
0.00028506
0.00030855
0.00035572
0.00037623
0.00036385
0.00036833
0.00040049
0.00040293
0.00037346
0.00035408
0.000322
0.00028995
0.00029692
0.00029967
0.0002859
0.00029819
0.00034555
0.00036794
0.00037171
0.00037047
0.00036063
0.00033268
0.00028748
0.00027639
0.00031288
0.00034992
0.00037593
0.00039548
0.00040123
0.00039646
0.00037501
0.0003336
0.00028983
0.00023501
0.00021078
0.00024852
0.00029557
0.00032299
0.00032292
0.00030637
0.00030633
0.00031253
0.00032147
0.00033522
0.00030116
0.00030047
0.00042039
0.00060787
0.00081821
0.0010214
0.0012057
0.0014467
0.0017261
0.0018344
0.0017333
0.0014455
0.00086796
0.00030721
0.00015449
0.00020231
0.00032772
0.00048321
0.00056622
0.00071453
0.0009043
0.00093889
0.00081675
0.00068721
0.00066723
0.00066437
0.00065391
0.00064571
0.00060397
0.00051124
0.00038911
0.0002587
0.00012455
-2.5688e-06
-6.8664e-05
-6.7445e-06
0.00013147
0.00023534
0.00022238
5.5206e-05
-0.00015156
-0.00045855
-0.00074317
-0.00065077
-0.00042447
-0.00011238
0.00014901
0.00014537
-0.00010365
-0.00042327
-0.00069465
-0.00072477
-0.00053424
-0.0003743
-0.0003775
-0.00041226
-0.0003078
-0.00015288
-0.00015517
-0.00020693
-0.0001185
-7.649e-06
7.8351e-06
4.0703e-05
0.00012484
0.00021244
0.00028862
0.00035602
0.00041861
0.00050063
0.00059354
0.00066036
0.00066389
0.00061865
0.00055776
0.00044276
0.00038604
0.00048039
0.000593
0.00063407
0.00057289
0.00045382
0.00035255
0.00031691
0.00032995
0.00036865
0.00040793
0.00044992
0.00045947
0.00052632
0.00080346
0.0012115
0.0015952
0.0018679
0.0019905
0.0019568
0.001864
0.0017876
0.0016718
0.0015368
0.0014421
0.001365
0.0013066
0.001264
0.00123
0.001148
0.00091049
0.00051143
1.6112e-05
-0.00057871
-0.0012004
-0.001707
-0.0020956
-0.002386
-0.0025424
-0.00256
-0.0023333
-0.0018744
-0.0015375
-0.0012377
-0.00081287
-0.00042571
-0.00021421
-0.00010955
-5.2998e-05
2.5175e-05
0.00020199
0.00037378
0.00047696
0.00049143
0.00045119
0.00039507
0.00036956
0.00034115
0.00032006
0.00026335
0.00015505
0.00019207
0.00036985
0.0005391
0.00065873
0.0007351
0.00078815
0.00083628
0.00079075
0.00068039
0.00047902
0.00015701
6.5028e-05
0.00021188
0.00033277
0.00035708
0.00033926
0.00031529
0.00028556
0.0001955
6.2664e-05
-9.0052e-05
-0.00030648
-0.0004047
-0.00032314
-0.00021078
-0.00012534
-6.8454e-05
-2.048e-05
4.3739e-05
5.8492e-05
5.4844e-06
-0.00012317
-0.00032246
-0.00040141
-0.000305
-0.0001621
-4.8656e-05
3.5996e-05
9.168e-05
0.00010932
7.7419e-05
8.3847e-05
7.6378e-05
3.3789e-05
0.00011567
0.00026942
0.00039208
0.0004786
0.0005467
0.00059768
0.00065321
0.00065925
0.00061864
0.00056201
0.00048242
0.00046337
0.00051876
0.00059542
0.00066238
0.00072167
0.0007736
0.00079802
0.0007907
0.00075102
0.0006954
0.00059539
0.00051553
0.00053774
0.00060656
0.0006649
0.00070568
0.00072151
0.00071176
0.00070515
0.00069742
0.00068038
0.00060919
0.00050205
0.00045702
0.00046446
0.00048205
0.00049327
0.00048939
0.00047431
0.00047703
0.00047297
0.00044213
0.00039758
0.00031894
0.00027193
0.00031767
0.00038625
0.00042893
0.00045363
0.00048756
0.00051851
0.000547
0.00056289
0.00057897
0.00058744
0.00055905
0.00059682
0.00076834
0.0010092
0.0012055
0.0012659
0.0012349
0.0011639
0.0010728
0.00090006
0.00069776
0.00050255
0.0003372
0.00033513
0.00043824
0.0005052
0.00049394
0.0004519
0.00039609
0.00034426
0.00026895
0.00015386
3.0778e-05
-0.00010484
-0.00011613
2.2573e-05
0.00017387
0.00027544
0.00032929
0.00036586
0.00040691
0.00043247
0.00041301
0.00036466
0.00023259
0.0001231
0.0001914
0.00035031
0.00050269
0.00060375
0.00060722
0.00055207
0.00049676
0.00041134
0.00026648
0.00011629
-3.5992e-05
-0.00012768
-0.0001004
-3.8637e-05
-1.704e-05
