-55.48
-23.42
4.39
26.81
43.12
52.97
56.7
55.19
49.9
42.43
34.36
26.88
20.78
16.44
13.97
13.32
14.38
16.97
20.72
24.99
28.84
31.17
31
27.76
21.51
12.91
3
-7.19
-17.03
-26.43
-35.86
-46.09
-57.95
-71.93
-87.88
-104.65
-120.03
-130.98
-134.29
-127.46
-109.62
-81.94
-47.34
-9.77
26.83
59.39
86.02
105.94
119.06
125.66
126.18
121.25
111.75
98.9
84.14
68.92
54.55
42.02
32.01
24.85
20.59
19.05
19.79
22.12
25.2
28.17
30.24
30.94
30.04
27.53
23.51
18.05
11.13
2.68
-7.25
-18.42
-30.38
-42.53
-54.31
-65.29
-75.41
-84.95
-94.51
-104.83
-116.41
-129.02
-141.33
-150.84
-154.34
-148.84
-132.59
-105.86
-71
-31.8
7.59
43.71
74.37
98.59
116.22
127.48
132.68
132.36
127.45
119.39
109.97
101.04
94.19
90.46
90.42
94.18
101.46
111.59
123.52
135.85
146.94
155.24
159.38
158.37
151.65
139.08
121.05
98.49
72.84
45.91
19.47
-5.06
-26.86
-45.8
-62.26
-76.89
-90.27
-102.77
-114.45
-125.14
-134.59
-142.6
-149.23
-154.85
-160.1
-165.82
-172.87
-181.75
-192.25
-203.12
-211.97
-215.67
-211.07
-195.97
-169.9
-134.37
-92.58
-48.6
-6.36
31.06
61.8
85.17
101.33
110.94
114.91
114.23
110.01
103.32
95.26
86.86
78.93
72.13
66.85
63.31
61.56
61.56
63.22
66.38
70.73
75.78
80.81
84.94
87.25
87.05
84.05
78.45
70.84
61.98
52.48
42.63
32.42
21.66
10.22
-1.84
-14.16
-26.27
-37.64
-47.96
-57.24
-65.83
-74.35
-83.48
-93.78
-105.35
-117.67
-129.38
-138.4
-142.23
-138.59
-126.04
-104.49
-75.4
-41.37
-5.57
29.01
60
85.92
106.05
120.19
128.6
131.78
130.53
125.81
118.65
109.99
100.62
91.17
82.13
73.92
66.85
61.08
56.5
52.81
49.52
46.18
42.47
38.28
33.69
28.85
23.84
18.61
13.02
6.84
-0.02
-7.58
-15.71
-24.18
-32.8
-41.41
-49.99
-58.68
-67.86
-78.11
-90.04
-103.93
-119.25
-134.31
-146.35
-152.09
-148.65
-134.56
-110.26
-78.04
-41.35
-3.83
31.41
62.22
87.33
106.02
117.89
122.8
120.94
113.05
100.43
84.83
68.17
52.24
38.4
27.4
19.48
14.45
11.87
11.26
12.11
13.94
16.29
18.65
20.42
20.99
19.76
16.23
10.15
1.63
-8.88
-20.66
-32.89
-44.94
-56.45
-67.47
-78.35
-89.68
-102.15
-116.36
-132.41
-149.52
-165.67
-177.81
-182.42
-176.53
-158.75
-129.81
-92.47
-50.64
-8.43
30.8
64.77
92.28
112.87
126.5
133.45
134.22
129.62
120.7
108.66
94.68
79.87
65.17
51.38
39.24
29.36
22.21
18.02
16.72
17.88
20.82
24.62
28.19
30.45
30.35
27.23
20.92
11.85
0.93
-10.76
-22.33
-33.35
-43.89
-54.39
-65.51
-77.85
-91.85
-107.44
-123.72
-138.83
-149.94
-153.81
-147.7
-130.25
-102.11
-65.84
-25.22
15.72
53.55
85.97
111.75
130.46
142.12
147.05
145.77
139.12
128.2
114.36
99
83.51
69.09
56.72
47.15
40.83
37.87
37.93
40.31
44.01
47.92
51.06
52.72
52.51
50.34
46.3
40.54
33.18
24.24
13.71
1.69
-11.5
-25.38
-39.34
-52.85
-65.66
-77.95
-90.29
-103.52
-118.53
-135.74
-154.67
-173.53
-189.26
-198.04
-196.33
-181.96
-154.9
-117.4
-73.28
-26.92
17.78
57.93
91.75
118.28
137.19
148.6
153.15
151.92
146.31
137.79
127.61
116.71
105.69
95.02
85.19
76.83
70.66
67.31
67.14
70
75.15
81.28
86.82
90.25
90.56
87.44
81.35
73.16
63.86
54.08
43.96
33.19
21.28
7.84
-7.11
-23.1
-39.3
-54.79
-68.92
-81.43
-92.65
-103.39
-114.8
-127.99
-143.6
-161.21
-179
-193.77
-201.6
-198.89
-183.55
-155.78
-118.05
-74.42
-29.36
13.28
50.87
82
106.17
123.36
133.87
138.23
137.24
131.95
123.49
112.99
101.43
89.66
78.45
68.53
60.57
55.16
52.65
53.02
55.88
60.45
65.68
70.45
73.79
75.03
73.88
70.42
64.95
57.88
49.6
40.43
30.6
20.28
9.55
-1.6
-13.28
-25.59
-38.53
-51.87
-65.12
-77.63
-88.78
-98.3
-106.39
-113.79
-121.67
-131.32
-143.68
-158.8
-175.39
-190.78
-201.28
-203.16
-193.62
-171.79
-138.97
-98.29
-53.9
-9.9
30.33
64.59
91.75
111.49
124.08
130.18
130.72
126.82
119.68
110.45
100.13
89.56
79.38
70.16
62.36
56.35
52.42
50.68
51.01
53.05
56.17
59.53
62.19
63.26
62.06
58.21
51.76
43.06
32.69
21.21
9.02
-3.75
-17.25
-31.75
-47.46
-64.26
-81.56
-98.41
-113.72
-126.62
-136.76
-144.41
-150.4
-155.9
-162.05
-169.73
-179.14
-189.45
-198.67
-203.82
-201.57
-189.15
-165.36
-131.04
-88.95
-43.08
2.47
44.32
80.35
109.66
132.31
148.96
160.5
167.88
171.95
173.32
172.35
169.17
163.79
156.29
147.13
137.34
128.71
123.51
123.96
131.49
146.07
165.89
187.65
207.31
220.98
225.78
220.4
205.08
181.44
151.92
119.32
86.26
54.81
26.31
1.3
-20.3
-38.92
-55.03
-68.83
-80.05
-87.92
-91.41
-89.67
-82.55
-70.87
-56.56
-42.13
-29.97
-21.49
-16.5
-13.16
-8.39
1.17
17.99
42.71
73.56
106.66
137.02
160.01
172.7
174.61
167.5
154.43
138.5
121.8
105.06
88
69.96
50.59
30.1
9.16
-11.36
-30.66
-48
-62.64
-73.69
-80.3
-81.83
-78.28
-70.5
-60.2
-49.49
-40.39
-34.2
-31.2
-30.71
-31.52
-32.47
-32.91
-32.96
-33.4
-35.26
-39.45
-46.43
-56.08
-67.85
-80.99
-94.87
-109.1
-123.57
-138.41
-153.85
-170.15
-187.38
-205.08
-221.98
-235.8
-243.52
-242.1
-229.43
-205.23
-171.28
-131.05
-88.69
-48.09
-12.08
17.63
40.35
55.89
64.36
66.02
61.37
51.14
36.38
18.42
-1.22
-20.88
-38.96
-54.04
-65.15
-71.79
-74.02
-72.32
-67.35
-59.9
-50.72
-40.58
-30.3
-20.78
-12.9
-7.38
-4.55
-4.35
-6.28
-9.67
-13.85
-18.37
-23.05
-27.99
-33.58
-40.48
-49.61
-61.99
-78.19
-97.72
-118.5
-136.9
-148.48
-149.34
-137.38
-113.1
-79.37
-40.42
-0.58
36.82
69.67
96.83
117.58
131.27
137.35
135.7
126.8
111.9
92.71
71.02
48.4
26.05
4.91
-14.19
-30.41
-42.97
-51.31
-55.28
-55.33
-52.39
-47.75
-42.7
-38.29
-34.99
-32.75
-31.05
-29.22
-26.75
-23.27
-18.61
-12.62
-5.17
3.68
13.42
22.93
30.76
35.67
37.54
37.86
39.76
47.1
63.23
89.72
125.72
168.2
212.75
254.8
290.49
317.14
333.31
338.59
333.56
319.69
299.28
275.19
250.2
226.33
204.48
184.4
165.23
146.18
127.04
108.27
90.71
75.15
61.98
51.06
41.84
33.41
24.76
14.77
2.46
-12.81
-31.09
-51.63
-73.04
-93.64
-111.98
-127.32
-139.81
-150.41
-160.62
-172.02
-185.73
-201.89
-219.23
-234.95
-245.17
-245.85
-234.02
-208.92
-172.5
-129
-83.84
-42.16
-7.7
17.71
33.71
40.8
39.68
31.07
15.88
-4.47
-27.96
-52.32
-75.52
-96.33
-114.41
-129.96
-143.19
-153.91
-161.55
-165.48
-165.66
-162.9
-158.85
-155.49
-154.62
-157.31
-163.68
-173.13
-184.65
-197.24
-210.24
-223.37
-236.68
-250.48
-265.19
-281.3
-299.12
-318.3
-337.49
-354.15
-364.96
-366.73
-357.56
-337.6
-308.95
-274.97
-239.06
-203.71
-170.09
-138.37
-108.22
-79.2
-50.98
-23.08
5.16
34.47
65.17
96.71
127.54
155.46
178.4
195.29
206.61
214.22
220.69
228.25
237.99
249.61
261.78
272.91
281.79
287.92
291.37
292.35
290.83
286.47
278.81
267.59
253.09
236.17
218
199.62
181.46
163.2
143.81
121.97
96.6
67.55
36.07
4.96
-21.79
-39.93
-46.17
-39.17
-20.06
7.95
40.52
73.42
103.29
128.05
146.68
158.81
164.49
164.1
158.44
148.71
136.32
122.58
108.52
94.76
81.8
70.23
60.91
54.89
53.12
56.07
63.44
74.15
86.6
99.15
110.56
120.32
128.61
136.13
143.62
151.56
159.91
168.18
175.66
181.81
186.57
190.31
193.72
197.34
201.12
204.18
204.66
200.06
187.61
165.07
131.61
88.64
40.15
-7.72
-48.02
-74.75
-84.5
-77.06
-55.08
-22.91
14.67
53.12
88.46
117.25
136.68
145.06
141.94
128.21
105.45
75.38
39.52
-0.48
-42.12
-81.82
-115.22
-138.3
-148.8
-147.03
-135.81
-119.5
-102.6
-88.51
-79.02
-74.34
-73.7
-76.04
-80.45
-86.37
-93.49
-101.48
-109.83
-117.85
-124.8
-130.18
-133.9
-136.33
-138.24
-140.7
-144.9
-151.97
-162.58
-176.43
-191.82
-205.54
-213.48
-211.62
-197.43
-170.72
-133.78
-90.7
-46.21
-4.54
31.27
59.57
79.85
92.34
97.77
97.17
91.78
82.93
71.96
60.12
48.56
38.28
30.14
24.85
22.84
24.18
28.54
35.2
43.19
51.4
58.79
64.49
67.93
68.77
66.94
62.58
55.98
47.55
37.76
27.09
15.96
4.75
-6.29
-17.07
-27.65
-38.25
-49.12
-60.36
-71.86
-83.25
-94.04
-103.78
-112.23
-119.5
-126.16
-133.17
-141.72
-152.8
-166.58
-181.86
-195.87
-204.79
-204.73
-193.01
-169.08
-134.81
-93.85
-50.65
-9.34
26.99
56.55
78.67
93.57
101.96
104.88
103.51
99.04
92.58
85.1
77.43
70.27
64.18
59.67
57.15
56.94
59.19
63.77
70.24
77.78
85.31
91.67
95.82
97.16
95.59
91.51
85.65
78.78
71.51
64.15
56.78
49.39
41.98
34.63
27.42
20.41
13.54
6.76
0.08
-6.38
-12.46
-18.08
-23.34
-28.55
-34.2
-40.73
-48.35
-56.95
-66.07
-75.11
-83.53
-91.16
-98.24
-105.43
-113.68
-123.97
-137.02
-152.81
-170.25
-187
-199.79
-205.13
-200.34
-184.45
-158.57
-125.66
-89.63
-54.36
-22.9
2.99
22.69
36.52
45.46
50.91
54.55
58.15
63.31
71.15
82.15
96.15
112.32
129.51
146.45
161.94
174.99
184.8
190.72
192.21
188.77
180.1
166.21
147.61
125.41
101.2
76.73
53.51
32.5
14.05
-1.94
-15.71
-27.37
-36.96
-44.67
-51.12
-57.27
-64.28
-72.96
-83.39
-94.85
-106.06
-115.6
-122.32
-125.58
-125.33
-122.05
-116.64
-110.25
-104.05
-99.03
-95.73
-94.31
-94.61
-96.47
-99.86
-105.02
-112.29
-121.77
-133.05
-144.95
-155.36
-161.58
-160.75
-150.62
-130.26
-100.5
-63.99
-24.7
12.95
45.17
69.58
85.64
94.34
97.59
97.36
95.07
91.36
86.39
80.32
73.73
67.67
63.35
61.62
62.77
66.59
72.77
81.25
92.18
105.45
120.23
134.62
145.98
151.76
150.47
142.34
129.22
113.92
99.13
86.59
76.56
67.95
58.79
47
31.12
10.78
-13.3
-39.79
-67.41
-95.41
-123.52
-151.6
-178.99
-204.38
-226.05
-242.62
-253.77
-260.35
-264.1
-266.93
-270.19
-274.37
-279.1
-283.39
-285.99
-285.61
-281.18
-271.97
-257.77
-239
-216.79
-192.91
-169.53
-148.84
-132.35
-120.16
-110.57
-100.41
-86.09
-65.12
-37.33
-5.09
27.57
56.6
79.42
95.63
106.73
115.11
123.1
132.36
143.94
158.47
176.32
197.36
220.65
244.16
265.02
280.14
287.1
284.9
274.26
257.29
236.71
214.98
193.65
173.24
153.52
133.99
114.22
93.93
72.88
50.73
27.12
2.04
-23.8
-48.78
-70.85
-88.56
-102.2
-114.28
-128.86
-149.9
-179.24
-215.38
-253.48
-286.95
-309.47
-316.92
-308.41
-286.15
-254.61
-219.26
-185.5
-157.63
-138.29
-128.17
-126.11
-129.68
-135.75
-141.24
-143.57
-140.96
-132.52
-118.37
-99.5
-77.46
-54
-30.65
-8.45
12.12
31.04
48.53
64.9
80.33
94.73
107.67
118.42
126.22
130.54
131.48
129.84
126.97
124.43
123.43
124.4
126.86
129.56
130.82
129.05
123.08
112.54
98.2
81.96
66.69
55.55
51.07
54.39
64.92
80.54
98.43
115.94
131.37
144.17
154.57
162.94
169.21
172.54
171.56
164.9
151.85
132.79
109.23
83.55
58.42
36.27
19
7.85
3.33
5.07
11.69
20.75
29.13
33.81
32.73
25.45
13.33
-1.09
-15.02
-26.39
-34.32
-39.05
-41.4
-42.16
-41.82
-40.64
-38.85
-36.86
-35.21
-34.48
-35.16
-37.57
-41.79
-47.33
-52.86
-56.16
-54.34
-44.71
-25.65
2.68
38.26
77.68
116.91
152.04
180.03
199.05
208.8
210.54
206.74
200.35
193.83
188.44
184.01
179.44
173.53
165.76
156.5
146.72
137.4
128.92
121
112.98
104.42
95.5
87.11
80.47
76.67
76.17
78.85
84.17
91.57
100.63
110.82
121.08
129.41
133.03
128.99
115.11
90.6
56.38
14.7
-31.21
-77.62
-120.52
-156.02
-180.9
-193.33
-193.43
-183.25
-166.17
-145.71
-124.59
-104.2
-84.97
-67.05
-50.9
-37.42
-27.59
-21.86
-19.83
-20.41
-22.32
-24.68
-27.28
-30.45
-34.58
-39.59
-44.78
-48.94
-50.9
-50.01
-46.33
-40.62
-33.96
-27.5
-22.14
-18.44
-16.62
-16.64
-18.26
-21.26
-25.56
-31.38
-39.12
-49.11
-61.19
-74.44
-87.14
-97.12
-102.34
-101.4
-93.87
-80.37
-62.24
-41.31
-19.54
1.19
19.23
33.41
43.29
49.39
53.04
55.99
59.84
65.41
72.58
80.36
87.44
92.7
95.63
96.37
95.51
93.76
91.7
89.67
87.81
86.18
84.78
83.58
82.46
81.21
79.55
77.12
73.68
69.06
63.19
56.06
47.75
38.46
28.72
19.41
11.76
6.99
5.99
8.99
15.43
24.16
33.72
42.75
50.24
55.54
58.4
58.77
56.78
52.7
46.9
39.86
32.05
23.88
15.72
7.78
0.2
-6.93
-13.55
-19.6
-25.05
-29.86
-34.06
-37.7
-40.86
-43.62
-46.1
-48.43
-50.77
-53.39
-56.68
-61.12
-67.21
-75.19
-84.8
-95.12
-104.61
-111.49
-114.22
-112.04
-105.16
-94.69
-82.23
-69.37
-57.3
-46.72
-37.89
-30.87
-25.66
-22.21
-20.34
-19.8
-20.24
-21.36
-22.97
-25.01
-27.47
-30.27
-33.2
-35.93
-38.12
-39.51
-40.04
-39.83
-39.09
-38.1
-37.15
-36.55
-36.63
-37.7
-40.06
-43.94
-49.47
-56.59
-64.93
-73.73
-81.81
-87.69
-89.88
-87.32
-79.67
-67.5
-52.08
-35.05
-18.04
-2.33
11.24
22.21
30.4
35.84
38.68
39.24
37.97
35.32
31.71
27.46
22.81
17.91
12.9
7.92
3.05
-1.57
-5.78
-9.42
-12.34
-14.59
-16.37
-18.13
-20.39
-23.61
-27.99
-33.49
-39.8
-46.4
-52.59
-57.46
-59.95
-59.06
-54.06
-44.79
-31.74
-16.01
0.98
17.71
32.89
45.61
55.34
61.96
65.6
66.5
64.93
61.17
55.56
48.56
40.79
32.83
25.15
17.91
11.03
4.32
-2.27
-8.58
-14.31
-19.17
-23.08
-26.24
-28.98
-31.68
-34.53
-37.68
-41.32
-45.72
-51.12
-57.47
-64.12
-69.79
-72.78
-71.52
-65.12
-53.72
-38.46
-21.04
-3.28
13.35
27.91
39.87
48.96
55.03
57.94
57.72
54.59
49.07
42
34.43
27.51
22.19
18.99
17.88
18.29
19.45
20.68
21.76
22.98
24.98
28.36
33.42
39.95
47.24
54.28
59.97
63.31
63.71
61.29
57.3
54.24
55.36
63.69
80.82
106.05
136.39
167.48
195.06
216.29
230.41
238.4
242.07
243.17
242.84
241.58
239.64
237.26
234.8
232.64
231.02
229.9
229.05
228.09
226.64
224.41
221.27
217.11
211.87
205.41
197.49
187.77
175.91
161.72
145.37
127.4
108.63
89.85
71.43
53.25
34.83
15.92
-2.96
-20.34
-34.28
-43.15
-46.49
-45.28
-41.64
-37.92
-36
-36.82
-40.54
-46.89
-55.42
-65.66
-76.96
-88.46
-99.17
-108.24
-115.06
-119.44
-121.49
-121.52
-120.05
-117.69
-115.05
-112.6
-110.52
-108.77
-107.29
-106.19
-105.92
-107.04
-109.96
-114.64
-120.56
-126.94
-132.93
-137.81
-140.91
-141.49
-138.73
-131.95
-120.99
-106.6
-90.43
-74.64
-61.35
-52
-47.26
-47.14
-51.43
-59.89
-72.35
-88.48
-107.6
-128.55
-149.88
-170.13
-188.3
-204.15
-218.18
-231.39
-244.63
-258.14
-271.37
-283.33
-293.18
-300.95
-307.67
-315.12
-325.17
-339.21
-357.89
-381.09
-408.05
-437.24
-466.24
-491.88
-510.67
-519.7
-517.42
-504.05
-481.34
-451.99
-418.89
-384.62
-351.28
-320.31
-292.63
-268.5
-247.59
-229.11
-212.1
-195.8
-179.76
-163.92
-148.35
-133.2
-118.54
-104.37
-90.65
-77.43
-64.89
-53.22
-42.61
-33.05
-24.3
-15.96
-7.55
1.26
10.57
20.14
29.51
38.13
45.63
52.05
57.88
63.93
70.97
79.39
89.03
99.27
109.41
119
128.09
137.17
146.89
157.85
170.4
184.44
199.29
213.55
225.22
232.11
232.54
226.06
213.69
197.69
180.72
165.01
151.8
141.37
133.38
127.36
122.89
119.49
116.46
112.73
107
98.12
85.52
69.64
52.12
35.55
22.99
17.02
19.1
29.25
46.24
68.29
93.62
120.73
148.18
174.2
196.51
212.6
220.44
219.17
209.5
193.51
174
153.72
134.82
118.58
105.49
95.47
88.1
82.89
79.34
77.07
75.69
74.79
73.83
72.22
69.32
64.5
57.2
47.05
34.12
19.22
4.19
-8.22
-14.92
-13.25
-1.98
18.22
44.84
74.28
102.83
127.56
146.71
159.54
165.95
166.09
160.25
149.05
133.58
115.55
97.01
80.01
66.09
55.99
49.6
46.12
44.44
43.54
42.76
41.88
40.96
40.12
39.22
37.81
35.15
30.39
22.86
12.24
-1.13
-16.05
-30.45
-41.52
-46.33
-42.54
-29.31
-7.67
19.6
48.72
75.91
98.27
114.17
123.23
125.84
122.73
114.72
102.67
87.61
70.9
54.13
38.92
26.58
17.81
12.58
10.27
9.93
10.57
11.36
11.73
11.32
9.91
7.34
3.58
-1.27
-6.99
-13.34
-20.2
-27.63
-35.92
-45.14
-54.78
-63.35
-68.51
-67.62
-58.75
-41.51
-17.49
10.1
37.44
61.15
79.17
90.92
96.94
98.28
95.98
90.88
83.69
75.25
66.56
58.71
52.65
48.99
47.85
48.93
51.67
55.49
59.86
64.36
68.71
72.67
76.01
78.52
80.03
80.39
79.62
77.83
75.33
72.6
70.2
68.69
68.42
69.57
72.04
75.61
79.98
84.85
89.95
95.09
100.42
106.73
115.57
129.04
149.11
176.61
210.6
248.18
285.27
317.78
342.66
358.52
365.35
363.98
355.41
340.64
320.71
297.01
271.22
245.15
220.17
196.98
175.55
155.4
136.03
117.31
99.53
83.26
69.03
57.06
47.16
38.79
31.29
24.12
17.04
10.11
3.5
-2.61
-8.24
-13.62
-19.09
-24.89
-31.1
-37.49
-43.68
-49.25
-54.01
-58.04
-61.74
-65.65
-70.29
-75.95
-82.57
-89.84
-97.24
-104.3
-110.74
-116.64
-122.52
-129.28
-137.87
-148.7
-161.08
-173.03
-181.83
-185.11
-182.04
-174.03
-164.39
-157.06
-155.29
-160.68
-173.1
-191.12
-212.44
-233.94
-251.71
-261.38
-259.13
-243.11
-214.43
-177.15
-137.13
-100.2
-70.83
-51.57
-43.31
-45.81
-58
-77.68
-101.33
-124.29
-141.65
-149.67
-146.85
-134.31
-115.21
-93.62
-73.15
-56.27
-44.16
-37.22
-35.63
-39.8
-50.21
-67
-89.36
-115.09
-140.67
-161.87
-174.8
-177.11
-168.71
-151.92
-130.81
-109.94
-93.05
-82.24
-77.66
-77.99
-81.19
-85.25
-88.73
-90.79
-91.02
-89.05
-84.35
-76.24
-64.22
-48.4
-29.82
-10.44
7.27
21.07
29.54
32.41
30.35
24.44
15.61
4.42
-8.93
-24.14
-40.41
-56.35
-70.03
-79.49
-83.33
-81.11
-73.48
-61.9
-48.11
-33.7
-19.9
-7.7
1.94
7.99
9.59
6.61
0.08
-7.89
-14.69
-18.29
-17.96
-14.45
-9.34
-4.28
-0.34
2.01
2.57
1.13
-2.39
-7.51
-12.9
-16.64
-16.89
-12.84
-5.15
4.31
13.24
19.59
22.04
19.87
12.79
1.03
-14.27
-30.53
-43.68
-49.01
-42.77
-23.85
5.4
39.82
73.39
101.4
121.86
135.38
143.85
148.85
150.79
149.15
143.48
134.1
122.15
108.73
94.01
76.83
55.18
27.22
-7.86
-49.48
-96
-145.4
-195.91
-246.39
-296.22
-345.02
-392.05
-436
-474.99
-507.03
-530.6
-545.15
-551.15
-549.73
-541.94
-528.43
-509.2
-483.94
-452.61
-415.97
-375.72
-334.35
-294.72
-259.48
-230.57
-208.95
-194.47
-186.06
-182.04
-180.57
-180.06
-179.4
-177.86
-174.99
-170.35
-163.48
-153.99
-141.84
-127.54
-112.04
-96.49
-81.8
-68.39
-56.04
-44.32
-32.83
-21.46
-10.44
-0.13
9.19
17.51
25.05
32.18
39.27
46.53
53.97
61.41
68.53
75.06
80.8
85.79
90.3
94.77
99.62
105.16
111.38
118.01
124.62
130.82
136.46
141.75
147.09
153
159.85
167.86
177.15
187.71
199.33
211.3
222.32
230.59
234.27
232.14
224.09
211.14
194.88
176.79
157.56
137.18
115.55
93.33
72.37
55.46
45.36
43.73
50.55
64.29
82.85
104.44
128
152.83
177.88
201.2
220.08
231.96
235.39
230.64
219.54
204.63
188.35
172.41
157.89
145.44
135.7
129.25
126.48
127.29
130.95
136.2
141.54
145.59
147.34
146.36
142.82
137.32
130.61
123.29
115.59
107.33
98.13
87.66
75.89
63.2
50.17
37.52
25.74
15.02
5.23
-4.04
-13.4
-23.5
-34.8
-47.17
-59.55
-69.86
-75.31
-73.19
-61.8
-41.21
-13.38
18.37
50.23
78.88
102.1
118.87
129.2
133.65
133.09
128.41
120.5
110.25
98.59
86.5
75.02
65.09
57.47
52.52
50.22
50.18
51.79
54.38
57.37
60.25
62.65
64.24
64.68
63.68
60.99
56.49
50.25
42.55
33.85
24.66
15.52
6.83
-1.16
-8.42
-15.16
-21.82
-29.06
-37.53
-47.54
-58.65
-69.42
-77.55
-80.39
-75.82
-63.02
-42.89
-17.85
8.85
34.08
55.49
71.88
82.99
89.18
91.01
89.08
84.04
76.63
67.74
58.3
49.15
41
34.26
29.2
25.95
24.6
25.1
27.25
30.61
34.46
37.98
40.37
41.07
39.91
37.07
32.97
28.05
22.64
16.84
10.61
3.92
-3.15
-10.35
-17.34
-23.75
-29.4
-34.36
-39
-43.93
-49.77
-56.81
-64.67
-72.14
-77.26
-77.87
-72.32
-60.1
-42.13
-20.54
1.96
22.82
40.19
53.11
61.42
65.42
65.68
62.88
57.73
50.99
43.45
35.81
28.71
22.69
18.12
15.24
14.1
14.57
16.36
19.05
22.13
25.07
27.34
28.51
28.29
26.61
23.62
19.63
15
9.98
4.67
-0.98
-6.97
-13.26
-19.58
-25.59
-30.97
-35.56
-39.43
-42.89
-46.41
-50.5
-55.46
-61.15
-66.81
-71.11
-72.4
-69.24
-60.89
-47.65
-30.89
-12.64
4.95
20.12
31.77
39.53
43.5
44.13
41.93
37.49
31.41
24.35
16.96
9.84
3.49
-1.73
-5.52
-7.73
-8.34
-7.5
-5.55
-2.99
-0.37
1.81
3.18
3.55
2.9
1.34
-0.92
-3.69
-6.81
-10.22
-13.91
-17.93
-22.31
-26.95
-31.69
-36.27
-40.49
-44.31
-47.89
-51.61
-55.86
-60.84
-66.24
-71.12
-74.04
-73.52
-68.48
-58.75
-45.16
-29.33
-13.16
1.62
13.89
23.12
29.27
32.55
33.2
31.45
27.57
22.02
15.41
8.52
2.17
-2.96
-6.43
-8.06
-7.9
-6.16
-3.22
0.41
4.1
7.21
9.27
10.05
9.61
8.21
6.11
3.51
0.49
-2.94
-6.72
-10.76
-14.91
-19.06
-23.07
-26.84
-30.27
-33.29
-35.99
-38.67
-41.77
-45.71
-50.5
-55.58
-59.74
-61.47
-59.4
-52.78
-41.82
-27.63
-11.89
3.55
17.12
27.76
35.04
39.02
40.09
38.8
35.7
31.34
26.23
20.88
15.74
11.23
7.66
5.26
4.18
4.48
6.14
8.98
12.65
16.6
20.16
22.74
23.96
23.69
22.11
19.51
16.22
12.5
8.58
4.58
0.6
-3.28
-7.02
-10.6
-13.95
-16.97
-19.53
-21.53
-23.05
-24.35
-25.84
-27.97
-30.95
-34.61
-38.23
-40.67
-40.61
-36.93
-29.07
-17.22
-2.33
14.16
30.7
45.9
58.74
68.57
75.01
77.96
77.51
74.07
68.32
61.16
53.63
46.79
41.72
39.5
41.24
47.89
60.09
77.89
100.66
127.06
155.27
183.24
209.03
231.01
248.17
260.26
267.66
271.11
271.36
268.68
262.74
252.75
237.88
217.79
192.9
164.35
133.59
101.97
70.3
38.81
7.28
-24.65
-57.2
-90.2
-122.91
-154.03
-181.77
-204.13
-219.38
-226.42
-225.07
-216.19
-201.42
-182.88
-162.71
-142.82
-124.67
-109.19
-96.78
-87.34
-80.36
-75.1
-70.79
-66.88
-63.17
-59.79
-57.02
-55.01
-53.62
-52.29
-50.24
-46.78
-41.73
-35.52
-29.21
-24.19
-21.78
-22.91
-27.88
-36.24
-46.93
-58.37
-68.82
-76.71
-81.1
-81.89
-79.74
-75.78
-71.13
-66.49
-62.03
-57.57
-52.83
-47.71
-42.36
-37.16
-32.61
-29.26
-27.62
-28.17
-31.04
-35.96
-42.04
-47.98
-52.49
-54.67
-54.32
-51.86
-48.13
-43.98
-40.06
-36.83
-34.66
-33.98
-35.22
-38.64
-44.11
-51.03
-58.48
-65.4
-70.91
-74.49
-76.04
-75.79
-74.16
-71.61
-68.52
-65.13
-61.58
-57.96
-54.39
-51.03
-48.14
-46.02
-44.97
-45.22
-46.85
-49.79
-53.74
-58.24
-62.73
-66.68
-69.67
-71.54
-72.35
-72.46
-72.35
-72.53
-73.26
-74.34
-75.08
-74.36
-71.06
-64.41
-54.32
-41.45
-26.88
-11.82
2.73
16.09
27.79
37.5
44.88
49.77
52.24
52.68
51.72
49.98
47.97
45.99
44.23
42.96
42.56
43.43
45.82
49.64
54.45
59.62
64.55
68.92
72.74
76.29
79.99
84.27
89.49
95.88
103.46
111.87
120.45
128.32
134.55
138.39
139.44
137.82
134.09
129.18
124.06
119.48
115.8
113.1
111.44
111.23
113.32
118.74
128.13
141.23
156.67
172.31
185.82
195.35
199.81
198.87
192.75
182.03
167.63
150.72
132.5
113.97
95.73
77.96
60.65
43.95
28.29
14.3
2.5
-7
-14.72
-21.64
-29
-37.92
-49.16
-63.01
-79.24
-97.14
-115.71
-133.9
-150.95
-166.66
-181.33
-195.46
-209.22
-221.96
-232.22
-238.09
-237.85
-230.51
-216.09
-195.41
-169.79
-140.59
-109.07
-76.31
-43.26
-10.83
20.22
49.31
76.09
100.45
122.48
142.39
160.43
176.63
190.63
201.57
208.28
209.56
204.73
194.03
178.75
161.02
143.28
127.6
115.29
106.71
101.54
99.1
98.58
98.99
98.9
96.37
89.1
75.08
53.3
24.31
-9.67
-45.18
-78.22
-104.88
-122.01
-127.62
-121.3
-104.5
-80.63
-54.54
-31.38
-15.14
-7.43
-7.16
-11.23
-16.06
-19.22
-20.22
-20.32
-21.46
-24.9
-30.36
-36.06
-39.47
-38.4
-31.78
-19.92
-4.2
13.38
30.69
45.7
56.67
62.34
62.1
56.23
45.76
32.21
17.06
1.33
-14.63
-31.03
-48.32
-66.83
-86.61
-107.36
-128.61
-149.78
-170.29
-189.56
-207.02
-222.14
-234.6
-244.32
-251.58
-257
-261.43
-265.68
-270.24
-274.97
-279.01
-280.91
-278.86
-271.22
-256.9
-235.77
-208.69
-177.42
-144.16
-111.03
-79.67
-51.01
-25.42
-2.99
16.29
32.43
45.56
56.1
64.73
72.29
79.44
86.46
93.19
99.19
104.04
107.57
109.9
111.37
112.31
112.91
113.13
112.72
111.41
108.97
105.39
100.85
95.66
90.14
84.58
79.13
73.86
68.77
63.72
58.62
53.36
47.97
42.53
37.13
31.81
26.51
21.27
16.23
11.65
7.83
4.87
2.59
0.57
-1.67
-4.43
-7.67
-11.14
-14.55
-17.89
-21.39
-25.41
-30.06
-35
-39.46
-42.42
-42.99
-40.69
-35.56
-28.14
-19.35
-10.26
-2.04
4.21
7.56
7.27
3.06
-4.83
-15.47
-27.31
-38.56
-47.66
-53.74
-56.9
-57.97
-58.02
-57.77
-57.17
-55.54
-52.03
-46.18
-38.4
-29.8
-21.69
-14.93
-9.46
-4.43
1.19
7.96
15.41
22.23
26.89
28.44
26.88
23.05
18.02
12.5
6.58
-0.06
-7.72
-16.43
-26.09
-36.78
-49.04
-63.55
-80.6
-99.38
-117.89
-133.36
-143.22
-146.03
-141.93
-132.38
-119.54
-105.43
-91.52
-78.6
-66.9
-56.38
-46.93
-38.57
-31.48
-25.95
-22.14
-19.81
-18.18
-16.07
-12.32
-6.21
2.23
12.15
22.17
30.69
36.33
38.31
36.64
32.15
26.32
20.79
16.79
14.74
14.24
14.51
14.92
15.33
15.95
16.98
18.15
18.81
18.29
16.34
13.47
10.69
9.03
8.96
10.13
11.54
12.01
10.6
6.92
1.06
-6.62
-15.58
-25.04
-33.75
-40
-41.84
-37.8
-27.4
-11.54
7.74
27.88
46.58
62.26
74.15
81.97
85.66
85.27
81.08
73.82
64.67
54.96
45.81
37.75
30.66
24.06
17.4
10.38
2.98
-4.62
-12.2
-19.61
-26.83
-33.83
-40.63
-47.36
-54.27
-61.82
-70.51
-80.59
-91.94
-103.92
-115.62
-126.02
-134.4
-140.57
-144.92
-148.32
-151.84
-156.4
-162.4
-169.55
-176.67
-182.03
-183.64
-179.85
-169.73
-153.26
-131.16
-104.6
-74.92
-43.35
-11.01
21.16
52.22
81.12
106.64
127.41
141.99
149.3
149
141.84
129.67
115.04
100.48
87.71
77.35
69.07
62.34
56.98
53.41
52.18
53.25
55.54
57.02
55.53
49.93
40.77
30.16
21
15.97
16.74
23.67
35.92
51.68
68.43
83.37
93.92
98.39
96.46
89.28
79.01
68.13
58.75
52.23
49.24
49.86
53.74
60.13
67.92
75.88
83.03
88.89
93.47
97.01
99.44
100.15
97.94
91.25
78.72
59.65
34.41
4.75
-26.24
-54.38
-75.39
-85.95
-84.89
-73.57
-55.52
-35.19
-16.53
-1.79
8.78
16.51
23.33
30.68
38.84
46.87
53.05
55.69
53.95
48.26
40.31
32.52
27.18
25.49
27.05
29.84
30.7
26.18
13.38
-9.29
-41.52
-80.89
-123.06
-162.42
-193.3
-211.17
-213.81
-201.71
-177.78
-146.34
-111.92
-78.26
-47.87
-22.18
-1.78
13.18
22.91
28.02
29.44
28.36
26.2
24.46
24.65
28.09
35.66
47.63
63.48
82
101.61
120.6
137.44
150.93
160.24
165
165.41
162.3
156.84
150.17
142.81
134.41
123.91
110.15
92.56
71.53
48.38
24.88
2.63
-17.28
-34.24
-47.83
-57.55
-62.73
-62.82
-57.71
-48.08
-35.27
-20.96
-6.71
6.37
17.68
27.05
34.37
39.52
42.28
42.54
40.43
36.41
31.24
25.78
20.88
17.21
15.22
15.09
16.7
19.68
23.49
27.61
31.66
35.51
39.05
42.05
44.03
44.37
42.56
38.53
32.72
25.93
18.98
12.29
5.84
-0.73
-7.88
-15.91
-24.86
-34.51
-44.4
-53.86
-62.07
-68.04
-70.82
-69.63
-64.11
-54.41
-41.25
-25.83
-9.71
5.46
18.28
27.78
33.56
35.89
35.43
33.02
29.55
25.75
22.22
19.38
17.54
16.81
17.16
18.37
20.11
22.08
24.04
25.84
27.4
28.57
29.06
28.54
26.68
23.32
18.57
12.75
6.28
-0.48
-7.39
-14.58
-22.4
-31.24
-41.25
-52.1
-62.9
-72.21
-78.4
-80.09
-76.33
-66.9
-52.16
-33.1
-11.14
11.92
34.12
53.59
68.92
79.33
84.84
86.1
84.09
79.81
74.17
67.88
61.51
55.52
50.26
45.97
42.87
41.1
40.68
41.44
42.94
44.48
45.33
44.85
42.72
38.86
33.35
26.29
17.8
8
-2.82
-14.2
-25.71
-37.09
-48.4
-59.86
-71.46
-82.58
-91.87
-97.64
-98.46
-93.92
-84.86
-73.18
-61.16
-50.64
-42.55
-36.88
-33.04
-30.42
-28.73
-28.1
-28.92
-31.53
-36.02
-42.15
-49.45
-57.22
-64.53
-70.15
-72.6
-70.46
-62.85
-49.95
-33.24
-15.21
1.36
14.3
22.69
27.06
28.87
29.81
30.99
32.72
34.49
35.42
34.63
31.55
25.95
18.14
8.86
-0.7
-9.12
-14.97
-17.14
-15.06
-8.84
0.78
12.5
24.72
35.78
44.29
49.38
50.81
48.94
44.59
38.69
32.15
25.6
19.49
14.07
9.45
5.65
2.67
0.52
-0.75
-1.1
-0.64
0.28
1.12
1.26
0.26
-1.93
-4.94
-8.15
-10.95
-13.07
-14.67
-16.32
-18.69
-22.33
-27.41
-33.57
-40
-45.5
-48.74
-48.59
-44.4
-36.26
-24.89
-11.55
2.39
15.67
27.41
37.16
44.82
50.49
54.33
56.4
56.7
55.25
52.31
48.57
45.13
43.17
43.39
45.58
48.46
50.18
49.1
44.55
37.03
27.8
18.12
8.53
-1.27
-12.2
-25.09
-40.06
-56.45
-73.16
-89.17
-103.68
-115.86
-124.61
-128.62
-126.85
-119.27
-107.05
-92.11
-76.14
-59.85
-42.87
-24.44
-4.57
15.5
33.33
46.32
52.67
51.87
44.49
31.46
13.68
-7.99
-32.15
-56.52
-78.11
-93.89
-101.79
-101.63
-95.14
-85.36
-75.46
-67.55
-62.24
-58.81
-56.07
-53.13
-49.89
-46.84
-44.6
-43.56
-43.73
-44.93
-46.94
-49.54
-52.35
-54.66
-55.5
-53.76
-48.64
-39.92
-28.06
-14.04
0.97
15.94
30.16
43.21
54.83
64.7
72.37
77.32
79.14
77.79
73.72
67.85
61.36
55.41
50.81
47.89
46.49
46.16
46.44
47.01
47.9
49.4
51.78
55.03
58.66
61.64
62.64
60.28
53.4
41.3
23.91
1.99
-22.67
-47.38
-68.89
-84.2
-91.28
-89.73
-80.74
-66.61
-49.86
-32.47
-15.6
0.27
14.96
28.23
39.74
49.17
56.55
62.33
67.3
72.21
77.56
83.37
89.4
95.38
101.23
107.17
113.52
120.42
127.63
134.43
139.9
143.18
143.9
142.2
138.66
133.9
128.3
121.83
114.11
104.69
93.41
80.77
67.84
56.18
47.26
42.01
40.47
41.77
44.45
46.87
47.59
45.61
40.43
31.92
20.28
6.01
-10.12
-27.09
-43.72
-58.86
-71.57
-81.24
-87.6
-90.77
-91.16
-89.43
-86.37
-82.73
-79.15
-76.07
-73.8
-72.53
-72.4
-73.36
-75.2
-77.61
-80.22
-82.92
-85.96
-89.9
-95.3
-102.3
-110.22
-117.56
-122.42
-123
-118.25
-108.12
-93.49
-75.81
-56.69
-37.63
-19.82
-4.27
8.24
17.12
22.05
23.04
20.46
14.98
7.52
-0.96
-9.52
-17.3
-23.64
-28.08
-30.38
-30.64
-29.28
-26.97
-24.54
-22.78
-22.19
-22.91
-24.77
-27.36
-30.34
-33.49
-36.81
-40.49
-44.74
-49.66
-55.13
-60.77
-65.92
-69.64
-70.79
-68.24
-61.12
-49.23
-33.1
-13.86
7.1
28.64
49.95
70.46
89.43
105.75
118.13
125.6
128.1
126.57
122.75
118.47
115.07
113.16
112.79
113.78
115.97
119.12
122.79
126.21
128.42
128.58
126.37
122.1
116.58
110.78
105.35
100.32
95.03
88.39
79.28
66.97
51.43
33.34
13.95
-5.21
-22.7
-37.47
-48.99
-57.31
-62.72
-65.58
-66.1
-64.38
-60.66
-55.52
-50.01
-45.42
-42.85
-42.83
-45.24
-49.32
-54.02
-58.18
-60.68
-60.43
-56.74
-49.48
-39.5
-28.49
-18.57
-11.53
-8.16
-8.23
-10.79
-14.87
-19.81
-25.28
-30.9
-35.93
-39.38
-40.49
-39.28
-36.79
-34.69
-34.52
-36.85
-40.95
-45.06
-47.26
-46.24
-41.79
-34.77
-26.56
-18.38
-10.9
-4.2
1.94
7.61
12.49
16.02
17.79
17.91
17.06
16.22
16.08
16.8
17.95
18.92
19.4
19.59
20.04
21.32
23.62
26.7
30.04
33.17
35.76
37.59
38.48
38.19
36.48
33.28
28.71
23.13
16.94
10.61
4.67
-0.14
-2.84
-2.32
2.28
11.27
24.13
39.61
56.06
71.77
85.33
95.65
101.95
103.7
100.59
92.71
80.59
65.28
48.21
30.91
14.68
0.44
-11.37
-20.64
-27.49
-32.17
-35.08
-36.78
-38.1
-40.13
-43.98
-50.52
-59.91
-71.47
-83.6
-94.2
-101.24
-103.31
-99.97
-91.81
-80.1
-66.46
-52.34
-38.76
-26.09
-14.04
-1.8
11.71
27.48
46.02
67.26
90.45
114.45
137.95
159.77
179
194.99
207.32
215.6
219.54
218.84
213.37
203.25
189.04
171.79
152.98
134.27
117.19
102.77
91.34
82.55
75.58
69.53
63.7
57.73
51.49
44.94
37.93
30.1
21.01
10.31
-2.14
-16.24
-31.7
-48.21
-65.49
-83.34
-101.59
-120.09
-138.76
-157.63
-176.77
-196.13
-215.33
-233.55
-249.52
-261.86
-269.48
-271.87
-269.23
-262.32
-252.06
-239.37
-224.98
-209.57
-193.83
-178.43
-163.97
-150.81
-138.95
-128.14
-117.9
-107.75
-97.29
-86.32
-74.89
-63.26
-51.86
-41.23
-31.85
-24.04
-17.96
-13.53
-10.53
-8.71
-7.77
-7.55
-7.94
-8.9
-10.31
-11.96
-13.47
-14.43
-14.5
-13.47
-11.33
-8.04
-3.44
2.79
11.04
21.55
34.18
48.34
63.06
77.23
89.9
100.55
109.39
117.3
125.82
136.73
151.56
171.05
194.72
220.86
246.74
269.04
284.45
290.17
284.48
267.02
238.96
202.77
161.81
119.71
79.87
45.03
17.13
-2.72
-14.3
-18.23
-16.02
-9.82
-2.03
5.21
10.4
12.91
12.72
10.15
5.54
-0.99
-9.36
-19.45
-30.91
-43.01
-54.74
-65.02
-73.01
-78.45
-81.75
-84.02
-86.68
-91.01
-97.69
-106.52
-116.48
-126.08
-133.93
-139.16
-141.59
-141.75
-140.71
-139.9
-140.83
-144.87
-152.75
-164.22
-177.86
-191.35
-202.24
-208.75
-210.52
-208.64
-205.23
-202.52
-202.26
-205.32
-211.69
-220.68
-230.95
-240.59
-247.32
-248.97
-244.1
-232.44
-214.98
-193.5
-169.8
-145.18
-120.2
-94.93
-69.41
-43.95
-19.19
4.17
25.62
45.02
62.56
78.57
93.27
106.68
118.55
128.59
136.6
142.65
146.96
149.86
151.55
152.04
151.14
148.63
144.33
138.11
129.9
119.66
107.44
93.54
78.5
63.01
47.77
33.21
19.45
6.19
-7.08
-20.86
-35.31
-50.03
-63.92
-75.34
-82.56
-84.21
-79.75
-69.6
-55.04
-37.74
-19.38
-1.27
15.66
30.81
43.76
54.17
61.83
66.67
68.94
69.1
67.88
66.04
64.2
62.68
61.56
60.79
60.42
60.77
62.29
65.33
69.89
75.49
81.25
86.21
89.59
91.03
90.53
88.28
84.58
79.69
73.83
67.23
60.15
52.8
45.36
38.01
30.91
24.28
18.37
13.29
8.99
5.19
1.52
-2.33
-6.49
-10.74
-14.48
-16.77
-16.56
-12.83
-5.01
6.83
21.83
38.48
54.87
69.12
79.76
86.03
88.01
86.42
82.38
76.9
70.56
63.35
54.93
45.02
33.78
21.99
10.84
1.49
-5.29
-9.26
-10.65
-9.89
-7.4
-3.57
1.12
6.04
10.47
13.76
15.56
15.9
15.2
14.08
13.05
12.34
11.82
11.05
9.54
7.01
3.46
-0.76
-5.14
-9.28
-12.99
-16.34
-19.64
-23.19
-27.34
-32.29
-38.13
-44.61
-51.08
-56.46
-59.44
-58.85
-54.08
-45.32
-33.53
-20.19
-6.88
5.01
14.42
20.68
23.43
22.61
18.53
11.85
3.51
-5.52
-14.5
-23.09
-31.22
-38.97
-46.23
-52.73
-58.11
-62.18
-65
-66.7
-67.26
-66.39
-63.68
-59.01
-52.95
-46.8
-42.2
-40.48
-42.1
-46.57
-52.8
-59.64
-66.3
-72.32
-77.38
-81.24
-83.62
-84.39
-83.66
-81.85
-79.54
-77.49
-76.28
-76.19
-76.83
-77.1
-75.37
-69.94
-59.74
-44.63
-25.51
-3.9
18.57
40.42
60.44
77.51
90.62
98.94
102.15
100.53
94.94
86.6
76.78
66.68
57.33
49.49
43.6
39.66
37.22
35.66
34.41
33.22
32.21
31.67
31.88
32.93
34.59
36.31
37.29
36.71
33.99
29.01
22.25
14.69
7.53
1.65
-2.59
-5.62
-8.36
-11.91
-17.1
-24.1
-32.31
-40.49
-47
-50.24
-49.03
-42.91
-32.23
-18.02
-1.75
15.04
30.95
44.87
56.04
64.08
68.93
70.82
70.15
67.44
63.22
58.05
52.51
47.2
42.67
39.29
37.2
36.25
36.17
36.61
37.38
38.34
39.36
40.17
40.37
39.46
37.12
33.3
28.3
22.63
16.83
11.26
6.06
1.06
-3.96
-9.29
-15.15
-21.72
-29.03
-36.82
-44.37
-50.53
-53.88
-53.21
-47.87
-38.1
-24.92
-9.83
5.68
20.39
33.51
44.56
53.21
59.24
62.48
62.96
60.99
57.14
52.1
46.67
41.53
37.21
34
31.92
30.79
30.38
30.51
31.08
32.07
33.4
34.81
35.89
36.13
35.09
32.62
28.87
24.21
19.11
13.92
8.82
3.83
-1.1
-6.02
-10.96
-15.98
-21.28
-27.1
-33.56
-40.4
-46.85
-51.6
-53.24
-50.72
-43.77
-33.09
-20.01
-6.18
6.98
18.5
27.93
35.11
40.06
42.84
43.48
42.1
38.93
34.35
28.87
23.11
17.73
13.24
10.04
8.3
8.04
9.12
11.24
13.84
16.14
17.3
16.63
13.9
9.38
3.82
-1.87
-6.91
-10.91
-13.88
-16.11
-17.9
-19.51
-21.15
-23.07
-25.61
-29.17
-33.92
-39.66
-45.58
-50.49
-53.07
-52.28
-47.69
-39.54
-28.64
-16.08
-3.06
9.3
20.11
28.75
34.9
38.51
39.71
38.73
35.81
31.21
25.36
18.88
12.59
7.26
3.41
1.1
0.02
-0.33
-0.27
0.14
1.09
2.74
5
7.45
9.51
10.62
10.52
9.29
7.18
4.48
1.34
-2.23
-6.2
-10.53
-15.09
-19.76
-24.56
-29.57
-34.82
-40.09
-44.78
-48.01
-48.83
-46.48
-40.74
-31.93
-20.92
-8.87
3.07
13.95
23.19
30.48
35.72
38.9
40.05
39.26
36.79
33.15
29.03
25.18
22.16
20.24
19.36
19.25
19.61
20.2
20.94
21.8
22.72
23.5
23.85
23.47
22.19
20.06
17.36
14.53
12.04
10.16
8.98
8.3
7.71
6.66
4.56
0.88
-4.68
-12.04
-20.57
-29.11
-36.14
-40.15
-40.02
-35.35
-26.58
-14.88
-1.8
11.07
22.46
31.57
38.01
41.69
42.72
41.26
37.62
32.3
25.96
19.4
13.32
8.24
4.38
1.65
-0.19
-1.43
-2.2
-2.52
-2.28
-1.43
-0.05
1.55
2.86
3.36
2.7
0.84
-1.88
-4.92
-7.74
-10.09
-12.02
-13.88
-16.09
-19.03
-22.91
-27.74
-33.29
-38.99
-43.96
-47.1
-47.35
-44.05
-37.21
-27.54
-16.28
-4.8
5.72
14.52
21.15
25.46
27.46
27.29
25.23
21.78
17.54
13.13
9.13
5.95
3.86
2.99
3.34
4.78
7.04
9.83
12.77
15.54
17.82
19.37
19.99
19.55
18.03
15.52
12.21
8.28
3.99
-0.5
-5.02
-9.5
-14
-18.7
-23.89
-29.72
-36.12
-42.55
-48.13
-51.81
-52.69
-50.33
-44.83
-36.77
-27.06
-16.75
-6.84
1.81
8.63
13.33
15.89
16.5
15.44
13.03
9.59
5.53
1.36
-2.31
-4.94
-6.19
-6
-4.58
-2.23
0.74
4.03
7.38
10.41
12.66
13.68
13.19
11.21
8.07
4.34
0.65
-2.52
-4.96
-6.85
-8.7
-11.16
-14.84
-19.95
-26.13
-32.39
-37.39
-39.79
-38.69
-33.88
-25.88
-15.75
-4.81
5.7
14.77
21.76
26.33
28.42
28.2
26
22.26
17.48
12.24
7.1
2.64
-0.7
-2.62
-3.11
-2.36
-0.77
1.25
3.32
5.1
6.35
6.89
6.55
5.26
3.1
0.28
-2.87
-5.99
-8.87
-11.52
-14.19
-17.36
-21.47
-26.79
-33.09
-39.6
-45.06
-48.01
-47.27
-42.29
-33.34
-21.44
-7.98
5.58
17.97
28.26
35.84
40.4
41.92
40.65
37.15
32.1
26.26
20.31
14.8
10.2
6.87
5.05
4.79
5.93
8.1
10.84
13.69
16.26
18.17
19.07
18.69
16.87
13.75
9.68
5.22
0.81
-3.33
-7.32
-11.54
-16.43
-22.3
-29.14
-36.49
-43.48
-48.85
-51.28
-49.69
-43.64
-33.51
-20.47
-6.14
7.85
20.17
30.01
37.01
41.1
42.35
40.92
37.11
31.47
24.76
17.88
11.72
6.93
3.85
2.43
2.41
3.45
5.21
7.45
9.9
12.3
14.27
15.47
15.65
14.73
12.79
10.08
6.87
3.46
0.02
-3.34
-6.71
-10.31
-14.49
-19.54
-25.53
-32.06
-38.19
-42.61
-43.97
-41.35
-34.56
-24.32
-11.97
0.89
12.8
22.79
30.4
35.55
38.4
39.14
37.98
35.16
30.99
25.94
20.56
15.47
11.13
7.84
5.66
4.49
4.15
4.53
5.53
7.04
8.85
10.6
11.8
12.05
11.11
9.06
6.23
3.07
-0.01
-2.78
-5.26
-7.64
-10.14
-13
-16.37
-20.37
-25.04
-30.22
-35.46
-39.89
-42.43
-42
-38
-30.56
-20.53
-9.25
1.88
11.82
19.95
26.06
30.09
31.97
31.63
29.06
24.52
18.57
12.12
6.14
1.49
-1.41
-2.6
-2.48
-1.61
-0.45
0.76
2.02
3.42
4.97
6.54
7.81
8.43
8.12
6.82
4.68
2.01
-0.83
-3.53
-5.89
-7.87
-9.57
-11.22
-13.17
-15.73
-19.1
-23.19
-27.53
-31.3
-33.54
-33.37
-30.29
-24.33
-16.07
-6.48
3.32
12.3
19.68
24.97
28
28.78
27.48
24.41
19.92
14.58
9
3.87
-0.22
-2.91
-4.13
-4.1
-3.12
-1.47
0.77
3.6
7.03
10.79
14.33
16.94
18.01
17.34
15.19
12.22
9.11
6.34
4
1.92
-0.18
-2.61
-5.6
-9.37
-13.97
-19.19
-24.32
-28.25
-29.76
-28
-22.97
-15.54
-7.11
0.94
7.84
13.5
18.32
22.64
26.33
28.8
29.26
27.22
22.88
17.15
11.32
6.42
2.83
0.18
-2.46
-5.87
-10.19
-14.72
-18.12
-18.97
-16.39
-10.29
-1.23
9.85
21.84
33.46
43.03
48.66
48.6
41.97
29.17
11.85
-7.73
-27.54
-46.19
-62.83
-76.42
-85.45
-87.99
-82.69
-69.65
-50.84
-29.6
-9.4
7.37
20.02
29.31
36.52
42.55
47.41
50.3
50.12
46.03
37.79
25.76
10.7
-6.33
-24.07
-41.04
-55.83
-67.44
-75.83
-82
-87.56
-93.78
-100.74
-107.08
-110.54
-109.14
-102.19
-90.62
-76.42
-61.65
-47.49
-34.19
-21.4
-9.01
2.53
12.37
19.79
24.85
28.56
32.59
38.6
47.51
59.11
72.05
84.45
94.61
101.68
105.85
108.04
109.09
109.13
107.33
102.24
92.61
78.26
60.26
40.59
21.32
3.85
-11.16
-23.5
-32.98
-39.36
-42.63
-43.33
-42.44
-40.85
-38.83
-35.84
-30.94
-23.44
-13.3
-0.95
13.3
29.59
48.35
69.43
91.35
111.29
126.07
133.67
134.51
131.68
130.14
135.14
150.89
179.34
219.66
268.15
318.94
365.08
400.31
420.56
424.94
415.72
397.12
373.78
349.36
326.01
304.5
284.92
267.06
250.59
234.82
218.64
200.71
180.1
156.79
131.76
106.63
82.9
61.25
41.31
21.85
1.47
-20.67
-44.48
-69
-92.85
-114.86
-134.59
-152.5
-169.84
-188.31
-209.53
-234.28
-261.85
-289.55
-312.99
-327.07
-327.5
-312.13
-281.65
-239.11
-188.8
-134.94
-80.76
-28.42
20.64
65.08
103.45
134.26
156.35
169.29
173.58
170.56
162.15
150.38
136.96
123.04
109.18
95.6
82.54
70.36
59.5
50.25
42.46
35.53
28.63
21.01
12.25
2.4
-8.23
-19.23
-30.35
-41.65
-53.48
-66.41
-81.08
-97.87
-116.71
-136.97
-157.58
-177.24
-194.78
-209.22
-219.75
-225.59
-226.04
-220.64
-209.54
-193.74
-175.09
-155.86
-138.15
-123.54
-112.82
-106.32
-104.09
-106.11
-112.23
-121.96
-134.3
-147.91
-161.28
-173.2
-182.96
-190.41
-195.82
-199.67
-202.34
-204.11
-205.07
-205.29
-204.89
-204.12
-203.29
-202.79
-202.98
-204.21
-206.8
-211
-216.91
-224.42
-233.19
-242.69
-252.37
-261.88
-271.25
-280.85
-291.1
-302.08
-313.12
-322.64
-328.49
-328.53
-321.37
-306.83
-286
-260.76
-233.18
-204.9
-176.98
-150.02
-124.53
-101.26
-81
-64.46
-51.77
-42.34
-34.97
-28.16
-20.62
-11.49
-0.49
12.2
26.08
40.42
54.44
67.38
78.69
88.18
95.97
102.33
107.47
111.33
113.62
114.03
112.45
109.19
104.86
100.12
95.34
90.48
85.07
78.44
69.99
59.39
46.91
33.34
20.09
9
1.98
0.53
5.28
15.65
30.01
46.07
61.56
74.73
84.66
91.11
94.18
94.08
91.01
85.25
77.4
68.42
59.47
51.64
45.63
41.66
39.54
38.9
39.42
40.93
43.38
46.66
50.51
54.51
58.07
60.65
61.81
61.34
59.23
55.72
51.15
45.94
40.41
34.75
28.96
22.94
16.55
9.58
1.88
-6.78
-16.5
-27.12
-37.9
-47.44
-53.9
-55.44
-50.84
-39.96
-23.83
-4.35
16.26
35.95
53.17
66.94
76.75
82.48
84.35
83.01
79.48
75.01
70.91
68.3
67.8
69.5
72.94
77.33
81.74
85.42
87.91
89.11
89.12
88.15
86.33
83.62
79.94
75.16
69.33
62.59
55.14
47.06
38.26
28.48
17.38
4.77
-9.32
-24.55
-40.42
-56.23
-71.13
-84
-93.47
-98.13
-96.8
-89.04
-75.4
-57.41
-37.19
-16.97
1.43
16.78
28.4
35.98
39.44
38.92
34.87
28.12
19.8
11.22
3.54
-2.39
-6.16
-7.67
-7.09
-4.68
-0.76
4.31
10.09
15.99
21.4
25.72
28.61
30.03
30.3
29.96
29.53
29.36
29.58
30.17
30.93
31.54
31.57
30.6
28.46
25.65
23.38
23.39
27.37
36.33
50.21
67.96
88.07
109.13
130.25
150.97
170.91
189.33
204.92
215.98
220.84
218.41
208.54
192.29
171.69
149.31
127.75
109
94.21
83.68
77.03
73.48
72.01
71.46
70.6
68.34
63.89
57.05
48.23
38.28
28.22
18.86
10.54
3.14
-3.84
-11
-18.87
-27.69
-37.24
-46.78
-55.08
-60.71
-62.42
-59.65
-52.56
-42.07
-29.45
-16.04
-2.97
8.82
18.54
25.52
29.26
29.62
26.9
21.79
15.21
8.09
1.16
-5.04
-10.14
-13.91
-16.27
-17.31
-17.31
-16.7
-16.03
-15.86
-16.69
-18.91
-22.68
-27.89
-34.18
-40.98
-47.66
-53.76
-58.97
-63.17
-66.37
-68.69
-70.35
-71.66
-72.83
-73.78
-73.96
-72.37
-67.87
-59.74
-48.06
-33.77
-18.4
-3.43
10.11
21.7
31.24
38.58
43.46
45.54
44.69
41.23
35.91
29.73
23.61
18.16
13.62
10
7.15
4.94
3.3
2.19
1.53
1.28
1.29
1.42
1.45
1.18
0.45
-0.86
-2.76
-5.21
-8.11
-11.41
-15.09
-19.18
-23.71
-28.55
-33.28
-37.09
-39
-38.02
-33.63
-25.91
-15.6
-3.88
8.01
19.07
28.7
36.64
42.77
46.91
48.77
48.05
44.51
38.23
29.63
19.46
8.71
-1.57
-10.41
-17.07
-21.14
-22.61
-21.88
-19.67
-16.84
-14.2
-12.31
-11.38
-11.3
-11.75
-12.38
-12.93
-13.17
-12.97
-12.23
-10.93
-9.14
-6.96
-4.35
-0.92
4.03
11.49
22.34
37.05
55.4
76.5
99.03
121.59
142.96
162.18
178.47
191.05
199.09
201.71
198.17
187.88
170.61
146.41
115.5
78.39
35.82
-10.99
-60.28
-109.87
-157.34
-200.47
-237.49
-267.25
-289.26
-303.57
-310.67
-311.35
-306.64
-297.6
-285.24
-270.41
-253.87
-236.3
-218.47
-201.24
-185.35
-171.19
-158.59
-146.67
-134.14
-119.62
-102.11
-81.38
-58.08
-33.59
-9.73
11.7
29.27
42.06
49.74
52.45
50.71
45.28
37.07
27.08
16.22
5.3
-5.04
-14.32
-22.2
-28.47
-32.95
-35.63
-36.63
-36.4
-35.69
-35.55
-37.06
-40.96
-47.35
-55.63
-64.61
-72.92
-79.47
-83.73
-85.72
-85.88
-84.79
-83.05
-81.13
-79.35
-77.7
-75.65
-72.13
-65.74
-55.21
-39.87
-20.04
3.13
27.99
52.8
76.12
96.89
114.32
127.79
136.85
141.33
141.47
137.94
131.79
124.18
116.12
108.35
101.27
95.07
89.85
85.68
82.62
80.62
79.39
78.34
76.72
73.75
68.88
62.04
53.58
44.21
34.66
25.52
17.01
8.93
0.81
-7.97
-18
-29.59
-42.46
-55.7
-67.74
-76.65
-80.66
-78.69
-70.69
-57.63
-41.19
-23.3
-5.72
10.17
23.43
33.45
39.89
42.73
42.26
39.12
34.21
28.47
22.86
18.14
14.92
13.63
14.44
17.25
21.56
26.62
31.52
35.44
37.82
38.45
37.47
35.23
32.25
29.08
26.28
24.21
22.97
22.32
21.62
20.07
16.85
11.48
3.97
-5.03
-14.27
-22.04
-26.56
-26.43
-21.04
-10.77
3.13
18.82
34.44
48.45
59.89
68.25
73.43
75.5
74.66
71.22
65.63
58.48
50.5
42.44
35.02
28.78
24.08
21.02
19.53
19.4
20.36
22.06
24.1
26
27.28
27.56
26.64
24.55
21.53
17.87
13.8
9.4
4.52
-1.1
-7.71
-15.4
-23.86
-32.31
-39.53
-44.11
-44.79
-40.93
-32.69
-21.04
-7.49
6.34
19.05
29.7
37.76
42.98
45.34
44.92
41.96
36.92
30.39
23.08
15.68
8.79
2.84
-1.83
-5.02
-6.69
-6.94
-6.06
-4.48
-2.72
-1.23
-0.33
-0.12
-0.51
-1.41
-2.71
-4.48
-6.83
-9.98
-14.13
-19.38
-25.61
-32.35
-38.71
-43.48
-45.36
-43.28
-36.82
-26.35
-12.98
1.79
16.4
29.62
40.63
48.96
54.39
56.79
56.14
52.61
46.66
39.09
30.96
23.4
17.38
13.49
11.9
12.27
13.96
16.16
18.15
19.32
19.35
18.14
15.76
12.33
8.01
2.88
-3.03
-9.68
-17.08
-25.19
-33.85
-42.72
-51.02
-57.68
-61.35
-60.85
-55.54
-45.63
-32.23
-17.02
-1.84
11.79
22.96
31.33
36.9
39.82
40.17
38.04
33.68
27.62
20.7
13.91
8.17
4.13
2
1.65
2.7
4.66
7.02
9.38
11.37
12.74
13.24
12.67
10.9
7.86
3.58
-1.81
-8.17
-15.31
-23.04
-30.98
-38.4
-44.23
-47.18
-46.15
-40.6
-30.88
-18.13
-4.04
9.66
21.55
30.72
36.78
39.71
39.69
37.07
32.32
26.05
18.98
11.86
5.48
0.45
-2.81
-4.17
-3.86
-2.35
-0.3
1.63
2.92
3.32
2.81
1.58
-0.13
-2.13
-4.39
-6.95
-10
-13.77
-18.44
-24.05
-30.26
-36.29
-40.92
-42.78
-40.79
-34.57
-24.62
-12.27
0.8
13.02
23.21
30.72
35.28
36.86
35.58
31.83
26.22
19.69
13.2
7.55
3.25
0.43
-1.02
-1.29
-0.59
0.85
2.77
4.79
6.52
7.61
7.86
7.2
5.68
3.44
0.59
-2.73
-6.4
-10.35
-14.6
-19.25
-24.43
-30.16
-36.13
-41.58
-45.4
-46.42
-43.84
-37.51
-27.99
-16.37
-3.91
8.2
19
27.73
33.86
37.05
37.25
34.77
30.19
24.32
18.03
12.14
7.36
4.21
2.92
3.34
5
7.21
9.37
11.12
12.37
13.16
13.52
13.33
12.37
10.52
7.82
4.5
0.93
-2.57
-5.85
-8.93
-11.93
-15
-18.26
-21.78
-25.65
-29.95
-34.75
-39.86
-44.79
-48.67
-50.39
-48.91
-43.6
-34.56
-22.68
-9.46
3.42
14.51
22.88
28.21
30.64
30.61
28.63
25.23
20.99
16.52
12.48
9.45
7.8
7.64
8.83
11.02
13.8
16.74
19.49
21.71
23.19
23.77
23.37
21.99
19.71
16.71
13.24
9.6
6
2.49
-1.09
-4.94
-9.25
-13.93
-18.68
-23
-26.46
-28.84
-30.28
-31.26
-32.43
-34.42
-37.53
-41.57
-45.78
-48.99
-49.88
-47.41
-41.17
-31.52
-19.5
-6.55
5.85
16.56
24.84
30.38
33.16
33.35
31.25
27.29
22.13
16.58
11.52
7.65
5.39
4.73
5.37
6.91
9
11.45
14.12
16.85
19.36
21.23
22.07
21.69
20.21
17.97
15.39
12.78
10.27
7.72
4.95
1.83
-1.55
-4.94
-8
-10.5
-12.44
-13.98
-15.41
-16.95
-18.79
-21.06
-23.82
-27
-30.26
-32.91
-33.96
-32.43
-27.69
-19.78
-9.44
2.05
13.28
23.05
30.58
35.51
37.87
37.93
36.14
32.98
28.97
24.55
20.1
15.96
12.46
9.89
8.49
8.37
9.47
11.53
14.16
16.86
19.19
20.76
21.35
20.87
19.39
17.05
14.04
10.59
6.91
3.16
-0.54
-4.14
-7.63
-10.99
-14.19
-17.21
-20.05
-22.8
-25.59
-28.61
-31.99
-35.78
-39.88
-43.99
-47.57
-49.94
-50.36
-48.28
-43.46
-36.15
-27.02
-16.96
-6.93
2.32
10.18
16.3
20.46
22.57
22.72
21.19
18.43
15.08
11.78
9.1
7.47
7.03
7.71
9.22
11.17
13.12
14.72
15.77
16.28
16.4
16.31
16.04
15.48
14.33
12.32
9.33
5.53
1.31
-2.85
-6.57
-9.68
-12.27
-14.55
-16.85
-19.47
-22.62
-26.34
-30.39
-34.19
-36.89
-37.56
-35.44
-30.26
-22.3
-12.34
-1.47
9.18
18.68
26.36
31.88
35.15
36.24
35.39
32.89
29.13
24.53
19.58
14.77
10.55
7.25
5.05
4
4.01
4.96
6.65
8.84
11.23
13.41
15.02
15.76
15.52
14.33
12.38
9.86
6.95
3.78
0.49
-2.76
-5.82
-8.58
-11.04
-13.39
-15.95
-19.05
-22.86
-27.28
-31.76
-35.44
-37.34
-36.61
-32.85
-26.17
-17.23
-6.99
3.5
13.31
21.74
28.35
32.91
35.34
35.69
34.12
30.99
26.72
21.85
16.9
12.36
8.61
5.9
4.36
3.96
4.52
5.76
7.34
8.97
10.43
11.57
12.34
12.7
12.57
11.85
10.47
8.38
5.7
2.57
-0.73
-3.98
-7.01
-9.81
-12.48
-15.24
-18.31
-21.82
-25.79
-29.98
-33.91
-36.86
-38.02
-36.71
-32.63
-25.95
-17.33
-7.74
1.79
10.45
17.67
23.17
26.85
28.72
28.81
27.29
24.37
20.41
15.87
11.26
7.06
3.66
1.27
-0.13
-0.68
-0.59
-0.03
0.95
2.3
3.92
5.52
6.71
7.11
6.52
4.98
2.76
0.23
-2.34
-4.82
-7.24
-9.74
-12.42
-15.36
-18.61
-22.18
-26.06
-30.06
-33.77
-36.48
-37.35
-35.65
-31.01
-23.64
-14.32
-4.21
5.52
13.95
20.55
25.16
27.81
28.57
27.52
24.8
20.7
15.77
10.69
6.14
2.54
0.05
-1.49
-2.28
-2.5
-2.14
-1.14
0.49
2.49
4.4
5.65
5.78
4.69
2.6
0.02
-2.56
-4.79
-6.68
-8.44
-10.45
-13.04
-16.4
-20.53
-25.15
-29.73
-33.47
-35.48
-34.97
-31.46
-25.04
-16.34
-6.41
3.55
12.52
19.76
24.95
28.03
29.11
28.39
26.12
22.65
18.4
13.88
9.6
5.92
3.14
1.34
0.51
0.54
1.3
2.64
4.33
6.07
7.46
8.09
7.65
6.09
3.6
0.59
-2.45
-5.18
-7.56
-9.79
-12.26
-15.4
-19.43
-24.29
-29.54
-34.4
-37.92
-39.14
-37.38
-32.45
-24.72
-14.97
-4.23
6.42
16.11
24.2
30.25
33.98
35.34
34.43
31.62
27.48
22.7
17.96
13.84
10.72
8.74
7.9
8.07
9.07
10.64
12.46
14.14
15.3
15.59
14.86
13.1
10.52
7.42
4.1
0.88
-2.07
-4.69
-7.08
-9.45
-12.06
-15.14
-18.79
-22.92
-27.19
-31.01
-33.56
-34.03
-31.75
-26.51
-18.69
-9.21
0.72
9.91
17.58
23.37
27.29
29.47
30
28.87
26.11
21.99
17.08
12.19
8.17
5.58
4.58
4.88
5.97
7.35
8.73
10.05
11.38
12.73
13.97
14.78
14.81
13.85
11.88
9.16
6.07
2.96
0.08
-2.51
-4.91
-7.28
-9.73
-12.38
-15.25
-18.36
-21.65
-24.92
-27.73
-29.4
-29.2
-26.57
-21.39
-14.09
-5.58
3.08
10.86
17.13
21.58
24.18
25.04
24.34
22.33
19.36
15.92
12.53
9.64
7.54
6.35
6.04
6.5
7.56
9.02
10.67
12.23
13.48
14.24
14.44
14.09
13.28
12.06
10.47
8.53
6.31
3.9
1.45
-0.9
-3.06
-5
-6.75
-8.39
-9.95
-11.48
-12.99
-14.51
-16.13
-17.94
-19.97
-22.05
-23.76
-24.49
-23.62
-20.72
-15.79
-9.24
-1.87
5.4
11.75
16.63
19.85
21.46
21.65
20.6
18.51
15.62
12.28
8.96
6.15
4.24
3.4
3.55
4.45
5.83
7.47
9.17
10.78
12.14
13.08
13.49
13.35
12.69
11.57
10.06
8.16
5.92
3.44
0.84
-1.69
-4.03
-6.06
-7.73
-9.05
-10.07
-10.88
-11.6
-12.38
-13.34
-14.57
-16.03
-17.56
-18.83
-19.38
-18.77
-16.73
-13.28
-8.71
-3.54
1.7
6.55
10.67
13.84
15.9
16.77
16.46
15.11
12.97
10.36
7.6
4.95
2.64
0.83
-0.33
-0.76
-0.45
0.5
1.86
3.39
4.81
5.9
6.52
6.62
6.29
5.61
4.71
3.66
2.48
1.14
-0.38
-2.08
-3.97
-5.96
-8
-9.97
-11.78
-13.36
-14.71
-15.93
-17.15
-18.54
-20.12
-21.72
-22.94
-23.24
-22.12
-19.35
-15.02
-9.58
-3.68
2.02
7
10.9
13.55
14.85
14.82
13.54
11.2
8.17
4.86
1.7
-0.94
-2.85
-3.99
-4.39
-4.2
-3.57
-2.63
-1.49
-0.25
1.02
2.21
3.19
3.77
3.73
2.95
1.43
-0.62
-2.86
-4.92
-6.58
-7.82
-8.81
-9.85
-11.19
-12.99
-15.23
-17.71
-20.09
-21.89
-22.58
-21.73
-19.12
-14.85
-9.35
-3.23
2.81
8.13
12.25
14.87
15.89
15.34
13.46
10.6
7.21
3.7
0.42
-2.37
-4.59
-6.21
-7.26
-7.73
-7.61
-6.87
-5.55
-3.81
-1.95
-0.34
0.67
0.84
0.17
-1.15
-2.79
-4.47
-6.01
-7.45
-8.97
-10.81
-13.16
-16.07
-19.43
-22.95
-26.15
-28.47
-29.29
-28.11
-24.68
-19.14
-12.03
-4.2
3.38
9.93
14.9
18.12
19.61
19.56
18.2
15.82
12.73
9.35
6.06
3.24
1.11
-0.24
-0.87
-0.9
-0.48
0.3
1.35
2.57
3.81
4.82
5.28
4.94
3.67
1.63
-0.84
-3.28
-5.32
-6.81
-7.9
-8.98
-10.5
-12.77
-15.84
-19.4
-22.82
-25.29
-26.02
-24.46
-20.47
-14.44
-7.1
0.61
7.84
13.97
18.69
21.9
23.64
23.97
22.95
20.7
17.49
13.7
9.86
6.5
4.03
2.69
2.45
3.07
4.23
5.6
6.95
8.17
9.18
9.88
10.12
9.71
8.5
6.45
3.7
0.47
-2.95
-6.32
-9.48
-12.37
-15.07
-17.79
-20.83
-24.54
-29.12
-34.36
-39.62
-43.85
-45.99
-45.35
-41.98
-36.67
-30.64
-25
-20.35
-16.6
-13.24
-9.72
-5.98
-2.58
-0.53
-0.88
-4.08
-9.67
-16.26
-21.98
-25.14
-24.9
-21.53
-16.38
-11.31
-8.24
-8.51
-12.54
-19.3
-26.13
-28.93
-23.17
-5.64
23.81
61.31
99.71
130.78
148.12
149.35
136.52
114.75
89.85
66.25
46.18
29.98
17.19
7.37
0.39
-3.84
-5.79
-6.37
-6.64
-7.37
-8.61
-9.7
-9.62
-7.65
-3.8
1.04
5.41
7.89
7.64
4.71
-0.08
-5.51
-10.51
-14.46
-17.25
-19.18
-20.59
-21.71
-22.5
-22.74
-22.14
-20.52
-17.88
-14.43
-10.54
-6.63
-3.07
-0.08
2.3
4.14
5.58
6.77
7.81
8.75
9.68
10.74
12.14
14.09
16.68
19.81
23.19
26.46
29.37
31.94
34.51
37.64
41.91
47.67
54.95
63.48
72.74
82.23
91.5
100.32
108.6
116.35
123.59
130.28
136.34
141.57
145.72
148.47
149.57
148.85
146.38
142.48
137.66
132.5
127.4
122.51
117.69
112.76
107.72
102.98
99.15
96.64
95.29
94.07
91.3
85.19
74.51
59.03
39.57
17.69
-4.89
-26.76
-47.01
-65.1
-80.66
-93.28
-102.52
-108.08
-110.01
-108.74
-104.98
-99.49
-92.79
-85.14
-76.59
-67.16
-57.03
-46.64
-36.62
-27.76
-20.89
-16.79
-16.03
-18.9
-25.31
-34.79
-46.54
-59.59
-72.85
-85.21
-95.6
-103.11
-107.14
-107.54
-104.61
-99.08
-91.87
-83.93
-76.01
-68.59
-61.88
-55.89
-50.54
-45.76
-41.59
-38.17
-35.69
-34.32
-34.13
-34.98
-36.62
-38.65
-40.68
-42.34
-43.34
-43.45
-42.48
-40.32
-36.96
-32.49
-27.14
-21.22
-15.15
-9.28
-3.97
0.55
4.11
6.59
7.93
8.06
6.95
4.66
1.36
-2.61
-6.79
-10.69
-13.86
-15.99
-16.92
-16.62
-15.14
-12.57
-9.04
-4.79
-0.16
4.43
8.53
11.78
13.94
14.91
14.68
13.22
10.5
6.49
1.15
-5.42
-12.99
-21.31
-30.09
-39.08
-48.02
-56.55
-64.11
-69.97
-73.41
-73.94
-71.54
-66.71
-60.32
-53.31
-46.49
-40.31
-34.92
-30.31
-26.45
-23.37
-21.19
-20
-19.81
-20.43
-21.54
-22.73
-23.64
-24.04
-23.87
-23.2
-22.12
-20.71
-19.02
-17.13
-15.22
-13.56
-12.44
-12.07
-12.43
-13.34
-14.44
-15.43
-16.14
-16.6
-17
-17.63
-18.75
-20.47
-22.8
-25.52
-28.32
-30.76
-32.34
-32.61
-31.25
-28.13
-23.37
-17.27
-10.3
-2.99
4.1
10.47
15.67
19.41
21.55
22.12
21.34
19.5
16.96
14.04
11.05
8.19
5.64
3.53
1.88
0.62
-0.4
-1.32
-2.28
-3.39
-4.7
-6.27
-8.13
-10.32
-12.86
-15.72
-18.84
-22.14
-25.58
-29.17
-33.01
-37.21
-41.74
-46.29
-50.26
-52.83
-53.16
-50.7
-45.35
-37.54
-28.06
-17.94
-8.1
0.71
7.99
13.46
17.03
18.79
18.98
17.95
16.04
13.63
11.02
8.52
6.41
4.96
4.35
4.64
5.71
7.36
9.32
11.31
13.03
14.17
14.41
13.49
11.29
7.95
3.72
-1.01
-5.97
-11.04
-16.32
-21.99
-28.23
-34.97
-41.82
-48.02
-52.53
-54.26
-52.41
-46.73
-37.64
-26.13
-13.51
-1.04
10.32
20.05
27.88
33.7
37.48
39.27
39.29
38.06
36.32
34.84
34.21
34.62
35.89
37.63
39.45
41.17
42.77
44.3
45.73
46.87
47.37
46.9
45.24
42.42
38.69
34.46
30.17
26.17
22.63
19.51
16.62
13.66
10.27
6.21
1.41
-3.89
-9.06
-13.14
-15.07
-13.91
-9.25
-1.4
8.64
19.47
29.66
38.13
44.36
48.27
50.1
50.15
48.66
45.81
41.83
37.03
31.88
26.9
22.55
19.11
16.65
15.12
14.32
14.02
13.92
13.67
12.84
11.03
8.02
3.86
-1.1
-6.35
-11.4
-15.95
-20
-23.72
-27.3
-30.83
-34.23
-37.25
-39.61
-41.15
-41.8
-41.71
-41.19
-40.7
-40.75
-41.76
-43.79
-46.4
-48.65
-49.25
-47.05
-41.36
-32.3
-20.73
-8
4.42
15.29
23.8
29.62
32.78
33.6
32.62
30.47
27.84
25.37
23.59
22.79
23.08
24.37
26.41
28.85
31.34
33.6
35.45
36.77
37.5
37.55
36.81
35.16
32.55
29.08
25.02
20.76
16.69
13.07
9.99
7.27
4.66
1.8
-1.51
-5.3
-9.35
-13.29
-16.73
-19.45
-21.53
-23.39
-25.6
-28.73
-32.99
-38.14
-43.45
-47.81
-50.01
-49.05
-44.43
-36.26
-25.31
-12.81
-0.21
11.25
20.73
27.94
33.02
36.33
38.2
38.77
38.07
36.14
33.23
29.79
26.39
23.49
21.26
19.59
18.18
16.79
15.34
13.95
12.83
12.05
11.56
11.11
10.4
9.23
7.64
5.87
4.29
3.3
3.08
3.57
4.46
5.34
5.83
5.76
5.1
3.92
2.22
-0.05
-3.05
-6.93
-11.76
-17.52
-24.1
-31.29
-38.75
-45.91
-51.96
-55.9
-56.79
-54.06
-47.7
-38.26
-26.74
-14.29
-1.94
9.54
19.64
28.09
34.74
39.53
42.49
43.73
43.45
41.95
39.54
36.57
33.38
30.27
27.48
25.16
23.42
22.33
21.96
22.28
23.21
24.54
25.96
27.14
27.76
27.7
26.99
25.85
24.57
23.38
22.33
21.32
20.13
18.6
16.67
14.45
12.14
9.86
7.61
5.16
2.14
-1.91
-7.38
-14.47
-23.09
-32.69
-42.38
-50.97
-57.28
-60.46
-60.17
-56.73
-50.97
-43.99
-36.9
-30.57
-25.53
-21.93
-19.64
-18.37
-17.83
-17.72
-17.84
-18.03
-18.13
-17.95
-17.32
-16.14
-14.36
-12.12
-9.56
-6.92
-4.45
-2.37
-0.86
-0
0.24
0.01
-0.48
-1.12
-1.92
-3.05
-4.71
-6.98
-9.75
-12.71
-15.48
-17.83
-19.72
-21.29
-22.84
-24.69
-27.09
-30.2
-33.95
-38.03
-41.76
-44.24
-44.49
-41.78
-35.84
-26.96
-15.9
-3.68
8.65
20.11
29.96
37.64
42.86
45.53
45.86
44.22
41.14
37.17
32.87
28.73
25.2
22.56
20.97
20.4
20.65
21.4
22.26
22.9
23.06
22.61
21.56
19.96
17.88
15.36
12.37
8.92
5
0.74
-3.72
-8.19
-12.49
-16.44
-19.86
-22.66
-24.87
-26.74
-28.7
-31.26
-34.72
-38.93
-43.12
-46.09
-46.6
-43.78
-37.44
-28.19
-17.12
-5.5
5.55
15.28
23.24
29.22
33.17
35.12
35.25
33.86
31.34
28.1
24.55
21.01
17.75
15.05
13.11
12.12
12.17
13.21
15.06
17.4
19.79
21.8
23.1
23.46
22.93
21.72
20.11
18.29
16.25
13.78
10.65
6.75
2.25
-2.51
-7.09
-11.17
-14.66
-17.69
-20.53
-23.43
-26.59
-30.14
-34.06
-38.11
-41.76
-44.2
-44.46
-41.72
-35.65
-26.57
-15.46
-3.67
7.49
17.07
24.61
30.06
33.58
35.37
35.54
34.22
31.61
28.09
24.24
20.68
17.91
16.23
15.74
16.31
17.76
19.9
22.5
25.31
27.98
30.13
31.36
31.36
30.07
27.65
24.39
20.67
16.74
12.71
8.51
4
-0.91
-6.17
-11.56
-16.76
-21.51
-25.68
-29.38
-32.92
-36.68
-40.96
-45.81
-50.91
-55.57
-58.82
-59.7
-57.54
-52.16
-43.95
-33.73
-22.55
-11.45
-1.23
7.55
14.57
19.61
22.6
23.53
22.55
19.99
16.3
12.09
7.97
4.51
2.12
0.97
1.01
1.97
3.53
5.39
7.37
9.37
11.32
13.12
14.61
15.56
15.72
14.87
12.86
9.67
5.41
0.41
-4.91
-10.07
-14.64
-18.4
-21.38
-23.96
-26.67
-30.06
-34.44
-39.67
-45.04
-49.38
-51.38
-49.96
-44.69
-35.93
-24.67
-12.24
0.15
11.58
21.53
29.69
35.84
39.74
41.21
40.23
37.07
32.27
26.59
20.89
15.92
12.25
10.16
9.64
10.47
12.27
14.57
16.95
19.05
20.63
21.56
21.75
21.15
19.69
17.3
13.99
9.87
5.17
0.2
-4.77
-9.57
-14.19
-18.68
-23.17
-27.81
-32.77
-38.21
-44.16
-50.4
-56.28
-60.75
-62.59
-60.75
-54.73
-44.83
-32.07
-17.94
-4
8.48
18.72
26.42
31.66
34.65
35.61
34.72
32.12
28.08
23.1
17.84
13.06
9.43
7.36
6.94
7.99
10.15
13
16.14
19.22
21.91
23.96
25.2
25.49
24.77
23.02
20.29
16.67
12.29
7.4
2.27
-2.8
-7.56
-11.84
-15.62
-19.08
-22.54
-26.39
-30.98
-36.39
-42.25
-47.71
-51.54
-52.47
-49.58
-42.64
-32.25
-19.62
-6.22
6.63
17.99
27.38
34.58
39.51
42.07
42.22
40.06
35.96
30.57
24.71
19.18
14.61
11.39
9.68
9.44
10.54
12.76
15.75
19.07
22.18
24.55
25.78
25.73
24.51
22.43
19.82
16.91
13.72
10.17
6.11
1.54
-3.35
-8.19
-12.63
-16.44
-19.66
-22.55
-25.54
-29.07
-33.45
-38.72
-44.52
-50.12
-54.43
-56.27
-54.66
-49.15
-40.01
-28.15
-14.94
-1.81
10.03
19.79
27.06
31.77
34.05
34.1
32.26
28.9
24.47
19.49
14.51
10.11
6.8
5
4.93
6.56
9.6
13.52
17.67
21.5
24.62
26.84
28.18
28.69
28.44
27.46
25.76
23.33
20.13
16.17
11.53
6.38
1.06
-4.03
-8.55
-12.4
-15.74
-18.95
-22.52
-26.83
-32.03
-37.97
-44.09
-49.5
-53.1
-53.83
-51.02
-44.59
-35.15
-23.82
-11.91
-0.6
9.26
17.19
22.95
26.42
27.57
26.49
23.51
19.18
14.22
9.43
5.48
2.81
1.55
1.62
2.82
4.87
7.52
10.46
13.35
15.82
17.53
18.28
17.97
16.67
14.53
11.73
8.47
4.95
1.37
-2.17
-5.6
-8.92
-12.13
-15.3
-18.49
-21.88
-25.71
-30.13
-35.11
-40.17
-44.45
-46.85
-46.4
-42.56
-35.43
-25.72
-14.53
-3
7.94
17.65
25.79
32.12
36.46
38.59
38.37
35.85
31.43
25.8
19.89
14.68
10.86
8.8
8.44
9.42
11.27
13.6
16.13
18.69
21.12
23.23
24.69
25.18
24.41
22.26
18.87
14.55
9.73
4.84
0.2
-4.07
-8
-11.78
-15.7
-20.03
-25.02
-30.79
-37.25
-44.03
-50.37
-55.25
-57.53
-56.3
-51.2
-42.56
-31.34
-18.89
-6.51
4.78
14.34
21.88
27.25
30.36
31.18
29.84
26.69
22.32
17.4
12.62
8.52
5.51
3.88
3.71
4.95
7.35
10.48
13.86
17.02
19.58
21.3
22
21.51
19.71
16.6
12.36
7.36
2.1
-3
-7.68
-11.91
-15.83
-19.59
-23.29
-26.99
-30.84
-35.13
-40.17
-46.1
-52.53
-58.47
-62.48
-63.1
-59.41
-51.35
-39.77
-26.13
-12
1.35
13.14
23.03
30.9
36.71
40.36
41.83
41.2
38.82
35.27
31.32
27.68
24.94
23.45
23.35
24.6
27.06
30.49
34.54
38.72
42.5
45.4
47.03
47.26
46.16
43.97
41.01
37.6
34.01
30.43
26.97
23.71
20.69
18
15.78
14.2
13.41
13.38
13.89
14.59
15.16
15.64
16.58
19.12
24.7
34.65
49.67
69.53
93.12
118.67
144.32
168.5
190.25
209.26
225.83
240.69
254.95
269.74
285.88
303.32
320.78
335.84
345.56
347.49
340.62
325.84
305.56
282.82
260.27
239.5
220.98
204.49
189.61
176.02
163.53
151.86
140.55
129.07
117
104.25
91.15
78.25
66.12
55.09
45.1
35.83
26.85
17.87
8.87
0.07
-8.25
-15.87
-22.82
-29.36
-35.81
-42.44
-49.23
-55.93
-62.22
-67.88
-72.97
-77.9
-83.23
-89.48
-96.83
-105.1
-113.84
-122.62
-131.3
-140.26
-150.24
-162.11
-176.44
-193.26
-212.07
-232.07
-252.56
-273.23
-294.3
-316.32
-340.09
-366.49
-396.4
-430.33
-467.89
-507.05
-544.03
-573.88
-591.93
-595.45
-584.66
-562.62
-533.91
-502.9
-472.49
-443.86
-417.05
-391.85
-368.25
-346.22
-325.13
-303.39
-278.7
-248.84
-212.68
-170.74
-125.19
-79.16
-35.76
2.76
35.43
62.36
84.32
102.08
116.06
126.36
132.94
135.95
135.94
133.81
130.6
127.18
124.07
121.41
119.09
116.99
115.14
113.73
112.92
112.66
112.46
111.45
108.61
103.13
94.71
83.64
70.75
57.01
43.28
30.12
17.79
6.41
-3.93
-13.06
-20.96
-27.78
-33.91
-39.7
-45.08
-49.34
-51.1
-48.73
-41.03
-27.68
-9.51
11.79
34.1
55.39
74.11
89.2
100.09
106.58
108.8
107.23
102.73
96.38
89.35
82.68
77.16
73.29
71.3
71.28
73.11
76.43
80.64
84.93
88.48
90.73
91.44
90.72
88.72
85.51
80.93
74.81
67.14
58.25
48.72
39.13
29.81
20.7
11.55
2.07
-7.79
-17.91
-28.07
-37.93
-47.12
-54.96
-60.57
-62.93
-61.34
-55.72
-46.79
-35.93
-24.7
-14.37
-5.7
1.08
5.92
8.74
9.24
7.07
2.08
-5.45
-14.7
-24.36
-32.95
-39.21
-42.42
-42.55
-40.15
-36.12
-31.35
-26.5
-21.94
-17.88
-14.56
-12.28
-11.4
-12.17
-14.6
-18.43
-23.18
-28.36
-33.59
-38.64
-43.44
-47.98
-52.26
-56.23
-59.88
-63.29
-66.69
-70.33
-74.18
-77.72
-79.8
-78.83
-73.32
-62.45
-46.47
-26.66
-4.95
16.75
36.99
54.92
70.11
82.25
91
96.01
97.18
94.88
90.01
83.77
77.47
72.24
68.76
67.29
67.67
69.41
71.9
74.61
77.11
79.2
80.81
81.81
81.98
80.98
78.51
74.44
68.96
62.49
55.58
48.7
42.11
35.81
29.64
23.28
16.33
8.42
-0.62
-10.53
-20.46
-29.01
-34.49
-35.5
-31.36
-22.41
-9.85
4.65
19.38
33
44.57
53.51
59.38
61.89
60.92
56.67
49.79
41.3
32.47
24.51
18.32
14.32
12.43
12.21
13.12
14.71
16.76
19.19
21.86
24.45
26.36
26.93
25.58
22.09
16.72
10.17
3.31
-3.06
-8.5
-13.05
-17.25
-21.91
-27.84
-35.54
-44.88
-54.97
-64.31
-71.04
-73.5
-70.62
-62.21
-49.03
-32.47
-14.29
3.86
20.56
34.77
45.77
53.14
56.77
56.84
53.88
48.69
42.24
35.58
29.64
25.2
22.74
22.36
23.85
26.7
30.23
33.8
36.9
39.22
40.58
40.83
39.8
37.28
33.19
27.69
21.22
14.4
7.84
1.89
-3.48
-8.58
-13.9
-19.93
-27.04
-35.34
-44.56
-53.92
-62.11
-67.5
-68.54
-64.31
-54.8
-41.02
-24.64
-7.5
8.77
23.01
34.54
43.05
48.46
50.92
50.74
48.46
44.75
40.29
35.75
31.67
28.48
26.51
25.9
26.68
28.64
31.42
34.5
37.38
39.6
40.92
41.24
40.63
39.19
36.96
33.95
30.09
25.42
20.05
14.24
8.32
2.67
-2.44
-6.88
-10.74
-14.37
-18.23
-22.9
-28.82
-36.08
-44.35
-52.71
-59.76
-63.86
-63.56
-58.01
-47.34
-32.66
-15.84
1.06
16.23
28.53
37.54
43.33
46.22
46.55
44.65
40.96
36.11
30.92
26.23
22.71
20.67
20.02
20.43
21.56
23.17
25.16
27.49
29.99
32.29
33.86
34.2
33.04
30.51
27.07
23.29
19.67
16.38
13.25
9.93
6.09
1.63
-3.32
-8.41
-13.24
-17.53
-21.16
-24.26
-27.11
-30.18
-33.95
-38.85
-44.96
-51.86
-58.57
-63.66
-65.61
-63.3
-56.38
-45.38
-31.59
-16.64
-2.06
11.02
21.92
30.33
36.12
39.22
39.64
37.56
33.49
28.25
22.85
18.24
15.1
13.66
13.75
14.95
16.84
19.13
21.66
24.32
26.82
28.75
29.62
29.05
26.97
23.64
19.57
15.3
11.17
7.26
3.43
-0.55
-4.84
-9.4
-14.04
-18.52
-22.62
-26.26
-29.52
-32.65
-36.03
-40.13
-45.37
-51.95
-59.61
-67.53
-74.31
-78.36
-78.31
-73.44
-63.99
-51
-36.02
-20.65
-6.18
6.54
17.03
25.04
30.38
32.92
32.71
30.08
25.73
20.64
15.83
12.14
10.06
9.59
10.47
12.33
14.86
17.85
21.11
24.3
26.97
28.54
28.53
26.76
23.4
18.94
13.97
8.96
4.09
-0.71
-5.69
-11.07
-16.81
-22.65
-28.18
-33.03
-37.11
-40.65
-44.1
-47.98
-52.67
-58.35
-65.05
-72.5
-80.14
-86.95
-91.47
-92.15
-87.71
-77.75
-62.98
-45.04
-26.04
-7.96
7.79
20.48
29.92
36.15
39.33
39.67
37.61
33.86
29.37
25.2
22.24
21.04
21.71
23.99
27.38
31.37
35.52
39.51
43.12
46.1
48.16
48.97
48.25
45.87
41.99
36.99
31.45
25.92
20.76
15.94
11.15
5.92
-0.1
-6.92
-14.14
-21.08
-27.09
-31.76
-35.2
-37.96
-40.85
-44.64
-49.85
-56.42
-63.65
-70.31
-74.8
-75.62
-71.73
-62.94
-49.96
-34.23
-17.47
-1.27
13.29
25.62
35.48
42.75
47.3
48.99
47.86
44.24
38.86
32.66
26.58
21.37
17.41
14.87
13.76
14.07
15.79
18.84
22.96
27.6
32.02
35.41
37.09
36.73
34.42
30.61
25.94
20.99
16.15
11.51
6.97
2.4
-2.19
-6.63
-10.69
-14.14
-16.96
-19.31
-21.58
-24.26
-27.87
-32.81
-39.28
-46.98
-55.05
-62.04
-66.2
-65.91
-60.29
-49.42
-34.45
-17.18
0.41
16.74
30.77
42.01
50.3
55.53
57.63
56.65
52.96
47.36
40.97
35.01
30.48
27.91
27.37
28.59
31.21
34.91
39.4
44.33
49.22
53.44
56.32
57.35
56.33
53.36
48.87
43.41
37.51
31.55
25.66
19.83
13.96
8.05
2.15
-3.52
-8.88
-13.89
-18.74
-23.71
-29.08
-35.1
-41.9
-49.45
-57.4
-65.03
-71.19
-74.51
-73.72
-68.09
-57.68
-43.38
-26.64
-9.1
7.8
22.94
35.59
45.2
51.44
54.13
53.33
49.48
43.38
36.13
28.96
22.92
18.68
16.47
16.12
17.24
19.4
22.24
25.44
28.67
31.55
33.66
34.64
34.29
32.62
29.84
26.26
22.17
17.84
13.38
8.78
3.98
-1.08
-6.35
-11.61
-16.55
-20.88
-24.55
-27.84
-31.29
-35.55
-41.03
-47.65
-54.74
-61.14
-65.41
-66.25
-62.85
-55.06
-43.48
-29.3
-13.94
1.21
15.01
26.7
35.83
42.11
45.41
45.73
43.28
38.55
32.23
25.17
18.21
12.05
7.15
3.8
2.06
1.79
2.72
4.43
6.4
8.11
9.14
9.32
8.68
7.38
5.6
3.33
0.42
-3.31
-7.93
-13.29
-19.02
-24.65
-29.85
-34.44
-38.5
-42.2
-45.82
-49.59
-53.75
-58.47
-63.76
-69.31
-74.38
-77.84
-78.36
-74.86
-66.86
-54.75
-39.65
-23.2
-7.07
7.4
19.35
28.35
34.21
36.88
36.38
32.94
27.08
19.65
11.7
4.32
-1.67
-5.78
-7.93
-8.31
-7.22
-5.02
-1.99
1.6
5.47
9.2
12.33
14.35
14.85
13.65
10.88
6.9
2.24
-2.57
-7.23
-11.69
-16.14
-20.99
-26.64
-33.4
-41.29
-49.83
-58.02
-64.39
-67.45
-66.07
-59.93
-49.57
-36.21
-21.31
-6.16
8.23
21.18
32.03
40.13
44.87
45.92
43.41
38.05
30.95
23.34
16.25
10.32
5.82
2.73
0.92
0.3
0.86
2.54
5.19
8.42
11.54
13.78
14.46
13.27
10.31
6.08
1.21
-3.79
-8.69
-13.53
-18.55
-24.04
-30.3
-37.53
-45.77
-54.7
-63.4
-70.34
-73.66
-71.78
-64.02
-50.89
-33.99
-15.43
2.82
19.37
33.44
44.6
52.5
56.76
57.13
53.73
47.25
38.81
29.82
21.55
14.92
10.36
7.89
7.23
7.98
9.82
12.44
15.6
18.94
21.98
24.11
24.78
23.67
20.85
16.73
11.93
7.08
2.54
-1.71
-6.01
-10.96
-17.1
-24.73
-33.64
-43.02
-51.44
-57.11
-58.3
-53.81
-43.42
-27.97
-9.21
10.69
29.7
46.26
59.44
68.83
74.31
75.89
73.73
68.25
60.21
50.69
40.88
31.81
24.15
18.18
13.86
11.03
9.55
9.32
10.21
11.91
13.92
15.53
15.98
14.59
10.95
5.06
-2.65
-11.35
-20.06
-27.88
-34.3
-39.35
-43.53
-47.62
-52.37
-58.22
-65.03
-72.07
-78.06
-81.45
-80.84
-75.34
-64.86
-50.15
-32.62
-13.93
4.25
20.57
33.98
43.77
49.54
51.3
49.53
45.14
39.39
33.53
28.58
25.11
23.27
22.89
23.65
25.25
27.41
29.84
32.18
33.97
34.72
34.03
31.75
28.02
23.26
17.98
12.64
7.41
2.18
-3.41
-9.87
-17.72
-27.29
-38.54
-50.81
-62.8
-72.68
-78.47
-78.65
-72.63
-60.96
-45.18
-27.31
-9.36
7.04
20.79
31.15
37.67
40.17
38.81
34.22
27.5
19.98
12.97
7.46
3.95
2.52
2.94
4.93
8.09
11.96
15.96
19.39
21.55
21.95
20.38
16.98
12.1
6.19
-0.37
-7.3
-14.5
-22.04
-30.14
-39.04
-48.8
-59.01
-68.59
-75.87
-78.96
-76.34
-67.43
-52.8
-34.05
-13.3
7.34
26.22
42.25
54.74
63.21
67.25
66.69
61.79
53.51
43.41
33.37
25.01
19.27
16.26
15.42
15.99
17.39
19.41
22.06
25.22
28.46
30.98
31.82
30.25
26.02
19.44
11.19
2.05
-7.41
-16.92
-26.56
-36.52
-47.1
-58.53
-70.96
-84.24
-97.68
-109.87
-118.68
-121.77
-117.31
-104.69
-84.87
-60.23
-33.76
-8.22
14.45
33.28
48.04
58.8
65.61
68.46
67.46
63.07
56.21
48.18
40.41
34.09
29.96
28.1
28.1
29.29
31.01
32.81
34.53
36.13
37.55
38.54
38.6
37.16
33.74
28.22
20.89
12.41
3.57
-4.93
-12.65
-19.48
-25.57
-31.26
-37.08
-43.61
-51.41
-60.63
-70.68
-80.04
-86.41
-87.39
-81.18
-67.25
-46.55
-21.24
5.98
32.49
56.22
75.86
90.8
100.96
106.62
108.29
106.6
102.29
96.13
88.98
81.74
75.2
69.91
66.11
63.71
62.44
62
62.19
62.88
63.94
65.14
66.1
66.32
65.38
63.06
59.47
54.93
49.9
44.74
39.47
33.81
27.27
19.5
10.56
1.01
-8.13
-15.82
-21.37
-24.76
-26.64
-28.16
-30.53
-34.71
-41.23
-50.05
-60.55
-71.5
-81.15
-87.57
-89.04
-84.62
-74.56
-60.24
-43.8
-27.53
-13.2
-1.78
6.51
11.88
14.6
14.78
12.47
7.83
1.4
-5.94
-13.11
-19.08
-23.12
-24.92
-24.55
-22.27
-18.45
-13.52
-7.95
-2.36
2.53
6.07
7.78
7.55
5.6
2.38
-1.56
-5.85
-10.3
-14.98
-20.07
-25.79
-32.21
-39.16
-46.3
-53.08
-58.99
-63.67
-67.08
-69.58
-71.95
-75.2
-80.31
-87.68
-96.78
-106
-112.84
-114.69
-109.62
-97.12
-78.21
-55.13
-30.56
-6.89
14.22
31.89
45.8
55.84
62.06
64.66
64.09
61.17
56.95
52.56
48.99
46.87
46.47
47.75
50.45
54.25
58.8
63.72
68.49
72.56
75.26
76.05
74.57
70.78
64.9
57.41
48.97
40.33
32.17
24.98
18.92
13.76
8.91
3.71
-2.31
-9.22
-16.63
-23.81
-30.04
-34.94
-38.69
-42.06
-46.19
-52.21
-60.76
-71.56
-83.29
-93.65
-100.02
-100.08
-92.6
-77.77
-57.15
-33.27
-8.91
13.45
32.08
46.09
55.36
60.26
61.48
59.72
55.62
49.82
42.92
35.67
28.9
23.47
19.98
18.71
19.59
22.27
26.39
31.56
37.45
43.68
49.84
55.57
60.66
65.15
69.26
73.21
77.01
80.45
83.08
84.43
84.23
82.41
79.12
74.64
69.25
63.25
56.97
50.82
45.28
40.85
37.79
36.02
34.96
33.58
30.69
25.33
17.27
7.3
-2.78
-10.61
-13.96
-11.43
-2.83
10.84
27.73
45.7
62.78
77.42
88.62
95.88
99.09
98.47
94.41
87.5
78.35
67.58
55.82
43.69
31.86
20.99
11.66
4.25
-1.09
-4.52
-6.48
-7.61
-8.65
-10.21
-12.66
-16.1
-20.36
-25.18
-30.36
-35.77
-41.38
-47.11
-52.79
-58.13
-62.8
-66.58
-69.47
-71.69
-73.61
-75.54
-77.62
-79.82
-81.92
-83.75
-85.14
-86.14
-86.85
-87.48
-88.35
-89.79
-92.09
-95.24
-98.76
-101.45
-101.64
-97.63
-88.3
-73.61
-54.78
-33.89
-13.29
5.05
19.89
30.78
37.8
41.38
42.1
40.61
37.63
33.86
29.88
26.07
22.59
19.51
16.88
14.82
13.53
13.23
14.06
15.93
18.51
21.17
23.15
23.74
22.54
19.55
15.21
10.2
5.09
0.24
-4.4
-9.12
-14.21
-19.76
-25.58
-31.26
-36.46
-41.06
-45.24
-49.49
-54.39
-60.44
-67.79
-76.06
-84.22
-90.68
-93.62
-91.47
-83.48
-70.09
-52.77
-33.71
-15.13
1.24
14.44
24.1
30.29
33.11
32.77
29.63
24.23
17.3
9.7
2.11
-5.02
-11.46
-17.13
-22.01
-25.99
-28.92
-30.62
-31.06
-30.34
-28.86
-27.25
-26.29
-26.67
-28.85
-32.88
-38.37
-44.74
-51.36
-57.72
-63.59
-68.9
-73.82
-78.71
-84.12
-90.72
-98.96
-108.69
-118.76
-127.03
-130.95
-128.29
-118.04
-100.8
-78.6
-54.16
-30.11
-8.33
10.25
25.42
37.32
46.17
52.19
55.58
56.82
56.71
56.31
56.69
58.61
62.17
66.75
71.42
75.26
77.87
79.51
80.83
82.35
84.13
85.51
85.49
83.14
78.04
70.45
61.13
50.89
40.24
29.25
17.69
5.18
-8.5
-23.35
-39.21
-55.75
-72.42
-88.22
-101.7
-110.97
-114.29
-110.63
-100.3
-84.91
-67
-49.17
-33.37
-20.54
-10.7
-3.45
1.6
4.58
5.56
4.69
2.35
-0.86
-4.42
-8.03
-11.62
-15.19
-18.53
-21.18
-22.47
-21.89
-19.38
-15.56
-11.46
-8.22
-6.71
-7.25
-9.66
-13.36
-17.6
-21.71
-25.31
-28.39
-31.46
-35.41
-41.36
-50.09
-61.59
-74.58
-86.42
-93.79
-93.62
-84.27
-66.14
-41.6
-14.12
12.84
36.78
56.49
71.74
82.74
89.65
92.58
91.81
87.98
82.19
75.68
69.5
64.18
59.79
56.09
52.87
50.16
48.18
47.26
47.49
48.58
49.91
50.61
49.9
47.29
42.73
36.52
29.19
21.25
13.11
4.99
-3.04
-11.13
-19.53
-28.65
-38.73
-49.52
-60.02
-68.36
-72.27
-69.73
-59.87
-43.37
-22.42
-0.06
20.7
37.59
49.44
56.11
58.06
56.08
51.02
43.74
35.16
26.13
17.42
9.49
2.51
-3.66
-9.28
-14.45
-19.07
-22.73
-24.97
-25.5
-24.5
-22.63
-20.91
-20.32
-21.49
-24.51
-28.91
-33.93
-38.84
-43.21
-47.13
-51.15
-56.12
-62.94
-72.21
-83.78
-96.56
-108.37
-116.37
-117.68
-110.35
-94.02
-70.17
-41.83
-12.7
13.8
35.24
50.46
59.34
62.37
60.26
53.75
43.63
30.88
16.66
2.23
-11.22
-22.73
-31.75
-38.14
-42.18
-44.57
-46.29
-48.54
-52.44
-58.86
-68.16
-80.17
-94.29
-109.73
-125.86
-142.37
-159.38
-177.32
-196.76
-218.15
-241.53
-266.16
-290.29
-311.27
-326.02
-331.95
-327.7
-313.76
-292.21
-266
-237.99
-210.11
-183.07
-156.61
-130.16
-103.51
-77.3
-53.07
-32.88
-18.5
-10.72
-8.81
-10.71
-13.52
-14.57
-12.14
-5.68
4.5
17.81
33.81
52.18
72.33
92.98
112.1
127.41
137.05
140.32
137.76
130.9
121.45
110.63
98.83
85.81
71.44
56.23
41.63
29.71
22.57
21.52
26.91
38.15
54.17
73.75
95.7
118.82
141.68
162.62
179.76
191.32
195.98
193.1
182.95
166.66
146.02
123.25
100.65
80.28
63.77
52.28
46.34
45.85
49.97
57.21
65.6
73.01
77.65
78.51
75.47
69.27
61.27
52.89
45.16
38.25
31.38
23.11
11.95
-2.84
-20.56
-38.81
-54.05
-62.51
-61.31
-49.43
-27.95
0.34
31.87
63.23
91.74
115.59
133.57
144.77
148.56
144.77
134.04
117.94
98.78
79.22
61.63
47.76
38.41
33.6
32.59
34.25
37.18
40.07
41.86
41.87
39.86
35.77
29.69
21.72
11.95
0.5
-12.62
-27.52
-44.44
-63.39
-83.64
-103.28
-119.28
-128.11
-126.78
-113.92
-90.34
-58.8
-23.24
12.27
44.34
70.57
89.55
100.56
103.49
98.85
87.79
72.14
54.27
36.85
22.38
12.73
8.69
9.73
14.28
20.24
25.71
29.57
31.58
32.02
31.25
29.25
25.6
19.82
11.59
0.98
-11.75
-26.31
-42.39
-59.33
-75.68
-89.08
-96.55
-95.31
-83.67
-61.72
-31.39
3.89
40.08
73.36
100.77
120.54
132.11
135.86
132.87
124.57
112.61
98.76
84.83
72.56
63.34
57.96
56.47
58.21
62
66.49
70.45
72.92
73.35
71.57
67.76
62.27
55.52
47.82
39.21
29.53
18.51
5.86
-8.48
-24.15
-40.1
-54.49
-64.77
-68.26
-62.88
-47.95
-24.58
4.41
35.31
64.47
89.13
107.83
120.22
126.64
127.68
124.07
116.75
107.04
96.65
87.35
80.6
77.05
76.47
77.95
80.34
82.76
84.77
86.31
87.38
87.8
87.09
84.62
79.89
72.77
63.58
53.09
42.27
32.03
22.97
15.2
8.45
2.14
-4.21
-10.84
-17.64
-24.27
-30.38
-35.92
-41.17
-46.73
-53.38
-61.8
-72.38
-84.88
-98.27
-110.59
-119.19
-121.38
-115.16
-99.94
-76.91
-48.68
-18.63
10.02
34.77
54.14
67.52
74.89
76.65
73.59
67.06
58.86
51
45.22
42.51
42.91
45.64
49.51
53.45
56.79
59.24
60.77
61.37
60.9
59.24
56.37
52.48
47.93
43.09
38.28
33.7
29.4
25.39
21.62
18.05
14.7
11.6
8.81
6.34
4.09
1.83
-0.74
-3.84
-7.45
-11.3
-14.96
-18.06
-20.54
-22.66
-24.91
-27.74
-31.31
-35.45
-39.76
-43.8
-47.3
-50.25
-52.92
-55.83
-59.56
-64.72
-71.59
-79.9
-88.58
-95.77
-99.16
-96.66
-87.06
-70.57
-48.79
-24.33
-0.07
21.52
38.81
51.05
58.23
60.8
59.43
55.05
48.76
41.87
35.75
31.54
29.92
30.9
33.91
37.98
42.14
45.64
48.14
49.64
50.23
49.96
48.72
46.3
42.51
37.35
31.12
24.38
17.81
12.03
7.42
3.97
1.38
-0.85
-3.17
-5.77
-8.57
-11.24
-13.48
-15.13
-16.3
-17.37
-18.81
-20.96
-23.94
-27.57
-31.5
-35.35
-38.86
-42.02
-45.01
-48.18
-51.95
-56.69
-62.55
-69.32
-76.24
-82.01
-84.97
-83.53
-76.68
-64.38
-47.73
-28.63
-9.31
8.19
22.48
32.89
39.37
42.3
42.23
39.82
35.79
30.99
26.36
22.79
20.95
21.07
22.93
25.92
29.39
32.81
35.9
38.59
40.77
42.23
42.64
41.74
39.54
36.34
32.6
28.81
25.24
21.93
18.79
15.69
12.63
9.74
7.19
5.12
3.57
2.45
1.57
0.71
-0.36
-1.78
-3.61
-5.76
-8.05
-10.3
-12.42
-14.53
-16.83
-19.63
-23.08
-27.06
-31.25
-35.15
-38.35
-40.71
-42.46
-44.16
-46.48
-50.04
-55.12
-61.4
-67.9
-73.07
-75.14
-72.62
-64.81
-52.05
-35.74
-17.92
-0.69
14.23
25.84
33.79
38.2
39.47
38.13
34.8
30.22
25.25
20.75
17.43
15.73
15.72
17.17
19.63
22.6
25.64
28.46
30.91
32.91
34.41
35.33
35.56
34.98
33.49
31.12
28.1
24.78
21.54
18.74
16.6
15.13
14.19
13.52
12.79
11.66
9.83
7.16
3.71
-0.26
-4.37
-8.23
-11.59
-14.42
-16.86
-19.08
-21.26
-23.43
-25.59
-27.7
-29.76
-31.76
-33.66
-35.37
-36.81
-37.97
-39
-40.09
-41.29
-42.24
-42.08
-39.58
-33.49
-22.99
-8.01
10.71
31.82
53.72
74.94
94.41
111.58
126.43
139.39
151.23
162.86
175.18
188.96
204.66
222.22
240.86
258.98
274.35
284.66
288.16
284.32
274
258.99
241.37
222.79
204.26
186.29
169.32
153.89
140.47
128.97
118.33
106.68
91.85
72.27
47.59
18.81
-12.19
-43.34
-73.01
-100.24
-124.57
-145.81
-163.74
-178.14
-188.94
-196.38
-201.07
-203.82
-205.48
-206.69
-207.89
-209.31
-211.12
-213.45
-216.37
-219.64
-222.59
-224.06
-222.61
-217
-206.62
-191.79
-173.76
-154.29
-135.21
-117.93
-103.28
-91.55
-82.69
-76.52
-72.79
-71.18
-71.21
-72.23
-73.49
-74.19
-73.7
-71.67
-68.03
-63.01
-57
-50.48
-43.88
-37.6
-32.01
-27.42
-24.08
-22.1
-21.41
-21.75
-22.71
-23.85
-24.84
-25.53
-26.04
-26.62
-27.56
-28.99
-30.83
-32.79
-34.53
-35.9
-36.95
-37.99
-39.35
-41.25
-43.71
-46.58
-49.62
-52.68
-55.75
-59.01
-62.74
-67.33
-72.98
-79.52
-86.24
-91.89
-94.96
-94.08
-88.53
-78.48
-64.97
-49.54
-33.9
-19.48
-7.31
2.04
8.35
11.67
12.28
10.64
7.34
3.05
-1.54
-5.72
-8.83
-10.39
-10.08
-7.94
-4.28
0.36
5.35
10.11
14.22
17.47
19.76
21.08
21.49
20.99
19.63
17.42
14.47
10.92
6.99
2.96
-0.9
-4.4
-7.5
-10.32
-13.07
-15.97
-19.07
-22.24
-25.27
-27.95
-30.23
-32.28
-34.35
-36.76
-39.8
-43.65
-48.42
-53.92
-59.57
-64.29
-66.63
-65.14
-58.97
-48.13
-33.64
-17.17
-0.54
14.67
27.39
37.08
43.55
46.84
47.19
44.99
40.87
35.58
29.94
24.73
20.57
17.9
16.89
17.48
19.41
22.35
25.85
29.53
33.04
36.09
38.48
39.98
40.37
39.44
37.12
33.49
28.93
23.95
19.09
14.66
10.73
7.15
3.7
0.27
-3.12
-6.3
-9.1
-11.42
-13.29
-14.83
-16.21
-17.75
-19.81
-22.81
-27.04
-32.39
-38.18
-43.13
-45.66
-44.38
-38.52
-28.19
-14.38
1.41
17.52
32.54
45.44
55.64
62.92
67.35
69.18
68.76
66.58
63.14
59.11
55.21
52.25
51.01
52.08
55.79
62.04
70.39
80.11
90.38
100.48
109.91
118.46
126.21
133.42
140.38
147.38
154.56
161.96
169.48
176.87
183.72
189.57
194.01
196.94
198.67
199.76
200.75
201.69
201.95
200.26
195.22
185.73
171.39
152.46
129.6
103.62
75.21
45.09
14.05
-16.95
-46.82
-74.55
-99.36
-120.77
-138.61
-152.97
-164.16
-172.62
-178.83
-183.17
-185.7
-186.18
-184.15
-179.18
-171.06
-159.96
-146.41
-131.19
-115.17
-99.22
-84.1
-70.43
-58.73
-49.47
-43.07
-39.87
-40.08
-43.59
-50.02
-58.71
-68.87
-79.73
-90.5
-100.42
-108.61
-114.24
-116.77
-116.28
-113.62
-110.21
-107.38
-105.66
-104.37
-101.73
-95.61
-84.43
-67.86
-47
-24
-1.44
18.25
33.18
42.11
44.48
40.45
30.91
17.37
1.68
-14.23
-28.78
-40.87
-49.95
-55.82
-58.58
-58.45
-55.87
-51.47
-46.13
-40.76
-36.12
-32.6
-30.19
-28.59
-27.48
-26.75
-26.6
-27.45
-29.65
-33.22
-37.77
-42.62
-47.03
-50.52
-52.95
-54.52
-55.65
-56.83
-58.5
-60.93
-64.14
-67.62
-70.28
-70.58
-66.9
-58.1
-44.02
-25.62
-4.69
16.66
36.6
53.93
68.1
79.08
87.02
92.15
94.73
95.09
93.78
91.46
88.9
86.83
85.81
86.18
88.04
91.34
95.9
101.45
107.58
113.77
119.44
124.12
127.53
129.75
131.13
132.04
132.6
132.53
131.17
127.73
121.61
112.6
100.93
87.15
71.89
55.7
39.04
22.24
5.61
-10.56
-25.87
-39.79
-51.54
-60.17
-64.69
-64.44
-59.32
-49.98
-37.66
-24
-10.61
1.21
10.61
17.19
20.86
21.71
19.96
16
10.47
4.35
-1.17
-4.82
-5.57
-2.91
2.99
11.42
21.43
32.12
42.94
53.7
64.36
74.75
84.29
92
96.61
97.08
92.91
84.38
72.44
58.43
43.6
28.85
14.58
0.81
-12.69
-26.31
-40.38
-55.15
-70.55
-86.06
-100.62
-112.7
-120.68
-123.26
-119.84
-110.69
-96.82
-79.63
-60.59
-40.97
-21.91
-4.58
9.65
19.24
22.82
19.65
9.97
-4.88
-22.84
-41.56
-59.1
-74.17
-86.22
-95.28
-101.65
-105.75
-108.03
-109.01
-109.23
-109.27
-109.6
-110.53
-112.11
-114.2
-116.48
-118.59
-120.22
-121.24
-121.73
-121.85
-121.87
-122.04
-122.67
-124.08
-126.53
-129.99
-133.82
-136.66
-136.67
-131.98
-121.4
-104.92
-83.76
-59.93
-35.69
-12.92
7.1
23.65
36.34
44.96
49.49
50.14
47.56
42.75
36.98
31.55
27.58
25.74
26.23
28.81
32.92
37.91
43.19
48.24
52.63
56.02
58.09
58.61
57.49
54.79
50.73
45.56
39.58
33.02
26.15
19.22
12.48
6.18
0.36
-5.12
-10.65
-16.73
-23.77
-31.76
-40.03
-47.31
-51.86
-52.08
-46.92
-36.38
-21.44
-3.87
14.34
31.42
46.11
57.68
65.87
70.56
71.85
69.9
65.2
58.51
50.93
43.63
37.72
33.94
32.63
33.72
36.8
41.28
46.43
51.51
55.8
58.74
59.95
59.35
57.09
53.46
48.81
43.49
37.75
31.81
25.88
20.12
14.64
9.48
4.56
-0.25
-5.08
-10.09
-15.48
-21.41
-27.91
-34.7
-41
-45.63
-47.16
-44.36
-36.66
-24.42
-8.88
8.16
24.82
39.56
51.35
59.7
64.45
65.65
63.53
58.53
51.36
43.04
34.75
27.69
22.73
20.3
20.29
22.2
25.22
28.62
31.74
34.18
35.73
36.31
35.86
34.34
31.74
28.09
23.53
18.28
12.6
6.75
0.96
-4.56
-9.66
-14.22
-18.2
-21.68
-24.84
-27.94
-31.34
-35.31
-39.92
-44.86
-49.37
-52.3
-52.34
-48.37
-39.87
-27.2
-11.56
5.23
21.21
34.81
44.99
51.42
54.21
53.68
50.24
44.41
36.86
28.56
20.73
14.56
11.02
10.49
12.74
17.01
22.33
27.72
32.43
35.96
38.03
38.56
37.61
35.34
31.99
27.79
22.92
17.55
11.9
6.23
0.87
-3.85
-7.76
-10.91
-13.56
-16.15
-19.12
-22.84
-27.5
-33.04
-39.05
-44.7
-48.77
-49.95
-47.14
-39.9
-28.65
-14.62
0.49
14.94
27.38
36.94
43.29
46.35
46.24
43.24
37.84
30.84
23.3
16.39
11.11
8.09
7.48
9.05
12.29
16.63
21.52
26.43
30.83
34.2
36.14
36.48
35.34
33.1
30.24
27.17
24.04
20.79
17.25
13.33
9.19
5.18
1.71
-0.86
-2.44
-3.21
-3.56
-4
-5.03
-6.96
-9.81
-13.1
-15.87
-16.83
-14.63
-8.34
2.36
16.99
34.51
53.57
72.84
91.14
107.54
121.29
131.92
139.27
143.64
145.83
147.04
148.78
152.52
159.52
170.49
185.36
203.2
222.23
240.2
254.91
264.79
269.2
268.3
262.75
253.11
239.69
222.55
201.94
178.59
153.78
129.09
105.83
84.71
65.69
48.22
31.61
15.31
-1.07
-17.85
-35.46
-54.43
-75.22
-97.95
-122.26
-147.25
-171.53
-193.37
-210.91
-222.4
-226.46
-222.55
-211.18
-194.01
-173.55
-152.57
-133.41
-117.49
-105.12
-95.77
-88.52
-82.46
-76.97
-71.67
-66.27
-60.41
-53.64
-45.52
-35.83
-24.69
-12.58
-0.17
11.97
23.56
34.65
45.48
56.2
66.57
75.93
83.34
87.97
89.49
88.26
85.22
81.37
77.21
72.32
65.42
54.88
39.31
18.1
-8.38
-39.02
-72.37
-106.87
-141.11
-173.81
-203.92
-230.66
-253.57
-272.42
-286.92
-296.53
-300.39
-297.74
-288.27
-272.57
-252.1
-228.84
-204.77
-181.48
-160.03
-141.1
-125.19
-112.71
-103.85
-98.44
-95.81
-94.77
-93.87
-91.74
-87.4
-80.48
-71.27
-60.41
-48.66
-36.58
-24.47
-12.48
-0.91
9.7
18.58
25
28.66
29.79
29.13
27.6
26
24.77
24.15
24.13
24.66
25.62
26.78
27.75
28.04
27.2
25.05
21.69
17.49
12.87
8.08
3.04
-2.54
-8.96
-16.3
-24.21
-31.91
-38.47
-43.05
-45.18
-44.88
-42.59
-39.08
-35.22
-31.85
-29.71
-29.42
-31.31
-35.38
-41.22
-47.95
-54.4
-59.31
-61.69
-60.97
-57.2
-50.98
-43.2
-34.87
-26.95
-20.18
-15.01
-11.63
-9.92
-9.58
-10.19
-11.39
-13.01
-15.02
-17.51
-20.54
-24.05
-27.84
-31.68
-35.34
-38.69
-41.77
-44.75
-48.05
-52.12
-57.35
-63.63
-70.13
-75.3
-77.18
-74.04
-65.02
-50.54
-32.14
-11.99
7.78
25.56
40.4
51.88
59.83
64.23
65.2
63.07
58.51
52.49
46.06
40.2
35.62
32.74
31.65
32.23
34.23
37.3
41.01
44.87
48.37
51.1
52.82
53.51
53.27
52.23
50.38
47.63
43.9
39.33
34.29
29.31
24.85
21.12
18.03
15.3
12.56
9.48
5.8
1.36
-3.8
-9.31
-14.22
-17.1
-16.27
-10.28
1.56
18.84
40.09
63.06
85.25
104.39
118.86
127.8
131.02
128.89
122.05
111.32
97.7
82.42
66.88
52.6
40.85
32.41
27.44
25.51
25.84
27.71
30.55
34.11
38.27
42.86
47.5
51.59
54.43
55.44
54.54
52.23
49.58
47.83
47.87
49.83
52.89
55.47
55.76
52.28
44.39
32.39
17.52
1.82
-12.2
-21.7
-24.08
-17.43
-1.19
23.53
54.02
86.59
117.56
144.07
164.58
178.64
186.37
187.76
182.57
170.53
151.97
128.16
101.27
73.77
47.74
24.37
3.91
-13.84
-29.03
-41.46
-50.61
-55.98
-57.5
-55.84
-52.41
-49.04
-47.62
-49.55
-55.47
-65.18
-77.81
-92.19
-107.17
-121.84
-135.47
-147.41
-157.05
-163.96
-168.1
-169.94
-170.45
-170.73
-171.49
-172.64
-173.15
-171.34
-165.42
-154.2
-137.56
-116.56
-93.12
-69.5
-47.71
-29.08
-14.17
-2.95
4.83
9.37
10.8
9.33
5.54
0.61
-3.86
-6.17
-5.14
-0.47
7.29
16.98
27.38
37.64
47.39
56.61
65.38
73.62
81.1
87.48
92.36
95.35
96.09
94.34
90.11
83.74
75.84
67.12
58.09
48.84
38.99
27.88
14.88
-0.16
-16.57
-32.65
-45.87
-53.45
-53.28
-44.75
-29.34
-10.37
7.88
21.53
28.2
27.6
21.27
11.7
1.38
-8.02
-15.85
-22.25
-27.61
-32.15
-35.67
-37.62
-37.32
-34.18
-27.93
-18.76
-7.39
4.92
16.52
25.66
30.89
31.36
27.02
18.45
6.73
-6.87
-20.98
-34.16
-45.02
-52.3
-55.22
-53.64
-48.2
-40.23
-31.34
-23.05
-16.24
-10.77
-5.37
2.12
14.08
32.08
56.17
84.45
113.58
139.63
159.33
170.78
173.75
169.3
159.26
145.55
129.74
112.58
93.95
73.02
48.9
21.45
-8.02
-36.71
-61.1
-78.14
-86.38
-86.3
-79.91
-69.75
-58.03
-46.25
-35.42
-26.44
-20.35
-18.25
-20.9
-28.41
-40.14
-54.79
-70.8
-86.72
-101.45
-114.34
-125.11
-133.78
-140.46
-145.34
-148.62
-150.44
-150.75
-149.16
-144.95
-137.21
-125.26
-109.02
-89.21
-67.21
-44.65
-22.95
-3.02
14.59
29.48
41.07
48.53
51.05
48.2
40.41
28.97
15.79
2.85
-8.29
-16.88
-22.9
-26.75
-29
-30.09
-30.34
-30.03
-29.44
-28.89
-28.71
-29.09
-30.09
-31.61
-33.34
-34.87
-35.74
-35.68
-34.73
-33.41
-32.6
-33.25
-36.08
-41.19
-48.06
-55.56
-62.22
-66.47
-66.99
-62.98
-54.28
-41.55
-25.99
-9.22
7.16
21.79
33.66
42.03
46.44
46.72
43.08
36.29
27.7
18.98
11.76
7.19
5.71
7
10.25
14.49
18.93
23.08
26.79
30.01
32.68
34.52
35.12
34.05
31.09
26.37
20.48
14.21
8.36
3.38
-0.71
-4.36
-8.23
-12.93
-18.87
-26.02
-33.87
-41.44
-47.35
-50.02
-48.04
-40.49
-27.36
-9.55
11.19
32.71
52.92
70.14
83.39
92.28
96.96
97.86
95.66
91.28
85.88
80.81
77.39
76.57
78.63
83.07
88.81
94.6
99.48
102.97
105.08
105.96
105.64
103.88
100.32
94.64
86.9
77.5
67.11
56.36
45.68
35.14
24.46
13.21
0.9
-12.69
-27.36
-42.26
-55.96
-66.66
-72.67
-72.79
-66.62
-54.54
-37.45
-16.43
7.41
33.01
59.11
84.22
106.58
124.4
136.34
141.82
141.21
135.86
127.75
119.13
112.16
108.56
109.33
114.42
122.68
132.01
139.88
144.08
143.38
137.7
127.8
114.58
98.45
79.15
56.13
29.16
-1.23
-33.72
-66.71
-98.87
-129.48
-158.37
-185.51
-210.7
-233.41
-253.01
-269.04
-281.26
-289.58
-293.67
-292.81
-285.94
-272.15
-251.22
-224.1
-192.89
-160.41
-129.46
-102.16
-79.59
-61.91
-48.64
-39.09
-32.53
-28.23
-25.4
-23.1
-20.32
-16.18
-10.11
-2
7.8
18.67
29.88
40.7
50.52
58.86
65.38
69.91
72.48
73.33
72.89
71.67
70.18
68.76
67.59
66.65
65.85
65.06
64.2
63.3
62.5
61.96
61.73
61.62
61.11
59.42
55.92
50.45
43.67
36.99
32.27
31.21
34.87
43.3
55.63
70.3
85.49
99.39
110.56
118.07
121.7
122.01
120.16
117.62
115.73
115.29
116.42
118.55
120.79
122.25
122.42
121.27
119.21
116.85
114.57
112.13
108.59
102.43
92.11
76.69
56.26
32.04
5.9
-20.19
-44.78
-67.19
-87.32
-105.26
-120.96
-134.05
-144.08
-150.78
-154.3
-155.32
-154.82
-153.88
-153.29
-153.45
-154.26
-155.06
-154.76
-151.95
-145.2
-133.43
-116.26
-94.27
-68.89
-42.12
-16.07
7.44
27.15
42.33
52.8
58.77
60.8
59.74
56.72
52.95
49.54
47.27
46.55
47.44
49.83
53.58
58.56
64.6
71.43
78.6
85.5
91.44
95.68
97.62
96.94
93.66
88.22
81.32
73.76
66.09
58.57
51.23
44.24
38.21
34.26
33.82
37.88
46.43
58.08
70.25
79.83
84.03
81.14
70.86
54.44
34.31
13.62
-4.56
-17.98
-25.88
-29.18
-30.11
-31.33
-34.99
-41.98
-51.96
-63.73
-76.08
-88.27
-100.2
-112.09
-123.97
-135.43
-145.54
-153.14
-157.35
-157.89
-155.11
-149.84
-142.97
-135.1
-126.48
-117.16
-107.31
-97.51
-88.71
-81.94
-77.82
-76.21
-76.25
-76.67
-76.31
-74.6
-71.74
-68.44
-65.58
-63.74
-62.97
-62.76
-62.33
-60.97
-58.36
-54.76
-50.88
-47.65
-45.96
-46.3
-48.65
-52.37
-56.22
-58.59
-57.73
-52.21
-41.24
-24.94
-4.41
18.57
41.99
64.06
83.59
100.06
113.43
123.9
131.69
136.99
140.05
141.42
141.96
142.79
145.04
149.51
156.41
165.38
175.65
186.28
196.5
205.72
213.52
219.45
222.93
223.29
219.93
212.45
200.76
184.93
165
140.83
112.19
79.16
42.48
3.8
-34.49
-69.87
-100.36
-125.05
-144.19
-158.8
-170.18
-179.5
-187.67
-195.4
-203.25
-211.46
-219.67
-226.64
-230.41
-228.84
-220.37
-204.68
-182.9
-157.26
-130.37
-104.5
-81.1
-60.75
-43.51
-29.33
-18.32
-10.73
-6.66
-5.73
-6.81
-8.11
-7.56
-3.46
4.94
17.2
31.81
46.79
60.44
71.83
81.03
88.85
96.43
104.67
113.79
123.05
130.64
133.85
129.65
115.51
90.43
55.53
14.22
-28.59
-67.68
-98.88
-119.94
-130.72
-132.76
-128.48
-120.59
-111.64
-103.89
-99.07
-98.14
-100.89
-105.82
-110.42
-111.88
-108.08
-98.32
-83.55
-66
-48.32
-32.76
-20.71
-12.57
-8.15
-6.95
-8.45
-12.13
-17.41
-23.53
-29.55
-34.51
-37.56
-38.14
-36.07
-31.52
-24.98
-17.11
-8.66
-0.39
7.04
13.06
17.35
19.82
20.63
20.17
18.93
17.46
16.13
15.16
14.46
13.8
12.88
11.53
9.76
7.7
5.5
3.16
0.39
-3.2
-7.91
-13.59
-19.35
-23.67
-24.73
-21.01
-11.86
2.28
19.96
39.25
58.25
75.54
90.28
102.11
110.91
116.66
119.44
119.46
117.13
113.07
107.92
102.3
96.75
91.71
87.65
84.99
84.02
84.73
86.75
89.39
91.8
93.31
93.53
92.39
90
86.36
81.27
74.38
65.4
54.39
41.93
28.96
16.52
5.31
-4.5
-13.4
-22.21
-31.79
-42.49
-53.86
-64.49
-72.24
-74.71
-69.97
-57.11
-36.7
-10.65
18.17
46.66
72.15
92.77
107.58
116.31
119.2
116.81
109.9
99.54
86.93
73.4
60.22
48.56
39.4
33.37
30.53
30.11
30.56
29.8
25.88
17.72
5.52
-9.33
-24.82
-39.18
-51.41
-61.48
-69.98
-77.65
-84.99
-92.28
-99.69
-107.59
-116.6
-127.4
-140.36
-155.21
-170.79
-185.12
-195.8
-200.53
-197.77
-187.22
-169.82
-147.57
-122.97
-98.33
-75.49
-55.55
-39.14
-26.54
-17.92
-13.35
-12.61
-15.08
-19.7
-25.08
-29.82
-32.76
-33.29
-31.35
-27.38
-22.02
-15.94
-9.63
-3.42
2.48
7.79
12.11
15.02
16.12
15.29
12.67
8.81
4.37
0.06
-3.66
-6.74
-9.47
-12.43
-16.29
-21.49
-28.02
-35.32
-42.2
-47.05
-48.26
-44.64
-35.87
-22.59
-6.23
11.43
28.73
44.46
57.89
68.54
75.99
79.86
79.9
76.28
69.75
61.57
53.24
46.18
41.35
39.11
39.26
41.19
44.17
47.55
50.98
54.31
57.59
60.78
63.61
65.62
66.23
65.11
62.39
58.69
54.98
52.13
50.58
50.18
50.27
49.97
48.64
46.14
43.1
40.83
41.12
45.77
56.02
72.06
92.86
116.29
139.79
161.06
178.65
192.14
201.86
208.4
211.92
211.73
206.32
193.71
172.28
141.7
103.52
61.31
19.79
-16.4
-44.11
-62.33
-72.11
-75.59
-74.9
-71.43
-65.79
-58.26
-49.34
-39.9
-31.04
-23.68
-18.36
-15.24
-14.28
-15.4
-18.62
-23.94
-31.29
-40.49
-51.25
-63.1
-75.42
-87.43
-98.32
-107.42
-114.3
-118.84
-121.18
-121.55
-120.22
-117.49
-113.82
-109.84
-106.3
-103.97
-103.42
-104.83
-107.93
-112
-116.02
-118.87
-119.67
-117.93
-113.68
-107.37
-99.65
-91.2
-82.54
-73.94
-65.52
-57.36
-49.63
-42.57
-36.51
-31.73
-28.37
-26.37
-25.46
-25.25
-25.42
-25.81
-26.5
-27.82
-30.14
-33.66
-38.08
-42.5
-45.47
-45.31
-40.7
-31.12
-17.11
-0.15
17.78
34.76
49.26
60.36
67.66
71.08
70.8
67.25
61.16
53.53
45.56
38.4
32.91
29.55
28.33
28.91
30.81
33.48
36.49
39.51
42.27
44.53
46.04
46.53
45.77
43.64
40.24
35.88
31.03
26.18
21.68
17.6
13.69
9.49
4.53
-1.41
-7.99
-14.21
-18.49
-19.04
-14.37
-3.75
12.46
32.79
54.93
76.26
94.27
107.12
113.8
114.22
109.13
99.83
87.84
74.68
61.57
49.44
38.85
30.04
22.97
17.37
12.88
9.07
5.62
2.25
-1.21
-4.95
-9.25
-14.38
-20.6
-27.96
-36.21
-44.8
-52.98
-60.08
-65.67
-69.75
-72.72
-75.25
-78.09
-81.84
-86.69
-92.36
-97.93
-101.97
-102.87
-99.23
-90.31
-76.38
-58.62
-38.87
-19.13
-1.16
13.81
25.12
32.6
36.36
36.71
34.13
29.27
22.94
16.09
9.74
4.8
1.94
1.4
3.04
6.31
10.43
14.6
18.14
20.66
22.03
22.4
21.99
21.03
19.64
17.85
15.69
13.26
10.77
8.57
7.03
6.46
6.99
8.56
10.94
13.77
16.6
18.92
20.18
19.97
18.27
15.6
13.1
12.27
14.43
20.19
29.09
39.66
49.89
57.82
62.08
62.08
57.95
50.2
39.54
26.77
12.78
-1.42
-14.67
-25.89
-34.26
-39.38
-41.28
-40.32
-37.01
-31.85
-25.3
-17.8
-9.89
-2.18
4.61
9.88
13.37
15.2
15.86
16.01
16.21
16.74
17.55
18.41
19.04
19.34
19.46
19.76
20.64
22.42
25.14
28.51
31.8
33.93
33.68
30.01
22.44
11.29
-2.3
-16.59
-29.76
-40.31
-47.41
-50.96
-51.41
-49.49
-46
-41.65
-37.12
-33.05
-30.12
-28.87
-29.62
-32.26
-36.22
-40.56
-44.17
-46.06
-45.56
-42.42
-36.86
-29.44
-20.97
-12.31
-4.28
2.55
7.86
11.59
13.82
14.71
14.38
12.99
10.75
7.95
4.89
1.86
-1.04
-3.77
-6.39
-8.88
-11.26
-13.55
-15.97
-18.89
-22.71
-27.54
-32.97
-37.95
-41.09
-41.02
-36.86
-28.53
-16.8
-2.97
11.33
24.59
35.59
43.52
48.06
49.31
47.71
43.87
38.49
32.27
25.94
20.19
15.63
12.74
11.73
12.53
14.85
18.29
22.5
27.21
32.16
37.05
41.53
45.22
47.87
49.48
50.33
50.79
51.29
52.18
53.7
56.07
59.48
64.12
70.04
77.12
85.01
93.12
100.79
107.44
112.79
116.97
120.54
124.24
128.73
134.42
141.37
149.45
158.41
167.87
177.03
184.42
187.93
185.29
174.85
156.33
131.11
101.76
71.28
42.26
16.54
-4.66
-20.39
-30.03
-33.63
-32.49
-29.34
-27.63
-30.3
-38.46
-50.75
-64.01
-74.68
-80.34
-80.6
-76.85
-71.3
-65.98
-62.16
-60.53
-61.5
-65.46
-72.54
-82.25
-93.29
-103.79
-112.02
-117.07
-119.24
-119.77
-120.14
-121.25
-122.91
-123.93
-122.58
-117.4
-107.7
-93.71
-76.3
-56.49
-35.14
-12.89
9.63
31.5
51.54
68.4
80.85
88.03
89.58
85.58
76.72
64.37
50.6
37.85
28.22
22.65
20.45
19.52
17.26
11.82
3.09
-7.17
-16
-20.53
-19.23
-12.71
-3.54
4.51
7.62
3.03
-10.39
-32.11
-60.35
-92.68
-126.51
-159.36
-188.97
-213.58
-232.07
-244.36
-251.53
-255.56
-258.6
-262.16
-266.34
-269.79
-270.15
-265.03
-252.97
-234
-209.6
-182.21
-154.46
-128.47
-105.51
-85.99
-69.76
-56.54
-46.14
-38.52
-33.7
-31.39
-30.88
-31.04
-30.59
-28.46
-24.19
-17.9
-10.15
-1.66
7.02
15.48
23.4
30.38
35.93
39.65
41.37
41.27
39.8
37.47
34.64
31.43
27.82
23.81
19.53
15.28
11.36
7.93
4.91
2.01
-1.16
-5.03
-9.94
-16.02
-22.96
-29.96
-35.64
-38.37
-36.7
-29.89
-18.21
-2.82
14.55
32.11
48.4
62.37
73.34
80.87
84.72
84.94
81.88
76.29
69.19
61.77
55.14
50.23
47.57
47.27
49.03
52.26
56.21
60.24
63.83
66.67
68.52
69.2
68.53
66.36
62.74
57.87
52.21
46.29
40.6
35.44
30.86
26.66
22.55
18.2
13.35
7.94
2.12
-3.57
-8.14
-10.26
-8.51
-1.86
9.94
26.15
45.23
65.3
84.63
102.02
116.78
128.58
137.2
142.37
143.91
141.9
136.94
130.08
122.67
116.08
111.36
109.05
109.2
111.46
115.31
120.26
125.95
132.11
138.5
144.84
150.78
155.95
160.11
163.13
165.1
166.31
167.14
168.1
169.72
172.59
177.19
183.67
191.59
199.64
205.73
207.47
202.9
191.18
173
150.3
125.54
100.79
77.08
54.34
31.8
8.55
-16.05
-42.53
-71.48
-103.66
-139.66
-179.14
-220.29
-259.93
-294.2
-319.89
-335.44
-341.28
-339.36
-332.17
-321.81
-309.64
-296.4
-282.69
-269.19
-256.69
-245.91
-237.16
-230.43
-225.48
-222.02
-219.77
-218.29
-216.81
-214.16
-209.06
-200.53
-188.43
-173.69
-158.09
-143.73
-132.18
-123.99
-118.46
-113.96
-108.52
-100.4
-88.41
-72.11
-51.68
-27.93
-2.09
24.22
49.24
71.3
89.1
101.86
109.47
112.37
111.56
108.39
104.38
101.03
99.55
100.69
104.65
111.23
119.87
129.97
140.89
152.05
162.78
172.14
178.95
181.8
179.41
171.02
156.76
137.7
115.58
92.33
69.39
47.51
26.75
6.89
-12.15
-29.98
-45.81
-58.63
-67.48
-71.54
-70.25
-63.45
-51.53
-35.67
-17.83
-0.46
14.07
24.05
28.86
28.96
25.53
19.96
13.4
6.56
-0.2
-6.66
-12.49
-17.15
-19.99
-20.42
-18.05
-12.87
-5.2
4.47
15.52
27.35
39.35
50.89
61.35
70.17
76.92
81.32
83.29
82.9
80.34
76.01
70.47
64.44
58.54
53.03
47.65
41.56
33.64
22.89
8.9
-7.85
-25.97
-43.31
-57.42
-66.01
-67.48
-61.34
-48.37
-30.57
-10.71
8.31
24.1
35.21
41.17
42.26
39.08
32.35
22.82
11.32
-1.13
-13.43
-24.6
-33.9
-40.9
-45.38
-47.2
-46.3
-42.88
-37.55
-31.44
-25.96
-22.52
-22.07
-24.97
-30.95
-39.24
-48.8
-58.53
-67.46
-75.01
-81.23
-86.81
-92.93
-100.84
-111.39
-124.71
-140.06
-156.03
-170.89
-182.82
-190.24
-192.01
-187.59
-177.12
-161.5
-142.31
-121.49
-101.01
-82.48
-66.95
-54.88
-46.24
-40.71
-37.87
-37.18
-37.92
-39.23
-40.15
-39.81
-37.61
-33.39
-27.31
-19.84
-11.51
-2.85
5.59
13.27
19.61
24.13
26.53
26.83
25.36
22.68
19.44
16.19
13.23
10.55
7.8
4.48
0.04
-5.87
-13.15
-21.04
-28.14
-32.56
-32.5
-26.73
-15.1
1.39
20.81
40.87
59.54
75.46
88.01
97.11
102.9
105.44
104.82
101.26
95.34
88.13
81.01
75.3
72.02
71.57
73.7
77.73
82.84
88.36
93.86
99.17
104.19
108.77
112.55
114.92
115.25
113.13
108.67
102.58
96.09
90.53
86.87
85.34
85.33
85.59
84.75
81.89
77.02
71.33
66.94
66.46
72.16
85.24
105.18
129.44
153.78
173
182.42
179.16
163.26
137.72
107.55
78.12
53.45
35.2
22.73
14.03
6.86
-0.28
-7.98
-16.2
-24.67
-33.29
-42.13
-51.28
-60.71
-70.27
-79.78
-89.14
-98.53
-108.25
-118.73
-130.16
-142.36
-154.53
-165.4
-173.59
-178.12
-178.91
-176.81
-173.39
-170.26
-168.36
-167.49
-166.27
-162.56
-154.17
-139.74
-119.12
-93.49
-64.82
-35.25
-6.45
20.63
45.65
68.5
88.9
106.43
120.69
131.78
140.57
148.6
157.66
169.18
183.72
200.84
219.27
237.27
252.93
264.36
269.8
267.81
257.63
239.44
214.35
183.94
149.62
112.13
71.64
28.3
-16.93
-61.98
-103.98
-140.25
-169.26
-191.16
-207.56
-220.65
-232.31
-243.45
-253.93
-262.78
-268.69
-270.32
-266.63
-256.97
-241.22
-219.85
-193.91
-165.05
-135.32
-106.94
-81.96
-61.95
-47.71
-39.19
-35.59
-35.54
-37.49
-39.84
-41.32
-41.06
-38.66
-34.23
-28.19
-21.17
-13.78
-6.48
0.44
6.79
12.41
17.06
20.45
22.21
22.08
19.99
16.18
11.2
5.73
0.44
-4.26
-8.28
-11.85
-15.38
-19.34
-24.15
-30.01
-36.8
-43.99
-50.52
-54.98
-55.9
-52.19
-43.55
-30.62
-14.79
2.18
18.59
33.09
44.75
52.96
57.32
57.65
54.13
47.37
38.49
28.94
20.26
13.74
10.17
9.63
11.63
15.24
19.42
23.34
26.51
28.87
30.51
31.49
31.58
30.39
27.46
22.59
16.03
8.42
0.62
-6.61
-12.83
-18
-22.38
-26.4
-30.57
-35.3
-40.91
-47.52
-54.79
-61.77
-66.97
-68.59
-65.1
-55.78
-41.06
-22.48
-2.24
17.4
34.64
48.39
58.2
64.07
66.2
64.9
60.65
54.21
46.66
39.28
33.36
29.86
29.19
31.17
35.11
40.08
45.14
49.52
52.65
54.23
54.23
52.93
50.75
48.15
45.32
42.19
38.43
33.74
28.13
21.95
15.84
10.33
5.72
1.89
-1.55
-5.1
-9.27
-14.44
-20.83
-28.27
-36.11
-43.08
-47.43
-47.49
-42.12
-31.25
-16.01
1.6
19.25
34.92
47.31
55.87
60.63
61.91
60.12
55.71
49.32
41.9
34.6
28.54
24.55
22.97
23.63
26.08
29.77
34.22
39.01
43.68
47.64
50.25
50.96
49.56
46.29
41.77
36.79
32.03
27.77
23.94
20.29
16.59
12.85
9.34
6.4
4.27
2.92
2.02
1.11
-0.38
-3.02
-7.32
-13.63
-21.85
-31.19
-40.1
-46.5
-48.36
-44.36
-34.32
-19.29
-1.07
18.17
36.52
52.57
65.54
75.22
81.99
86.71
90.55
94.83
100.65
108.83
119.73
133.32
149.16
166.53
184.55
202.29
218.94
233.84
246.39
255.93
261.61
262.45
257.62
246.69
229.85
207.96
182.39
154.71
126.3
97.96
69.67
40.69
9.97
-23.21
-58.58
-94.65
-128.96
-158.84
-182.21
-198.07
-206.51
-208.25
-204.15
-194.92
-181.26
-164.01
-144.43
-124
-104.08
-85.51
-68.41
-52.46
-37.28
-22.96
-10.27
-0.41
5.42
6.61
3.41
-3.13
-11.6
-20.72
-29.65
-38.01
-45.65
-52.39
-57.85
-61.63
-63.46
-63.35
-61.64
-58.81
-55.32
-51.41
-47.16
-42.56
-37.62
-32.49
-27.36
-22.42
-17.8
-13.45
-9.27
-5.1
-0.79
3.71
8.32
12.87
17.2
21.26
25.33
30.07
36.46
45.56
58.18
74.51
93.97
115.26
136.7
156.62
173.61
186.72
195.35
199.08
197.64
190.87
178.89
162.26
142.02
119.56
96.44
74.09
53.69
36.05
21.56
10.25
1.75
-4.7
-10.1
-15.5
-21.71
-29.25
-38.18
-48.29
-59.28
-70.87
-82.85
-95.07
-107.34
-119.42
-131.07
-142.04
-152.07
-160.93
-168.41
-174.44
-179.15
-182.97
-186.52
-190.35
-194.66
-198.99
-202.18
-202.6
-198.68
-189.38
-174.62
-155.28
-132.96
-109.62
-87.14
-67.14
-50.79
-38.79
-31.32
-28.03
-28.17
-30.72
-34.6
-38.86
-42.66
-45.35
-46.35
-45.28
-41.95
-36.59
-29.72
-22.1
-14.54
-7.75
-2.26
1.62
3.82
4.42
3.7
1.92
-0.65
-3.93
-7.88
-12.45
-17.43
-22.45
-27
-30.65
-33.19
-34.65
-35.31
-35.69
-36.41
-38.13
-41.24
-45.63
-50.32
-53.51
-52.93
-46.59
-33.53
-14.29
9.28
34.59
59.19
81.36
100.37
116.23
129.36
140.17
148.84
155.31
159.35
160.66
159.14
155.02
149.04
142.43
136.62
132.76
131.26
131.47
131.79
130.04
124.08
112.41
94.55
71.18
43.94
14.96
-13.6
-40.09
-63.55
-83.75
-101.13
-116.59
-131.29
-146.45
-163
-181.21
-200.58
-219.88
-237.65
-252.78
-264.88
-274.22
-281.09
-285.31
-285.87
-281.22
-270.1
-252.25
-228.72
-201.61
-173.35
-146.04
-121.1
-99.33
-81.09
-66.62
-56.06
-49.39
-46.17
-45.54
-46.21
-46.7
-45.65
-42.02
-35.3
-25.47
-12.93
1.62
17.21
32.76
47.05
58.91
67.46
72.27
73.46
71.66
67.79
62.91
57.91
53.48
49.97
47.3
45.1
42.74
39.67
35.55
30.38
24.42
18.04
11.66
5.69
0.63
-2.86
-4.15
-2.79
1.19
7.21
14.37
21.76
28.77
35.25
41.35
47.16
52.5
56.75
59.11
58.92
56.14
51.53
46.59
43.09
42.55
45.73
52.48
61.87
72.59
83.37
93.16
101.13
106.52
108.51
106.38
99.71
88.6
73.7
56.07
36.84
17.09
-2.35
-20.78
-37.65
-52.64
-65.69
-77.08
-87.43
-97.36
-107.18
-116.59
-124.51
-129.35
-129.45
-123.62
-111.64
-94.42
-73.79
-52
-31.25
-13.16
1.28
11.66
17.92
20.17
18.72
14.1
7.2
-0.75
-8.33
-14.17
-17.29
-17.21
-14.1
-8.56
-1.43
6.5
14.53
22.12
28.83
34.24
37.98
39.8
39.64
37.64
34.22
29.89
25.27
20.88
17.14
14.21
12.02
10.28
8.53
6.31
3.25
-0.66
-5
-8.89
-11.03
-10.13
-5.16
4.29
17.93
34.82
53.64
72.93
91.32
107.61
120.93
130.66
136.55
138.76
137.84
134.76
130.79
127.41
126
127.58
132.56
140.53
150.37
160.46
169.13
175.06
177.54
176.5
172.36
165.76
157.28
147.35
136.28
124.3
111.8
99.31
87.48
76.92
68.07
61.03
55.54
51.02
46.74
42.02
36.48
30.34
24.46
20.1
18.52
20.54
26.23
34.99
45.85
57.82
70.04
81.8
92.28
100.43
105.13
105.46
100.99
91.67
77.6
58.66
34.62
5.42
-28.16
-64.28
-100.26
-133.34
-161.44
-183.64
-200.02
-211.21
-217.93
-220.73
-220.2
-217.16
-212.71
-207.9
-203.42
-199.31
-195.09
-190.06
-183.85
-176.59
-169.01
-162.1
-156.65
-152.86
-150.07
-146.83
-141.32
-131.87
-117.57
-98.59
-76.05
-51.66
-27.29
-4.43
15.84
32.94
46.58
56.67
63.31
66.82
67.73
66.74
64.59
61.87
59.01
56.2
53.58
51.22
49.26
47.9
47.22
47.07
47.02
46.41
44.6
41.18
36.15
29.91
23.05
16.13
9.53
3.33
-2.55
-8.38
-14.47
-21.01
-27.9
-34.56
-39.95
-42.68
-41.47
-35.62
-25.32
-11.63
3.82
19.35
33.57
45.55
54.78
60.92
63.73
63.17
59.5
53.42
46.02
38.55
32.13
27.49
24.93
24.37
25.55
28.25
32.36
37.8
44.5
52.14
60.15
67.66
73.66
77.22
77.76
75.26
70.27
63.85
57.28
51.7
47.74
45.26
43.24
39.95
33.55
22.8
7.8
-9.7
-26.59
-39.29
-45.03
-42.68
-33.05
-18.5
-1.95
13.88
26.94
35.96
40.16
39.17
33.16
22.9
9.95
-3.61
-15.68
-24.68
-30.06
-32.25
-32.42
-31.93
-31.84
-32.67
-34.47
-37.07
-40.35
-44.33
-49.13
-54.78
-61.05
-67.45
-73.36
-78.25
-81.92
-84.54
-86.59
-88.69
-91.32
-94.52
-97.73
-99.82
-99.42
-95.36
-87.03
-74.7
-59.4
-42.63
-25.98
-10.81
1.9
11.61
18.07
21.31
21.56
19.3
15.23
10.27
5.46
1.78
-0.01
0.46
3.02
7.08
11.81
16.42
20.34
23.34
25.4
26.55
26.75
25.78
23.45
19.7
14.79
9.22
3.64
-1.41
-5.72
-9.39
-12.79
-16.37
-20.55
-25.55
-31.3
-37.36
-42.87
-46.69
-47.62
-44.72
-37.68
-26.95
-13.61
0.88
14.98
27.46
37.39
44.25
47.83
48.19
45.69
40.95
34.87
28.5
22.88
18.92
17.22
17.98
21.02
25.87
31.86
38.25
44.37
49.68
53.89
57
59.25
61.03
62.78
64.9
67.73
71.54
76.48
82.41
88.84
94.85
99.32
101.21
99.81
94.91
86.73
75.75
62.69
48.54
34.68
22.76
14.34
10.42
11.02
15.17
21.26
27.69
33.33
37.73
40.85
42.69
42.87
40.64
35.12
25.73
12.62
-3.17
-19.88
-35.44
-48
-56.39
-60.26
-60.16
-57.21
-52.82
-48.34
-44.85
-42.98
-42.98
-44.76
-48.12
-52.82
-58.67
-65.45
-72.86
-80.34
-87.25
-92.93
-97.02
-99.58
-101.04
-102.08
-103.31
-105.11
-107.48
-110.09
-112.26
-113.05
-111.35
-106.05
-96.33
-81.93
-63.28
-41.56
-18.38
4.5
25.53
43.64
58.23
69.14
76.52
80.78
82.47
82.29
80.99
79.36
78.08
77.7
78.48
80.44
83.28
86.48
89.35
91.33
92.07
91.62
90.33
88.75
87.27
85.85
83.98
80.73
75.07
66.17
53.76
38.17
20.37
1.71
-16.37
-32.7
-46.56
-57.87
-67.03
-74.7
-81.58
-88.07
-94.24
-99.57
-103.11
-103.62
-99.96
-91.59
-78.86
-63.19
-46.64
-31.48
-19.51
-11.74
-8.33
-8.84
-12.6
-18.91
-27.09
-36.38
-45.85
-54.36
-60.84
-64.39
-64.63
-61.69
-56.16
-48.84
-40.58
-32.05
-23.78
-16.21
-9.67
-4.47
-0.82
1.23
1.84
1.32
0.04
-1.62
-3.42
-5.29
-7.31
-9.64
-12.47
-15.84
-19.64
-23.58
-27.31
-30.55
-33.21
-35.47
-37.75
-40.55
-44.35
-49.39
-55.48
-61.93
-67.49
-70.57
-69.59
-63.46
-51.97
-35.99
-17.29
1.88
19.45
33.87
44.42
51.05
54.14
54.23
51.87
47.66
42.29
36.59
31.44
27.63
25.67
25.66
27.38
30.31
33.93
37.76
41.48
44.86
47.69
49.71
50.64
50.25
48.42
45.23
41
36.18
31.26
26.62
22.45
18.72
15.24
11.84
8.54
5.6
3.45
2.47
2.73
3.88
5.21
5.88
5.22
2.95
-0.7
-5.02
-8.9
-11.06
-10.23
-5.45
3.71
17
33.55
52.05
71.11
89.53
106.4
121.07
133.07
141.91
147.23
148.84
146.87
141.84
134.63
126.28
117.85
110.24
104.13
99.97
97.95
97.93
99.46
101.73
103.72
104.47
103.3
100.01
94.82
88.26
80.85
72.83
64.14
54.4
43.18
30.29
16.02
1.14
-13.17
-25.79
-36.12
-44.38
-51.73
-59.95
-70.89
-85.66
-104.24
-125.2
-146.01
-163.65
-175.39
-179.38
-174.98
-162.82
-144.42
-121.85
-97.33
-72.9
-50.32
-30.82
-15.13
-3.37
4.94
10.68
14.93
18.69
22.71
27.41
32.95
39.29
46.26
53.58
60.8
67.35
72.58
75.88
76.83
75.35
71.64
66.17
59.36
51.62
43.26
34.58
25.8
16.92
7.51
-3.37
-16.87
-33.84
-54.24
-76.98
-100.23
-122.13
-141.4
-157.52
-170.28
-179.19
-183.2
-180.97
-171.7
-155.83
-135.28
-112.93
-91.66
-73.45
-59.04
-48.13
-40.03
-34.21
-30.51
-29.09
-30.05
-33.28
-38.33
-44.55
-51.18
-57.51
-62.99
-67.26
-70.29
-72.3
-73.73
-74.94
-76.11
-77.06
-77.43
-76.96
-75.72
-74.15
-72.85
-72.23
-72.25
-72.43
-72.04
-70.46
-67.39
-63.02
-57.82
-52.42
-47.51
-43.7
-41.51
-41.15
-42.21
-43.57
-43.42
-39.72
-30.89
-16.38
3.04
25.51
48.65
70.28
88.79
103.48
114.22
121.23
124.82
125.25
122.77
117.76
110.8
102.73
94.56
87.41
82.24
79.74
80.15
83.24
88.42
94.94
102.06
109.18
115.89
121.88
126.8
130.24
131.74
131.11
128.56
124.82
120.75
116.99
113.36
108.81
101.74
90.73
75.14
55.44
33.03
9.73
-12.65
-32.56
-48.75
-60.27
-66.63
-67.97
-65.07
-59.14
-51.4
-42.74
-33.8
-25.19
-17.87
-13.18
-12.32
-15.75
-22.49
-30.22
-35.83
-36.59
-31.07
-19.59
-3.87
13.63
30.48
44.86
55.72
62.87
66.89
68.87
69.87
70.16
68.44
61.68
46
18.63
-20.03
-65.4
-109.56
-143.99
-162.73
-164.58
-152.98
-133.97
-113.32
-94.44
-77.92
-62.74
-47.93
-33.69
-21.28
-12.01
-6.2
-2.72
0.35
4.66
10.67
17.3
22.49
24.01
20.37
11.39
-1.85
-17.35
-32.84
-46.25
-56.22
-62.09
-63.9
-62.05
-56.99
-48.98
-38.24
-25.03
-10.08
5.32
19.37
30.11
35.85
35.53
28.92
16.58
-0.23
-19.83
-40.5
-60.71
-79.49
-96.47
-111.8
-125.8
-138.6
-149.73
-158.15
-162.51
-161.61
-154.95
-142.94
-126.81
-108.31
-89.17
-70.79
-54.14
-39.88
-28.53
-20.61
-16.47
-16.03
-18.66
-23.07
-27.66
-30.85
-31.56
-29.31
-24.24
-16.82
-7.56
3.1
14.75
26.89
38.75
49.3
57.51
62.59
64.32
63.05
59.59
54.88
49.67
44.28
38.63
32.31
24.82
15.76
4.96
-7.38
-20.49
-33.09
-43.46
-49.78
-50.63
-45.46
-34.83
-20.28
-3.92
12.13
26.16
37.08
44.44
48.23
48.68
46.21
41.36
34.87
27.66
20.76
15.22
11.87
11.1
12.84
16.59
21.69
27.46
33.37
38.97
43.83
47.41
49.15
48.65
45.84
41.06
34.95
28.29
21.68
15.47
9.67
4.05
-1.75
-8.15
-15.36
-23.3
-31.32
-38.21
-42.41
-42.37
-37.09
-26.42
-11.21
7.06
26.56
45.57
62.69
76.91
87.53
94.23
96.95
96.02
92.1
86.15
79.28
72.54
66.74
62.33
59.48
58.17
58.37
60.11
63.4
68.07
73.64
79.31
84.21
87.68
89.46
89.72
88.94
87.61
86.08
84.56
83.08
81.65
80.17
78.43
76.11
72.97
69.1
65.2
62.61
63.06
68.18
78.84
94.82
114.76
136.64
158.25
177.73
193.72
205.26
211.64
212.26
206.76
195.21
178.27
157.24
133.81
109.7
86.34
64.53
44.47
25.83
8.05
-9.43
-26.87
-44.23
-61.17
-77.17
-91.66
-104.14
-114.25
-122.02
-128.07
-133.85
-141.43
-152.94
-169.7
-191.37
-215.93
-240.17
-260.79
-275.48
-283.32
-284.46
-279.47
-268.8
-252.66
-231.44
-206.14
-178.49
-150.65
-124.64
-101.82
-82.75
-67.37
-55.33
-46.18
-39.42
-34.43
-30.41
-26.44
-21.61
-15.17
-6.75
3.72
15.88
29.14
42.75
55.99
68.25
78.99
87.71
93.9
97.1
97.05
93.99
88.67
82.16
75.51
69.28
63.38
57.12
49.62
40.24
28.97
16.67
4.91
-4.36
-9.36
-8.99
-3.25
6.73
19
31.37
41.9
49.38
53.19
53.23
49.72
43.07
33.96
23.3
12.06
0.9
-10.07
-21.31
-33.5
-47.03
-61.81
-77.21
-92.47
-107.06
-120.82
-133.82
-145.99
-156.93
-166.03
-172.79
-177.11
-179.44
-180.46
-180.82
-180.88
-180.83
-180.88
-181.41
-182.92
-185.51
-188.54
-190.43
-188.92
-181.84
-167.95
-147.45
-121.97
-93.97
-66
-40.02
-17.13
2.23
17.95
29.88
37.84
41.8
42.13
39.74
35.95
32.26
29.98
29.97
32.47
37.15
43.23
49.8
55.99
61.2
65.18
67.82
69.09
68.85
66.93
63.23
57.89
51.37
44.31
37.37
30.95
25.16
19.9
14.94
10.05
5
-0.5
-6.69
-13.58
-20.67
-26.76
-30.2
-29.35
-23.2
-11.79
3.78
21.78
40.35
57.94
73.43
85.98
94.94
99.85
100.56
97.49
91.58
84.2
76.8
70.62
66.44
64.48
64.5
65.96
68.25
70.82
73.3
75.44
76.95
77.48
76.66
74.22
70.19
64.93
58.99
52.94
47.17
41.78
36.64
31.54
26.34
20.98
15.57
10.28
5.32
0.86
-3.04
-6.44
-9.58
-12.79
-16.46
-20.99
-26.64
-33.44
-40.94
-48.08
-53.22
-54.49
-50.31
-40.02
-24.15
-4.34
17.09
37.89
56.26
71.16
82.09
88.8
91.18
89.29
83.66
75.39
66.18
57.88
52.05
49.51
50.26
53.6
58.53
64.12
69.67
74.73
78.91
81.77
82.87
81.84
78.5
72.97
65.61
56.97
47.72
38.57
30.2
23.22
17.97
14.51
12.49
11.32
10.26
8.76
6.57
3.83
0.96
-1.58
-3.5
-4.84
-5.99
-7.63
-10.57
-15.47
-22.58
-31.41
-40.74
-48.73
-53.43
-53.25
-47.56
-36.81
-22.4
-6.23
9.79
24.1
35.62
43.67
47.85
48.01
44.32
37.33
28.04
17.78
8
0.06
-5.06
-6.92
-5.68
-2.02
3.11
8.67
13.83
18.04
21.02
22.57
22.56
20.87
17.52
12.83
7.42
2.05
-2.66
-6.48
-9.69
-12.92
-16.83
-21.75
-27.5
-33.51
-39.02
-43.43
-46.46
-48.24
-49.16
-49.77
-50.67
-52.41
-55.34
-59.43
-64.07
-68.06
-69.84
-67.91
-61.38
-50.24
-35.44
-18.62
-1.67
13.69
26.21
35.16
40.28
41.65
39.65
34.88
28.13
20.31
12.43
5.44
0.18
-2.82
-3.4
-1.79
1.44
5.51
9.62
13.1
15.49
16.53
16.15
14.43
11.56
7.73
3.14
-2.11
-7.97
-14.43
-21.42
-28.69
-35.88
-42.54
-48.32
-53.11
-57.06
-60.57
-64.21
-68.53
-73.87
-80.12
-86.57
-91.91
-94.54
-93.02
-86.57
-75.39
-60.54
-43.68
-26.56
-10.65
3.07
14.02
21.94
26.75
28.53
27.54
24.34
19.7
14.58
9.9
6.44
4.69
4.79
6.57
9.63
13.52
17.79
22.06
26.03
29.44
32.06
33.76
34.47
34.22
33.08
31.19
28.65
25.55
21.96
17.97
13.72
9.5
5.63
2.44
0.08
-1.64
-3.2
-5.33
-8.58
-13.07
-18.23
-22.86
-25.47
-24.76
-20.04
-11.42
0.2
13.44
26.79
38.94
48.86
55.94
59.92
60.82
58.9
54.57
48.37
40.96
33.11
25.7
19.58
15.45
13.7
14.27
16.76
20.48
24.73
28.9
32.52
35.32
37.08
37.64
36.9
34.78
31.34
26.73
21.24
15.21
9.02
3.02
-2.56
-7.63
-12.27
-16.7
-21.22
-26.05
-31.38
-37.18
-43.19
-48.86
-53.33
-55.62
-54.87
-50.63
-43.07
-33.03
-21.77
-10.67
-0.9
6.76
11.95
14.66
15.06
13.43
10.1
5.48
0.06
-5.6
-10.8
-14.87
-17.23
-17.56
-15.88
-12.58
-8.29
-3.71
0.59
4.23
7.07
9.13
10.49
11.18
11.21
10.59
9.31
7.43
5.12
2.56
-0.06
-2.64
-5.17
-7.8
-10.75
-14.23
-18.41
-23.31
-28.73
-34.19
-38.88
-41.75
-41.76
-38.13
-30.74
-20.21
-7.78
5.02
16.74
26.35
33.29
37.4
38.73
37.45
33.83
28.31
21.54
14.42
7.94
2.89
-0.24
-1.39
-0.84
0.97
3.64
6.86
10.43
14.15
17.69
20.59
22.31
22.45
20.84
17.67
13.36
8.43
3.36
-1.6
-6.35
-10.96
-15.54
-20.22
-25.16
-30.56
-36.6
-43.24
-49.99
-55.78
-59.15
-58.69
-53.58
-43.95
-30.95
-16.32
-1.84
11.1
21.78
29.9
35.36
38.06
37.93
35.05
29.91
23.36
16.44
10.13
5.07
1.55
-0.43
-1.06
-0.6
0.67
2.47
4.51
6.54
8.37
9.83
10.72
10.74
9.58
7.04
3.17
-1.69
-6.95
-12.04
-16.61
-20.63
-24.39
-28.33
-32.93
-38.43
-44.76
-51.4
-57.4
-61.49
-62.36
-58.99
-51.02
-38.85
-23.55
-6.65
10.37
26.23
40.1
51.45
59.9
65.17
67.04
65.53
61.16
54.98
48.5
43.3
40.63
41.14
44.72
50.8
58.62
67.49
76.91
86.43
95.57
103.69
110.06
114.03
115.17
113.45
109.25
103.3
96.52
89.72
83.37
77.34
70.95
63.2
53.05
39.82
23.43
4.47
-15.72
-35.18
-51.51
-62.37
-66.17
-62.75
-53.65
-41.87
-30.88
-23.49
-20.93
-22.72
-27.14
-32.2
-36.49
-39.46
-41.21
-42.01
-41.9
-40.61
-37.79
-33.31
-27.44
-20.67
-13.5
-6.27
0.95
8.13
15.08
21.25
25.91
28.27
27.95
25.12
20.55
15.4
10.82
7.58
5.81
4.99
4.18
2.28
-1.56
-7.84
-16.62
-27.61
-40.22
-53.49
-66.12
-76.5
-82.97
-84.16
-79.49
-69.31
-54.93
-38.23
-21.08
-4.97
9.26
21.4
31.6
40.12
47.11
52.57
56.37
58.46
58.85
57.76
55.5
52.42
48.7
44.39
39.4
33.67
27.29
20.54
13.89
7.78
2.41
-2.34
-6.95
-12.05
-18.19
-25.54
-33.75
-42.05
-49.53
-55.66
-60.64
-65.45
-71.54
-80.22
-92.04
-106.44
-121.93
-136.4
-147.8
-154.49
-155.52
-150.65
-140.28
-125.45
-107.76
-89.23
-72.02
-58.05
-48.64
-44.29
-44.67
-48.87
-55.64
-63.72
-71.93
-79.28
-84.88
-88.06
-88.42
-85.95
-81.09
-74.61
-67.37
-60.14
-53.43
-47.49
-42.43
-38.34
-35.36
-33.65
-33.28
-34.16
-35.94
-38.13
-40.21
-41.83
-42.94
-43.76
-44.74
-46.35
-48.92
-52.45
-56.51
-60.22
-62.36
-61.61
-56.95
-47.92
-34.9
-18.94
-1.53
15.85
32.06
46.38
58.38
67.68
73.91
76.68
75.86
71.8
65.44
58.18
51.49
46.57
44.05
44
46.08
49.8
54.7
60.39
66.46
72.42
77.73
81.84
84.4
85.3
84.73
83.07
80.8
78.48
76.63
75.69
75.85
76.94
78.41
79.53
79.68
78.79
77.59
77.59
80.7
88.62
102.2
121.14
144.12
169.24
194.65
218.99
241.49
261.76
279.45
294.03
304.69
310.5
310.54
304.21
291.28
272.14
247.63
219.01
187.65
154.75
121.09
86.91
51.98
15.7
-22.65
-63.49
-106.63
-150.86
-194.01
-233.27
-265.81
-289.56
-303.75
-309
-307.07
-300.27
-290.91
-280.91
-271.64
-263.98
-258.32
-254.6
-252.12
-249.58
-245.11
-236.65
-222.45
-201.58
-174.29
-141.96
-106.64
-70.51
-35.5
-3.09
25.47
49.02
66.49
77.06
80.6
77.93
70.85
61.75
53.16
47.19
45.05
46.92
52.06
59.15
66.78
73.87
79.8
84.35
87.36
88.52
87.31
83.16
75.83
65.6
53.3
39.95
26.5
13.47
0.98
-11.12
-22.89
-34.24
-44.98
-55.03
-64.58
-74.02
-83.6
-92.99
-101.02
-105.89
-105.84
-99.93
-88.62
-73.88
-58.55
-45.47
-36.64
-32.85
-33.71
-38.26
-45.37
-54.12
-63.8
-73.68
-82.84
-90.16
-94.51
-95.19
-92.14
-86.08
-78.25
-69.87
-61.84
-54.47
-47.71
-41.43
-35.73
-30.95
-27.57
-25.83
-25.61
-26.33
-27.27
-27.83
-27.82
-27.52
-27.48
-28.3
-30.33
-33.54
-37.4
-40.94
-42.81
-41.61
-36.19
-26.03
-11.47
6.42
26.05
45.8
64.29
80.57
93.94
103.86
109.93
111.96
110.19
105.34
98.5
90.85
83.27
76.14
69.29
62.17
54.22
45.11
35.01
24.5
14.42
5.51
-1.8
-7.53
-12.07
-16
-19.87
-24
-28.49
-33.18
-37.88
-42.35
-46.45
-50.2
-53.8
-57.58
-61.94
-67.06
-72.73
-78.15
-81.99
-82.67
-78.86
-69.91
-56.15
-38.84
-19.84
-1.19
15.44
28.87
38.53
44.31
46.43
45.35
41.8
36.75
31.32
26.63
23.56
22.59
23.73
26.58
30.47
34.7
38.64
41.81
43.95
44.94
44.79
43.58
41.36
38.16
33.98
28.84
22.83
16.18
9.19
2.21
-4.48
-10.8
-16.82
-22.9
-29.47
-37.06
-45.91
-55.76
-65.66
-73.99
-78.82
-78.56
-72.51
-61.21
-46.3
-29.95
-14.28
-0.86
9.44
16.32
19.74
19.82
16.83
11.33
4.25
-3.16
-9.62
-14.08
-15.97
-15.24
-12.28
-7.69
-2.09
3.97
10.06
15.88
21.19
25.82
29.6
32.31
33.7
33.57
31.92
29.05
25.52
22.03
19.03
16.67
14.71
12.73
10.4
7.54
4.11
0.08
-4.58
-9.78
-15.03
-19.35
-21.45
-20.13
-14.77
-5.66
6.1
18.93
31.26
41.91
50.2
55.92
59.08
59.78
58.1
54.25
48.52
41.53
34.11
27.24
21.85
18.53
17.38
18.03
19.83
22.04
24.07
25.61
26.52
26.75
26.19
24.72
22.29
19.02
15.23
11.36
7.78
4.6
1.72
-1.11
-4.11
-7.33
-10.69
-14.03
-17.28
-20.54
-24.03
-27.8
-31.58
-34.68
-36.07
-34.71
-29.94
-21.75
-10.74
2
15.31
28.22
40.07
50.41
58.78
64.71
67.7
67.55
64.46
59.19
52.83
46.53
41.12
37.01
34.1
32
30.25
28.52
26.67
24.78
23.01
21.51
20.36
19.57
19.07
18.76
18.51
18.22
17.76
17.1
16.26
15.35
14.47
13.71
13.07
12.52
11.94
11.25
10.51
9.93
10.07
11.7
15.69
22.7
32.88
45.67
59.91
74.11
86.86
97.16
104.58
109.17
111.33
111.65
110.81
109.44
108.02
106.72
105.39
103.55
100.6
95.94
89.28
80.75
70.97
60.96
51.92
44.91
40.5
38.66
38.8
40.11
41.89
43.78
45.71
47.64
49.26
49.92
48.84
45.49
39.95
33.01
25.94
20.13
16.57
15.61
16.97
19.99
23.96
28.3
32.55
36.31
39.05
40.09
38.85
35
28.73
20.69
11.86
3.15
-4.78
-11.69
-17.66
-22.9
-27.56
-31.63
-34.93
-37.32
-38.82
-39.73
-40.61
-42.1
-44.64
-48.35
-52.95
-57.94
-62.82
-67.33
-71.53
-75.72
-80.27
-85.46
-91.34
-97.62
-103.67
-108.52
-111.03
-110.16
-105.29
-96.49
-84.5
-70.6
-56.24
-42.74
-31.09
-21.89
-15.4
-11.67
-10.59
-11.86
-15.04
-19.51
-24.5
-29.24
-33.02
-35.28
-35.75
-34.45
-31.64
-27.78
-23.46
-19.22
-15.51
-12.67
-10.81
-9.95
-9.95
-10.64
-11.77
-13.07
-14.31
-15.38
-16.35
-17.52
-19.31
-22.02
-25.59
-29.37
-32.17
-32.58
-29.38
-21.95
-10.58
3.76
19.55
35.28
49.66
61.78
71.1
77.32
80.3
80.08
76.96
71.54
64.65
57.16
49.78
42.99
37.05
32.13
28.44
26.25
25.74
26.85
29.19
32.11
34.96
37.32
39.19
40.84
42.59
44.62
46.86
49
50.73
51.78
52
51.29
49.58
46.83
43.08
38.51
33.48
28.52
24.25
21.28
20.15
21.28
24.95
31.17
39.47
48.6
56.33
59.71
55.74
42.48
19.94
-9.48
-41.45
-70.94
-93.74
-107.58
-112.55
-110.59
-104.59
-97.35
-91
-86.87
-85.59
-87.34
-91.92
-98.8
-107.07
-115.56
-123.09
-128.7
-131.95
-132.96
-132.2
-130.36
-128.1
-125.99
-124.52
-124.04
-124.7
-126.23
-127.83
-128.17
-125.74
-119.24
-108.03
-92.32
-73.14
-52
-30.63
-10.59
6.85
20.82
30.8
36.65
38.65
37.48
34.2
30.05
26.23
23.67
22.8
23.64
25.9
29.22
33.29
37.96
43.22
49.05
55.31
61.67
67.61
72.55
76.07
78.12
79.07
79.64
80.69
82.87
86.41
91.02
95.97
100.2
102.6
102.04
97.71
89.3
77.32
63.19
49.11
37.47
30.21
28.2
31.11
37.71
46.5
56.33
66.64
77.24
87.79
97.47
104.94
108.74
107.85
102.13
92.36
79.88
66.1
52.2
39.1
27.64
18.64
12.76
10.13
10.03
10.86
10.64
7.7
1.41
-7.47
-17.15
-25.59
-31.52
-35
-37.42
-40.83
-46.97
-56.5
-68.75
-81.98
-94.08
-103.38
-109.14
-111.59
-111.63
-110.3
-108.41
-106.25
-103.73
-100.54
-96.43
-91.28
-85.09
-77.9
-69.73
-60.56
-50.63
-40.62
-31.73
-25.45
-23.07
-25.15
-31.28
-40.04
-49.47
-57.7
-63.51
-66.62
-67.54
-67.18
-66.35
-65.47
-64.46
-63.04
-60.99
-58.37
-55.56
-53.16
-51.69
-51.36
-51.92
-52.8
-53.34
-53.08
-51.98
-50.32
-48.61
-47.2
-46.2
-45.46
-44.61
-43.22
-40.82
-36.87
-30.81
-22.14
-10.66
3.35
19.09
35.37
50.94
64.8
76.41
85.61
92.51
97.38
100.4
101.76
101.64
100.31
98.1
95.38
92.52
89.71
87.03
84.39
81.66
78.78
75.78
72.76
69.77
66.78
63.62
60.13
56.3
52.36
48.78
46.06
44.53
44.23
44.99
46.5
48.46
50.68
52.97
55.22
57.32
59.32
61.43
63.97
67.13
70.86
74.81
78.56
82
85.41
89.33
94.07
99.18
103.16
103.76
98.62
86.18
66.36
40.67
11.77
-17.31
-43.86
-66.04
-83.04
-95.01
-102.98
-108.7
-114.32
-121.99
-133.07
-147.58
-163.88
-179.03
-189.83
-193.97
-190.97
-182.27
-170.65
-159.11
-149.87
-143.9
-141.02
-140.37
-141
-142.16
-143.42
-144.47
-144.96
-144.35
-142.02
-137.41
-130.25
-120.7
-109.34
-96.96
-84.31
-71.84
-59.78
-48.25
-37.58
-28.47
-21.91
-18.79
-19.44
-23.36
-29.3
-35.63
-40.89
-44.08
-44.89
-43.51
-40.35
-35.81
-30.16
-23.61
-16.35
-8.73
-1.16
5.88
11.96
16.74
19.98
21.58
21.59
20.24
17.87
14.98
12.09
9.7
8.09
7.24
6.77
6.07
4.51
1.8
-1.71
-4.98
-6.47
-4.63
1.65
12.65
27.71
45.37
63.77
81.09
95.86
107.13
114.53
118.12
118.33
115.84
111.56
106.54
101.9
98.59
97.12
97.37
98.55
99.44
98.78
95.76
90.13
82.22
72.66
62.21
51.59
41.48
32.39
24.4
16.92
8.61
-2.23
-16.88
-35.5
-56.85
-78.81
-99.33
-117.45
-133.63
-149.21
-165.3
-181.71
-196.68
-207.44
-211.43
-207.38
-195.87
-178.95
-159.31
-139.29
-120.34
-102.98
-87.2
-72.93
-60.4
-50.09
-42.44
-37.46
-34.58
-32.71
-30.58
-27.19
-22.15
-15.77
-8.79
-2.04
3.95
9.09
13.65
17.94
22.13
26.01
29.14
31.01
31.28
29.97
27.47
24.44
21.55
19.32
18
17.6
17.9
18.59
19.2
19.21
18.15
15.89
12.95
10.54
10.35
14.08
22.77
36.42
53.96
73.61
93.44
111.81
127.56
139.94
148.49
152.88
153.04
149.3
142.42
133.6
124.22
115.58
108.62
103.81
101.16
100.3
100.73
101.98
103.8
106.19
109.33
113.38
118.48
124.59
131.61
139.4
147.61
155.54
161.97
165.21
163.63
156.3
143.4
126.3
107.07
87.57
68.83
50.76
32.54
13.37
-6.78
-26.85
-44.84
-58.43
-65.73
-65.83
-59.09
-46.99
-31.8
-16.11
-2.46
7.02
10.92
8.64
0.59
-12
-27.43
-44.01
-60.51
-76.33
-91.32
-105.45
-118.45
-129.68
-138.38
-143.98
-146.41
-146.15
-143.98
-140.75
-137.14
-133.67
-130.75
-128.79
-128.07
-128.56
-129.81
-130.85
-130.55
-128.04
-123.16
-116.56
-109.47
-103.15
-98.24
-94.39
-90.33
-84.29
-74.7
-60.77
-42.73
-21.72
0.5
22.01
41.01
56.04
66
70.27
68.71
61.72
50.29
35.89
20.31
5.43
-7.17
-16.47
-22.24
-24.91
-25.39
-24.71
-23.68
-22.71
-21.84
-20.92
-19.83
-18.6
-17.46
-16.78
-16.84
-17.78
-19.44
-21.47
-23.37
-24.73
-25.3
-25.12
-24.54
-24.13
-24.54
-26.15
-28.86
-31.82
-33.49
-32.03
-25.71
-13.58
4.32
26.87
52.17
77.93
101.91
122.15
137.26
146.48
149.68
147.37
140.52
130.4
118.35
105.65
93.34
82.23
72.77
65.17
59.49
55.8
54.27
55.17
58.64
64.39
71.52
78.57
83.82
85.87
84.01
78.49
70.38
61.15
52.27
44.85
39.51
36.26
34.57
33.28
30.82
25.51
16.17
2.72
-13.48
-29.82
-43.16
-50.78
-51.23
-44.6
-32.27
-16.25
1.55
19.7
37.31
53.74
68.42
80.71
89.99
95.96
98.69
98.73
96.94
94.25
91.45
88.97
86.83
84.69
82.11
78.72
74.5
69.72
64.78
59.94
55.11
49.75
42.9
33.41
19.99
1.52
-22.76
-52.83
-87.58
-124.7
-161
-193.11
-218.35
-235.36
-244.24
-246.19
-242.81
-235.45
-224.87
-211.29
-194.65
-175.03
-152.79
-128.63
-103.46
-78.18
-53.61
-30.49
-9.55
8.44
22.7
32.6
37.78
38.32
34.81
28.32
20.32
12.44
6.24
2.85
2.82
5.98
11.62
18.78
26.52
34.1
40.98
46.74
51.01
53.51
54.13
52.92
50.12
45.99
40.8
34.73
27.94
20.61
12.94
5.11
-2.82
-10.94
-19.52
-28.8
-38.75
-48.78
-57.71
-63.84
-65.44
-61.33
-51.33
-36.45
-18.61
-0.1
17.02
31.33
42.12
49.17
52.45
52.02
48.07
41.07
31.85
21.64
11.82
3.66
-1.96
-4.71
-4.73
-2.56
1.14
5.72
10.67
15.57
20.02
23.58
25.65
25.66
23.19
18.18
11.01
2.47
-6.47
-14.88
-22.19
-28.25
-33.34
-37.92
-42.4
-46.92
-51.15
-54.38
-55.6
-53.85
-48.42
-39.17
-26.47
-11.24
5.34
22.02
37.68
51.46
62.77
71.34
77.08
80.05
80.45
78.63
75.14
70.84
66.74
63.92
63.27
65.32
70.19
77.65
87.23
98.33
110.17
121.72
131.75
138.91
142
140.34
133.91
123.43
110.22
95.93
82.06
69.54
58.28
47.11
34.15
17.49
-3.98
-30.08
-59.16
-88.52
-115.01
-135.69
-148.33
-151.76
-146.08
-132.85
-115
-96.29
-80.44
-70.04
-65.71
-66.1
-68.49
-70.17
-69.38
-65.88
-60.56
-54.64
-48.82
-42.92
-36.12
-27.53
-16.84
-4.52
8.37
20.73
31.79
41.4
49.82
57.42
64.24
69.83
73.39
74.1
71.52
65.86
57.94
48.85
39.67
31.15
23.63
17.02
10.78
3.92
-4.85
-16.77
-32.32
-50.78
-70.01
-86.93
-98.44
-102.46
-98.41
-87.25
-70.84
-51.25
-30.31
-9.55
9.63
25.88
38.08
45.68
49.04
49.53
49.1
49.7
52.69
58.46
66.47
75.61
84.72
93.02
100.3
106.81
113.01
119.11
124.96
129.92
133.08
133.55
130.73
124.64
115.99
106.07
96.43
88.3
82.04
76.62
69.68
57.97
38.44
9.36
-28.77
-73.13
-119.17
-161.9
-197.24
-222.88
-238.4
-244.81
-243.79
-237.08
-226.25
-212.81
-198.44
-184.92
-173.82
-166.16
-162.04
-160.77
-161.08
-161.57
-160.97
-158.28
-152.87
-144.5
-133.47
-120.56
-106.93
-93.82
-82.31
-73.15
-66.76
-63.38
-63.05
-65.68
-70.8
-77.59
-84.98
-91.94
-97.85
-102.67
-106.95
-111.48
-117.03
-123.98
-132.17
-140.88
-148.9
-154.66
-156.56
-153.2
-143.71
-128.03
-106.98
-82.12
-55.48
-29.16
-5.01
15.57
31.69
42.99
49.5
51.7
50.52
47.34
43.84
41.67
42.03
45.33
51.18
58.71
66.97
75.32
83.5
91.43
98.96
105.74
111.31
115.38
118
119.65
120.97
122.57
124.78
127.65
130.99
134.49
137.83
140.69
142.94
144.83
147.11
151.06
158.09
169.36
185.16
204.78
226.62
248.59
268.68
285.24
297.17
303.81
304.85
300.26
290.53
276.83
261.01
245.31
231.61
220.73
211.93
203.17
191.82
175.76
154.25
128.14
99.52
70.84
44.12
20.56
0.72
-15.1
-26.63
-33.74
-37.04
-38.3
-40.51
-47.23
-61.48
-84.67
-116
-152.77
-191.2
-227.65
-259.28
-284.37
-302.01
-311.78
-313.44
-307.08
-293.25
-273.25
-248.99
-222.77
-196.84
-173
-152.39
-135.44
-121.99
-111.53
-103.32
-96.61
-90.61
-84.51
-77.57
-69.15
-58.89
-46.71
-32.92
-17.99
-2.51
12.97
27.89
41.71
53.93
64.1
71.98
77.6
81.28
83.51
84.79
85.37
85.29
84.32
82.09
78.28
72.72
65.5
57.14
48.7
41.75
38.18
39.75
47.46
61.17
79.53
100.25
120.71
138.63
152.35
160.98
164.27
162.42
155.97
145.65
132.31
116.71
99.4
80.61
60.36
38.62
15.58
-8.19
-31.73
-53.74
-72.77
-87.51
-97.19
-102.03
-103.61
-104.76
-108.7
-117.93
-132.99
-151.95
-171.01
-185.93
-193.71
-193.71
-187.59
-178.31
-168.78
-160.86
-155.11
-151.17
-148.26
-145.44
-141.57
-135.2
-124.69
-108.7
-86.91
-60.35
-31.38
-3.02
21.92
41.51
55.08
62.96
66.12
65.62
62.44
57.35
51.09
44.5
38.5
34.01
31.74
32.05
34.83
39.51
45.23
51.03
56.02
59.61
61.54
61.78
60.44
57.62
53.35
47.67
40.68
32.6
23.76
14.53
5.21
-3.92
-12.64
-20.76
-28.16
-34.96
-41.39
-47.73
-53.91
-59.28
-62.64
-62.51
-57.76
-48.08
-34.23
-17.8
-0.74
15.23
28.81
39.19
45.83
48.35
46.55
40.61
31.34
20.06
8.47
-1.89
-9.91
-15.19
-17.88
-18.52
-17.78
-16.26
-14.46
-12.81
-11.63
-11.2
-11.72
-13.31
-15.97
-19.6
-23.94
-28.62
-33.2
-37.34
-40.87
-43.9
-46.78
-49.98
-54
-59.2
-65.7
-73.17
-80.79
-87.26
-91.05
-90.8
-85.76
-76.02
-62.44
-46.29
-28.83
-11.13
5.97
21.56
34.51
43.64
48.05
47.63
43.26
36.71
30.1
25.31
23.52
24.97
29.25
35.47
42.73
50.28
57.68
64.67
71.15
76.91
81.63
84.85
86.1
85.19
82.21
77.73
72.46
67.19
62.48
58.57
55.45
52.79
50.12
46.89
42.61
37.18
31.24
26.35
24.85
29.31
41.69
62.55
90.54
122.69
155.05
183.67
205.57
219.13
224.23
221.8
213.45
200.89
185.71
169.22
152.49
136.39
121.5
108.14
96.23
85.35
74.92
64.43
53.64
42.62
31.71
21.2
11.14
1.31
-8.73
-19.36
-30.7
-42.5
-54.17
-65.14
-75.13
-84.35
-93.51
-103.45
-114.86
-127.91
-142.28
-157.27
-171.92
-185.04
-195.14
-200.43
-199.05
-189.59
-171.72
-146.48
-116.17
-83.8
-52.3
-23.91
0.07
19.24
33.86
44.6
52.4
58.38
63.66
69.13
75.28
82.01
88.76
94.73
99.18
101.78
102.82
103.13
103.78
105.7
109.15
113.51
117.2
118.11
114.23
104.41
88.81
69.09
47.86
27.99
11.68
-0.05
-7.42
-11.56
-13.84
-15.33
-16.48
-17.17
-16.96
-15.21
-11.36
-4.87
4.66
17.38
33.06
50.92
69.77
88.2
105.01
119.32
130.48
137.81
140.34
136.95
126.74
109.56
86.29
58.72
29.19
0.16
-26.27
-48.58
-66.2
-79.69
-90.78
-101.9
-115.32
-132.02
-150.99
-169.44
-183.77
-191.17
-190.82
-184.06
-173.75
-162.95
-153.85
-147.36
-143.41
-141.59
-141.66
-143.67
-147.66
-153.33
-159.93
-166.46
-172.17
-176.73
-180.16
-182.38
-182.83
-180.39
-173.73
-162.07
-145.64
-125.9
-105.08
-85.54
-69.01
-56.29
-47.24
-41.17
-37.24
-34.87
-33.82
-34.03
-35.41
-37.6
-39.9
-41.44
-41.48
-39.67
-36.14
-31.42
-26.16
-20.93
-16.11
-11.97
-8.73
-6.64
-5.86
-6.31
-7.65
-9.35
-10.91
-12.06
-12.91
-13.87
-15.45
-18.08
-21.88
-26.71
-32.03
-36.94
-40.18
-40.27
-35.89
-26.26
-11.52
7.2
28.06
49
68.24
84.52
97.12
105.67
110
110.06
106.06
98.61
88.71
77.7
66.94
57.59
50.37
45.54
42.9
42
42.24
43.06
43.98
44.65
44.71
43.89
41.87
38.47
33.7
27.77
21.11
14.19
7.41
0.95
-5.28
-11.61
-18.47
-26.27
-35.21
-44.98
-54.69
-62.74
-67.22
-66.33
-59.02
-45.42
-26.83
-5.35
16.67
37.18
54.76
68.59
78.26
83.68
84.95
82.46
76.92
69.36
60.97
52.94
46.18
41.25
38.31
37.25
37.79
39.69
42.78
46.94
51.94
57.35
62.43
66.29
68.15
67.61
64.85
60.52
55.58
50.88
46.93
43.82
41.26
38.71
35.53
31.12
25.16
17.8
9.87
2.88
-1.27
-0.89
4.96
16.12
31.38
48.87
66.56
82.76
96.28
106.48
113.15
116.33
116.22
113.12
107.47
99.88
91.14
82.17
73.89
67.04
61.92
58.37
55.84
53.6
51.02
47.87
44.41
41.38
39.73
40.26
43.28
48.41
54.68
60.87
65.85
68.86
69.48
67.55
62.98
55.82
46.27
34.9
22.52
10.03
-1.82
-12.54
-21.83
-29.47
-35.1
-38.35
-38.93
-36.87
-32.55
-26.68
-20.13
-13.82
-8.64
-5.43
-4.77
-6.83
-11.19
-16.81
-22.3
-26.27
-27.81
-26.64
-23.24
-18.57
-13.83
-10.03
-7.64
-6.43
-5.48
-3.6
0.05
5.47
11.59
16.57
18.54
16.27
9.7
-0.11
-11.36
-22.29
-31.77
-39.78
-47.49
-56.94
-70.33
-89.06
-112.85
-139.24
-163.82
-181.37
-187.29
-179.08
-157.07
-124.16
-84.93
-44.2
-6.04
26.84
53.05
72.24
84.78
91.62
94.37
94.99
95.45
96.96
99.36
100.92
98.76
89.97
72.71
47.14
15.41
-18.98
-52.35
-82.01
-106.82
-127.05
-143.78
-158.01
-170.19
-180.21
-187.68
-192.53
-195.14
-196.3
-196.91
-197.58
-198.55
-199.8
-201.17
-202.38
-203.06
-202.46
-199.49
-192.91
-181.71
-165.5
-144.68
-120.41
-94.27
-67.94
-42.94
-20.52
-1.62
13.1
23.26
28.77
29.98
27.66
23.03
17.51
12.58
9.39
8.58
10.27
14.16
19.7
26.27
33.26
40.03
45.9
50.23
52.51
52.52
50.43
46.71
42
36.92
31.86
26.91
21.86
16.32
9.82
2.05
-7
-16.81
-26.27
-33.81
-37.66
-36.39
-29.31
-16.69
0.31
19.97
40.46
60.11
77.57
91.78
101.86
107.16
107.39
102.8
94.23
83.06
70.89
59.26
49.36
41.87
36.99
34.52
34.09
35.25
37.58
40.67
43.95
46.71
48.2
47.8
45.26
40.79
35.04
28.85
22.92
17.57
12.7
7.83
2.38
-4.18
-12.13
-21.4
-31.41
-40.98
-48.47
-52.03
-50.13
-42.13
-28.56
-11.09
7.98
26.28
41.98
53.99
61.87
65.59
65.33
61.36
54.24
44.91
34.67
25.06
17.49
12.97
11.97
14.45
20.16
28.75
40.03
53.79
69.7
87.06
104.77
121.35
135.16
144.74
149.1
147.95
141.87
132.09
120.15
107.35
94.31
80.78
65.8
48.16
26.95
2.08
-25.47
-53.64
-79.56
-100.16
-112.92
-116.56
-111.43
-99.52
-83.84
-67.59
-53.2
-41.82
-33.28
-26.55
-20.43
-14.29
-8.34
-3.52
-1.12
-2
-6.14
-12.34
-18.51
-22.3
-21.93
-16.82
-7.75
3.36
14.07
22.1
25.81
24.51
18.4
8.42
-4.02
-17.39
-30.63
-43.48
-56.7
-71.67
-89.6
-110.61
-133.14
-154.13
-169.84
-177.08
-174.09
-160.85
-138.73
-109.86
-76.48
-40.82
-5.06
28.54
57.79
80.92
96.96
105.99
109.11
108.03
104.7
100.88
97.84
96.13
95.6
95.39
94.23
90.78
84.08
73.88
60.55
44.79
27.14
7.73
-13.7
-37.39
-63.05
-89.54
-115.1
-137.84
-156.45
-170.63
-181
-188.73
-194.93
-200.3
-204.99
-208.73
-210.94
-210.8
-207.36
-199.68
-187.1
-169.53
-147.67
-122.98
-97.37
-72.81
-50.98
-33.11
-19.95
-11.81
-8.51
-9.39
-13.17
-18.19
-22.64
-25.02
-24.48
-20.95
-15.09
-7.85
-0.16
7.4
14.59
21.3
27.26
31.86
34.34
34.11
31.13
26.06
20.03
14.29
9.65
6.23
3.44
0.29
-4.29
-11.02
-19.97
-30.37
-40.59
-48.39
-51.41
-47.84
-37.02
-19.66
2.31
26.37
50.11
71.61
89.65
103.49
112.61
116.58
115.24
108.85
98.37
85.42
71.94
59.8
50.37
44.25
41.36
