-32.328
-61.55
151.46
-30.557
-61.663
8.6602
87.291
110.49
-128.11
-45.441
34.184
-37.487
-69.575
54.314
51.631
30.003
17.713
-76.578
-4.4384
-94.374
278.63
5.2649
-221.81
22.807
-12.13
-60.883
71.394
125.56
-28.698
-56.213
6.3324
-21.113
14.01
-118.57
59.441
115.84
-39.398
-15.029
7.8808
45.936
-30.578
2.3365
-0.39853
-37.783
6.275
16.693
-2.0494
57.067
22.146
-167.06
-51.208
98.645
56.175
-113.58
112.81
147.33
-214.64
-50.672
179.63
55.623
-228.23
34.825
49.81
-33.265
100.13
-38.103
-201.5
131.21
153.95
-80.23
-65.188
12.766
-45.665
38.361
125.37
-105.61
-75.619
23.763
38.505
8.0503
14.831
73.326
-52.086
-8.7556
1.6953
-73.128
63.642
-8.4379
-14.683
51.726
-89.662
-9.8922
160.87
-56.22
2.4781
-39.345
-17.091
-1.6865
13.481
2.807
-11.967
-5.8027
-10.723
-12.398
56.821
13.021
18.387
33.667
-59.023
-64.432
34.578
57.585
-114.24
-27.585
80.603
39.178
-1.5864
-13.107
-47.393
17.397
-53.533
129.32
51.225
13.755
-54.637
-254.72
155.26
79.096
-93.836
11.593
28.971
-44.805
5.2815
66.077
-27.832
16.222
-30.01
-50.985
70.276
65.823
-110.91
36.477
63.591
-16.366
-103.56
15.251
174.72
-85.74
-74.665
28.467
80.53
46.772
-130.56
-30.738
47.952
-54.19
-69.295
135.51
49.814
-54.719
-58.41
-29.146
52.725
15.604
4.0934
-93.131
52.582
83.182
42.313
-62.985
-90.445
139
-44.388
-47.243
-2.0567
-1.3704
-27.039
35.582
42.552
-22.365
-5.1287
63.411
-129.72
42.574
181.43
-70.515
-172.22
81.283
98.981
-112.81
15.73
-50.481
47.516
35.936
-40.085
-3.0111
-13.453
-3.8387
-9.0913
-19.554
42.085
30.309
45.538
-77.575
105.69
-27.679
-87.304
-2.4985
9.2582
3.4105
-14.873
7.7965
-10.567
22.819
36.37
6.7632
-43.293
28.879
-2.0877
-8.7466
19.58
9.9622
-61.284
116.57
-26.44
-133.46
40.575
99.877
55.737
-68.205
-129.6
-48.926
14.509
82.356
-16.034
88.014
32.464
-80.273
-79.928
-11.714
47.753
130.06
45.508
-166.31
28.565
-17.468
84.245
-92.381
8.3984
71.586
-118.99
5.9316
21.973
47.509
-11.36
32.166
-16.923
17.06
-2.4082
-47.564
16.926
45.377
-62.635
-32.947
95.183
43.625
-73.629
-58.614
5.2315
82.033
-32.772
14.22
16.842
-26.525
10.929
-26.406
10.876
-80.076
35.275
77.678
-30.62
41.701
25.496
23.424
-113.85
-77.102
-12.545
36.292
21.721
39.948
2.7497
-35.17
-20.583
60.719
44.274
-44.222
32.815
-27.436
-0.12156
7.9404
-3.9553
2.6911
13.8
-6.8886
-5.0538
5.741
1.0147
2.9289
-11.816
-10.174
6.0277
-9.2359
51.66
-64.908
20.27
189.52
-56.806
-236.56
99.008
-27.685
-2.6187
16.911
-9.3358
-28.208
34.444
97.049
40.876
-126.69
-15.048
-36.634
-9.705
46.672
23.798
-12.734
-32.873
45.713
39.411
35.809
-70.555
-51.465
26.633
21.019
-6.1242
36.238
-15.007
-12.993
-23.167
-8.5248
24.885
-80.623
48.026
144.56
47.146
-119.96
-65.516
29.276
-64.167
-18.971
37.928
50.03
-26.2
-9.3798
-17.221
114.2
38.093
-64.904
-51.969
-59.056
-35.221
81.353
59.763
-33.322
34.342
8.6759
-51.777
1.2712
-8.3861
-11.756
9.4801
1.4206
-0.0013709
7.0197
-17.327
34.832
22.025
5.8279
-48.203
-45.16
32.035
48.361
-22.301
10.767
4.9207
-31.847
9.0692
10.277
21.78
-48.021
9.9775
80.395
40.512
-80.527
-76.984
-16.02
50.03
-37.219
76.846
14.886
-62.088
14.634
-19.64
2.9561
-9.8988
38.737
-9.0931
-33.421
52.617
70.554
-35.082
-57.769
-11.754
-15.807
-1.8505
7.0646
4.5077
3.4427
-20.147
17.389
71.637
-35.967
-14.903
8.1394
-4.8484
-39.988
10.343
36.309
-4.476
-3.8879
33.489
-42.414
80.702
88.188
-160.45
-145.7
94.186
78.77
-35.11
-46.236
45.454
63.153
-69.78
11.413
-8.5254
33.181
-36.313
6.296
7.2469
-13.806
5.5804
18.984
-17.319
-19.834
17.022
8.9269
27.466
5.9988
-36.785
5.1591
13.98
-32.407
11.352
34.471
-8.5516
-22.647
13.344
-9.4442
-23.678
30.613
46.144
-35.104
-18.456
-33.7
7.2982
28.228
8.4206
-30.833
39.063
24.003
-46.036
-50.972
53.632
143.42
-66.086
-109.37
-67.046
64.306
79.878
32.17
88.285
-48.912
-142.15
-69.38
58.075
13.642
-64.137
-0.29018
59.523
31.091
-12.167
-53.598
35.37
-6.2634
64.765
-39.778
27.732
-28.543
13.096
-2.4115
15.256
1.9157
41.238
-48.33
-47.542
12.985
-43.401
53.126
64.81
-42.094
44.099
-1.3641
-63.026
-13.774
4.402
-5.5521
38.523
10.375
-65.826
45.974
25.704
-9.9378
-29.756
30.802
17.89
14.925
-16.634
-74.263
-19.674
67.612
-16.409
-4.125
44.81
-19.592
-30.825
15.761
6.9638
-16.197
39
-12.012
-11.29
-21.361
-1.9527
25.981
31.423
-22.962
-29.575
28.673
15.793
-6.2284
-52.108
-30.108
6.2585
55.446
45.002
-46.757
-59.109
65.432
56.18
-54.635
13.238
49.136
-42.504
5.1432
-94.079
15.976
-50.39
56.943
75.833
-10.341
-67.611
-37.064
23.725
39.135
15.297
4.1449
10.945
-26.789
58.447
-46.781
-32.622
56.765
-26.116
29.335
-27.908
6.4645
-17.745
19.967
-20.978
65.387
46.934
-94.896
-20.114
-39.581
65.09
113.38
-89.943
-68.818
143.05
-112.79
-105.07
17.448
45.569
24.938
-29.672
-27.033
87.177
86.136
3.0116
-71.409
-55.819
-14.299
-36.696
78.032
38.554
-57.132
-13.512
13.676
38.855
19.098
-1.7492
-54.536
1.0422
-2.7102
-13.833
9.3602
70.841
-4.3232
-45.739
-27.539
15.257
54.802
-49.153
12.189
11.168
1.267
5.791
-11.616
-15.005
-10.933
42.15
34.106
-55.242
-10.298
-41.268
0.54865
68.672
11.307
-10.706
-13.332
-10.365
-1.3967
-20.393
17.281
-5.9995
27.711
5.6062
-30.079
-16.729
13.114
13.633
-5.5813
7.0426
19.158
-11.993
-19.134
3.0823
15.006
12.001
17.79
-23.508
-30.656
10.291
5.2224
-31.929
-1.237
72.07
121.54
-115.76
-119.4
44.257
-8.3315
-71.449
133.37
-34.636
46.521
-23.22
-34.765
-16.338
40.024
-28.672
70.571
98.037
-123.83
-128.85
57.807
49.024
-0.80926
-20.456
-27.907
57.774
28.252
-44.313
91.759
-50.037
-55.9
-3.4149
14.893
-1.2307
-2.3304
6.1185
16.235
31.428
-53.675
-24.771
13.185
46.503
5.7514
-0.92603
10.273
-14.878
40.561
-37.318
3.1832
-16.539
5.3367
9.972
131.84
-103.53
-177.23
12.008
53.664
103.72
-9.5873
-62.293
-36.934
1.9506
72.559
-13.122
33.639
-30.284
3.2077
-19.757
-12.739
80.585
11.868
-61.116
-39.507
12.174
59.787
-50.59
32.156
1.4501
-27.357
10.96
-6.0615
-26.147
7.097
43.474
74.196
-16.854
-39.711
-44.69
-21.285
15.412
2.2619
-13.095
0.83097
-6.36
19.904
-26.246
84.267
-46.846
-25.089
28.435
-33.623
20.443
8.0273
48.187
-22.302
-37.718
-1.2749
19.267
-13.17
-16.46
44.992
13.89
-12.124
-55.087
29.399
87.795
-33.475
-78.391
-17.126
18.175
39.709
17.246
-6.7639
-11.103
28.896
-32.585
-52.38
15.054
24.567
14.145
-33.807
29.883
31.994
-54.814
-0.5718
18.137
-10.505
2.9434
4.224
-20.931
16.325
8.5978
-2.5607
6.8463
0.83834
-5.9455
11.45
-1.2901
-6.3128
-13.11
-1.9605
3.5276
1.7555
-14.761
10.403
58.643
-14.834
-45.365
-4.5489
-1.8218
-24.426
2.38
58.754
32.262
-68.773
-1.6452
18.194
12.404
0.50941
-19.213
7.0874
-41.057
17.561
88.814
0.90781
-102.54
-5.6453
-3.2347
61.042
-11.537
8.609
63.677
10.605
-73.159
-59.181
24.274
-41.504
102.32
133.22
4.5785
-204.09
-10.137
-51.241
-28.111
146.06
46.29
44.129
-163.39
-9.3012
-30.817
-4.408
24.174
-3.0717
62.345
15.787
-5.63
19.967
-18.611
-21.437
21.74
37.071
-63.507
23.639
-7.2131
-0.95456
27.005
-56.175
31.03
-24.8
70.185
20.602
-0.82051
-20.537
27.687
42.074
-49.259
-112.42
-38.621
-59.726
105.48
51.296
-29.457
21.151
-3.7948
-29.196
37.309
1.5515
-33.947
17.137
-0.77282
6.4767
-11.169
70.018
14.887
-75.241
20.234
-37.759
-4.4706
26.941
0.64087
-33.014
37.869
-6.2939
4.1462
46.018
21.274
-46.527
-29.569
-8.5033
31.414
-37.006
-1.0917
-41.645
43.871
172.22
-103.36
-44.362
-70.5
32.539
-71.729
39.456
82.064
12.014
-33.776
19.625
0.51357
-8.041
-48.354
-19.33
108.9
-2.6776
167.12
1.265
-205.72
-66.367
-28.961
-76.441
110.28
96.901
-97.455
-25.23
30.405
30.284
8.4544
21.089
-21.524
-7.6342
1.8093
-25.566
39.018
27.23
-23.267
30.93
5.9198
-32.465
-12.313
15.735
6.9357
-14.871
42.802
12.265
-64.723
10.54
-2.0164
1.6979
-19.473
45.313
10.438
-6.4448
-36.237
4.7208
-18.128
-21.864
24.7
15.964
-1.4168
-21.28
-18.945
139.55
-6.4084
-77.482
-16.931
36.545
16.603
-96.476
40.834
16.487
-19.314
-17.016
14.981
2.2728
-14.872
-4.4485
1.8549
-0.57678
31.4
29.593
-22.856
-38.36
47.157
-12.83
-25.461
-36.347
18.761
9.0065
91.768
-57.062
2.7429
-10.929
-23.354
17.082
35.511
-37.504
-26.152
20.948
-23.453
117.77
20.711
-122.1
-18.383
22.828
-40.448
21.428
76.854
-22.19
-11.937
-14.165
-39.534
80.017
-34.458
-28.731
80.048
-53.985
-3.0395
-36.505
75.896
27.455
-22.071
-22.444
-62.291
16.223
4.2239
8.0157
9.323
-7.8283
151.09
-184.79
-178.37
241.95
-49.418
-48.529
248.84
-49.883
87.954
-105.08
-212.55
69.702
16.463
-124.84
190.55
-9.966
14.608
-124.11
88.542
-42.139
-25.187
99.332
-130.31
63.541
-14.165
-2.2947
64.317
21.605
11.843
1.0802
-50.747
-14.115
-11.68
-58.602
67.818
61.838
37.037
-59.675
-16.122
-76.811
5.5645
88.156
13.584
-66.18
-85.922
301.42
-58.787
-121.28
-176.13
152.01
155.27
-104.92
-8.0396
-58.488
-8.5666
-16.865
-68.148
-72.469
232.82
49.672
59.817
8.7091
-229.37
90.282
57.871
-104.38
-15.02
12.99
58.091
-62.336
-3.2348
-54.759
21.831
76.277
51.904
27.776
-149.28
-8.4917
329.36
-151.89
-166.47
-21.771
35.803
31.972
38.418
119.32
-171.81
-38.637
37.104
-10.531
169.29
-101.64
-44.575
-14.139
-1.1711
-1.6479
-2.5898
6.7916
19.824
5.7112
14.428
3.1959
-11.064
-15.769
30.569
31.997
-43.561
10.736
-83.355
22.296
203.77
-117.01
21.391
-79.881
-11.123
58.235
2.4422
-46.073
-4.5994
2.5665
25.835
19.432
-89.434
30.426
39.502
-36.159
12.111
15.406
33.301
29.914
5.3577
14.763
-61.189
-6.6364
-6.1226
-31.064
-5.4301
-19.153
17
-27.114
29.348
60.219
4.0465
-19.34
-142.85
23.751
124.01
68.484
5.9075
-7.2563
-15.797
-67.549
-28.201
-51.112
-71.791
61.459
64.837
35.943
12.694
-1.275
12.528
13.145
-3.2183
-21.858
-15.435
-1.593
-9.104
-3.9678
7.1754
-4.7012
3.1507
-1.9526
-55.686
65.797
14.911
-24.749
17.521
-14.544
16.776
3.6285
-60.001
-7.1485
19.123
-21.83
-18.046
22.496
25.488
24.701
-29.091
-17.559
-29.05
26.3
64.003
-139.35
13.17
143.08
-3.7279
7.1914
-9.1668
-5.6427
1.1175
-2.2111
-9.1665
6.1186
-0.61798
14.746
44.904
-4.0498
-19.516
-82.478
3.7392
17.878
-75.863
97.395
87.527
-67.168
-131.24
86.89
-29.078
82.99
-133.82
-58.27
64.66
55.585
36.923
20.452
-10.164
15.228
3.1721
-32.433
-5.8238
163.2
-136.06
-128.06
86.88
10.698
48.914
-20.86
-43.566
65.692
-15.239
-31.008
-74.575
-95.343
148.82
42.754
-43.19
-48.841
-8.1826
42.889
-10.797
39.276
20.752
9.2977
-27.791
38.66
19.99
-6.7102
-43.543
-54.379
20.927
29.995
37.242
-33.515
44.159
46.191
-94.673
-0.80175
-38.348
53.237
-136.31
-41.472
52.646
140.81
-21.427
-89.588
91.319
-48.509
45.83
36.825
-27.852
-26.901
1.3355
22.496
3.3777
-6.9813
-34.687
-25.755
99.405
138.08
-214.44
-56.707
-10.901
53.79
90.068
-61.074
-29.16
76.717
-12.121
-34.651
-23.086
16.266
5.4525
-11.934
13.063
26.923
64.444
105.35
-127.73
-123.36
-139.6
154.09
90.502
-33.804
-90.241
32.699
181.84
-43.335
-309.39
297.44
-131.53
-156.51
198.7
141.75
166.74
-60.833
-254.27
-43.239
-81.346
-90.836
96.388
143.06
52.281
-122.45
8.1169
35.9
239.15
-19.866
-270.84
-174.31
166.26
151.92
-22.284
71.459
-116.94
-112.3
198.87
-91.298
-11.019
-2.0274
-16.353
-10.211
1.8348
-58.515
0.7292
93.725
-27.266
-9.0212
85.563
-19.893
121.83
-143.62
-29.9
-25.895
20.978
61.345
-60.501
64.407
75.764
-190.65
-64.077
151.12
60.053
-65.879
-9.9454
-1.4458
2.1248
-6.362
2.2753
-34.399
5.7974
24.246
28.411
60.978
-31.803
-78.409
-31.385
195.4
7.7699
-147.03
-1.7833
-12.242
7.3816
-23.744
-38.605
70.343
52.145
9.4914
-119.96
-8.7395
50.185
176.9
54.954
-168.68
-119.78
-88.48
114.96
43.549
19.653
83.08
126.51
-45.579
-184.16
-20.721
-14.685
2.13
-6.092
6.9137
-7.9584
3.7354
-0.2391
0.14095
8.4603
2.0666
3.958
7.9089
5.1885
1.9347
3.836
-7.5318
-23.154
4.9949
43.977
6.7363
0.85314
1.908
24.246
-76.522
116.83
-3.7013
-141.37
48.208
30.509
43.694
37.533
-73.862
-16.366
-15.174
-6.7308
15.398
-25.643
-27.858
130.89
-30.567
-44.743
-2.4909
-12.721
-68.918
79.793
54.594
21.692
-8.9807
-68.68
-101.63
65.392
237.13
-105.53
-42.106
-46.618
-56.141
-68.884
101.8
44.086
-5.7438
-25.479
-100.48
61.023
87.368
57.462
93.879
-145.29
-60.361
-29.733
-4.9974
-107.79
64.609
74.137
55.938
53.158
-27.799
35.252
-93.734
-16.048
-72.901
-12.34
94.482
30.156
7.4723
-96.035
-28.213
306.61
-53.704
-254.19
-28.848
97.521
33.558
-17.198
-8.6069
-50.375
17.664
57.446
33.252
-57.194
221.3
-129.73
-170.29
15.865
13.949
60.146
116.36
-91.751
-22.576
-7.7532
-38.694
70.702
-53.475
-19.201
49.184
-7.5724
77.628
22.978
80.314
-122.79
-80.567
-6.2453
-5.1974
5.9331
-0.84675
1.3121
6.4946
4.2094
-0.064299
6.8655
6.8304
-3.3355
5.3474
-1.1756
-10.378
-41.207
47.811
210.9
-84.013
-113.76
-8.1477
-20.036
-1.3534
-37.962
4.5253
71.963
81.524
33.251
-115.44
-51.332
-29.986
84.463
24.992
-56.274
4.2861
23.439
-43.913
26.514
-13.07
13.752
16.585
5.6136
49.799
-32.101
-27.792
-34.402
5.7458
44.517
-14.995
-0.34834
-0.64775
-0.69186
-3.0691
4.0177
1.7644
-15.169
27.056
22.927
14.039
-49.75
-7.2127
16.497
-7.4285
-36.065
31.829
2.0329
-0.67168
33.355
-29.063
-8.3669
-18.085
-13.034
75.265
75.019
-13.119
-142.39
-0.38557
-17.448
15.013
33.345
-4.2267
10.617
-5.9054
13.846
-12.273
3.7619
-36.637
48.559
28.53
9.5103
-0.85193
-86.494
29.453
7.1013
19.383
-15.438
-1.6541
-51.916
58.103
69.886
25.032
-72.938
-87.374
0.87176
42.284
-10.223
32.721
-6.886
-32.901
-4.7572
42.689
-7.2618
25.234
0.90693
47.696
-128.34
6.0315
161.83
-88.865
5.6907
-69.189
30.658
-9.3482
-9.4486
1.1659
12.3
-0.41865
-8.8079
19.286
20.108
-30.977
61.646
11.875
-74.404
13.026
18.413
-8.777
-4.8603
2.1112
-12.593
-13.936
43.102
19.89
41.207
-64.48
-10.815
-13.931
-9.2059
-17.97
30.781
-7.0234
-18.059
41.055
-11.104
23.935
40.979
-50.704
-38.74
10.066
-0.11166
4.6992
-23.538
13.062
76.721
27.816
-73.289
-26.143
-26.666
26.126
131.87
85.847
-288.04
-8.5094
123.45
-41.599
-19.971
17.816
56.069
-43.724
-28.862
-0.30654
-78.074
121.8
81.948
-63.369
-52.115
-9.1723
50.296
-16.125
-5.462
-0.6418
-11.985
-1.1768
-7.1263
-6.6291
3.9469
53.25
-4.5062
32.817
-67.997
-14.181
16.047
31.67
14.116
-67.695
-4.6167
132.72
-7.0518
-97.899
-25.084
47.163
-2.2011
-25.983
-7.9216
4.6576
-16.055
37.953
-2.146
26.159
40.333
-64.854
-28.452
19.051
10.591
-0.98575
-2.6697
1.9047
7.6622
-30.578
6.1362
70.221
153.71
-88.445
-172.89
-76.636
126.11
53.505
-80.496
50.17
-44.703
-6.0467
-47
69.463
20.052
-48.033
40.353
-38.127
21.924
0.29896
28.597
28.259
-27.048
1.4524
-21.359
-4.3186
-4.4697
76.902
4.3808
11.986
-72.17
-113.14
32.652
129.76
-55.741
-18.458
-91.53
125.33
79.471
-102.4
22.741
-117.22
66.054
171.48
-54.149
-119.41
-59.948
59.823
8.7071
-9.1862
49.645
5.2099
-26.126
4.3288
-42.988
16.185
23.965
-14.262
103.61
18.791
-90.578
12.605
-20.946
-22.788
-31.07
9.9349
59.256
-34.243
8.669
-18.897
5.3802
27.178
18.99
-35.67
20.439
1.3637
30.338
17.365
-76.022
10.974
5.7367
21.525
-42.785
12.704
27.442
-21.801
2.9751
-23.129
-4.9262
29.587
158.06
-191.06
-42.497
114.26
43.551
-0.56524
-64.348
-98.488
25.502
59.63
0.81292
-67.916
61.246
13.965
-41.126
17.575
-1.9841
9.8818
-7.7975
-12.105
-22.853
6.0463
70.402
-49.99
23.731
-1.5046
7.0145
24.612
-51.81
15.548
3.9496
16.836
27.464
20.481
-46.675
-62.194
34.187
4.1642
-3.6653
-22.186
68.327
-16.164
-84.54
56.757
26.137
-39.673
33.455
-9.4862
-37.281
53.66
6.6725
-56.681
-10.232
34.839
18.157
1.506
-21.767
-12.462
-8.9702
18.421
58.239
-39.709
-54.07
127.33
-65.343
-9.9327
37.659
-70.233
10.998
1.4447
11.139
-6.7237
-42.58
21.032
21.365
14.865
-5.6159
-30.057
19.513
32.901
-16.175
11.702
1.3668
63.958
-48.884
-79.05
0.18011
1.2747
31.205
14.707
17.236
-12.705
-29.923
10.298
-4.1479
65.266
26.649
-87.911
-3.8019
-52.368
25.876
29.354
9.5843
12.069
-3.1587
43.513
-28.63
-87.068
27.697
72.189
-39.814
11.331
-12.203
35.594
75.048
-125.84
47.176
88.636
-102.6
-50.028
-40.622
-27.357
70.404
8.1969
156.99
-28.81
-111.89
3.0334
-30.882
-46.115
32.574
59.597
13.879
-7.1451
-50.735
-27.664
-12.544
90.88
2.0242
-3.3736
1.8525
-0.82413
25.546
6.9818
-32.219
-35.866
-2.9261
27.098
11.469
-71.183
26.409
109.31
18.653
-85.239
-51.051
-11.938
70.282
9.8995
-71.57
-10.048
106.45
14.591
-46.884
-29.669
2.7506
18.695
-14.617
5.7429
-26.304
-8.3821
-2.2899
-19.774
-8.9383
107.2
25.884
-7.7649
-22.878
5.2151
-60.317
-82.001
165.4
21.489
-107.01
23.413
-171.78
166.99
4.9402
-75.877
11.494
77.48
-16.527
-27.542
-31.633
44.051
27.004
-29.716
-19.843
98.652
-58.614
-28.625
22.166
-0.57122
66.086
-42.956
-44.806
-13.601
17.423
41.944
1.6948
166.06
-127.37
-87.937
2.6969
-7.2543
-21.505
6.7328
18.045
-17.363
27.207
37.365
-8.5971
-4.8667
-56.833
1.8488
137.02
40.697
-92.785
-108.22
-4.7025
82.854
-25.789
87.267
45.952
-150.07
9.3482
-7.2806
5.7214
-0.96441
11.789
-1.0049
1.8372
2.496
-7.81
-17.606
118.8
-24.644
-44.91
-21.796
22.636
-24.707
-21.958
-11.019
89.105
-27.938
-23.737
11.906
-22.277
24.08
-5.8618
-7.0675
9.4514
0.1771
-17.725
32.775
42.81
-43.156
-79.773
31.153
35.312
15.747
77.488
-83.355
-7.0598
-15.047
-11.094
3.219
-54.368
26.421
72.035
0.86995
-23.605
19.004
13.01
-50.39
37.163
-34.411
-13.383
36.21
107.49
-166.47
65.881
2.763
-93.925
70.666
-12.995
-22.329
56.407
-29.715
83.8
60.017
-142.61
-25.921
-95.242
-13.872
68.802
39.601
55.043
65.943
-33.363
-12.644
-36.064
-55.347
-63.101
203.84
66.823
-137.48
-10.415
-37.367
15.555
14.49
-130.42
165.59
18.434
-110.31
99.166
-6.1652
-33.752
-31.169
6.5516
-64.432
134.89
44.296
-132.86
28.789
35.547
-10.542
-18.453
-4.0676
1.1975
9.3856
-15.472
4.2986
-11.742
37.675
-0.54991
-52.438
59.491
-12.019
86.422
-26.644
-82.851
7.6166
-36.059
45.792
19.56
-37.027
39.092
-33.829
-13.384
66.37
-68.266
-27.511
55.248
23.483
-6.6861
-33.55
17.64
-36.227
34.712
41.237
-67.445
-1.2061
24.729
41.919
-27.8
17.244
-7.656
-35.089
-28.002
38.325
-8.3782
17.973
74.854
12.439
-65.207
-52.042
-36.475
-15.409
-5.2871
95.2
46.079
-63.25
-47.304
21.638
-21.192
5.125
37.437
5.799
15.003
-42.217
10.572
-6.8945
2.4664
27.029
5.9046
-36.435
40.942
53.625
-23.152
-59.724
5.8037
-17.54
43.191
-37.15
9.8387
18.152
6.2701
3.9924
-19.341
-8.8125
-44.814
33.707
26.695
-24.344
15.553
-10.428
24.716
-30.026
11.207
11.748
-4.5136
-20.492
30.644
-22.408
86.135
-57.033
-43.726
162.3
-64.041
-97
-29.243
-67.606
47.192
88.541
75.088
-26.271
-60.145
-1.1966
-6.88
-28.166
-20.053
-14.254
21.537
43.63
-10.414
-0.8196
-14.604
-26.94
114.42
-70.778
32.071
66.23
-41.704
-56.003
-8.5465
-49.673
-51.402
82.494
80.144
61.037
-49.326
-57.41
-55.374
-10.263
122.89
-82.144
-36.613
82.835
-10.014
-34.515
55.959
-46.883
-64.952
48.427
45.651
38.54
-36.529
-53.811
34.547
25.332
44.599
46.508
40.89
-187.84
-88.477
138.56
-70.813
-20.717
73.464
67.263
129.25
-108.74
-178.75
13.141
42.119
45.762
-35.404
-12.406
-7.943
-8.7296
14.474
29.728
9.3196
-3.1027
-45.981
46.115
21.885
-45.927
32.229
59.972
-30.54
17.658
-48.784
-92.556
113.21
-18.904
136.34
-68.782
-95.669
-44.382
-56.855
102.51
79.077
-18.136
82.184
-3.9527
-225.21
2.8547
59.69
13.981
9.4009
56.441
-26.73
-19.268
4.2806
-9.2737
2.2091
43.184
-21.418
-48.087
8.5925
37.362
60.007
68.752
-79.84
-108.75
53.919
26.226
-52.685
-17.698
176.39
-14.746
-149.06
-71.669
37.967
67.986
-0.19908
60.399
-64.596
-30.891
-33.46
34.83
150.84
-53.723
-128.75
86.904
29.091
-125.78
70.921
24.139
-18.049
-72.284
29.356
57.015
-19.439
21.766
20.517
25.42
9.9453
54.942
-136.92
-88.451
77.57
5.6212
-16.056
18.386
-61.016
21.376
19.392
-25.717
161.81
-70.652
-37.83
-8.5207
-28.438
-12.607
-15.709
105.53
11.505
-11.339
-36.81
33.144
26.518
-132.69
0.54566
43.893
32.421
5.9965
20.919
-40.113
16.972
-4.5693
-10.844
-20.848
15.553
14.663
16.485
11.587
-27.539
-0.44722
-12.788
11.254
30.494
-32.785
11.409
24.496
-39.943
31.452
-32.194
22.985
56.876
-58.03
-69.972
45.718
-5.6696
0.63826
87.604
-11.504
-87.081
-49.538
39.718
95.794
4.5618
-20.889
39.834
-57.797
-59.162
-10.095
-0.40065
7.8626
-4.8336
6.94
9.5224
-0.3245
-7.313
-3.8477
88.65
-49.818
-16.254
38.335
-19.186
-15.987
-20.79
-13.586
86.216
10.351
-24.519
6.4775
-9.7677
-38.069
2.2727
22.677
45.012
-43.498
-54.963
61.365
91.462
-121.12
-67.245
3.6395
-21.961
222.9
-99.851
-48.45
-44.478
-38.709
79.096
77.217
-38.708
-51.442
34.614
6.3626
-14.936
-15.602
0.96356
42.25
17.252
17.332
-31.093
-24.041
-7.6281
-7.049
41.787
-12.359
-17.782
4.9321
88.572
24.866
-110.22
-53.469
25.1
-21.308
21.809
10.331
-19.027
-6.4142
-0.78003
83.143
60.332
-78.411
-18.322
-31.864
-17.477
10.351
-6.5384
63.723
-4.1015
28.674
-41.95
-27.098
-7.3438
65.289
32.765
-68.722
33.752
21.378
-19.449
-32.45
-16.15
-11.277
-31.484
-7.2151
41.399
1.0921
28.949
19.876
5.9178
-68.695
12.754
210.55
-113.27
-160.58
27.07
19.462
-2.357
9.4877
20.233
0.42485
96.732
-10.201
-72.74
18.798
-22.391
-22.24
-16.554
8.4697
25.987
-7.1592
22.981
-20.038
-33.983
92.2
-12.719
-7.9687
-36.854
-9.1536
26.112
-2.4964
-28.189
-26.273
53.698
22.914
-26.945
-17.13
2.4387
1.0184
-6.1785
33.92
-12.256
4.7069
10.99
-13.57
-11.304
22.569
-7.1526
-12.461
0.71193
10.039
-8.3278
-19.733
65.85
5.1219
-29.404
8.1643
-3.5692
-75.155
72.036
-40.882
-29.832
-0.70758
26.092
38.635
-47.58
22.616
25.354
15.906
36.769
-17.379
-53.46
-17.506
-30.884
34.36
15.269
-17.905
24.305
-6.8241
-3.798
39.345
-32.304
-38.911
48.894
32.349
28.898
-28.681
-45.018
-12.018
-31.76
13.867
26.494
3.3984
19.004
22.456
-26.508
2.7917
-60.485
-20.804
65.059
5.8603
23.973
-6.7692
-31.243
27.534
-47.79
25.974
28.544
8.1593
25.332
11.879
11.62
-118.84
-10.134
1.798
-11.688
46.215
-16.502
-15.692
9.7162
28.134
18.549
-47.759
28.234
12.534
19.725
-37.756
-16.446
75.776
-12.15
8.9283
9.6422
-7.1623
-71.24
-40.882
18.757
65.677
-61.153
49.946
83.58
-117.96
38.101
-15.996
-26.862
4.3363
-1.2093
9.3496
3.0346
-12.283
35.504
-9.2032
-2.6952
-19.715
57.882
13.587
-45.928
-16.695
37.296
1.0831
-24.909
-15.59
50.38
-30.553
-23.489
18.854
-28.051
3.0364
71.349
-13.824
-29.498
-42.422
21.782
10.992
1.6477
14.986
-8.7873
-6.5626
4.7521
-8.2222
9.9682
2.1154
-1.1947
-1.2397
12.489
26.67
-33.146
1.2954
-3.078
7.1283
-15.116
4.1392
1.7429
-3.4338
75.219
-32.526
-81.829
13.984
24.18
52.395
-34.08
-63.943
17.64
29.813
21.46
-37.713
-7.2336
6.673
0.13522
-9.5888
35.629
-12.781
12.49
29.648
0.15128
0.23067
-65.022
6.0177
-3.0835
-17.433
56.67
-35.28
-9.6684
22.45
5.7615
5.2873
-25.473
28.965
-8.5264
-4.8821
-24.963
107.51
1.4025
-104.3
1.7329
-6.4091
11.969
4.5502
8.3373
-6.3949
6.9969
64.707
-16.936
-78.853
1.1633
29.317
58.457
-24.065
-39.886
-9.9738
9.7828
4.748
5.9967
-9.4843
2.0332
6.2129
-3.6488
0.18946
4.8003
-2.5675
3.7108
9.9028
-10.139
24.371
-33.064
-3.4881
6.1879
11.56
-0.95254
-13.509
9.7565
6.5575
-2.6043
10.372
-8.9435
-10.617
2.2435
-5.4666
14.68
-5.5251
-5.2615
-20.572
64.692
14.533
37.895
-30.374
-81.664
14.987
-37.903
-21.538
21.791
18.02
20.202
-0.54811
37.637
-49.544
-12.109
27.186
25.255
-10.188
-14.921
-22.62
-17.902
16.215
-19.425
30.267
8.9296
19.526
89.82
-75.853
-51.156
11.645
-5.0976
-52.447
64.72
32.211
-39.548
-19.519
26.878
34.458
-65.343
3.5367
94.804
-24.383
-48.246
-9.2462
5.9966
-0.088598
3.8946
-14.319
-37.014
72.902
29.732
-41.706
16.447
6.7468
-51.747
33.521
-1.4283
17.701
6.0534
-66.507
20.887
80.846
7.548
-56.538
-67.195
64.328
-21.781
-16.957
2.6631
17.568
30.395
-23.249
-14.531
-0.17199
6.8358
8.2489
1.0329
0.12898
-7.9294
-13.131
33.39
-18.917
5.1263
11.107
-7.8616
43.555
162.51
-143.96
-233.54
119.46
183.05
-65.953
-141.17
7.3041
55.589
-6.5212
-11.918
-4.5499
-13.501
7.657
70.214
-16.362
-39.159
1.7336
-2.6823
2.7833
7.0511
1.593
0.514
6.5401
1.5797
-7.1766
15.43
27.14
-23.652
-1.9941
-1.4204
-2.4947
93.261
57.396
-101.08
-84.916
-5.3195
-16.311
16.591
30.706
-19.862
-5.3966
12.857
5.1799
0.92875
15.127
-24.514
75.856
78.439
-93.284
-82.654
3.3429
28.787
-9.3492
25.221
-13.609
-18.374
14.191
18.432
8.9561
-20.077
-3.0951
14.269
-7.7024
14.042
9.2321
-32.608
11.716
14.22
4.3115
-9.4307
-7.2222
-17.098
24.385
41.302
-20.506
-39.953
-10.544
15.817
3.6426
10.918
15.544
-21.013
-25.155
20.712
-4.4637
-5.6185
11.115
118.43
-52.15
-53.124
-67.203
1.091
-7.1865
23.899
49.691
-9.7192
2.3826
-13.28
4.9085
-9.244
-4.4507
12.622
8.5796
-3.5001
6.066
-12.923
8.9918
34.653
-30.208
-22.768
-20.43
70.85
29.6
-67.854
-3.7902
-10.964
-17.629
22.789
26.087
-25.758
4.7054
12.406
-12.966
5.7975
2.1417
17.586
-12.896
-14.447
3.0208
3.586
5.8398
-6.8967
6.4393
10.298
1.7575
-5.1789
8.0414
-8.1434
-14.929
-21.444
72.408
-12.373
-13.503
35.52
-16.448
-32.53
-33.948
5.3742
-23.184
-31.043
78.373
-12.053
-21.86
12.413
-4.8939
-16.217
60.132
34.107
-0.074558
-50.579
-13.151
-36.588
34.027
20.719
29.803
12.875
36.419
-35.711
-100.08
46.676
-60.998
-26.494
36.687
68.13
12.183
-32.714
34.905
-32.655
-16.051
-16.506
55.536
42.797
-79.554
13.639
52.094
53.065
-45.054
-150.56
10.55
98.478
17.081
-5.5661
-27.922
-10.099
23.775
-30.946
48.796
-69.245
10.948
13.398
16.811
-29.176
11.61
16.536
-6.7999
13.439
-10.612
-4.4903
-0.72044
4.9237
1.4424
11.216
-0.59503
-0.91487
-3.764
4.1448
1.6536
-2.3671
0.63968
-7.3859
17.128
39.223
-37.879
-33.647
-2.0811
-2.4803
30.861
-2.9617
-11.025
-3.5382
-8.1232
27.69
-11.372
-24.694
39.15
-6.7345
-11.013
18.934
0.20458
-16.426
-22.175
-1.7903
61.545
-12.236
-42.049
1.6752
1.4218
8.7267
4.7305
-3.0969
6.4544
9.5778
-11.119
-26.895
52.79
39.404
-57.964
-34.128
4.2521
48.884
-36.015
-40.159
57.479
-9.9464
-13.313
15.863
-17.411
27.111
56.116
-10.048
-59.258
-37.266
23.157
-53.035
26.285
75.609
-37.685
20.461
-42.677
2.8847
13.568
-4.9844
-5.5035
-15.598
44.827
22.998
-49.177
10.807
4.9715
1.7185
-0.29593
-7.5997
10.942
24.72
-10.563
-36.031
2.0576
7.8872
26.066
-12.138
21.879
-20.056
-17.658
-3.3221
56.188
5.4906
-75.695
-3.5169
-12.863
60.619
-12.812
4.5343
-16.494
0.4095
0.78457
-12.42
9.1236
-1.292
-2.2658
18.55
-8.7364
-1.3823
-11.086
40.884
4.5811
-10.336
-13.872
-12.337
-1.2721
4.6314
6.5257
-23.356
11.219
52.19
1.2561
-20.599
-52.558
23.991
20.341
2.685
-13.195
-9.9765
-26.737
10.335
21.402
1.994
-3.2904
37.939
-11.383
-13.042
4.7189
27.881
-55.766
-41.418
39.335
23.695
-34.117
-14.604
57.298
-1.7203
-12.787
1.5662
29.828
19.785
-107.48
-6.926
53.137
10.645
-15.462
-5.5721
15.939
-25.202
-0.38611
28.749
-8.455
12.689
29.392
-19.917
8.0348
29.557
-37.786
-102.73
79.495
-26.393
53.444
4.0394
-92.565
45.04
64.02
-48.556
-51.572
105.42
-4.272
-30.977
-27.954
3.6342
16.331
-9.7331
-6.6057
-7.0349
2.1321
7.9591
-4.3027
11.151
-62.816
89.342
25.606
-107.88
38.114
28.006
-41.757
158.2
-19.261
-102.41
-49.907
155.97
-11.945
-131.7
-45.298
272.55
-157.72
-70.694
-3.8012
-22.262
-37.94
14.163
22.371
56.255
132.37
-69.711
-57.174
-112.74
45.817
119.59
-43.347
-12.003
10.689
-45.47
50.474
-7.3646
-9.198
-2.5829
-1.6868
14.716
2.5633
3.323
-9.1695
7.9501
-48.477
85.007
57.516
-39.684
-50.129
-42.937
3.556
40.213
-10.959
26.668
-44.975
-73.324
54.448
47.366
42.967
-35.348
8.6565
-31.216
-7.5423
7.9239
3.4906
79.781
-114.11
-44.727
167.39
-84.699
-69.191
83.589
-36.84
23.872
5.5829
83.983
-145.26
4.5269
-40.771
157.66
-8.6913
-103.65
53.316
-38.135
13.588
-1.76
-7.5242
37.483
62.181
-33.913
-55.873
21.994
-12.537
-33.562
-22.528
16.206
52.565
-11.635
-34.1
13.947
-2.0781
27.806
0.018046
21.086
115.02
-93.734
-80.449
76.099
23.347
-115.61
14.037
-4.8804
-7.2103
2.987
10.489
-3.9992
-0.96138
16.517
-2.3707
4.2514
-58.127
98.851
63.058
-16.026
8.9404
-84.569
16.917
-11.827
8.6441
-13.764
-28.494
0.96691
12.203
-0.25283
1.0118
49.505
9.7974
-42.401
-21.529
-0.9336
74.804
-29.056
-7.5488
1.1554
-58.567
52.536
-33.53
118.85
64.001
-141.94
-29.875
-54.764
59.476
1.196
-23.995
-2.2839
9.1119
-31.021
54.25
90.716
-41.256
-72.534
-3.127
24.362
-14.533
0.072079
4.8226
33.413
-31.304
22.949
10.347
-13.193
-12.29
-16.122
7.0965
40.373
-15.599
98.251
-40.458
-92.727
12.07
0.95388
-5.9891
-27.53
36.885
-31.82
32.484
46.001
-8.7545
-69.013
-3.3194
38.585
7.1471
6.6226
3.6872
11.476
-20.804
-26.995
17.583
-5.5408
-8.2622
31.674
-39.694
38.643
22.073
1.3506
31.698
-23.398
-30.378
-56.018
8.7191
13.149
6.3909
21.085
-80.581
97.667
58.193
67.632
-7.9256
-177.96
44.828
-31.872
-30.474
-14.819
8.9577
16.321
0.33425
-0.54846
19.367
-21.787
-5.2741
56.664
-56.734
43.523
113.7
-36.465
-65.48
76.168
4.8545
-83.569
-14.329
-2.4483
-21.359
-30.935
63.699
26.385
-51.51
20.862
49.81
20.616
-33.922
-40.72
-30.606
-5.6729
25.122
20.774
36.964
-25.492
-51.71
31.855
0.68746
1.8054
8.9728
2.8679
2.5667
3.4727
22.072
-9.441
-32.819
3.8199
10.33
-12.525
13.874
82.469
-3.9853
-84.035
-19.7
-22.244
16.298
8.7497
18.763
-12.279
-17.54
26.914
-4.5647
-9.5648
-25.252
5.9692
65.412
10.688
18.615
105.92
-49.188
-229.03
28.629
53.895
15.74
25.122
-37.515
-24.499
32.747
-1.6964
14.462
-8.9689
38.905
-17.143
-23.882
42.973
-39.894
9.0933
8.7362
3.0427
60.172
6.5135
-82.905
-18.189
43.192
-26.286
1.8185
20.505
-17.712
-41.416
42.929
-13.014
-1.4895
69.135
29.527
-45.79
-72.919
12.451
38.56
-18.878
-18.212
5.5234
-7.9009
59.048
1.4168
-97.635
44.39
24.018
-4.698
24.257
-14.007
18.412
-80.191
106.77
91.902
-155.86
-12.648
10.753
6.8886
-17.41
1.6977
-1.7921
20.704
27.652
-5.6672
-29.912
-8.4339
7.6121
4.7031
-4.1565
0.55426
-2.0172
-7.3114
34.807
7.4323
-27.968
28.067
9.788
-40.236
-19.991
24.981
28.14
-24.096
-10.579
19.089
-2.2995
-4.7851
-11.385
13.403
-6.3227
8.0005
-19.128
39.109
36.06
-19.961
-45.841
-29.949
-12.32
42.829
63.317
-58.965
-26.841
-19.983
6.9996
39.638
-1.7982
-16.833
-14.713
20.146
18.863
-5.1807
33.238
-0.5177
-37.863
4.1164
-25.81
-10.432
27.553
27.334
26.607
-25.741
-52.847
26.397
8.3573
28.367
5.9802
-39.513
-50.056
-22.353
157.78
6.0714
-79.046
-18.746
-21.316
1.5135
14.925
-9.8872
-16.549
57.459
-21.03
-21.972
24.589
-14.532
64.245
3.0642
-21.75
-35.259
-59.9
9.5041
32.75
52.799
-18.401
0.29542
16.815
-64.178
25.892
36.685
11.658
-23.429
-6.8281
0.54542
-40.303
-1.9151
25.283
1.9446
16.869
-17.786
-20.155
45.742
-14.656
10.625
85.118
-79.149
-59.639
29.468
104.24
23.586
-161.82
42.654
-28.983
-17.87
19.697
34.677
-26.6
-3.3918
2.7235
-28.194
13.917
8.2364
14.317
-1.4078
28.993
-5.4437
-10.138
-8.1819
9.5912
-11.966
2.1388
23.105
-4.8463
-21.191
41.174
54.632
-60.861
-15.431
8.9567
-57.462
45.516
18.848
-11.179
-13.752
-43.379
13.532
29.046
17.027
5.2229
-8.5353
-22.303
-10.488
-26.454
20.788
73.075
-20.3
12.154
13.479
-27.021
-32.923
36.779
20.392
-119.64
10.581
36.592
37.205
-26.973
-6.3102
-32.755
24.433
64.129
-18.35
40.116
42.053
-86.765
-15.194
-47.344
-11.223
69.494
56.579
-35.413
36.661
-77.447
-24.666
58.714
4.2981
-41.742
-26.995
15.945
-15.009
9.1548
-5.5803
53.806
-16.898
-25.348
9.8225
15.389
21.964
1.2997
-25.612
-25.142
15.65
3.1916
14.312
-9.067
-22.955
47.761
0.095974
-27.732
31.803
-11.463
8.0778
-170.67
281.75
-21.536
-114.5
-44.852
-12.294
88.718
-35.926
-32.617
3.1517
49.416
2.0285
-18.624
1.9233
-19.318
4.666
4.8892
13.697
4.3264
19.85
127.34
-104.29
-115.07
-3.5808
71.562
-1.9586
6.5962
-25.526
-44.473
115.7
-11.436
-29.313
3.3731
-1.8005
-6.1148
5.8745
0.16127
-8.8961
-92.062
62.14
21.165
-13.98
36.938
21.778
-22.379
28.169
27.395
-28.507
-48.513
-18.155
2.4618
5.5972
8.0946
-9.3822
-3.2205
-54.589
33.54
-10.174
18.02
72.871
2.0309
-8.097
-18.834
-16.76
-2.5782
-10.613
5.3284
-5.5098
9.7107
15.027
-17.382
9.1298
7.2852
-1.857
-0.00080534
1.4751
-7.4857
-2.2784
-6.4458
-0.69097
3.2755
-4.8133
3.536
2.9545
-2.7182
3.1984
-0.83566
0.37417
5.4071
-2.8022
0.78129
0.63213
-2.0284
2.368
-2.6835
1.2803
-0.68477
5.069
10.569
-10.488
-12.339
13.309
0.15585
-8.8522
2.8799
-21.124
-3.9675
9.8389
-1.5301
10.701
11.326
-3.7901
-9.9611
-7.0086
2.6427
4.4032
3.9872
15.569
9.7605
9.4597
0.59421
-12.014
-23.419
9.6767
8.8215
-6.8539
-0.82005
1.6032
-2.2023
5.518
-1.6785
-9.9324
0.16366
0.44981
-5.9832
0.041657
0.10803
-7.7976
-8.8341
37.834
-17.93
-9.9143
10.593
-0.73059
10.141
-3.6281
3.5446
-6.8986
-26.539
60.042
-97.841
-50.016
81.419
78.762
103.77
-165.74
55.557
-42.842
-36.541
53.531
-4.708
-43.61
-3.7744
7.6708
32.742
-19.009
48.028
-15.638
-21.094
-11.51
37.745
4.0888
-11.585
-38.953
55.251
-125.11
48.034
104.82
-18.325
-26.295
-36.417
118.15
-1.9755
-121.38
4.7498
6.3422
-23.591
-47.393
35.896
46.802
71.227
22.545
-246.76
61.199
127.87
27.155
-5.3831
-27.503
-12.096
-10.558
3.9997
17.234
-39.416
-6.9834
12.374
13.712
-19.885
-1.0443
76.057
-25.086
-57.456
10.933
5.7277
24.158
-20.543
-5.9188
-8.483
21.079
64.406
-24.865
-57.916
-37.089
118.44
-61.82
-69.32
92.364
-26.446
-44.978
14.168
26.516
-21.769
8.8429
-20.159
35.266
-0.40527
-9.1822
30.821
-39.826
-23.562
35.676
-1.2704
39.27
77.207
-24.475
-69.014
-87.459
65.904
35.648
-16.745
-11.418
-12.522
-19.935
11.126
46.061
-22.508
-29.017
31.744
22.21
-28.928
-26.254
23.098
26.721
-30.454
14.889
14.811
-10.821
-17.151
-16.624
22.859
0.31876
1.3085
10.023
-4.421
3.2863
-12.978
-3.4697
-5.2931
25.714
-3.3247
23.644
-18.63
-19.146
2.4269
-3.0808
0.77806
17.279
4.595
-9.4359
-23.02
17.134
1.8461
4.5244
-10.039
21.301
22.295
-48.511
15.275
-13.776
-4.3221
-5.3078
7.6398
-2.9695
6.2428
9.2342
-13.078
4.7732
10.169
22.374
-14.615
-4.499
-7.3221
0.27246
-1.1266
-14.077
21.602
19.775
-21.833
-17.131
-16.164
10.466
-2.3868
31.779
-3.097
-31.411
2.2933
4.2586
3.7144
8.769
-11.152
-4.3733
33.903
-17.249
2.8551
32.645
-10.08
-22.583
-1.8486
9.8674
-6.6822
-24.439
5.0009
21.496
12.008
-17.772
-14.425
0.83616
0.48814
0.17107
-4.2525
11.043
45.912
-16.458
-23.595
1.9823
-25.789
14.286
-10.156
-2.2099
-2.3398
14.051
-1.8433
26.66
11.993
-2.3862
14.793
-31.15
-31.207
21.118
-9.1209
48.78
-2.8755
-36.227
-13.618
6.4833
-13.671
-12.567
23.933
10.861
-12.822
-0.48204
4.171
12.736
-3.9397
-8.5723
10.334
26.272
48.603
-39.085
-52.786
-0.38016
4.7926
-3.2825
4.1618
6.1628
-8.1267
8.0089
-9.0481
3.5126
-0.25483
4.3655
7.0794
8.6974
8.7979
-18.965
-5.7994
4.5523
-3.2104
-0.65862
5.6194
-3.5294
-4.4038
6.1593
8.8317
0.094551
-4.566
1.2568
4.3451
-3.7132
22.069
33.314
-14.527
-47.261
5.5046
-7.323
-18.509
11.095
-9.4994
-4.6095
11.576
16.595
2.9411
24.878
33.097
-44.242
-41.772
1.5061
4.4295
-15.451
5.9717
6.7784
-1.7179
-1.0197
5.96
-1.7536
2.9204
4.4132
5.2353
2.3312
-3.1506
21.097
-8.4198
-7.6168
-1.4773
13.617
0.14165
-11.993
2.8492
4.6629
-2.6983
-1.4786
5.6204
1.4476
-0.019032
12.998
-12.778
7.6216
23.266
1.5658
-36.488
-28.61
-9.1721
18.933
0.31817
-15.411
0.42457
13.392
8.4795
9.3548
8.0567
-18.932
11.296
16.052
-24.107
-5.5562
7.7853
-11.01
3.1058
23.499
-11.92
-6.1867
1.2995
1.5277
-0.71986
0.42865
33.002
-1.2279
-25.659
-3.9078
-8.0062
-9.4621
26.709
3.516
-18.244
-5.3298
1.8836
2.6812
-1.4053
3.2338
7.3158
-1.1737
7.0219
-14.637
-2.2592
11.525
-3.4979
11.263
-2.4681
-13.927
19.131
-22.404
-5.8656
19.723
-9.7843
-6.4251
-1.6227
4.8648
0.81747
2.1165
6.2772
1.3044
-1.3912
11.734
3.8393
-9.9878
-8.6957
8.2449
9.9302
-17.488
-4.5549
6.7577
-3.1055
-11.121
2.9083
4.8117
-1.1439
-1.02
22.95
33.248
-42.429
-11.944
-6.4367
-11.775
-1.0877
8.4588
9.121
12.405
-8.8668
44.436
-11.33
-48.131
-3.3154
-2.9287
18.237
-4.3233
6.9112
-8.0667
-23.495
20.463
18.415
1.738
18.637
27.62
-14.768
-62.777
23.595
-20.739
4.5691
6.9559
-1.799
17.113
-28.055
11.107
8.8828
-1.7911
3.0822
-5.8307
3.8659
-1.4959
16.056
8.3004
-20.261
-10.342
20.842
9.7121
-29.961
4.8159
18.892
1.6888
-9.7084
-7.7742
-2.0426
6.7565
1.874
-3.7971
-3.856
4.1436
19.853
-4.6446
-15.116
0.16427
14.639
-10.525
-15.398
5.5654
5.1691
-1.4606
7.4398
-4.6444
-9.4837
-3.5621
10.382
11.856
-12.725
2.3572
19.116
10.391
-16.775
15.547
4.1744
-15.79
-5.774
4.3639
-31.349
9.4633
-7.8335
-11.765
-11.134
8.8602
18.941
-2.3885
11.079
-2.3257
-3.8658
-1.4481
6.5039
-1.8036
7.5899
11.733
-5.8605
-17.008
-8.0505
15.585
24.41
6.6276
-21.194
-8.7345
-5.0483
2.4375
10.969
-10.163
2.2484
-6.1464
0.46866
7.4563
-15.285
5.836
5.1268
10.381
-4.5452
-10.074
-3.9047
2.6364
15.568
2.0256
-6.9221
11.64
6.3018
-25.944
1.926
2.7694
-0.97621
-11.59
35.688
12.49
-34.025
-27.881
42.131
29.224
-43.969
-23.436
-1.7227
10.267
2.1452
-0.38841
-5.0218
0.96155
4.7816
-7.2555
4.6312
13.795
-8.5436
0.18143
6.9028
11.186
-6.6802
-0.68165
5.4534
0.50333
12.247
-10.879
-10.331
-5.7167
1.2619
2.3291
3.4587
2.2501
2.6297
9.1028
27.884
13.263
-54.548
-26.266
13.827
1.2198
-3.9786
-3.6931
9.1757
5.5829
-3.7046
-5.9569
0.37918
6.9872
3.5083
0.6933
15.096
-5.1873
-3.8853
0.37139
-11.808
-4.5619
3.27
6.4712
-5.7374
17.217
9.2486
-11.315
-3.7778
32.495
8.0032
-61.765
-2.7006
-5.9158
21.084
6.5974
-9.9763
-4.2487
0.019785
8.7891
2.4241
-6.5263
9.5973
6.0058
-10.383
-0.51813
8.5456
-4.6773
9.3359
-3.7342
-19.207
0.61314
9.6659
6.8567
-2.1926
6.6387
-1.3932
-7.2958
0.6042
-3.613
5.4054
4.7126
9.3257
-11.277
-15.166
3.0899
1.3444
1.3634
1.3955
14.028
-2.269
-4.8889
-6.8728
-4.7138
8.749
15.266
4.0581
-17.005
28.962
-19.343
-30.919
-1.4196
4.5372
-10.392
-0.10514
26.337
-9.8907
-2.2672
4.6658
-4.3394
-1.7019
4.5799
-1.5938
0.55786
2.776
8.2442
-1.3574
5.3254
12.647
-2.1968
-9.1498
-14.017
-5.5559
7.2451
5.2377
-0.15075
8.6355
-6.8448
-8.4898
2.4144
14.604
1.2865
-10.463
4.9059
0.21293
-0.157
1.9433
-9.7352
3.0157
-6.7894
-6.7364
26.247
8.2911
-4.8885
-16.934
20.381
-2.5007
-33.616
-17.963
9.4761
5.0697
-8.1501
6.9102
7.4123
10.822
-0.5459
3.1285
-13.683
-1.7288
7.3857
7.0983
1.101
15.865
20.688
-0.071651
3.5017
-36.564
-0.602
-15.332
-32.063
3.8127
15.085
20.09
-0.41969
-10.664
20.549
-3.562
-8.6958
5.7474
-5.5498
0.71768
2.1831
8.3452
-2.8094
-2.7814
1.9134
-5.7571
9.7721
14.903
0.027502
-23.743
-10.118
9.1774
6.9519
-4.4717
-3.3318
13.157
-4.7465
7.7886
12.759
-24.094
-2.0041
-1.4729
-7.0813
1.2658
-0.15118
-9.0715
8.5155
12.569
10.429
0.82687
-4.5108
1.8619
-11.851
-0.8189
-1.1076
0.27584
5.6494
6.497
-0.25383
-10.311
-2.7475
-5.913
5.9806
13.453
-4.557
3.6118
-4.2837
-8.0846
-5.1631
-4.6787
5.492
4.0144
-6.7611
2.7633
12.913
4.3801
-2.3898
19.137
-22.284
-11.251
-0.11615
44.986
-11.97
-33.451
-9.8172
11.74
5.3612
-14.08
-11.671
10.365
9.2224
-12.621
8.9841
21.598
-12.114
-13.063
7.806
-0.38458
2.3831
12.487
7.892
-18.672
-1.2624
29.007
-17.519
-11.982
14.154
2.9612
12.717
-35.121
15.269
-1.9766
4.2674
-2.8405
-7.5944
-15.637
-1.2312
-2.6226
6.3565
9.7434
-6.2095
-0.67643
11.249
-3.6568
-8.3887
21.004
39.533
8.9415
-35.02
-34.249
-12.4
-4.7407
17.822
15.365
-2.1412
-6.9862
-3.1399
1.7549
9.7243
6.1889
-12.615
-3.8661
7.2607
-3.461
-1.8707
7.668
2.4815
-5.6642
2.7327
5.1453
-3.6682
-1.5916
6.626
5.9803
2.6454
-6.9729
-10.339
-10.285
-1.9402
9.0253
3.8593
-3.8015
19.283
10.182
5.8928
-38.303
-9.0546
-2.5762
-2.3001
14.255
-2.3845
9.2069
8.7668
-4.8275
-2.0916
-8.9297
13.942
25.043
7.179
10.313
-35.255
-27.899
-6.6136
3.9417
-1.046
-6.4331
-1.8261
-8.334
30.721
-13.099
11.62
39.411
-7.8387
7.6295
-23.86
6.2201
-17.746
-9.8105
-12.364
15.277
-10.409
-23.761
35.482
58.176
-59.651
10.75
32.333
-23.575
-35.533
-3.0405
47.709
-19.998
-12.454
33.28
-22.543
1.2673
-12.239
-0.30178
7.6189
-4.6702
-6.553
6.724
7.6246
54.121
24.48
-153.79
55.159
21.503
-7.381
15.576
5.8572
-2.8728
-14.106
-2.4363
-6.0472
-9.2244
3.9597
-2.2943
33.279
34.037
-22.745
-28.811
-11.308
0.83629
3.1027
-1.3549
8.5246
-3.2236
9.0871
0.5837
1.7493
-4.87
8.2943
-19.07
-6.4686
62.415
-29.4
4.2933
-39.238
37.51
-39.585
55.81
105.76
-190.35
19.312
38.676
-14.653
-52.767
0.2611
52.488
-10.473
-21.098
-18.599
52.893
13.475
1.4483
-7.3277
-64.395
53.073
132.16
-68.797
-36.045
-23.416
-0.65255
-3.8969
-9.704
-5.6935
-22.693
30.712
59.028
17.079
5.0186
-55.848
25.597
-50.276
-28.865
19.251
14.926
-15.502
15.872
5.0538
6.153
-11.3
2.9239
-7.4405
42.236
45.497
-30.519
-34.65
-14.382
10.216
-13.409
-2.1097
2.8866
-9.2983
9.2748
16.037
-12.572
-6.2376
1.2766
8.3784
10.666
-3.1107
-13.827
-7.4201
26.128
-7.1536
-2.601
4.8487
5.5093
-8.4489
-4.5981
2.8244
-1.4728
-12.124
70.646
-16.691
-58.319
-20.613
30.915
87.069
-44.099
-44.719
-10.361
10.039
-15.585
-28.984
16.817
98.763
-13.481
-59.338
-8.9567
-12.904
-17.562
67.111
-5.4154
-9.5851
-18.867
-25.594
31.946
4.9179
1.0053
1.0058
-5.2696
-2.5136
8.513
14.777
5.9139
-13.275
-9.6011
0.47196
-5.8793
16.536
5.6896
-0.61991
-14.8
3.0939
7.5724
-6.5967
6.6023
0.92352
-7.8739
2.9478
-1.2728
-5.6013
-3.2399
15.596
0.11099
-2.9428
3.1559
-3.9809
0.56556
-18.357
-1.8648
19.353
1.2957
-4.6994
0.078726
8.9484
-3.2032
5.4214
-4.4434
-7.7574
-3.4143
1.1183
-10.111
27.99
14.976
-15.989
-23.077
-5.3165
6.8443
-19.374
14.226
52.605
-15.011
-36.537
-12.655
14.784
-19.431
21.455
11.963
-3.575
-2.7996
0.19546
-5.0052
-3.3603
4.4723
2.6777
-4.8771
17.113
4.182
-16.612
-3.9997
0.56543
1.6376
-1.0918
8.51
2.9488
4.7235
-10.161
-1.9554
-6.7
1.1571
8.1023
-8.7595
25.993
15.597
27.24
-18.519
-56.432
-20.987
-2.3391
-21.478
40.979
24.721
-18.923
29.089
-8.444
-36.305
14.094
-15.472
26.073
13.115
-27.347
-2.6709
12.259
7.3323
18.996
-13.576
-4.4245
0.68197
19.486
-6.759
-13.761
-1.4259
3.2158
9.9255
-14.905
6.1391
-6.7873
-2.2404
8.2886
-0.85225
-7.164
1.9878
2.4209
-4.5878
8.6
8.3245
-5.5491
-21.149
5.3043
5.9819
1.0107
-2.148
13.781
-5.0396
-4.6759
2.1801
12.043
-13.881
-6.595
4.4955
-2.1983
-0.87533
11.773
1.1891
-7.801
7.0669
-2.7973
5.5054
-15.017
5.7875
4.8101
-18.622
8.948
-3.1038
8.1187
-5.4891
37.874
-6.1868
-35.584
27.304
-25.737
-16.152
0.44403
9.1366
14.403
66.009
-4.2854
-94.517
-52.29
80.776
-5.2499
18.964
0.6744
-17.208
-12.44
-3.4208
33.112
-8.847
-20.64
14.413
1.9828
-25.998
10.344
15.563
1.1793
-4.5664
20.151
5.744
17.439
-2.4387
-24.098
5.697
-5.4829
-5.462
-0.4291
44.299
-6.3179
-44.975
-0.91995
-10.112
-13.829
1.4477
-11.948
-32.056
87.122
11.198
-35.044
0.14642
-5.4679
-0.10321
-5.773
8.2576
8.2038
1.9073
-4.787
42.118
-8.1841
-52.87
-4.7465
11.87
3.4526
1.6025
13.849
-6.3482
9.6542
8.7591
26.441
-8.0199
-43.386
-14.097
8.5631
13.294
1.835
-2.3876
1.0635
-2.3423
-4.9648
8.3603
0.55799
-2.5782
4.3326
5.6701
14.913
-24.512
-7.9597
-20.302
27.578
-6.7791
-3.1533
36.078
6.1285
-34.277
16.173
-21.173
-2.3484
15.887
-4.9749
5.3377
-6.0863
-38.942
14.465
9.2325
-3.8744
28.022
9.8138
-12.099
-11.161
13.429
-2.0656
-21.473
4.091
4.2169
30.453
9.558
-14.577
-9.1417
6.6203
0.23077
-23.804
-3.8906
9.9495
3.2761
-6.0009
15.456
7.8368
-7.4226
28.459
-11.042
-31.812
-8.3468
0.44547
-2.5843
-10.023
13.983
22.65
-2.8722
-5.0682
-9.7577
-0.67949
18.326
-27.446
0.32518
19.66
0.93459
-5.5322
-9.35
13.827
5.1672
4.9391
-18.853
10.522
-0.47401
-33.627
20.115
19.683
18.603
-19.674
-20.012
-7.7804
6.9045
10.254
-9.6961
1.4149
7.9886
3.5558
3.969
0.7074
-14.461
-14.403
28.137
2.1873
-12.885
2.3425
6.8675
-2.0545
-13.558
3.2695
5.7321
-1.3984
-0.13448
-2.5511
9.475
15.705
-10.717
-14.582
-0.83173
-13.301
12.744
4.9014
-1.4726
3.8943
3.8142
-9.1604
-3.8545
11.622
9.2787
-12.633
-1.555
-3.721
-15.121
12.647
18.645
1.3981
-3.6579
-4.9679
-10.158
-8.3561
12.564
13.153
-4.7416
-7.6897
-7.4487
13.534
1.3196
3.3839
-18.192
11.523
9.9597
-4.5475
-13.16
-11.532
56.465
21.49
-56.336
-38.573
-12.048
32.421
-25.465
37.609
15.476
-22.084
-9.6777
7.7768
-4.37
4.7525
5.6986
30.151
-10.644
-22.538
7.1069
13.346
2.1778
30.202
0.0027098
-65.706
-0.053972
-4.6351
-23.804
62.961
-19.076
-31.068
59.975
-3.7913
-38.7
-39.671
58.913
15.45
-11.665
-8.1065
-14.797
-0.44786
10.173
-0.97591
13.284
14.293
-15.183
34.581
-10.095
-15.758
3.5755
-23.003
-7.8393
-35.771
56.153
34.313
-41.019
-8.7699
-2.3611
-1.1124
-2.5877
4.9287
-6.0834
2.8953
5.6639
-4.6379
2.179
5.7581
4.5411
-0.059045
14.122
19.388
4.5951
-23.918
-35.688
7.4226
-5.9411
35.82
-7.1861
-18.361
7.647
-6.3759
0.59835
12.162
6.2905
34.661
1.9969
-46.211
-12.429
-13.051
2.832
0.79936
21.839
-4.1186
-7.8207
5.1068
-1.381
19.317
2.8451
-14.4
-9.1943
10.503
-9.4335
0.25007
20.742
-5.0191
-8.1925
-1.2094
-4.0942
2.376
10.943
20.238
5.7072
-37.594
-8.1232
-10.632
33.39
-4.6915
-16.504
20.381
1.4312
-16.405
-16.328
4.1952
-3.787
17.922
3.1675
-3.6967
17.514
7.3835
-31.503
-3.3197
14.269
11.819
-4.7352
-7.012
0.944
-8.9367
-4.0755
8.8256
28.166
-8.8111
5.2464
-19.597
-22.788
8.7326
19.642
-1.6283
-13.879
1.1352
1.531
9.7517
7.7422
-17.605
-3.8664
24.054
-11.788
-12.877
6.674
2.9658
-5.8331
1.8057
-14.623
14.745
32.776
-18.5
-2.68
-13.364
-12.618
17.92
-2.5247
-5.2702
19.602
0.78929
-10.006
-21.858
42.162
-17.382
-13.02
-11.657
-1.9654
12.281
15.974
-6.1587
11.148
9.4893
3.4647
4.7338
-0.98269
-58.968
4.9613
17.551
-10.258
11.39
1.6704
-2.4082
-40.004
12.448
58.571
15.558
-37.98
-3.8961
26.942
-15.58
-8.0135
-1.7045
-2.6809
-25.623
-8.5277
31.325
-3.053
9.0873
7.2237
10.155
-2.8749
-19.987
24.401
0.10567
-25.253
29.323
21.328
2.3403
39.947
-57.431
-20.003
-13.129
-16.494
-2.29
-0.3215
0.69082
-16.169
-2.7606
8.0843
16.76
6.6838
-0.93819
4.9652
-2.8227
1.3701
-0.4415
1.4468
5.0413
-0.6793
3.2008
-2.482
-1.9688
-5.476
1.223
-0.26453
1.7379
1.6513
0.55352
2.738
-6.7298
-8.5687
4.2148
7.0868
4.8209
-7.8115
0.89328
5.4115
-7.2657
1.3114
6.9792
3.985
1.2584
-9.3206
0.099564
2.7076
-5.2832
5.4948
0.78464
3.8299
-0.5607
7.6832
12.165
3.8288
-2.5077
-10.417
-6.1715
-8.6296
-4.0788
3.8757
2.944
3.2368
-5.0979
24.249
18.431
-5.4618
-27.401
-0.18666
12.601
-13.313
-16.301
-5.3698
6.9004
7.6968
14.885
6.967
-7.7899
-17.121
-4.8377
1.5831
-5.9568
-3.5614
8.3874
3.3964
-4.083
3.8626
0.99262
-5.6176
-5.8686
18.787
14.17
-9.4494
-15.268
-6.6669
6.8863
-5.2571
3.4331
5.6359
6.1267
0.50294
-11.581
2.5987
4.2294
-2.2671
5.167
6.5235
-0.097276
-1.3791
3.9783
-1.5859
-4.397
10.512
-5.3817
-28.261
14.042
5.7992
-8.2317
-4.4894
5.8655
7.297
-6.9433
5.3581
-8.0765
2.3901
6.7599
12.232
8.9084
-31.239
-3.2491
4.977
6.2513
3.4125
-5.1722
3.5572
5.366
-8.1054
-3.5898
2.8688
0.028192
0.83332
0.70484
1.0559
-0.23421
2.309
-6.2675
-21.1
-11.998
25.091
16.166
-22.802
-15.417
7.1063
32.204
10.89
6.9119
-3.377
-5.8866
-6.2649
-3.9011
-13.377
-8.7024
16.352
12.077
7.9399
-63.744
40.247
65.52
-10.054
-32.448
-21.037
-73.653
24.261
20.894
25.61
17.961
9.1814
-5.7897
-41.263
-3.3817
43.512
-5.5302
-15.168
27.808
19.323
-30.349
-15.696
-3.2132
4.7449
2.8294
-0.48272
0.71124
-4.9869
-0.56484
-2.1998
4.7784
6.0075
-7.0289
-1.7853
-3.1438
-4.7219
2.0316
-1.2403
-0.91564
5.9326
-0.8393
1.7764
2.4187
0.70836
7.6007
-1.6031
-10.451
16.3
-0.95752
-16.635
2.9796
7.3495
5.1857
-5.0754
-1.5783
0.10815
1.4273
2.2109
18.866
20.855
-15.394
-40.369
12.334
-29.278
-8.8126
28.283
40.642
-3.1031
-47.01
-7.3548
14.406
28.73
-2.652
-7.8247
-6.9509
-0.45421
18.376
19.112
-22.695
-18.955
-0.96415
6.5893
3.3087
-11.179
-48.547
31.505
43.255
-6.1952
3.165
-7.8158
4.226
-1.9611
-6.506
6.4485
10.38
-15.484
-36.837
-1.0904
15.36
19.647
21.239
8.8442
-3.1931
-38.339
-35.99
26.427
-26.18
21.879
64.543
-25.983
-27.259
6.6911
19.66
-22.126
36.411
-5.0224
-49.225
-6.0746
23.92
6.2078
-8.9007
11.419
4.0443
-5.0011
4.2878
4.203
-5.5659
0.72825
0.81938
-6.9964
2.0542
5.6659
-3.7802
2.1215
4.0366
-7.2225
5.5691
5.3368
-2.8316
-0.35016
2.3751
-4.2771
-0.70122
2.9826
-3.3581
-1.4054
2.7748
-3.7337
-1.8722
1.4646
-3.8883
-1.3685
3.264
-1.8821
0.66247
2.5393
-2.2803
0.28181
1.56
-3.9344
-0.32359
3.641
-1.907
-1.743
3.478
0.4705
-2.9544
1.2807
0.35019
-4.2128
0.72644
0.16705
-2.6619
2.8464
1.1484
-2.1301
2.6104
2.4214
-1.1923
2.0841
2.1215
-0.97257
2.0222
0.65709
-3.2934
-0.66342
0.17867
-0.32356
1.6343
0.48116
-5.0522
-0.55829
-5.0757
-17.491
63.678
-7.1772
-8.6783
1.7818
-20.551
-3.2233
-5.9615
-4.1548
0.9906
0.8082
-3.1474
-1.2767
18.993
0.96219
0.13521
14.551
9.4207
-30.276
-26.5
22.658
-31.43
9.0922
38.938
5.3072
14.419
19.905
-27.38
-73.837
15.664
20.898
-9.5591
-15.315
-1.0983
3.4726
-0.56928
19.057
39.679
11.248
-7.6316
-42.487
-10.055
17.857
10.109
-9.3153
-4.9721
0.29904
8.3978
9.1686
-14.255
3.0149
31.788
-15.665
-10.058
5.6758
-7.3524
-1.8294
-4.033
-3.5744
-1.8334
1.1842
5.678
8.6077
-5.6559
9.1072
0.39926
-5.665
2.8051
6.4846
-1.1404
1.2367
2.6294
-8.3872
-27.41
13.644
20.808
7.3952
-1.0583
2.654
-24.313
-12.17
3.5503
-2.6043
-7.5184
13.163
19.164
1.2062
5.365
-16.147
-15.024
9.5496
-2.6166
-39.021
28.557
15.872
25.961
-1.0856
11.448
-3.6895
-40.797
40.925
18.306
-50.797
-22.829
2.0687
-2.0944
14.125
13.074
-31.64
15.417
9.6711
8.1968
13.643
-10.606
-12.643
4.1383
-0.31791
-5.731
0.59467
0.63405
-3.2965
4.8741
0.084052
-6.251
2.2743
0.44914
1.7493
-7.2815
3.3102
-35.1
74.744
61.827
-75.031
-22.389
3.9976
-27.819
10.874
16.072
21.204
15.091
11.298
-17.188
-28.661
8.3563
12.065
8.85
-60.646
53.857
42.188
-93.826
-18.515
37.696
19.767
-36.341
-24.386
-11.72
43.731
-20.404
12.764
41.424
23.582
-1.5366
-84.513
13.351
33.043
-0.10472
-25.813
-1.4749
17.385
-7.0179
-20.217
-44.867
56.145
79.932
-4.8911
-5.9696
-21.845
-16.351
13.84
-57.114
17.953
35.453
-3.339
-11.425
11.287
-22.962
21.613
58.95
5.7257
-28.717
-185.04
20.443
66.883
30.423
44.84
38.436
-21.614
-101.37
61.227
5.2931
54.913
-16.323
-129.75
93.062
21.011
-1.0347
-3.8037
-12.724
-10.074
25.424
36.634
-66.691
-16.767
22.124
-2.3833
18.047
2.2699
-1.2732
-9.2697
-11.383
13.256
15.799
1.0723
-19.629
-8.2871
18.905
7.3434
-12.023
-19.835
-9.185
10.369
21.269
-18.61
-8.4757
9.1374
8.4228
-1.3887
9.0386
-4.3438
-0.23936
23.856
-1.7506
-48.109
-3.6188
17.349
16.124
6.5372
-2.7551
-22.42
-2.2352
2.849
0.15623
0.85809
-1.4997
2.9325
2.7221
-4.6129
8.5274
-13.916
-6.4266
6.3863
-9.2396
2.2189
23.511
10.341
-6.6726
-7.5922
-10.503
8.0657
7.5843
3.3239
-23.529
-9.5658
19.678
-8.1143
-1.7099
31.952
64.138
-14.46
-51.612
-7.5078
-15.004
-14.529
-16.86
-5.483
11.691
8.3842
6.4487
13.904
-12.926
-19.068
11.788
15.917
7.8315
-0.25622
-14.215
6.9024
7.1717
6.9247
4.4626
-19.834
0.7102
6.3696
8.2077
-0.97862
-7.5933
7.9179
10.522
-3.9924
-4.8044
-9.3036
-12.449
6.7463
4.1273
-0.17115
4.3414
0.51286
-3.9997
-1.1807
-0.49943
-1.0298
1.6655
2.6067
-3.5178
0.11918
1.721
-2.7594
3.5709
2.4099
-0.60685
3.6874
-1.4392
-7.8231
3.4439
5.9573
-7.2533
-1.9549
4.7929
-3.889
1.0881
-1.3175
-0.16987
7.9632
14.025
0.61146
-11.032
-9.7115
-4.9349
5.4508
-0.44324
-9.6328
5.839
4.0781
-2.2855
3.8864
-1.1881
-3.2959
3.365
1.0242
-1.7389
1.348
-4.3713
0.46864
4.1135
0.49014
-1.9667
1.9967
0.36801
-1.6322
-1.8123
-0.047386
1.9272
-4.55
8.1462
-0.19715
-6.7635
2.679
-3.5903
-3.3384
4.8419
1.6001
2.7894
7.9396
-9.942
-6.5457
7.0829
-1.6793
-3.126
-3.2363
14.585
-3.4631
3.7272
-5.084
-10.277
6.3877
13.786
-5.7867
-13.942
-5.391
8.4683
5.2959
4.1436
13.984
-3.3518
-13.18
-10.597
10.592
3.3592
2.7559
-16.978
-7.4754
5.6667
5.5399
8.4164
-1.996
-7.1719
5.7701
-4.5569
-2.0386
-1.2631
-0.90147
3.3905
-1.795
5.038
2.0388
-4.7803
-1.8881
9.7218
2.4143
-4.7131
9.5991
-3.2365
-5.1327
6.5446
-6.5909
-2.1817
7.2988
-11.969
-1.3915
9.9211
-7.495
-1.7005
2.0251
2.2707
4.7028
-0.070494
-4.0062
0.81386
0.080704
0.024961
1.125
-0.52004
0.57169
0.56289
-1.5657
-1.378
5.8873
0.60978
-3.3485
7.5489
-20.82
6.5107
-5.7872
8.7104
11.583
-1.5768
-25.51
15.239
31.505
-23.536
-17.571
13.551
9.5884
-15.793
-13.683
9.3173
-18.733
15.905
1.1232
16.708
15.607
-11.775
3.4113
-10.286
-3.7139
4.0707
-5.4498
13.383
10.982
3.49
54.355
-38.432
-151.13
26.977
29.986
53.928
3.2353
-5.0889
-1.8243
-12.517
30.876
-1.4128
-29.211
10.287
-8.2656
17.914
-15.757
-20.951
18.504
4.8723
5.3898
25.899
-59.083
13.848
108.19
21.053
-64.187
-41.275
-6.1158
10.402
-19.61
-9.2896
2.5189
-7.3337
16.467
15.563
-13.351
-16.304
42.715
16.353
-6.2675
-25.881
-5.895
-0.81926
-5.736
-4.2063
-3.6618
1.7102
2.4721
23.35
9.8709
-23.724
-12.796
0.97476
5.6883
-1.1331
7.6226
20.371
-14.079
-14.462
-2.524
-5.5869
-11.238
31.447
10.163
-17.054
-24.575
15.791
37.722
-14.257
8.9251
-23.779
-14.575
18.424
17.301
-17.72
-22.021
27.051
-14.286
-30.168
61.735
-0.83015
-96.546
92.115
-3.0651
-22.771
-6.5882
-0.55999
9.7889
13.98
11.057
0.12998
-0.81889
1.4315
-3.8788
1.4303
2.702
-6.5216
2.5287
-4.005
4.6595
2.7496
44.264
-133.36
11.05
-0.14682
8.9976
99.593
13.718
-30.588
-42.582
-23.451
28.351
34.625
-18.879
-3.3057
-16.392
-17.155
43.328
9.6709
-3.3995
9.049
-39.449
8.4318
6.6998
-1.7503
0.22267
2.5466
-5.7934
3.6598
-2.4905
-6.9984
-9.8382
-6.1644
31.098
-1.4844
-21.882
8.1974
3.9702
-10.512
-48.205
5.9636
149.58
-38.032
-15.924
-28.853
-31.01
3.2778
0.024689
6.5053
-7.5781
4.0172
-3.0763
1.9743
16.823
8.9853
-21.097
-4.0243
-43.424
76.692
34.938
-41.787
14.59
-21.469
-2.8137
-8.3188
2.0661
-7.0516
1.659
1.0516
-3.0759
-1.1617
7.8666
8.1264
3.2499
0.33667
1.0167
-0.93635
-5.8408
-11.827
-1.875
9.1305
-1.9107
12
-23.416
-20.288
63.606
4.5865
-90.918
76.79
-66.482
59.52
39.192
-17.276
34.69
-110.61
23.724
-2.4513
6.5183
-5.4446
-3.0428
5.9064
-2.544
-5.6745
29.926
-7.9162
-9.2956
30.542
-16.586
-1.6197
18.394
-1.2402
12.626
-3.6493
-23.346
0.75515
-2.0111
-1.5583
-3.7437
-12.068
-3.494
14.232
-4.2004
-0.44697
7.5462
-3.96
4.2851
8.8046
-10.666
1.7682
3.3061
2.1152
-14.883
43.708
-14.939
-74.728
15.906
90.05
108.32
-114.9
-237.18
31.389
250.44
-10.381
-95.721
-27.632
6.8313
77.749
-54.718
-36.484
38.895
0.98741
11.795
27.694
9.6753
-30.809
11.454
87.256
3.5406
-103.91
-49.691
34.077
37.635
15.86
-37.027
-9.1188
5.5391
-15.295
6.6515
5.2964
0.27177
2.7703
5.3498
-11.52
-14.645
-2.8691
-8.2836
25.053
26.012
-66.31
-9.3386
103.98
74.155
-71.206
-15.021
-131.13
-57.711
49.9
92.865
77.152
39.675
-35.236
-40.807
-28.646
32.59
-18.07
13.516
31.644
-24.989
8.0246
-90.714
-36.736
-13.459
108.59
33.188
-45.36
-29.896
4.4617
40.885
18.125
-34.708
44.435
14.852
-85.778
5.2847
2.0154
-68.766
-28.788
11.227
40.559
91.806
34.619
-5.7457
18.835
12.374
-19.148
11.74
-14.944
-60.097
-36.758
15.004
-11.624
-4.0551
40.014
2.074
-21.264
2.7257
6.0913
11.252
21.252
-3.3776
-22.471
20.218
7.1415
-1.6361
13.98
-27.046
29.079
-16.36
-110.47
0.76707
-12.4
50.047
39.686
-0.56205
12.882
-31.046
25.198
26.966
-26.964
-37
20.045
35.436
-20.655
-22.574
14.271
16.54
-4.1265
2.3731
8.0414
7.9299
-23.478
-13.838
22.453
0.94289
-0.61403
-15.545
-3.4226
8.3562
2.4062
1.8484
-0.12742
3.1685
1.8715
-8.3398
13.901
-6.3199
-6.5762
7.3214
8.7748
-6.6277
-26.463
17.127
34.53
-4.5251
6.0428
-19.901
-0.38328
14.768
-35.203
-4.4149
6.5207
0.83363
4.58
-1.5619
4.9577
-0.18067
-1.1577
0.70118
-1.2817
-4.1118
-2.4941
3.7339
-3.3264
-4.1479
-8.5062
-6.792
13.76
14.324
11.915
8.062
-16.73
7.2335
-35.665
-15.228
-6.4912
26.772
19.011
12.712
44.361
-31.542
-27.826
-29.892
29.841
-4.5756
-7.8525
-8.3739
-25.293
15.751
53.33
1.2577
-6.749
-2.4629
5.9065
3.2771
-2.1579
-25.359
-13.886
-0.99859
-0.33856
3.3499
2.8672
5.1408
-1.5751
0.16666
2.7394
2.9562
-1.9395
5.8954
5.914
-1.9961
1.5177
-10.504
-10.762
41.981
-21.314
-3.5888
-6.3353
-19.341
8.6442
5.9662
20.653
15.21
30.287
-32.092
-60.103
3.0455
8.4369
15.905
10.456
9.9727
6.0642
11.98
7.4637
7.365
-36.548
1.8691
0.36474
-14.175
-3.1331
2.7085
0.26654
-6.4143
1.5197
-2.7615
1.4359
1.3878
-6.6318
-3.6719
-14.579
8.614
7.1151
-0.8675
4.3782
0.22782
-0.7487
2.5241
6.2646
2.0083
-7.2672
7.2922
-11.969
2.4732
26.919
-4.1805
-17.721
-6.0135
6.7002
3.8134
2.5169
2.8344
-5.7543
0.87354
5.7641
-5.4365
10.952
-10.116
-5.6329
1.284
11.055
12.945
-7.4506
-7.0658
3.5588
-2.6645
-7.7428
-2.4663
3.2696
-1.4791
7.8423
-7.023
-0.9719
2.9694
-1.7941
0.52922
3.854
-1.8045
-5.5121
7.1242
-7.1522
-4.5542
8.133
17.053
14.268
-27.372
-12.796
-0.79982
3.5582
7.6769
-1.268
0.97395
6.6479
-9.4578
10.204
-8.8735
-10.805
2.2787
5.4259
2.0576
-0.064926
1.4909
-3.746
3.6821
-5.6526
12.034
17.353
-17.585
-6.7109
4.1904
1.9127
-2.2918
-6.2593
6.1549
-5.942
15.27
4.3864
-12.952
10.043
-5.2643
-9.9848
1.5973
1.4577
-10.674
-10.528
2.7866
3.0955
3.6592
4.6367
-2.0208
8.1305
1.8017
-2.7003
0.68739
0.12427
-6.5382
-0.38651
7.3956
-12.301
2.0885
15.372
20.344
-15.396
-11.857
-4.9762
-2.8045
7.9591
-1.7427
2.258
2.6019
-8.2744
6.1268
-1.0137
-18.037
13.455
2.7595
0.88646
4.6166
1.8292
-2.0112
2.0901
-1.8292
-2.9372
10.747
-16.141
-5.4352
13.536
22.372
-3.2357
-17.38
-5.4106
-1.4548
5.318
-1.1928
-1.7726
1.0509
-3.0757
-5.9145
19.071
6.4034
-15.509
-3.8776
-3.7529
-0.61112
2.9522
0.25202
-1.8796
3.7891
-0.73223
-2.6437
9.5196
-5.7475
-9.1692
23.857
-3.871
-15.083
2.9111
3.3996
-3.785
3.6479
-2.0119
-5.762
9.9306
-10.097
-12.263
6.8536
9.2854
4.4477
9.0582
49.299
-61.623
-14.395
20.044
23.431
12.743
-31.896
-15.613
-13.962
9.5254
14.305
9.6444
-8.4245
-0.43999
-12.498
-6.8488
20.689
5.9653
-9.0908
-8.6507
-1.4243
-3.6839
4.226
3.9318
-6.3861
-0.30855
2.3725
0.16126
4.306
-0.86926
0.79053
2.8062
-3.9447
0.64154
2.4205
-2.7461
3.4898
-1.4968
0.4063
1.1867
-3.5033
0.89812
-0.58554
-1.7339
3.0674
-0.59549
-4.7427
2.6214
0.10014
4.3571
-1.9029
2.9786
-6.3384
49.725
7.1421
-103.54
70.86
6.1852
-19.88
5.1867
0.14411
-33.609
-27.273
-50.701
151.18
134.08
-164.01
-94.601
4.6085
121.61
-33.67
-4.2292
-26.555
6.1767
-16.205
-31.881
-22.633
19.487
107.55
9.627
-95.044
-43.04
116.98
89.507
-67.007
-62.875
-2.4493
-58.332
-19.541
59.487
44.018
30.581
-31.715
16.72
-63.918
32.354
66.499
-11.285
-75.477
62.269
-44.708
12.433
-34.333
-27.167
65.762
-45.776
-21.53
115.95
-27.859
-41.969
-3.3217
1.698
1.4867
-3.0033
-7.2558
18.581
64.721
-46.523
18.565
-81.731
-4.1834
29.831
11.707
-1.7593
36.481
0.3989
-23.848
-19.28
-74.84
26.311
138.08
-80.152
-68.976
175.34
-36.517
-90.646
-57.458
154.22
6.5168
-67.978
7.9177
-64.817
-63.033
87.115
107.41
-101.49
82.613
-40.327
-71.048
28.013
-59.915
-36.101
15.577
137.3
70.618
-116.7
9.3108
-81.731
11.405
100.83
26.293
-9.45
-76.833
-7.3597
62.861
69.56
-48.057
-59.946
6.3378
20.999
-5.3015
-1.906
-35.994
-10.889
-5.0431
-14.662
40.655
2.7568
-2.0071
-9.2962
-0.72677
22.788
4.2353
-8.9351
9.9304
-4.5532
-0.62119
8.6272
-4.1012
-8.3206
-1.4311
-53.895
-68.444
42.025
113.25
56.004
73.942
-63.352
-62.026
24.128
-81.664
-9.3992
-12.863
26.273
54.498
16.502
-66.305
-32.923
70.836
36.516
-13.358
-20.732
-6.2173
-6.9593
-19.348
-8.3834
13.034
17.35
11.379
-7.9242
-4.345
18.218
23.576
7.3363
-90.934
-45.872
-15.784
51.82
37.894
5.1004
-33.133
64.805
101.18
-190.65
-23.617
51.053
41.299
-58.601
-54.467
83.833
45.436
37.582
-27.232
-21.919
-28.34
106.81
-70.046
-206.8
153.96
33.504
38.247
-161.25
99.201
73.392
-70.45
22.182
-37.602
66.713
7.063
1.0488
93.303
-80.297
-182
46.418
35.891
-21.348
-1.1437
48.405
5.5207
-6.008
-4.1558
10.864
-9.1002
3.7931
12.153
1.0301
-2.2623
5.7826
1.1576
-2.78
3.6494
3.5839
-7.2229
-3.8728
6.0276
-24.602
-24.491
72.969
27.043
-13.843
-2.4243
-12.183
-34.057
6.8799
1.8001
-7.0813
3.6657
1.4133
-9.2806
0.99973
6.9505
3.4491
3.9403
-8.2583
-18.509
27.177
7.1459
-12.861
-3.8527
4.2914
13.033
-5.4562
9.2675
-21.644
-11.568
8.9673
18.717
3.41
-14.658
-6.8599
1.5902
-11.367
5.8058
-0.45418
9.3382
7.911
-6.8482
-2.4243
4.6083
-0.031499
3.9123
-1.1338
5.5974
-11.177
-4.8333
3.4978
8.742
8.3932
-2.4609
-3.2475
-4.1889
-12.949
4.0381
6.081
-3.8643
-4.1216
-0.15815
-0.4905
-2.9839
3.4752
3.3394
-0.38545
-1.9422
2.4728
-3.451
-0.92763
5.8991
0.69396
-1.7578
3.7995
1.492
-4.7018
-0.26461
4.3379
0.93039
4.3369
5.8769
-0.3844
-15.283
-2.7791
6.0962
-12.072
4.2976
6.9268
3.0488
0.47036
-4.9328
-7.4011
3.8372
-0.51742
0.71451
20.674
-14.187
-14.133
-1.0543
4.0967
0.64753
8.0198
7.6233
25.437
-32.919
-25.585
24.128
4.3525
6.3505
2.1965
-11.598
-15.209
6.3589
13.187
3.7109
13.54
-16.422
-13.481
28.181
6.4198
2.1024
-8.4199
-13.547
-7.7519
7.2891
-9.3732
-3.0408
5.0966
1.3032
-0.087041
-2.6731
-15.113
-20.463
0.6883
17.908
25.88
-2.7279
-10.383
2.869
7.0603
-1.3748
2.3902
-5.9701
-1.6387
-2.4081
0.284
0.14425
-6.3401
