-4.6909
1.4892
49.993
-32.021
-97.951
203.06
138.39
-138.04
-125.3
-17.211
-4.2748
14.117
8.5007
2.5015
-3.6633
-30.485
20.489
31.935
41.046
9.0721
9.5622
-80.593
-109.01
104.35
34.851
-91.694
30.16
50.547
-51.725
34.3
-9.499
-10.794
39.884
37.298
-31.345
-74.367
-16.946
116.04
90.101
-93.785
-228.37
-70.286
72.352
192.04
116.68
20.291
-22.159
49.357
-37.998
-91.474
-95.209
-102.1
-96.452
115.63
223.77
-2.9545
132.54
-29.715
-188.09
9.5038
31.768
12.806
-82.281
66.792
-4.2479
-184.71
34.296
130.72
67.529
-9.9585
-33.915
35.335
5.1595
-85.458
19.545
30.259
-19.357
-36.288
32.668
-38.237
-35.428
-34.897
144.5
0.00019717
-78.664
88.937
-21.645
76.609
48.598
-160.25
-141.94
20.529
154.44
-1.6774
-14.905
-46.085
21.721
13.805
7.8145
94.098
-100.74
-53.355
-69.265
86.23
35.138
29.035
-54.051
41.452
-158.58
-26.293
126.4
64.912
-98.119
-148.02
76.543
268.86
113.58
-142.07
-144.78
-79.565
106.7
73.94
-58.083
0.90206
-55.349
72.535
33.302
92.753
-75.708
-86.413
-62.496
-18.898
-33.441
149.24
23.425
-61.763
-99.137
34.422
109.57
-40.716
53.391
-150.28
-83.23
106.72
191.66
-20.878
-40.31
21.848
-51.194
7.7846
72.11
-9.5461
-85.193
23.469
-23.078
-58.657
39.692
3.9979
61.748
35.024
-216.08
-8.8025
131.35
-29.014
-15.381
73.505
40.193
83.129
-48.326
-51.676
-22.709
12.132
-15.222
-45.025
-170.87
-17.041
107.37
178.5
-15.579
-101.28
52.738
38.357
36.56
-13.608
-73.696
137.35
-2.4217
32.991
-126.39
-147.71
119.29
88.486
-68.277
13.52
24.463
-58.984
5.9116
2.559
-158.36
36.104
98.024
26.431
34.959
-44.544
-30.578
49.52
69.135
17.927
-30.582
3.0646
-3.8493
-89.932
19.994
-51.7
-58.354
147.67
52.146
-45.756
-16.213
-89.098
55.85
76.583
-130.71
-25.908
37.692
53.344
36.174
-85.879
-174.75
85.543
221.68
-111.51
-62.262
35.768
-8.1153
85.177
12.923
36.352
8.9939
-77.764
-63.699
-104.64
99.44
8.1181
-0.17935
34.673
83.435
-66.076
-37.029
147.85
-106.96
-120.09
51.274
66.03
52.429
-11.647
48.026
-13.627
-73.594
-12.245
-130.73
49.085
117.51
58.317
54.666
-79.435
-51.113
-35.087
-60.545
58.161
-84.113
-98.131
149.49
122.24
-34.477
29.681
-122.08
-49.977
38.132
95.21
64.002
-13.728
-56.84
-70.153
-11.61
-37.21
156.07
132.68
-77.844
-73.063
-29.174
22.418
-27.545
-125.39
143.37
179.19
-45.587
-137.63
-78.103
50.615
-1.4489
21.742
4.7525
17.706
-27.39
-89.161
86.431
56.34
33.313
-57.225
-68.222
-22.336
73.515
51.379
-38.865
-53.381
134.37
-1.3183
-67.583
-200.52
-69.6
77.655
193.99
60.922
1.2999
-20.929
-46.03
-55.964
-43.444
27.62
34.171
21.766
85.887
-36.948
-26.926
-69.596
-40.119
-47.297
-28.732
35.5
-15.812
66.386
204.41
30.957
-169.23
-12.18
-14.628
-13.729
-67.707
-53.198
13.579
157.91
69.984
-72.688
-33.081
3.3571
81.535
42.676
-58.439
-107.51
87.452
4.5466
-27.153
12.946
81.834
28.33
-95.942
-86.2
19.391
51.825
-92.322
-101.73
75.213
163.65
-20.27
-62.988
-32.953
-84.392
2.7185
35.983
42.154
81.631
20.649
34.22
63.423
77.619
-93.826
-87.022
-14.902
-98.325
229.71
-23.658
-156.55
-36.082
30.59
-29.965
-7.3396
69.37
52.591
62.799
11.936
-82.607
-64.663
-29.961
-174.15
-75.755
69.323
93.792
128.13
123.18
-123.46
-130.36
-42.586
-41.96
6.0303
237.17
173.5
-57.785
57.01
-38.846
-45.091
-25.948
-0.5127
-64.854
-5.1661
21.055
-109.62
277.24
-33.699
-63.031
-33.46
117.28
-46.012
-94.066
-22.382
69.027
-134.57
-39.534
-1.719
-28.086
-14.778
74.409
56.39
-12.282
88.579
-9.3045
-69.282
-94.671
-118.7
76.931
105.67
-63.412
49.723
18.806
-40.608
194.39
-47.32
-174.4
-87.44
72.024
50.882
124.34
98.423
-228.87
-119.01
152.24
44.466
2.6
-62.726
-21.046
127.2
74.567
-19.19
-42.267
35.686
-76.496
-68.973
-33.307
-101.62
-33.568
152.36
97.518
40.669
59.956
-150.81
-136.95
37.558
140.98
62.742
-120.54
15.626
55.093
15.184
100.64
-149.09
-44.92
-98.539
-231.76
139.97
165.18
68.803
112.62
7.9889
-79.601
-199.13
-78.946
16.563
77.064
41.145
74.144
141.44
48.253
-32.873
-50.879
-99.702
-184.7
-24.132
135.34
182.53
35.726
-84.074
-22.134
178.7
13.801
-127.92
-113.61
-128.8
-87.877
37.58
56.376
65.25
96.648
85.719
22.491
56.719
-76.713
-117.34
-123.31
3.9606
59.463
82.22
0.20813
-82.117
-96.826
-14.768
-8.3149
105.06
200.06
20.326
-44.432
63.703
-1.2977
-11.447
-40.97
-54.984
-11.183
-55.907
-59.94
60.566
-54.726
12.507
89.477
60.689
-27.155
-78.689
1.4368
102.13
-90.911
-18.768
21.559
-62.024
30.63
-25.945
-61.596
-19.125
36.626
11.596
-10.957
-61.77
-97.46
3.748
128.81
108.8
73.707
67.3
-36.216
-41.99
-16.002
-165.95
2.4224
64.339
121.63
3.551
-1.6041
26.435
48.9
-45.255
-75.754
140.36
5.6582
-46.747
-9.1426
-54.076
-99.015
-52.84
68.058
123.27
25.735
-126.17
7.7681
-42.18
-78.759
-120.55
180.89
171.6
-95.996
19.816
79.55
9.2649
-156.68
27.668
-40.42
-19.857
40.341
-53.579
91.88
10.489
-31.363
-2.6364
108.69
-109.2
23.775
91.834
-136.65
66.303
91.723
-111.97
-73.978
40.699
90.945
-59.816
-109.43
87.885
-21.621
-44.003
54.656
86.36
-88.66
-76.475
161.74
-55.697
-226.81
-66.209
59.13
218.2
86.785
-151.43
-130.28
4.9121
48.873
62.091
40.176
58.068
-36.406
-48.838
118.76
55.789
-104.4
69.905
-42.259
-19.783
100.69
-32.813
-8.9184
69.83
-3.5279
-18.236
-5.1998
17.271
-27.39
-6.7859
-8.3575
-36.604
-0.15254
-3.1655
-11.086
24.833
-20.981
-50.003
102.71
-7.1238
-34.389
-42.675
-72.747
242.38
14.642
-132.34
-91.409
-146
242.06
216.68
65.447
-35.69
16.969
-184.53
-0.32346
8.4915
-175.82
-20.987
62.128
-7.1308
89.9
-52.45
-75.006
69.652
9.0361
-138.19
-91.253
-1.6952
26.743
-26.828
26.254
38.303
76.197
-7.1337
-89.004
86.836
-19.88
3.4699
43.07
-98.84
8.8238
-28.198
-169.48
99.166
110.3
56.943
-13.036
27.183
22.603
-24.939
-22.499
26.181
51.427
180.97
-39.833
-178.47
161.15
17.248
-43.81
-91.215
-56.931
15.315
21.813
-8.5783
16.566
-19.111
-24.611
78.345
-53.287
91.486
94.016
-43.099
-63.771
-19.394
171.9
-121.99
-163.92
3.2325
24.356
36.787
-6.2586
4.2696
15.936
-1.4272
-0.2536
27.662
-10.65
5.8877
37.917
82.659
-5.4902
-120.7
-57.854
-50.845
-10.778
-11.96
68.852
72.18
36.701
-118.49
-183.69
109.82
79.18
43.484
5.5171
28.416
21.581
10.951
-7.7655
21.411
-21.89
32.901
-7.1208
-7.1726
-8.9424
-91.407
-0.58285
-12.213
20.187
-0.61017
-3.4027
6.8989
-28.306
-20.871
9.8449
9.951
15.135
-1.9652
-8.4325
46.703
-63.898
-8.0235
62.774
-4.3217
139.45
234.02
-156.51
-460.86
-45.414
68.589
89.917
266.84
-110.76
-179.92
-70.971
-32.562
142.97
105
58.94
16.025
31.8
-40.469
20.144
45.61
169.06
40.371
-450.35
-246.62
124.74
139.8
-16.641
50.766
3.0451
-148.8
163.64
60.969
-42.592
67.311
68.875
57.832
9.3943
-34.903
-102.57
-70.388
-57.577
90.897
101.07
-68.056
18.788
-31.188
-29.06
-39.689
130.3
-8.0553
-62.053
-43.465
79.94
22.411
-66.997
116.7
-84.73
-104.08
21.226
-7.8623
199.17
225.36
0.35238
-59.471
-99.69
-82.009
-119.54
-175.94
81.927
1.4673
-28.918
16.217
115.38
69.25
-182.43
-34.556
93.938
-2.9856
-60.087
-59.669
64.732
62.631
-143.13
9.6477
127.31
40.965
-64.589
53.042
26.179
126.9
50.736
-72.085
-52.963
-77.379
-122.32
-12.208
-15.652
-21.324
5.4879
40.168
15.443
-45.42
-121.14
-59.97
35.335
94.062
72.344
44.965
-20.59
47.631
68.674
54.041
35.171
-72.999
-23.415
-11.276
-57.632
122.01
169.31
681.39
-346.91
-491.79
36.964
-47.462
-20.036
-72.364
8.8226
51.927
64.374
20.357
-17.369
10.107
-87.282
122.98
82.629
38.935
-112.17
-199.79
89.711
-20.379
-156.81
-55.58
51.451
146.25
-132.24
-27.198
116.57
14.446
20.369
122.3
-70.833
-161.94
-14.535
40.115
47.865
20.993
34.882
88.318
-83.816
-151.5
13.295
44.067
144.31
-31.318
-106.17
-36.711
11.031
16.486
-8.5442
105.77
-30.119
-92.754
14.525
264.75
32.898
-42.576
-71.039
-164.97
-88.24
10.071
-25.429
71.473
145.76
27.593
-37.442
-147.16
-68.76
34.147
82.536
89.416
-35.884
52.61
87.583
-91.276
-113.96
52.359
14.906
37.485
61.739
-139.8
-43.35
99.916
4.2104
219.23
52.684
-151.46
-143.08
18.028
165.99
-8.3647
-99.521
-133.11
41.273
108.11
35.143
-79.255
-176.45
-44.752
38.995
61.395
134.57
122.3
-124
-80.56
33.847
-87.677
17.363
62.249
-59.428
61.052
-20.522
2.1566
44.669
14.048
-20.671
30.154
47.29
-76.961
-22.065
0.80982
-48.742
39.382
32.003
-37.231
39.87
48.406
-39.311
-6.8657
-36.161
-17.246
7.8039
124.44
-27.257
-188.68
-7.7663
96.372
98.474
-6.9609
44.679
-7.9492
-12.865
-30.155
40.158
96.12
-193.45
36.383
-7.3029
-41.556
-57.949
-97.375
21.43
129.84
50.223
57.699
1.0904
-125.06
-85.735
33.773
37.717
197.09
215.54
-223.14
-137.33
-73.828
54.981
126.55
-101.77
-109.56
-24.76
130.65
55.172
-94.129
6.33
1.4008
-76.347
103.36
205.37
-220.04
-158.93
86.857
173.6
-102.24
-20.369
47.422
143.92
16.939
-144.17
-51.802
-54.12
-12.796
35.905
-28.546
96.227
11.1
29.969
0.025005
-19.043
66.198
-80.425
-73.259
-11.712
-17.901
9.037
-2.7085
-65.446
-6.0189
154.29
66.982
26.436
57.813
-69.633
-70.853
-101.58
29.924
169.69
-106.09
-46.105
-53.318
-100.59
44.168
42.351
3.5819
93.159
112.67
49.594
32.294
-46.229
-99.016
-51.442
-13.864
-37.825
100.06
144.26
-65.037
-79.701
-65.783
-101.1
-22.099
74.508
46.946
44.879
159.13
78.243
-121.54
-77.079
-77.272
123.98
31.623
-197.2
48.454
4.5164
10.006
109.52
-15.45
-175.7
-5.8921
12.459
-16.43
-45.362
-136.03
-110.6
55.645
88.14
22.132
77.787
181.05
194.56
-46.248
68.147
52.182
-122.62
-57.991
-56.076
-0.26617
81.443
7.2988
-155.23
23.007
59.498
22.879
121.31
-191.43
-204.52
-14.392
48.972
-16.979
-54.437
65.849
102.88
162.13
117.25
16.458
-129.13
-156.58
-22.215
36.861
5.5098
-29.842
2.0636
31.272
-23.853
50.656
131.7
9.9397
-208.31
-85.43
-120.19
24.062
172.49
68.003
86.053
14.051
-35.241
-29.299
76.224
-191.73
-3.1699
83.321
-24.279
-6.2924
28.691
-3.1836
-127.37
20.961
156.79
-23.005
47.731
-56.878
-88.151
62.561
-3.6268
30.341
47.664
-55.409
-38.788
41.228
-36.346
-50.037
-64.571
2.1606
62.454
60.104
53.537
-27.164
-1.5345
-28.768
59.489
-30.812
20.091
-51.762
-14.532
-56.509
47.58
147.06
-160.31
52.726
18.305
104.29
-20.156
-119.97
-50.938
-10.575
25.112
-11.105
5.1338
15.36
18.54
-8.9634
5.9543
65.083
-70.825
10.857
-0.79227
2.2215
-40.198
-6.5745
-58.788
-23.065
1.1924
62.67
38.567
-21.076
89.76
-18.548
-73.713
12.971
-22.892
86.404
127.26
-5.2481
-83.839
6.2138
-39.25
-4.3116
-26.968
-81.29
28.411
71.898
53.88
-53.23
93.162
-68.996
-65.058
16.522
-42.154
-157.79
2.4365
94.71
106.35
106.66
-86.493
-86.03
8.4274
50
108.05
69.875
19.459
-53.447
172.65
-31.439
-155.62
-31.756
-38.716
-6.3067
35.318
-118.76
1.6724
87.619
62.904
-17.67
-53.248
60.032
-52.413
-55.109
-43.699
-3.2003
-3.8965
-5.648
14.865
61.602
-11.348
-41.886
25.129
22.152
-62.537
172.24
22.844
-137.38
-71.938
84.413
32.306
54.892
33.784
-90.225
32.797
-12.559
-172.64
-100.51
149.37
64.73
-26.878
0.52598
68.781
87.691
-83.511
-47.361
-14.444
27.069
-73.439
-101.57
74.008
141.97
-24.166
-61.199
-41.968
63.85
140.19
-47.941
-104.9
-10.012
-59.567
21.504
106.39
-109.02
10.302
26.696
113.1
-21.183
-81.794
-37.531
-25.114
109.49
-15.936
41.177
27.015
-49.187
-38.222
45.465
66.374
-84.513
63.095
-3.6215
-148.82
-69.06
109.85
-22.765
49.457
38.97
15.705
76.917
-52.095
-71.689
-74.915
15.571
59.992
80.526
79.338
-56.355
-90.621
-9.4449
-74.726
-52.669
9.9218
-12.529
162.53
-38.519
-64.364
140.82
-67.977
-57.346
-20.467
-118.04
-62.559
71.449
126.36
141.7
-0.90504
58.812
-13.769
-61.634
1.0603
177.61
-192.7
-127.43
127.44
-31.909
-119.34
102.43
88.286
-88.954
124.99
19.372
-41.253
42.291
-81.624
-100.09
-9.8875
17.2
113.89
-26.288
-39.696
73.703
-1.7692
-180.69
-26.152
20.22
-118.75
88.935
105.34
121.83
-19.516
-164.26
26.531
53.549
-60.72
-32.372
11.311
-23.286
95.485
105.87
-70.791
8.2498
12.042
-42.255
-25.918
-4.3018
-9.1754
44.253
72.265
90.829
-162.32
-80.228
28.419
-80.012
68.721
44.239
-53.118
-4.5626
97.246
34.359
-18.417
71.065
33.708
-106.65
-20.632
5.6804
-28.113
19.139
82.76
3.9678
-20.786
92.246
-124.75
-53.859
-74.143
-77.831
18.169
-51.644
58.009
96.867
31.244
69.86
-34.252
-0.57941
-16.089
50.53
22.335
-19.496
-1.6085
-16.326
5.1956
-47.94
74.825
-124.77
-105.25
63.61
139.61
157.01
-46.133
-94.723
-165.1
-40.542
69.657
-24.6
26.358
51.859
24.04
-67.618
-177.84
-125.62
65.058
194.45
122.85
52.755
9.1805
-48.599
15.955
39.373
65.547
-6.4017
7.3494
-49.608
-41.303
-128.9
-127.12
141.92
210.21
-74.319
-92.609
6.8709
-94.378
-59.512
112.8
91.093
6.5603
-94.17
-125.14
35.276
218.05
4.6662
-163.1
62.472
153.47
91.45
-98.546
-105.64
9.4394
-30.704
42.967
10.038
-66.214
-5.0791
-1.5305
1.6299
70.217
-71.688
-34.256
78.254
27.653
-7.4497
-156.01
-61.951
-39.418
113.56
132.7
32.057
37.076
-38.447
-136.49
-28.808
11.86
-19.526
178.27
59.998
-132.2
-76.278
17.62
149.24
-6.0478
-55.776
-45.052
-31.491
-24.223
-21.904
70.961
84.115
-84.816
20.1
-27.717
-120.41
8.7767
26.998
52.01
86.163
39.967
-88.263
-36.982
-81.926
-39.042
139.22
25.59
40.065
52.16
-167.23
108.14
-30.488
-100.59
119.67
60.383
-31.989
-149.16
73.374
51.798
-50.137
-25.644
-20.438
-0.95076
-34.82
-107.62
162.48
19.107
126.09
116.06
-234.32
2.7438
8.3382
0.42488
-48.227
22.723
60.494
-98.618
68.526
188.6
-21.115
-187.93
-27.179
82.197
18.586
11.23
-98.267
-35.676
127.2
-193.99
33.253
209.78
30.843
58.817
-157.28
-163.25
-30.236
45.12
100.74
28.957
76.462
-45.708
-154.89
-92.98
155.08
18.93
67.426
104.27
69.302
-14.225
-104.99
-122.89
83.327
-125.75
-53.835
31.03
177.4
42.568
-139.5
17.476
39.23
-50.449
-34.955
-66.846
4.0542
40.83
88.133
0.35422
-21.254
64.756
36.82
4.4588
-145.14
-17.499
-19.709
-15.627
-28.841
-84.88
-0.4788
36.234
21.205
133.17
70.094
74.086
106.38
-36.407
-61.388
37.947
-5.5077
-42.923
-13.807
-62.059
-92.262
15.806
160.15
-125.08
-4.5167
125.94
-1.2137
-58.098
-77.015
-15.399
20.329
83.879
21.068
-49.259
1.5903
-8.3113
-53.642
-186.26
-81.486
143.33
103.45
59.405
62.478
84.173
5.9623
-125.61
-10.508
-49.41
-87.241
45.864
26.763
32.674
-109.46
35.442
9.9054
-26.281
22.893
85.639
-127.87
35.216
113.46
4.0564
39.813
-116.01
-23.671
31.103
45.71
-103.15
-136.64
77.539
44.014
-23.745
-13.315
29.336
-5.356
-34.729
11.226
67.932
67.91
52.253
-67.906
1.5631
3.5016
-83.556
95.21
91.433
6.6509
-13.983
-134.82
10.334
126.3
24.709
-33.09
-44.342
-33.102
33.78
9.1515
57.225
-25.632
-28.588
-63.128
-2.6878
38.134
-85.929
40.374
-103.23
-144.21
-35.596
15.976
-44.11
25.845
132.2
201.18
225.09
-26.978
-112.48
-3.5421
142.19
-95.783
-180.44
-58.656
96.51
124.08
92.834
-214.94
-204.97
-14.318
172.57
253.05
40.175
-204.14
-45.57
-32.149
101.07
47.063
-83.202
-123.33
-95.948
-2.1038
83.748
161.94
52.798
-123.29
-72.785
-43.451
-60.076
72.639
-29.127
-39.841
60.128
25.257
16.396
77.079
60.217
33.496
-32.544
-59.764
11.281
-37.48
-33.268
17.97
57.452
-17.684
-2.2156
52.643
13.093
-97.763
112.34
81.378
-156.11
-51.577
4.4637
-6.8041
52.322
-91.158
-186.85
157.68
106.47
18.121
98.324
17.893
-79.197
-52.602
6.1237
-4.0981
4.9707
-50.476
-75.17
-50.865
-10.706
113.3
86.819
28.036
18.473
-51.634
-40.806
60.56
-9.0671
-116.06
-16.623
-9.0406
28.435
15.333
-148.01
-9.5396
126.58
33.185
56.301
165.33
-93.716
94.34
66.942
-148.69
-45.006
46.019
50.525
-86.783
-15.648
-28.019
-43.657
96.057
86.305
102.24
-188.46
-169.04
127.26
41.92
-76.902
-110.91
81.346
27.095
49.029
0.33282
-103.42
-22.124
11.143
-32.905
-21.009
40.514
3.672
36.609
59.925
193.92
167.3
-191.36
-140.34
33.94
-24.199
-3.0631
100.64
-18.342
-118.24
0.016876
23.541
54.291
50.286
-98.82
-33.703
10.514
-74.02
-44.954
67.002
-19.166
-49.876
40.001
131.28
50.634
-13.69
-16.724
-38.673
-119.41
-46.443
-50.735
170.5
170.71
-6.1256
-67.705
-56.101
-143.89
-127.04
-0.34409
195.06
226.33
-92.577
-135.87
-86.833
-41.775
47.607
81.367
79.103
70.862
17.629
-5.8911
-20.481
-156.49
14.689
90.563
72.338
5.3612
-64.604
7.0979
-93.422
70.08
31.223
-35.269
-34.705
-164.3
72.077
255.01
-62.695
-102.77
-33.379
-24.485
-16.854
59.705
93.833
-76.145
21.794
22.117
-137.59
-58.805
-37.575
-66.62
159.64
73.125
25.568
87.513
-16.295
53.489
61.549
-11.461
-104.62
-29.938
132.33
-103.8
-178.18
3.9699
22.451
48.471
43.244
-15.685
-28.52
-23.214
-37.861
-5.9001
112.1
53.829
-73.696
-9.938
21.441
28.531
-53.983
-49.751
143.58
29.399
39.734
-35.807
-71.094
-159.31
-122.12
49.418
61.133
-1.2889
36.712
45.488
-24.955
155.55
154.19
-90.494
-65.527
-76.726
-25.75
132.59
40.429
-1.5174
-45.026
-94.84
-46.849
9.2279
-151.58
-164.85
199.18
103.22
112.3
166.52
-138
-36.204
-66.841
-63.927
33.579
103.53
39.267
-61.471
-2.3918
39.443
0.98394
53.351
31.246
-92.164
-35.008
5.3218
-4.9219
7.0799
40.342
3.0711
67.362
-78.719
-70.265
172.48
52.066
-227.73
-9.3967
-72.453
-110.67
75.584
98.196
71.209
-69.73
-70.724
25.249
50.204
116.58
62.644
-120.53
-78.25
6.6444
138.63
-60.452
-14.824
-73.627
39.939
32.663
-9.4459
-33.784
-78.041
2.3428
20.6
8.0636
-23.781
47.912
19.551
-27.659
-33.603
-86.83
-16.09
51.533
34.851
49.436
-31.683
146.57
-34.694
61.152
37.817
-39.269
-83.19
-93.87
118.69
27.004
-39.601
-9.4362
24.444
-67.668
-65.004
63.296
-49.402
52.201
17.579
-37.644
77.497
-14.279
-48.373
1.3786
13.475
-14.787
33.635
72.964
-124.17
-6.7544
17.524
-27.14
-38.705
22.761
24.257
63.155
-6.5573
-30.68
-16.066
96.272
81.555
-123.06
-103.16
106.97
77.098
-80.23
13.439
-13.337
2.28
-29.489
-26.194
56.935
-21.935
107.56
-92.465
-35.405
58.268
64.627
-38.135
-98.397
-31.481
14.132
135.78
-82.221
-68.379
-45.874
106.53
-10.338
69.559
-7.7904
-88.433
68.86
-15.155
51.775
-102.32
-13.195
96.83
-38.172
-72.051
42.334
-116.42
29.773
55.335
177.02
-39.251
-138.26
106.81
34.622
-16.395
20.432
27.371
-71.552
-39.888
-45.388
58.929
-9.2723
-80.817
-160.99
-147.83
30.214
125.95
298.8
63.921
-76.293
-41.898
82.473
-26.485
-41.579
27.564
-5.9245
-120.83
111.95
63.326
14.404
-41.176
-103.41
-26.525
-81.95
166.97
90.516
-68.522
173.64
-162.05
-120.58
35.396
-68.267
62.065
7.1837
-82.437
23.226
41.148
17.033
40.402
63.144
63.441
38.1
-43.366
-149.73
5.5351
-15.861
32.23
-30.221
-31.136
9.2443
-0.33544
-24.253
39.374
-43.73
43.53
109.74
-48.806
103.87
111
-38.477
-124.33
-7.1135
-60.107
-89.165
104.8
-43.678
-54.533
-7.477
68.884
-31.792
-46.117
90.15
-62.538
-67.353
-39.477
46.446
34.329
35.888
82.348
49.909
2.6377
58.064
40.973
-4.5227
-36.921
-165.8
-92.921
-12.536
-15.736
-37.051
13.017
10.321
67.188
115.19
22.612
137.13
-23.45
-92.954
-95.033
-90.99
-3.5821
128.49
29.464
-36.067
42.408
-113.13
79.359
41.578
-80.446
-96.857
96.526
254.86
-7.2609
-144.07
-144.32
-3.063
9.3053
49.552
81.207
23.507
-28.813
-104.9
-50.157
34.256
-10.962
30.875
14.207
24.37
-104.35
-33.517
-35.16
24.678
15.476
27.445
139.45
-113.75
-41.161
-21.171
198.31
98.272
-3.7795
2.7714
-5.3609
-96.959
-17.683
-15.037
-5.7635
-70.085
48.535
6.9088
-21.146
15.696
-42.007
49.112
-18.787
37.679
-15.184
-6.5292
-105.32
168.23
11.614
-21.391
-14.549
-138.21
26.243
64.793
-42.625
6.2761
-26.48
18.83
153.65
-71.497
-22.256
-61.378
-50.174
-15.922
-26.198
54.809
-55.538
11.33
7.1473
124.94
36.059
22.996
22.44
-77.608
8.4007
-39.361
-59.632
59.944
-1.0373
3.2494
62.698
-54.87
12.553
-59.722
66.108
139.96
-9.3386
-105.76
74.315
143.83
-162.01
-80.423
-117.64
-84.118
85.441
120.31
13.071
27.407
154.12
-97.964
-130.37
21.178
40.594
113.09
-45.335
-73.155
-57.585
-14.25
-14.523
4.7872
-63.061
-41.573
151.82
45.743
13.467
-28.09
-81.285
-100.57
-68.959
-2.8749
179.1
94.877
-16.621
-22.192
53.526
-27.121
-33.711
-2.7192
-13.773
17.058
-53.931
-92.502
-16.248
48.529
49.762
42.804
74.426
59.519
-25.454
52.342
47.809
-13.039
22.064
-59.775
26.346
-48.348
41.837
-65.63
-6.4763
-37.702
-184.09
121.21
46.56
95.758
17.56
-81.41
-95.342
-57.121
-23.328
30.263
26.891
43.693
46.405
-12.985
-81.545
-21.286
48.364
-17.331
18.585
-1.7901
7.8042
82.431
77.004
-79.346
-70.089
-42.815
4.066
-4.5027
-78.708
39.841
42.858
78.591
82.285
-11.818
-29.654
-44.7
-68.025
-10.334
-7.7612
-71.272
-41.394
18.763
151.32
90.813
-78.164
42.843
-11.548
-25.861
85.488
32.97
-91.971
-242.76
-75.059
18.623
-69.456
43.466
95.758
33.126
40.904
63.038
104.02
202.94
98.488
-87.21
-165.19
13.232
-1.4508
-25.299
-10.579
-49.946
55.96
-10.171
-82.55
59.413
12.253
-7.2796
-83.348
-51.115
54.827
26.062
47.819
15.326
-145.05
-92.647
14.355
0.65926
19.539
131.83
162.42
-65.106
16.086
9.8053
-19.646
12.627
17.588
52.174
-114.13
3.9547
-164.42
-50.847
140.58
132.09
-74.403
-5.0365
-8.6438
-82.844
25.825
-14.191
15.416
93.516
-11.892
-86.983
49.457
-73.288
6.9994
175.32
-48.979
-115.13
128.31
-82.539
-136.96
-50.483
-148.87
2.0408
227.93
147.72
155.02
-76.271
-17.56
-66.667
-100.25
0.96832
-5.7419
-19.934
17.607
17.571
-74.474
-21.511
74.402
69.774
-24.871
11.682
8.6179
28.591
47.415
-43.535
-89.693
14.977
20.322
5.9628
91.88
2.947
-1.88
-38.877
-88.464
-121.98
-27.843
297.96
168.54
-157.49
-129.27
-121.48
46.623
152.13
82.208
6.4614
-91.131
-21.306
11.549
-12.008
-41.569
-30.38
38.528
25.96
-79.078
-93.068
55.985
84.531
11.844
-76.706
17.444
71.102
58.556
-53.016
7.8529
-48.482
-81.504
48.918
38.125
-11.147
1.3109
-69.026
8.8049
97.135
127.1
39.295
-91.228
-63.193
11.077
-17.932
47.557
105.11
-3.8467
-95.929
-60.531
23.188
8.415
-92.121
-45.595
-21.175
-28.425
74.274
68.626
-76.532
-28.611
10.003
-3.1449
66.273
8.2328
-31.608
28.078
69.071
82.852
15.053
-114.07
-66.196
29.059
4.1883
-69.531
-10.07
65.732
38.24
40.357
38.79
-18.671
-57.47
-132.05
-55.298
73.037
55.939
62.461
-0.50829
-47.181
73.754
47.275
-54.505
-76.488
51.822
-18.159
18.394
-2.0487
-58.904
19.758
0.80985
38.884
-7.4586
-56.93
-21.318
170.81
52.411
-167.07
-36.212
46.32
-28.817
-33.351
44.11
6.668
-25.11
21.353
-0.88981
-58.314
-76.84
36.473
49.136
78.7
55.548
-167.18
-68.268
-26.203
-44.165
-4.6246
-28.719
16.84
89.165
44.271
22.049
68.51
37.004
71.086
239.99
94.763
-105.79
15.864
-43.496
-98.327
4.2172
-43.331
-58.798
-48.529
3.541
-28.23
18.258
-30.812
41.819
51.06
-62.791
-68.39
37.162
-68.912
-121.43
11.556
94.693
122.51
37.16
-84.368
-10.031
-7.7739
11.234
39.73
23.552
-42.84
6.4325
47.272
39.895
-129.74
-120.92
-69.483
-9.2614
47.2
67.691
94.378
35.398
-43.698
-0.9303
74.329
7.7311
-28.662
-11.755
1.1161
-22.058
23.958
-0.10216
-1.6362
27.81
4.1356
-4.9389
8.6863
10.039
2.17
-20.353
-34.53
7.544
40.14
6.2323
-0.94373
2.094
-12.656
-25.756
47.898
42.643
-66.92
16.187
12.979
9.1818
-21.338
15.597
32.205
1.8154
71.35
-87.698
-130.96
-63.294
1.7996
-75.151
21.087
98.892
36.562
17.078
-29.378
20.766
45.202
4.3291
-13.548
11.402
-25.704
-11.036
6.2087
-20.759
-7.3305
88.296
-180.53
118.03
88.529
185.5
183.73
-253.04
-251.04
-296.69
183.31
174.39
-72.295
135.67
121.76
95.687
-229.15
-190.06
-1.6781
-32.369
6.3113
3.2611
-8.972
-9.7162
28.562
8.9141
9.6477
24.478
31.306
23.501
-15.232
-42.708
2.5588
-59.298
-49.194
135.65
132.55
39.762
-50.365
-54.948
53.728
-58.371
44.815
86.484
-70.209
-51.797
-28.73
52.17
21.309
-32.252
-11.915
-65.627
-37.413
130.74
111.52
-119.75
-18.916
21.893
170.81
40.757
-111.67
-3.1078
27.358
118.23
-128.57
-162.92
55.235
-21.955
-95.88
-16.101
23.014
-5.4318
132.93
-19.886
-146.99
26.426
53.906
11.285
11.115
-61.047
-87.206
-1.7376
46.117
20.559
116.49
-71.151
-14.859
48.99
-132.76
46.882
148.47
-17.054
-6.1371
85.604
78.23
-134.82
-74.642
-36.435
70.46
-70.191
61.929
-28.638
29.834
-7.1346
31.535
40.362
-60.392
37.368
-108.67
-26.096
-31.588
-78.008
32.719
51.213
-6.8483
50.256
-17.273
-30.608
57.293
183.13
28.474
-75.544
-91.437
-57.425
77.023
34.255
-6.05
-39.78
20.853
64.187
-85.736
53.001
-29.854
-77.45
-7.4627
6.7085
36.169
7.3573
-2.8409
123.34
-4.7627
-28.613
27.129
-89.833
-30.724
-158.47
-151.33
11.893
92.061
106.06
62.114
-48.766
58.16
105.32
67.811
-185.1
-61.055
62.76
21.623
22.924
103.99
-24.248
1.5712
24.305
-24.058
12.434
11.535
-0.65415
42.051
28.539
-15.064
-77.195
25.915
71
-68.011
-17.492
-53.019
-31.288
-126.49
-27.887
272.41
261.24
-8.9477
-121.27
-66.148
55.194
-29.05
-3.3243
-88.747
99.332
-38.728
-110.53
-45.482
-48.73
-64.8
27.814
-55.574
32.606
52.304
-193.44
-29.433
102.97
101.3
87.978
84.438
-84.613
-151.86
-32.187
11.303
93.528
77.148
-48.995
20.74
-29.778
-54.886
10.58
-40.7
-14.436
160.7
44.62
-140.41
-15.749
-36.395
-42.155
203.72
-27.482
-164.91
84.02
223.9
-51.741
-59.361
-115.85
-54.815
25.508
47.693
168.01
8.9116
-47.409
-1.4644
82.78
-78.467
-128.9
-2.1585
8.7711
-27.654
18.471
40.249
8.2638
-11.598
12.238
136.33
16.444
-117.09
-28.432
-30.556
-9.7551
-13.116
-87.095
-30.492
90.467
116.22
33.149
48.954
-64.951
-128.97
-111.89
104.83
211.9
36.917
-166.02
-87.888
-37.63
-73.968
52.919
177.99
-29.982
43.221
54.212
-11.676
-21.329
-14.708
30.741
-101.17
-62.677
33.493
-10.967
4.2867
31.235
11.084
-11.158
23.19
54.988
25.854
43.181
-7.9544
-111.73
81.473
56.097
-83.562
-67.538
-6.5413
30.456
102.61
49.289
-163.68
-123.39
-19.528
-55.624
-14.454
108.42
53.398
68.219
104.29
-42.197
-87.739
-59.847
-0.13418
44.638
62.36
77.06
-60.805
-25.994
-51.49
-162.09
-51.621
143.22
193.79
72.975
-45.445
-124.97
37.793
-57.283
-98.53
-53.228
-17.797
62.678
58.358
39.917
111.51
85.334
-6.6029
-240.12
-14.084
88.3
67.623
-50.901
-31.79
-6.2511
-13.73
85.576
-47.793
-72.731
40.692
45.511
30.564
-36.661
-152.21
-47.896
150.44
156.35
-6.9163
-173.58
27.485
88.943
12.366
-23.646
-14.746
-64.979
5.6254
-2.4808
-15.713
23.22
34.534
-124.97
82.161
140.14
-73.981
-41.652
42.293
47.646
-36.205
-80.621
-35.608
-31.499
-127.76
29.33
148.66
49.078
-16.489
135.95
53.915
-246.26
-105.07
-48.641
16.454
159.24
168.42
-4.722
83.054
-40.546
-153.43
-9.9928
-65.645
23.17
41.82
8.9382
41.847
39.97
-111.54
22.877
46.968
-53.316
-83.033
103.51
111.29
39.085
4.8205
-232.19
-136.54
65.888
177.01
43.394
-29.22
-22.101
-60.227
22.755
58.727
72.865
-11.281
-77.996
-9.4855
-24.481
28.01
125.68
-47.05
-18.622
121.01
-74.692
-91.908
-9.4123
-40.552
-46.221
-20.422
29.279
-4.3312
13.029
17.876
-7.7499
20.914
5.4158
-7.9714
65.541
16.124
-41.585
-109.6
-19.987
-112.13
17.133
40.329
11.45
82.439
92.242
-85.38
-61.547
93.159
13.089
28.735
94.302
115.77
-54.056
-114.24
-67.311
-91.04
0.095671
202.59
-29.857
-62.463
-13.824
-23.498
13.373
16.046
-45.831
48.763
-14.308
-39.289
-3.6944
-54.181
30.334
30.877
85.521
144.98
-138.62
-76.239
15.7
12.511
-52.374
-29.677
41.01
-2.7778
1.3988
26.632
-8.8025
-3.6223
22.709
-0.83691
0.55404
27.943
-21.557
34.996
47.907
-36.74
98.108
-75.767
-66.529
-25.668
50.91
75.225
-28.324
16.564
-101.35
-90.12
29.274
-101.78
4.5161
87.778
-18.34
65.793
139.09
55.236
-101.71
-110.06
56.609
-116.54
43.571
46.93
-37.977
7.7118
72.389
-96.45
-56.769
44.759
3.808
37.541
22.854
148.55
7.8782
-106.77
-67.563
-39.147
40.315
14.825
79.228
-64.186
-64.97
-63.587
-115.45
6.9545
96.413
137.9
127.31
44.531
-86.529
14.955
69.745
82.217
-201.3
-79.128
52.398
62.623
100.05
-75.195
43.862
-166.61
-44.309
1.1255
17.602
13.955
-33.828
1.8649
87.946
101.96
89.862
-65.922
-73.862
-27.353
-4.1145
-38.84
-7.6164
-6.7642
-12.145
-23.878
-14.635
-52.292
-40.923
24.96
10.837
103.24
29.047
-45.474
-30.589
53.367
88.571
13.567
-22.42
-15.907
-139.03
50.919
-13.202
41.656
-40.2
-99.228
103.04
41.907
16.995
-53.224
1.736
-43.025
-59.593
96.553
26.784
20.415
-110.47
-71.344
61.365
145.34
-2.8472
-6.4778
11.772
-13.874
-23.007
-8.2621
-105.2
8.2602
315.56
-87.488
-150.64
12.001
77.026
-79.43
-28.978
-5.9382
-83.87
-24.012
135.34
213.91
-6.8686
-262.97
-110.61
31.141
-5.1107
68.769
144.52
58.318
-30.954
-50.924
29.25
208.02
-3.4439
-168.8
-78.999
5.3784
-74.604
-82.496
134.16
125.29
-12.819
-59.796
-37.17
-22.303
-53.791
-2.0783
54.498
51.807
7.8156
8.5782
44.007
55.973
-156.41
32.041
-54.126
3.1424
73.687
-0.33815
-71.42
-42.448
93.851
-22.29
-74.092
-57.26
19.423
65.78
13.746
-53.935
56.613
53.034
49.515
-91.672
-110.66
-37.974
-28.152
56.561
50.065
27.989
-18.377
-48.969
-11.697
58.523
51.386
-19.21
17.014
86.488
-14.146
-64.849
65.39
49.359
82.748
-30.021
83.958
43.855
-55.286
0.81861
-106.66
-17.733
-78.93
-48.271
-0.81352
63.359
110.7
21.584
20.806
-165.27
-172.51
-43.441
-44.28
28.574
65.828
235.67
79.738
50.695
-98.202
-242.14
41.129
59.221
32.554
25.949
-72.457
2.7645
66.482
44.35
-16.472
-8.149
-46.748
-1.8424
84.656
-9.6753
-89.938
-64.85
-4.1062
-45.468
66.143
76.175
4.2732
-120.12
-11.934
49.55
7.9329
63.725
-75.391
75.595
53.776
-65.788
-90.912
44.793
41.221
-183.94
188.69
68.734
-74.244
-13.995
48.62
-114.07
108.56
115.63
-107.02
-102.01
6.2607
32.242
100.54
52.426
-126.71
-80.72
-68.022
-57.873
-37.041
-32.211
-10.791
61.468
52.348
30.766
134.53
267.29
-23.196
-109.01
12.819
-76.071
-14.926
-31.271
95.95
-19.829
74.342
99.768
-177.63
-27.935
73.346
-106.09
-42.901
-62.691
-67.395
-90.983
15.366
171.76
-14.61
-138.08
126.84
90.634
89.206
-51.471
-102.84
29.377
3.8965
101.99
96.86
-145.43
-44.539
29.775
56.565
-97.799
143.75
95.671
-19.509
-186.73
-81.406
-6.0254
46.692
9.7093
-7.9989
55.384
-7.6202
20.71
6.5302
-33.112
-67.521
14.091
-67.626
130
162.3
-57.675
-120.3
-81.239
-17.15
-9.5556
47.012
69.995
-33.426
-7.1571
32.834
83.762
-74.585
20.5
-65.259
-31.085
-85.729
-20.904
125.19
163.38
51.037
-220.96
-14.322
103.59
24.884
-80.396
-30.127
-1.469
-17.492
-18.723
21.225
-107.6
-36.918
127.26
71.933
21.216
77.366
34.123
-42.91
31.276
-104.7
-77.3
-6.7425
24.217
14.586
4.9527
7.0247
10.086
43.894
30.563
-59.62
52.704
123.69
-74.609
-63.957
102.77
-111.19
-85.526
134.34
-107
-93.598
62.526
-41.581
-3.5987
45.902
44.045
35.371
-4.1968
-115.66
-35.733
7.3847
62.058
-23.172
-13.465
70.271
16.331
-33.174
-40.423
14.31
-45.11
3.8085
75.998
94.68
10.185
-6.1815
4.8753
-18.177
9.4487
9.7627
-22.597
-23.892
24.164
0.74223
-5.4404
-2.4549
-7.4703
-1.4337
59.084
-34.004
-72.132
24.104
36.356
-35.847
0.042763
-63.433
18.786
-1.4168
-17.194
3.0335
-21.891
5.8962
19.532
-20.247
10.848
25.899
36.431
-19.08
-50.189
-18.077
-6.8332
63.116
65.502
-27.22
-69.389
-2.9712
-15.82
28.649
22.388
13.12
15.139
196.7
104
-146.1
-86.463
15.744
-125.69
-136.78
6.8726
89.881
108.07
-60.78
86.721
150.66
-107.66
-164.6
-64.665
31.596
92.558
116.2
-61.469
-8.9981
30.822
-59.388
-3.1127
11.756
-12.13
-17.115
3.6544
-12.823
-20.779
-3.3481
15.832
33.184
46.711
-72.627
-59.264
104.54
65.688
26.031
1.766
-116.45
-123.29
-17.242
56.236
58.134
67.295
-73.067
-3.3622
5.2851
10.789
14.283
-20.251
8.7527
-18.026
-31.471
0.31372
3.1744
4.3588
28.895
27.613
-24.649
-2.7826
33.463
13.985
6.9389
31.641
4.4904
-42.17
-20.935
12.474
7.4576
69.26
-2.0218
-21.445
-12.893
-66.669
-63.117
-94.108
21.721
96.101
69.198
22.077
-58.83
-5.7237
71.032
-36.224
-36.228
-67.423
-35.181
86.441
29.687
4.3608
95.441
-78.724
-82.381
-56.262
55.255
87.26
61.621
-117.72
-27.13
31.11
27.533
14.887
130.22
-57.331
-66.086
30.264
-52.153
35.585
-43.459
128.82
4.9661
-134.23
85.45
-8.7565
-141.11
62.247
20.378
-18.54
112.5
-100.4
-84.566
56.802
-125.26
-63.145
175.57
132.05
-27.547
-59.563
-33.183
43.955
6.8249
-45.855
-38.622
77.482
3.1727
-12.211
-1.7931
-56.064
26.575
123.84
-90.912
-62.478
-15.628
-10.884
82.614
9.1379
-73.438
33.273
-5.983
56.794
166.33
51.338
-75.221
-88.53
33.436
41.067
-99.242
-89.917
3.5413
-83.485
-4.799
110.25
210.66
27.103
-109.38
-109.45
-55.746
-47.688
35.701
57.124
37.966
-21.863
40.999
53.27
-107.13
30.992
-0.89213
-66.389
44.589
57.366
35.499
-63.139
-48.521
-27.584
35.28
-12.772
-4.8599
-17.55
90.551
50.579
-144.76
-12.504
28.85
12.612
-65.575
115.81
77.135
-238.96
-57.072
11.344
-104.62
-7.1723
45.942
34.149
99.962
169.57
199.06
35.443
-225.61
-48.761
98.505
90.056
5.0978
-113.53
-112.44
-43.325
75.299
47.111
54.957
-5.687
-90.516
-32.736
-80.02
68.828
124.29
-11.455
-80.493
-87.571
75.934
44.078
-116.27
5.958
111.03
52.568
-41.571
-55.569
-70.087
62.437
56.356
-102.5
-185.24
-92.875
48.424
113.58
212.12
157.04
-9.8346
-77.395
-115.81
105.42
-132.79
-80.776
37.927
-5.6626
10.995
46.171
23.361
39.41
4.6516
-75.37
-24.664
56.31
-22.322
73.471
121.08
-67.037
-43.094
15.602
-88.604
-39.423
60.091
11.664
-27.692
-1.9634
48.646
-68.592
1.8716
57.292
42.134
-72.23
-26.291
-12.51
44.205
40.197
-26.009
27.048
-87.612
111.46
-38.339
-133.71
4.0927
53.063
12.72
-15.358
25.822
-35.781
-9.6977
22.922
24.322
64.12
4.2549
-35.341
-65.265
-76.746
15.97
40.375
118.49
-25.209
-71.575
24.613
-32.806
25.111
23.778
-23.149
24.626
37.716
-19.352
-12.496
94.3
-47.362
-143.11
-7.3241
33.507
-3.9731
46.295
110.12
54.868
-7.0152
-21.057
-26.674
2.8037
-123.18
-45.473
36.245
110.39
-83.955
-26.458
76.775
-61.902
-5.6764
22.185
-23.902
14.569
53.99
58.109
-14.376
-6.4923
-0.10044
26.638
-55.077
-0.35932
19.285
-68.35
-7.1642
-14.463
27.138
4.435
36.974
-5.6289
-54.209
18.582
30.783
-100.61
-43.586
126.51
44.927
-24.219
-60.29
6.1984
69.035
-15.761
-37.923
42.229
-33.283
-34.119
21.869
19.539
-68.382
22.866
39.628
-15.59
-31.224
-21.575
-53.405
-148.6
-7.2241
14.981
10.279
167.5
163.25
29.228
28.886
20.53
5.404
-39.084
-125.94
-37.173
100.06
189.26
-80.038
-68.494
40.505
-123.28
-131.58
31.389
27.799
116.35
75.411
-80.315
-24.714
-130.72
15.583
8.6356
70.185
-59.438
-95.383
234.66
-150.66
-19.134
-1.2555
-16.04
49.633
16.95
81.419
67.164
-17.241
63.108
-44.306
-75.785
84.607
56.398
-159.09
-129.55
-30.762
25.871
201.59
24.12
-85.485
10.611
11.124
1.2901
100.96
58.118
-231.49
-58.235
121.12
101.88
-89.888
-169.83
77.444
135.93
-136.85
-44.675
-18.909
-21.486
9.7897
67.993
79.438
-18.884
-20.378
35.534
-12.713
41.371
-73.866
98.859
-59.748
88.194
12.417
-81.758
-51.788
-60.862
59.337
37.195
-85.08
-3.359
50.958
72.298
-1.2039
-121.94
5.4651
32.242
34.332
-12.033
21.689
-72.298
-85.335
51.435
125
25.29
-72.743
38.821
31.489
-18.241
29.63
-22.28
-39.129
-34.605
-25.215
39.679
-16.783
-33.233
28.149
63.909
-5.25
-92.785
15.076
-26.163
15.749
8.7431
19.33
16.414
-8.4076
54.534
56.125
-51.937
-45.387
114.84
-7.1646
-63.494
-46.776
-60.955
-42.162
89.401
49.38
-0.37688
65.302
-28.812
-41.744
-3.8588
64.771
20.815
-94.618
-1.8808
-48.789
-21.56
4.3051
-56.345
40.749
32.437
75.47
10.227
31.493
7.0906
11.782
-85.575
-55.799
12.026
46.644
43.934
-8.55
74.601
14.62
-59.679
-71.589
23.497
-4.1956
-101.08
-103.58
73.828
184.18
10.799
31.342
-62.216
-45.491
-60.771
57.186
64.08
88.886
5.8085
-109.85
-45.946
61.079
-52.191
-10.084
9.9735
-36.74
-6.7879
-9.0556
24.959
-5.4932
12.782
43.22
20.775
-24.565
5.9698
-1.4447
-52.931
1.4866
29.128
44.663
19.274
-83.223
2.9859
-78.592
-24.857
318.43
-34.054
-82.41
14.387
-161.58
48.252
8.642
-61.401
-8.6815
40.344
-53.315
15.684
28.096
-34.719
59.171
93.882
-78.277
-62.176
-95.452
-74.043
89.999
168.09
106.4
-87.246
-60.371
56.08
9.3453
-23.364
30.771
-82.51
-126.16
-29.653
-46.994
126.58
171.56
131.73
10.689
-138.52
-128.54
-103.86
-18.625
3.2307
159.45
191.79
18.898
-26.829
-108.32
-97.193
66.867
57.451
14.174
24.188
-90.287
-55.301
31.78
-45.007
55.251
71.472
-20.733
5.0134
-34.397
-68.771
-0.2127
157.51
-102.15
-87.879
65.23
44.964
-41.206
10.553
-3.5648
48.793
-77.499
73.801
-103.42
-29.147
-18.172
-28.347
-58.838
-48.28
25.774
77.253
105.66
125.47
-77.385
-72.004
-11.243
-4.75
17.008
95.636
38.205
-9.8143
1.4663
-68.903
-58.351
25.775
39.756
-35.098
-23.168
1.5125
20.626
36.039
42.374
34.42
-67.442
-145.1
51.546
82.743
-12.338
97.899
59.012
-138.69
-38.731
-25.839
19.163
17.471
-74.959
-64.011
86.573
66.317
17.827
56.264
-78.34
-44.026
71.651
3.5211
-62.233
-37.574
7.4236
35.925
31.956
35.689
-38.603
-53.016
37.333
-12.649
1.5843
35.708
19.643
-22.694
-127.61
-11.263
88.877
11.25
-61.438
85.201
39.952
34.392
-24.476
-127.82
11.673
25.74
5.7461
18.044
16.072
62.554
9.1064
-100.61
-112.76
-10.977
108.64
-44.483
54.687
65.826
-82.566
-101.29
91.121
76.193
-4.0827
69.956
-114.87
-148.76
60.94
167.83
17.143
37.942
60.222
-40.982
-7.8421
-94.77
-68.251
34.444
-8.7673
44.825
0.82331
54.919
-44.864
9.683
-8.4302
-3.2336
-26.762
-23.763
-74.396
27.09
68.29
-29.449
-76.187
-42.628
-43.872
108.77
145.93
-8.5154
39.322
-61.087
-78.789
122.81
51.904
-136.75
-18.3
71.528
-1.1161
-51.886
-24.871
-19.521
48.413
129.23
-50.957
-9.0992
8.96
-80.89
126.7
108.05
-114.8
-55.647
-126.25
-102.89
88.967
-16.493
-140.35
108.89
88.486
14.345
-1.3712
-47.411
92.181
49.191
-159.08
-133.35
56.515
60.402
117.63
200.14
-64.39
-63.702
26.836
-40.748
-21.533
-47.784
22.47
16.79
8.9483
-116.23
-113.7
-29.914
-7.4789
120.81
292.74
63.453
-85.06
-106.14
-73.811
23.56
-6.0303
-80.15
-27.69
-13.625
18.057
78.109
75.028
17.561
24.817
89.783
-5.6716
-110.06
-4.2489
-70.549
-91.052
-2.3537
1.3455
162.01
-0.30387
-18.757
12.983
-104.33
37.936
53.11
-59.425
11.558
-33.033
-58.422
134.2
92.134
-101.64
-101.83
-99.331
88.447
143.5
-5.7991
-22.405
-33.105
-24.86
11.437
-35.373
-20.275
34.235
20.102
1.296
4.7166
-44.166
-39.523
114.22
4.3323
44.583
-53.642
-57.843
-98.295
-3.136
-5.7414
20.74
58.72
78.688
-2.2758
-33.562
-66.326
-27.556
118.43
125.72
-91.13
-142.75
18.035
31.142
118.67
15.091
-10.119
-81.433
-85.108
24.978
-68.235
-67.005
-39.092
46.613
64.005
174.09
63.03
-58.454
30.168
-1.1999
-80.423
49.041
187.81
-37.155
-43.726
-5.8071
-39.46
14.301
-21.347
-21.309
-27.801
-17.071
-16.529
-32.589
-33.773
23.47
29.586
42.772
2.1306
50.136
65.609
-96.151
-52.951
-47.468
50.391
-5.6613
1.7513
-8.6161
-59.043
-0.59608
58.517
53.262
-79.351
-27.832
84.585
94.882
-43.187
-54.329
-91.12
-122.69
24.999
45.084
-19.23
57.35
31.868
28.303
24.17
-69.359
28.949
-14.923
84.894
-47.454
7.71
-76.099
-39.646
111.32
-27.381
-85.707
-61.393
178.53
48.867
-138.04
82.967
161.9
15.052
-140.65
-136.09
62.409
38.157
17.317
44.44
19.902
-88.746
72.678
7.3187
-42.565
-21.261
-45.348
36.787
24.124
-8.1534
-20.773
35.016
-99.276
-192.56
-39.654
102.92
150.75
87.445
68.785
-53.928
-21.092
54.88
53.451
-43.252
-91.53
-9.0213
49.97
123.43
-38.931
-48.061
43.532
-84.816
-74.184
48.17
-1.4206
-29.087
66.377
1.2753
-32.768
-4.7401
-65.587
27.544
38.813
-28.187
96.927
-21.953
-127.65
-80.483
-51.134
146.44
149.93
-45.817
-21.517
-2.7004
-92.074
-89.025
91.558
84.281
36.262
-8.754
-54.64
-51.97
-14.416
33.28
12.28
-13.121
-8.8052
15.799
38.247
32.3
-25.956
17.951
65.037
-51.572
-16.585
-41.672
-10.479
42.369
1.3791
-146.71
-32.64
117.51
144.81
33.729
-84.503
2.7594
-34.672
-30.03
-8.6773
39.317
1.7738
19.016
-48.762
40.394
19.846
-44.392
-15.047
43.367
13.308
-24.477
82.962
9.6627
-114.83
-129.92
82.204
81.696
1.4974
-29.856
68.104
-63.128
48.343
-44.067
-32.756
36.159
-87.517
-58.83
89.154
120.29
-80.901
-26.596
49.226
-103.68
-155.37
25.464
115
192.04
32.86
-61.494
-23.274
51.113
-67.959
-69.833
88.096
-15.652
18.35
-13.384
-169.41
52.191
44.605
-55.238
66.811
54.457
88.902
-40.365
-29.204
-78.676
-76.318
4.5787
-32.019
83.683
-3.4508
-47.929
5.118
66.204
136.18
-13.39
69.26
34.656
-120.26
-140.14
-94.378
151.86
171.67
-8.8033
-73.449
-63.155
-82.665
-31.721
107.71
-1.0772
13.754
-90.234
-53.3
179.33
-85.999
-129.05
-19.007
134.78
102.25
14.682
-1.0691
-68.029
-58.16
-11.619
-106.91
30.173
68.573
56.664
449.92
-183.96
-279.14
-21.433
-30.497
-59.225
57.246
69.762
23.403
70.024
-53.117
121.43
-122.78
-89.976
-0.7264
15.611
-13.569
21.343
99.044
148.7
3.8417
-128.46
-124.2
104.42
137.63
-1.1838
42.333
-118.6
-102.65
-52.093
-110.65
-11.455
109.21
-0.17195
-13.748
51.493
-68.661
49.175
57.667
-35.911
-8.5391
69.334
6.7767
18.449
-118.28
-103.53
29.508
136.98
-157.96
11.342
26.638
-35.788
44.902
-16.489
-73.534
-27.001
84.568
17.032
-2.0146
157.06
45.48
20.621
-34.454
-114.03
-34.155
-26.38
63.987
82.902
-9.6758
-79.846
-4.1387
13.543
-24.938
30.957
37.392
-75.81
-12.661
65.073
-14.582
-28.567
-16.912
-6.1111
-5.3699
99.474
-4.6116
-14.853
34.917
-154.25
79.132
66.483
-87.533
29.894
-60.298
-13.541
69.968
118.71
74.249
-6.1121
-52.446
-90.576
-67.587
21.081
-35.075
-33.998
-7.6816
-96.849
-25.066
106.22
177.83
70.87
-197.35
-3.1538
148.94
90.191
-41.709
-146.1
-13.423
-6.8116
-45.558
4.6698
29.344
5.6301
143.17
-43.405
-79.557
107.31
-77.062
-8.6679
15.298
-55.332
-30.573
34.165
-6.137
58.976
31.747
-46.595
-23.513
85.89
39.521
-46.324
34.571
-39.117
-116.66
-47.776
59.093
31.001
113.55
127.99
-40.711
-53.542
16.906
-6.9901
-27.468
-90.462
-48.613
37.489
-1.0855
1.8939
-16.708
43.95
0.037875
-72.458
-78.843
46.119
220.13
-117.67
-80.936
58.443
-45.565
-10.269
41.374
4.1903
-30.382
34.637
-50.046
-25.369
91.651
-29.217
-102.46
28.269
49.812
-8.0633
92.694
33.976
4.2405
-106.03
-61.943
-5.238
31.454
5.441
-31.769
39.453
78.612
75.305
-25.919
-43.452
-25.304
6.8975
-44.318
-13.611
22.613
-4.8288
-38.992
-38.101
30.052
-12.741
-74.512
58.606
151.28
44.5
25.372
-64.362
-99.766
-44.034
39.771
-40.933
-36.111
105.81
174.46
56.468
-62.165
-177.95
33.354
149.07
-53.602
-30.93
-97.818
-19.892
22.282
-58.899
21.207
1.3631
28.191
22.557
24.812
-43.781
47.777
92.599
30.268
-43.765
-96.889
-4.8817
109.59
-81.283
-95.998
-5.4836
-8.4458
49.65
-14.887
7.8652
25.446
-2.9242
-20.833
-42.749
-0.55851
-27.595
45.603
58.082
-5.486
-1.3058
-7.5995
-17.489
160.51
-70.066
-134.64
-32.299
-91.378
-102.88
89.095
87.657
11.332
40.946
50.857
23.428
-1.9245
23.815
-35.931
222.07
125.68
-133.49
-57.286
-27.298
-3.1886
-84.354
29.165
71.099
-204.82
-58.183
5.3758
56.156
127.35
34.517
-34.91
11.201
44.969
1.7187
-81.285
-68.541
-16.431
29.871
18.766
-8.7953
-130.35
17.225
26.595
175.93
8.6491
-37.345
107.63
68.03
-147.43
-143.18
47.208
5.1874
54.548
40.559
94.9
13.185
-90.297
-99.374
110.96
61.436
-255.76
-137.13
38.501
93.841
45.383
-15.806
25.088
34.048
3.1817
6.7177
73.619
-60.226
3.7607
0.77734
31.182
22.938
-55.121
10.275
-9.3168
-10.962
27.218
-37.96
84.627
-45.896
-106.51
17.678
33.49
-48.634
85.872
1.0945
-61.244
15.973
15.48
6.3861
37.705
86.675
48.233
-19.061
-60.015
-72.595
-95.469
-124.98
69.971
179
-24.873
29.32
37.076
64.98
-74.737
-119.17
-4.43
-140.64
45.068
150.56
42.603
-55.074
74.709
-98.826
-37.094
-30.23
22.373
258.78
-79.395
-196.62
-51.037
-45.498
268.83
-39.077
-1.3647
192.88
-192.38
-137.78
68.223
169.88
-64.291
-162.36
-15.028
15.901
122.18
44.743
-64.49
48.448
99.346
-103.92
-69.496
-120.06
122.1
293.25
-147.56
-301.15
-208.55
72.138
159.81
63.351
193.57
18.905
-58.359
-40.787
-107.55
-28.289
80.661
64.027
-9.7936
-28.293
-9.8719
-25.787
-39.582
-54.892
14.098
66.79
67.505
-48.864
-19.053
20.258
-3.861
29.75
-0.011475
-1.3819
10.512
-27.432
5.0616
-23.8
-3.3509
14.054
-5.8659
-5.2206
23.806
-15.576
-4.9456
34.818
19.446
-44.648
108.79
8.6055
0.60586
16.027
-42.375
-30.662
-15.128
-4.0017
-20.4
-11.092
-57.424
-46.473
-0.33847
109.6
20.839
-61.86
32.2
23.049
-17.315
-17.131
5.4743
-22.646
-8.7179
9.3389
-1.429
-54.429
0.14397
107.43
-2.387
-29.634
9.8477
-7.3139
-25.1
13.045
-7.4209
66.46
14.321
-11.81
-12.125
-15.76
21.873
-36.564
60.609
71.885
12.375
-47.312
-44.197
-11.869
-19.778
-22.011
-11.705
9.4609
-31.167
25.48
-28.519
-65.947
80.717
62.224
-10.696
-59.947
50.744
-12.981
-27.318
15.246
13.875
-14.038
-20.393
16.208
2.6303
29.931
-54.31
15.655
41.196
-51.544
12.876
3.52
-27.018
10.243
-7.1697
15.086
64.73
11.982
-12.229
-29.24
-6.0556
-5.31
-30.415
-0.82814
-23.904
29.66
52.304
-15.402
-21.428
-15.619
16.584
-18.792
-18.587
90.423
2.1658
-9.6797
15.088
29.976
-51.659
-55.863
11.632
0.21621
-6.8506
15.802
21.804
12.457
-37.373
65.214
-54.083
-10.289
36.981
-28.178
-26.42
7.0889
12.291
-17.274
6.5895
1.5488
1.7347
-31.777
76.187
-20.749
-18.387
21.41
-36.241
-32.587
38.929
46.003
-0.36821
-15.186
10.847
-12.448
-6.5866
12.163
6.6915
-32.081
33.51
-60.154
45.26
60.759
35.803
-59.009
-35.376
-14.734
-50.423
119.29
-42.522
-88.441
217.54
108.24
-168.26
-189.43
-52.721
235.44
-192.99
-224.66
152.91
-45.083
86.429
70.629
21.204
43.834
-58.586
1.2141
59.984
-58.317
-89.359
-17.584
203.51
26.833
-39.833
1.8715
-24.924
-2.7543
-18.845
-3.4601
440.86
148.95
-444.27
-17.517
37.68
33.25
-192.89
-25.315
16.624
25.15
-20.5
-11.345
37.034
12.114
-132.43
-43.934
85.236
-108.4
228.05
84.687
-175.79
-43.508
170.4
13.844
-41.945
-102.79
23.601
24.93
0.3959
-10.034
-45.099
34.058
25.475
-2.5674
4.0534
-0.1164
39.078
-47.195
-8.473
15.685
-5.7699
3.2692
-66.987
25.712
45.48
-3.249
20.516
32.009
-12.261
-25.869
-74.487
-0.60042
-86.719
107.26
63.149
53.681
-22.826
-113.1
-13.87
90.972
42.9
-101.61
12.457
80.526
-10.894
-18.63
-67.38
44.389
-13.642
9.4378
13.038
-11.827
1.2143
-16.997
27.578
19.853
-52.509
-1.1277
-57.41
-27.06
61.047
59.795
3.0885
-1.8797
-23.247
140.56
-39.348
-160.29
41.288
50.922
-78.658
66.963
26.646
-70.954
-35.652
62.151
18.277
6.8303
3.1952
-21.581
-21.103
14.95
34.129
0.79707
-40.906
-5.7292
7.268
9.4382
-1.8929
-4.3685
0.41261
15.156
-16.635
2.2106
-15.773
9.2457
6.7618
-0.33859
-6.5291
-5.8507
9.8019
-5.482
3.8535
4.7001
-9.3093
14.21
-1.887
0.65817
4.3461
-3.7461
-2.3294
-5.9214
-8.351
1.6934
7.4545
4.3797
6.9545
-4.764
-6.0276
3.5246
6.875
-11.345
1.9813
14.269
-13.283
-4.2932
2.3274
1.3413
-0.74534
0.2557
1.5715
-6.2943
8.9573
2.214
-1.3277
-1.988
2.8289
-4.1494
2.2708
-2.2428
-0.055746
2.4527
-1.2973
-2.2637
5.2205
-1.6836
-0.94723
1.0579
-1.6717
-1.0846
2.6212
15.65
-8.1755
-10.274
-5.7123
4.6953
5.461
-0.46599
-0.81568
-2.5352
-8.4617
15.184
8.1422
-5.6093
-11.335
-13.797
-4.3862
5.6594
11.041
11.681
3.7577
-5.8812
-6.6436
1.7203
5.2712
-5.9177
-3.0331
0.60517
-2.3214
0.10495
-3.1563
6.3534
3.3416
0.3303
-0.089111
2.3838
9.1907
-9.9029
-8.88
3.4395
-5.135
3.7823
0.51053
-4.4355
6.7976
-0.58693
-0.20659
0.15452
1.4981
-4.2554
2.2148
2.1548
-0.50753
-1.5223
0.60105
4.7411
-5.9554
-0.18969
-4.7764
3.4097
7.3418
10.396
-13.805
-1.2747
-1.5543
-3.4749
-10.525
-40.361
-5.3968
66.757
0.583
36.663
26.695
-99.323
47.736
-5.3198
-16.873
-0.58439
-5.1958
29.234
-20.114
-24.889
22.811
58.685
-83.247
25.459
-18.314
-7.4942
74.319
-14.784
-9.0304
-18.493
5.6111
-27.695
11.142
-3.3484
24.239
17.002
-22.742
-13.047
23.328
-16.655
24.103
-74.985
14.491
74.984
-28.589
-45.077
5.558
57.846
-10.674
-15.699
6.6704
-11.447
-20.472
-23.369
83.497
-24.963
-90.363
79.642
47.426
-71.223
37.666
-7.6511
8.5277
-15.063
40.09
-41.644
8.6748
18.258
16.029
-34.125
-28.827
-1.358
-6.1071
15.662
-4.9991
1.934
3.4396
3.5084
-4.1679
5.6624
7.1246
-8.0453
-2.2058
-13.604
2.448
13.585
9.9526
-10.682
43.898
-39.439
-24.905
49.442
-4.8162
-35.775
-14.546
14.21
63.807
23.293
2.7134
18.498
-86.558
-30.169
-5.2487
15.152
3.4201
4.5333
0.99556
-1.8755
-1.844
1.2243
2.024
1.9703
-0.26241
2.013
1.7681
-1.597
-0.16389
0.90821
-1.3075
-0.53556
2.794
-0.43262
-0.94921
0.8293
0.87788
2.4243
-3.0465
-1.0026
-0.81675
-0.0043291
0.025402
1.0296
0.46836
0.5504
-0.46365
1.1831
0.66033
-1.1031
0.11282
-1.8091
2.7519
0.52928
-1.7944
-0.013896
1.1418
-0.051368
0.40845
0.73771
-0.13926
-0.70636
0.01349
-2.6236
4.5931
-0.15562
-3.0548
2.1338
0.66029
-0.68456
-0.44532
0.24123
0.50651
-0.9215
-0.336
0.51252
1.1698
-0.26312
-1.6206
1.2003
0.36271
-0.16539
0.18757
-0.28378
0.36707
0.085556
-0.40251
-0.31123
0.40895
-0.44542
1.0528
-0.46177
1.0071
0.62982
1.0006
-0.37791
-2.1953
-0.18568
-0.57828
-0.16986
-0.8417
-1.1054
1.4777
0.44855
0.26728
0.27109
0.84786
0.89897
-0.11172
-2.1243
-1.6881
0.44392
2.3598
1.9069
-0.94938
1.239
-0.56377
-0.58443
-0.7009
-1.4124
-2.0735
-3.0313
-2.7418
3.0033
10.987
2.201
5.0664
-32.772
9.6577
10.94
-2.043
1.7863
2.1319
0.76842
-0.49964
-1.2152
0.2165
2.018
-0.27091
2.8455
-11.412
-9.6776
-11.679
11.522
60.327
-6.8161
-9.1344
-24.672
-7.5609
24.377
-31.845
3.4854
-10.577
32.116
-59.883
60.932
110.79
-37.687
-79.393
-52.5
-12.561
41.293
25.718
-11.144
85.551
-81.685
0.54984
27.76
-29.569
-36.372
22.362
-154.86
44.48
63.206
-30.748
163.75
-36.659
-21.243
76.818
-127.07
-9.382
93.966
-16.258
-81.463
62.734
65.093
35.341
-42.878
-16.275
-89.345
38.995
-108.04
-136.34
173.7
102.27
-37.139
46.625
-5.3695
-50.637
-29.073
28.106
-25.973
38.322
36.983
-23.658
-87.525
23.187
49.727
3.8609
7.6429
-8.724
41.763
-30.496
-56.763
26.386
-22.388
-4.7515
94.606
4.692
-60.438
10.508
28.026
44.711
