13.56
17.32
21.64
27.2
34.05
41.57
48.7
54.44
58.37
60.84
62.66
64.97
68.44
73.4
79.64
86.58
93.65
100.56
107.62
115.68
125.96
139.46
156.51
176.25
197.17
217.4
235
248.18
255.54
256.71
252.86
245.93
237.81
228.55
215.78
195.38
163.79
120.24
68.29
15.6
-29.55
-60.51
-74.79
-73.86
-61.57
-41.98
-18.43
6.39
30.65
52.67
71.96
88.8
103.77
116.68
125.92
127.98
118.37
93.73
53.03
-1.87
-67.38
-139.73
-215.86
-293.63
-371.19
-446.28
-515.91
-577.23
-628.1
-668.2
-699.07
-721.43
-733.66
-730.46
-703.8
-646.23
-555.64
-437.34
-303.65
-170.58
-52.03
42.87
110.34
148.87
157.19
133.76
80.21
3.93
-82.31
-163.24
-226.69
-267.57
-288.35
-295.19
-293.58
-285.26
-269.2
-245.35
-216.9
-189.97
-169.96
-157.62
-148.02
-132.97
-105.66
-64.47
-14.03
37.63
82.56
115.85
136.75
146.89
148.36
142.29
130.01
113.77
97.7
86.86
85.42
94.97
112.65
131.33
141.55
134.96
107.65
61.88
5.64
-50.52
-97.16
-128.77
-145.14
-149.92
-148.21
-144.23
-139.67
-133.31
-121.59
-100.61
-68.04
-25.1
23.65
71.33
111.44
140.4
158.76
170.22
179.62
190.41
203.2
216.63
228.53
237.5
243.38
247
248.78
248.03
243.37
233.13
216.87
195.93
173.04
151.4
133.66
120.55
111.1
103.14
94.42
83.59
70.94
57.76
45.94
37.08
31.53
28.79
27.57
26.49
24.83
22.46
19.8
17.58
16.32
16.14
17.12
18.95
21.11
23.18
24.75
25.27
24.62
22.75
19.6
15.58
10.88
5.55
-0.31
-6.54
-13.02
-19.25
-24.64
-29.05
-32.22
-34.13
-35.04
-35.08
-34.49
-33.55
-32.49
-31.56
-30.96
-30.49
-29.72
-28.1
-25.49
-22.22
-18.95
-16.55
-15.63
-16
-16.61
-16.41
-14.33
-10.37
-5.85
-2.6
-2.46
-6.25
-13.25
-21.02
-26.94
-29.03
-27.01
-22.74
-19.37
-20.18
-27.47
-42
-62.69
-86.84
-110.09
-126.77
-130.89
-117.97
-87.48
-43.73
4.59
47.58
77.88
93.46
97.7
97.19
98.52
104.45
113.35
119.4
115.22
94.29
52.95
-8.84
-87.53
-175.69
-263.58
-339.95
-394.21
-418.24
-408.38
-366.36
-299.12
-217.55
-133.41
-56.93
5.7
52.82
86.65
111.24
130.34
145.68
156.46
160.7
156.48
143.81
124.7
102.39
80.32
60.88
45.37
33.99
26.82
23.87
25.53
31.82
41.51
52.25
61.2
66.54
68.59
70.12
74.67
85.07
101.73
122.28
142.47
157.99
166.13
166.28
159.77
148.56
134.58
119.12
102.92
86.62
70.9
56.59
44.56
35.39
29
24.92
22.55
21.13
20.5
20.74
21.88
23.95
26.66
29.4
31.54
32.61
32.3
30.64
28.09
25.08
21.94
18.95
16.12
13.46
10.82
8.15
5.45
2.89
0.6
-1.41
-3.09
-4.57
-5.8
-6.89
-7.85
-8.71
-9.38
-9.99
-10.47
-10.66
-10.61
-10.11
-9.28
-8.19
-7.07
-6.06
-5.52
-5.52
-5.73
-5.98
-6.01
-5.62
-4.77
-3.44
-1.73
0.13
2.21
5.06
9.12
14.87
22.53
31.83
42.23
52.69
61.84
69.32
76.12
83.3
92.01
102.76
114.94
127.26
137.65
143.64
144.79
142.94
140.22
138.25
136.98
134.22
126.7
110.06
79.71
34.34
-23.74
-90.67
-161.66
-231.7
-296.13
-348.89
-380.16
-388.92
-379.71
-352.94
-308.97
-247.75
-169.27
-76.33
24.98
121.71
194.84
226.45
205.6
131.33
12.87
-132.26
-285.48
-416.74
-497.72
-516.4
-479.49
-404.38
-308.44
-209.23
-110.33
-16.21
66.54
129.2
165.21
175.95
165.49
146.09
131.73
133.28
152.65
184.4
216.92
237.42
238.53
220.69
191.49
160.65
136.38
121.92
116.83
117.81
120.38
120.87
116.62
106.05
87.5
59.83
23.06
-20
-64.18
-103.25
-131.99
-147.32
-148.9
-138.8
-120.6
-98.12
-74.06
-50.32
-28.14
-8.71
7.03
18.25
24.89
27.11
25.58
21.21
14.73
6.87
-1.98
-11
-19.37
-25.95
-30.02
-31.49
-30.96
-29.61
-28.57
-28.71
-29.79
-30.99
-31.25
-29.3
-24.81
-18.08
-10.19
-2.5
3.86
8.24
10.75
11.88
12.64
13.67
15.37
17.57
19.89
21.83
22.94
22.9
21.5
19.13
16.17
13.38
11.49
11.01
12.03
14.18
16.86
19.57
22.11
24.65
27.5
30.96
34.97
39.05
42.5
44.41
44.31
42.25
39.19
36.5
35.36
35.78
35.87
31.99
19.31
-6.32
-46.79
-100.53
-162.01
-222.82
-273.2
-304.27
-309.98
-288.61
-242.94
-179.21
-105.49
-29.67
41.47
103.32
152.67
187.12
204.38
201.88
177.25
128.81
57.16
-34.5
-139.36
-247.71
-348.51
-431.87
-491.31
-524.42
-531.93
-515.07
-473.96
-407.76
-316.42
-203.76
-78.86
45.17
154.62
239.63
296.05
325.03
330.22
315.61
284.43
240
186.76
130.57
78.21
35.64
6.65
-7.12
-5.89
8.39
32.39
61.48
90.07
113.48
129.45
138.23
142.48
145.06
147.43
149.01
148.34
143.84
135.18
123.53
110.48
97.76
85.98
74.74
62.85
49.54
34.89
19.85
6.1
-5.11
-13.06
-18.2
-21.85
-25.49
-30.11
-35.73
-41.48
-45.95
-48.02
-46.99
-43
-36.98
-29.83
-22.53
-15.53
-8.87
-1.97
5.61
14.05
23.07
31.69
39.04
44.27
47.04
47.46
46.54
45.21
44.29
44.04
44.14
43.86
42.47
39.52
35.29
30.95
27.89
27.12
28.83
32.19
35.65
37.5
36.48
32.36
25.88
18.4
11.31
5.3
-0.68
-9.37
-24.9
-51.68
-92.06
-144.79
-204.36
-261.42
-305.25
-327.02
-322.35
-292.66
-244.33
-186.55
-128.2
-76
-33.11
0.53
26.96
48.89
67.89
83.6
93.19
91.98
74.97
39.03
-15.09
-81.52
-149.43
-205.57
-237.42
-236.43
-200.48
-133.83
-45.63
52.26
147.74
230.48
292.7
330.02
341.77
330.76
302.5
263.75
220.84
178.18
137.65
98.78
59.36
16.87
-30.7
-83.75
-140.55
-197.15
-248.07
-287.58
-310.62
-314.15
-297.28
-261.24
-209.01
-144.83
-74.06
-3.02
61.44
113.29
148.52
166.25
168.89
161.04
148.17
134.75
123.53
115.1
109.04
104.36
100.03
95.43
89.92
83.18
75.12
66.05
56.65
47.74
40.05
33.89
29.32
25.82
22.84
19.89
16.62
13.08
9.54
6.36
3.68
1.61
-0.11
-1.53
-2.72
-3.79
-4.68
-5.25
-5.53
-5.68
-5.58
-5.34
-4.77
-3.58
-1.57
1.31
5.08
9.21
13.07
16.24
18.62
20.52
22.51
25.03
28.39
32.48
36.59
40.07
42.47
43.9
44.95
46.62
49.58
54.3
60.34
66.23
70.45
72
71.11
68.94
67.14
66.53
67.27
68.45
67.45
61.66
49.29
29.94
4.4
-25.83
-58.83
-91.52
-119.96
-141.39
-153.42
-154.04
-141.61
-115.32
-76.41
-27.88
25.84
78.7
120.77
141.39
131.7
87.61
10.89
-92.03
-210.94
-329.24
-422.17
-468.92
-462.43
-412.29
-335.76
-246.86
-153.48
-59.13
32.24
120.34
198.2
255.92
286.15
288.08
268.56
239.62
215.06
202.5
207.61
228.18
255.81
279.21
288.18
276.1
240.59
184.06
113.39
38.56
-31.84
-91.67
-138.12
-171.55
-194.03
-208.09
-214.99
-214.63
-206.76
-193.97
-181.49
-175.43
-180.7
-198.82
-227.56
-261.89
-295.49
-321.4
-333.57
-327.02
-299.74
-254.29
-198.1
-142.23
-97.75
-72.14
-67.91
-83.16
-113.9
-156.5
-207.49
-261.48
-309.85
-340.86
-342.64
-309.14
-242.69
-153.91
-57.92
31.13
104.16
158.12
194.35
215.99
225.55
224.96
215.83
200.72
183.42
168.39
159.84
160.84
172.98
195.61
226.85
263.75
302.75
340.65
374.03
399.49
413.86
414.96
401.8
375.79
340.3
299.61
258.78
221.62
190.29
164.99
144.57
127.35
112.14
98.49
86.36
76.22
67.65
59.9
51.87
42.53
31.49
19.16
6.75
-4.61
-13.8
-20.78
-26.27
-31.36
-36.99
-43.35
-49.88
-55.53
-59.58
-61.57
-62.06
-61.9
-61.73
-61.93
-62.16
-61.65
-59.71
-55.93
-50.14
-42.73
-34.57
-26.43
-19.2
-13.55
-9.72
-7.67
-7.12
-7.71
-9.26
-11.9
-15.81
-21.24
-28.28
-36.9
-46.85
-57.58
-68.5
-78.89
-87.7
-93.71
-95.97
-93.75
-87.05
-76.68
-63.78
-49.65
-35.7
-22.81
-11.73
-3.15
2.64
6.03
7.72
8.99
11.06
14.48
18.96
23.58
27.18
28.98
28.94
27.23
24.56
21.17
17.36
13.09
8.59
4.37
1.06
-0.73
-0.99
0.27
2.31
4.52
6.34
7.53
8.09
7.88
6.77
4.45
0.78
-4.39
-10.93
-18.36
-25.99
-32.92
-38.6
-42.6
-44.82
-45.5
-45.02
-43.83
-42.12
-40.49
-39.21
-38.87
-39.52
-41.14
-43.32
-45.5
-47.28
-48.31
-48.86
-49.08
-49.36
-49.57
-49.81
-49.86
-49.34
-48.01
-45.51
-41.81
-37.03
-31.93
-27.31
-24.24
-23.44
-24.75
-27.28
-29.63
-30.49
-29.33
-26.8
-24.12
-22.51
-22.8
-24.75
-27.61
-30.82
-34.57
-40.01
-49.14
-63.77
-84.71
-111.63
-142.74
-174.67
-202.19
-218.66
-216.78
-191.07
-139.86
-67.3
17.1
100.62
170.79
218.94
241.64
240.57
220.3
185.47
138.65
79.65
7.11
-79.52
-177.45
-279.93
-377.4
-459.53
-517.4
-544.85
-538.8
-498.54
-426.37
-328.08
-212.81
-92
22.32
120.14
195.23
245.19
271.41
277.57
268.68
250.18
227.34
203.74
180.88
158.66
136.25
113.12
89.13
63.99
37.45
10.04
-15.94
-35.9
-43.51
-33.27
-3.58
41.52
92.55
138.17
169.1
181.57
178.12
165.3
150.4
138.51
131.57
128.77
128.64
129.85
132.01
135.24
138.97
141.4
140.13
133.02
119.7
101.86
82.58
65.18
52.03
43.58
38.57
35.11
31.47
26.97
21.88
16.97
12.95
10.28
8.76
7.97
7.56
7.27
7.11
7.25
7.82
8.87
10.53
12.72
15.53
18.95
23.06
27.78
32.79
37.42
40.86
42.48
42.24
40.95
39.8
40.31
43.37
48.67
54.6
58.91
59.56
55.63
47.47
36.31
23.45
9.61
-5.67
-23.98
-47.32
-77.45
-115.46
-161.02
-212.08
-264.45
-311.25
-343.94
-353.98
-335.82
-288.81
-218.63
-135.43
-50.76
25.63
87.63
131.82
155.65
155.34
126.88
68.05
-18.49
-123.1
-230.34
-321.86
-381.47
-399.23
-373.66
-311.24
-223.65
-124.24
-24.68
66.44
144.38
207.1
254.19
286.43
305.69
315.5
320.76
326.77
336.71
350.75
365.64
376.01
376.58
364.17
338.58
302.1
257.99
208.77
156.01
101.02
45.55
-7.25
-53.68
-90.42
-116.01
-131.38
-139.31
-142.74
-143.45
-142.01
-137.83
-130.64
-120.81
-109.56
-98.07
-86.84
-75.51
-63.23
-49.75
-35.62
-22.2
-11.04
-3.06
1.73
4.04
4.79
4.71
4.06
2.81
1.08
-0.99
-3.1
-4.87
-6.2
-7.31
-8.35
-9.39
-10.16
-9.99
-8.18
-4.41
1.11
7.52
13.51
18.09
20.84
21.73
21.2
19.69
17.33
14.1
9.9
4.82
-0.72
-6.15
-11.06
-15.22
-18.81
-22.04
-24.83
-26.95
-27.92
-27.11
-24.49
-20.3
-15.22
-10.14
-5.79
-2.43
0.16
2.14
3.89
5.49
6.91
8.04
8.93
9.74
10.84
12.71
15.33
18.34
21.25
23.47
24.65
24.69
23.55
21.15
17.28
11.78
4.59
-3.91
-13.09
-21.97
-29.87
-36.1
-40.51
-43.12
-44.32
-44.48
-43.82
-42.59
-40.73
-38.12
-34.7
-30.76
-26.63
-23.33
-21.72
-22.08
-24.23
-27.21
-29.59
-30.07
-27.95
-23.17
-16.78
-10.39
-5.25
-2.08
-0.66
-0.04
0.84
2.39
4.04
4.5
1.62
-6.21
-19.95
-39.31
-62.67
-87
-108.05
-120.5
-119.36
-101.99
-69.21
-26.3
18.75
58.07
86.75
104.25
113.09
115.56
110.16
91.15
50.41
-17.66
-111.9
-223.8
-339.49
-443.41
-521.84
-564.99
-566.87
-525.89
-445.42
-333.88
-204.62
-73.45
45.31
142.43
215.03
265.91
300.35
323.64
339.93
351.84
361.4
370.11
378.67
386.39
391.67
392.29
386.25
372.51
350.48
320.01
281.06
233.86
179.43
120.75
62.22
8.85
-34.85
-66.47
-85.9
-94.97
-96.31
-92.69
-85.78
-76.74
-66.58
-56.14
-46.49
-38.07
-30.95
-24.61
-18.6
-12.64
-6.93
-2.18
1
2
0.79
-2.18
-6.18
-10.54
-14.7
-18.45
-21.93
-25.08
-27.88
-30.05
-31.16
-30.86
-29.11
-26.05
-21.97
-17.4
-12.67
-8.32
-4.81
-2.39
-1.16
-0.97
-1.67
-3.09
-5.32
-8.23
-11.63
-14.85
-17.21
-18.16
-17.4
-15.08
-11.52
-7.13
-2.14
3.13
8.34
12.76
15.46
15.87
14.13
11.23
8.76
8.32
10.64
15.6
22.1
28.72
34.16
37.59
38.61
37.3
33.99
29.11
23.19
16.74
10.22
3.92
-2.31
-8.52
-14.77
-21.03
-27.16
-32.86
-38.01
-42.6
-46.49
-49.88
-52.71
-54.99
-57.02
-59.2
-61.75
-64.61
-67.27
-68.72
-68.19
-65.22
-59.98
-53.17
-45.63
-38.09
-31.28
-25.69
-21.78
-19.9
-20.05
-21.93
-24.95
-28.43
-31.95
-35.6
-39.63
-44.19
-49.31
-54.43
-58.73
-61.58
-62.94
-63.57
-64.87
-67.98
-73.26
-80.09
-86.7
-90.71
-90.02
-83.78
-72.62
-58.68
-44.88
-33.93
-27.43
-25.15
-25.2
-24.45
-19.98
-9.96
5.66
24.61
43.2
56.98
62.44
58.24
45.55
28.07
10.59
-2.24
-8.68
-10.98
-15.88
-32.67
-69.78
-131.72
-216.38
-315.04
-413.44
-495.32
-545.51
-553.2
-514.29
-431.9
-316
-181.06
-43.04
83.88
188.92
266.41
315.67
340.19
347.24
346.04
346.23
355.43
377.39
410.67
449.89
487.71
516.85
532.51
532.23
515.64
483.28
435.82
374.03
299.71
216.83
131.21
50.44
-18.6
-71.74
-108.69
-132.58
-148.05
-158.88
-166.51
-170.64
-169.66
-162.65
-150.39
-134.97
-119.01
-104.21
-91.09
-78.97
-67.16
-55.14
-43.32
-32.93
-25.28
-21.58
-21.87
-25.26
-30.24
-35.47
-39.74
-42.43
-43.58
-43.29
-41.87
-39.41
-35.76
-30.77
-24.5
-17.19
-9.44
-2.17
3.63
7
7.54
5.65
2.17
-1.83
-5.28
-7.52
-8.37
-8.16
-7.46
-7.22
-8.25
-11.19
-16.24
-23.19
-31.42
-40.02
-48.23
-55.61
-62.88
-71.52
-83.39
-100.01
-121.58
-146.47
-170.92
-189.58
-196.56
-187.37
-160.13
-116.22
-60.27
1.27
61.38
114.02
154.48
179.08
184.14
165.86
121.02
48.82
-46.85
-156.96
-268.89
-368.55
-443.3
-483.61
-483.9
-442.77
-363.68
-254.82
-128.56
0.46
118.55
215.8
287.21
332.01
351.5
347.58
322.93
281.89
230.99
177.78
128.57
85.87
48.35
12.35
-25.27
-64.59
-102.18
-132.32
-149.39
-149.75
-132.72
-99.57
-53.13
2.77
62.93
120.93
169.67
203.28
219.06
218.3
206.09
189.07
173.19
161.84
155.41
152.07
149.24
144.75
137.41
126.89
113.41
97.26
79.29
60.52
42.52
26.88
14.92
7.22
3.6
3.04
3.94
5
5.35
4.98
4.6
5.12
6.88
9.73
12.7
14.53
14.2
11.32
6.2
-0.28
-7.01
-13.19
-18.41
-22.59
-25.93
-28.73
-31.15
-33.22
-34.81
-35.81
-35.82
-34.75
-32.41
-28.77
-24.03
-18.61
-12.89
-7.35
-2.32
2.15
6.07
9.52
12.31
14.23
15.23
15.63
15.99
17.01
19.3
22.96
27.77
32.66
36.37
38.42
39.07
38.7
38.06
37.95
38.79
40.74
43.13
44.83
45.88
46.94
48.35
50.81
55.19
61.93
71.08
81.13
89.47
95.12
97.53
95.66
88.95
77.75
62.37
42.81
17.01
-18.81
-65.92
-124.17
-192.76
-268.8
-347.23
-421.53
-479.35
-506.17
-505.45
-482.32
-434.45
-362.86
-271.55
-166.9
-56.54
51.9
150.48
232.19
295.75
343.52
378.83
405.35
426.49
444.64
459.89
467.46
457.96
422.92
356.09
254.39
120.41
-36.42
-203.12
-352.51
-454.08
-490.34
-462.74
-387.55
-285.82
-175.24
-70.08
26.67
111.45
177.72
219.25
234.88
230.46
216.73
201.03
191.46
191.82
198.82
202.73
192.7
161.85
110.21
43.66
-29.37
-101.35
-167.6
-226.79
-278.87
-322.16
-352.95
-366.75
-360.96
-336.83
-299.76
-257.38
-217.35
-184.42
-158.31
-134.76
-107.73
-72.18
-27.1
24.45
76.63
122.52
156.66
176.22
180.85
171.64
150.99
121.62
87.56
54.14
26.83
10.37
7.34
16.88
34.67
54.19
67.68
68.55
52.96
20.61
-24.63
-75.34
-121.98
-154.85
-166.09
-152.62
-117.12
-67.32
-14
33.33
69.17
92.55
105.68
110.77
107.92
95.43
72.27
40.19
4.8
-26.69
-48.53
-58.53
-58.65
-53.23
-46.62
-41.18
-37.18
-33.19
-27.88
-20.61
-11.89
-2.73
5.93
13.76
21.17
28.7
36.95
45.98
55.51
64.85
72.98
78.95
82.14
82.43
80.26
76.55
71.92
66.86
61.47
55.56
48.96
41.61
33.64
25.43
17.52
10.27
3.97
-1.24
-5.35
-8.51
-11.09
-13.51
-16
-18.68
-21.63
-24.54
-27.15
-29.29
-30.81
-31.88
-32.73
-33.24
-33.21
-32.62
-31.39
-29.64
-27.65
-25.48
-23.07
-20.38
-17.17
-13.32
-9.02
-4.65
-0.71
2.44
4.79
6.53
7.97
9.35
10.62
11.5
11.6
10.41
7.71
3.88
-0.53
-4.67
-7.94
-9.85
-10.63
-10.26
-9.18
-7.79
-6.13
-4.18
-1.97
0.3
2.47
4.17
5.66
7.36
9.74
13.33
18.17
23.96
29.79
34.75
38.13
39.65
39.33
37.3
34.04
29.81
25.2
20.48
15.66
10.68
5.46
0.07
-5.2
-9.75
-13.48
-16.48
-19.42
-22.81
-26.81
-30.85
-33.99
-35.67
-35.98
-36
-37.09
-40.3
-45.72
-52.55
-59.38
-64.85
-68.14
-69.43
-69.37
-69.06
-69.51
-71.61
-75.75
-81.84
-89.11
-95.94
-100.39
-100.42
-95.28
-85.79
-74.43
-64.42
-58.01
-55.17
-53.52
-48.95
-37.48
-17.14
10.94
42.65
72.48
95.63
109.66
115.04
114.47
111.48
109.11
108.77
110.02
110.32
105.98
92.56
65.89
23.27
-35.42
-106.28
-181.85
-252.04
-306.84
-338.44
-343.39
-322.85
-281.47
-225.9
-162.64
-97.12
-33.5
24.77
74.72
114.11
141.7
157.67
163.04
159.31
147.38
127.56
99.43
62.29
15.98
-38.81
-100.06
-164.89
-229.69
-290.47
-343.41
-384.85
-411.71
-421.2
-411.14
-380.51
-330.3
-264.15
-187.96
-108.96
-33.79
33.04
90.12
138.64
181.28
220.49
256.95
289.72
316.61
335.28
344.14
342.86
331.98
312.9
287.59
257.91
225.99
193.95
164.08
138.37
118
103.23
93.02
85.83
80.01
74.52
69.15
64.37
60.71
58.07
56.03
53.73
50.47
45.87
39.97
32.83
24.54
15.4
5.56
-4.04
-12.48
-18.75
-22.5
-23.92
-23.7
-22.64
-20.9
-18.49
-15.07
-10.88
-6.45
-2.38
0.79
3.4
5.94
9.09
12.9
17.14
21
23.83
25.73
26.96
28.63
31.73
36.94
44.07
52.15
59.48
64.09
64.73
60.88
53.67
45.29
38.52
35.72
37.83
44.01
51.8
58.03
59.7
55.23
44.34
27.67
6.1
-20.33
-52.65
-92.82
-142.66
-202.93
-272.07
-345.81
-417.34
-478.03
-518.93
-532.11
-512.17
-457.32
-370.26
-257.99
-130.84
-0.42
122.36
228.44
310.4
362.12
378.2
354.97
292.77
197.69
82.39
-35.97
-139.66
-214.63
-253.49
-255.84
-226.77
-174.04
-106.03
-30.57
44.84
113.18
168.39
206.14
225.46
228.62
221.01
209.46
200.49
198.62
205.24
218.83
235.16
249.47
257.81
258.89
254.27
247.63
242.97
242.16
244.44
246.31
243.32
231.45
208.52
174.39
130.69
80.37
26.88
-26.27
-76.11
-120.12
-156.83
-185.55
-205.76
-217.39
-220.2
-214.39
-200.68
-180.71
-156.65
-130.68
-104.83
-80.12
-57.25
-36.52
-18.46
-3.52
7.74
15.04
18.75
19.61
18.99
18.04
17.7
18.1
18.92
19.38
18.78
16.85
13.75
10.13
6.39
2.71
-1.15
-5.65
-11.05
-17.25
-23.63
-29.45
-33.83
-36.28
-36.68
-35.21
-32.34
-28.76
-25.15
-22.05
-19.99
-18.88
-18.42
-18.17
-17.72
-17.18
-16.98
-17.89
-20.09
-23.46
-26.97
-29.41
-29.68
-27.25
-22.46
-16.22
-9.81
-4.33
-0.62
1.02
0.69
-1.06
-3.71
-7.02
-10.79
-14.86
-18.92
-22.59
-25.35
-26.83
-26.64
-24.89
-22.07
-19.03
-16.63
-15.4
-15.41
-16.29
-17.28
-17.81
-17.72
-17.2
-17.04
-18.04
-20.71
-24.86
-30.04
-35.35
-40.14
-44.33
-48.41
-53.58
-61.37
-72.79
-87.94
-105.99
-125.1
-142.63
-155.22
-159.17
-151.23
-129.51
-93.97
-47
7.06
62.84
114.47
156.25
182.82
188.98
170.56
125.58
55.58
-33.04
-129.22
-218.98
-288.15
-325.35
-324.96
-287.59
-219.56
-130.76
-31.97
67.2
159.16
238.48
301.38
345.3
369.26
374.15
363.11
341.61
316.04
292.49
275.05
265.05
260.74
258.55
254.31
244.7
228.31
204.84
174.84
138.89
97.41
51.29
2.4
-46.64
-92.67
-132.69
-164.89
-188.46
-203.44
-210.43
-209.91
-202.4
-188.64
-169.48
-146.01
-119.42
-90.93
-61.64
-33.07
-6.65
16.12
33.98
46.23
52.72
53.82
50.33
43.56
34.85
25.76
17.6
11
6.03
2.16
-1.36
-5.06
-9.41
-14.59
-20.74
-27.65
-35.07
-42.05
-47.22
-49.17
-46.63
-39.54
-28.67
-15.63
-1.91
11.07
22.63
32.42
40.01
45.25
47.64
47.04
43.35
37.2
29.21
20.17
10.87
1.47
-7.83
-17.15
-26.46
-35.7
-44.35
-51.83
-57.39
-60.38
-60.9
-59.05
-55.23
-49.72
-42.88
-35.1
-26.95
-19.08
-12.14
-6.72
-2.95
-0.64
0.54
0.99
0.6
-0.78
-3.56
-7.82
-13.64
-20.6
-28.27
-36.28
-44.19
-51.73
-58.39
-63.77
-67.19
-68.63
-68.21
-66.74
-65.43
-65.22
-66.97
-70.78
-76.45
-83.18
-90.2
-96.65
-101.7
-104.57
-104.56
-101.45
-95.5
-87.62
-78.94
-70.42
-62.23
-53.66
-43.42
-30.81
-16.68
-3.41
6.01
9.63
7.8
3.6
1.73
6.3
19.11
38.51
59.78
76.76
83.6
76.32
53.58
17.33
-27.72
-74.56
-115.07
-141.89
-149.8
-136.86
-104.16
-55.58
3.47
67.03
129.26
184.99
230.03
261.68
279.22
284.09
279.22
268.12
253.87
238.2
221.68
203.76
183.89
161.65
136.97
109.62
79.07
45.01
7.56
-31.64
-69.97
-104.2
-131.81
-151.46
-163.22
-167.97
-166.48
-159.39
-146.97
-129.8
-109.06
-86.42
-63.43
-41.16
-19.94
0.82
21.58
42.41
62.63
80.85
95.72
106.14
111.72
112.61
109.43
102.84
93.25
81
66.1
49.13
31.09
13.15
-3.5
-18.27
-31.24
-42.95
-53.5
-62.45
-68.41
-69.62
-65.05
-54.61
-39.58
-22.18
-4.81
10.81
23.52
32.88
38.94
41.81
41.88
39.71
36.16
32.16
28.55
25.69
23.28
20.91
17.91
14.14
9.53
4.23
-1.45
-7.55
-14.06
-21.35
-29.34
-38.22
-47.72
-57.64
-67.64
-77.1
-85.55
-92.28
-97.13
-99.82
-100.71
-100.23
-98.99
-97.81
-97.14
-97.42
-98.63
-101.11
-104.66
-108.94
-113.2
-116.24
-116.78
-113.68
-106.98
-97.27
-86.34
-76.19
-68.05
-61.98
-56.3
-48.43
-35.54
-16.49
8.15
36.2
64.61
90.89
113.22
131.04
143.8
151.26
152.8
147.97
136.96
120.02
97.64
69.8
37.08
0.82
-35.68
-67.39
-88.76
-95.18
-84.76
-58.57
-20.75
23.36
68.07
108.07
138.76
156.25
158.01
143.31
114.42
75.82
33.27
-8.09
-45.63
-79.4
-111.34
-143.51
-176.6
-208.86
-236.76
-256.3
-263.87
-257.63
-237.52
-205.15
-163.54
-116.36
-67.3
-19.16
26.19
67.89
105.44
138.34
165.93
187.28
201.92
209.68
210.92
206.31
196.66
182.78
165.8
147.2
128.46
111.07
95.94
83.18
72.43
62.81
53.38
43.4
32.68
21.37
10.27
0.27
-8.03
-14.27
-18.71
-21.89
-24.4
-26.51
-28.29
-29.2
-28.76
-26.81
-23.27
-18.76
-13.97
-9.63
-6.33
-4.28
-3.26
-2.85
-2.64
-2.14
-1.16
0.34
2.24
4.41
6.61
8.51
9.62
9.44
7.95
5.21
1.93
-1.03
-2.89
-3.26
-2.28
-0.41
1.63
3.57
5.08
6.18
6.93
7.26
6.98
5.78
3.47
-0.16
-5.11
-11.56
-19.75
-30.08
-42.96
-58.49
-76.53
-96.41
-117.25
-137.47
-154.82
-166.18
-168.15
-157.91
-133.9
-97.17
-51.24
-2.01
43.31
77.69
95.21
92.39
68.46
26.11
-28.68
-87.37
-140.02
-177.59
-193.59
-185.73
-155.42
-107.35
-47.97
16.03
78.55
134.75
181.2
216.19
239.68
253.58
260.91
264.6
266.28
265.84
261.71
251.88
235.4
212.96
187.23
161.96
140.49
124.89
115.38
111.06
110.28
111.17
112.42
113.66
115.43
117.99
120.77
121.87
119.06
109.8
91.86
64.66
29.86
-9.08
-48.6
-86.49
-122.08
-154.99
-185.07
-212.44
-235.99
-252.16
-254.83
-236.73
-192.19
-119.63
-24.3
78.9
166.79
214.79
205.97
136.85
17.77
-132.67
-293.89
-439.86
-541.24
-577.68
-549
-472.51
-370.54
-260.15
-153.11
-57.44
21.09
77.62
109.27
116.77
105.69
84.99
64.11
48.95
42.35
45.04
55.24
70.4
88.48
109.29
134.03
164.39
198.87
233.68
264.1
284.59
290.75
280.35
254.32
213.55
165.28
115.41
68.31
26.98
-7.55
-35.35
-56.87
-72.59
-82.44
-86.55
-86.32
-82.97
-78.69
-75.23
-74.39
-77.27
-84.51
-95.31
-108.01
-123.2
-137.56
-148.87
-154.29
-151.65
-139.61
-117.7
-86.8
-49.03
-7.94
32.75
68.15
94.91
110.62
114.1
106.05
88.89
66.04
41.37
19.14
1.93
-8
-9.85
-4.4
6.57
20.25
33.75
44.09
52.53
56.32
53.71
44.49
29.54
11.1
-8.57
-27
-42.08
-52.64
-59.25
-62.62
-63.92
-64.46
-64.86
-65.54
-66.15
-65.84
-64.1
-61.76
-59.56
-58.6
-59.87
-63.6
-69.08
-74.84
-79.47
-82.13
-83.09
-83.22
-83.55
-85.22
-89.2
-96.18
-106.32
-118.69
-130.55
-137.95
-136.8
-124.95
-104.07
-80
-60.23
-50.86
-53.75
-66.49
-82.22
-93.83
-96.39
-88.04
-69.62
-42.82
-9.68
27.75
66.93
104.6
136.87
160.44
173.24
175.31
168.79
156.85
142.86
129.8
118.93
110.09
102.2
93.91
84.43
73.72
62.12
49.97
38.17
26.95
16.48
6.81
-2.18
-10.15
-16.59
-21.06
-23.42
-23.65
-22.68
-21.68
-22.3
-26.37
-35.46
-50.51
-71.66
-97.83
-126.57
-154.53
-177.6
-191.56
-192.88
-178.74
-147.99
-101.8
-43.92
20.16
84.14
142.3
190.44
225.9
247.95
257.12
255.03
244.07
227.06
206.85
186.02
166.44
149.07
134.07
120.59
107.67
94.67
81.6
69.18
58.45
50.26
44.77
41.27
38.37
34.61
29.11
22.13
14.95
9.37
6.85
7.7
10.79
14.02
15.3
13.39
8.58
2.44
-2.92
-5.63
-4.71
-0.21
6.71
13.49
16.33
10.92
-5.88
-34.27
-70.64
-108.21
-139.53
-159.4
-166.81
-164.72
-158.37
-152.52
-149.4
-147.81
-144.03
-133.6
-113.64
-84.34
-49.14
-13.74
15.89
36.01
46.42
49.54
48.93
47.31
45.45
43.09
40.17
37.77
38.38
44.56
57.07
74.24
92.84
108.39
117.61
119.38
114.66
105.85
95.45
85.07
74.9
64.05
51.47
36.92
21.25
6.31
-5.73
-13.26
-15.6
-13.16
-7.32
-0.04
6.42
9.52
6.93
-2.65
-18.77
-38.88
-58.81
-74.42
-83.13
-84.41
-79.88
-72.3
-64.18
-57.13
-51.66
-47.65
-44.97
-43.65
-43.64
-44.63
-45.97
-46.81
-46.36
-44.08
-40.11
-35.06
-29.86
-25.35
-21.79
-18.99
-16.28
-12.92
-8.38
-2.75
3.42
9.22
13.96
17.24
18.97
19.57
19.49
19.15
18.79
18.46
17.18
14.61
10.81
5.97
0.66
-4.62
-9.42
-13.55
-16.99
-19.91
-22.41
-24.59
-26.69
-28.7
-30.65
-32.58
-34.46
-36.23
-37.78
-38.98
-39.7
-40.09
-40.35
-40.82
-41.86
-43.51
-45.54
-47.39
-48.39
-47.86
-45.35
-40.65
-33.8
-25
-14.44
-2.46
10.68
24.62
38.87
52.75
65.46
76.04
83.57
87.35
86.98
82.55
74.81
64.84
54
43.66
35.04
28.99
26.05
26.25
29.18
34.2
40.28
46.32
51.2
54.21
54.95
53.48
49.97
44.86
38.53
31.38
23.81
16.11
8.55
1.36
-5.33
-11.45
-16.83
-21.28
-24.55
-26.37
-26.55
-25.18
-22.6
-19.43
-16.41
-14.11
-12.89
-12.69
-13.05
-13.26
-12.78
-11.31
-8.82
-5.55
-1.61
3.01
8.41
14.71
21.86
29.52
37.2
44.46
51.04
56.96
62.42
67.72
73.16
79
85.43
92.59
100.43
108.51
116.26
122.98
128.24
132.13
135.09
137.7
140.22
142.29
142.65
140.02
133.59
123.61
111.74
100.43
92.07
87.93
87.68
89.24
89.91
87.48
81.08
71.64
61.29
52.52
47.29
46.46
49.29
53.68
56.06
51.86
36.64
7.7
-34.05
-83.18
-130.68
-167.08
-185.91
-186.73
-175.44
-161.57
-154.36
-159.22
-176.38
-201.95
-230.64
-257.91
-280.88
-298.04
-308.03
-309.34
-300.67
-282.08
-255.48
-224.54
-193.38
-165.24
-141.74
-122.88
-107.79
-95.83
-87.19
-82.73
-83.58
-90.38
-102.5
-117.81
-132.76
-142.86
-143.68
-131.98
-106.77
-69.86
-25.71
19.65
60.22
91.49
111.33
120.2
120.48
115.35
107.84
100.02
92.66
85.64
78.33
70.3
61.49
52.39
43.62
35.59
28.18
20.82
12.84
3.76
-6.19
-16.33
-25.61
-33.02
-37.6
-38.66
-35.78
-28.78
-18.03
-4.48
10.55
25.6
39.47
51.49
61.37
68.96
73.96
75.8
73.84
67.94
58.71
47.37
35.42
24.08
14.07
5.58
-1.25
-6.17
-8.64
-8.24
-5.07
-0.04
5.33
9.65
12.27
13.91
16.35
21.7
31.39
45.26
61.46
76.75
87.53
91.12
86.33
73.96
56.2
36.07
16.42
-0.35
-12.71
-19.85
-21.62
-18.53
-11.74
-3.14
5.11
10.72
12.23
9.14
2.36
-6.3
-14.55
-20.41
-22.68
-20.99
-15.93
-8.58
-0.26
7.74
14.29
18.51
20.05
18.91
15.65
11.05
5.88
0.57
-5.02
-11.36
-18.9
-27.46
-36.17
-43.4
-47.41
-46.86
-41.33
-31.41
-18.54
-4.68
8.19
18.12
23.82
24.83
21.73
15.91
9.2
3.17
-1.34
-4.24
-5.89
-6.57
-6.19
-4.43
-1.13
3.25
7.68
10.77
11.37
9.12
4.53
-1.3
-7.14
-12.03
-15.49
-17.29
-17.38
-15.68
-12.32
-7.66
-2.68
1.35
3.19
2.05
-1.99
-8.04
-14.67
-20.52
-24.69
-26.94
-27.62
-27.38
-26.8
-26.25
-25.83
-25.49
-25.09
-24.72
-24.47
-24.52
-25.01
-26.03
-27.54
-29.35
-31.13
-32.43
-32.78
-31.74
-29.14
-25.24
-20.65
-15.99
-11.6
-7.37
-2.79
2.85
10.18
19.6
30.86
43.36
56.15
68.53
79.99
90.44
99.83
108.19
115.49
120.96
123.51
122.15
116.72
107.81
96.93
85.86
76.7
71.55
70.81
74.15
80.97
91.07
104.23
119.99
137.18
154.66
171.55
184.62
190.54
187.72
177.63
164
150.57
138.72
126.85
111.18
83.75
38.24
-25.52
-99.63
-171.85
-231.21
-272.33
-295.12
-302.51
-302.84
-304.6
-314
-334.15
-367.57
-418.1
-489.1
-579.68
-652.77
-670.67
-615.72
-503.62
-367.82
-235.99
-121.55
-26.99
50.69
115.55
165.91
197.84
210.78
209.88
203.62
200.88
205.37
217.14
233.84
248.61
252.8
241.91
217.3
184.77
151.76
125.2
110.85
112.19
128.38
153.37
180.61
205.01
223.68
236.2
243.97
249.62
247.77
247.54
242.42
227.36
200.26
163.67
123.94
88.79
63.82
50.1
43.86
35.91
19.65
-6.84
-40.13
-74.28
-104.11
-127.68
-145.78
-158.97
-167.82
-169.23
-159.32
-136.29
-103.02
-66.85
-37.27
-22.6
-26.52
-48.08
-80.72
-115
-140.99
-151.33
-142.47
-115.53
-75.91
-31.59
8.49
37.36
51
48.91
32.91
6.23
-27.64
-65.47
-103.95
-139.54
-168.34
-187.23
-194.5
-191
-179.92
-165.57
-152.08
-142.17
-136.4
-133.7
-132.34
-131.03
-129.7
-129.27
-131.06
-136.29
-145.4
-157.49
-170.06
-179.59
-181.98
-173.46
-151.3
-114.47
-64.13
-3.38
63.58
132.84
201.69
267.85
329.29
383.22
425.94
452.78
459.77
445.01
409.12
355.03
285.9
206.36
124
49.8
-4.02
-27.35
-15.43
29.56
99.36
180.39
259.86
329.7
386.48
427.6
448.56
444.08
411.76
354.86
277.88
188.34
96.24
11.84
-58.47
-114.34
-159.02
-196.26
-228.29
-263.15
-309.72
-372.3
-448.68
-533.28
-620.71
-706.55
-787.32
-821.75
-780.8
-668.17
-518.15
-366.56
-231.24
-113.81
-9.06
88.39
179.5
261.8
327.28
370.77
394.12
404.05
408.54
415.98
418.44
415.63
407.29
390.55
361.96
319.37
261.99
190.21
107.52
21.6
-63.67
-144.07
-217.5
-282.36
-337.81
-384.98
-427.19
-468.58
-482.92
-460.13
-400.74
-316.85
-223.84
-133.46
-51.18
22.67
90.43
154.54
211.71
261.57
301.16
327.76
340.75
342.03
334.08
319.18
298.95
262.94
213.9
156.94
97.84
42.1
-5.7
-42.44
-66.84
-79.19
-83.22
-81.19
-76.43
-71.6
-67.87
-65.12
-62.71
-59.97
-56.38
-52.63
-48.27
-43.87
-40.16
-37.46
-35.55
-34.16
-32.93
-31.61
-30.45
-28.91
-27.03
-25.26
-23.88
-22.92
-22.25
-21.68
-21.29
-21.08
-20.74
-20.3
-20.47
-22.29
-26.61
-34.13
-44.99
-59.33
-76.67
-97.03
-117.29
-134.59
-146.54
-150.74
-145.5
-129.64
-103.36
-68.38
-27.47
16.14
58.65
96.36
126.32
146.5
156.36
156.61
148.51
134.37
116.76
98.04
80.37
65.11
53.14
45.06
41.56
42.64
48.11
57.11
68.75
82.14
95.48
107.22
116.28
122.77
126.84
129.02
129.3
127.93
125.76
122.33
117.97
113.56
110.93
111.43
115.15
120.4
124.24
123.5
112.29
89.13
53.87
8.84
-42.2
-95.6
-148.29
-197.72
-241.43
-280.05
-313.29
-340
-358.64
-368.8
-372.79
-375.48
-382.61
-379.73
-360.39
-326.69
-288.53
-255.62
-230.57
-208.43
-180.7
-140.26
-85.66
-24.79
31.17
72.38
94.32
98.4
89.59
73.34
53.43
30.87
3.19
-30.85
-69.38
-110.07
-146.72
-173.91
-188.48
-189.23
-176.28
-151.45
-116.18
-71.34
-15.77
46.2
108.93
166.67
214.61
249.66
270.33
277.46
273.53
262.25
247.11
230.85
214.95
199.8
185.27
170.91
156.83
142.99
129.75
117.38
106.21
96.26
87.3
79.07
71.18
63.66
56.5
49.69
43.24
37.4
32.27
27.95
24.54
21.96
20.54
20.59
22.24
25.53
30.64
37.37
45.25
54.7
63.54
70.35
73.88
73.14
67.85
58.16
44.63
28.53
11.31
-5.76
-21.14
-33.42
-41.83
-45.63
-44.89
-40.58
-34.23
-27.85
-23.87
-24.12
-29.55
-39.9
-53.42
-67.45
-79.47
-87.3
-89.92
-87.5
-80.88
-71.41
-60.1
-47.31
-33.06
-17.82
-2.75
9.64
16.86
17.12
9.96
-2.97
-17.95
-30.7
-37.88
-36.55
-27.74
-11.79
8.82
29.37
43.37
45.44
33.44
9.03
-21.04
-48.73
-67.39
-74.2
-70.71
-61.47
-50.87
-41.34
-31.37
-18.23
0.45
25.39
55.24
86.16
112.56
128.41
129.39
114.38
85.62
46.93
2.66
-42.93
-85.09
-118.9
-140.19
-145.86
-135.27
-110.09
-76.39
-41.27
-8.43
22.32
55.52
92.43
134.08
179.24
225.76
267.07
293.64
297.67
274.74
225.07
153.55
70.45
-18.26
-91.69
-130.57
-132.77
-113.71
-93.2
-84.21
-89.24
-101.12
-110.73
-111.33
-103.58
-93.2
-85.61
-81.44
-77.11
-68.9
-54.06
-32.53
-6.51
19.72
42.11
60.01
75.87
94.59
117.85
143.65
167.82
185.25
190.64
180.57
155.2
115.7
70.14
25.14
-13.88
-43.17
-61.08
-69.02
-71.3
-73.06
-77.82
-86.27
-96.81
-105.84
-110.06
-108.52
-103.26
-98.01
-95.94
-97.23
-99.66
-100.72
-98.74
-93.76
-87.54
-82.25
-79.34
-79.28
-81.34
-84.55
-88.37
-91.72
-92.55
-87.82
-74.53
-51.51
-20.74
12.76
42.6
63.54
73.63
74.51
69.96
63.64
57.61
52.16
46.81
41.35
36.41
32.98
31.64
32.11
33.26
33.88
32.99
30.52
26.99
23.27
20.21
18.24
17.38
17.31
17.55
17.61
17.22
16.13
14.39
12.16
9.94
8.04
6.85
6.4
6.42
6.74
7.31
8.33
9.6
10.16
8.3
2.54
-7.21
-18.83
-28.59
-32.78
-29.64
-20.4
-8.6
1.67
7.92
10.05
9.79
9.17
9.16
9.37
8.78
6.79
3.84
1.06
-0.4
-0.19
1.42
3.22
4.07
3.34
1.19
-1.57
-4.02
-5.41
-5.67
-5.42
-5.8
-8.14
-13.42
-21.73
-32.36
-44.29
-56.23
-67.22
-76.59
-83.9
-88.77
-90.98
-89.59
-83.54
-72.05
-54.98
-33.36
-9.2
14.89
36.22
52.84
64.24
71.2
75.28
78.14
80.57
82.31
82.55
79.98
73.71
63.81
51.25
37.45
23.97
12.12
2.88
-2.66
-4.4
-4.03
-4.98
-11.27
-25.41
-46.14
-67.82
-82.88
-84.7
-70.81
-44.19
-11.91
18.29
41.02
54.16
58.3
55.48
48.16
38.39
28.56
21.15
18.8
23.46
35.89
54.67
76.95
99.24
118.28
131.76
138.65
139.12
132.91
120.32
102.1
79.23
53.43
26.67
0.69
-22.73
-43.05
-60.55
-76.5
-92.11
-109.1
-128.85
-151.99
-177.64
-202.78
-222.77
-232.18
-228.75
-210.83
-181.09
-144.74
-107.41
-72.89
-42.14
-14.46
11.26
35.09
56.13
72.01
81.76
86.13
87
86.69
86.47
86.13
83.36
74.06
54.01
21.79
-19.44
-61.45
-92.73
-103.7
-89.86
-53.14
-1.02
56.68
111.81
159.62
197.16
222.21
232.39
225.23
199.74
156.6
98.29
29.1
-46.01
-122.64
-197.41
-267.7
-331.02
-383.28
-418.58
-430.53
-415.04
-373.34
-312.78
-245.11
-182.88
-135.37
-106.08
-93.19
-91.44
-95.48
-101.98
-109.43
-116.93
-123.36
-126.67
-124.2
-114.95
-99.32
-79.36
-58.78
-41.32
-29.07
-22.24
-19
-16.12
-10.42
-0.13
14.59
31.82
48.8
63.72
76.15
87.12
98.22
110.4
123.47
136.12
147.59
158.15
168.97
180.38
191.08
199.27
203.83
207.08
214.33
232.22
264.43
308.27
353.87
388.42
403.23
396.54
375.24
350.85
335.74
337.72
358.14
391.89
430.4
465.22
486.78
486.02
454.81
390.62
297.26
185.54
71.43
-35.66
-121.19
-173.35
-180.04
-145.66
-80.93
-1.15
81.14
157.46
224.1
282.69
334.82
379.38
409.54
415.99
390.53
331.15
244.5
144.15
47.26
-33.08
-90.49
-127.6
-150.21
-164
-171.46
-173.28
-171.89
-171.82
-180.03
-201.02
-237.83
-288.54
-347.81
-407.43
-460.22
-503.27
-535.71
-557.92
-567.46
-564.86
-554.08
-542.94
-538.36
-543.28
-557.04
-574.23
-588.94
-595.2
-596.06
-600.75
-619.16
-653.03
-677.46
-664.66
-592.72
-482.08
-349.8
-212.72
-76.19
50.96
161.36
249.82
310.37
339.36
336.83
311.49
272.42
226.84
178.1
128.5
80.09
33.48
-10.14
-48.28
-74.6
-84.64
-76.19
-49.97
-7.13
50.52
118.45
190.22
259.15
321.8
374.94
416.59
445.32
461.19
465.68
460.42
447.25
427.93
405.99
384.78
367.81
358.05
358.03
369.4
391.54
420.93
451.35
476.08
489.78
491.17
482
465.84
446.09
424.31
399.96
371.68
338.53
300.8
259.9
215.71
166.08
108.12
40.76
-33.74
-109.09
-177.44
-231.61
-267.5
-287.02
-296.31
-303.89
-317.33
-341.68
-378.23
-425.6
-479.54
-533.04
-580.46
-617.6
-644.8
-667.42
-694.77
-735.43
-794.39
-869.45
-932.96
-954.72
-909.5
-789.43
-607.46
-390.87
-166.63
46.14
237.91
405.41
543.8
652.73
729.21
770.93
778.4
755.84
708.11
640.17
556.45
457.93
343.86
216.73
82.91
-48.35
-166.53
-265.01
-341
-395.17
-432.63
-459.71
-482.65
-505.36
-529.73
-541.46
-529.24
-487.23
-416.08
-323.71
-220.77
-116.96
-18.44
70.47
147.93
211.97
261.08
296.07
319.87
336.82
350.97
368.65
389.52
410.29
425.03
427.71
413.75
380.9
329.54
257.92
175.1
93.08
24.33
-22.89
-46.76
-51.73
-46.39
-39.95
-38.23
-41.86
-49.5
-58.66
-68.25
-79.69
-95.2
-115.88
-141.23
-168.24
-192.77
-212.57
-228.07
-238.39
-243.01
-240.71
-230.01
-209.77
-179.71
-140.94
-97.17
-53.47
-14.94
13.95
30.87
35.67
30.08
17.14
0.35
-17.78
-35.26
-50.75
-63.76
-73.86
-80.86
-84.8
-85.71
-83.78
-79.8
-74.41
-68
-63.12
-60.95
-61.95
-66.16
-73.12
-82.2
-92.58
-103.29
-113.41
-122.31
-129.16
-133.39
-134.8
-133.36
-129.36
-123.24
-115.5
-106.67
-97.33
-87.54
-77.32
-66.6
-55.22
-42.96
-29.77
-15.84
-1.68
11.88
24.1
34.25
41.88
46.97
50.01
51.74
52.94
54.21
55.82
57.88
60.47
63.84
68.53
75.34
84.94
97.54
112.57
128.85
144.83
159.26
171.62
182.51
193.33
205.81
221.21
239.69
260.53
282.25
303.26
322.42
339.39
354.58
368.99
384.34
402.46
424.45
449.45
473.42
489.03
487.5
461.6
408.95
333.73
245.75
156.97
77.45
12.23
-39.06
-80.26
-115.79
-148.57
-179.52
-208.48
-235.01
-258.54
-277.47
-288.67
-288.06
-272.41
-241.44
-198.93
-151.73
-107.3
-70.96
-44.38
-25.98
-12.62
-1.65
8
16.12
21.7
24.03
23.08
19.42
13.94
7.78
2.02
-2.14
-3.27
-0.05
8.57
22.91
42.06
63.81
85.18
103.59
118.04
129.73
141.34
155.75
174.34
196.27
218.78
238.47
252.69
260.27
261.56
257.66
249.68
237.97
222.03
200.74
173.09
138.61
97.96
53.06
6.78
-37.7
-77.82
-111.66
-138.19
-156.9
-168.33
-174.73
-180.05
-188.96
-204.87
-227.93
-254.42
-278.73
-296.6
-308.11
-318.02
-333.12
-358.15
-392.57
-430.42
-462.66
-480.76
-479.29
-456.71
-415.07
-359.33
-297.16
-237.74
-189.87
-158.98
-144.67
-140.25
-134.92
-118.57
-85.32
-36.09
22.53
81.4
131.92
168.51
189.19
194.64
187.01
169.52
146.19
122.22
102.39
89.04
80.7
72.4
58.2
35.08
6.09
-19.61
-29.52
-14.27
27.76
89.79
160.04
227
283.78
329.17
365.96
399.17
432.2
466
499.87
533.01
565.24
596.9
627.52
654.06
672.21
674.44
651.69
596.49
506.97
389.21
256.4
125.16
1.35
-107.56
-196.16
-261.99
-305.28
-327.65
-331.61
-320.53
-296.43
-265.48
-233.47
-205.44
-185.73
-177.82
-183.35
-202.76
-236.73
-284.23
-343.6
-410.42
-476.3
-530.11
-560.59
-558.61
-520.41
-448.16
-349.63
-236.39
-119.65
-8.13
94.86
187.27
266.99
331.9
380.15
409.46
417.79
394.89
338.21
249.74
135.25
3.47
-134.71
-266.53
-383.65
-481.26
-555.41
-603.79
-628.27
-634.15
-627.45
-612.7
-585.69
-537.63
-464.48
-366.9
-250.66
-126.42
-6.24
100.26
187.67
254.31
299.87
325.23
332.6
325.75
308.96
286.71
263.26
242.08
225.19
211.93
200.35
188.54
175.39
160.67
145.18
130.36
117.75
108.36
101.96
97.38
93.31
88.69
83.01
76.35
69.38
62.97
57.81
54.1
51.71
50.44
49.93
49.63
48.6
45.59
39.33
28.96
14.5
-2.87
-20.99
-37.26
-49.42
-56.21
-57.57
-54.54
-48.95
-42.74
-37.63
-34.72
-34.54
-37.01
-41.72
-47.9
-54.5
-60.42
-64.52
-66.14
-65.12
-61.77
-56.9
-51.51
-46.29
-41.2
-35.68
-28.69
-19.26
-7
8.11
25.53
44.09
62.19
78.28
90.24
96.06
94.37
84.11
65.22
38.62
6.36
-28.72
-62.81
-92.4
-114.19
-125.78
-126.31
-116.32
-97.78
-72.71
-46
-20.55
0.62
15.43
23.22
24.39
20.49
13.8
6.66
1.5
0.45
4.39
13.08
25.35
38.98
51.7
61.6
66.99
67.18
62.68
54.92
45.89
38.21
33.76
34.28
40.73
53.02
70.28
90.91
112.83
133.86
152.1
165.41
172.8
174.33
170.55
162.81
152.65
141.63
131.43
123.61
118.08
114.69
113.2
112.9
113.09
112.64
109.82
101.89
93.11
84.09
75.01
65.85
56.65
47.56
39.04
31.78
26.7
24.94
26.52
31.6
40.08
51.6
65.48
80.68
96
110.27
122.34
130.55
133.77
131.53
123.86
111.45
95.25
76.5
56.47
36.2
15.95
-4.26
-24.46
-44.72
-65.09
-85.48
-105.7
-125.55
-144.95
-164.15
-183.48
-203.14
-223.07
-242.94
-262.08
-279.73
-295.17
-308.02
-318.31
-326.43
-333.45
-341.06
-351.15
-365.06
-382.64
-401.53
-417.35
-424.78
-419.5
-399.43
-365.15
-319.02
-263.55
-200.55
-131.21
-56.8
20.37
96.57
167.09
226.71
270.24
293
291.34
263.56
210.99
138.56
53.49
-35.69
-121.06
-196.68
-258.83
-305.12
-333.75
-343.44
-333.99
-307.23
-266.4
-215.72
-160.04
-104.61
-54.74
-14.82
13.42
31.93
45.88
63.63
93.69
141.01
204.52
277.27
349.25
411.01
456.24
480.08
483.32
471.78
452.72
430.81
405.98
374.43
331.24
273.45
196.5
103.15
3.66
-89.37
-167.49
-228.85
-275.29
-309.55
-333.59
-357.58
-387.05
-420.9
-454.43
-484.97
-513.35
-540.41
-564.82
-583.14
-602.78
-626
-647.28
-657.98
-654.73
-641.26
-624.79
-612.26
-534.63
-371.03
-157.68
43.75
195.88
294.29
350.72
379.44
392.13
396.79
386.58
358.33
318.54
280.49
255.83
250.67
265.52
296.19
334.51
362.18
367.3
350.08
319.87
286.68
256.28
229.48
204.47
178.8
145.44
102.51
54.81
10.44
-25.95
-51.68
-66.83
-72.43
-69.09
-59.73
-45.79
-27.01
-3.02
24.58
52.33
76.05
92.28
99.22
95.94
83.67
64.9
42.71
19.48
-3.39
-25.5
-46.82
-67.29
-86.63
-103.98
-118.91
-131.2
-140.71
-147.24
-150.62
-150.53
-146.11
-139.07
-130.04
-119.51
-107.82
-95.29
-82.01
-68.19
-54.04
-39.67
-25.23
-10.49
4.81
21.19
39.2
59.37
81.78
105.88
130.56
154.31
175.74
193.74
207.72
217.64
224.19
228.74
233.13
239.36
248.89
261.78
275.99
287.74
292.59
287.16
270.36
243.7
210.81
175.79
142.43
113.01
88.58
69.29
54.78
44.38
37
31.64
27.41
24.28
22.58
22.97
25.58
30.2
36.03
41.98
47.14
50.75
52.64
53.05
52.75
52.35
52.28
52.2
50.66
45.62
34.98
17.94
-4.41
-29.13
-52.57
-71.76
-85.3
-93.49
-97.57
-98.62
-96.77
-91.49
-82.3
-69.6
-55.1
-41.09
-29.45
-20.86
-14.89
-10.46
-6.79
-3.86
-2.16
-2.22
-4.21
-7.8
-12.46
-18.06
-24.7
-32.74
-42.19
-52.24
-61.34
-67.5
-69.1
-65.52
-57.35
-46
-33.37
-21.02
-10.08
-1.33
4.75
7.64
6.7
1.42
-8.51
-23.06
-41.69
-63.44
-86.75
-109.3
-127.87
-138.89
-138.98
-126.14
-100.39
-64.04
-21.24
23.13
64.75
100.73
129.62
151.13
165.05
171.06
168.66
157.74
139.18
115.21
89.38
65.29
46.01
32.63
24.61
20.13
17.44
15.73
15.01
15.94
18.66
22.75
27.29
32.17
38.35
47.1
58.22
68.4
72.03
63.58
41.06
7.57
-29.83
-64.02
-91.81
-115.71
-142.32
-177.63
-223.48
-276.02
-327.83
-372.01
-404.48
-424.14
-430.27
-420.64
-391
-337.97
-262.21
-170.15
-73.46
14.82
84.55
131.76
158.62
171.55
177.34
180.81
183.86
185.62
184.3
178.67
169.09
157.64
147.65
141.89
141.37
144.86
149.32
151.75
150.69
146.7
141.4
136.08
130.22
121.73
108.55
89.99
68.04
46.16
27.59
13.37
2.14
-9.15
-23.38
-41.76
-63.35
-85.27
-104.03
-116.71
-122.06
-120.45
-113.48
-103.02
-89.94
-73.97
-53.99
-29.48
-1.9
25
46.43
58.64
60.68
54.87
45.21
35.54
27.91
22.69
19.45
18.05
18.81
21.78
26.29
30.61
33.06
32.91
31.03
29.39
29.93
33.81
41.05
50.85
61.9
72.5
80.82
85.14
84.43
78.92
70.03
59.86
50.12
41.65
34.43
28.12
22.75
18.83
16.83
16.69
17.56
18.06
16.78
12.85
5.79
-4.44
-17.87
-34.28
-53.08
-73.1
-93.16
-112.51
-131.49
-151.11
-172.08
-193.84
-213.43
-226.1
-226.4
-209.81
-174.05
-119.21
-47.78
36.25
127.43
219.32
304.97
377.44
430.97
461.83
468.81
452.8
416.57
364.13
300.58
231.61
162.58
97.84
39.52
-12.43
-59.65
-103.85
-145.4
-182.47
-211.79
-230.38
-237.25
-234.86
-228.26
-223.53
-225.16
-234.37
-248.84
-264.41
-277.64
-286.99
-292.47
-293.44
-286.93
-267.79
-231.54
-177.99
-113.39
-49.01
3.3
35.98
48.61
46.57
36.77
23.51
6.48
-17.3
-49.56
-87.56
-124.13
-149.77
-156.62
-141.83
-108.56
-64.74
-20.05
17.32
42.4
52.94
48.42
29.14
-3.9
-48.35
-99.34
-149.48
-190.25
-214.6
-218.9
-203.65
-172.44
-129.87
-80.43
-27.92
24.46
73.63
116.26
149.45
171.38
182.62
185.18
181.71
173.83
162.32
147.97
131.81
115.26
100
88.94
83.73
83.22
83.1
77.74
63.9
41.84
14.24
-15.64
-42.58
-62.03
-71.74
-72.1
-65.19
-53.12
-38.45
-24.7
-15.49
-8.13
5.79
37.48
95.42
182.19
293.07
416.35
536.92
618.53
631.25
568.77
454.84
324.52
202.63
97.89
7.94
-72.15
-144.48
-204.1
-244.41
-261.94
-259.49
-244.72
-225.68
-209.23
-198.98
-194.68
-190.21
-179.75
-159.64
-134.54
-115.24
-112.81
-135.49
-185.43
-258.44
-341.68
-420.94
-481.05
-513.57
-516.24
-482.3
-412.04
-315.93
-213.65
-122.01
-49.42
16.35
92.3
189.72
311.25
450.68
599.75
737.41
850.54
906.58
889.11
798.24
651.19
473.51
286.97
106.91
-57.14
-192.86
-302.16
-381.73
-430.46
-451.6
-452.17
-441.92
-429.29
-416.93
-403.78
-387.84
-361.88
-321.55
-267.3
-204.08
-140.78
-86.42
-48.03
-28.35
-27.13
-38.21
-54.57
-69.63
-78.51
-78.09
-66.02
-41.63
-6.46
34.38
75.46
111.58
141.47
166.92
191.91
220.9
257.3
301.79
351.77
403.31
451.2
491.99
522.37
539.13
541.41
532.62
518.16
501.93
484.31
461.03
429.36
386.63
329.83
256.56
167.05
63.91
-49.07
-165.72
-284.61
-387.42
-449.94
-457.23
-411.92
-332.24
-232.49
-121.55
-4.49
114.28
231.55
344.32
447.14
519.35
543.28
511.29
429.79
334.02
237.96
148.36
64.96
-20.85
-114.77
-216.69
-319.65
-412.84
-486.14
-536.88
-565.01
-574.96
-573.58
-564.75
-546.85
-514.51
-463.7
-396.12
-321.44
-248.64
-183.45
-126.5
-73.8
-19.84
38.19
97.35
149.12
180.88
184.57
159.26
110.99
50.23
-11.21
-62.91
-97.91
-114.05
-114.89
-106.13
-93.93
-84.09
-82.69
-96.13
-129.07
-182.98
-255.43
-340.79
-429.04
-507.59
-564.13
-589.96
-581.16
-535.49
-450.29
-324.55
-162.69
24.67
222.01
412.06
580
704.73
765.25
755.81
690.98
595.69
491.7
391.84
301.32
222.17
157.61
106.19
68.36
43.61
28.07
15.69
1.75
-16.35
-38.33
-60.32
-77.38
-83.1
-73.28
-48.61
-15.22
18.11
42.27
51.15
43.8
24.92
4.36
-8.36
-8.34
3.21
21.08
38.72
50.57
52.87
43.27
21.25
-12.63
-56.09
-103.85
-147.33
-176.73
-184.35
-167.83
-131.95
-86.28
-42.07
-8.82
8.51
9.75
-1.94
-21.85
-44.38
-64.64
-78.47
-83.48
-80.08
-71.87
-64.66
-64.53
-75.07
-95.21
-119.51
-139.85
-148.21
-139.26
-111.75
-68.42
-14.94
41.6
94.03
135.79
162.3
172.13
167.73
154.88
140.81
131.71
130.9
138.4
150.56
162.9
172
176.78
178.27
178.44
179.04
181.06
185.06
189.45
192.36
192.52
189.97
185.81
181.33
177.1
172.85
168.23
160.39
146.6
125.55
98.03
66.26
32.55
-2.69
-40.7
-83.23
-135.34
-202.1
-286.62
-388.53
-504.05
-626.75
-751.04
-872.16
-962.44
-995.72
-956.5
-849.91
-698.79
-530.25
-363.16
-208.38
-70.4
50.3
151.7
232.45
293.31
338.87
373.47
401.53
423.76
438.24
442.45
431.77
403.01
356.43
297.35
227.59
161.09
112.29
89.12
89.6
101.68
110.31
103.71
77.88
36.35
-11.61
-58.21
-98.93
-132.77
-160.85
-183.04
-198.32
-205.63
-204.71
-195.56
-180.3
-162.18
-143.73
-126.46
-110.42
-94.64
-77.82
-59.82
-40.18
-19.35
1.78
22.9
44.52
67.97
94.08
122.21
149.43
171.75
184.57
184.67
172.01
149.69
123.15
97.82
77.43
63.33
55.25
51.89
51.84
54.25
58.65
64.87
72.38
80.3
87.58
93.41
97.52
100.3
102.76
105.93
110.13
114.85
118.9
121.5
122.98
124.61
127.76
132.6
137.47
139.6
136.4
126.75
111.48
92.13
69.74
43.76
12.2
-27.06
-74.84
-129.51
-187.3
-243.02
-291.7
-329.57
-355.03
-368.72
-372.62
-369.19
-360.1
-345.94
-326.46
-301.28
-270.25
-233.34
-190.67
-143.34
-94.43
-50.44
-20.63
-14
-34.97
-79.92
-136.78
-188.71
-220.48
-223.44
-197.54
-149.38
-87.82
-20.05
49.32
117.45
181.41
237.26
280.95
310.08
325.32
330.28
330.25
329.59
329.85
329.37
324.26
310.62
286.56
253.2
214.04
173.49
135.12
100.81
71.01
45.52
24.2
7.02
-6.22
-16.25
-23.99
-30.41
-35.69
-39.47
-41.4
-41.46
-40.54
-40.05
-41.4
-45.13
-50.85
-57.2
-62.45
-64.96
-63.55
-57.48
-46.52
-30.91
-11.53
10.24
32.62
53.82
72.21
86.55
96.28
101.39
102.38
100.1
95.49
89.56
83.37
77.65
72.83
68.82
64.95
60.3
54.52
48.22
43.24
41.97
46
55.32
67.95
80.81
90.84
96.18
96.06
90.56
79.97
64.61
45.24
23.18
0.27
-21.93
-42.76
-62.99
-83.89
-106.22
-129.26
-150.61
-167.35
-177.09
-178.77
-172.72
-160.16
-142.34
-120.27
-94.75
-66.68
-37.47
-8.99
16.77
38.14
54.29
65.22
71.67
74.65
75.27
74.36
72.5
70.09
67.48
65.13
63.59
63.49
65.17
68.32
71.79
73.8
72.22
65.44
52.8
34.86
13.27
-9.69
-31.91
-51.66
-67.73
-79.46
-86.36
-88.12
-84.64
-76.11
-63.17
-47.03
-29.15
-11.26
4.97
18.3
28
33.98
36.72
36.91
35.19
32.05
27.77
22.52
16.65
10.7
5.26
0.76
-2.82
-5.99
-9.57
-14.35
-20.76
-28.64
-37.39
-46.07
-53.67
-59.39
-62.86
-63.94
-62.86
-59.95
-55.54
-50.15
-44.31
-38.58
-33.48
-29.53
-27.09
-26.38
-27.47
-30.15
-34
-38.36
-42.4
-45.23
-46.15
-44.8
-41.2
-35.72
-28.97
-21.62
-14.25
-7.52
-1.95
2.16
4.6
5.38
4.74
3.22
1.44
0.2
0.11
1.52
4.5
8.83
13.95
19.27
24.33
28.7
32.07
34.15
34.64
33.35
30.34
25.86
20.55
15.15
10.41
6.78
4.46
3.32
3.14
3.53
4.25
5.09
5.87
6.5
6.94
7.19
7.26
7.12
6.65
5.84
4.74
3.64
2.76
2.28
2.02
1.45
-0.21
-3.58
-8.88
-15.75
-23.26
-30.36
-36.13
-40.19
-42.83
-44.76
-46.79
-49.5
-52.82
-56.12
-58.65
-59.89
-59.99
-60.02
-61.49
-65.68
-73.21
-83.97
-97.43
-112.78
-129.03
-144.3
-155.78
-160.36
-155.85
-142.56
-123.68
-103.7
-85.7
-69.08
-49.35
-20.18
22.72
78.61
141.02
200.2
247.04
276.42
288.13
285.32
272.01
251.23
224.41
192.34
156.55
119.66
84.5
52.58
23.3
-5.62
-36.31
-68.41
-98.45
-121.03
-131.23
-127.72
-113.72
-95.59
-79.9
-70.32
-66.35
-64.37
-60.24
-51.78
-39.52
-25.81
-13.11
-2.86
4.86
10.63
14.82
17.33
17.69
15.68
11.76
7.11
3.37
1.93
3.3
7.06
11.91
16.34
19.2
20.02
19.12
17.38
15.65
14.58
14.29
14.54
14.8
14.59
13.72
12.28
10.67
9.34
8.61
8.48
8.8
9.2
9.38
9.21
8.85
8.65
9.05
10.23
12.16
14.49
16.78
18.69
20.01
20.76
21.04
21.02
20.83
20.64
20.71
21.27
22.4
23.97
25.62
26.78
26.91
25.59
22.66
18.14
12.21
5.22
-2.32
-9.82
-16.63
-22.32
-26.67
-29.73
-31.75
-33.1
-34.01
-34.58
-34.98
-35.31
-35.63
-35.83
-35.57
-34.44
-32.1
-28.38
-23.43
-17.72
-11.65
-5.61
0.24
5.8
10.96
15.5
19.29
22.28
24.45
25.98
26.92
27.34
27.16
26.28
24.64
22.27
19.28
15.85
12.23
8.65
5.43
2.89
1.18
0.35
0.25
0.61
1.2
1.77
2.14
2.23
2.05
1.63
1.15
0.76
0.57
0.61
0.89
1.19
1.28
1.05
0.42
-0.49
-1.51
-2.41
-3.05
-3.23
-2.88
-1.95
-0.44
1.59
3.98
6.58
9.25
11.84
14.25
16.32
17.92
18.9
19.3
19.09
18.47
17.53
16.46
15.33
14.13
12.85
11.44
10
8.51
7.11
5.8
4.57
3.44
2.34
1.25
0.24
-0.64
-1.36
-1.92
-2.46
-3.19
-4.19
-5.51
-7.05
-8.66
-10.25
-11.86
-13.47
-15.07
-16.6
-17.83
-18.55
-18.61
-18.07
-17.17
-16.3
-15.7
-15.42
-15.4
-15.34
-15.09
-14.56
-13.79
-12.9
-12.03
-11.21
-10.43
-9.68
-8.88
-8.04
-7.17
-6.21
-5.23
-4.2
-3.13
-2.07
-1.1
-0.24
0.51
1.19
1.91
2.6
3.19
3.57
3.6
3.23
2.53
1.65
0.72
-0.09
-0.69
-0.99
-0.91
-0.51
0.18
1.04
1.97
2.91
3.88
4.89
5.92
6.98
7.86
8.57
8.97
9
8.7
8.1
7.23
6.1
4.84
3.39
2.09
1.11
0.59
0.63
1.13
1.91
2.71
3.45
4.08
4.73
5.52
6.47
7.51
8.41
9.02
9.27
9.28
9.24
9.36
9.66
10.07
10.45
10.64
10.59
10.27
9.61
8.54
6.97
4.77
1.96
-1.2
-4.42
-7.26
-9.37
-10.52
-10.64
-9.79
-8.16
-6.1
-4.01
-2.19
-0.94
-0.36
-0.4
-0.89
-1.54
-2.19
-2.69
-3.04
-3.25
-3.48
-3.86
-4.52
-5.55
-6.85
-8.22
-9.4
-10.13
-10.31
-10.01
-9.49
-8.97
-8.6
-8.42
-8.3
-8.05
-7.56
-6.73
-5.58
-4.13
-2.38
-0.53
1.21
2.61
3.36
3.47
3.07
2.42
1.79
1.47
1.47
1.8
2.41
3.04
3.6
4.03
4.23
4.26
4.16
3.95
3.71
3.63
3.61
3.69
3.9
4.17
4.43
4.66
4.76
4.72
4.66
4.51
4.27
4.03
3.65
3.17
2.55
1.69
0.63
-0.51
-1.72
-2.79
-3.49
-3.82
-3.72
-3.36
-3.04
-2.94
-3.1
-3.53
-4.06
-4.56
-5.03
-5.38
-5.64
-5.77
-5.63
-5.11
-4.25
-3.19
-2.04
-1.02
-0.09
0.77
1.58
2.44
3.28
4.03
4.68
5.22
5.67
6.1
6.48
6.75
6.96
7.18
7.39
7.63
7.76
7.52
6.79
5.5
3.71
1.66
-0.57
-2.75
-4.77
-6.5
-7.8
-8.6
-8.78
-8.52
-7.96
-7.44
-7.07
-6.91
-6.94
-7.07
-7.3
-7.52
-7.78
-8.03
-8.27
-8.42
-8.5
-8.62
-8.88
-9.29
-9.68
-9.84
-9.47
-8.44
-6.77
-4.66
-2.39
-0.16
1.86
3.55
4.81
5.61
5.96
5.94
5.77
5.57
5.6
5.91
6.44
7
7.43
7.64
7.66
7.69
7.88
8.28
8.76
9.12
9.11
8.6
7.57
6.15
4.47
2.6
0.62
-1.32
-2.99
-4.12
-4.53
-4.18
-3.15
-1.72
-0.3
0.93
1.91
2.61
3.12
3.38
3.23
2.65
1.66
0.35
-0.97
-2.13
-3.05
-3.75
-4.26
-4.67
-4.95
-5.02
-4.83
-4.35
-3.77
-3.16
-2.51
-1.74
-0.78
0.38
1.7
3.02
4.18
4.96
5.35
5.43
5.27
4.87
4.18
3.09
1.56
-0.24
-2.16
-3.84
-5
-5.49
-5.22
-4.34
-2.98
-1.36
0.51
2.41
4.19
5.57
6.35
6.5
6.1
5.34
4.46
3.63
2.9
2.2
1.46
0.67
-0.15
-0.97
-1.79
-2.58
-3.44
-4.34
-5.29
-6.18
-6.84
-7.13
-7.05
-6.68
-6.24
-5.99
-5.98
-6.15
-6.4
-6.65
-6.92
-7.21
-7.57
-7.86
-7.94
-7.64
-7
-6.25
-5.65
-5.35
-5.26
-5.24
-5.12
-4.85
-4.43
-3.96
-3.54
-3.13
-2.72
-2.2
-1.54
-0.74
0.18
1.15
2
2.62
2.94
3
2.92
2.79
2.59
2.33
1.98
1.52
1.08
0.7
0.41
0.24
0.12
-0.01
-0.2
-0.45
-0.73
-0.98
-1.23
-1.53
-1.88
-2.32
-2.91
-3.63
-4.43
-5.23
-5.82
-6.07
-5.96
-5.57
-5.06
-4.62
-4.4
-4.3
-4.18
-3.82
-3.17
-2.4
-1.67
-1.18
-0.97
-0.92
-0.86
-0.62
-0.09
0.74
1.7
2.71
3.54
4.08
4.24
4.02
3.54
2.91
2.31
1.85
1.64
1.64
1.77
2.01
2.38
2.9
3.58
4.42
5.29
6.13
6.89
7.51
7.96
8.21
8.17
7.76
7.05
6.12
5.2
4.49
4.05
3.91
3.96
4.04
4.02
3.81
3.31
2.54
1.62
0.59
-0.48
-1.51
-2.54
-3.46
-4.16
-4.49
-4.41
-3.89
-3.13
-2.27
-1.4
-0.57
0.34
1.34
2.34
3.14
3.56
3.44
2.79
1.74
0.41
-0.85
-1.94
-2.68
-3.04
-3
-2.64
-2.1
-1.52
-1.08
-0.7
-0.4
-0.1
0.27
0.7
1.17
1.59
1.85
1.86
1.7
1.41
1.06
0.77
0.47
0.14
-0.34
-1.03
-1.96
-3.07
-4.3
-5.51
-6.6
-7.57
-8.26
-8.67
-8.72
-8.48
-8.1
-7.73
-7.46
-7.23
-7.08
-6.88
-6.6
-6.23
-5.78
-5.26
-4.68
-4.01
-3.26
-2.49
-1.57
-0.19
2.11
5.74
10.74
16.78
23
28.36
31.95
33.37
32.56
29.97
26.17
21.61
16.73
11.85
7.22
3.12
-0.15
-2.55
-4.18
-5.18
-5.84
-6.36
-6.78
-7.08
-7.23
-7.19
-6.98
-6.74
-6.52
-6.39
-6.36
-6.41
-6.46
-6.52
-6.4
-6.06
-5.43
-4.49
-3.4
-2.28
-1.36
-0.75
-0.56
-0.62
-0.81
-1
-1.11
-1.28
-1.61
-2.18
-3.01
-4.05
-5.13
-6.2
-7.21
-8.06
-8.75
-9.2
-9.28
-8.94
-8.16
-6.99
-5.57
-4.03
-2.37
-0.74
0.79
2.2
3.37
4.3
4.87
5.14
5.12
4.96
4.64
4.12
3.33
2.16
0.71
-0.85
-2.24
-3.2
-3.6
-3.46
-2.85
-1.9
-0.73
0.57
1.93
3.3
4.51
5.43
5.94
6.1
5.89
5.37
4.58
3.56
2.32
0.93
-0.55
-1.95
-3.02
-3.63
-3.71
-3.37
-2.87
-2.44
-2.27
-2.45
-2.84
-3.36
-3.83
-4.13
-4.19
-4.14
-4.04
-4.02
-4.15
-4.45
-4.98
-5.67
-6.42
-7.12
-7.71
-8.2
-8.63
-9.27
-10.3
-11.91
-14.06
-16.41
-18.36
-19.19
-18.15
-14.83
-9.28
-1.96
6.25
14.18
20.8
25.24
27.12
26.46
23.67
19.28
14.1
8.95
4.64
1.85
0.91
1.82
4.16
7.39
10.85
14.1
16.79
18.67
19.64
19.52
18.16
15.48
11.39
5.84
-1.03
-9.04
-17.63
-26.03
-33.28
-38.49
-40.83
-39.94
-36.06
-29.84
-22.42
-14.98
-8.55
-3.82
-1.14
-0.55
-1.71
-4.2
-7.39
-10.62
-13.28
-14.83
-15.04
-13.74
-11.17
-7.69
-3.78
-0.06
2.95
5.05
6.35
7.25
8.39
10.34
13.42
17.63
22.62
27.7
32.12
35.17
36.2
34.84
30.84
24.35
15.85
6.26
-3.23
-11.42
-17.21
-19.97
-19.49
-16.12
-10.52
-3.56
3.79
10.67
16.36
20.38
22.57
23.07
22.21
20.36
17.95
15.11
11.98
8.59
4.98
1.29
-2.31
-5.73
-8.91
-11.83
-14.47
-16.65
-18.18
-18.84
-18.54
-17.33
-15.42
-13.13
-10.74
-8.49
-6.46
-4.58
-2.83
-1.14
0.49
1.98
3.19
4.19
4.96
5.57
6.11
6.53
6.74
6.64
6.21
5.49
4.74
4.15
3.88
3.99
4.41
4.97
5.59
6.21
6.85
7.59
8.37
9.13
9.84
10.47
10.98
11.37
11.65
11.77
11.78
11.74
11.71
11.85
12.17
12.66
13.26
13.95
14.75
15.87
17.38
19.43
21.97
24.76
27.59
30.28
32.83
35.15
37.16
38.74
40.11
41.72
44.12
47.47
51.59
55.95
59.6
61.88
62.65
62.44
62.11
62.27
62.92
63.38
62.73
59.46
52.22
40.24
24.07
5.97
-10.71
-22.43
-27.26
-25.87
-22.56
-23.83
-36.31
-64.37
-108.78
-166.97
-234.29
-305.62
-370.03
-415.73
-432.73
-417.07
-372.37
-307.31
-231.38
-152.16
-75.13
-4.37
55.81
101.43
130.02
141.66
139.39
128.25
113.69
99.92
89.31
81.85
76.01
70.28
64.01
57.63
52.06
48.07
46.02
45.83
46.98
48.72
49.92
49.31
45.68
38.04
26.37
11.82
-3.62
-17.78
-28.8
-35.77
-38.54
-37.62
-33.88
-27.36
-16.49
1.39
28.95
67.55
114.81
164.78
208.74
237.53
244.23
226.13
185.37
128.37
63.91
1.02
-52.66
-92.64
-117.89
-130.35
-133.77
-132.38
-129.12
-125.43
-121.59
-116.87
-110.37
-100.87
-86.81
-66.51
-39.49
-7.51
24.87
50.74
63.45
59.3
39.54
10.38
-19.88
-44.58
-61.44
-73.09
-84.51
-99.45
-117.87
-135.75
-147.35
-148.43
-138.24
-119.65
-97.59
-76.58
-58.99
-45.68
-35.97
-28.29
-21.19
-13.63
-4.84
5.82
18.66
33.35
48.95
63.47
74.16
78.39
74.51
62.43
43.52
20.39
-3.8
-25.87
-43.13
-53.66
-56.53
-52.02
-41.23
-25.53
-5.8
17.91
46.12
79.07
116.58
157.93
202.09
248.59
297.45
348.69
401.7
454.8
504.22
544.8
570.72
576.51
558.78
516.72
451.88
368.23
271.53
168.7
67.2
-26.06
-105.72
-168.42
-213.49
-242.8
-259.64
-267.6
-269.56
-267.28
-261.65
-253.32
-242.58
-230.32
-218.21
-208.38
-202.98
-203.57
-210.26
-221.49
-235.01
-247.65
-256.61
-259.74
-255.52
-243.27
-223.05
-195.92
-164.14
-131.22
-100.84
-76.08
-58.32
-46.94
-39.88
-34.49
-28.51
-20.66
-10.75
0.91
13.81
27.62
42.17
57.22
72.29
86.63
99.25
109.2
115.81
118.78
118.29
114.99
109.81
103.85
98.13
93.35
89.93
87.84
86.67
85.86
84.85
83.14
80.42
76.7
72.07
66.79
60.96
54.43
46.9
37.82
26.46
12.26
-4.92
-24.7
-46.08
-67.77
-88.29
-106.11
-119.7
-127.51
-128.02
-119.95
-102.78
-76.96
-44.1
-6.56
33.13
72.73
110.68
146.08
178.31
206.66
230.43
248.89
261.24
266.71
264.31
252.93
231.87
201.28
162.64
118.97
74.28
32.44
-3.54
-32.24
-53.42
-67.69
-75.97
-79.57
-80.26
-80.48
-83.06
-90.48
-104.41
-124.94
-150.79
-179.73
-209.18
-236.92
-261.43
-281.93
-298.02
-309.6
-316.4
-317.99
-313.86
-303.7
-287.74
-267.03
-243.45
-219.21
-196.58
-177.23
-161.98
-150.71
-142.41
-135.57
-128.39
-119.26
-106.67
-89.77
-68.35
-43.1
-15.36
13.34
41.52
68.15
92.56
114.45
133.52
149.44
162
171.38
178.22
183.5
188.14
192.62
196.78
199.71
200.09
196.68
188.62
175.69
158.19
136.63
111.81
84.67
56.19
27.55
0.03
-25.25
-47.52
-66.39
-81.82
-93.87
-102.66
-108.44
-111.62
-112.66
-112
-109.85
-106.06
-100.21
-91.72
-79.99
-64.62
-45.4
-22.08
5.8
38.82
77.34
121.03
168.55
217.73
265.75
309.57
346.11
372.61
386.78
387.13
373.51
347.07
309.86
263.88
210.55
150.67
85.39
16.74
-52.05
-117.01
-174.38
-221.49
-257.26
-282
-297.07
-303.95
-304.32
-299.93
-292.7
-284.36
-275.84
-267.08
-256.75
-242.68
-222.25
-193.25
-154.11
-104.14
-43.55
26.43
102.92
180.92
253.25
311.66
348.7
360.25
346.78
313.03
266.33
214.23
162.52
114.57
71.7
34
1.09
-27.52
-52.83
-75.94
-97.43
-116.98
-133.41
-145.18
-151.09
-150.83
-145.02
-135.03
-122.37
-108.47
-94.49
-81.45
-69.98
-60.02
-51.2
-42.99
-35.29
-28.43
-22.79
-18.1
-13.06
-5.22
8.48
30.68
62.83
104.39
152.75
203.48
251.15
290.04
315.38
324.27
316.29
293.67
260.23
220.54
178.49
136.77
96.77
58.93
23.25
-10.44
-42.39
-72.81
-101.74
-128.72
-152.84
-173.01
-188.49
-199.62
-207.96
-215.84
-225.36
-237.23
-250.53
-263
-271.81
-274.48
-269.61
-257.18
-238.56
-216.33
-193.66
-173.43
-157.15
-144.03
-131.28
-115.26
-93.36
-65.17
-32.73
0.73
32.11
59.56
82.44
100.69
114.31
123.27
127.9
129.06
128.01
125.53
121.56
115.2
105.52
92.52
77.64
63.24
51.48
43.24
37.37
31.21
21.24
4.41
-20.58
-52.51
-87.63
-120.3
-144.46
-155.25
-150.2
-130.06
-98.51
-60.8
-21.9
15.49
51.75
89.46
131.15
177
223.1
261.82
284.28
282.95
254.31
199.95
125.64
39.4
-50.38
-136.45
-213.15
-276.55
-324.41
-355.38
-367.74
-359.27
-327.7
-272.52
-196.95
-108.19
-15.88
70.35
144.19
203.9
251.36
289.58
319.87
340.84
349.5
343.41
322.13
287.78
244.25
195.88
147.15
102.31
65.32
39.6
27.3
28.16
39.29
55.59
71.33
81.97
84.9
78.9
63.06
35.4
-7.08
-67.24
-145.32
-236.89
-331.99
-417.41
-480.88
-514.52
-516.35
-489.2
-438.85
-372.23
-297.35
-223.46
-161.16
-120.34
-106.28
-116.75
-141.57
-166.04
-176.54
-165.68
-134.23
-89.25
-40.26
4.9
41.85
69.46
88.42
99.94
105.12
105.19
102.42
99.88
100.78
107.08
118.78
134.19
150.66
165.49
176.75
183.97
187.64
188.73
187.77
184.56
178.27
168.12
154.35
138.82
125.19
117.86
120.45
134.28
157.41
185.26
212.23
233.85
248.33
256.49
260.37
261.45
259.56
252.64
237.81
212.83
176.68
129.81
74.02
12.49
-49.94
-106.93
-151.85
-179.92
-190.08
-185.76
-173.92
-162.62
-158.22
-163.08
-174.99
-188.18
-196.21
-194.81
-183.81
-167.06
-150.42
-138.74
-133.6
-132.79
-131.76
-126.33
-114.62
-97.53
-77.13
-54.64
-29.67
-0.44
34.5
75.04
119.25
164.11
206.8
245.52
280.21
311.73
340.86
366.89
387.44
399.13
399.03
385.93
360.49
324.84
281.43
232.08
177.91
120.08
60.33
0.56
-57.25
-111.23
-159.04
-197.22
-221.07
-226.6
-213.18
-185.81
-155.44
-134.32
-130.38
-142.66
-161.42
-172.94
-167.05
-142.59
-107.13
-73.1
-48.79
-32.86
-14.53
19.38
76.41
152.68
234.55
305.17
350.5
365.28
353.23
322.45
279.99
229.08
168.04
95.54
13.26
-78.03
-177.01
-280.76
-384.68
-482
-564.04
-625.31
-661.18
-668.2
-650.68
-614.4
-561.29
-488.08
-389.71
-264.68
-125.35
8.6
115.6
169.9
153.77
65.33
-80.85
-259.75
-443.92
-618.62
-775.3
-862.7
-839.44
-703.03
-496.45
-274.07
-90.52
65.33
204.54
333.67
458.37
574.09
674.55
758.8
813.11
825.96
795.46
725.29
628.51
521.35
412.24
305.19
203.69
113.07
41.07
-6.71
-31.57
-37.03
-27.95
-12.9
0.16
6.58
6.04
2.35
1.58
2.87
3.25
-0.42
-11.77
-32.84
-62.91
-98.26
-132.2
-157.02
-168.56
-165.2
-147.78
-119.39
-83.98
-45.12
-5.26
34.75
74.77
113.25
148.79
180.72
209.53
235.88
259.56
279.62
294.95
304.94
307.92
303.19
291.31
273.75
251.84
226.46
199.02
172.53
150.78
132.81
116.44
99.66
81.56
61.3
37.53
8.65
-25.76
-65.49
-116.19
-180.78
-256.11
-332.89
-400.82
-453.18
-488.29
-506.8
-511.88
-516.65
-532.26
-563.11
-606.15
-656.18
-710.43
-768.82
-829.52
-844.03
-782.79
-649.58
-479.54
-309.03
-156.37
-24.93
87.37
182.49
270.36
346.01
402.09
435.87
452.2
460.39
470.91
470.78
457.2
432.64
393.59
335.92
257.64
162.18
57.53
-47.01
-143.17
-223.45
-286.58
-337.24
-378.58
-409.38
-424.32
-417.79
-387.17
-333.48
-257.59
-161.2
-53.87
53.16
150.25
230.79
290.61
327.08
339.02
328.65
299.84
256.83
205.38
152.67
106.51
73.79
58.64
61.76
81.33
112.79
149.72
185.54
214.62
232.95
238.59
231.65
214.76
193.09
172.89
159.55
156.13
161.94
171.7
177.2
170.18
146.62
108.98
65.85
28.86
8.99
12.78
39.93
84.83
139.67
197.92
254.82
306.66
350.29
384.07
408.53
425.67
437.12
441.39
433.58
404.51
344.05
246.71
116.72
-31.16
-175.58
-295.61
-377.66
-417.82
-422.41
-405.8
-383.91
-370.25
-368.49
-371.44
-365.44
-345.1
-310.14
-262.54
-204.78
-141.19
-76.34
-14.56
40.48
86.53
123.08
152.13
175.4
192.03
198.47
190.27
165.78
127.74
83.1
40.54
8.24
-9.64
-14.58
-12.38
-9.9
-11.76
-19.32
-31.14
-44.62
-56.73
-65.75
-71.83
-76.53
-81.38
-86.97
-92.91
-98.92
-105.27
-112.4
-120.98
-131.26
-142.74
-154.2
-164.1
-171.64
-177.48
-183.48
-191.27
-201.17
-211.25
-217.13
-213.27
-194.61
-157.98
-103.3
-33.26
47.85
135.37
224.41
309.41
382.81
436.26
463.81
465.42
448.18
423.57
401.77
386.22
371.87
348.18
305.67
241.48
160.72
73.59
-9.58
-81.52
-138.8
-179.95
-204.67
-213.75
-210.25
-200.35
-191.82
-191.79
-203.88
-227.06
-255.3
-279.04
-287.8
-273.18
-232.8
-171.67
-101.78
-37.53
9.73
36.22
45.53
43.58
33.15
11.46
-26.62
-82.93
-151.8
-221.55
-279.79
-319.16
-339.91
-346.41
-342.41
-327.76
-299.54
-255.8
-198.91
-135.2
-71.7
-12.84
42.07
97.13
156.48
221.5
289.67
355.67
413.6
459.09
490.38
509.17
519.06
522.76
520.18
507.61
479.45
430.92
360.6
271.74
171.76
70
-24.24
-102.4
-157.21
-183.71
-181.63
-158.34
-127.95
-106.95
-108.11
-134.97
-179.77
-227.08
-260.38
-269.08
-254.46
-226.11
-195.01
-167.71
-144.34
-119.81
-87.73
-44.26
10.82
70.09
125.52
173.14
214.19
250.63
281.29
301.55
305.52
289.28
245.86
174.13
82.16
-14.31
-100.3
-167.73
-215.84
-248.41
-271.38
-300.83
-350.72
-426.23
-521.45
-627.86
-739.65
-853.51
-966.69
-1016.9
-960.45
-799.85
-584.3
-366.84
-177.35
-24
97.7
196
280.67
349.97
400.67
433.52
458.76
484.05
508.03
526.05
534.08
532.59
517.47
487.77
438.32
381.28
326.43
271.69
212.77
140.82
53.42
-51.49
-170.84
-295.99
-413.49
-488.14
-505.22
-468.66
-395.83
-305.53
-215.75
-136.88
-71.35
-15.06
36.11
80.03
115.28
141.99
165.46
186.78
205.29
219.39
228.56
233.22
232.17
227.54
216.03
204.04
193.37
181.65
165.05
141.95
113.8
82.53
51.47
22.85
-1.14
-21.05
-37.21
-49.23
-55.83
-56.23
-52.02
-45.06
-37.84
-31.49
-27.22
-25.55
-26.34
-29.5
-35.35
-45.23
-60.2
-80.76
-105.33
-131.45
-155.52
-173.32
-181.16
-176.58
-159.54
-131.78
-95.88
-54.32
-9.22
38.18
87.15
136.7
185.79
231.7
271.33
302.18
322.93
333.79
336.75
334.89
331.3
328.41
326.81
326.39
327.16
328.74
330.02
329.36
325.22
309.14
276
222.84
150.21
62.11
-36.44
-140.98
-246.85
-347.76
-434.59
-498.32
-532.53
-533.72
-502
-442.6
-365.32
-281.49
-201.52
-133.28
-85.51
-67.97
-86.89
-142.59
-230.4
-343.34
-472.65
-608.54
-709.48
-736.05
-674.87
-545.22
-382.25
-216.43
-67.39
56.25
153.69
229.06
293.08
351.03
407.36
465.51
524.17
575.5
610.44
622.67
597.34
529.41
421.13
285.16
139.7
1.09
-121.29
-221.38
-296.15
-345.19
-369.62
-373.19
-356.57
-318.04
-256.53
-175.04
-76.55
34.09
148.63
255.41
329.95
355.9
337.7
303.92
265.78
227.76
192.86
162.23
141.15
134.36
146.92
180.35
229.61
281.77
322.53
338.27
318.63
260.45
168.14
54.44
-64.75
-176.06
-272.78
-350.97
-409.22
-447.33
-465.07
-462.62
-440.39
-400.09
-344.71
-278.17
-202.32
-118.75
-30.31
58.61
142.07
214.02
268.77
301.69
309.27
290.95
249.78
193.75
134.4
83.87
50.86
37
37.38
41.92
38.85
17.78
-25.52
-89
-165.5
-245.43
-319.89
-380.42
-421.38
-441.17
-442.81
-430.28
-408.39
-381.65
-353.46
-326.12
-296.97
-260.06
-209.24
-141.6
-56.34
42.98
148.38
254.23
339.7
385.05
385.12
356.02
309.43
252.18
187.84
117.91
47.11
-20.02
-78
-124.28
-161.72
-199.15
-232.78
-256.52
-264.72
-252.6
-218.41
-161.99
-87.57
-4.05
76.58
144.63
200.03
242.75
273.71
293.68
305.58
314.58
327.08
349.35
370.15
381.33
375.31
349.9
308.38
257.7
204.61
153.38
105.2
61.54
20.94
-17.61
-53.26
-85.33
-114.5
-143.85
-178.76
-225.94
-286.27
-349.14
-401.19
-428.41
-422.68
-385.51
-326.76
-260.21
-197.21
-144.24
-100.93
-63.7
-28.47
6.99
42.26
75.35
104.32
130.5
153.7
173.52
188.18
195.96
196.42
191.43
185.38
177.65
173.23
172.4
171.26
164.27
147.93
122.54
91.44
59.31
29.04
2.17
-22.21
-44.77
-65.67
-83.86
-98.69
-109.98
-118.46
-125.66
-132.18
-138.02
-140.38
-136.71
-125.35
-107.48
-88.14
-75.08
-75.14
-89.24
-112.4
-134.04
-144.81
-138.99
-115.66
-78.46
-32.86
17.51
73.56
135.27
201.27
263.28
310.61
334.19
328.38
291.62
225.77
135.07
23.75
-102.22
-240.25
-383.59
-512.51
-596.59
-613.26
-563.87
-471.15
-375.12
-285.53
-205.53
-130.6
-51.49
36.02
129.28
220.68
301.02
362.46
403.91
420.58
413.06
384.85
340.06
282.95
219.2
157.24
106.68
78.67
71.52
81.04
100.09
121.04
138.23
149.62
156.56
145.14
137.81
126.75
105.82
70.92
22.71
-32.39
-83.84
-120.51
-134.41
-119.82
-82.36
-27.57
38.27
108.71
176.76
234.49
274.29
290.77
285.31
260.09
223.15
182.93
145.09
111
78.87
46.57
14
-14.36
-34.58
-41.91
-35.24
-18.65
-0.8
7.84
-1.15
-31.81
-81.74
-144.62
-209.91
-266.61
-306.07
-324.38
-323.21
-308.34
-288.07
-269.95
-258.47
-252.52
-246.43
-232.67
-206.13
-166.89
-119.98
-74.05
-37.93
-17.66
-14.57
-25.85
-46.24
-68.55
-92.2
-117.26
-145.14
-176.05
-207.08
-231.61
-240.33
-223.72
-175.55
-95.98
9.56
131.53
260.01
387.36
508.52
619
711.97
776.92
800.97
774.36
694.62
569.89
416.81
255.44
103.33
-28.44
-135.73
-219.52
-282.29
-326.42
-352.75
-361.68
-354.37
-333.33
-302.27
-265.49
-227.17
-190.69
-158.66
-133.01
-114.9
-105.41
-105.6
-116.44
-138.72
-171.74
-212.11
-252.89
-284.54
-297.25
-284.39
-245.03
-184.49
-112.61
-39.87
25.96
81.71
128.13
167.79
202.91
233.93
259.72
278.11
286.56
282.2
261.98
223.25
165.1
89.66
2.35
-88.37
-173.12
-243.44
-293.9
-322.25
-328.22
-311.62
-271.36
-206.31
-117.11
-8.58
109.85
225.57
326.33
403.93
456.45
487.89
505.47
516.1
523.55
527.46
524.39
509.96
480.74
435.4
374.9
301.59
218.29
127.52
31.59
-66.76
-163.7
-254.2
-333.06
-396.16
-441.6
-470.37
-485.42
-490.17
-486.93
-476.26
-457.24
-428.45
-388.46
-335.94
-269.44
-187.49
-90.27
18.83
132.02
238.02
324.92
384.12
412.38
411.66
386.45
340.07
273.05
184.38
74.89
-49.79
-178.58
-297.94
-396.35
-467.66
-512.37
-535.76
-544.41
-543.41
-535.01
-519.77
-498.45
-472.56
-443.39
-410.5
-370.39
-317.93
-249.46
-165.44
-71.94
20.39
99.6
156.21
185.42
187.87
168.22
133.06
89.61
44.91
4.54
-28.1
-52.11
-69.25
-82.8
-96.08
-111.13
-127.58
-142.52
-151.13
-148.03
-129.12
-93.65
-44.8
11.02
66.59
116.76
160.28
199.86
240.54
286.39
337.95
391.92
442.47
483.7
512.17
528.08
534.79
537.08
538.27
538.02
532.1
513.7
475.96
415.37
334.07
240.06
145.43
62.56
0.38
-38.09
-56.13
-61.33
-62.43
-66.08
-74.84
-86.67
-96.74
-100.18
-94.81
-82.63
-68.91
-59.91
-60.25
-71.32
-90.82
-114.27
-137.01
-155.83
-169.86
-179.45
-185.42
-187.98
-186.85
-181.75
-172.84
-160.73
-146.19
-130.03
-112.22
-91.96
-67.63
-37.61
-1.53
39.18
81.34
120.64
152.63
174.34
185.29
187.91
186.52
185.95
189.98
200.74
218.61
242.3
269.42
296.5
319.45
334.09
336.75
325.1
298.75
259.13
208.93
151.1
88.48
24
-39.2
-98.37
-151.99
-200.91
-248.23
-297.99
-353.87
-417.05
-485.1
-552.16
-610.72
-653.93
-677.91
-682.01
-667.63
-636.45
-588.96
-524.17
-441.14
-341.06
-228.9
-113.08
-3.08
93.8
174.68
241.2
297.1
345.13
385.25
414.23
427.43
421.2
394.73
350.9
296.21
239.27
188.75
151.9
133
132.52
147.28
171.26
196.69
215.87
222.25
211.5
182.72
139.02
87.07
35.56
-7.27
-36.16
-50.16
-52.39
-47.93
-41.27
-34.72
-28.33
-20.86
-11.23
0.19
11.52
19.7
21.08
12.52
-8.14
-41.49
-85.55
-135.16
-182.33
-217.51
-232.49
-223.83
-194.68
-154
-112.42
-77.35
-50.3
-27.65
-4.29
22.24
49.74
72.69
85.3
85.06
74.45
58.87
43.14
28.81
14.36
-3.17
-24.64
-48.99
-73.48
-93.48
-105.2
-107.88
-104.59
-100.24
-99.89
-104.44
-112.8
-123.03
-131.37
-134.65
-132.31
-126.75
-120.89
-117.41
-114.11
-107.55
-94.25
-68.28
-24.12
40.23
121.94
215.5
313.51
412.82
510.24
582.67
605.77
570.28
489.77
388.74
300.24
226.38
165.96
116.19
72.68
35.13
6.67
-9.81
-13.82
-7.19
4.94
19.83
33.69
41.35
39.86
27.84
5
-27.64
-66.24
-104.86
-133.75
-145.9
-141.53
-125.79
-106.72
-91.82
-86
-90.93
-105.84
-127.36
-151.75
-177.4
-202.2
-222.98
-235.62
-237.29
-228.55
-212.73
-195.82
-183.83
-184.37
-201.67
-233.77
-271.32
-300.9
-310.8
-293.89
-252.69
-195.87
-140.24
-103.38
-98.17
-128.68
-191.97
-282.08
-390.06
-508.64
-600.25
-629.02
-578.99
-466.54
-325.87
-188.16
-84.17
-8.93
45.11
87.02
120.58
147.19
166.19
177.86
183.32
181.88
175.44
166.38
162.75
169.95
190.78
226.35
278.3
348.37
433.59
528.65
624.4
714.22
788.31
836.66
851.46
829.74
772.99
681.91
559.27
410.59
249.39
87.01
-68.21
-210.87
-336.57
-424.67
-458.96
-440.62
-394.67
-328.07
-243.52
-145.69
-42.92
53.08
132.54
186.85
211.18
191.47
129.81
42.39
-45.65
-112.69
-147.72
-151.34
-134.45
-111.5
-93.94
-82.88
-75.91
-69.77
-62.7
-54.53
-46.43
-41.4
-41.34
-45.45
-47.98
-44.87
-35.54
-22.55
-8.88
3.18
12.41
18.67
23.07
28.92
38.16
50.78
65.49
81.41
98.28
115.87
133.12
148.12
159.19
164.76
163.93
154.62
137.33
114.23
87.91
59.9
30.18
-2.2
-38.57
-79.81
-126.14
-175.22
-221.95
-259.24
-281
-284.93
-274.13
-256.49
-241.38
-237.32
-247.81
-269.87
-294.97
-312.94
-314.54
-294.17
-251.29
-189.64
-119.19
-52.05
1.43
35.55
48.69
44.3
28.64
8.76
-2.38
2.39
23.11
54.91
92.59
131.05
167.4
201.44
234.54
270.73
308.07
341.27
364.8
374.03
354.94
299.31
205.96
81.79
-56.48
-196.78
-330.53
-450.62
-531.92
-551.32
-502.66
-402.7
-295.7
-186.91
-77.68
28.78
129.5
217.04
282.11
318.63
325.04
293.95
234.46
163.74
101.92
61.55
42.72
34.95
26.97
12.43
-7.25
-21.64
-25.17
-19.1
-8.38
1.86
8
9.98
10.29
13.05
24.64
46.04
73.96
101.44
122.29
131.89
128.72
114.59
94.81
77.77
68.49
67.23
70.17
71.76
66.91
52.98
30.05
-0.03
-34.23
-71.2
-110.1
-148.45
-180.65
-198.77
-195.22
-165.95
-112.78
-42.92
32.89
103.69
160.61
197.74
211.44
200.08
163.31
102.62
22
-72.32
-172.12
-269.16
-356.64
-429.35
-482.5
-510.86
-508.37
-469.73
-393.91
-286.91
-162.72
-40.7
60.43
129.62
166.86
182.39
191.21
205.9
231.89
267.04
304.98
339.47
367.28
387.82
400.71
403.18
389.43
353.51
292.91
211.25
117.71
24.25
-58.9
-125.91
-176.5
-214.91
-245.96
-271.83
-290.19
-295.8
-283.47
-251.83
-204.46
-149.09
-95.4
-50.39
-16.06
10.91
34.59
57.61
79.36
98.26
113.23
123.33
129.14
132.21
136.08
141.79
149.47
156.94
163.24
167.33
165.25
152.55
126.07
87.95
39.61
-16.29
-80.01
-148.18
-215.3
-277.7
-332.12
-376.32
-406.56
-425.98
-439.55
-457.4
-482.69
-495.12
-475.87
-416.9
-348.17
-280.39
-217.02
-148.64
-75.79
5.18
97.66
199.21
302.65
397.43
476.6
515.63
531.69
521.87
492.51
452.69
408.82
364.89
323
286.63
255.28
228.54
198.86
163.75
123.61
80.26
37.55
0.7
-23.99
-34.62
-31.89
-24.88
-20.95
-26.38
-45.86
-81.14
-130.24
-185.81
-237.61
-272.97
-283.14
-261.51
-207.88
-130.51
-44.76
31.29
82.86
101.4
86.49
43.16
-17.08
-79.47
-129.62
-157.15
-157.57
-132.38
-89.73
-42.72
-6.97
5.33
-10.67
-51.58
-107.67
-165.37
-209.49
-223.46
-197.11
-137.35
-67.92
-13.8
13.55
18.36
14.2
19.53
42.03
79.88
125.12
167.98
200.98
221.2
230.53
224.84
206.53
179.78
149.15
118.09
88.42
61.06
37.16
18.59
7.09
6.25
17.97
43.23
81.15
129.58
185.61
246.12
308.46
368.92
425.49
475.91
500.77
484.64
426.08
336.4
230.57
121.35
16.86
-75.42
-155.81
-224.42
-285.61
-344.93
-408.82
-484.01
-561.88
-637.97
-708.18
-769.32
-790.42
-753.33
-657.98
-523.92
-377.72
-238.37
-115.92
-13.05
66.63
128.64
170.62
191.18
191.69
177.41
157.05
137.43
120.93
107.2
94.38
74.99
45.25
5.32
-40.32
-82.01
-109.12
-112.27
-86.26
-30.96
44.58
130.54
216.52
285.51
318.25
304.49
249.78
169.39
86.23
2.72
-78.73
-153.64
-218.28
-267.3
-297.89
-312.76
-319.65
-327.34
-342.73
-363.36
-380.95
-385.31
-367.18
-320.53
-245.74
-150.05
-45.39
54.85
143.29
216.25
272.53
312.1
337.71
352.25
357.95
356.34
348.79
340.19
333.97
330.13
324.21
313.82
298.18
278.29
255.65
231.58
210.11
193.16
179.97
166.27
151.79
138.25
127.23
118.62
95.63
52.49
-2.92
-37.88
-44.78
-23.96
15.66
67.19
124.21
182.56
242.49
302.43
355.95
389.88
393.75
360.69
287.47
176.24
36.97
-112.17
-252.63
-371.62
-466.71
-540.27
-583.39
-589.05
-559.29
-503.38
-429.91
-345.41
-256.83
-174.05
-104.72
-52.1
-16.23
7.36
23.69
37.7
51.9
66.25
79
89.82
99.83
109.23
114.76
115.28
111.53
105.18
97.99
91.81
89.61
95.26
110.9
136.53
169.53
203.42
228.7
235.3
216.17
170.67
104.84
28.68
-46.08
-109.84
-157.9
-190.87
-212.91
-229.66
-245.44
-262.86
-282.18
-298.92
-307.37
-303.63
-287.57
-263.05
-237.43
-217.46
-209.01
-214.75
-229.67
-246.58
-260.3
-268.62
-269.89
-262.26
-239.73
-196.02
-125.98
-22.63
114.47
275.65
442.51
594.97
716.69
802.1
852.47
843.25
763.41
626.25
465.23
312.43
192.62
98.74
22.41
-45.06
-112.99
-180.21
-244.6
-304.56
-359.98
-410.97
-457.9
-497.9
-528.78
-549.26
-554.56
-540.99
-507.53
-455.72
-388.13
-308.95
-222.5
-136.56
-60.87
-1.65
38.15
59.03
64.23
59.12
49.43
41.79
41.52
52.34
77.28
116.63
167.14
222.27
274.33
315.88
342.24
351.73
345.65
328.16
304.64
280.38
259.28
243.58
232.84
225.1
217.87
208.96
196.13
176.71
148.5
110.25
64.39
16.06
-26.89
-55.58
-63.24
-48.92
-19.29
14.44
39.22
46.29
30.76
-7.58
-64.29
-130.64
-195.79
-249.02
-279.54
-281.22
-252.96
-204.62
-155.58
-128.45
-140.11
-196.76
-293.57
-415.16
-544.44
-644.52
-680.94
-641.83
-546.92
-429.65
-315.62
-226.3
-155.71
-99.58
-56.15
-26.54
-10.34
-2.7
7.24
31.95
78.92
149.09
233.8
321.66
400.78
462.35
503.03
524.87
531.83
526.75
512.61
490.68
463.64
433.91
402.74
370.94
339.61
309.12
277.82
242.93
199.4
142.97
72.53
-7.97
-88.75
-156.41
-199.59
-214.63
-207.07
-189.64
-175.65
-172.92
-180.71
-190.54
-190.95
-173.45
-136.49
-84.85
-26.71
31.04
85.16
135.3
182.01
224.39
258.48
278.05
276.01
246.82
188.85
105.2
3.3
-106.24
-211.72
-303.43
-375.4
-426.42
-459.25
-478.41
-487.32
-486.62
-473.9
-444.6
-394.66
-322.91
-232.69
-132.15
-32.64
54.89
123.23
170.83
201.06
219.69
232.15
242.03
250.72
258.21
263.22
263.23
254.99
236.31
208.24
176.46
149.68
135.49
136.59
148.37
160.87
163.54
150.95
125.42
96.2
75.47
72.08
87.58
115.29
142.24
153.44
137.16
87.96
7.87
-94.57
-207.34
-318.19
-416.72
-495.06
-547.29
-568.75
-556.55
-510.75
-435.55
-339.95
-236.39
-137.11
-50.33
22.1
83.19
136.97
184.33
221.08
238.5
227.68
185.7
119.81
46.8
-12.43
-40.43
-28.65
21.11
97.46
183.62
263.71
327.72
372.53
400.05
413.83
416.75
410.62
394.16
362.34
309.49
232.95
134.77
21.38
-99.18
-218.9
-326.35
-402.27
-433.35
-422.9
-386.72
-340.62
-293.3
-248.56
-207.95
-170.33
-133.84
-97.81
-62.56
-28.72
3.3
34.42
63.9
91.22
119.09
151.1
188.54
228.89
266.64
284.99
275.54
243.14
186.64
108.97
17.83
-74.96
-156.91
-219.24
-254.12
-259.57
-244.2
-223.12
-210.58
-213.89
-228.43
-239.54
-229.54
-184.44
-98.79
20.06
156.65
288.31
382.28
415.23
387.11
315.52
222.02
129.92
41.46
-41.55
-114.35
-171.56
-210.1
-228.1
-232.36
-232.59
-236.21
-245.84
-255.8
-255.7
-234.98
-186.64
-111.12
-18.76
76.94
163.08
229.5
272
291.3
288.46
263.96
216.54
142.73
45.5
-65.02
-173.16
-259.61
-305.02
-298.61
-239.38
-135.86
-5.68
134.41
270.39
391.87
479.75
516.14
493.63
424.97
350.06
275.74
195.66
100.77
-18.38
-159.29
-307.63
-449.06
-571.66
-668.47
-721.02
-713.29
-645.42
-536.97
-433
-338.4
-248.34
-157.9
-62.06
35.27
128.51
210.97
276.01
320.04
346.8
359.51
362.55
359.4
348.69
325.59
284.48
224.24
152.59
87.31
44.46
34.28
57.48
104.21
158.31
202.58
223.82
215.56
179.07
117.13
34.84
-60.4
-158.84
-249.04
-319.33
-359.71
-363.97
-330.99
-268.19
-188.33
-104.82
-26.78
42.61
105.17
164.81
224.52
285.04
342.42
389.97
420.59
428.95
412.13
369.65
304.37
223.42
137.8
57.43
-11.92
-70.36
-122.32
-174.27
-232.59
-301.8
-382.67
-457.88
-504.14
-504.95
-461.89
-389.61
-303.13
-212.03
-122.32
-38.53
35.13
93.01
130.3
146.51
145.2
135.06
126.19
124.89
131.19
139.13
137.71
115.37
64.87
-14.19
-109.35
-196.16
-250.67
-262.12
-236.47
-190.38
-140.33
-96.37
-60.6
-30.09
-1.78
23.84
44.53
59.41
69.82
79.28
91.44
109
133.88
164.6
195.61
220.37
234.14
235.13
224.3
204.01
176.87
141.75
103.16
63.87
25.38
-10.87
-42.84
-68.44
-86.44
-96.71
-100.5
-99.5
-96.43
-93.36
-91.16
-89.45
-87.57
-85.2
-82.56
-80.26
-78.74
-78.58
-79.66
-81.07
-81.73
-80.94
-78.78
-75.98
-73.52
-72.02
-72.25
-74.74
-79.49
-85.27
-89.25
-87.26
-75.35
-51.94
-19.12
17.21
49.62
72.21
82.86
83.46
78.26
71.4
65.06
59.43
53.69
47.37
41.21
36.53
34.38
34.54
35.77
36.1
34.2
29.85
23.54
16.37
9.22
2.52
-4.21
-11.67
-21.12
-33.12
-47.04
-61.45
-74.32
-83.29
-86.48
-83.26
-73.51
-57.85
-37.29
-13.12
12.97
39.33
64.15
85.36
100.94
109.03
108.27
98.22
79.85
55.24
28.17
2.41
-18.9
-33.49
-40.57
-40.75
-35.64
-26.99
-16.41
-4.09
10.49
27.79
47.62
68.5
87.54
101.57
108.62
107.95
100.4
87.75
72.09
55.11
37.79
20.62
4.01
-12.23
-29.35
-49.65
-75.52
-107.65
-144.02
-180.2
-210.68
-230.79
-238.85
-236.19
-225.4
-208.01
-182.86
-147.39
-100.12
-43.35
16.63
71.32
113.85
142.04
155.88
159.88
160.3
162.98
171.5
186.73
207.06
229.06
248.42
260.74
262.74
252.15
227.6
187.91
132.16
60.39
-25.23
-118.79
-210.23
-286.17
-334.11
-346.55
-323.57
-272.46
-204.3
-130.12
-56.64
14.77
86.92
161.91
236.93
303.55
350.9
371.39
363.54
333.44
292.02
251.04
218.88
197.96
185.6
176.6
166.5
150.94
126.38
90.25
42.2
-14.56
-73.08
-123.58
-156.73
-166.47
-155.75
-136.54
-126.39
-142.01
-193.19
-280.1
-393.77
-520.41
-632.73
-703.09
-713.48
-663.61
-569.5
-452.85
-331.87
-217.69
-116.76
-31.89
35.35
84.77
118.99
143.42
165.08
189.44
219.79
253.67
285.43
307.48
313.81
303.05
279.71
253.15
229.46
215.47
211.51
211.77
206.37
186.85
150.07
99.13
41.48
-14.37
-62.28
-100.55
-129.91
-152.8
-173.19
-195.61
-222.97
-254.72
-281.47
-294.55
-286.14
-252.4
-195.67
-123.93
-48.39
20.46
75.48
114.4
137.26
147.21
150.12
152.06
157.4
166.96
178.24
186.05
183.47
163.98
125.37
71.34
11.26
-42.14
-76.52
-83.96
-62.56
-20.3
26.11
59.3
69.03
54.82
23.54
-15.48
-53.59
-87.56
-115.42
-134.6
-141.9
-134.57
-112.78
-80.54
-44.5
-12.46
8.56
14.3
4.76
-16.16
-42.26
-67.15
-86.01
-95.99
-95.76
-84.54
-61.76
-28.29
13.25
58.79
103.79
143.69
174.59
193.67
200.11
195.29
182.27
165.18
148
133.73
124.04
119.21
117.32
114.88
107.37
90.58
62.61
25.29
-15.9
-53.83
-82.23
-98.32
-103.29
-101
-95.63
-89.5
-82.7
-73.92
-62.29
-48.08
-32.81
-18.18
-5.12
6.5
17.66
30.1
43.66
56.85
67.16
71.81
68.68
57.45
39.83
19.29
0.01
-14.36
-22.32
-24.45
-22.66
-19.74
-17.64
-17.04
-16.99
-15.65
-10.42
0.15
15.35
32.42
45.78
48.94
36.3
5.55
-41.13
-96.34
-150.26
-193.55
-219.84
-227.57
-219.18
-199.55
-174.19
-147.3
-119.79
-90.26
-55.82
-12.82
38.06
91.55
137.75
163.63
158.21
118.55
52.99
-19.94
-76.85
-98.62
-76.31
-13.96
73.57
166.56
246.78
301.02
322.16
308.13
259.88
181.56
80.18
-34.04
-148.04
-247.47
-320.34
-359.63
-363.9
-336.43
-282.49
-207.23
-115.78
-13.97
91.08
188.96
266.9
313.16
321.33
292.69
236.11
163.72
86.1
9.54
-65.02
-139.86
-215.26
-285.51
-333.3
-336.8
-284.96
-188.69
-74.93
28.65
104.25
146.13
163.06
161.85
146.54
119.8
85.32
49.7
20.84
5.59
5.86
20.25
42.22
62.99
75.23
76.43
70.5
65.17
67.32
79.19
97.13
112.87
118.42
109.58
87.53
57.89
27.28
-0.06
-23.24
-43.18
-61.08
-76.42
-87.14
-90.88
-86.67
-75.91
-62.6
-52.19
-49.46
-56.66
-71.95
-89.47
-101.02
-98.97
-78.24
-37.79
20.02
91.07
171.23
257.49
347.35
437.56
522.69
596.19
651.98
686.19
697.61
687.11
656.71
608.13
542.49
459.61
361.56
253.78
144.05
40.36
-50.99
-125.67
-181.86
-220.09
-246.38
-266.71
-285.38
-305.52
-330.21
-362.52
-403.6
-452.08
-504.34
-560.88
-619.68
-675.57
-722.76
-758.16
-782.4
-797.47
-804.97
-805.7
-807.02
-811.87
-815.62
-809.13
-783.4
-733.13
-657.18
-559.17
-408.42
-212.23
-9.46
154.44
256.2
301.09
306.2
293.16
277.82
264.02
242.97
209.76
168.66
128.61
101.03
92.94
108.02
147.19
206.71
270.49
325.88
369.88
406.15
441.3
480.83
513.26
526.51
536.31
542.15
529.27
494.52
442.31
381.64
321.46
268.13
225.24
191.57
157.9
118.65
76.51
37.61
7.21
-14.17
-30.52
-45.86
-62.02
-80.17
-95.85
-100.47
-87.93
-57.31
-13.3
36.22
83.8
122.97
146.7
150.76
134.76
100.66
52.91
-2.54
-58.94
-108.88
-145.57
-165.15
-166.6
-152.15
-127.85
-101.55
-80.26
-68.04
-65.29
-70.19
-81.31
-98.19
-120.99
-149.54
-182.38
-216.86
-249.72
-278.1
-299.41
-311.09
-310.29
-294.5
-263.07
-218.58
-167.3
-117.26
-75.53
-45.46
-25.62
-11.01
4.64
25.78
53.46
85.09
116.27
143.01
163.57
178.65
190.39
200.87
210.31
216.79
216.98
207.9
188.67
160.86
128.12
95.03
66.42
46.04
35.94
36.71
48.59
71.73
105.29
145.93
186.7
218.85
233.39
223.43
186.52
126.18
52.14
-22.22
-83.67
-122.66
-134.06
-119.59
-88.25
-55.18
-37.17
-47.16
-91.16
-167.56
-269.18
-384.39
-489.74
-555.62
-562.61
-514.4
-432.2
-338.21
-246.09
-167.48
-98.45
-37.62
12.52
47.44
64.4
65.44
53.5
35.55
19.28
12.51
18.66
36.11
58.07
75.8
83.06
78.35
65.07
48.39
33.36
21.3
10.51
-1.67
-15.69
-28.23
-33.6
-25.54
-0.74
41.09
96.93
162.26
232.5
303.53
371.5
432.19
481.18
514.48
530.51
530.2
516.83
494.79
468.15
440.34
414.06
391.73
374.92
363.49
354.7
343.6
324.64
294.19
252.73
204.49
155.19
108.92
66.11
24.09
-21.04
-71.79
-127.85
-186.68
-244.95
-300.44
-352.71
-402.65
-450.81
-496.05
-535.33
-564.68
-581.43
-585.9
-581.67
-574.57
-570.81
-574.85
-587.36
-604.64
-619.38
-622.35
-604.88
-561.14
-490.5
-399.02
-298.03
-200.52
-116.75
-51.34
-3.1
32.87
62.33
89.8
117.51
145.62
173.17
199
221.56
239.07
249.98
254.03
253.28
251.95
254.33
261.99
271.77
275.92
265.06
232.56
178.65
112.16
48.89
6.34
-3.01
23.14
75.91
138.92
194.73
231.21
245.25
242.07
231.53
222.67
219.59
220.52
219.87
211.66
192.48
163.45
129.55
97.56
72.81
56.77
46.28
34.95
15.52
-17.38
-65.12
-124.48
-188.44
-247.82
-293.36
-318.1
-319.28
-299.39
-265.76
-228.35
-196.6
-175.73
-164.82
-157.25
-143.52
-115.55
-69.77
-8.68
60.41
127.38
182.06
216.77
228.12
217.95
192.44
160.52
130.92
109.48
97.48
91.75
86.39
75.62
57.07
33.4
12.24
3.14
13.26
43.79
88.85
137.95
180.65
211.15
229.84
241.68
251.6
261.03
266.84
263.21
245.36
212.09
166.57
114.84
63.51
17.9
-18.42
-43.23
-55.16
-53.34
-38.02
-11.81
19.81
49.55
70.73
80.19
80.33
78
81.23
94.36
114.69
132.55
135.17
112.14
60.08
-15.81
-104.46
-193.45
-273.23
-339.35
-391.95
-433.06
-464.88
-488.96
-506.74
-520.28
-531.95
-542.71
-550.42
-549.58
-532.89
-494.94
-435.35
-360.34
-281.09
-209.92
-155.99
-123.16
-110.22
-112.22
-122.83
-136.14
-147.82
-155.15
-156.83
-152.27
-141.7
-126.53
-107.14
-82.48
-50.83
-10.79
38.1
95.55
161.49
234.89
311.08
384.11
447.34
493.07
514.29
507.34
473.74
421.48
360.08
294.42
228.19
165.53
110.61
68.61
44.83
42.82
64.29
105.08
152.34
194.33
225.51
245.63
258.81
270.87
270.12
248.15
224.34
201.08
164.8
109.88
37.72
-43.8
-122.13
-183.95
-216.12
-213.74
-184.69
-140.85
-91.63
-43.9
-2.68
29.1
49.89
62.99
70.75
73.08
72.63
77.06
93.11
119.25
146.1
160.7
156.98
132.85
90.37
35.04
-23.65
-77.73
-127.94
-180.28
-240.94
-307.54
-377
-446.28
-515.45
-581.53
-620.47
-611.57
-549.78
-475.89
-406.37
-343.71
-275.53
-198.9
-111.74
-12.58
92.14
191.24
273.14
325.28
335.8
324.37
306.27
283.22
259.64
236.16
211.89
186.32
163.28
144.83
130.7
114.68
92.99
67.58
41.28
18.01
1.55
-3.5
5.11
27.72
60.04
98.36
140.83
183.91
223.41
255.25
277.2
288.25
288.43
276.59
252.98
219.89
179.51
133.91
85.14
35.72
-11.48
-53.61
-89.15
-117.55
-139.41
-157.02
-173.35
-190.1
-207.22
-222.91
-235.66
-245.6
-254.7
-266.36
-283.97
-308.65
-337.47
-363.36
-377.05
-370.87
-341.98
-293.13
-231.98
-167.61
-106.65
-51.17
0.5
50.71
99.53
143.32
176.51
193.9
193.17
176
147.66
115.51
87.45
70.27
68.17
81.75
106.73
136.02
162.53
181.74
193.01
198.7
201.76
204.46
207.43
209.07
207.7
202.89
194.97
183.33
165.25
135.8
91.3
32.25
-37.03
-108.39
-172.7
-223.19
-257.93
-279.37
-292.35
-299.81
-292.88
-264.7
-217.09
-162.49
-115.05
-84.61
-66.43
-52.54
-34.88
-7.52
30.43
75.67
121.83
163.48
197.21
220.36
230.59
227.92
215.03
195.05
172
147.75
124.67
105.3
89.37
74.61
60.09
47.59
40.01
41.49
51.49
67.41
84.65
93.38
81.24
38.91
-36.06
-139.22
-258.52
-383.47
-503.54
-589.81
-614.58
-569.2
-471.17
-349.33
-239.94
-140.72
-47.58
39.99
119.68
184.76
226.47
240.47
229.59
196.15
151.91
110.06
82.6
73.47
75.15
74.99
63.88
41.18
14
-6.8
-15.93
-12.52
1.03
20.12
40.79
61.64
83.95
108.82
136.61
163.74
185.57
198.37
199.89
189.77
169.39
141.18
107.67
71.94
35.65
-0.02
-34.19
-66.29
-96.24
-124.27
-151.26
-178.54
-206.87
-236.52
-266.41
-294.4
-317.77
-334.43
-343.61
-346.38
-344.99
-341.83
-338.38
-334.59
-328.7
-317.48
-297.07
-264.04
-216.83
-156.86
-88.7
-19.27
44.09
95.74
133.65
159.76
179.05
196.7
215.75
236.03
254.71
268.63
276.02
277.46
275.14
271.54
267.31
261.15
251.33
237.26
220.72
204.75
191.78
182.34
175.84
171.03
167.85
168.06
173.89
186.2
202.39
216.28
220.98
212.67
190.61
157.34
117.56
76.07
37.36
4.41
-21.95
-49.19
-79.78
-111.69
-139.28
-157.1
-162.96
-157.88
-143.81
-124.73
-102.9
-78.26
-51.22
-23.02
4.93
29.46
51.96
76.51
107.37
146.03
189.74
230.03
255.51
255.59
224.24
162.47
76.23
-24.8
-127.89
-217.88
-281.22
-309.31
-302.85
-272.16
-233.23
-203.5
-196.11
-215.84
-256.88
-306.7
-350.36
-375.72
-376.26
-350.85
-303.62
-241.17
-171.1
-99.11
-29.93
31.47
79.36
108.87
118.71
111.69
95.86
80.91
77.01
91.02
124.39
172.84
229.24
286.85
340.16
387.5
416.02
415.23
383.12
327.93
260.66
189.06
121.81
56.9
-5.05
-61.55
-108.6
-144.36
-166.66
-176.82
-177.48
-170.82
-159.03
-142.79
-123.46
-101.51
-77.52
-52.63
-29.38
-10.58
1.49
4.84
-0.46
-13.11
-29.8
-46.55
-60.45
-70.73
-78.26
-84.55
-91.46
-100.06
-110.92
-123.6
-136.73
-148.25
-155.69
-156.24
-147.21
-127.38
-97.56
-60.97
-22.47
13.01
42.08
63.46
77.78
86.34
89.88
88.46
81.86
70.48
55.82
40.18
25.72
13.64
3.81
-4.69
-12.56
-19.74
-25.53
-28.92
-29.46
-27.44
-23.51
-18.5
-12.9
-6.83
-0.19
7.11
15.09
23.63
32.47
41.29
49.71
57.14
63.01
66.97
69.09
69.93
70.12
70.14
69.97
69.18
67.09
63.28
57.92
51.75
45.99
41.8
40.14
41.56
46.18
53.54
62.75
72.69
82.45
91.54
99.88
107.44
113.58
116.73
114.46
104.48
85.66
58.59
25.28
-11.65
-49.51
-85.71
-117.43
-141.84
-156.24
-158.86
-150.05
-132.9
-112.54
-94.34
-81.93
-76.31
-76.89
-81.98
-89.79
-98.69
-107.24
-113.6
-115.21
-109.51
-95.4
-75.25
-53.89
-36.54
-26.55
-24.61
-28.94
-36.69
-45.68
-50.08
-47.18
-38.27
-27.78
-19.3
-12.71
-4.61
9.58
33.14
66.32
106.04
147.62
186.46
219.97
246.71
264.31
269.74
260.4
234.8
194.13
143.52
90.41
42.94
6.93
-15.91
-27.95
-28.52
-19.33
-2.54
20.93
50.49
85.17
121.97
156.05
181.85
194.29
190.25
169.01
131.84
80.93
18.33
-54.63
-136.41
-223.52
-312.44
-399.57
-482.93
-560.9
-630.19
-684.23
-713.6
-708.96
-663.21
-577.79
-461.55
-330.55
-201.47
-86
11.17
90.88
155.79
209.02
249.77
277.66
290.57
288.57
275.63
256.52
234
202.26
164.87
114.97
49.42
-33.14
-129.33
-224.54
-296.21
-325.53
-309.06
-258.77
-204.12
-155.1
-114.97
-82.73
-53.77
-24.37
6.95
40.77
77.97
117.37
158.38
196.57
227.27
248.11
259.1
262.16
260.41
257.53
256.15
259.98
269.99
286.17
308
333.72
359.93
382.65
398.25
404.48
402.69
394.72
382.43
365.94
342.13
305.11
248.64
169.36
69.54
-42.29
-154.7
-256.28
-338.71
-398.2
-434.9
-451.27
-450.52
-435.77
-410.46
-379.21
-347.51
-320.08
-298.99
-282.23
-264.17
-238.16
-200.14
-151.16
-97.26
-47.01
-7.83
16.64
27.42
28.66
25.26
21.06
18.4
18.75
23.51
34.47
53.28
80.91
117.07
160.27
208
257.58
306.73
353.35
395.17
429.24
451.89
459.24
448.39
418.58
371.78
312.02
244.12
172.6
100.8
30.94
-35.85
-99.26
-159.18
-215.13
-266.14
-310.56
-345.49
-367.46
-372.93
-359.66
-328.84
-284.53
-232.58
-179.63
-131.05
-89.23
-53.44
-20.76
11.86
43.61
70.72
88.14
90.79
75.9
45.19
5.46
-33.08
-59.76
-69.78
-63.39
-44.66
-20.87
-0.57
8.5
0.92
-25.21
-68.6
-128.93
-202.9
-274.86
-322.46
-327.81
-289.53
-221.24
-148.66
-77.04
-8.53
55.34
113.92
164.76
205.03
234.76
251.69
257.58
255.86
245.73
224.93
192.53
149.44
98.6
46.64
-4.74
-51.39
-87.65
-110.23
-116.94
-106.82
-82.31
-48.1
-14.1
8.25
11.31
-6.62
-42.15
-86.98
-131.01
-167.21
-193.97
-214.77
-235.1
-257.49
-280.73
-300.86
-312.46
-309.94
-289.6
-250.63
-195.67
-130.56
-62.56
0.67
52.4
88.2
106.76
109.13
98.03
77.4
52.23
28.92
14.32
14.32
32.21
67.45
115.28
167.71
215.53
250.79
268.74
268.84
254.13
230.04
202.55
176.81
156.26
142.43
135.24
133.58
135.97
140.74
146.08
149.87
149.36
141.14
121.99
90.51
48.89
3.53
-36.45
-62.41
-69.41
-58.39
-35.54
-9.43
12.79
28.36
39.34
50.6
66.96
91.07
122.44
157.73
191.66
218.06
231.07
226.54
203.33
164.28
115.97
67.44
27.7
2.88
-5.89
-3.19
1.76
-2.29
-25.22
-71.95
-140.24
-220.71
-299.27
-361.38
-396.16
-399.13
-372.74
-324.78
-265.5
-204.75
-149.8
-104.67
-70.35
-45.99
-29.77
-19.71
-13.74
-9.42
-3.83
6.19
23.09
47.18
75.39
101.51
117.66
117.37
98.98
67.28
32.73
8.13
3.2
20.49
54.38
93.26
124.61
139.94
137.57
121.91
100.42
79.5
62.08
47.53
33.2
16.9
-1.43
-19.29
-32.4
-36.35
-28.6
-9.47
18.33
50.87
85.23
120.61
157.96
198.56
241.76
284.01
319.6
343.06
350.89
342.83
321.05
287.99
244.76
190.95
125.68
49.27
-35.4
-123.39
-208.82
-286.54
-353.53
-409.6
-456.6
-496.52
-529.89
-554.71
-566.73
-561.13
-534.92
-489.45
-430.97
-368.21
-308.39
-254.42
-204.62
-154.25
-98.16
-33.35
38.98
112.59
179.22
232.11
268.1
287.51
292.62
286.15
270.58
246.93
213.43
168.17
111.51
47.07
-19.42
-82.08
-136.5
-179.39
-199.38
-188.47
-147.97
-89.52
-27.4
28.23
72.3
102.97
122.22
135.98
149.46
167.82
195.04
232.15
275.74
318.88
348.9
356.56
338.45
297.04
240.75
181.7
132.11
100.24
88.29
92.9
108.79
130.82
155.05
179.92
205.78
233.06
260.18
282.57
293.74
288.41
263.98
221.01
162.9
94.68
21.31
-53.29
-126.48
-196.48
-261.07
-317.68
-363.71
-397.37
-418.44
-428.55
-430.93
-429.42
-427.54
-427.66
-430.6
-434.79
-436.01
-428.17
-405.16
-363.51
-304.45
-234.57
-164.54
-106.52
-69.49
-56.61
-64.98
-87.97
-118.23
-149.6
-177.7
-199.67
-214.3
-220.25
-216.54
-203.51
-183.87
-161.73
-140.37
-120.43
-101.38
-85.12
-74.84
-74.4
-85.56
-106.07
-128.25
-140.26
-129.49
-88.9
-21.89
62.32
152.75
240.97
321.5
388.76
431.21
440.95
429.42
403.93
369.81
328.94
287.95
253.76
231.54
224.39
234.02
259.75
295.77
334.57
367.33
385.36
380.74
348.9
290.58
212.05
122.12
27.77
-64.18
-147.02
-213.76
-258.78
-279.4
-277.38
-259
-234.07
-213.57
-204.06
-205.26
-210.53
-210.87
-199.03
-172.66
-134.8
-92.28
-53.09
-22.31
-0.15
17.72
37.74
65.58
104.24
153.48
210.43
270.44
328.1
377.81
414.44
434.35
436.38
422.22
395.53
360.1
318.4
271.1
217.88
158.96
96.23
32.88
-27.58
-82.38
-129.73
-168.52
-197.86
-217.35
-228.05
-233.02
-236.96
-244.89
-260.4
-284.22
-314.15
-346.19
-375.92
-399.93
-417.06
-427.99
-434.37
-437.44
-436.43
-428
-406.94
-368.27
-309.88
-234.89
-151.57
-71.16
-4.51
40.78
61.92
60.19
39.44
4.76
-37.88
-81.54
-118.15
-140.2
-143.38
-129.08
-104.89
-82.1
-71.6
-79.74
-106.82
-147.74
-194.85
-239.82
-275.08
-294.24
-292.47
-267.42
-220.52
-157.79
-88.44
-22.57
32.32
73.18
101.19
119.97
133.53
144.79
155.31
165.66
175.85
185.61
194.69
202.66
209.18
213.99
217.08
219.28
222.14
227.6
236.72
249.12
262.23
272.6
277.34
275.54
269.17
262.07
257.64
256.64
256.7
253.23
242.42
223.53
199.36
175.24
156.57
146.77
146.32
152.89
161.97
168.3
166.58
152.06
122.06
76.93
21.03
-38.17
-92.31
-135.18
-164.53
-182.04
-192.07
-198.63
-203.43
-204.69
-198.23
-179.94
-147.93
-103.72
-51.74
1.89
51.35
91.84
120.35
135.74
138.58
131.28
117.8
102.97
91.1
84.95
84.17
85.7
85.82
81.91
74.84
69.18
71.76
88.4
122.03
170.73
228.34
286.84
337.76
373.52
387.83
376.46
337.19
271.26
183.68
82.61
-22.41
-122.67
-211.61
-284.8
-338.45
-368.88
-373.06
-350.45
-304.45
-242.71
-176
-115.39
-69.57
-42.77
-33.76
-37.41
-47.38
-59.12
-71.22
-85.5
-104.75
-129.68
-157.17
-180.28
-191.08
-184.51
-161.12
-126.01
-86.56
-50.05
-20.8
1.06
18.78
37.29
61.34
93.95
136.42
188.61
247.31
306.86
360.61
402.06
425.53
427.23
406.3
365.52
311.29
249.5
184.19
117.27
49.17
-20.22
-90.17
-158.12
-222.74
-273.19
-298.3
-295.33
-271.56
-238.19
-203.64
-172.5
-146.54
-125.33
-106.3
-89.42
-75.79
-66.03
-60.23
-56.82
-54.68
-53.48
-52.55
-50.93
-49.91
-50.58
-53.16
-57.6
-61.5
-62.47
-58.85
-48.26
-28.46
1.1
39.56
85.51
137.09
195.01
259.28
318.82
357.95
363.16
330.52
266.6
191.32
111.76
33.21
-42.53
-118.3
-194.07
-268.57
-338.84
-400.62
-448.78
-478.96
-485.32
-463.58
-412.84
-336.42
-244.04
-151.17
-75.32
-30.01
-20.09
-37.98
-68.45
-95.38
-106.97
-99.11
-74.54
-40.1
-3.55
28.46
52.68
68.36
76.79
80.44
82.08
83.67
84.91
83.34
76.12
62.73
45.94
31.06
23.41
25.49
35.73
49.3
61.03
68.11
71.32
73.67
77.68
83.35
88.04
88.32
82.28
71.14
58.59
48.76
44.04
43.91
45.41
44.92
39.96
30.29
17.9
5.79
-3.53
-9.11
-11.79
-13.68
-16.99
-23.17
-32.5
-44.32
-57.67
-71.94
-87.09
-103.5
-121.66
-141.68
-163.05
-184.26
-202.9
-215.55
-218.47
-208.95
-186.7
-154.33
-116.48
-78.09
-42.49
-10.52
19.66
51.34
86.94
126.63
168.26
208.75
245.25
275.96
299.81
317.37
330.69
342.24
353.83
366.08
377.9
385.96
384.59
366.17
324.86
259.28
172.79
72.45
-32.59
-132.89
-220.35
-289.46
-338.58
-367.75
-377.31
-368.51
-343.56
-304.5
-252.34
-187.32
-105.08
-13.35
69.77
126.79
150.66
145.79
122.36
90.6
57.54
26.43
-2.46
-29.8
-51.8
-62.82
-58.61
-38.56
-6.42
30.79
64.65
87.15
93.07
82.59
59.79
30.25
-1.02
-31.18
-59.5
-86.98
-115.91
-147.57
-179.82
-208.78
-230.26
-240.8
-238.47
-222.82
-195.59
-161.14
-125.51
-92.95
-66.15
-46.39
-33.74
-27.22
-24.37
-22.15
-18
-10.79
0.23
14.29
28.73
39.41
39.93
26.67
2.55
-20.45
-33.53
-30.57
-8.99
30.25
81.61
136.01
184.31
219.57
238.24
239.8
227.47
206.22
181.15
156.53
135.12
119.17
110.3
108.97
113.88
123.15
133.94
142.25
143.91
136.09
119
96.09
72.39
51.76
35.99
24.27
13.96
2.75
-9.81
-21.96
-31.26
-36.57
-38.66
-38.83
-37.19
-31.45
-17.55
8.22
46.93
95.86
149.12
200.18
244.02
278.17
302.36
317.35
323.85
321.96
311.65
292.53
264.31
226.38
178.15
119.7
52.51
-20.53
-95.62
-168.96
-237.68
-300
-355.52
-404.73
-448.19
-486.25
-518.93
-545.93
-566.89
-581.52
-588.48
-586.07
-572.02
-543.85
-500.19
-441.9
-372.37
-296.86
-221.14
-148.45
-81.38
-22.5
24.14
52.57
57.07
35.99
-4.97
-52.71
-88.11
-94.9
-64.77
-0.39
86.37
179.3
263.92
334.61
382.26
411.21
426.12
431.01
428.55
420.42
407.24
388.96
364.45
331.05
287.15
230.73
161.54
81.43
-5.61
-93.92
-177.43
-250.69
-310.51
-354.6
-383.06
-396.44
-394.83
-378.13
-347.05
-304.83
-258.15
-215.99
-185.21
-167.95
-159.4
-149.91
-129.51
-92.7
-40.72
19.79
80.47
135.47
182.28
220.5
249.14
264.55
260.77
232.44
178.59
105.11
23.91
-50.26
-104.51
-131.46
-130.76
-107.95
-71.46
-29.64
11.56
48.42
79.01
102.73
119.8
131.41
138.83
142.2
140
129.34
107.3
72.99
28.64
-20.78
-68.93
-109.94
-139.73
-156.22
-159.18
-150.21
-132.39
-109.85
-86.89
-66.42
-49.57
-35.35
-21.06
-3.1
21.73
55.21
97.44
147.01
202.2
259.96
316.15
365.97
404.33
426.31
427.13
403.39
354.88
286.77
207.08
125.58
51.72
-6.49
-44.31
-62.03
-64.01
-55.82
-39.45
-16.38
12.12
43.42
73.89
98.55
110.78
104.38
76.35
30.97
-26.65
-92.01
-162.18
-233.49
-293.63
-326.05
-320.62
-296.47
-265.23
-234.33
-203.09
-174.81
-151.79
-134.37
-122.42
-115.88
-114.57
-115.11
-115.74
-115.61
-114.29
-109.68
-99.42
-84.22
-68.05
-56.35
-51.18
-53.04
-60.06
-69.2
-76.86
-80.92
-82.14
-82.15
-80.85
-74.44
-59.96
-38.58
-17.45
-6.82
-15.17
-44.88
-88.53
-131.01
-156.12
-155.4
-131.93
-97.97
-66.76
-45.95
-36.11
-29.84
-16.09
12.85
57.61
112.16
167.48
217.49
259.87
291.3
310.5
318.15
313.98
298
271.94
239.78
209.4
187.63
170.88
152.87
129.4
96.92
54.84
6.15
-42.96
-80.37
-92.8
-76.9
-31.28
45.16
146.6
261
373.04
445.22
448.79
420.82
388.72
352.57
317.22
283.9
250.04
210.78
161.62
104.48
44.92
-18.06
-83.72
-147.49
-207.23
-262.61
-314.19
-361.97
-401.94
-429.38
-446.69
-455.88
-454.93
-441.36
-412.48
-366.88
-305.96
-232.58
-152.41
-76.23
-12.62
35.94
69.96
91.19
100.2
95.61
76.69
44.67
2.83
-40.95
-74.32
-86.49
-71.38
-30.72
27.52
93.61
159.5
219.81
271.67
314.2
343.79
355.55
343.18
302.49
234.4
144.91
42.4
-65.68
-172.21
-270.9
-346.13
-383.6
-380.13
-343.99
-287.76
-222.64
-161.79
-105.56
-56.78
-17.16
10.75
25.77
30.97
31.07
33.62
45.2
71.61
109.91
154.95
198.01
230.52
248.63
252.93
246.59
220.54
186.53
136.97
67.81
-21.56
-126.78
-237.71
-337.86
-405.05
-425.95
-402.73
-353.94
-296.45
-240.75
-195.26
-156.9
-125.11
-102.1
-91.14
-90.9
-97.1
-100.22
-90.68
-63.99
-22.09
25.64
66.8
90.4
92.15
73.69
43.4
11.38
-13.77
-25.53
-21.95
-4.92
20.16
46.29
66.59
77.87
81.23
81.16
83.93
91.95
103.04
112.48
116.86
116.9
117.09
123.52
141.04
172.3
215.02
264.43
316.67
369.74
421.86
467.71
498.69
506.02
485.91
438.51
368.44
282.98
189.61
94.02
-1.43
-94.74
-188.11
-269.38
-322.9
-342.23
-336.02
-324
-314.52
-305.95
-291.42
-264.7
-222.04
-169.82
-121.3
-90.66
-86.43
-107.53
-145.18
-185.08
-211.49
-211.45
-180.71
-123.95
-52.23
20.86
83.32
125.79
144.45
141.52
123.95
98.66
71.08
45.44
26.24
19.23
28.3
55.06
97.53
150.13
204.01
249.2
276.64
279.38
254.01
198.46
115.58
12.95
-97.73
-203.86
-295.1
-365.89
-415.42
-444.58
-458.19
-459.28
-450.11
-432.38
-407.27
-375.29
-336.24
-289.71
-234.09
-172.63
-108.28
-44.99
13.65
65.37
109.68
146.7
164.72
174.74
172.14
155.97
128.98
98.21
72.95
61.95
69.92
95.87
135.53
178.95
219.41
253.21
279.71
299.69
313.72
321.46
321.4
312.71
291.55
256.59
208.84
151.91
90.91
30.22
-28.75
-88.35
-151.69
-221.28
-292.4
-352.93
-386.76
-380.22
-328.49
-237.99
-123.93
-3.24
110.24
210.48
297.76
374.96
443.88
502.97
548.47
576.69
587.16
582.69
568.48
548.92
525.19
495.15
454.8
401.08
333.49
255.17
172.11
91.53
19.38
-41.52
-90.96
-130.15
-159.93
-180.44
-190.89
-190.76
-180.58
-162.88
-143.46
-128.05
-120.22
-119.84
-124.47
-130.42
-135.43
-138.63
-141.51
-150.41
-170.92
-205.6
-252.02
-305.04
-357.67
-403.93
-437.42
-453.69
-456.69
-452.76
-448.31
-446.99
-451.7
-463.04
-481.9
-504.74
-526.22
-547.61
-570
-592.58
-610.36
-619.75
-617.11
-602.7
-574.63
-492.17
-343.9
-155.44
22.82
152.45
211.73
221.23
202.17
172.59
142.51
113.8
91.76
69.38
51.92
40.85
39.68
37.27
36.43
43.72
63.37
98.46
148.21
209.9
275.27
336.19
384.87
420.45
443.82
451.94
440.24
405.21
349.98
281.89
212.23
150.57
104.64
76.41
61.9
55.11
51.21
48.95
47.62
46.58
43.21
35.18
20.09
-3.48
-35.13
-72.75
-112.76
-152.17
-188.38
-219.52
-243.08
-256.18
-255.87
-240.49
-210.57
-168.85
-120.09
-69.85
-23.11
16.57
47.19
68.73
82.94
93.01
102.44
113.51
126.11
137.84
146.27
151.36
156.8
169.47
195.13
235.17
285.57
338.74
387.04
426.17
455.88
477.88
493.42
499.06
487.67
453
393.93
315.53
226.98
138.49
58.51
-6.06
-52.18
-78.34
-82.1
-59.78
-9.26
66.1
157.07
250.06
331.65
387.37
404.99
378.55
309.97
207.8
83.43
-50.38
-193.89
-329.62
-433.23
-487.81
-492.34
-458.24
-401.47
-338.31
-281.76
-234.05
-189.5
-142.12
-88.3
-27.39
38.78
106.97
164.2
198.25
200.5
168.71
103.87
9.85
-105.69
-231.11
-340.76
-409.61
-427.05
-400.51
-346.27
-281.35
-217.88
-162.02
-115.28
-76.9
-47.31
-27
-14.99
-8.2
-3.92
-0.56
2.01
3.08
2.16
-2.16
-10.49
-21.43
-31.84
-38.85
-40.62
-36.74
-27.69
-14.3
1.57
17.82
32.83
46.23
57.14
65.07
69.9
71.8
71.33
68.52
62.57
53.36
42.64
33.58
30.57
36.91
51.74
69.93
84.31
88.41
79.95
60.99
35.59
7.44
-23.55
-59.28
-100.8
-145.57
-187.05
-216.27
-223.08
-206.74
-171.83
-126.41
-78.92
-35.42
1.26
29.85
51.03
64.02
67.57
62.19
49.81
33.59
16.7
1.83
-9.84
-18.44
-25.44
-33.2
-42.75
-53.54
-62.51
-64.84
-55.58
-32.01
5.58
48.81
86.71
110.68
117.08
108.56
91.55
72.76
56.22
42.76
30.89
19.3
8.27
-1.39
-8.91
-14.4
-19.02
-24.95
-34.12
-47.33
-63.28
-78.93
-91.4
-98.03
-97.58
-90.35
-78.18
-63.57
-49.17
-36.3
-25.05
-14.67
-3.87
8.36
22.29
37.08
51.39
63.42
72.33
78.31
82.01
84.38
85.98
86.47
84.42
78.31
66.24
47.85
25.03
0.94
-20.47
-34.69
-37.61
-27.47
-3
33.5
76.12
115.92
142.34
147.62
131.29
101.32
71.02
54.21
57.68
79.98
112.47
141.97
155.92
146.78
112.58
55.11
-20.89
-110.59
-204.79
-283.54
-326.93
-326.96
-289.51
-228.7
-165.7
-109.04
-65.27
-38.24
-27.05
-26.82
-31.02
-31.33
-21.53
-1.63
21.29
33.82
23.1
-15.36
-75.58
-143.09
-198.85
-226.12
-216.3
-170.76
-100.09
-18.57
62.62
136.93
200.36
251.24
288.94
312.98
323.16
318.62
298.75
264.97
219.26
161.31
91.17
11.17
-72.62
-152.13
-210.47
-242.13
-252.07
-240.03
-207.81
-156.91
-88.22
-3.07
94.45
190.03
261.49
290.79
274.91
223.86
154.5
82.28
17.5
-33.11
-74.82
-111.91
-144.7
-171.28
-192.46
-211.87
-234.55
-260.77
-286.76
-304.21
-301.87
-270.65
-207.39
-117.6
-12.43
95.4
194.72
275.93
330.08
350.36
334.1
285.91
218.55
151.12
102.9
85.72
98.26
125.82
147.62
145.72
112.95
55.14
-11.4
-67.43
-98.42
-99.95
-78.56
-47.81
-22.73
-14.07
-26.25
-57.29
-101.6
-153.04
-206.21
-256.37
-297.61
-321.31
-317.29
-278.19
-204.2
-105.12
2.4
101.14
178.52
229.82
258.93
275.3
288.3
302.47
316.38
324.43
320.88
300.56
259.8
198.49
120.63
32.01
-61.95
-157.36
-251.68
-333.16
-384.55
-395.28
-368.69
-316.97
-253.13
-186.82
-124.61
-70.87
-28.68
4.35
29.93
50.26
69.87
94.17
127.39
171.32
217.49
256.64
278.63
275.53
245.95
197.15
141.49
90.64
50.77
20.84
-4.53
-33.24
-70.34
-116.08
-164.61
-206.85
-234.81
-245.07
-240.64
-228.12
-216.48
-208.21
-206.81
-212.14
-220.6
-227.22
-228.15
-222.32
-210.59
-195.58
-180.27
-167.51
-158.66
-154.71
-156.8
-165.78
-181.18
-199.19
-213.19
-215.38
-200.49
-166.89
-118.25
-62.77
-10.45
29.91
53.63
60.6
54.35
39.6
21.02
2.1
-14.98
-28.99
-38.61
-41.76
-35.66
-17.5
14.41
60.27
118.24
184.38
252.71
315.74
366.17
398.62
411.36
406.92
391.03
370.27
349.56
330.62
311.79
289.96
262.81
230.4
195.55
162.09
133.1
109.52
90.19
73.02
56.31
39.61
23.65
9.73
-1.36
-9.98
-17.57
-25.78
-35.38
-45.23
-52.55
-53.62
-44.91
-24.21
8.69
51.8
101.55
153.7
204.67
252.2
295.59
334.62
367.93
391.65
399.35
383.81
340
267.59
171.78
62.41
-48.23
-147.7
-225.46
-274.49
-292.53
-282.85
-253.63
-215.39
-177.3
-144.17
-115.53
-87.48
-56.11
-20.16
18.39
55.77
88.42
114.18
131.97
140.59
138.06
122.24
92.76
52.86
9.9
-26.09
-45.56
-43.21
-20.29
15.33
51.86
78.14
87.32
78.31
54.55
20.85
-19.39
-65.53
-119.28
-181.46
-249.45
-316.86
-375.52
-418.97
-445.06
-456.16
-457.08
-453.33
-447.22
-436.17
-413.94
-374.52
-315.83
-241.28
-158.25
-74.76
0.51
61.7
107.31
140.05
164.37
184.03
200.63
213.56
220.67
214.91
188.46
136.59
60.76
-32.66
-135.6
-240.96
-343.52
-422.72
-458.95
-444.05
-388.11
-310.31
-227.04
-148.02
-78.57
-25.42
14.14
38.85
46.81
39.09
21.83
4.47
-3.38
4.87
32.07
76.44
128.23
175.23
208.21
224.5
227.14
221.21
210.71
197.01
179.61
155.47
123
84.03
42.97
4.06
-30.65
-60.19
-82.46
-92.56
-85.41
-57.29
-8.49
55.26
123.21
182.98
225.57
248.54
256.12
255.62
254.88
260.31
276.56
304.84
342.7
384.6
422.58
447.63
451.63
429.78
382.53
315.38
234.95
146.52
53.52
-41.91
-137.89
-232.26
-322.92
-407.87
-476.89
-516.28
-518.75
-489.33
-441.13
-385.73
-328.55
-271.07
-213.18
-155.08
-99.09
-49.25
-8.54
23.01
46.35
62.47
72.2
77.45
82.01
90.04
100.24
113.55
128.09
138.79
139.58
126.55
100.19
65.12
26.96
-9.74
-42.33
-70.73
-93.64
-109.03
-115.91
-115.51
-112.25
-112.83
-119.57
-134.06
-152.56
-166.74
-168.01
-152.24
-120.85
-79.9
-37.26
1.19
32.08
56.19
75.61
93.42
112.81
136.43
164.99
191.99
212.14
219.95
212.2
189.32
155.01
114.1
70.89
28.33
-11.5
-45.37
-70.55
-84.9
-88
-82.79
-75.76
-74.58
-85.01
-107.69
-136.08
-160.01
-169.43
-158.97
-130.1
-90.37
-49.8
-16.7
4.84
15.29
17.31
13.83
5.71
-5.67
-18.36
-29.63
-37.01
-39.29
-37.07
-32.79
-29.01
-26.91
-25.48
-22.74
-17.15
-8.9
-0.16
6.02
6.9
1.34
-9.87
-24.43
-39.58
-52.42
-60.38
-61.61
-55.6
-43.86
-29.93
-18.4
-12.92
-15.06
-23.36
-34.41
-44.52
-51.42
-54.88
-56.19
-57.02
-58.27
-59.75
-60.36
-58.44
-52.47
-41.26
-24.52
-3.08
21.1
45.42
67.5
85.97
100.72
112.41
121.61
128.05
130.61
128.07
120.1
107.73
93.04
78.22
64.57
52.27
40.85
30.02
20.22
12.28
6.92
3.97
2.48
0.99
-1.48
-5.05
-8.86
-11.62
-12.33
-10.55
-6.24
0.76
10.81
23.96
39.09
53.74
64.84
70.33
70.56
68.36
67.3
69.24
72.46
72.17
63
42.4
12.79
-18.68
-42.91
-52.59
-45.19
-23.89
4.23
31.32
51.88
64.55
71.93
78.92
90.1
107.25
128.46
148.91
162.79
165.12
153
125.71
84.4
31.94
-26.92
-85.51
-135.39
-167.86
-176.72
-160.6
-123.81
-75.29
-25.92
14.6
40.37
50.53
49.6
44.7
42.42
46.18
55.41
66.33
73.85
73.77
64.39
48.29
29.7
12.35
-2
-12.96
-20.45
-24.43
-25.28
-23.87
-19.63
-12.93
-5.65
-0.86
-0.6
-4.17
-8.54
-10.21
-5.78
9.87
39.59
82.43
134.06
189.36
244.83
298.66
348.72
373.65
356.67
295.4
204.72
105.02
11.25
-68.75
-132.25
-182.35
-222.56
-250.28
-262.1
-257.97
-243.28
-227.53
-221.21
-227.7
-249.64
-284.76
-324.19
-357.27
-375.72
-376.05
-359.39
-329.6
-292.24
-254.07
-220.13
-191.58
-166.89
-143.3
-118.23
-90.29
-59.44
-27.19
3.06
28.23
46.72
58.35
63.96
65.44
65.83
69.05
78.88
97.23
123.92
156.64
191.8
225.4
254.14
275.72
288.69
292.08
285.4
269.5
246.76
221.04
196.21
174.77
157.08
141.68
126.44
109.8
91.56
72.41
53.42
35.03
16.69
-2.89
-25.2
-51.14
-80.8
-113.16
-146.41
-177.88
-204.71
-224.79
-237.06
-241.9
-240.41
-233.85
-222.58
-206.24
-183.48
-153.26
-116.24
-74.83
-33.01
5.33
37.52
63.14
79.93
85.44
79.7
66.75
53.55
46.34
50.41
65.56
89.62
118.79
149.69
180.72
208.11
230.94
249.52
264.48
275.42
280.77
277.35
261.74
231.05
183.35
118.86
39.01
-53.05
-151.9
-249.05
-333.75
-394.57
-422.74
-415.6
-377.28
-317.85
-249.58
-182.6
-121.7
-66.64
-14.44
37.51
89.43
139.27
183.4
218.05
240.07
247.44
239.06
215.05
177.66
131.75
84.18
41.53
7.47
-18.07
-37.93
-55.29
-71.2
-83.43
-87.67
-79.84
-58.83
-28.1
5.59
34.96
54.98
64.55
66.08
63.95
63.34
67.64
75.98
83.18
81.87
65.76
32.27
-16.34
-74.19
-132.97
-185.82
-231.16
-271.27
-308.96
-343.43
-369.19
-378.78
-366.9
-331.27
-275.55
-210.63
-150.76
-108.98
-93.59
-107.58
-150.04
-218.46
-305.25
-382.89
-421.09
-401.89
-332.11
-235.08
-134.35
-44.01
23.91
76.44
119.99
155.63
182.12
199.67
213.59
226.85
242.94
259.63
274.54
284.88
287.35
280.76
267.48
243.73
208.09
175.8
147.64
117.94
87.73
62.29
48.97
54.19
81.59
124.11
172.12
213
241.25
258.93
271.6
284.33
283.78
286.5
280.62
254.77
198.33
109.17
-6.16
-136.14
-267.98
-390.41
-487.23
-543.54
-551.01
-517.64
-459
-389.04
-317.57
-255.27
-202.12
-156.36
-119
-87.1
-55.92
-18.39
27.77
80.57
133.68
179.89
213.94
231.85
234.36
225.02
209.74
194.88
185.71
185.03
193.47
208.9
226.17
239.76
245.29
240.4
225.25
202.64
176.98
153.63
137.7
132.74
139.69
156.6
179.25
202.68
223.32
239.87
252.2
261.31
268.56
274.01
275.7
270.26
254.31
226.35
187.32
137.35
77.92
12.6
-53.15
-113.83
-165.02
-204
-229.51
-241.71
-246.46
-249.61
-254.09
-259.38
-264.12
-268.67
-275.41
-287.23
-305.77
-336.42
-381.31
-437.28
-497.08
-554.21
-606.59
-656.29
-706.78
-722.45
-678.51
-574.22
-434.76
-290.85
-162.11
-55.99
27.44
91.44
141.37
177.34
199.71
210.99
216.29
220.41
226.11
233.42
240.49
245.52
242.35
226.32
197.24
160.25
123.73
94.84
80.98
83.62
98.05
112.72
116.56
104.61
78.97
46.22
13.11
-15.84
-39.74
-59.25
-76.33
-91.63
-103.31
-109.11
-108.06
-101.3
-91.1
-80.45
-71.34
-64.76
-60.66
-57.7
-54.95
-52.21
-50.15
-49.61
-51.11
-53.87
-55.51
-56.95
-56.68
-53.36
-46.26
-35.34
-21.19
-4.71
13.43
32.99
54.14
78.25
106.25
137.9
171.51
203.79
230.52
248.26
255.56
253.33
245.31
236.06
230.19
231.5
242.03
261.23
286.05
311.62
332.35
343.9
343.57
331.27
308.73
278.23
241.21
198.03
148.03
89.9
22.54
-53.95
-135.82
-215.46
-282.81
-328.48
-346.74
-337.9
-308.28
-267.7
-226.05
-188.9
-158.16
-134.34
-118.07
-109.69
-108.2
-110.81
-113.84
-114.58
-110.45
-100.88
-87.49
-72.15
-54.96
-34.25
-9.02
19.29
46.76
72.39
98.12
127.24
162.93
207.41
260.97
321.45
384.75
426.88
427.45
380.56
298.08
199.71
102.16
16.11
-52.99
-103.85
-138.89
-162.35
-175.82
-180.76
-179.28
-173.77
-166.3
-158.61
-152.25
-148.58
-146.27
-138.57
-122.97
-100.57
-74.8
-49.58
-27.17
-7.15
12.88
37.19
68.68
105.11
140
165.07
172.99
160.81
130.65
88.2
41.25
-3.17
-41.6
-73.97
-102.76
-132.69
-167.27
-207.54
-252.05
-297.03
-337.76
-369.88
-389.69
-394.85
-386.32
-366.14
-336.7
-300.63
-260.2
-217.24
-172.66
-126.48
-69.67
-3.91
59.77
107.62
132.1
135.32
125.33
111.63
102.33
102.03
109.91
123.35
139.98
158.2
177.33
196.16
213.42
228.24
240.12
247.95
251.54
252.61
248.94
241
228.82
212.05
190.52
164.89
136.05
104.97
73.78
45.38
23.19
8.73
1.32
-1.03
-0.72
-0.16
-2.81
-10.62
-23.2
-37.74
-51.71
-64.23
-75.96
-88.53
-103.82
-125.86
-157.24
-197.36
-242.21
-287.06
-328.17
-363.28
-391.34
-395.15
-365.09
-305.85
-234.36
-166.92
-110.42
-63.06
-19.77
23.37
66.92
105.42
135.19
155.08
167.45
176.33
185.34
196.35
209.46
223.68
236.02
240.25
234.96
222.84
208.82
197.75
192.17
191.47
192.26
188.81
176.96
156.89
132.81
110.42
94.13
84.87
80.4
77.05
71.28
61.51
48.21
32.35
13.89
-8.26
-35.4
-67.42
-102.17
-136.42
-167.17
-192.86
-214.28
-234.19
-255.6
-280.22
-307.23
-333.39
-354.41
-366.57
-368.09
-359.64
-343.81
-323.31
-299.17
-269.84
-232.13
-183.62
-124.68
-59.45
5.69
64.58
114
154.59
189.69
223.06
256.78
291.03
324.49
355.19
380.65
397.5
401.41
387.49
352.13
294.79
219.61
134.73
50.19
-25.3
-86.71
-133.58
-169.03
-197.25
-220.87
-239.64
-250.92
-251.63
-240.37
-218.64
-189.93
-158.09
-125.78
-94.09
-63.9
-37.16
-17.07
-6.66
-6.96
-15.62
-27.17
-35.28
-35.46
-26.39
-9.03
15.79
49.25
93.99
151.68
219.96
291.08
352.81
392.19
399.82
372.72
314.46
233.09
138.48
40.57
-50.85
-125.99
-175.58
-192.86
-175.78
-128.51
-60.38
17.22
94.39
164.99
226.59
278.54
319.36
345.62
352.81
337.5
299.6
242.95
174.32
101.33
30.47
-34.61
-93.39
-147.72
-200.6
-253.96
-307.11
-356.1
-394.63
-415.55
-413.36
-386.68
-339.25
-280.14
-221.53
-176.01
-153.4
-158.72
-190.51
-240.82
-297.18
-345.92
-376.19
-382.51
-365.5
-330.13
-282.74
-228.39
-169.97
-109.75
-51.58
-1.71
33.04
49.07
49.31
43.36
43.2
57.13
85.08
118.56
145.08
154.34
143.81
119.97
95.27
82.03
87.58
111.91
149.94
195.02
241.17
283.82
318.84
341.47
346.23
329.31
291.28
238.82
183.8
139.25
114.58
112.28
127.6
151.2
173.26
187.27
191.98
190.59
188.03
187.5
188.63
188.04
182.57
172.08
160.15
152.35
152.46
159.3
166.41
164.73
146.7
109.89
57.44
-4.15
-68.45
-131.44
-191.82
-249.89
-306.13
-360.54
-412.11
-458.45
-495.49
-517.76
-519.78
-498.01
-452.84
-389.49
-317.28
-247.22
-188.55
-146.02
-119.23
-103.85
-93.83
-83.28
-67.69
-44.37
-12.79
25.27
66.05
104.91
137.72
162.36
178.9
189.14
195.33
199.02
200.46
198.74
192.44
180.13
161.18
135.97
106.16
74.75
45.42
21.64
5.57
-2.52
-4.15
-1.66
2.69
7.68
13.61
21.83
34.2
52.55
77.88
109.97
147.24
186.42
222.56
250.02
263.47
259.6
238.75
205.05
165.32
127.05
96.08
74.94
62.84
56.48
51.64
44.57
32.63
14.56
-9.56
-38.43
-69.81
-100.68
-128.13
-150.17
-166.41
-178.24
-188.04
-197.87
-208.67
-219.81
-229.54
-236.02
-238.16
-236.07
-231.02
-224.52
-217.47
-209.82
-200.42
-187.52
-169.67
-146.49
-119
-89.49
-60.67
-34.73
-12.59
5.95
21.5
34.19
43.48
48.53
49.05
46.18
42.22
39.94
41.16
45.77
51.49
54.91
52.78
43.25
26.43
3.97
-21.42
-46.85
-69.97
-89.23
-103.86
-113.9
-120.02
-123.7
-127.37
-134.49
-148.51
-171.96
-204.73
-243.53
-282.26
-313.52
-331.2
-332.35
-317.76
-290.3
-252.73
-206.25
-151.23
-88.9
-22.64
42.35
100.87
150.24
190.92
225.36
255.64
281.87
302.85
318.55
332.35
350.51
379.2
419.28
463.43
497.87
508.5
487.79
439
374.69
310.88
259.91
225.91
205.25
191
178.16
166.07
157.38
154.67
157.42
161.15
158.69
142.87
108.87
55.45
-14.65
-95
-176.76
-250.35
-307.93
-345.54
-364.28
-369.22
-367.42
-364.46
-362.55
-360.49
-355.02
-342.47
-320.04
-286.28
-240.68
-183.6
-116.46
-42.53
32.66
101.74
157.23
193.42
208.03
202.75
182.49
154.09
124.56
100.02
84.99
82.16
92.29
114.49
145.91
181.92
216.6
243.5
256.66
252.06
228.43
187.84
135.92
80.77
31.09
-6.06
-26.83
-31.46
-23.32
-7.5
10.88
28.28
43.36
56.61
69.29
82.14
94.31
103.59
107.21
103.23
91.62
74.21
53.68
32.06
9.46
-15.67
-45.22
-79.63
-116.77
-152.45
-182.42
-204.22
-217.98
-225.72
-229.72
-231.01
-228.91
-221.78
-208.4
-189.67
-168.75
-150
-137.33
-132.59
-135.22
-142.74
-152.07
-160.53
-166.85
-171.15
-174.33
-177.39
-180.62
-183.22
-183.65
-180.1
-171.12
-155.95
-134.15
-105.15
-68.18
-22.78
30.03
86.93
142.54
190.72
226.64
248.48
258.32
260.86
261.68
264.54
269.82
274
271.45
257.05
228.81
189.5
145.77
106.22
78.19
65.1
65.3
72.96
80.18
79.51
66.26
39.66
2.96
-37.57
-74.8
-102.63
-117.2
-116.92
-101.94
-73.6
-34.67
10.18
54.01
88.29
105.04
99.15
70.29
22.87
-35.3
-95.86
-152.04
-199.95
-238.49
-268.05
-289.31
-302.41
-307.14
-303.4
-292.11
-274.92
-253.41
-227.96
-197.01
-157.84
-108.35
-49.15
15.61
79.01
133.68
174.36
199.14
209.36
208.25
199.7
187.66
176.04
168.6
168.09
175.37
188.4
202.72
212.92
214.94
207.37
191.73
171.34
149.48
128.53
109.64
93.07
78.65
66.06
54.56
43.11
30.51
15.67
-1.71
-21.08
-41.08
-60.03
-76.54
-89.9
-99.92
-106.72
-110.48
-111.17
-108.66
-103.09
-95.21
-86.39
-78.48
-73.12
-71.12
-72.24
-75.22
-78.48
-80.99
-82.53
-83.82
-85.96
-89.73
-95.34
-102.5
-110.46
-118.47
-125.82
-131.79
-135.71
-137.38
-137.35
-137.22
-139.39
-146.18
-158.72
-175.87
-194.01
-207.4
-209.85
-196.57
-165.64
-118.73
-60.71
1.58
60.79
110.62
147.33
170.74
184.25
193.73
205.37
223.26
247.53
274.28
297.05
309.34
306.97
289.22
258.5
218.96
175.26
131.33
90.01
53.09
21.35
-5.39
-28.18
-48.59
-68.58
-89.88
-113.64
-140.2
-168.72
-197.44
-223.92
-245.35
-258.69
-261.31
-251.52
-229.23
-196.11
-155.26
-110.74
-66.88
-27.55
4.78
29.55
48.27
63.9
79.62
97.3
116.25
133.81
147.43
156.69
163.79
172.18
184.46
200.78
218.83
234.7
245.28
250.69
254.13
259.19
266.56
272.8
271.45
256.15
222.27
169.05
101.38
29.11
-36.21
-85.4
-113.86
-122.15
-115.02
-101.48
-92.83
-98.23
-122.08
-164.34
-222.78
-294.52
-376.1
-451.12
-498.15
-503.6
-470.03
-411.19
-341.18
-269.67
-202.66
-143.59
-96.07
-59.89
-37.25
-28.99
-31.99
-39.3
-42.67
-35.04
-11.74
25.6
71.26
115.48
149.58
169.29
175.31
171.38
162.09
151.65
143.27
139.01
139.53
145.46
157.09
173.1
189.41
199.97
199.44
185.66
160.91
130.41
100.66
76.52
59.33
46.26
31.93
11.62
-16.26
-48.66
-78.97
-98.93
-101.9
-85.49
-53.09
-12.77
26.06
56.27
75.34
85.33
91.37
98.99
112.29
132.95
160.22
191.42
222.54
249.07
266.86
273.37
268.28
253.43
232.1
207.82
183.66
161.71
143.1
127.83
114.66
101.04
83.93
61.01
31.57
-2.89
-39.14
-73.06
-100.95
-120.66
-132.32
-137.38
-137.63
-134.5
-128.71
-120.61
-110.51
-99
-86.88
-75.39
-65.29
-56.66
-49.11
-42.27
-36.23
-31.36
-28.13
-26.94
-28.84
-33.67
-39.86
-45.54
-49.45
-52.17
-55.02
-59.45
-66.38
-77.83
-93.06
-108.17
-118.16
-119.15
-111.06
-95.73
-76.66
-58.6
-50.3
-57.82
-82.33
-120.91
-168.29
-220.65
-272.89
-319.6
-356.59
-386.16
-410.55
-429.43
-440.44
-440.29
-428.41
-403.64
-365.58
-291.44
-183.27
-67.42
24.21
71.56
87.89
86.63
76.77
64.15
52.34
40.49
30.89
30.53
47.77
87.99
147.78
218.86
290.21
350.38
387.87
398.29
386.1
361.21
333.77
308.5
286.58
266.79
246.93
223.49
195.5
165.29
136.33
110.86
87.99
66.11
44.07
21.7
-0.74
-21.21
-35.94
-40.82
-33.12
-12.95
17.73
55.48
95.72
133.19
163.41
183.46
191.78
187.78
170.87
141.08
98.9
45.37
-17.51
-86.27
-155.34
-217.34
-264.27
-289.59
-290.47
-269.17
-233.07
-192.94
-159.57
-139.8
-133.94
-135.67
-135.23
-124.42
-100.72
-68
-34.5
-8.65
4.64
5.6
-1.88
-13.4
-26.9
-43.05
-63.45
-88.05
-114.01
-136.58
-151.18
-155.55
-150.48
-138.87
-123.89
-107.37
-89.17
-67.64
-40.76
-7.27
32.63
77.17
123.46
168.1
207.53
238.44
258.45
266.67
264.11
253.75
239.77
226.4
216.8
212.19
211.53
212.26
211.6
207.7
200.48
191.35
182.32
174.87
169.45
165.52
162.5
160.76
162
168.67
182.56
203.53
229.14
255.49
278.37
294.08
299.47
291.49
267.19
224.4
162.98
85.76
-1.77
-93.17
-183.15
-269.1
-351.07
-430.37
-507.7
-581.79
-649.19
-704.82
-743.38
-760.45
-753.53
-722.84
-671.52
-605.19
-530.78
-455.05
-383.16
-318.01
-260.04
-207.68
-158.34
-109.51
-59.82
-9.78
38.24
80.7
114.14
136.65
148.47
151.66
148.96
142.79
134.71
125.65
116.22
107.03
98.62
91.12
84.24
77.57
70.75
63.88
57.37
51.74
47.11
43.33
39.98
36.9
34.5
33.68
35.92
42.83
55.67
74.63
98.27
123.42
146.12
162.88
171.91
173.97
172.04
170.23
172.21
180.18
194.16
212.52
232.54
251.07
265.1
271.86
269.28
256.26
233.1
201.53
164.85
127.64
94.69
69.98
54.99
47.84
43.64
36.22
20.3
-6.23
-41.61
-80.85
-117.54
-146.12
-163.37
-168.95
-164.93
-154.88
-142.71
-131.61
-123.41
-118.08
-114.24
-109.48
-101.29
-87.67
-67.52
-40.7
-7.59
30.98
73.95
119.66
165.49
207.59
241.26
262.05
266.97
255.55
230.04
195.22
157.24
121.91
92.95
71.23
55.17
41.64
27.35
9.69
-12.73
-40.26
-72.53
-109.37
-150.54
-194.92
-240.35
-283.82
-321.91
-351.26
-369
-373.15
-363.99
-343.33
-313.7
-278.05
-239.99
-203.49
-171.73
-145.83
-124.22
-105.42
-86.58
-63.22
-30.12
16.22
76
146.22
222.18
298.4
365.33
414.04
439.95
443.76
428.91
398.87
355.94
301.67
237.04
157.39
58.38
-59.23
-188.83
-321.48
-449.71
-568.48
-674.73
-732.84
-715.66
-624.31
-490.44
-351.71
-230.36
-132.06
-53.25
12.46
70.78
119.58
154.56
174.82
183.7
185.26
182.01
174.82
164.37
152.55
138.83
121.24
105.31
96.75
96.64
100.74
102.58
97.79
86.08
67.92
44.51
18.26
-8.46
-33.32
-53.92
-67.67
-72.32
-67.24
-54.97
-39.86
-25.28
-13.26
-3.68
5.77
17.71
33.87
54.6
78.53
103.46
127.94
152.02
172.46
189.11
203.07
215.99
229.06
241.88
251.69
253.44
241.1
210.03
160.01
95.03
22.32
-50.29
-117.17
-176.69
-230.85
-283.47
-337.28
-390.69
-438
-470.57
-480.21
-462.4
-418.41
-354.9
-281.83
-209.73
-146.71
-97.7
-64.22
-45.01
-36.5
-33.56
-30.33
-21.22
-2.18
28.58
70.05
118.77
169.82
217.85
258.11
287.03
302.39
303.29
290.04
264.08
228.11
186.21
143.66
106.05
77.84
60.78
53.06
49.93
45.61
35.46
17.83
-5.55
-30.24
-50.71
-62.15
-61.96
-50.25
-29.46
-3.58
23.12
47.07
66.08
79.7
88.93
95.45
100.8
105.77
110.31
113.8
115.54
115.18
112.94
109.43
105.09
99.79
92.49
81.38
64.45
40.31
8.88
-28.18
-67.56
-105.33
-138.05
-163.67
-181.94
-193.79
-200.39
-202.36
-199.52
-191.37
-177.7
-159.12
-137.02
-113.34
-89.94
-68.4
-49.66
-33.9
-20.36
-7.41
7.01
24.69
46.26
70.85
96.01
118.5
135.4
144.9
146.58
141.12
129.68
113.38
93.46
71.22
48.07
25.61
5.35
-11.59
-24.62
-33.57
-38.56
-39.67
-36.66
-29.05
-16.26
1.87
24.52
49.65
74.35
95.81
112.11
122.67
127.9
128.64
125.5
118.83
109.03
97.14
85.18
75.88
71.71
74
82.21
94.08
106.19
114.9
117.29
111.82
98.64
79.18
55.67
30.22
4.18
-22.24
-49.69
-78.87
-109.77
-140.83
-169.13
-190.95
-202.69
-201.92
-188.39
-164.48
-134.89
-105.64
-82.42
-69.37
-68.12
-77.25
-92.37
-107.33
-116.14
-115.18
-104.9
-89.89
-77.05
-72.25
-77.45
-89.32
-100.59
-103.5
-93.28
-70.37
-39.85
-9.04
15.58
30.08
33.35
26.64
12.74
-4.67
-21.62
-34.07
-38.54
-32.61
-15.27
12.67
49.05
90.28
131.6
167.06
190.57
197.27
185.33
156.94
118.31
78.12
44.75
24.14
18.51
26.45
43.96
65.77
86.8
103.46
114.53
120.77
124.27
126.93
129.35
130.68
129.32
124.41
116.17
105.54
92.53
75.35
51.02
17.36
-24.54
-69.68
-110.16
-138.32
-149.56
-144.06
-126.12
-101.95
-77.45
-56.24
-39.75
-27.99
-20.52
-16.83
-16.32
-17.94
-20.18
-21.78
-22.15
-21.85
-22.29
-24.96
-30.47
-38.14
-46.23
-52.84
-57.13
-59.84
-63.23
-70.31
-83.37
-103.14
-128.35
-156.15
-183
-205.74
-222.33
-232.23
-236.11
-235.11
-230.2
-221.67
-209.04
-191.46
-168.27
-139.42
-105.66
-68.48
-29.79
8.15
42.74
71.32
91.56
102
102.71
95.36
82.58
67.28
51.72
37.11
23.88
11.97
1.25
-7.99
-14.97
-18.54
-17.36
-10.15
3.83
24.56
50.88
80.66
111.24
139.89
164.36
183.15
195.69
202.08
202.9
198.7
189.73
175.88
156.78
132.32
103.31
71.97
41.77
16.82
0.34
-6.55
-5.62
-1.33
0.59
-4.79
-19.93
-44.12
-73.73
-104.16
-131.44
-153.61
-170.98
-185.26
-198.08
-209.73
-218.76
-222.21
-217.01
-200.82
-172.51
-132.36
-81.9
-24.04
37.03
95.91
146.82
184.66
206.65
213.44
208.93
198.84
188.71
182.2
180.25
181.17
181.37
176.98
165.06
144.37
115.71
81.47
44.87
9.14
-23.06
-50.09
-71.15
-86.17
-96.04
-102.46
-107.85
-114.52
-123.67
-134.32
-143.5
-147.6
-144.01
-132.26
-113.95
-92.03
-69.31
-47.88
-28.7
-11.86
2.9
16.32
29.77
45.14
63.74
85.46
107.81
126.31
135.75
131.43
110.67
73.69
24.01
-31.83
-85.06
-126.71
-150.14
-153.38
-140.31
-119.31
-100.15
-90.15
-91.62
-101.59
-114.12
-122.9
-123.38
-114.28
-97.23
-75.91
-54.44
-35.89
-20.97
-8.85
2.09
13.12
23.77
31.67
33.62
28.44
17.94
7.03
0.21
-0.01
6.83
20.68
41.89
70.91
108.24
151.68
196.59
234.05
254.17
250.44
223.31
179.64
129.27
82.95
47.54
25.98
13.55
0.18
-25.38
-70.79
-138.32
-225.42
-324.2
-426.24
-505.35
-535
-505.37
-431.47
-339.42
-249.8
-180.26
-125.65
-81.51
-44.25
-12.42
15.63
41.96
71.08
106.73
148.32
192.45
232.43
263.58
282.95
290.12
287.41
279.98
273.64
272.34
278.97
293.51
315.4
342.22
370.06
394.39
411.24
417.48
410.59
389.88
355.86
311.04
258.3
199.8
136.99
71.61
6.18
-56.09
-111.43
-157.08
-191.73
-216.15
-232.8
-244.81
-254.59
-263.26
-270.71
-275.75
-277.16
-274.12
-266.72
-255.77
-242.09
-225.49
-204.39
-176.56
-140.54
-97.34
-50.89
-7.31
27.35
49.01
57.12
54.53
46.23
37.88
34.34
38.74
51.98
72.74
97.71
122.49
142.8
155.54
159.26
153.82
139.62
117.32
87.57
51.43
10.71
-31.91
-73.99
-114.1
-152.54
-191.14
-231.52
-273.7
-315.65
-354.07
-385.5
-407.28
-417.11
-412.43
-390.14
-347.61
-284.72
-205.48
-118.1
-32.78
41.71
101.02
145.77
179.94
207.83
231.65
250.96
263.61
267.29
260.85
244.82
221.05
192.3
161.75
132.4
106.63
85.89
70.04
57.64
46.79
36.09
25.39
15.61
7.92
2.92
0.06
-1.96
-4.35
-7.51
-10.87
-13.41
-14.57
-14.74
-15.05
-16.5
-19.22
-21.93
-22.42
-18.55
-9.43
4.29
20.64
37.49
53.63
68.88
83.56
97.26
107.93
111.83
104.71
83.41
47.58
0.21
-53.16
-105.68
-150.8
-183.23
-199.32
-197.27
-177.29
-141.64
-94.59
-41.98
9.84
55.33
91.07
116.63
134.26
147.58
159.85
172.7
185.14
194.49
197.56
192.16
178.18
157.6
133.85
110.49
90.56
75.67
66.09
61.06
59.57
60.92
64.72
70.85
78.9
87.89
96.15
102.03
104.09
101.48
93.93
81.36
63.55
40.04
10.12
-27.04
-71.63
-122.61
-177.74
-234.04
-288.89
-341
-390.04
-435.53
-475.34
-504.94
-518.69
-512.64
-487.15
-447.72
-402.79
-359.79
-321.34
-284.45
-242.86
-191.04
-127.67
-56.13
17.07
85.18
142.75
185.45
209.17
210.55
188.87
148.25
98.66
53.32
24
16.5
28.77
52.93
79.7
102.54
119.23
131.03
140.22
148.24
155.44
161.69
167.44
174.19
184.18
198.92
218.34
240.44
261.7
278.51
287.73
287.37
277.54
260.66
240.4
220.26
202.34
187.27
174.58
162.71
149.17
132.33
112.55
92.04
73.61
59.67
51.98
51.05
54.61
56.29
48.11
23.39
-20.72
-82.67
-157.46
-238.05
-314.34
-369.54
-391.82
-382.89
-354.51
-317.6
-277.3
-234.77
-189.76
-142.36
-94.45
-50.23
-13.27
15.23
35.33
47.54
52.05
49.62
42.7
35.18
27.35
24.29
28.79
38.72
48.13
50.52
42.81
27
8.17
-9.22
-22.94
-33.42
-42.64
-51.97
-60.73
-66.48
-66.08
-57.65
-40.98
-16.87
13.43
47.76
82.73
113
132.77
139.16
132.26
115.5
91.82
69.15
55.56
56.26
70.74
94.38
123.39
152.73
175.67
185.97
178.84
150.69
101.06
31.96
-49.89
-129.07
-190.07
-223.28
-225.31
-199.7
-157.08
-111.85
-80.57
-75.99
-98.33
-143.47
-207.16
-283.14
-363.66
-441.14
-491.57
-494.77
-476.68
-453.14
-420.27
-379.97
-333.39
-279.52
-216.79
-144.97
-69.6
-0.09
59.15
103.62
128.67
134.76
126.65
111.24
95.28
82.37
74.59
78.5
98.7
135.09
184.98
242.47
299.3
346.54
376.46
385.69
379.58
365.74
349.95
335.9
324.25
313.71
302.65
290.26
277.15
266.66
260.28
256.65
253.54
248.83
241.48
230.74
215.65
194.78
167.17
131.06
85.19
30.68
-28.88
-88.12
-142.45
-189.15
-229.49
-260.2
-277.73
-281.46
-274.24
-263.16
-250.72
-237.74
-224.72
-212.19
-199.2
-186.9
-176.82
-169.91
-166.08
-163.55
-159.76
-151.1
-133.41
-102.69
-58.1
-2.54
57.66
114.51
161.04
193.09
210.65
217.76
220.38
222.62
224.96
223.84
213.14
186.68
140.46
74.6
-5.6
-90.35
-168.11
-228.13
-263.01
-270.15
-251.71
-213.7
-164.14
-111.19
-61.83
-21.23
8.22
27.3
39.45
49.22
60.01
72.5
84.68
93.41
96.71
95.31
92.15
90.54
91.96
94.95
95.71
89.94
74.77
49.86
17.85
-16.58
-48.23
-72.56
-86.8
-90.29
-84.43
-72.49
-59
-48.87
-46.12
-52.54
-66.39
-82.48
-93.75
-94.26
-82.22
-61.35
-40.04
-27.68
-30.42
-48.1
-74.48
-100.05
-116.17
-118.25
-106.49
-84.73
-58.28
-32.07
-9.84
5.77
13.38
13.31
7.83
0.98
-2.77
-0.19
9.45
24.29
40.66
54.73
63.77
66.69
64.03
57.59
49.9
43.36
39.59
38.88
40.15
41.51
41.2
38.17
32.41
24.82
16.56
8.67
1.82
-3.81
-8.42
-12.53
-16.92
-22.46
-29.36
-36.56
-41.5
-41.14
-33.74
-20.43
-5.82
3.37
0.97
-15.85
-45.14
-80.91
-115.59
-142.8
-159.3
-164.74
-160.3
-146.95
-124.59
-92.42
-49.71
3.32
65.29
133.75
205.38
276.18
341.31
394.99
431
443.98
431.39
394.74
339.55
273.95
206.32
143.18
87.98
41.4
2.5
-30.1
-57.53
-80.6
-99.87
-115.78
-128.36
-137.08
-141.11
-139.88
-133.91
-124.97
-115.68
-108.68
-105.85
-108.22
-115.97
-128.66
-145.31
-164.28
-183.11
-198.69
-207.71
-207.36
-195.83
-172.79
-139.7
-99.86
-58.32
-20.7
8.27
26.18
33.71
33.81
29.98
24.3
17.08
7.8
-3.09
-13.01
-17.75
-13.29
2.09
26.81
56.28
85.03
108.73
125.34
134.71
137.37
133.52
122.88
105.31
81.22
52.11
20.19
-12.03
-42.41
-69.15
-90.56
-104.33
-107.79
-99.76
-81.28
-55.49
-26.29
2.75
29.69
53.47
74.78
95.42
115.8
135.3
153.29
169.67
183.94
194.56
196.53
184.35
154.23
103.65
34.22
-45.42
-119.94
-172.23
-188.52
-166.65
-114.35
-46.82
14.68
49.71
45.93
2.56
-72.32
-165.19
-265.66
-364.68
-435.61
-452.27
-407.14
-318.9
-216.88
-135.23
-71.9
-20.2
27.32
77.82
135.25
196.42
254.42
300.8
326.89
327.95
301.2
251.52
190.58
129.38
74.13
26.38
-14.74
-50.82
-81.36
-106.76
-126.1
-138.23
-145.39
-152.94
-166.11
-186.48
-211.29
-234.15
-250.26
-257.18
-255.64
-250.12
-246.93
-250.74
-262.66
-280.32
-298.74
-313.62
-321.74
-321.44
-313
-298.3
-279.74
-259.26
-237.69
-214.25
-187.55
-155.84
-117.5
-71.65
-18.21
42.35
109.24
180.98
254.55
324.86
385.24
429.07
452.21
455.14
443.14
424.27
406.36
394.1
387.93
384.97
381.02
372.43
357.73
337.53
313.44
287.16
259.88
232.33
205
178.53
153.56
130.86
110.9
93.49
77.73
62.16
45.53
27.14
7.21
-13.19
-32.48
-49.34
-63.19
-74.16
-83.08
-91.04
-98.95
-107.23
-115.54
-122.84
-127.91
-129.56
-126.4
-116.87
-99.27
-72.54
-37.4
2.83
42.08
72.56
87.14
81.91
57.67
19.72
-24.31
-66.87
-102.33
-127.06
-139.09
-137.53
-122.71
-96.89
-64.42
-31.08
-2.16
19.3
33.65
43.95
53.92
65.66
78.21
88.17
91.02
83.07
63.17
33.53
-0.54
-32.1
-54.69
-64.34
-60.17
-43.86
-18.34
13.25
47.88
82.72
114.67
